'Elapsed time','AECG1','AECG2','AECG3','AECG4'
'seconds','uV','uV','uV','uV'
0.000,-39.000,-117.000,-69.500,-46.500
0.001,-33.500,-110.500,-62.000,-39.000
0.002,-27.500,-104.000,-55.000,-31.500
0.003,-22.000,-97.000,-47.500,-24.000
0.004,-16.500,-91.000,-40.000,-16.500
0.005,-12.000,-85.500,-33.500,-10.000
0.006,-9.000,-81.000,-28.500,-5.000
0.007,-6.500,-78.000,-25.500,-2.000
0.008,-5.500,-77.000,-24.000,-1.000
0.009,-5.500,-77.000,-24.500,-2.000
0.010,-6.000,-78.000,-26.500,-4.500
0.011,-6.500,-80.000,-29.500,-8.500
0.012,-7.000,-81.500,-32.500,-13.000
0.013,-7.000,-83.000,-35.000,-16.500
0.014,-6.000,-83.000,-36.500,-19.000
0.015,-4.500,-82.500,-36.500,-20.500
0.016,-3.000,-81.000,-36.500,-21.000
0.017,-1.000,-80.000,-35.500,-21.000
0.018,1.000,-78.500,-34.500,-21.000
0.019,2.500,-77.000,-33.500,-20.500
0.020,4.000,-75.500,-32.500,-19.500
0.021,5.000,-74.000,-31.000,-18.500
0.022,6.500,-72.500,-29.000,-16.500
0.023,8.000,-70.500,-27.000,-14.500
0.024,9.500,-68.500,-24.500,-11.500
0.025,10.000,-67.000,-22.000,-9.000
0.026,10.000,-66.500,-21.000,-8.000
0.027,8.000,-68.000,-21.500,-8.500
0.028,5.000,-71.000,-24.500,-11.500
0.029,0.500,-75.500,-29.500,-16.500
0.030,-4.500,-81.500,-35.500,-22.500
0.031,-10.000,-87.500,-42.500,-30.000
0.032,-15.000,-93.500,-49.500,-36.500
0.033,-19.000,-98.500,-55.000,-42.500
0.034,-22.000,-102.000,-59.000,-46.000
0.035,-23.500,-104.000,-61.500,-48.500
0.036,-24.500,-105.500,-63.000,-50.000
0.037,-25.000,-106.000,-64.000,-51.000
0.038,-25.500,-106.500,-64.000,-51.000
0.039,-25.500,-106.000,-64.000,-51.000
0.040,-25.000,-105.500,-63.000,-50.000
0.041,-24.500,-104.500,-62.000,-48.500
0.042,-23.500,-102.500,-60.000,-46.000
0.043,-21.500,-100.000,-57.000,-43.000
0.044,-19.000,-97.000,-53.000,-39.000
0.045,-17.000,-93.500,-49.500,-35.500
0.046,-16.000,-91.500,-47.000,-32.500
0.047,-15.500,-90.500,-45.500,-31.500
0.048,-16.500,-91.500,-46.500,-32.500
0.049,-19.000,-93.500,-49.500,-35.500
0.050,-22.000,-97.000,-53.500,-40.000
0.051,-25.500,-101.500,-58.500,-45.500
0.052,-28.500,-105.500,-64.000,-51.000
0.053,-31.500,-109.000,-68.500,-55.500
0.054,-33.500,-112.000,-71.500,-59.000
0.055,-34.500,-113.500,-74.000,-61.000
0.056,-35.000,-114.500,-75.000,-62.000
0.057,-35.000,-114.500,-75.000,-62.000
0.058,-34.500,-113.500,-74.500,-61.500
0.059,-33.500,-112.500,-73.000,-60.000
0.060,-32.500,-111.000,-71.500,-58.000
0.061,-30.500,-109.000,-69.000,-55.500
0.062,-28.500,-106.500,-66.000,-52.500
0.063,-26.500,-103.500,-62.500,-49.000
0.064,-24.000,-100.500,-58.500,-45.000
0.065,-22.000,-97.500,-55.000,-41.000
0.066,-21.000,-95.500,-53.000,-38.500
0.067,-21.000,-95.500,-52.500,-38.000
0.068,-23.000,-97.000,-54.000,-40.000
0.069,-26.000,-100.000,-58.000,-44.000
0.070,-29.500,-104.500,-63.000,-49.500
0.071,-34.000,-109.500,-68.500,-55.500
0.072,-37.500,-114.000,-74.000,-61.000
0.073,-40.000,-117.500,-78.500,-65.500
0.074,-41.500,-120.000,-81.000,-68.500
0.075,-42.000,-120.500,-82.500,-69.500
0.076,-41.500,-120.500,-82.500,-69.500
0.077,-40.500,-120.000,-81.500,-69.000
0.078,-39.000,-118.500,-80.500,-67.500
0.079,-37.500,-117.000,-78.500,-65.500
0.080,-35.500,-115.000,-76.000,-63.000
0.081,-33.500,-112.000,-73.000,-60.000
0.082,-31.000,-108.500,-69.000,-56.000
0.083,-28.000,-105.000,-64.500,-51.000
0.084,-25.000,-100.500,-60.000,-46.000
0.085,-22.000,-96.500,-55.000,-41.000
0.086,-20.000,-93.500,-51.000,-37.000
0.087,-18.500,-92.000,-49.500,-34.500
0.088,-18.500,-92.500,-49.500,-35.000
0.089,-20.500,-94.500,-52.000,-37.000
0.090,-23.000,-97.500,-56.000,-41.500
0.091,-26.500,-101.500,-61.000,-46.500
0.092,-29.500,-105.500,-66.000,-51.500
0.093,-32.500,-109.000,-70.000,-56.500
0.094,-34.000,-111.500,-73.000,-59.500
0.095,-34.500,-112.500,-74.500,-61.000
0.096,-35.000,-112.500,-75.000,-61.500
0.097,-34.500,-112.500,-75.000,-61.500
0.098,-34.000,-111.500,-75.000,-61.000
0.099,-33.500,-111.000,-74.000,-59.500
0.100,-32.000,-109.500,-72.000,-58.000
0.101,-30.500,-107.500,-69.500,-55.500
0.102,-29.000,-105.000,-66.500,-52.000
0.103,-26.500,-101.500,-62.500,-48.000
0.104,-23.500,-98.000,-58.000,-43.500
0.105,-21.000,-94.500,-54.000,-39.000
0.106,-19.500,-92.500,-50.500,-36.000
0.107,-19.000,-91.500,-49.500,-35.000
0.108,-20.000,-93.000,-50.500,-36.000
0.109,-22.500,-95.500,-53.500,-39.000
0.110,-26.000,-99.500,-58.000,-44.000
0.111,-30.000,-104.000,-63.500,-49.500
0.112,-33.000,-108.000,-68.500,-54.500
0.113,-35.500,-111.500,-72.500,-59.000
0.114,-37.000,-114.000,-75.500,-62.000
0.115,-38.000,-115.000,-77.500,-63.500
0.116,-38.500,-115.500,-78.000,-64.500
0.117,-38.500,-115.500,-78.000,-64.500
0.118,-38.000,-114.500,-77.000,-64.000
0.119,-36.500,-113.000,-76.000,-62.500
0.120,-35.500,-111.500,-74.000,-60.000
0.121,-34.000,-109.500,-71.500,-58.000
0.122,-32.500,-107.500,-69.000,-55.500
0.123,-31.000,-105.500,-66.000,-52.000
0.124,-29.000,-103.000,-62.500,-48.500
0.125,-27.000,-100.500,-59.500,-45.500
0.126,-25.500,-98.500,-57.000,-43.000
0.127,-25.500,-98.000,-56.500,-42.000
0.128,-27.000,-99.000,-57.500,-43.500
0.129,-29.500,-101.500,-60.500,-46.500
0.130,-33.000,-105.000,-65.000,-51.000
0.131,-37.000,-109.500,-70.500,-56.500
0.132,-40.500,-114.000,-75.500,-62.000
0.133,-43.000,-117.500,-80.000,-66.500
0.134,-44.500,-119.500,-83.000,-69.500
0.135,-45.500,-120.500,-84.000,-71.500
0.136,-45.000,-121.000,-84.500,-72.000
0.137,-44.500,-120.000,-84.000,-71.500
0.138,-43.500,-119.000,-82.500,-70.000
0.139,-41.500,-117.000,-80.500,-67.500
0.140,-39.500,-114.500,-78.000,-64.500
0.141,-37.000,-111.500,-74.500,-61.000
0.142,-33.500,-108.000,-70.500,-56.500
0.143,-30.000,-103.500,-65.500,-51.000
0.144,-26.000,-98.500,-59.500,-45.000
0.145,-22.500,-93.500,-54.000,-39.500
0.146,-19.500,-90.000,-49.500,-35.000
0.147,-18.000,-88.000,-47.000,-32.000
0.148,-18.000,-88.000,-46.500,-32.000
0.149,-19.500,-90.000,-48.500,-34.000
0.150,-22.000,-93.000,-52.500,-38.000
0.151,-25.500,-97.000,-57.000,-43.000
0.152,-28.500,-101.500,-62.500,-48.500
0.153,-31.500,-105.500,-67.500,-54.000
0.154,-34.000,-108.500,-71.500,-58.000
0.155,-35.500,-110.500,-74.500,-61.000
0.156,-36.500,-112.000,-76.500,-63.000
0.157,-37.000,-112.500,-77.500,-64.500
0.158,-37.000,-113.000,-78.000,-65.000
0.159,-36.500,-112.500,-78.000,-65.000
0.160,-36.000,-112.000,-77.000,-64.500
0.161,-34.500,-110.000,-75.500,-62.500
0.162,-32.500,-107.500,-72.500,-59.500
0.163,-29.500,-103.500,-68.000,-55.000
0.164,-26.000,-99.000,-62.500,-49.000
0.165,-22.500,-94.500,-57.000,-43.500
0.166,-19.500,-90.500,-52.500,-38.500
0.167,-18.000,-88.000,-49.000,-35.000
0.168,-17.500,-87.000,-48.000,-33.500
0.169,-18.000,-87.500,-48.500,-34.500
0.170,-19.500,-89.000,-51.000,-36.500
0.171,-21.500,-91.500,-54.000,-39.500
0.172,-23.000,-94.000,-57.000,-43.000
0.173,-24.500,-95.500,-59.500,-45.500
0.174,-24.500,-96.500,-61.000,-46.500
0.175,-24.000,-96.500,-61.500,-47.000
0.176,-23.500,-96.000,-61.500,-46.000
0.177,-22.500,-95.000,-60.500,-45.000
0.178,-21.000,-93.500,-59.000,-43.500
0.179,-19.500,-91.500,-57.000,-41.500
0.180,-17.500,-89.500,-54.500,-39.000
0.181,-15.500,-87.000,-51.500,-36.500
0.182,-13.500,-84.500,-48.500,-33.000
0.183,-11.000,-81.500,-44.500,-29.000
0.184,-8.500,-78.000,-40.000,-25.000
0.185,-6.000,-75.000,-36.000,-21.000
0.186,-5.000,-72.500,-33.500,-18.500
0.187,-4.500,-72.000,-32.500,-18.000
0.188,-6.000,-73.500,-33.500,-19.500
0.189,-9.000,-76.500,-37.000,-23.000
0.190,-12.500,-80.500,-42.000,-28.000
0.191,-17.000,-85.500,-47.500,-34.000
0.192,-20.500,-90.500,-53.000,-40.000
0.193,-23.500,-94.500,-57.500,-44.500
0.194,-25.000,-96.500,-60.500,-47.000
0.195,-25.500,-97.500,-62.000,-48.500
0.196,-25.500,-97.000,-62.000,-48.000
0.197,-24.000,-96.000,-61.000,-46.500
0.198,-22.500,-94.000,-59.000,-44.500
0.199,-20.500,-92.000,-57.000,-42.000
0.200,-18.500,-89.500,-54.500,-39.500
0.201,-16.500,-87.000,-51.500,-36.500
0.202,-14.000,-84.500,-48.000,-33.000
0.203,-11.500,-81.000,-44.500,-29.000
0.204,-8.500,-77.500,-40.000,-25.000
0.205,-6.500,-74.000,-36.000,-21.000
0.206,-5.000,-72.000,-33.500,-18.000
0.207,-4.500,-71.500,-32.500,-17.000
0.208,-6.000,-72.500,-33.500,-18.000
0.209,-8.500,-75.000,-36.000,-21.000
0.210,-12.000,-79.000,-40.500,-25.000
0.211,-15.500,-83.500,-46.000,-30.500
0.212,-19.000,-88.000,-51.000,-36.000
0.213,-21.500,-91.000,-55.500,-40.500
0.214,-23.000,-93.500,-58.000,-43.000
0.215,-23.500,-94.000,-59.000,-44.500
0.216,-23.500,-94.000,-59.500,-45.000
0.217,-23.000,-93.500,-59.000,-44.500
0.218,-22.000,-92.500,-58.000,-43.500
0.219,-21.000,-91.000,-56.500,-41.500
0.220,-19.500,-89.000,-54.500,-39.500
0.221,-18.000,-87.000,-52.000,-37.000
0.222,-15.500,-84.000,-49.000,-33.500
0.223,-13.000,-80.500,-45.000,-29.500
0.224,-10.000,-76.500,-40.500,-25.000
0.225,-7.500,-73.000,-36.000,-20.500
0.226,-6.000,-71.000,-33.000,-17.500
0.227,-5.500,-70.000,-32.000,-16.500
0.228,-7.000,-71.500,-33.000,-18.000
0.229,-9.000,-74.000,-36.000,-21.000
0.230,-12.500,-78.000,-40.500,-25.500
0.231,-16.000,-82.500,-46.000,-31.000
0.232,-19.500,-87.000,-51.000,-36.500
0.233,-22.000,-90.000,-55.000,-41.000
0.234,-23.500,-92.000,-57.500,-43.500
0.235,-24.000,-92.500,-58.500,-45.000
0.236,-23.500,-92.500,-59.000,-45.000
0.237,-23.000,-92.000,-58.000,-44.500
0.238,-22.000,-91.000,-57.000,-43.500
0.239,-21.000,-90.000,-56.000,-42.500
0.240,-20.500,-88.500,-54.500,-41.000
0.241,-19.000,-87.500,-52.500,-39.000
0.242,-18.000,-85.500,-50.500,-36.500
0.243,-16.500,-83.500,-47.500,-33.500
0.244,-14.500,-81.000,-44.500,-30.000
0.245,-13.000,-78.500,-41.500,-27.000
0.246,-12.500,-77.000,-39.500,-25.000
0.247,-12.500,-76.500,-39.000,-24.500
0.248,-14.000,-78.000,-40.500,-26.000
0.249,-16.500,-81.000,-43.500,-29.000
0.250,-20.000,-85.500,-48.500,-34.000
0.251,-24.500,-90.500,-54.000,-40.000
0.252,-28.000,-95.500,-60.000,-45.500
0.253,-31.500,-99.500,-65.000,-50.500
0.254,-33.500,-102.500,-68.500,-54.000
0.255,-35.000,-104.000,-70.500,-56.000
0.256,-35.500,-104.500,-71.000,-57.000
0.257,-35.000,-104.500,-71.000,-57.500
0.258,-34.500,-103.500,-70.500,-57.000
0.259,-34.000,-102.500,-69.500,-56.000
0.260,-33.000,-101.500,-68.500,-55.000
0.261,-32.500,-100.500,-67.000,-53.500
0.262,-31.500,-99.000,-65.000,-51.500
0.263,-30.000,-97.000,-62.500,-48.500
0.264,-29.000,-94.500,-59.500,-45.500
0.265,-28.000,-93.000,-56.500,-43.000
0.266,-27.500,-91.500,-55.000,-41.000
0.267,-28.500,-92.000,-54.500,-40.500
0.268,-30.500,-94.000,-56.500,-42.500
0.269,-34.000,-97.500,-60.000,-46.500
0.270,-38.000,-102.000,-65.500,-52.000
0.271,-42.500,-107.000,-71.500,-58.000
0.272,-46.000,-112.000,-77.500,-64.000
0.273,-49.000,-115.500,-82.000,-69.000
0.274,-51.000,-118.500,-85.500,-72.000
0.275,-51.500,-119.500,-87.000,-74.000
0.276,-51.500,-120.000,-88.000,-74.500
0.277,-51.500,-119.500,-87.500,-74.000
0.278,-50.500,-118.500,-86.500,-73.500
0.279,-49.500,-117.500,-85.000,-72.000
0.280,-48.000,-116.000,-83.000,-70.500
0.281,-46.500,-114.000,-81.000,-68.000
0.282,-44.500,-111.500,-78.000,-65.000
0.283,-42.500,-109.000,-74.500,-61.500
0.284,-40.000,-105.500,-71.000,-57.500
0.285,-38.000,-103.000,-67.500,-53.500
0.286,-37.000,-101.000,-65.000,-51.000
0.287,-37.500,-100.500,-64.500,-50.500
0.288,-39.000,-102.000,-66.000,-52.000
0.289,-41.500,-104.500,-69.500,-55.000
0.290,-45.000,-108.500,-74.000,-59.500
0.291,-48.500,-113.000,-79.000,-65.000
0.292,-52.000,-118.000,-84.500,-70.500
0.293,-55.000,-121.500,-89.000,-75.000
0.294,-57.000,-124.500,-92.000,-78.500
0.295,-58.000,-126.000,-94.000,-81.000
0.296,-58.500,-127.000,-95.000,-82.000
0.297,-59.000,-127.000,-95.500,-82.500
0.298,-59.000,-127.000,-95.000,-82.500
0.299,-58.000,-126.500,-94.500,-81.500
0.300,-57.000,-125.000,-93.000,-80.000
0.301,-56.000,-123.500,-91.000,-77.500
0.302,-54.000,-121.000,-88.500,-75.000
0.303,-52.000,-118.000,-85.000,-71.000
0.304,-49.000,-114.000,-81.000,-67.000
0.305,-46.500,-110.500,-76.500,-62.500
0.306,-45.000,-108.000,-73.500,-59.500
0.307,-44.000,-107.000,-72.000,-58.000
0.308,-44.500,-107.000,-72.000,-58.000
0.309,-46.500,-109.000,-74.000,-60.500
0.310,-49.000,-112.500,-78.000,-64.500
0.311,-52.500,-116.000,-82.500,-69.500
0.312,-55.500,-120.000,-87.000,-74.000
0.313,-57.500,-123.000,-90.500,-78.000
0.314,-59.000,-125.000,-93.500,-81.000
0.315,-59.500,-125.500,-94.500,-82.500
0.316,-59.000,-126.000,-95.000,-83.000
0.317,-58.500,-125.000,-94.500,-82.000
0.318,-57.000,-124.000,-93.500,-81.000
0.319,-56.000,-122.500,-92.000,-79.000
0.320,-54.500,-121.000,-90.000,-77.000
0.321,-53.000,-119.000,-87.500,-74.500
0.322,-51.500,-116.500,-85.000,-72.000
0.323,-49.500,-114.000,-82.000,-68.500
0.324,-47.000,-111.000,-78.000,-65.000
0.325,-45.000,-108.000,-74.500,-61.500
0.326,-44.000,-106.000,-72.000,-58.500
0.327,-44.000,-105.500,-71.500,-58.000
0.328,-45.500,-107.500,-73.000,-59.500
0.329,-48.000,-110.500,-76.500,-63.000
0.330,-52.500,-115.500,-81.500,-68.500
0.331,-57.000,-121.000,-88.000,-75.000
0.332,-62.000,-126.500,-94.500,-82.000
0.333,-66.500,-131.500,-100.500,-88.000
0.334,-69.500,-135.500,-104.500,-92.500
0.335,-71.500,-138.000,-107.500,-95.500
0.336,-72.000,-139.000,-109.000,-97.000
0.337,-72.500,-139.500,-109.500,-97.000
0.338,-72.000,-139.000,-109.000,-97.000
0.339,-70.500,-137.500,-107.500,-95.500
0.340,-69.000,-136.000,-105.500,-93.500
0.341,-66.500,-133.500,-102.500,-90.500
0.342,-64.500,-130.500,-99.000,-87.000
0.343,-61.500,-127.000,-95.000,-83.000
0.344,-58.500,-123.500,-90.500,-78.000
0.345,-56.000,-120.000,-86.500,-74.000
0.346,-54.000,-117.000,-83.000,-70.500
0.347,-53.500,-116.000,-81.000,-68.500
0.348,-54.000,-116.500,-81.500,-69.000
0.349,-56.500,-118.500,-84.000,-71.500
0.350,-59.500,-122.000,-88.000,-75.500
0.351,-63.000,-126.000,-93.500,-81.000
0.352,-66.500,-130.500,-98.500,-86.500
0.353,-70.000,-135.000,-103.000,-91.500
0.354,-72.000,-137.500,-106.500,-95.000
0.355,-73.000,-139.000,-108.500,-97.000
0.356,-72.500,-139.500,-108.500,-97.500
0.357,-72.000,-138.500,-108.000,-96.500
0.358,-70.500,-137.000,-106.500,-95.000
0.359,-69.000,-135.500,-104.500,-93.000
0.360,-67.500,-133.000,-102.000,-90.500
0.361,-65.500,-130.500,-99.500,-87.500
0.362,-63.000,-127.500,-96.000,-83.500
0.363,-60.500,-124.000,-92.000,-79.500
0.364,-57.500,-120.500,-88.000,-75.500
0.365,-55.500,-117.000,-84.000,-71.500
0.366,-54.000,-115.000,-81.500,-68.500
0.367,-54.000,-114.500,-80.500,-68.000
0.368,-55.500,-116.000,-81.500,-69.000
0.369,-58.000,-118.500,-84.500,-72.000
0.370,-61.500,-122.500,-89.000,-77.000
0.371,-65.000,-127.000,-94.000,-82.500
0.372,-68.500,-131.500,-99.500,-88.000
0.373,-72.000,-135.000,-104.500,-93.000
0.374,-74.500,-138.000,-108.000,-96.500
0.375,-76.000,-140.000,-110.500,-99.000
0.376,-76.500,-141.000,-111.500,-100.000
0.377,-77.000,-141.000,-112.000,-100.500
0.378,-77.000,-141.000,-112.000,-100.500
0.379,-76.500,-141.000,-112.000,-100.000
0.380,-76.500,-140.000,-111.000,-99.000
0.381,-76.000,-139.000,-110.000,-97.500
0.382,-75.000,-137.500,-108.000,-95.500
0.383,-73.500,-135.500,-105.000,-92.500
0.384,-72.000,-132.500,-102.000,-89.000
0.385,-70.000,-130.000,-98.500,-85.500
0.386,-68.500,-128.000,-95.500,-83.000
0.387,-68.000,-127.000,-94.500,-81.500
0.388,-69.000,-127.500,-95.000,-82.000
0.389,-71.000,-129.500,-97.500,-85.000
0.390,-74.000,-133.000,-101.500,-89.000
0.391,-78.000,-137.000,-106.500,-94.500
0.392,-81.000,-141.500,-111.500,-100.000
0.393,-84.000,-145.000,-116.000,-104.000
0.394,-85.500,-147.000,-119.000,-107.000
0.395,-85.500,-148.000,-120.000,-108.000
0.396,-85.000,-147.500,-120.000,-108.000
0.397,-83.500,-146.500,-118.500,-107.000
0.398,-81.500,-144.000,-116.500,-104.500
0.399,-79.500,-141.500,-114.000,-102.000
0.400,-76.500,-138.500,-110.500,-98.500
0.401,-73.500,-135.000,-106.500,-94.500
0.402,-69.500,-130.500,-102.000,-89.500
0.403,-66.000,-126.000,-97.000,-84.000
0.404,-62.000,-121.000,-91.500,-78.500
0.405,-58.500,-116.500,-86.000,-73.500
0.406,-56.000,-113.500,-82.500,-69.500
0.407,-54.500,-111.500,-80.500,-67.500
0.408,-55.000,-111.500,-80.500,-67.500
0.409,-57.000,-113.500,-83.000,-70.500
0.410,-60.000,-117.500,-87.500,-75.000
0.411,-64.500,-122.000,-93.000,-81.000
0.412,-68.500,-127.000,-99.000,-87.000
0.413,-72.000,-131.000,-104.000,-92.000
0.414,-74.500,-134.500,-107.500,-96.000
0.415,-75.500,-136.000,-109.500,-98.000
0.416,-76.000,-136.500,-110.000,-98.500
0.417,-75.000,-136.000,-109.500,-98.000
0.418,-74.000,-135.000,-108.500,-97.000
0.419,-72.500,-133.500,-106.500,-95.000
0.420,-71.000,-131.500,-104.500,-92.500
0.421,-69.000,-128.500,-102.000,-89.500
0.422,-67.000,-126.000,-99.000,-86.000
0.423,-64.500,-122.500,-95.000,-82.500
0.424,-62.000,-119.000,-91.000,-78.000
0.425,-59.500,-116.000,-87.000,-74.000
0.426,-57.500,-113.500,-84.000,-71.000
0.427,-57.000,-112.000,-82.500,-69.500
0.428,-57.500,-112.500,-83.000,-70.000
0.429,-59.500,-114.500,-85.000,-72.000
0.430,-62.000,-117.500,-89.000,-76.000
0.431,-65.500,-121.500,-93.500,-81.000
0.432,-68.500,-125.500,-98.000,-86.000
0.433,-71.000,-128.500,-102.000,-90.000
0.434,-72.000,-130.500,-104.500,-92.500
0.435,-72.500,-131.000,-105.500,-93.500
0.436,-71.500,-130.500,-105.500,-93.500
0.437,-70.500,-129.500,-105.000,-92.500
0.438,-69.500,-128.000,-103.500,-91.500
0.439,-67.500,-126.000,-101.500,-89.500
0.440,-66.000,-123.500,-99.000,-87.000
0.441,-64.000,-121.000,-96.000,-84.000
0.442,-61.500,-118.500,-92.500,-80.500
0.443,-59.000,-115.000,-88.500,-76.500
0.444,-56.500,-111.500,-84.000,-72.000
0.445,-54.000,-108.000,-80.000,-68.000
0.446,-52.000,-105.000,-77.000,-64.500
0.447,-51.500,-104.000,-75.500,-63.000
0.448,-52.500,-105.000,-76.000,-64.000
0.449,-55.000,-107.500,-78.500,-67.000
0.450,-58.500,-111.500,-83.500,-71.500
0.451,-63.000,-116.500,-89.500,-78.000
0.452,-67.500,-122.000,-95.500,-84.500
0.453,-71.000,-126.500,-101.000,-90.000
0.454,-74.000,-130.000,-105.000,-94.500
0.455,-75.000,-131.500,-107.500,-97.000
0.456,-75.500,-132.500,-108.500,-98.000
0.457,-75.500,-132.000,-108.500,-98.000
0.458,-74.500,-131.500,-107.500,-97.000
0.459,-73.500,-130.500,-106.500,-95.500
0.460,-72.500,-129.000,-105.000,-93.500
0.461,-71.000,-127.500,-103.000,-91.500
0.462,-69.500,-125.000,-100.500,-88.500
0.463,-67.500,-122.500,-97.000,-85.000
0.464,-65.500,-119.000,-93.000,-81.000
0.465,-63.000,-116.000,-89.000,-77.000
0.466,-61.500,-113.500,-86.000,-74.000
0.467,-61.000,-112.500,-85.000,-73.000
0.468,-62.500,-113.500,-86.000,-74.000
0.469,-65.000,-116.500,-89.000,-77.000
0.470,-68.000,-120.500,-93.500,-81.500
0.471,-72.000,-125.000,-99.000,-87.000
0.472,-75.500,-129.500,-104.500,-92.500
0.473,-78.500,-133.000,-109.000,-97.500
0.474,-81.000,-136.000,-112.500,-101.000
0.475,-82.500,-138.000,-115.000,-103.500
0.476,-83.500,-139.000,-116.000,-104.500
0.477,-83.500,-139.500,-116.500,-105.000
0.478,-83.500,-139.500,-116.000,-104.500
0.479,-82.500,-138.500,-115.000,-103.500
0.480,-81.500,-137.000,-113.500,-102.000
0.481,-79.500,-135.000,-111.000,-99.500
0.482,-77.500,-132.500,-108.000,-96.500
0.483,-75.000,-129.000,-104.000,-92.500
0.484,-72.000,-125.500,-99.500,-88.000
0.485,-69.000,-121.500,-95.000,-83.000
0.486,-66.500,-118.500,-91.500,-79.500
0.487,-65.500,-117.000,-89.500,-77.000
0.488,-65.500,-117.000,-89.000,-77.000
0.489,-67.000,-118.500,-91.000,-79.000
0.490,-69.500,-121.000,-94.000,-82.500
0.491,-72.500,-124.500,-98.500,-87.500
0.492,-75.500,-128.500,-103.000,-92.000
0.493,-78.000,-131.500,-107.000,-96.000
0.494,-79.000,-133.500,-109.500,-98.500
0.495,-79.500,-134.500,-110.500,-99.500
0.496,-79.000,-134.000,-110.000,-99.500
0.497,-78.500,-133.500,-109.500,-99.000
0.498,-77.500,-132.500,-108.500,-97.500
0.499,-76.500,-131.500,-107.000,-96.500
0.500,-76.000,-130.000,-105.500,-94.500
0.501,-74.500,-128.500,-104.000,-92.500
0.502,-73.000,-126.500,-101.500,-90.000
0.503,-71.000,-124.000,-98.500,-87.000
0.504,-69.000,-121.500,-95.500,-84.000
0.505,-67.500,-119.000,-92.500,-81.000
0.506,-66.500,-118.000,-91.000,-79.500
0.507,-67.000,-118.000,-91.500,-80.000
0.508,-69.500,-120.500,-94.000,-83.000
0.509,-72.500,-124.000,-98.000,-88.000
0.510,-77.000,-129.000,-103.500,-94.000
0.511,-81.500,-134.000,-110.000,-100.500
0.512,-85.500,-139.000,-116.000,-107.000
0.513,-88.500,-143.000,-120.500,-112.000
0.514,-90.500,-145.500,-123.500,-115.000
0.515,-91.500,-147.000,-125.000,-116.000
0.516,-92.000,-147.000,-125.500,-116.000
0.517,-92.000,-146.500,-124.500,-115.000
0.518,-91.000,-145.500,-123.500,-113.500
0.519,-90.000,-144.000,-121.500,-111.500
0.520,-88.500,-142.000,-119.000,-108.500
0.521,-86.500,-139.500,-116.000,-105.500
0.522,-84.000,-136.500,-112.500,-101.500
0.523,-81.000,-132.500,-108.500,-97.000
0.524,-78.500,-129.000,-104.000,-92.000
0.525,-75.500,-125.000,-99.500,-87.500
0.526,-73.500,-122.500,-96.000,-84.000
0.527,-73.000,-121.000,-94.000,-82.000
0.528,-73.000,-121.000,-94.000,-82.000
0.529,-75.000,-123.000,-96.000,-84.500
0.530,-77.500,-126.500,-100.000,-88.500
0.531,-80.500,-130.500,-104.500,-93.000
0.532,-83.000,-134.000,-109.000,-98.000
0.533,-85.500,-137.000,-113.000,-102.000
0.534,-86.500,-139.000,-115.500,-104.500
0.535,-86.500,-139.500,-116.500,-105.500
0.536,-86.000,-139.000,-116.500,-105.500
0.537,-85.000,-138.000,-116.000,-105.000
0.538,-83.500,-136.500,-114.500,-103.500
0.539,-82.000,-134.500,-112.500,-101.500
0.540,-80.500,-132.500,-110.500,-99.500
0.541,-78.500,-130.000,-108.000,-96.500
0.542,-76.500,-127.500,-105.000,-93.500
0.543,-74.000,-124.000,-101.000,-89.500
0.544,-71.500,-121.000,-97.000,-85.000
0.545,-69.000,-117.500,-93.500,-81.000
0.546,-67.500,-115.000,-90.000,-77.500
0.547,-66.500,-113.500,-88.500,-76.000
0.548,-67.500,-114.000,-89.000,-76.000
0.549,-69.500,-116.000,-91.000,-78.500
0.550,-72.500,-119.500,-95.000,-83.000
0.551,-76.000,-124.000,-100.000,-88.000
0.552,-79.500,-128.500,-105.000,-93.500
0.553,-82.000,-132.000,-109.500,-98.000
0.554,-84.000,-134.500,-112.500,-101.500
0.555,-84.500,-135.500,-114.000,-103.500
0.556,-84.500,-135.500,-114.500,-104.000
0.557,-84.000,-135.000,-114.000,-103.500
0.558,-83.000,-134.000,-113.000,-102.000
0.559,-81.500,-132.500,-111.500,-100.500
0.560,-80.000,-130.500,-109.000,-98.000
0.561,-78.000,-128.000,-106.500,-95.000
0.562,-75.500,-125.000,-103.000,-91.500
0.563,-72.500,-121.500,-99.000,-87.000
0.564,-69.000,-117.000,-94.000,-81.500
0.565,-65.500,-113.000,-89.000,-76.500
0.566,-63.000,-109.500,-85.000,-72.000
0.567,-61.500,-108.000,-83.000,-70.000
0.568,-62.000,-108.000,-83.500,-70.000
0.569,-63.500,-110.000,-85.500,-72.500
0.570,-66.500,-113.500,-90.000,-77.000
0.571,-70.000,-118.000,-95.000,-82.500
0.572,-73.500,-122.000,-100.000,-87.500
0.573,-76.000,-125.500,-104.500,-92.000
0.574,-77.500,-127.500,-107.000,-95.000
0.575,-78.000,-128.500,-108.500,-96.500
0.576,-77.500,-128.000,-108.000,-96.500
0.577,-76.000,-126.500,-107.000,-95.000
0.578,-74.000,-124.500,-105.000,-93.000
0.579,-72.000,-122.000,-102.500,-90.500
0.580,-69.000,-119.000,-99.000,-87.000
0.581,-66.000,-115.500,-96.000,-83.500
0.582,-63.000,-112.000,-92.000,-79.500
0.583,-60.000,-108.000,-87.500,-75.000
0.584,-57.000,-104.000,-83.000,-70.500
0.585,-54.500,-100.000,-78.500,-66.000
0.586,-52.500,-97.000,-75.500,-62.500
0.587,-51.500,-95.500,-73.500,-60.500
0.588,-51.500,-95.500,-73.500,-60.500
0.589,-53.000,-97.500,-75.500,-62.500
0.590,-56.000,-100.500,-79.500,-66.500
0.591,-59.000,-104.500,-84.000,-71.500
0.592,-62.500,-109.000,-89.000,-77.000
0.593,-65.000,-112.500,-93.500,-81.500
0.594,-66.500,-115.000,-96.500,-84.500
0.595,-67.000,-116.000,-98.000,-86.500
0.596,-66.500,-116.000,-98.000,-86.500
0.597,-65.500,-115.000,-97.500,-85.500
0.598,-64.000,-113.500,-96.000,-84.000
0.599,-62.500,-111.500,-93.500,-81.500
0.600,-60.000,-109.000,-91.000,-79.000
0.601,-58.000,-106.000,-88.000,-75.500
0.602,-55.000,-103.000,-84.000,-72.000
0.603,-52.000,-99.000,-79.500,-67.500
0.604,-49.000,-95.000,-75.000,-62.500
0.605,-46.000,-91.000,-70.500,-57.500
0.606,-43.000,-87.500,-66.500,-53.500
0.607,-42.000,-85.500,-64.500,-51.000
0.608,-42.000,-85.500,-64.500,-51.000
0.609,-44.000,-87.500,-66.500,-53.000
0.610,-46.500,-90.500,-70.000,-56.500
0.611,-49.500,-94.500,-75.000,-62.000
0.612,-53.000,-99.000,-80.500,-67.500
0.613,-56.000,-103.000,-85.000,-72.500
0.614,-58.000,-105.500,-88.500,-76.000
0.615,-58.500,-106.500,-90.000,-77.500
0.616,-58.500,-106.500,-90.500,-78.500
0.617,-58.000,-106.000,-90.000,-78.000
0.618,-57.000,-105.000,-88.500,-76.500
0.619,-55.500,-103.500,-87.000,-74.500
0.620,-54.000,-101.500,-85.000,-72.500
0.621,-52.000,-99.000,-82.500,-70.000
0.622,-50.000,-96.500,-79.500,-66.500
0.623,-47.500,-93.500,-76.000,-63.000
0.624,-44.500,-89.500,-72.000,-58.500
0.625,-41.500,-86.000,-67.500,-53.500
0.626,-39.000,-83.000,-63.500,-49.500
0.627,-38.000,-81.000,-61.500,-47.500
0.628,-38.000,-81.000,-61.000,-47.500
0.629,-40.000,-83.000,-63.000,-50.000
0.630,-43.000,-86.500,-67.000,-54.500
0.631,-46.500,-91.000,-72.500,-60.000
0.632,-50.500,-96.000,-78.000,-65.500
0.633,-53.500,-100.000,-82.500,-70.500
0.634,-55.500,-102.500,-86.000,-74.000
0.635,-57.000,-104.500,-88.000,-76.500
0.636,-57.500,-105.000,-89.000,-77.500
0.637,-57.000,-105.000,-89.500,-77.500
0.638,-56.500,-104.500,-89.000,-76.500
0.639,-55.500,-103.500,-88.000,-75.500
0.640,-54.500,-102.000,-86.500,-73.500
0.641,-53.000,-100.000,-84.500,-71.500
0.642,-51.500,-98.000,-81.500,-68.500
0.643,-49.000,-95.000,-78.000,-64.500
0.644,-47.000,-92.000,-74.000,-60.500
0.645,-45.000,-89.000,-70.000,-57.000
0.646,-43.500,-87.000,-67.500,-54.000
0.647,-44.000,-86.500,-67.000,-53.500
0.648,-46.000,-88.500,-68.500,-55.000
0.649,-49.000,-92.000,-72.500,-59.000
0.650,-53.500,-96.500,-78.500,-64.500
0.651,-58.500,-102.500,-85.000,-71.000
0.652,-63.000,-108.000,-91.500,-77.500
0.653,-67.000,-112.500,-97.000,-83.500
0.654,-70.000,-116.500,-101.500,-88.000
0.655,-72.000,-118.500,-104.500,-91.000
0.656,-73.000,-120.000,-106.000,-92.500
0.657,-73.500,-120.500,-106.000,-93.000
0.658,-73.500,-120.500,-105.500,-92.500
0.659,-72.500,-119.000,-104.500,-91.500
0.660,-71.500,-117.500,-103.000,-89.500
0.661,-70.000,-115.500,-101.000,-87.000
0.662,-68.000,-113.500,-98.000,-84.000
0.663,-66.000,-110.500,-94.500,-80.500
0.664,-63.500,-107.000,-90.500,-76.500
0.665,-61.500,-104.000,-87.000,-72.500
0.666,-60.000,-102.000,-84.000,-69.500
0.667,-59.500,-101.000,-82.500,-68.000
0.668,-60.500,-102.000,-83.000,-68.500
0.669,-62.500,-104.500,-86.000,-71.500
0.670,-66.000,-108.500,-90.500,-76.000
0.671,-70.000,-113.000,-96.000,-82.000
0.672,-74.500,-118.000,-102.000,-88.000
0.673,-78.000,-122.500,-107.000,-93.500
0.674,-81.000,-125.500,-111.000,-97.500
0.675,-82.500,-127.500,-113.000,-99.500
0.676,-83.000,-128.000,-114.000,-100.500
0.677,-82.500,-127.500,-113.500,-100.000
0.678,-81.500,-127.000,-112.500,-99.500
0.679,-80.500,-125.500,-111.000,-98.000
0.680,-78.500,-123.500,-109.500,-96.000
0.681,-77.000,-121.500,-107.000,-93.500
0.682,-75.000,-119.500,-104.500,-91.000
0.683,-73.000,-117.000,-101.500,-87.500
0.684,-71.500,-114.000,-98.000,-84.000
0.685,-69.500,-111.500,-94.500,-80.500
0.686,-69.000,-109.500,-92.500,-78.000
0.687,-69.000,-109.500,-91.500,-77.000
0.688,-70.500,-110.500,-92.500,-78.500
0.689,-73.000,-113.000,-95.500,-81.500
0.690,-76.000,-117.000,-100.000,-86.000
0.691,-80.000,-121.500,-105.000,-91.500
0.692,-83.500,-126.500,-110.500,-97.000
0.693,-86.500,-130.000,-115.500,-102.000
0.694,-88.500,-133.000,-118.500,-105.500
0.695,-89.500,-134.500,-120.500,-107.500
0.696,-89.000,-134.500,-121.000,-108.000
0.697,-88.500,-134.500,-120.500,-107.500
0.698,-87.500,-133.500,-120.000,-106.500
0.699,-86.500,-132.000,-118.500,-105.500
0.700,-85.500,-130.500,-117.000,-103.500
0.701,-84.000,-129.000,-115.000,-101.500
0.702,-82.500,-126.500,-112.500,-99.000
0.703,-80.500,-123.500,-109.500,-95.500
0.704,-78.000,-120.500,-106.000,-91.500
0.705,-75.500,-117.000,-102.000,-87.500
0.706,-73.500,-114.500,-98.500,-84.000
0.707,-73.000,-113.000,-97.000,-82.500
0.708,-74.000,-113.500,-97.000,-83.000
0.709,-76.000,-116.000,-99.500,-85.500
0.710,-79.500,-119.500,-103.500,-90.500
0.711,-83.500,-124.000,-109.000,-96.000
0.712,-87.500,-129.000,-114.500,-102.000
0.713,-90.500,-133.000,-119.500,-107.000
0.714,-92.000,-135.500,-122.500,-110.500
0.715,-93.000,-137.000,-124.500,-112.500
0.716,-93.000,-137.000,-125.500,-113.000
0.717,-92.000,-136.500,-125.000,-112.500
0.718,-91.000,-135.500,-124.000,-111.500
0.719,-89.500,-134.000,-122.000,-109.500
0.720,-87.500,-131.500,-120.000,-107.000
0.721,-85.000,-128.500,-116.500,-103.500
0.722,-82.000,-125.000,-112.500,-99.000
0.723,-78.000,-121.000,-108.000,-94.000
0.724,-74.500,-116.000,-102.500,-88.500
0.725,-70.500,-111.500,-97.000,-83.000
0.726,-67.500,-107.500,-93.000,-78.500
0.727,-66.000,-105.500,-90.500,-76.000
0.728,-65.500,-105.500,-90.000,-75.500
0.729,-67.500,-107.500,-92.000,-77.500
0.730,-70.500,-111.000,-96.000,-82.000
0.731,-74.000,-115.000,-101.000,-87.000
0.732,-77.500,-119.500,-106.000,-93.000
0.733,-80.500,-123.500,-111.000,-97.500
0.734,-82.500,-126.000,-114.000,-101.000
0.735,-83.000,-127.000,-115.500,-103.000
0.736,-83.000,-127.500,-116.000,-103.500
0.737,-82.000,-126.500,-115.500,-103.000
0.738,-81.000,-125.000,-114.000,-101.500
0.739,-79.000,-123.000,-112.000,-99.500
0.740,-76.500,-120.500,-109.000,-96.500
0.741,-74.000,-117.500,-106.000,-93.500
0.742,-71.500,-114.000,-102.500,-90.000
0.743,-69.000,-110.500,-98.500,-85.500
0.744,-66.000,-107.000,-94.500,-81.500
0.745,-63.000,-103.500,-90.500,-77.000
0.746,-61.000,-101.000,-87.000,-73.500
0.747,-60.500,-100.000,-85.500,-72.000
0.748,-61.500,-100.500,-86.000,-72.500
0.749,-63.500,-103.000,-89.000,-75.000
0.750,-67.500,-107.000,-93.500,-79.500
0.751,-71.500,-112.000,-99.000,-85.500
0.752,-75.500,-117.000,-105.000,-91.500
0.753,-79.000,-121.500,-110.000,-96.500
0.754,-81.500,-124.500,-113.500,-100.500
0.755,-83.000,-126.500,-115.500,-103.000
0.756,-83.500,-127.500,-116.500,-104.500
0.757,-83.500,-127.500,-117.000,-105.000
0.758,-83.000,-127.000,-116.500,-104.500
0.759,-82.500,-126.500,-115.500,-104.000
0.760,-81.500,-125.500,-114.500,-102.500
0.761,-81.000,-124.500,-113.000,-101.000
0.762,-80.000,-123.000,-111.000,-99.000
0.763,-79.000,-120.500,-108.500,-96.000
0.764,-77.000,-118.000,-105.500,-93.000
0.765,-75.500,-115.500,-102.500,-89.500
0.766,-74.500,-113.500,-100.500,-87.000
0.767,-75.000,-113.500,-99.500,-86.500
0.768,-76.500,-114.500,-100.500,-87.500
0.769,-79.000,-117.500,-103.500,-90.500
0.770,-82.500,-121.500,-108.000,-95.000
0.771,-87.000,-126.500,-113.500,-101.000
0.772,-91.500,-132.000,-119.500,-107.000
0.773,-95.500,-136.500,-125.000,-112.500
0.774,-98.500,-140.500,-129.000,-116.500
0.775,-101.500,-143.500,-132.000,-119.500
0.776,-103.000,-145.000,-134.000,-121.000
0.777,-104.000,-146.000,-135.000,-122.000
0.778,-105.000,-146.500,-135.500,-121.500
0.779,-105.000,-146.500,-135.500,-121.000
0.780,-105.500,-146.000,-134.500,-120.000
0.781,-105.000,-145.000,-133.000,-118.000
0.782,-104.000,-143.000,-131.000,-115.500
0.783,-102.500,-140.500,-127.500,-111.500
0.784,-100.500,-137.000,-123.500,-106.500
0.785,-98.000,-133.500,-119.000,-101.500
0.786,-96.500,-130.500,-115.500,-97.000
0.787,-95.500,-129.000,-113.000,-94.000
0.788,-95.500,-129.000,-112.000,-93.000
0.789,-96.500,-129.500,-112.500,-93.000
0.790,-97.500,-131.000,-114.000,-94.500
0.791,-99.000,-132.500,-116.000,-96.500
0.792,-100.000,-134.000,-118.500,-98.500
0.793,-100.500,-135.000,-120.000,-100.000
0.794,-100.000,-135.500,-121.000,-100.500
0.795,-99.000,-134.500,-120.500,-100.500
0.796,-98.000,-133.500,-119.500,-99.500
0.797,-96.500,-132.000,-118.500,-98.000
0.798,-94.500,-130.500,-116.500,-96.000
0.799,-92.500,-128.000,-114.000,-94.000
0.800,-89.500,-125.000,-111.000,-91.000
0.801,-86.500,-121.500,-107.500,-87.500
0.802,-83.000,-117.000,-103.500,-84.000
0.803,-79.000,-112.500,-99.000,-80.000
0.804,-74.500,-108.000,-94.500,-76.000
0.805,-71.000,-104.000,-90.000,-72.500
0.806,-68.000,-100.500,-86.500,-70.500
0.807,-67.000,-99.500,-85.500,-70.500
0.808,-68.000,-100.500,-87.000,-73.000
0.809,-71.000,-103.500,-91.000,-78.000
0.810,-75.000,-109.000,-97.500,-85.500
0.811,-80.500,-115.500,-105.500,-94.000
0.812,-86.500,-123.000,-113.500,-103.000
0.813,-92.000,-129.500,-121.500,-111.000
0.814,-96.500,-135.000,-127.500,-117.500
0.815,-100.000,-139.500,-132.500,-122.500
0.816,-103.000,-142.500,-136.000,-126.000
0.817,-105.000,-144.500,-138.000,-128.000
0.818,-106.000,-145.500,-139.500,-129.500
0.819,-106.500,-146.000,-139.500,-129.500
0.820,-107.000,-146.000,-139.000,-129.000
0.821,-107.000,-145.500,-138.000,-128.000
0.822,-106.500,-144.000,-136.500,-126.000
0.823,-105.500,-142.500,-134.500,-124.000
0.824,-104.500,-140.500,-132.000,-121.000
0.825,-103.500,-139.000,-130.000,-118.500
0.826,-103.500,-138.000,-128.500,-117.000
0.827,-104.500,-138.500,-128.500,-117.000
0.828,-106.500,-140.500,-130.500,-119.500
0.829,-109.500,-143.500,-134.000,-123.000
0.830,-113.500,-148.000,-139.000,-128.000
0.831,-117.500,-152.500,-144.500,-134.000
0.832,-121.000,-157.000,-150.000,-140.000
0.833,-124.500,-161.000,-154.500,-145.000
0.834,-126.500,-163.500,-158.000,-148.500
0.835,-127.500,-165.500,-160.000,-151.000
0.836,-128.000,-166.000,-161.000,-151.500
0.837,-127.500,-166.000,-161.500,-151.500
0.838,-127.000,-165.500,-161.000,-150.500
0.839,-126.500,-165.000,-160.000,-149.500
0.840,-125.000,-163.500,-158.500,-147.500
0.841,-123.500,-161.500,-156.500,-145.000
0.842,-121.500,-159.000,-153.500,-142.000
0.843,-119.000,-156.000,-150.000,-138.000
0.844,-116.500,-152.500,-145.500,-133.500
0.845,-113.500,-149.500,-141.500,-129.000
0.846,-112.000,-147.000,-138.000,-125.500
0.847,-111.500,-145.500,-136.500,-124.000
0.848,-112.500,-146.500,-137.500,-125.000
0.849,-115.000,-148.500,-140.000,-127.500
0.850,-118.500,-152.500,-144.500,-132.000
0.851,-123.000,-157.500,-150.500,-138.000
0.852,-127.000,-163.000,-156.500,-144.500
0.853,-131.000,-167.500,-162.000,-150.500
0.854,-134.000,-171.500,-166.500,-155.000
0.855,-136.000,-174.000,-170.000,-158.500
0.856,-137.000,-176.000,-172.000,-161.000
0.857,-137.500,-177.000,-173.500,-163.000
0.858,-137.500,-177.000,-174.000,-163.500
0.859,-136.500,-176.500,-173.500,-163.500
0.860,-135.000,-175.000,-172.500,-162.500
0.861,-133.000,-172.500,-170.000,-161.000
0.862,-130.500,-169.500,-167.000,-157.500
0.863,-127.500,-166.000,-162.500,-153.500
0.864,-124.500,-161.500,-157.500,-148.000
0.865,-121.000,-157.000,-152.000,-142.500
0.866,-118.500,-153.000,-147.500,-137.500
0.867,-117.000,-151.000,-145.000,-134.000
0.868,-117.000,-150.500,-144.000,-133.000
0.869,-118.000,-151.500,-145.000,-134.000
0.870,-120.500,-154.000,-148.000,-137.000
0.871,-123.000,-157.500,-152.000,-140.500
0.872,-126.500,-161.500,-156.500,-145.000
0.873,-129.000,-165.000,-161.000,-149.000
0.874,-131.000,-167.500,-164.000,-152.000
0.875,-131.500,-168.500,-165.500,-153.500
0.876,-131.500,-168.500,-165.500,-154.000
0.877,-130.500,-167.500,-165.000,-153.500
0.878,-129.500,-166.500,-164.000,-152.500
0.879,-128.000,-165.000,-162.500,-150.500
0.880,-126.500,-163.000,-160.500,-149.000
0.881,-124.500,-161.000,-158.000,-146.500
0.882,-122.500,-158.500,-155.500,-143.500
0.883,-120.500,-155.500,-152.000,-140.000
0.884,-118.000,-152.000,-148.000,-136.000
0.885,-115.500,-148.500,-144.000,-131.500
0.886,-113.500,-145.500,-140.500,-128.000
0.887,-112.500,-144.000,-138.500,-126.000
0.888,-112.500,-144.000,-138.000,-126.000
0.889,-114.000,-145.500,-140.000,-128.000
0.890,-116.500,-149.000,-143.500,-131.500
0.891,-119.500,-153.000,-148.500,-136.500
0.892,-123.000,-157.000,-153.500,-142.000
0.893,-125.500,-161.000,-158.000,-146.500
0.894,-127.500,-163.500,-161.000,-149.500
0.895,-128.500,-164.500,-163.000,-151.000
0.896,-128.500,-165.000,-163.500,-151.000
0.897,-127.500,-164.000,-162.500,-150.500
0.898,-126.000,-162.500,-161.000,-149.000
0.899,-124.000,-160.500,-159.000,-146.500
0.900,-122.000,-158.500,-156.000,-144.000
0.901,-119.500,-155.500,-153.000,-141.000
0.902,-116.500,-152.000,-149.000,-137.500
0.903,-113.500,-148.000,-144.500,-133.000
0.904,-110.000,-144.000,-139.500,-128.000
0.905,-107.000,-139.500,-135.000,-123.000
0.906,-105.000,-136.500,-131.500,-119.000
0.907,-104.000,-135.000,-129.500,-117.000
0.908,-105.000,-135.000,-130.000,-117.500
0.909,-107.000,-137.000,-132.500,-120.000
0.910,-110.000,-140.500,-136.500,-124.500
0.911,-113.500,-145.000,-141.500,-129.500
0.912,-117.000,-149.500,-146.500,-135.000
0.913,-119.500,-153.000,-151.000,-139.500
0.914,-121.000,-155.000,-154.000,-142.500
0.915,-121.500,-156.000,-155.000,-143.500
0.916,-121.000,-155.500,-155.000,-143.500
0.917,-119.500,-154.500,-154.500,-143.000
0.918,-118.500,-153.000,-153.500,-141.500
0.919,-116.500,-151.500,-151.500,-140.000
0.920,-115.000,-149.500,-149.000,-137.500
0.921,-112.500,-147.000,-146.500,-134.500
0.922,-110.000,-144.000,-142.500,-131.000
0.923,-107.000,-140.000,-138.500,-126.500
0.924,-103.500,-136.000,-133.500,-122.000
0.925,-100.000,-132.000,-128.500,-116.500
0.926,-97.500,-128.500,-124.000,-112.000
0.927,-95.500,-126.000,-120.500,-109.000
0.928,-95.000,-125.000,-119.500,-108.000
0.929,-95.500,-126.000,-120.500,-109.500
0.930,-97.500,-128.500,-123.500,-112.500
0.931,-100.000,-131.500,-127.500,-117.000
0.932,-102.500,-135.500,-132.000,-121.500
0.933,-105.000,-138.500,-136.000,-126.000
0.934,-106.500,-141.000,-138.500,-128.500
0.935,-107.000,-141.500,-140.000,-130.000
0.936,-106.000,-141.500,-140.000,-129.500
0.937,-105.000,-140.500,-139.000,-128.500
0.938,-103.500,-138.500,-137.500,-126.500
0.939,-102.000,-136.500,-135.500,-124.500
0.940,-100.000,-134.000,-133.000,-122.000
0.941,-97.500,-131.500,-129.500,-119.000
0.942,-95.000,-128.000,-126.000,-115.000
0.943,-92.000,-124.500,-122.000,-111.000
0.944,-89.500,-120.500,-117.500,-106.000
0.945,-86.500,-116.500,-113.000,-101.500
0.946,-84.500,-113.500,-109.500,-97.500
0.947,-83.500,-112.000,-107.500,-95.500
0.948,-83.500,-112.000,-107.500,-95.500
0.949,-85.500,-113.500,-109.500,-97.500
0.950,-88.000,-116.500,-113.000,-101.000
0.951,-91.000,-120.500,-118.000,-106.000
0.952,-94.500,-125.000,-123.000,-111.500
0.953,-98.000,-129.000,-128.000,-116.500
0.954,-100.500,-132.500,-132.000,-120.500
0.955,-102.000,-134.500,-134.500,-123.000
0.956,-103.000,-135.500,-136.000,-124.500
0.957,-103.000,-135.500,-136.500,-124.500
0.958,-102.500,-135.000,-136.000,-124.000
0.959,-101.000,-133.500,-134.500,-122.500
0.960,-99.500,-132.000,-132.500,-120.500
0.961,-98.000,-129.500,-130.000,-117.500
0.962,-96.000,-127.000,-127.000,-114.500
0.963,-93.500,-124.000,-123.500,-111.000
0.964,-90.500,-120.500,-119.500,-106.500
0.965,-88.000,-116.500,-115.000,-102.000
0.966,-86.000,-113.500,-111.000,-98.000
0.967,-85.000,-112.000,-109.000,-96.000
0.968,-85.500,-112.000,-108.500,-95.500
0.969,-87.000,-114.000,-110.500,-97.500
0.970,-90.000,-117.000,-114.500,-101.500
0.971,-93.500,-121.000,-119.000,-106.500
0.972,-97.000,-125.500,-124.000,-111.500
0.973,-99.500,-129.000,-128.500,-116.000
0.974,-101.000,-131.500,-131.500,-119.000
0.975,-102.000,-132.500,-133.000,-120.500
0.976,-101.500,-132.500,-133.000,-121.000
0.977,-101.000,-132.000,-132.500,-120.500
0.978,-99.500,-130.500,-131.500,-119.000
0.979,-98.000,-129.000,-129.500,-117.500
0.980,-96.000,-126.500,-127.500,-115.000
0.981,-93.500,-124.000,-124.500,-112.000
0.982,-91.000,-121.000,-121.000,-109.000
0.983,-88.500,-117.500,-117.000,-104.500
0.984,-85.000,-113.500,-112.500,-99.500
0.985,-82.500,-110.000,-108.000,-95.000
0.986,-80.500,-107.000,-104.500,-91.000
0.987,-80.000,-106.000,-102.500,-89.000
0.988,-81.000,-106.500,-103.000,-89.500
0.989,-83.500,-108.500,-105.500,-92.500
0.990,-87.000,-112.500,-110.000,-97.000
0.991,-91.500,-118.000,-115.500,-103.500
0.992,-96.500,-123.500,-122.000,-110.000
0.993,-100.000,-128.000,-127.500,-116.000
0.994,-103.000,-131.500,-132.000,-120.500
0.995,-105.000,-134.000,-134.500,-123.000
0.996,-105.500,-135.000,-136.000,-124.500
0.997,-106.000,-135.000,-136.500,-125.000
0.998,-105.500,-135.000,-136.000,-124.500
0.999,-104.500,-134.000,-135.500,-123.500
1.000,-104.000,-132.500,-134.000,-122.000
1.001,-103.000,-131.500,-132.500,-120.000
1.002,-102.000,-130.000,-130.500,-117.500
1.003,-100.500,-128.000,-128.000,-115.000
1.004,-99.000,-125.500,-124.500,-111.500
1.005,-97.000,-123.000,-121.500,-108.000
1.006,-95.500,-121.000,-118.500,-105.000
1.007,-95.000,-120.000,-117.500,-103.500
1.008,-96.000,-121.000,-118.000,-104.000
1.009,-98.500,-123.000,-120.500,-106.500
1.010,-101.500,-127.000,-124.500,-111.000
1.011,-105.500,-131.000,-130.000,-116.500
1.012,-109.500,-136.000,-135.500,-122.500
1.013,-113.000,-140.000,-140.500,-127.500
1.014,-116.000,-143.500,-144.500,-132.000
1.015,-117.500,-146.000,-147.000,-134.500
1.016,-118.500,-147.000,-148.500,-136.000
1.017,-119.000,-147.000,-148.500,-136.000
1.018,-118.500,-146.500,-148.000,-135.500
1.019,-117.500,-145.000,-146.500,-134.000
1.020,-116.000,-143.500,-145.000,-132.000
1.021,-114.500,-141.500,-142.500,-129.500
1.022,-112.500,-139.000,-140.000,-126.500
1.023,-110.500,-136.500,-136.500,-123.500
1.024,-108.000,-134.000,-132.500,-119.500
1.025,-106.000,-131.000,-129.000,-115.500
1.026,-104.500,-128.500,-125.500,-112.500
1.027,-104.000,-127.500,-124.000,-111.000
1.028,-105.000,-128.000,-124.500,-111.500
1.029,-107.000,-130.000,-127.000,-114.000
1.030,-110.000,-133.500,-131.500,-118.000
1.031,-113.500,-138.000,-136.500,-124.000
1.032,-117.500,-143.000,-142.500,-130.000
1.033,-121.000,-147.500,-148.000,-135.000
1.034,-123.500,-150.500,-151.500,-139.000
1.035,-125.000,-152.500,-154.000,-141.500
1.036,-126.000,-153.500,-155.500,-142.500
1.037,-126.000,-153.500,-155.500,-142.500
1.038,-125.500,-153.000,-155.500,-142.000
1.039,-124.500,-152.000,-154.500,-141.000
1.040,-123.500,-151.000,-153.000,-139.500
1.041,-122.000,-149.500,-151.000,-137.500
1.042,-120.500,-147.000,-148.500,-134.500
1.043,-118.500,-144.000,-145.500,-131.500
1.044,-116.500,-141.000,-142.000,-127.500
1.045,-114.500,-138.000,-138.500,-124.000
1.046,-113.000,-136.000,-135.500,-121.000
1.047,-113.000,-135.000,-134.000,-119.500
1.048,-114.000,-135.500,-134.500,-120.500
1.049,-116.000,-138.000,-137.000,-123.000
1.050,-119.000,-141.500,-141.000,-127.000
1.051,-122.500,-146.000,-146.000,-132.500
1.052,-126.500,-150.500,-151.500,-138.500
1.053,-129.500,-154.500,-156.000,-143.500
1.054,-131.500,-157.500,-159.500,-147.500
1.055,-133.000,-159.000,-162.000,-149.500
1.056,-133.500,-160.000,-162.500,-150.500
1.057,-133.000,-160.000,-162.500,-151.000
1.058,-132.000,-159.500,-162.000,-150.000
1.059,-131.500,-158.000,-161.000,-149.000
1.060,-130.000,-156.500,-159.000,-147.000
1.061,-129.000,-155.000,-157.500,-145.000
1.062,-128.000,-153.000,-155.000,-142.500
1.063,-126.500,-151.000,-152.500,-139.500
1.064,-124.500,-148.000,-149.000,-136.000
1.065,-122.500,-145.000,-145.000,-132.000
1.066,-120.500,-142.500,-142.000,-129.000
1.067,-119.500,-140.500,-139.500,-126.500
1.068,-119.000,-140.000,-139.000,-126.000
1.069,-119.500,-140.500,-140.000,-127.000
1.070,-121.500,-143.000,-142.500,-130.000
1.071,-124.000,-146.000,-146.500,-134.000
1.072,-126.000,-149.000,-150.500,-138.000
1.073,-128.000,-152.000,-154.000,-142.000
1.074,-129.000,-153.500,-156.000,-144.000
1.075,-129.500,-154.000,-157.500,-145.500
1.076,-128.500,-153.500,-157.500,-145.500
1.077,-127.500,-152.500,-156.500,-144.500
1.078,-126.000,-151.000,-155.500,-143.000
1.079,-124.500,-149.500,-153.500,-141.500
1.080,-122.500,-147.500,-151.500,-139.500
1.081,-120.500,-145.000,-149.000,-136.500
1.082,-118.000,-142.000,-145.500,-133.500
1.083,-115.500,-139.000,-142.000,-129.500
1.084,-112.500,-135.000,-137.500,-125.000
1.085,-110.000,-131.500,-133.000,-120.500
1.086,-108.000,-128.500,-129.500,-117.000
1.087,-107.000,-127.000,-127.500,-114.500
1.088,-107.500,-127.000,-127.000,-114.500
1.089,-109.000,-128.500,-129.000,-116.500
1.090,-111.500,-131.500,-132.500,-120.000
1.091,-114.500,-135.500,-137.500,-125.000
1.092,-118.000,-139.500,-142.500,-130.500
1.093,-120.500,-143.500,-147.000,-135.000
1.094,-122.000,-145.500,-150.000,-138.500
1.095,-123.000,-147.000,-152.000,-140.000
1.096,-122.500,-147.000,-152.500,-140.500
1.097,-121.500,-146.500,-152.000,-139.500
1.098,-120.000,-145.500,-150.500,-138.000
1.099,-118.500,-143.500,-148.500,-136.000
1.100,-116.000,-141.000,-146.000,-133.000
1.101,-113.500,-138.000,-142.500,-130.000
1.102,-110.500,-134.500,-138.500,-125.500
1.103,-107.000,-130.000,-133.500,-120.000
1.104,-102.500,-125.000,-127.500,-114.500
1.105,-98.500,-119.500,-122.000,-108.500
1.106,-94.500,-115.500,-116.500,-103.500
1.107,-92.500,-112.500,-113.500,-100.000
1.108,-91.500,-111.500,-112.000,-99.000
1.109,-92.500,-113.000,-113.000,-100.500
1.110,-95.000,-115.500,-116.500,-104.000
1.111,-98.000,-119.500,-121.000,-109.000
1.112,-101.500,-123.500,-126.000,-114.000
1.113,-104.000,-127.000,-130.500,-118.500
1.114,-106.000,-129.500,-133.500,-122.000
1.115,-106.500,-130.500,-135.000,-123.500
1.116,-106.500,-130.500,-135.500,-124.000
1.117,-105.500,-130.000,-135.000,-123.500
1.118,-104.500,-129.000,-134.000,-122.500
1.119,-103.000,-127.500,-132.500,-120.500
1.120,-101.000,-125.500,-130.500,-118.000
1.121,-99.000,-123.000,-128.000,-115.000
1.122,-96.500,-120.500,-124.500,-111.500
1.123,-93.500,-117.000,-120.500,-107.500
1.124,-91.000,-113.500,-116.500,-103.000
1.125,-88.500,-109.500,-112.500,-98.500
1.126,-86.500,-107.000,-109.000,-95.000
1.127,-86.000,-105.500,-106.500,-93.500
1.128,-86.500,-105.500,-106.500,-93.500
1.129,-88.000,-107.500,-108.500,-95.500
1.130,-90.500,-110.500,-111.500,-99.500
1.131,-94.000,-114.500,-116.500,-104.500
1.132,-97.500,-119.000,-121.500,-109.500
1.133,-100.000,-122.500,-126.000,-114.000
1.134,-102.000,-125.000,-129.000,-117.000
1.135,-103.000,-126.000,-131.000,-118.500
1.136,-102.500,-126.500,-131.500,-119.000
1.137,-102.000,-126.000,-131.000,-118.000
1.138,-101.000,-124.500,-130.000,-117.000
1.139,-99.500,-123.000,-128.500,-115.000
1.140,-98.000,-121.500,-126.000,-113.000
1.141,-96.000,-119.000,-123.500,-110.500
1.142,-94.000,-116.500,-120.500,-107.500
1.143,-91.500,-113.000,-116.500,-103.500
1.144,-89.000,-109.500,-112.500,-99.000
1.145,-86.000,-105.500,-108.000,-94.500
1.146,-83.500,-102.500,-104.000,-91.000
1.147,-82.500,-101.000,-102.000,-88.500
1.148,-82.500,-101.000,-101.500,-88.500
1.149,-84.000,-102.500,-103.500,-90.500
1.150,-86.500,-105.500,-107.000,-94.000
1.151,-89.500,-109.500,-111.500,-98.500
1.152,-92.500,-113.500,-116.500,-103.500
1.153,-95.500,-117.000,-120.500,-108.000
1.154,-97.000,-120.000,-124.000,-111.500
1.155,-98.000,-121.500,-126.000,-113.500
1.156,-98.500,-122.500,-127.000,-114.500
1.157,-98.000,-122.500,-127.000,-114.500
1.158,-97.500,-121.500,-126.500,-114.000
1.159,-96.000,-120.000,-124.500,-112.000
1.160,-94.500,-118.500,-122.500,-110.000
1.161,-92.500,-116.000,-119.500,-107.000
1.162,-90.000,-113.000,-116.000,-103.500
1.163,-87.500,-109.500,-112.000,-99.500
1.164,-84.000,-105.500,-107.500,-94.500
1.165,-81.500,-101.500,-103.000,-90.000
1.166,-79.000,-98.000,-99.500,-86.500
1.167,-78.000,-96.500,-97.500,-84.500
1.168,-78.500,-96.500,-97.500,-84.000
1.169,-80.000,-98.000,-99.500,-86.000
1.170,-82.500,-101.000,-103.000,-89.500
1.171,-85.500,-104.500,-107.500,-94.000
1.172,-88.500,-108.500,-112.000,-99.000
1.173,-90.500,-112.000,-116.000,-103.000
1.174,-92.000,-114.000,-119.000,-106.000
1.175,-92.500,-115.000,-120.500,-107.500
1.176,-92.000,-115.000,-121.000,-107.500
1.177,-91.000,-113.500,-120.000,-106.000
1.178,-89.000,-111.500,-118.000,-104.000
1.179,-87.000,-109.000,-115.500,-101.500
1.180,-84.500,-106.000,-113.000,-98.500
1.181,-82.000,-103.500,-109.500,-95.000
1.182,-79.000,-100.000,-105.500,-91.500
1.183,-75.500,-96.000,-101.000,-86.500
1.184,-71.500,-91.500,-96.000,-81.000
1.185,-68.000,-87.500,-90.500,-75.500
1.186,-65.500,-83.500,-86.500,-71.000
1.187,-64.000,-81.500,-84.000,-68.500
1.188,-64.000,-81.500,-83.500,-68.000
1.189,-65.500,-82.500,-85.000,-70.000
1.190,-67.500,-85.500,-88.500,-73.000
1.191,-70.500,-89.000,-92.500,-77.500
1.192,-73.000,-92.500,-96.500,-82.000
1.193,-75.000,-95.500,-100.000,-85.500
1.194,-76.000,-97.000,-102.000,-87.500
1.195,-76.000,-97.500,-103.000,-88.000
1.196,-75.500,-97.000,-102.500,-87.500
1.197,-74.000,-96.000,-102.000,-86.500
1.198,-73.000,-95.000,-100.500,-85.500
1.199,-72.000,-93.500,-99.500,-84.000
1.200,-70.500,-92.000,-97.500,-82.000
1.201,-68.500,-90.000,-95.000,-80.000
1.202,-66.500,-88.000,-92.500,-77.000
1.203,-64.500,-85.000,-89.500,-74.000
1.204,-62.500,-82.500,-86.000,-71.000
1.205,-60.500,-79.500,-83.000,-67.500
1.206,-59.000,-78.000,-81.000,-65.500
1.207,-58.500,-77.500,-80.000,-65.500
1.208,-59.000,-78.000,-81.000,-66.500
1.209,-61.000,-80.000,-83.000,-69.500
1.210,-63.000,-83.000,-86.500,-73.500
1.211,-65.500,-86.000,-90.500,-77.500
1.212,-68.000,-89.000,-94.000,-81.500
1.213,-69.000,-91.000,-96.500,-84.500
1.214,-70.000,-92.500,-98.000,-85.500
1.215,-69.500,-92.000,-98.000,-85.000
1.216,-68.000,-91.000,-97.000,-83.500
1.217,-66.000,-89.000,-95.000,-81.000
1.218,-64.000,-86.500,-92.500,-78.000
1.219,-62.000,-84.000,-89.500,-74.500
1.220,-59.500,-81.000,-86.500,-70.500
1.221,-57.000,-77.500,-83.000,-66.500
1.222,-54.000,-74.500,-79.000,-62.000
1.223,-51.000,-70.500,-74.500,-57.000
1.224,-47.500,-66.000,-69.500,-52.000
1.225,-44.000,-61.500,-64.000,-46.500
1.226,-41.500,-58.000,-60.000,-42.500
1.227,-40.000,-56.000,-57.500,-40.000
1.228,-40.500,-56.000,-57.000,-40.000
1.229,-42.000,-57.500,-59.000,-42.000
1.230,-44.500,-60.500,-62.500,-45.500
1.231,-47.500,-64.500,-67.000,-50.500
1.232,-50.500,-68.500,-72.000,-55.500
1.233,-52.500,-72.000,-76.000,-60.000
1.234,-53.500,-74.500,-78.500,-62.500
1.235,-53.500,-75.000,-79.500,-64.000
1.236,-52.500,-74.500,-79.000,-63.500
1.237,-51.000,-73.000,-78.000,-62.000
1.238,-49.000,-70.500,-75.500,-60.000
1.239,-46.500,-68.000,-73.000,-57.000
1.240,-43.500,-65.000,-69.500,-53.500
1.241,-40.000,-61.000,-65.500,-49.500
1.242,-36.000,-57.000,-61.000,-44.500
1.243,-32.000,-52.500,-56.000,-39.000
1.244,-28.000,-47.500,-50.500,-33.500
1.245,-24.000,-43.000,-45.000,-27.500
1.246,-21.000,-39.000,-40.500,-23.000
1.247,-19.000,-36.000,-37.500,-20.000
1.248,-18.500,-35.500,-37.000,-19.000
1.249,-19.500,-36.500,-38.000,-20.500
1.250,-21.500,-39.000,-41.000,-24.000
1.251,-24.000,-42.500,-45.500,-28.500
1.252,-27.500,-46.500,-50.000,-33.500
1.253,-30.000,-50.500,-54.500,-38.000
1.254,-32.000,-53.000,-57.500,-41.000
1.255,-33.000,-54.500,-59.500,-43.000
1.256,-33.000,-54.500,-60.000,-43.500
1.257,-32.000,-54.000,-59.000,-42.500
1.258,-30.500,-52.500,-57.500,-41.000
1.259,-29.000,-50.500,-55.500,-38.500
1.260,-26.500,-48.000,-53.000,-36.000
1.261,-24.500,-45.500,-50.000,-33.000
1.262,-22.000,-42.000,-46.500,-29.500
1.263,-19.000,-38.500,-42.000,-25.000
1.264,-15.500,-34.500,-37.500,-20.000
1.265,-12.500,-30.500,-33.000,-15.000
1.266,-10.000,-27.500,-29.000,-11.000
1.267,-9.000,-25.500,-26.500,-8.500
1.268,-9.000,-25.500,-26.000,-7.500
1.269,-10.500,-26.500,-27.500,-9.000
1.270,-12.500,-29.000,-30.500,-12.000
1.271,-15.500,-32.500,-35.000,-16.500
1.272,-18.500,-36.500,-39.500,-21.500
1.273,-21.000,-39.500,-44.000,-26.000
1.274,-23.000,-42.500,-47.000,-29.500
1.275,-24.000,-44.000,-49.000,-31.500
1.276,-24.000,-44.500,-50.000,-32.500
1.277,-24.000,-44.500,-50.000,-32.500
1.278,-23.000,-44.000,-49.000,-32.000
1.279,-22.000,-43.000,-48.000,-30.500
1.280,-21.000,-42.000,-46.500,-29.000
1.281,-20.000,-40.500,-44.500,-26.500
1.282,-18.000,-38.000,-42.000,-24.000
1.283,-16.500,-35.500,-39.000,-21.000
1.284,-14.500,-33.000,-35.500,-17.000
1.285,-12.500,-30.000,-32.000,-13.000
1.286,-11.000,-27.500,-29.000,-10.000
1.287,-10.000,-26.000,-27.500,-8.000
1.288,-10.500,-26.000,-27.500,-8.000
1.289,-11.500,-28.000,-29.500,-10.000
1.290,-14.000,-30.500,-32.500,-13.500
1.291,-17.000,-34.000,-37.000,-18.000
1.292,-20.000,-37.500,-41.500,-22.500
1.293,-22.000,-40.500,-45.500,-26.500
1.294,-23.000,-42.000,-48.000,-29.000
1.295,-23.000,-42.000,-48.500,-30.000
1.296,-22.000,-41.000,-48.000,-29.500
1.297,-20.000,-39.500,-46.500,-28.000
1.298,-18.000,-37.500,-44.500,-26.000
1.299,-16.000,-35.000,-42.000,-23.500
1.300,-14.000,-32.500,-39.500,-20.500
1.301,-11.500,-30.000,-36.500,-17.000
1.302,-9.000,-27.500,-33.000,-13.500
1.303,-6.500,-24.000,-29.500,-9.000
1.304,-3.500,-20.500,-25.500,-4.500
1.305,-1.500,-17.000,-21.500,-0.500
1.306,0.500,-14.500,-18.500,2.500
1.307,1.000,-13.500,-17.000,4.000
1.308,0.000,-14.000,-17.500,3.500
1.309,-2.500,-16.000,-19.500,1.000
1.310,-5.500,-20.000,-24.000,-3.500
1.311,-9.500,-24.500,-29.000,-8.500
1.312,-13.000,-29.000,-34.500,-14.500
1.313,-16.000,-33.000,-39.000,-19.500
1.314,-18.000,-35.500,-42.500,-23.000
1.315,-19.000,-37.000,-45.000,-25.000
1.316,-19.000,-37.000,-45.500,-25.500
1.317,-18.000,-36.500,-44.500,-25.000
1.318,-16.500,-35.000,-43.000,-23.500
1.319,-14.500,-33.000,-41.500,-21.500
1.320,-13.000,-31.000,-39.000,-19.000
1.321,-11.000,-29.000,-36.500,-16.000
1.322,-8.500,-26.000,-33.000,-12.500
1.323,-5.500,-22.500,-29.000,-8.500
1.324,-2.000,-18.500,-24.000,-3.500
1.325,1.500,-13.500,-18.500,2.000
1.326,5.000,-9.500,-14.000,6.500
1.327,7.000,-6.500,-10.500,10.000
1.328,7.500,-5.500,-9.000,11.000
1.329,6.500,-6.500,-10.000,10.000
1.330,4.500,-9.000,-13.000,7.000
1.331,2.500,-12.000,-17.000,3.000
1.332,-0.500,-15.500,-21.500,-1.500
1.333,-2.500,-18.500,-25.000,-5.500
1.334,-3.500,-20.000,-27.500,-8.000
1.335,-4.000,-20.500,-28.500,-9.500
1.336,-3.500,-20.500,-28.500,-9.500
1.337,-3.000,-20.000,-28.000,-9.000
1.338,-2.000,-19.000,-26.500,-8.000
1.339,-0.500,-17.500,-25.000,-6.500
1.340,1.000,-16.000,-23.500,-4.500
1.341,2.500,-14.000,-21.000,-2.000
1.342,4.000,-11.500,-18.500,1.000
1.343,6.000,-9.000,-15.500,4.500
1.344,8.500,-5.500,-11.500,8.500
1.345,11.000,-2.000,-7.500,13.000
1.346,13.000,1.000,-4.000,16.500
1.347,13.500,2.500,-2.000,19.000
1.348,13.500,2.500,-1.500,19.000
1.349,11.500,0.500,-3.500,16.500
1.350,8.500,-3.000,-7.500,12.500
1.351,5.000,-7.500,-13.000,7.000
1.352,1.000,-12.000,-18.500,1.000
1.353,-2.000,-16.500,-23.500,-4.000
1.354,-4.500,-19.500,-27.500,-8.000
1.355,-6.000,-21.500,-30.000,-10.500
1.356,-6.500,-23.000,-31.500,-11.500
1.357,-6.500,-23.000,-32.000,-12.000
1.358,-6.000,-23.000,-31.500,-11.500
1.359,-5.000,-22.000,-30.500,-10.500
1.360,-3.500,-20.000,-28.500,-8.500
1.361,-2.000,-18.000,-25.500,-6.000
1.362,0.000,-16.000,-22.500,-3.000
1.363,2.500,-13.000,-19.000,1.000
1.364,5.000,-9.500,-15.500,5.000
1.365,7.000,-6.500,-11.500,9.000
1.366,8.500,-4.000,-8.500,12.000
1.367,9.000,-3.500,-7.000,13.000
1.368,7.500,-4.000,-8.000,12.500
1.369,5.000,-7.000,-10.500,9.500
1.370,1.500,-11.000,-15.500,4.500
1.371,-3.000,-16.000,-21.000,-1.500
1.372,-7.000,-21.500,-27.500,-7.500
1.373,-11.000,-26.000,-33.000,-13.000
1.374,-13.500,-29.500,-37.500,-17.500
1.375,-15.000,-31.500,-40.000,-20.000
1.376,-16.000,-32.500,-41.000,-21.500
1.377,-15.500,-32.500,-41.500,-21.500
1.378,-15.000,-32.000,-41.000,-21.000
1.379,-14.500,-31.000,-40.000,-20.000
1.380,-13.000,-29.500,-38.000,-18.000
1.381,-11.000,-27.500,-36.000,-15.500
1.382,-8.500,-24.500,-32.500,-12.000
1.383,-5.500,-21.000,-29.000,-8.000
1.384,-2.500,-17.000,-24.000,-3.000
1.385,1.000,-12.500,-19.500,2.000
1.386,3.500,-9.500,-15.500,6.500
1.387,5.000,-7.500,-13.000,9.000
1.388,5.000,-7.500,-12.500,9.500
1.389,3.000,-9.500,-14.500,7.500
1.390,0.000,-13.000,-18.500,3.000
1.391,-4.000,-18.000,-23.500,-3.000
1.392,-8.500,-23.500,-29.500,-9.000
1.393,-12.500,-28.000,-35.500,-15.000
1.394,-15.500,-32.000,-40.000,-19.500
1.395,-18.000,-35.000,-43.000,-23.000
1.396,-19.000,-36.500,-44.500,-24.500
1.397,-19.000,-36.500,-45.000,-25.500
1.398,-19.000,-36.500,-45.000,-25.000
1.399,-18.000,-35.500,-43.500,-24.000
1.400,-16.500,-33.500,-42.000,-21.500
1.401,-14.000,-31.000,-39.000,-19.000
1.402,-11.500,-28.500,-35.500,-15.500
1.403,-9.000,-25.500,-32.000,-12.000
1.404,-6.000,-22.000,-28.000,-8.000
1.405,-3.500,-18.500,-24.000,-3.500
1.406,-1.000,-15.500,-20.500,0.000
1.407,-0.500,-14.000,-18.500,2.000
1.408,-1.000,-14.500,-18.500,1.500
1.409,-3.000,-16.500,-20.500,-1.000
1.410,-6.000,-20.000,-25.000,-5.000
1.411,-10.000,-25.000,-30.500,-11.000
1.412,-15.000,-30.500,-36.500,-17.000
1.413,-19.000,-35.500,-42.500,-23.000
1.414,-22.500,-39.500,-47.000,-28.000
1.415,-25.000,-42.500,-50.500,-31.500
1.416,-26.500,-44.000,-52.500,-33.500
1.417,-27.500,-45.000,-53.500,-34.500
1.418,-28.000,-45.500,-54.000,-34.500
1.419,-28.000,-45.000,-53.500,-34.000
1.420,-27.500,-44.500,-52.500,-33.000
1.421,-26.500,-43.000,-51.000,-31.000
1.422,-25.000,-41.000,-48.500,-28.500
1.423,-23.500,-38.500,-45.500,-25.000
1.424,-21.000,-35.500,-41.500,-21.000
1.425,-18.500,-32.000,-38.000,-17.000
1.426,-17.000,-29.500,-34.500,-13.500
1.427,-16.000,-28.000,-33.000,-12.000
1.428,-16.500,-28.500,-33.000,-12.000
1.429,-18.500,-30.500,-35.000,-14.500
1.430,-21.500,-34.000,-39.000,-18.500
1.431,-25.000,-38.000,-44.000,-24.000
1.432,-29.000,-43.000,-49.500,-29.500
1.433,-32.500,-47.000,-54.000,-35.000
1.434,-34.500,-50.000,-57.500,-38.500
1.435,-35.500,-51.500,-59.500,-40.500
1.436,-35.500,-52.000,-60.500,-41.000
1.437,-35.000,-51.000,-59.500,-40.000
1.438,-33.500,-50.000,-58.500,-39.000
1.439,-32.000,-48.000,-56.500,-37.000
1.440,-30.000,-46.000,-54.000,-34.500
1.441,-28.000,-43.500,-51.500,-31.500
1.442,-25.500,-40.500,-48.500,-28.000
1.443,-23.000,-37.500,-44.500,-24.500
1.444,-20.500,-34.000,-40.500,-20.000
1.445,-17.500,-30.000,-36.000,-15.000
1.446,-15.500,-27.000,-32.500,-11.000
1.447,-14.000,-25.000,-29.500,-8.500
1.448,-14.000,-24.500,-29.000,-8.000
1.449,-15.500,-26.000,-30.500,-9.500
1.450,-18.000,-29.500,-34.500,-13.500
1.451,-21.500,-33.500,-39.500,-18.500
1.452,-25.000,-38.000,-45.000,-24.500
1.453,-28.500,-42.000,-50.000,-29.500
1.454,-30.500,-45.000,-53.500,-33.500
1.455,-31.500,-46.000,-55.000,-35.500
1.456,-31.000,-46.000,-55.500,-36.000
1.457,-30.500,-45.000,-55.000,-35.000
1.458,-29.000,-43.500,-53.500,-34.000
1.459,-27.500,-41.500,-51.500,-32.000
1.460,-25.500,-39.500,-49.000,-29.500
1.461,-23.000,-37.000,-46.500,-26.500
1.462,-20.500,-34.500,-43.500,-23.000
1.463,-18.000,-31.500,-40.000,-19.000
1.464,-15.000,-27.500,-35.500,-14.500
1.465,-12.500,-23.500,-31.000,-10.000
1.466,-10.000,-20.500,-27.000,-5.500
1.467,-9.000,-18.500,-24.500,-3.000
1.468,-9.000,-18.000,-24.000,-3.000
1.469,-11.000,-20.000,-25.500,-5.000
1.470,-13.500,-23.000,-29.500,-9.000
1.471,-17.000,-27.500,-34.000,-14.000
1.472,-21.000,-32.000,-39.500,-19.500
1.473,-24.000,-36.000,-44.000,-24.500
1.474,-26.500,-39.000,-47.500,-28.000
1.475,-27.500,-40.500,-49.500,-30.000
1.476,-28.000,-41.000,-50.000,-30.500
1.477,-27.000,-40.500,-49.500,-30.000
1.478,-25.500,-39.500,-48.500,-29.000
1.479,-24.000,-37.500,-46.500,-27.000
1.480,-22.000,-35.500,-44.500,-25.000
1.481,-20.000,-33.000,-41.500,-22.000
1.482,-17.500,-30.000,-38.500,-19.000
1.483,-15.000,-26.500,-34.500,-14.500
1.484,-11.500,-22.500,-30.000,-9.500
1.485,-8.500,-18.000,-25.000,-4.500
1.486,-5.500,-14.500,-20.500,0.500
1.487,-3.500,-12.000,-17.500,3.500
1.488,-3.500,-11.500,-16.500,4.500
1.489,-4.500,-12.000,-17.500,3.500
1.490,-6.500,-14.500,-20.500,0.500
1.491,-9.000,-17.500,-24.000,-4.000
1.492,-12.000,-21.000,-28.500,-8.500
1.493,-14.500,-24.500,-33.000,-13.000
1.494,-16.500,-27.500,-36.000,-16.500
1.495,-18.000,-29.000,-38.000,-19.000
1.496,-18.500,-30.000,-39.000,-20.000
1.497,-18.000,-30.000,-39.500,-20.000
1.498,-17.500,-29.500,-38.500,-19.500
1.499,-16.500,-28.500,-37.500,-18.000
1.500,-15.000,-27.000,-36.000,-16.000
1.501,-13.000,-24.500,-33.500,-13.500
1.502,-11.000,-21.500,-30.500,-10.000
1.503,-8.000,-17.500,-26.000,-5.500
1.504,-4.500,-13.500,-21.500,-0.500
1.505,-1.000,-9.000,-16.000,4.500
1.506,2.000,-5.000,-11.500,9.500
1.507,4.000,-2.500,-8.500,12.500
1.508,4.500,-1.500,-7.500,13.500
1.509,3.500,-2.500,-8.500,12.000
1.510,1.500,-5.000,-12.000,9.000
1.511,-2.000,-8.500,-16.500,4.000
1.512,-5.500,-13.000,-21.500,-1.500
1.513,-8.500,-17.000,-26.000,-6.500
1.514,-10.500,-20.000,-30.000,-10.500
1.515,-12.000,-22.000,-32.500,-13.000
1.516,-12.500,-23.000,-33.500,-14.000
1.517,-12.000,-23.000,-33.500,-14.000
1.518,-11.500,-22.000,-33.000,-13.500
1.519,-10.000,-20.500,-31.500,-12.000
1.520,-8.500,-18.500,-29.500,-10.000
1.521,-7.000,-16.500,-27.000,-7.000
1.522,-4.500,-13.500,-23.500,-3.500
1.523,-1.500,-10.500,-19.500,0.500
1.524,1.500,-6.500,-15.500,5.000
1.525,4.500,-3.000,-11.000,9.500
1.526,6.500,0.000,-7.500,13.500
1.527,7.500,1.500,-5.500,15.500
1.528,7.000,1.500,-5.500,15.500
1.529,5.000,-1.000,-7.500,13.000
1.530,2.000,-4.500,-11.500,9.000
1.531,-2.500,-9.500,-17.000,3.000
1.532,-6.500,-15.000,-23.500,-3.500
1.533,-10.000,-19.500,-29.000,-9.000
1.534,-13.000,-23.500,-33.500,-13.500
1.535,-15.000,-26.000,-36.500,-16.500
1.536,-16.000,-27.500,-38.000,-18.500
1.537,-16.500,-28.000,-39.000,-19.500
1.538,-16.500,-28.000,-39.000,-19.500
1.539,-16.500,-27.500,-38.000,-18.500
1.540,-15.500,-26.500,-36.500,-17.000
1.541,-14.500,-25.000,-35.000,-15.000
1.542,-12.500,-22.500,-32.000,-12.000
1.543,-10.500,-19.500,-29.000,-8.000
1.544,-8.000,-16.500,-25.000,-4.000
1.545,-6.000,-13.000,-21.000,0.000
1.546,-4.500,-10.500,-18.000,3.500
1.547,-4.000,-9.500,-16.000,5.000
1.548,-5.000,-10.000,-16.000,5.000
1.549,-7.000,-12.000,-18.500,2.500
1.550,-10.000,-16.000,-22.500,-2.000
1.551,-14.000,-21.000,-28.000,-8.000
1.552,-18.500,-26.000,-34.500,-14.500
1.553,-22.500,-31.000,-40.500,-20.500
1.554,-25.500,-35.000,-45.000,-25.500
1.555,-27.000,-38.000,-48.500,-28.500
1.556,-28.500,-39.500,-50.500,-31.000
1.557,-28.500,-40.000,-51.500,-32.500
1.558,-28.500,-40.500,-52.500,-33.500
1.559,-28.500,-40.500,-52.500,-34.000
1.560,-28.000,-40.000,-52.000,-33.500
1.561,-27.000,-39.000,-51.000,-32.500
1.562,-25.000,-36.500,-48.500,-30.000
1.563,-22.500,-33.500,-44.500,-26.000
1.564,-19.000,-29.500,-39.500,-21.000
1.565,-15.500,-25.000,-34.500,-15.000
1.566,-13.000,-21.000,-29.500,-10.000
1.567,-11.000,-18.000,-26.000,-6.000
1.568,-10.500,-17.000,-24.500,-4.000
1.569,-11.000,-17.500,-24.500,-4.500
1.570,-12.500,-19.000,-26.500,-6.500
1.571,-15.000,-22.000,-30.000,-10.000
1.572,-17.500,-25.500,-34.000,-14.000
1.573,-19.500,-28.500,-38.000,-18.000
1.574,-21.500,-30.500,-40.500,-20.500
1.575,-22.000,-32.000,-42.000,-22.000
1.576,-22.000,-32.500,-43.000,-22.500
1.577,-21.500,-32.000,-42.500,-22.000
1.578,-21.000,-31.500,-42.000,-21.500
1.579,-20.000,-30.500,-41.500,-20.500
1.580,-19.500,-29.500,-40.500,-19.500
1.581,-18.500,-28.500,-39.000,-18.000
1.582,-17.500,-27.000,-37.000,-16.000
1.583,-16.000,-25.000,-34.500,-13.000
1.584,-14.000,-22.000,-31.000,-9.000
1.585,-12.000,-19.000,-27.500,-5.000
1.586,-10.000,-16.500,-24.000,-1.500
1.587,-9.000,-15.000,-22.000,1.000
1.588,-9.500,-15.000,-21.500,1.500
1.589,-11.500,-17.000,-23.000,0.000
1.590,-14.500,-20.000,-26.500,-3.500
1.591,-18.000,-24.000,-31.000,-8.000
1.592,-21.500,-28.000,-35.500,-12.500
1.593,-24.000,-31.000,-39.500,-16.000
1.594,-25.500,-33.000,-42.000,-18.500
1.595,-26.000,-33.000,-42.500,-18.500
1.596,-25.000,-32.000,-41.500,-17.000
1.597,-23.500,-30.500,-39.500,-14.500
1.598,-21.000,-27.500,-37.000,-11.000
1.599,-18.500,-24.500,-33.000,-6.500
1.600,-14.500,-20.000,-28.500,-1.500
1.601,-10.500,-15.000,-22.500,5.000
1.602,-5.000,-9.000,-16.000,12.000
1.603,0.500,-2.500,-9.000,19.500
1.604,5.500,4.000,-1.500,27.500
1.605,10.500,9.500,5.500,34.500
1.606,14.500,14.500,11.000,40.500
1.607,16.500,17.500,15.000,44.500
1.608,18.000,19.000,16.500,46.500
1.609,17.500,19.000,16.500,46.000
1.610,16.500,17.500,14.500,44.000
1.611,15.000,15.500,11.500,41.000
1.612,14.000,13.500,8.000,37.500
1.613,13.500,12.000,5.500,34.000
1.614,13.500,11.000,3.500,31.000
1.615,14.500,11.000,2.500,29.500
1.616,16.000,12.000,2.500,29.000
1.617,17.500,13.000,3.000,28.500
1.618,19.000,14.000,4.000,28.500
1.619,20.500,15.000,4.500,28.500
1.620,22.000,16.000,5.500,29.000
1.621,23.000,17.000,6.500,29.500
1.622,24.000,18.500,8.000,30.500
1.623,25.500,20.500,9.500,32.000
1.624,27.000,22.500,12.000,34.500
1.625,28.500,24.500,14.500,37.000
1.626,29.500,26.000,16.500,39.000
1.627,29.000,26.500,17.500,39.500
1.628,27.500,25.000,16.500,38.500
1.629,24.000,22.000,13.000,35.000
1.630,20.000,17.500,8.000,29.500
1.631,15.500,12.000,2.000,23.500
1.632,11.000,6.500,-4.000,17.000
1.633,7.000,2.000,-10.000,11.500
1.634,4.000,-2.000,-14.000,7.500
1.635,2.500,-4.500,-17.000,4.500
1.636,1.500,-6.000,-18.500,3.000
1.637,1.000,-6.500,-19.500,2.500
1.638,1.000,-6.500,-20.000,2.500
1.639,1.500,-6.000,-19.500,3.000
1.640,2.500,-4.500,-18.500,4.500
1.641,3.500,-3.000,-16.500,6.500
1.642,5.500,-1.000,-14.000,9.000
1.643,7.000,2.000,-11.000,12.500
1.644,9.500,4.500,-7.500,16.000
1.645,12.000,8.000,-3.500,20.000
1.646,13.500,10.500,-0.500,23.500
1.647,14.000,11.500,1.500,25.500
1.648,13.000,11.000,1.500,25.000
1.649,11.000,9.000,-1.000,23.000
1.650,8.000,5.500,-5.000,19.000
1.651,4.500,1.000,-10.000,13.500
1.652,1.000,-3.500,-15.000,8.000
1.653,-2.000,-7.500,-20.000,3.000
1.654,-4.500,-10.500,-23.500,-1.000
1.655,-5.500,-12.000,-26.000,-3.000
1.656,-5.500,-12.500,-26.500,-3.500
1.657,-5.000,-12.000,-26.000,-3.000
1.658,-4.000,-11.000,-25.000,-2.000
1.659,-2.500,-9.500,-23.500,-0.500
1.660,-0.500,-7.500,-21.500,1.500
1.661,1.500,-5.000,-19.000,4.000
1.662,3.500,-2.500,-15.500,7.500
1.663,6.500,1.000,-12.000,11.000
1.664,9.000,4.500,-7.500,15.500
1.665,12.000,8.500,-3.500,20.000
1.666,14.000,11.500,0.000,23.500
1.667,14.500,13.000,2.000,25.500
1.668,14.000,13.000,2.000,25.500
1.669,12.000,11.000,-0.500,23.000
1.670,9.000,7.500,-4.500,19.000
1.671,5.000,3.000,-9.500,14.000
1.672,1.500,-2.000,-15.000,8.500
1.673,-2.000,-6.000,-20.000,3.500
1.674,-4.000,-9.000,-23.500,-0.500
1.675,-5.000,-10.500,-25.500,-2.500
1.676,-5.000,-10.500,-26.000,-3.000
1.677,-4.000,-10.000,-25.500,-2.500
1.678,-2.500,-8.000,-24.000,-1.000
1.679,-0.500,-6.000,-21.500,1.000
1.680,2.000,-3.000,-19.000,4.000
1.681,5.000,-0.500,-15.500,7.500
1.682,7.500,3.000,-11.500,11.500
1.683,11.000,7.000,-7.500,16.000
1.684,14.000,11.000,-2.500,21.000
1.685,17.000,15.000,2.500,25.500
1.686,19.000,18.000,6.500,29.500
1.687,20.000,20.000,8.500,32.000
1.688,19.500,20.000,8.500,32.000
1.689,17.500,18.000,6.500,29.500
1.690,14.500,14.500,3.000,25.500
1.691,11.000,10.000,-2.000,20.500
1.692,7.500,6.000,-7.000,15.500
1.693,4.500,2.000,-11.500,11.000
1.694,3.000,-0.500,-15.000,7.500
1.695,2.000,-1.500,-16.500,6.000
1.696,2.500,-1.500,-16.500,5.500
1.697,3.500,-0.500,-16.000,6.500
1.698,4.500,1.000,-14.500,7.500
1.699,6.000,2.500,-13.000,9.500
1.700,7.500,4.000,-11.000,11.500
1.701,9.000,6.000,-8.500,14.000
1.702,11.500,8.500,-5.500,17.000
1.703,13.500,11.500,-2.000,20.500
1.704,16.500,15.000,2.000,25.000
1.705,19.000,18.500,6.000,29.500
1.706,21.000,21.500,9.500,33.000
1.707,21.500,23.000,11.500,35.000
1.708,21.500,23.000,11.500,35.000
1.709,20.000,21.500,10.000,33.000
1.710,17.500,18.500,6.500,29.000
1.711,14.000,14.000,1.500,23.500
1.712,10.000,9.000,-4.500,17.500
1.713,6.500,4.500,-9.500,12.000
1.714,3.500,1.500,-13.500,8.000
1.715,2.000,-1.000,-16.000,5.500
1.716,1.500,-2.000,-17.000,4.000
1.717,1.500,-2.000,-17.500,4.000
1.718,2.000,-1.500,-17.000,4.000
1.719,2.500,-1.000,-16.500,5.000
1.720,3.500,0.500,-15.000,6.000
1.721,5.000,2.000,-13.500,8.000
1.722,6.500,4.000,-11.000,11.000
1.723,8.500,6.500,-8.000,14.000
1.724,11.000,10.000,-4.000,18.000
1.725,13.500,13.000,0.000,22.500
1.726,15.000,15.500,3.500,25.500
1.727,15.500,17.000,5.500,27.500
1.728,15.000,16.500,5.500,27.500
1.729,13.000,14.500,3.000,25.000
1.730,9.500,11.000,-1.000,21.000
1.731,6.000,6.500,-6.000,15.500
1.732,2.000,1.500,-11.500,9.500
1.733,-1.000,-3.000,-16.500,4.500
1.734,-3.500,-6.000,-20.000,0.500
1.735,-4.500,-7.500,-22.000,-1.500
1.736,-4.000,-7.500,-22.500,-1.500
1.737,-3.000,-7.000,-22.000,-1.000
1.738,-1.500,-5.500,-20.500,1.000
1.739,0.500,-3.500,-18.500,3.000
1.740,3.000,-1.000,-16.000,6.000
1.741,5.500,2.000,-12.500,9.000
1.742,8.500,5.500,-8.500,13.000
1.743,12.000,9.500,-4.000,17.500
1.744,15.500,13.500,1.000,23.000
1.745,19.000,18.000,6.000,28.500
1.746,22.000,22.500,11.000,33.500
1.747,24.500,25.000,14.500,37.000
1.748,25.000,26.500,16.000,38.500
1.749,24.500,25.500,15.000,37.000
1.750,22.500,23.500,12.500,34.000
1.751,20.000,20.000,8.000,29.500
1.752,17.000,16.000,3.500,24.500
1.753,14.500,13.000,-0.500,20.000
1.754,13.000,10.500,-3.500,17.000
1.755,12.500,10.000,-4.500,15.500
1.756,13.500,10.000,-4.500,15.500
1.757,14.500,11.000,-3.500,16.000
1.758,16.000,12.500,-2.500,17.500
1.759,17.500,14.000,-0.500,19.500
1.760,19.500,16.000,2.000,22.000
1.761,21.500,18.500,4.500,24.500
1.762,24.000,21.500,8.000,28.000
1.763,26.500,25.000,12.000,32.000
1.764,29.500,29.000,16.500,37.000
1.765,32.500,32.500,21.000,41.500
1.766,35.000,35.500,25.000,45.500
1.767,36.000,37.000,27.500,48.000
1.768,36.000,37.000,27.500,48.000
1.769,34.000,35.500,25.500,46.000
1.770,31.000,32.000,22.000,42.500
1.771,27.500,27.500,17.000,37.000
1.772,23.500,22.500,11.500,31.000
1.773,20.500,18.500,6.500,26.000
1.774,18.500,15.500,3.000,22.500
1.775,17.500,14.000,0.500,20.000
1.776,17.500,13.500,0.000,19.500
1.777,18.000,14.000,0.000,20.000
1.778,19.500,15.500,1.500,21.000
1.779,21.000,17.000,3.000,23.000
1.780,23.000,19.500,5.500,26.000
1.781,25.500,22.000,8.000,29.000
1.782,28.000,25.000,11.500,32.500
1.783,31.000,28.500,15.500,36.500
1.784,34.000,32.500,20.000,41.000
1.785,36.500,36.000,24.500,46.000
1.786,39.000,39.500,28.000,50.000
1.787,40.500,41.500,31.000,52.500
1.788,40.500,41.500,31.500,53.000
1.789,39.000,40.500,30.500,51.500
1.790,37.000,38.000,27.500,48.500
1.791,34.000,34.500,23.500,44.000
1.792,31.000,30.500,19.000,39.000
1.793,28.500,27.500,15.000,35.000
1.794,27.500,25.000,12.000,32.000
1.795,27.500,24.500,11.000,31.000
1.796,28.500,25.000,11.500,31.500
1.797,30.000,26.500,13.000,33.000
1.798,32.500,29.000,15.000,35.500
1.799,35.000,31.500,18.000,38.000
1.800,37.500,34.000,21.000,41.500
1.801,40.000,37.000,24.000,45.000
1.802,42.500,40.000,27.500,48.500
1.803,45.500,43.500,31.500,52.500
1.804,48.500,47.000,36.500,57.000
1.805,51.500,51.000,40.500,61.500
1.806,53.500,54.000,44.500,65.500
1.807,55.000,56.000,47.000,68.000
1.808,55.500,57.000,47.500,68.500
1.809,54.000,55.500,46.500,67.000
1.810,52.000,53.000,43.500,64.000
1.811,49.000,49.500,39.500,59.500
1.812,46.000,45.500,34.500,54.500
1.813,44.000,42.500,30.500,50.500
1.814,42.500,40.000,27.500,47.500
1.815,42.000,39.000,26.000,46.000
1.816,42.500,39.000,25.500,46.000
1.817,44.000,40.500,27.000,47.000
1.818,46.500,42.500,29.000,49.500
1.819,49.000,45.500,32.000,52.500
1.820,52.000,49.000,35.500,56.000
1.821,55.500,52.500,39.500,60.000
1.822,59.000,57.000,44.000,65.000
1.823,63.000,61.500,49.000,70.000
1.824,67.000,66.500,54.000,75.500
1.825,70.500,71.000,59.000,81.000
1.826,73.500,75.000,63.500,86.000
1.827,75.500,77.500,66.500,89.000
1.828,76.500,78.500,68.000,90.500
1.829,76.000,78.500,67.500,90.000
1.830,74.500,76.500,65.000,87.500
1.831,72.000,73.500,61.500,83.500
1.832,69.500,70.000,57.000,79.000
1.833,67.000,67.000,53.000,74.500
1.834,65.500,65.000,50.000,72.000
1.835,65.500,64.000,48.500,70.500
1.836,66.000,64.500,49.000,70.500
1.837,67.000,65.000,50.000,71.500
1.838,68.000,66.500,51.500,73.000
1.839,70.000,68.000,53.500,75.000
1.840,71.500,70.000,55.500,77.000
1.841,73.500,72.000,58.000,80.000
1.842,75.500,74.500,61.000,83.000
1.843,78.000,77.000,64.000,86.500
1.844,80.500,80.500,68.000,90.500
1.845,83.000,84.000,72.000,95.000
1.846,85.000,87.000,76.000,99.000
1.847,86.000,89.000,78.500,101.500
1.848,85.500,89.000,79.000,101.500
1.849,84.000,87.000,77.000,99.500
1.850,80.500,83.500,72.500,95.000
1.851,76.500,79.000,67.000,89.500
1.852,72.500,74.000,61.000,83.000
1.853,68.500,69.000,55.000,77.000
1.854,65.000,64.500,50.500,72.000
1.855,63.000,61.500,47.000,68.500
1.856,61.500,60.000,45.000,66.500
1.857,60.500,59.000,44.000,65.500
1.858,60.000,58.500,44.000,65.000
1.859,60.500,59.000,44.500,66.000
1.860,61.500,60.000,45.500,67.000
1.861,62.500,61.500,47.000,69.000
1.862,64.000,63.500,49.500,71.000
1.863,66.000,66.000,52.500,74.000
1.864,68.500,69.000,56.000,78.000
1.865,70.500,72.000,59.500,82.000
1.866,72.500,75.000,63.000,85.500
1.867,73.500,76.500,65.000,87.500
1.868,73.000,76.500,65.000,88.000
1.869,71.000,75.000,63.000,86.000
1.870,68.500,72.000,59.500,82.000
1.871,65.000,68.000,55.000,77.000
1.872,61.500,63.500,50.000,71.500
1.873,58.500,60.000,45.000,66.500
1.874,56.000,57.000,41.500,62.500
1.875,55.000,55.000,39.000,60.000
1.876,54.500,54.500,38.000,59.000
1.877,55.000,54.500,38.000,58.500
1.878,55.500,55.000,38.500,59.500
1.879,56.500,56.000,39.500,60.500
1.880,58.000,57.500,41.500,62.500
1.881,59.500,59.500,43.500,64.500
1.882,61.000,62.000,46.500,67.500
1.883,63.500,65.000,49.500,71.000
1.884,66.000,68.000,53.500,75.000
1.885,68.500,71.000,57.500,79.000
1.886,70.000,74.000,60.500,82.000
1.887,70.500,75.000,62.500,84.000
1.888,70.000,75.000,62.500,83.500
1.889,67.500,73.000,60.000,81.000
1.890,64.500,69.500,56.500,77.000
1.891,61.000,65.000,51.000,71.500
1.892,57.000,60.500,45.500,65.500
1.893,53.500,56.500,40.500,60.500
1.894,51.000,53.000,36.500,56.500
1.895,49.500,51.500,34.000,54.000
1.896,49.000,50.500,33.000,52.500
1.897,49.000,50.000,32.500,52.500
1.898,49.500,50.500,33.000,52.500
1.899,50.000,51.000,33.500,53.500
1.900,50.500,52.000,35.000,54.500
1.901,51.500,53.000,36.500,56.500
1.902,53.500,55.000,39.000,59.000
1.903,55.500,57.500,41.500,62.000
1.904,58.000,60.500,45.000,65.500
1.905,60.000,63.500,48.500,69.000
1.906,62.000,66.000,51.500,71.500
1.907,62.500,67.000,52.500,72.500
1.908,62.000,66.000,51.500,71.000
1.909,59.500,63.000,48.500,67.500
1.910,56.000,58.500,43.500,62.000
1.911,52.000,53.500,37.500,55.500
1.912,47.500,48.500,31.000,49.000
1.913,44.500,44.000,26.000,43.500
1.914,42.500,41.000,22.500,39.500
1.915,41.500,40.000,21.500,38.000
1.916,42.000,40.500,21.500,38.500
1.917,43.000,41.500,22.500,40.000
1.918,44.500,43.500,24.500,42.000
1.919,46.500,45.500,27.000,44.500
1.920,49.000,48.500,30.000,48.000
1.921,51.500,51.500,33.500,52.000
1.922,54.500,55.000,37.500,56.500
1.923,57.500,59.500,42.500,61.500
1.924,61.500,64.000,48.000,67.500
1.925,65.000,69.000,53.500,73.500
1.926,68.500,73.500,58.500,78.500
1.927,71.000,76.500,62.000,82.000
1.928,72.000,78.000,64.000,84.000
1.929,72.000,78.000,63.500,83.500
1.930,70.000,76.000,61.500,80.500
1.931,67.500,72.500,57.000,76.500
1.932,64.000,68.000,52.000,71.000
1.933,61.000,64.000,47.000,65.500
1.934,58.500,60.500,42.500,61.000
1.935,56.500,58.500,39.500,58.000
1.936,56.000,57.500,38.000,56.000
1.937,55.500,57.000,37.500,55.500
1.938,55.500,57.500,37.500,55.500
1.939,56.500,58.000,38.500,56.500
1.940,57.500,59.500,40.000,58.500
1.941,59.500,61.500,42.000,60.500
1.942,61.500,64.000,44.500,63.500
1.943,64.500,67.000,48.000,67.500
1.944,67.000,70.500,52.500,72.000
1.945,70.000,74.500,57.000,76.500
1.946,72.500,77.500,61.000,80.000
1.947,73.500,79.500,63.500,82.500
1.948,73.500,79.500,64.000,83.000
1.949,72.500,78.500,62.500,81.500
1.950,70.000,75.500,59.000,78.000
1.951,66.500,71.500,54.500,73.000
1.952,63.000,67.000,49.000,67.500
1.953,59.500,62.500,44.000,62.000
1.954,57.000,59.500,40.000,58.000
1.955,55.500,57.500,37.500,55.500
1.956,54.500,56.500,36.000,54.000
1.957,54.500,56.000,35.500,53.500
1.958,54.500,56.500,36.000,54.000
1.959,55.500,57.500,37.000,55.000
1.960,56.500,58.500,38.500,56.500
1.961,58.000,60.500,40.500,59.000
1.962,59.500,63.000,43.500,61.500
1.963,62.000,66.000,47.000,65.000
1.964,65.000,69.500,51.000,69.500
1.965,68.000,73.500,55.500,74.000
1.966,70.500,77.000,59.500,78.000
1.967,72.000,79.500,62.500,81.000
1.968,72.000,80.000,63.500,82.000
1.969,71.000,78.500,62.000,80.500
1.970,68.000,76.000,59.000,77.000
1.971,65.000,71.500,54.000,72.000
1.972,61.000,67.000,48.500,66.500
1.973,58.000,63.000,43.500,61.000
1.974,55.500,59.500,39.500,57.000
1.975,54.000,58.000,37.000,54.500
1.976,53.500,57.000,35.500,53.500
1.977,53.500,57.000,35.500,53.000
1.978,54.000,57.500,36.000,53.500
1.979,54.500,58.000,36.500,54.500
1.980,55.500,59.500,38.000,56.000
1.981,57.000,61.000,40.000,58.000
1.982,59.000,63.500,42.500,61.000
1.983,61.500,66.500,46.000,64.500
1.984,64.000,70.000,50.000,68.500
1.985,66.500,73.000,54.000,72.500
1.986,68.500,76.000,57.500,76.000
1.987,69.500,78.000,59.500,78.500
1.988,69.500,78.000,60.000,78.500
1.989,68.000,76.500,58.500,76.500
1.990,65.500,73.500,55.000,73.000
1.991,62.000,69.500,50.500,68.000
1.992,58.500,65.000,45.500,62.500
1.993,55.500,61.000,40.500,57.500
1.994,53.000,57.500,36.500,53.500
1.995,51.500,56.000,34.000,51.000
1.996,50.500,55.000,33.000,49.500
1.997,50.500,54.500,32.500,49.500
1.998,51.000,55.000,33.000,50.000
1.999,51.500,56.000,33.500,51.000
2.000,52.500,57.000,35.000,52.500
2.001,54.000,58.500,36.500,54.500
2.002,56.000,60.500,39.000,57.500
2.003,58.000,62.500,42.000,60.500
2.004,60.500,65.500,45.500,64.500
2.005,63.000,68.500,49.500,68.500
2.006,65.000,71.500,53.000,72.000
2.007,66.000,73.000,55.500,74.000
2.008,65.500,73.000,55.500,74.500
2.009,64.000,71.000,54.000,72.500
2.010,61.000,68.000,50.000,68.500
2.011,57.000,63.500,45.000,63.500
2.012,53.000,58.500,39.500,57.500
2.013,49.500,54.500,34.000,52.000
2.014,47.000,51.000,30.000,48.000
2.015,45.500,49.000,27.500,45.500
2.016,44.500,48.000,26.000,44.000
2.017,44.500,47.500,25.500,43.500
2.018,44.500,48.000,26.000,43.500
2.019,45.000,48.500,26.500,44.000
2.020,45.500,49.000,27.000,45.500
2.021,46.500,50.500,28.500,47.000
2.022,48.000,52.500,30.500,49.500
2.023,50.000,55.000,33.500,52.500
2.024,52.500,58.000,37.500,56.500
2.025,55.000,61.500,41.500,61.000
2.026,57.500,65.000,45.500,64.500
2.027,58.500,67.000,48.000,67.000
2.028,58.500,67.000,48.500,67.500
2.029,57.000,66.000,47.000,66.000
2.030,54.500,63.000,43.500,62.500
2.031,51.000,58.500,39.000,57.500
2.032,47.000,53.500,33.500,51.500
2.033,43.500,49.000,28.000,46.000
2.034,40.500,45.000,23.500,41.000
2.035,38.000,42.500,20.000,38.000
2.036,37.000,41.000,18.000,36.000
2.037,36.500,41.000,17.500,35.500
2.038,36.500,41.500,17.500,35.500
2.039,37.500,42.500,18.500,37.000
2.040,38.500,44.000,20.000,38.500
2.041,40.000,45.500,22.000,40.500
2.042,41.500,47.500,24.500,43.000
2.043,43.500,50.000,27.500,46.500
2.044,46.000,53.500,31.500,50.500
2.045,49.000,57.000,35.500,54.500
2.046,51.000,60.000,39.000,58.500
2.047,52.000,61.500,41.500,61.000
2.048,52.000,62.000,42.000,61.500
2.049,50.500,61.000,40.500,60.000
2.050,48.000,58.000,37.500,56.500
2.051,45.000,53.500,33.000,51.500
2.052,41.000,49.500,27.500,45.500
2.053,38.000,45.500,23.000,40.500
2.054,35.500,42.500,19.000,36.500
2.055,34.000,40.500,17.000,34.000
2.056,34.000,40.000,16.000,33.500
2.057,34.000,40.500,16.000,33.500
2.058,34.500,41.000,16.500,34.500
2.059,35.000,42.000,17.000,35.500
2.060,36.000,43.000,18.500,37.000
2.061,37.500,45.000,20.000,39.000
2.062,39.500,47.000,22.500,42.000
2.063,42.000,50.000,25.500,45.000
2.064,44.500,53.000,29.500,49.000
2.065,47.000,56.500,34.000,53.500
2.066,49.500,59.500,38.000,57.500
2.067,51.000,61.500,40.500,60.000
2.068,51.500,62.000,41.000,61.000
2.069,50.000,61.000,40.000,59.500
2.070,48.000,58.500,36.500,56.000
2.071,44.500,54.500,32.000,51.500
2.072,41.500,50.000,26.500,46.000
2.073,38.500,46.500,22.000,41.000
2.074,36.500,43.500,18.500,37.500
2.075,35.500,42.000,16.000,35.500
2.076,35.000,41.500,15.500,34.500
2.077,35.500,42.000,16.000,35.000
2.078,37.000,43.500,17.000,36.000
2.079,38.500,45.000,18.500,38.000
2.080,40.500,47.000,20.500,40.000
2.081,42.000,49.000,23.000,42.500
2.082,44.000,51.000,26.000,45.500
2.083,46.500,54.000,29.500,48.500
2.084,48.500,56.500,33.000,52.500
2.085,51.000,60.000,37.000,56.500
2.086,52.500,62.500,40.500,60.000
2.087,53.500,64.500,42.500,62.500
2.088,53.500,64.500,43.500,62.500
2.089,52.000,63.000,42.000,61.000
2.090,49.500,60.500,38.500,58.000
2.091,46.000,56.500,34.000,53.000
2.092,43.000,52.500,29.000,47.500
2.093,40.000,48.500,24.500,42.500
2.094,38.000,45.500,20.500,39.000
2.095,37.000,44.000,18.500,36.500
2.096,37.000,43.500,17.500,36.000
2.097,37.500,44.000,17.500,36.000
2.098,38.500,45.000,18.000,36.500
2.099,39.000,46.000,19.000,38.000
2.100,40.500,47.500,21.000,39.500
2.101,42.500,49.500,23.500,42.000
2.102,44.500,52.000,26.500,45.000
2.103,47.500,55.500,30.500,49.000
2.104,50.500,59.000,34.500,53.500
2.105,54.000,63.000,39.500,58.500
2.106,56.500,67.000,44.000,63.000
2.107,58.500,69.500,47.000,65.500
2.108,58.500,70.000,48.000,66.500
2.109,57.000,68.500,46.500,65.000
2.110,54.500,65.500,43.000,61.500
2.111,51.500,61.500,38.500,56.500
2.112,48.000,57.500,33.500,51.000
2.113,45.500,53.500,29.000,46.500
2.114,44.000,51.000,26.000,43.500
2.115,43.500,50.000,24.500,41.500
2.116,43.500,50.000,24.000,41.000
2.117,44.500,50.500,24.500,41.500
2.118,46.000,52.000,25.500,43.000
2.119,47.500,54.000,27.500,44.500
2.120,49.500,56.000,30.000,47.000
2.121,52.000,58.500,32.500,49.500
2.122,54.000,61.500,36.000,53.000
2.123,57.000,64.500,39.500,56.500
2.124,59.500,68.000,43.000,60.500
2.125,62.000,71.500,47.000,64.500
2.126,63.000,74.000,50.000,68.000
2.127,63.500,75.000,52.000,69.500
2.128,62.500,74.500,51.500,69.500
2.129,60.500,72.500,49.500,67.000
2.130,57.500,69.000,45.500,63.500
2.131,54.000,65.000,40.500,58.500
2.132,50.500,60.500,35.500,53.000
2.133,47.500,56.000,30.500,48.000
2.134,45.000,53.000,26.500,44.000
2.135,43.500,50.500,24.000,41.000
2.136,43.000,49.500,23.000,39.500
2.137,42.500,49.000,22.500,39.500
2.138,43.000,49.500,23.000,40.000
2.139,44.000,50.500,24.000,41.500
2.140,45.000,52.000,25.000,43.000
2.141,46.000,53.500,27.000,45.000
2.142,47.500,55.500,29.000,47.000
2.143,49.500,58.000,32.000,50.000
2.144,52.000,61.000,35.000,54.000
2.145,54.500,64.000,39.000,58.000
2.146,56.500,67.500,43.000,61.500
2.147,58.000,69.500,45.500,64.500
2.148,58.500,70.500,46.500,65.500
2.149,57.500,69.500,46.000,64.500
2.150,55.500,67.000,43.000,61.500
2.151,52.000,63.000,38.500,56.500
2.152,48.500,58.500,33.000,51.000
2.153,45.000,54.000,28.000,45.500
2.154,42.500,50.500,24.000,41.500
2.155,40.500,48.500,21.500,38.500
2.156,40.000,47.500,20.000,37.000
2.157,40.000,47.500,19.500,37.000
2.158,40.500,48.500,20.500,37.500
2.159,42.000,49.500,21.500,38.500
2.160,43.000,51.000,23.000,40.500
2.161,45.000,53.500,25.500,43.000
2.162,47.000,56.000,28.500,46.500
2.163,49.500,59.000,32.000,50.000
2.164,52.500,62.500,36.500,54.000
2.165,55.500,66.000,41.000,58.500
2.166,58.000,69.500,45.000,62.500
2.167,59.500,71.500,47.500,65.000
2.168,59.500,72.000,48.000,66.000
2.169,58.500,71.000,46.500,64.500
2.170,56.000,68.500,43.500,61.500
2.171,52.500,64.500,39.000,56.500
2.172,48.500,59.500,33.500,50.500
2.173,45.000,55.000,28.000,45.000
2.174,42.000,51.000,23.500,40.500
2.175,40.000,48.500,20.500,37.000
2.176,39.000,47.500,19.000,35.500
2.177,38.500,47.000,18.500,35.000
2.178,39.000,47.500,19.000,35.000
2.179,40.000,48.500,20.000,36.500
2.180,41.500,50.000,22.000,38.500
2.181,43.500,52.000,24.000,41.000
2.182,45.500,54.500,26.500,44.000
2.183,47.500,57.000,30.000,47.500
2.184,50.000,60.000,33.500,51.500
2.185,52.500,63.500,37.500,55.500
2.186,55.000,66.500,41.500,59.500
2.187,56.500,68.500,44.500,62.500
2.188,57.000,69.500,45.500,64.000
2.189,56.000,69.000,45.000,63.000
2.190,54.500,67.000,42.500,60.500
2.191,51.500,63.500,38.500,56.000
2.192,48.500,59.000,33.500,51.000
2.193,45.500,55.000,29.000,46.000
2.194,43.000,52.000,25.000,41.500
2.195,41.500,50.000,22.500,39.000
2.196,40.500,48.500,21.000,37.000
2.197,40.000,48.000,20.000,36.500
2.198,40.000,47.500,20.000,36.500
2.199,39.500,47.500,20.000,36.500
2.200,39.500,47.500,20.000,36.500
2.201,39.000,47.000,20.000,37.000
2.202,38.500,47.000,20.000,37.500
2.203,38.500,47.500,20.500,38.000
2.204,38.000,48.000,21.500,39.000
2.205,38.000,48.500,23.000,40.500
2.206,37.000,48.500,23.500,41.000
2.207,35.500,47.500,23.000,40.500
2.208,32.500,45.000,21.000,38.000
2.209,28.000,41.000,17.000,34.000
2.210,23.000,35.500,11.000,28.000
2.211,17.500,29.500,4.500,21.000
2.212,12.000,23.000,-3.000,13.500
2.213,6.500,16.500,-10.000,6.500
2.214,2.000,11.500,-16.500,0.000
2.215,-1.500,7.000,-21.000,-5.000
2.216,-4.000,4.000,-24.500,-8.500
2.217,-6.000,2.000,-27.000,-11.000
2.218,-7.500,0.000,-29.000,-12.500
2.219,-8.500,-1.500,-30.000,-13.500
2.220,-9.500,-2.000,-30.500,-14.000
2.221,-10.000,-2.000,-30.500,-13.500
2.222,-10.000,-1.500,-29.500,-12.000
2.223,-9.500,0.000,-27.500,-10.000
2.224,-8.000,2.000,-25.000,-7.500
2.225,-6.500,4.500,-22.000,-4.500
2.226,-6.000,6.000,-19.500,-2.000
2.227,-5.500,7.000,-18.500,-1.000
2.228,-7.000,6.000,-19.000,-1.500
2.229,-9.500,3.500,-22.000,-4.500
2.230,-13.000,-1.000,-26.500,-9.000
2.231,-17.500,-6.000,-32.500,-15.000
2.232,-22.500,-11.500,-39.000,-21.500
2.233,-27.000,-17.000,-45.000,-28.000
2.234,-31.000,-21.500,-50.500,-33.500
2.235,-34.000,-25.500,-54.500,-37.500
2.236,-36.000,-28.000,-57.500,-40.500
2.237,-37.500,-29.500,-59.000,-42.500
2.238,-38.500,-30.500,-60.000,-43.500
2.239,-39.000,-30.500,-60.500,-43.500
2.240,-39.000,-30.500,-59.500,-42.500
2.241,-38.500,-29.500,-58.500,-41.500
2.242,-37.500,-27.500,-56.500,-39.500
2.243,-36.000,-25.500,-54.000,-36.500
2.244,-34.000,-23.000,-51.000,-33.000
2.245,-32.000,-20.000,-47.500,-29.500
2.246,-30.500,-18.000,-45.000,-26.500
2.247,-30.000,-17.000,-43.500,-25.000
2.248,-31.500,-17.500,-44.000,-25.500
2.249,-34.000,-20.500,-46.500,-28.500
2.250,-38.000,-24.500,-51.000,-33.000
2.251,-43.000,-30.000,-57.000,-39.000
2.252,-48.000,-35.500,-63.500,-46.000
2.253,-52.500,-41.000,-70.000,-52.500
2.254,-56.000,-45.000,-75.500,-58.000
2.255,-58.500,-48.500,-79.500,-62.500
2.256,-60.500,-51.000,-83.000,-66.000
2.257,-62.000,-53.500,-85.500,-69.000
2.258,-63.000,-55.000,-87.500,-71.000
2.259,-64.000,-56.000,-89.000,-72.500
2.260,-64.000,-56.500,-89.500,-73.000
2.261,-64.000,-55.500,-89.000,-72.000
2.262,-62.500,-54.000,-87.000,-70.500
2.263,-61.000,-51.500,-84.000,-67.000
2.264,-58.500,-48.500,-80.500,-63.000
2.265,-56.000,-45.000,-76.000,-58.000
2.266,-54.000,-42.000,-72.000,-53.500
2.267,-53.000,-40.000,-69.500,-50.500
2.268,-53.500,-40.000,-68.500,-49.500
2.269,-55.000,-41.500,-69.500,-50.500
2.270,-57.500,-44.000,-73.000,-53.500
2.271,-61.500,-48.500,-78.000,-58.500
2.272,-65.500,-53.500,-83.500,-64.000
2.273,-69.500,-58.000,-89.000,-69.500
2.274,-72.500,-62.000,-93.500,-74.000
2.275,-74.500,-64.500,-96.500,-77.000
2.276,-76.000,-66.000,-98.500,-79.000
2.277,-77.000,-66.500,-99.000,-79.500
2.278,-77.500,-67.000,-99.500,-80.000
2.279,-77.500,-66.500,-99.000,-80.000
2.280,-77.000,-66.000,-98.500,-79.500
2.281,-76.500,-65.000,-97.500,-78.000
2.282,-75.000,-63.500,-95.500,-76.500
2.283,-73.500,-61.500,-93.000,-73.500
2.284,-71.000,-58.500,-89.500,-70.000
2.285,-68.500,-55.000,-85.500,-65.500
2.286,-66.500,-52.000,-82.000,-62.000
2.287,-65.000,-50.000,-79.500,-59.500
2.288,-65.000,-49.500,-78.500,-59.000
2.289,-67.000,-51.500,-80.000,-61.000
2.290,-70.000,-54.500,-83.500,-65.000
2.291,-74.000,-59.500,-89.000,-70.500
2.292,-78.000,-64.500,-94.500,-76.500
2.293,-82.000,-69.000,-100.000,-82.500
2.294,-84.500,-72.500,-104.500,-87.500
2.295,-86.500,-75.000,-107.500,-90.500
2.296,-87.000,-76.000,-109.000,-91.500
2.297,-87.000,-76.000,-109.500,-92.000
2.298,-86.500,-76.000,-109.500,-91.500
2.299,-85.500,-75.000,-108.500,-90.500
2.300,-84.500,-73.500,-107.000,-89.000
2.301,-83.000,-71.500,-105.000,-86.500
2.302,-81.000,-69.500,-102.500,-84.000
2.303,-79.000,-66.500,-99.500,-80.500
2.304,-76.000,-63.500,-95.500,-76.500
2.305,-73.000,-59.500,-91.000,-72.000
2.306,-71.000,-56.500,-87.000,-68.500
2.307,-69.000,-54.500,-84.500,-65.500
2.308,-69.000,-54.000,-83.500,-65.000
2.309,-70.000,-55.000,-84.500,-66.000
2.310,-72.000,-57.500,-87.500,-69.500
2.311,-75.000,-61.000,-91.500,-74.000
2.312,-78.500,-65.000,-96.500,-79.000
2.313,-81.000,-68.500,-101.000,-83.500
2.314,-83.000,-71.500,-104.500,-87.500
2.315,-84.500,-73.000,-107.000,-89.500
2.316,-84.500,-73.500,-108.000,-90.500
2.317,-84.500,-73.500,-108.500,-91.000
2.318,-83.500,-73.000,-108.000,-90.000
2.319,-82.500,-71.500,-106.500,-89.000
2.320,-81.000,-70.000,-104.500,-87.000
2.321,-79.000,-67.500,-102.000,-85.000
2.322,-77.000,-65.000,-99.000,-81.500
2.323,-74.000,-62.000,-95.500,-78.000
2.324,-70.500,-58.000,-91.000,-73.000
2.325,-67.500,-54.000,-86.000,-68.000
2.326,-64.500,-50.500,-81.500,-63.500
2.327,-62.500,-47.500,-78.500,-60.500
2.328,-62.000,-46.500,-77.000,-59.000
2.329,-62.500,-47.000,-77.500,-59.500
2.330,-64.500,-49.000,-80.000,-62.500
2.331,-67.000,-52.500,-84.000,-66.500
2.332,-70.500,-56.500,-89.000,-72.000
2.333,-73.500,-60.500,-94.000,-77.000
2.334,-75.500,-63.500,-97.500,-80.500
2.335,-76.500,-65.500,-99.500,-83.000
2.336,-76.500,-66.000,-100.500,-84.000
2.337,-76.000,-65.500,-100.500,-83.500
2.338,-75.000,-65.000,-100.000,-83.000
2.339,-74.000,-64.000,-98.500,-81.500
2.340,-72.500,-62.500,-97.000,-80.000
2.341,-71.000,-60.500,-95.000,-77.500
2.342,-69.500,-58.000,-92.500,-75.000
2.343,-67.500,-55.500,-89.500,-71.500
2.344,-65.000,-52.500,-86.000,-68.000
2.345,-63.000,-49.000,-82.000,-64.000
2.346,-61.500,-46.000,-78.500,-60.500
2.347,-60.500,-44.500,-76.500,-58.500
2.348,-61.500,-45.000,-76.500,-58.500
2.349,-64.000,-47.000,-78.500,-61.000
2.350,-67.000,-50.500,-82.500,-65.000
2.351,-71.000,-55.000,-87.500,-70.500
2.352,-75.000,-60.500,-94.000,-77.000
2.353,-79.000,-65.500,-99.500,-83.000
2.354,-82.000,-69.000,-104.000,-87.500
2.355,-83.500,-72.000,-107.500,-90.500
2.356,-84.500,-73.000,-109.000,-92.500
2.357,-85.000,-73.500,-110.000,-93.000
2.358,-84.500,-73.500,-109.500,-92.500
2.359,-83.500,-72.500,-109.000,-91.500
2.360,-82.500,-71.000,-107.500,-89.500
2.361,-80.500,-69.000,-105.000,-87.500
2.362,-78.000,-66.000,-102.000,-84.500
2.363,-75.500,-63.000,-98.500,-81.000
2.364,-72.000,-59.000,-94.000,-76.500
2.365,-69.000,-55.000,-89.500,-72.000
2.366,-66.500,-51.500,-85.500,-67.500
2.367,-65.000,-49.000,-82.500,-64.500
2.368,-65.000,-48.500,-81.500,-63.500
2.369,-66.500,-50.000,-83.000,-65.000
2.370,-69.000,-53.000,-86.500,-68.500
2.371,-72.500,-57.000,-91.500,-73.500
2.372,-76.000,-61.500,-97.000,-79.500
2.373,-80.000,-66.500,-102.500,-85.500
2.374,-83.000,-70.500,-107.000,-90.000
2.375,-85.000,-73.000,-110.000,-94.000
2.376,-86.500,-75.000,-112.000,-96.000
2.377,-87.000,-76.000,-113.000,-97.000
2.378,-87.500,-76.000,-113.500,-97.500
2.379,-87.500,-76.000,-113.500,-97.500
2.380,-87.000,-76.000,-113.000,-97.000
2.381,-86.500,-75.000,-112.000,-95.500
2.382,-86.000,-74.000,-110.500,-93.500
2.383,-84.500,-72.000,-108.500,-91.000
2.384,-83.000,-69.500,-105.500,-87.500
2.385,-81.000,-66.500,-102.000,-83.500
2.386,-79.500,-64.000,-99.000,-80.500
2.387,-79.000,-63.000,-97.000,-78.500
2.388,-80.500,-64.000,-97.500,-79.000
2.389,-83.500,-66.500,-100.500,-82.000
2.390,-88.000,-71.500,-105.500,-87.000
2.391,-93.500,-77.500,-112.000,-93.500
2.392,-99.500,-84.000,-119.500,-101.000
2.393,-105.000,-90.500,-126.500,-107.500
2.394,-109.500,-95.500,-132.500,-113.000
2.395,-112.500,-99.500,-136.500,-117.000
2.396,-114.500,-102.000,-139.000,-119.000
2.397,-116.000,-103.500,-140.500,-120.000
2.398,-116.500,-104.000,-141.000,-120.000
2.399,-116.500,-104.000,-141.000,-119.000
2.400,-116.500,-103.500,-140.000,-118.000
2.401,-116.000,-103.000,-138.500,-116.000
2.402,-115.000,-101.000,-136.500,-113.500
2.403,-113.000,-98.500,-133.000,-109.500
2.404,-111.000,-95.000,-128.500,-104.500
2.405,-108.000,-91.000,-123.500,-98.500
2.406,-105.500,-87.500,-118.500,-93.500
2.407,-104.000,-84.500,-115.000,-89.000
2.408,-103.000,-82.500,-112.500,-86.500
2.409,-103.000,-82.000,-111.500,-85.500
2.410,-103.000,-82.500,-112.000,-85.500
2.411,-104.000,-84.000,-113.500,-87.000
2.412,-105.000,-85.500,-116.000,-89.500
2.413,-106.000,-87.500,-118.000,-91.500
2.414,-106.500,-88.500,-120.000,-93.500
2.415,-106.500,-89.000,-121.000,-94.000
2.416,-106.000,-89.000,-121.000,-94.000
2.417,-105.000,-88.500,-120.000,-93.500
2.418,-103.500,-87.000,-119.000,-92.500
2.419,-101.500,-85.000,-117.000,-90.500
2.420,-99.000,-82.500,-114.500,-88.500
2.421,-96.500,-79.500,-111.500,-86.000
2.422,-93.000,-76.000,-108.000,-83.000
2.423,-89.000,-72.000,-104.500,-80.000
2.424,-85.000,-67.500,-100.000,-76.500
2.425,-81.000,-63.000,-95.000,-72.500
2.426,-77.500,-59.000,-91.000,-69.500
2.427,-75.500,-56.500,-88.500,-68.000
2.428,-75.000,-56.000,-88.500,-68.500
2.429,-76.500,-57.500,-90.500,-72.000
2.430,-80.000,-61.500,-95.500,-77.500
2.431,-85.000,-67.000,-102.000,-84.500
2.432,-90.500,-73.500,-109.500,-93.000
2.433,-96.500,-80.000,-117.500,-101.000
2.434,-101.500,-86.000,-124.000,-108.000
2.435,-105.500,-90.500,-129.500,-113.500
2.436,-108.500,-94.000,-133.000,-117.000
2.437,-110.500,-96.500,-135.500,-119.500
2.438,-111.500,-98.000,-137.000,-121.000
2.439,-112.000,-98.500,-138.000,-122.000
2.440,-112.500,-99.000,-138.000,-122.000
2.441,-113.000,-99.000,-138.000,-122.000
2.442,-113.000,-98.500,-137.000,-121.000
2.443,-112.500,-98.000,-136.000,-119.500
2.444,-112.000,-96.500,-134.000,-117.500
2.445,-111.000,-95.000,-131.500,-115.000
2.446,-110.000,-93.000,-129.000,-112.500
2.447,-110.000,-92.000,-127.500,-110.500
2.448,-111.000,-92.500,-128.000,-111.000
2.449,-113.500,-95.000,-130.500,-113.500
2.450,-117.500,-98.500,-135.000,-118.000
2.451,-121.500,-103.500,-140.500,-123.500
2.452,-126.500,-109.000,-147.000,-130.000
2.453,-130.500,-114.500,-153.000,-136.000
2.454,-134.000,-118.500,-158.000,-141.000
2.455,-136.500,-122.000,-161.500,-145.000
2.456,-138.000,-124.000,-164.000,-147.000
2.457,-139.000,-125.000,-165.500,-148.500
2.458,-139.500,-126.000,-166.000,-149.000
2.459,-139.500,-126.000,-166.000,-149.000
2.460,-139.000,-126.000,-165.500,-148.000
2.461,-138.000,-125.000,-164.000,-147.000
2.462,-136.500,-123.000,-162.000,-145.000
2.463,-134.500,-120.500,-159.000,-142.000
2.464,-132.500,-117.000,-155.000,-138.000
2.465,-130.000,-113.500,-151.000,-134.000
2.466,-128.000,-110.500,-147.000,-130.000
2.467,-126.500,-108.000,-144.000,-127.000
2.468,-126.500,-107.000,-143.000,-126.000
2.469,-127.000,-108.000,-144.000,-127.000
2.470,-129.000,-110.000,-146.500,-130.000
2.471,-132.000,-113.500,-150.500,-134.000
2.472,-134.500,-117.000,-155.000,-138.500
2.473,-137.000,-120.500,-159.000,-143.500
2.474,-139.000,-123.500,-162.500,-147.000
2.475,-140.000,-125.000,-165.000,-149.000
2.476,-140.500,-126.000,-166.000,-150.000
2.477,-140.500,-126.000,-166.500,-150.000
2.478,-140.000,-125.500,-166.000,-150.000
2.479,-139.000,-124.500,-165.000,-148.500
2.480,-138.000,-123.000,-163.500,-147.000
2.481,-136.500,-121.000,-161.500,-145.000
2.482,-134.500,-118.500,-158.500,-142.000
2.483,-132.000,-115.000,-155.000,-138.000
2.484,-129.000,-111.500,-150.500,-133.500
2.485,-126.000,-107.000,-145.500,-128.500
2.486,-123.000,-103.000,-141.000,-124.000
2.487,-121.500,-100.500,-138.000,-120.500
2.488,-120.500,-99.500,-136.500,-119.000
2.489,-121.500,-100.500,-137.000,-120.000
2.490,-123.500,-102.500,-140.000,-122.500
2.491,-126.000,-106.000,-144.000,-127.000
2.492,-129.500,-110.500,-149.000,-132.500
2.493,-132.500,-114.500,-154.000,-137.500
2.494,-134.500,-117.500,-157.500,-141.500
2.495,-135.500,-119.000,-160.000,-144.000
2.496,-135.000,-119.500,-161.000,-144.500
2.497,-134.500,-119.000,-160.500,-144.000
2.498,-133.000,-117.500,-159.500,-142.500
2.499,-131.500,-116.000,-157.500,-140.500
2.500,-129.500,-113.500,-155.000,-138.500
2.501,-127.500,-111.000,-152.000,-135.500
2.502,-125.000,-108.000,-149.000,-132.000
2.503,-121.500,-104.500,-144.500,-128.000
2.504,-118.000,-100.000,-140.000,-123.500
2.505,-114.500,-96.000,-134.500,-118.000
2.506,-111.000,-91.500,-130.000,-113.000
2.507,-108.500,-89.000,-126.500,-109.500
2.508,-107.500,-87.500,-124.500,-108.000
2.509,-108.000,-88.000,-125.000,-108.500
2.510,-109.500,-90.000,-127.500,-111.000
2.511,-112.000,-93.500,-131.500,-115.500
2.512,-114.500,-97.000,-136.000,-120.500
2.513,-117.500,-100.500,-141.000,-125.000
2.514,-119.500,-103.500,-144.500,-128.500
2.515,-120.500,-105.000,-146.500,-131.000
2.516,-120.500,-105.500,-147.500,-132.000
2.517,-120.000,-105.500,-147.500,-131.500
2.518,-119.000,-104.500,-146.500,-131.000
2.519,-118.000,-103.500,-145.500,-129.500
2.520,-116.500,-102.000,-144.000,-128.000
2.521,-115.500,-100.500,-142.000,-126.500
2.522,-114.000,-99.000,-140.000,-124.000
2.523,-112.000,-96.500,-137.500,-121.500
2.524,-110.000,-93.500,-134.500,-118.000
2.525,-107.500,-90.500,-130.500,-114.000
2.526,-106.000,-88.000,-127.500,-110.500
2.527,-105.000,-86.500,-125.500,-108.500
2.528,-106.000,-87.000,-125.500,-108.500
2.529,-108.000,-89.500,-128.000,-110.500
2.530,-112.000,-93.500,-132.000,-114.500
2.531,-116.500,-98.500,-137.500,-120.500
2.532,-121.500,-104.500,-144.000,-127.500
2.533,-126.000,-110.000,-150.500,-134.000
2.534,-129.500,-114.500,-155.500,-139.500
2.535,-132.000,-117.500,-159.500,-143.500
2.536,-133.500,-119.500,-161.500,-146.000
2.537,-134.500,-120.500,-162.500,-147.000
2.538,-135.000,-121.000,-163.000,-147.500
2.539,-135.000,-120.500,-163.000,-147.000
2.540,-134.500,-120.000,-162.000,-146.000
2.541,-133.500,-119.000,-161.000,-144.500
2.542,-132.500,-117.000,-159.000,-142.500
2.543,-131.000,-115.000,-156.500,-139.500
2.544,-129.500,-112.500,-153.500,-136.000
2.545,-127.500,-109.500,-150.000,-132.500
2.546,-125.500,-107.500,-146.500,-129.000
2.547,-125.000,-106.000,-144.500,-127.000
2.548,-125.000,-106.000,-144.500,-126.500
2.549,-126.500,-107.500,-146.000,-128.000
2.550,-128.500,-110.500,-149.000,-131.500
2.551,-131.500,-114.000,-153.500,-136.000
2.552,-135.000,-118.500,-158.500,-141.500
2.553,-137.500,-122.000,-163.000,-146.000
2.554,-139.500,-124.500,-166.000,-149.500
2.555,-140.500,-126.500,-168.000,-152.000
2.556,-140.500,-126.500,-169.000,-152.500
2.557,-140.000,-126.500,-168.500,-152.500
2.558,-139.000,-125.000,-167.500,-151.000
2.559,-137.500,-123.500,-166.000,-149.500
2.560,-135.500,-121.500,-163.500,-147.000
2.561,-133.500,-119.000,-161.500,-144.500
2.562,-131.500,-117.000,-159.000,-142.000
2.563,-129.500,-114.500,-156.000,-139.000
2.564,-127.500,-111.500,-152.500,-135.500
2.565,-125.000,-108.500,-148.500,-131.500
2.566,-122.500,-105.000,-144.500,-127.500
2.567,-120.500,-102.000,-141.500,-124.000
2.568,-119.500,-100.500,-139.500,-122.500
2.569,-120.000,-100.500,-139.500,-123.000
2.570,-121.500,-102.000,-141.500,-125.000
2.571,-124.500,-105.000,-145.500,-129.000
2.572,-127.500,-109.000,-150.000,-134.000
2.573,-130.000,-113.000,-154.500,-138.500
2.574,-132.500,-116.000,-158.000,-142.500
2.575,-133.500,-118.000,-160.500,-145.000
2.576,-134.000,-118.500,-162.000,-146.500
2.577,-134.000,-118.500,-162.000,-146.500
2.578,-133.000,-117.500,-161.000,-146.000
2.579,-131.500,-116.500,-159.500,-145.000
2.580,-130.000,-114.500,-158.000,-143.000
2.581,-128.500,-113.000,-155.500,-141.000
2.582,-126.500,-110.500,-153.000,-138.500
2.583,-124.500,-108.000,-149.500,-135.000
2.584,-122.000,-104.500,-145.500,-130.500
2.585,-118.500,-100.500,-141.000,-126.000
2.586,-116.000,-97.000,-137.000,-121.500
2.587,-114.000,-94.000,-133.500,-118.000
2.588,-113.000,-93.000,-132.000,-116.500
2.589,-114.000,-93.500,-133.000,-117.000
2.590,-116.000,-96.000,-135.500,-120.000
2.591,-119.000,-99.500,-140.000,-124.000
2.592,-122.500,-104.000,-145.000,-129.000
2.593,-125.500,-107.500,-149.500,-134.000
2.594,-127.500,-110.500,-153.500,-138.000
2.595,-128.500,-112.500,-155.500,-140.500
2.596,-128.500,-113.000,-156.000,-141.000
2.597,-128.000,-112.000,-155.500,-140.500
2.598,-127.000,-111.500,-155.000,-139.500
2.599,-125.500,-110.000,-153.500,-138.000
2.600,-124.000,-108.500,-151.500,-136.000
2.601,-122.500,-106.500,-149.500,-133.500
2.602,-121.000,-104.500,-147.000,-131.000
2.603,-119.000,-102.500,-144.500,-128.000
2.604,-117.500,-100.000,-141.000,-125.000
2.605,-116.000,-97.000,-138.000,-122.000
2.606,-115.000,-95.500,-136.000,-120.000
2.607,-115.500,-95.500,-135.500,-119.500
2.608,-117.000,-97.000,-137.500,-121.500
2.609,-120.500,-101.000,-141.500,-125.500
2.610,-125.000,-106.500,-147.000,-131.500
2.611,-130.500,-112.000,-153.500,-138.500
2.612,-135.000,-118.000,-160.500,-145.500
2.613,-139.500,-123.000,-166.000,-151.500
2.614,-142.000,-126.500,-170.500,-156.000
2.615,-143.500,-128.000,-172.500,-158.000
2.616,-144.000,-128.500,-173.000,-158.500
2.617,-143.500,-128.000,-172.500,-157.500
2.618,-142.500,-127.000,-171.000,-155.500
2.619,-141.000,-125.000,-169.000,-153.000
2.620,-139.000,-123.000,-166.000,-150.000
2.621,-137.000,-120.000,-163.000,-146.500
2.622,-134.500,-116.500,-159.000,-142.500
2.623,-131.000,-113.000,-154.500,-137.500
2.624,-127.500,-108.500,-149.000,-132.000
2.625,-124.000,-104.000,-144.000,-127.000
2.626,-121.000,-100.000,-139.500,-122.000
2.627,-119.000,-97.500,-136.000,-119.000
2.628,-118.500,-96.500,-135.000,-118.000
2.629,-119.500,-97.500,-135.500,-119.000
2.630,-122.000,-100.500,-138.500,-122.500
2.631,-125.500,-104.500,-143.500,-127.500
2.632,-129.000,-109.000,-148.500,-133.000
2.633,-132.500,-113.500,-154.000,-138.500
2.634,-135.500,-117.500,-158.500,-143.000
2.635,-137.500,-120.000,-161.500,-146.500
2.636,-138.500,-122.000,-163.500,-148.500
2.637,-139.000,-122.500,-164.000,-149.500
2.638,-138.500,-122.000,-164.000,-149.000
2.639,-138.000,-121.500,-163.500,-148.500
2.640,-137.000,-120.000,-162.500,-147.500
2.641,-136.000,-118.500,-161.000,-145.500
2.642,-134.500,-117.000,-158.500,-143.000
2.643,-132.500,-114.500,-156.000,-140.500
2.644,-130.500,-112.000,-153.000,-137.000
2.645,-128.500,-109.000,-149.500,-133.500
2.646,-126.500,-106.000,-146.000,-130.000
2.647,-126.000,-104.500,-144.000,-128.000
2.648,-126.500,-104.500,-143.500,-127.500
2.649,-128.000,-106.000,-144.500,-128.500
2.650,-130.500,-109.000,-147.500,-132.000
2.651,-133.500,-113.000,-152.000,-136.500
2.652,-137.000,-117.000,-157.000,-142.000
2.653,-140.500,-121.500,-162.500,-147.500
2.654,-143.000,-125.000,-166.500,-151.500
2.655,-145.000,-127.500,-169.500,-155.000
2.656,-146.000,-128.500,-171.500,-156.500
2.657,-146.000,-129.000,-172.000,-157.000
2.658,-146.000,-129.000,-172.000,-157.000
2.659,-145.500,-128.500,-171.500,-156.500
2.660,-144.500,-128.000,-170.500,-155.000
2.661,-143.500,-126.500,-169.000,-153.500
2.662,-142.500,-125.000,-167.000,-151.500
2.663,-141.000,-123.000,-165.000,-149.000
2.664,-139.500,-121.000,-161.500,-146.000
2.665,-137.500,-118.000,-158.000,-142.500
2.666,-135.500,-115.000,-155.000,-139.000
2.667,-134.500,-113.500,-152.500,-136.500
2.668,-135.000,-113.000,-151.500,-136.000
2.669,-136.000,-114.500,-153.000,-137.500
2.670,-138.500,-117.000,-156.000,-141.000
2.671,-141.500,-121.000,-160.500,-145.500
2.672,-145.000,-125.000,-166.000,-151.000
2.673,-148.000,-129.000,-171.000,-156.000
2.674,-150.000,-132.000,-174.500,-160.000
2.675,-151.000,-133.500,-176.500,-162.000
2.676,-151.000,-134.000,-177.000,-163.000
2.677,-150.500,-133.500,-177.000,-162.500
2.678,-149.500,-132.000,-175.500,-161.500
2.679,-147.500,-130.000,-173.500,-159.500
2.680,-145.500,-128.000,-171.500,-157.000
2.681,-143.500,-125.500,-169.000,-154.000
2.682,-141.000,-122.500,-165.500,-150.500
2.683,-138.500,-119.500,-162.000,-147.000
2.684,-135.500,-116.000,-158.000,-143.000
2.685,-132.500,-113.000,-154.000,-138.500
2.686,-130.000,-109.500,-150.000,-134.500
2.687,-128.500,-107.500,-147.500,-132.000
2.688,-128.000,-106.500,-146.500,-131.000
2.689,-129.000,-107.500,-147.500,-132.000
2.690,-131.000,-110.000,-150.000,-134.500
2.691,-134.000,-113.500,-154.500,-139.000
2.692,-138.000,-118.000,-159.500,-144.500
2.693,-141.500,-123.000,-165.000,-150.500
2.694,-144.500,-127.000,-170.000,-155.500
2.695,-146.500,-130.000,-173.000,-159.000
2.696,-147.500,-131.500,-175.000,-160.500
2.697,-148.000,-131.500,-175.500,-161.500
2.698,-147.500,-131.500,-175.500,-161.500
2.699,-146.500,-130.500,-174.500,-160.500
2.700,-145.500,-129.500,-173.000,-159.000
2.701,-144.000,-127.500,-171.000,-157.000
2.702,-142.000,-125.500,-168.000,-154.000
2.703,-139.500,-122.500,-164.500,-150.500
2.704,-136.500,-119.000,-160.500,-146.000
2.705,-134.000,-115.500,-156.000,-141.500
2.706,-131.000,-112.000,-152.000,-137.500
2.707,-129.500,-109.500,-149.500,-135.000
2.708,-129.000,-109.000,-148.000,-134.000
2.709,-129.500,-109.500,-149.000,-134.500
2.710,-131.500,-111.500,-151.500,-137.500
2.711,-134.000,-114.500,-155.000,-141.500
2.712,-136.500,-118.000,-159.500,-146.000
2.713,-139.500,-122.000,-164.000,-151.000
2.714,-141.500,-125.000,-167.500,-155.000
2.715,-143.000,-127.500,-170.000,-158.000
2.716,-143.500,-128.500,-171.500,-159.500
2.717,-143.500,-129.000,-172.000,-160.000
2.718,-143.000,-128.500,-171.500,-159.500
2.719,-142.000,-127.500,-170.500,-158.500
2.720,-140.500,-126.000,-169.000,-157.000
2.721,-138.500,-123.500,-166.500,-154.500
2.722,-136.500,-121.500,-164.000,-152.000
2.723,-134.500,-118.500,-160.500,-148.500
2.724,-132.000,-115.500,-156.500,-144.500
2.725,-129.000,-111.500,-152.000,-140.000
2.726,-126.500,-108.500,-148.000,-135.500
2.727,-125.000,-106.000,-145.000,-132.500
2.728,-124.500,-104.500,-143.500,-131.000
2.729,-125.000,-105.500,-144.000,-132.000
2.730,-127.000,-107.500,-146.500,-134.500
2.731,-129.500,-111.000,-150.500,-139.000
2.732,-132.500,-115.500,-155.500,-144.000
2.733,-135.500,-119.500,-160.500,-149.000
2.734,-138.000,-123.000,-165.000,-153.500
2.735,-140.000,-125.500,-168.000,-156.500
2.736,-140.500,-126.500,-169.500,-158.500
2.737,-141.000,-127.000,-170.000,-159.000
2.738,-141.000,-127.000,-170.000,-159.000
2.739,-140.500,-126.000,-170.000,-158.500
2.740,-139.500,-125.000,-169.000,-157.000
2.741,-138.500,-123.500,-167.000,-155.500
2.742,-137.000,-121.500,-165.000,-153.000
2.743,-135.000,-119.000,-162.000,-150.000
2.744,-132.500,-116.000,-158.000,-146.000
2.745,-130.000,-112.000,-153.500,-141.500
2.746,-127.500,-109.000,-149.500,-137.500
2.747,-125.500,-106.500,-146.500,-134.000
2.748,-125.000,-105.500,-145.000,-133.000
2.749,-125.500,-106.000,-146.000,-133.500
2.750,-127.500,-108.000,-148.500,-136.000
2.751,-130.500,-111.500,-152.500,-140.500
2.752,-134.000,-116.000,-157.500,-145.500
2.753,-138.000,-120.500,-162.500,-151.000
2.754,-141.000,-124.500,-167.000,-155.500
2.755,-143.000,-127.000,-170.000,-158.500
2.756,-144.000,-128.000,-172.000,-160.000
2.757,-144.000,-128.000,-172.500,-160.500
2.758,-143.500,-127.500,-172.000,-160.000
2.759,-142.000,-126.500,-171.000,-159.000
2.760,-141.000,-125.000,-169.500,-157.500
2.761,-139.500,-123.000,-167.500,-155.000
2.762,-137.500,-121.000,-165.000,-152.500
2.763,-135.500,-118.500,-162.000,-149.000
2.764,-133.000,-115.000,-158.000,-145.500
2.765,-130.500,-112.000,-153.500,-141.000
2.766,-128.000,-108.500,-149.500,-137.000
2.767,-126.500,-106.500,-147.000,-134.000
2.768,-126.000,-105.500,-146.000,-133.000
2.769,-127.000,-106.500,-146.500,-133.500
2.770,-128.500,-108.500,-149.000,-136.500
2.771,-131.000,-111.500,-152.500,-140.500
2.772,-133.500,-115.000,-157.000,-145.000
2.773,-136.000,-118.000,-161.000,-149.500
2.774,-138.000,-121.000,-164.500,-153.000
2.775,-139.000,-122.500,-167.000,-155.500
2.776,-139.500,-123.000,-168.500,-156.500
2.777,-139.500,-123.000,-168.500,-157.000
2.778,-138.500,-122.500,-168.000,-156.500
2.779,-138.000,-121.500,-167.000,-155.500
2.780,-137.000,-120.500,-166.000,-154.000
2.781,-136.000,-119.500,-164.000,-152.500
2.782,-134.500,-117.500,-162.000,-150.000
2.783,-133.000,-115.500,-159.500,-147.500
2.784,-131.500,-112.500,-156.000,-143.500
2.785,-129.500,-109.500,-152.500,-139.500
2.786,-127.500,-106.500,-149.000,-136.000
2.787,-126.500,-104.000,-146.000,-133.500
2.788,-126.500,-103.500,-145.000,-132.500
2.789,-127.500,-104.500,-146.000,-133.500
2.790,-130.000,-107.000,-149.000,-136.500
2.791,-133.000,-111.000,-153.500,-141.500
2.792,-136.500,-115.500,-159.000,-147.000
2.793,-140.000,-120.000,-164.000,-152.500
2.794,-142.500,-123.500,-168.500,-156.500
2.795,-144.000,-125.500,-171.000,-159.500
2.796,-144.500,-126.500,-172.500,-160.500
2.797,-144.500,-127.000,-173.000,-161.000
2.798,-144.500,-126.500,-172.500,-160.500
2.799,-143.500,-125.500,-171.500,-159.500
2.800,-142.500,-124.000,-170.000,-157.500
2.801,-141.000,-122.500,-168.000,-155.500
2.802,-139.500,-120.500,-166.000,-153.500
2.803,-137.500,-118.500,-163.000,-151.000
2.804,-136.000,-116.500,-160.000,-148.000
2.805,-134.000,-114.000,-157.000,-145.000
2.806,-132.500,-112.000,-154.000,-142.000
2.807,-132.000,-110.500,-152.500,-140.500
2.808,-132.500,-110.500,-152.000,-140.000
2.809,-134.000,-111.500,-153.000,-141.500
2.810,-136.500,-114.500,-156.500,-145.000
2.811,-140.000,-118.000,-161.000,-149.500
2.812,-143.500,-122.500,-166.000,-154.500
2.813,-147.000,-126.500,-171.000,-159.500
2.814,-149.000,-129.000,-174.500,-163.500
2.815,-150.500,-131.000,-177.000,-166.000
2.816,-150.500,-131.500,-178.000,-167.000
2.817,-150.500,-131.500,-178.000,-167.000
2.818,-149.500,-131.000,-177.500,-166.500
2.819,-148.500,-130.000,-176.500,-165.500
2.820,-147.500,-128.500,-175.500,-164.000
2.821,-146.000,-127.000,-173.500,-162.500
2.822,-144.500,-125.000,-171.500,-160.000
2.823,-142.500,-122.500,-169.000,-157.500
2.824,-140.500,-120.000,-165.500,-154.000
2.825,-138.500,-117.000,-162.000,-150.000
2.826,-136.500,-114.000,-158.500,-146.500
2.827,-135.500,-112.000,-156.000,-143.500
2.828,-135.000,-111.500,-155.000,-142.500
2.829,-136.500,-112.500,-156.000,-144.000
2.830,-139.000,-115.000,-158.500,-147.000
2.831,-142.000,-118.500,-163.000,-151.500
2.832,-146.000,-123.000,-168.000,-157.000
2.833,-149.500,-127.500,-173.500,-162.500
2.834,-152.500,-131.500,-177.500,-167.000
2.835,-154.000,-134.000,-181.000,-170.000
2.836,-155.000,-135.000,-183.000,-171.500
2.837,-155.000,-135.500,-183.500,-172.000
2.838,-154.500,-135.000,-183.000,-172.000
2.839,-153.500,-134.000,-182.000,-171.000
2.840,-152.000,-132.500,-180.500,-169.500
2.841,-150.000,-130.500,-178.500,-167.000
2.842,-148.000,-128.000,-175.500,-164.500
2.843,-146.000,-125.500,-172.500,-161.000
2.844,-143.000,-122.000,-168.500,-157.000
2.845,-140.500,-118.500,-164.500,-152.500
2.846,-138.000,-115.000,-160.500,-148.500
2.847,-136.500,-113.000,-158.000,-146.000
2.848,-136.500,-112.500,-157.000,-145.500
2.849,-138.000,-113.500,-158.500,-147.000
2.850,-140.500,-116.500,-162.000,-150.000
2.851,-144.000,-120.500,-166.500,-155.000
2.852,-147.500,-125.000,-172.000,-160.500
2.853,-151.000,-129.500,-177.000,-166.000
2.854,-153.500,-133.000,-181.000,-170.000
2.855,-155.000,-135.000,-184.000,-173.000
2.856,-155.500,-136.000,-185.000,-174.000
2.857,-155.000,-135.500,-185.000,-174.500
2.858,-154.500,-135.000,-184.500,-174.000
2.859,-153.500,-133.500,-183.500,-172.500
2.860,-152.000,-132.000,-181.500,-171.000
2.861,-150.500,-129.500,-179.500,-169.000
2.862,-148.500,-127.500,-177.000,-166.000
2.863,-146.500,-124.500,-174.000,-163.000
2.864,-144.000,-121.500,-170.000,-159.000
2.865,-141.500,-118.500,-166.000,-155.000
2.866,-139.500,-115.500,-162.500,-151.000
2.867,-138.500,-114.000,-160.000,-148.500
2.868,-139.000,-114.000,-160.000,-148.500
2.869,-141.000,-116.000,-161.500,-150.500
2.870,-144.500,-119.500,-165.500,-154.500
2.871,-149.000,-124.500,-171.500,-160.500
2.872,-153.500,-130.000,-177.500,-167.000
2.873,-157.500,-135.500,-183.500,-173.500
2.874,-161.000,-139.500,-188.500,-178.500
2.875,-163.000,-142.500,-192.000,-182.500
2.876,-164.500,-144.000,-194.000,-184.500
2.877,-164.500,-144.500,-195.000,-185.000
2.878,-164.500,-144.500,-194.500,-185.000
2.879,-164.000,-143.500,-194.000,-184.000
2.880,-163.000,-142.500,-193.000,-183.000
2.881,-162.000,-141.500,-191.500,-181.500
2.882,-161.000,-140.000,-190.000,-179.500
2.883,-159.000,-137.500,-187.000,-177.000
2.884,-157.000,-135.000,-184.000,-173.500
2.885,-155.000,-132.000,-180.000,-169.500
2.886,-153.000,-129.000,-176.500,-165.500
2.887,-151.500,-127.000,-173.500,-162.500
2.888,-151.500,-126.000,-172.500,-161.500
2.889,-152.500,-127.000,-173.500,-162.500
2.890,-155.000,-129.500,-176.000,-165.500
2.891,-158.000,-133.000,-180.500,-169.500
2.892,-161.500,-137.000,-185.500,-174.500
2.893,-164.500,-140.500,-190.000,-179.500
2.894,-166.500,-143.500,-194.000,-183.500
2.895,-168.000,-145.500,-196.500,-186.000
2.896,-169.000,-146.500,-198.000,-187.500
2.897,-169.000,-147.500,-199.000,-188.500
2.898,-169.000,-147.500,-199.000,-188.500
2.899,-168.500,-147.000,-198.500,-188.000
2.900,-168.000,-146.000,-197.500,-187.000
2.901,-167.000,-145.000,-196.000,-185.500
2.902,-166.000,-143.000,-193.500,-183.000
2.903,-163.500,-140.500,-191.000,-180.000
2.904,-161.000,-137.000,-187.000,-175.500
2.905,-158.000,-133.000,-182.500,-171.000
2.906,-155.000,-129.500,-178.500,-166.500
2.907,-153.000,-127.000,-175.000,-163.000
2.908,-153.000,-126.000,-174.000,-162.000
2.909,-154.000,-126.500,-175.000,-163.000
2.910,-156.000,-129.500,-178.000,-166.500
2.911,-159.500,-133.500,-182.500,-171.500
2.912,-163.500,-138.000,-188.000,-177.000
2.913,-167.000,-142.500,-193.500,-183.000
2.914,-170.000,-146.500,-197.500,-187.000
2.915,-171.500,-148.500,-200.000,-190.000
2.916,-171.500,-149.000,-201.500,-191.000
2.917,-171.000,-148.500,-201.500,-191.000
2.918,-170.000,-147.500,-200.500,-190.000
2.919,-168.500,-146.500,-199.000,-188.500
2.920,-167.000,-144.500,-197.000,-186.500
2.921,-165.000,-142.500,-195.000,-184.000
2.922,-163.000,-140.500,-192.500,-181.500
2.923,-161.000,-137.500,-189.000,-178.000
2.924,-158.500,-134.500,-185.500,-174.500
2.925,-156.000,-131.500,-181.500,-170.000
2.926,-154.000,-129.000,-178.000,-166.500
2.927,-152.500,-126.500,-175.000,-163.500
2.928,-152.500,-126.000,-174.000,-162.500
2.929,-153.500,-127.000,-175.000,-163.500
2.930,-156.000,-129.000,-177.500,-166.500
2.931,-159.000,-133.000,-182.000,-171.000
2.932,-162.500,-137.500,-187.000,-176.500
2.933,-166.000,-142.500,-192.500,-182.000
2.934,-169.000,-146.000,-197.500,-187.000
2.935,-170.500,-148.500,-200.500,-190.000
2.936,-171.000,-149.500,-202.000,-191.500
2.937,-171.000,-149.500,-202.000,-191.500
2.938,-170.000,-149.000,-201.500,-191.000
2.939,-169.000,-148.000,-200.000,-189.500
2.940,-167.500,-146.000,-198.000,-187.500
2.941,-165.500,-144.000,-195.500,-185.000
2.942,-163.000,-141.500,-192.500,-182.000
2.943,-160.500,-138.500,-189.000,-178.500
2.944,-158.000,-134.500,-184.500,-174.000
2.945,-155.000,-131.000,-180.000,-169.500
2.946,-152.000,-127.500,-176.000,-165.000
2.947,-150.500,-125.000,-173.000,-162.000
2.948,-150.000,-124.500,-172.000,-161.000
2.949,-151.500,-125.500,-173.500,-162.000
2.950,-154.000,-128.500,-176.500,-165.500
2.951,-158.000,-133.000,-181.500,-170.500
2.952,-162.500,-138.000,-187.500,-176.500
2.953,-167.000,-143.500,-193.500,-183.000
2.954,-170.500,-148.000,-198.500,-188.500
2.955,-173.500,-151.500,-202.500,-193.000
2.956,-175.500,-154.000,-206.000,-196.500
2.957,-177.000,-156.000,-208.000,-199.000
2.958,-178.000,-157.000,-209.000,-200.000
2.959,-178.500,-157.500,-209.500,-201.000
2.960,-178.500,-157.500,-209.500,-201.000
2.961,-178.500,-157.500,-209.000,-200.500
2.962,-177.500,-156.500,-208.000,-199.500
2.963,-176.500,-155.000,-206.500,-198.000
2.964,-174.500,-152.500,-204.000,-196.000
2.965,-172.500,-149.500,-200.500,-192.500
2.966,-170.000,-146.000,-197.000,-188.500
2.967,-168.000,-143.500,-193.500,-185.000
2.968,-166.500,-141.500,-191.000,-182.500
2.969,-166.500,-141.000,-190.500,-182.000
2.970,-168.000,-142.500,-192.000,-183.000
2.971,-170.000,-145.000,-195.000,-186.000
2.972,-172.500,-148.500,-199.000,-190.000
2.973,-175.000,-151.500,-202.500,-193.500
2.974,-176.500,-154.000,-205.500,-196.500
2.975,-177.500,-155.500,-207.500,-198.000
2.976,-177.000,-155.500,-207.500,-198.000
2.977,-176.000,-155.000,-206.500,-197.000
2.978,-175.000,-153.500,-205.500,-195.500
2.979,-173.500,-152.000,-204.000,-193.500
2.980,-172.000,-150.000,-202.000,-191.500
2.981,-170.000,-148.000,-199.500,-189.000
2.982,-167.500,-145.500,-197.000,-186.000
2.983,-165.000,-142.500,-193.500,-182.500
2.984,-162.500,-139.000,-189.500,-178.500
2.985,-159.500,-135.500,-185.000,-174.000
2.986,-157.000,-132.000,-180.500,-170.000
2.987,-155.500,-129.500,-177.500,-167.000
2.988,-155.000,-129.000,-176.500,-166.000
2.989,-155.500,-130.000,-177.000,-167.000
2.990,-158.000,-132.500,-180.000,-170.000
2.991,-160.500,-136.000,-184.000,-174.500
2.992,-164.000,-140.000,-189.000,-180.000
2.993,-167.000,-144.500,-194.000,-185.000
2.994,-169.500,-148.000,-198.000,-189.500
2.995,-171.500,-150.500,-201.500,-193.000
2.996,-172.500,-152.000,-203.000,-194.500
2.997,-172.500,-152.500,-204.000,-195.500
2.998,-172.500,-152.500,-204.000,-195.000
2.999,-172.000,-152.000,-203.500,-194.500
3.000,-171.000,-151.000,-202.000,-193.000
3.001,-170.000,-149.500,-200.500,-191.000
3.002,-168.500,-147.500,-198.000,-188.500
3.003,-166.500,-145.000,-195.000,-185.000
3.004,-164.000,-141.500,-191.500,-181.000
3.005,-161.000,-138.000,-187.000,-176.500
3.006,-158.500,-134.500,-183.000,-172.500
3.007,-156.500,-132.000,-180.000,-169.500
3.008,-156.000,-131.000,-178.500,-168.000
3.009,-156.500,-132.000,-179.000,-169.000
3.010,-158.500,-134.000,-181.500,-171.500
3.011,-161.500,-138.000,-186.000,-176.000
3.012,-165.500,-142.500,-191.500,-182.000
3.013,-169.000,-147.000,-196.500,-187.500
3.014,-172.000,-151.000,-201.500,-192.500
3.015,-174.000,-153.500,-204.500,-195.500
3.016,-175.000,-155.000,-206.000,-197.000
3.017,-174.500,-155.000,-206.500,-197.500
3.018,-174.000,-154.000,-206.000,-196.500
3.019,-173.000,-153.000,-205.000,-195.500
3.020,-171.500,-151.500,-203.500,-194.000
3.021,-170.000,-150.500,-201.500,-192.000
3.022,-168.500,-148.500,-199.500,-190.000
3.023,-167.000,-146.500,-197.000,-187.000
3.024,-165.000,-143.500,-193.500,-183.500
3.025,-163.000,-140.500,-190.000,-180.000
3.026,-161.500,-138.000,-187.000,-176.500
3.027,-160.500,-136.500,-185.000,-174.500
3.028,-160.500,-136.500,-184.500,-174.000
3.029,-162.500,-137.500,-186.000,-175.500
3.030,-165.000,-141.000,-189.500,-179.000
3.031,-169.000,-145.500,-194.500,-184.500
3.032,-173.500,-150.500,-200.500,-190.500
3.033,-177.500,-156.000,-206.500,-197.000
3.034,-181.000,-160.000,-211.500,-202.000
3.035,-183.500,-163.500,-215.500,-206.000
3.036,-185.000,-165.000,-217.500,-208.000
3.037,-185.000,-166.000,-218.500,-208.500
3.038,-185.000,-165.500,-218.500,-208.500
3.039,-184.500,-165.000,-217.500,-207.500
3.040,-183.500,-164.000,-216.000,-206.500
3.041,-182.500,-163.000,-214.500,-205.000
3.042,-181.500,-161.500,-212.500,-203.000
3.043,-180.000,-159.500,-210.500,-200.500
3.044,-178.000,-156.500,-207.000,-197.000
3.045,-176.000,-153.500,-203.500,-193.500
3.046,-174.000,-150.500,-200.500,-190.000
3.047,-173.000,-148.500,-198.000,-187.500
3.048,-173.000,-148.000,-197.000,-186.500
3.049,-174.000,-149.000,-198.500,-187.500
3.050,-176.500,-152.000,-201.500,-190.500
3.051,-180.000,-155.500,-206.000,-195.000
3.052,-183.500,-160.000,-211.000,-200.500
3.053,-186.500,-164.000,-216.000,-205.500
3.054,-189.000,-167.500,-219.500,-209.500
3.055,-190.500,-169.500,-222.000,-212.000
3.056,-190.500,-170.500,-223.000,-213.500
3.057,-190.000,-170.000,-223.000,-213.000
3.058,-189.000,-169.000,-222.000,-212.000
3.059,-188.000,-167.500,-220.500,-210.500
3.060,-186.500,-165.500,-218.500,-208.500
3.061,-184.500,-163.500,-216.000,-206.500
3.062,-182.500,-161.000,-213.000,-203.500
3.063,-180.000,-158.500,-210.000,-200.000
3.064,-177.500,-155.000,-206.000,-196.000
3.065,-174.500,-151.500,-202.000,-191.500
3.066,-172.000,-148.000,-198.000,-187.000
3.067,-170.500,-145.500,-195.000,-184.000
3.068,-170.500,-144.500,-194.000,-183.000
3.069,-171.500,-145.500,-195.000,-184.000
3.070,-174.000,-148.000,-198.000,-187.000
3.071,-177.000,-152.000,-202.000,-191.500
3.072,-181.000,-156.500,-207.000,-197.000
3.073,-184.500,-161.000,-212.500,-202.500
3.074,-187.500,-164.500,-216.500,-207.000
3.075,-189.500,-167.000,-219.500,-210.500
3.076,-190.000,-168.500,-221.000,-212.000
3.077,-190.000,-168.500,-221.500,-212.500
3.078,-189.500,-168.000,-221.000,-212.000
3.079,-188.500,-167.000,-220.000,-211.000
3.080,-187.500,-166.000,-218.500,-209.500
3.081,-185.500,-164.000,-216.500,-207.500
3.082,-184.000,-161.500,-214.000,-204.500
3.083,-181.500,-159.000,-210.500,-201.500
3.084,-179.000,-155.500,-206.500,-197.500
3.085,-176.500,-152.000,-202.500,-193.000
3.086,-174.000,-149.000,-198.500,-189.000
3.087,-172.500,-147.000,-196.000,-186.000
3.088,-172.500,-146.000,-195.000,-185.000
3.089,-173.500,-147.000,-196.000,-186.000
3.090,-176.500,-150.000,-199.500,-189.500
3.091,-180.000,-154.500,-204.000,-194.500
3.092,-183.500,-159.500,-209.500,-200.500
3.093,-187.500,-164.000,-215.500,-206.500
3.094,-190.000,-168.000,-219.500,-211.000
3.095,-191.500,-170.000,-222.500,-214.000
3.096,-192.000,-171.000,-223.500,-215.000
3.097,-191.500,-170.500,-223.500,-215.000
3.098,-191.000,-170.000,-223.000,-214.500
3.099,-189.500,-168.500,-221.500,-213.000
3.100,-188.000,-167.000,-220.000,-211.500
3.101,-186.500,-165.500,-218.000,-209.500
3.102,-184.500,-163.000,-215.500,-207.000
3.103,-183.000,-161.000,-213.000,-204.000
