'Elapsed time','AECG1','AECG2','AECG3','AECG4'
'seconds','uV','uV','uV','uV'
0.000,17.000,24.000,0.500,35.000
0.001,17.500,24.000,0.500,35.000
0.002,17.500,23.500,-0.500,34.500
0.003,18.000,23.000,-1.500,33.500
0.004,18.500,22.500,-3.000,32.500
0.005,19.500,22.500,-3.500,31.500
0.006,20.000,22.500,-4.000,31.500
0.007,20.000,22.500,-4.000,31.500
0.008,20.500,22.500,-4.000,31.000
0.009,21.000,22.500,-3.500,31.500
0.010,21.000,22.500,-3.000,31.500
0.011,21.000,22.500,-2.500,32.000
0.012,20.500,23.000,-1.500,32.500
0.013,20.000,23.500,-0.500,33.000
0.014,20.000,23.500,0.000,34.000
0.015,20.000,24.000,0.500,34.500
0.016,20.000,24.000,0.500,34.500
0.017,20.500,24.000,0.000,34.500
0.018,20.500,23.500,0.000,34.000
0.019,20.500,23.500,0.000,34.000
0.020,20.000,24.000,0.000,34.000
0.021,20.000,24.000,0.500,34.000
0.022,19.500,24.500,0.500,34.500
0.023,19.500,25.000,1.500,35.000
0.024,19.500,25.500,2.500,36.000
0.025,19.500,25.500,3.000,36.500
0.026,19.500,25.500,3.000,36.500
0.027,20.000,25.500,3.000,37.000
0.028,20.000,25.000,2.500,36.500
0.029,20.000,25.000,2.500,36.500
0.030,20.000,25.000,2.500,36.500
0.031,20.000,25.000,2.500,36.000
0.032,20.000,25.000,2.500,36.000
0.033,20.500,24.500,2.500,36.000
0.034,20.500,24.500,2.500,35.500
0.035,20.500,24.500,2.000,35.500
0.036,20.500,24.500,1.500,35.000
0.037,20.500,24.000,1.000,34.000
0.038,20.500,24.000,0.000,33.500
0.039,20.500,24.000,-0.500,33.000
0.040,20.000,23.500,-1.000,32.500
0.041,19.500,23.000,-1.500,32.000
0.042,19.000,22.500,-2.000,32.000
0.043,19.000,22.000,-2.000,31.500
0.044,18.500,22.000,-2.500,31.500
0.045,18.000,21.500,-2.500,31.500
0.046,18.000,21.500,-2.500,32.000
0.047,17.500,22.000,-2.000,32.500
0.048,17.500,22.000,-1.500,33.000
0.049,17.500,22.000,-1.000,34.000
0.050,18.000,22.500,0.000,35.000
0.051,18.000,22.500,1.000,35.500
0.052,18.500,23.000,1.500,36.500
0.053,18.500,23.500,2.000,37.000
0.054,19.000,24.000,2.500,38.000
0.055,19.500,24.500,3.000,38.500
0.056,19.500,25.000,4.000,39.500
0.057,19.500,26.000,5.000,41.000
0.058,19.500,26.500,7.000,42.500
0.059,19.000,27.000,8.500,44.500
0.060,19.000,28.000,10.000,46.000
0.061,19.000,28.500,11.500,48.000
0.062,19.000,29.000,12.500,49.500
0.063,19.500,30.000,14.000,51.000
0.064,20.500,31.000,15.500,52.500
0.065,21.500,32.500,17.000,54.500
0.066,23.000,34.000,18.500,56.000
0.067,24.500,35.500,20.000,57.500
0.068,26.500,37.000,21.000,59.500
0.069,28.000,38.500,22.500,61.000
0.070,29.500,39.500,24.000,62.500
0.071,30.500,41.000,25.500,64.500
0.072,31.500,42.000,26.500,66.000
0.073,32.500,43.000,28.000,67.500
0.074,33.500,44.000,29.000,68.500
0.075,35.000,45.000,30.000,69.000
0.076,36.000,46.000,31.000,70.000
0.077,37.000,47.500,32.000,70.500
0.078,38.000,48.500,33.000,71.000
0.079,39.000,49.000,33.500,71.000
0.080,40.000,50.000,33.500,70.500
0.081,41.000,51.000,34.000,70.500
0.082,42.500,52.500,34.500,70.500
0.083,44.000,53.500,35.500,70.500
0.084,45.000,54.500,36.000,70.500
0.085,46.500,55.000,36.500,70.000
0.086,47.500,55.500,36.000,69.000
0.087,48.500,55.000,35.500,68.000
0.088,49.000,54.500,34.500,67.000
0.089,49.500,54.000,33.500,65.500
0.090,49.500,53.500,33.000,64.500
0.091,49.500,53.000,32.000,63.000
0.092,49.000,52.500,31.000,61.500
0.093,48.500,51.500,29.500,60.000
0.094,48.000,50.500,28.000,58.000
0.095,47.000,49.500,26.500,56.500
0.096,46.000,49.000,25.500,55.500
0.097,45.000,48.000,24.500,55.000
0.098,43.500,47.500,24.000,54.500
0.099,42.500,46.500,23.500,54.000
0.100,41.500,45.500,23.000,53.500
0.101,40.500,44.500,22.000,53.000
0.102,39.500,43.500,21.000,52.000
0.103,39.000,42.000,20.000,50.500
0.104,38.000,41.000,18.500,49.000
0.105,37.000,39.500,17.000,48.000
0.106,36.000,38.000,16.000,46.500
0.107,35.000,37.000,15.000,46.000
0.108,34.500,36.000,14.000,45.000
0.109,33.500,35.500,13.500,45.000
0.110,33.000,35.000,13.000,44.500
0.111,32.500,34.000,12.000,43.500
0.112,32.000,33.500,11.000,42.500
0.113,31.500,33.000,10.500,42.000
0.114,31.000,32.500,10.500,42.000
0.115,31.000,32.500,11.000,42.000
0.116,30.500,32.500,11.500,42.000
0.117,30.500,32.500,12.000,42.500
0.118,30.000,32.500,12.000,42.500
0.119,30.000,32.500,12.000,42.500
0.120,29.500,33.000,13.000,43.000
0.121,29.500,33.500,13.500,44.000
0.122,29.500,34.000,14.500,44.500
0.123,29.500,34.000,14.500,45.000
0.124,29.500,34.000,14.500,44.500
0.125,30.000,33.500,13.500,44.000
0.126,30.500,33.000,12.000,42.500
0.127,31.000,32.500,11.000,41.500
0.128,31.500,32.000,9.500,40.500
0.129,32.000,32.000,9.500,40.000
0.130,32.500,32.000,9.500,40.000
0.131,32.500,32.000,10.000,40.500
0.132,32.000,32.500,10.500,41.000
0.133,32.000,32.500,11.000,41.500
0.134,32.000,33.000,11.500,42.000
0.135,31.500,33.000,12.500,43.000
0.136,31.500,33.500,14.000,44.000
0.137,31.500,34.500,15.000,45.000
0.138,31.500,35.000,15.500,45.500
0.139,32.000,35.500,16.500,45.500
0.140,31.500,35.500,16.500,45.500
0.141,31.500,36.000,17.000,46.000
0.142,31.500,36.000,17.000,46.000
0.143,31.000,35.500,16.500,45.500
0.144,31.000,35.000,16.000,45.000
0.145,31.000,35.000,15.500,44.500
0.146,31.000,34.500,14.500,43.500
0.147,31.500,34.000,13.500,42.500
0.148,32.000,33.500,12.500,42.000
0.149,32.500,33.000,12.000,41.000
0.150,33.000,33.000,11.500,40.500
0.151,33.000,32.500,11.000,40.000
0.152,33.500,32.500,11.000,40.000
0.153,33.500,33.000,11.500,40.000
0.154,33.500,33.000,11.500,40.500
0.155,33.500,33.500,12.000,40.500
0.156,34.000,34.000,12.500,40.500
0.157,34.000,34.000,13.000,41.000
0.158,33.500,34.500,13.000,41.000
0.159,33.500,34.500,13.500,41.500
0.160,33.000,34.500,14.000,42.000
0.161,32.500,34.500,14.000,42.500
0.162,32.000,34.500,14.000,43.000
0.163,31.500,34.500,14.500,43.000
0.164,31.500,34.500,15.000,43.500
0.165,31.000,34.500,15.500,44.000
0.166,31.000,34.500,15.500,44.000
0.167,31.500,35.000,15.500,43.500
0.168,32.000,35.000,15.500,43.500
0.169,32.500,35.500,15.500,43.500
0.170,33.000,36.000,16.000,44.000
0.171,33.000,36.000,16.500,44.500
0.172,33.000,36.500,17.000,45.000
0.173,33.000,36.500,17.500,45.500
0.174,33.000,36.500,18.000,45.500
0.175,33.000,36.500,18.000,46.000
0.176,33.000,37.000,18.500,46.500
0.177,33.000,37.000,19.000,46.500
0.178,33.000,37.500,19.500,47.000
0.179,32.500,37.500,20.000,47.000
0.180,32.500,37.500,20.000,47.000
0.181,32.500,37.500,20.000,47.000
0.182,33.000,37.500,19.500,46.500
0.183,33.500,37.500,19.000,46.500
0.184,34.000,37.500,18.000,46.000
0.185,34.000,37.000,17.500,45.500
0.186,34.500,37.000,16.500,45.000
0.187,34.500,36.500,16.000,44.500
0.188,34.500,36.500,16.000,44.000
0.189,35.000,36.500,16.000,44.000
0.190,35.000,37.000,16.000,44.000
0.191,35.500,37.000,16.000,44.000
0.192,36.000,37.500,16.000,44.000
0.193,36.000,37.500,16.500,44.000
0.194,35.500,37.500,16.500,44.000
0.195,35.500,37.500,17.000,44.500
0.196,35.000,37.500,17.500,44.500
0.197,35.000,37.500,18.500,45.000
0.198,35.000,38.000,19.000,46.000
0.199,34.500,38.000,20.000,46.500
0.200,34.500,38.500,20.500,47.000
0.201,34.500,39.000,21.000,47.500
0.202,35.000,39.000,21.000,47.500
0.203,35.000,39.500,21.500,48.000
0.204,35.000,40.000,21.500,48.000
0.205,35.000,40.500,22.000,48.500
0.206,35.500,40.500,22.500,49.000
0.207,35.500,40.500,22.500,49.000
0.208,36.000,41.000,23.000,49.500
0.209,36.500,41.000,23.000,49.500
0.210,36.500,41.000,23.000,49.500
0.211,37.000,41.000,23.000,49.500
0.212,37.000,41.000,23.000,49.500
0.213,37.000,41.000,23.000,49.000
0.214,37.000,41.000,23.000,49.000
0.215,37.000,41.000,23.000,49.000
0.216,37.000,41.500,22.500,48.500
0.217,37.000,41.000,22.000,48.000
0.218,36.500,41.000,21.000,47.500
0.219,36.500,40.500,20.500,46.500
0.220,36.500,40.000,20.000,46.500
0.221,36.000,40.000,20.000,46.500
0.222,36.000,40.000,20.000,47.000
0.223,36.500,39.500,20.000,47.000
0.224,36.500,39.500,19.500,46.500
0.225,36.500,39.000,19.500,46.500
0.226,37.000,39.000,19.500,46.500
0.227,37.000,39.500,19.500,47.000
0.228,37.500,40.000,20.000,47.500
0.229,37.500,41.000,20.500,48.000
0.230,38.000,41.500,21.000,48.500
0.231,38.000,41.500,21.500,49.000
0.232,38.000,42.000,22.000,49.500
0.233,38.500,42.500,23.000,50.000
0.234,38.500,42.500,23.500,50.500
0.235,39.000,43.000,23.500,51.000
0.236,39.000,43.500,24.000,51.000
0.237,39.000,44.000,24.000,51.000
0.238,39.000,44.000,24.000,51.500
0.239,39.000,44.500,24.500,51.500
0.240,39.000,44.500,25.000,52.000
0.241,38.500,44.500,25.000,52.500
0.242,38.500,45.000,25.500,52.500
0.243,38.500,45.000,25.500,53.000
0.244,38.500,45.000,25.500,53.000
0.245,38.500,45.000,26.000,53.000
0.246,38.500,45.000,26.000,53.000
0.247,39.000,45.000,26.500,53.500
0.248,39.000,45.000,26.500,53.500
0.249,39.500,45.000,26.500,54.000
0.250,40.000,45.500,26.500,54.000
0.251,40.500,45.500,26.000,53.500
0.252,41.000,45.500,25.000,53.000
0.253,41.500,45.500,24.500,52.500
0.254,42.000,45.000,23.500,51.500
0.255,42.000,45.000,23.500,51.000
0.256,42.000,44.500,23.000,51.000
0.257,42.000,45.000,23.500,51.000
0.258,41.500,45.000,23.500,51.500
0.259,41.500,45.000,24.000,52.000
0.260,41.000,45.500,25.000,53.000
0.261,41.000,45.500,25.000,53.000
0.262,41.000,45.500,25.500,53.000
0.263,41.500,45.500,25.000,53.000
0.264,41.500,45.500,25.000,53.000
0.265,42.000,45.500,24.500,52.500
0.266,42.000,45.500,24.500,52.500
0.267,42.500,45.500,24.500,52.500
0.268,43.000,46.000,25.000,53.000
0.269,43.000,46.000,25.500,53.500
0.270,43.000,46.500,26.000,53.500
0.271,43.000,46.500,26.500,54.000
0.272,43.000,47.000,27.000,54.500
0.273,42.500,47.000,27.500,55.000
0.274,42.500,47.500,28.000,55.500
0.275,42.500,48.000,29.000,56.000
0.276,42.500,48.000,29.500,56.500
0.277,42.000,48.500,30.500,57.000
0.278,42.000,49.000,31.000,57.500
0.279,42.000,49.000,31.500,58.000
0.280,42.000,49.500,32.000,58.000
0.281,42.000,49.500,32.000,58.000
0.282,42.000,49.500,31.500,58.000
0.283,42.000,49.500,31.500,58.000
0.284,42.000,49.500,30.500,57.500
0.285,42.500,49.500,30.000,57.000
0.286,42.500,49.000,29.000,56.500
0.287,42.500,49.000,28.500,56.000
0.288,43.000,49.000,28.500,56.000
0.289,43.000,49.000,29.000,56.000
0.290,43.000,49.000,29.000,56.000
0.291,43.000,49.000,29.000,56.500
0.292,42.500,49.000,29.500,56.500
0.293,42.000,48.500,29.000,56.000
0.294,42.000,48.500,29.000,56.000
0.295,42.000,48.500,28.500,55.500
0.296,42.500,48.500,28.000,55.000
0.297,42.500,48.000,27.000,55.000
0.298,42.500,48.000,27.000,54.500
0.299,42.000,48.000,27.000,55.000
0.300,42.000,48.000,27.500,55.500
0.301,41.500,48.000,28.000,55.500
0.302,41.500,48.000,28.500,56.000
0.303,41.000,48.000,28.500,56.500
0.304,41.000,48.500,29.000,56.500
0.305,41.000,48.500,29.500,57.000
0.306,41.000,48.000,30.000,57.500
0.307,41.000,48.000,30.000,57.500
0.308,41.500,48.500,30.500,58.000
0.309,41.500,48.500,31.000,58.500
0.310,42.000,49.000,31.000,58.500
0.311,42.000,49.000,31.000,58.000
0.312,42.500,49.000,30.500,57.500
0.313,42.500,49.000,30.000,57.500
0.314,42.000,49.000,30.500,57.500
0.315,42.000,49.000,31.000,58.000
0.316,41.500,49.500,31.500,58.500
0.317,41.000,50.000,32.500,59.500
0.318,41.000,50.000,33.000,60.000
0.319,40.500,50.000,33.000,60.000
0.320,40.500,50.000,32.500,60.000
0.321,40.500,50.000,32.000,59.500
0.322,40.500,49.500,31.000,58.500
0.323,41.000,49.000,30.000,57.500
0.324,41.000,48.500,28.500,56.500
0.325,41.500,48.000,27.500,55.500
0.326,41.500,47.500,27.000,55.000
0.327,42.000,47.500,27.000,55.000
0.328,42.000,47.000,27.000,55.500
0.329,42.000,47.500,27.500,55.500
0.330,42.000,47.500,27.500,56.000
0.331,42.000,48.000,28.500,56.500
0.332,42.000,48.500,29.000,57.500
0.333,42.000,49.000,30.000,58.500
0.334,42.000,49.500,31.000,59.500
0.335,41.500,50.000,32.000,60.000
0.336,41.500,50.500,32.500,60.500
0.337,41.000,50.500,32.500,61.000
0.338,41.000,50.500,33.000,61.000
0.339,41.000,51.000,33.000,61.000
0.340,41.000,50.500,33.000,61.500
0.341,41.000,50.500,33.000,61.500
0.342,40.500,50.500,33.000,61.500
0.343,40.500,50.500,32.500,61.500
0.344,41.000,50.000,32.000,61.000
0.345,41.000,49.500,31.000,60.000
0.346,41.000,49.000,30.500,59.000
0.347,41.500,49.000,30.000,58.500
0.348,41.500,49.000,30.500,58.000
0.349,42.000,49.000,31.000,58.000
0.350,42.000,49.000,31.000,58.000
0.351,42.000,49.000,31.000,58.000
0.352,42.000,48.500,30.500,57.500
0.353,42.000,48.500,29.500,57.000
0.354,42.000,48.000,29.000,56.500
0.355,41.500,48.500,29.000,57.000
0.356,41.000,48.500,29.500,57.000
0.357,40.500,48.500,30.500,57.500
0.358,40.500,49.000,30.500,57.500
0.359,40.500,49.000,31.000,57.500
0.360,40.500,49.000,30.500,57.500
0.361,40.500,49.000,30.000,57.500
0.362,41.000,49.000,29.500,57.000
0.363,41.000,49.000,28.500,56.000
0.364,41.500,48.500,27.500,55.500
0.365,42.000,48.000,26.000,54.000
0.366,42.000,47.500,25.000,53.000
0.367,42.000,47.500,24.000,52.000
0.368,42.000,47.000,23.500,51.500
0.369,42.000,47.000,24.000,51.500
0.370,42.000,47.500,24.000,51.500
0.371,42.000,47.500,25.000,52.000
0.372,42.000,48.000,25.500,52.000
0.373,42.000,48.500,26.000,52.500
0.374,41.500,48.500,26.500,52.500
0.375,41.500,49.000,26.500,53.000
0.376,41.500,49.500,27.000,53.000
0.377,41.500,49.500,27.000,53.000
0.378,41.000,49.500,27.000,53.000
0.379,41.000,49.500,27.000,53.000
0.380,40.500,49.500,27.500,53.000
0.381,40.000,49.000,27.500,53.000
0.382,39.500,49.000,28.000,53.500
0.383,39.000,49.000,28.000,53.500
0.384,39.000,49.000,28.000,53.500
0.385,39.500,49.000,28.000,53.500
0.386,39.500,49.500,28.000,54.000
0.387,40.000,49.500,28.000,54.000
0.388,40.000,50.000,28.000,54.000
0.389,40.000,50.000,28.000,54.000
0.390,40.000,49.500,27.500,54.000
0.391,40.000,49.500,27.500,53.500
0.392,40.000,49.000,26.500,52.500
0.393,40.000,48.500,26.000,52.000
0.394,40.000,48.500,25.000,51.500
0.395,40.500,48.500,25.000,51.500
0.396,40.500,48.500,25.000,52.000
0.397,40.000,49.000,26.000,52.500
0.398,40.000,49.500,26.500,53.000
0.399,40.000,50.000,27.000,53.500
0.400,39.500,50.000,26.500,53.000
0.401,39.500,50.000,25.500,52.000
0.402,40.000,49.500,24.500,51.000
0.403,40.000,49.500,23.500,50.000
0.404,40.000,49.000,22.500,49.000
0.405,40.000,48.500,21.500,48.500
0.406,40.000,48.500,21.000,48.000
0.407,40.000,48.000,21.000,48.000
0.408,40.000,48.500,21.500,48.000
0.409,40.000,48.500,21.500,48.500
0.410,40.000,48.500,22.000,48.500
0.411,40.000,48.500,22.500,49.000
0.412,39.500,48.500,23.000,49.500
0.413,39.500,48.500,24.000,50.000
0.414,39.500,49.000,24.500,50.500
0.415,40.000,49.500,25.000,50.500
0.416,40.000,49.500,25.000,50.500
0.417,40.000,49.500,25.000,50.500
0.418,40.000,49.500,24.500,50.000
0.419,40.000,49.000,24.000,49.500
0.420,39.500,49.000,24.000,49.500
0.421,39.500,49.500,24.000,50.000
0.422,39.000,50.000,25.000,51.000
0.423,39.000,50.000,25.500,51.500
0.424,39.000,50.500,26.000,52.000
0.425,39.000,50.500,26.000,52.000
0.426,39.000,50.500,25.500,51.000
0.427,39.500,50.000,24.500,50.500
0.428,39.500,49.000,23.500,49.500
0.429,39.500,48.500,22.500,49.000
0.430,39.000,48.000,22.000,48.500
0.431,39.000,47.500,21.500,48.000
0.432,38.500,47.000,21.500,48.000
0.433,38.000,46.500,22.000,48.000
0.434,37.500,46.500,21.500,47.500
0.435,37.000,46.000,21.000,47.000
0.436,36.500,45.500,20.000,46.000
0.437,36.500,45.000,19.000,45.500
0.438,36.000,45.000,18.500,45.000
0.439,35.500,44.500,18.000,45.000
0.440,35.000,44.500,18.000,44.500
0.441,35.000,44.000,17.500,44.500
0.442,35.000,44.000,17.000,44.000
0.443,35.500,44.500,17.000,43.500
0.444,36.000,44.500,17.000,43.500
0.445,36.500,45.500,17.500,43.500
0.446,37.000,46.000,18.500,44.500
0.447,37.500,47.000,19.500,45.000
0.448,38.000,48.000,21.000,46.000
0.449,38.500,48.500,22.000,47.000
0.450,38.500,49.000,23.000,47.500
0.451,38.500,49.500,23.500,48.000
0.452,38.500,49.500,24.000,48.000
0.453,38.500,49.500,24.500,48.000
0.454,38.500,49.500,24.500,48.000
0.455,38.500,49.500,24.500,48.500
0.456,38.000,49.500,25.000,49.000
0.457,38.000,49.500,25.000,49.000
0.458,37.500,49.500,25.000,49.500
0.459,37.500,49.500,25.000,49.000
0.460,37.500,49.000,25.000,49.000
0.461,37.000,49.000,24.000,48.500
0.462,37.000,49.000,23.500,48.000
0.463,37.000,48.500,23.000,47.500
0.464,37.000,48.500,22.500,47.500
0.465,36.500,48.500,22.500,47.500
0.466,36.500,48.500,22.500,47.500
0.467,37.000,48.500,22.000,47.000
0.468,37.500,48.500,22.000,47.000
0.469,37.500,48.000,22.000,46.500
0.470,38.000,48.000,21.500,46.000
0.471,38.500,47.500,20.500,45.500
0.472,38.500,47.000,20.000,44.500
0.473,38.500,46.500,19.000,44.000
0.474,38.500,46.000,18.500,43.000
0.475,38.000,45.500,18.000,43.000
0.476,37.500,45.500,18.500,43.500
0.477,37.000,46.000,19.000,44.000
0.478,36.500,46.000,20.000,44.500
0.479,36.000,46.000,20.500,45.000
0.480,35.500,46.000,20.500,45.500
0.481,35.000,46.000,20.500,45.500
0.482,35.000,46.000,20.000,45.500
0.483,34.500,45.500,19.500,45.000
0.484,34.500,45.500,19.000,44.500
0.485,34.500,45.500,19.000,44.500
0.486,34.500,45.500,19.000,44.500
0.487,34.500,46.000,19.500,44.500
0.488,35.000,46.000,19.500,44.500
0.489,35.000,45.500,19.500,44.000
0.490,35.000,45.500,19.500,44.000
0.491,34.500,45.500,19.000,43.500
0.492,34.500,45.000,19.000,43.500
0.493,34.000,45.000,19.000,43.000
0.494,34.000,44.500,18.500,43.000
0.495,33.500,44.500,19.000,43.000
0.496,33.500,44.500,19.000,42.500
0.497,33.500,44.500,19.000,42.500
0.498,33.500,45.000,19.000,42.000
0.499,33.500,45.000,18.500,42.000
0.500,33.500,45.000,18.000,41.500
0.501,33.500,45.000,18.000,41.000
0.502,33.500,44.500,17.500,40.500
0.503,33.500,44.500,17.000,40.500
0.504,33.500,44.000,16.500,40.000
0.505,33.500,44.000,16.000,39.500
0.506,33.500,43.500,15.500,39.000
0.507,33.500,43.500,15.000,39.000
0.508,33.500,44.000,15.500,39.500
0.509,33.500,44.000,16.000,40.500
0.510,33.000,44.000,16.500,41.000
0.511,33.000,44.000,17.000,41.000
0.512,33.000,44.000,17.000,41.000
0.513,33.000,44.000,17.000,40.500
0.514,33.000,44.000,17.000,40.500
0.515,33.000,44.500,17.500,41.000
0.516,33.000,45.000,18.000,41.500
0.517,32.500,45.000,18.500,41.500
0.518,32.000,45.000,18.500,42.000
0.519,31.500,44.500,18.000,41.500
0.520,31.000,44.000,17.500,41.000
0.521,30.500,44.000,17.500,41.000
0.522,30.500,44.000,17.500,41.500
0.523,30.000,44.500,18.000,41.500
0.524,30.000,44.500,18.000,41.500
0.525,30.000,44.500,17.500,41.000
0.526,30.500,44.000,16.500,40.500
0.527,30.500,43.500,15.000,39.000
0.528,31.000,43.000,13.000,37.500
0.529,31.000,42.000,11.500,36.000
0.530,31.500,41.000,10.000,34.500
0.531,31.500,40.500,9.000,34.000
0.532,32.000,40.500,9.000,33.500
0.533,31.500,40.500,9.500,34.000
0.534,31.500,40.500,10.500,34.500
0.535,31.000,41.000,11.500,35.500
0.536,31.000,41.500,12.500,36.000
0.537,30.500,41.500,13.000,36.500
0.538,30.500,42.000,14.000,37.500
0.539,30.500,43.000,15.000,38.000
0.540,30.000,43.500,16.000,38.500
0.541,29.500,44.000,16.500,39.000
0.542,29.500,44.000,16.500,39.500
0.543,29.500,44.000,16.500,39.500
0.544,29.000,44.000,16.000,39.000
0.545,29.000,43.500,15.000,38.000
0.546,29.500,42.500,14.000,37.000
0.547,29.500,42.000,13.000,36.500
0.548,29.500,41.500,12.000,35.500
0.549,29.500,41.500,12.000,35.500
0.550,29.500,41.500,12.000,35.500
0.551,29.500,41.500,12.500,36.000
0.552,29.500,41.500,12.500,36.000
0.553,29.500,41.500,12.500,36.000
0.554,29.500,41.000,12.000,35.500
0.555,29.500,40.500,11.500,35.000
0.556,29.500,40.500,11.500,35.000
0.557,29.000,40.500,11.500,35.000
0.558,29.000,41.000,12.500,36.000
0.559,28.000,41.500,13.000,37.000
0.560,27.500,42.000,14.000,37.500
0.561,27.500,42.000,14.500,38.000
0.562,27.000,42.000,14.000,38.000
0.563,27.500,41.500,13.500,38.000
0.564,27.500,41.500,13.000,37.500
0.565,28.000,41.000,12.500,37.000
0.566,28.000,41.000,12.000,37.000
0.567,28.000,41.000,12.000,37.000
0.568,28.500,41.000,12.500,37.000
0.569,28.500,41.000,12.500,37.000
0.570,28.500,41.000,12.500,37.000
0.571,28.500,41.000,12.000,36.500
0.572,28.500,40.500,11.500,36.500
0.573,29.000,41.000,11.500,36.000
0.574,29.000,41.000,11.500,36.000
0.575,28.500,41.000,12.000,36.500
0.576,28.500,41.500,13.000,37.500
0.577,28.000,41.500,13.000,37.500
0.578,27.500,41.500,13.000,37.500
0.579,27.500,41.500,12.000,37.000
0.580,27.500,41.000,11.500,36.500
0.581,27.000,40.500,11.000,36.000
0.582,27.000,40.500,10.500,35.500
0.583,27.000,40.500,10.500,35.500
0.584,27.000,41.000,11.000,36.000
0.585,27.000,41.000,11.500,36.500
0.586,27.000,41.000,12.000,36.500
0.587,27.000,41.000,12.000,36.500
0.588,27.000,41.000,11.500,36.500
0.589,27.000,40.500,11.500,36.000
0.590,27.000,40.500,11.000,36.000
0.591,27.000,40.000,10.000,35.500
0.592,27.500,40.000,9.500,35.000
0.593,27.500,40.000,9.000,35.000
0.594,27.000,39.500,8.500,35.000
0.595,27.000,39.500,8.500,35.000
0.596,26.500,39.500,9.000,35.000
0.597,26.500,40.000,9.000,35.500
0.598,26.000,40.000,9.500,35.500
0.599,26.000,40.000,9.500,36.000
0.600,25.500,40.000,10.000,36.500
0.601,25.000,40.000,10.500,36.500
0.602,24.500,40.000,11.000,37.000
0.603,24.500,40.500,11.500,37.500
0.604,24.500,40.500,11.500,37.500
0.605,24.500,40.500,11.500,37.500
0.606,25.000,40.500,11.500,37.500
0.607,25.000,40.000,11.000,37.000
0.608,25.000,39.500,11.000,36.500
0.609,25.000,39.500,10.500,36.500
0.610,25.500,39.000,10.000,36.000
0.611,25.500,38.500,9.500,35.500
0.612,26.000,38.500,9.000,34.500
0.613,26.500,38.000,8.000,34.000
0.614,26.500,38.000,7.000,33.500
0.615,27.000,38.000,6.500,33.000
0.616,26.500,37.500,6.000,32.500
0.617,26.500,37.000,5.500,32.000
0.618,26.000,37.000,5.500,31.500
0.619,26.000,37.000,5.500,31.500
0.620,26.000,37.000,6.500,32.500
0.621,25.500,38.000,8.000,33.500
0.622,25.500,38.500,9.000,34.000
0.623,25.500,38.500,9.500,34.500
0.624,25.500,39.000,9.500,35.000
0.625,26.000,38.500,9.000,35.000
0.626,26.000,38.500,8.500,34.500
0.627,26.000,38.500,8.000,34.500
0.628,26.000,38.000,8.000,34.000
0.629,26.500,38.000,7.500,34.000
0.630,26.500,37.500,7.500,33.500
0.631,26.500,37.500,7.500,33.500
0.632,26.500,37.500,7.500,34.000
0.633,26.500,38.000,8.000,34.000
0.634,26.500,38.500,9.000,34.500
0.635,26.000,38.500,9.500,35.000
0.636,26.000,39.000,10.500,36.000
0.637,26.000,39.500,11.000,36.500
0.638,26.000,39.500,11.500,36.500
0.639,25.500,40.000,11.500,36.500
0.640,25.000,39.500,11.500,37.000
0.641,24.500,39.500,11.500,37.000
0.642,24.500,39.500,11.500,37.000
0.643,24.500,39.500,11.500,37.000
0.644,24.500,39.500,11.000,36.500
0.645,24.500,39.000,10.500,36.000
0.646,25.000,38.500,9.000,35.000
0.647,25.500,38.000,7.500,33.500
0.648,26.000,37.500,6.000,32.500
0.649,26.500,37.000,5.500,32.000
0.650,26.500,37.000,5.000,31.500
0.651,26.500,37.000,4.500,31.500
0.652,26.500,36.500,4.500,31.500
0.653,26.500,36.500,4.500,31.500
0.654,26.000,36.500,5.500,32.000
0.655,25.500,37.000,6.500,32.500
0.656,25.000,37.000,7.500,33.500
0.657,24.000,37.500,8.500,34.500
0.658,23.500,37.500,9.000,35.000
0.659,23.000,37.500,9.000,35.000
0.660,22.500,37.000,8.500,35.000
0.661,22.000,37.000,8.500,34.500
0.662,22.000,37.000,8.500,34.500
0.663,22.500,37.000,8.500,34.500
0.664,22.500,37.000,8.500,34.500
0.665,22.500,37.000,8.500,34.500
0.666,22.500,37.000,8.000,34.000
0.667,22.500,37.000,7.500,34.000
0.668,22.500,36.500,7.000,33.500
0.669,22.500,36.000,6.500,33.500
0.670,22.500,36.000,6.500,33.500
0.671,22.500,35.500,6.500,33.500
0.672,22.500,35.500,6.500,34.000
0.673,22.500,36.000,7.000,34.000
0.674,22.500,36.000,7.500,34.000
0.675,22.500,36.000,7.500,34.000
0.676,22.500,36.000,8.000,34.000
0.677,22.500,36.500,7.500,33.500
0.678,22.500,36.500,7.000,33.000
0.679,22.500,36.500,6.000,32.500
0.680,22.500,36.000,5.500,32.500
0.681,22.500,36.000,5.000,32.000
0.682,22.500,36.000,4.000,31.500
0.683,22.500,35.500,3.500,31.000
0.684,22.500,35.000,2.500,30.000
0.685,22.500,34.500,2.000,29.500
0.686,22.500,34.000,1.500,29.000
0.687,22.500,34.000,1.500,28.500
0.688,22.000,34.000,1.500,29.000
0.689,22.000,34.000,2.000,29.000
0.690,22.000,34.000,2.000,29.500
0.691,21.500,34.000,2.500,29.500
0.692,21.500,34.000,2.500,29.500
0.693,21.000,33.500,2.500,29.500
0.694,21.000,33.500,3.000,29.500
0.695,20.500,33.500,3.000,29.500
0.696,20.000,33.500,3.000,29.500
0.697,19.500,33.500,3.500,30.000
0.698,19.000,33.500,4.000,30.500
0.699,18.000,33.500,4.000,31.000
0.700,17.500,33.500,4.500,31.000
0.701,17.000,33.500,4.500,31.500
0.702,17.000,33.500,4.500,31.500
0.703,17.000,33.500,4.500,31.500
0.704,16.500,33.000,4.000,31.000
0.705,16.500,32.500,3.500,31.000
0.706,16.500,32.500,3.000,30.500
0.707,16.500,32.000,2.500,30.000
0.708,16.500,32.000,2.000,30.000
0.709,16.500,32.000,2.000,29.500
0.710,16.500,32.000,1.500,29.500
0.711,16.500,31.500,1.000,29.000
0.712,17.000,31.500,0.500,28.500
0.713,17.000,31.500,0.500,28.500
0.714,16.500,31.000,0.500,28.500
0.715,16.500,31.500,0.500,28.500
0.716,16.500,31.000,0.500,28.000
0.717,16.000,31.000,-0.500,27.000
0.718,16.000,30.000,-2.000,26.000
0.719,16.000,29.500,-3.500,25.000
0.720,16.000,29.000,-4.000,24.500
0.721,16.000,29.000,-4.500,24.500
0.722,16.000,29.000,-4.500,25.000
0.723,15.500,29.000,-4.000,25.000
0.724,15.500,29.500,-4.000,25.500
0.725,15.500,29.500,-4.000,25.500
0.726,15.000,29.000,-4.000,25.500
0.727,15.500,29.000,-4.000,25.500
0.728,15.500,29.000,-4.000,25.500
0.729,15.500,29.000,-4.000,25.500
0.730,15.000,29.000,-3.500,26.000
0.731,15.000,29.000,-3.000,26.500
0.732,14.500,29.000,-3.000,26.500
0.733,14.500,29.000,-2.500,27.000
0.734,14.000,29.000,-2.000,27.000
0.735,14.000,29.000,-1.000,27.500
0.736,14.000,29.000,-0.500,28.000
0.737,13.500,29.000,-0.500,28.000
0.738,13.500,29.000,0.000,28.000
0.739,13.000,29.000,0.500,28.500
0.740,12.500,29.500,1.000,29.000
0.741,12.500,30.000,1.500,29.500
0.742,12.500,30.500,1.500,30.000
0.743,13.000,30.500,2.000,30.000
0.744,13.000,30.500,1.500,30.000
0.745,13.500,30.500,1.000,29.500
0.746,13.500,30.000,0.000,28.500
0.747,14.000,30.000,-1.000,27.500
0.748,14.000,29.500,-2.000,26.500
0.749,14.500,29.000,-2.500,26.000
0.750,14.500,29.000,-2.500,26.000
0.751,15.000,29.000,-2.000,26.000
0.752,15.000,29.000,-1.500,26.500
0.753,14.500,29.500,-1.000,26.500
0.754,14.500,29.500,-1.000,27.000
0.755,14.500,29.000,-0.500,27.000
0.756,14.500,29.000,-0.500,27.000
0.757,15.000,29.000,-1.000,26.500
0.758,15.000,29.000,-1.500,26.500
0.759,15.500,29.000,-2.000,25.500
0.760,15.500,29.000,-2.500,25.000
0.761,15.500,29.000,-3.000,25.000
0.762,15.000,29.000,-3.500,24.500
0.763,15.000,29.000,-3.500,24.500
0.764,15.000,29.000,-3.500,24.500
0.765,15.000,29.000,-3.500,24.000
0.766,15.000,29.000,-3.500,24.000
0.767,15.500,29.000,-4.000,23.500
0.768,15.500,29.000,-4.500,23.000
0.769,16.000,29.000,-4.500,23.000
0.770,15.500,29.000,-4.500,23.000
0.771,15.500,29.000,-4.000,23.000
0.772,15.000,28.500,-3.500,23.500
0.773,14.500,29.000,-2.500,24.500
0.774,14.000,29.500,-1.500,25.000
0.775,14.000,29.500,-0.500,26.000
0.776,13.500,30.000,0.000,26.000
0.777,13.500,30.000,0.500,26.500
0.778,13.000,29.500,0.000,26.500
0.779,12.500,29.000,0.000,26.000
0.780,12.500,29.000,-0.500,26.000
0.781,12.500,29.000,-0.500,26.000
0.782,12.000,29.000,-0.500,26.000
0.783,12.000,29.000,-0.500,26.000
0.784,12.000,29.000,-1.000,25.500
0.785,12.000,28.500,-1.500,25.000
0.786,12.500,28.000,-2.000,24.500
0.787,12.500,28.000,-3.000,24.000
0.788,13.000,27.500,-3.000,23.500
0.789,13.500,27.000,-4.000,23.000
0.790,13.500,26.500,-4.500,22.500
0.791,14.000,26.500,-5.000,22.000
0.792,14.000,26.000,-5.000,21.500
0.793,14.000,26.500,-4.500,21.500
0.794,13.500,26.500,-4.000,22.000
0.795,13.500,27.000,-3.000,23.000
0.796,13.000,27.000,-2.000,24.000
0.797,12.500,27.500,-1.000,24.500
0.798,12.000,27.500,-0.500,25.000
0.799,12.000,27.500,-0.500,25.000
0.800,11.500,27.000,-1.000,25.000
0.801,11.500,26.500,-2.000,24.000
0.802,11.500,26.000,-3.000,23.500
0.803,11.500,26.000,-4.000,22.500
0.804,11.500,25.500,-4.500,22.500
0.805,11.500,25.500,-4.500,22.500
0.806,11.500,25.500,-4.000,22.500
0.807,11.500,25.500,-4.000,22.500
0.808,11.500,25.500,-4.500,22.000
0.809,12.000,25.000,-5.000,21.500
0.810,12.500,25.000,-5.000,21.500
0.811,12.500,25.000,-5.000,21.500
0.812,12.500,25.000,-4.500,22.000
0.813,12.000,25.000,-4.000,22.000
0.814,11.500,25.000,-3.500,22.500
0.815,11.500,25.000,-3.500,22.500
0.816,11.000,25.000,-3.500,22.000
0.817,10.500,24.500,-4.500,21.500
0.818,10.500,24.000,-5.500,20.500
0.819,10.000,23.500,-6.500,19.500
0.820,9.500,23.000,-7.500,18.500
0.821,9.000,22.500,-7.500,18.500
0.822,8.000,22.500,-7.500,18.500
0.823,7.500,22.000,-7.500,18.000
0.824,7.500,22.000,-8.000,18.000
0.825,7.500,21.500,-9.000,17.000
0.826,7.500,21.000,-10.000,16.500
0.827,8.000,21.000,-10.000,16.500
0.828,8.000,21.500,-10.000,17.000
0.829,8.500,22.000,-9.500,17.500
0.830,8.500,22.500,-8.000,19.000
0.831,8.500,23.000,-6.500,20.500
0.832,8.000,23.500,-5.000,22.000
0.833,8.000,23.500,-4.000,23.000
0.834,7.500,24.000,-3.000,24.000
0.835,7.000,24.000,-2.500,25.000
0.836,6.500,24.500,-2.000,26.000
0.837,6.000,24.500,-1.500,26.500
0.838,6.000,25.000,-1.000,27.500
0.839,5.500,25.500,0.000,28.500
0.840,5.500,26.000,1.000,30.000
0.841,5.500,26.500,2.000,31.500
0.842,6.000,27.500,3.500,33.000
0.843,6.500,28.000,4.500,35.000
0.844,7.500,29.500,6.500,37.000
0.845,9.000,31.000,8.000,39.000
0.846,10.500,32.500,10.000,41.000
0.847,12.000,34.000,12.000,42.500
0.848,13.500,35.500,13.500,44.500
0.849,15.000,37.000,15.000,46.000
0.850,16.500,38.000,16.500,47.500
0.851,18.000,39.000,17.000,48.000
0.852,19.500,40.000,17.500,48.500
0.853,21.000,40.500,17.500,49.000
0.854,22.000,41.000,18.000,49.500
0.855,23.000,42.000,19.500,50.500
0.856,23.500,43.000,20.500,52.000
0.857,24.000,44.000,22.000,53.000
0.858,24.500,45.000,23.000,53.500
0.859,25.000,46.000,23.500,53.500
0.860,26.000,46.500,23.000,53.000
0.861,26.500,47.000,22.500,52.000
0.862,27.500,47.000,22.000,51.000
0.863,28.500,47.500,21.000,49.500
0.864,30.000,47.500,20.500,48.500
0.865,31.000,48.000,20.000,47.500
0.866,32.000,48.000,19.500,46.500
0.867,32.500,48.000,19.000,46.000
0.868,33.000,48.000,19.000,45.000
0.869,33.000,48.000,19.000,44.500
0.870,32.500,47.500,18.500,43.500
0.871,32.000,46.500,17.500,42.000
0.872,31.500,46.000,16.500,40.500
0.873,30.500,45.000,15.500,39.500
0.874,29.500,43.500,14.500,38.000
0.875,28.500,43.000,13.500,37.000
0.876,27.500,42.000,12.500,36.000
0.877,26.500,41.000,11.500,35.000
0.878,25.500,40.000,10.500,34.000
0.879,24.000,39.000,9.000,32.500
0.880,23.000,37.500,7.500,31.000
0.881,22.000,36.000,5.500,29.000
0.882,20.500,34.000,3.500,27.500
0.883,19.500,32.500,2.000,26.500
0.884,18.000,31.500,1.000,25.500
0.885,17.000,30.500,0.000,25.000
0.886,16.500,29.000,-1.500,24.000
0.887,15.500,28.000,-2.500,22.500
0.888,14.500,27.000,-3.500,21.500
0.889,13.500,26.000,-4.000,21.000
0.890,12.500,24.500,-5.500,20.000
0.891,11.500,23.500,-6.500,19.000
0.892,10.500,22.000,-7.500,18.500
0.893,9.500,21.000,-8.500,17.500
0.894,8.500,20.000,-9.500,17.000
0.895,8.000,19.500,-9.000,16.500
0.896,7.000,19.500,-9.000,17.000
0.897,6.000,19.000,-8.500,17.000
0.898,5.500,19.000,-8.000,17.500
0.899,5.000,19.000,-7.500,18.500
0.900,5.000,19.000,-7.000,19.000
0.901,5.500,19.500,-6.500,19.500
0.902,6.000,20.000,-6.000,19.500
0.903,6.500,20.500,-6.000,19.500
0.904,7.500,21.000,-6.000,19.500
0.905,8.000,21.500,-6.000,19.500
0.906,8.500,22.000,-5.500,20.000
0.907,8.500,22.000,-5.500,20.000
0.908,8.500,22.000,-5.500,20.000
0.909,8.500,21.500,-5.500,20.000
0.910,8.500,21.500,-5.500,19.500
0.911,8.500,21.500,-5.500,19.500
0.912,8.000,21.500,-5.500,19.500
0.913,8.000,21.500,-5.500,19.500
0.914,7.500,21.500,-6.000,19.000
0.915,7.500,21.500,-6.000,19.000
0.916,7.000,21.000,-6.500,18.500
0.917,7.000,21.000,-7.500,18.000
0.918,7.000,20.500,-9.000,17.000
0.919,7.000,20.500,-10.000,16.000
0.920,7.000,20.500,-10.500,15.500
0.921,7.000,20.500,-10.500,16.000
0.922,6.500,20.500,-10.000,16.500
0.923,6.500,20.500,-10.000,16.500
0.924,6.500,20.500,-10.000,16.500
0.925,6.500,20.000,-10.000,16.500
0.926,6.500,19.500,-10.500,16.000
0.927,6.500,19.500,-11.500,15.500
0.928,6.500,19.000,-11.500,15.500
0.929,6.500,19.000,-11.500,15.500
0.930,6.500,18.500,-11.500,16.000
0.931,6.000,18.500,-10.500,16.500
0.932,6.000,18.500,-9.500,17.500
0.933,5.500,19.000,-8.500,18.000
0.934,5.500,19.500,-7.500,19.000
0.935,5.500,20.000,-7.000,19.500
0.936,5.000,20.000,-6.500,19.500
0.937,5.000,20.500,-6.000,20.000
0.938,4.500,20.500,-6.000,20.000
0.939,4.000,20.000,-6.000,20.000
0.940,4.000,20.000,-6.500,20.000
0.941,3.500,20.000,-7.000,19.500
0.942,3.500,19.500,-7.500,19.000
0.943,3.500,19.500,-8.000,18.500
0.944,4.000,19.500,-9.000,17.500
0.945,4.500,19.000,-10.000,16.000
0.946,4.500,18.500,-11.000,15.500
0.947,4.500,18.000,-11.500,15.000
0.948,4.500,18.000,-11.500,15.000
0.949,4.000,17.500,-11.500,15.000
0.950,4.000,17.500,-11.000,15.500
0.951,3.500,17.000,-11.000,15.500
0.952,3.500,17.000,-11.000,15.500
0.953,3.500,16.500,-11.500,15.000
0.954,4.000,16.000,-12.500,14.500
0.955,3.500,16.000,-12.500,14.500
0.956,3.500,16.000,-12.000,15.000
0.957,3.500,16.500,-11.500,15.500
0.958,3.000,17.000,-11.000,15.500
0.959,3.000,17.000,-11.000,16.000
0.960,3.000,17.000,-11.000,16.000
0.961,3.000,17.000,-11.000,16.000
0.962,2.500,17.000,-11.000,16.000
0.963,2.500,17.000,-11.000,16.500
0.964,2.500,17.000,-10.500,17.000
0.965,2.500,17.000,-10.000,17.500
0.966,2.500,17.000,-9.500,17.500
0.967,2.500,17.000,-9.500,17.500
0.968,2.500,17.000,-9.500,17.000
0.969,3.000,17.000,-10.000,17.000
0.970,3.500,17.000,-10.500,16.500
0.971,3.500,17.000,-10.500,16.000
0.972,3.500,17.000,-10.500,16.000
0.973,3.500,17.000,-10.500,16.500
0.974,3.500,17.000,-10.000,17.000
0.975,3.500,17.000,-10.000,17.000
0.976,3.500,17.000,-10.500,16.500
0.977,3.500,16.500,-10.500,16.500
0.978,3.000,16.500,-10.500,16.500
0.979,3.000,16.500,-10.000,17.000
0.980,2.500,16.500,-9.500,17.500
0.981,2.500,17.000,-9.000,18.000
0.982,2.500,17.500,-8.500,18.500
0.983,2.500,17.500,-8.500,19.000
0.984,2.500,17.500,-9.000,18.500
0.985,3.000,17.500,-10.000,17.500
0.986,3.000,17.000,-11.000,16.000
0.987,3.500,16.000,-12.500,15.000
0.988,3.500,15.500,-14.000,14.000
0.989,3.500,15.000,-14.500,13.000
0.990,3.500,15.000,-15.500,12.500
0.991,3.500,14.500,-15.500,12.000
0.992,3.500,14.500,-15.000,12.500
0.993,3.000,14.500,-14.500,13.500
0.994,3.000,14.500,-13.500,14.500
0.995,3.000,14.500,-13.000,15.000
0.996,2.500,14.500,-12.000,15.500
0.997,2.500,14.500,-11.500,16.000
0.998,2.500,14.500,-11.000,16.000
0.999,2.000,15.000,-11.000,16.000
1.000,2.000,15.000,-10.500,16.500
1.001,1.500,15.500,-10.500,16.500
1.002,1.500,15.500,-10.500,16.500
1.003,1.000,15.500,-11.000,16.500
1.004,1.000,15.000,-11.500,15.500
1.005,1.000,14.500,-12.500,15.000
1.006,1.000,14.000,-13.500,14.500
1.007,1.000,13.500,-13.500,14.500
1.008,1.000,13.500,-13.000,15.000
1.009,1.000,13.500,-12.500,15.000
1.010,0.500,13.500,-12.000,15.500
1.011,0.500,13.500,-12.000,15.500
1.012,0.500,13.500,-12.000,15.500
1.013,0.500,13.500,-12.000,15.500
1.014,0.000,13.500,-12.000,15.500
1.015,-0.500,13.500,-11.500,15.500
1.016,-0.500,13.500,-11.500,15.500
1.017,-1.000,13.500,-11.500,16.000
1.018,-1.000,13.500,-11.500,15.500
1.019,-0.500,13.500,-11.500,15.500
1.020,-0.500,13.500,-12.000,15.000
1.021,-0.500,13.000,-12.500,14.500
1.022,-0.500,13.000,-13.000,14.000
1.023,-1.000,12.500,-13.500,14.000
1.024,-1.000,12.500,-14.000,13.000
1.025,-0.500,12.000,-15.000,12.500
1.026,-0.500,11.500,-16.000,12.000
1.027,0.000,11.500,-16.500,11.500
1.028,0.500,11.500,-16.500,11.000
1.029,0.500,11.500,-16.500,11.500
1.030,0.500,11.500,-15.500,12.000
1.031,0.000,11.500,-15.000,12.000
1.032,0.000,11.500,-15.000,12.500
1.033,-0.500,11.500,-14.500,12.500
1.034,-0.500,11.500,-14.500,12.500
1.035,-1.000,11.500,-14.500,13.000
1.036,-1.000,11.500,-14.500,12.500
1.037,-1.500,12.000,-14.500,12.500
1.038,-1.500,12.000,-14.000,13.000
1.039,-2.500,12.000,-13.500,13.500
1.040,-3.000,12.000,-12.500,14.000
1.041,-3.500,12.000,-12.000,14.500
1.042,-3.500,12.000,-11.500,15.000
1.043,-3.500,12.500,-11.500,15.000
1.044,-3.500,12.500,-11.500,15.000
1.045,-3.000,12.000,-12.000,15.000
1.046,-3.000,11.500,-13.000,14.500
1.047,-3.000,11.500,-13.500,14.000
1.048,-3.000,11.000,-14.000,13.500
1.049,-3.000,10.500,-14.500,13.000
1.050,-2.500,10.500,-15.000,12.500
1.051,-2.500,10.000,-15.500,11.500
1.052,-2.500,9.500,-17.000,10.500
1.053,-2.500,9.000,-18.000,9.500
1.054,-2.500,9.000,-18.500,9.500
1.055,-2.500,9.000,-18.500,9.500
1.056,-2.500,9.500,-18.000,10.000
1.057,-2.500,10.000,-17.000,10.500
1.058,-3.000,10.000,-16.500,11.000
1.059,-3.500,10.500,-15.500,12.000
1.060,-4.000,10.500,-15.000,13.000
1.061,-4.000,11.000,-14.000,14.000
1.062,-4.500,11.500,-13.000,15.000
1.063,-4.500,12.000,-12.500,15.500
1.064,-5.000,12.000,-12.500,15.500
1.065,-5.000,11.500,-13.000,15.000
1.066,-5.000,11.500,-14.000,14.500
1.067,-5.000,11.000,-14.500,14.000
1.068,-5.500,11.000,-14.500,14.000
1.069,-5.500,11.000,-14.000,14.500
1.070,-5.500,11.000,-14.000,15.000
1.071,-5.000,11.000,-14.000,15.000
1.072,-5.000,11.000,-14.000,15.000
1.073,-5.000,11.000,-14.500,15.000
1.074,-5.000,10.500,-14.500,14.500
1.075,-5.000,10.500,-14.500,14.500
1.076,-5.000,10.500,-14.000,14.500
1.077,-5.500,11.000,-13.500,15.000
1.078,-5.500,11.000,-13.000,15.000
1.079,-6.000,11.000,-13.000,15.000
1.080,-6.000,11.000,-13.500,15.000
1.081,-6.500,11.000,-14.000,14.500
1.082,-6.500,10.500,-15.000,14.000
1.083,-7.000,10.000,-16.000,13.000
1.084,-7.000,9.500,-17.000,12.500
1.085,-7.000,9.000,-17.500,12.000
1.086,-6.500,9.000,-17.500,12.000
1.087,-6.000,9.500,-17.000,12.500
1.088,-5.500,9.500,-17.000,12.500
1.089,-5.500,9.500,-17.000,12.500
1.090,-5.500,9.000,-17.500,12.000
1.091,-5.500,8.500,-18.500,11.000
1.092,-5.500,8.000,-19.500,10.500
1.093,-5.500,8.000,-19.500,11.000
1.094,-6.000,8.500,-18.500,11.500
1.095,-6.000,9.000,-17.000,12.500
1.096,-6.000,9.500,-15.500,13.500
1.097,-6.500,10.000,-15.000,14.000
1.098,-7.000,10.000,-14.500,14.000
1.099,-7.500,10.000,-14.500,14.000
1.100,-8.000,10.000,-14.000,14.000
1.101,-8.000,10.000,-13.500,14.500
1.102,-8.500,10.000,-13.000,15.500
1.103,-8.500,10.500,-12.500,16.000
1.104,-9.000,10.500,-12.000,16.500
1.105,-9.000,10.500,-12.500,16.500
1.106,-8.500,10.500,-12.500,16.500
1.107,-8.000,10.500,-13.000,16.000
1.108,-8.000,10.500,-13.000,16.000
1.109,-7.500,10.000,-13.000,16.000
1.110,-7.500,10.000,-13.000,16.000
1.111,-7.500,10.000,-13.000,16.000
1.112,-7.500,10.000,-13.000,16.000
1.113,-7.500,10.000,-13.000,16.000
1.114,-8.000,10.000,-13.000,16.000
1.115,-8.000,10.000,-13.000,16.000
1.116,-8.000,10.000,-12.500,16.000
1.117,-8.500,10.000,-12.500,16.500
1.118,-8.500,10.000,-12.500,16.500
1.119,-9.000,10.000,-12.500,16.500
1.120,-9.000,10.000,-13.000,16.000
1.121,-9.000,10.000,-14.000,15.500
1.122,-8.500,9.500,-14.500,14.500
1.123,-8.500,9.500,-15.500,14.000
1.124,-8.500,9.000,-16.000,13.000
1.125,-8.500,8.500,-16.500,13.000
1.126,-8.500,8.500,-16.500,12.500
1.127,-8.500,8.500,-16.500,12.500
1.128,-8.500,9.000,-16.000,12.500
1.129,-8.500,9.000,-16.000,12.500
1.130,-8.500,9.000,-16.000,12.500
1.131,-8.000,9.000,-16.500,12.000
1.132,-7.500,8.500,-17.500,11.000
1.133,-7.500,8.000,-18.500,10.000
1.134,-7.000,8.000,-19.000,9.500
1.135,-7.000,8.000,-18.500,9.500
1.136,-7.500,8.500,-18.000,10.000
1.137,-7.500,8.500,-17.500,10.000
1.138,-8.000,8.500,-17.500,10.500
1.139,-8.500,9.000,-17.500,10.500
1.140,-8.500,9.000,-18.000,10.000
1.141,-8.500,9.000,-18.000,10.000
1.142,-8.500,9.000,-18.000,10.000
1.143,-9.000,9.000,-18.000,10.000
1.144,-9.000,9.000,-18.500,10.000
1.145,-9.000,9.000,-18.000,10.500
1.146,-9.000,9.500,-18.000,10.500
1.147,-9.000,9.500,-17.500,10.500
1.148,-9.000,9.500,-17.000,10.000
1.149,-9.000,9.000,-17.000,10.000
1.150,-9.000,9.000,-17.000,9.500
1.151,-9.000,8.500,-17.500,9.000
1.152,-9.000,8.000,-17.500,8.500
1.153,-9.000,8.000,-17.000,8.500
1.154,-9.000,8.000,-17.000,8.500
1.155,-8.500,8.000,-16.500,9.000
1.156,-9.000,8.500,-16.000,9.000
1.157,-9.000,8.500,-16.500,8.500
1.158,-9.000,8.500,-16.500,8.000
1.159,-9.500,8.000,-17.000,7.000
1.160,-9.500,8.000,-18.000,6.500
1.161,-9.500,7.500,-18.500,6.000
1.162,-9.500,7.500,-19.000,6.000
1.163,-9.500,7.500,-18.500,6.000
1.164,-9.500,8.000,-18.500,6.500
1.165,-9.500,8.000,-18.000,7.000
1.166,-9.500,8.000,-18.500,7.000
1.167,-9.000,8.000,-19.000,6.500
1.168,-8.500,7.500,-20.000,5.500
1.169,-8.000,7.000,-21.000,4.500
1.170,-8.000,7.000,-21.500,3.500
1.171,-8.000,6.500,-22.000,3.000
1.172,-8.000,6.500,-21.500,3.000
1.173,-8.500,6.500,-21.000,3.500
1.174,-9.000,6.500,-20.000,4.000
1.175,-9.000,7.000,-19.500,4.500
1.176,-9.000,7.500,-18.500,5.000
1.177,-9.000,7.500,-18.000,5.500
1.178,-9.000,7.500,-18.000,5.500
1.179,-9.000,7.500,-18.000,5.000
1.180,-9.000,7.500,-19.000,4.500
1.181,-8.500,7.500,-19.500,4.000
1.182,-8.500,7.000,-20.500,3.500
1.183,-8.000,7.000,-21.000,3.000
1.184,-8.000,7.000,-21.500,2.500
1.185,-7.500,7.000,-22.000,2.000
1.186,-7.500,7.000,-22.000,2.000
1.187,-7.500,7.000,-22.000,2.000
1.188,-7.500,7.000,-22.500,2.000
1.189,-7.000,7.000,-22.500,1.500
1.190,-7.000,6.500,-23.000,1.500
1.191,-7.000,6.500,-23.000,1.500
1.192,-7.500,6.500,-22.500,1.500
1.193,-7.500,6.500,-22.000,2.000
1.194,-8.000,6.500,-22.000,2.500
1.195,-8.000,7.000,-21.000,3.000
1.196,-8.500,7.500,-20.000,4.000
1.197,-9.000,8.000,-19.000,5.000
1.198,-9.500,8.000,-18.000,5.500
1.199,-9.500,8.500,-18.000,6.000
1.200,-9.500,8.500,-18.000,6.000
1.201,-9.500,8.500,-18.500,5.500
1.202,-9.000,8.000,-19.000,5.000
1.203,-9.000,8.000,-20.000,4.500
1.204,-9.000,8.000,-20.500,3.500
1.205,-8.500,8.000,-21.000,3.000
1.206,-8.500,7.500,-21.500,2.500
1.207,-8.500,7.500,-22.000,2.000
1.208,-8.500,7.500,-22.000,1.500
1.209,-8.500,7.500,-22.000,1.500
1.210,-8.500,7.500,-21.500,2.000
1.211,-8.500,7.500,-21.000,2.500
1.212,-9.000,8.000,-20.000,3.000
1.213,-9.000,8.000,-19.500,3.500
1.214,-9.000,8.000,-19.000,4.000
1.215,-9.000,8.000,-19.000,4.000
1.216,-9.000,8.000,-19.000,3.500
1.217,-8.500,8.500,-19.500,3.500
1.218,-8.500,8.500,-19.000,3.500
1.219,-9.000,9.000,-18.500,4.000
1.220,-9.000,9.500,-18.000,5.000
1.221,-9.000,10.000,-17.000,5.500
1.222,-9.000,10.000,-17.000,5.500
1.223,-9.000,10.000,-17.000,5.500
1.224,-9.000,9.500,-18.000,5.000
1.225,-8.500,9.000,-19.500,4.000
1.226,-8.500,8.500,-21.000,2.500
1.227,-8.000,8.000,-22.000,1.500
1.228,-8.000,7.500,-23.000,1.000
1.229,-8.000,7.000,-23.500,1.000
1.230,-7.500,7.000,-23.500,1.000
1.231,-7.500,6.500,-23.500,1.000
1.232,-7.500,7.000,-23.500,1.000
1.233,-7.000,7.000,-23.000,1.500
1.234,-7.000,7.500,-22.000,2.000
1.235,-7.500,8.000,-21.000,3.000
1.236,-7.500,8.500,-19.500,4.000
1.237,-8.000,9.000,-18.500,5.000
1.238,-8.000,9.500,-18.500,5.000
1.239,-8.500,9.500,-18.500,5.000
1.240,-8.500,9.000,-19.000,4.500
1.241,-8.500,9.000,-19.500,4.000
1.242,-8.500,9.000,-20.000,4.000
1.243,-8.500,9.500,-20.500,3.500
1.244,-8.000,9.500,-20.500,3.500
1.245,-8.000,9.000,-20.500,4.000
1.246,-8.000,9.000,-20.500,4.000
1.247,-8.000,9.000,-20.000,4.000
1.248,-7.500,9.000,-20.000,4.500
1.249,-7.500,9.000,-19.500,4.500
1.250,-7.500,9.000,-19.500,4.500
1.251,-7.500,9.000,-19.500,4.000
1.252,-7.500,8.500,-19.500,4.000
1.253,-7.500,8.500,-19.000,4.000
1.254,-7.500,9.000,-19.000,4.000
1.255,-7.000,9.000,-19.000,4.000
1.256,-7.000,9.000,-19.000,4.000
1.257,-7.000,9.000,-19.500,3.500
1.258,-7.500,9.000,-20.500,2.500
1.259,-7.500,8.500,-21.500,2.000
1.260,-8.000,8.000,-22.000,1.000
1.261,-8.500,7.500,-22.500,1.000
1.262,-8.500,7.000,-22.500,1.000
1.263,-8.500,7.000,-22.500,1.000
1.264,-8.500,7.000,-22.000,1.000
1.265,-8.500,7.000,-22.000,1.500
1.266,-8.500,7.000,-22.000,1.500
1.267,-8.000,7.500,-22.000,1.500
1.268,-8.000,7.500,-21.500,2.000
1.269,-8.000,7.500,-21.000,2.000
1.270,-8.000,8.000,-20.500,2.500
1.271,-7.500,8.000,-20.000,2.500
1.272,-7.500,8.000,-20.000,2.000
1.273,-7.500,7.500,-20.500,2.000
1.274,-7.500,7.500,-20.500,2.000
1.275,-7.500,8.000,-20.000,2.500
1.276,-8.000,8.500,-19.000,3.000
1.277,-8.500,8.500,-18.500,3.500
1.278,-8.500,8.500,-18.500,4.000
1.279,-9.000,8.500,-19.000,3.500
1.280,-9.000,8.500,-19.000,3.500
1.281,-9.000,8.500,-19.000,3.500
1.282,-9.000,8.500,-18.500,4.000
1.283,-9.000,9.000,-18.000,4.500
1.284,-9.000,9.000,-18.000,4.500
1.285,-9.000,9.000,-18.000,4.000
1.286,-8.500,8.500,-18.500,3.500
1.287,-8.000,8.500,-19.500,2.500
1.288,-8.000,8.000,-21.000,1.500
1.289,-7.500,7.500,-22.500,0.000
1.290,-7.500,6.500,-24.000,-1.000
1.291,-7.500,6.000,-25.000,-2.000
1.292,-7.000,6.000,-25.500,-2.500
1.293,-7.000,6.000,-25.500,-2.500
1.294,-7.000,6.000,-24.500,-1.500
1.295,-7.500,6.500,-23.500,-0.500
1.296,-8.000,7.000,-22.000,0.500
1.297,-8.500,7.500,-21.000,1.500
1.298,-9.000,8.000,-20.000,2.500
1.299,-9.000,8.500,-19.500,2.500
1.300,-10.000,8.500,-19.000,3.000
1.301,-10.500,8.500,-19.000,3.500
1.302,-10.500,8.500,-18.500,3.500
1.303,-11.000,8.000,-18.500,3.500
1.304,-11.000,8.000,-18.500,3.500
1.305,-11.000,7.500,-19.000,3.000
1.306,-11.000,7.500,-19.500,3.000
1.307,-11.000,7.000,-20.000,2.500
1.308,-10.500,7.000,-20.500,2.000
1.309,-10.500,7.000,-21.000,1.500
1.310,-10.500,6.500,-21.500,1.000
1.311,-10.000,6.500,-22.000,0.500
1.312,-9.500,6.000,-23.000,-0.500
1.313,-9.500,6.000,-23.500,-1.000
1.314,-9.000,5.500,-24.000,-1.000
1.315,-9.000,5.500,-24.000,-1.000
1.316,-9.000,6.000,-24.000,-0.500
1.317,-9.000,6.000,-23.500,-0.500
1.318,-9.500,6.500,-23.500,-0.500
1.319,-9.500,6.500,-23.500,-0.500
1.320,-9.500,7.000,-23.500,-0.500
1.321,-9.500,7.000,-23.500,-0.500
1.322,-9.500,7.000,-24.000,-0.500
1.323,-9.500,7.000,-24.500,-1.000
1.324,-9.500,6.500,-24.500,-1.500
1.325,-9.500,6.500,-24.500,-1.500
1.326,-9.500,7.000,-24.000,-1.000
1.327,-9.500,7.500,-23.000,0.000
1.328,-9.000,7.500,-22.000,1.000
1.329,-9.000,8.000,-21.500,1.500
1.330,-9.000,8.000,-21.000,1.500
1.331,-9.000,7.500,-21.500,1.500
1.332,-9.000,7.500,-21.500,1.000
1.333,-8.500,7.500,-22.000,0.500
1.334,-8.500,7.500,-22.000,0.500
1.335,-8.000,8.000,-22.000,0.500
1.336,-8.000,8.500,-21.500,1.000
1.337,-8.000,9.500,-21.000,1.500
1.338,-8.000,9.500,-20.000,2.000
1.339,-8.500,9.500,-20.000,2.000
1.340,-9.000,9.500,-20.000,2.000
1.341,-9.000,9.000,-20.500,1.500
1.342,-9.500,8.000,-21.500,1.000
1.343,-9.500,7.500,-23.000,-0.500
1.344,-10.000,6.500,-25.000,-2.000
1.345,-10.000,5.500,-26.000,-3.000
1.346,-10.500,4.500,-26.500,-3.000
1.347,-11.000,4.500,-26.500,-3.000
1.348,-12.000,4.000,-26.000,-2.500
1.349,-12.500,4.000,-25.000,-2.000
1.350,-13.000,3.500,-25.000,-2.000
1.351,-13.000,3.500,-25.000,-2.000
1.352,-13.500,3.000,-25.000,-2.500
1.353,-13.500,2.500,-25.500,-2.500
1.354,-14.000,2.000,-26.000,-3.000
1.355,-14.000,2.000,-26.000,-3.000
1.356,-14.000,2.000,-25.500,-2.500
1.357,-14.000,2.500,-25.000,-2.000
1.358,-14.000,3.000,-24.500,-1.500
1.359,-13.500,3.500,-23.500,-1.000
1.360,-13.000,4.500,-23.000,-0.500
1.361,-12.500,5.000,-22.500,-0.500
1.362,-11.500,5.500,-22.500,-0.500
1.363,-11.000,5.500,-23.000,-0.500
1.364,-10.000,5.500,-23.500,-1.000
1.365,-9.500,5.500,-24.000,-1.500
1.366,-9.500,5.500,-24.500,-2.000
1.367,-9.000,5.500,-24.500,-2.500
1.368,-9.000,5.500,-24.500,-2.500
1.369,-9.000,5.000,-24.500,-2.500
1.370,-9.000,5.000,-24.000,-2.500
1.371,-9.000,4.500,-24.500,-2.500
1.372,-9.000,4.500,-25.000,-3.000
1.373,-8.500,4.500,-25.500,-3.500
1.374,-8.500,4.500,-26.000,-4.000
1.375,-8.500,4.500,-26.000,-4.500
1.376,-8.500,4.500,-25.500,-4.000
1.377,-9.000,4.500,-25.000,-4.000
1.378,-9.500,4.500,-24.500,-3.500
1.379,-10.000,4.500,-24.000,-3.000
1.380,-10.500,4.500,-23.500,-2.500
1.381,-11.000,4.500,-23.000,-2.500
1.382,-11.000,5.000,-23.000,-2.000
1.383,-11.500,5.000,-22.500,-1.500
1.384,-11.500,5.000,-22.000,-1.500
1.385,-11.500,4.500,-21.500,-1.000
1.386,-11.500,4.500,-21.500,-1.000
1.387,-11.500,4.500,-21.500,-1.000
1.388,-11.500,4.500,-22.000,-1.500
1.389,-11.000,4.500,-22.000,-1.500
1.390,-11.000,4.500,-22.500,-2.000
1.391,-11.000,4.000,-22.500,-2.000
1.392,-10.500,4.000,-23.000,-2.500
1.393,-10.500,4.000,-23.000,-2.000
1.394,-10.500,4.000,-23.000,-2.000
1.395,-10.500,4.500,-23.000,-1.500
1.396,-10.500,4.500,-23.000,-1.500
1.397,-10.500,4.000,-23.000,-2.000
1.398,-11.000,4.000,-24.000,-2.500
1.399,-11.000,3.500,-24.500,-3.500
1.400,-11.500,3.000,-25.000,-4.000
1.401,-11.000,3.000,-25.500,-4.500
1.402,-11.000,3.000,-25.500,-4.500
1.403,-11.000,3.000,-25.500,-5.000
1.404,-10.500,3.000,-25.500,-4.500
1.405,-10.500,3.000,-25.000,-4.500
1.406,-10.500,3.000,-24.500,-4.000
1.407,-10.500,3.000,-24.500,-3.500
1.408,-10.500,3.000,-24.000,-3.500
1.409,-11.000,3.000,-23.500,-3.000
1.410,-11.000,3.000,-23.000,-3.000
1.411,-11.000,3.000,-23.000,-3.000
1.412,-11.000,3.000,-23.000,-3.000
1.413,-11.000,2.500,-23.500,-3.500
1.414,-11.000,2.500,-24.000,-4.000
1.415,-11.000,2.000,-24.500,-4.000
1.416,-10.500,2.000,-25.000,-4.500
1.417,-10.500,2.500,-25.000,-4.500
1.418,-10.500,3.000,-24.500,-4.500
1.419,-10.500,3.000,-23.500,-3.500
1.420,-11.000,3.500,-22.500,-2.500
1.421,-11.500,4.000,-21.500,-2.000
1.422,-12.000,4.000,-21.000,-1.500
1.423,-12.500,4.000,-20.500,-1.000
1.424,-12.500,4.000,-20.500,-1.500
1.425,-12.500,4.000,-21.000,-1.500
1.426,-12.500,4.000,-21.000,-1.500
1.427,-12.500,3.500,-21.500,-2.000
1.428,-12.000,3.500,-22.000,-2.000
1.429,-12.000,3.000,-22.500,-3.000
1.430,-11.500,2.500,-23.000,-3.500
1.431,-11.000,2.000,-24.000,-5.000
1.432,-11.000,1.500,-25.500,-6.500
1.433,-10.500,0.500,-26.500,-7.500
1.434,-10.500,0.000,-27.500,-8.000
1.435,-10.500,0.000,-27.500,-8.000
1.436,-10.500,0.500,-27.000,-8.000
1.437,-11.000,1.000,-26.000,-7.000
1.438,-11.000,1.500,-25.500,-6.500
1.439,-11.000,1.500,-24.500,-6.000
1.440,-11.500,2.000,-24.000,-5.500
1.441,-11.500,2.000,-23.500,-5.000
1.442,-11.500,2.000,-23.500,-5.000
1.443,-12.000,2.000,-23.500,-5.000
1.444,-12.000,1.500,-24.000,-5.000
1.445,-12.000,1.500,-24.000,-5.500
1.446,-12.000,1.000,-24.500,-5.500
1.447,-12.000,1.000,-24.000,-5.500
1.448,-11.500,1.500,-24.000,-5.000
1.449,-11.500,1.500,-23.500,-5.000
1.450,-11.000,1.500,-23.000,-5.000
1.451,-11.000,2.000,-23.000,-5.000
1.452,-11.000,2.000,-22.500,-5.000
1.453,-10.500,2.000,-22.000,-4.500
1.454,-11.000,2.000,-21.500,-4.500
1.455,-11.000,2.000,-21.500,-4.500
1.456,-11.000,2.000,-21.500,-5.000
1.457,-11.500,2.000,-21.500,-4.500
1.458,-11.500,2.500,-21.000,-4.500
1.459,-12.000,2.500,-20.500,-4.000
1.460,-12.500,3.000,-20.500,-3.500
1.461,-12.500,2.500,-20.500,-4.000
1.462,-12.500,2.500,-21.000,-4.000
1.463,-12.500,2.000,-21.500,-4.500
1.464,-12.500,2.000,-21.500,-4.500
1.465,-12.500,1.500,-21.000,-4.500
1.466,-12.500,1.500,-21.000,-4.500
1.467,-13.000,1.000,-21.000,-4.500
1.468,-13.000,1.000,-21.000,-5.000
1.469,-12.500,0.500,-21.500,-5.000
1.470,-12.500,0.500,-22.000,-5.500
1.471,-12.000,-0.500,-23.000,-6.000
1.472,-12.000,-0.500,-23.500,-6.500
1.473,-11.500,-0.500,-24.000,-7.000
1.474,-11.500,-0.500,-24.000,-7.000
1.475,-11.500,-0.500,-23.500,-6.500
1.476,-12.000,0.000,-22.500,-6.000
1.477,-12.000,0.500,-21.500,-4.500
1.478,-12.500,1.000,-20.500,-4.000
1.479,-13.000,1.000,-20.000,-3.000
1.480,-13.500,1.500,-19.500,-2.500
1.481,-13.500,1.500,-19.000,-2.500
1.482,-13.500,1.500,-19.000,-2.500
1.483,-13.500,1.500,-19.000,-2.500
1.484,-13.500,1.500,-19.000,-2.500
1.485,-13.500,1.500,-19.500,-2.500
1.486,-13.500,1.500,-20.000,-2.500
1.487,-13.000,1.500,-20.000,-3.000
1.488,-13.000,1.000,-20.500,-3.000
1.489,-12.500,1.000,-21.000,-3.500
1.490,-12.000,1.000,-21.500,-4.500
1.491,-12.000,0.500,-22.500,-5.500
1.492,-12.000,0.000,-23.500,-6.000
1.493,-12.000,-0.500,-24.000,-7.000
1.494,-12.000,-0.500,-24.500,-7.500
1.495,-12.000,-1.000,-25.000,-7.500
1.496,-12.000,-1.000,-25.000,-8.000
1.497,-12.500,-1.500,-25.000,-8.500
1.498,-13.000,-1.500,-25.500,-8.500
1.499,-13.500,-1.500,-25.500,-8.500
1.500,-14.000,-2.000,-25.000,-8.000
1.501,-14.500,-2.000,-25.000,-7.500
1.502,-15.000,-2.000,-24.500,-7.500
1.503,-15.000,-2.000,-24.000,-7.500
1.504,-15.500,-2.000,-24.000,-7.500
1.505,-15.500,-2.000,-24.000,-7.500
1.506,-15.500,-2.500,-24.500,-7.500
1.507,-15.500,-2.500,-25.000,-8.000
1.508,-15.000,-3.000,-25.000,-8.000
1.509,-15.000,-3.000,-25.500,-8.000
1.510,-15.000,-3.000,-25.500,-8.000
1.511,-15.000,-3.500,-25.500,-8.000
1.512,-15.000,-3.500,-26.000,-8.000
1.513,-15.000,-3.500,-25.500,-8.500
1.514,-15.000,-3.500,-25.500,-8.000
1.515,-15.500,-3.000,-24.500,-7.500
1.516,-15.500,-2.500,-23.000,-6.500
1.517,-16.000,-2.000,-22.500,-6.000
1.518,-16.500,-2.000,-22.500,-6.000
1.519,-16.500,-2.000,-22.500,-6.000
1.520,-17.000,-2.000,-23.000,-6.500
1.521,-17.500,-2.500,-23.000,-6.500
1.522,-18.000,-2.500,-22.500,-6.000
1.523,-18.500,-2.500,-22.000,-5.500
1.524,-19.000,-2.500,-22.000,-5.500
1.525,-19.500,-3.000,-22.000,-5.500
1.526,-19.500,-3.000,-22.500,-6.000
1.527,-19.500,-3.500,-23.000,-6.500
1.528,-19.000,-3.500,-23.500,-6.500
1.529,-19.000,-3.500,-23.500,-7.000
1.530,-18.500,-3.500,-24.000,-7.000
1.531,-18.500,-3.500,-24.000,-7.000
1.532,-18.000,-4.000,-24.500,-7.500
1.533,-18.000,-4.000,-25.000,-8.000
1.534,-18.000,-4.500,-25.500,-8.500
1.535,-17.500,-4.500,-26.000,-9.000
1.536,-17.500,-4.500,-26.000,-9.000
1.537,-17.500,-4.500,-26.000,-9.500
1.538,-17.500,-4.500,-26.000,-9.500
1.539,-18.000,-4.500,-25.500,-9.500
1.540,-18.000,-4.500,-25.000,-9.500
1.541,-18.000,-4.000,-25.000,-9.000
1.542,-17.500,-4.000,-24.500,-8.500
1.543,-17.500,-4.000,-24.500,-8.500
1.544,-17.000,-4.000,-24.500,-8.000
1.545,-17.000,-4.000,-24.000,-8.000
1.546,-17.500,-4.000,-24.000,-8.000
1.547,-17.500,-4.000,-23.500,-7.500
1.548,-18.000,-4.000,-23.000,-7.000
1.549,-17.500,-3.500,-22.500,-6.500
1.550,-17.000,-3.000,-22.000,-6.000
1.551,-17.000,-2.500,-21.500,-6.000
1.552,-16.500,-2.500,-21.000,-5.500
1.553,-16.000,-2.000,-20.500,-5.500
1.554,-16.000,-2.000,-20.500,-5.500
1.555,-16.000,-2.000,-20.000,-5.500
1.556,-16.000,-2.000,-19.500,-5.000
1.557,-16.000,-1.500,-19.500,-5.000
1.558,-16.000,-1.500,-19.500,-5.000
1.559,-16.000,-1.500,-19.500,-5.000
1.560,-16.000,-1.500,-20.000,-6.000
1.561,-16.000,-2.000,-20.500,-6.500
1.562,-16.000,-2.500,-21.500,-7.000
1.563,-16.000,-2.500,-22.000,-7.500
1.564,-16.000,-2.500,-22.000,-8.000
1.565,-16.000,-2.500,-22.500,-8.000
1.566,-16.000,-3.000,-22.500,-8.000
1.567,-16.000,-3.000,-22.500,-8.000
1.568,-16.000,-3.000,-22.000,-8.000
1.569,-15.500,-2.500,-21.500,-7.500
1.570,-15.500,-2.500,-22.000,-7.500
1.571,-15.000,-2.500,-22.000,-8.000
1.572,-15.000,-3.000,-22.500,-8.500
1.573,-15.000,-3.000,-22.500,-9.000
1.574,-15.000,-3.000,-22.000,-9.000
1.575,-15.500,-2.500,-21.500,-8.500
1.576,-16.000,-2.500,-20.500,-8.000
1.577,-16.500,-2.500,-20.500,-7.500
1.578,-16.500,-2.500,-20.000,-7.500
1.579,-16.500,-2.500,-20.000,-7.500
1.580,-16.500,-2.500,-20.500,-7.500
1.581,-16.500,-2.500,-20.500,-8.000
1.582,-16.500,-2.500,-20.500,-8.000
1.583,-17.000,-3.000,-20.500,-7.500
1.584,-17.000,-3.000,-20.000,-7.500
1.585,-17.000,-3.000,-19.500,-7.000
1.586,-17.000,-3.000,-19.500,-7.000
1.587,-16.500,-3.000,-20.000,-7.000
1.588,-16.000,-3.000,-20.500,-8.000
1.589,-15.000,-3.500,-22.000,-9.000
1.590,-14.500,-4.000,-23.500,-11.000
1.591,-14.000,-5.000,-25.000,-12.000
1.592,-14.000,-5.500,-25.000,-12.000
1.593,-14.000,-5.500,-24.500,-12.000
1.594,-14.500,-5.500,-24.000,-11.000
1.595,-14.500,-5.000,-23.500,-10.500
1.596,-15.000,-4.500,-23.000,-10.500
1.597,-15.000,-4.500,-23.000,-10.500
1.598,-15.500,-4.500,-23.500,-10.500
1.599,-15.500,-4.500,-23.500,-10.500
1.600,-16.000,-4.000,-22.500,-10.000
1.601,-16.000,-4.000,-22.000,-9.000
1.602,-16.500,-3.500,-20.500,-8.500
1.603,-16.500,-3.000,-20.000,-8.000
1.604,-16.000,-3.000,-19.500,-8.000
1.605,-16.000,-3.000,-20.000,-8.000
1.606,-16.000,-3.500,-20.500,-9.000
1.607,-15.500,-4.000,-21.500,-10.000
1.608,-15.000,-4.500,-22.500,-10.500
1.609,-14.500,-4.500,-23.000,-11.500
1.610,-14.000,-5.000,-23.500,-12.000
1.611,-14.000,-5.000,-23.500,-12.000
1.612,-14.000,-5.000,-23.000,-12.000
1.613,-14.500,-4.500,-22.000,-11.500
1.614,-15.000,-5.000,-21.500,-11.000
1.615,-15.500,-5.000,-21.000,-11.000
1.616,-16.000,-5.000,-21.000,-11.000
1.617,-16.500,-5.500,-21.000,-11.500
1.618,-17.500,-6.000,-21.500,-11.500
1.619,-18.500,-6.500,-21.500,-12.000
1.620,-19.000,-7.000,-22.000,-12.000
1.621,-19.500,-7.000,-22.000,-12.000
1.622,-19.500,-7.500,-22.000,-12.500
1.623,-19.500,-7.500,-22.000,-12.500
1.624,-20.000,-8.000,-22.500,-12.500
1.625,-19.500,-8.500,-23.000,-13.000
1.626,-19.500,-8.500,-23.500,-13.000
1.627,-19.000,-9.000,-24.000,-13.500
1.628,-18.500,-9.000,-24.000,-13.000
1.629,-18.000,-8.500,-23.500,-12.500
1.630,-17.500,-8.000,-22.500,-11.500
1.631,-17.500,-7.000,-21.500,-10.000
1.632,-17.500,-6.500,-20.000,-8.500
1.633,-17.500,-6.000,-19.500,-7.500
1.634,-17.500,-5.500,-18.500,-6.500
1.635,-17.500,-5.500,-18.000,-5.500
1.636,-17.500,-5.000,-17.500,-5.000
1.637,-18.000,-5.000,-17.500,-4.500
1.638,-18.000,-5.000,-17.500,-4.000
1.639,-18.000,-5.000,-18.000,-3.500
1.640,-18.000,-5.000,-17.500,-3.000
1.641,-17.500,-4.500,-16.500,-2.000
1.642,-17.000,-3.000,-15.000,0.500
1.643,-15.500,-1.500,-12.500,3.000
1.644,-14.500,0.500,-10.500,5.000
1.645,-13.000,2.000,-9.000,6.500
1.646,-11.500,3.500,-8.000,8.000
1.647,-10.000,5.000,-7.000,9.000
1.648,-8.500,6.000,-5.500,10.500
1.649,-7.500,7.500,-3.500,12.000
1.650,-6.000,8.500,-1.500,14.000
1.651,-5.000,10.000,1.000,16.000
1.652,-4.000,11.500,3.000,18.000
1.653,-3.000,12.500,5.000,20.000
1.654,-2.500,14.000,7.000,21.500
1.655,-1.500,15.000,8.500,23.000
1.656,-1.000,16.000,9.500,23.500
1.657,0.500,16.500,9.500,23.500
1.658,1.500,17.500,9.000,22.500
1.659,2.500,18.000,9.000,22.000
1.660,3.500,18.500,9.000,21.500
1.661,4.500,19.000,9.000,21.000
1.662,5.500,20.000,9.000,20.500
1.663,6.500,20.500,9.000,20.000
1.664,7.000,20.500,8.500,19.500
1.665,7.500,20.500,8.000,18.000
1.666,8.000,20.500,7.000,17.000
1.667,8.500,20.000,6.000,15.500
1.668,8.500,19.500,5.000,14.000
1.669,8.500,19.000,3.500,12.500
1.670,8.500,18.000,2.500,11.000
1.671,8.000,17.500,1.000,9.500
1.672,7.500,16.000,-1.000,8.000
1.673,7.000,15.000,-2.500,6.000
1.674,6.000,13.500,-4.500,4.500
1.675,5.500,12.000,-6.000,2.500
1.676,4.500,11.000,-7.500,1.000
1.677,3.500,10.000,-9.000,0.000
1.678,2.000,9.000,-10.000,-1.000
1.679,1.000,8.000,-10.500,-2.000
1.680,-0.500,7.500,-11.500,-2.500
1.681,-2.000,6.500,-12.000,-3.000
1.682,-3.000,5.500,-12.500,-3.500
1.683,-4.000,4.500,-13.500,-4.000
1.684,-5.000,3.500,-14.000,-4.500
1.685,-6.000,2.500,-14.500,-5.500
1.686,-7.000,1.500,-15.000,-6.000
1.687,-7.500,1.000,-16.000,-6.000
1.688,-8.000,0.500,-16.500,-6.500
1.689,-8.500,-0.500,-17.000,-7.000
1.690,-8.500,-1.000,-17.500,-7.500
1.691,-8.500,-1.000,-17.500,-7.500
1.692,-8.500,-1.000,-17.000,-7.500
1.693,-9.000,-1.000,-16.500,-7.000
1.694,-9.500,-1.000,-16.000,-7.000
1.695,-10.000,-1.000,-15.500,-6.500
1.696,-10.500,-1.000,-15.500,-6.500
1.697,-11.000,-1.000,-15.500,-6.500
1.698,-11.500,-1.000,-15.500,-6.500
1.699,-11.500,-1.000,-15.500,-7.000
1.700,-11.500,-1.000,-15.500,-7.000
1.701,-12.000,-1.000,-15.500,-7.000
1.702,-12.000,-1.000,-15.000,-7.000
1.703,-11.500,-1.000,-15.500,-7.000
1.704,-11.500,-1.000,-16.000,-7.500
1.705,-11.000,-1.500,-17.000,-8.500
1.706,-10.500,-1.500,-18.000,-9.500
1.707,-10.500,-2.000,-19.000,-10.000
1.708,-10.500,-2.000,-19.000,-10.500
1.709,-10.500,-2.000,-19.000,-10.000
1.710,-10.000,-2.000,-18.000,-9.500
1.711,-10.500,-2.000,-17.500,-9.000
1.712,-10.500,-1.500,-16.500,-8.500
1.713,-10.500,-1.500,-16.000,-8.000
1.714,-10.500,-2.000,-15.500,-7.500
1.715,-11.000,-2.000,-15.000,-7.500
1.716,-11.000,-2.000,-15.000,-7.500
1.717,-11.500,-2.000,-15.500,-8.000
1.718,-11.500,-2.500,-16.000,-8.500
1.719,-11.500,-2.500,-16.500,-9.000
1.720,-11.500,-3.000,-16.500,-9.000
1.721,-11.500,-3.000,-17.000,-9.000
1.722,-12.000,-2.500,-16.500,-8.500
1.723,-12.000,-2.500,-16.000,-8.000
1.724,-12.500,-2.000,-16.000,-7.500
1.725,-12.500,-2.000,-16.000,-8.000
1.726,-12.000,-2.500,-17.000,-9.000
1.727,-12.000,-2.500,-18.000,-10.000
1.728,-11.500,-2.500,-18.000,-10.000
1.729,-11.000,-2.000,-17.500,-10.000
1.730,-10.500,-1.500,-17.000,-9.500
1.731,-10.500,-1.500,-16.500,-9.000
1.732,-10.000,-1.500,-16.500,-9.000
1.733,-10.000,-1.500,-17.000,-9.500
1.734,-10.000,-1.500,-17.000,-9.500
1.735,-10.000,-1.500,-17.000,-9.500
1.736,-10.000,-1.000,-16.000,-8.500
1.737,-10.500,-1.000,-15.000,-7.500
1.738,-10.500,-0.500,-14.500,-7.500
1.739,-10.500,-0.500,-14.500,-7.500
1.740,-10.500,-0.500,-14.500,-7.500
1.741,-11.000,-0.500,-14.500,-7.500
1.742,-11.000,0.000,-14.000,-7.000
1.743,-11.500,0.000,-13.500,-6.500
1.744,-11.500,-0.500,-14.000,-6.500
1.745,-11.500,-0.500,-14.500,-7.000
1.746,-11.500,-1.000,-15.500,-8.000
1.747,-11.500,-1.500,-16.500,-9.000
1.748,-11.000,-2.000,-17.000,-9.500
1.749,-10.500,-1.500,-17.000,-9.500
1.750,-10.000,-1.000,-16.500,-9.500
1.751,-9.500,-1.000,-16.000,-9.000
1.752,-9.500,-0.500,-16.000,-9.000
1.753,-9.500,-0.500,-15.000,-8.500
1.754,-10.000,0.000,-14.500,-7.500
1.755,-10.000,0.500,-13.500,-7.000
1.756,-10.500,1.000,-12.500,-6.000
1.757,-11.000,1.000,-11.500,-5.500
1.758,-11.000,1.500,-11.500,-5.500
1.759,-11.500,1.500,-11.500,-5.500
1.760,-11.500,1.000,-11.500,-5.500
1.761,-11.000,1.000,-12.000,-6.000
1.762,-11.000,1.000,-12.000,-6.500
1.763,-10.500,1.500,-12.000,-6.500
1.764,-10.500,1.500,-12.000,-6.000
1.765,-10.000,2.000,-11.500,-5.500
1.766,-9.500,2.500,-11.000,-5.000
1.767,-9.500,2.500,-10.500,-4.500
1.768,-9.000,3.000,-10.000,-4.000
1.769,-8.500,3.000,-10.000,-4.000
1.770,-8.500,3.000,-10.000,-4.000
1.771,-8.500,3.000,-10.000,-4.000
1.772,-8.000,3.000,-9.500,-4.000
1.773,-8.000,3.000,-9.500,-4.000
1.774,-8.000,3.500,-9.500,-4.000
1.775,-8.000,3.500,-9.000,-4.000
1.776,-8.000,3.500,-9.500,-4.000
1.777,-8.000,3.500,-9.500,-4.000
1.778,-8.000,3.000,-10.000,-4.000
1.779,-8.500,3.000,-11.000,-4.500
1.780,-8.500,3.000,-11.500,-4.500
1.781,-9.000,2.500,-11.500,-4.500
1.782,-9.000,3.000,-11.500,-4.000
1.783,-9.000,3.000,-11.500,-4.000
1.784,-9.000,3.000,-11.500,-4.000
1.785,-8.500,3.000,-11.500,-4.000
1.786,-8.500,2.500,-12.000,-4.000
1.787,-8.000,2.500,-12.000,-4.500
1.788,-7.500,2.500,-12.500,-5.000
1.789,-7.000,2.000,-13.000,-5.000
1.790,-7.000,2.000,-12.500,-5.000
1.791,-6.500,2.500,-12.000,-5.000
1.792,-6.500,3.000,-11.500,-4.500
1.793,-6.500,3.000,-10.500,-4.000
1.794,-6.500,3.500,-9.500,-3.500
1.795,-7.000,3.500,-9.000,-2.500
1.796,-7.500,4.000,-8.500,-2.000
1.797,-7.500,3.500,-8.500,-1.500
1.798,-8.000,3.500,-8.500,-1.500
1.799,-8.500,3.000,-8.500,-1.500
1.800,-9.000,2.500,-9.000,-1.500
1.801,-9.500,2.000,-9.000,-2.000
1.802,-9.500,1.500,-10.000,-2.500
1.803,-10.000,1.000,-11.000,-3.000
1.804,-10.500,0.000,-12.000,-4.500
1.805,-11.000,-1.000,-13.500,-5.500
1.806,-11.000,-2.000,-15.000,-6.500
1.807,-11.000,-2.500,-16.000,-7.500
1.808,-10.500,-3.000,-16.500,-8.000
1.809,-10.000,-3.500,-17.000,-8.500
1.810,-9.500,-3.500,-17.500,-9.000
1.811,-9.000,-3.500,-17.500,-9.000
1.812,-8.500,-3.000,-17.500,-9.000
1.813,-8.000,-2.500,-16.500,-8.000
1.814,-7.500,-1.500,-15.500,-7.500
1.815,-7.000,-0.500,-14.000,-6.000
1.816,-6.500,0.500,-12.500,-5.000
1.817,-6.000,1.500,-11.000,-3.500
1.818,-5.500,2.500,-9.500,-2.500
1.819,-5.500,3.000,-8.500,-2.000
1.820,-5.500,3.500,-7.500,-1.500
1.821,-5.500,4.000,-7.000,-1.000
1.822,-6.000,4.500,-6.500,-0.500
1.823,-6.000,4.500,-6.000,0.000
1.824,-6.000,5.000,-5.500,0.500
1.825,-6.000,5.000,-5.500,1.000
1.826,-6.000,5.000,-5.500,1.000
1.827,-5.500,5.000,-5.000,1.500
1.828,-5.500,5.000,-5.000,1.500
1.829,-5.000,5.000,-5.000,2.000
1.830,-5.000,5.000,-5.000,2.000
1.831,-4.500,5.000,-5.000,2.000
1.832,-4.500,5.000,-5.000,1.500
1.833,-4.500,4.500,-5.500,1.500
1.834,-4.500,4.500,-5.500,1.000
1.835,-4.000,4.500,-6.000,1.000
1.836,-4.000,4.000,-6.500,0.500
1.837,-4.000,3.500,-7.500,0.000
1.838,-4.500,3.500,-8.000,-1.000
1.839,-4.500,3.000,-8.500,-1.000
1.840,-4.500,3.000,-8.500,-1.500
1.841,-4.500,3.500,-8.500,-1.000
1.842,-4.500,4.000,-8.000,-1.000
1.843,-4.000,4.500,-7.500,-0.500
1.844,-3.500,4.500,-7.500,-0.500
1.845,-3.500,5.000,-7.500,0.000
1.846,-4.000,4.500,-7.000,0.000
1.847,-4.000,4.500,-7.000,0.500
1.848,-4.000,4.500,-7.000,1.000
1.849,-4.000,4.500,-6.500,1.500
1.850,-4.000,4.500,-6.000,2.000
1.851,-3.500,5.000,-5.500,2.500
1.852,-4.000,5.500,-5.000,3.000
1.853,-4.000,5.500,-4.500,3.000
1.854,-4.500,5.500,-4.000,3.500
1.855,-5.000,5.500,-3.500,4.000
1.856,-5.000,6.000,-3.000,4.500
1.857,-5.000,6.000,-2.000,5.000
1.858,-5.500,6.500,-2.000,5.500
1.859,-5.500,6.500,-1.500,5.500
1.860,-5.500,6.500,-1.500,6.000
1.861,-6.000,6.500,-1.500,6.000
1.862,-6.000,6.500,-2.000,5.500
1.863,-6.000,6.000,-3.000,5.500
1.864,-6.000,5.500,-3.500,4.500
1.865,-5.500,5.500,-4.500,4.000
1.866,-5.500,5.000,-4.500,4.000
1.867,-5.500,5.000,-5.000,4.000
1.868,-5.500,5.500,-4.500,4.500
1.869,-5.500,6.000,-4.000,5.500
1.870,-5.000,6.000,-3.500,6.000
1.871,-5.000,6.000,-3.000,6.500
1.872,-4.500,6.000,-2.500,6.500
1.873,-4.500,6.500,-2.000,7.000
1.874,-4.500,6.500,-1.500,7.000
1.875,-4.000,7.000,-1.000,7.500
1.876,-4.000,7.000,-0.500,7.500
1.877,-4.500,7.500,-0.500,8.000
1.878,-4.500,7.500,0.000,8.500
1.879,-5.000,7.500,-0.500,8.500
1.880,-5.500,7.000,-0.500,8.500
1.881,-5.500,7.000,-0.500,8.500
1.882,-6.000,7.000,0.000,9.000
1.883,-5.500,7.000,0.000,9.000
1.884,-5.000,7.500,0.500,9.500
1.885,-4.500,7.500,0.500,9.500
1.886,-4.000,7.500,0.000,9.000
1.887,-4.000,7.000,0.000,8.500
1.888,-3.500,6.500,-1.000,8.000
1.889,-3.500,6.000,-1.500,7.000
1.890,-3.000,5.500,-2.500,6.000
1.891,-3.000,5.500,-3.500,5.000
1.892,-3.000,5.000,-4.000,5.000
1.893,-3.000,5.500,-3.500,5.500
1.894,-3.000,5.500,-3.000,6.000
1.895,-3.000,6.000,-2.500,7.000
1.896,-3.000,6.000,-2.000,8.000
1.897,-3.000,6.500,-1.500,8.500
1.898,-3.000,7.000,-1.000,9.000
1.899,-3.500,7.000,-0.500,9.500
1.900,-3.500,7.500,0.500,10.000
1.901,-4.000,7.500,1.000,10.500
1.902,-4.000,8.000,2.000,11.500
1.903,-4.000,8.000,3.000,12.000
1.904,-4.000,8.500,4.000,12.500
1.905,-4.000,8.500,4.000,13.000
1.906,-4.000,8.500,4.000,13.000
1.907,-3.500,8.500,3.500,12.500
1.908,-3.500,8.000,3.500,12.500
1.909,-3.000,8.000,3.000,12.500
1.910,-2.500,8.000,3.000,13.000
1.911,-2.500,8.000,3.000,13.000
1.912,-2.000,8.000,3.000,13.000
1.913,-1.500,8.500,3.000,13.000
1.914,-1.500,8.500,3.000,12.500
1.915,-1.000,8.500,3.000,12.500
1.916,-1.000,8.500,2.500,12.000
1.917,-1.000,9.000,2.500,12.500
1.918,-1.000,9.000,3.000,12.500
1.919,-1.500,9.000,3.500,13.000
1.920,-1.500,9.000,3.500,13.500
1.921,-1.500,9.000,3.500,13.500
1.922,-1.500,9.000,3.500,13.500
1.923,-1.500,8.500,3.000,13.000
1.924,-1.000,8.500,2.000,12.500
1.925,-0.500,8.000,1.000,11.500
1.926,0.000,8.000,-0.500,10.500
1.927,0.500,8.000,-1.000,10.000
1.928,0.500,7.500,-1.500,9.000
1.929,1.000,7.500,-2.000,9.000
1.930,1.000,7.500,-1.500,8.500
1.931,1.500,7.500,-1.500,8.500
1.932,1.500,8.000,-1.000,9.000
1.933,1.500,8.000,-0.500,9.500
1.934,1.500,8.500,0.500,10.000
1.935,1.500,9.000,1.500,10.500
1.936,1.000,9.500,2.500,11.500
1.937,0.500,10.000,3.000,12.000
1.938,0.000,10.000,3.000,12.000
1.939,0.000,10.000,3.000,12.000
1.940,0.000,10.000,3.500,12.000
1.941,0.000,10.000,3.500,11.500
1.942,0.000,10.000,3.500,11.500
1.943,0.000,10.000,3.500,11.000
1.944,0.000,10.000,3.000,10.500
1.945,0.500,10.000,2.500,10.000
1.946,0.500,9.500,2.500,9.500
1.947,0.500,9.500,2.000,9.500
1.948,1.000,9.500,1.500,9.000
1.949,1.000,9.500,1.500,9.000
1.950,1.500,9.500,1.500,8.500
1.951,1.500,9.500,1.000,8.500
1.952,2.000,9.500,1.000,8.000
1.953,2.500,9.500,1.500,8.000
1.954,2.500,9.500,1.500,8.000
1.955,3.000,10.000,2.000,8.500
1.956,3.000,10.000,2.000,8.500
1.957,3.000,10.000,1.500,8.000
1.958,3.000,9.500,1.000,7.500
1.959,3.000,9.500,0.500,6.500
1.960,3.000,9.000,0.000,6.000
1.961,3.000,9.000,-0.500,5.500
1.962,3.000,9.000,-0.500,5.500
1.963,3.000,9.000,-0.500,5.500
1.964,3.000,9.000,-0.500,5.000
1.965,3.500,9.000,-0.500,5.000
1.966,3.500,9.000,-1.000,5.000
1.967,4.000,9.500,-1.000,5.000
1.968,4.500,9.500,-1.000,5.000
1.969,5.000,10.000,-1.000,5.000
1.970,5.000,10.000,-1.500,5.000
1.971,5.500,10.000,-1.500,5.000
1.972,5.500,9.500,-2.000,4.500
1.973,5.500,9.500,-2.000,4.500
1.974,5.500,9.000,-2.000,4.000
1.975,5.000,9.500,-2.000,4.000
1.976,5.000,9.500,-1.500,4.500
1.977,5.000,10.000,-1.000,4.500
1.978,4.500,10.500,-0.500,5.000
1.979,4.500,11.000,0.000,5.500
1.980,5.000,11.500,0.000,5.500
1.981,5.000,11.500,-0.500,5.500
1.982,5.500,12.000,-1.000,5.000
1.983,5.500,12.000,-1.000,5.000
1.984,5.500,11.500,-1.000,5.500
1.985,5.000,11.500,-0.500,6.000
1.986,4.500,11.500,0.000,6.500
1.987,4.500,11.000,0.500,7.000
1.988,4.000,11.500,1.000,7.000
1.989,4.000,11.500,1.500,7.500
1.990,4.500,11.500,1.500,7.500
1.991,5.000,12.000,2.000,7.500
1.992,5.000,12.000,2.000,7.500
1.993,5.500,12.500,2.000,7.500
1.994,5.500,12.500,2.000,7.500
1.995,5.500,12.500,2.000,7.500
1.996,5.500,12.500,1.500,7.500
1.997,6.000,12.500,1.000,7.000
1.998,6.000,12.500,0.500,6.500
1.999,6.500,12.500,0.500,6.500
2.000,6.500,12.500,0.000,6.000
2.001,6.500,12.500,0.000,5.500
2.002,7.000,13.000,0.500,6.000
2.003,7.000,13.000,1.000,6.000
2.004,7.000,13.500,1.500,6.500
2.005,6.500,13.500,2.000,7.000
2.006,6.500,13.500,2.500,7.500
2.007,6.500,13.500,3.000,7.500
2.008,6.500,13.000,2.500,7.500
2.009,7.000,13.000,2.000,7.000
2.010,7.500,12.500,1.000,6.500
2.011,8.000,12.500,0.500,6.000
2.012,8.500,12.500,0.500,6.000
2.013,8.500,12.500,1.000,6.500
2.014,8.000,13.000,2.000,7.000
2.015,7.500,13.000,2.500,8.000
2.016,7.500,12.500,2.500,8.000
2.017,7.000,12.500,2.500,8.000
2.018,7.000,12.500,3.000,8.000
2.019,7.000,12.500,3.500,8.500
2.020,6.500,13.000,4.000,9.500
2.021,6.500,13.500,5.000,10.500
2.022,6.500,13.500,5.500,11.000
2.023,6.500,14.000,5.500,11.000
2.024,7.000,14.000,5.000,10.500
2.025,7.500,13.500,4.500,10.000
2.026,8.000,13.500,3.500,9.000
2.027,8.500,13.500,3.000,9.000
2.028,9.000,13.500,3.500,9.000
2.029,9.500,13.500,3.500,9.000
2.030,9.500,14.000,4.000,9.500
2.031,10.000,14.500,4.500,10.000
2.032,10.000,14.500,5.000,10.000
2.033,10.000,14.000,4.500,10.000
2.034,10.000,14.000,4.000,9.500
2.035,10.000,13.500,3.500,9.000
2.036,10.000,13.500,3.000,8.500
2.037,10.000,13.500,3.000,8.500
2.038,9.500,13.500,3.000,8.500
2.039,9.000,13.500,3.000,9.000
2.040,9.000,13.500,3.500,9.500
2.041,8.500,13.500,4.500,10.000
2.042,8.500,14.000,5.000,11.000
2.043,8.500,14.000,5.500,11.000
2.044,8.500,14.000,5.500,11.000
2.045,9.000,14.000,4.500,10.500
2.046,9.000,13.500,3.500,9.500
2.047,9.500,12.500,2.500,8.500
2.048,10.000,12.500,1.500,8.000
2.049,10.500,12.500,1.000,7.500
2.050,10.500,12.500,1.500,7.500
2.051,11.000,13.000,2.500,8.500
2.052,11.000,13.000,3.000,9.000
2.053,11.000,13.500,4.000,9.500
2.054,10.500,13.000,4.000,9.500
2.055,10.500,13.000,4.000,9.500
2.056,10.500,13.000,4.000,10.000
2.057,10.500,13.500,4.500,10.000
2.058,10.000,13.500,5.000,11.000
2.059,10.000,14.000,5.500,11.500
2.060,10.000,14.000,6.000,12.000
2.061,10.000,14.000,6.000,12.000
2.062,10.500,13.500,5.500,11.500
2.063,10.500,13.500,5.500,11.500
2.064,10.500,13.500,5.500,11.500
2.065,11.000,13.500,5.500,12.000
2.066,11.000,13.500,5.500,11.500
2.067,11.000,13.500,5.000,11.500
2.068,11.500,13.500,4.500,10.500
2.069,12.000,13.500,4.000,10.000
2.070,12.000,13.500,3.500,9.500
2.071,12.000,13.000,3.500,9.500
2.072,11.500,13.000,3.500,9.500
2.073,11.000,13.000,4.000,9.500
2.074,11.000,13.500,4.500,10.500
2.075,11.000,14.000,5.500,11.500
2.076,11.000,14.500,6.500,12.500
2.077,11.000,15.000,7.500,13.000
2.078,11.000,15.500,8.000,13.500
2.079,10.500,15.500,8.000,13.500
2.080,10.500,15.500,8.000,14.000
2.081,10.000,15.500,8.000,14.000
2.082,10.000,15.500,8.500,14.000
2.083,10.000,15.500,8.000,13.500
2.084,10.000,15.500,8.000,13.500
2.085,10.500,15.000,7.500,13.000
2.086,11.000,15.000,6.500,12.500
2.087,11.500,14.500,5.500,11.500
2.088,12.500,14.500,5.000,11.000
2.089,13.000,14.000,4.500,10.000
2.090,13.000,14.000,4.000,9.500
2.091,13.000,13.500,3.500,8.500
2.092,13.500,13.500,3.500,8.500
2.093,13.500,13.500,3.500,8.500
2.094,13.500,14.000,4.500,9.000
2.095,13.500,14.500,5.000,10.000
2.096,13.500,14.500,5.500,10.500
2.097,13.500,15.000,6.000,10.500
2.098,13.000,14.500,6.000,10.500
2.099,12.500,14.500,6.000,10.500
2.100,12.500,14.500,6.000,10.500
2.101,12.500,14.500,6.500,10.500
2.102,12.500,14.500,6.500,10.500
2.103,12.500,15.000,7.000,10.500
2.104,12.500,15.000,7.000,10.500
2.105,12.500,15.000,7.500,11.000
2.106,12.500,15.000,7.500,11.000
2.107,12.500,15.500,8.000,11.500
2.108,12.500,15.500,8.000,12.000
2.109,13.000,15.500,8.000,12.000
2.110,13.500,16.000,8.000,12.000
2.111,14.000,16.000,8.000,12.000
2.112,14.500,16.500,8.500,12.000
2.113,15.000,16.500,9.000,12.000
2.114,14.500,16.500,10.000,12.500
2.115,14.500,17.000,10.500,13.000
2.116,14.500,17.000,11.000,13.500
2.117,14.000,17.000,11.500,13.500
2.118,14.000,17.500,11.500,14.000
2.119,14.000,17.500,12.000,14.000
2.120,14.000,18.000,12.500,14.500
2.121,14.000,18.000,12.500,15.000
2.122,14.000,18.500,13.000,15.500
2.123,14.000,18.500,13.000,15.500
2.124,14.000,18.500,12.500,15.000
2.125,14.500,18.000,11.500,14.500
2.126,15.000,17.500,10.500,13.500
2.127,15.500,17.000,9.000,12.500
2.128,16.000,16.500,8.000,11.500
2.129,16.500,16.000,7.000,11.000
2.130,17.000,16.000,7.000,11.000
2.131,17.000,16.500,7.500,11.500
2.132,17.000,16.500,8.000,12.000
2.133,17.000,17.000,9.000,12.500
2.134,16.500,17.000,9.500,13.000
2.135,16.500,17.500,10.500,13.500
2.136,16.500,18.000,11.000,14.000
2.137,16.500,18.500,12.000,15.000
2.138,16.000,19.000,13.000,15.500
2.139,16.000,19.500,13.000,16.000
2.140,16.000,19.500,13.000,16.000
2.141,16.000,20.000,13.000,16.500
2.142,16.000,19.500,13.000,16.500
2.143,16.000,19.500,12.500,16.000
2.144,16.000,19.500,12.500,16.000
2.145,16.000,19.500,12.500,15.500
2.146,16.000,19.500,12.000,15.000
2.147,16.000,19.000,11.000,14.500
2.148,16.000,18.500,10.000,14.000
2.149,16.000,18.000,9.500,13.500
2.150,16.000,18.000,9.500,13.500
2.151,16.000,18.000,10.000,14.000
2.152,16.000,18.000,11.000,14.500
2.153,16.500,18.500,11.500,15.000
2.154,16.500,19.000,12.000,15.500
2.155,17.000,19.500,12.500,16.000
2.156,17.000,20.000,13.000,16.500
2.157,17.000,20.500,13.000,16.500
2.158,16.500,20.500,13.500,16.500
2.159,16.000,20.500,13.500,16.500
2.160,16.000,20.000,13.500,16.500
2.161,16.000,20.000,13.500,16.500
2.162,16.000,20.000,13.500,16.500
2.163,16.000,20.000,13.000,16.000
2.164,16.000,19.500,12.000,15.500
2.165,16.000,19.000,11.000,14.500
2.166,16.000,18.500,10.000,13.500
2.167,16.500,18.500,9.000,13.000
2.168,17.000,18.500,9.000,12.500
2.169,17.500,18.500,9.000,12.500
2.170,18.000,19.000,9.000,13.000
2.171,18.500,19.500,9.500,13.000
2.172,19.000,19.500,10.000,13.500
2.173,19.500,20.000,10.000,13.500
2.174,19.500,20.000,10.500,14.000
2.175,19.500,20.500,11.500,15.000
2.176,19.000,21.000,12.500,16.000
2.177,19.000,21.500,13.500,16.500
2.178,18.500,21.500,14.500,17.500
2.179,18.500,22.000,15.000,18.000
2.180,18.000,22.000,15.500,18.000
2.181,18.000,22.000,15.500,18.000
2.182,18.000,22.000,15.500,18.000
2.183,18.000,21.500,15.000,17.500
2.184,18.000,21.500,15.000,17.000
2.185,18.500,21.500,14.500,17.000
2.186,18.500,22.000,15.000,17.000
2.187,19.000,22.000,15.000,17.500
2.188,19.500,21.500,14.500,17.500
2.189,20.000,21.500,14.500,17.500
2.190,21.000,21.500,14.000,17.000
2.191,21.500,21.500,13.500,16.500
2.192,22.000,21.500,13.500,16.000
2.193,22.000,21.000,12.500,15.500
2.194,22.000,21.000,12.000,15.000
2.195,21.500,21.000,12.500,15.000
2.196,21.000,21.500,13.500,15.500
2.197,20.500,22.000,14.500,16.500
2.198,20.500,22.000,15.500,17.500
2.199,20.000,22.000,16.000,18.000
2.200,20.000,22.000,15.500,17.500
2.201,20.500,21.500,14.500,17.000
2.202,20.500,21.000,13.500,16.000
2.203,20.500,21.000,13.000,15.500
2.204,20.500,21.000,12.500,15.500
2.205,20.500,21.500,13.000,16.000
2.206,21.000,21.500,12.500,15.500
2.207,21.000,21.500,12.500,15.500
2.208,21.500,21.500,13.000,15.500
2.209,21.500,22.000,13.500,16.000
2.210,21.500,22.500,14.000,16.500
2.211,21.500,22.500,15.000,17.000
2.212,21.500,23.000,15.500,17.500
2.213,21.500,23.000,15.500,18.000
2.214,21.500,23.000,16.000,18.500
2.215,21.500,23.000,16.500,19.000
2.216,21.500,23.500,17.000,19.500
2.217,21.500,24.000,17.500,19.500
2.218,21.500,24.500,18.000,20.000
2.219,21.500,24.500,18.000,20.000
2.220,21.500,24.500,18.000,20.000
2.221,21.500,24.000,17.500,19.500
2.222,21.500,24.000,17.000,19.000
2.223,21.500,24.000,16.500,18.500
2.224,21.000,23.500,16.500,18.000
2.225,21.000,24.000,16.500,18.500
2.226,21.500,24.000,17.000,18.500
2.227,21.500,24.000,17.500,19.000
2.228,21.500,24.000,18.000,19.000
2.229,22.000,24.000,18.000,19.500
2.230,22.000,24.000,18.000,19.500
2.231,22.000,24.000,18.000,19.000
2.232,22.000,24.000,18.000,19.000
2.233,22.500,24.000,18.000,19.000
2.234,22.500,24.000,18.500,19.000
2.235,22.500,24.500,18.500,19.500
2.236,22.500,24.500,19.000,20.000
2.237,23.000,25.000,19.500,20.500
2.238,23.000,25.000,20.000,20.500
2.239,23.000,25.500,20.500,21.000
2.240,23.000,25.500,20.500,21.000
2.241,23.000,26.000,20.500,21.500
2.242,23.500,26.500,21.000,21.500
2.243,23.500,27.000,21.000,21.500
2.244,24.000,27.000,21.000,21.500
2.245,24.000,27.000,21.000,21.500
2.246,24.500,27.000,20.500,21.000
2.247,24.500,26.500,20.000,20.500
2.248,25.500,26.000,18.500,19.500
2.249,26.000,25.500,17.500,18.000
2.250,26.500,25.000,16.000,17.000
2.251,26.500,24.500,15.000,16.500
2.252,26.500,24.000,14.500,16.000
2.253,26.500,23.500,14.000,16.000
2.254,26.000,23.500,14.500,15.500
2.255,26.000,23.500,14.500,15.500
2.256,25.500,23.500,14.500,16.000
2.257,25.000,23.000,14.500,16.000
2.258,24.500,23.000,15.000,16.000
2.259,24.000,22.500,15.000,16.000
2.260,23.000,22.000,15.000,16.000
2.261,23.000,22.000,14.500,16.000
2.262,22.500,22.000,14.000,15.500
2.263,22.500,22.000,14.000,15.000
2.264,22.500,21.500,13.500,14.500
2.265,23.000,21.500,12.500,14.000
2.266,23.500,21.500,12.000,13.500
2.267,24.000,21.500,12.000,13.500
2.268,24.500,22.000,12.000,14.000
2.269,25.000,22.500,12.500,14.000
2.270,25.500,22.500,13.000,14.500
2.271,26.000,23.000,13.500,15.000
2.272,26.500,23.500,14.500,15.500
2.273,27.000,24.000,15.000,16.000
2.274,27.000,25.000,16.000,16.500
2.275,27.000,25.500,17.500,17.500
2.276,27.000,26.000,18.500,18.500
2.277,26.500,26.500,19.500,19.500
2.278,26.000,27.000,20.000,20.500
2.279,26.000,27.000,20.500,20.500
2.280,26.000,27.000,20.500,21.000
2.281,25.500,27.500,21.000,21.000
2.282,25.500,27.500,21.500,21.500
2.283,25.500,27.500,21.500,22.000
2.284,25.500,27.500,21.500,22.000
2.285,25.500,27.500,21.500,21.500
2.286,26.000,27.000,21.000,21.000
2.287,26.000,27.000,21.000,21.000
2.288,26.000,27.000,20.500,21.000
2.289,26.500,27.000,20.500,21.000
2.290,27.000,27.000,20.500,21.000
2.291,27.000,27.000,20.500,21.000
2.292,27.500,27.000,20.500,20.500
2.293,27.500,27.000,20.500,20.500
2.294,28.000,27.000,20.500,20.500
2.295,28.500,27.000,20.500,20.500
2.296,28.500,27.500,21.000,21.000
2.297,28.500,28.000,22.000,22.000
2.298,28.500,28.500,23.000,22.500
2.299,28.000,28.500,23.500,23.500
2.300,28.000,28.500,23.500,23.500
2.301,28.000,29.000,23.500,23.500
2.302,27.500,29.000,23.500,23.500
2.303,27.500,29.000,24.000,23.500
2.304,27.500,29.000,24.000,23.500
2.305,27.500,28.500,23.500,23.000
2.306,27.500,28.500,23.500,23.000
2.307,28.000,28.500,23.000,22.500
2.308,28.000,28.000,23.000,22.500
2.309,28.500,28.000,22.500,22.000
2.310,29.000,27.500,22.000,21.500
2.311,29.500,27.500,21.000,21.000
2.312,30.000,27.500,20.500,20.500
2.313,30.000,27.500,20.500,20.500
2.314,30.000,27.500,20.500,20.500
2.315,30.000,28.000,21.000,21.000
2.316,30.000,28.500,22.000,21.500
2.317,30.000,29.000,22.500,22.000
2.318,30.000,29.000,22.500,22.000
2.319,30.000,29.000,22.500,22.500
2.320,30.000,29.000,22.500,22.500
2.321,30.000,29.000,22.500,22.500
2.322,30.000,29.000,22.000,22.000
2.323,29.500,29.000,22.000,22.000
2.324,29.500,29.000,22.000,22.000
2.325,29.500,29.000,22.500,22.500
2.326,29.500,29.000,23.000,22.500
2.327,29.500,29.500,23.500,23.000
2.328,29.500,29.500,24.500,23.500
2.329,29.500,29.500,24.500,23.500
2.330,30.000,29.500,24.500,23.500
2.331,30.500,29.500,24.000,23.500
2.332,30.500,29.500,23.500,23.500
2.333,30.500,29.500,23.500,23.500
2.334,30.500,29.500,24.500,24.000
2.335,30.500,30.000,25.000,24.500
2.336,30.000,31.000,26.000,25.000
2.337,29.500,31.000,26.500,25.500
2.338,29.500,31.500,26.500,25.500
2.339,29.500,31.500,26.500,25.500
2.340,29.500,31.000,26.000,25.000
2.341,29.500,31.000,25.500,25.000
2.342,29.000,31.000,25.500,24.500
2.343,29.000,31.000,25.500,25.000
2.344,29.000,31.000,26.000,25.500
2.345,29.000,31.000,26.500,25.500
2.346,29.000,31.000,26.500,26.000
2.347,29.500,31.000,26.500,25.500
2.348,30.000,31.000,26.000,25.500
2.349,30.500,31.500,25.500,25.000
2.350,31.000,31.000,25.000,24.500
2.351,31.000,31.000,24.000,24.000
2.352,31.500,30.500,23.500,23.000
2.353,31.500,30.500,23.000,23.000
2.354,31.500,30.000,23.000,22.500
2.355,31.500,30.500,23.000,23.000
2.356,31.500,30.500,24.000,24.000
2.357,31.500,31.000,25.000,24.500
2.358,31.500,31.500,25.500,25.000
2.359,31.000,32.000,26.000,25.500
2.360,31.000,32.000,26.000,25.500
2.361,31.000,32.500,26.500,25.500
2.362,31.000,32.500,26.500,25.000
2.363,31.000,32.500,26.500,25.000
2.364,31.500,32.500,26.500,25.000
2.365,31.500,32.500,26.500,25.000
2.366,32.000,32.500,26.500,25.000
2.367,32.000,33.000,27.000,25.000
2.368,32.000,33.000,27.500,25.000
2.369,32.500,33.000,27.500,25.500
2.370,33.000,33.500,28.000,25.500
2.371,33.500,33.500,28.000,25.500
2.372,33.500,33.500,28.500,25.500
2.373,33.500,33.500,28.500,25.500
2.374,33.500,34.000,29.000,25.500
2.375,33.000,34.000,29.000,26.000
2.376,32.500,34.000,29.500,26.000
2.377,32.500,34.000,29.500,26.000
2.378,32.500,34.000,29.000,26.000
2.379,32.000,33.500,28.500,25.500
2.380,32.000,33.500,28.000,25.000
2.381,32.500,33.500,28.000,25.000
2.382,32.500,34.000,29.000,25.500
2.383,32.500,34.500,29.500,26.500
2.384,33.000,35.000,29.500,26.500
2.385,33.500,35.000,29.500,26.500
2.386,34.500,35.000,29.000,26.000
2.387,35.000,35.000,28.500,25.500
2.388,35.500,35.000,28.500,25.000
2.389,35.500,35.000,28.500,25.000
2.390,36.000,35.500,29.000,25.500
2.391,36.000,36.000,29.500,25.500
2.392,36.000,36.000,30.000,26.000
2.393,36.000,36.000,30.500,26.000
2.394,36.000,36.000,30.500,26.000
2.395,36.000,36.000,30.500,26.000
2.396,36.000,35.500,30.500,25.500
2.397,36.000,35.500,30.000,25.000
2.398,36.000,35.000,29.500,24.500
2.399,35.500,34.500,29.000,24.500
2.400,35.500,34.500,29.000,24.500
2.401,35.500,35.000,29.000,24.500
2.402,35.000,35.500,29.500,25.000
2.403,35.000,36.500,30.500,25.500
2.404,35.500,37.000,31.500,26.000
2.405,35.000,37.000,32.000,26.000
2.406,35.000,37.000,32.000,26.000
2.407,35.000,36.500,32.000,25.500
2.408,35.500,36.500,31.500,25.000
2.409,35.500,36.000,31.000,24.500
2.410,36.000,36.000,29.500,23.000
2.411,36.500,35.500,28.000,22.000
2.412,37.000,35.000,27.000,21.000
2.413,37.000,35.000,26.500,20.500
2.414,37.000,35.000,27.000,20.500
2.415,36.500,35.000,27.500,21.000
2.416,36.500,35.500,28.000,21.500
2.417,36.000,35.500,28.500,22.000
2.418,36.000,36.500,29.500,23.000
2.419,35.500,37.000,30.500,24.000
2.420,35.500,37.500,31.000,25.000
2.421,35.000,38.000,32.000,26.000
2.422,35.000,38.500,32.500,26.500
2.423,35.000,39.000,32.500,26.500
2.424,35.000,39.000,33.000,26.500
2.425,35.500,39.000,32.500,26.500
2.426,35.500,38.500,32.500,26.000
2.427,35.500,38.500,32.500,26.000
2.428,35.500,38.000,32.000,25.500
2.429,35.500,37.500,31.500,25.000
2.430,35.500,37.000,31.000,24.500
2.431,35.500,36.500,30.000,23.500
2.432,35.500,36.000,29.000,22.500
2.433,35.000,35.000,28.000,21.500
2.434,35.000,34.500,27.000,21.000
2.435,34.500,34.000,26.500,20.500
2.436,34.000,34.000,26.000,20.000
2.437,34.000,33.500,26.000,20.000
2.438,33.500,33.500,26.000,19.500
2.439,33.500,33.000,26.500,19.500
2.440,33.000,33.500,27.000,20.000
2.441,33.000,33.500,27.000,20.500
2.442,33.000,34.000,27.500,21.000
2.443,33.000,34.500,28.500,22.000
2.444,33.000,35.000,29.000,23.000
2.445,33.000,35.000,30.000,24.000
2.446,33.000,35.500,31.000,25.000
2.447,33.500,36.000,32.000,25.500
2.448,33.500,36.500,32.500,26.500
2.449,34.000,37.000,33.500,27.500
2.450,34.000,37.000,34.000,28.000
2.451,34.000,37.500,34.500,29.000
2.452,33.500,37.500,35.000,29.500
2.453,33.500,38.000,36.000,31.000
2.454,33.500,38.500,37.500,32.500
2.455,33.500,39.000,39.000,34.000
2.456,34.000,40.000,40.500,36.000
2.457,34.000,41.500,42.500,37.500
2.458,34.500,42.500,44.000,39.500
2.459,35.500,44.000,45.500,41.500
2.460,36.500,45.000,47.000,43.000
2.461,38.000,46.500,48.500,44.500
2.462,39.500,48.000,49.500,46.000
2.463,41.000,49.500,51.000,47.000
2.464,42.000,50.500,52.000,48.000
2.465,43.500,52.000,53.000,49.000
2.466,44.500,53.000,54.500,50.500
2.467,45.500,54.000,56.500,52.500
2.468,46.500,55.500,58.500,54.500
2.469,47.500,57.000,60.500,57.000
2.470,48.500,58.500,62.500,58.500
2.471,49.500,60.000,63.500,59.500
2.472,50.500,61.000,64.000,60.000
2.473,51.500,61.500,64.500,59.500
2.474,52.500,62.000,64.000,59.000
2.475,53.500,62.500,64.000,58.000
2.476,55.000,63.500,64.000,57.500
2.477,56.000,64.000,63.500,56.500
2.478,57.500,64.500,63.500,56.000
2.479,58.500,65.000,63.500,55.500
2.480,59.000,65.500,63.000,55.000
2.481,60.000,65.500,62.000,53.500
2.482,60.000,65.000,60.500,51.500
2.483,60.500,64.500,59.000,49.000
2.484,60.500,63.500,57.000,47.000
2.485,60.000,62.500,55.000,44.500
2.486,60.000,61.500,53.500,42.500
2.487,59.500,60.500,51.500,40.500
2.488,59.500,59.500,50.500,39.000
2.489,59.000,59.000,49.000,37.000
2.490,58.500,58.000,48.000,36.000
2.491,57.500,57.000,47.000,34.500
2.492,56.000,56.000,46.500,33.500
2.493,54.500,55.000,45.500,32.500
2.494,52.500,53.500,45.000,32.000
2.495,51.000,52.000,44.000,31.500
2.496,49.500,51.000,43.500,31.000
2.497,47.500,50.000,43.000,30.500
2.498,46.000,48.500,43.000,30.000
2.499,44.500,48.000,42.500,30.000
2.500,43.000,47.500,42.500,30.000
2.501,42.000,47.000,42.000,29.500
2.502,41.500,46.500,41.500,29.500
2.503,40.500,46.000,41.000,29.000
2.504,40.000,45.000,40.500,28.500
2.505,39.000,44.500,40.000,28.000
2.506,38.500,43.500,39.500,27.500
2.507,38.500,43.000,38.500,27.000
2.508,38.500,42.500,37.500,26.000
2.509,38.500,42.000,36.000,24.500
2.510,38.500,41.000,34.500,23.000
2.511,39.000,40.500,32.500,21.500
2.512,39.000,39.500,31.000,20.000
2.513,38.500,38.500,30.000,19.000
2.514,38.000,38.500,30.000,18.500
2.515,38.000,38.500,30.500,19.000
2.516,37.500,38.500,31.000,19.000
2.517,37.500,38.500,31.000,19.500
2.518,37.000,39.000,31.500,19.500
2.519,37.000,39.000,32.000,19.500
2.520,36.500,39.000,32.500,20.000
2.521,36.000,39.000,33.000,20.500
2.522,36.000,39.500,33.500,21.000
2.523,35.500,39.500,33.500,21.000
2.524,35.500,39.500,33.500,20.500
2.525,35.500,39.000,32.500,20.000
2.526,35.500,39.000,32.000,19.500
2.527,35.500,38.500,32.000,19.500
2.528,35.500,39.000,32.500,19.500
2.529,35.500,39.000,33.000,20.500
2.530,35.000,39.000,34.000,21.000
2.531,35.000,39.000,34.000,21.000
2.532,35.000,39.000,34.500,21.000
2.533,35.000,39.000,34.500,21.000
2.534,35.000,39.000,34.500,21.000
2.535,35.000,39.500,35.000,21.500
2.536,35.000,40.000,35.500,21.500
2.537,35.000,40.000,35.500,21.500
2.538,35.000,40.000,36.000,21.500
2.539,34.500,40.000,35.500,21.500
2.540,34.500,40.000,35.000,21.000
2.541,34.500,39.500,34.000,20.000
2.542,34.000,39.000,33.000,19.000
2.543,34.000,38.500,32.000,18.000
2.544,34.000,38.500,31.500,17.500
2.545,34.000,38.000,31.000,17.000
2.546,34.000,38.000,30.500,16.500
2.547,34.500,37.500,30.000,16.000
2.548,35.000,37.500,29.500,15.500
2.549,35.000,37.500,29.000,15.500
2.550,35.500,37.500,29.000,15.500
2.551,35.500,37.500,29.500,15.500
2.552,35.500,37.500,30.000,16.000
2.553,35.000,37.500,30.500,16.000
2.554,35.000,38.000,31.500,16.500
2.555,34.500,38.000,32.500,17.500
2.556,34.000,38.500,33.000,18.000
2.557,33.500,38.500,34.000,19.000
2.558,33.000,39.000,34.000,19.000
2.559,32.500,39.000,34.000,19.500
2.560,32.500,39.000,34.000,19.000
2.561,32.000,38.500,33.500,19.000
2.562,32.000,38.500,33.000,18.500
2.563,32.500,38.500,33.000,18.500
2.564,32.500,38.500,33.000,18.500
2.565,32.500,38.500,33.000,18.500
2.566,32.500,38.500,33.000,18.500
2.567,33.000,38.000,32.500,18.000
2.568,33.000,38.000,31.500,17.500
2.569,33.000,37.500,31.000,16.500
2.570,33.000,37.000,30.000,16.000
2.571,33.000,37.000,29.500,15.500
2.572,33.000,36.500,29.000,15.000
2.573,33.000,36.000,28.500,14.500
2.574,33.000,36.000,28.000,14.500
2.575,33.000,36.000,28.500,14.500
2.576,33.000,36.000,29.500,15.000
2.577,32.500,37.000,30.500,16.000
2.578,32.000,37.500,32.000,16.500
2.579,32.000,37.500,32.500,17.000
2.580,32.000,37.500,32.000,16.500
2.581,31.500,37.000,31.500,16.000
2.582,32.000,37.000,31.000,15.500
2.583,32.000,37.000,30.500,15.000
2.584,32.000,37.000,30.500,15.000
2.585,32.500,37.500,30.500,15.000
2.586,32.500,37.500,31.000,15.500
2.587,32.500,38.000,31.500,16.000
2.588,32.500,38.000,32.000,16.500
2.589,33.000,38.000,32.000,17.000
2.590,33.000,38.000,32.000,16.500
2.591,33.500,38.000,31.500,16.500
2.592,33.500,38.000,31.000,16.000
2.593,33.500,38.000,31.000,16.000
2.594,33.500,38.000,31.000,16.000
2.595,33.500,38.000,30.500,16.000
2.596,33.500,38.000,30.500,15.500
2.597,33.500,38.000,30.000,15.000
2.598,33.500,38.000,30.000,15.000
2.599,33.500,38.000,30.500,15.000
2.600,33.000,38.000,31.000,15.500
2.601,32.500,38.000,32.000,16.000
2.602,32.500,38.000,32.500,16.000
2.603,32.000,38.000,33.000,16.500
2.604,32.000,38.000,33.000,16.500
2.605,32.000,38.000,32.500,16.000
2.606,32.000,38.000,31.500,15.500
2.607,32.500,37.500,31.000,15.000
2.608,32.500,37.500,30.500,14.500
2.609,33.000,37.000,30.500,14.500
2.610,33.000,37.000,30.000,14.000
2.611,33.000,36.500,29.500,14.000
2.612,33.000,36.000,29.000,13.000
2.613,33.500,35.500,28.500,12.500
2.614,33.500,35.500,27.500,12.000
2.615,33.000,35.500,27.500,11.500
2.616,33.000,35.500,27.500,11.500
2.617,32.500,35.500,27.500,11.500
2.618,32.500,36.000,27.500,11.500
2.619,32.000,36.000,27.500,12.000
2.620,32.000,36.000,28.000,12.000
2.621,31.500,36.500,28.500,12.500
2.622,31.500,36.500,29.000,12.500
2.623,31.500,36.500,29.500,13.000
2.624,31.000,36.500,29.500,13.000
2.625,31.000,36.500,30.000,13.000
2.626,31.000,36.500,30.000,13.000
2.627,31.500,36.000,30.500,13.000
2.628,31.500,36.500,30.500,13.500
2.629,31.500,36.000,31.000,13.500
2.630,32.000,36.000,31.000,13.500
2.631,32.000,36.000,30.500,13.000
2.632,32.000,35.500,30.500,13.000
2.633,31.500,35.500,30.500,12.500
2.634,31.500,35.500,30.500,12.500
2.635,31.000,35.500,30.500,12.500
2.636,31.000,35.500,30.500,12.500
2.637,30.500,35.500,30.500,13.000
2.638,30.000,35.000,30.500,13.000
2.639,30.000,35.000,30.000,12.500
2.640,29.500,34.500,29.500,12.000
2.641,30.000,34.500,29.500,12.000
2.642,30.000,35.000,29.500,12.000
2.643,30.000,35.000,29.500,12.000
2.644,29.500,35.000,29.500,12.000
2.645,29.500,34.500,29.500,12.000
2.646,29.500,34.000,29.000,11.500
2.647,29.500,34.000,29.000,11.500
2.648,29.500,33.500,29.000,11.500
2.649,29.500,33.500,29.000,11.500
2.650,30.000,33.500,29.000,11.500
2.651,30.000,33.000,28.500,11.000
2.652,30.000,33.000,28.000,10.500
2.653,30.000,32.500,27.000,9.500
2.654,30.000,32.000,26.000,9.000
2.655,29.500,31.500,25.500,8.000
2.656,29.500,31.500,25.000,8.000
2.657,29.500,31.500,25.500,8.000
2.658,29.000,31.500,25.500,8.000
2.659,29.000,31.500,26.000,8.500
2.660,29.000,32.000,26.500,9.000
2.661,29.000,32.000,26.500,9.000
2.662,29.000,32.000,26.500,9.000
2.663,29.000,32.500,26.000,8.500
2.664,29.000,32.000,25.500,8.000
2.665,29.000,32.000,25.000,7.500
2.666,29.000,31.500,24.500,7.000
2.667,29.000,31.000,24.500,7.000
2.668,29.000,31.000,24.500,7.500
2.669,29.000,31.000,25.000,8.000
2.670,29.000,31.000,25.000,8.000
2.671,29.000,30.500,24.500,7.500
2.672,29.000,30.500,24.500,7.500
2.673,29.000,30.500,24.500,7.500
2.674,29.000,30.500,24.500,7.500
2.675,29.000,30.500,25.000,7.500
2.676,28.500,31.000,25.500,8.000
2.677,28.500,31.000,26.000,8.500
2.678,28.000,31.000,26.500,8.500
2.679,27.500,31.000,27.000,9.000
2.680,27.000,31.000,27.500,9.500
2.681,26.500,31.000,27.500,9.500
2.682,26.000,31.000,27.500,9.500
2.683,26.000,30.500,27.500,9.500
2.684,25.500,30.500,27.000,9.500
2.685,25.500,30.500,27.000,9.500
2.686,25.500,30.000,27.000,9.500
2.687,25.000,30.000,27.000,9.500
2.688,25.000,29.500,27.000,9.500
2.689,25.000,29.500,26.500,9.000
2.690,25.500,29.000,25.500,8.500
2.691,25.500,28.500,25.000,7.500
2.692,25.500,28.000,24.500,7.500
2.693,25.500,28.000,25.000,7.500
2.694,25.000,28.000,25.500,8.000
2.695,25.000,28.500,26.000,8.500
2.696,24.500,28.500,26.000,9.000
2.697,24.500,28.500,26.000,9.000
2.698,24.000,28.500,26.000,9.000
2.699,24.000,28.000,25.500,8.500
2.700,23.500,28.000,25.000,8.000
2.701,23.500,28.000,25.000,8.000
2.702,23.500,28.000,25.500,8.500
2.703,23.500,28.500,26.500,9.000
2.704,23.500,28.500,26.500,9.500
2.705,23.500,28.000,26.500,9.500
2.706,23.500,27.500,26.500,9.500
2.707,24.000,27.500,26.000,9.000
2.708,24.000,27.000,26.000,9.000
2.709,24.500,27.000,25.500,8.500
2.710,24.500,27.000,25.500,8.500
2.711,24.500,26.500,25.000,8.000
2.712,24.500,26.000,24.000,7.000
2.713,24.500,25.500,23.000,6.000
2.714,24.500,25.000,21.500,5.000
2.715,24.500,24.000,20.000,3.500
2.716,24.500,23.500,19.000,2.500
2.717,23.500,23.000,18.000,2.000
2.718,22.500,22.500,18.000,1.500
2.719,21.500,22.000,17.500,1.500
2.720,20.500,21.500,17.500,1.500
2.721,19.500,21.500,18.000,2.000
2.722,19.000,21.000,18.000,2.500
2.723,18.500,21.000,18.000,2.000
2.724,18.500,20.500,17.500,2.000
2.725,18.500,20.500,16.500,1.500
2.726,19.000,20.000,16.500,1.000
2.727,19.500,20.500,16.500,1.000
2.728,20.000,21.000,17.000,2.000
2.729,21.000,21.500,18.000,2.500
2.730,21.500,22.500,19.000,3.000
2.731,22.000,23.000,19.000,3.500
2.732,22.500,23.500,19.500,3.500
2.733,22.500,23.500,19.500,3.500
2.734,22.500,24.000,20.000,4.000
2.735,22.500,24.000,20.500,4.500
2.736,22.500,24.500,21.000,4.500
2.737,22.000,24.500,21.500,5.000
2.738,21.500,24.500,21.500,5.000
2.739,21.500,24.500,21.500,5.000
2.740,21.000,24.500,22.000,5.500
2.741,21.000,24.500,22.000,5.500
2.742,21.000,24.500,22.500,5.500
2.743,20.500,24.500,22.500,5.500
2.744,21.000,24.500,22.500,5.500
2.745,21.000,24.500,22.500,5.500
2.746,21.500,24.500,22.000,5.500
2.747,21.500,24.500,22.000,5.000
2.748,22.000,24.500,22.000,5.000
2.749,22.000,24.500,22.000,5.000
2.750,22.500,24.500,22.000,4.500
2.751,22.500,24.000,21.500,4.000
2.752,22.500,23.500,21.000,3.500
2.753,22.500,23.500,20.500,3.000
2.754,22.000,23.000,20.000,2.000
2.755,22.000,22.500,19.500,1.500
2.756,22.000,22.500,19.000,1.000
2.757,22.000,22.500,19.000,1.000
2.758,22.000,22.500,19.000,1.000
2.759,21.500,23.000,19.000,1.000
2.760,21.500,23.000,19.000,1.000
2.761,21.500,23.000,19.000,1.000
2.762,21.500,23.000,19.000,0.500
2.763,22.000,22.500,18.500,0.000
2.764,22.000,22.500,18.000,-0.500
2.765,22.000,22.500,17.500,-1.500
2.766,22.000,22.500,17.000,-1.500
2.767,22.500,22.500,17.500,-1.500
2.768,22.500,23.000,18.000,-1.000
2.769,22.500,23.500,18.500,-1.000
2.770,23.000,23.500,19.000,-0.500
2.771,23.000,23.500,19.000,-1.000
2.772,23.000,23.000,19.000,-1.000
2.773,23.000,23.000,19.000,-1.000
2.774,22.500,23.000,19.000,-1.500
2.775,22.500,23.000,19.500,-1.000
2.776,22.500,23.000,20.000,-1.000
2.777,22.500,23.500,20.000,-0.500
2.778,22.500,23.500,20.500,-0.500
2.779,22.500,24.000,21.000,0.000
2.780,22.500,24.000,20.500,0.000
2.781,22.500,23.500,20.000,-0.500
2.782,22.500,23.500,19.500,-1.000
2.783,22.500,23.000,18.500,-2.000
2.784,22.500,22.500,17.500,-2.500
2.785,22.500,22.000,16.500,-3.500
2.786,22.500,21.500,15.500,-4.500
2.787,23.000,21.000,15.000,-5.500
2.788,23.000,20.500,14.000,-6.000
2.789,23.000,20.000,13.500,-7.000
2.790,23.000,19.500,12.500,-8.000
2.791,23.000,19.500,12.000,-9.000
2.792,23.000,19.500,11.500,-9.500
2.793,23.000,19.000,11.500,-10.000
2.794,23.000,19.500,12.000,-9.500
2.795,22.500,19.500,13.000,-8.500
2.796,22.500,20.000,14.000,-7.000
2.797,22.000,20.500,15.500,-6.000
2.798,21.500,20.500,16.000,-6.000
2.799,21.500,20.500,15.500,-6.000
2.800,21.000,20.500,15.500,-6.500
2.801,21.000,20.000,15.500,-6.500
2.802,20.500,20.000,15.500,-6.000
2.803,20.000,20.000,15.500,-6.000
2.804,19.500,19.500,15.500,-6.000
2.805,19.500,19.500,15.000,-6.000
2.806,19.500,19.000,14.500,-6.500
2.807,20.000,19.000,14.000,-6.500
2.808,20.000,19.000,14.000,-7.000
2.809,20.500,19.000,13.500,-7.500
2.810,20.500,19.500,13.500,-7.500
2.811,20.500,19.000,13.000,-8.000
2.812,20.500,19.000,12.500,-8.500
2.813,21.000,18.500,12.000,-9.000
2.814,21.000,18.500,11.500,-9.500
2.815,21.000,18.000,10.500,-10.000
2.816,21.500,17.500,9.500,-10.500
2.817,21.500,17.500,8.500,-11.500
2.818,21.000,17.000,8.500,-11.500
2.819,20.500,17.000,9.000,-11.500
2.820,20.000,17.000,9.500,-11.000
2.821,20.000,17.000,9.500,-11.000
2.822,19.500,16.500,9.000,-11.500
2.823,19.000,16.000,8.500,-12.000
2.824,19.000,15.500,8.500,-12.000
2.825,18.500,15.500,8.000,-12.500
2.826,18.500,15.500,8.000,-12.500
2.827,18.500,15.500,8.500,-12.000
2.828,18.500,15.500,8.500,-12.000
2.829,19.000,15.500,8.000,-12.000
2.830,19.000,15.500,8.000,-12.000
2.831,19.000,15.000,8.000,-12.000
2.832,19.000,15.000,8.500,-11.500
2.833,18.500,15.000,8.500,-11.500
2.834,18.500,15.000,9.000,-11.500
2.835,18.500,15.000,8.500,-11.500
2.836,18.500,15.000,8.500,-11.500
2.837,19.000,15.500,9.000,-11.000
2.838,18.500,16.000,10.000,-10.000
2.839,18.500,16.000,10.500,-9.500
2.840,18.000,16.000,11.500,-9.000
2.841,17.500,16.500,11.500,-8.500
2.842,17.000,16.500,11.500,-8.500
2.843,16.500,16.500,11.500,-8.500
2.844,16.500,16.000,11.500,-9.000
2.845,16.500,16.000,11.000,-9.000
2.846,16.500,15.000,10.500,-9.500
2.847,16.500,14.500,9.500,-10.000
2.848,16.500,14.000,9.000,-10.500
2.849,16.500,13.000,8.000,-11.500
2.850,17.000,12.500,7.000,-12.500
2.851,17.000,12.000,6.000,-13.500
2.852,17.500,11.500,5.000,-14.500
2.853,18.000,11.500,4.500,-15.000
2.854,18.000,11.500,5.000,-15.000
2.855,18.000,11.500,5.000,-15.000
2.856,18.000,11.500,5.500,-14.500
2.857,17.500,12.000,6.000,-14.500
2.858,17.500,11.500,5.500,-14.500
2.859,17.500,11.500,5.500,-14.000
2.860,17.000,11.500,5.500,-14.000
2.861,17.000,11.500,6.000,-13.500
2.862,17.000,11.500,6.500,-13.000
2.863,17.000,12.000,7.000,-12.500
2.864,17.000,12.000,7.500,-12.000
2.865,17.000,12.000,8.000,-12.000
2.866,17.000,11.500,8.000,-12.000
2.867,17.000,11.500,8.000,-12.000
2.868,16.500,11.000,8.000,-12.000
2.869,16.500,11.000,8.000,-12.000
2.870,16.500,11.000,8.000,-12.000
2.871,16.500,11.000,8.000,-12.500
2.872,16.500,11.000,7.500,-12.500
2.873,16.000,11.000,7.500,-12.500
2.874,16.500,11.000,7.500,-12.500
2.875,16.500,11.000,7.500,-13.000
2.876,16.500,10.500,7.000,-13.500
2.877,16.500,10.500,6.500,-14.000
2.878,16.500,10.500,6.000,-14.500
2.879,16.500,10.000,5.500,-14.500
2.880,16.500,10.000,5.000,-14.500
2.881,16.500,10.000,5.000,-14.500
2.882,16.500,9.500,4.500,-14.500
2.883,16.500,9.500,4.000,-15.000
2.884,16.500,9.000,3.500,-16.000
2.885,16.000,9.000,3.000,-16.500
2.886,16.000,8.500,2.500,-16.500
2.887,16.000,8.500,2.500,-16.500
2.888,16.000,8.500,2.500,-16.000
2.889,16.000,8.500,3.000,-16.000
2.890,16.500,9.000,4.000,-15.500
2.891,16.500,9.000,4.500,-14.500
2.892,16.500,9.500,5.500,-14.000
2.893,16.500,9.500,6.000,-13.500
2.894,16.500,9.500,6.500,-13.000
2.895,16.500,10.000,7.000,-12.500
2.896,16.500,10.000,7.000,-12.500
2.897,16.000,10.000,7.500,-12.500
2.898,16.000,10.000,7.500,-12.000
2.899,16.000,10.500,8.000,-12.000
2.900,15.500,10.500,8.000,-12.000
2.901,15.000,10.500,8.000,-11.500
2.902,15.000,10.000,8.000,-12.000
2.903,15.000,10.000,7.500,-12.000
2.904,15.000,9.500,6.500,-13.000
2.905,15.500,9.000,5.500,-14.000
2.906,16.000,8.500,4.500,-15.000
2.907,16.500,8.000,4.000,-15.500
2.908,16.500,8.000,3.500,-16.000
2.909,17.000,7.500,3.000,-16.000
2.910,17.000,7.000,2.500,-16.500
2.911,17.000,7.000,2.000,-16.500
2.912,17.000,6.500,2.000,-16.500
2.913,16.500,6.500,2.500,-16.500
2.914,16.500,6.500,3.000,-16.000
2.915,16.000,7.000,3.500,-16.000
2.916,16.000,7.500,4.000,-15.500
2.917,16.500,8.000,4.500,-15.000
2.918,16.000,8.500,5.500,-14.500
2.919,16.000,9.000,6.500,-13.500
2.920,15.500,9.500,7.500,-13.000
2.921,15.000,9.500,7.500,-12.500
2.922,15.000,9.500,7.500,-12.500
2.923,14.500,9.000,7.500,-13.000
2.924,14.500,9.000,6.500,-13.500
2.925,14.500,8.500,6.000,-14.000
2.926,15.000,8.500,5.500,-14.500
2.927,15.500,8.500,5.500,-14.500
2.928,15.500,8.000,5.000,-14.500
2.929,16.000,8.000,5.000,-14.500
2.930,16.000,8.000,5.000,-14.500
2.931,16.000,8.000,5.500,-14.000
2.932,16.000,8.000,5.500,-14.000
2.933,15.500,8.000,5.500,-14.000
2.934,15.500,8.000,6.000,-14.000
2.935,15.500,8.000,6.000,-14.000
2.936,15.500,8.000,5.500,-14.000
2.937,15.500,8.000,5.000,-14.500
2.938,15.500,8.000,4.500,-15.000
2.939,16.000,8.000,4.000,-15.000
2.940,16.000,8.000,3.500,-15.000
2.941,16.000,8.500,4.000,-15.000
2.942,16.000,8.500,4.000,-15.000
2.943,16.000,8.500,4.000,-15.000
2.944,15.500,8.500,4.000,-15.000
2.945,15.500,8.500,3.500,-15.500
2.946,15.000,8.500,3.500,-15.500
2.947,15.000,8.500,3.500,-15.500
2.948,15.000,8.500,4.000,-15.500
2.949,15.500,8.500,4.000,-15.000
2.950,15.500,8.500,4.500,-14.500
2.951,15.500,8.500,4.500,-14.500
2.952,15.500,8.500,4.500,-14.500
2.953,15.500,8.000,5.000,-15.000
2.954,15.500,8.000,5.000,-15.000
2.955,15.500,8.000,5.000,-14.500
2.956,15.500,8.000,5.000,-14.500
2.957,15.500,8.000,5.000,-14.000
2.958,15.000,8.000,5.000,-14.000
2.959,15.000,8.000,5.000,-14.000
2.960,15.000,8.000,4.500,-14.500
2.961,15.000,7.500,4.000,-15.000
2.962,15.000,7.500,4.000,-15.000
2.963,14.500,7.500,4.000,-15.000
2.964,14.500,7.500,3.500,-15.500
2.965,14.500,7.000,3.500,-15.500
2.966,14.500,6.500,3.000,-16.000
2.967,14.500,6.000,2.000,-16.500
2.968,14.500,5.500,1.500,-17.000
2.969,14.000,5.500,1.500,-17.500
2.970,14.000,5.500,1.500,-17.000
2.971,14.000,5.500,2.000,-17.000
2.972,14.000,6.000,2.000,-17.000
2.973,14.000,6.000,2.000,-17.000
2.974,14.000,5.500,2.000,-17.000
2.975,14.000,5.500,2.000,-17.000
2.976,14.000,6.000,2.500,-16.500
2.977,13.500,6.000,3.000,-16.000
2.978,13.500,6.500,3.500,-16.000
2.979,13.000,6.500,3.500,-16.000
2.980,12.500,6.500,3.000,-16.000
2.981,12.000,6.000,2.500,-16.000
2.982,12.000,6.000,2.500,-16.000
2.983,12.000,6.000,2.500,-16.000
2.984,12.000,6.000,3.000,-16.000
2.985,12.000,5.500,2.500,-16.000
2.986,11.500,5.500,2.500,-16.000
2.987,12.000,5.000,1.500,-16.500
2.988,12.000,4.500,0.500,-17.500
2.989,12.500,4.500,-0.500,-19.000
2.990,13.000,4.000,-1.500,-20.000
2.991,13.500,3.500,-2.500,-21.000
2.992,13.500,3.500,-3.000,-21.000
2.993,13.000,3.000,-3.000,-21.000
2.994,12.000,3.000,-2.000,-20.500
2.995,11.500,2.500,-1.500,-20.000
2.996,10.500,3.000,-0.500,-19.000
2.997,10.500,3.000,0.000,-19.000
2.998,10.000,3.000,0.000,-19.000
2.999,10.000,3.000,-0.500,-19.000
3.000,10.000,3.000,-1.000,-19.500
3.001,10.000,2.500,-1.500,-20.000
3.002,10.000,2.500,-2.000,-20.500
3.003,10.000,2.500,-2.000,-21.000
3.004,10.000,2.500,-2.000,-21.000
3.005,10.000,2.500,-2.000,-21.000
3.006,10.000,2.500,-2.000,-21.000
3.007,10.000,3.000,-2.000,-20.500
3.008,10.000,3.000,-1.500,-20.000
3.009,10.000,3.000,-1.000,-19.500
3.010,10.500,3.000,-1.000,-19.500
3.011,10.500,3.000,-0.500,-19.500
3.012,10.500,3.000,-0.500,-19.500
3.013,10.500,3.000,-0.500,-19.500
3.014,10.500,2.500,-0.500,-19.500
3.015,10.500,2.500,-0.500,-19.500
3.016,10.000,3.000,-0.500,-19.500
3.017,9.500,2.500,-0.500,-19.500
3.018,9.000,2.500,-1.000,-20.000
3.019,8.500,2.500,-1.500,-20.000
3.020,8.500,2.000,-2.000,-20.500
3.021,8.000,1.500,-2.500,-21.000
3.022,8.000,1.500,-3.000,-21.000
3.023,8.000,1.000,-3.500,-21.500
3.024,8.000,1.000,-3.500,-21.500
3.025,8.500,1.000,-4.000,-22.000
3.026,8.500,1.000,-4.000,-22.000
3.027,9.000,1.500,-4.000,-22.000
3.028,9.500,1.500,-4.000,-22.000
3.029,10.000,1.500,-4.000,-22.000
3.030,10.000,1.500,-4.000,-22.000
3.031,10.000,1.000,-4.000,-22.000
3.032,9.500,1.000,-4.000,-22.000
3.033,9.000,1.000,-3.500,-21.500
3.034,9.000,1.000,-3.500,-21.000
3.035,8.500,1.000,-3.000,-21.000
3.036,8.500,1.000,-3.000,-21.000
3.037,8.000,1.000,-3.500,-21.500
3.038,8.000,1.000,-3.500,-21.500
3.039,8.000,1.000,-3.500,-21.000
3.040,7.500,1.500,-3.000,-20.500
3.041,7.500,2.000,-2.000,-20.000
3.042,7.500,2.000,-1.500,-19.500
3.043,7.500,2.500,-1.500,-19.500
3.044,7.500,3.000,-1.500,-19.500
3.045,7.500,3.000,-1.500,-19.500
3.046,8.000,3.000,-1.500,-19.500
3.047,8.000,2.500,-2.000,-19.500
3.048,8.500,2.500,-2.000,-19.500
3.049,8.500,2.000,-2.000,-20.000
3.050,8.500,2.000,-2.500,-20.500
3.051,9.000,1.500,-3.500,-21.000
3.052,9.000,1.000,-4.000,-21.500
3.053,9.500,0.500,-5.000,-22.500
3.054,9.500,0.500,-6.000,-23.000
3.055,10.000,0.500,-6.000,-23.500
3.056,10.000,0.500,-6.000,-24.000
3.057,10.000,0.500,-6.000,-24.000
3.058,9.500,0.500,-6.000,-23.500
3.059,9.000,0.500,-5.500,-23.500
3.060,9.000,0.500,-5.000,-23.000
3.061,8.500,0.500,-5.000,-23.000
3.062,8.500,0.500,-5.000,-22.500
3.063,8.500,0.500,-5.000,-22.500
3.064,8.500,0.500,-5.000,-22.500
3.065,9.000,0.500,-5.500,-23.000
3.066,9.500,0.500,-5.500,-23.500
3.067,9.500,0.000,-6.000,-24.000
3.068,10.000,0.000,-6.000,-24.000
3.069,10.000,0.000,-5.500,-23.500
3.070,10.000,0.500,-5.000,-23.000
3.071,10.000,0.500,-4.500,-22.500
3.072,10.000,0.500,-4.000,-22.500
3.073,10.000,0.500,-4.500,-23.000
3.074,9.500,0.000,-5.000,-23.500
3.075,9.500,0.000,-5.500,-23.500
3.076,9.000,0.000,-5.500,-23.000
3.077,8.500,0.500,-4.500,-22.500
3.078,7.500,0.500,-3.500,-21.500
3.079,7.000,1.000,-3.000,-21.000
3.080,6.500,1.000,-2.500,-20.500
3.081,6.500,1.000,-2.500,-20.000
3.082,6.500,1.000,-2.500,-20.000
3.083,6.500,1.500,-2.500,-19.500
3.084,7.000,1.500,-2.500,-20.000
3.085,7.000,1.500,-3.500,-20.000
3.086,7.000,1.000,-4.000,-21.000
3.087,7.500,1.000,-5.000,-21.500
3.088,7.500,0.500,-6.000,-22.500
3.089,8.000,-0.500,-7.500,-24.000
3.090,8.000,-1.000,-8.500,-25.000
3.091,8.500,-1.000,-9.500,-26.000
3.092,8.500,-1.500,-10.000,-26.500
3.093,9.000,-1.000,-10.000,-27.000
3.094,9.000,-1.000,-9.500,-27.000
3.095,9.000,-1.000,-9.500,-27.000
3.096,8.500,-1.000,-9.500,-26.500
3.097,8.500,-0.500,-9.000,-26.000
3.098,8.000,-0.500,-8.500,-25.500
3.099,7.500,-0.500,-8.000,-25.000
3.100,7.000,-0.500,-7.500,-24.500
3.101,6.500,-0.500,-6.500,-23.500
3.102,6.500,0.000,-6.000,-23.000
3.103,6.500,0.000,-5.500,-22.500
3.104,6.500,0.000,-5.000,-22.000
3.105,6.500,0.000,-5.000,-22.500
3.106,6.500,-0.500,-5.500,-22.500
3.107,6.500,-0.500,-5.500,-23.000
3.108,6.500,-1.000,-6.000,-23.500
3.109,6.500,-1.000,-6.500,-24.000
3.110,6.500,-1.000,-6.500,-24.000
3.111,6.500,-1.500,-7.000,-24.500
3.112,7.000,-1.500,-7.500,-24.500
3.113,7.000,-1.500,-8.500,-25.000
3.114,7.000,-2.000,-9.000,-25.500
3.115,6.500,-2.500,-9.000,-26.000
3.116,6.500,-2.500,-9.000,-26.000
3.117,6.000,-2.500,-8.000,-25.500
3.118,5.500,-2.000,-7.500,-25.000
3.119,5.000,-2.000,-7.000,-24.500
3.120,5.000,-2.000,-7.000,-24.000
3.121,4.500,-2.000,-7.000,-24.000
3.122,4.500,-2.000,-7.500,-24.500
3.123,4.500,-2.000,-8.500,-25.000
3.124,4.500,-2.500,-9.500,-26.000
3.125,5.000,-3.000,-10.500,-26.500
3.126,5.000,-3.500,-11.000,-27.000
3.127,5.000,-4.000,-11.500,-27.000
3.128,5.000,-4.500,-11.500,-27.500
3.129,5.000,-4.500,-11.500,-27.500
3.130,5.000,-5.000,-12.000,-28.000
3.131,5.000,-5.500,-13.000,-29.000
3.132,5.000,-6.000,-14.000,-30.000
3.133,5.500,-6.000,-14.500,-30.000
3.134,5.000,-5.500,-14.000,-30.000
3.135,5.000,-5.500,-13.500,-29.500
3.136,5.000,-5.000,-12.500,-29.000
3.137,4.500,-4.500,-11.500,-28.500
3.138,4.500,-4.500,-11.500,-28.500
3.139,4.000,-5.000,-11.000,-28.000
3.140,3.500,-5.000,-10.500,-27.500
3.141,3.500,-5.000,-10.000,-27.000
3.142,3.000,-4.500,-10.000,-26.500
3.143,3.000,-4.500,-9.500,-26.000
3.144,3.000,-4.500,-9.500,-25.500
3.145,3.000,-4.500,-9.500,-25.500
3.146,3.500,-4.500,-9.500,-26.000
3.147,3.500,-4.500,-10.000,-26.000
3.148,4.000,-4.500,-10.000,-26.000
3.149,4.000,-5.000,-10.500,-26.500
3.150,4.500,-5.000,-10.500,-26.500
3.151,5.000,-5.000,-11.000,-27.000
3.152,5.000,-5.000,-11.500,-28.000
3.153,5.500,-5.000,-12.500,-28.500
3.154,5.500,-5.500,-12.500,-29.000
3.155,5.500,-5.000,-12.500,-29.000
3.156,5.000,-4.500,-11.500,-28.500
3.157,5.000,-4.000,-11.000,-27.500
3.158,4.500,-4.000,-10.500,-27.500
3.159,4.500,-3.500,-10.000,-27.500
3.160,4.500,-3.500,-10.500,-28.000
3.161,4.500,-4.000,-11.000,-29.000
3.162,5.000,-4.500,-12.000,-29.500
3.163,5.000,-5.000,-13.000,-30.000
3.164,5.000,-5.000,-13.500,-30.000
3.165,5.000,-5.000,-14.000,-30.000
3.166,5.000,-5.000,-13.500,-29.500
3.167,5.000,-5.000,-13.500,-29.500
3.168,5.500,-5.000,-13.500,-29.500
3.169,5.500,-5.000,-13.500,-30.000
3.170,6.000,-5.000,-14.000,-30.500
3.171,6.000,-5.500,-14.500,-30.500
3.172,5.500,-5.500,-14.500,-31.000
3.173,5.500,-5.500,-14.500,-30.500
3.174,5.000,-5.000,-13.500,-29.500
3.175,4.500,-5.000,-12.500,-29.000
3.176,4.500,-4.500,-11.500,-28.000
3.177,4.000,-4.500,-11.000,-28.000
3.178,3.500,-5.000,-11.000,-28.000
3.179,3.000,-5.500,-11.500,-28.500
3.180,2.500,-6.000,-12.500,-29.500
3.181,2.500,-6.500,-13.000,-30.000
3.182,2.000,-7.000,-14.000,-30.000
3.183,1.500,-7.500,-14.000,-30.500
3.184,1.500,-8.000,-14.500,-30.500
3.185,1.000,-8.500,-15.000,-31.000
3.186,0.500,-9.000,-15.500,-31.500
3.187,0.500,-9.000,-16.000,-32.000
3.188,1.000,-9.500,-16.500,-32.000
3.189,1.500,-9.000,-16.500,-32.000
3.190,2.500,-8.500,-16.000,-32.000
3.191,3.000,-8.000,-16.000,-32.000
3.192,4.000,-7.500,-16.000,-32.000
3.193,5.000,-7.000,-16.000,-32.000
3.194,6.000,-6.500,-16.000,-32.000
3.195,6.500,-6.000,-16.000,-32.000
3.196,6.500,-5.500,-15.000,-31.500
3.197,6.500,-5.500,-14.500,-31.000
3.198,6.000,-5.000,-14.000,-31.000
3.199,6.000,-5.000,-14.500,-31.000
3.200,5.500,-5.500,-14.500,-31.500
3.201,5.500,-5.500,-15.000,-32.000
3.202,5.500,-5.500,-15.000,-32.000
3.203,5.500,-5.500,-14.500,-31.500
3.204,5.500,-5.000,-14.000,-31.000
3.205,5.000,-5.000,-14.000,-31.000
3.206,5.000,-5.500,-14.000,-31.000
3.207,5.000,-5.500,-14.500,-31.000
3.208,5.000,-6.000,-14.500,-31.500
3.209,5.000,-6.000,-14.500,-31.000
3.210,5.000,-6.000,-14.500,-31.000
3.211,5.000,-5.500,-14.000,-30.500
3.212,5.000,-5.500,-13.500,-30.500
3.213,5.000,-6.000,-13.500,-30.000
3.214,4.500,-6.000,-13.000,-30.000
3.215,4.500,-6.000,-13.000,-29.500
3.216,4.500,-6.000,-12.500,-29.500
3.217,4.500,-5.500,-12.000,-29.000
3.218,4.000,-5.500,-12.000,-28.500
3.219,4.000,-5.500,-11.500,-28.500
3.220,3.500,-5.000,-11.500,-28.000
3.221,4.000,-4.500,-11.000,-28.000
3.222,4.000,-4.500,-11.000,-28.000
3.223,4.000,-4.500,-11.500,-28.000
3.224,4.000,-5.000,-11.500,-28.500
3.225,4.000,-5.500,-12.500,-29.000
3.226,4.000,-6.000,-13.000,-29.500
3.227,3.500,-6.500,-13.500,-30.000
3.228,3.500,-7.000,-14.500,-31.000
3.229,3.500,-7.500,-15.000,-31.500
3.230,3.000,-8.000,-15.500,-32.000
3.231,2.500,-8.500,-16.000,-32.500
3.232,2.000,-9.000,-17.000,-33.500
3.233,1.500,-9.500,-17.500,-34.000
3.234,1.000,-10.000,-18.000,-34.500
3.235,1.000,-10.000,-18.500,-34.500
3.236,0.500,-10.500,-18.500,-35.000
3.237,0.500,-10.500,-19.000,-35.000
3.238,0.500,-10.500,-19.000,-35.000
3.239,0.000,-10.500,-19.500,-35.500
3.240,0.000,-10.500,-19.500,-35.500
3.241,-0.500,-10.500,-20.000,-35.000
3.242,-0.500,-10.500,-19.500,-34.500
3.243,0.000,-10.000,-19.000,-33.500
3.244,0.500,-9.000,-18.500,-33.000
3.245,0.500,-9.000,-17.500,-32.000
3.246,1.000,-8.500,-17.000,-31.000
3.247,1.000,-8.500,-16.500,-30.500
3.248,1.500,-8.000,-15.500,-29.000
3.249,2.000,-7.500,-14.500,-28.000
3.250,2.500,-7.000,-13.500,-27.000
3.251,2.500,-6.500,-13.000,-26.500
3.252,3.000,-6.500,-13.000,-26.000
3.253,2.500,-6.500,-12.500,-25.500
3.254,2.500,-6.000,-12.000,-25.000
3.255,3.000,-5.500,-11.500,-24.000
3.256,3.500,-4.500,-10.000,-22.500
3.257,4.500,-3.500,-8.500,-21.000
3.258,5.500,-2.000,-7.000,-19.000
3.259,6.500,-0.500,-5.000,-17.000
3.260,7.500,1.500,-2.500,-14.500
3.261,8.000,3.500,0.000,-12.000
3.262,9.000,5.000,3.000,-9.500
3.263,10.000,6.500,5.000,-7.000
3.264,11.000,8.000,6.500,-5.500
3.265,12.000,9.000,7.500,-4.000
3.266,13.000,10.000,8.500,-3.000
3.267,14.500,11.000,9.000,-2.500
3.268,16.000,12.500,10.500,-1.000
3.269,17.000,13.500,11.500,0.000
3.270,18.000,14.000,12.000,0.000
3.271,19.000,14.500,12.000,0.000
3.272,20.000,15.000,11.500,-1.000
3.273,20.500,15.000,11.000,-2.000
3.274,21.500,15.500,10.500,-2.500
3.275,22.500,16.500,10.500,-3.500
3.276,23.500,17.000,10.500,-4.000
3.277,24.500,17.500,10.500,-4.500
3.278,25.500,17.500,10.000,-5.000
3.279,26.000,17.500,9.000,-6.500
3.280,26.500,17.000,7.500,-8.500
3.281,26.500,16.500,5.500,-10.500
3.282,26.500,15.500,3.500,-12.500
3.283,26.500,14.500,1.500,-14.500
3.284,26.000,14.000,0.000,-16.000
3.285,25.500,13.000,-1.500,-17.500
3.286,25.000,12.000,-3.000,-19.000
3.287,24.000,11.000,-4.500,-21.000
3.288,23.500,9.500,-6.500,-23.000
3.289,22.500,8.500,-8.500,-24.500
3.290,21.500,7.000,-10.000,-26.000
3.291,20.000,6.000,-11.000,-27.500
3.292,19.000,5.000,-11.500,-28.000
3.293,17.500,4.000,-11.500,-28.500
3.294,16.000,3.000,-11.500,-28.500
3.295,14.500,2.000,-11.500,-28.500
3.296,13.000,1.500,-11.500,-28.500
3.297,12.000,1.000,-11.500,-28.500
3.298,11.000,0.000,-12.500,-29.500
3.299,9.500,-0.500,-13.500,-30.000
3.300,8.500,-1.500,-14.500,-31.000
3.301,7.500,-2.500,-15.500,-31.500
3.302,6.500,-3.500,-16.500,-32.500
3.303,6.000,-4.500,-17.000,-33.000
3.304,5.500,-5.500,-18.000,-34.000
3.305,5.000,-6.000,-18.500,-34.500
3.306,4.500,-6.000,-19.000,-34.500
3.307,4.000,-6.500,-19.000,-34.500
3.308,3.500,-6.000,-18.500,-34.500
3.309,3.500,-6.000,-18.500,-34.500
3.310,3.500,-6.000,-18.500,-34.500
3.311,3.500,-6.000,-18.500,-35.000
3.312,3.500,-6.500,-18.500,-35.500
3.313,3.500,-6.500,-19.000,-35.500
3.314,3.500,-6.500,-19.000,-36.000
3.315,3.500,-6.500,-19.000,-36.000
3.316,3.000,-6.500,-19.500,-36.000
3.317,3.000,-6.500,-20.000,-36.000
3.318,2.500,-7.000,-20.500,-37.000
3.319,2.000,-7.500,-21.500,-37.500
3.320,2.000,-8.000,-22.500,-38.000
3.321,1.500,-8.500,-23.000,-38.500
3.322,1.500,-8.500,-23.000,-38.500
3.323,1.500,-8.500,-23.500,-38.500
3.324,1.500,-8.500,-23.500,-38.500
3.325,1.500,-8.500,-23.500,-38.500
3.326,1.500,-8.500,-24.000,-38.500
3.327,2.000,-9.000,-24.500,-39.000
3.328,2.000,-9.000,-24.500,-39.000
3.329,2.000,-9.000,-25.000,-39.500
3.330,2.500,-9.000,-25.000,-39.500
3.331,2.500,-9.000,-25.000,-39.500
3.332,3.000,-9.000,-25.000,-39.500
3.333,3.000,-9.000,-25.500,-39.500
3.334,3.000,-9.000,-25.000,-39.500
3.335,2.500,-8.500,-24.500,-39.000
3.336,2.500,-8.500,-23.500,-38.500
3.337,2.000,-8.000,-22.500,-38.000
3.338,1.500,-8.000,-21.500,-37.500
3.339,1.000,-8.000,-21.500,-37.000
3.340,1.000,-8.000,-21.500,-37.000
3.341,0.500,-8.000,-21.500,-37.000
3.342,0.500,-8.000,-21.500,-36.500
3.343,0.500,-8.000,-21.500,-37.000
3.344,0.500,-8.000,-22.000,-37.000
3.345,0.500,-8.500,-22.500,-37.500
3.346,0.000,-9.000,-23.500,-38.500
3.347,0.000,-9.500,-24.500,-39.500
3.348,0.000,-10.000,-25.500,-40.500
3.349,-0.500,-11.000,-27.000,-41.500
3.350,-0.500,-11.500,-27.500,-42.500
3.351,-0.500,-12.000,-28.500,-43.000
3.352,-0.500,-12.500,-29.000,-43.500
3.353,-0.500,-12.500,-28.500,-43.500
3.354,-1.000,-12.000,-28.000,-43.500
3.355,-1.000,-11.500,-27.500,-42.500
3.356,-1.000,-11.000,-26.000,-41.500
3.357,-1.500,-10.500,-25.500,-40.500
3.358,-1.500,-10.500,-25.000,-40.000
3.359,-1.500,-10.500,-24.500,-40.000
3.360,-1.500,-10.500,-25.000,-40.000
3.361,-1.500,-11.000,-25.500,-40.000
3.362,-1.500,-11.500,-26.000,-40.500
3.363,-1.500,-11.500,-26.000,-41.000
3.364,-1.500,-11.500,-26.000,-41.000
3.365,-1.500,-11.500,-25.500,-41.000
3.366,-2.000,-11.000,-25.000,-40.500
3.367,-2.000,-11.000,-25.000,-40.500
3.368,-2.000,-11.000,-25.000,-40.500
3.369,-1.500,-11.000,-25.500,-40.500
3.370,-1.500,-11.000,-25.500,-40.500
3.371,-1.000,-11.000,-25.500,-41.000
3.372,-1.000,-11.000,-25.500,-41.000
3.373,-1.000,-11.000,-25.500,-41.000
3.374,-1.000,-10.500,-25.500,-41.000
3.375,-1.000,-10.500,-25.500,-41.000
3.376,-1.500,-10.500,-25.000,-41.000
3.377,-1.500,-10.500,-25.000,-41.000
3.378,-1.500,-10.500,-25.500,-41.500
3.379,-1.500,-11.000,-26.000,-42.000
3.380,-1.500,-11.500,-26.500,-42.500
3.381,-1.500,-11.500,-27.500,-43.000
3.382,-1.500,-11.500,-28.000,-43.000
3.383,-1.000,-11.500,-28.000,-43.000
3.384,-0.500,-11.500,-28.500,-43.000
3.385,-0.500,-11.500,-29.000,-43.000
3.386,-0.500,-12.000,-29.500,-43.000
3.387,-0.500,-12.000,-29.500,-43.000
3.388,-1.000,-12.500,-29.500,-43.000
3.389,-1.000,-12.500,-29.000,-43.000
3.390,-1.000,-12.500,-29.000,-43.000
3.391,-1.000,-12.000,-29.000,-43.000
3.392,-1.000,-12.000,-28.500,-43.000
3.393,-1.000,-11.500,-28.500,-42.500
3.394,-0.500,-11.000,-28.000,-42.000
3.395,-0.500,-10.500,-27.500,-41.500
3.396,-0.500,-10.500,-27.500,-41.500
3.397,-0.500,-10.500,-27.500,-41.500
3.398,-0.500,-10.500,-28.000,-42.000
3.399,-0.500,-10.500,-27.500,-42.000
3.400,-1.000,-10.500,-27.000,-41.500
3.401,-1.500,-10.500,-27.000,-41.000
3.402,-1.500,-10.500,-27.000,-41.000
3.403,-1.500,-10.500,-27.000,-41.000
3.404,-1.500,-10.500,-28.000,-42.000
3.405,-1.000,-11.000,-28.500,-42.500
3.406,-1.000,-11.000,-29.000,-43.000
3.407,-0.500,-11.000,-29.500,-43.500
3.408,-0.500,-11.500,-30.000,-44.000
3.409,0.000,-11.500,-30.500,-44.500
3.410,0.000,-11.500,-30.500,-44.000
3.411,0.000,-11.000,-30.000,-44.000
3.412,-0.500,-11.000,-29.500,-43.500
3.413,-1.000,-11.000,-28.500,-43.000
3.414,-1.000,-11.000,-28.000,-42.500
3.415,-1.500,-11.000,-27.500,-42.000
3.416,-1.500,-11.000,-27.500,-41.500
3.417,-1.500,-10.500,-27.000,-41.000
3.418,-1.500,-10.500,-26.500,-40.500
3.419,-1.500,-10.000,-26.000,-40.000
3.420,-1.500,-9.500,-25.500,-39.500
3.421,-1.000,-9.500,-25.000,-39.500
3.422,-1.000,-9.000,-25.500,-39.500
3.423,-1.000,-9.000,-26.000,-40.000
3.424,-0.500,-9.500,-27.000,-41.000
3.425,-0.500,-10.000,-28.500,-42.500
3.426,0.000,-10.500,-30.000,-43.500
3.427,0.000,-10.500,-31.000,-44.500
3.428,0.500,-10.500,-31.000,-45.000
3.429,0.500,-11.000,-31.500,-45.000
3.430,0.500,-11.000,-31.500,-45.000
3.431,0.500,-11.000,-32.000,-45.500
3.432,0.500,-11.500,-32.000,-45.500
3.433,0.500,-11.000,-31.500,-45.000
3.434,0.500,-11.000,-31.000,-44.500
3.435,0.000,-10.500,-30.500,-43.500
3.436,0.000,-10.500,-29.500,-43.000
3.437,-0.500,-10.500,-29.000,-42.500
3.438,-0.500,-10.000,-29.000,-42.000
3.439,-1.000,-10.000,-29.000,-42.000
3.440,-1.000,-10.000,-29.000,-42.000
3.441,-1.500,-10.000,-29.000,-42.000
3.442,-1.500,-10.000,-29.000,-42.000
3.443,-1.500,-10.000,-29.000,-42.000
3.444,-1.500,-10.000,-28.500,-42.000
3.445,-1.500,-10.000,-28.500,-41.500
3.446,-1.000,-10.000,-28.000,-41.500
3.447,-1.000,-9.500,-27.500,-41.000
3.448,-0.500,-9.500,-27.000,-41.000
3.449,-0.500,-9.000,-27.000,-40.500
3.450,0.000,-9.000,-27.000,-40.500
3.451,0.000,-9.000,-27.000,-40.500
3.452,-0.500,-9.500,-27.000,-40.500
3.453,-0.500,-9.500,-27.000,-41.000
3.454,-0.500,-10.000,-27.000,-40.500
3.455,-1.000,-10.000,-26.500,-40.500
3.456,-1.000,-9.500,-26.500,-40.500
3.457,-1.000,-9.500,-26.500,-40.000
3.458,-1.000,-9.500,-26.500,-40.000
3.459,-1.000,-9.500,-26.500,-40.500
3.460,-1.500,-10.000,-27.000,-41.000
3.461,-1.500,-10.500,-28.000,-41.500
3.462,-2.000,-11.000,-29.000,-42.000
3.463,-1.500,-11.000,-29.500,-42.500
3.464,-1.500,-11.000,-30.000,-43.000
3.465,-1.000,-11.000,-30.500,-43.000
3.466,-0.500,-11.000,-30.500,-42.500
3.467,-0.500,-11.000,-30.000,-42.500
3.468,0.000,-11.000,-30.000,-42.500
3.469,0.500,-10.500,-29.500,-42.000
3.470,0.500,-10.500,-29.500,-42.000
3.471,0.500,-10.000,-29.000,-41.500
3.472,0.500,-10.000,-28.500,-41.500
3.473,0.500,-10.000,-28.000,-41.000
3.474,0.000,-10.000,-27.500,-40.000
3.475,-0.500,-9.500,-26.500,-39.500
3.476,-0.500,-9.000,-25.500,-38.500
3.477,-1.000,-8.500,-24.500,-37.500
3.478,-1.000,-8.000,-23.500,-37.000
3.479,-1.500,-8.000,-23.500,-36.500
3.480,-1.500,-8.000,-24.000,-37.000
3.481,-1.500,-8.000,-24.500,-37.500
3.482,-1.500,-8.500,-25.000,-38.000
3.483,-1.500,-8.500,-25.500,-38.000
3.484,-1.500,-8.500,-25.500,-38.000
3.485,-1.500,-8.500,-25.000,-37.500
3.486,-2.000,-8.500,-25.000,-37.000
3.487,-2.000,-8.500,-25.000,-37.000
3.488,-2.000,-8.500,-25.500,-37.000
3.489,-2.000,-9.000,-25.500,-37.000
3.490,-2.000,-9.000,-25.500,-37.000
3.491,-2.000,-9.500,-25.500,-37.000
3.492,-1.500,-9.500,-26.000,-37.500
3.493,-1.500,-9.500,-26.000,-38.000
3.494,-1.500,-9.500,-26.000,-38.000
3.495,-1.000,-9.500,-26.000,-38.500
3.496,-1.000,-9.500,-26.500,-39.000
3.497,-1.000,-10.000,-27.000,-39.500
3.498,-1.500,-10.500,-27.500,-40.000
3.499,-2.000,-10.500,-28.000,-40.500
3.500,-2.000,-10.500,-28.500,-40.500
3.501,-2.000,-10.500,-28.500,-40.500
3.502,-2.500,-10.500,-28.000,-40.000
3.503,-2.500,-10.000,-28.000,-40.000
3.504,-2.500,-10.000,-27.500,-39.500
3.505,-2.500,-10.000,-27.500,-39.500
3.506,-2.500,-10.000,-28.000,-39.500
3.507,-2.500,-10.500,-28.500,-39.500
3.508,-2.000,-10.500,-28.500,-39.500
3.509,-2.000,-10.500,-28.000,-39.000
3.510,-2.000,-10.000,-27.500,-38.500
3.511,-2.000,-10.000,-27.000,-38.500
3.512,-2.000,-10.000,-26.500,-38.500
3.513,-2.500,-9.500,-26.500,-38.500
3.514,-2.500,-9.500,-26.500,-38.500
3.515,-2.500,-9.500,-27.000,-38.500
3.516,-2.500,-10.000,-27.000,-38.500
3.517,-2.500,-10.000,-27.000,-38.500
3.518,-3.000,-10.000,-27.000,-38.500
3.519,-3.500,-10.000,-26.500,-38.000
3.520,-4.000,-9.500,-25.500,-37.500
3.521,-4.500,-9.500,-25.000,-37.000
3.522,-4.500,-9.500,-24.500,-37.000
3.523,-5.000,-9.500,-25.000,-37.000
3.524,-5.000,-10.000,-25.500,-37.000
3.525,-4.500,-10.500,-26.500,-38.000
3.526,-4.500,-11.000,-27.500,-39.000
