'Elapsed time','AECG1','AECG2','AECG3','AECG4'
'seconds','uV','uV','uV','uV'
0.000,-12.000,-16.500,-8.500,-9.000
0.001,-12.000,-17.500,-8.500,-9.000
0.002,-12.000,-18.000,-8.500,-9.500
0.003,-11.500,-18.000,-8.500,-9.000
0.004,-12.000,-18.000,-8.500,-9.000
0.005,-12.000,-17.500,-8.500,-9.000
0.006,-12.000,-17.000,-9.000,-8.500
0.007,-11.500,-16.000,-9.000,-8.000
0.008,-12.000,-15.000,-9.000,-8.000
0.009,-12.000,-13.500,-9.000,-8.000
0.010,-12.000,-13.000,-8.500,-8.000
0.011,-11.500,-12.000,-8.000,-8.000
0.012,-11.500,-12.000,-7.500,-8.000
0.013,-11.500,-11.500,-7.000,-8.000
0.014,-11.500,-12.000,-6.500,-8.000
0.015,-11.500,-12.500,-6.000,-8.000
0.016,-11.500,-14.000,-6.000,-8.000
0.017,-11.500,-15.000,-6.000,-8.000
0.018,-12.000,-16.000,-6.500,-8.500
0.019,-12.000,-16.500,-7.000,-8.500
0.020,-12.000,-17.500,-8.000,-9.000
0.021,-12.000,-17.500,-8.500,-9.000
0.022,-12.500,-18.000,-9.500,-9.500
0.023,-13.000,-17.500,-9.500,-9.500
0.024,-13.000,-17.000,-10.000,-9.500
0.025,-13.000,-16.500,-10.000,-9.500
0.026,-13.000,-15.500,-10.000,-9.500
0.027,-13.000,-14.500,-9.000,-9.500
0.028,-13.000,-14.000,-8.500,-9.500
0.029,-13.000,-13.000,-8.000,-9.500
0.030,-13.000,-12.500,-7.000,-9.500
0.031,-12.500,-11.500,-6.000,-9.500
0.032,-13.000,-11.500,-5.500,-9.000
0.033,-12.500,-11.000,-5.000,-8.500
0.034,-12.500,-11.500,-5.000,-8.500
0.035,-12.500,-12.000,-5.500,-8.500
0.036,-12.500,-12.500,-6.000,-9.000
0.037,-12.500,-13.000,-7.000,-9.000
0.038,-12.500,-14.000,-8.000,-9.500
0.039,-12.000,-15.000,-8.500,-10.000
0.040,-12.000,-16.000,-9.500,-10.000
0.041,-11.500,-16.500,-10.500,-10.000
0.042,-12.000,-17.500,-11.000,-10.000
0.043,-11.500,-18.000,-11.500,-9.500
0.044,-12.000,-19.000,-12.000,-9.500
0.045,-12.000,-19.000,-12.000,-9.500
0.046,-12.500,-19.000,-12.000,-9.500
0.047,-12.500,-18.500,-11.500,-9.000
0.048,-12.500,-18.000,-11.000,-9.000
0.049,-12.500,-16.500,-10.000,-9.000
0.050,-12.500,-15.500,-9.500,-9.000
0.051,-12.500,-14.500,-9.000,-9.000
0.052,-12.500,-13.500,-8.500,-8.500
0.053,-12.500,-13.000,-8.000,-8.000
0.054,-12.500,-12.500,-8.000,-8.000
0.055,-12.500,-12.500,-8.000,-8.000
0.056,-12.500,-13.000,-8.500,-8.000
0.057,-12.500,-13.500,-8.500,-8.000
0.058,-12.500,-14.500,-9.500,-8.500
0.059,-12.500,-15.500,-10.000,-8.500
0.060,-12.500,-16.500,-10.500,-8.500
0.061,-12.000,-17.000,-11.000,-9.000
0.062,-12.000,-17.500,-11.500,-9.500
0.063,-12.000,-18.000,-11.500,-9.500
0.064,-12.000,-18.500,-12.000,-10.000
0.065,-12.000,-18.500,-11.500,-10.000
0.066,-12.500,-18.500,-11.000,-10.000
0.067,-13.000,-18.000,-10.500,-10.000
0.068,-13.000,-18.000,-10.000,-9.500
0.069,-13.000,-17.000,-9.000,-9.500
0.070,-13.500,-16.500,-9.000,-9.500
0.071,-13.500,-16.000,-8.500,-9.000
0.072,-13.500,-15.500,-9.000,-9.500
0.073,-13.000,-15.000,-9.000,-9.500
0.074,-13.000,-15.500,-9.500,-10.000
0.075,-13.000,-15.500,-10.000,-10.000
0.076,-13.000,-16.500,-10.500,-10.000
0.077,-12.500,-17.500,-11.500,-10.000
0.078,-12.500,-18.500,-12.000,-10.500
0.079,-12.000,-19.500,-12.500,-10.500
0.080,-12.500,-20.000,-13.000,-11.000
0.081,-13.000,-20.500,-12.500,-11.000
0.082,-13.000,-21.000,-12.500,-11.500
0.083,-13.000,-21.000,-12.500,-11.000
0.084,-13.500,-21.500,-12.500,-11.500
0.085,-14.000,-22.000,-12.000,-11.500
0.086,-14.000,-22.000,-12.500,-12.000
0.087,-14.000,-21.000,-12.500,-12.000
0.088,-14.500,-20.500,-12.500,-12.000
0.089,-15.000,-19.000,-12.500,-12.000
0.090,-15.000,-18.000,-12.500,-12.500
0.091,-15.000,-17.000,-12.000,-12.500
0.092,-15.000,-16.000,-12.000,-13.000
0.093,-15.000,-15.000,-12.000,-13.000
0.094,-15.000,-15.000,-12.500,-13.500
0.095,-14.500,-15.500,-13.000,-13.500
0.096,-14.500,-16.500,-14.000,-14.000
0.097,-14.000,-17.500,-15.000,-14.000
0.098,-14.000,-19.000,-15.500,-14.500
0.099,-14.000,-20.000,-16.000,-15.000
0.100,-14.000,-21.500,-17.000,-15.500
0.101,-14.000,-22.000,-17.500,-15.500
0.102,-14.500,-23.000,-18.000,-16.000
0.103,-14.500,-23.500,-18.000,-16.000
0.104,-15.000,-24.500,-18.500,-16.500
0.105,-15.500,-24.500,-18.500,-16.500
0.106,-15.500,-25.000,-19.000,-17.000
0.107,-15.500,-24.500,-18.500,-17.000
0.108,-16.000,-24.500,-18.500,-17.000
0.109,-16.000,-23.500,-18.000,-16.500
0.110,-16.000,-23.000,-18.000,-16.500
0.111,-16.000,-22.000,-17.500,-16.500
0.112,-16.500,-21.500,-17.500,-16.500
0.113,-16.000,-21.000,-18.000,-16.500
0.114,-16.000,-21.000,-18.500,-17.000
0.115,-15.500,-21.000,-19.000,-17.000
0.116,-15.500,-21.500,-19.500,-18.000
0.117,-15.500,-22.000,-20.500,-18.500
0.118,-15.500,-23.000,-21.500,-19.000
0.119,-15.500,-24.000,-22.500,-19.000
0.120,-15.500,-25.000,-23.000,-19.500
0.121,-15.500,-25.500,-23.500,-20.000
0.122,-16.000,-26.500,-24.000,-20.000
0.123,-16.000,-27.000,-24.000,-20.000
0.124,-16.500,-27.500,-24.000,-20.500
0.125,-16.500,-27.500,-24.000,-20.500
0.126,-16.500,-28.000,-24.500,-20.500
0.127,-16.500,-27.500,-24.000,-20.500
0.128,-17.000,-27.500,-23.500,-20.500
0.129,-17.000,-26.500,-23.000,-20.000
0.130,-17.000,-26.000,-22.500,-20.000
0.131,-17.000,-25.000,-21.500,-20.000
0.132,-17.500,-25.000,-21.000,-20.000
0.133,-17.500,-24.500,-21.000,-19.500
0.134,-17.500,-25.000,-21.500,-20.000
0.135,-17.500,-25.500,-22.000,-20.000
0.136,-17.000,-26.500,-23.000,-20.500
0.137,-17.000,-27.500,-23.500,-20.500
0.138,-17.000,-28.500,-24.500,-21.000
0.139,-17.000,-29.500,-25.000,-21.000
0.140,-17.000,-30.000,-26.000,-21.500
0.141,-16.500,-30.500,-26.500,-21.500
0.142,-17.000,-31.000,-27.000,-21.500
0.143,-17.000,-31.000,-27.000,-22.000
0.144,-17.000,-31.500,-27.000,-22.000
0.145,-17.000,-31.000,-27.000,-22.000
0.146,-17.000,-31.000,-27.000,-21.500
0.147,-17.000,-30.500,-26.500,-21.000
0.148,-17.500,-30.500,-26.500,-20.500
0.149,-17.500,-29.500,-26.000,-20.000
0.150,-18.000,-28.500,-25.500,-19.000
0.151,-18.000,-27.000,-25.000,-18.500
0.152,-18.000,-26.000,-25.000,-18.000
0.153,-17.500,-25.000,-24.000,-17.500
0.154,-17.500,-24.000,-23.500,-17.500
0.155,-17.000,-23.500,-23.000,-17.000
0.156,-17.000,-23.500,-22.500,-16.500
0.157,-16.500,-24.000,-21.500,-16.000
0.158,-16.000,-24.500,-21.500,-15.500
0.159,-15.500,-24.500,-21.000,-15.000
0.160,-15.500,-25.500,-21.000,-14.500
0.161,-15.000,-26.000,-20.500,-14.000
0.162,-15.000,-26.500,-20.500,-13.500
0.163,-15.000,-26.500,-20.000,-13.000
0.164,-15.000,-26.500,-20.000,-13.000
0.165,-14.500,-26.000,-19.000,-12.000
0.166,-14.500,-26.000,-18.500,-11.500
0.167,-14.500,-25.000,-18.000,-11.000
0.168,-14.500,-24.500,-17.500,-10.500
0.169,-14.500,-23.500,-16.500,-9.500
0.170,-15.000,-22.500,-15.500,-9.000
0.171,-14.500,-21.000,-14.500,-8.500
0.172,-14.500,-20.500,-13.500,-8.000
0.173,-14.500,-19.500,-12.500,-7.500
0.174,-14.500,-19.000,-11.500,-7.500
0.175,-14.500,-18.500,-11.000,-7.000
0.176,-14.500,-18.000,-10.500,-7.000
0.177,-14.000,-18.000,-10.500,-6.500
0.178,-14.000,-18.000,-11.000,-6.500
0.179,-13.500,-18.000,-11.500,-6.000
0.180,-13.500,-18.500,-12.500,-6.000
0.181,-13.000,-18.500,-12.500,-6.000
0.182,-13.000,-19.000,-12.500,-6.500
0.183,-12.500,-18.500,-12.000,-6.500
0.184,-13.000,-18.500,-12.000,-7.000
0.185,-13.000,-18.000,-11.000,-7.000
0.186,-13.000,-18.000,-10.000,-7.500
0.187,-13.000,-17.500,-9.000,-7.500
0.188,-13.500,-17.500,-8.500,-7.500
0.189,-13.500,-16.500,-8.000,-7.000
0.190,-13.500,-16.000,-8.000,-6.500
0.191,-13.500,-15.500,-8.000,-6.000
0.192,-14.000,-15.000,-8.500,-6.500
0.193,-13.500,-14.500,-9.000,-6.500
0.194,-13.500,-14.500,-9.000,-6.500
0.195,-13.500,-14.500,-9.000,-6.500
0.196,-13.500,-15.000,-9.000,-7.000
0.197,-13.000,-15.500,-9.000,-7.500
0.198,-13.500,-16.000,-9.000,-7.500
0.199,-13.500,-16.500,-9.000,-7.500
0.200,-14.000,-17.000,-9.500,-8.000
0.201,-14.000,-17.500,-9.500,-8.000
0.202,-14.000,-17.500,-10.000,-8.000
0.203,-14.000,-17.500,-10.000,-8.000
0.204,-14.000,-17.500,-10.000,-8.500
0.205,-13.500,-17.500,-9.500,-9.000
0.206,-13.500,-17.000,-9.000,-9.000
0.207,-13.500,-16.500,-8.500,-9.000
0.208,-13.500,-16.000,-8.500,-9.500
0.209,-13.500,-15.000,-8.000,-9.500
0.210,-13.500,-14.000,-8.000,-9.500
0.211,-13.500,-13.000,-8.000,-9.000
0.212,-13.500,-12.500,-8.000,-9.000
0.213,-13.500,-12.500,-8.000,-9.000
0.214,-13.000,-12.500,-8.500,-9.000
0.215,-13.000,-13.000,-9.000,-9.000
0.216,-13.000,-14.000,-10.000,-9.000
0.217,-13.000,-14.500,-10.500,-8.500
0.218,-13.000,-15.000,-11.000,-9.000
0.219,-13.000,-15.500,-11.500,-9.000
0.220,-13.000,-16.000,-11.500,-9.000
0.221,-13.000,-16.500,-11.500,-9.000
0.222,-13.000,-16.500,-11.500,-9.500
0.223,-12.500,-16.500,-11.000,-9.500
0.224,-12.500,-16.500,-11.500,-9.500
0.225,-12.500,-16.500,-11.500,-9.500
0.226,-13.000,-16.500,-11.500,-9.500
0.227,-13.000,-16.000,-11.000,-9.000
0.228,-13.000,-16.000,-11.000,-9.500
0.229,-13.000,-16.000,-10.500,-9.000
0.230,-13.000,-16.000,-10.000,-9.500
0.231,-13.000,-15.500,-9.500,-9.500
0.232,-13.000,-15.500,-9.000,-9.500
0.233,-13.000,-15.500,-8.500,-9.500
0.234,-13.000,-15.500,-9.000,-9.500
0.235,-13.000,-15.500,-9.000,-9.000
0.236,-13.500,-16.000,-9.500,-9.000
0.237,-13.000,-16.500,-10.000,-9.000
0.238,-13.500,-17.500,-10.500,-9.000
0.239,-13.000,-18.000,-11.000,-9.000
0.240,-13.500,-18.500,-11.500,-9.000
0.241,-13.000,-19.000,-11.500,-9.000
0.242,-13.500,-19.000,-11.500,-9.000
0.243,-13.500,-19.000,-11.000,-9.000
0.244,-13.500,-18.500,-11.500,-9.000
0.245,-13.500,-17.500,-11.000,-9.000
0.246,-14.000,-17.000,-11.000,-9.500
0.247,-14.000,-15.500,-10.000,-9.500
0.248,-14.500,-15.000,-10.000,-9.500
0.249,-14.000,-14.000,-9.500,-9.000
0.250,-14.000,-13.000,-9.000,-9.500
0.251,-13.500,-12.500,-9.000,-9.000
0.252,-13.500,-12.000,-9.000,-9.500
0.253,-13.500,-11.500,-9.500,-9.500
0.254,-13.500,-11.500,-10.000,-9.500
0.255,-13.500,-11.500,-10.500,-9.500
0.256,-13.500,-12.500,-11.500,-9.500
0.257,-13.500,-13.000,-12.000,-9.000
0.258,-13.500,-14.000,-13.000,-9.000
0.259,-13.000,-15.000,-13.500,-9.000
0.260,-13.000,-16.000,-13.500,-9.500
0.261,-13.000,-16.500,-13.500,-9.500
0.262,-13.000,-17.000,-13.000,-10.000
0.263,-13.000,-17.500,-13.000,-10.000
0.264,-13.500,-18.500,-13.000,-10.000
0.265,-13.500,-18.500,-12.500,-9.500
0.266,-14.000,-18.500,-13.000,-9.500
0.267,-13.500,-18.000,-12.500,-9.500
0.268,-14.000,-17.500,-12.500,-9.500
0.269,-14.000,-16.500,-11.500,-9.500
0.270,-14.000,-15.500,-11.000,-9.500
0.271,-13.500,-14.500,-10.500,-9.000
0.272,-14.000,-13.500,-10.500,-9.000
0.273,-14.000,-13.000,-10.500,-9.000
0.274,-14.000,-12.500,-11.000,-9.000
0.275,-14.000,-12.500,-12.000,-8.500
0.276,-14.000,-13.000,-13.000,-9.000
0.277,-13.500,-13.500,-14.000,-9.000
0.278,-13.000,-14.500,-15.000,-10.000
0.279,-12.500,-15.000,-15.500,-10.500
0.280,-12.500,-16.500,-16.000,-11.000
0.281,-12.500,-17.000,-15.500,-11.000
0.282,-12.500,-18.000,-15.500,-11.500
0.283,-12.500,-18.500,-15.000,-11.500
0.284,-12.500,-19.000,-15.000,-11.500
0.285,-12.500,-19.000,-14.500,-11.000
0.286,-12.500,-19.000,-14.000,-10.500
0.287,-12.500,-18.000,-13.000,-10.000
0.288,-12.500,-17.500,-12.500,-9.500
0.289,-12.000,-16.500,-11.500,-9.000
0.290,-12.500,-15.500,-11.000,-9.000
0.291,-12.500,-14.000,-10.500,-9.000
0.292,-12.500,-13.500,-10.000,-8.500
0.293,-12.500,-13.000,-9.500,-8.000
0.294,-12.500,-13.000,-9.500,-8.000
0.295,-12.500,-13.500,-9.000,-7.500
0.296,-12.500,-14.000,-9.000,-7.500
0.297,-12.000,-15.000,-8.500,-7.500
0.298,-12.500,-16.000,-8.500,-7.500
0.299,-12.500,-16.500,-8.500,-7.500
0.300,-13.000,-17.500,-9.000,-8.000
0.301,-13.000,-17.500,-9.000,-8.000
0.302,-13.000,-18.000,-9.500,-8.000
0.303,-13.000,-17.500,-10.000,-8.000
0.304,-13.500,-17.500,-11.000,-8.500
0.305,-13.500,-17.500,-12.000,-9.000
0.306,-14.000,-17.500,-13.000,-9.500
0.307,-14.000,-17.000,-14.000,-10.000
0.308,-14.500,-17.500,-15.000,-10.500
0.309,-15.000,-17.500,-15.500,-10.500
0.310,-15.500,-18.000,-16.000,-11.000
0.311,-15.500,-18.000,-16.000,-11.500
0.312,-15.500,-18.500,-16.500,-12.000
0.313,-15.000,-19.000,-16.500,-12.000
0.314,-15.500,-19.500,-17.000,-12.500
0.315,-15.500,-20.000,-17.000,-13.000
0.316,-15.500,-20.500,-17.500,-13.500
0.317,-15.000,-21.000,-17.500,-13.500
0.318,-15.000,-21.500,-18.000,-14.000
0.319,-15.000,-21.500,-18.000,-14.000
0.320,-14.500,-21.500,-18.000,-14.000
0.321,-14.000,-21.500,-17.500,-14.000
0.322,-14.000,-21.000,-17.500,-13.500
0.323,-14.000,-20.500,-17.000,-12.500
0.324,-14.000,-20.500,-16.500,-12.000
0.325,-13.500,-19.500,-15.500,-11.000
0.326,-13.500,-19.000,-15.000,-11.000
0.327,-13.000,-18.000,-14.000,-10.500
0.328,-13.000,-17.500,-13.000,-10.000
0.329,-13.000,-16.500,-12.500,-9.500
0.330,-13.500,-15.500,-12.000,-9.000
0.331,-13.500,-14.500,-11.500,-9.000
0.332,-13.500,-13.500,-11.500,-9.000
0.333,-13.500,-13.000,-11.500,-8.500
0.334,-14.000,-13.000,-12.000,-9.000
0.335,-13.500,-13.000,-12.500,-9.000
0.336,-13.500,-13.500,-13.000,-9.500
0.337,-13.000,-14.000,-13.000,-9.500
0.338,-13.000,-15.000,-13.500,-9.500
0.339,-13.000,-15.500,-13.500,-9.000
0.340,-13.000,-16.500,-13.500,-9.000
0.341,-13.000,-16.500,-13.500,-9.000
0.342,-13.500,-17.000,-13.000,-9.500
0.343,-13.000,-17.000,-12.500,-9.500
0.344,-13.500,-17.000,-12.500,-9.500
0.345,-13.500,-16.500,-12.500,-9.500
0.346,-13.500,-16.500,-13.000,-9.500
0.347,-13.500,-16.000,-13.000,-9.500
0.348,-13.500,-15.500,-13.000,-10.000
0.349,-13.500,-14.500,-12.500,-9.500
0.350,-13.500,-14.000,-12.500,-9.500
0.351,-13.500,-13.000,-12.000,-9.000
0.352,-14.000,-12.500,-12.000,-9.000
0.353,-14.000,-12.000,-11.500,-8.500
0.354,-14.000,-12.500,-11.500,-8.000
0.355,-14.000,-12.500,-11.500,-8.000
0.356,-14.000,-13.500,-12.000,-8.000
0.357,-13.500,-14.000,-12.000,-7.500
0.358,-13.500,-15.000,-13.000,-8.000
0.359,-13.000,-16.000,-13.000,-8.000
0.360,-13.000,-17.000,-13.500,-8.000
0.361,-13.000,-18.000,-14.000,-8.000
0.362,-13.000,-18.500,-14.500,-8.500
0.363,-13.000,-19.000,-14.500,-8.000
0.364,-13.500,-19.500,-15.000,-8.000
0.365,-13.500,-19.000,-15.000,-8.000
0.366,-13.500,-19.000,-15.000,-8.000
0.367,-13.500,-18.500,-14.500,-7.500
0.368,-14.000,-17.500,-14.000,-8.000
0.369,-14.000,-16.500,-13.000,-8.000
0.370,-14.000,-15.000,-12.500,-8.000
0.371,-14.000,-14.000,-11.500,-8.000
0.372,-14.500,-13.000,-11.500,-8.000
0.373,-14.000,-12.500,-11.000,-8.000
0.374,-14.000,-12.500,-11.500,-8.000
0.375,-14.000,-13.000,-11.500,-8.000
0.376,-14.000,-14.000,-12.000,-8.500
0.377,-13.500,-15.000,-12.500,-8.500
0.378,-13.500,-16.000,-13.000,-8.500
0.379,-13.500,-17.000,-13.500,-8.500
0.380,-13.500,-18.000,-14.000,-9.000
0.381,-13.500,-18.000,-14.000,-9.500
0.382,-13.500,-18.500,-14.000,-9.500
0.383,-13.000,-18.000,-14.000,-9.500
0.384,-13.000,-18.000,-13.500,-9.500
0.385,-13.000,-18.000,-13.000,-9.500
0.386,-13.500,-18.000,-12.500,-9.000
0.387,-13.500,-17.500,-12.000,-8.500
0.388,-13.500,-17.000,-11.500,-8.500
0.389,-13.500,-16.500,-11.000,-8.000
0.390,-14.000,-16.000,-11.000,-8.000
0.391,-14.000,-15.500,-11.000,-8.000
0.392,-14.000,-15.000,-11.000,-8.000
0.393,-14.000,-14.500,-11.500,-7.500
0.394,-14.000,-14.500,-12.000,-8.000
0.395,-13.500,-14.500,-12.000,-8.000
0.396,-13.000,-15.000,-12.500,-8.500
0.397,-13.000,-15.500,-12.500,-8.500
0.398,-13.000,-16.500,-13.000,-9.000
0.399,-13.000,-17.000,-13.000,-9.500
0.400,-13.000,-17.500,-13.500,-10.000
0.401,-13.000,-18.500,-13.500,-10.000
0.402,-13.500,-19.500,-13.500,-10.500
0.403,-13.500,-20.000,-13.500,-10.500
0.404,-13.500,-20.500,-13.000,-10.500
0.405,-13.500,-20.500,-12.500,-10.500
0.406,-14.000,-20.500,-12.000,-10.500
0.407,-14.500,-20.000,-11.500,-10.000
0.408,-14.500,-19.000,-11.000,-9.500
0.409,-14.500,-18.000,-10.000,-9.000
0.410,-15.000,-17.000,-10.000,-9.000
0.411,-15.000,-16.000,-9.500,-9.000
0.412,-15.000,-15.500,-9.000,-9.000
0.413,-14.500,-14.500,-9.000,-9.000
0.414,-14.500,-14.500,-9.000,-9.000
0.415,-14.000,-14.500,-9.000,-9.000
0.416,-14.000,-15.500,-9.500,-9.500
0.417,-13.500,-16.000,-9.500,-10.000
0.418,-13.500,-17.500,-10.500,-10.000
0.419,-13.500,-18.000,-10.500,-10.000
0.420,-13.500,-19.000,-11.000,-10.000
0.421,-13.500,-19.500,-11.500,-10.000
0.422,-13.500,-20.000,-11.500,-10.000
0.423,-13.500,-20.000,-11.500,-10.000
0.424,-13.500,-20.000,-11.500,-10.000
0.425,-13.500,-19.500,-11.500,-10.000
0.426,-14.000,-19.000,-11.500,-9.500
0.427,-14.000,-18.000,-11.000,-9.500
0.428,-14.000,-17.500,-10.500,-9.500
0.429,-13.500,-16.500,-10.000,-9.000
0.430,-14.000,-16.000,-10.000,-9.000
0.431,-13.500,-15.500,-9.500,-8.500
0.432,-13.500,-15.500,-9.500,-8.500
0.433,-13.000,-15.500,-9.500,-8.500
0.434,-13.000,-16.000,-10.500,-8.500
0.435,-12.500,-16.500,-11.000,-8.500
0.436,-12.500,-17.000,-11.500,-8.500
0.437,-12.500,-18.000,-12.000,-9.000
0.438,-12.500,-19.000,-13.000,-9.500
0.439,-12.500,-19.500,-13.500,-9.500
0.440,-12.500,-20.000,-14.000,-10.000
0.441,-12.500,-20.000,-14.000,-10.500
0.442,-13.000,-20.500,-14.000,-10.500
0.443,-13.000,-20.000,-14.000,-10.500
0.444,-13.000,-20.000,-14.000,-10.500
0.445,-13.000,-19.500,-13.500,-10.500
0.446,-13.000,-19.000,-13.000,-10.500
0.447,-13.000,-18.000,-12.000,-10.000
0.448,-13.500,-17.500,-12.000,-9.500
0.449,-13.500,-17.000,-11.500,-9.000
0.450,-14.000,-16.000,-11.000,-9.000
0.451,-14.000,-15.000,-11.000,-9.000
0.452,-14.500,-14.500,-11.000,-9.000
0.453,-14.000,-14.000,-11.500,-8.500
0.454,-14.000,-13.500,-11.500,-8.500
0.455,-14.000,-13.500,-11.500,-8.500
0.456,-14.000,-14.000,-12.000,-8.500
0.457,-13.500,-15.000,-12.000,-8.000
0.458,-13.500,-16.000,-12.500,-8.500
0.459,-13.500,-16.500,-12.500,-8.500
0.460,-13.500,-17.500,-13.000,-9.000
0.461,-13.000,-18.000,-13.000,-9.000
0.462,-13.000,-19.000,-13.000,-9.000
0.463,-13.000,-19.000,-13.000,-8.500
0.464,-13.500,-19.500,-13.500,-9.000
0.465,-13.500,-19.000,-13.000,-9.000
0.466,-14.000,-19.000,-12.500,-9.000
0.467,-14.500,-18.500,-11.500,-8.500
0.468,-14.500,-18.500,-11.000,-8.500
0.469,-14.500,-17.500,-10.000,-8.000
0.470,-14.500,-17.000,-9.000,-8.000
0.471,-14.000,-16.000,-8.000,-8.000
0.472,-14.000,-15.500,-8.000,-8.000
0.473,-13.500,-14.500,-7.500,-8.000
0.474,-13.500,-14.000,-8.000,-8.000
0.475,-13.000,-14.000,-8.000,-8.500
0.476,-13.000,-14.000,-8.500,-9.000
0.477,-13.000,-14.500,-8.500,-9.000
0.478,-13.000,-15.000,-9.000,-9.500
0.479,-13.000,-16.000,-9.500,-9.500
0.480,-13.500,-17.000,-9.500,-9.500
0.481,-13.000,-17.500,-9.500,-9.500
0.482,-13.500,-18.500,-10.000,-10.000
0.483,-13.500,-19.000,-10.000,-9.500
0.484,-13.500,-19.500,-10.500,-9.500
0.485,-13.500,-19.500,-11.000,-9.500
0.486,-14.000,-19.500,-11.500,-9.500
0.487,-13.500,-19.500,-11.500,-9.500
0.488,-14.000,-19.000,-12.000,-9.500
0.489,-13.500,-18.500,-12.000,-9.500
0.490,-14.000,-18.000,-12.500,-9.500
0.491,-13.500,-17.000,-12.000,-9.500
0.492,-14.000,-16.500,-12.500,-9.500
0.493,-13.500,-16.000,-12.500,-9.500
0.494,-14.000,-16.500,-13.000,-10.000
0.495,-13.500,-17.000,-13.000,-10.500
0.496,-14.000,-18.000,-13.500,-11.000
0.497,-13.500,-19.000,-14.000,-11.000
0.498,-13.500,-20.000,-14.500,-11.500
0.499,-13.500,-21.000,-15.000,-12.000
0.500,-13.500,-22.000,-15.000,-12.000
0.501,-13.000,-22.500,-15.000,-12.000
0.502,-13.500,-23.000,-15.500,-12.500
0.503,-13.000,-23.000,-15.500,-12.500
0.504,-13.000,-23.000,-16.000,-13.000
0.505,-13.000,-23.000,-16.000,-13.000
0.506,-13.000,-23.000,-16.500,-13.500
0.507,-13.000,-22.500,-16.000,-13.500
0.508,-13.500,-22.000,-16.000,-14.000
0.509,-14.000,-21.000,-15.500,-13.500
0.510,-14.500,-20.500,-15.500,-13.500
0.511,-14.500,-19.000,-15.000,-13.000
0.512,-14.500,-18.500,-15.000,-13.000
0.513,-14.500,-18.000,-15.000,-13.000
0.514,-14.500,-18.500,-15.500,-13.500
0.515,-14.500,-19.000,-16.000,-13.500
0.516,-14.000,-20.000,-17.000,-13.500
0.517,-13.500,-20.500,-17.500,-13.500
0.518,-13.500,-22.000,-18.000,-13.500
0.519,-13.000,-22.500,-18.000,-13.500
0.520,-13.000,-23.500,-18.500,-13.500
0.521,-12.500,-24.000,-19.000,-13.500
0.522,-13.000,-25.000,-19.500,-13.500
0.523,-13.000,-25.000,-19.500,-13.500
0.524,-13.000,-25.000,-19.500,-14.000
0.525,-13.000,-24.500,-19.000,-14.000
0.526,-13.500,-24.500,-18.500,-14.500
0.527,-13.500,-23.500,-17.500,-14.000
0.528,-14.000,-23.000,-17.000,-14.000
0.529,-14.000,-22.000,-16.500,-13.500
0.530,-14.000,-21.000,-16.000,-13.000
0.531,-13.500,-20.000,-16.000,-12.500
0.532,-13.500,-19.500,-16.000,-12.500
0.533,-13.000,-18.500,-16.500,-12.000
0.534,-13.000,-17.500,-17.000,-12.000
0.535,-12.500,-17.000,-17.000,-12.000
0.536,-12.500,-17.000,-17.500,-12.500
0.537,-12.000,-17.500,-17.000,-12.500
0.538,-12.000,-18.500,-17.000,-13.000
0.539,-11.500,-19.500,-16.000,-13.000
0.540,-11.000,-21.000,-15.500,-13.500
0.541,-10.500,-22.000,-15.000,-14.000
0.542,-10.500,-23.000,-15.000,-14.000
0.543,-10.500,-23.500,-15.000,-14.000
0.544,-11.000,-24.000,-15.500,-14.500
0.545,-11.000,-24.000,-15.500,-14.500
0.546,-11.000,-23.500,-16.500,-14.500
0.547,-11.000,-23.000,-16.500,-14.000
0.548,-11.500,-22.500,-17.000,-14.000
0.549,-11.500,-21.500,-16.500,-13.500
0.550,-11.500,-21.500,-16.500,-13.000
0.551,-11.500,-21.000,-16.500,-12.500
0.552,-12.000,-20.500,-16.500,-12.500
0.553,-11.500,-20.500,-16.000,-12.500
0.554,-11.500,-20.500,-16.000,-12.500
0.555,-11.500,-20.500,-16.000,-12.500
0.556,-11.500,-20.500,-16.500,-13.000
0.557,-11.000,-20.500,-16.500,-13.500
0.558,-11.500,-21.000,-17.000,-13.500
0.559,-11.000,-21.000,-16.500,-13.500
0.560,-11.000,-21.500,-17.000,-14.000
0.561,-11.000,-21.500,-16.500,-14.000
0.562,-11.000,-21.500,-16.500,-14.000
0.563,-11.000,-21.500,-16.500,-14.000
0.564,-11.500,-21.500,-16.500,-14.500
0.565,-11.000,-21.000,-16.500,-14.500
0.566,-11.500,-21.000,-16.500,-14.500
0.567,-11.500,-21.000,-16.500,-14.500
0.568,-12.000,-21.000,-17.000,-14.000
0.569,-12.000,-20.500,-16.500,-13.500
0.570,-12.500,-20.000,-16.500,-13.000
0.571,-12.500,-19.500,-15.500,-12.500
0.572,-12.500,-19.000,-15.500,-12.000
0.573,-12.000,-18.500,-15.000,-11.500
0.574,-12.000,-18.500,-14.500,-11.000
0.575,-12.000,-18.000,-14.000,-10.500
0.576,-12.000,-18.500,-14.000,-10.000
0.577,-11.500,-19.000,-14.000,-9.000
0.578,-11.500,-20.000,-13.500,-8.000
0.579,-11.500,-20.500,-13.000,-6.500
0.580,-11.500,-21.500,-12.500,-5.000
0.581,-11.000,-22.000,-12.000,-3.500
0.582,-11.500,-22.000,-11.500,-2.500
0.583,-11.500,-22.000,-10.500,-1.000
0.584,-12.000,-22.000,-10.500,0.000
0.585,-12.000,-22.000,-10.500,1.000
0.586,-12.000,-22.000,-11.000,2.500
0.587,-12.500,-22.000,-11.000,3.500
0.588,-13.000,-22.500,-11.500,5.000
0.589,-13.500,-22.500,-12.000,6.000
0.590,-14.500,-22.500,-12.500,7.000
0.591,-14.500,-22.500,-13.000,7.500
0.592,-15.500,-23.000,-14.000,8.000
0.593,-15.500,-23.500,-15.000,8.000
0.594,-16.000,-25.000,-16.500,7.000
0.595,-16.500,-26.000,-18.500,6.000
0.596,-17.000,-28.000,-21.500,4.500
0.597,-17.500,-30.000,-24.500,2.500
0.598,-18.000,-32.500,-28.500,-0.500
0.599,-18.500,-35.000,-32.000,-3.000
0.600,-19.500,-38.000,-37.000,-6.500
0.601,-20.000,-40.500,-41.500,-10.500
0.602,-20.500,-43.000,-46.500,-15.000
0.603,-21.000,-45.000,-51.000,-20.500
0.604,-22.000,-47.500,-55.500,-26.500
0.605,-22.500,-49.000,-60.000,-33.000
0.606,-23.000,-50.500,-65.000,-40.500
0.607,-23.500,-51.000,-69.500,-47.500
0.608,-24.500,-52.000,-74.000,-55.000
0.609,-25.000,-52.500,-78.000,-62.500
0.610,-25.500,-53.000,-82.000,-69.500
0.611,-25.500,-53.000,-85.000,-76.000
0.612,-25.500,-53.000,-87.500,-81.500
0.613,-25.000,-53.000,-88.500,-85.500
0.614,-25.000,-52.500,-89.000,-88.500
0.615,-24.000,-52.000,-87.500,-90.000
0.616,-23.000,-51.000,-85.500,-90.500
0.617,-22.000,-49.500,-82.500,-89.500
0.618,-21.000,-48.500,-79.500,-88.500
0.619,-20.000,-47.500,-75.500,-86.500
0.620,-19.000,-46.000,-72.000,-84.500
0.621,-17.500,-44.500,-68.000,-82.000
0.622,-17.000,-42.500,-64.500,-79.000
0.623,-16.000,-40.500,-60.500,-76.000
0.624,-15.500,-38.500,-56.500,-72.500
0.625,-14.500,-36.500,-53.000,-69.000
0.626,-14.000,-34.000,-49.500,-66.000
0.627,-13.000,-31.500,-46.000,-62.500
0.628,-13.000,-29.500,-42.500,-59.500
0.629,-12.500,-27.500,-39.000,-56.000
0.630,-12.000,-25.500,-36.000,-53.000
0.631,-12.000,-23.500,-33.000,-50.000
0.632,-12.000,-21.500,-30.000,-47.500
0.633,-11.500,-20.000,-27.500,-45.000
0.634,-11.500,-19.000,-25.500,-42.500
0.635,-11.000,-18.000,-23.500,-40.000
0.636,-11.000,-18.000,-22.500,-38.500
0.637,-11.000,-18.000,-21.500,-36.500
0.638,-11.000,-18.500,-21.000,-35.000
0.639,-11.000,-19.000,-20.500,-33.000
0.640,-11.000,-20.000,-20.500,-31.500
0.641,-11.000,-20.500,-19.500,-29.500
0.642,-11.500,-21.000,-19.500,-27.500
0.643,-11.500,-21.000,-19.000,-25.500
0.644,-11.500,-21.500,-18.500,-24.000
0.645,-12.000,-21.000,-18.000,-22.500
0.646,-12.000,-21.500,-18.000,-21.500
0.647,-12.000,-21.000,-17.500,-20.000
0.648,-12.500,-21.000,-17.500,-19.500
0.649,-12.500,-20.500,-16.500,-18.500
0.650,-13.000,-20.000,-16.000,-18.000
0.651,-13.000,-19.000,-15.500,-17.000
0.652,-13.000,-18.500,-15.000,-16.500
0.653,-12.500,-18.000,-14.500,-16.000
0.654,-12.500,-18.500,-14.500,-15.500
0.655,-12.000,-18.500,-14.500,-15.000
0.656,-12.000,-19.500,-14.500,-15.000
0.657,-12.000,-20.000,-15.000,-14.500
0.658,-12.000,-21.000,-15.500,-15.000
0.659,-11.500,-21.500,-16.000,-15.000
0.660,-12.000,-22.500,-16.500,-15.500
0.661,-12.000,-23.000,-16.500,-15.500
0.662,-12.000,-24.000,-17.000,-15.500
0.663,-12.000,-24.000,-17.000,-15.500
0.664,-12.000,-24.500,-17.000,-15.500
0.665,-12.000,-24.500,-16.500,-15.500
0.666,-12.500,-24.000,-16.500,-15.000
0.667,-12.500,-23.000,-16.000,-14.500
0.668,-13.000,-22.500,-15.500,-14.000
0.669,-13.000,-21.000,-14.500,-13.500
0.670,-13.500,-20.500,-14.000,-13.000
0.671,-13.500,-19.500,-13.500,-12.500
0.672,-13.500,-19.000,-13.000,-12.500
0.673,-13.500,-18.500,-12.500,-12.000
0.674,-13.500,-19.000,-12.500,-12.000
0.675,-13.000,-19.000,-12.500,-12.000
0.676,-12.500,-20.000,-12.500,-12.000
0.677,-12.000,-20.500,-12.500,-11.500
0.678,-12.000,-22.000,-12.500,-12.000
0.679,-11.500,-23.000,-13.000,-12.000
0.680,-11.500,-24.000,-13.500,-12.000
0.681,-11.500,-24.500,-14.500,-12.500
0.682,-11.500,-25.500,-15.500,-13.000
0.683,-11.000,-25.500,-16.500,-13.500
0.684,-11.500,-26.000,-17.000,-14.000
0.685,-11.500,-25.500,-17.000,-14.500
0.686,-12.000,-25.000,-16.500,-14.500
0.687,-12.000,-24.000,-15.500,-14.000
0.688,-12.500,-23.000,-15.000,-13.500
0.689,-12.500,-21.500,-14.000,-12.500
0.690,-13.000,-21.000,-13.000,-12.500
0.691,-13.000,-20.000,-12.500,-12.000
0.692,-13.000,-19.500,-12.000,-11.500
0.693,-12.500,-19.000,-12.000,-11.500
0.694,-12.500,-19.000,-12.000,-11.500
0.695,-12.000,-18.500,-12.000,-11.000
0.696,-12.000,-19.000,-12.000,-11.500
0.697,-12.000,-19.500,-12.500,-11.500
0.698,-12.000,-20.500,-13.000,-11.500
0.699,-11.500,-21.000,-14.000,-11.500
0.700,-12.000,-22.000,-14.500,-12.000
0.701,-12.000,-22.500,-15.000,-12.500
0.702,-12.500,-23.000,-15.500,-12.500
0.703,-12.500,-23.000,-15.500,-12.500
0.704,-12.500,-23.000,-15.500,-12.500
0.705,-12.500,-22.500,-15.000,-12.500
0.706,-13.000,-22.500,-15.000,-12.500
0.707,-13.000,-22.000,-14.500,-12.000
0.708,-13.000,-22.000,-14.500,-12.000
0.709,-13.000,-21.500,-14.000,-11.500
0.710,-13.500,-21.000,-13.500,-11.500
0.711,-13.500,-20.500,-13.500,-11.000
0.712,-14.000,-20.000,-13.500,-11.000
0.713,-14.000,-19.500,-13.500,-11.000
0.714,-14.000,-19.500,-13.500,-11.500
0.715,-13.500,-19.000,-14.000,-11.500
0.716,-13.500,-19.500,-14.500,-12.000
0.717,-13.000,-19.500,-15.000,-12.000
0.718,-13.000,-20.000,-15.500,-12.500
0.719,-12.500,-20.000,-15.500,-13.000
0.720,-12.000,-20.500,-16.500,-13.500
0.721,-12.000,-21.000,-17.000,-14.000
0.722,-12.000,-21.500,-17.500,-14.500
0.723,-11.500,-21.500,-17.500,-14.500
0.724,-12.000,-21.500,-17.500,-15.000
0.725,-12.000,-21.500,-17.000,-14.500
0.726,-12.000,-21.000,-16.500,-14.500
0.727,-12.000,-20.500,-15.000,-13.500
0.728,-12.500,-19.500,-14.000,-13.000
0.729,-12.500,-19.000,-13.000,-12.000
0.730,-12.500,-18.500,-12.000,-11.500
0.731,-12.500,-17.500,-11.000,-11.000
0.732,-12.500,-17.000,-10.500,-10.500
0.733,-12.500,-16.500,-10.000,-10.000
0.734,-12.500,-17.000,-10.000,-9.500
0.735,-12.500,-17.000,-10.000,-9.500
0.736,-12.500,-18.000,-10.500,-9.500
0.737,-12.500,-19.000,-11.000,-9.500
0.738,-13.000,-20.500,-12.000,-10.000
0.739,-13.500,-21.500,-13.000,-10.500
0.740,-13.500,-23.500,-14.500,-12.000
0.741,-13.500,-24.500,-15.500,-13.000
0.742,-14.000,-26.000,-16.500,-14.000
0.743,-14.000,-26.500,-17.500,-15.000
0.744,-14.000,-27.000,-18.500,-15.500
0.745,-14.000,-27.000,-19.500,-16.000
0.746,-14.500,-27.000,-20.000,-17.000
0.747,-14.500,-26.500,-20.000,-17.000
0.748,-14.500,-25.500,-20.000,-17.500
0.749,-15.000,-24.500,-19.500,-17.500
0.750,-15.500,-23.500,-20.000,-18.000
0.751,-15.500,-22.000,-20.000,-18.000
0.752,-15.500,-21.500,-20.000,-18.500
0.753,-15.000,-21.000,-20.500,-18.000
0.754,-15.000,-21.500,-21.000,-18.000
0.755,-14.500,-21.500,-21.000,-18.000
0.756,-14.000,-22.500,-21.500,-17.500
0.757,-13.500,-22.500,-21.500,-17.000
0.758,-13.500,-23.500,-21.500,-17.000
0.759,-13.500,-23.500,-21.000,-16.500
0.760,-13.500,-24.000,-21.000,-16.500
0.761,-13.000,-24.000,-21.000,-16.000
0.762,-13.000,-24.000,-21.500,-15.500
0.763,-13.000,-24.000,-21.500,-15.000
0.764,-13.000,-24.000,-21.500,-15.000
0.765,-13.000,-23.500,-21.500,-14.500
0.766,-13.000,-23.000,-21.500,-14.500
0.767,-13.500,-22.000,-20.500,-13.500
0.768,-14.000,-22.000,-20.000,-13.500
0.769,-14.000,-21.000,-19.000,-13.000
0.770,-14.500,-20.500,-18.500,-13.000
0.771,-14.500,-19.500,-18.000,-12.500
0.772,-14.500,-19.000,-18.000,-13.000
0.773,-14.000,-19.000,-18.000,-13.000
0.774,-14.000,-19.000,-18.500,-13.500
0.775,-13.500,-19.000,-19.500,-13.500
0.776,-13.500,-19.500,-20.500,-14.000
0.777,-13.500,-20.000,-21.000,-14.000
0.778,-13.500,-20.500,-21.500,-14.500
0.779,-13.500,-21.500,-22.000,-14.500
0.780,-13.500,-22.500,-22.500,-15.000
0.781,-13.500,-23.000,-22.500,-14.500
0.782,-14.000,-24.500,-23.000,-15.000
0.783,-13.500,-25.000,-23.000,-14.500
0.784,-14.000,-26.000,-23.500,-15.000
0.785,-14.000,-26.000,-23.500,-15.000
0.786,-14.000,-26.500,-23.500,-15.000
0.787,-14.000,-26.500,-23.500,-15.000
0.788,-14.000,-26.000,-23.500,-15.000
0.789,-14.000,-25.500,-23.500,-15.000
0.790,-14.000,-25.000,-23.000,-15.500
0.791,-13.500,-24.000,-22.500,-15.000
0.792,-13.500,-23.500,-22.500,-15.500
0.793,-13.500,-23.000,-22.000,-15.500
0.794,-13.500,-23.000,-22.500,-15.500
0.795,-13.500,-23.500,-22.500,-15.500
0.796,-13.500,-24.500,-23.500,-16.000
0.797,-13.000,-25.000,-24.000,-16.500
0.798,-13.500,-26.500,-25.000,-17.500
0.799,-13.500,-27.500,-26.000,-18.000
0.800,-13.500,-28.500,-27.000,-18.500
0.801,-13.000,-29.000,-27.000,-19.000
0.802,-13.000,-29.500,-27.500,-19.500
0.803,-13.000,-30.000,-27.500,-19.500
0.804,-13.000,-30.500,-28.000,-19.500
0.805,-13.000,-30.500,-27.500,-19.500
0.806,-13.500,-30.500,-27.500,-19.500
0.807,-13.500,-30.000,-27.000,-19.500
0.808,-14.500,-29.500,-27.000,-19.500
0.809,-14.500,-28.500,-26.500,-19.500
0.810,-15.000,-28.000,-26.500,-20.000
0.811,-15.000,-27.000,-26.000,-20.000
0.812,-15.000,-26.000,-26.000,-20.500
0.813,-15.000,-25.500,-26.000,-20.500
0.814,-15.000,-25.500,-26.000,-20.500
0.815,-14.500,-26.000,-26.000,-20.500
0.816,-14.500,-27.000,-26.500,-20.500
0.817,-14.000,-27.500,-27.000,-20.500
0.818,-14.000,-29.000,-28.000,-21.000
0.819,-14.000,-30.500,-29.000,-21.000
0.820,-14.500,-32.000,-30.500,-21.500
0.821,-14.500,-33.000,-31.000,-22.000
0.822,-15.000,-34.000,-32.000,-22.500
0.823,-15.000,-34.000,-32.500,-23.000
0.824,-15.000,-34.500,-33.000,-23.000
0.825,-15.000,-34.500,-33.000,-23.000
0.826,-15.000,-34.500,-33.500,-23.000
0.827,-14.500,-33.500,-33.500,-22.500
0.828,-14.500,-33.000,-33.500,-22.500
0.829,-14.000,-31.500,-33.000,-22.500
0.830,-14.500,-30.500,-32.500,-22.500
0.831,-14.500,-29.500,-32.000,-22.000
0.832,-15.000,-29.000,-31.500,-22.000
0.833,-15.000,-28.500,-30.500,-21.500
0.834,-15.000,-28.500,-30.500,-21.500
0.835,-14.500,-28.500,-30.000,-21.500
0.836,-14.500,-29.000,-30.500,-22.000
0.837,-14.000,-29.500,-30.500,-22.000
0.838,-14.000,-30.500,-31.000,-22.000
0.839,-14.000,-31.000,-31.500,-22.000
0.840,-14.000,-32.000,-32.000,-22.000
0.841,-13.500,-32.500,-32.000,-21.500
0.842,-14.000,-33.000,-32.000,-21.500
0.843,-14.000,-33.000,-32.000,-21.000
0.844,-14.000,-33.000,-32.000,-21.000
0.845,-14.000,-32.500,-31.500,-20.500
0.846,-14.500,-32.500,-31.000,-20.000
0.847,-14.000,-31.500,-30.000,-19.500
0.848,-14.500,-31.000,-29.000,-19.000
0.849,-14.500,-30.000,-27.500,-18.000
0.850,-14.500,-29.000,-26.500,-17.500
0.851,-14.000,-28.000,-25.500,-16.500
0.852,-14.000,-27.000,-25.000,-16.000
0.853,-13.500,-26.500,-24.500,-15.000
0.854,-13.500,-26.500,-24.000,-14.500
0.855,-13.000,-26.000,-23.500,-14.000
0.856,-13.000,-26.500,-23.500,-14.500
0.857,-13.000,-27.000,-23.500,-14.500
0.858,-12.500,-27.500,-23.500,-14.500
0.859,-12.000,-27.500,-23.500,-14.500
0.860,-12.000,-28.000,-23.500,-14.500
0.861,-12.000,-28.500,-23.000,-14.000
0.862,-12.000,-29.000,-22.500,-14.000
0.863,-12.000,-29.000,-22.000,-13.500
0.864,-12.000,-29.000,-21.000,-13.500
0.865,-11.500,-28.500,-20.000,-12.500
0.866,-11.500,-28.000,-19.500,-12.000
0.867,-11.000,-27.000,-18.500,-11.000
0.868,-11.000,-26.000,-17.500,-10.500
0.869,-11.000,-24.500,-16.500,-9.500
0.870,-11.000,-24.000,-16.000,-9.000
0.871,-11.000,-23.000,-15.500,-8.000
0.872,-11.000,-22.500,-15.000,-8.000
0.873,-11.000,-22.000,-14.000,-7.500
0.874,-11.000,-22.500,-14.000,-7.500
0.875,-11.000,-22.500,-13.500,-7.500
0.876,-10.500,-23.500,-13.500,-7.500
0.877,-10.000,-24.500,-13.500,-7.500
0.878,-10.000,-25.000,-13.500,-8.000
0.879,-10.000,-25.500,-14.000,-7.500
0.880,-10.000,-26.000,-14.500,-8.000
0.881,-10.000,-26.500,-15.000,-7.500
0.882,-10.500,-26.500,-16.000,-7.500
0.883,-10.500,-26.500,-16.000,-7.000
0.884,-10.500,-26.500,-16.000,-7.000
0.885,-10.500,-26.000,-15.500,-6.500
0.886,-11.000,-25.500,-15.500,-6.500
0.887,-10.500,-24.500,-14.500,-6.500
0.888,-11.000,-24.000,-14.000,-6.500
0.889,-11.000,-23.000,-13.500,-6.500
0.890,-11.000,-22.000,-13.000,-7.000
0.891,-11.000,-21.000,-12.500,-7.000
0.892,-11.500,-20.500,-12.500,-7.000
0.893,-11.500,-20.000,-12.000,-6.500
0.894,-11.500,-19.500,-12.500,-6.500
0.895,-11.500,-19.500,-13.000,-6.000
0.896,-11.500,-20.500,-13.500,-6.500
0.897,-11.500,-21.000,-14.000,-6.500
0.898,-11.500,-22.000,-15.000,-6.500
0.899,-11.000,-23.000,-15.500,-7.000
0.900,-10.500,-24.000,-16.000,-7.500
0.901,-10.000,-25.000,-16.000,-7.500
0.902,-10.000,-25.500,-16.500,-8.000
0.903,-10.000,-26.000,-16.500,-8.000
0.904,-10.000,-26.000,-16.500,-8.000
0.905,-10.000,-25.500,-16.000,-8.000
0.906,-10.500,-25.000,-16.000,-8.500
0.907,-10.000,-24.000,-15.000,-8.000
0.908,-10.500,-23.000,-15.000,-8.000
0.909,-10.500,-22.000,-14.500,-8.000
0.910,-10.500,-21.500,-14.000,-8.000
0.911,-10.500,-20.500,-13.500,-7.500
0.912,-11.000,-20.000,-13.500,-7.500
0.913,-11.000,-19.500,-13.500,-7.500
0.914,-11.500,-19.500,-13.500,-8.000
0.915,-11.500,-19.500,-14.000,-8.000
0.916,-11.500,-19.500,-14.500,-8.500
0.917,-11.000,-20.000,-15.000,-8.500
0.918,-11.500,-20.500,-15.500,-9.000
0.919,-11.000,-21.500,-16.000,-9.500
0.920,-11.000,-22.500,-16.500,-10.000
0.921,-10.500,-23.500,-17.000,-10.500
0.922,-10.500,-24.000,-17.000,-11.000
0.923,-10.500,-24.000,-17.000,-11.000
0.924,-10.500,-24.000,-17.000,-11.500
0.925,-10.500,-23.500,-16.500,-11.500
0.926,-10.500,-23.000,-16.000,-11.500
0.927,-10.500,-22.500,-15.500,-11.000
0.928,-11.000,-22.000,-15.500,-10.500
0.929,-11.500,-21.000,-14.500,-10.000
0.930,-11.500,-20.500,-14.500,-10.000
0.931,-11.500,-19.500,-14.000,-9.500
0.932,-12.000,-19.000,-14.000,-9.500
0.933,-11.500,-18.500,-13.500,-9.000
0.934,-11.500,-18.500,-14.000,-9.000
0.935,-11.000,-18.000,-14.000,-9.000
0.936,-11.000,-18.500,-14.500,-9.000
0.937,-10.500,-18.500,-14.500,-9.000
0.938,-10.000,-19.500,-15.000,-9.500
0.939,-10.000,-20.000,-15.000,-9.500
0.940,-10.000,-21.000,-15.500,-10.000
0.941,-9.500,-21.500,-15.500,-10.500
0.942,-10.000,-22.000,-15.500,-10.500
0.943,-10.000,-22.500,-16.000,-10.500
0.944,-10.000,-22.500,-16.500,-11.000
0.945,-10.000,-22.500,-16.500,-11.000
0.946,-10.500,-22.500,-17.000,-11.000
0.947,-10.500,-22.000,-16.500,-10.500
0.948,-10.500,-22.000,-16.500,-10.500
0.949,-10.500,-21.500,-15.500,-10.000
0.950,-11.000,-21.000,-15.000,-10.000
0.951,-11.000,-20.500,-14.000,-9.500
0.952,-11.000,-20.500,-13.500,-9.500
0.953,-11.000,-20.000,-13.000,-9.500
0.954,-11.000,-20.000,-12.500,-9.500
0.955,-10.500,-20.000,-12.500,-9.500
0.956,-10.500,-20.000,-13.000,-10.000
0.957,-10.000,-20.500,-13.500,-10.000
0.958,-10.000,-21.000,-14.000,-10.500
0.959,-10.000,-21.500,-14.500,-11.000
0.960,-10.500,-22.500,-15.500,-11.500
0.961,-10.500,-23.000,-15.500,-11.500
0.962,-10.500,-23.500,-16.000,-12.000
0.963,-10.500,-23.500,-16.000,-12.500
0.964,-11.000,-24.000,-16.500,-12.500
0.965,-11.000,-23.500,-16.000,-12.500
0.966,-11.000,-23.500,-16.000,-13.000
0.967,-11.000,-23.000,-15.500,-12.500
0.968,-11.000,-22.500,-15.000,-12.500
0.969,-11.000,-21.500,-14.000,-12.000
0.970,-11.000,-21.000,-14.000,-12.000
0.971,-11.000,-20.000,-13.500,-11.500
0.972,-11.000,-20.000,-13.000,-11.000
0.973,-10.500,-19.500,-13.000,-10.500
0.974,-11.000,-19.500,-13.000,-11.000
0.975,-10.500,-19.500,-12.500,-11.000
0.976,-10.500,-20.000,-12.500,-11.000
0.977,-10.000,-20.500,-12.500,-11.000
0.978,-10.000,-21.000,-12.500,-11.500
0.979,-9.500,-21.500,-12.000,-11.500
0.980,-9.500,-22.500,-12.500,-12.000
0.981,-9.500,-23.000,-12.500,-12.000
0.982,-10.000,-24.000,-12.500,-12.000
0.983,-10.000,-24.000,-12.500,-12.000
0.984,-10.000,-24.000,-12.500,-12.000
0.985,-10.000,-23.500,-12.000,-12.000
0.986,-10.000,-23.500,-12.000,-12.000
0.987,-10.000,-22.500,-11.500,-11.500
0.988,-10.000,-22.000,-11.500,-11.500
0.989,-10.000,-21.000,-11.500,-11.500
0.990,-10.500,-20.500,-11.000,-11.500
0.991,-10.000,-19.500,-10.500,-11.500
0.992,-10.000,-19.000,-10.500,-12.000
0.993,-10.000,-18.000,-10.000,-12.000
0.994,-10.000,-18.000,-9.500,-12.000
0.995,-9.500,-17.500,-9.500,-12.000
0.996,-10.000,-18.000,-9.500,-12.000
0.997,-9.500,-18.000,-9.500,-12.000
0.998,-10.000,-19.000,-10.000,-11.500
0.999,-9.500,-20.000,-10.000,-11.500
1.000,-10.000,-20.500,-11.000,-11.500
1.001,-9.500,-21.000,-11.500,-11.500
1.002,-10.000,-22.000,-12.000,-12.000
1.003,-10.000,-22.000,-12.000,-12.000
1.004,-10.000,-22.500,-13.000,-12.500
1.005,-10.000,-22.000,-13.000,-12.500
1.006,-10.500,-22.000,-13.500,-13.000
1.007,-10.000,-21.000,-13.500,-12.500
1.008,-10.000,-20.500,-13.500,-12.500
1.009,-10.000,-19.500,-13.000,-12.000
1.010,-10.000,-19.000,-12.500,-11.500
1.011,-10.000,-18.000,-11.500,-11.000
1.012,-10.000,-17.500,-11.000,-10.500
1.013,-9.500,-17.000,-10.500,-10.000
1.014,-9.500,-17.000,-11.000,-10.000
1.015,-9.000,-17.000,-11.000,-9.500
1.016,-9.000,-17.500,-11.000,-9.500
1.017,-8.500,-18.500,-11.500,-9.500
1.018,-8.500,-19.500,-12.000,-10.000
1.019,-8.500,-21.000,-12.000,-10.000
1.020,-8.500,-22.500,-12.500,-10.500
1.021,-8.000,-23.500,-13.000,-11.000
1.022,-8.500,-24.500,-13.000,-11.000
1.023,-8.500,-24.500,-13.000,-11.000
1.024,-8.500,-25.000,-13.000,-11.500
1.025,-8.500,-24.500,-13.000,-11.500
1.026,-9.000,-24.000,-12.500,-11.500
1.027,-9.000,-23.500,-12.000,-11.000
1.028,-9.500,-23.000,-12.000,-11.000
1.029,-9.500,-22.500,-12.000,-10.500
1.030,-9.500,-22.000,-11.500,-10.500
1.031,-9.000,-21.000,-11.000,-10.500
1.032,-9.000,-21.000,-11.000,-10.500
1.033,-9.000,-20.500,-10.500,-10.000
1.034,-9.000,-20.000,-10.500,-10.500
1.035,-9.000,-20.000,-10.500,-10.000
1.036,-9.000,-20.500,-11.000,-10.500
1.037,-9.500,-20.500,-11.000,-10.500
1.038,-10.000,-21.000,-12.000,-11.000
1.039,-10.000,-21.500,-12.500,-11.000
1.040,-10.000,-22.000,-13.500,-11.500
1.041,-10.000,-22.000,-14.000,-11.500
1.042,-10.000,-22.000,-15.000,-11.500
1.043,-9.500,-22.000,-15.500,-11.500
1.044,-9.000,-22.000,-16.000,-11.500
1.045,-9.000,-21.500,-16.000,-11.500
1.046,-9.000,-21.500,-16.000,-11.500
1.047,-9.000,-21.000,-15.000,-11.500
1.048,-9.000,-21.000,-14.500,-11.500
1.049,-9.500,-20.000,-13.500,-11.000
1.050,-9.500,-19.500,-13.000,-11.000
1.051,-9.500,-18.000,-12.500,-10.500
1.052,-9.500,-17.500,-12.000,-10.000
1.053,-9.500,-16.500,-11.500,-10.000
1.054,-9.500,-16.000,-11.500,-10.000
1.055,-9.000,-16.000,-11.500,-9.500
1.056,-9.000,-16.500,-12.000,-10.000
1.057,-8.500,-17.000,-12.500,-10.000
1.058,-9.000,-18.000,-13.000,-11.000
1.059,-9.000,-19.000,-13.500,-11.500
1.060,-9.000,-20.000,-14.000,-12.000
1.061,-9.000,-21.000,-14.500,-12.000
1.062,-9.000,-22.000,-14.500,-12.500
1.063,-8.500,-23.000,-14.500,-12.500
1.064,-8.500,-23.500,-14.500,-12.500
1.065,-8.000,-23.500,-14.500,-12.500
1.066,-8.000,-23.500,-14.000,-12.500
1.067,-8.000,-23.000,-13.500,-12.000
1.068,-8.500,-22.500,-13.500,-12.000
1.069,-8.500,-21.500,-12.500,-11.500
1.070,-9.000,-20.500,-12.000,-11.500
1.071,-9.500,-19.000,-11.000,-11.000
1.072,-10.000,-18.500,-10.500,-11.000
1.073,-10.000,-17.500,-10.000,-11.000
1.074,-10.000,-17.500,-10.500,-11.000
1.075,-10.000,-17.500,-11.000,-11.000
1.076,-10.000,-18.000,-12.000,-11.500
1.077,-9.500,-18.500,-12.500,-12.000
1.078,-9.500,-19.500,-13.500,-12.500
1.079,-9.000,-20.500,-13.500,-12.500
1.080,-9.000,-21.000,-14.000,-12.500
1.081,-8.500,-21.500,-14.000,-12.500
1.082,-9.000,-22.000,-14.000,-12.500
1.083,-8.500,-22.000,-14.000,-12.500
1.084,-9.000,-22.000,-14.500,-12.500
1.085,-9.000,-21.500,-14.500,-12.000
1.086,-9.000,-21.000,-14.500,-12.500
1.087,-8.500,-20.000,-14.000,-12.500
1.088,-9.000,-19.500,-14.000,-12.500
1.089,-9.000,-19.000,-13.500,-12.500
1.090,-9.500,-18.500,-13.000,-12.500
1.091,-9.500,-17.500,-12.500,-12.500
1.092,-9.500,-17.000,-12.000,-12.000
1.093,-9.000,-16.500,-11.500,-12.000
1.094,-9.000,-16.500,-11.500,-12.000
1.095,-9.000,-17.000,-11.500,-12.000
1.096,-9.000,-17.500,-12.000,-12.000
1.097,-8.500,-18.500,-12.500,-12.500
1.098,-8.500,-20.000,-13.500,-13.000
1.099,-8.500,-21.000,-13.500,-13.000
1.100,-8.500,-22.000,-14.000,-13.500
1.101,-8.000,-22.500,-14.000,-13.500
1.102,-8.500,-23.000,-14.500,-14.000
1.103,-8.500,-22.500,-14.500,-13.500
1.104,-9.000,-22.500,-14.500,-13.500
1.105,-9.000,-21.500,-14.000,-13.000
1.106,-9.000,-21.000,-14.000,-13.000
1.107,-9.000,-20.500,-13.000,-13.000
1.108,-9.000,-20.000,-13.000,-13.000
1.109,-9.000,-19.000,-12.500,-13.000
1.110,-9.500,-18.500,-12.000,-13.000
1.111,-9.500,-18.000,-11.000,-13.000
1.112,-9.500,-17.500,-11.000,-13.000
1.113,-9.500,-17.000,-10.500,-13.000
1.114,-9.500,-17.000,-11.000,-13.500
1.115,-9.000,-17.000,-11.000,-13.500
1.116,-9.000,-17.500,-11.500,-13.500
1.117,-9.000,-18.000,-12.000,-13.500
1.118,-9.000,-19.000,-13.000,-14.000
1.119,-9.000,-19.500,-14.000,-14.000
1.120,-9.500,-20.500,-14.500,-14.000
1.121,-9.500,-20.500,-15.000,-14.000
1.122,-9.500,-21.000,-15.500,-14.000
1.123,-9.000,-21.000,-15.500,-14.000
1.124,-9.500,-21.500,-15.500,-14.000
1.125,-9.500,-21.000,-15.000,-13.500
1.126,-9.500,-20.500,-14.500,-13.000
1.127,-9.500,-20.000,-13.500,-12.500
1.128,-10.000,-19.000,-13.000,-12.500
1.129,-10.000,-18.000,-12.500,-12.000
1.130,-10.000,-17.500,-12.000,-11.500
1.131,-10.000,-17.000,-12.000,-11.500
1.132,-10.000,-16.500,-12.000,-11.500
1.133,-10.000,-16.000,-11.500,-11.500
1.134,-10.000,-16.000,-12.000,-11.500
1.135,-9.500,-16.000,-12.000,-11.500
1.136,-9.500,-16.500,-12.500,-12.000
1.137,-9.000,-17.000,-13.000,-12.000
1.138,-9.000,-18.000,-13.500,-12.500
1.139,-9.000,-19.000,-13.500,-13.000
1.140,-9.000,-20.000,-14.000,-13.500
1.141,-8.500,-20.500,-14.500,-13.500
1.142,-8.500,-21.000,-15.000,-14.000
1.143,-8.500,-21.000,-15.000,-14.000
1.144,-8.500,-21.000,-15.500,-14.000
1.145,-8.000,-21.000,-15.500,-14.000
1.146,-8.500,-21.000,-15.500,-14.000
1.147,-8.500,-20.500,-15.000,-14.000
1.148,-9.000,-20.500,-15.000,-14.000
1.149,-9.000,-20.000,-14.500,-14.000
1.150,-9.500,-19.500,-14.500,-13.500
1.151,-9.500,-19.000,-14.000,-13.000
1.152,-9.500,-18.500,-14.000,-13.000
1.153,-9.500,-18.000,-13.500,-12.500
1.154,-9.500,-18.000,-13.500,-12.500
1.155,-9.500,-18.000,-13.000,-12.500
1.156,-9.500,-18.000,-13.000,-12.500
1.157,-9.000,-18.000,-13.000,-12.000
1.158,-9.000,-18.500,-13.000,-12.000
1.159,-8.500,-18.500,-12.500,-12.000
1.160,-8.500,-19.000,-12.500,-12.000
1.161,-8.000,-19.000,-12.000,-11.500
1.162,-8.000,-19.000,-12.000,-11.500
1.163,-8.000,-18.500,-11.500,-11.000
1.164,-8.000,-18.500,-11.000,-10.500
1.165,-8.000,-17.500,-10.500,-9.500
1.166,-8.500,-17.500,-10.500,-9.500
1.167,-9.000,-16.500,-10.500,-8.500
1.168,-9.000,-16.000,-10.000,-8.500
1.169,-9.000,-15.000,-9.500,-8.000
1.170,-9.000,-14.500,-9.500,-8.000
1.171,-9.000,-13.500,-9.000,-7.500
1.172,-9.000,-13.000,-9.000,-7.500
1.173,-9.000,-12.500,-9.000,-7.500
1.174,-9.000,-12.500,-9.500,-8.000
1.175,-9.000,-13.000,-10.000,-8.000
1.176,-9.500,-14.000,-11.000,-8.500
1.177,-9.500,-15.500,-12.000,-8.500
1.178,-10.000,-17.000,-13.000,-9.500
1.179,-10.000,-18.500,-14.000,-10.000
1.180,-10.000,-20.500,-15.000,-11.000
1.181,-10.000,-21.500,-16.000,-11.500
1.182,-10.500,-23.000,-17.000,-12.500
1.183,-10.500,-23.500,-17.500,-13.000
1.184,-10.500,-24.000,-18.000,-14.000
1.185,-10.500,-24.000,-18.500,-14.000
1.186,-11.000,-23.500,-18.500,-14.000
1.187,-11.000,-23.000,-18.500,-14.000
1.188,-11.000,-22.000,-18.000,-13.500
1.189,-10.500,-21.000,-17.000,-13.000
1.190,-10.000,-20.000,-16.500,-12.500
1.191,-9.500,-18.500,-15.500,-12.000
1.192,-9.500,-17.500,-14.500,-12.000
1.193,-9.500,-16.000,-13.500,-11.500
1.194,-9.000,-15.500,-13.000,-11.500
1.195,-8.500,-15.000,-12.000,-11.000
1.196,-8.500,-15.000,-11.500,-10.500
1.197,-8.000,-15.000,-11.000,-10.000
1.198,-7.500,-15.500,-11.000,-10.000
1.199,-7.000,-15.500,-11.000,-9.500
1.200,-7.000,-16.500,-11.000,-10.000
1.201,-7.000,-17.000,-11.000,-10.000
1.202,-7.000,-17.500,-11.000,-10.000
1.203,-7.000,-17.500,-11.000,-10.500
1.204,-7.500,-18.000,-11.000,-10.500
1.205,-8.000,-18.500,-10.500,-10.500
1.206,-8.500,-18.500,-11.000,-11.000
1.207,-8.500,-18.500,-11.000,-11.000
1.208,-8.500,-18.500,-12.000,-11.000
1.209,-8.500,-18.000,-12.500,-11.000
1.210,-8.500,-17.500,-13.000,-11.000
1.211,-8.500,-16.500,-13.000,-11.000
1.212,-8.500,-16.000,-13.500,-11.000
1.213,-8.000,-15.000,-13.500,-11.000
1.214,-8.500,-14.500,-13.500,-11.000
1.215,-8.500,-14.500,-13.500,-11.000
1.216,-8.500,-15.000,-14.000,-11.500
1.217,-8.000,-15.000,-14.000,-11.500
1.218,-8.500,-16.000,-14.500,-11.500
1.219,-8.000,-17.000,-15.000,-11.000
1.220,-8.000,-18.000,-15.000,-11.500
1.221,-8.000,-19.000,-15.000,-11.500
1.222,-8.000,-19.500,-15.500,-11.500
1.223,-8.000,-20.000,-15.500,-12.000
1.224,-8.000,-20.500,-16.000,-12.500
1.225,-8.000,-20.500,-16.000,-12.500
1.226,-8.500,-20.500,-16.000,-13.000
1.227,-8.500,-20.000,-15.500,-13.000
1.228,-9.000,-19.500,-15.500,-13.000
1.229,-9.000,-18.500,-15.000,-12.500
1.230,-9.500,-18.000,-15.000,-12.500
1.231,-9.000,-16.500,-14.000,-12.500
1.232,-9.000,-16.000,-13.500,-12.500
1.233,-9.000,-15.000,-13.000,-12.500
1.234,-9.000,-14.500,-12.500,-12.000
1.235,-9.000,-14.000,-12.000,-11.500
1.236,-8.500,-14.500,-12.000,-11.500
1.237,-8.000,-14.500,-11.500,-11.000
1.238,-8.000,-15.500,-11.500,-10.500
1.239,-7.500,-16.000,-11.000,-10.000
1.240,-8.000,-16.500,-11.000,-10.500
1.241,-8.000,-17.000,-11.000,-10.500
1.242,-8.500,-17.500,-11.500,-11.000
1.243,-8.500,-17.500,-11.500,-11.500
1.244,-9.000,-17.500,-11.500,-11.500
1.245,-9.000,-17.500,-11.500,-11.500
1.246,-9.500,-17.500,-12.000,-12.000
1.247,-9.500,-17.000,-11.500,-12.000
1.248,-9.500,-16.500,-11.000,-12.000
1.249,-9.000,-16.000,-10.500,-11.500
1.250,-9.000,-15.000,-10.000,-12.000
1.251,-8.500,-14.000,-9.500,-12.000
1.252,-8.500,-14.000,-9.000,-12.000
1.253,-8.500,-13.500,-9.000,-12.000
1.254,-8.500,-13.500,-9.000,-12.500
1.255,-8.500,-13.500,-9.000,-12.000
1.256,-9.000,-14.500,-9.000,-12.000
1.257,-8.500,-15.000,-9.000,-12.000
1.258,-8.500,-16.000,-9.000,-11.500
1.259,-8.500,-16.500,-9.500,-11.000
1.260,-8.500,-17.000,-10.000,-11.000
1.261,-8.000,-17.500,-10.000,-11.000
1.262,-8.500,-18.000,-10.500,-11.000
1.263,-8.000,-18.000,-10.500,-11.000
1.264,-8.500,-18.000,-10.500,-11.500
1.265,-8.500,-17.500,-10.000,-11.500
1.266,-8.500,-17.500,-9.500,-12.000
1.267,-8.000,-16.500,-8.500,-12.000
1.268,-8.000,-15.500,-8.000,-11.500
1.269,-8.000,-14.500,-7.500,-11.000
1.270,-8.000,-13.500,-7.000,-10.500
1.271,-7.500,-12.500,-7.000,-10.500
1.272,-7.500,-12.500,-7.000,-10.500
1.273,-7.500,-12.000,-7.000,-10.000
1.274,-7.500,-12.500,-7.500,-10.500
1.275,-7.500,-13.000,-7.500,-10.500
1.276,-8.000,-14.000,-8.500,-11.000
1.277,-8.000,-14.500,-8.500,-11.000
1.278,-8.000,-15.500,-9.500,-11.000
1.279,-7.500,-16.000,-10.000,-11.000
1.280,-7.500,-17.000,-10.500,-11.000
1.281,-7.500,-17.500,-10.500,-10.500
1.282,-7.500,-18.000,-11.000,-10.500
1.283,-7.500,-18.500,-11.000,-10.000
1.284,-7.500,-19.000,-11.500,-10.000
1.285,-7.500,-19.000,-11.000,-9.500
1.286,-8.000,-19.000,-10.500,-9.500
1.287,-7.500,-18.000,-10.000,-9.500
1.288,-8.000,-17.500,-9.000,-9.500
1.289,-8.000,-16.000,-8.000,-9.000
1.290,-8.000,-15.000,-7.500,-9.000
1.291,-8.000,-14.000,-6.500,-8.000
1.292,-8.500,-13.500,-5.500,-7.500
1.293,-8.500,-12.500,-4.500,-6.000
1.294,-8.500,-12.500,-4.000,-4.500
1.295,-8.000,-12.500,-3.000,-3.000
1.296,-7.500,-13.000,-3.000,-1.000
1.297,-7.500,-13.000,-2.000,1.000
1.298,-7.500,-14.000,-2.000,2.500
1.299,-7.500,-14.500,-1.500,4.000
1.300,-7.500,-15.500,-1.500,5.500
1.301,-8.000,-16.000,-1.500,6.000
1.302,-8.500,-17.000,-2.000,7.000
1.303,-9.000,-17.500,-2.000,8.000
1.304,-9.500,-18.000,-3.000,9.000
1.305,-10.000,-18.500,-3.500,9.500
1.306,-11.000,-19.000,-4.000,10.000
1.307,-11.500,-19.000,-5.000,10.500
1.308,-12.000,-19.500,-6.500,11.000
1.309,-12.500,-20.000,-8.000,10.500
1.310,-13.500,-21.000,-10.000,10.000
1.311,-14.000,-22.000,-12.500,9.000
1.312,-15.000,-23.500,-16.000,8.000
1.313,-15.500,-25.000,-19.000,6.000
1.314,-16.500,-27.500,-23.000,4.500
1.315,-17.000,-29.500,-27.000,2.000
1.316,-17.500,-32.000,-31.500,-1.500
1.317,-18.000,-34.500,-35.500,-5.000
1.318,-18.500,-37.500,-40.500,-9.500
1.319,-18.500,-40.500,-45.000,-14.500
1.320,-19.000,-43.000,-50.000,-20.500
1.321,-19.000,-45.500,-55.000,-27.500
1.322,-19.500,-48.000,-60.500,-35.500
1.323,-20.000,-50.000,-65.500,-43.500
1.324,-20.500,-52.000,-71.000,-51.500
1.325,-20.500,-53.000,-75.500,-59.500
1.326,-20.500,-54.000,-79.500,-67.000
1.327,-20.500,-54.500,-82.500,-73.000
1.328,-20.500,-54.000,-85.000,-78.000
1.329,-20.000,-53.000,-85.500,-81.500
1.330,-19.500,-51.500,-85.000,-83.500
1.331,-19.000,-49.000,-83.000,-84.000
1.332,-18.500,-46.500,-80.000,-83.500
1.333,-17.000,-43.500,-76.000,-81.500
1.334,-16.000,-41.000,-71.500,-79.500
1.335,-15.000,-38.500,-67.000,-77.000
1.336,-14.000,-37.000,-63.000,-74.500
1.337,-13.000,-35.000,-59.000,-71.500
1.338,-12.500,-33.500,-55.500,-68.500
1.339,-11.500,-31.500,-51.500,-65.500
1.340,-11.000,-30.500,-48.000,-62.500
1.341,-10.500,-29.000,-44.000,-59.500
1.342,-10.000,-27.500,-40.500,-56.500
1.343,-9.500,-26.000,-37.000,-53.000
1.344,-9.000,-24.500,-34.000,-50.000
1.345,-8.500,-23.000,-30.500,-47.000
1.346,-8.000,-21.500,-28.000,-44.500
1.347,-7.500,-20.000,-25.500,-41.500
1.348,-7.500,-18.000,-23.000,-39.000
1.349,-7.000,-16.000,-20.500,-36.000
1.350,-7.000,-14.500,-19.000,-34.000
1.351,-7.000,-13.000,-17.000,-31.500
1.352,-7.500,-12.000,-15.500,-29.000
1.353,-7.500,-10.500,-14.000,-27.000
1.354,-7.500,-10.000,-13.000,-25.000
1.355,-7.500,-9.500,-11.500,-23.000
1.356,-7.500,-9.500,-11.000,-21.500
1.357,-7.000,-9.500,-10.500,-19.500
1.358,-6.500,-10.500,-10.500,-17.500
1.359,-6.500,-11.000,-10.500,-16.000
1.360,-6.500,-11.500,-10.500,-14.500
1.361,-6.500,-12.000,-10.000,-13.000
1.362,-6.500,-13.000,-10.500,-12.000
1.363,-6.500,-13.000,-10.000,-11.000
1.364,-7.000,-13.500,-10.000,-10.500
1.365,-7.000,-13.500,-9.500,-10.000
1.366,-7.000,-14.000,-9.000,-9.500
1.367,-6.500,-13.500,-8.500,-8.500
1.368,-6.500,-13.500,-8.000,-8.000
1.369,-6.500,-12.500,-7.000,-6.500
1.370,-6.500,-12.000,-6.500,-5.500
1.371,-6.500,-11.000,-5.500,-4.500
1.372,-7.000,-10.500,-5.000,-4.000
1.373,-6.500,-9.500,-4.000,-3.500
1.374,-6.500,-9.500,-3.500,-3.500
1.375,-6.000,-9.500,-3.000,-3.500
1.376,-6.000,-10.000,-3.000,-4.000
1.377,-6.000,-10.500,-2.500,-4.000
1.378,-6.000,-11.000,-3.000,-4.000
1.379,-5.500,-11.500,-3.000,-4.000
1.380,-5.500,-12.000,-3.500,-4.000
1.381,-5.500,-12.500,-3.500,-3.500
1.382,-6.000,-13.000,-4.500,-3.500
1.383,-6.000,-13.000,-4.500,-3.000
1.384,-6.500,-13.000,-5.000,-3.000
1.385,-6.500,-12.500,-4.500,-3.000
1.386,-6.500,-12.000,-4.500,-3.000
1.387,-6.500,-11.000,-4.000,-3.000
1.388,-7.000,-10.500,-4.000,-3.000
1.389,-7.000,-9.500,-4.000,-3.000
1.390,-7.000,-8.500,-4.000,-2.500
1.391,-7.000,-8.000,-4.500,-2.500
1.392,-7.000,-7.500,-5.000,-2.500
1.393,-7.000,-7.000,-5.000,-2.000
1.394,-7.000,-7.000,-5.500,-2.000
1.395,-6.500,-7.000,-5.500,-2.000
1.396,-6.000,-8.000,-6.000,-2.500
1.397,-6.000,-9.000,-6.000,-2.500
1.398,-6.000,-10.000,-6.500,-3.000
1.399,-5.500,-11.000,-6.500,-3.000
1.400,-6.000,-12.500,-7.000,-4.000
1.401,-6.000,-13.500,-7.000,-4.000
1.402,-6.000,-14.500,-7.500,-4.500
1.403,-6.000,-14.500,-7.000,-4.000
1.404,-6.500,-14.500,-7.000,-4.000
1.405,-6.500,-14.500,-6.500,-4.000
1.406,-6.500,-14.000,-7.000,-4.000
1.407,-6.000,-13.000,-7.000,-4.000
1.408,-6.500,-12.500,-7.000,-4.000
1.409,-6.500,-11.000,-6.500,-4.000
1.410,-6.500,-10.500,-6.000,-3.500
1.411,-7.000,-9.500,-5.500,-3.000
1.412,-7.000,-9.000,-4.500,-2.500
1.413,-7.000,-8.500,-4.000,-2.000
1.414,-7.000,-8.500,-3.500,-2.000
1.415,-7.000,-8.500,-3.500,-2.000
1.416,-7.000,-9.000,-4.000,-2.000
1.417,-6.500,-10.000,-4.500,-2.500
1.418,-6.500,-11.000,-5.500,-3.000
1.419,-6.500,-11.500,-6.500,-3.500
1.420,-6.000,-12.500,-7.500,-4.500
1.421,-6.000,-13.500,-8.000,-4.500
1.422,-6.000,-14.000,-8.500,-4.500
1.423,-5.500,-14.500,-8.500,-4.500
1.424,-6.000,-14.500,-8.500,-4.500
1.425,-5.500,-14.000,-8.500,-4.000
1.426,-6.000,-13.500,-8.000,-3.500
1.427,-6.000,-12.000,-7.500,-3.000
1.428,-6.000,-11.000,-6.500,-2.500
1.429,-6.000,-9.500,-5.500,-1.500
1.430,-6.000,-8.500,-4.500,-1.000
1.431,-6.000,-7.500,-3.000,0.000
1.432,-6.000,-7.000,-2.500,0.500
1.433,-6.000,-6.500,-2.000,0.500
1.434,-6.000,-6.500,-2.000,0.500
1.435,-5.500,-6.500,-2.000,0.000
1.436,-5.500,-7.000,-2.500,-0.500
1.437,-5.500,-7.500,-3.000,-0.500
1.438,-5.500,-8.500,-4.000,-1.500
1.439,-5.000,-9.500,-4.500,-2.000
1.440,-5.000,-10.500,-5.000,-2.500
1.441,-4.500,-11.500,-5.500,-3.000
1.442,-4.500,-12.000,-6.000,-3.500
1.443,-4.500,-12.500,-6.000,-4.000
1.444,-4.500,-12.500,-6.000,-4.000
1.445,-4.000,-12.000,-6.000,-4.000
1.446,-4.500,-11.500,-6.000,-4.000
1.447,-4.500,-11.000,-5.500,-3.500
1.448,-4.500,-10.000,-5.000,-3.000
1.449,-4.500,-9.000,-4.500,-2.500
1.450,-5.000,-8.000,-4.500,-2.000
1.451,-5.000,-7.000,-4.500,-1.500
1.452,-5.500,-7.000,-4.500,-1.000
1.453,-5.000,-6.500,-4.500,-1.000
1.454,-5.500,-7.000,-5.000,-1.000
1.455,-5.000,-7.000,-5.000,-1.000
1.456,-5.000,-7.500,-5.500,-1.500
1.457,-4.500,-8.000,-6.000,-1.500
1.458,-4.500,-9.000,-6.000,-2.000
1.459,-4.000,-9.000,-6.000,-1.500
1.460,-4.500,-9.500,-6.000,-1.500
1.461,-4.500,-9.500,-5.500,-1.500
1.462,-4.500,-10.000,-5.500,-1.000
1.463,-4.500,-9.500,-5.000,-0.500
1.464,-5.000,-9.500,-4.500,-0.500
1.465,-5.000,-9.500,-4.000,-0.500
1.466,-5.000,-9.500,-3.500,-0.500
1.467,-5.000,-9.000,-3.000,0.000
1.468,-5.000,-8.500,-2.000,0.500
1.469,-5.000,-7.500,-1.500,0.500
1.470,-5.500,-7.000,-1.000,1.500
1.471,-5.500,-6.500,-0.500,1.500
1.472,-5.500,-6.000,0.000,2.000
1.473,-5.000,-5.000,0.000,2.500
1.474,-5.000,-5.000,-0.500,2.500
1.475,-5.000,-5.000,-1.000,2.500
1.476,-5.000,-6.000,-2.000,2.000
1.477,-5.000,-6.500,-3.000,1.000
1.478,-5.000,-7.500,-4.000,0.000
1.479,-4.500,-8.500,-5.000,-1.000
1.480,-4.500,-10.000,-6.000,-1.500
1.481,-4.500,-11.000,-6.500,-2.000
1.482,-4.500,-11.500,-7.000,-2.500
1.483,-4.500,-12.000,-7.000,-2.500
1.484,-5.000,-12.500,-7.000,-2.500
1.485,-5.000,-12.500,-7.000,-2.500
1.486,-5.500,-12.500,-7.000,-2.500
1.487,-5.500,-12.000,-6.500,-2.000
1.488,-5.500,-12.000,-6.500,-2.000
1.489,-6.000,-11.000,-6.000,-1.500
1.490,-6.500,-10.500,-6.000,-1.500
1.491,-6.500,-9.500,-6.000,-1.000
1.492,-6.500,-8.500,-6.000,-1.000
1.493,-6.000,-8.000,-5.500,-1.000
1.494,-6.000,-7.500,-5.500,-1.000
1.495,-5.500,-7.500,-5.500,-0.500
1.496,-5.000,-8.000,-6.500,-1.000
1.497,-4.500,-9.000,-7.000,-1.000
1.498,-4.500,-10.000,-8.000,-1.500
1.499,-4.500,-10.500,-8.500,-2.000
1.500,-4.500,-11.500,-9.000,-3.000
1.501,-4.500,-12.000,-9.500,-3.500
1.502,-5.000,-13.000,-9.500,-4.000
1.503,-5.500,-13.500,-9.500,-4.000
1.504,-6.000,-14.500,-9.500,-4.500
1.505,-6.000,-14.500,-9.500,-4.500
1.506,-6.500,-14.500,-9.000,-4.500
1.507,-6.500,-14.000,-9.000,-4.000
1.508,-7.000,-13.500,-9.000,-4.000
1.509,-7.000,-12.500,-9.000,-4.000
1.510,-7.500,-11.500,-9.000,-4.000
1.511,-7.500,-10.500,-8.500,-4.000
1.512,-7.500,-10.000,-8.500,-4.000
1.513,-7.000,-9.500,-8.500,-4.000
1.514,-7.500,-9.000,-9.000,-4.500
1.515,-7.500,-9.000,-9.000,-5.000
1.516,-7.500,-9.500,-9.500,-5.000
1.517,-7.000,-10.500,-10.000,-5.000
1.518,-7.000,-11.500,-11.000,-5.500
1.519,-7.000,-12.500,-11.500,-6.000
1.520,-7.000,-13.500,-12.000,-6.500
1.521,-6.500,-14.500,-12.000,-6.500
1.522,-7.000,-15.500,-13.000,-6.500
1.523,-7.000,-15.500,-13.000,-6.500
1.524,-7.500,-15.500,-13.500,-6.500
1.525,-7.500,-15.500,-14.000,-6.500
1.526,-8.000,-15.000,-14.500,-6.500
1.527,-8.000,-14.500,-15.000,-6.000
1.528,-8.000,-14.000,-15.500,-6.500
1.529,-8.000,-13.500,-15.500,-6.500
1.530,-8.000,-13.000,-15.500,-6.500
1.531,-7.500,-12.500,-15.500,-6.000
1.532,-7.000,-12.000,-15.500,-6.000
1.533,-6.500,-12.000,-15.000,-5.500
1.534,-6.500,-12.000,-14.500,-5.500
1.535,-6.500,-12.000,-14.000,-5.500
1.536,-6.500,-12.500,-14.000,-5.500
1.537,-6.000,-13.000,-13.500,-5.500
1.538,-6.500,-13.500,-13.500,-6.000
1.539,-6.500,-14.000,-13.500,-6.500
1.540,-6.500,-15.000,-14.500,-6.500
1.541,-6.500,-16.000,-15.000,-6.500
1.542,-6.500,-17.000,-16.000,-7.000
1.543,-6.500,-17.500,-16.500,-7.500
1.544,-7.000,-18.500,-17.500,-7.500
1.545,-7.000,-18.500,-18.000,-7.500
1.546,-7.500,-18.500,-18.500,-8.000
1.547,-7.500,-18.500,-18.000,-7.500
1.548,-8.000,-18.000,-18.000,-7.000
1.549,-8.000,-17.500,-17.500,-6.500
1.550,-8.000,-16.500,-17.000,-6.000
1.551,-8.000,-16.000,-16.500,-5.500
1.552,-8.000,-15.500,-16.500,-5.000
1.553,-7.500,-15.000,-16.000,-4.500
1.554,-7.500,-14.500,-16.000,-4.500
1.555,-7.000,-14.500,-16.000,-4.000
1.556,-7.000,-15.000,-16.500,-4.000
1.557,-6.500,-15.000,-17.000,-4.000
1.558,-7.000,-16.000,-17.500,-4.000
1.559,-6.500,-16.500,-17.000,-3.500
1.560,-6.500,-17.000,-17.000,-3.500
1.561,-6.000,-17.000,-16.500,-2.500
1.562,-6.000,-17.500,-16.000,-2.000
1.563,-6.000,-17.000,-15.000,-1.500
1.564,-6.000,-17.000,-14.500,-1.000
1.565,-6.000,-16.000,-13.000,0.000
1.566,-6.000,-15.500,-12.500,0.500
1.567,-6.500,-14.500,-11.000,1.000
1.568,-6.500,-13.500,-10.000,1.500
1.569,-6.500,-12.000,-8.500,2.500
1.570,-7.000,-11.000,-7.500,3.500
1.571,-7.000,-9.500,-6.500,4.000
1.572,-7.000,-9.000,-6.000,5.000
1.573,-6.500,-8.000,-5.500,5.500
1.574,-6.500,-8.000,-5.000,6.000
1.575,-6.000,-8.000,-5.000,6.000
1.576,-6.000,-8.500,-5.000,6.000
1.577,-5.500,-9.000,-5.000,5.500
1.578,-5.000,-10.000,-5.500,5.500
1.579,-5.000,-10.500,-5.500,5.000
1.580,-5.000,-11.500,-6.000,5.000
1.581,-4.500,-11.500,-5.500,4.500
1.582,-5.000,-12.000,-5.500,4.500
1.583,-5.000,-12.000,-4.500,4.500
1.584,-5.000,-12.000,-4.000,5.000
1.585,-5.000,-11.500,-3.000,5.500
1.586,-5.500,-11.000,-2.000,6.500
1.587,-5.500,-9.500,-1.000,7.000
1.588,-5.500,-8.500,0.000,8.000
1.589,-5.000,-7.500,1.000,8.500
1.590,-5.500,-6.500,2.500,9.000
1.591,-5.500,-5.000,3.000,9.500
1.592,-5.500,-4.500,4.000,10.000
1.593,-5.000,-3.500,4.000,10.500
1.594,-5.500,-3.000,4.500,11.000
1.595,-5.000,-2.500,4.000,11.000
1.596,-5.000,-3.000,4.000,11.500
1.597,-4.500,-3.000,4.000,11.500
1.598,-4.500,-3.500,4.000,11.500
1.599,-4.000,-3.500,4.000,11.500
1.600,-4.000,-3.500,4.000,12.000
1.601,-4.000,-3.500,4.500,12.500
1.602,-4.500,-3.500,5.000,13.000
1.603,-4.500,-3.500,5.500,13.000
1.604,-5.000,-3.500,6.000,13.500
1.605,-5.000,-3.500,6.000,13.000
1.606,-5.500,-3.500,6.000,13.000
1.607,-5.500,-3.500,6.000,12.500
1.608,-6.000,-4.000,6.000,12.000
1.609,-6.000,-4.000,5.500,11.000
1.610,-6.500,-4.000,5.500,10.500
1.611,-6.500,-3.500,4.500,9.500
1.612,-6.500,-4.000,4.000,8.500
1.613,-6.000,-4.000,3.000,8.000
1.614,-6.000,-4.500,2.000,7.500
1.615,-5.500,-4.500,1.000,7.000
1.616,-5.500,-5.500,0.000,6.500
1.617,-5.000,-6.500,-1.000,5.500
1.618,-5.000,-8.000,-2.000,5.000
1.619,-5.000,-9.000,-2.500,4.000
1.620,-5.000,-10.000,-3.500,4.000
1.621,-5.000,-10.500,-3.500,3.500
1.622,-5.000,-11.000,-4.000,3.500
1.623,-5.000,-10.500,-3.500,3.000
1.624,-5.000,-10.000,-3.500,3.500
1.625,-4.500,-9.000,-2.500,4.000
1.626,-4.500,-8.500,-1.500,5.000
1.627,-4.000,-7.000,-0.500,5.500
1.628,-4.000,-5.500,1.000,6.500
1.629,-4.000,-4.000,2.000,7.500
1.630,-4.500,-2.500,3.000,8.000
1.631,-4.500,-1.000,4.000,8.500
1.632,-4.500,-0.500,5.000,9.000
1.633,-4.000,0.500,5.500,9.000
1.634,-4.000,0.500,6.000,9.500
1.635,-3.500,0.500,6.000,9.000
1.636,-3.500,-0.500,6.000,9.000
1.637,-3.000,-1.000,6.000,8.500
1.638,-3.000,-2.000,5.500,8.500
1.639,-2.500,-2.500,5.000,8.000
1.640,-2.500,-3.000,4.500,8.000
1.641,-2.500,-3.000,3.500,7.500
1.642,-3.000,-3.000,3.500,7.500
1.643,-3.000,-2.500,3.000,7.500
1.644,-3.500,-2.500,3.000,8.000
1.645,-3.500,-2.000,3.000,8.000
1.646,-4.000,-1.500,3.000,8.500
1.647,-4.000,-1.000,3.500,8.500
1.648,-4.500,-0.500,4.000,9.000
1.649,-4.500,0.500,4.000,9.500
1.650,-5.000,1.500,4.500,10.000
1.651,-4.500,2.000,5.000,10.000
1.652,-4.500,3.000,5.500,11.000
1.653,-4.500,3.000,5.500,11.000
1.654,-4.000,3.500,6.000,11.500
1.655,-3.500,3.000,6.000,11.000
1.656,-3.500,2.500,6.000,11.000
1.657,-3.500,1.500,6.000,10.500
1.658,-3.500,0.500,6.000,10.000
1.659,-3.000,-0.500,5.500,9.500
1.660,-3.500,-2.000,5.000,9.000
1.661,-3.500,-2.500,5.000,9.000
1.662,-3.500,-3.500,5.000,9.000
1.663,-3.000,-3.500,4.500,9.000
1.664,-3.500,-3.500,5.000,9.000
1.665,-3.500,-3.000,5.000,9.000
1.666,-3.500,-2.500,5.000,9.500
1.667,-3.000,-1.500,5.000,9.000
1.668,-3.500,-1.000,5.500,9.500
1.669,-3.500,0.000,5.500,9.500
1.670,-3.500,0.500,5.500,10.000
1.671,-3.000,1.000,5.500,10.000
1.672,-3.000,2.000,6.000,10.500
1.673,-3.000,2.500,6.000,10.500
1.674,-2.500,3.000,6.000,10.500
1.675,-2.000,3.000,5.500,10.500
1.676,-2.000,3.000,5.500,11.000
1.677,-2.000,2.500,5.000,11.000
1.678,-2.000,2.000,4.500,11.000
1.679,-2.000,1.000,4.500,11.000
1.680,-2.000,0.500,4.500,11.000
1.681,-1.500,0.000,4.500,11.000
1.682,-2.000,-0.500,4.500,11.000
1.683,-1.500,-1.000,4.500,10.500
1.684,-2.000,-1.000,4.500,10.500
1.685,-2.000,-0.500,4.500,10.500
1.686,-2.000,0.000,4.500,10.500
1.687,-2.000,0.500,4.500,10.500
1.688,-2.000,1.500,5.000,11.000
1.689,-2.000,2.500,5.500,11.500
1.690,-2.000,3.500,6.000,12.000
1.691,-2.000,4.000,6.000,12.000
1.692,-2.000,4.500,6.500,12.500
1.693,-1.500,4.500,6.500,12.500
1.694,-1.500,4.500,7.000,12.500
1.695,-1.500,4.500,6.500,12.000
1.696,-1.500,4.000,6.500,12.000
1.697,-1.000,3.000,6.000,11.500
1.698,-1.000,2.500,6.000,11.500
1.699,-1.000,1.500,5.000,11.500
1.700,-1.000,0.500,5.000,11.500
1.701,-1.000,-0.500,4.500,11.000
1.702,-1.500,-1.000,4.000,11.000
1.703,-1.500,-1.500,3.000,10.500
1.704,-2.000,-2.000,3.000,11.000
1.705,-1.500,-1.500,2.500,11.000
1.706,-1.500,-1.500,3.000,11.500
1.707,-1.500,-0.500,3.000,11.500
1.708,-1.500,0.500,3.500,12.000
1.709,-1.000,1.000,4.500,12.000
1.710,-1.500,2.000,5.500,12.500
1.711,-1.500,2.500,6.000,13.000
1.712,-1.500,3.000,7.000,13.500
1.713,-1.000,3.500,7.500,13.500
1.714,-1.000,3.500,8.000,14.000
1.715,-0.500,3.500,8.000,14.000
1.716,-0.500,3.000,8.000,14.000
1.717,0.000,2.500,8.000,13.500
1.718,0.000,1.500,8.000,13.500
1.719,0.000,0.500,8.000,13.000
1.720,0.500,-0.500,7.500,12.500
1.721,0.500,-1.000,7.000,12.000
1.722,0.500,-2.000,7.000,11.500
1.723,0.000,-2.500,6.500,11.000
1.724,0.000,-3.000,6.500,11.000
1.725,0.000,-3.000,6.000,11.000
1.726,0.000,-3.000,6.500,11.000
1.727,0.000,-2.500,7.000,11.500
1.728,-0.500,-2.000,7.500,12.000
1.729,-0.500,-1.000,8.000,12.000
1.730,-1.000,0.000,8.500,12.500
1.731,-1.000,1.000,8.500,12.500
1.732,-1.500,2.000,9.000,13.000
1.733,-1.000,2.500,9.000,13.000
1.734,-1.000,3.000,9.000,13.000
1.735,-1.000,2.500,9.000,13.500
1.736,-1.000,2.500,9.000,13.500
1.737,-0.500,2.000,9.000,13.500
1.738,-0.500,1.500,9.000,13.500
1.739,-0.500,0.500,8.500,13.000
1.740,-0.500,-0.500,8.000,13.000
1.741,-0.500,-1.000,7.000,12.500
1.742,-1.000,-1.500,7.000,12.000
1.743,-1.000,-2.000,6.500,11.500
1.744,-1.500,-2.000,6.000,11.500
1.745,-1.500,-2.000,5.500,11.000
1.746,-1.500,-2.000,6.000,11.500
1.747,-1.500,-1.500,6.000,11.500
1.748,-1.500,-1.000,6.500,11.500
1.749,-1.000,-0.500,7.000,11.500
1.750,-1.500,0.500,7.500,11.500
1.751,-1.500,0.500,8.000,11.500
1.752,-2.000,1.000,8.500,12.000
1.753,-2.000,1.000,8.500,12.000
1.754,-2.000,1.000,8.500,12.500
1.755,-1.500,0.500,8.000,12.500
1.756,-1.500,-0.500,8.000,12.500
1.757,-1.500,-1.500,8.000,12.500
1.758,-1.500,-2.500,7.500,12.500
1.759,-1.000,-3.500,7.000,12.000
1.760,-1.000,-4.500,7.000,12.500
1.761,-1.000,-5.000,7.000,12.000
1.762,-1.000,-5.500,7.000,12.000
1.763,-0.500,-5.500,6.500,12.000
1.764,-1.000,-6.000,6.500,12.000
1.765,-0.500,-5.500,6.500,12.000
1.766,-1.000,-5.500,7.000,12.500
1.767,-1.000,-5.000,7.000,12.500
1.768,-1.000,-4.500,8.000,13.000
1.769,-1.000,-3.500,8.000,13.500
1.770,-1.000,-2.500,9.000,14.000
1.771,-1.000,-1.000,9.500,14.000
1.772,-1.000,0.500,10.000,15.000
1.773,-0.500,1.500,10.000,15.000
1.774,0.000,2.000,10.000,15.500
1.775,0.500,2.000,10.000,15.000
1.776,1.000,2.000,9.500,15.000
1.777,1.500,1.500,9.000,15.000
1.778,1.500,1.000,9.000,14.500
1.779,1.500,0.000,8.500,14.000
1.780,1.500,-0.500,8.500,13.500
1.781,1.000,-1.000,8.500,13.000
1.782,1.000,-1.500,8.500,13.000
1.783,0.500,-1.500,8.500,13.000
1.784,0.000,-2.000,8.500,13.000
1.785,-0.500,-1.500,8.500,13.000
1.786,-1.000,-1.000,8.000,13.500
1.787,-1.000,-0.500,7.500,13.500
1.788,-1.500,0.500,7.000,14.000
1.789,-1.500,1.500,6.500,14.500
1.790,-2.000,2.500,6.500,14.500
1.791,-2.000,3.000,6.500,14.500
1.792,-2.000,3.500,7.000,14.500
1.793,-2.000,3.500,7.000,14.500
1.794,-1.500,4.000,7.000,15.000
1.795,-1.000,3.500,7.000,14.500
1.796,-1.000,3.000,7.000,14.500
1.797,-0.500,2.000,6.500,14.500
1.798,-0.500,1.000,6.500,14.500
1.799,0.000,-0.500,5.500,14.000
1.800,0.500,-1.500,5.000,14.000
1.801,0.500,-2.000,4.500,14.000
1.802,1.000,-3.000,4.000,14.000
1.803,1.000,-3.500,3.500,13.500
1.804,1.000,-3.500,3.500,14.000
1.805,1.000,-3.500,3.000,14.000
1.806,1.000,-3.000,3.500,14.000
1.807,1.000,-2.500,3.500,14.000
1.808,1.000,-2.000,3.500,14.500
1.809,0.500,-1.000,3.500,14.500
1.810,0.500,0.000,3.500,15.000
1.811,0.000,1.000,4.000,15.000
1.812,0.000,1.500,4.500,15.000
1.813,0.000,2.000,4.500,15.000
1.814,-0.500,2.000,4.500,14.500
1.815,-0.500,2.000,4.500,14.000
1.816,-0.500,1.500,4.000,14.000
1.817,0.000,0.500,3.500,13.500
1.818,0.000,-0.500,3.000,13.000
1.819,0.000,-1.500,2.500,12.500
1.820,0.500,-2.500,2.500,12.500
1.821,0.500,-3.000,2.500,12.500
1.822,1.000,-4.000,2.500,12.500
1.823,1.000,-4.000,2.500,12.500
1.824,1.000,-4.500,3.000,13.000
1.825,0.500,-4.000,3.500,13.500
1.826,0.500,-4.000,4.500,13.500
1.827,0.000,-3.000,5.500,13.500
1.828,-0.500,-2.500,6.500,14.000
1.829,-0.500,-1.000,7.000,14.500
1.830,-0.500,0.000,8.000,15.000
1.831,-0.500,1.000,8.000,15.000
1.832,-1.000,2.000,8.500,15.500
1.833,-0.500,2.500,8.500,15.500
1.834,-0.500,2.500,8.500,15.500
1.835,-0.500,2.000,8.000,15.500
1.836,0.000,1.500,7.500,15.500
1.837,0.500,0.500,6.500,15.000
1.838,0.500,-1.000,6.000,14.500
1.839,0.500,-1.500,5.500,14.000
1.840,1.000,-2.500,5.000,14.000
1.841,0.500,-3.000,4.500,13.500
1.842,0.500,-3.500,4.500,13.500
1.843,0.500,-3.000,4.500,13.000
1.844,0.500,-3.000,5.000,13.500
1.845,0.000,-2.000,5.000,13.500
1.846,0.000,-1.500,5.500,14.000
1.847,-0.500,-1.000,6.000,14.500
1.848,-0.500,-0.500,6.500,15.000
1.849,-0.500,0.500,6.500,15.000
1.850,-1.000,1.500,6.500,15.500
1.851,-1.000,2.000,6.500,15.000
1.852,-1.000,3.000,7.000,15.000
1.853,-0.500,3.500,6.500,14.500
1.854,-0.500,3.500,6.500,14.500
1.855,-0.500,3.000,6.500,14.500
1.856,-0.500,2.500,6.500,14.500
1.857,0.000,1.500,6.000,14.000
1.858,0.500,1.000,6.000,14.000
1.859,0.500,-0.500,5.500,14.000
1.860,0.500,-1.500,5.500,14.000
1.861,0.500,-2.000,5.000,13.500
1.862,0.500,-2.500,5.000,14.000
1.863,0.000,-3.000,5.000,14.000
1.864,-0.500,-3.000,5.500,14.000
1.865,-0.500,-3.000,5.500,14.500
1.866,-0.500,-2.500,6.000,15.000
1.867,0.000,-1.500,6.500,15.500
1.868,-0.500,-1.000,7.000,16.000
1.869,0.000,0.500,7.000,16.500
1.870,-0.500,1.500,8.000,17.000
1.871,-0.500,2.500,8.500,17.500
1.872,-0.500,3.500,9.000,18.000
1.873,-0.500,3.500,9.500,18.500
1.874,-0.500,4.000,10.000,19.000
1.875,0.000,3.500,10.500,19.000
1.876,0.500,3.500,10.500,19.000
1.877,0.500,2.500,10.500,18.500
1.878,0.500,1.500,10.000,18.500
1.879,0.000,0.500,9.500,18.000
1.880,-0.500,-0.500,9.000,17.500
1.881,-0.500,-1.000,8.000,17.000
1.882,-0.500,-2.000,7.500,16.500
1.883,-0.500,-2.000,7.000,16.500
1.884,-0.500,-2.000,7.000,16.500
1.885,-0.500,-1.000,6.500,16.500
1.886,-0.500,-0.500,7.000,17.000
1.887,-0.500,0.000,7.000,17.000
1.888,-0.500,1.000,7.500,17.500
1.889,-0.500,2.000,7.500,17.500
1.890,-0.500,3.000,8.000,17.500
1.891,0.000,3.500,8.000,17.500
1.892,0.000,4.500,8.500,18.000
1.893,0.000,4.500,8.500,18.000
1.894,0.000,5.000,8.500,18.000
1.895,0.000,4.500,8.500,17.500
1.896,0.500,4.000,8.500,17.500
1.897,0.500,3.000,8.000,16.500
1.898,1.000,2.000,7.500,16.000
1.899,1.000,1.000,7.000,15.500
1.900,1.000,0.500,6.500,15.000
1.901,0.500,-0.500,5.500,14.000
1.902,0.500,-1.500,4.500,13.500
1.903,0.000,-1.500,3.500,13.000
1.904,0.000,-2.000,3.000,12.500
1.905,0.000,-2.000,3.000,12.000
1.906,-0.500,-2.000,3.000,12.000
1.907,-0.500,-2.000,3.000,12.500
1.908,-1.000,-1.500,3.500,13.000
1.909,-1.000,-1.000,4.000,13.500
1.910,-1.000,-0.500,4.000,14.000
1.911,-1.000,0.500,4.000,14.500
1.912,-1.500,1.500,4.500,15.000
1.913,-1.500,2.000,4.500,15.500
1.914,-1.500,3.000,4.500,15.500
1.915,-1.000,3.000,4.500,15.500
1.916,-1.000,3.000,5.000,15.500
1.917,-0.500,2.000,4.500,15.000
1.918,-0.500,1.500,4.000,15.000
1.919,0.000,0.500,3.500,14.000
1.920,-0.500,0.000,3.000,14.000
1.921,0.000,-0.500,2.000,13.500
1.922,0.000,-1.500,1.500,13.500
1.923,0.000,-1.500,1.000,13.000
1.924,0.500,-2.000,1.000,13.500
1.925,0.500,-2.000,0.500,13.500
1.926,0.500,-1.500,1.000,14.000
1.927,0.500,-1.000,1.500,14.000
1.928,1.000,-0.500,2.500,14.500
1.929,1.000,0.500,3.000,14.500
1.930,1.000,1.000,3.500,15.000
1.931,1.000,1.000,4.000,15.000
1.932,1.000,1.500,4.500,15.500
1.933,0.500,2.000,4.500,15.000
1.934,0.500,2.000,4.000,15.000
1.935,0.500,2.000,3.500,14.500
1.936,0.500,2.000,3.000,14.500
1.937,0.500,1.500,2.000,14.500
1.938,0.500,1.500,2.000,14.500
1.939,0.500,0.500,1.500,14.000
1.940,0.500,0.500,1.000,14.000
1.941,0.000,0.000,1.000,13.500
1.942,0.000,-0.500,1.000,13.500
1.943,0.000,-0.500,1.000,13.000
1.944,0.000,-0.500,1.500,13.000
1.945,0.000,0.000,1.500,12.500
1.946,0.500,0.000,2.000,13.000
1.947,0.500,0.000,2.500,13.000
1.948,0.500,0.500,3.500,13.000
1.949,0.000,0.500,4.000,13.500
1.950,0.500,1.500,4.500,13.500
1.951,0.500,2.000,4.500,13.500
1.952,1.000,3.000,5.000,13.500
1.953,1.000,3.500,4.500,13.500
1.954,1.500,4.500,4.500,13.500
1.955,2.000,4.500,4.000,13.500
1.956,2.500,5.000,3.500,13.500
1.957,2.500,4.500,3.500,13.500
1.958,2.500,4.000,3.500,13.500
1.959,2.500,3.000,3.500,13.500
1.960,2.000,2.500,3.500,13.500
1.961,2.000,2.000,4.000,13.500
1.962,1.500,1.500,4.500,13.500
1.963,1.000,1.500,4.500,13.500
1.964,1.000,1.500,5.000,13.500
1.965,0.500,1.500,5.000,13.500
1.966,0.500,2.000,5.000,13.500
1.967,0.500,2.500,5.000,13.500
1.968,0.000,3.500,5.000,13.500
1.969,0.000,4.500,5.000,13.500
1.970,-0.500,5.500,5.000,14.000
1.971,0.000,6.000,5.000,13.500
1.972,0.000,6.500,5.000,14.000
1.973,0.000,7.000,4.500,14.000
1.974,0.500,7.000,4.500,14.000
1.975,0.500,7.000,4.000,14.000
1.976,0.500,6.500,4.000,14.500
1.977,0.500,6.000,4.000,15.000
1.978,0.500,5.500,4.000,15.500
1.979,0.500,5.000,4.000,16.000
1.980,0.500,5.000,4.500,16.000
1.981,0.500,4.500,5.000,16.500
1.982,0.500,4.500,6.000,17.000
1.983,0.500,4.500,7.000,18.000
1.984,0.500,5.000,8.000,19.500
1.985,0.000,5.500,9.500,21.000
1.986,0.000,6.000,11.000,23.000
1.987,0.000,6.500,12.000,25.000
1.988,-0.500,7.500,13.000,27.000
1.989,-0.500,8.000,13.000,29.000
1.990,-1.000,8.500,13.500,30.500
1.991,-1.500,8.500,13.000,32.000
1.992,-2.000,8.500,12.500,33.500
1.993,-2.000,8.000,11.500,34.500
1.994,-2.500,7.500,10.500,35.500
1.995,-2.500,6.000,9.000,36.000
1.996,-2.500,4.500,7.500,37.000
1.997,-3.000,2.500,5.500,37.000
1.998,-3.500,0.000,3.500,37.000
1.999,-4.000,-2.500,1.000,36.500
2.000,-5.000,-5.000,-2.000,36.000
2.001,-6.000,-7.000,-5.000,35.000
2.002,-6.500,-9.500,-8.000,33.500
2.003,-7.000,-11.500,-11.000,32.000
2.004,-8.000,-13.500,-14.500,30.000
2.005,-8.500,-15.000,-17.500,28.000
2.006,-9.000,-16.500,-21.000,25.000
2.007,-10.000,-18.000,-24.500,21.500
2.008,-10.500,-19.000,-28.500,18.000
2.009,-11.000,-20.000,-32.500,13.000
2.010,-12.000,-21.500,-37.500,7.000
2.011,-12.500,-22.500,-42.000,0.000
2.012,-13.000,-24.000,-47.500,-8.000
2.013,-13.000,-25.000,-52.500,-16.500
2.014,-13.500,-26.500,-58.000,-25.000
2.015,-13.500,-28.000,-63.000,-33.500
2.016,-13.500,-29.500,-68.000,-42.000
2.017,-13.500,-30.500,-72.000,-49.000
2.018,-13.500,-31.500,-75.000,-55.000
2.019,-13.000,-32.000,-76.000,-59.500
2.020,-12.500,-31.500,-76.000,-62.500
2.021,-11.500,-30.500,-74.000,-63.500
2.022,-10.500,-29.000,-71.000,-63.500
2.023,-9.500,-27.000,-66.500,-62.000
2.024,-8.000,-25.000,-62.000,-60.000
2.025,-7.000,-22.000,-57.000,-57.000
2.026,-6.000,-19.500,-52.000,-54.000
2.027,-5.500,-16.000,-46.500,-50.500
2.028,-5.000,-13.000,-41.500,-46.500
2.029,-4.000,-9.500,-36.000,-42.500
2.030,-3.500,-6.000,-31.000,-38.500
2.031,-3.000,-3.000,-26.000,-34.000
2.032,-2.500,0.000,-22.000,-30.500
2.033,-2.000,2.500,-18.000,-26.500
2.034,-1.500,4.500,-15.500,-23.500
2.035,-1.000,5.500,-13.000,-21.000
2.036,-1.000,6.000,-11.500,-18.500
2.037,-0.500,6.000,-9.500,-16.500
2.038,0.000,6.000,-8.500,-14.500
2.039,0.000,5.500,-7.000,-13.000
2.040,0.000,5.500,-6.000,-11.500
2.041,0.000,4.500,-5.000,-10.500
2.042,0.000,4.000,-4.000,-9.500
2.043,0.000,3.000,-3.000,-8.000
2.044,-0.500,2.500,-2.500,-7.000
2.045,-0.500,2.000,-2.000,-6.000
2.046,-1.000,1.500,-1.500,-5.000
2.047,-1.000,1.500,-0.500,-3.500
2.048,-1.500,1.500,0.000,-2.000
2.049,-1.500,1.500,0.500,0.000
2.050,-2.000,2.000,1.000,1.500
2.051,-2.000,2.500,1.000,2.500
2.052,-2.500,3.000,1.500,4.000
2.053,-2.500,3.500,1.500,5.000
2.054,-2.500,4.500,1.500,6.000
2.055,-2.000,4.500,1.500,7.000
2.056,-2.000,5.000,2.000,8.500
2.057,-1.000,5.000,2.500,9.500
2.058,-1.000,5.500,3.000,10.500
2.059,-0.500,5.000,3.500,11.000
2.060,-0.500,5.000,4.500,12.000
2.061,0.000,4.500,5.000,12.500
2.062,-0.500,4.500,5.500,13.000
2.063,-0.500,4.500,5.500,13.500
2.064,-1.000,4.500,6.000,14.500
2.065,-1.000,4.500,6.500,15.000
2.066,-1.000,5.000,7.000,16.000
2.067,-1.000,5.500,7.000,17.000
2.068,-1.500,6.000,7.500,18.000
2.069,-1.500,6.500,7.500,18.500
2.070,-1.500,7.500,7.500,19.000
2.071,-1.500,8.000,7.000,19.000
2.072,-1.500,9.000,7.000,19.000
2.073,-1.000,10.000,7.000,19.000
2.074,-1.000,10.500,7.500,18.500
2.075,-1.000,10.500,7.500,18.000
2.076,-1.000,10.500,8.000,18.000
2.077,-1.000,9.500,8.000,18.000
2.078,-1.000,9.000,8.000,18.000
2.079,-0.500,8.000,7.500,18.000
2.080,-0.500,7.500,7.500,18.500
2.081,0.000,6.500,7.000,18.000
2.082,0.000,6.000,7.000,18.500
2.083,0.000,5.500,7.000,18.500
2.084,-0.500,5.500,7.500,18.500
2.085,-0.500,5.500,8.000,18.500
2.086,-0.500,6.500,8.500,19.000
2.087,-1.000,7.000,9.000,19.000
2.088,-1.000,8.000,9.500,19.500
2.089,-1.000,8.500,10.000,19.500
2.090,-1.500,9.000,10.500,20.000
2.091,-1.500,9.500,10.500,20.000
2.092,-1.500,10.000,11.000,20.000
2.093,-1.000,10.000,11.000,20.000
2.094,-1.000,10.500,11.000,20.000
2.095,-0.500,10.000,10.000,19.500
2.096,-0.500,10.000,9.500,19.000
2.097,-0.500,9.500,8.500,18.500
2.098,0.000,9.000,7.500,18.500
2.099,0.500,8.500,7.000,18.000
2.100,0.500,8.000,6.500,18.000
2.101,0.500,7.500,6.000,17.500
2.102,0.500,7.500,6.000,17.500
2.103,0.500,7.500,6.000,17.500
2.104,0.500,7.500,6.000,17.500
2.105,0.000,7.000,6.000,17.500
2.106,0.000,7.500,6.500,17.500
2.107,0.000,7.500,6.500,17.500
2.108,-0.500,8.000,7.500,18.000
2.109,-0.500,8.000,8.000,18.500
2.110,-1.000,9.000,9.000,19.000
2.111,-1.000,9.000,9.500,19.000
2.112,-1.500,10.000,10.000,19.500
2.113,-2.000,10.000,10.500,19.000
2.114,-2.000,10.500,10.500,19.000
2.115,-2.000,10.000,10.000,19.000
2.116,-2.000,9.000,9.000,18.500
2.117,-1.500,8.000,8.000,18.000
2.118,-1.500,7.500,7.000,18.000
2.119,-1.000,6.500,6.000,17.500
2.120,-1.000,5.500,5.500,17.500
2.121,-1.000,5.000,5.500,17.000
2.122,-1.000,5.000,5.500,16.500
2.123,-1.000,5.000,6.000,16.500
2.124,-1.500,5.500,6.500,16.500
2.125,-1.000,5.500,7.000,16.500
2.126,-1.500,6.500,8.000,16.500
2.127,-1.500,7.000,8.500,17.000
2.128,-2.000,8.000,9.000,17.500
2.129,-2.000,9.000,9.000,17.500
2.130,-2.000,10.000,10.000,18.500
2.131,-2.000,11.000,10.000,19.000
2.132,-2.000,12.000,11.000,19.500
2.133,-2.000,12.500,11.000,19.500
2.134,-2.000,13.000,11.500,19.000
2.135,-1.500,12.500,11.500,18.500
2.136,-1.500,12.000,11.000,18.000
2.137,-1.500,11.000,10.000,17.500
2.138,-1.500,10.000,9.500,17.000
2.139,-1.000,8.500,8.500,16.500
2.140,-1.500,7.500,8.000,16.000
2.141,-1.500,6.500,7.000,16.000
2.142,-1.500,6.000,7.000,16.000
2.143,-1.000,6.000,6.500,16.000
2.144,-1.000,6.000,7.000,16.000
2.145,-0.500,6.500,7.000,16.000
2.146,-0.500,7.000,7.500,16.500
2.147,-0.500,7.500,7.500,16.500
2.148,-0.500,8.500,8.000,17.000
2.149,-0.500,9.000,8.500,17.500
2.150,-1.000,10.000,9.000,18.000
2.151,-1.000,10.500,9.500,18.000
2.152,-1.500,11.000,9.500,18.500
2.153,-1.000,11.000,9.500,18.500
2.154,-1.000,11.000,9.000,18.500
2.155,-0.500,10.500,8.500,18.000
2.156,-0.500,9.500,8.000,18.000
2.157,-0.500,8.500,7.500,18.000
2.158,-0.500,7.000,7.000,18.000
2.159,-0.500,6.000,6.000,18.000
2.160,-1.000,5.000,5.500,17.500
2.161,-1.000,4.000,5.000,17.000
2.162,-1.500,3.500,4.500,16.500
2.163,-1.000,3.500,4.500,15.500
2.164,-1.500,3.500,4.500,15.500
2.165,-1.500,3.500,4.500,15.000
2.166,-1.500,3.500,5.000,15.000
2.167,-1.500,4.000,5.000,15.000
2.168,-2.000,4.500,6.000,15.500
2.169,-2.500,5.000,6.500,16.000
2.170,-2.500,6.000,7.000,17.000
2.171,-2.500,7.000,7.500,17.500
2.172,-3.000,8.000,8.000,18.000
2.173,-2.500,8.500,8.000,18.000
2.174,-2.500,8.500,8.000,18.000
2.175,-2.500,8.500,7.000,17.500
2.176,-2.500,8.000,6.500,17.000
2.177,-2.000,7.500,5.500,16.500
2.178,-2.000,7.000,5.000,16.000
2.179,-1.500,6.000,4.500,15.500
2.180,-1.500,5.000,4.000,15.000
2.181,-1.000,4.000,3.500,14.500
2.182,-1.500,3.500,3.500,14.500
2.183,-1.500,3.000,3.500,14.000
2.184,-2.000,3.000,3.500,13.500
2.185,-2.000,2.500,3.000,12.500
2.186,-2.500,3.000,3.000,12.500
2.187,-2.500,3.000,3.000,12.000
2.188,-2.500,4.000,3.000,12.000
2.189,-2.500,4.500,3.500,12.000
2.190,-2.500,5.500,3.500,12.000
2.191,-2.000,6.000,3.500,12.000
2.192,-2.000,6.500,3.500,12.500
2.193,-2.000,6.500,3.000,12.500
2.194,-2.000,7.000,2.500,12.500
2.195,-1.500,6.500,1.500,12.000
2.196,-1.500,6.500,0.500,12.000
2.197,-1.000,5.500,-1.000,11.500
2.198,-1.500,4.500,-2.000,11.000
2.199,-1.500,3.500,-3.000,10.500
2.200,-1.500,2.500,-4.000,10.000
2.201,-1.500,1.000,-4.500,9.500
2.202,-1.500,0.000,-5.000,9.500
2.203,-2.000,-1.000,-5.500,9.000
2.204,-2.000,-1.500,-5.500,9.000
2.205,-2.000,-1.500,-5.500,9.000
2.206,-2.500,-1.500,-5.500,9.000
2.207,-3.000,-1.000,-5.500,8.500
2.208,-3.000,-1.000,-5.500,8.500
2.209,-3.000,0.000,-5.000,8.500
2.210,-3.000,0.500,-5.000,8.500
2.211,-3.000,1.000,-5.000,8.000
2.212,-3.000,1.500,-5.500,8.000
2.213,-3.000,1.500,-5.500,8.000
2.214,-2.500,1.500,-6.500,7.500
2.215,-2.500,1.000,-6.500,7.000
2.216,-2.500,0.500,-7.000,7.000
2.217,-2.000,0.000,-7.500,6.500
2.218,-2.000,-1.000,-8.000,6.000
2.219,-2.000,-2.000,-8.500,5.500
2.220,-2.500,-2.500,-9.000,5.500
2.221,-2.500,-3.000,-9.500,5.500
2.222,-2.500,-4.000,-10.000,5.500
2.223,-2.000,-4.500,-10.500,5.500
2.224,-2.500,-5.000,-11.000,5.500
2.225,-2.500,-5.000,-11.000,5.500
2.226,-3.000,-5.000,-11.500,5.500
2.227,-3.000,-4.500,-11.000,5.500
2.228,-3.000,-4.000,-11.000,5.500
2.229,-3.000,-3.500,-11.000,5.000
2.230,-3.500,-3.000,-11.000,5.500
2.231,-3.500,-2.000,-10.500,5.000
2.232,-4.000,-2.000,-10.500,5.500
2.233,-4.000,-1.500,-10.000,5.500
2.234,-4.000,-2.000,-10.000,5.500
2.235,-4.000,-2.000,-10.000,5.000
2.236,-4.000,-2.000,-10.000,5.000
2.237,-4.000,-2.500,-10.000,5.000
2.238,-4.000,-2.500,-10.500,5.500
2.239,-4.000,-2.500,-10.500,5.500
2.240,-4.000,-2.500,-11.000,5.500
2.241,-4.000,-2.500,-11.000,5.500
2.242,-4.000,-3.000,-11.000,5.500
2.243,-3.500,-3.500,-11.000,6.000
2.244,-4.000,-4.000,-10.500,6.000
2.245,-4.000,-4.000,-10.000,6.000
2.246,-4.000,-4.000,-9.500,6.500
2.247,-4.000,-3.500,-8.500,7.000
2.248,-4.500,-3.500,-8.000,7.500
2.249,-4.500,-2.500,-7.500,7.500
2.250,-4.500,-2.000,-7.000,8.500
2.251,-4.500,-1.000,-6.000,9.000
2.252,-4.500,-0.500,-6.000,10.000
2.253,-4.000,0.500,-5.000,10.500
2.254,-4.000,1.000,-5.000,11.500
2.255,-4.000,1.000,-4.500,12.000
2.256,-3.500,1.000,-4.000,12.500
2.257,-3.000,0.500,-3.500,13.000
2.258,-3.000,0.500,-3.500,13.500
2.259,-2.500,0.000,-3.500,13.500
2.260,-2.500,-0.500,-3.500,13.500
2.261,-2.000,-0.500,-3.000,13.500
2.262,-2.500,-0.500,-2.500,14.000
2.263,-2.500,-0.500,-2.000,14.500
2.264,-2.500,0.500,-1.500,15.000
2.265,-2.500,1.000,-0.500,15.000
2.266,-2.500,2.000,0.500,16.000
2.267,-2.500,2.500,1.000,16.000
2.268,-2.500,3.500,2.500,17.000
2.269,-2.500,4.000,3.500,17.500
2.270,-3.000,5.000,4.500,18.000
2.271,-3.000,5.500,5.000,18.000
2.272,-3.000,6.500,6.000,19.000
2.273,-2.500,7.000,6.500,19.500
2.274,-2.500,7.500,7.000,20.000
2.275,-2.000,7.500,7.000,20.000
2.276,-2.000,7.500,7.500,20.000
2.277,-1.500,7.000,7.500,20.000
2.278,-1.500,7.000,7.500,20.000
2.279,-1.000,6.500,7.000,20.000
2.280,-1.000,6.000,7.000,19.500
2.281,-0.500,5.500,7.000,19.000
2.282,-1.000,5.500,7.500,19.000
2.283,-1.000,5.500,7.500,19.000
2.284,-1.000,6.000,8.000,19.000
2.285,-1.000,6.000,8.500,19.000
2.286,-1.000,7.000,9.000,19.000
2.287,-0.500,7.500,9.000,19.000
2.288,-0.500,8.500,9.500,19.500
2.289,-0.500,9.500,10.000,19.500
2.290,-0.500,10.500,10.500,20.000
2.291,0.000,11.000,11.000,20.000
2.292,0.000,12.000,11.500,20.000
2.293,0.000,12.500,11.500,20.000
2.294,0.000,12.500,11.500,20.000
2.295,0.000,12.500,11.000,19.500
2.296,0.500,12.000,11.000,19.500
2.297,0.500,11.500,10.500,19.000
2.298,1.000,11.000,10.000,19.000
2.299,1.000,10.000,9.500,18.500
2.300,1.000,9.500,9.000,18.500
2.301,1.000,8.500,9.000,18.000
2.302,1.000,8.000,9.000,18.000
2.303,0.500,7.000,9.000,18.000
2.304,0.500,6.500,9.000,18.000
2.305,0.000,6.000,9.000,17.500
2.306,-0.500,6.000,9.500,17.500
2.307,-0.500,6.000,9.500,17.500
2.308,-0.500,6.500,10.000,17.500
2.309,0.000,7.000,10.500,17.500
2.310,0.000,8.000,11.500,18.000
2.311,0.000,9.000,12.000,18.000
2.312,0.500,10.500,12.500,18.500
2.313,0.500,11.000,12.500,18.500
2.314,0.500,12.000,13.000,19.000
2.315,0.500,12.000,12.500,19.000
2.316,0.500,12.000,12.500,19.000
2.317,0.000,11.500,12.500,18.500
2.318,0.500,11.000,12.500,18.500
2.319,0.500,10.000,12.500,18.500
2.320,0.500,9.500,12.500,18.500
2.321,0.500,9.000,12.000,18.000
2.322,0.500,8.500,12.000,18.000
2.323,0.500,8.500,11.500,17.500
2.324,0.500,8.500,11.000,17.500
2.325,0.500,8.500,10.500,17.500
2.326,1.000,9.000,10.500,17.500
2.327,0.500,10.000,10.500,17.000
2.328,0.500,11.000,11.000,17.500
2.329,0.000,12.000,11.000,17.500
2.330,0.000,13.000,11.500,18.000
2.331,0.000,14.000,12.000,18.000
2.332,0.000,15.000,12.500,18.500
2.333,0.000,15.500,12.000,18.500
2.334,0.500,16.000,12.000,18.500
2.335,0.500,16.000,11.500,18.000
2.336,0.500,16.500,11.500,18.000
2.337,0.500,16.000,11.500,17.000
2.338,0.500,15.500,11.000,17.000
2.339,0.500,14.500,10.500,16.500
2.340,1.000,14.500,10.500,16.500
2.341,1.000,14.000,10.000,16.000
2.342,1.000,14.000,10.000,16.000
2.343,1.000,13.500,10.000,16.000
2.344,1.000,14.000,10.000,16.000
2.345,0.500,14.000,10.000,15.500
2.346,0.500,14.500,10.000,16.000
2.347,0.500,15.000,10.500,16.000
2.348,0.000,15.000,11.000,16.500
2.349,0.000,15.000,11.000,16.500
2.350,-0.500,15.500,11.500,17.500
2.351,-0.500,15.500,11.500,17.500
2.352,-0.500,15.500,11.500,18.000
2.353,-0.500,15.000,11.000,18.000
2.354,-0.500,15.000,11.000,18.000
2.355,-0.500,14.500,10.500,18.000
2.356,-0.500,14.000,10.000,17.500
2.357,0.000,13.000,9.500,17.000
2.358,0.500,12.500,9.500,17.000
2.359,0.500,11.000,9.000,16.500
2.360,0.500,10.500,9.000,16.000
2.361,0.500,9.500,8.500,15.500
2.362,0.500,9.000,8.500,15.000
2.363,0.000,8.000,8.000,15.000
2.364,0.000,8.000,8.000,15.000
2.365,0.000,8.000,8.000,15.000
2.366,0.000,8.500,8.500,15.500
2.367,0.000,9.000,8.500,15.500
2.368,0.500,10.000,9.000,16.000
2.369,0.500,11.500,9.500,16.000
2.370,0.500,13.000,10.000,16.500
2.371,0.000,14.000,10.500,17.000
2.372,0.000,15.000,11.000,17.500
2.373,0.000,15.500,11.500,17.500
2.374,-0.500,16.000,11.500,17.500
2.375,0.000,15.500,11.000,17.500
2.376,0.000,15.000,10.000,17.500
2.377,0.000,14.000,9.000,17.000
2.378,0.000,13.500,8.000,16.500
2.379,0.000,12.500,7.000,15.500
2.380,-0.500,11.500,6.000,15.500
2.381,-0.500,10.500,5.000,15.000
2.382,-1.000,10.000,4.500,15.000
2.383,-1.000,9.500,4.000,15.000
2.384,-1.500,10.000,4.000,15.000
2.385,-1.500,10.000,4.000,15.000
2.386,-1.500,10.500,4.500,15.500
2.387,-1.500,11.000,5.000,15.500
2.388,-2.000,12.000,6.000,15.500
2.389,-2.000,12.500,6.500,15.000
2.390,-2.500,13.500,8.000,15.500
2.391,-2.500,13.500,8.500,16.000
2.392,-2.500,14.000,9.500,16.500
2.393,-2.500,14.000,10.000,16.500
2.394,-3.000,14.000,10.500,16.500
2.395,-2.500,13.500,10.000,16.500
2.396,-2.500,13.500,9.500,16.500
2.397,-2.500,12.500,9.000,16.000
2.398,-2.500,12.000,8.500,16.000
2.399,-2.000,11.500,7.500,15.500
2.400,-2.000,11.000,7.500,15.000
2.401,-2.000,10.000,7.000,14.500
2.402,-2.000,9.500,7.000,14.000
2.403,-1.500,9.000,7.000,13.500
2.404,-1.500,9.000,7.000,13.500
2.405,-1.000,9.000,7.000,13.500
2.406,-1.500,9.500,7.000,13.500
2.407,-1.500,9.500,6.500,14.000
2.408,-2.000,10.500,7.000,14.500
2.409,-2.000,11.000,7.000,14.500
2.410,-2.000,12.000,7.500,15.500
2.411,-1.500,13.000,8.000,16.000
2.412,-1.500,13.500,8.500,17.000
2.413,-1.500,14.000,8.500,17.500
2.414,-1.000,14.000,8.500,18.000
2.415,-1.000,14.000,8.500,18.000
2.416,-1.000,13.500,8.000,18.000
2.417,-0.500,13.000,7.500,17.500
2.418,-0.500,12.500,7.500,17.500
2.419,-0.500,11.500,7.000,16.500
2.420,-0.500,11.000,6.500,16.500
2.421,-0.500,10.500,6.000,16.000
2.422,-1.000,10.000,6.000,15.500
2.423,-1.000,9.500,5.500,15.000
2.424,-1.500,10.000,6.000,15.000
2.425,-1.500,10.000,6.000,14.500
2.426,-1.500,10.500,6.500,14.500
2.427,-1.500,10.500,7.000,14.500
2.428,-2.000,11.000,8.000,14.500
2.429,-2.000,11.500,9.000,14.500
2.430,-2.000,12.000,9.500,15.000
2.431,-2.000,12.500,10.000,15.500
2.432,-2.500,13.000,10.500,15.500
2.433,-2.500,13.000,10.000,15.500
2.434,-2.500,13.000,10.000,15.500
2.435,-2.000,12.500,9.000,15.500
2.436,-2.000,12.000,8.500,15.000
2.437,-2.000,11.500,7.500,14.500
2.438,-2.000,10.500,7.000,14.000
2.439,-2.000,9.500,6.000,13.500
2.440,-2.000,9.000,6.000,13.000
2.441,-2.000,8.000,6.000,12.500
2.442,-2.500,7.500,6.000,12.000
2.443,-2.500,7.000,5.500,12.000
2.444,-3.000,7.000,5.500,12.000
2.445,-3.000,7.000,5.000,11.500
2.446,-3.000,7.500,5.500,12.000
2.447,-2.500,8.000,5.500,12.000
2.448,-2.500,9.000,6.000,12.500
2.449,-2.500,10.000,6.500,12.500
2.450,-2.000,11.500,7.000,13.000
2.451,-1.500,12.000,7.500,13.000
2.452,-1.500,13.000,8.500,13.500
2.453,-1.500,13.500,8.500,13.500
2.454,-1.500,14.000,9.000,13.500
2.455,-1.500,14.000,8.500,13.500
2.456,-1.500,14.000,8.500,13.500
2.457,-1.500,13.500,7.500,13.500
2.458,-1.500,13.000,7.500,13.500
2.459,-1.500,12.000,7.000,13.500
2.460,-2.000,11.500,7.000,14.000
2.461,-2.000,11.000,7.000,14.500
2.462,-2.000,11.000,7.500,15.000
2.463,-2.000,11.000,8.000,15.000
2.464,-2.500,11.500,8.500,15.500
2.465,-3.000,11.500,9.000,15.500
2.466,-3.000,12.500,9.500,16.000
2.467,-3.000,13.000,9.500,16.000
2.468,-3.000,13.500,10.000,16.000
2.469,-3.000,14.000,9.500,15.500
2.470,-3.500,14.500,9.500,15.500
2.471,-3.500,14.500,8.500,15.000
2.472,-4.000,14.500,8.000,15.000
2.473,-4.000,14.000,6.500,14.000
2.474,-4.000,13.500,5.500,13.500
2.475,-4.000,12.500,4.500,13.000
2.476,-4.000,11.500,3.500,12.000
2.477,-4.000,10.000,2.000,11.000
2.478,-4.500,9.000,1.500,10.500
2.479,-4.500,8.000,0.500,9.500
2.480,-5.000,7.000,0.000,9.000
2.481,-5.000,6.500,-0.500,8.000
2.482,-5.500,6.000,-1.000,8.000
2.483,-5.000,6.000,-1.000,7.500
2.484,-5.000,7.000,-1.000,8.000
2.485,-5.000,7.500,-0.500,8.500
2.486,-4.500,8.500,0.000,9.000
2.487,-4.000,9.500,0.500,9.500
2.488,-4.000,11.000,1.500,10.500
2.489,-4.000,12.000,2.500,11.000
2.490,-4.000,13.500,3.500,12.000
2.491,-3.500,14.500,4.000,12.000
2.492,-3.500,15.500,4.500,12.500
2.493,-3.000,16.500,5.000,12.500
2.494,-2.500,17.000,5.500,13.000
2.495,-2.000,17.000,5.500,12.500
2.496,-2.000,16.500,5.500,12.500
2.497,-2.000,16.000,5.000,12.000
2.498,-2.000,15.000,4.500,12.000
2.499,-2.000,14.000,4.000,11.500
2.500,-2.000,13.000,4.000,11.500
2.501,-2.500,12.000,4.000,11.000
2.502,-2.500,11.500,4.000,11.000
2.503,-2.500,11.000,4.000,11.000
2.504,-3.000,11.000,4.000,11.000
2.505,-3.000,10.500,4.000,11.000
2.506,-3.000,11.000,4.500,11.500
2.507,-2.500,11.500,5.000,12.000
2.508,-2.000,12.500,5.500,12.500
2.509,-2.000,13.000,6.000,12.500
2.510,-2.000,13.500,6.500,13.000
2.511,-2.000,14.000,6.500,13.500
2.512,-2.000,14.500,6.500,14.000
2.513,-2.000,14.500,6.500,14.000
2.514,-2.000,15.000,6.500,14.500
2.515,-2.000,14.500,6.500,14.000
2.516,-2.500,14.500,6.500,14.000
2.517,-2.000,14.000,6.000,14.000
2.518,-2.000,13.500,6.000,14.000
2.519,-2.000,13.000,6.000,13.500
2.520,-2.000,13.000,6.000,14.000
2.521,-1.500,13.000,6.500,14.000
2.522,-1.500,13.000,6.500,14.500
2.523,-1.500,13.000,6.500,14.500
2.524,-2.000,13.500,7.000,15.000
2.525,-2.000,13.500,7.000,15.000
2.526,-2.500,14.000,7.000,15.500
2.527,-2.500,14.500,7.000,15.500
2.528,-3.000,15.000,7.500,16.000
2.529,-3.000,15.000,7.500,15.500
2.530,-3.500,15.000,8.000,15.500
2.531,-3.500,15.000,8.000,15.500
2.532,-3.500,15.000,8.000,15.500
2.533,-3.500,14.500,7.500,15.500
2.534,-3.500,14.000,7.500,15.500
2.535,-3.000,13.500,7.000,15.500
2.536,-2.500,13.000,7.000,15.500
2.537,-2.500,12.500,6.000,15.500
2.538,-2.500,12.000,6.000,15.000
2.539,-2.500,11.000,5.500,14.500
2.540,-2.500,10.500,5.000,14.500
2.541,-2.500,10.000,4.500,14.000
2.542,-2.500,9.500,4.500,14.000
2.543,-2.500,9.000,4.500,14.000
2.544,-3.000,9.000,4.000,13.500
2.545,-3.000,9.000,3.500,13.000
2.546,-3.500,9.500,3.500,13.000
2.547,-3.500,10.000,3.000,12.500
2.548,-3.500,11.000,3.000,12.000
2.549,-3.000,11.500,2.500,11.500
2.550,-3.500,12.500,2.500,11.500
2.551,-3.000,13.000,2.500,11.000
2.552,-3.000,13.500,2.500,11.000
2.553,-2.500,13.500,2.500,10.000
2.554,-2.500,14.000,2.500,10.000
2.555,-2.500,14.000,2.000,9.500
2.556,-2.500,13.500,2.000,9.500
2.557,-2.000,13.000,1.500,9.500
2.558,-2.500,12.500,1.500,9.500
2.559,-2.500,11.500,1.000,9.500
2.560,-2.500,11.000,0.500,10.000
2.561,-2.500,10.500,-0.500,10.000
2.562,-2.500,10.000,-1.000,10.000
2.563,-2.500,9.500,-1.000,9.500
2.564,-3.000,9.000,-1.000,9.500
2.565,-3.000,9.000,-1.000,9.000
2.566,-3.000,9.000,-0.500,9.000
2.567,-3.000,9.500,0.000,9.000
2.568,-3.000,10.500,0.500,9.500
2.569,-2.500,11.000,1.000,9.500
2.570,-3.000,12.500,1.500,9.500
2.571,-3.000,13.000,1.500,9.500
2.572,-3.000,14.000,2.000,10.000
2.573,-2.500,14.500,2.500,10.000
2.574,-2.500,15.000,2.500,10.500
2.575,-2.000,14.500,2.500,10.500
2.576,-2.000,14.500,2.500,11.000
2.577,-2.000,14.000,2.500,11.000
2.578,-2.500,13.500,2.500,11.500
2.579,-2.500,13.000,2.000,11.500
2.580,-2.500,13.000,2.500,12.000
2.581,-3.000,12.500,2.500,12.000
2.582,-3.000,12.500,2.500,12.000
2.583,-3.000,12.000,2.500,11.500
2.584,-3.000,11.500,3.000,11.500
2.585,-3.000,11.000,3.000,11.500
2.586,-3.000,11.000,3.500,11.500
2.587,-2.500,11.000,4.000,11.000
2.588,-2.500,11.500,4.000,11.000
2.589,-2.500,12.500,4.000,11.000
2.590,-2.500,14.000,4.500,11.000
2.591,-2.500,15.000,4.500,11.000
2.592,-3.000,16.000,4.500,11.000
2.593,-2.500,16.500,5.000,10.500
2.594,-2.500,16.500,5.000,10.000
2.595,-2.500,16.500,5.000,9.500
2.596,-2.000,16.000,4.500,9.500
2.597,-1.500,15.500,4.000,9.000
2.598,-1.500,14.500,3.500,9.000
2.599,-1.500,13.500,3.000,9.000
2.600,-1.500,13.000,2.000,9.000
2.601,-1.500,12.000,1.500,8.500
2.602,-2.000,11.500,1.500,8.500
2.603,-2.000,11.000,1.500,8.500
2.604,-2.000,11.500,1.500,9.000
2.605,-1.500,11.500,2.000,9.000
2.606,-1.500,12.000,2.500,9.500
2.607,-1.500,12.500,3.000,9.500
2.608,-1.500,13.000,4.000,9.500
2.609,-1.500,14.000,4.500,9.500
2.610,-1.500,15.000,5.500,10.000
2.611,-1.000,15.500,5.500,10.000
2.612,-1.000,16.500,6.000,10.500
2.613,-1.000,16.500,5.500,10.000
2.614,-1.500,16.500,5.000,10.000
2.615,-1.500,16.000,4.000,10.000
2.616,-1.500,15.500,3.500,10.000
2.617,-1.500,14.500,3.000,9.500
2.618,-1.500,13.500,2.500,9.000
2.619,-1.500,12.500,2.000,8.500
2.620,-1.500,12.000,2.000,8.500
2.621,-1.500,11.000,2.000,8.500
2.622,-1.500,10.500,2.500,8.500
2.623,-1.000,10.000,2.500,8.000
2.624,-1.500,10.000,2.500,8.500
2.625,-1.500,10.000,2.000,8.500
2.626,-2.000,10.500,2.500,8.500
2.627,-2.000,10.500,2.500,8.500
2.628,-2.500,11.000,2.500,9.000
2.629,-2.500,12.000,3.000,9.000
2.630,-2.500,13.000,3.500,9.000
2.631,-2.000,13.500,3.500,9.500
2.632,-2.000,14.000,4.000,10.000
2.633,-2.000,14.500,4.000,10.500
2.634,-2.000,15.500,4.500,12.000
2.635,-2.000,15.500,5.000,13.000
2.636,-2.000,15.500,5.500,14.500
2.637,-1.500,15.500,6.000,16.000
2.638,-1.500,15.000,6.500,18.000
2.639,-1.500,14.500,6.500,20.000
2.640,-1.500,14.000,7.000,22.000
2.641,-1.500,13.000,7.000,23.500
2.642,-2.000,12.000,7.000,25.000
2.643,-2.500,11.000,7.000,26.000
2.644,-3.000,10.000,6.500,27.500
2.645,-3.000,9.000,5.500,28.500
2.646,-3.500,8.500,5.000,29.500
2.647,-4.000,7.500,3.500,30.000
2.648,-4.500,7.000,2.500,31.000
2.649,-5.000,6.000,1.000,31.000
2.650,-5.500,5.500,-1.000,31.000
2.651,-6.000,5.000,-3.000,30.500
2.652,-7.000,4.000,-5.500,30.000
2.653,-8.000,2.500,-8.000,29.000
2.654,-8.500,1.000,-11.500,27.500
2.655,-9.000,-1.500,-14.500,26.000
2.656,-10.000,-4.000,-18.500,24.500
2.657,-10.500,-6.500,-22.500,22.000
2.658,-11.500,-9.500,-27.000,19.000
2.659,-12.000,-12.000,-31.500,15.000
2.660,-13.000,-15.500,-36.500,10.500
2.661,-13.500,-18.000,-41.500,5.000
2.662,-14.500,-21.000,-47.000,-2.000
2.663,-15.000,-23.000,-52.500,-10.000
2.664,-15.500,-25.000,-57.500,-18.500
2.665,-15.500,-26.500,-62.500,-27.500
2.666,-16.000,-28.000,-67.500,-36.500
2.667,-16.000,-28.500,-72.000,-45.000
2.668,-16.500,-29.500,-76.500,-53.000
2.669,-16.500,-30.000,-80.000,-59.500
2.670,-16.500,-30.000,-82.500,-65.500
2.671,-16.000,-29.000,-83.000,-69.000
2.672,-15.500,-28.000,-82.500,-71.500
2.673,-14.500,-26.000,-80.500,-72.500
2.674,-13.500,-24.000,-77.000,-72.500
2.675,-12.000,-22.000,-73.000,-71.000
2.676,-11.500,-19.500,-68.500,-69.000
2.677,-10.500,-17.500,-63.500,-66.500
2.678,-9.500,-15.500,-59.000,-64.500
2.679,-8.500,-13.000,-54.000,-61.500
2.680,-8.000,-11.500,-49.500,-58.500
2.681,-7.000,-9.500,-45.000,-55.500
2.682,-6.500,-7.500,-40.500,-52.500
2.683,-6.000,-5.000,-36.500,-49.000
2.684,-6.000,-3.000,-32.500,-46.000
2.685,-5.500,-0.500,-28.500,-43.000
2.686,-5.500,1.500,-25.000,-40.500
2.687,-5.000,3.500,-21.500,-37.500
2.688,-5.000,5.500,-18.500,-34.500
2.689,-4.500,7.000,-16.000,-31.500
2.690,-4.500,9.000,-13.500,-28.500
2.691,-4.000,10.500,-11.500,-26.000
2.692,-3.500,11.500,-10.000,-23.500
2.693,-3.000,12.500,-8.500,-21.000
2.694,-3.000,12.500,-8.000,-19.000
2.695,-2.500,12.500,-7.500,-16.500
2.696,-2.500,12.000,-8.000,-15.000
2.697,-2.500,11.000,-8.000,-13.000
2.698,-2.500,10.000,-8.000,-11.000
2.699,-2.500,9.000,-7.500,-9.000
2.700,-3.000,8.500,-7.500,-7.500
2.701,-3.500,8.000,-7.500,-5.500
2.702,-3.500,8.000,-7.000,-4.000
2.703,-3.500,7.500,-6.500,-2.500
2.704,-4.000,8.000,-6.000,-1.500
2.705,-4.000,8.000,-5.500,0.000
2.706,-4.500,8.000,-5.000,1.000
2.707,-4.500,8.000,-4.000,1.500
2.708,-5.000,8.500,-3.000,2.500
2.709,-4.500,9.000,-2.000,3.000
2.710,-4.500,9.500,-1.500,4.000
2.711,-4.500,10.000,-1.000,4.500
2.712,-4.000,10.500,-0.500,5.000
2.713,-3.500,10.500,-0.500,5.500
2.714,-3.500,10.500,-0.500,6.000
2.715,-3.500,10.000,-1.000,6.000
2.716,-3.500,10.000,-1.500,6.000
2.717,-3.500,9.000,-1.500,6.000
2.718,-4.000,8.500,-2.000,6.000
2.719,-4.000,8.000,-2.500,5.500
2.720,-4.500,7.500,-3.000,5.500
2.721,-4.500,6.500,-3.000,5.000
2.722,-4.500,6.000,-3.500,5.000
2.723,-4.000,5.500,-3.500,5.000
2.724,-4.000,6.000,-3.500,5.000
2.725,-4.000,6.000,-3.500,4.500
2.726,-4.500,6.500,-3.000,5.000
2.727,-4.500,7.500,-2.000,5.000
2.728,-5.000,8.500,-1.500,5.500
2.729,-5.000,9.000,-0.500,5.500
2.730,-5.000,10.000,0.000,6.500
2.731,-5.000,11.000,0.500,6.500
2.732,-5.500,11.500,1.000,7.000
2.733,-5.500,12.000,1.000,7.000
2.734,-6.000,12.000,1.500,7.000
2.735,-5.500,11.500,1.000,7.000
2.736,-5.500,11.500,1.500,6.500
2.737,-5.000,10.500,1.000,6.500
2.738,-5.000,10.000,1.000,6.500
2.739,-5.000,9.000,0.500,6.500
2.740,-5.000,8.500,0.500,6.500
2.741,-5.000,8.500,0.000,6.000
2.742,-5.500,8.500,-0.500,6.000
2.743,-5.500,8.500,-0.500,6.000
2.744,-6.000,8.500,-0.500,6.000
2.745,-6.000,9.000,0.000,6.000
2.746,-6.500,9.500,0.500,6.000
2.747,-6.500,10.000,0.500,6.000
2.748,-7.000,10.500,0.500,6.000
2.749,-7.000,11.000,0.500,6.000
2.750,-7.500,11.500,1.000,6.500
2.751,-7.500,12.000,1.000,7.000
2.752,-7.500,12.000,1.000,7.000
2.753,-7.000,12.000,0.500,7.000
2.754,-7.000,12.000,0.500,7.000
2.755,-6.500,11.000,0.500,6.500
2.756,-6.500,10.500,0.500,6.000
2.757,-6.000,9.500,0.500,5.500
2.758,-6.000,9.000,0.500,5.500
2.759,-5.500,8.000,0.000,5.000
2.760,-5.500,7.000,-0.500,5.000
2.761,-5.000,6.000,-1.000,5.000
2.762,-5.000,5.000,-2.000,5.000
2.763,-5.000,4.500,-2.000,4.500
2.764,-5.000,4.500,-2.000,4.500
2.765,-5.000,4.500,-1.500,4.500
2.766,-5.500,5.000,-1.000,5.000
2.767,-6.000,5.500,0.000,5.000
2.768,-6.000,6.500,1.000,5.500
2.769,-6.000,7.500,1.500,5.500
2.770,-6.000,9.000,2.000,6.000
2.771,-6.000,9.500,2.000,6.000
2.772,-6.000,10.500,2.000,6.500
2.773,-6.000,10.500,1.500,6.000
2.774,-6.000,10.500,1.000,6.000
2.775,-5.500,10.000,0.500,5.500
2.776,-5.500,9.500,0.500,5.500
2.777,-5.000,8.500,0.000,5.500
2.778,-5.000,8.000,-0.500,5.500
2.779,-5.000,7.000,-1.000,5.000
2.780,-5.000,6.000,-1.500,5.000
2.781,-5.000,5.500,-1.500,4.500
2.782,-5.500,5.000,-2.000,4.500
2.783,-5.500,4.500,-2.000,4.000
2.784,-6.000,4.500,-2.500,4.000
2.785,-6.000,4.500,-2.000,3.500
2.786,-6.000,4.500,-2.000,3.500
2.787,-6.000,5.000,-1.500,3.500
2.788,-6.500,5.500,-1.500,3.000
2.789,-6.500,6.000,-1.500,2.500
2.790,-6.500,6.500,-1.500,2.500
2.791,-6.500,7.000,-1.500,2.500
2.792,-7.000,8.000,-2.000,2.500
2.793,-7.000,8.000,-2.000,2.500
2.794,-7.000,8.500,-2.500,2.500
2.795,-7.000,8.500,-2.000,2.000
2.796,-7.000,8.000,-2.500,2.500
2.797,-6.500,7.500,-2.500,2.500
2.798,-7.000,7.000,-3.000,2.500
2.799,-7.000,6.000,-3.500,2.500
2.800,-7.000,5.500,-4.000,2.000
2.801,-7.000,4.500,-4.000,2.000
2.802,-7.500,4.000,-4.500,2.000
2.803,-7.500,3.500,-4.500,1.500
2.804,-7.500,3.500,-4.500,1.500
2.805,-7.500,3.000,-4.000,1.500
2.806,-8.000,3.000,-4.000,2.000
2.807,-8.500,3.000,-4.000,2.500
2.808,-9.000,3.000,-4.000,2.500
2.809,-9.000,3.500,-4.000,2.500
2.810,-9.500,4.000,-4.500,3.000
2.811,-9.000,4.500,-5.000,2.500
2.812,-9.000,5.000,-5.000,2.500
2.813,-8.500,5.500,-5.000,2.000
2.814,-8.500,5.500,-5.500,2.000
2.815,-8.000,5.500,-5.500,2.000
2.816,-7.500,5.000,-6.000,2.000
2.817,-7.000,4.500,-6.000,1.500
2.818,-7.000,4.000,-6.500,1.500
2.819,-7.000,3.000,-6.500,1.500
2.820,-7.000,2.500,-7.000,1.500
2.821,-7.000,2.000,-6.500,1.500
2.822,-7.000,1.500,-7.000,1.500
2.823,-7.000,1.000,-7.000,1.000
2.824,-7.000,1.000,-7.000,1.000
2.825,-7.000,1.000,-7.000,0.500
2.826,-7.000,1.500,-7.500,0.500
2.827,-7.000,2.000,-7.500,0.500
2.828,-7.500,3.000,-7.500,0.500
2.829,-7.500,3.500,-7.000,0.000
2.830,-8.000,4.000,-7.000,-0.500
2.831,-8.000,4.500,-6.500,-0.500
2.832,-8.500,4.500,-6.500,-0.500
2.833,-8.000,4.500,-6.500,-0.500
2.834,-8.000,4.000,-7.000,-0.500
2.835,-7.500,3.000,-7.500,-0.500
2.836,-7.500,2.500,-8.500,-1.000
2.837,-7.000,1.500,-9.000,-1.000
2.838,-7.000,0.500,-10.500,-1.500
2.839,-6.500,0.000,-11.000,-2.000
2.840,-7.000,-1.000,-12.000,-2.000
2.841,-7.000,-1.500,-13.000,-2.500
2.842,-7.000,-2.000,-13.500,-3.000
2.843,-6.500,-2.000,-14.000,-3.500
2.844,-7.000,-2.000,-14.500,-4.000
2.845,-7.000,-2.000,-14.000,-4.000
2.846,-7.000,-1.500,-14.000,-4.500
2.847,-7.500,-1.000,-13.500,-4.500
2.848,-8.000,-1.000,-13.500,-5.000
2.849,-8.000,-0.500,-13.000,-4.500
2.850,-8.500,-0.500,-12.500,-4.500
2.851,-8.500,0.500,-12.500,-4.000
2.852,-9.000,1.000,-12.500,-4.000
2.853,-9.000,1.000,-12.000,-4.000
2.854,-9.500,1.500,-12.500,-4.000
2.855,-9.500,1.000,-12.500,-4.500
2.856,-10.000,1.000,-13.000,-4.500
2.857,-9.500,0.000,-13.000,-4.500
2.858,-9.500,-0.500,-14.000,-5.000
2.859,-9.000,-1.000,-14.000,-5.000
2.860,-9.000,-2.000,-14.500,-5.000
2.861,-9.000,-2.500,-14.500,-5.000
2.862,-9.000,-3.000,-14.500,-5.500
2.863,-9.000,-3.000,-15.000,-6.000
2.864,-9.500,-3.000,-15.500,-6.500
2.865,-10.000,-3.000,-15.500,-6.500
2.866,-10.000,-2.500,-16.000,-6.500
2.867,-10.000,-2.000,-16.500,-6.500
2.868,-10.500,-1.000,-17.000,-6.500
2.869,-10.500,0.000,-17.000,-6.500
2.870,-11.000,0.500,-17.500,-7.000
2.871,-11.000,1.000,-18.000,-7.000
2.872,-11.500,1.500,-18.500,-7.500
2.873,-11.000,1.500,-19.000,-7.500
2.874,-11.000,1.500,-19.500,-8.000
2.875,-10.500,0.500,-20.000,-8.000
2.876,-10.000,0.000,-20.500,-8.500
2.877,-9.500,-1.000,-20.500,-9.000
2.878,-9.500,-2.000,-21.000,-9.500
2.879,-9.500,-3.000,-21.500,-10.000
2.880,-9.500,-4.000,-22.000,-10.000
2.881,-9.500,-5.000,-22.000,-10.000
2.882,-9.500,-6.000,-22.500,-10.500
2.883,-9.500,-6.500,-22.500,-10.500
2.884,-10.000,-7.000,-22.500,-11.000
2.885,-10.000,-7.000,-22.000,-10.500
2.886,-10.000,-6.500,-21.500,-10.500
2.887,-10.500,-6.000,-20.500,-9.500
2.888,-10.500,-5.000,-19.500,-9.000
2.889,-10.500,-4.000,-18.000,-8.000
2.890,-10.500,-3.000,-17.000,-7.000
2.891,-10.500,-1.500,-16.000,-6.000
2.892,-10.500,-0.500,-15.500,-5.000
2.893,-10.000,0.500,-14.500,-4.000
2.894,-10.000,1.000,-14.500,-4.000
2.895,-10.000,1.000,-14.500,-3.500
2.896,-10.000,1.000,-15.000,-4.000
2.897,-10.000,0.500,-15.500,-4.000
2.898,-10.500,0.000,-16.500,-4.500
2.899,-10.500,-0.500,-17.500,-5.000
2.900,-10.500,-1.500,-18.500,-6.000
2.901,-10.500,-2.000,-19.000,-6.500
2.902,-11.000,-3.000,-20.000,-7.500
2.903,-11.500,-3.500,-20.500,-7.500
2.904,-11.500,-4.000,-21.000,-8.000
2.905,-11.500,-4.500,-21.000,-8.000
2.906,-11.500,-4.500,-21.000,-8.000
2.907,-11.500,-4.500,-20.500,-7.500
2.908,-11.500,-4.500,-20.500,-7.000
2.909,-11.500,-4.000,-19.500,-6.000
2.910,-11.500,-4.000,-19.000,-5.500
2.911,-11.500,-3.000,-18.000,-5.000
2.912,-11.500,-2.500,-17.000,-4.500
2.913,-11.000,-1.500,-16.000,-4.000
2.914,-11.000,-1.000,-15.000,-3.500
2.915,-10.500,-0.500,-13.500,-3.000
2.916,-10.000,-0.500,-13.000,-2.500
2.917,-9.500,0.000,-12.000,-2.000
2.918,-9.500,0.000,-11.500,-1.500
2.919,-9.000,0.000,-10.500,-0.500
2.920,-8.500,-0.500,-10.000,-0.500
2.921,-8.000,0.000,-9.500,0.000
2.922,-8.000,0.000,-9.000,0.500
2.923,-8.000,0.000,-8.000,1.000
2.924,-8.000,0.500,-7.500,1.500
2.925,-7.500,1.000,-7.000,1.500
2.926,-7.500,2.000,-6.000,2.000
2.927,-7.500,2.500,-5.000,2.000
2.928,-7.500,3.500,-4.000,2.500
2.929,-7.500,4.500,-3.000,3.000
2.930,-7.500,6.000,-2.500,3.500
2.931,-8.000,7.000,-2.000,3.500
2.932,-8.000,8.500,-1.500,3.500
2.933,-8.000,9.000,-1.500,3.000
2.934,-8.000,9.500,-2.000,3.000
2.935,-8.000,9.500,-2.500,2.500
2.936,-7.500,9.000,-3.500,2.500
2.937,-7.000,8.000,-4.000,2.000
2.938,-7.000,7.000,-5.000,1.500
2.939,-7.000,5.500,-5.000,1.000
2.940,-7.000,4.500,-5.000,1.000
2.941,-7.000,3.000,-5.000,0.500
2.942,-7.500,2.500,-5.000,0.500
2.943,-7.500,2.000,-5.000,0.000
2.944,-8.000,2.000,-5.500,0.000
2.945,-8.000,2.000,-5.500,0.000
2.946,-8.000,2.500,-6.000,-0.500
2.947,-8.000,3.000,-6.000,-0.500
2.948,-8.000,4.000,-6.000,-0.500
2.949,-8.000,4.500,-5.500,0.000
2.950,-8.000,6.000,-5.500,0.500
2.951,-7.500,6.500,-5.500,0.500
2.952,-7.500,7.500,-5.000,0.500
2.953,-7.000,8.000,-5.000,0.000
2.954,-7.000,8.500,-5.000,0.000
2.955,-6.500,8.500,-5.000,0.000
2.956,-6.500,8.500,-5.500,-0.500
2.957,-6.000,8.000,-5.500,-1.000
2.958,-6.000,8.000,-6.000,-1.000
2.959,-6.000,7.000,-6.500,-1.000
2.960,-6.000,6.500,-6.500,-1.500
2.961,-6.000,6.000,-6.500,-1.500
2.962,-6.000,5.500,-7.000,-2.000
2.963,-6.000,5.500,-7.500,-2.000
2.964,-6.500,5.500,-7.500,-2.500
2.965,-6.500,5.500,-7.500,-2.500
2.966,-6.500,5.500,-8.000,-3.000
2.967,-6.500,6.000,-7.500,-3.000
2.968,-7.000,6.500,-7.000,-3.500
2.969,-6.500,7.000,-6.000,-3.500
2.970,-7.000,8.000,-5.000,-3.500
2.971,-7.000,8.500,-4.000,-3.000
2.972,-7.000,9.000,-3.500,-3.000
2.973,-6.500,9.000,-3.000,-3.000
2.974,-6.500,9.000,-3.000,-3.000
2.975,-6.000,8.000,-3.000,-3.000
2.976,-6.000,7.000,-4.000,-3.500
2.977,-5.500,5.500,-5.000,-3.500
2.978,-5.500,4.500,-6.500,-4.000
2.979,-5.000,3.500,-7.500,-4.000
2.980,-5.500,3.000,-8.000,-4.000
2.981,-5.500,2.500,-8.500,-4.000
2.982,-5.500,2.500,-8.500,-4.500
2.983,-5.500,2.500,-8.500,-4.500
2.984,-6.000,3.000,-8.000,-5.000
2.985,-6.000,3.500,-7.000,-5.000
2.986,-6.000,4.000,-6.500,-5.000
2.987,-6.000,5.000,-6.000,-4.500
2.988,-6.500,6.000,-6.000,-4.500
2.989,-6.500,7.000,-6.000,-4.500
2.990,-7.000,8.000,-6.000,-4.000
2.991,-6.500,9.000,-6.000,-4.000
2.992,-6.500,9.500,-6.500,-4.000
2.993,-6.500,9.500,-7.000,-3.500
2.994,-6.500,9.500,-7.000,-4.000
2.995,-6.000,9.000,-7.000,-4.000
2.996,-6.000,8.500,-7.500,-4.000
2.997,-6.000,7.500,-7.500,-4.000
2.998,-6.000,6.500,-8.000,-4.500
2.999,-6.000,5.500,-8.500,-4.000
3.000,-6.000,5.000,-8.500,-4.000
3.001,-6.500,4.500,-8.500,-4.000
3.002,-6.500,4.000,-9.000,-4.000
3.003,-6.500,4.000,-9.000,-4.000
3.004,-7.000,4.000,-9.000,-4.000
3.005,-7.000,4.500,-8.500,-4.000
3.006,-7.000,5.500,-8.000,-4.500
3.007,-7.000,6.000,-7.500,-4.500
3.008,-7.500,7.000,-7.000,-4.500
3.009,-7.500,8.500,-6.000,-4.000
3.010,-7.500,10.000,-6.000,-4.000
3.011,-7.500,11.000,-5.500,-3.500
3.012,-7.500,12.500,-5.500,-3.500
3.013,-7.500,13.000,-5.000,-3.500
3.014,-7.500,13.000,-5.500,-3.500
3.015,-7.000,12.000,-5.500,-3.500
3.016,-7.000,11.500,-6.000,-4.000
3.017,-6.500,10.000,-6.000,-4.000
3.018,-7.000,8.500,-6.500,-4.500
3.019,-7.000,7.000,-7.000,-4.500
3.020,-7.000,6.500,-7.500,-5.000
3.021,-7.000,5.500,-7.500,-5.000
3.022,-7.500,5.000,-8.000,-5.000
3.023,-7.500,5.000,-8.000,-5.000
3.024,-7.500,5.000,-8.000,-5.000
3.025,-7.500,5.000,-7.500,-4.500
3.026,-7.500,5.500,-7.500,-4.500
3.027,-7.000,6.000,-7.000,-4.000
3.028,-7.000,6.500,-7.000,-4.000
3.029,-7.000,7.500,-6.500,-4.000
3.030,-7.000,8.000,-6.000,-4.000
3.031,-7.000,8.500,-5.500,-3.500
3.032,-7.000,9.000,-5.500,-3.500
3.033,-7.000,9.000,-5.500,-3.500
3.034,-7.000,9.500,-6.000,-3.500
3.035,-7.000,9.000,-6.500,-3.500
3.036,-7.000,8.500,-8.000,-4.000
3.037,-7.000,7.500,-9.000,-4.000
3.038,-7.000,7.000,-10.000,-4.500
3.039,-6.500,6.000,-10.500,-4.000
3.040,-7.000,5.500,-11.500,-4.500
3.041,-7.000,5.000,-11.500,-4.500
3.042,-7.000,5.000,-12.000,-4.500
3.043,-7.000,4.500,-12.000,-4.500
3.044,-7.000,5.000,-12.000,-4.500
3.045,-7.500,5.000,-11.500,-4.500
3.046,-8.000,5.500,-11.000,-4.500
3.047,-8.000,6.000,-10.500,-4.500
3.048,-8.500,6.500,-10.000,-4.500
3.049,-8.500,7.000,-9.000,-4.000
3.050,-8.500,8.000,-8.500,-4.500
3.051,-8.500,9.000,-8.000,-4.000
3.052,-9.000,9.500,-8.000,-4.500
3.053,-8.500,10.000,-8.000,-4.500
3.054,-8.500,10.000,-8.000,-5.000
3.055,-8.000,10.000,-8.000,-5.000
3.056,-8.000,9.500,-8.500,-5.500
3.057,-8.000,9.000,-8.500,-5.500
3.058,-8.000,8.500,-8.500,-5.500
3.059,-8.000,7.500,-8.500,-5.000
3.060,-8.000,7.000,-8.500,-5.000
3.061,-8.000,6.000,-8.500,-5.000
3.062,-8.500,5.500,-9.000,-5.000
3.063,-8.500,5.000,-9.000,-5.000
3.064,-9.000,5.000,-9.500,-4.500
3.065,-9.000,5.000,-9.500,-4.500
3.066,-9.000,5.000,-9.500,-4.500
3.067,-9.000,5.500,-9.000,-4.000
3.068,-9.500,6.000,-9.000,-4.500
3.069,-9.000,6.000,-8.000,-4.500
3.070,-9.500,7.000,-8.000,-5.000
3.071,-9.500,7.500,-7.500,-5.000
3.072,-9.500,8.000,-7.000,-5.000
3.073,-9.000,8.000,-7.000,-5.000
3.074,-9.000,8.500,-7.000,-5.000
3.075,-9.000,8.000,-7.500,-5.000
3.076,-9.000,8.000,-8.000,-5.500
3.077,-8.500,7.000,-8.500,-5.500
3.078,-8.500,6.500,-9.500,-6.000
3.079,-8.500,6.000,-10.000,-6.000
3.080,-8.500,5.500,-10.500,-6.000
3.081,-8.500,5.000,-10.500,-6.000
3.082,-9.000,4.500,-11.000,-6.000
3.083,-9.500,4.000,-10.500,-5.500
3.084,-9.500,4.000,-10.500,-5.500
3.085,-9.500,4.000,-10.000,-5.500
3.086,-9.500,4.500,-10.000,-5.500
3.087,-9.500,4.500,-10.000,-5.000
3.088,-9.500,5.000,-10.000,-5.000
3.089,-9.500,5.500,-10.000,-4.500
3.090,-9.500,6.500,-10.000,-4.500
3.091,-9.500,7.000,-10.000,-4.000
3.092,-9.500,8.000,-10.000,-4.500
3.093,-9.000,8.000,-10.000,-4.500
3.094,-9.000,8.500,-10.000,-5.000
3.095,-9.000,8.500,-10.000,-5.000
3.096,-9.000,9.000,-10.500,-5.500
3.097,-9.000,8.500,-10.500,-5.500
3.098,-9.000,8.000,-11.500,-6.000
3.099,-9.000,7.000,-12.000,-6.500
3.100,-9.500,6.500,-12.500,-6.500
3.101,-9.500,5.500,-12.500,-6.500
3.102,-10.000,5.000,-13.000,-6.500
3.103,-10.000,4.500,-12.500,-6.500
3.104,-10.000,4.500,-12.500,-6.500
3.105,-9.500,5.000,-11.500,-6.000
3.106,-9.500,5.500,-11.000,-6.000
3.107,-9.500,6.000,-10.000,-6.000
3.108,-9.500,7.000,-9.500,-6.500
3.109,-9.500,7.000,-9.000,-6.500
3.110,-9.500,7.500,-9.000,-7.000
3.111,-10.000,7.500,-9.000,-7.000
3.112,-10.000,8.000,-10.000,-7.000
3.113,-10.000,7.500,-10.500,-7.000
3.114,-10.500,7.500,-11.500,-7.000
3.115,-10.500,6.500,-12.000,-6.500
3.116,-10.500,6.000,-12.500,-6.500
3.117,-10.500,5.500,-12.500,-6.000
3.118,-11.000,4.500,-13.000,-6.000
3.119,-11.000,3.500,-13.000,-6.000
3.120,-11.000,3.000,-13.000,-6.000
3.121,-11.000,2.000,-13.000,-6.000
3.122,-11.000,1.500,-13.000,-6.000
3.123,-11.000,1.000,-13.000,-6.000
3.124,-11.000,0.500,-12.500,-6.000
3.125,-11.000,0.500,-12.000,-6.000
3.126,-11.000,1.000,-12.000,-6.000
3.127,-11.000,1.500,-12.000,-6.000
3.128,-11.000,2.500,-11.500,-5.500
3.129,-11.000,3.000,-11.000,-5.500
3.130,-11.000,4.500,-11.000,-5.500
3.131,-11.000,5.500,-11.000,-5.000
3.132,-11.000,6.000,-10.500,-5.500
3.133,-11.000,6.000,-10.500,-5.500
3.134,-10.500,6.000,-10.500,-5.500
3.135,-10.500,5.000,-10.500,-6.000
3.136,-10.500,4.000,-11.000,-6.500
3.137,-10.000,3.000,-11.500,-6.500
3.138,-10.500,2.000,-12.000,-7.500
3.139,-10.500,1.000,-12.500,-8.000
3.140,-10.500,0.500,-13.000,-8.500
3.141,-10.500,0.000,-13.000,-8.500
3.142,-11.000,0.000,-13.500,-9.000
3.143,-11.000,0.500,-13.000,-9.000
3.144,-11.000,1.000,-13.000,-9.000
3.145,-10.500,1.000,-12.500,-8.500
3.146,-11.000,1.500,-12.500,-8.500
3.147,-10.500,2.000,-12.000,-8.000
3.148,-11.000,2.500,-12.000,-8.000
3.149,-10.500,3.000,-11.500,-7.500
3.150,-11.000,3.500,-11.500,-7.500
3.151,-10.500,4.500,-11.500,-7.000
3.152,-11.000,5.000,-11.500,-7.000
3.153,-11.000,5.500,-11.500,-7.000
3.154,-11.000,6.000,-11.500,-7.000
3.155,-11.000,6.000,-11.500,-6.500
3.156,-11.500,6.000,-12.000,-7.000
3.157,-11.500,5.500,-12.000,-7.000
3.158,-12.000,5.000,-12.500,-7.500
3.159,-11.500,4.000,-12.500,-7.500
3.160,-12.000,3.500,-13.000,-8.000
3.161,-12.000,3.000,-13.500,-8.000
3.162,-12.000,2.500,-14.000,-8.500
3.163,-11.500,2.000,-14.000,-8.500
3.164,-11.500,2.000,-14.000,-8.500
3.165,-11.000,2.000,-13.000,-8.000
3.166,-11.000,2.500,-12.000,-8.000
3.167,-11.000,2.500,-11.000,-7.500
3.168,-10.500,3.500,-10.000,-7.000
3.169,-10.500,4.000,-8.500,-6.500
3.170,-10.500,4.500,-8.000,-6.500
3.171,-10.500,5.000,-7.000,-6.500
3.172,-10.500,5.500,-6.500,-6.000
3.173,-10.500,6.000,-6.000,-6.000
3.174,-11.000,6.000,-6.000,-6.000
3.175,-10.500,5.500,-6.000,-6.000
3.176,-10.500,5.000,-6.500,-6.000
3.177,-10.500,4.000,-7.000,-5.500
3.178,-10.500,3.000,-7.500,-6.000
3.179,-10.000,1.500,-8.000,-6.000
3.180,-10.000,1.000,-8.500,-6.500
3.181,-10.000,0.000,-9.000,-6.500
3.182,-10.500,-1.000,-10.000,-6.500
3.183,-10.500,-1.000,-10.500,-6.500
3.184,-10.500,-1.500,-11.000,-6.500
3.185,-10.500,-1.000,-11.500,-6.000
3.186,-11.000,-1.000,-12.000,-6.000
3.187,-11.000,0.000,-12.000,-6.000
3.188,-11.000,1.000,-12.000,-5.500
3.189,-11.000,2.000,-11.500,-5.500
3.190,-11.500,3.000,-11.000,-5.500
3.191,-11.500,3.500,-11.000,-6.000
3.192,-11.500,4.000,-11.000,-6.500
3.193,-11.500,4.000,-11.000,-6.500
3.194,-11.500,4.000,-11.500,-7.500
3.195,-11.500,3.000,-12.500,-8.000
3.196,-11.500,2.500,-13.500,-8.500
3.197,-11.000,1.500,-14.000,-9.000
3.198,-11.000,0.500,-15.000,-9.500
3.199,-11.000,-0.500,-15.500,-10.000
3.200,-11.000,-1.500,-16.500,-11.000
3.201,-11.000,-2.000,-17.000,-11.500
3.202,-11.000,-2.500,-18.000,-12.500
3.203,-11.000,-2.500,-18.000,-12.500
3.204,-11.500,-2.500,-18.500,-13.000
3.205,-11.500,-2.000,-18.000,-13.000
3.206,-11.500,-1.500,-18.000,-13.000
3.207,-11.500,-0.500,-17.500,-12.500
3.208,-12.000,0.000,-17.000,-12.000
3.209,-12.000,0.500,-16.500,-11.500
3.210,-12.000,1.500,-16.000,-11.000
3.211,-11.500,2.000,-15.000,-10.500
3.212,-12.000,3.000,-15.000,-10.500
3.213,-12.000,3.000,-14.500,-10.000
3.214,-12.000,3.500,-15.000,-10.500
3.215,-11.500,3.500,-15.000,-11.000
3.216,-11.500,3.500,-16.000,-11.500
3.217,-11.500,3.000,-16.500,-11.500
3.218,-11.500,2.500,-17.000,-12.000
3.219,-11.500,1.500,-17.500,-12.000
3.220,-12.000,1.000,-18.000,-12.500
3.221,-12.000,0.000,-18.000,-12.500
3.222,-12.000,-0.500,-18.500,-13.000
3.223,-11.500,-1.000,-18.000,-13.000
3.224,-12.000,-1.500,-18.000,-13.500
3.225,-11.500,-1.000,-17.500,-13.500
3.226,-12.000,-1.000,-17.000,-13.500
3.227,-12.000,0.000,-16.500,-13.500
3.228,-12.500,1.000,-16.500,-13.500
3.229,-12.500,1.500,-16.000,-13.000
3.230,-13.000,2.500,-16.000,-13.000
3.231,-13.000,2.500,-16.000,-12.500
3.232,-13.000,3.000,-16.000,-12.500
3.233,-12.500,3.000,-16.000,-12.000
3.234,-12.500,3.000,-16.500,-12.000
3.235,-12.000,2.000,-16.500,-12.000
3.236,-11.500,1.500,-16.500,-12.500
3.237,-11.000,0.500,-16.500,-13.000
3.238,-11.000,-0.500,-17.000,-13.500
3.239,-11.000,-1.000,-17.000,-13.500
3.240,-11.000,-2.000,-17.500,-14.000
3.241,-11.000,-2.000,-18.000,-14.000
3.242,-11.500,-2.500,-18.000,-14.500
3.243,-11.500,-2.000,-18.000,-14.500
3.244,-11.500,-2.000,-18.000,-14.500
3.245,-11.500,-1.500,-18.000,-14.500
3.246,-11.500,-1.000,-18.000,-14.500
3.247,-11.000,-0.500,-17.500,-14.000
3.248,-11.000,0.500,-17.000,-14.000
3.249,-11.000,1.000,-16.500,-14.000
3.250,-11.000,1.500,-15.500,-13.500
3.251,-11.000,2.000,-14.500,-13.000
3.252,-11.000,3.000,-14.000,-13.000
3.253,-10.500,3.000,-13.500,-13.000
3.254,-11.000,3.000,-13.000,-13.000
3.255,-11.000,2.500,-13.000,-12.500
3.256,-11.000,2.500,-13.500,-13.000
3.257,-10.500,1.500,-14.000,-13.000
3.258,-11.000,1.000,-14.500,-13.500
3.259,-10.500,0.000,-15.000,-14.000
3.260,-10.500,-1.000,-15.500,-14.000
3.261,-10.500,-1.500,-15.500,-14.000
3.262,-10.500,-2.000,-15.500,-14.500
3.263,-10.500,-2.000,-15.500,-14.500
3.264,-11.000,-2.500,-15.000,-15.000
3.265,-11.000,-2.500,-15.000,-15.000
3.266,-11.500,-3.000,-14.500,-15.000
3.267,-11.500,-2.500,-14.000,-15.000
3.268,-11.500,-2.000,-13.500,-15.500
3.269,-11.500,-1.500,-13.000,-15.000
3.270,-11.500,-1.000,-13.000,-15.000
3.271,-11.500,0.000,-13.000,-15.000
3.272,-11.000,1.000,-13.000,-15.000
3.273,-10.500,1.500,-13.000,-15.000
3.274,-10.500,1.500,-13.500,-15.000
3.275,-10.000,1.500,-14.000,-15.000
3.276,-10.500,1.500,-14.500,-15.500
3.277,-10.500,1.500,-15.000,-15.500
3.278,-10.500,1.000,-16.000,-16.000
3.279,-10.000,0.000,-16.000,-15.500
3.280,-10.500,-0.500,-16.500,-15.500
3.281,-10.000,-1.000,-16.000,-14.500
3.282,-10.000,-1.000,-15.500,-14.000
3.283,-10.000,-0.500,-14.000,-13.000
3.284,-10.500,0.000,-13.000,-11.500
3.285,-10.500,0.500,-11.500,-10.000
3.286,-11.000,1.500,-10.500,-8.500
3.287,-11.500,1.500,-9.000,-6.500
3.288,-12.000,2.000,-8.000,-4.500
3.289,-12.000,2.500,-7.000,-2.000
3.290,-12.500,3.000,-6.000,-0.500
3.291,-12.500,3.000,-5.500,1.500
3.292,-13.000,3.500,-5.500,3.000
3.293,-13.000,3.500,-6.000,4.000
3.294,-13.500,3.500,-7.000,5.000
3.295,-13.000,2.500,-8.000,5.500
3.296,-13.000,1.500,-10.000,6.000
3.297,-13.000,0.000,-11.500,6.500
3.298,-14.000,-2.000,-13.500,6.500
3.299,-14.500,-3.500,-15.000,6.500
3.300,-15.000,-6.000,-17.500,6.000
3.301,-15.500,-8.000,-20.000,4.500
3.302,-16.500,-10.500,-22.500,3.500
3.303,-17.000,-12.500,-25.500,1.500
3.304,-18.000,-14.500,-28.500,-0.500
3.305,-18.500,-16.000,-31.500,-2.500
3.306,-19.000,-17.500,-35.000,-5.000
3.307,-20.000,-18.500,-38.500,-7.500
3.308,-21.000,-20.000,-42.500,-11.500
3.309,-21.500,-20.500,-46.000,-15.500
3.310,-22.500,-22.000,-50.500,-21.000
3.311,-23.000,-23.000,-55.000,-27.000
3.312,-23.500,-24.500,-60.000,-34.500
3.313,-23.500,-26.000,-65.000,-42.000
3.314,-23.500,-28.000,-70.500,-50.000
3.315,-23.500,-29.500,-75.500,-58.500
3.316,-23.500,-32.000,-80.500,-66.500
3.317,-23.000,-33.500,-84.500,-74.000
3.318,-23.000,-35.500,-88.500,-81.000
3.319,-23.000,-36.500,-91.500,-86.500
3.320,-22.500,-37.000,-93.000,-91.500
3.321,-22.000,-36.500,-92.500,-94.500
3.322,-21.500,-36.000,-91.000,-96.500
3.323,-21.000,-34.000,-88.500,-97.000
3.324,-20.000,-32.000,-85.000,-96.500
3.325,-19.000,-29.500,-80.500,-95.500
3.326,-18.500,-26.500,-76.500,-94.000
3.327,-18.000,-24.000,-72.500,-91.500
3.328,-17.500,-21.500,-68.000,-89.500
3.329,-17.000,-18.500,-63.500,-86.500
3.330,-17.000,-16.000,-59.500,-83.500
3.331,-16.500,-14.000,-55.000,-80.500
3.332,-16.000,-12.000,-52.000,-77.500
3.333,-15.500,-10.500,-48.500,-74.500
3.334,-15.000,-9.500,-46.000,-72.000
3.335,-14.000,-8.500,-44.000,-69.500
3.336,-13.500,-8.000,-42.000,-67.000
3.337,-13.000,-7.500,-40.000,-64.000
3.338,-13.000,-7.500,-38.500,-61.500
3.339,-12.500,-7.000,-36.500,-58.500
3.340,-12.000,-7.000,-34.500,-55.500
3.341,-12.000,-6.500,-32.000,-52.500
3.342,-12.000,-6.000,-30.000,-50.000
3.343,-11.500,-5.500,-27.500,-47.000
3.344,-11.500,-5.500,-25.500,-44.500
3.345,-11.500,-4.500,-23.500,-41.500
3.346,-11.500,-3.500,-22.000,-38.500
3.347,-11.000,-2.500,-20.000,-35.500
3.348,-11.500,-1.500,-18.500,-32.500
3.349,-11.000,0.000,-17.000,-29.500
3.350,-11.000,1.000,-16.500,-27.000
3.351,-10.500,1.500,-15.500,-24.500
3.352,-10.500,2.000,-15.000,-23.000
3.353,-10.500,2.500,-14.500,-21.000
3.354,-10.500,2.500,-14.500,-20.500
3.355,-10.000,2.500,-14.500,-19.500
3.356,-10.500,2.000,-15.000,-19.500
3.357,-10.500,1.500,-15.000,-19.500
3.358,-10.500,0.500,-15.500,-19.500
3.359,-10.500,0.000,-15.500,-19.500
3.360,-11.000,-1.000,-16.000,-19.500
3.361,-11.000,-1.000,-16.500,-19.500
3.362,-11.000,-2.000,-17.000,-19.500
3.363,-10.500,-2.000,-17.000,-19.000
3.364,-11.000,-2.500,-17.000,-19.000
3.365,-11.000,-2.000,-17.000,-18.500
3.366,-11.000,-1.500,-17.500,-18.500
3.367,-11.000,-1.000,-17.000,-18.000
3.368,-11.500,-0.500,-17.000,-18.000
3.369,-11.500,0.500,-16.500,-17.500
3.370,-11.500,1.500,-16.000,-17.500
3.371,-11.500,2.000,-15.500,-17.000
3.372,-11.500,3.000,-15.500,-16.500
3.373,-11.500,3.500,-15.000,-16.500
3.374,-11.500,3.500,-15.500,-16.500
3.375,-11.000,3.000,-15.500,-16.500
3.376,-11.000,2.500,-16.500,-16.500
3.377,-10.500,1.500,-17.000,-17.000
3.378,-10.500,0.500,-17.500,-17.500
3.379,-10.000,-1.000,-18.000,-17.500
3.380,-10.500,-2.000,-18.000,-17.500
3.381,-10.500,-2.500,-18.000,-17.500
3.382,-10.500,-2.500,-17.500,-17.500
3.383,-10.000,-2.500,-16.500,-17.500
3.384,-10.500,-2.500,-16.000,-17.500
3.385,-10.500,-2.000,-15.500,-17.000
3.386,-11.000,-1.500,-15.500,-17.500
3.387,-11.000,-1.000,-15.000,-17.000
3.388,-11.000,-0.500,-15.000,-17.000
3.389,-11.000,0.500,-15.000,-17.000
3.390,-10.500,2.000,-15.500,-17.000
3.391,-10.500,2.500,-15.500,-16.500
3.392,-10.000,3.500,-16.000,-17.000
3.393,-9.500,3.500,-15.500,-17.000
3.394,-9.500,3.000,-16.000,-17.000
3.395,-9.000,1.500,-16.000,-17.000
3.396,-9.000,0.000,-16.500,-17.500
3.397,-9.000,-2.000,-17.000,-18.000
3.398,-9.000,-4.000,-18.000,-18.500
3.399,-9.000,-5.500,-18.500,-18.500
3.400,-9.000,-7.000,-19.000,-19.000
3.401,-9.000,-8.000,-19.500,-19.000
3.402,-9.500,-9.000,-20.000,-19.500
3.403,-9.500,-9.000,-20.000,-19.500
3.404,-9.500,-8.500,-20.500,-19.500
3.405,-9.000,-8.000,-20.000,-19.500
3.406,-9.000,-7.500,-20.000,-19.500
3.407,-9.000,-6.500,-19.000,-19.500
3.408,-9.000,-5.500,-18.500,-19.000
3.409,-9.000,-4.500,-18.000,-18.500
3.410,-9.000,-3.500,-17.500,-18.500
3.411,-9.000,-2.500,-17.000,-18.000
3.412,-9.000,-1.500,-16.500,-18.000
3.413,-9.000,-0.500,-16.500,-18.000
3.414,-9.500,0.500,-16.500,-18.000
3.415,-9.500,0.500,-16.500,-18.500
3.416,-10.000,0.500,-17.000,-18.500
3.417,-10.000,-0.500,-17.500,-18.500
3.418,-10.000,-1.000,-18.500,-19.000
3.419,-9.500,-2.000,-19.000,-19.000
3.420,-10.000,-2.500,-20.000,-19.500
3.421,-9.500,-3.000,-20.000,-19.500
3.422,-9.500,-3.500,-20.000,-19.500
3.423,-9.000,-3.500,-19.000,-19.500
