'Elapsed time','AECG1','AECG2','AECG3','AECG4'
'seconds','uV','uV','uV','uV'
0.000,1.500,35.500,48.500,45.500
0.001,13.000,311.000,426.500,400.000
0.002,13.500,358.000,491.000,460.000
0.003,12.500,382.000,523.000,490.000
0.004,10.000,391.500,536.000,502.000
0.005,6.500,394.000,539.500,505.000
0.006,3.500,394.000,539.000,504.000
0.007,1.000,392.500,537.500,502.500
0.008,0.500,391.500,536.000,501.000
0.009,1.500,390.500,534.500,499.500
0.010,2.500,390.000,533.500,498.500
0.011,3.000,390.000,533.000,498.000
0.012,2.500,390.000,533.000,498.500
0.013,2.500,391.000,534.000,499.000
0.014,3.500,392.000,535.000,500.500
0.015,4.500,393.500,537.000,502.000
0.016,4.500,395.000,539.000,504.000
0.017,5.000,397.000,541.000,506.000
0.018,5.500,398.500,543.000,508.000
0.019,6.000,400.000,544.500,509.500
0.020,6.000,400.500,545.500,510.500
0.021,5.500,401.000,546.000,511.000
0.022,5.000,401.000,546.000,511.500
0.023,4.500,401.000,546.000,511.500
0.024,5.000,400.000,545.500,511.000
0.025,6.000,399.500,545.000,510.500
0.026,7.000,398.500,544.000,510.000
0.027,8.500,397.500,543.000,509.000
0.028,9.000,397.000,542.500,508.500
0.029,9.000,397.000,542.000,508.500
0.030,9.000,396.500,542.000,508.500
0.031,8.500,396.500,542.000,508.500
0.032,7.000,396.500,542.000,508.000
0.033,6.000,396.500,542.000,508.500
0.034,5.000,396.500,542.500,508.500
0.035,5.000,397.000,542.500,508.500
0.036,5.500,397.000,542.500,509.000
0.037,6.000,398.000,543.000,509.000
0.038,6.500,398.500,543.000,509.500
0.039,7.000,399.000,543.500,509.500
0.040,6.500,399.000,544.000,510.000
0.041,5.000,399.500,544.000,510.000
0.042,2.000,399.500,544.500,510.500
0.043,-2.500,399.500,544.500,511.000
0.044,-6.500,399.500,544.500,511.000
0.045,-9.500,399.500,544.500,511.000
0.046,-11.000,399.500,544.000,511.000
0.047,-10.000,399.500,544.000,511.000
0.048,-8.000,399.000,544.000,511.000
0.049,-5.500,399.000,544.000,511.000
0.050,-3.000,399.000,543.500,510.500
0.051,-1.500,399.000,543.500,510.500
0.052,-1.500,398.500,543.500,510.000
0.053,-2.500,398.500,543.500,510.000
0.054,-4.000,399.000,543.500,510.000
0.055,-6.000,399.000,543.500,510.000
0.056,-7.500,399.000,543.500,510.000
0.057,-7.500,399.000,543.500,510.000
0.058,-7.500,399.000,543.500,510.500
0.059,-7.000,399.000,543.500,510.500
0.060,-6.000,399.000,543.500,511.000
0.061,-4.000,399.500,543.500,511.500
0.062,-2.000,399.500,543.500,511.500
0.063,-0.500,400.000,544.000,511.500
0.064,1.000,400.000,544.000,511.500
0.065,1.000,399.500,544.000,511.500
0.066,0.000,399.500,544.000,512.000
0.067,-1.500,399.000,544.000,512.000
0.068,-3.500,399.000,544.000,512.000
0.069,-6.000,398.500,544.000,512.000
0.070,-8.000,398.500,544.000,512.000
0.071,-9.500,398.500,544.000,512.000
0.072,-9.000,398.000,544.500,512.500
0.073,-6.500,398.500,544.500,512.500
0.074,-4.000,398.500,544.500,513.000
0.075,-2.000,399.000,545.000,513.000
0.076,-1.000,399.000,544.500,513.000
0.077,-0.500,399.000,544.500,513.000
0.078,-1.000,399.000,544.000,512.500
0.079,-1.500,399.000,544.000,512.000
0.080,-3.000,399.000,544.000,512.000
0.081,-5.000,399.000,544.000,512.000
0.082,-7.500,399.000,544.000,512.500
0.083,-8.500,399.000,544.000,512.500
0.084,-8.500,399.000,544.000,512.500
0.085,-8.500,398.500,544.000,512.500
0.086,-9.000,398.500,544.000,512.500
0.087,-10.500,398.500,544.000,512.500
0.088,-13.000,398.500,544.500,512.500
0.089,-15.500,398.500,544.500,513.000
0.090,-17.500,398.500,544.500,513.000
0.091,-19.000,398.500,544.500,513.000
0.092,-20.000,398.000,544.500,513.000
0.093,-20.000,398.000,544.000,513.000
0.094,-18.000,397.500,544.000,513.000
0.095,-14.500,397.500,544.000,513.000
0.096,-10.000,398.000,544.000,513.000
0.097,-6.500,398.000,544.000,513.500
0.098,-4.000,398.000,544.000,513.500
0.099,-3.000,398.000,544.000,513.500
0.100,-3.000,398.500,544.000,514.000
0.101,-3.000,398.500,544.500,514.000
0.102,-3.500,398.500,544.500,514.000
0.103,-4.000,399.000,544.500,514.000
0.104,-4.000,399.000,544.500,514.000
0.105,-3.500,399.000,544.500,514.000
0.106,-3.000,399.000,544.500,514.000
0.107,-3.000,399.000,544.500,514.000
0.108,-3.500,399.500,544.500,514.500
0.109,-5.000,399.500,545.000,515.000
0.110,-6.500,399.500,545.000,515.000
0.111,-8.000,400.000,545.500,515.500
0.112,-10.000,400.000,545.500,515.500
0.113,-11.500,400.500,545.500,515.500
0.114,-12.500,400.500,545.500,516.000
0.115,-12.500,400.500,545.500,516.000
0.116,-12.500,401.000,545.500,516.000
0.117,-13.000,400.500,545.500,516.500
0.118,-13.500,400.500,545.500,516.500
0.119,-13.000,400.500,546.000,516.500
0.120,-11.500,400.500,546.000,517.000
0.121,-9.000,401.000,546.500,517.000
0.122,-6.500,401.000,546.500,517.000
0.123,-4.500,401.000,546.500,517.000
0.124,-3.000,401.000,547.000,517.500
0.125,-2.000,400.500,546.500,517.500
0.126,-1.500,400.500,546.500,517.500
0.127,-1.500,400.000,546.500,517.500
0.128,-1.500,400.000,546.000,517.500
0.129,-2.000,400.000,546.000,517.500
0.130,-2.000,400.000,546.000,517.500
0.131,-2.000,399.500,546.000,517.500
0.132,-0.500,399.500,546.000,518.000
0.133,1.000,399.500,546.000,518.000
0.134,2.000,400.000,546.000,518.000
0.135,2.500,400.000,546.500,518.500
0.136,1.500,400.000,546.500,518.500
0.137,0.000,400.500,546.500,518.500
0.138,-2.000,400.500,546.500,518.500
0.139,-3.500,401.000,547.000,519.000
0.140,-4.000,401.000,547.000,519.000
0.141,-5.500,401.500,547.500,519.000
0.142,-6.500,401.500,547.500,519.500
0.143,-7.500,402.000,547.500,519.500
0.144,-7.500,402.000,547.500,519.500
0.145,-7.000,402.000,547.500,519.500
0.146,-6.500,401.500,547.000,519.500
0.147,-6.500,401.000,547.000,519.500
0.148,-7.000,401.000,547.000,520.000
0.149,-8.000,400.500,547.000,520.000
0.150,-8.500,400.500,547.000,520.500
0.151,-8.000,400.500,547.000,520.500
0.152,-7.000,400.500,547.000,520.500
0.153,-5.500,400.000,547.000,520.500
0.154,-4.500,400.000,547.000,520.500
0.155,-4.000,400.000,547.000,520.000
0.156,-3.000,400.000,547.000,520.000
0.157,-2.500,400.000,547.500,520.000
0.158,-2.000,400.000,547.500,520.000
0.159,-1.000,400.500,548.000,520.000
0.160,0.500,400.500,548.000,520.500
0.161,2.000,401.000,548.500,520.500
0.162,3.500,401.000,548.500,520.500
0.163,3.500,401.500,549.000,520.500
0.164,2.500,401.500,549.000,520.500
0.165,1.500,401.500,549.000,521.000
0.166,0.000,402.000,549.000,521.000
0.167,-0.500,402.000,549.000,521.000
0.168,0.000,402.000,549.000,521.000
0.169,0.500,402.000,549.500,521.000
0.170,0.000,402.500,549.500,521.500
0.171,-1.000,402.500,549.500,521.500
0.172,-2.000,403.000,549.500,521.500
0.173,-2.000,403.000,549.500,521.500
0.174,-2.000,403.000,549.500,521.000
0.175,-1.500,403.000,549.500,521.000
0.176,-2.000,403.000,549.000,520.500
0.177,-2.500,403.000,549.000,520.000
0.178,-3.000,402.500,549.000,520.000
0.179,-3.000,403.000,549.500,520.000
0.180,-3.000,403.000,549.500,520.000
0.181,-2.500,403.500,550.000,520.500
0.182,-1.500,403.500,550.000,520.500
0.183,-1.000,404.000,550.500,521.000
0.184,-1.500,404.000,551.000,521.500
0.185,-2.000,404.000,551.500,522.000
0.186,-3.000,404.500,551.500,522.000
0.187,-2.500,405.000,552.000,522.500
0.188,-1.000,405.500,552.500,523.000
0.189,2.000,406.000,553.000,523.500
0.190,4.500,407.000,554.000,524.000
0.191,5.500,407.500,554.500,524.500
0.192,4.500,408.000,555.000,525.000
0.193,2.500,409.000,555.500,526.000
0.194,0.000,409.500,556.000,526.500
0.195,-1.500,410.000,557.000,527.500
0.196,-1.500,411.000,557.500,528.000
0.197,-1.000,411.500,558.500,529.000
0.198,-1.000,412.500,559.000,529.500
0.199,-2.500,412.500,559.500,529.500
0.200,-4.500,412.500,559.500,529.000
0.201,-6.000,412.500,559.000,528.500
0.202,-6.500,412.000,558.500,528.000
0.203,-5.500,411.500,558.000,527.500
0.204,-4.500,411.500,558.000,527.500
0.205,-4.000,412.000,558.000,528.000
0.206,-4.000,412.500,558.500,528.000
0.207,-4.500,412.500,559.000,528.500
0.208,-5.500,413.000,559.000,528.500
0.209,-6.500,413.000,559.500,528.500
0.210,-7.500,413.000,559.500,529.000
0.211,-9.000,413.000,559.500,529.000
0.212,-10.000,413.000,559.500,529.000
0.213,-10.500,413.000,560.000,529.000
0.214,-10.000,413.500,560.000,529.000
0.215,-8.500,413.500,560.000,529.000
0.216,-7.000,413.500,560.000,529.500
0.217,-5.500,414.000,560.000,529.500
0.218,-4.500,414.000,560.000,529.500
0.219,-4.500,414.000,560.000,530.000
0.220,-5.500,414.500,560.500,530.000
0.221,-6.000,415.000,561.000,530.500
0.222,-5.000,415.500,561.000,530.500
0.223,-3.000,415.500,561.500,531.000
0.224,-0.500,416.000,561.500,531.500
0.225,2.000,416.000,562.000,531.500
0.226,4.500,416.000,562.000,531.500
0.227,6.500,416.000,562.000,532.000
0.228,8.000,416.000,562.000,532.000
0.229,8.500,416.000,562.500,532.500
0.230,8.500,416.000,562.500,532.500
0.231,8.500,416.000,562.500,532.500
0.232,9.500,416.500,562.500,532.500
0.233,11.000,416.500,562.500,532.000
0.234,12.500,416.000,562.000,532.000
0.235,13.000,416.500,562.000,532.000
0.236,12.000,416.500,562.000,532.500
0.237,11.000,416.500,562.000,532.500
0.238,10.500,417.000,562.000,533.000
0.239,11.000,417.500,562.500,533.500
0.240,11.500,417.500,562.500,533.500
0.241,11.500,418.000,563.000,534.000
0.242,9.500,418.000,563.500,534.500
0.243,7.500,418.500,563.500,535.000
0.244,5.000,419.000,564.000,535.500
0.245,3.500,419.000,564.500,535.500
0.246,2.000,419.000,564.500,536.000
0.247,1.000,419.000,564.500,536.500
0.248,0.500,419.000,564.500,536.500
0.249,0.500,419.000,564.500,536.500
0.250,-0.500,419.000,564.500,536.500
0.251,-3.000,419.000,564.500,537.000
0.252,-5.500,419.500,565.000,537.000
0.253,-7.000,420.000,565.000,537.000
0.254,-7.000,420.500,565.500,537.000
0.255,-7.000,420.500,565.500,537.000
0.256,-7.000,421.000,565.000,537.000
0.257,-6.000,420.500,565.000,537.000
0.258,-4.500,420.500,565.000,537.000
0.259,-2.500,420.500,565.000,537.000
0.260,-1.000,420.500,565.000,537.000
0.261,-1.500,420.500,565.500,537.000
0.262,-3.000,420.500,565.500,537.500
0.263,-4.000,421.000,566.000,537.500
0.264,-4.500,421.000,566.000,537.500
0.265,-5.500,421.000,566.000,538.000
0.266,-6.500,421.000,565.500,538.000
0.267,-8.000,421.000,565.500,538.000
0.268,-8.500,421.000,565.500,538.000
0.269,-7.500,421.000,565.500,538.000
0.270,-5.500,421.000,565.500,538.000
0.271,-2.500,420.500,565.500,538.000
0.272,0.000,420.500,565.500,538.000
0.273,2.500,420.500,565.500,538.000
0.274,4.500,421.000,566.000,538.000
0.275,7.000,421.000,566.000,538.000
0.276,9.000,421.000,566.500,538.000
0.277,11.500,421.000,566.500,538.000
0.278,13.500,421.500,566.500,538.000
0.279,15.000,421.500,566.500,538.000
0.280,15.000,421.500,566.500,538.000
0.281,14.500,421.500,566.500,538.000
0.282,13.500,421.500,566.500,538.000
0.283,12.500,421.500,566.500,538.000
0.284,12.000,421.500,566.500,538.500
0.285,11.000,421.500,566.500,538.500
0.286,10.000,421.500,566.500,538.500
0.287,8.500,421.500,566.500,539.000
0.288,6.500,421.500,567.000,539.500
0.289,5.000,422.000,567.500,539.500
0.290,4.000,423.000,568.000,540.000
0.291,2.500,423.000,568.500,540.500
0.292,2.000,423.500,568.500,541.000
0.293,1.000,424.000,569.000,541.000
0.294,0.500,424.000,569.000,541.500
0.295,-0.500,424.000,569.000,541.500
0.296,-0.500,424.500,569.000,541.000
0.297,0.000,424.000,569.000,541.000
0.298,1.000,424.000,569.000,541.000
0.299,1.500,424.000,569.000,541.000
0.300,1.500,424.000,569.000,541.000
0.301,1.000,424.000,569.000,541.000
0.302,0.500,424.000,569.000,541.000
0.303,1.000,424.000,569.500,541.500
0.304,2.500,424.000,569.500,541.500
0.305,3.000,424.000,569.500,541.500
0.306,3.000,424.000,569.000,541.000
0.307,2.000,423.500,568.500,540.500
0.308,0.500,423.500,568.500,540.500
0.309,-0.500,423.500,568.500,540.500
0.310,-1.000,423.500,568.500,540.500
0.311,-0.500,423.500,569.000,540.500
0.312,1.000,423.500,569.000,540.500
0.313,2.500,423.500,569.500,540.500
0.314,4.500,423.500,569.500,540.500
0.315,6.000,423.500,569.500,540.500
0.316,7.000,423.500,569.000,540.000
0.317,7.000,423.500,569.000,540.000
0.318,5.500,423.500,569.000,540.000
0.319,3.000,423.500,569.000,540.000
0.320,1.000,423.500,568.500,540.500
0.321,-1.000,423.500,568.500,540.500
0.322,-2.500,423.500,569.000,541.000
0.323,-4.000,423.500,569.000,541.000
0.324,-4.000,423.500,568.500,541.000
0.325,-2.500,423.000,568.500,541.000
0.326,-1.500,423.000,568.000,540.500
0.327,-1.000,422.500,568.000,540.500
0.328,-1.500,422.500,568.000,540.500
0.329,-3.000,422.000,568.000,540.500
0.330,-5.000,422.000,568.000,540.500
0.331,-6.000,422.000,568.000,540.500
0.332,-6.500,421.500,568.000,540.500
0.333,-6.000,421.500,568.000,540.500
0.334,-5.000,421.000,568.000,540.500
0.335,-3.500,421.000,568.000,540.500
0.336,-1.500,421.500,568.000,540.500
0.337,1.000,421.500,568.000,540.500
0.338,3.000,422.000,568.500,541.000
0.339,5.000,422.000,568.500,541.000
0.340,7.000,422.500,568.500,541.500
0.341,8.000,422.500,568.500,541.500
0.342,7.500,422.500,568.500,542.000
0.343,5.500,422.500,568.500,542.000
0.344,3.000,422.500,569.000,542.500
0.345,0.500,422.500,568.500,542.000
0.346,-0.500,422.500,568.500,542.000
0.347,-0.500,422.000,568.000,541.500
0.348,0.000,421.500,567.500,541.500
0.349,0.000,421.500,567.500,541.000
0.350,-0.500,421.000,567.500,541.000
0.351,-0.500,421.000,567.500,541.000
0.352,1.000,421.000,567.500,540.500
0.353,2.500,421.000,567.500,540.500
0.354,3.500,421.000,567.500,540.000
0.355,4.000,421.000,567.000,540.000
0.356,4.500,421.000,567.000,539.500
0.357,4.500,421.000,567.000,539.500
0.358,4.500,421.000,567.500,539.500
0.359,5.000,421.500,567.500,539.500
0.360,5.000,421.500,568.000,539.500
0.361,5.000,421.500,568.000,540.000
0.362,5.000,421.500,568.000,540.000
0.363,5.000,421.500,568.000,540.000
0.364,4.500,421.000,567.500,540.500
0.365,4.500,420.500,567.500,540.000
0.366,4.000,420.500,567.000,540.000
0.367,3.500,420.000,567.000,540.000
0.368,2.500,420.000,566.500,540.000
0.369,2.000,419.500,566.500,540.500
0.370,2.000,419.500,566.500,540.500
0.371,2.500,419.000,566.500,540.500
0.372,3.000,419.000,566.500,540.500
0.373,4.500,419.000,566.500,540.000
0.374,6.000,418.500,566.500,540.000
0.375,8.000,418.500,566.500,539.500
0.376,9.000,418.500,566.000,539.500
0.377,9.500,418.500,566.000,539.000
0.378,9.500,419.000,566.000,539.000
0.379,10.000,419.000,566.000,539.000
0.380,11.000,419.500,566.000,539.500
0.381,12.500,419.500,566.000,539.500
0.382,13.000,420.000,566.500,539.500
0.383,12.500,420.000,567.000,540.000
0.384,10.500,420.500,567.000,540.000
0.385,7.500,421.000,567.500,540.500
0.386,5.000,421.000,568.000,540.500
0.387,3.000,421.000,568.000,540.500
0.388,2.000,421.000,568.000,541.000
0.389,1.500,421.000,568.000,541.000
0.390,1.000,421.000,568.000,541.500
0.391,0.500,421.000,568.000,541.500
0.392,0.000,421.000,568.500,541.500
0.393,0.500,421.000,568.500,541.500
0.394,1.000,420.500,568.500,541.500
0.395,2.500,420.500,568.000,541.500
0.396,4.000,420.500,568.000,541.500
0.397,5.000,420.500,568.000,541.500
0.398,5.500,420.500,567.500,541.500
0.399,5.000,420.500,567.500,541.500
0.400,3.500,421.000,568.000,542.000
0.401,1.000,421.000,568.000,542.500
0.402,-1.000,421.000,568.500,543.000
0.403,-2.000,421.000,568.500,543.000
0.404,-1.500,421.000,568.500,543.000
0.405,-1.000,420.500,568.000,543.000
0.406,-1.000,420.500,568.000,543.000
0.407,-1.500,420.000,568.000,543.500
0.408,-2.500,420.000,568.500,543.500
0.409,-2.500,420.000,568.500,544.000
0.410,-2.500,419.500,569.000,544.500
0.411,-2.500,419.500,569.000,545.000
0.412,-2.500,420.000,569.000,545.000
0.413,-2.500,420.000,569.500,545.500
0.414,-2.500,420.500,569.500,546.000
0.415,-2.000,420.500,569.500,546.000
0.416,-0.500,420.500,569.500,546.000
0.417,2.000,420.500,569.000,545.500
0.418,4.500,420.000,569.000,545.500
0.419,5.500,420.000,568.500,545.000
0.420,4.500,419.500,568.500,544.500
0.421,2.500,419.500,568.000,544.500
0.422,1.000,419.500,568.000,544.000
0.423,0.000,419.500,567.500,544.000
0.424,1.000,419.000,567.000,543.500
0.425,2.500,418.500,566.500,542.500
0.426,4.500,418.500,566.000,542.000
0.427,6.000,418.000,565.500,541.000
0.428,6.000,418.000,565.000,540.500
0.429,5.500,418.000,564.500,540.000
0.430,5.500,418.000,564.000,540.000
0.431,6.000,418.000,564.000,540.000
0.432,5.000,418.000,564.000,540.000
0.433,2.500,418.500,564.500,540.500
0.434,-1.000,419.500,565.500,541.500
0.435,-4.000,420.500,567.500,543.000
0.436,-5.000,422.500,569.500,544.500
0.437,-4.000,424.500,572.000,547.000
0.438,-2.000,427.000,574.500,549.000
0.439,1.500,428.500,576.500,551.000
0.440,4.000,429.500,577.500,552.500
0.441,6.000,430.000,578.500,553.500
0.442,7.500,430.000,578.500,553.500
0.443,8.500,429.500,578.000,553.500
0.444,10.000,428.500,577.000,553.000
0.445,10.500,427.500,576.000,552.000
0.446,11.500,427.000,575.500,551.500
0.447,13.000,426.000,574.500,551.000
0.448,14.000,425.500,574.500,550.500
0.449,14.500,425.500,574.000,550.000
0.450,13.500,425.000,573.500,550.000
0.451,12.000,425.000,573.500,550.000
0.452,11.000,425.000,573.500,549.500
0.453,10.000,425.000,573.500,549.500
0.454,9.500,425.000,573.500,549.500
0.455,9.500,425.500,573.500,549.500
0.456,9.000,425.500,573.500,550.000
0.457,9.500,426.000,574.000,550.000
0.458,10.000,426.000,574.500,550.500
0.459,10.500,426.500,574.500,550.500
0.460,10.500,426.500,575.000,551.000
0.461,10.500,427.000,575.500,551.000
0.462,10.000,427.000,575.500,551.500
0.463,9.000,427.500,576.000,551.500
0.464,8.000,428.000,576.500,552.000
0.465,7.000,428.000,577.000,552.000
0.466,6.500,428.500,577.000,552.000
0.467,6.000,428.500,577.000,552.000
0.468,6.500,428.000,577.000,552.000
0.469,7.500,428.500,577.000,552.500
0.470,7.500,428.500,577.000,553.000
0.471,7.500,429.000,577.000,553.500
0.472,8.000,429.500,577.500,553.500
0.473,9.000,429.500,577.500,554.000
0.474,9.500,429.500,578.000,554.000
0.475,9.500,429.500,578.000,554.000
0.476,9.000,430.000,578.500,554.000
0.477,8.000,430.000,578.500,553.500
0.478,8.000,430.000,578.000,553.500
0.479,8.000,429.500,578.000,553.500
0.480,8.000,429.500,578.000,553.500
0.481,7.500,430.000,578.000,553.500
0.482,6.500,430.000,578.000,553.500
0.483,5.000,430.000,578.500,554.000
0.484,4.000,430.500,578.500,554.000
0.485,4.500,430.500,579.000,554.500
0.486,6.500,430.500,579.000,554.500
0.487,8.500,430.500,579.000,554.500
0.488,9.000,430.000,579.000,554.500
0.489,7.000,429.500,578.500,554.500
0.490,4.500,429.500,578.500,554.500
0.491,2.000,429.000,578.000,554.000
0.492,0.500,429.000,578.000,554.000
0.493,-1.000,428.500,578.000,553.500
0.494,-1.500,428.500,578.000,553.500
0.495,-0.500,429.000,578.000,554.000
0.496,1.000,429.500,578.500,554.000
0.497,3.000,430.000,578.500,554.500
0.498,6.500,430.500,578.500,554.500
0.499,11.000,430.500,578.500,554.500
0.500,15.000,430.500,578.500,554.500
0.501,17.500,430.500,578.500,554.500
0.502,18.500,430.000,578.500,554.500
0.503,17.500,430.000,578.500,554.500
0.504,17.000,430.000,578.000,554.000
0.505,17.000,429.500,577.500,553.500
0.506,17.000,429.000,577.000,552.500
0.507,17.000,428.000,576.500,551.500
0.508,17.000,427.500,576.000,551.000
0.509,15.500,427.000,575.500,550.500
0.510,13.000,426.500,575.000,550.000
0.511,10.000,426.500,575.000,549.500
0.512,7.500,426.000,574.500,549.000
0.513,5.500,425.500,574.000,548.500
0.514,4.000,424.500,573.500,548.000
0.515,4.000,423.500,573.000,547.500
0.516,4.500,422.500,572.500,547.000
0.517,5.000,421.500,571.500,545.500
0.518,5.000,420.000,570.000,544.500
0.519,3.500,418.000,568.500,543.000
0.520,1.500,416.500,567.000,541.500
0.521,-1.500,415.000,565.500,541.000
0.522,-4.000,414.000,564.500,540.500
0.523,-4.500,413.000,564.000,541.000
0.524,-4.000,412.500,564.000,541.500
0.525,-2.500,412.000,564.000,542.000
0.526,-0.500,412.500,564.000,543.000
0.527,1.500,412.500,565.000,544.500
0.528,4.000,413.000,565.500,546.000
0.529,7.000,413.500,566.500,547.500
0.530,8.500,414.000,567.500,549.000
0.531,8.000,414.500,569.000,550.000
0.532,5.500,415.000,570.000,551.500
0.533,3.500,415.500,570.500,552.500
0.534,2.500,416.000,571.000,553.500
0.535,3.500,416.000,571.500,554.000
0.536,5.000,416.000,572.000,554.500
0.537,5.500,416.500,572.000,555.000
0.538,4.500,417.000,572.500,556.000
0.539,2.500,418.500,574.000,558.000
0.540,0.500,421.000,576.500,560.500
0.541,-1.500,424.500,580.000,564.000
0.542,-2.000,429.000,584.000,568.000
0.543,-1.500,434.000,588.500,572.000
0.544,-1.000,438.500,592.500,575.500
0.545,0.000,442.500,596.500,578.500
0.546,1.000,446.000,599.500,580.500
0.547,2.500,449.500,602.000,582.500
0.548,4.500,452.000,605.000,584.000
0.549,6.000,454.500,607.000,586.000
0.550,7.500,456.000,608.500,587.000
0.551,8.500,457.000,609.000,588.000
0.552,9.000,457.000,609.500,588.000
0.553,8.500,457.000,609.000,587.500
0.554,8.000,456.500,608.500,587.000
0.555,7.500,456.500,608.000,586.000
0.556,7.000,456.000,607.000,584.500
0.557,6.500,455.500,606.000,583.500
0.558,5.000,455.000,605.500,582.500
0.559,3.000,454.500,604.500,581.000
0.560,1.500,453.500,603.000,580.000
0.561,1.000,452.500,601.500,578.000
0.562,2.000,451.000,600.000,576.500
0.563,3.500,449.500,598.500,574.500
0.564,4.500,448.000,597.000,573.000
0.565,5.000,446.500,595.500,571.500
0.566,4.500,445.000,594.500,570.000
0.567,4.000,444.000,593.000,568.500
0.568,4.000,443.000,592.000,567.500
0.569,4.000,442.000,591.000,566.500
0.570,4.500,441.000,590.000,565.500
0.571,4.500,440.000,589.500,565.000
0.572,4.500,439.000,589.000,564.500
0.573,4.500,438.000,588.000,563.500
0.574,4.000,437.000,587.000,563.000
0.575,3.500,436.000,586.500,562.000
0.576,2.000,435.500,585.500,561.500
0.577,1.500,434.500,584.500,560.500
0.578,1.500,434.000,584.500,560.000
0.579,2.000,434.000,584.000,559.500
0.580,2.500,434.000,584.000,559.500
0.581,2.500,434.000,584.000,559.000
0.582,2.500,434.000,584.500,559.000
0.583,2.000,434.000,584.000,559.000
0.584,2.000,433.500,584.000,559.000
0.585,2.000,433.500,584.000,559.000
0.586,2.000,433.000,584.000,558.500
0.587,2.500,432.500,584.000,558.500
0.588,3.500,432.500,583.500,558.500
0.589,5.000,432.000,583.500,558.000
0.590,7.500,431.500,583.000,558.000
0.591,9.500,431.000,583.000,557.500
0.592,11.000,431.000,582.500,557.500
0.593,11.500,430.500,582.500,557.500
0.594,11.500,430.500,582.500,557.000
0.595,11.000,430.500,582.500,557.000
0.596,11.000,431.000,582.500,556.500
0.597,11.500,431.000,582.500,556.500
0.598,11.500,431.000,582.500,556.500
0.599,11.000,431.500,582.500,556.500
0.600,10.500,431.500,582.500,556.500
0.601,9.500,431.500,582.500,556.500
0.602,8.500,432.000,582.000,557.000
0.603,7.500,431.500,582.000,557.000
0.604,6.500,431.500,581.500,556.500
0.605,5.500,431.000,581.500,556.500
0.606,4.500,430.000,581.000,556.000
0.607,4.000,429.500,580.500,555.500
0.608,3.500,428.500,580.000,555.000
0.609,3.000,428.000,579.500,554.500
0.610,2.500,428.000,579.500,554.500
0.611,2.500,428.000,579.000,554.500
0.612,3.500,428.000,579.000,555.000
0.613,5.500,428.500,579.000,555.000
0.614,8.500,428.500,579.000,555.000
0.615,11.000,428.500,579.000,555.000
0.616,13.000,428.000,578.500,554.500
0.617,14.000,427.500,578.500,553.500
0.618,14.500,427.000,578.000,553.000
0.619,14.500,427.000,578.000,552.500
0.620,14.000,426.500,578.000,552.000
0.621,13.000,427.000,578.000,552.000
0.622,11.000,427.000,578.000,552.000
0.623,9.000,427.000,578.000,552.000
0.624,7.500,427.000,578.000,552.500
0.625,7.000,427.000,578.000,552.500
0.626,6.000,426.500,578.000,552.500
0.627,5.000,426.500,577.500,552.500
0.628,5.000,426.500,577.500,552.500
0.629,4.500,426.000,577.500,552.500
0.630,4.500,426.000,577.500,553.000
0.631,3.500,426.000,577.500,553.000
0.632,2.000,426.000,578.000,553.500
0.633,0.500,426.500,578.000,554.000
0.634,-2.000,426.500,578.500,554.500
0.635,-5.000,427.000,578.500,554.500
0.636,-7.000,427.500,579.000,554.500
0.637,-7.000,427.500,579.000,554.500
0.638,-6.000,427.500,579.000,554.500
0.639,-3.500,427.500,579.000,554.500
0.640,-1.500,427.000,579.000,554.500
0.641,0.000,427.000,578.500,555.000
0.642,0.500,426.500,578.500,555.000
0.643,0.500,426.500,578.500,555.000
0.644,-0.500,426.500,578.500,555.000
0.645,-1.500,426.500,578.500,554.500
0.646,-2.000,426.500,578.000,554.500
0.647,-1.500,426.500,578.000,554.500
0.648,0.000,426.000,578.000,554.500
0.649,1.500,426.000,578.000,554.500
0.650,2.000,426.000,578.000,554.500
0.651,1.000,426.000,578.000,555.000
0.652,-1.000,426.000,578.000,555.000
0.653,-2.500,426.000,578.000,555.000
0.654,-3.000,426.000,578.000,555.000
0.655,-2.500,426.000,577.500,555.000
0.656,-1.000,426.000,577.500,555.000
0.657,0.000,426.000,577.500,555.000
0.658,1.000,426.000,577.500,555.000
0.659,2.000,426.000,577.500,555.000
0.660,3.500,426.000,577.500,555.000
0.661,4.500,426.500,577.500,555.000
0.662,4.000,426.000,577.500,555.000
0.663,3.000,426.000,577.500,555.000
0.664,2.000,426.000,577.500,555.000
0.665,1.500,426.000,577.500,555.000
0.666,1.000,425.500,577.500,555.000
0.667,0.500,425.500,577.500,555.000
0.668,0.000,425.500,577.500,555.500
0.669,-0.500,426.000,577.500,555.500
0.670,-1.000,426.000,578.500,556.000
0.671,-1.500,426.500,579.000,556.500
0.672,-3.000,427.500,579.500,557.000
0.673,-4.000,428.000,579.500,557.500
0.674,-4.500,428.000,579.500,557.500
0.675,-5.000,428.000,579.500,557.500
0.676,-6.000,428.000,579.500,557.000
0.677,-7.000,428.000,579.500,557.000
0.678,-8.000,427.500,579.000,556.500
0.679,-9.000,427.000,579.000,556.500
0.680,-9.500,427.000,579.000,556.500
0.681,-10.000,426.500,579.000,556.500
0.682,-10.000,426.500,578.500,556.500
0.683,-9.500,426.000,578.500,556.000
0.684,-8.500,426.000,578.000,556.000
0.685,-7.000,425.500,577.500,555.500
0.686,-5.000,425.000,577.000,555.000
0.687,-3.000,424.500,577.000,554.500
0.688,-1.000,424.500,577.000,554.500
0.689,-0.500,424.000,577.000,554.500
0.690,-1.000,424.000,577.000,554.500
0.691,-3.500,424.000,577.000,554.500
0.692,-6.000,424.000,577.000,554.500
0.693,-7.000,423.500,576.500,554.000
0.694,-6.000,423.000,576.000,554.000
0.695,-4.000,423.000,575.500,553.500
0.696,-1.500,422.500,575.000,552.500
0.697,0.000,422.000,574.500,552.000
0.698,0.000,421.000,574.000,551.500
0.699,-1.500,420.500,573.500,551.500
0.700,-3.000,420.500,573.500,551.000
0.701,-4.000,420.000,573.000,551.000
0.702,-4.000,420.000,573.000,551.500
0.703,-2.500,420.000,573.000,551.500
0.704,-0.500,420.000,573.000,551.500
0.705,1.000,419.500,572.500,551.000
0.706,2.500,419.000,572.500,551.000
0.707,3.500,418.500,572.000,551.000
0.708,4.500,418.500,572.000,550.500
0.709,6.000,418.500,572.000,550.500
0.710,7.000,418.000,572.000,550.500
0.711,6.500,418.000,572.000,550.500
0.712,5.500,417.500,572.000,550.500
0.713,3.500,417.500,572.500,551.000
0.714,1.000,418.000,573.000,551.500
0.715,-2.000,418.500,573.500,552.000
0.716,-4.500,419.500,573.500,552.500
0.717,-5.000,419.500,574.000,552.500
0.718,-4.000,419.500,574.000,552.500
0.719,-3.000,419.500,574.000,552.500
0.720,-2.000,419.500,574.000,552.500
0.721,-1.500,419.500,574.000,552.500
0.722,-0.500,419.500,574.000,553.000
0.723,0.500,419.000,574.000,552.500
0.724,1.000,419.000,573.500,552.500
0.725,2.000,418.500,573.000,552.000
0.726,2.500,418.000,573.000,551.500
0.727,3.000,417.500,572.500,551.000
0.728,2.500,417.500,572.500,551.000
0.729,1.500,417.000,572.000,551.000
0.730,0.000,416.500,572.000,551.000
0.731,-2.000,416.000,572.000,551.000
0.732,-3.500,416.000,572.000,551.500
0.733,-5.000,416.000,571.500,551.500
0.734,-6.000,415.500,571.500,551.500
0.735,-6.500,416.000,571.500,551.000
0.736,-7.000,416.000,571.500,551.500
0.737,-8.000,416.000,571.500,551.500
0.738,-9.000,416.000,571.500,551.500
0.739,-9.000,416.500,571.500,551.500
0.740,-7.500,416.500,571.500,551.500
0.741,-5.000,416.000,571.500,551.500
0.742,-2.500,415.500,571.500,551.000
0.743,-1.500,415.000,571.500,551.000
0.744,-1.500,414.500,571.000,551.000
0.745,-2.000,414.000,570.500,550.500
0.746,-1.500,413.000,570.000,550.000
0.747,0.000,412.000,569.000,549.500
0.748,1.500,411.500,568.000,549.000
0.749,2.500,411.000,567.500,548.500
0.750,2.500,411.000,567.000,548.500
0.751,1.500,410.500,567.000,548.500
0.752,-0.500,410.500,567.000,548.500
0.753,-2.500,410.500,567.000,548.500
0.754,-4.000,410.500,567.000,548.500
0.755,-6.000,410.500,567.000,548.500
0.756,-8.000,410.500,567.000,548.500
0.757,-10.000,410.500,567.000,548.500
0.758,-11.000,410.500,567.000,548.500
0.759,-11.500,410.500,566.500,548.500
0.760,-11.000,410.500,566.500,548.500
0.761,-10.000,410.500,566.000,548.000
0.762,-9.500,410.500,566.000,548.000
0.763,-9.000,410.500,566.000,548.000
0.764,-8.500,410.500,566.000,548.000
0.765,-8.000,410.500,565.500,548.000
0.766,-6.500,410.000,565.500,548.000
0.767,-4.000,410.000,565.500,548.000
0.768,-2.000,410.000,565.500,548.000
0.769,-2.000,410.500,565.500,548.000
0.770,-3.000,410.500,565.000,548.000
0.771,-4.500,410.500,565.000,547.500
0.772,-6.000,410.500,565.000,547.500
0.773,-7.000,410.500,565.000,547.000
0.774,-9.000,410.500,564.500,547.000
0.775,-11.500,410.500,564.500,546.500
0.776,-12.500,410.000,564.000,546.000
0.777,-12.000,409.500,563.500,545.500
0.778,-10.000,409.500,563.000,545.000
0.779,-8.500,409.000,563.000,544.500
0.780,-8.000,409.500,563.000,544.500
0.781,-8.500,409.500,563.000,545.000
0.782,-8.500,409.500,563.000,545.000
0.783,-9.000,409.500,563.000,545.000
0.784,-9.000,409.500,563.000,545.000
0.785,-8.500,409.000,563.000,544.500
0.786,-7.000,409.000,562.500,544.500
0.787,-4.500,408.500,562.500,544.500
0.788,-1.500,408.000,562.000,544.000
0.789,1.500,407.500,562.000,544.000
0.790,4.000,407.000,561.500,543.500
0.791,6.000,406.500,561.000,543.500
0.792,8.000,406.000,560.500,543.500
0.793,9.000,406.000,560.500,543.500
0.794,8.500,406.000,560.000,543.500
0.795,6.500,406.000,560.000,543.500
0.796,4.000,406.500,560.500,543.500
0.797,1.500,407.000,560.500,543.500
0.798,0.000,407.500,561.000,544.000
0.799,-1.000,407.500,561.000,544.000
0.800,-0.500,408.000,561.500,544.500
0.801,0.000,408.000,561.500,544.500
0.802,1.000,408.500,561.500,544.500
0.803,1.500,408.500,562.000,544.500
0.804,1.500,408.500,562.000,544.500
0.805,1.500,409.000,562.500,545.000
0.806,0.500,409.000,562.500,545.000
0.807,-1.500,408.500,562.500,545.000
0.808,-4.500,408.500,562.500,545.000
0.809,-7.000,408.000,562.500,545.000
0.810,-10.000,407.500,562.500,544.500
0.811,-12.000,407.500,562.000,544.500
0.812,-13.000,407.500,561.500,544.500
0.813,-13.500,407.500,561.000,544.500
0.814,-13.000,407.500,560.500,544.000
0.815,-12.500,407.500,560.500,543.500
0.816,-12.500,407.000,560.000,543.000
0.817,-11.500,407.000,560.000,543.000
0.818,-10.500,407.000,559.500,542.500
0.819,-10.500,406.500,559.500,542.500
0.820,-12.000,406.500,559.500,542.500
0.821,-15.000,406.500,560.000,543.000
0.822,-17.500,406.500,560.000,543.000
0.823,-18.500,406.500,560.500,543.000
0.824,-18.000,406.500,560.500,543.500
0.825,-16.500,406.500,561.000,543.500
0.826,-14.500,406.500,561.000,544.000
0.827,-12.000,406.500,561.000,544.500
0.828,-8.500,406.000,560.500,544.500
0.829,-6.000,406.000,560.500,545.000
0.830,-5.000,405.500,560.500,545.000
0.831,-5.000,405.500,560.500,545.000
0.832,-6.500,405.500,561.000,545.000
0.833,-8.000,405.500,561.000,545.000
0.834,-9.500,405.500,561.000,545.000
0.835,-10.500,405.500,561.000,545.000
0.836,-11.500,405.000,560.500,544.500
0.837,-12.000,404.500,560.500,543.500
0.838,-13.000,404.000,560.000,543.000
0.839,-13.500,403.500,559.000,542.500
0.840,-13.000,403.000,558.500,541.500
0.841,-11.000,402.500,557.500,541.000
0.842,-9.000,401.500,557.000,540.000
0.843,-7.500,401.000,556.000,539.000
0.844,-7.000,400.500,555.000,538.000
0.845,-7.500,399.500,553.500,536.500
0.846,-9.500,399.000,552.500,535.500
0.847,-11.000,398.000,551.500,534.500
0.848,-13.000,397.500,550.500,533.500
0.849,-14.000,397.500,550.000,533.000
0.850,-14.000,397.500,550.000,533.000
0.851,-13.500,398.000,550.500,533.500
0.852,-12.500,398.500,551.000,534.000
0.853,-12.500,399.000,552.000,535.000
0.854,-13.500,400.500,553.500,536.500
0.855,-14.000,402.000,555.500,538.500
0.856,-14.000,403.500,557.500,540.500
0.857,-13.000,405.500,559.500,542.500
0.858,-12.500,406.500,561.000,544.000
0.859,-13.000,407.500,562.000,545.000
0.860,-13.000,408.000,562.500,545.500
0.861,-13.000,407.500,562.500,545.500
0.862,-11.500,407.000,562.000,544.500
0.863,-9.500,406.000,561.000,543.500
0.864,-8.000,405.000,560.000,542.500
0.865,-7.000,403.500,559.000,541.500
0.866,-7.000,402.500,558.000,540.500
0.867,-6.500,402.000,557.500,540.500
0.868,-6.000,401.500,557.000,540.500
0.869,-4.500,401.500,556.500,540.500
0.870,-3.500,401.500,556.000,540.500
0.871,-3.000,401.500,556.000,540.500
0.872,-4.000,402.000,555.500,540.500
0.873,-5.000,402.000,556.000,540.500
0.874,-5.000,402.000,556.000,540.500
0.875,-5.000,402.000,556.000,541.000
0.876,-4.500,402.000,556.500,541.000
0.877,-4.000,402.000,556.500,541.500
0.878,-4.500,402.000,556.500,541.500
0.879,-5.000,402.000,556.500,541.500
0.880,-6.000,402.000,556.000,541.000
0.881,-7.500,402.000,556.000,541.000
0.882,-8.500,402.000,556.000,541.000
0.883,-9.000,401.500,556.000,540.500
0.884,-8.000,401.500,556.000,540.500
0.885,-7.000,401.000,556.000,540.500
0.886,-5.500,401.000,556.000,541.000
0.887,-5.000,401.000,556.000,541.000
0.888,-5.500,401.000,556.000,541.000
0.889,-7.500,401.000,556.000,541.500
0.890,-10.500,401.000,556.000,542.000
0.891,-14.000,401.000,556.000,542.000
0.892,-16.500,401.000,556.000,542.000
0.893,-16.500,401.000,556.000,542.000
0.894,-14.500,401.000,556.000,542.000
0.895,-11.500,401.500,556.000,542.000
0.896,-9.000,401.500,556.000,542.000
0.897,-7.500,401.500,556.000,542.000
0.898,-7.500,401.000,556.000,542.000
0.899,-8.500,401.000,556.000,542.000
0.900,-9.500,401.000,556.000,542.000
0.901,-10.000,401.000,556.000,542.000
0.902,-10.000,401.000,556.000,542.000
0.903,-10.500,401.000,555.500,542.000
0.904,-10.500,400.500,555.000,541.500
0.905,-10.500,400.500,554.500,541.500
0.906,-10.000,400.000,554.500,541.500
0.907,-9.000,399.500,554.500,541.500
0.908,-6.500,399.000,554.000,541.000
0.909,-5.000,398.500,554.000,541.000
0.910,-5.000,397.500,553.500,541.000
0.911,-6.000,397.500,553.500,540.500
0.912,-7.500,397.000,553.000,540.000
0.913,-9.000,397.000,553.000,540.000
0.914,-10.000,396.500,552.500,539.500
0.915,-10.500,396.500,552.500,539.500
0.916,-10.000,396.500,552.500,539.500
0.917,-9.500,396.500,552.000,539.500
0.918,-9.000,396.500,552.000,539.500
0.919,-8.000,396.000,552.000,539.000
0.920,-7.000,396.000,552.000,539.000
0.921,-5.000,396.000,552.000,539.000
0.922,-3.000,395.500,552.000,539.500
0.923,-2.000,395.500,552.000,539.500
0.924,-3.000,396.000,552.500,539.500
0.925,-4.500,396.000,552.500,540.000
0.926,-6.500,396.000,552.500,540.000
0.927,-7.500,396.500,553.000,540.500
0.928,-6.500,396.500,552.500,540.500
0.929,-5.000,396.000,552.500,540.000
0.930,-3.500,396.000,552.000,540.000
0.931,-3.500,395.500,551.500,539.500
0.932,-6.500,395.500,551.500,539.000
0.933,-10.000,395.000,551.000,539.000
0.934,-13.000,395.000,550.500,538.500
0.935,-14.500,394.500,550.500,538.000
0.936,-14.500,394.000,550.000,537.500
0.937,-13.500,394.000,549.500,537.500
0.938,-11.500,393.500,549.000,537.000
0.939,-8.500,393.500,549.000,537.000
0.940,-6.500,393.500,549.000,537.000
0.941,-5.500,393.500,549.500,537.000
0.942,-5.500,393.500,549.500,537.000
0.943,-5.000,393.500,549.500,537.500
0.944,-3.500,393.000,549.500,537.000
0.945,-1.500,393.000,549.500,537.000
0.946,-0.500,392.500,549.000,537.000
0.947,-0.500,392.500,549.000,536.500
0.948,-1.000,392.000,548.500,536.500
0.949,-2.000,392.000,548.500,536.500
0.950,-2.500,392.000,548.000,536.000
0.951,-1.500,391.500,547.500,535.500
0.952,1.000,391.000,547.000,535.000
0.953,2.500,390.500,546.500,534.500
0.954,2.500,390.000,546.500,534.500
0.955,1.500,389.500,546.000,534.500
0.956,0.500,389.500,546.000,534.500
0.957,-0.500,390.000,546.000,534.500
0.958,-1.500,390.000,546.000,535.000
0.959,-2.500,389.500,546.000,535.000
0.960,-3.500,389.500,546.000,535.000
0.961,-4.000,389.500,545.500,535.000
0.962,-4.500,389.000,545.500,534.500
0.963,-4.500,389.000,545.500,534.500
0.964,-4.500,389.000,545.500,534.500
0.965,-4.000,388.500,545.500,535.000
0.966,-3.000,388.500,545.500,535.000
0.967,-1.500,388.500,545.500,535.000
0.968,-1.000,388.000,545.500,535.000
0.969,0.000,388.000,545.500,535.000
0.970,1.000,388.000,545.000,535.000
0.971,2.000,387.500,545.000,534.500
0.972,4.000,387.500,545.000,534.500
0.973,6.000,387.500,544.500,534.000
0.974,7.500,387.500,544.500,534.000
0.975,8.000,387.500,544.000,533.500
0.976,7.000,387.500,544.000,533.500
0.977,5.500,387.500,544.000,534.000
0.978,3.500,387.500,544.000,534.000
0.979,1.000,387.500,544.000,534.000
0.980,-2.000,387.500,544.000,534.000
0.981,-4.500,387.000,544.000,534.000
0.982,-6.500,387.000,544.000,533.500
0.983,-7.500,387.000,544.000,533.500
0.984,-8.000,386.500,544.000,533.000
0.985,-7.500,386.500,544.000,533.000
0.986,-7.000,386.000,544.000,533.000
0.987,-6.000,386.000,543.500,533.000
0.988,-5.500,385.500,543.000,532.500
0.989,-6.000,384.500,542.500,532.000
0.990,-8.500,384.500,541.500,532.000
0.991,-12.000,384.000,541.500,531.500
0.992,-15.000,383.500,541.000,531.500
0.993,-16.000,383.500,541.000,531.500
0.994,-14.500,383.500,541.000,531.500
0.995,-12.000,383.000,540.500,531.500
0.996,-9.000,383.000,540.500,531.000
0.997,-6.000,382.500,540.000,531.000
0.998,-3.500,382.500,540.000,531.000
0.999,-2.000,382.500,540.000,531.000
1.000,-1.500,382.500,540.000,531.500
1.001,-1.500,382.000,540.000,531.500
1.002,-1.500,382.000,540.000,532.000
1.003,-1.000,382.000,540.000,532.000
1.004,-1.000,382.000,540.000,532.500
1.005,-1.000,382.000,540.000,532.500
1.006,-1.000,381.500,540.000,533.000
1.007,0.000,381.500,540.000,533.000
1.008,0.500,381.500,539.500,533.000
1.009,0.000,381.000,539.500,533.500
1.010,-2.000,381.000,539.500,533.500
1.011,-4.000,381.000,539.500,533.500
1.012,-5.000,381.000,539.500,533.500
1.013,-5.000,381.500,539.000,533.500
1.014,-4.000,381.500,539.000,533.500
1.015,-4.000,381.500,539.000,534.000
1.016,-4.000,381.500,539.000,534.500
1.017,-4.000,382.000,539.500,535.000
1.018,-4.000,382.000,539.500,535.500
1.019,-4.000,382.500,540.000,536.000
1.020,-3.500,382.500,540.000,536.500
1.021,-3.500,383.000,540.500,536.500
1.022,-3.500,383.000,540.500,537.000
1.023,-3.500,382.500,540.500,537.000
1.024,-3.000,382.500,540.500,537.000
1.025,-2.500,382.000,540.500,537.000
1.026,-2.000,381.500,540.500,537.000
1.027,-2.000,381.500,540.500,537.000
1.028,-2.000,381.500,540.500,537.000
1.029,-2.000,381.500,540.500,537.500
1.030,-2.500,381.500,540.500,538.000
1.031,-3.000,382.000,541.000,538.000
1.032,-4.000,382.000,541.000,538.500
1.033,-4.500,382.000,541.000,538.500
1.034,-5.500,382.000,541.000,538.500
1.035,-5.500,382.000,541.000,538.000
1.036,-5.500,382.000,540.500,537.500
1.037,-6.000,382.000,540.500,537.500
1.038,-7.000,382.000,540.500,537.000
1.039,-7.500,382.000,540.500,537.000
1.040,-8.000,382.000,540.500,537.000
1.041,-9.000,382.000,540.500,537.000
1.042,-10.000,381.500,540.000,537.000
1.043,-11.000,381.500,540.000,537.000
1.044,-11.500,381.000,540.000,537.000
1.045,-11.500,381.000,540.000,537.000
1.046,-11.000,380.500,540.000,537.500
1.047,-11.000,380.500,540.000,537.500
1.048,-11.500,380.500,540.000,537.500
1.049,-11.500,380.000,540.000,537.500
1.050,-11.500,380.000,540.000,537.500
1.051,-11.000,380.000,540.000,537.500
1.052,-11.000,380.000,539.500,537.500
1.053,-11.000,380.000,539.500,537.000
1.054,-10.500,380.500,539.500,537.000
1.055,-9.500,380.500,539.500,536.500
1.056,-8.500,381.000,539.500,536.500
1.057,-7.000,381.000,539.500,536.500
1.058,-6.000,381.000,539.500,536.500
1.059,-5.000,381.500,539.500,536.500
1.060,-3.500,381.500,539.500,536.500
1.061,-1.500,381.500,539.500,537.000
1.062,1.000,381.500,540.000,537.000
1.063,2.500,381.500,540.500,537.500
1.064,3.500,381.500,540.500,538.000
1.065,3.500,381.500,540.500,538.000
1.066,3.000,381.500,540.500,538.000
1.067,2.000,381.000,540.000,537.500
1.068,1.000,380.500,539.500,537.000
1.069,-1.500,380.500,539.500,537.000
1.070,-4.000,380.000,539.500,537.000
1.071,-6.500,380.000,539.500,537.500
1.072,-8.500,380.500,539.500,537.500
1.073,-10.000,380.500,539.500,538.000
1.074,-10.500,380.500,540.000,538.000
1.075,-9.000,380.500,540.000,538.000
1.076,-7.000,380.500,540.000,538.000
1.077,-5.000,381.000,540.500,538.000
1.078,-3.500,381.000,540.500,538.000
1.079,-2.000,381.000,540.000,538.500
1.080,-1.000,381.000,540.000,538.500
1.081,-0.500,381.000,540.000,538.500
1.082,-0.500,381.000,539.500,538.500
1.083,0.500,381.000,539.500,538.000
1.084,3.000,381.000,539.000,537.500
1.085,6.500,380.500,539.000,537.000
1.086,9.000,380.500,539.000,537.000
1.087,9.500,380.000,539.000,537.000
1.088,9.500,380.000,539.500,537.000
1.089,9.000,380.000,539.500,537.500
1.090,9.000,380.000,539.500,538.000
1.091,8.500,380.500,539.500,538.000
1.092,8.500,380.500,539.000,538.500
1.093,8.500,380.500,539.000,538.500
1.094,9.000,380.500,539.000,538.500
1.095,9.500,381.000,539.000,538.500
1.096,9.500,381.000,539.000,539.000
1.097,9.500,381.000,539.500,539.000
1.098,8.500,381.500,539.500,539.500
1.099,7.500,382.000,539.500,539.500
1.100,5.000,382.000,539.500,539.500
1.101,2.500,382.000,539.000,539.000
1.102,-0.500,382.000,539.000,538.500
1.103,-2.000,381.500,538.500,538.000
1.104,-2.500,381.000,538.000,537.500
1.105,-1.500,380.500,537.000,537.000
1.106,0.500,379.500,536.500,536.500
1.107,1.000,378.500,535.500,536.000
1.108,0.500,377.500,535.000,535.000
1.109,-0.500,376.500,534.000,534.500
1.110,-2.000,375.500,533.000,533.500
1.111,-2.500,374.500,532.000,532.500
1.112,-1.500,373.500,531.000,532.000
1.113,0.000,373.000,530.000,531.000
1.114,1.000,372.000,529.000,530.500
1.115,0.500,371.000,528.000,530.000
1.116,-1.000,369.500,527.000,529.000
1.117,-2.000,368.500,525.500,528.500
1.118,-2.500,367.000,524.500,527.500
1.119,-2.500,365.500,523.000,526.500
1.120,-3.000,364.500,522.000,525.500
1.121,-4.000,363.000,521.000,524.500
1.122,-5.500,362.000,520.000,524.000
1.123,-7.500,361.000,520.000,524.000
1.124,-8.500,360.500,520.000,525.000
1.125,-9.000,360.500,520.500,526.000
1.126,-8.500,360.500,521.500,527.000
1.127,-7.500,361.000,522.000,528.500
1.128,-6.000,361.500,523.000,530.500
1.129,-4.000,362.500,524.000,532.000
1.130,-1.500,363.000,525.000,533.500
1.131,1.500,363.000,526.000,534.500
1.132,4.000,363.500,526.500,535.500
1.133,6.500,363.500,527.000,536.500
1.134,7.000,363.500,527.500,537.000
1.135,5.500,363.500,527.500,538.000
1.136,3.500,364.000,528.500,538.500
1.137,1.500,365.500,530.000,540.000
1.138,1.000,367.500,532.000,542.000
1.139,1.000,370.500,535.000,545.000
1.140,1.500,375.000,539.500,548.500
1.141,1.000,380.000,544.000,553.000
1.142,1.000,385.000,549.000,557.000
1.143,0.500,390.000,553.500,561.000
1.144,0.500,395.000,557.500,564.500
1.145,-0.500,399.000,561.000,567.500
1.146,-0.500,402.500,564.000,569.500
1.147,-1.000,405.500,566.000,571.500
1.148,-1.500,407.500,568.000,573.000
1.149,-2.000,408.500,569.000,573.500
1.150,-2.500,409.000,569.500,573.500
1.151,-3.500,409.000,569.500,573.000
1.152,-5.000,408.500,569.000,572.500
1.153,-6.500,407.500,568.000,571.500
1.154,-8.500,407.000,567.500,570.500
1.155,-10.000,406.500,566.000,569.000
1.156,-10.500,405.500,565.000,567.500
1.157,-9.500,404.500,564.000,566.000
1.158,-7.500,404.000,562.500,564.500
1.159,-6.500,403.000,561.500,562.500
1.160,-5.500,401.500,559.500,560.500
1.161,-5.500,399.500,557.500,558.500
1.162,-5.500,397.500,555.000,556.000
1.163,-6.000,395.500,553.000,553.500
1.164,-6.500,393.500,551.000,551.500
1.165,-7.000,392.000,549.000,549.500
1.166,-8.500,390.500,547.500,548.500
1.167,-10.000,389.500,546.500,547.000
1.168,-11.500,388.500,545.500,546.000
1.169,-11.500,387.000,544.500,545.000
1.170,-10.000,386.000,543.500,543.500
1.171,-7.500,385.000,542.500,542.500
1.172,-5.500,384.000,542.000,541.500
1.173,-5.000,383.500,541.500,541.000
1.174,-5.000,383.000,541.000,540.500
1.175,-6.000,383.000,540.500,540.000
1.176,-6.000,383.000,540.000,539.500
1.177,-6.000,383.000,540.000,539.500
1.178,-6.000,383.000,539.500,539.500
1.179,-6.000,383.000,539.500,539.500
1.180,-5.500,383.000,539.500,539.500
1.181,-4.000,383.000,539.500,539.500
1.182,-1.000,383.000,539.500,539.500
1.183,2.500,382.500,539.500,539.000
1.184,4.500,382.000,539.000,539.000
1.185,5.000,382.000,539.000,539.000
1.186,4.000,382.000,539.000,539.000
1.187,3.500,382.000,539.000,539.000
1.188,4.000,382.000,539.000,539.000
1.189,5.500,382.000,539.000,539.000
1.190,6.500,381.500,539.000,539.000
1.191,7.000,381.500,539.000,539.000
1.192,6.000,381.500,539.000,539.000
1.193,3.000,381.500,539.500,539.500
1.194,-0.500,382.000,539.500,539.500
1.195,-3.500,382.000,540.000,539.500
1.196,-5.500,382.000,540.000,539.500
1.197,-6.500,382.000,540.000,540.000
1.198,-7.000,382.500,540.500,540.000
1.199,-6.500,383.000,540.500,540.500
1.200,-6.500,383.500,541.000,540.500
1.201,-6.500,384.000,541.500,541.000
1.202,-7.000,384.000,542.000,541.000
1.203,-7.500,384.500,542.000,541.500
1.204,-8.500,384.500,542.500,541.000
1.205,-9.500,384.500,542.000,541.000
1.206,-10.500,384.000,542.000,540.500
1.207,-12.000,383.500,541.500,540.500
1.208,-13.000,383.500,541.500,540.500
1.209,-13.500,383.000,541.500,540.000
1.210,-13.000,382.500,541.000,540.000
1.211,-12.500,382.500,541.000,540.000
1.212,-12.000,383.000,541.500,540.000
1.213,-12.500,383.500,541.500,540.000
1.214,-13.000,383.500,542.000,540.000
1.215,-13.000,384.000,542.000,540.000
1.216,-11.500,384.000,542.000,539.500
1.217,-10.500,383.500,541.500,539.500
1.218,-10.000,383.000,540.500,539.000
1.219,-10.500,382.500,540.500,538.500
1.220,-11.500,382.500,540.000,538.500
1.221,-11.500,382.500,540.000,538.000
1.222,-10.500,383.000,540.000,538.000
1.223,-10.000,383.000,539.500,537.500
1.224,-10.000,382.500,539.500,537.500
1.225,-11.000,382.500,539.000,537.500
1.226,-12.500,382.500,539.000,537.500
1.227,-14.500,382.000,539.000,537.500
1.228,-16.500,381.500,539.000,537.000
1.229,-16.500,381.500,539.000,537.000
1.230,-15.000,381.000,539.000,537.000
1.231,-13.500,381.000,538.500,537.000
1.232,-11.500,381.000,538.500,537.000
1.233,-10.000,381.000,538.500,537.500
1.234,-9.000,381.500,538.500,537.500
1.235,-8.500,381.500,538.500,537.500
1.236,-9.000,381.500,539.000,537.500
1.237,-9.500,382.000,539.000,537.500
1.238,-10.000,382.500,539.500,537.500
1.239,-10.500,382.500,539.500,537.500
1.240,-10.000,382.500,539.500,537.500
1.241,-9.000,382.500,539.000,537.000
1.242,-8.000,382.500,539.000,536.500
1.243,-8.000,382.500,539.000,536.500
1.244,-9.000,382.500,539.000,536.500
1.245,-10.500,382.500,539.000,536.500
1.246,-11.500,382.500,539.000,536.500
1.247,-12.000,383.000,539.500,536.500
1.248,-11.500,383.500,540.000,537.000
1.249,-11.000,384.000,541.000,537.500
1.250,-10.000,384.500,541.500,538.000
1.251,-8.500,385.000,542.500,538.500
1.252,-6.500,385.000,543.000,539.500
1.253,-5.000,385.000,543.500,540.000
1.254,-4.500,385.000,543.500,540.500
1.255,-5.000,385.500,543.500,540.500
1.256,-6.000,385.500,543.500,540.500
1.257,-7.000,385.500,543.000,540.500
1.258,-8.000,385.500,542.500,540.500
1.259,-8.000,385.500,542.500,540.000
1.260,-7.500,385.000,542.000,539.500
1.261,-7.500,384.500,541.000,539.000
1.262,-8.000,384.000,540.500,538.500
1.263,-9.000,383.500,540.000,538.000
1.264,-11.500,383.500,540.000,538.000
1.265,-14.500,383.000,539.500,537.500
1.266,-16.000,382.500,539.000,537.000
1.267,-15.500,381.500,538.500,536.000
1.268,-14.000,381.000,537.500,535.000
1.269,-12.000,380.500,536.500,534.000
1.270,-9.500,380.000,535.500,532.500
1.271,-8.000,379.500,534.500,531.500
1.272,-8.000,379.000,533.500,530.000
1.273,-9.500,378.500,532.500,529.000
1.274,-11.500,378.000,532.000,528.500
1.275,-13.000,378.000,532.000,528.000
1.276,-14.000,378.000,532.000,528.500
1.277,-15.500,378.500,533.000,529.000
1.278,-16.500,379.500,534.000,530.000
1.279,-17.000,380.500,535.500,531.500
1.280,-17.000,382.000,537.500,533.000
1.281,-17.000,383.500,539.500,535.000
1.282,-17.000,385.000,541.500,537.000
1.283,-17.000,386.000,543.000,538.500
1.284,-16.000,386.500,544.000,539.000
1.285,-14.000,386.500,544.500,539.500
1.286,-12.000,386.000,544.500,539.000
1.287,-9.500,385.500,544.000,539.000
1.288,-8.000,384.500,543.000,538.500
1.289,-8.000,384.000,542.500,538.000
1.290,-8.000,383.500,542.000,537.500
1.291,-9.500,383.000,541.500,537.000
1.292,-11.000,383.000,541.000,537.000
1.293,-13.500,383.000,541.000,536.500
1.294,-16.000,382.500,541.000,536.500
1.295,-18.500,382.500,541.000,536.500
1.296,-20.000,382.500,541.000,536.000
1.297,-20.500,382.500,541.000,536.000
1.298,-20.500,382.500,541.000,535.500
1.299,-21.000,382.500,541.000,535.500
1.300,-21.000,382.500,540.500,535.500
1.301,-21.000,382.500,540.500,535.500
1.302,-20.000,382.500,540.500,535.000
1.303,-19.500,382.000,540.500,535.000
1.304,-19.000,382.000,540.500,535.000
1.305,-18.500,381.500,540.500,535.000
1.306,-18.000,381.500,540.500,535.000
1.307,-18.000,381.500,540.500,535.500
1.308,-17.500,381.000,540.500,535.500
1.309,-17.000,381.000,540.500,535.500
1.310,-16.500,381.000,540.500,536.000
1.311,-16.000,381.000,541.000,536.000
1.312,-17.000,381.500,541.000,536.000
1.313,-18.500,381.500,541.000,536.500
1.314,-20.500,381.500,541.500,536.500
1.315,-22.000,382.000,541.500,536.500
1.316,-23.000,382.000,541.500,536.500
1.317,-23.500,382.000,541.500,536.500
1.318,-24.000,382.000,541.500,536.500
1.319,-24.000,382.000,541.500,536.500
1.320,-24.000,382.000,541.500,536.500
1.321,-23.500,382.000,541.500,536.500
1.322,-22.500,381.500,541.500,536.500
1.323,-21.500,381.500,541.500,536.500
1.324,-20.500,381.000,541.000,536.500
1.325,-20.500,381.000,541.000,536.000
1.326,-21.000,380.500,540.500,536.000
1.327,-20.500,380.500,540.500,536.000
1.328,-19.000,380.000,540.000,536.000
1.329,-16.500,380.000,540.000,536.000
1.330,-14.500,380.000,539.500,535.500
1.331,-13.000,380.000,539.500,535.500
1.332,-12.500,380.000,539.500,536.000
1.333,-12.000,380.000,539.500,536.000
1.334,-12.000,380.000,540.000,536.000
1.335,-12.500,380.500,540.000,536.000
1.336,-13.500,380.500,540.000,536.500
1.337,-15.000,380.500,540.000,536.500
1.338,-16.500,380.500,540.000,536.500
1.339,-17.000,380.500,540.000,536.000
1.340,-17.500,380.000,540.000,535.500
1.341,-17.000,379.500,539.500,535.000
1.342,-16.500,379.500,539.000,535.000
1.343,-16.000,379.000,539.000,534.500
1.344,-14.500,379.000,539.000,534.500
1.345,-14.000,379.000,539.000,534.500
1.346,-13.000,378.500,539.000,534.000
1.347,-13.500,378.500,539.000,534.000
1.348,-14.000,378.000,538.500,534.000
1.349,-15.000,378.000,538.500,533.500
1.350,-16.000,378.000,538.500,533.500
1.351,-16.500,377.500,538.500,533.500
1.352,-16.000,377.500,538.500,533.500
1.353,-14.500,377.500,538.000,533.500
1.354,-12.000,377.500,538.000,533.500
1.355,-10.000,378.000,538.000,533.500
1.356,-10.000,378.000,538.000,533.500
1.357,-11.500,378.000,538.000,533.000
1.358,-14.000,378.500,538.000,533.000
1.359,-16.000,378.500,538.500,532.500
1.360,-17.500,378.500,538.500,532.500
1.361,-18.000,378.500,538.500,533.000
1.362,-17.500,378.500,538.500,533.000
1.363,-16.500,378.500,538.500,533.000
1.364,-15.500,378.500,539.000,533.000
1.365,-15.000,378.500,539.000,532.500
1.366,-14.500,378.500,539.000,532.500
1.367,-13.500,378.500,539.000,532.500
1.368,-12.000,379.000,539.500,533.000
1.369,-9.000,379.000,539.500,533.000
1.370,-6.000,379.000,540.000,533.000
1.371,-3.500,379.500,540.500,533.000
1.372,-2.000,379.500,541.000,533.000
1.373,-1.500,380.000,541.000,533.000
1.374,-0.500,380.000,541.500,533.000
1.375,-0.500,380.500,542.000,533.500
1.376,-1.000,381.000,542.000,533.000
1.377,-1.500,381.500,542.500,533.000
1.378,-2.500,381.500,542.500,533.000
1.379,-4.000,381.500,542.500,532.500
1.380,-6.500,381.500,542.500,532.500
1.381,-9.000,382.000,542.000,532.500
1.382,-11.500,382.000,542.000,532.000
1.383,-14.000,382.000,542.000,532.000
1.384,-16.000,382.500,542.000,532.000
1.385,-17.000,382.500,542.000,532.000
1.386,-17.500,382.500,542.500,532.500
1.387,-16.500,382.500,543.000,532.500
1.388,-15.500,383.000,543.500,533.000
1.389,-14.000,383.000,544.500,533.500
1.390,-13.000,383.500,545.000,533.500
1.391,-11.500,383.500,545.000,534.000
1.392,-9.500,383.500,545.500,533.500
1.393,-8.500,384.000,545.500,533.500
1.394,-8.500,384.000,546.000,533.500
1.395,-9.500,384.500,546.000,533.500
1.396,-10.500,385.000,546.500,533.500
1.397,-10.000,385.500,546.500,534.000
1.398,-8.500,386.000,547.000,534.000
1.399,-6.000,386.000,547.000,534.000
1.400,-4.500,386.500,547.500,534.500
1.401,-4.000,386.500,547.500,534.500
1.402,-4.000,387.000,548.000,534.500
1.403,-5.000,387.000,548.000,534.500
1.404,-6.000,387.000,548.500,534.500
1.405,-6.500,387.000,548.500,534.500
1.406,-7.000,387.000,548.500,534.500
1.407,-6.500,387.000,548.500,534.000
1.408,-6.500,387.000,548.500,534.000
1.409,-6.500,387.000,549.000,534.000
1.410,-8.000,387.500,549.000,534.500
1.411,-9.000,387.500,549.000,534.500
1.412,-8.500,387.500,549.500,534.500
1.413,-6.500,388.000,549.500,535.000
1.414,-3.000,388.500,550.000,535.500
1.415,-1.000,389.500,551.000,536.000
1.416,-0.500,390.000,551.500,536.500
1.417,-1.000,390.500,552.000,536.500
1.418,-2.000,391.000,552.500,537.000
1.419,-2.000,391.500,553.000,537.000
1.420,-2.000,391.500,553.500,537.000
1.421,-1.500,392.000,553.500,537.000
1.422,-0.500,392.000,554.000,537.000
1.423,1.000,392.000,554.000,537.000
1.424,3.000,392.000,554.000,537.000
1.425,5.500,392.000,554.000,537.000
1.426,6.500,392.000,554.000,537.000
1.427,6.000,392.000,554.000,537.000
1.428,4.500,392.000,554.500,537.000
1.429,3.000,392.000,554.500,537.000
1.430,2.500,392.000,555.000,537.000
1.431,2.000,392.500,555.000,537.500
1.432,1.500,392.500,555.500,537.500
1.433,1.000,392.500,555.500,537.500
1.434,0.000,393.000,555.500,537.500
1.435,-1.000,393.000,556.000,537.500
1.436,-2.000,393.500,556.000,538.000
1.437,-2.500,394.000,556.000,538.000
1.438,-3.000,394.500,556.500,538.000
1.439,-3.500,395.000,556.500,538.000
1.440,-4.000,395.500,557.000,538.500
1.441,-5.000,396.000,557.000,538.500
1.442,-6.000,396.000,557.500,538.500
1.443,-8.000,396.000,557.500,538.500
1.444,-10.500,396.000,557.500,539.000
1.445,-12.500,396.000,557.500,539.000
1.446,-14.000,396.000,558.000,539.000
1.447,-15.000,396.000,558.000,539.000
1.448,-16.000,396.000,558.500,539.500
1.449,-16.000,396.000,559.000,540.000
1.450,-15.500,396.000,559.000,540.000
1.451,-14.500,396.500,559.500,540.500
1.452,-13.500,397.000,560.000,541.000
1.453,-12.500,397.000,560.000,541.500
1.454,-11.500,397.500,560.500,541.500
1.455,-10.000,398.000,560.500,541.000
1.456,-9.000,398.000,560.500,541.000
1.457,-7.500,398.000,560.000,540.500
1.458,-6.500,398.000,560.000,540.000
1.459,-5.500,398.000,559.500,539.500
1.460,-4.000,398.000,559.500,539.500
1.461,-3.500,397.500,559.000,539.000
1.462,-3.500,397.500,559.500,539.000
1.463,-4.500,397.500,559.500,539.500
1.464,-4.500,397.500,559.500,539.500
1.465,-4.000,397.500,560.000,539.500
1.466,-2.500,397.500,560.000,539.500
1.467,-1.500,397.500,560.500,540.000
1.468,-1.000,398.000,560.500,540.500
1.469,-1.500,398.500,561.000,541.000
1.470,-3.000,398.500,561.500,541.000
1.471,-5.500,399.000,562.000,541.500
1.472,-7.500,399.500,562.500,542.000
1.473,-9.000,400.000,562.500,542.000
1.474,-9.500,400.000,562.500,542.000
1.475,-9.500,400.500,562.500,542.000
1.476,-9.500,400.500,562.500,541.500
1.477,-9.500,400.500,562.000,541.000
1.478,-10.000,400.500,562.000,541.000
1.479,-10.500,400.500,562.500,541.000
1.480,-11.000,400.500,562.500,541.000
1.481,-11.500,401.000,563.000,541.000
1.482,-12.000,402.000,563.500,541.000
1.483,-13.000,402.500,564.000,541.500
1.484,-13.000,402.500,564.000,541.500
1.485,-12.500,402.500,564.500,541.500
1.486,-11.500,403.000,564.500,541.500
1.487,-11.500,403.000,565.000,542.000
1.488,-11.500,403.000,565.000,542.500
1.489,-12.000,403.000,565.000,542.500
1.490,-13.000,403.000,565.000,542.500
1.491,-14.000,403.000,565.500,542.500
1.492,-15.000,403.000,565.500,542.500
1.493,-15.500,403.000,565.500,542.500
1.494,-16.000,403.000,565.500,542.500
1.495,-16.500,403.000,565.500,542.500
1.496,-17.000,403.000,565.500,542.500
1.497,-18.000,403.000,565.500,542.000
1.498,-18.500,403.500,565.500,542.000
1.499,-18.500,403.500,565.500,542.000
1.500,-18.500,403.500,566.000,542.000
1.501,-17.500,404.000,566.000,542.000
1.502,-16.000,404.000,566.000,542.000
1.503,-15.500,404.000,566.000,542.000
1.504,-16.000,404.000,566.000,542.000
1.505,-16.500,403.500,566.500,542.000
1.506,-17.500,403.500,566.500,542.000
1.507,-17.500,403.500,566.500,542.000
1.508,-17.500,403.500,566.500,542.000
1.509,-16.500,403.500,566.500,542.000
1.510,-15.000,403.500,566.500,542.000
1.511,-12.000,403.500,567.000,541.500
1.512,-9.500,403.500,567.000,541.500
1.513,-8.000,404.000,567.000,541.500
1.514,-8.000,404.000,567.000,541.000
1.515,-9.000,404.500,567.000,541.000
1.516,-11.000,404.500,567.000,541.000
1.517,-13.500,405.000,567.000,541.000
1.518,-15.000,405.500,567.000,541.500
1.519,-16.000,405.500,567.500,541.500
1.520,-15.500,405.500,567.500,541.500
1.521,-14.500,406.000,567.500,541.500
1.522,-13.500,406.000,568.000,541.500
1.523,-13.000,406.000,568.000,541.500
1.524,-13.000,406.000,567.500,541.500
1.525,-13.000,406.000,567.500,541.500
1.526,-13.500,406.000,567.500,541.000
1.527,-13.500,405.500,567.500,541.000
1.528,-13.000,405.500,567.000,541.000
1.529,-12.500,405.000,567.000,540.500
1.530,-13.500,405.000,567.000,540.500
1.531,-14.000,404.500,566.500,540.000
1.532,-13.500,404.500,566.500,540.500
1.533,-12.000,405.000,566.500,540.500
1.534,-9.500,405.500,567.000,540.500
1.535,-7.000,405.500,567.000,540.500
1.536,-4.500,405.500,567.000,540.500
1.537,-1.500,406.000,567.000,540.500
1.538,1.500,406.000,567.000,540.000
1.539,3.000,406.500,567.000,540.500
1.540,4.000,407.000,567.000,540.500
1.541,4.500,407.000,567.500,540.500
1.542,3.000,407.500,567.500,540.500
1.543,0.500,407.500,567.500,540.500
1.544,-3.500,407.500,568.000,540.500
1.545,-6.500,407.500,568.000,540.000
1.546,-8.500,407.500,568.000,540.000
1.547,-8.500,407.500,568.000,540.000
1.548,-7.000,407.500,567.500,539.500
1.549,-6.000,407.500,567.500,539.500
1.550,-6.000,407.500,567.500,540.000
1.551,-7.000,407.500,567.500,540.000
1.552,-8.500,407.500,567.500,540.000
1.553,-9.500,408.000,567.500,540.000
1.554,-9.500,408.000,567.500,540.000
1.555,-8.500,407.500,567.500,540.000
1.556,-7.500,407.500,567.500,540.000
1.557,-7.000,407.500,567.500,540.000
1.558,-7.000,407.500,567.500,540.000
1.559,-7.000,407.500,568.000,540.000
1.560,-7.000,407.500,568.000,540.000
1.561,-6.500,408.000,568.000,540.000
1.562,-5.000,408.000,568.500,540.000
1.563,-3.500,408.000,568.500,539.500
1.564,-3.000,408.000,568.500,539.500
1.565,-2.500,408.000,568.500,539.500
1.566,-2.500,408.000,568.500,540.000
1.567,-3.000,408.000,569.000,540.000
1.568,-3.000,408.000,569.000,540.000
1.569,-2.000,408.500,569.500,540.500
1.570,-1.000,408.500,569.500,540.500
1.571,0.500,408.500,570.000,541.000
1.572,0.500,409.000,570.500,541.000
1.573,-1.500,409.500,571.000,541.500
1.574,-5.000,410.000,571.000,541.500
1.575,-9.000,410.000,571.500,541.500
1.576,-12.500,410.500,571.500,541.500
1.577,-14.500,410.500,571.500,541.500
1.578,-15.000,410.500,571.500,541.500
1.579,-15.000,410.500,571.500,541.500
1.580,-14.500,411.000,571.500,541.500
1.581,-14.000,411.000,571.500,541.500
1.582,-13.500,411.000,571.500,541.500
1.583,-12.000,411.000,571.500,541.000
1.584,-10.500,410.500,571.500,541.000
1.585,-9.000,410.000,571.000,540.500
1.586,-7.000,410.000,571.000,540.000
1.587,-5.500,409.500,570.500,540.000
1.588,-4.000,409.000,570.500,539.500
1.589,-3.500,409.000,570.000,539.500
1.590,-4.000,409.000,570.000,540.000
1.591,-4.500,408.500,570.000,540.000
1.592,-6.000,408.500,570.000,539.500
1.593,-7.000,408.500,569.500,539.500
1.594,-7.500,408.500,569.500,539.000
1.595,-7.500,408.500,569.500,539.000
1.596,-8.000,408.500,569.500,538.500
1.597,-7.500,408.500,569.500,538.500
1.598,-6.500,408.500,569.500,538.500
1.599,-5.000,408.500,569.500,538.500
1.600,-2.500,408.500,569.500,539.000
1.601,-0.500,408.500,569.500,539.000
1.602,0.500,409.000,569.500,539.500
1.603,1.000,409.000,570.000,539.500
1.604,1.000,409.500,570.000,539.500
1.605,1.000,409.500,570.000,540.000
1.606,0.500,410.000,570.500,540.000
1.607,-1.500,410.500,571.000,540.500
1.608,-3.500,410.500,571.500,541.000
1.609,-6.000,411.000,572.000,541.000
1.610,-8.000,411.000,572.000,541.000
1.611,-8.500,411.500,572.500,541.000
1.612,-8.000,411.500,572.500,541.000
1.613,-6.500,411.500,572.500,541.000
1.614,-6.000,411.500,572.500,541.500
1.615,-6.500,412.000,573.000,541.500
1.616,-8.000,412.000,573.000,541.500
1.617,-8.500,412.500,573.000,541.500
1.618,-9.000,412.500,573.000,542.000
1.619,-8.500,413.000,573.500,542.000
1.620,-8.500,413.000,573.500,542.000
1.621,-8.500,413.500,573.500,542.500
1.622,-9.500,413.500,574.000,542.500
1.623,-10.500,414.000,574.000,543.000
1.624,-11.000,413.500,574.000,543.000
1.625,-11.500,413.500,574.000,543.500
1.626,-12.000,413.500,574.000,543.500
1.627,-12.500,413.500,574.500,543.500
1.628,-13.000,413.500,574.500,543.500
1.629,-12.500,413.500,575.000,543.500
1.630,-11.500,413.500,575.000,543.500
1.631,-9.500,413.500,575.000,543.500
1.632,-7.500,413.000,574.500,543.000
1.633,-6.000,413.000,574.000,543.000
1.634,-5.500,413.000,574.000,542.500
1.635,-5.000,413.000,573.500,542.000
1.636,-4.000,413.000,573.500,542.000
1.637,-3.000,413.500,573.500,541.500
1.638,-1.500,413.500,573.000,541.500
1.639,-0.500,413.000,573.000,541.000
1.640,-0.500,413.000,573.000,540.500
1.641,-1.000,413.000,572.500,540.500
1.642,-2.000,413.000,572.500,540.000
1.643,-3.000,412.500,572.000,539.500
1.644,-3.500,412.500,571.500,539.000
1.645,-3.000,412.500,571.500,539.000
1.646,-3.000,412.000,571.000,538.500
1.647,-4.000,412.000,571.000,538.500
1.648,-6.000,412.000,571.500,538.500
1.649,-8.000,412.000,571.500,539.000
1.650,-9.000,412.500,571.500,539.000
1.651,-9.000,412.500,571.500,539.000
1.652,-9.000,412.500,571.500,539.500
1.653,-9.000,412.500,571.500,539.500
1.654,-9.500,412.500,571.500,539.000
1.655,-10.000,412.500,571.500,539.000
1.656,-10.000,412.500,571.500,539.000
1.657,-9.000,412.500,571.500,538.500
1.658,-8.000,413.000,571.500,538.500
1.659,-7.000,413.000,571.500,538.500
1.660,-6.500,413.000,571.500,538.500
1.661,-6.500,413.000,572.000,538.500
1.662,-6.500,413.000,572.000,538.500
1.663,-7.000,413.000,571.500,538.000
1.664,-7.500,413.000,571.500,538.000
1.665,-7.500,413.000,571.500,538.000
1.666,-6.500,413.000,571.000,538.000
1.667,-5.500,412.500,571.000,538.000
1.668,-4.500,412.500,571.000,538.000
1.669,-4.000,413.000,571.500,538.000
1.670,-4.500,413.000,572.000,538.500
1.671,-5.000,413.500,572.500,539.000
1.672,-5.500,414.000,573.000,539.500
1.673,-6.000,414.500,573.500,540.500
1.674,-5.500,415.000,574.000,541.000
1.675,-4.000,415.500,574.500,541.500
1.676,-2.500,415.500,574.500,541.500
1.677,-1.000,415.500,574.000,541.500
1.678,-0.500,415.000,573.500,541.000
1.679,-1.500,415.000,573.000,540.500
1.680,-2.500,414.500,573.000,540.000
1.681,-4.000,414.500,572.500,539.500
1.682,-5.000,414.000,572.500,539.000
1.683,-5.000,413.500,571.500,538.500
1.684,-3.500,412.500,571.000,538.000
1.685,-2.000,411.500,569.500,537.000
1.686,0.500,410.500,568.500,536.000
1.687,2.000,409.500,567.500,535.000
1.688,3.000,409.000,567.000,534.500
1.689,3.000,408.500,566.000,533.500
1.690,2.500,408.000,565.500,532.500
1.691,2.500,407.500,564.500,531.500
1.692,3.000,407.000,563.500,530.500
1.693,2.000,406.500,563.000,529.500
1.694,0.500,406.500,562.500,529.000
1.695,-1.500,407.000,562.500,528.500
1.696,-3.500,407.500,563.500,529.000
1.697,-5.000,408.000,564.500,530.000
1.698,-6.000,409.000,565.500,531.000
1.699,-6.000,410.500,567.000,532.500
1.700,-5.500,412.000,569.000,534.000
1.701,-4.500,414.000,571.000,536.000
1.702,-3.500,415.500,572.500,537.500
1.703,-3.000,416.000,574.000,538.500
1.704,-3.500,416.500,574.500,538.500
1.705,-4.500,416.000,574.000,538.500
1.706,-5.500,415.000,573.500,538.000
1.707,-6.000,413.500,572.000,537.000
1.708,-6.500,412.000,570.500,535.500
1.709,-7.000,410.500,569.000,534.000
1.710,-7.500,409.000,567.500,533.000
1.711,-7.500,407.500,566.500,531.500
1.712,-7.000,406.000,565.000,530.500
1.713,-7.000,404.500,564.000,529.500
1.714,-6.500,403.500,562.500,528.500
1.715,-6.500,402.000,561.500,527.000
1.716,-6.500,400.500,560.000,526.000
1.717,-5.500,399.000,558.500,524.500
1.718,-5.000,397.500,557.500,523.500
1.719,-4.500,396.500,556.000,523.000
1.720,-5.000,396.000,555.500,522.000
1.721,-6.000,395.500,555.000,522.000
1.722,-6.500,395.000,554.500,522.000
1.723,-8.000,395.000,555.000,523.000
1.724,-10.000,395.500,555.500,524.000
1.725,-11.500,395.500,556.500,525.000
1.726,-12.000,395.500,557.000,526.500
1.727,-11.500,396.000,558.000,528.000
1.728,-9.000,396.500,559.000,529.500
1.729,-6.000,397.000,560.000,531.000
1.730,-3.500,397.000,561.000,532.000
1.731,-0.500,397.500,562.000,533.000
1.732,2.000,397.500,562.500,533.500
1.733,5.000,398.000,563.000,534.000
1.734,7.500,398.000,564.000,535.000
1.735,9.000,399.000,565.000,536.000
1.736,10.500,400.500,566.500,538.000
1.737,11.500,403.000,569.500,541.500
1.738,11.500,406.500,573.000,545.000
1.739,11.500,410.500,577.000,549.000
1.740,11.000,414.500,581.000,553.000
1.741,10.500,419.000,584.500,557.000
1.742,9.500,423.500,588.500,560.000
1.743,9.000,427.500,591.500,562.500
1.744,8.000,431.000,594.500,565.000
1.745,7.000,434.000,597.000,566.500
1.746,6.000,436.500,599.000,568.500
1.747,5.500,438.500,600.500,569.500
1.748,6.000,439.500,601.000,570.500
1.749,7.000,440.000,601.500,570.500
1.750,8.500,439.500,601.000,570.000
1.751,9.500,439.000,600.500,569.000
1.752,9.500,438.500,599.500,568.000
1.753,9.000,437.500,598.500,566.500
1.754,8.000,436.500,597.000,565.000
1.755,6.500,435.500,596.000,563.500
1.756,3.000,434.500,595.000,562.000
1.757,-1.500,433.500,593.500,560.500
1.758,-6.500,433.000,592.500,559.000
1.759,-11.000,432.000,591.000,557.500
1.760,-13.000,431.000,589.500,555.500
1.761,-14.000,430.000,588.500,554.000
1.762,-14.000,429.000,587.000,552.500
1.763,-14.500,428.000,585.500,551.000
1.764,-14.000,426.500,584.000,549.500
1.765,-14.000,425.000,583.000,548.000
1.766,-13.000,424.000,581.500,547.000
1.767,-11.000,423.000,580.500,545.500
1.768,-9.000,422.000,580.000,544.500
1.769,-7.000,421.500,579.500,543.500
1.770,-5.000,421.000,579.000,543.000
1.771,-3.500,420.500,579.000,543.000
1.772,-2.000,420.500,579.000,542.500
1.773,-1.000,420.500,579.000,542.500
1.774,0.000,420.000,579.000,542.500
1.775,0.500,420.500,579.000,542.500
1.776,0.500,420.500,579.000,542.000
1.777,0.000,420.500,579.000,542.000
1.778,0.000,420.500,579.000,542.000
1.779,0.000,420.500,579.000,541.500
1.780,0.500,420.500,579.000,541.500
1.781,2.000,420.500,579.000,541.000
1.782,3.000,420.000,579.000,541.000
1.783,3.500,419.500,579.000,540.500
1.784,4.500,419.500,579.000,540.500
1.785,4.500,419.500,579.000,540.000
1.786,4.500,419.000,579.000,540.000
1.787,4.500,419.000,579.000,540.000
1.788,4.500,419.000,579.000,540.000
1.789,4.000,419.000,579.000,540.500
1.790,3.000,419.000,579.000,540.500
1.791,1.000,419.000,579.000,540.500
1.792,-1.500,418.500,579.000,540.000
1.793,-3.500,418.500,578.500,540.500
1.794,-4.500,418.500,579.000,540.500
1.795,-5.500,418.500,579.000,541.000
1.796,-6.500,419.000,579.500,541.000
1.797,-8.500,419.000,579.500,541.000
1.798,-10.500,419.500,579.500,541.000
1.799,-10.500,419.500,579.500,541.000
1.800,-9.000,420.000,579.500,541.000
1.801,-6.000,420.000,579.000,541.000
1.802,-3.500,420.000,579.000,541.000
1.803,-2.500,420.000,579.000,540.500
1.804,-2.500,420.000,579.000,540.500
1.805,-3.000,419.500,578.500,540.500
1.806,-3.000,419.500,578.500,540.000
1.807,-3.000,419.000,578.500,540.000
1.808,-4.000,419.000,578.500,540.000
1.809,-5.500,419.000,578.500,540.000
1.810,-8.000,419.000,578.500,540.000
1.811,-10.500,419.000,578.500,540.000
1.812,-12.000,419.500,578.500,540.000
1.813,-13.000,419.500,578.500,540.000
1.814,-13.500,419.500,578.500,540.000
1.815,-13.000,420.000,578.500,540.000
1.816,-12.000,420.500,578.500,540.000
1.817,-10.500,420.500,579.000,540.000
1.818,-8.000,421.000,579.000,540.000
1.819,-6.000,421.500,579.500,540.000
1.820,-4.000,422.000,579.500,540.000
1.821,-3.500,422.500,580.000,540.500
1.822,-3.000,422.500,580.000,540.500
1.823,-2.500,422.500,580.000,541.000
1.824,-2.500,422.500,580.000,541.000
1.825,-3.000,423.000,580.000,541.500
1.826,-3.500,423.000,580.000,541.500
1.827,-3.500,422.500,580.000,541.500
1.828,-3.500,422.000,580.000,541.000
1.829,-4.500,421.500,579.500,541.000
1.830,-5.000,421.000,579.000,541.000
1.831,-4.500,421.000,579.000,541.000
1.832,-3.500,421.000,579.000,541.000
1.833,-2.000,421.000,579.000,540.500
1.834,0.000,421.000,579.000,540.500
1.835,1.500,421.000,579.000,540.000
1.836,1.500,421.000,578.500,540.000
1.837,1.000,421.000,578.500,539.500
1.838,-0.500,421.000,578.500,539.000
1.839,-1.500,421.000,578.500,539.000
1.840,-2.500,420.500,578.000,538.500
1.841,-4.000,420.500,578.000,538.500
1.842,-5.500,420.000,578.000,538.000
1.843,-7.500,420.000,578.000,538.000
1.844,-8.500,419.500,577.500,537.500
1.845,-9.500,419.500,577.500,537.500
1.846,-10.500,419.000,577.500,537.000
1.847,-11.000,419.000,577.000,537.000
1.848,-11.500,419.000,577.000,537.000
1.849,-11.000,419.000,577.000,537.000
1.850,-10.000,419.000,577.000,537.500
1.851,-8.000,419.000,577.000,537.500
1.852,-5.000,419.000,576.500,537.500
1.853,-2.000,419.000,576.500,537.500
1.854,1.500,419.000,576.500,537.500
1.855,3.500,419.000,576.500,537.500
1.856,4.500,419.000,576.500,537.000
1.857,3.500,418.500,576.500,537.000
1.858,1.500,418.500,576.000,537.000
1.859,-0.500,418.500,576.000,536.500
1.860,-2.000,418.500,576.000,536.500
1.861,-3.000,418.500,576.500,536.500
1.862,-3.500,418.500,576.500,536.500
1.863,-5.000,418.000,576.500,536.500
1.864,-6.500,418.000,576.500,536.500
1.865,-7.500,417.500,576.000,536.500
1.866,-8.000,417.500,575.500,536.000
1.867,-7.000,417.000,575.500,536.000
1.868,-5.000,417.000,575.000,535.500
1.869,-2.500,416.500,575.000,535.500
1.870,-0.500,416.500,575.000,535.500
1.871,0.500,416.500,575.000,535.500
1.872,1.500,416.500,575.000,535.500
1.873,2.000,417.000,575.000,536.000
1.874,2.500,417.000,575.000,536.000
1.875,1.000,417.500,575.000,536.500
1.876,-1.000,418.000,575.500,536.500
1.877,-3.000,418.000,576.000,537.000
1.878,-5.000,418.500,576.000,537.000
1.879,-7.000,418.500,576.000,536.500
1.880,-8.000,418.500,576.000,536.500
1.881,-8.000,418.500,575.500,536.000
1.882,-7.000,418.000,575.500,536.000
1.883,-5.500,418.000,575.500,536.000
1.884,-4.000,417.500,575.500,536.000
1.885,-2.000,417.500,575.500,536.000
1.886,-0.500,417.500,575.500,535.500
1.887,2.000,417.000,575.000,535.500
1.888,3.500,416.500,574.500,535.500
1.889,4.000,416.500,574.500,535.500
1.890,3.500,416.000,574.500,535.000
1.891,2.000,416.000,574.500,535.000
1.892,0.500,416.000,574.500,535.000
1.893,0.000,416.000,574.500,535.000
1.894,0.500,416.000,574.500,535.000
1.895,0.500,416.000,574.500,535.000
1.896,0.000,416.000,574.500,535.000
1.897,-1.000,416.000,574.500,535.000
1.898,-2.500,416.500,574.500,535.000
1.899,-3.000,416.500,574.500,535.000
1.900,-3.500,416.000,574.000,535.000
1.901,-3.500,416.000,574.000,535.000
1.902,-4.000,416.000,573.500,534.500
1.903,-4.000,415.500,573.000,534.500
1.904,-3.500,415.000,573.000,534.000
1.905,-2.000,414.500,572.500,533.500
1.906,-0.500,414.000,572.500,533.500
1.907,0.000,413.500,572.000,533.500
1.908,-0.500,413.500,572.000,533.500
1.909,-2.000,413.500,572.000,534.000
1.910,-3.500,413.500,572.000,534.000
1.911,-4.500,413.500,572.000,534.000
1.912,-5.000,413.500,572.000,534.500
1.913,-6.000,414.000,572.000,534.500
1.914,-7.500,414.500,572.000,535.000
1.915,-9.000,415.000,572.000,535.000
1.916,-10.000,415.000,572.000,535.000
1.917,-11.000,415.000,572.000,534.500
1.918,-11.500,415.000,571.500,534.500
1.919,-12.000,415.000,571.500,534.000
1.920,-13.000,415.000,571.000,534.000
1.921,-13.500,414.500,571.000,533.500
1.922,-13.500,414.500,571.000,533.500
1.923,-12.500,414.500,571.000,533.500
1.924,-12.000,414.500,571.500,533.500
1.925,-12.500,414.500,571.500,533.500
1.926,-14.500,414.500,571.500,533.500
1.927,-17.000,414.500,571.500,533.500
1.928,-19.500,414.500,572.000,533.500
1.929,-20.500,415.000,572.000,533.500
1.930,-21.000,415.000,572.000,533.500
1.931,-21.000,415.000,572.000,533.500
1.932,-20.500,414.500,572.000,533.500
1.933,-18.500,414.500,572.000,533.500
1.934,-16.500,414.000,572.000,533.000
1.935,-15.500,413.500,571.500,532.500
1.936,-15.000,413.000,571.000,531.500
1.937,-15.500,413.000,570.500,531.000
1.938,-15.000,413.000,570.000,531.000
1.939,-14.500,413.000,569.500,530.500
1.940,-14.500,412.500,569.500,530.500
1.941,-14.000,412.500,569.000,530.500
1.942,-14.000,412.500,569.000,530.500
1.943,-13.500,412.000,568.500,530.000
1.944,-12.500,411.500,568.500,530.000
1.945,-11.500,411.000,568.000,530.000
1.946,-10.500,410.500,567.500,529.500
1.947,-9.500,410.000,567.000,529.000
1.948,-9.000,410.000,566.500,529.000
1.949,-8.500,409.500,566.500,528.500
1.950,-7.500,409.500,566.000,528.500
1.951,-7.000,409.500,566.000,528.500
1.952,-6.000,409.500,566.000,528.500
1.953,-4.500,409.500,566.000,528.000
1.954,-3.000,409.500,565.500,528.000
1.955,-2.000,409.500,565.500,527.500
1.956,-1.500,409.500,565.500,527.500
1.957,-1.500,409.500,565.000,527.000
1.958,-2.000,409.000,565.000,526.500
1.959,-2.500,409.000,565.000,526.500
1.960,-3.500,409.000,564.500,526.000
1.961,-4.000,408.500,564.500,526.000
1.962,-4.500,409.000,564.500,525.500
1.963,-4.500,409.000,564.500,525.500
1.964,-3.000,409.000,564.500,525.500
1.965,-1.500,408.500,564.500,525.500
1.966,0.000,408.500,564.000,525.000
1.967,1.000,408.500,564.000,525.000
1.968,0.500,408.000,563.500,525.000
1.969,0.000,408.000,563.500,525.000
1.970,-1.000,408.000,563.500,525.000
1.971,-2.000,408.500,563.500,525.000
1.972,-3.000,408.500,564.000,525.000
1.973,-4.000,408.500,564.000,525.000
1.974,-4.500,409.000,564.500,525.500
1.975,-4.500,409.000,565.000,525.500
1.976,-4.500,409.500,565.000,526.000
1.977,-5.500,409.500,565.000,526.000
1.978,-7.000,409.500,565.000,525.500
1.979,-9.500,409.500,564.500,525.500
1.980,-12.000,409.500,564.000,525.000
1.981,-14.000,409.500,564.000,525.000
1.982,-14.500,409.500,564.000,524.500
1.983,-13.500,409.500,564.000,524.500
1.984,-12.000,409.500,563.500,524.000
1.985,-9.500,409.000,563.500,524.000
1.986,-7.500,409.000,563.500,523.500
1.987,-6.500,408.500,563.000,523.500
1.988,-5.500,408.500,563.000,523.500
1.989,-5.500,408.500,563.500,523.500
1.990,-6.000,408.500,563.500,523.500
1.991,-5.500,408.000,563.500,523.500
1.992,-4.500,408.000,563.500,523.000
1.993,-3.000,408.000,563.000,522.500
1.994,-1.500,408.000,562.500,522.000
1.995,-0.500,408.000,562.500,522.000
1.996,-0.500,408.500,563.000,522.000
1.997,-1.500,409.000,563.500,522.000
1.998,-2.500,409.500,563.500,522.500
1.999,-2.500,410.000,563.500,522.500
2.000,-1.500,410.000,564.000,522.500
2.001,0.000,410.000,564.000,522.500
2.002,1.000,410.000,564.000,522.500
2.003,2.000,410.000,564.000,522.500
2.004,2.500,410.000,564.000,522.500
2.005,3.000,410.000,564.000,522.500
2.006,3.500,409.500,564.000,522.500
2.007,4.500,409.500,564.000,522.500
2.008,5.500,409.500,564.000,522.500
2.009,6.000,409.500,564.000,522.500
2.010,6.500,409.500,563.500,522.500
2.011,7.000,409.500,563.500,522.000
2.012,7.000,409.500,564.000,522.000
2.013,6.500,409.500,564.000,522.000
2.014,5.000,410.000,564.000,522.000
2.015,2.500,410.000,564.000,522.000
2.016,0.500,410.000,564.000,522.000
2.017,-2.000,410.000,564.000,522.000
2.018,-4.000,410.500,564.000,521.500
2.019,-4.000,410.500,564.000,521.500
2.020,-3.000,410.500,564.000,521.500
2.021,-1.000,410.500,564.000,521.500
2.022,1.000,410.000,564.000,521.500
2.023,1.000,410.000,564.000,521.500
2.024,0.500,410.000,563.500,521.500
2.025,-1.500,409.500,563.500,521.000
2.026,-3.000,409.000,563.000,521.000
2.027,-4.500,409.000,563.000,521.000
2.028,-5.500,409.000,563.000,520.500
2.029,-5.500,409.000,563.000,520.500
2.030,-5.500,409.000,562.500,520.500
2.031,-5.500,409.000,562.500,520.500
2.032,-6.500,408.500,562.500,520.500
2.033,-8.500,409.000,562.500,520.000
2.034,-10.000,409.000,562.500,520.500
2.035,-11.000,409.000,563.000,520.500
2.036,-11.000,409.500,563.000,520.500
2.037,-10.500,409.500,563.000,520.500
2.038,-9.500,409.500,563.000,520.000
2.039,-9.000,409.500,563.000,520.000
2.040,-8.000,409.500,563.000,519.500
2.041,-7.000,409.500,563.000,519.500
2.042,-5.500,410.000,563.500,519.500
2.043,-4.000,410.000,563.500,520.000
2.044,-2.500,410.000,563.500,520.000
2.045,-1.000,410.000,563.500,520.000
2.046,1.500,409.500,563.000,520.000
2.047,3.500,409.000,562.500,519.500
2.048,5.500,408.500,562.000,519.500
2.049,7.000,408.000,561.500,519.000
2.050,8.000,408.000,561.500,519.000
2.051,8.000,408.000,561.500,518.500
2.052,7.000,408.000,561.500,518.500
2.053,5.000,408.000,561.500,518.500
2.054,2.500,408.000,561.000,518.500
2.055,1.000,408.000,561.000,518.500
2.056,0.500,408.000,560.500,518.000
2.057,0.500,408.000,560.500,518.000
2.058,-0.500,408.000,560.500,518.000
2.059,-1.000,408.000,560.000,518.000
2.060,-2.000,408.000,560.000,517.500
2.061,-2.500,408.000,560.000,517.500
2.062,-3.000,407.500,560.000,517.500
2.063,-2.500,407.500,559.500,517.000
2.064,-1.500,407.000,559.500,517.000
2.065,0.000,407.000,559.000,516.500
2.066,1.500,407.000,559.000,516.500
2.067,3.000,406.500,559.000,516.500
2.068,4.000,406.500,559.000,516.500
2.069,4.500,406.000,559.000,516.500
2.070,4.000,406.000,559.000,517.000
2.071,3.500,406.000,559.000,517.000
2.072,3.000,406.000,559.500,517.000
2.073,2.500,405.500,559.000,516.500
2.074,2.000,405.000,559.000,516.000
2.075,2.000,404.500,558.500,515.500
2.076,1.500,404.500,558.500,515.000
2.077,1.500,404.500,558.500,514.500
2.078,1.500,404.500,558.500,514.500
2.079,1.500,405.000,558.500,514.500
2.080,2.500,405.000,558.500,514.500
2.081,3.500,405.000,558.000,514.500
2.082,4.500,405.000,558.000,514.500
2.083,5.000,405.000,558.000,514.500
2.084,5.000,404.500,558.000,514.500
2.085,5.500,404.500,558.000,514.500
2.086,7.000,404.500,558.000,515.000
2.087,10.000,404.000,557.500,515.000
2.088,13.000,404.500,557.500,515.500
2.089,16.000,404.500,558.000,516.000
2.090,17.500,404.500,558.000,516.000
2.091,18.000,404.500,558.000,516.500
2.092,18.000,404.500,558.500,517.000
2.093,17.500,404.500,558.500,517.000
2.094,16.000,404.500,559.000,517.500
2.095,14.000,404.500,559.000,517.500
2.096,10.500,404.500,558.500,517.500
2.097,6.500,404.000,558.000,517.000
2.098,4.000,403.500,557.000,516.500
2.099,3.500,403.000,556.000,516.000
2.100,4.500,402.000,555.500,515.500
2.101,6.500,401.500,554.500,514.500
2.102,8.500,401.500,554.000,514.000
2.103,10.000,401.000,553.500,513.500
2.104,10.500,400.500,553.000,512.500
2.105,9.500,399.500,552.000,512.000
2.106,8.500,398.500,551.000,511.000
2.107,7.000,397.500,550.000,510.000
2.108,6.000,396.500,549.000,508.500
2.109,5.500,396.000,547.500,507.500
2.110,5.500,395.500,546.500,506.500
2.111,4.500,395.000,546.000,505.500
2.112,3.000,395.000,545.500,505.000
2.113,2.000,395.000,545.500,504.500
2.114,1.000,395.500,546.000,504.500
2.115,0.000,396.000,546.500,505.000
2.116,-1.500,397.000,548.000,506.000
2.117,-2.500,398.500,549.500,507.000
2.118,-2.500,400.000,551.000,509.000
2.119,-1.000,401.500,553.000,511.000
2.120,1.500,403.000,554.500,512.500
2.121,4.000,404.500,556.000,514.000
2.122,5.500,405.500,557.000,515.500
2.123,6.500,405.500,557.500,516.000
2.124,7.500,405.000,557.000,516.000
2.125,9.000,404.500,556.500,516.000
2.126,10.500,403.500,556.000,515.500
2.127,11.500,403.000,555.500,515.000
2.128,11.500,402.500,555.000,514.500
2.129,10.000,402.000,554.500,514.000
2.130,8.000,402.000,554.000,514.000
2.131,6.000,401.500,553.500,513.500
2.132,4.000,401.500,553.000,513.000
2.133,4.000,400.500,552.000,512.500
2.134,5.000,400.000,551.500,511.500
2.135,6.000,400.000,551.500,511.000
2.136,7.000,400.000,551.500,511.000
2.137,6.000,400.000,551.500,511.000
2.138,4.500,400.500,551.500,511.000
2.139,3.500,401.000,551.000,511.000
2.140,3.000,401.000,551.000,511.000
2.141,3.500,401.000,551.000,511.500
2.142,4.000,401.000,551.500,511.500
2.143,3.500,401.000,551.500,511.500
2.144,2.500,400.500,551.000,511.500
2.145,0.500,400.500,551.000,511.500
2.146,-1.000,400.000,551.000,511.500
2.147,-2.000,400.000,550.500,511.500
2.148,-1.000,399.500,550.500,511.500
2.149,0.500,399.500,550.000,511.500
2.150,2.000,399.500,550.000,511.500
2.151,2.000,399.500,550.000,511.500
2.152,1.000,399.000,550.000,511.500
2.153,-1.000,399.000,550.000,511.500
2.154,-2.500,399.000,550.000,511.500
2.155,-3.500,399.500,550.000,511.500
2.156,-4.000,399.500,550.000,511.500
2.157,-5.000,400.000,550.000,511.500
2.158,-5.000,400.500,550.000,511.500
2.159,-5.000,400.500,550.000,511.500
2.160,-5.000,401.000,550.000,511.500
2.161,-6.000,400.500,550.000,511.000
2.162,-7.000,400.500,549.500,511.000
2.163,-8.500,400.500,549.500,510.500
2.164,-10.000,400.500,549.500,510.000
2.165,-11.000,400.000,549.500,510.000
2.166,-12.000,399.500,549.000,510.000
2.167,-14.000,399.500,549.000,509.500
2.168,-16.000,399.000,548.500,509.500
2.169,-17.000,398.500,548.500,509.500
2.170,-16.500,398.500,548.500,509.000
2.171,-15.500,398.500,548.500,509.000
2.172,-14.000,398.500,549.000,509.000
2.173,-13.500,398.500,549.000,509.500
2.174,-13.000,398.500,549.000,509.500
2.175,-12.000,398.000,549.000,509.000
2.176,-11.500,398.000,548.500,509.000
2.177,-11.500,397.500,548.000,508.500
2.178,-12.000,397.500,547.500,508.000
2.179,-13.500,397.500,547.000,508.000
2.180,-16.000,397.500,546.500,508.000
2.181,-18.000,397.500,546.500,508.000
2.182,-18.500,397.500,546.500,507.500
2.183,-17.500,397.500,546.500,507.500
2.184,-15.000,397.500,546.000,507.500
2.185,-12.000,397.000,546.000,507.000
2.186,-9.500,397.000,545.500,506.500
2.187,-8.500,396.500,545.500,506.500
2.188,-9.000,396.000,545.000,506.000
2.189,-10.000,396.000,545.000,506.000
2.190,-10.500,395.500,545.000,505.500
2.191,-10.500,395.500,545.000,505.500
2.192,-10.000,395.500,545.000,505.500
2.193,-9.000,395.500,545.000,506.000
2.194,-7.000,395.500,545.000,506.000
2.195,-4.500,395.500,545.000,506.000
2.196,-3.000,395.500,545.000,506.000
2.197,-3.000,395.500,545.000,506.000
2.198,-3.500,395.500,545.000,506.000
2.199,-4.500,395.500,545.000,506.000
2.200,-5.500,395.000,545.000,506.000
2.201,-6.500,395.000,545.000,506.000
2.202,-6.500,395.000,545.000,506.000
2.203,-6.000,394.500,544.500,506.000
2.204,-5.500,394.500,544.500,505.500
2.205,-5.000,394.000,544.000,505.500
2.206,-5.000,394.000,544.000,505.500
2.207,-5.000,393.500,544.000,505.500
2.208,-5.000,393.500,544.000,505.500
2.209,-5.000,393.500,544.000,506.000
2.210,-6.000,393.500,544.000,506.000
2.211,-7.500,394.000,544.000,506.500
2.212,-9.000,394.000,544.000,506.000
2.213,-10.000,394.500,544.500,506.000
2.214,-11.000,395.000,544.500,506.000
2.215,-11.500,395.500,544.500,506.000
2.216,-11.500,395.500,544.500,505.500
2.217,-10.500,395.000,544.000,505.500
2.218,-9.500,395.000,544.000,505.000
2.219,-9.500,394.500,543.500,504.500
2.220,-9.000,394.500,543.000,504.500
2.221,-9.000,394.500,543.000,504.500
2.222,-8.500,394.500,543.000,504.500
2.223,-8.500,394.500,543.000,504.500
2.224,-9.500,394.500,543.000,504.500
2.225,-10.500,394.500,543.000,505.000
2.226,-11.000,394.000,543.500,505.000
2.227,-9.500,394.000,543.000,505.000
2.228,-7.000,393.500,543.000,505.000
2.229,-5.000,393.000,542.500,505.000
2.230,-3.500,392.500,542.500,505.000
2.231,-2.500,392.500,542.000,505.000
2.232,-1.500,392.500,542.000,505.000
2.233,-1.500,392.500,542.000,505.000
2.234,-2.000,392.500,542.500,505.000
2.235,-2.000,393.000,542.500,505.000
2.236,-2.500,393.000,542.000,504.500
2.237,-2.500,393.000,542.000,504.500
2.238,-2.500,393.000,541.500,504.000
2.239,-3.500,393.000,541.500,504.000
2.240,-5.000,393.000,541.000,503.500
2.241,-6.000,393.000,540.500,503.500
2.242,-5.500,393.000,540.500,503.500
2.243,-4.000,392.500,540.500,503.500
2.244,-1.500,392.500,540.000,503.500
2.245,1.000,392.500,540.000,503.500
2.246,1.500,392.000,539.500,503.000
2.247,0.500,392.000,539.500,503.000
2.248,-1.000,392.000,539.500,503.000
2.249,-2.500,391.500,539.000,502.500
2.250,-3.000,391.000,539.000,502.500
2.251,-4.500,391.000,538.500,502.000
2.252,-7.000,390.500,538.000,501.500
2.253,-9.500,390.500,538.000,501.000
2.254,-11.500,390.000,537.500,501.000
2.255,-12.500,390.000,537.000,500.500
2.256,-12.500,390.000,537.000,500.500
2.257,-10.500,389.500,536.500,500.000
2.258,-7.500,389.500,536.500,499.500
2.259,-4.500,389.000,536.500,499.000
2.260,-3.000,389.000,536.500,498.500
2.261,-3.500,389.000,536.500,498.500
2.262,-5.000,389.000,536.500,498.500
2.263,-6.500,388.500,536.500,498.000
2.264,-8.500,388.500,536.500,498.000
2.265,-10.000,388.000,536.000,498.000
2.266,-11.000,388.000,536.000,497.500
2.267,-11.000,387.500,536.000,497.500
2.268,-11.000,387.500,535.500,497.500
2.269,-11.500,387.500,535.500,497.500
2.270,-12.000,387.500,535.000,497.500
2.271,-12.500,387.500,535.000,497.500
2.272,-12.000,388.000,535.500,497.500
2.273,-10.000,388.000,535.500,497.500
2.274,-7.000,388.000,535.500,497.500
2.275,-4.500,388.000,535.500,497.500
2.276,-3.500,388.000,535.000,497.500
2.277,-3.500,388.000,535.000,497.500
2.278,-4.000,388.000,534.500,497.000
2.279,-4.000,387.500,534.500,497.000
2.280,-4.000,387.500,534.500,496.500
2.281,-3.000,387.500,534.500,496.500
2.282,-2.000,387.500,534.500,496.500
2.283,0.000,387.500,534.500,496.000
2.284,1.500,387.500,534.500,495.500
2.285,3.000,387.000,534.000,495.500
2.286,3.000,387.000,534.000,495.500
2.287,2.000,386.500,533.500,495.000
2.288,0.500,386.000,533.000,495.000
2.289,0.500,386.000,532.500,495.000
2.290,1.500,385.500,532.000,495.000
2.291,3.000,385.500,532.000,495.000
2.292,3.500,385.500,532.000,495.000
2.293,4.000,385.500,532.000,495.000
2.294,3.500,385.500,532.000,495.000
2.295,3.000,385.500,532.000,495.000
2.296,2.500,386.000,532.000,494.500
2.297,2.500,386.000,532.000,494.500
2.298,1.000,386.000,532.000,494.000
2.299,-1.500,386.000,531.500,494.000
2.300,-4.000,386.000,531.500,494.000
2.301,-6.000,386.000,531.000,494.000
2.302,-6.500,386.000,531.000,493.500
2.303,-6.000,386.000,531.000,493.500
2.304,-6.000,386.000,530.500,493.500
2.305,-7.000,386.000,530.500,493.000
2.306,-8.000,386.000,530.500,493.000
2.307,-8.500,386.500,530.500,493.500
2.308,-9.000,386.500,530.500,493.500
2.309,-8.500,386.500,530.500,493.500
2.310,-8.000,386.000,530.000,493.000
2.311,-8.000,385.500,529.500,492.500
2.312,-8.000,385.000,528.500,491.500
2.313,-7.500,384.500,528.000,490.500
2.314,-6.500,384.000,527.500,490.000
2.315,-5.000,383.500,527.000,489.000
2.316,-4.000,383.000,526.500,488.000
2.317,-3.000,382.500,526.000,487.500
2.318,-2.500,381.500,525.000,486.000
2.319,-3.000,380.500,524.000,485.000
2.320,-3.500,379.500,523.000,484.500
2.321,-4.000,378.500,522.000,483.500
2.322,-3.500,377.500,521.000,483.000
2.323,-2.500,376.500,520.000,482.000
2.324,-1.000,375.500,519.500,481.000
2.325,-1.000,374.500,519.000,480.000
2.326,-2.000,373.000,518.000,479.500
2.327,-4.000,372.000,517.000,479.000
2.328,-6.500,371.000,516.000,478.000
2.329,-8.500,369.500,515.000,477.000
2.330,-9.500,368.500,514.000,476.500
2.331,-10.500,367.500,513.500,475.500
2.332,-10.000,367.000,513.000,475.000
2.333,-7.500,366.000,512.500,475.000
2.334,-4.000,366.000,513.000,475.500
2.335,-0.500,366.000,513.500,476.000
2.336,2.000,366.500,514.000,477.000
2.337,3.500,367.000,515.000,478.000
2.338,3.500,368.000,516.000,479.500
2.339,3.000,369.000,517.500,481.000
2.340,2.500,370.000,519.000,483.000
2.341,2.500,371.000,520.500,485.000
2.342,3.000,371.500,521.500,486.500
2.343,5.000,371.500,522.000,488.000
2.344,6.500,371.500,522.500,488.500
2.345,6.500,371.500,523.000,489.500
2.346,5.000,372.000,523.500,490.500
2.347,2.000,373.000,524.500,492.000
2.348,-1.500,374.500,526.500,494.500
2.349,-4.000,376.500,529.000,497.500
2.350,-5.000,379.500,532.000,501.000
2.351,-4.500,383.000,536.000,505.000
2.352,-2.500,386.500,539.500,509.000
2.353,-0.500,390.500,543.500,512.500
2.354,1.500,394.500,547.000,515.500
2.355,2.500,398.000,550.000,518.000
2.356,3.000,401.500,552.500,519.500
2.357,3.500,404.000,554.500,520.500
2.358,3.000,406.500,556.000,521.500
2.359,1.000,407.500,557.000,522.000
2.360,-1.000,408.500,557.000,521.500
2.361,-2.000,408.000,556.500,521.000
2.362,-2.500,407.500,556.000,520.500
2.363,-2.000,406.500,554.500,519.500
2.364,-0.500,405.500,553.500,518.000
2.365,1.000,404.500,552.000,516.500
2.366,2.000,403.000,551.000,515.000
2.367,2.500,402.000,549.500,513.500
2.368,3.000,401.000,548.000,512.000
2.369,4.500,400.000,547.000,510.000
2.370,5.500,399.000,545.500,508.500
2.371,5.000,398.000,544.000,507.000
2.372,4.000,396.500,543.000,505.500
2.373,1.000,395.500,541.500,504.000
2.374,-2.000,394.500,540.500,503.000
2.375,-5.000,393.500,539.000,501.500
2.376,-6.500,392.500,538.000,500.500
2.377,-7.000,392.000,537.000,499.000
2.378,-6.500,391.000,536.500,498.000
2.379,-6.500,390.500,535.500,497.000
2.380,-7.000,389.500,534.500,496.500
2.381,-8.000,389.000,534.000,495.500
2.382,-10.000,388.500,533.000,495.000
2.383,-12.000,388.500,532.500,494.500
2.384,-13.500,388.000,532.500,494.000
2.385,-14.500,387.500,532.000,493.000
2.386,-15.000,387.000,531.500,492.500
2.387,-14.500,386.500,531.500,492.000
2.388,-14.000,386.500,531.000,492.000
2.389,-13.000,386.000,531.000,492.000
2.390,-12.500,386.000,531.000,492.000
2.391,-12.500,386.500,531.500,492.000
2.392,-12.500,386.500,531.500,492.000
2.393,-12.000,386.500,531.500,492.000
2.394,-10.500,386.500,531.000,492.000
2.395,-9.000,386.500,531.000,492.000
2.396,-8.000,386.500,531.000,492.000
2.397,-7.500,386.500,531.000,492.000
2.398,-7.500,386.500,531.000,492.000
2.399,-8.500,387.000,531.000,492.000
2.400,-9.500,387.000,530.500,492.000
2.401,-10.000,386.500,530.000,492.000
2.402,-10.000,386.000,529.500,492.000
2.403,-9.500,386.000,529.500,491.500
2.404,-7.500,385.500,529.000,491.500
2.405,-5.000,385.000,528.500,491.000
2.406,-3.000,384.500,528.000,491.000
2.407,-1.500,384.500,528.000,490.500
2.408,-1.000,384.000,528.000,490.500
2.409,-1.000,384.000,528.000,490.500
2.410,-0.500,383.500,528.000,490.500
2.411,-0.500,383.500,528.000,490.500
2.412,-1.000,383.500,528.000,490.500
2.413,-1.000,384.000,528.000,490.500
2.414,-0.500,384.000,528.000,490.500
2.415,1.500,384.000,528.000,490.500
2.416,3.000,384.000,528.000,490.500
2.417,3.000,384.000,528.000,490.000
2.418,2.500,384.500,528.000,490.000
2.419,2.500,384.500,528.500,489.500
2.420,4.000,384.500,528.500,489.500
2.421,6.000,384.500,528.500,489.500
2.422,7.500,384.500,528.000,489.500
2.423,7.000,384.500,528.000,489.000
2.424,4.500,384.000,528.000,489.000
2.425,1.500,384.000,528.000,489.000
2.426,-1.500,384.500,528.000,489.500
2.427,-4.000,384.500,528.500,490.000
2.428,-6.000,385.500,529.500,490.500
2.429,-7.500,386.000,530.000,491.000
2.430,-8.500,386.500,530.000,491.000
2.431,-8.500,386.500,530.500,491.500
2.432,-8.000,386.000,530.000,491.500
2.433,-8.000,386.000,530.000,491.000
2.434,-8.000,385.500,530.000,490.500
2.435,-7.500,385.500,530.000,490.500
2.436,-6.500,385.500,530.000,490.000
2.437,-5.500,385.500,529.500,489.500
2.438,-5.500,385.000,529.500,489.500
2.439,-5.000,385.000,529.000,489.500
2.440,-4.000,385.500,529.000,489.000
2.441,-3.000,385.500,529.000,489.000
2.442,-2.500,385.500,529.000,489.000
2.443,-3.000,386.000,529.000,489.000
2.444,-4.000,386.000,529.000,489.000
2.445,-5.500,386.000,528.500,489.000
2.446,-6.500,385.500,528.500,489.000
2.447,-7.000,385.500,528.500,489.000
2.448,-7.000,385.500,528.500,489.000
2.449,-6.000,385.500,528.500,489.500
2.450,-4.500,385.500,528.500,489.500
2.451,-3.000,385.500,529.000,489.500
2.452,-1.500,385.500,529.000,489.500
2.453,0.500,385.500,529.000,489.500
2.454,1.500,385.500,529.000,489.500
2.455,1.000,385.000,528.500,489.000
2.456,0.500,385.000,528.500,489.000
2.457,-0.500,384.500,528.500,489.000
2.458,-0.500,384.500,528.000,489.000
2.459,0.000,384.500,528.000,489.000
2.460,1.000,384.500,528.000,489.000
2.461,1.000,384.500,528.000,489.500
2.462,0.000,384.500,528.500,489.500
2.463,-2.000,384.500,528.500,489.500
2.464,-3.500,384.500,528.500,489.500
2.465,-4.500,384.500,528.500,489.500
2.466,-4.000,384.000,528.000,489.000
2.467,-3.000,383.500,528.000,488.500
2.468,-2.000,383.000,527.500,488.500
2.469,-1.000,382.500,527.500,488.000
2.470,-0.500,382.500,527.500,488.000
2.471,-1.000,382.000,527.500,487.500
2.472,-2.000,382.000,527.500,487.500
2.473,-3.500,382.500,527.500,487.500
2.474,-5.500,383.000,527.500,488.000
2.475,-7.000,383.500,527.500,488.000
2.476,-7.000,383.500,528.000,488.000
2.477,-6.500,384.000,528.000,487.500
2.478,-6.000,384.500,528.000,487.500
2.479,-6.500,384.500,527.500,487.500
2.480,-8.500,384.500,527.500,487.500
2.481,-11.000,385.000,527.500,487.500
2.482,-12.500,384.500,527.500,487.000
2.483,-12.500,384.500,527.500,487.000
2.484,-10.000,383.500,527.000,486.500
2.485,-6.000,383.000,526.500,486.500
2.486,-3.500,382.000,526.000,486.000
2.487,-2.000,381.500,525.500,486.000
2.488,-2.500,381.000,525.000,486.000
2.489,-4.500,381.000,525.000,486.000
2.490,-6.500,381.000,525.000,486.000
2.491,-7.500,380.500,525.000,486.000
2.492,-7.500,380.500,524.500,486.000
2.493,-7.000,380.500,524.500,485.500
2.494,-6.000,380.500,524.500,485.500
2.495,-5.500,380.500,524.000,485.000
2.496,-5.500,380.500,524.000,485.000
2.497,-5.500,380.500,524.000,485.000
2.498,-5.500,380.500,524.000,484.500
2.499,-5.000,380.000,523.500,484.500
2.500,-4.500,380.000,523.500,484.000
2.501,-3.000,379.000,523.000,483.500
2.502,-0.500,378.500,522.500,483.500
2.503,2.500,378.500,522.500,483.000
2.504,5.500,378.000,522.500,483.000
2.505,6.500,377.500,522.500,483.000
2.506,5.500,377.500,522.500,483.000
2.507,3.500,377.000,522.500,483.000
2.508,2.000,377.000,522.500,482.500
2.509,1.000,376.500,522.500,482.500
2.510,1.000,376.500,522.500,482.500
2.511,2.000,376.500,522.500,482.500
2.512,2.500,376.500,522.500,482.000
2.513,3.000,376.500,522.500,482.000
2.514,3.000,376.500,522.500,482.000
2.515,1.500,376.500,522.500,482.000
2.516,0.500,377.000,522.500,482.500
2.517,0.000,377.500,522.500,482.500
2.518,1.000,377.500,522.500,483.000
2.519,2.500,378.000,523.000,483.500
2.520,4.000,378.000,523.500,483.500
2.521,4.500,378.500,524.000,484.000
2.522,3.500,378.500,524.000,484.000
2.523,2.000,378.500,524.500,484.000
2.524,0.500,378.500,524.500,484.000
2.525,-1.000,378.500,524.000,484.000
2.526,-2.000,378.000,524.000,484.000
2.527,-3.500,377.000,523.500,483.500
2.528,-5.000,376.000,523.000,483.000
2.529,-5.000,375.500,522.000,482.500
2.530,-4.500,374.500,521.500,482.000
2.531,-2.500,374.000,521.000,481.500
2.532,-0.500,373.500,520.500,481.000
2.533,1.500,373.000,520.000,480.000
2.534,2.500,373.000,519.500,479.500
2.535,2.500,372.500,519.000,479.000
2.536,2.500,372.000,518.000,478.000
2.537,1.500,371.500,517.000,477.000
2.538,0.000,371.000,515.500,475.500
2.539,-1.500,370.000,514.000,474.500
2.540,-2.000,369.500,513.000,473.000
2.541,-2.000,369.000,512.000,472.500
2.542,-1.500,368.500,511.500,472.000
2.543,-1.000,368.500,511.500,472.500
2.544,-0.500,368.500,512.000,473.000
2.545,0.000,369.000,513.000,474.500
2.546,0.500,370.000,515.000,476.000
2.547,1.000,371.500,516.500,478.000
2.548,2.000,373.000,518.500,480.000
2.549,4.000,374.000,520.500,482.000
2.550,6.500,375.000,522.000,483.000
2.551,10.000,375.500,522.500,484.000
2.552,12.500,375.500,522.500,484.000
2.553,13.500,375.500,522.500,483.500
2.554,13.000,375.000,522.000,483.000
2.555,10.500,374.000,521.500,482.500
2.556,7.500,373.500,520.500,482.000
2.557,6.000,372.500,520.000,481.500
2.558,5.500,371.500,519.500,481.000
2.559,5.500,371.000,519.000,480.500
2.560,5.500,371.000,518.500,480.500
2.561,4.500,371.000,518.500,480.000
2.562,2.000,371.000,518.500,480.000
2.563,-1.000,371.500,519.000,480.000
2.564,-4.000,372.000,519.500,480.000
2.565,-7.000,372.000,519.500,480.500
2.566,-8.500,372.500,519.500,480.500
2.567,-9.000,372.500,519.000,480.500
2.568,-8.000,372.500,519.000,480.500
2.569,-5.500,372.000,519.000,480.500
2.570,-3.500,372.000,519.000,480.000
2.571,-3.500,372.000,519.000,480.500
2.572,-4.500,372.500,519.000,480.500
2.573,-5.500,373.000,519.000,480.500
2.574,-5.500,373.000,519.000,480.000
2.575,-4.500,373.000,519.000,480.000
2.576,-3.000,373.000,519.000,480.000
2.577,-2.000,373.000,519.000,480.000
2.578,-1.000,373.000,518.500,480.000
2.579,0.000,373.500,518.500,479.500
2.580,1.000,373.500,518.500,479.500
2.581,1.500,373.000,518.500,479.500
2.582,2.500,373.000,518.500,479.500
2.583,3.000,372.500,518.000,480.000
2.584,3.500,372.500,518.000,480.000
2.585,4.000,372.500,518.000,480.000
2.586,4.000,372.500,517.500,480.000
2.587,3.500,372.500,517.500,480.000
2.588,3.000,372.500,517.500,480.000
2.589,2.500,373.000,518.000,480.000
2.590,3.000,373.000,518.000,480.500
2.591,4.000,373.500,518.500,480.500
2.592,4.000,373.500,519.000,481.000
2.593,4.000,374.000,519.000,481.000
2.594,3.000,374.000,519.000,481.500
2.595,3.000,374.500,519.000,481.500
2.596,3.500,375.000,519.000,481.000
2.597,4.500,375.000,519.000,481.000
2.598,6.000,375.000,519.500,481.000
2.599,6.000,375.000,519.500,481.000
2.600,5.000,375.500,519.500,481.000
2.601,4.000,375.500,520.000,481.000
2.602,3.000,375.500,520.000,481.000
2.603,3.000,375.500,520.500,481.000
2.604,4.000,375.500,520.500,481.500
2.605,5.000,376.000,520.500,481.500
2.606,4.500,376.000,520.500,481.500
2.607,4.000,376.000,521.000,482.000
2.608,4.000,376.000,521.000,482.000
2.609,6.000,376.000,521.500,482.500
2.610,8.500,376.500,521.500,482.500
2.611,10.500,376.500,522.000,482.500
2.612,11.000,377.000,522.000,482.500
2.613,9.500,377.000,522.500,482.500
2.614,8.000,377.500,522.500,482.500
2.615,6.000,377.500,523.000,482.500
2.616,4.000,378.000,523.000,482.500
2.617,3.000,378.000,523.000,483.000
2.618,3.500,378.500,523.000,483.000
2.619,4.500,378.500,523.000,483.000
2.620,5.000,378.500,523.000,483.500
2.621,5.000,378.500,523.000,483.500
2.622,5.000,378.500,523.000,483.500
2.623,5.500,378.500,523.000,484.000
2.624,7.500,378.500,523.000,484.000
2.625,9.500,378.500,522.500,484.000
2.626,10.500,378.500,522.500,484.000
2.627,9.500,378.500,522.500,483.500
2.628,7.500,378.500,522.500,483.500
2.629,5.000,378.500,522.500,484.000
2.630,3.500,378.500,522.500,484.000
2.631,2.500,378.500,523.000,484.000
2.632,1.500,378.500,523.000,484.500
2.633,1.000,379.000,523.500,484.500
2.634,1.000,379.000,523.500,485.000
2.635,1.000,379.500,523.500,485.000
2.636,2.500,379.500,523.500,484.500
2.637,4.000,379.500,523.500,484.000
2.638,6.000,379.500,523.500,484.000
2.639,7.000,379.500,523.000,483.500
2.640,8.000,379.500,523.000,483.500
2.641,9.500,380.000,523.000,483.500
2.642,11.000,380.000,523.500,484.000
2.643,13.000,380.500,523.500,484.000
2.644,15.000,380.500,523.000,484.000
2.645,17.000,380.500,523.000,484.500
2.646,18.000,380.500,523.500,484.500
2.647,18.500,380.500,523.500,485.000
2.648,17.500,380.500,523.500,485.000
2.649,15.000,380.500,524.000,485.500
2.650,12.500,380.500,524.000,485.500
2.651,10.000,380.500,524.000,486.000
2.652,9.000,380.500,524.000,486.000
2.653,9.000,380.500,524.000,485.500
2.654,9.500,380.500,523.500,485.500
2.655,10.500,380.500,523.500,485.000
2.656,12.000,380.500,523.000,485.000
2.657,13.000,380.000,523.000,485.000
2.658,14.500,380.000,523.000,485.000
2.659,14.500,380.500,523.500,485.000
2.660,14.500,380.500,523.500,485.000
2.661,14.000,380.500,523.500,485.000
2.662,13.000,380.000,523.500,484.500
2.663,12.500,380.000,523.000,484.000
2.664,12.500,379.500,523.000,483.500
2.665,13.000,379.500,522.500,483.000
2.666,13.500,379.000,522.500,483.000
2.667,14.000,378.500,522.000,483.000
2.668,14.500,378.500,522.000,483.000
2.669,14.500,379.000,522.500,483.500
2.670,15.000,379.000,522.500,484.000
2.671,15.500,379.500,522.500,484.000
2.672,15.500,379.500,523.000,484.500
2.673,16.500,379.500,523.000,484.500
2.674,18.000,379.500,523.000,484.500
2.675,20.500,379.500,523.000,484.500
2.676,23.500,379.500,523.000,484.000
2.677,25.500,380.000,523.000,484.000
2.678,27.000,380.000,523.500,484.500
2.679,27.000,380.500,524.000,484.500
2.680,26.000,381.000,524.000,485.000
2.681,24.500,381.000,524.500,485.000
2.682,22.000,381.000,524.500,485.500
2.683,20.000,380.500,524.500,485.500
2.684,19.000,380.500,524.500,485.500
2.685,19.500,380.500,524.000,485.500
2.686,21.500,380.500,524.000,485.500
2.687,22.500,380.000,524.000,485.500
2.688,23.500,380.000,524.000,485.500
2.689,24.000,380.000,524.000,485.500
2.690,25.000,380.000,524.500,486.000
2.691,26.000,380.000,524.500,486.000
2.692,27.000,380.000,525.000,486.000
2.693,28.000,380.000,525.000,486.000
2.694,28.000,380.000,525.000,486.000
2.695,27.500,380.500,525.000,486.000
2.696,26.000,380.500,525.000,486.000
2.697,24.000,381.000,524.500,485.500
2.698,22.000,381.000,525.000,485.500
2.699,20.500,381.500,525.000,486.000
2.700,19.500,381.500,525.000,486.000
2.701,19.500,381.500,525.000,486.000
2.702,19.500,381.500,524.500,486.000
2.703,19.000,381.500,524.500,486.000
2.704,18.000,381.000,524.500,486.000
2.705,17.500,381.000,524.500,485.500
2.706,17.500,380.500,524.000,485.500
2.707,18.000,380.500,524.000,485.500
2.708,18.500,380.500,524.000,485.500
2.709,19.500,380.000,524.000,485.500
2.710,20.500,380.000,524.000,485.000
2.711,21.000,380.000,523.500,485.000
2.712,20.500,380.500,523.500,485.000
2.713,20.000,380.500,523.500,485.000
2.714,19.500,380.500,523.500,485.000
2.715,19.000,381.000,523.500,484.500
2.716,18.500,381.000,523.500,484.500
2.717,18.000,381.000,523.500,484.500
2.718,18.000,381.000,524.000,484.500
2.719,18.500,381.000,524.000,484.500
2.720,19.000,381.000,523.500,484.500
2.721,18.500,381.000,523.500,484.500
2.722,17.000,381.000,523.500,484.500
2.723,15.000,381.000,523.500,484.500
2.724,12.500,380.500,523.500,484.500
2.725,10.000,380.500,523.500,484.500
2.726,7.500,380.500,523.500,484.500
2.727,6.000,380.500,523.000,485.000
2.728,5.000,380.500,523.000,485.000
2.729,3.500,380.500,523.000,485.000
2.730,2.000,380.000,523.500,485.000
2.731,0.500,380.000,523.500,485.000
2.732,-0.500,380.000,523.500,485.000
2.733,-1.500,380.000,523.500,485.000
2.734,-2.000,380.000,523.500,484.500
2.735,-1.500,380.000,523.500,484.500
2.736,0.000,380.000,523.500,484.500
2.737,2.000,380.500,523.500,485.000
2.738,4.500,380.500,523.000,485.000
2.739,7.000,380.500,523.000,485.000
2.740,8.500,380.500,523.000,485.000
2.741,10.000,380.500,523.000,484.500
2.742,11.000,380.500,523.000,484.500
2.743,11.500,380.500,523.000,484.500
2.744,11.500,380.000,522.500,484.000
2.745,10.500,380.000,522.500,484.000
2.746,9.500,379.500,522.500,484.000
2.747,9.000,379.000,522.000,484.000
2.748,9.000,379.000,522.000,484.000
2.749,10.000,379.000,522.000,484.000
2.750,11.500,379.500,522.500,484.000
2.751,13.000,380.000,523.000,484.500
2.752,13.000,380.500,523.000,484.500
2.753,11.500,381.000,523.500,485.000
2.754,9.500,381.500,524.000,485.000
2.755,7.000,381.500,524.000,485.000
2.756,5.000,381.500,524.000,485.000
2.757,3.500,381.500,523.500,485.000
2.758,3.000,381.500,523.500,485.000
2.759,4.000,381.500,523.500,485.000
2.760,6.000,381.500,523.500,485.000
2.761,8.000,381.500,523.500,484.500
2.762,10.000,381.500,523.500,484.500
2.763,11.000,381.000,523.500,484.000
2.764,11.500,381.000,523.500,483.500
2.765,11.000,380.500,523.000,483.000
2.766,9.000,380.000,523.000,483.000
2.767,7.000,380.000,523.000,483.000
2.768,4.000,380.000,523.000,483.000
2.769,2.000,380.000,523.000,483.000
2.770,1.000,380.000,523.000,483.000
2.771,1.500,380.500,523.000,483.500
2.772,3.500,380.500,522.500,483.500
2.773,6.500,380.500,522.500,483.500
2.774,9.500,381.000,522.500,483.500
2.775,13.000,381.000,522.500,483.500
2.776,15.500,381.500,522.500,483.500
2.777,17.500,381.500,522.500,483.000
2.778,18.500,381.500,522.500,483.000
2.779,17.500,381.500,522.000,482.500
2.780,15.500,381.000,522.000,482.500
2.781,13.000,381.000,521.500,482.500
2.782,11.000,380.500,521.500,482.500
2.783,9.500,380.000,521.000,482.500
2.784,8.000,380.000,521.500,482.500
2.785,7.000,380.000,521.500,482.500
2.786,6.000,380.000,521.500,482.500
2.787,6.000,380.000,521.500,483.000
2.788,6.500,380.000,521.500,483.000
2.789,7.000,380.000,521.500,483.000
2.790,7.000,380.000,521.500,483.000
2.791,7.000,380.000,521.500,483.000
2.792,7.000,380.000,521.500,483.000
2.793,7.000,380.500,522.000,483.500
2.794,6.500,380.500,522.500,483.500
2.795,5.500,381.000,522.500,484.000
2.796,5.500,381.000,523.000,484.000
2.797,5.500,381.000,523.000,483.500
2.798,5.000,381.000,523.000,483.500
2.799,4.500,381.000,523.000,483.000
2.800,4.500,381.000,523.000,483.000
2.801,5.000,380.500,522.500,483.000
2.802,6.500,380.500,522.500,483.000
2.803,7.500,380.500,522.000,482.500
2.804,7.000,380.000,522.000,482.500
2.805,5.500,380.000,521.500,482.500
2.806,3.000,380.000,521.500,482.500
2.807,0.500,380.000,521.500,483.000
2.808,-2.000,380.000,521.500,483.000
2.809,-3.500,380.000,521.500,483.500
2.810,-3.500,380.000,521.500,483.500
2.811,-1.500,379.500,521.500,483.500
2.812,1.000,379.500,521.000,483.000
2.813,3.500,379.000,521.000,483.000
2.814,4.000,378.500,521.000,483.000
2.815,3.500,378.500,520.500,482.500
2.816,1.500,378.500,520.500,482.500
2.817,-1.000,378.500,520.500,482.500
2.818,-3.500,378.500,520.000,482.000
2.819,-4.500,378.500,519.500,482.000
2.820,-4.500,378.500,519.500,482.000
2.821,-3.500,378.000,519.500,481.500
2.822,-2.500,378.000,519.500,481.500
2.823,-0.500,378.000,519.000,481.500
2.824,2.000,377.500,519.000,481.000
2.825,4.000,377.000,518.500,480.500
2.826,5.500,376.500,517.500,480.500
2.827,6.500,376.000,517.000,480.500
2.828,7.500,375.500,517.000,480.000
2.829,8.500,375.500,517.000,480.000
2.830,10.000,375.000,517.000,480.000
2.831,11.500,375.000,517.000,480.000
2.832,11.500,375.500,517.000,480.000
2.833,9.500,375.500,517.000,480.000
2.834,7.000,375.500,517.000,480.000
2.835,5.000,376.000,517.000,480.000
2.836,3.500,376.000,517.000,479.500
2.837,4.000,376.000,517.000,479.500
2.838,4.500,376.000,517.000,479.500
2.839,5.000,376.000,517.000,479.500
2.840,6.500,376.500,517.000,479.500
2.841,8.000,376.500,517.000,479.500
2.842,9.000,377.000,517.000,479.500
2.843,8.000,377.000,517.500,479.500
2.844,6.500,377.500,518.000,480.000
2.845,4.000,378.500,519.000,481.000
2.846,3.000,379.000,519.500,481.500
2.847,3.000,379.000,520.000,482.000
2.848,4.000,379.000,520.000,482.000
2.849,5.500,379.000,520.000,482.500
2.850,6.000,379.000,520.000,483.000
2.851,5.500,379.500,520.500,483.000
2.852,4.500,380.000,521.000,483.500
2.853,4.000,380.500,521.500,484.000
2.854,5.000,380.500,521.500,484.000
2.855,6.500,380.500,521.500,484.000
2.856,8.000,380.500,521.500,484.000
2.857,9.500,380.000,521.500,484.000
2.858,10.500,379.500,521.000,483.500
2.859,11.000,379.000,521.000,483.000
2.860,10.500,379.000,520.500,483.000
2.861,10.000,378.500,520.000,482.500
2.862,9.000,378.500,520.000,482.500
2.863,7.000,378.500,520.000,482.500
2.864,5.500,378.500,520.000,483.000
2.865,4.000,378.500,520.000,483.000
2.866,2.500,379.000,520.500,483.000
2.867,1.000,379.000,520.500,483.000
2.868,-0.500,379.000,521.000,483.500
2.869,-0.500,379.500,521.000,483.500
2.870,0.500,379.500,521.000,483.000
2.871,1.500,379.500,521.000,483.000
2.872,3.500,379.500,521.000,483.000
2.873,6.500,379.500,521.500,482.500
2.874,10.000,379.500,521.500,482.500
2.875,12.500,379.500,521.000,482.500
2.876,13.000,380.000,521.000,482.500
2.877,12.500,380.000,521.000,482.500
2.878,11.500,380.000,520.500,482.000
2.879,12.000,380.000,520.500,481.500
2.880,13.000,380.500,520.500,481.500
2.881,13.500,380.500,520.500,481.500
2.882,12.500,381.000,521.000,482.000
2.883,11.000,381.000,521.000,482.000
2.884,10.500,381.000,520.500,482.000
2.885,12.000,380.500,520.000,482.000
2.886,14.000,380.000,519.500,482.000
2.887,15.000,379.500,519.500,482.000
2.888,14.500,379.500,519.500,482.000
2.889,12.500,379.500,520.000,482.000
2.890,10.000,379.500,520.000,482.500
2.891,7.500,379.500,520.500,482.500
2.892,5.500,380.000,521.000,482.500
2.893,3.000,380.500,521.000,482.500
2.894,-0.500,381.000,521.500,483.000
2.895,-3.000,381.000,521.500,482.500
2.896,-4.500,381.000,521.500,482.500
2.897,-3.500,381.000,521.500,482.500
2.898,-2.000,381.000,521.000,482.000
2.899,-1.000,380.500,521.000,482.000
2.900,-0.500,380.500,521.000,482.000
2.901,-1.000,381.000,521.000,481.500
2.902,-2.000,381.000,520.500,481.500
2.903,-2.500,381.000,521.000,481.500
2.904,-2.500,381.000,521.000,481.500
2.905,-2.000,381.000,521.000,481.500
2.906,-1.000,381.000,521.000,481.500
2.907,-1.000,381.000,521.000,481.500
2.908,-1.000,380.500,521.000,481.500
2.909,-1.000,380.500,520.500,481.500
2.910,-0.500,380.500,520.000,481.000
2.911,1.000,380.000,520.000,481.000
2.912,2.000,380.000,519.500,481.000
2.913,2.000,380.000,519.500,481.000
2.914,1.500,380.500,520.000,481.000
2.915,1.000,380.500,520.000,481.500
2.916,0.500,381.000,520.000,481.500
2.917,1.500,381.000,520.000,481.000
2.918,3.500,381.000,520.000,481.000
2.919,7.000,381.000,520.000,480.500
2.920,10.500,381.000,520.000,481.000
2.921,13.000,381.000,520.000,481.000
2.922,13.500,381.000,520.000,481.000
2.923,12.500,380.500,520.000,481.000
2.924,11.500,380.500,520.000,480.500
2.925,11.000,380.000,520.000,480.000
2.926,11.500,379.500,519.500,480.000
2.927,12.000,379.500,519.500,479.500
2.928,13.000,379.000,519.000,479.500
2.929,13.000,379.000,519.000,479.500
2.930,13.000,379.000,518.500,479.500
2.931,13.000,378.500,518.500,479.500
2.932,13.000,378.500,518.000,479.000
2.933,12.500,378.500,517.500,478.500
2.934,12.000,378.000,517.000,478.500
2.935,11.000,377.500,516.500,478.000
2.936,9.000,377.000,516.000,477.000
2.937,7.500,376.500,515.500,476.500
2.938,7.000,376.500,515.000,476.000
2.939,7.500,376.000,514.500,475.000
2.940,9.000,375.500,514.000,474.500
2.941,10.000,375.000,513.500,474.500
2.942,10.500,374.500,512.500,474.000
2.943,9.500,373.500,512.000,473.000
2.944,7.500,372.500,511.000,472.500
2.945,5.500,371.500,510.000,472.000
2.946,4.000,370.500,509.000,471.000
2.947,3.500,369.000,507.500,470.000
2.948,3.000,367.500,505.500,469.000
2.949,3.500,366.000,504.000,468.000
2.950,3.500,364.500,502.500,467.000
2.951,4.000,363.000,501.500,466.500
2.952,5.500,362.000,501.000,466.500
2.953,8.000,361.500,501.000,466.500
2.954,11.000,361.500,501.000,467.000
2.955,13.000,361.500,501.500,468.000
2.956,13.500,362.000,502.000,469.000
2.957,12.500,362.500,502.500,470.000
2.958,10.500,363.000,503.000,471.000
2.959,8.000,363.000,503.000,471.500
2.960,6.000,363.000,503.000,471.500
2.961,5.500,362.500,503.000,471.500
2.962,6.000,362.000,502.500,471.500
2.963,7.500,361.500,502.500,471.500
2.964,8.500,361.500,502.500,472.000
2.965,8.500,362.500,503.500,473.500
2.966,9.000,364.000,506.000,476.500
2.967,10.000,366.500,509.000,480.000
2.968,11.000,370.000,513.500,484.500
2.969,11.500,375.000,519.000,489.500
2.970,12.000,380.500,525.000,495.500
2.971,13.000,386.000,530.500,501.000
2.972,14.500,391.500,535.500,505.500
2.973,16.000,396.000,540.000,509.500
2.974,17.000,399.500,543.000,512.000
2.975,17.000,402.500,545.000,513.500
2.976,17.000,404.500,546.500,514.000
2.977,17.000,405.500,547.000,514.500
2.978,17.000,406.000,547.000,514.000
2.979,15.500,405.500,546.000,513.000
2.980,13.500,405.000,545.000,512.000
2.981,10.500,403.500,544.000,510.500
2.982,8.000,402.500,542.500,508.500
2.983,8.000,401.000,541.000,507.000
2.984,9.000,400.000,539.500,505.000
2.985,11.500,398.500,537.500,503.000
2.986,13.000,397.000,536.000,501.000
2.987,15.000,395.500,534.500,499.500
2.988,16.500,394.500,533.000,498.000
2.989,18.500,393.000,531.500,496.500
2.990,21.000,392.000,530.500,495.000
2.991,23.000,391.000,529.000,493.000
2.992,23.500,390.000,527.500,492.000
2.993,22.500,389.500,526.500,490.500
2.994,20.500,388.500,525.000,489.500
2.995,19.000,388.000,524.000,488.500
2.996,18.000,387.000,523.500,487.000
2.997,17.500,386.000,522.500,486.000
2.998,17.500,385.500,521.500,485.500
2.999,18.000,384.500,521.000,484.500
3.000,18.500,384.000,520.000,483.500
3.001,18.000,383.500,519.500,483.000
3.002,16.500,383.000,518.500,482.000
3.003,14.500,382.000,518.000,481.500
3.004,12.500,381.500,518.000,481.000
3.005,12.000,381.000,517.500,480.500
3.006,13.000,380.500,517.500,480.000
3.007,13.500,380.000,517.000,479.500
3.008,14.500,380.000,517.000,479.500
3.009,15.500,380.000,517.000,480.000
3.010,16.000,380.000,517.000,480.000
3.011,14.500,380.000,517.000,480.000
3.012,12.500,380.000,517.000,480.000
3.013,9.500,380.000,517.000,480.500
3.014,7.000,380.000,517.000,480.500
3.015,6.000,380.000,517.000,480.500
3.016,6.000,380.000,517.000,480.500
3.017,7.500,380.000,516.500,480.500
3.018,9.500,380.000,516.500,480.500
3.019,11.500,380.000,516.500,480.000
3.020,12.000,380.000,516.500,479.500
3.021,11.500,380.500,516.500,479.000
3.022,11.000,380.500,516.500,479.000
3.023,11.000,380.000,516.000,478.500
3.024,11.500,380.000,516.000,478.000
3.025,12.500,379.500,516.000,478.000
3.026,13.000,379.000,516.000,477.500
3.027,12.500,379.000,516.000,477.500
3.028,11.500,378.500,516.000,477.500
3.029,10.500,378.500,516.000,477.500
3.030,10.000,378.000,516.000,477.500
3.031,10.000,378.000,516.000,477.500
3.032,9.500,378.000,516.000,477.500
3.033,9.000,378.000,516.000,477.500
3.034,7.000,378.000,516.500,477.500
3.035,6.000,378.500,516.500,477.500
3.036,5.000,378.500,516.500,477.500
3.037,5.500,378.500,516.500,477.500
3.038,6.000,378.500,516.500,477.500
3.039,7.000,378.500,517.000,477.000
3.040,8.000,379.000,517.000,477.000
3.041,8.500,379.000,517.000,477.500
3.042,10.000,379.000,517.000,477.500
3.043,11.000,379.000,517.000,477.500
3.044,11.000,379.000,517.000,477.500
3.045,10.000,378.500,516.500,477.500
3.046,8.000,378.500,516.500,477.500
3.047,6.500,378.500,516.500,477.500
3.048,5.000,378.000,516.500,477.500
3.049,3.000,378.000,516.500,477.500
3.050,1.000,378.000,516.500,478.000
3.051,-1.500,378.000,516.500,477.500
3.052,-2.500,378.000,516.500,477.500
3.053,-3.000,378.500,516.000,477.000
3.054,-2.000,378.500,516.000,477.000
3.055,-1.000,378.500,516.000,476.500
3.056,0.000,378.500,516.000,476.500
3.057,1.500,378.500,516.000,476.500
3.058,3.500,378.500,516.000,476.000
3.059,6.000,379.000,515.500,476.000
3.060,9.000,379.000,515.500,476.000
3.061,10.500,379.000,515.500,476.000
3.062,11.000,379.000,515.000,476.000
3.063,11.000,378.500,515.000,476.000
3.064,10.500,378.500,515.000,476.000
3.065,11.000,378.000,514.500,476.000
3.066,12.500,377.500,514.500,476.000
3.067,15.000,377.000,514.500,476.000
3.068,16.500,376.500,514.500,476.000
3.069,17.000,376.500,514.500,476.000
3.070,17.000,376.500,514.500,476.000
3.071,16.500,376.500,514.500,476.000
3.072,16.000,376.500,515.000,476.000
3.073,17.000,377.000,515.000,476.000
3.074,18.000,377.000,515.000,476.500
3.075,18.500,377.500,515.500,476.500
3.076,18.500,378.000,515.500,477.000
3.077,18.000,378.000,515.500,476.500
3.078,16.500,378.000,515.500,476.500
3.079,15.000,378.000,515.000,476.000
3.080,14.500,378.000,515.000,475.500
3.081,14.500,378.000,515.000,475.000
3.082,16.000,378.000,515.500,475.000
3.083,17.500,378.000,515.500,475.500
3.084,19.000,378.000,515.500,475.500
3.085,19.000,378.500,515.500,475.500
3.086,17.000,378.500,515.500,476.000
3.087,13.500,378.500,515.500,476.000
3.088,10.500,378.000,515.000,475.500
3.089,9.000,377.500,514.500,475.500
3.090,9.000,377.500,514.000,475.000
3.091,10.500,377.000,514.000,475.000
3.092,12.000,377.000,513.500,475.000
3.093,13.500,376.500,514.000,474.500
3.094,15.000,376.500,514.000,474.500
3.095,17.000,377.000,514.000,474.500
3.096,18.500,377.000,514.000,474.500
3.097,20.000,377.000,514.000,474.500
3.098,20.500,377.000,514.000,474.000
3.099,20.500,377.000,514.000,474.000
3.100,19.500,377.000,514.000,474.000
3.101,19.000,377.000,513.500,474.000
3.102,18.000,376.500,513.500,473.500
3.103,17.000,376.500,513.500,473.500
3.104,15.500,376.500,513.500,473.500
3.105,14.000,376.000,513.500,473.500
3.106,13.500,376.000,513.500,473.500
3.107,13.500,376.000,513.000,474.000
3.108,14.000,376.000,513.000,474.000
3.109,14.000,376.000,513.000,474.000
3.110,12.000,376.000,513.000,474.500
3.111,9.500,376.000,513.000,474.500
3.112,8.000,376.000,513.000,474.500
3.113,7.500,376.000,513.000,474.500
3.114,7.000,376.000,513.500,474.500
3.115,7.000,376.000,513.500,474.500
3.116,7.000,376.500,513.500,474.500
3.117,7.500,376.500,514.000,474.500
3.118,7.500,377.000,514.000,475.000
3.119,7.500,377.000,514.000,475.000
3.120,7.500,377.000,514.500,475.000
3.121,7.000,377.000,514.000,475.000
3.122,6.500,377.000,514.000,475.000
3.123,5.500,377.000,514.000,475.000
3.124,4.500,377.000,513.500,475.000
3.125,3.500,377.000,513.500,475.000
3.126,2.500,376.500,513.500,475.000
3.127,2.000,376.500,513.500,475.000
3.128,2.000,376.000,513.500,474.500
3.129,3.000,376.000,513.500,474.500
3.130,3.500,376.500,513.500,475.000
3.131,4.000,376.500,513.500,475.000
3.132,4.000,376.500,513.500,475.000
3.133,3.500,376.500,513.000,475.000
3.134,3.500,376.500,513.000,475.000
3.135,4.000,376.000,512.500,474.500
3.136,5.500,375.500,512.000,474.500
3.137,7.500,375.500,512.000,474.500
3.138,9.500,375.500,512.000,474.000
3.139,11.000,375.500,512.000,474.000
3.140,12.000,375.000,512.000,474.000
3.141,12.500,375.000,512.000,474.000
3.142,13.000,374.500,512.000,473.500
3.143,12.500,374.000,512.000,473.500
3.144,11.500,373.500,511.500,473.500
3.145,10.500,373.500,511.500,473.500
3.146,9.500,373.000,511.500,473.500
3.147,9.000,373.000,511.500,473.500
3.148,8.500,373.000,511.500,473.500
3.149,9.000,373.000,511.500,473.500
3.150,9.500,373.000,511.500,473.500
3.151,10.500,373.000,511.500,473.500
3.152,12.000,373.500,512.000,473.500
3.153,13.000,373.500,512.000,474.000
3.154,14.000,373.500,512.000,474.000
3.155,14.000,373.500,512.500,474.000
3.156,12.500,374.000,512.500,474.000
3.157,10.500,374.000,512.500,474.000
3.158,9.000,374.000,512.500,473.500
3.159,7.000,374.500,513.000,473.500
3.160,5.500,375.000,513.000,473.500
3.161,4.000,375.000,513.500,474.000
3.162,3.000,375.500,513.500,474.000
3.163,2.500,375.000,513.500,474.000
3.164,2.500,375.000,513.500,473.500
3.165,3.500,374.500,513.000,473.500
3.166,4.500,374.000,512.500,473.000
3.167,5.500,373.500,512.000,473.000
3.168,6.500,373.000,512.000,473.000
3.169,6.000,373.000,512.000,473.000
3.170,5.000,373.000,512.000,473.500
3.171,4.000,373.000,512.000,473.500
3.172,3.000,373.500,512.500,474.000
3.173,2.500,374.000,513.000,474.000
3.174,2.000,374.500,513.500,474.500
3.175,2.500,375.000,513.500,474.500
3.176,4.000,375.500,513.500,474.500
3.177,4.500,375.000,513.500,474.500
3.178,4.500,375.000,513.000,474.000
3.179,3.500,375.000,513.000,474.000
3.180,2.500,375.000,513.000,474.000
3.181,2.500,375.000,512.500,473.500
3.182,3.000,375.000,512.500,474.000
3.183,4.000,375.000,512.500,474.000
3.184,4.000,375.000,512.500,474.000
3.185,3.000,375.000,512.500,474.500
3.186,1.000,375.000,512.500,475.000
3.187,-1.000,375.500,512.500,475.000
3.188,-1.500,375.500,513.000,475.500
3.189,-1.000,375.500,513.000,476.000
3.190,0.500,375.000,512.500,476.000
3.191,1.500,375.000,512.500,475.500
3.192,1.500,375.000,512.500,475.500
3.193,1.000,375.000,512.500,475.500
3.194,1.000,375.500,512.500,475.500
3.195,1.000,375.500,512.500,475.500
3.196,2.000,375.500,512.500,475.500
3.197,3.500,375.500,512.000,475.500
3.198,4.500,375.500,512.000,475.500
3.199,4.000,375.000,512.000,475.500
3.200,2.000,375.000,512.000,475.500
3.201,-0.500,375.000,512.000,476.000
3.202,-1.500,375.000,512.000,476.000
3.203,-1.500,375.000,512.000,475.500
3.204,0.000,374.500,512.000,475.500
3.205,2.000,374.500,511.500,475.000
3.206,3.000,374.000,511.500,474.500
3.207,3.500,374.000,511.500,474.500
3.208,3.000,374.000,511.500,474.500
3.209,2.000,374.500,511.000,474.500
3.210,0.000,374.500,511.000,474.000
3.211,-1.500,374.500,511.000,474.000
3.212,-2.500,375.000,511.000,474.500
3.213,-2.500,375.000,511.000,474.500
3.214,-2.000,375.500,511.000,475.000
3.215,-1.000,376.000,511.500,475.500
3.216,0.000,376.500,511.500,476.000
3.217,1.500,377.000,511.500,476.000
3.218,2.500,377.000,511.500,476.000
3.219,3.000,377.500,511.500,476.000
3.220,2.500,377.500,511.500,476.000
3.221,2.500,377.500,512.000,476.000
3.222,2.500,377.500,512.000,476.000
3.223,3.500,378.000,512.000,476.000
3.224,5.000,378.000,512.000,476.500
3.225,6.500,378.000,512.500,476.500
3.226,8.000,378.000,512.500,476.500
3.227,8.000,378.000,512.500,476.500
3.228,6.500,378.000,512.500,476.500
3.229,4.500,378.000,512.500,477.000
3.230,2.500,378.000,512.500,477.000
3.231,2.000,378.000,512.500,477.500
3.232,3.000,378.000,512.500,477.500
3.233,4.500,378.000,512.500,477.000
3.234,5.000,378.000,512.500,477.000
3.235,4.000,378.000,512.000,477.000
3.236,3.500,378.000,512.000,477.000
3.237,2.500,378.000,512.000,477.000
3.238,2.000,378.000,512.000,477.000
3.239,1.500,378.000,512.000,477.000
3.240,1.500,378.000,511.500,477.000
3.241,2.000,377.500,511.500,476.500
3.242,3.000,377.000,511.500,476.500
3.243,4.000,377.000,511.000,476.500
3.244,5.500,376.500,511.000,476.500
3.245,6.000,376.000,511.000,476.500
3.246,5.000,375.500,510.500,476.000
3.247,4.000,375.000,510.500,476.000
3.248,2.500,375.000,510.000,476.000
3.249,1.000,375.000,510.000,475.500
3.250,0.000,375.000,510.000,475.500
3.251,-1.000,375.000,510.000,476.000
3.252,-2.500,375.000,510.000,476.000
3.253,-3.000,375.000,510.000,476.000
3.254,-3.000,375.000,510.000,476.000
3.255,-2.000,375.000,510.000,476.000
3.256,-0.500,375.000,509.500,476.000
3.257,0.500,375.000,509.500,475.500
