'Elapsed time','AECG1','AECG2','AECG3','AECG4'
'seconds','uV','uV','uV','uV'
0.000,-141.500,-109.000,-110.000,-143.500
0.001,-137.500,-105.000,-106.000,-139.500
0.002,-134.000,-101.500,-102.500,-136.500
0.003,-132.000,-99.000,-100.500,-134.500
0.004,-132.000,-98.500,-99.500,-133.500
0.005,-133.500,-99.000,-99.500,-134.000
0.006,-135.500,-100.000,-100.000,-135.000
0.007,-136.500,-101.000,-100.500,-135.000
0.008,-137.000,-101.000,-100.000,-134.500
0.009,-138.000,-101.500,-100.500,-134.500
0.010,-139.000,-103.000,-101.500,-135.000
0.011,-141.500,-105.500,-103.500,-137.500
0.012,-144.000,-108.000,-106.500,-140.000
0.013,-146.000,-111.000,-109.500,-143.000
0.014,-148.000,-113.000,-112.000,-146.000
0.015,-149.000,-115.000,-114.000,-148.500
0.016,-149.000,-116.000,-116.000,-149.500
0.017,-148.500,-116.000,-116.000,-149.500
0.018,-146.500,-114.500,-115.000,-148.000
0.019,-144.500,-112.500,-113.000,-146.000
0.020,-142.000,-110.000,-111.000,-144.000
0.021,-140.500,-108.000,-109.000,-142.000
0.022,-139.500,-106.500,-107.000,-140.500
0.023,-139.000,-105.500,-106.000,-140.000
0.024,-139.500,-105.500,-105.500,-139.500
0.025,-141.000,-106.000,-106.000,-140.000
0.026,-143.000,-107.500,-106.500,-141.000
0.027,-145.000,-108.500,-108.000,-142.000
0.028,-146.000,-109.500,-108.500,-142.500
0.029,-146.500,-110.000,-108.500,-142.500
0.030,-147.000,-110.500,-109.000,-142.500
0.031,-147.500,-111.000,-109.500,-142.500
0.032,-148.500,-112.500,-111.000,-144.000
0.033,-150.000,-114.500,-113.500,-146.500
0.034,-152.500,-117.500,-117.000,-150.000
0.035,-155.500,-121.000,-121.000,-154.000
0.036,-157.500,-123.500,-124.000,-157.000
0.037,-157.500,-124.500,-125.500,-158.000
0.038,-156.000,-124.000,-125.000,-157.500
0.039,-153.500,-121.500,-123.000,-155.500
0.040,-150.500,-119.000,-120.500,-152.500
0.041,-147.000,-115.000,-117.000,-149.500
0.042,-144.000,-111.500,-113.000,-146.000
0.043,-141.500,-108.500,-109.500,-143.000
0.044,-141.000,-107.000,-107.500,-141.500
0.045,-141.500,-107.000,-107.000,-141.000
0.046,-143.000,-108.000,-107.500,-142.000
0.047,-145.000,-109.000,-108.500,-142.500
0.048,-146.000,-110.000,-109.500,-143.000
0.049,-147.000,-111.000,-110.000,-144.000
0.050,-148.500,-113.000,-112.000,-145.000
0.051,-151.000,-115.500,-114.500,-147.500
0.052,-154.000,-119.000,-117.500,-151.000
0.053,-156.500,-122.000,-121.000,-154.000
0.054,-158.500,-124.500,-123.500,-157.000
0.055,-160.000,-126.000,-125.500,-159.000
0.056,-160.000,-126.500,-126.500,-160.000
0.057,-158.500,-125.500,-126.000,-159.500
0.058,-156.000,-123.500,-124.000,-157.000
0.059,-152.000,-120.000,-120.500,-154.000
0.060,-148.500,-116.000,-117.000,-150.000
0.061,-144.500,-112.000,-113.000,-146.500
0.062,-142.000,-109.000,-110.000,-143.500
0.063,-141.000,-107.000,-107.500,-142.000
0.064,-142.000,-107.000,-107.000,-141.500
0.065,-144.000,-108.500,-108.000,-143.000
0.066,-146.500,-110.500,-109.500,-144.500
0.067,-148.500,-112.000,-111.000,-146.000
0.068,-149.500,-113.500,-112.000,-146.500
0.069,-150.500,-114.000,-112.500,-146.500
0.070,-151.000,-114.000,-113.000,-146.500
0.071,-151.000,-114.500,-113.000,-146.500
0.072,-151.500,-115.500,-114.000,-147.500
0.073,-153.000,-117.000,-116.000,-149.500
0.074,-155.500,-120.500,-119.500,-153.000
0.075,-158.500,-124.000,-123.500,-157.000
0.076,-161.500,-128.000,-127.500,-160.500
0.077,-162.500,-130.000,-130.000,-163.000
0.078,-162.500,-130.500,-130.500,-163.500
0.079,-160.500,-128.500,-129.000,-162.000
0.080,-157.500,-125.500,-126.000,-159.000
0.081,-153.500,-121.500,-121.500,-155.500
0.082,-150.000,-117.500,-117.000,-151.500
0.083,-147.000,-114.000,-113.500,-148.000
0.084,-146.000,-112.000,-111.000,-146.000
0.085,-146.500,-112.000,-110.500,-145.500
0.086,-148.000,-113.000,-111.000,-146.000
0.087,-150.000,-114.500,-112.000,-146.500
0.088,-151.500,-116.000,-113.000,-147.500
0.089,-153.000,-117.500,-114.500,-148.500
0.090,-155.000,-119.500,-116.500,-150.500
0.091,-157.500,-122.000,-119.000,-153.000
0.092,-160.000,-125.000,-122.000,-156.000
0.093,-161.500,-127.000,-124.500,-158.500
0.094,-162.500,-128.500,-126.500,-160.500
0.095,-162.500,-129.500,-128.500,-162.000
0.096,-162.500,-130.000,-130.000,-163.000
0.097,-162.000,-130.000,-130.500,-163.000
0.098,-160.500,-129.000,-129.500,-162.000
0.099,-158.500,-127.000,-128.000,-160.500
0.100,-155.500,-123.500,-124.500,-157.500
0.101,-151.500,-119.000,-120.000,-153.000
0.102,-147.000,-114.500,-115.000,-148.000
0.103,-143.500,-110.500,-111.000,-144.500
0.104,-142.500,-108.500,-109.000,-142.500
0.105,-144.000,-109.000,-109.000,-143.000
0.106,-146.000,-111.000,-111.000,-144.500
0.107,-149.000,-113.000,-112.500,-146.000
0.108,-151.000,-114.500,-114.500,-147.500
0.109,-152.500,-116.500,-116.000,-148.500
0.110,-154.500,-118.000,-117.500,-150.000
0.111,-155.500,-119.500,-118.500,-151.500
0.112,-157.000,-121.000,-120.000,-153.000
0.113,-158.500,-123.000,-122.500,-155.000
0.114,-160.500,-125.500,-125.500,-158.000
0.115,-162.500,-128.500,-129.000,-161.500
0.116,-165.000,-131.000,-132.500,-165.000
0.117,-165.500,-132.500,-134.500,-166.500
0.118,-164.500,-131.500,-134.000,-165.500
0.119,-161.000,-128.500,-131.000,-162.500
0.120,-156.500,-124.000,-127.000,-158.500
0.121,-152.500,-119.500,-122.500,-154.500
0.122,-150.500,-117.000,-120.000,-152.000
0.123,-150.500,-116.000,-119.000,-151.500
0.124,-151.500,-116.500,-119.500,-152.500
0.125,-153.500,-118.000,-120.500,-153.500
0.126,-155.500,-119.000,-121.000,-154.000
0.127,-156.500,-120.000,-121.000,-154.000
0.128,-156.500,-120.000,-120.500,-153.500
0.129,-156.000,-119.500,-120.000,-152.500
0.130,-156.000,-119.500,-119.500,-151.500
0.131,-157.000,-119.500,-119.500,-152.000
0.132,-158.500,-121.000,-121.000,-153.500
0.133,-160.500,-123.000,-123.500,-156.500
0.134,-162.500,-125.500,-126.500,-159.500
0.135,-164.000,-128.000,-129.500,-162.500
0.136,-164.500,-129.500,-131.500,-164.000
0.137,-163.500,-129.000,-132.000,-163.500
0.138,-161.000,-127.500,-130.500,-162.000
0.139,-158.000,-124.500,-127.500,-159.000
0.140,-154.500,-121.000,-124.000,-155.500
0.141,-151.500,-118.000,-121.000,-152.500
0.142,-149.000,-115.000,-118.000,-150.500
0.143,-148.000,-113.500,-116.500,-149.000
0.144,-148.000,-113.000,-116.000,-148.500
0.145,-149.000,-113.500,-116.000,-148.500
0.146,-150.500,-114.500,-116.500,-149.500
0.147,-151.500,-115.500,-117.000,-150.000
0.148,-152.500,-116.500,-117.500,-150.500
0.149,-153.500,-117.000,-118.000,-150.500
0.150,-154.500,-117.500,-119.000,-151.000
0.151,-155.500,-118.500,-120.000,-152.000
0.152,-157.000,-120.000,-121.500,-154.000
0.153,-160.500,-123.000,-125.000,-157.500
0.154,-164.500,-127.000,-129.500,-162.000
0.155,-168.000,-131.000,-134.000,-166.500
0.156,-170.000,-134.000,-137.000,-169.500
0.157,-170.000,-135.000,-138.500,-170.500
0.158,-168.000,-133.500,-137.500,-169.500
0.159,-165.000,-131.000,-135.000,-167.000
0.160,-161.000,-127.000,-131.000,-164.000
0.161,-157.000,-122.500,-127.000,-160.000
0.162,-154.000,-119.000,-123.000,-156.500
0.163,-152.000,-116.000,-120.000,-154.000
0.164,-151.500,-115.000,-118.500,-152.500
0.165,-152.500,-115.000,-118.500,-152.500
0.166,-154.500,-116.000,-119.000,-153.500
0.167,-157.000,-118.000,-121.000,-155.000
0.168,-160.500,-121.000,-123.500,-157.500
0.169,-164.000,-123.500,-126.000,-160.500
0.170,-166.500,-126.000,-128.000,-162.500
0.171,-168.000,-127.500,-129.500,-164.000
0.172,-169.000,-128.500,-130.500,-165.000
0.173,-170.000,-130.000,-132.500,-167.000
0.174,-171.500,-132.000,-134.500,-169.500
0.175,-172.500,-134.000,-137.000,-172.000
0.176,-172.500,-135.000,-138.500,-173.500
0.177,-171.000,-135.000,-139.000,-173.500
0.178,-168.500,-133.500,-137.500,-172.000
0.179,-165.000,-130.500,-135.000,-169.000
0.180,-160.500,-126.000,-130.500,-165.000
0.181,-155.500,-121.000,-125.000,-160.000
0.182,-151.500,-116.500,-120.500,-156.000
0.183,-149.500,-114.000,-117.500,-153.500
0.184,-151.000,-114.500,-118.000,-154.000
0.185,-154.500,-117.000,-120.000,-156.500
0.186,-157.500,-119.500,-122.500,-158.500
0.187,-159.500,-121.500,-124.000,-160.000
0.188,-161.000,-122.000,-125.000,-160.000
0.189,-161.500,-123.000,-125.500,-160.500
0.190,-162.500,-124.000,-126.500,-161.000
0.191,-164.000,-125.000,-127.500,-162.000
0.192,-165.500,-127.000,-129.500,-164.000
0.193,-167.500,-129.500,-132.500,-167.000
0.194,-169.500,-132.000,-135.500,-170.000
0.195,-172.000,-135.500,-139.000,-173.500
0.196,-173.500,-137.500,-141.500,-176.000
0.197,-173.500,-138.500,-142.000,-176.500
0.198,-172.000,-137.000,-140.500,-174.500
0.199,-168.500,-133.500,-136.500,-171.000
0.200,-164.000,-128.500,-132.000,-166.500
0.201,-159.500,-124.000,-127.500,-162.000
0.202,-155.500,-120.000,-123.500,-158.000
0.203,-153.500,-117.500,-120.500,-156.000
0.204,-153.500,-116.500,-119.500,-155.000
0.205,-154.500,-117.000,-119.500,-155.500
0.206,-156.500,-118.000,-120.500,-156.500
0.207,-158.000,-119.000,-121.000,-157.000
0.208,-159.000,-120.000,-121.000,-157.000
0.209,-159.500,-120.000,-121.000,-157.000
0.210,-160.500,-120.500,-121.000,-157.000
0.211,-161.500,-122.000,-122.000,-158.000
0.212,-163.500,-124.500,-124.000,-160.000
0.213,-166.000,-127.500,-127.500,-163.000
0.214,-169.000,-131.000,-131.000,-167.000
0.215,-172.000,-134.500,-135.000,-171.000
0.216,-173.500,-137.000,-138.000,-174.000
0.217,-174.000,-138.000,-139.500,-175.500
0.218,-173.000,-137.000,-139.000,-175.000
0.219,-170.000,-134.500,-136.500,-173.000
0.220,-166.500,-131.000,-132.500,-169.500
0.221,-161.500,-126.000,-128.000,-165.000
0.222,-157.000,-121.000,-123.000,-160.000
0.223,-153.500,-116.500,-118.000,-156.000
0.224,-151.000,-113.500,-115.000,-153.000
0.225,-149.500,-111.500,-113.000,-151.000
0.226,-149.000,-110.500,-111.500,-149.500
0.227,-148.500,-109.500,-110.000,-148.000
0.228,-147.000,-108.000,-108.500,-146.500
0.229,-146.000,-107.000,-107.500,-144.500
0.230,-145.500,-106.500,-107.000,-144.000
0.231,-146.000,-107.500,-107.500,-145.000
0.232,-148.000,-109.000,-109.500,-147.000
0.233,-150.500,-111.500,-112.500,-150.000
0.234,-152.000,-114.000,-115.000,-152.500
0.235,-153.000,-115.000,-116.500,-154.500
0.236,-152.000,-115.000,-116.500,-154.500
0.237,-150.000,-113.000,-114.500,-153.000
0.238,-146.000,-109.000,-111.000,-149.500
0.239,-141.000,-104.500,-106.500,-145.000
0.240,-135.500,-99.000,-101.500,-139.500
0.241,-131.000,-94.000,-96.500,-135.000
0.242,-127.000,-90.000,-92.500,-131.000
0.243,-125.000,-87.500,-90.000,-128.500
0.244,-125.000,-87.000,-89.000,-128.000
0.245,-127.500,-89.000,-90.000,-129.500
0.246,-131.000,-92.000,-93.000,-132.000
0.247,-135.500,-96.000,-96.500,-135.500
0.248,-140.000,-100.000,-100.000,-139.000
0.249,-144.000,-104.000,-104.000,-142.500
0.250,-148.000,-108.000,-107.500,-145.500
0.251,-151.000,-111.500,-111.000,-149.000
0.252,-154.000,-115.000,-114.500,-152.500
0.253,-156.500,-117.500,-117.500,-155.500
0.254,-158.500,-120.000,-120.500,-158.000
0.255,-159.500,-121.500,-122.500,-160.000
0.256,-159.500,-122.000,-123.500,-161.000
0.257,-157.500,-121.000,-123.000,-160.500
0.258,-154.500,-118.500,-120.500,-158.000
0.259,-150.000,-114.000,-116.500,-153.500
0.260,-144.500,-108.500,-111.000,-148.500
0.261,-139.000,-103.000,-105.000,-143.000
0.262,-133.500,-97.000,-99.000,-137.500
0.263,-129.000,-92.000,-94.000,-132.500
0.264,-126.000,-88.500,-90.000,-129.500
0.265,-125.000,-86.500,-88.500,-128.000
0.266,-125.000,-86.000,-88.000,-127.500
0.267,-125.000,-85.500,-87.500,-127.500
0.268,-125.000,-85.000,-87.000,-127.000
0.269,-124.500,-84.000,-86.000,-126.000
0.270,-123.500,-83.000,-85.500,-125.000
0.271,-123.000,-83.000,-85.500,-125.000
0.272,-123.500,-83.500,-86.500,-126.500
0.273,-125.000,-85.500,-89.500,-129.500
0.274,-127.000,-89.000,-93.500,-134.000
0.275,-130.500,-93.500,-99.000,-139.500
0.276,-135.000,-98.500,-104.500,-144.500
0.277,-139.000,-103.500,-109.500,-149.000
0.278,-142.500,-107.500,-112.500,-151.000
0.279,-145.000,-109.500,-113.500,-151.000
0.280,-145.500,-110.000,-112.000,-149.000
0.281,-144.000,-107.500,-108.500,-144.500
0.282,-140.500,-104.000,-103.500,-138.500
0.283,-137.500,-99.500,-98.000,-132.500
0.284,-136.000,-97.000,-94.500,-129.000
0.285,-136.500,-97.000,-93.500,-127.500
0.286,-139.000,-98.500,-95.000,-129.000
0.287,-143.000,-102.000,-98.500,-133.000
0.288,-147.500,-106.500,-103.500,-138.000
0.289,-152.000,-111.000,-108.000,-143.000
0.290,-154.500,-114.000,-112.000,-147.000
0.291,-156.000,-115.500,-114.000,-149.500
0.292,-156.000,-115.500,-115.000,-151.000
0.293,-155.500,-115.500,-116.000,-152.000
0.294,-156.500,-117.000,-118.000,-154.500
0.295,-159.000,-120.000,-121.500,-158.000
0.296,-162.000,-123.500,-126.000,-162.500
0.297,-165.000,-127.000,-130.000,-166.500
0.298,-166.500,-129.000,-132.000,-168.500
0.299,-166.000,-129.000,-132.000,-168.500
0.300,-164.500,-128.000,-130.500,-167.500
0.301,-162.500,-125.500,-128.000,-165.000
0.302,-160.500,-123.500,-125.500,-163.000
0.303,-159.500,-122.000,-124.000,-161.500
0.304,-160.000,-122.000,-123.500,-161.500
0.305,-162.000,-123.500,-125.000,-162.500
0.306,-165.500,-126.000,-127.500,-165.000
0.307,-169.000,-129.000,-130.500,-167.500
0.308,-172.000,-132.000,-133.000,-170.000
0.309,-175.000,-134.500,-135.500,-172.000
0.310,-177.000,-136.500,-137.500,-174.000
0.311,-177.500,-137.500,-138.500,-175.000
0.312,-177.500,-138.000,-139.000,-175.500
0.313,-177.000,-137.500,-139.000,-175.500
0.314,-176.000,-137.500,-139.000,-175.500
0.315,-176.000,-137.500,-139.500,-176.000
0.316,-176.000,-138.500,-141.000,-177.000
0.317,-176.000,-139.000,-142.000,-178.000
0.318,-175.000,-138.000,-142.000,-177.500
0.319,-172.500,-136.500,-140.500,-175.500
0.320,-170.000,-134.000,-138.000,-173.500
0.321,-168.500,-131.500,-136.000,-171.500
0.322,-167.000,-130.000,-133.500,-170.000
0.323,-167.000,-128.500,-132.000,-168.500
0.324,-167.000,-127.500,-130.500,-167.500
0.325,-167.500,-127.500,-130.500,-167.500
0.326,-169.000,-128.000,-131.000,-167.500
0.327,-170.000,-129.000,-132.000,-168.500
0.328,-171.000,-130.500,-132.500,-169.000
0.329,-172.000,-131.500,-134.000,-170.000
0.330,-173.000,-132.500,-135.000,-170.500
0.331,-174.000,-134.000,-136.500,-172.000
0.332,-175.000,-136.000,-138.500,-173.500
0.333,-177.000,-138.000,-140.500,-176.000
0.334,-179.000,-140.500,-143.500,-178.500
0.335,-181.000,-143.000,-145.500,-181.000
0.336,-181.500,-144.500,-147.000,-182.000
0.337,-180.500,-144.000,-147.000,-182.000
0.338,-178.500,-142.500,-146.000,-180.000
0.339,-175.000,-139.500,-143.000,-177.000
0.340,-170.500,-135.500,-139.500,-173.500
0.341,-166.500,-131.000,-135.500,-169.500
0.342,-163.500,-127.500,-132.000,-166.500
0.343,-161.500,-125.000,-129.500,-164.000
0.344,-162.000,-125.000,-129.000,-164.000
0.345,-164.500,-127.000,-130.500,-165.500
0.346,-168.500,-130.500,-133.500,-168.500
0.347,-173.000,-134.000,-137.000,-172.000
0.348,-177.500,-138.000,-140.500,-175.500
0.349,-181.500,-142.000,-144.000,-178.500
0.350,-185.000,-145.500,-147.000,-182.000
0.351,-188.500,-149.000,-150.500,-185.500
0.352,-191.500,-152.000,-154.000,-188.500
0.353,-193.500,-154.500,-157.000,-191.500
0.354,-195.000,-156.000,-159.000,-193.500
0.355,-195.000,-157.000,-160.000,-194.500
0.356,-193.500,-156.500,-159.500,-194.000
0.357,-190.000,-153.500,-157.000,-191.000
0.358,-184.000,-147.500,-151.500,-185.000
0.359,-174.500,-138.500,-142.500,-175.500
0.360,-161.000,-125.000,-128.500,-162.000
0.361,-144.000,-107.500,-111.000,-144.500
0.362,-124.000,-87.000,-90.000,-123.500
0.363,-102.000,-64.500,-67.000,-100.500
0.364,-80.000,-41.500,-43.500,-77.000
0.365,-58.000,-18.500,-20.000,-53.000
0.366,-35.000,5.500,5.000,-28.000
0.367,-10.500,30.000,30.500,-2.000
0.368,15.000,56.000,57.500,26.000
0.369,41.500,82.500,85.500,54.500
0.370,69.000,109.500,113.500,83.500
0.371,96.500,137.500,142.000,112.500
0.372,125.000,166.000,170.500,142.000
0.373,152.500,194.000,199.000,170.500
0.374,179.500,221.000,226.000,198.000
0.375,207.000,248.000,253.500,225.500
0.376,237.000,277.500,283.000,256.000
0.377,272.000,312.000,318.000,291.000
0.378,312.500,352.000,358.500,332.000
0.379,357.500,397.000,403.500,378.000
0.380,404.500,444.000,451.500,426.000
0.381,451.500,491.000,499.000,474.000
0.382,496.000,536.500,545.500,520.500
0.383,536.500,578.500,587.500,563.000
0.384,571.000,613.500,624.000,599.000
0.385,596.000,640.000,650.500,626.000
0.386,608.000,653.000,664.000,639.500
0.387,604.500,651.000,662.000,637.500
0.388,585.000,632.000,643.000,618.500
0.389,550.500,598.000,608.500,584.000
0.390,504.500,552.000,561.500,536.500
0.391,449.000,496.500,505.000,479.500
0.392,385.500,432.500,440.000,414.000
0.393,314.500,361.000,367.000,340.000
0.394,237.500,283.000,287.000,258.500
0.395,158.000,202.000,204.000,174.500
0.396,82.000,124.500,124.500,93.500
0.397,14.500,55.500,53.500,22.500
0.398,-42.000,-2.000,-5.500,-37.500
0.399,-87.500,-48.500,-53.000,-85.500
0.400,-123.500,-85.500,-90.500,-123.500
0.401,-152.000,-114.000,-120.000,-153.500
0.402,-174.500,-136.500,-142.500,-176.500
0.403,-191.500,-153.500,-159.500,-193.500
0.404,-204.500,-166.000,-171.000,-206.000
0.405,-213.500,-174.500,-179.000,-214.500
0.406,-219.500,-180.000,-184.000,-219.500
0.407,-223.500,-183.500,-187.000,-222.500
0.408,-225.500,-185.500,-188.000,-223.500
0.409,-226.000,-185.500,-188.000,-222.500
0.410,-224.500,-183.500,-185.500,-220.500
0.411,-221.500,-180.500,-182.500,-217.000
0.412,-218.000,-177.000,-179.000,-213.000
0.413,-214.000,-173.000,-175.000,-209.500
0.414,-210.000,-169.500,-172.000,-206.000
0.415,-206.500,-166.500,-169.500,-203.000
0.416,-203.000,-164.000,-167.000,-200.500
0.417,-198.500,-160.500,-164.500,-197.000
0.418,-193.500,-156.000,-160.500,-193.000
0.419,-187.000,-150.500,-154.500,-187.500
0.420,-180.000,-143.500,-147.500,-180.500
0.421,-172.000,-135.500,-139.500,-172.500
0.422,-165.000,-128.000,-132.000,-165.000
0.423,-159.500,-121.500,-125.500,-159.000
0.424,-156.000,-117.500,-121.500,-155.000
0.425,-154.500,-115.500,-119.000,-152.500
0.426,-153.500,-114.000,-117.500,-151.000
0.427,-153.000,-113.500,-117.000,-150.000
0.428,-153.500,-114.500,-117.500,-150.500
0.429,-156.500,-117.500,-120.500,-153.000
0.430,-161.500,-122.000,-125.500,-157.500
0.431,-166.500,-127.500,-130.500,-163.000
0.432,-171.000,-132.000,-135.000,-167.000
0.433,-173.500,-134.500,-137.500,-170.000
0.434,-174.500,-136.500,-139.500,-172.000
0.435,-175.500,-138.000,-141.500,-173.500
0.436,-176.500,-139.000,-143.000,-175.500
0.437,-176.500,-139.500,-143.500,-176.000
0.438,-175.000,-139.000,-143.000,-175.500
0.439,-173.000,-136.500,-141.000,-173.500
0.440,-169.500,-133.000,-138.000,-170.000
0.441,-166.000,-129.000,-134.000,-166.500
0.442,-163.000,-125.000,-130.500,-163.000
0.443,-160.500,-122.500,-127.000,-160.500
0.444,-160.000,-120.500,-125.500,-159.000
0.445,-160.500,-120.500,-125.000,-159.000
0.446,-161.500,-121.000,-125.000,-159.500
0.447,-163.500,-122.500,-126.000,-160.000
0.448,-165.000,-123.500,-127.000,-160.500
0.449,-166.000,-124.500,-127.500,-161.000
0.450,-167.000,-126.000,-128.500,-161.500
0.451,-168.000,-126.500,-129.500,-162.500
0.452,-168.500,-127.500,-130.000,-163.500
0.453,-169.000,-128.000,-131.000,-164.500
0.454,-170.000,-129.500,-132.500,-166.500
0.455,-171.000,-131.000,-134.500,-168.500
0.456,-172.000,-132.500,-136.500,-170.000
0.457,-171.500,-133.000,-137.000,-170.500
0.458,-170.000,-131.500,-135.500,-168.500
0.459,-166.500,-128.500,-132.000,-165.500
0.460,-162.500,-124.000,-127.500,-161.000
0.461,-158.000,-119.000,-122.500,-156.000
0.462,-154.000,-115.000,-118.500,-152.000
0.463,-152.500,-112.500,-115.500,-149.500
0.464,-152.500,-112.000,-115.000,-149.500
0.465,-154.500,-113.500,-116.500,-151.000
0.466,-157.500,-116.500,-119.500,-154.000
0.467,-160.500,-120.000,-122.000,-156.500
0.468,-163.000,-122.500,-124.500,-158.500
0.469,-165.000,-124.500,-126.500,-160.000
0.470,-166.500,-126.000,-128.000,-161.000
0.471,-167.500,-127.000,-129.500,-162.000
0.472,-168.500,-128.500,-131.000,-164.000
0.473,-170.000,-130.000,-133.000,-166.000
0.474,-171.000,-132.000,-134.500,-168.000
0.475,-171.500,-133.000,-136.000,-169.500
0.476,-171.000,-133.500,-137.000,-170.500
0.477,-170.000,-133.000,-136.500,-170.000
0.478,-168.000,-131.500,-135.500,-168.500
0.479,-165.500,-129.000,-133.500,-166.500
0.480,-162.500,-126.000,-131.000,-163.500
0.481,-159.000,-122.500,-127.000,-160.000
0.482,-155.500,-118.000,-122.500,-155.500
0.483,-152.500,-114.500,-119.000,-152.000
0.484,-151.500,-112.000,-116.500,-149.500
0.485,-151.500,-112.000,-115.500,-149.000
0.486,-153.000,-113.000,-116.500,-149.500
0.487,-155.000,-114.500,-117.500,-150.500
0.488,-157.500,-116.500,-119.000,-152.000
0.489,-159.500,-118.500,-120.500,-153.000
0.490,-160.500,-119.500,-121.000,-153.500
0.491,-160.500,-119.500,-121.000,-154.000
0.492,-160.000,-119.500,-121.000,-154.000
0.493,-160.500,-120.000,-122.000,-155.000
0.494,-161.000,-121.500,-123.500,-157.000
0.495,-162.500,-123.500,-126.000,-160.000
0.496,-164.500,-126.000,-128.500,-162.500
0.497,-165.000,-127.500,-130.500,-164.000
0.498,-163.500,-126.500,-130.000,-163.000
0.499,-160.000,-123.500,-127.000,-160.000
0.500,-155.000,-118.500,-122.000,-155.000
0.501,-149.500,-112.500,-116.000,-149.500
0.502,-144.500,-107.000,-110.500,-144.500
0.503,-141.000,-103.000,-106.500,-140.500
0.504,-140.000,-101.000,-104.500,-138.500
0.505,-140.500,-101.500,-104.500,-138.500
0.506,-142.500,-103.000,-106.000,-139.500
0.507,-144.500,-104.500,-107.000,-141.000
0.508,-146.500,-106.500,-108.000,-142.000
0.509,-148.000,-107.500,-109.000,-143.000
0.510,-149.000,-108.500,-109.500,-143.000
0.511,-149.500,-109.000,-109.500,-143.500
0.512,-149.500,-109.000,-109.500,-143.500
0.513,-149.500,-109.500,-110.500,-144.500
0.514,-150.500,-111.000,-112.000,-146.000
0.515,-152.500,-113.500,-115.000,-148.500
0.516,-154.000,-115.500,-117.500,-151.000
0.517,-154.500,-116.500,-119.000,-152.000
0.518,-152.500,-115.500,-118.000,-150.500
0.519,-148.500,-112.000,-114.000,-146.500
0.520,-143.500,-106.500,-109.000,-141.500
0.521,-138.000,-101.000,-104.000,-136.500
0.522,-134.000,-97.000,-99.500,-132.500
0.523,-132.500,-94.500,-97.000,-130.000
0.524,-132.500,-94.000,-96.500,-129.500
0.525,-134.000,-94.500,-97.000,-129.500
0.526,-135.500,-95.500,-97.000,-130.000
0.527,-137.000,-96.000,-97.000,-130.000
0.528,-137.500,-96.000,-97.000,-129.000
0.529,-137.500,-96.000,-96.500,-128.500
0.530,-138.000,-96.500,-96.000,-128.000
0.531,-138.000,-96.500,-96.000,-128.000
0.532,-138.000,-97.000,-97.000,-128.500
0.533,-138.500,-98.000,-98.500,-129.500
0.534,-139.500,-99.500,-100.500,-131.500
0.535,-141.000,-101.500,-103.000,-134.000
0.536,-142.000,-103.000,-104.500,-135.500
0.537,-141.500,-103.000,-105.000,-136.000
0.538,-139.500,-101.500,-103.500,-134.000
0.539,-136.000,-98.500,-100.500,-131.000
0.540,-131.500,-94.000,-96.500,-127.500
0.541,-127.000,-89.500,-92.500,-123.000
0.542,-123.000,-85.000,-88.000,-119.000
0.543,-120.000,-81.000,-84.500,-115.500
0.544,-118.000,-79.000,-81.500,-113.000
0.545,-118.000,-78.000,-80.500,-112.000
0.546,-118.500,-78.500,-80.500,-112.000
0.547,-119.500,-79.500,-81.000,-112.500
0.548,-121.000,-80.500,-81.500,-113.000
0.549,-121.500,-81.500,-82.000,-113.500
0.550,-122.500,-81.500,-82.500,-113.500
0.551,-122.500,-82.000,-83.000,-113.500
0.552,-123.000,-82.500,-84.000,-114.500
0.553,-124.000,-83.000,-85.000,-115.500
0.554,-124.500,-84.000,-86.500,-116.500
0.555,-125.000,-84.500,-87.000,-117.500
0.556,-124.500,-84.500,-87.500,-118.000
0.557,-123.500,-84.000,-87.500,-117.500
0.558,-121.000,-82.000,-85.500,-115.500
0.559,-117.500,-78.500,-82.500,-112.500
0.560,-113.000,-74.000,-77.500,-107.500
0.561,-107.500,-68.000,-71.500,-102.000
0.562,-102.000,-62.000,-65.500,-96.500
0.563,-98.500,-57.500,-60.000,-92.000
0.564,-96.500,-54.500,-57.000,-89.000
0.565,-96.500,-54.000,-55.500,-88.500
0.566,-98.000,-55.000,-56.000,-89.000
0.567,-100.000,-56.500,-57.000,-90.000
0.568,-101.000,-57.500,-58.000,-90.500
0.569,-102.000,-57.500,-58.500,-90.500
0.570,-101.500,-57.000,-57.500,-89.500
0.571,-100.000,-55.500,-56.500,-88.000
0.572,-98.000,-53.500,-54.500,-86.500
0.573,-96.000,-52.000,-53.500,-85.000
0.574,-95.500,-51.500,-53.000,-85.000
0.575,-96.000,-52.500,-54.500,-86.000
0.576,-97.500,-54.500,-57.000,-88.500
0.577,-98.500,-55.500,-59.000,-90.000
0.578,-98.000,-55.500,-59.000,-90.000
0.579,-95.000,-52.500,-56.500,-87.500
0.580,-90.000,-47.500,-51.500,-82.500
0.581,-83.500,-41.000,-45.000,-76.000
0.582,-76.500,-33.500,-37.500,-68.500
0.583,-70.500,-27.500,-30.500,-62.500
0.584,-66.000,-22.500,-26.000,-57.500
0.585,-64.000,-20.000,-23.000,-54.500
0.586,-63.000,-19.500,-22.000,-53.500
0.587,-63.500,-19.500,-22.000,-53.000
0.588,-64.000,-20.000,-22.000,-53.500
0.589,-64.500,-20.500,-22.500,-53.500
0.590,-64.500,-20.500,-22.500,-53.000
0.591,-64.000,-20.500,-22.000,-52.500
0.592,-63.500,-19.500,-21.000,-52.000
0.593,-62.500,-18.500,-20.500,-51.500
0.594,-61.000,-18.000,-20.000,-51.000
0.595,-59.500,-17.000,-19.500,-50.000
0.596,-57.500,-15.500,-18.500,-49.000
0.597,-55.000,-13.500,-16.500,-47.000
0.598,-51.500,-10.500,-13.500,-44.000
0.599,-47.000,-6.500,-9.500,-39.500
0.600,-41.500,-1.000,-4.000,-34.000
0.601,-35.500,5.500,3.000,-27.500
0.602,-29.000,12.500,10.500,-20.500
0.603,-23.500,19.000,16.500,-14.500
0.604,-20.000,22.500,21.000,-10.500
0.605,-19.000,24.000,23.000,-8.500
0.606,-19.000,24.000,23.500,-8.000
0.607,-19.000,24.000,24.500,-7.500
0.608,-19.000,24.500,25.500,-6.000
0.609,-17.500,26.000,27.500,-3.500
0.610,-16.000,27.500,29.500,-1.000
0.611,-13.500,29.500,32.000,1.500
0.612,-11.500,31.500,34.000,3.500
0.613,-10.000,33.000,35.000,5.000
0.614,-9.000,33.500,35.000,5.000
0.615,-9.000,33.000,34.000,4.500
0.616,-9.000,32.000,33.000,3.500
0.617,-7.500,32.500,32.500,4.000
0.618,-5.000,34.500,34.500,6.000
0.619,-0.500,38.500,38.000,10.000
0.620,5.500,44.500,44.000,16.000
0.621,12.500,51.500,51.000,22.500
0.622,19.000,58.500,58.000,29.500
0.623,24.500,64.500,64.000,35.500
0.624,27.500,68.500,68.000,39.000
0.625,28.000,70.000,70.000,41.000
0.626,27.000,70.000,70.500,41.000
0.627,26.000,69.500,70.000,41.000
0.628,25.000,69.000,70.000,41.000
0.629,25.000,69.500,70.500,42.000
0.630,26.000,70.500,71.500,43.500
0.631,26.500,71.500,73.000,45.000
0.632,27.000,72.500,74.000,45.500
0.633,27.000,72.000,74.000,45.500
0.634,26.500,71.500,73.000,44.500
0.635,25.500,70.000,71.500,42.500
0.636,25.500,69.000,70.000,41.500
0.637,26.000,69.000,69.500,41.000
0.638,28.000,70.500,70.000,42.000
0.639,31.500,73.000,72.500,44.500
0.640,35.500,77.500,76.500,48.500
0.641,40.000,82.500,81.000,53.000
0.642,44.500,87.500,86.500,58.500
0.643,48.500,92.500,91.000,62.500
0.644,50.000,95.000,94.000,65.500
0.645,49.500,96.000,95.000,66.500
0.646,48.000,95.000,94.500,65.500
0.647,45.500,93.000,93.000,64.000
0.648,43.000,91.000,91.000,62.000
0.649,41.000,89.000,89.000,60.500
0.650,39.500,87.000,87.500,59.000
0.651,37.000,85.000,85.000,57.000
0.652,34.500,82.000,82.000,54.000
0.653,31.000,78.000,78.000,49.500
0.654,27.000,73.500,73.000,44.500
0.655,23.500,69.000,67.500,39.000
0.656,19.500,64.500,62.000,34.000
0.657,16.500,60.500,57.500,30.000
0.658,14.500,58.000,54.500,27.500
0.659,14.500,57.500,53.500,26.500
0.660,15.500,58.500,54.500,27.500
0.661,17.000,61.000,56.500,29.000
0.662,18.500,62.500,58.000,30.000
0.663,19.000,63.500,59.000,30.000
0.664,17.000,62.000,57.500,28.500
0.665,13.000,58.500,54.500,25.000
0.666,8.000,54.000,50.000,20.500
0.667,2.500,48.500,45.000,15.500
0.668,-3.500,43.000,39.500,10.500
0.669,-9.000,37.500,34.500,5.500
0.670,-14.000,32.500,29.500,0.500
0.671,-19.000,28.000,25.000,-4.500
0.672,-23.000,23.500,20.500,-9.000
0.673,-27.500,19.000,16.000,-14.000
0.674,-32.500,13.500,10.000,-19.500
0.675,-38.500,7.000,3.000,-26.500
0.676,-44.500,0.500,-4.000,-33.500
0.677,-49.000,-4.500,-10.000,-39.000
0.678,-51.500,-7.500,-13.500,-42.000
0.679,-52.000,-8.500,-15.000,-44.000
0.680,-52.000,-8.500,-15.000,-44.500
0.681,-51.500,-8.000,-15.000,-44.500
0.682,-51.000,-7.000,-14.500,-44.500
0.683,-52.000,-7.000,-14.500,-45.500
0.684,-54.000,-8.500,-16.000,-47.500
0.685,-58.500,-11.500,-19.000,-51.500
0.686,-64.000,-16.000,-24.000,-56.500
0.687,-69.500,-21.500,-29.500,-61.500
0.688,-75.000,-26.500,-35.000,-67.000
0.689,-80.000,-31.500,-40.000,-72.500
0.690,-84.500,-36.500,-45.000,-77.500
0.691,-89.500,-41.500,-50.500,-82.500
0.692,-94.000,-47.000,-56.000,-88.000
0.693,-99.500,-53.000,-62.000,-93.500
0.694,-106.000,-60.000,-68.500,-98.500
0.695,-112.000,-67.000,-74.500,-103.500
0.696,-117.000,-72.000,-79.000,-107.000
0.697,-119.500,-75.500,-81.500,-108.500
0.698,-120.000,-76.000,-81.500,-107.500
0.699,-118.500,-74.500,-79.000,-105.000
0.700,-115.000,-71.000,-75.000,-101.000
0.701,-111.500,-67.000,-71.000,-97.000
0.702,-108.000,-63.000,-66.500,-93.000
0.703,-105.500,-59.500,-64.000,-91.000
0.704,-104.500,-58.500,-63.000,-91.000
0.705,-105.000,-59.000,-64.500,-92.500
0.706,-107.500,-61.000,-67.000,-96.000
0.707,-111.500,-64.500,-71.000,-100.000
0.708,-116.000,-69.000,-76.000,-105.500
0.709,-120.500,-73.500,-80.500,-110.500
0.710,-124.500,-78.000,-84.500,-114.500
0.711,-127.000,-81.000,-88.000,-118.000
0.712,-129.000,-83.500,-90.500,-120.500
0.713,-131.000,-86.000,-93.500,-123.500
0.714,-133.500,-88.500,-96.500,-126.500
0.715,-136.000,-91.500,-99.500,-130.000
0.716,-138.500,-94.500,-102.500,-133.000
0.717,-140.500,-96.500,-104.500,-135.000
0.718,-140.500,-97.000,-105.500,-135.500
0.719,-139.500,-96.500,-104.500,-135.000
0.720,-137.500,-94.500,-103.000,-133.000
0.721,-135.000,-91.500,-100.000,-130.000
0.722,-132.000,-88.000,-96.500,-127.000
0.723,-129.500,-85.000,-93.000,-124.000
0.724,-128.500,-83.500,-91.000,-122.000
0.725,-129.500,-83.500,-91.000,-122.000
0.726,-132.000,-85.500,-92.500,-123.500
0.727,-135.000,-87.500,-94.000,-125.500
0.728,-137.500,-89.500,-96.000,-127.000
0.729,-140.000,-91.500,-98.000,-128.500
0.730,-142.000,-93.500,-99.500,-130.000
0.731,-143.500,-95.000,-101.500,-132.000
0.732,-145.500,-97.000,-103.500,-133.500
0.733,-147.000,-99.000,-105.500,-136.000
0.734,-149.500,-101.500,-108.500,-139.500
0.735,-152.000,-105.000,-112.500,-143.000
0.736,-154.000,-107.500,-115.500,-146.000
0.737,-155.000,-109.000,-117.500,-147.500
0.738,-154.500,-109.000,-117.500,-147.000
0.739,-152.000,-107.000,-116.000,-145.500
0.740,-148.500,-103.500,-112.500,-142.000
0.741,-144.000,-98.500,-108.000,-137.500
0.742,-140.000,-93.500,-103.000,-132.500
0.743,-137.000,-90.000,-98.500,-129.000
0.744,-136.000,-88.000,-96.500,-127.000
0.745,-137.000,-88.000,-97.000,-127.500
0.746,-139.000,-89.500,-98.000,-128.500
0.747,-140.500,-91.000,-99.500,-130.000
0.748,-141.500,-92.000,-100.500,-130.500
0.749,-142.500,-93.000,-101.000,-131.000
0.750,-143.000,-94.000,-101.500,-131.500
0.751,-143.500,-94.500,-102.000,-131.500
0.752,-143.500,-95.000,-102.500,-132.000
0.753,-143.500,-95.500,-103.500,-133.000
0.754,-144.500,-97.000,-105.000,-134.500
0.755,-146.500,-99.500,-108.000,-137.500
0.756,-149.500,-103.000,-112.000,-141.500
0.757,-152.000,-106.000,-115.500,-144.500
0.758,-152.500,-107.000,-117.000,-145.500
0.759,-151.000,-105.500,-116.000,-144.500
0.760,-147.500,-102.000,-112.500,-141.000
0.761,-142.500,-97.000,-107.000,-136.000
0.762,-137.000,-91.000,-101.500,-130.000
0.763,-133.000,-87.000,-96.500,-125.500
0.764,-132.000,-85.000,-94.000,-124.000
0.765,-134.500,-87.000,-95.500,-125.500
0.766,-138.500,-90.500,-98.500,-129.000
0.767,-142.500,-94.500,-102.000,-132.500
0.768,-145.500,-97.000,-104.000,-134.500
0.769,-147.000,-98.500,-105.000,-135.500
0.770,-148.000,-99.500,-105.500,-136.000
0.771,-149.000,-100.000,-106.000,-136.500
0.772,-149.500,-100.500,-106.500,-137.000
0.773,-150.000,-101.500,-107.500,-138.000
0.774,-151.000,-103.000,-109.500,-140.000
0.775,-152.500,-105.000,-111.500,-142.500
0.776,-154.000,-107.500,-114.500,-145.000
0.777,-154.500,-109.000,-116.500,-146.500
0.778,-153.500,-108.500,-116.500,-146.500
0.779,-151.000,-106.500,-114.500,-144.000
0.780,-147.000,-102.500,-111.000,-140.500
0.781,-142.500,-98.000,-107.000,-136.500
0.782,-139.500,-94.000,-103.000,-132.500
0.783,-137.500,-91.500,-100.000,-130.000
0.784,-137.500,-91.000,-99.000,-129.500
0.785,-139.500,-92.500,-100.000,-131.000
0.786,-142.500,-94.500,-102.000,-133.000
0.787,-145.000,-97.000,-103.500,-134.500
0.788,-147.000,-98.500,-105.000,-136.000
0.789,-148.500,-99.500,-105.500,-136.500
0.790,-149.500,-100.500,-106.500,-136.500
0.791,-150.000,-101.500,-107.000,-137.500
0.792,-150.500,-102.000,-108.000,-138.000
0.793,-151.000,-103.000,-109.000,-139.000
0.794,-152.000,-104.000,-110.000,-140.500
0.795,-153.500,-106.000,-112.500,-143.000
0.796,-155.500,-108.500,-115.000,-145.500
0.797,-157.500,-110.500,-117.500,-148.000
0.798,-157.500,-111.000,-118.500,-148.500
0.799,-155.500,-109.500,-117.500,-147.500
0.800,-152.500,-106.500,-115.000,-145.000
0.801,-148.500,-102.500,-111.000,-141.000
0.802,-145.000,-98.000,-107.500,-137.000
0.803,-142.000,-95.000,-104.000,-134.000
0.804,-141.000,-93.500,-102.000,-132.500
0.805,-141.500,-93.500,-101.500,-132.500
0.806,-143.000,-94.500,-102.500,-133.000
0.807,-144.500,-96.500,-103.500,-134.500
0.808,-146.000,-98.000,-105.000,-135.500
0.809,-148.000,-100.000,-107.000,-137.000
0.810,-149.500,-102.000,-108.500,-138.500
0.811,-150.500,-103.500,-110.000,-139.500
0.812,-151.500,-104.500,-111.000,-141.000
0.813,-152.500,-106.000,-113.000,-142.500
0.814,-153.500,-108.000,-115.000,-145.000
0.815,-155.000,-110.000,-117.500,-147.500
0.816,-156.500,-112.000,-119.500,-149.000
0.817,-156.500,-112.500,-120.500,-150.000
0.818,-155.000,-111.000,-119.500,-148.500
0.819,-152.500,-108.500,-117.000,-146.000
0.820,-149.500,-105.000,-114.000,-143.000
0.821,-146.500,-101.500,-110.500,-140.000
0.822,-144.500,-99.000,-107.500,-137.500
0.823,-143.000,-97.000,-105.500,-136.000
0.824,-143.000,-96.500,-104.500,-135.500
0.825,-144.000,-97.500,-105.000,-136.000
0.826,-146.500,-99.000,-106.500,-137.500
0.827,-149.000,-101.500,-108.500,-139.500
0.828,-152.000,-104.000,-111.000,-141.500
0.829,-155.000,-106.500,-113.000,-144.000
0.830,-157.000,-108.500,-115.000,-146.000
0.831,-158.500,-110.500,-117.000,-147.500
0.832,-160.000,-111.500,-118.500,-149.000
0.833,-160.500,-113.000,-120.000,-150.500
0.834,-161.500,-114.000,-121.500,-152.000
0.835,-162.000,-115.500,-122.500,-153.500
0.836,-161.500,-115.500,-123.500,-154.000
0.837,-160.000,-114.500,-122.500,-153.500
0.838,-157.500,-112.500,-121.000,-151.500
0.839,-154.500,-110.000,-118.500,-149.000
0.840,-151.500,-107.000,-116.000,-147.000
0.841,-149.500,-104.500,-114.000,-144.500
0.842,-147.500,-102.500,-111.500,-142.500
0.843,-146.000,-100.500,-109.500,-140.500
0.844,-146.000,-99.500,-108.500,-139.500
0.845,-146.500,-99.500,-108.500,-139.000
0.846,-148.000,-101.000,-109.000,-140.000
0.847,-150.500,-102.500,-111.000,-141.500
0.848,-152.500,-104.500,-112.500,-142.500
0.849,-154.500,-106.000,-113.500,-143.500
0.850,-155.500,-107.000,-114.500,-144.500
0.851,-156.000,-108.000,-115.500,-145.000
0.852,-157.000,-109.500,-117.000,-146.500
0.853,-158.000,-111.000,-118.500,-148.000
0.854,-159.500,-113.000,-120.500,-150.500
0.855,-161.000,-115.500,-123.500,-153.500
0.856,-163.000,-117.500,-126.500,-156.000
0.857,-164.000,-119.000,-128.000,-158.000
0.858,-163.000,-119.000,-128.500,-157.500
0.859,-160.500,-117.000,-126.500,-155.500
0.860,-157.000,-113.500,-123.000,-152.500
0.861,-153.500,-110.000,-119.500,-148.500
0.862,-151.000,-106.500,-116.000,-145.500
0.863,-150.000,-105.000,-114.000,-144.000
0.864,-150.500,-104.500,-113.500,-144.000
0.865,-152.000,-106.000,-114.500,-145.000
0.866,-154.500,-108.000,-116.500,-146.500
0.867,-157.000,-110.000,-118.000,-148.000
0.868,-159.000,-111.500,-119.500,-149.000
0.869,-160.500,-113.000,-120.500,-150.000
0.870,-162.000,-114.500,-121.500,-150.500
0.871,-164.000,-116.000,-123.500,-152.000
0.872,-165.500,-118.000,-125.000,-154.000
0.873,-167.000,-120.000,-127.000,-156.000
0.874,-168.500,-121.500,-129.000,-158.000
0.875,-169.500,-123.000,-130.500,-159.500
0.876,-170.000,-124.500,-132.500,-161.000
0.877,-169.500,-125.000,-133.000,-161.500
0.878,-168.000,-124.000,-132.500,-160.500
0.879,-165.000,-121.500,-131.000,-158.500
0.880,-161.500,-118.000,-128.000,-155.500
0.881,-158.000,-114.500,-124.500,-152.500
0.882,-155.000,-111.000,-121.000,-149.000
0.883,-153.000,-108.500,-118.500,-146.500
0.884,-153.000,-107.500,-117.000,-145.000
0.885,-154.000,-108.000,-117.000,-145.500
0.886,-156.500,-109.500,-118.000,-146.500
0.887,-159.000,-112.000,-119.500,-148.000
0.888,-160.500,-113.500,-121.000,-149.000
0.889,-162.000,-115.000,-121.500,-149.500
0.890,-162.500,-115.500,-122.000,-150.000
0.891,-163.000,-116.000,-122.500,-150.000
0.892,-163.500,-116.500,-123.000,-151.000
0.893,-164.500,-118.000,-124.500,-152.500
0.894,-167.000,-120.500,-127.500,-155.500
0.895,-169.000,-123.000,-130.500,-158.500
0.896,-171.000,-125.500,-133.500,-161.000
0.897,-171.500,-126.000,-134.500,-161.500
0.898,-169.500,-124.500,-133.000,-160.000
0.899,-165.500,-121.000,-129.500,-156.000
0.900,-160.500,-115.500,-123.500,-150.500
0.901,-154.500,-109.500,-117.500,-145.000
0.902,-150.000,-104.500,-112.500,-140.000
0.903,-148.000,-101.500,-109.500,-137.500
0.904,-148.500,-101.500,-109.000,-138.000
0.905,-150.500,-103.500,-111.000,-139.500
0.906,-153.500,-106.000,-113.000,-142.000
0.907,-155.500,-108.500,-115.000,-144.000
0.908,-158.000,-110.500,-117.000,-145.500
0.909,-159.500,-112.500,-118.500,-147.000
0.910,-161.000,-114.000,-119.500,-147.500
0.911,-162.000,-115.000,-120.500,-148.500
0.912,-163.000,-116.000,-121.500,-149.500
0.913,-164.500,-117.500,-123.500,-151.500
0.914,-166.500,-120.000,-126.500,-155.000
0.915,-169.000,-123.000,-130.000,-158.500
0.916,-170.500,-125.000,-133.000,-161.000
0.917,-170.500,-126.000,-134.000,-161.500
0.918,-169.500,-125.000,-133.500,-160.500
0.919,-166.500,-122.000,-131.000,-157.500
0.920,-162.000,-118.000,-127.000,-153.500
0.921,-157.000,-113.000,-122.000,-149.000
0.922,-152.500,-108.000,-117.000,-144.000
0.923,-149.000,-104.000,-113.000,-140.500
0.924,-147.500,-102.000,-110.500,-138.500
0.925,-148.000,-101.500,-110.000,-138.000
0.926,-149.500,-102.500,-110.500,-138.500
0.927,-151.500,-104.000,-111.500,-139.500
0.928,-153.000,-105.500,-112.500,-140.500
0.929,-155.000,-107.500,-114.000,-142.000
0.930,-157.000,-110.000,-115.500,-143.500
0.931,-158.500,-112.000,-117.500,-145.500
0.932,-160.500,-114.500,-120.000,-148.000
0.933,-163.000,-116.500,-122.000,-150.500
0.934,-165.000,-119.000,-125.000,-153.000
0.935,-167.000,-121.000,-127.500,-156.000
0.936,-168.500,-123.000,-130.000,-158.000
0.937,-168.500,-124.000,-131.000,-158.500
0.938,-167.500,-123.500,-131.000,-158.000
0.939,-165.000,-121.500,-129.000,-156.000
0.940,-162.000,-118.500,-126.500,-153.500
0.941,-158.500,-114.500,-122.500,-150.000
0.942,-154.500,-110.000,-118.000,-146.000
0.943,-150.500,-106.000,-114.000,-142.000
0.944,-148.500,-103.000,-111.000,-139.500
0.945,-148.000,-102.000,-110.000,-138.500
0.946,-149.500,-103.000,-110.500,-138.500
0.947,-152.000,-104.500,-112.000,-140.000
0.948,-155.000,-107.500,-114.000,-142.500
0.949,-158.500,-110.500,-117.000,-145.000
0.950,-161.500,-113.000,-119.000,-147.000
0.951,-163.500,-115.000,-121.500,-149.500
0.952,-164.500,-116.500,-123.000,-151.000
0.953,-166.000,-118.000,-124.500,-153.000
0.954,-167.000,-120.000,-127.000,-155.500
0.955,-169.000,-122.500,-129.500,-158.000
0.956,-170.500,-124.000,-132.000,-160.000
0.957,-170.500,-125.000,-132.500,-161.000
0.958,-169.000,-123.500,-131.500,-159.500
0.959,-165.000,-120.000,-128.500,-156.000
0.960,-160.500,-115.000,-123.500,-151.000
0.961,-155.500,-110.000,-118.500,-146.000
0.962,-152.000,-106.000,-114.000,-142.500
0.963,-150.000,-103.500,-111.500,-140.500
0.964,-150.000,-103.000,-110.500,-139.500
0.965,-151.000,-103.500,-110.500,-140.000
0.966,-152.500,-104.000,-111.000,-140.500
0.967,-154.000,-105.000,-111.500,-141.000
0.968,-155.000,-105.500,-112.000,-141.500
0.969,-156.500,-106.500,-113.000,-142.000
0.970,-157.500,-108.000,-114.500,-143.000
0.971,-159.000,-110.000,-116.500,-144.500
0.972,-161.000,-112.000,-119.000,-147.000
0.973,-163.500,-115.000,-122.000,-150.000
0.974,-166.000,-117.500,-125.500,-153.000
0.975,-168.000,-120.000,-128.500,-156.000
0.976,-168.500,-121.500,-130.000,-158.000
0.977,-168.000,-121.500,-130.500,-158.000
0.978,-166.500,-120.000,-129.500,-156.500
0.979,-164.000,-118.000,-127.500,-154.500
0.980,-161.000,-115.500,-125.500,-152.500
0.981,-158.000,-112.500,-122.500,-149.500
0.982,-155.000,-109.000,-119.000,-146.000
0.983,-152.000,-105.500,-115.500,-142.500
0.984,-150.000,-103.000,-112.500,-140.000
0.985,-149.500,-101.500,-111.000,-138.500
0.986,-151.000,-102.500,-111.000,-139.000
0.987,-153.500,-104.500,-113.000,-141.000
0.988,-156.500,-107.500,-115.500,-143.000
0.989,-159.500,-110.000,-118.000,-145.500
0.990,-162.000,-113.000,-120.500,-148.000
0.991,-164.500,-115.500,-123.000,-150.000
0.992,-166.500,-118.000,-125.500,-152.500
0.993,-168.500,-120.500,-127.500,-154.500
0.994,-170.000,-122.500,-130.000,-157.000
0.995,-171.000,-124.000,-132.000,-159.000
0.996,-171.000,-125.000,-133.500,-160.000
0.997,-170.000,-124.500,-133.000,-160.000
0.998,-167.500,-122.500,-131.500,-158.000
0.999,-164.500,-119.500,-129.000,-155.500
1.000,-161.500,-116.500,-126.000,-152.500
1.001,-158.500,-113.000,-122.500,-149.000
1.002,-156.000,-109.500,-118.500,-146.000
1.003,-153.500,-106.000,-115.000,-142.500
1.004,-152.000,-103.500,-112.500,-140.000
1.005,-152.000,-103.000,-111.000,-139.000
1.006,-153.000,-104.000,-111.500,-139.500
1.007,-155.000,-105.500,-112.500,-141.000
1.008,-156.500,-107.500,-114.000,-142.500
1.009,-158.500,-109.500,-116.000,-144.000
1.010,-160.000,-111.500,-118.000,-145.500
1.011,-162.000,-113.500,-120.000,-147.500
1.012,-163.500,-115.500,-122.000,-149.000
1.013,-165.000,-117.000,-124.000,-151.000
1.014,-166.000,-118.500,-125.500,-152.500
1.015,-166.500,-119.500,-127.000,-154.500
1.016,-167.000,-120.500,-128.500,-155.500
1.017,-166.000,-121.000,-129.500,-156.000
1.018,-164.000,-119.500,-129.000,-155.000
1.019,-161.000,-117.500,-127.000,-153.000
1.020,-157.000,-114.000,-124.000,-149.500
1.021,-153.000,-110.000,-120.000,-146.000
1.022,-149.000,-105.500,-116.000,-142.000
1.023,-145.500,-101.500,-112.000,-138.000
1.024,-142.500,-98.000,-108.000,-134.500
1.025,-141.500,-96.000,-106.000,-132.000
1.026,-141.000,-95.500,-104.500,-130.500
1.027,-142.000,-95.500,-104.000,-130.000
1.028,-143.500,-96.000,-104.000,-129.500
1.029,-144.500,-96.500,-104.000,-129.500
1.030,-145.000,-96.500,-104.000,-129.500
1.031,-145.000,-96.500,-104.000,-129.000
1.032,-144.500,-96.000,-103.500,-128.500
1.033,-144.500,-96.000,-103.500,-129.000
1.034,-144.500,-96.500,-104.500,-130.000
1.035,-145.500,-97.500,-106.000,-131.500
1.036,-145.500,-98.500,-107.000,-132.500
1.037,-144.500,-98.500,-107.000,-132.500
1.038,-142.000,-96.500,-105.500,-130.500
1.039,-137.500,-92.500,-102.000,-126.500
1.040,-132.500,-88.000,-97.000,-122.000
1.041,-127.000,-82.500,-91.500,-117.000
1.042,-122.500,-77.500,-86.500,-112.500
1.043,-120.000,-74.500,-83.000,-109.500
1.044,-119.500,-73.500,-82.000,-108.500
1.045,-122.000,-75.000,-83.000,-110.000
1.046,-125.500,-78.000,-86.000,-113.000
1.047,-130.000,-82.000,-89.500,-116.500
1.048,-134.000,-86.000,-93.000,-120.000
1.049,-138.000,-90.000,-96.500,-123.000
1.050,-141.000,-93.000,-99.000,-125.000
1.051,-143.500,-96.000,-101.500,-127.500
1.052,-146.000,-98.500,-103.500,-129.500
1.053,-148.500,-101.000,-106.500,-132.500
1.054,-151.000,-104.000,-109.500,-135.500
1.055,-153.000,-106.000,-111.500,-138.000
1.056,-153.500,-107.000,-113.000,-139.500
1.057,-152.500,-106.000,-112.500,-139.000
1.058,-149.000,-103.500,-110.000,-136.500
1.059,-144.500,-99.000,-106.000,-132.500
1.060,-138.500,-93.500,-101.000,-127.000
1.061,-132.000,-87.000,-94.500,-121.500
1.062,-126.000,-80.500,-88.500,-115.500
1.063,-121.500,-75.500,-83.500,-110.500
1.064,-119.000,-72.500,-80.500,-107.500
1.065,-118.500,-71.500,-79.000,-106.000
1.066,-119.000,-71.500,-78.500,-105.500
1.067,-119.500,-71.500,-78.500,-105.500
1.068,-120.000,-72.000,-78.500,-105.000
1.069,-120.500,-72.500,-78.500,-105.000
1.070,-121.000,-72.500,-79.000,-105.000
1.071,-121.500,-73.000,-79.000,-105.500
1.072,-122.000,-74.000,-80.000,-106.500
1.073,-123.000,-75.500,-82.500,-108.500
1.074,-126.000,-79.000,-86.000,-112.500
1.075,-130.500,-84.000,-91.500,-117.500
1.076,-135.500,-89.500,-97.000,-123.500
1.077,-140.000,-94.000,-102.000,-128.000
1.078,-141.500,-96.500,-104.000,-130.000
1.079,-140.500,-95.500,-103.500,-129.000
1.080,-136.500,-92.000,-100.000,-126.000
1.081,-131.500,-87.000,-95.500,-121.000
1.082,-127.500,-83.000,-91.000,-117.500
1.083,-126.000,-80.500,-89.000,-115.500
1.084,-127.000,-81.000,-89.500,-116.000
1.085,-130.000,-83.500,-91.500,-118.500
1.086,-133.500,-86.500,-94.000,-121.000
1.087,-136.500,-89.000,-96.500,-123.000
1.088,-138.500,-91.000,-97.500,-124.000
1.089,-140.000,-92.000,-98.000,-124.500
1.090,-140.500,-92.500,-98.500,-124.500
1.091,-141.500,-93.000,-99.000,-125.000
1.092,-143.500,-94.500,-100.500,-126.500
1.093,-145.500,-97.000,-103.000,-129.500
1.094,-148.000,-100.000,-106.500,-133.000
1.095,-151.500,-104.000,-111.000,-137.000
1.096,-154.500,-108.000,-115.500,-142.000
1.097,-157.500,-111.500,-119.500,-146.500
1.098,-159.000,-114.000,-122.500,-149.500
1.099,-159.000,-114.500,-123.000,-150.000
1.100,-157.000,-113.000,-122.000,-149.000
1.101,-153.500,-110.500,-119.500,-147.000
1.102,-151.000,-107.500,-117.000,-145.000
1.103,-149.500,-105.500,-115.500,-143.500
1.104,-149.500,-105.500,-115.500,-144.000
1.105,-151.000,-107.000,-117.500,-146.500
1.106,-154.000,-109.500,-120.500,-149.500
1.107,-157.000,-112.500,-123.500,-152.500
1.108,-159.500,-115.500,-126.000,-155.000
1.109,-162.000,-118.000,-128.000,-156.000
1.110,-164.500,-120.000,-129.000,-156.000
1.111,-167.000,-122.500,-129.500,-155.500
1.112,-169.500,-124.500,-130.000,-155.000
1.113,-171.500,-126.500,-130.500,-155.000
1.114,-174.500,-129.000,-132.000,-155.500
1.115,-176.500,-131.000,-133.500,-156.500
1.116,-178.000,-133.000,-134.500,-157.000
1.117,-178.500,-133.000,-134.500,-157.000
1.118,-176.500,-131.500,-133.500,-156.000
1.119,-173.500,-129.000,-131.000,-154.000
1.120,-169.000,-124.500,-128.000,-151.000
1.121,-164.500,-120.000,-124.000,-148.000
1.122,-160.000,-115.500,-120.500,-145.500
1.123,-156.500,-111.500,-117.000,-143.000
1.124,-154.000,-109.000,-115.000,-141.500
1.125,-153.000,-107.500,-113.500,-140.500
1.126,-152.500,-106.500,-112.500,-140.500
1.127,-153.000,-106.500,-112.500,-140.500
1.128,-154.000,-107.000,-113.000,-141.000
1.129,-156.000,-108.500,-114.500,-142.000
1.130,-158.000,-110.500,-116.500,-143.500
1.131,-159.000,-112.000,-117.500,-144.500
1.132,-159.500,-113.000,-118.000,-145.000
1.133,-160.000,-114.000,-119.500,-146.000
1.134,-162.000,-116.500,-122.000,-148.500
1.135,-165.500,-120.500,-126.500,-153.000
1.136,-169.500,-125.000,-131.000,-157.500
1.137,-172.000,-127.500,-134.000,-160.500
1.138,-172.000,-128.000,-134.500,-160.500
1.139,-169.500,-125.500,-132.500,-158.000
1.140,-165.500,-121.500,-128.500,-154.000
1.141,-160.500,-117.000,-124.000,-149.500
1.142,-156.500,-112.500,-120.000,-145.500
1.143,-154.000,-110.000,-116.500,-142.500
1.144,-154.000,-109.000,-116.000,-141.500
1.145,-156.500,-111.000,-117.000,-143.000
1.146,-160.000,-114.000,-120.500,-145.500
1.147,-164.500,-118.500,-124.000,-149.000
1.148,-169.000,-122.500,-128.500,-153.000
1.149,-174.000,-127.500,-132.500,-157.000
1.150,-178.500,-131.500,-137.000,-161.000
1.151,-182.000,-135.000,-140.500,-164.500
1.152,-184.000,-137.500,-143.000,-166.500
1.153,-184.000,-137.500,-144.000,-167.000
1.154,-182.000,-136.500,-143.000,-166.000
1.155,-179.000,-134.500,-141.000,-164.500
1.156,-174.500,-131.000,-138.000,-161.000
1.157,-168.500,-126.000,-132.500,-155.500
1.158,-159.500,-117.500,-124.000,-147.000
1.159,-146.500,-105.000,-111.000,-134.000
1.160,-130.000,-88.500,-94.000,-117.000
1.161,-110.000,-68.500,-74.000,-96.500
1.162,-88.000,-46.000,-51.500,-74.000
1.163,-65.500,-23.000,-27.500,-50.000
1.164,-43.000,1.000,-3.500,-25.500
1.165,-20.000,24.500,21.500,-0.500
1.166,3.500,48.500,47.000,25.500
1.167,27.000,73.000,72.500,51.500
1.168,51.500,98.000,98.500,78.500
1.169,76.500,123.500,125.000,105.500
1.170,102.500,149.500,152.000,133.500
1.171,129.500,177.000,180.500,162.000
1.172,157.500,205.000,209.000,191.000
1.173,186.500,234.000,238.000,220.000
1.174,216.000,263.000,267.500,250.000
1.175,247.000,293.500,298.000,281.000
1.176,280.500,327.000,331.000,314.500
1.177,318.000,363.500,368.000,352.500
1.178,359.000,404.000,409.000,394.000
1.179,402.500,447.500,452.500,438.500
1.180,447.000,491.500,497.000,483.500
1.181,490.000,535.500,541.000,527.500
1.182,530.000,576.500,582.500,569.000
1.183,565.000,612.500,619.000,605.500
1.184,590.000,639.000,646.000,632.000
1.185,601.000,651.000,658.500,644.500
1.186,595.500,646.500,654.000,640.000
1.187,573.000,625.500,633.000,618.500
1.188,537.000,590.000,597.500,582.500
1.189,491.000,544.500,551.000,536.000
1.190,437.500,491.000,497.000,481.500
1.191,378.500,431.500,436.500,420.500
1.192,313.500,365.500,369.500,352.500
1.193,242.000,293.500,296.000,278.000
1.194,166.500,217.000,217.500,198.500
1.195,91.000,140.500,139.000,119.000
1.196,21.500,70.500,67.000,46.500
1.197,-37.500,10.500,5.000,-16.000
1.198,-85.000,-38.500,-44.500,-66.000
1.199,-122.000,-76.000,-83.500,-105.000
1.200,-150.000,-104.500,-112.000,-134.500
1.201,-170.000,-125.500,-133.000,-156.000
1.202,-184.500,-140.500,-147.500,-171.000
1.203,-194.000,-150.500,-157.000,-181.000
1.204,-200.500,-156.500,-163.000,-187.000
1.205,-204.000,-160.500,-166.500,-190.500
1.206,-206.500,-162.500,-168.500,-192.500
1.207,-207.000,-162.500,-168.500,-192.500
1.208,-205.500,-161.500,-167.500,-190.500
1.209,-203.500,-159.000,-164.500,-187.500
1.210,-200.500,-156.000,-161.500,-184.000
1.211,-196.500,-152.500,-158.000,-180.000
1.212,-192.500,-149.000,-154.500,-175.500
1.213,-188.500,-145.000,-151.000,-172.000
1.214,-184.500,-142.000,-148.000,-169.000
1.215,-182.000,-139.500,-146.000,-167.000
1.216,-180.000,-138.000,-145.000,-166.000
1.217,-178.000,-136.500,-143.500,-164.500
1.218,-175.000,-134.500,-141.500,-162.500
1.219,-170.500,-130.000,-137.500,-158.500
1.220,-164.500,-124.500,-132.000,-153.000
1.221,-158.500,-118.000,-125.500,-146.500
1.222,-152.500,-111.500,-118.500,-140.000
1.223,-147.500,-105.500,-113.000,-134.500
1.224,-144.000,-102.000,-109.000,-130.500
1.225,-143.000,-100.000,-106.500,-128.500
1.226,-143.000,-100.000,-106.000,-128.000
1.227,-144.500,-100.500,-106.500,-128.500
1.228,-146.500,-102.000,-108.000,-129.500
1.229,-149.000,-104.500,-109.500,-131.500
1.230,-151.500,-107.000,-112.500,-134.000
1.231,-154.500,-110.000,-115.000,-136.500
1.232,-157.000,-112.500,-118.000,-139.500
1.233,-159.000,-115.000,-120.500,-142.000
1.234,-161.000,-117.000,-123.000,-144.500
1.235,-163.000,-119.000,-125.500,-147.500
1.236,-164.500,-121.500,-128.000,-150.000
1.237,-165.000,-122.500,-130.000,-151.500
1.238,-164.500,-122.500,-130.500,-151.500
1.239,-162.000,-121.000,-129.000,-150.000
1.240,-158.500,-117.500,-125.500,-146.500
1.241,-154.000,-112.500,-121.000,-142.500
1.242,-150.000,-108.000,-116.000,-138.000
1.243,-146.500,-104.000,-112.000,-134.000
1.244,-145.500,-102.000,-109.500,-132.000
1.245,-146.500,-102.000,-109.500,-132.000
1.246,-148.500,-104.000,-111.000,-133.500
1.247,-151.500,-106.000,-113.000,-135.500
1.248,-153.500,-108.000,-114.500,-137.000
1.249,-154.500,-109.500,-115.500,-137.500
1.250,-155.500,-110.500,-116.500,-138.000
1.251,-156.500,-111.000,-117.000,-139.000
1.252,-157.500,-112.500,-118.000,-139.500
1.253,-159.000,-113.500,-119.500,-141.000
1.254,-160.000,-115.500,-121.000,-142.500
1.255,-161.000,-117.000,-123.000,-144.500
1.256,-162.000,-118.500,-124.500,-146.500
1.257,-162.500,-120.000,-126.500,-148.000
1.258,-162.500,-120.500,-127.500,-148.500
1.259,-161.500,-119.500,-127.000,-147.500
1.260,-158.500,-117.000,-124.500,-145.000
1.261,-154.500,-112.500,-120.500,-141.000
1.262,-150.000,-107.500,-115.500,-136.000
1.263,-146.000,-103.500,-111.500,-132.000
1.264,-144.500,-101.000,-109.000,-129.500
1.265,-145.000,-101.000,-108.500,-129.000
1.266,-146.500,-102.000,-110.000,-130.000
1.267,-148.000,-103.500,-111.000,-131.000
1.268,-149.500,-105.000,-112.000,-132.000
1.269,-151.000,-106.500,-113.500,-133.000
1.270,-152.500,-108.500,-114.500,-134.000
1.271,-154.000,-110.000,-115.500,-135.500
1.272,-155.500,-111.000,-116.500,-136.500
1.273,-156.000,-112.500,-117.500,-137.500
1.274,-157.000,-114.000,-119.500,-139.500
1.275,-159.000,-116.500,-122.500,-142.500
1.276,-161.000,-119.000,-125.500,-145.000
1.277,-161.500,-120.000,-127.000,-146.500
1.278,-160.500,-119.500,-126.500,-146.000
1.279,-157.000,-116.500,-123.500,-143.500
1.280,-152.500,-112.000,-119.000,-139.500
1.281,-148.000,-107.000,-114.000,-135.000
1.282,-143.500,-102.000,-109.500,-130.000
1.283,-140.000,-98.500,-105.000,-126.500
1.284,-139.000,-96.500,-103.000,-124.500
1.285,-139.500,-96.500,-102.000,-124.000
1.286,-140.500,-97.500,-102.000,-124.500
1.287,-141.500,-98.000,-102.500,-124.500
1.288,-142.000,-98.500,-102.500,-124.500
1.289,-142.000,-98.500,-102.500,-124.500
1.290,-142.500,-99.000,-103.000,-124.500
1.291,-143.500,-100.000,-104.000,-125.500
1.292,-144.500,-101.000,-105.000,-127.000
1.293,-146.000,-102.500,-106.500,-128.500
1.294,-147.500,-104.000,-108.500,-130.500
1.295,-149.500,-106.000,-111.000,-133.000
1.296,-151.500,-108.000,-113.500,-135.500
1.297,-153.000,-109.500,-116.000,-137.000
1.298,-153.000,-110.000,-116.500,-137.000
1.299,-151.500,-108.500,-115.000,-135.500
1.300,-148.000,-105.000,-111.500,-132.500
1.301,-143.500,-100.000,-106.500,-128.000
1.302,-138.500,-95.000,-101.000,-123.000
1.303,-134.000,-90.500,-96.000,-118.500
1.304,-131.500,-87.000,-92.500,-115.000
1.305,-130.000,-86.000,-91.000,-113.500
1.306,-130.500,-86.000,-90.500,-113.000
1.307,-131.500,-87.000,-91.000,-113.500
1.308,-132.500,-88.000,-91.500,-114.000
1.309,-133.500,-89.000,-92.000,-114.500
1.310,-134.000,-89.500,-92.500,-114.500
1.311,-135.000,-90.500,-93.500,-115.500
1.312,-136.000,-91.500,-95.000,-117.000
1.313,-136.500,-92.500,-96.500,-118.500
1.314,-137.500,-94.000,-98.500,-120.000
1.315,-138.500,-95.500,-100.500,-122.000
1.316,-139.000,-96.500,-102.000,-123.000
1.317,-139.000,-97.000,-103.000,-123.500
1.318,-138.000,-96.000,-102.500,-123.000
1.319,-136.000,-94.000,-101.000,-121.000
1.320,-132.500,-91.000,-98.000,-118.000
1.321,-129.000,-87.500,-94.500,-114.500
1.322,-124.500,-82.500,-89.500,-110.500
1.323,-120.500,-78.000,-85.000,-106.000
1.324,-118.000,-75.000,-81.500,-103.000
1.325,-117.000,-73.500,-79.500,-101.500
1.326,-118.000,-74.000,-79.500,-101.500
1.327,-120.000,-75.500,-81.000,-102.500
1.328,-122.000,-77.000,-82.500,-104.000
1.329,-124.000,-79.000,-84.500,-105.000
1.330,-125.500,-80.500,-85.500,-106.000
1.331,-126.500,-81.500,-86.500,-106.500
1.332,-126.500,-82.000,-86.500,-106.500
1.333,-126.000,-81.500,-86.500,-106.500
1.334,-124.500,-80.500,-86.000,-106.000
1.335,-123.500,-80.000,-86.000,-105.500
1.336,-123.500,-80.500,-87.000,-106.500
1.337,-124.000,-82.500,-89.000,-108.000
1.338,-125.000,-84.000,-91.000,-109.500
1.339,-124.500,-83.500,-91.500,-110.000
1.340,-122.500,-81.500,-89.500,-108.000
1.341,-118.500,-77.500,-85.500,-104.000
1.342,-114.500,-73.000,-81.000,-99.500
1.343,-111.000,-68.500,-76.500,-95.000
1.344,-109.000,-66.000,-73.500,-92.000
1.345,-109.000,-65.000,-72.000,-90.500
1.346,-110.000,-65.500,-72.000,-91.000
1.347,-111.500,-66.500,-72.500,-91.500
1.348,-112.500,-67.000,-72.500,-91.500
1.349,-113.000,-67.000,-72.500,-91.000
1.350,-113.000,-66.500,-71.500,-90.000
1.351,-112.500,-66.000,-71.000,-89.000
1.352,-111.500,-65.500,-70.000,-88.500
1.353,-111.500,-65.500,-70.000,-88.500
1.354,-111.500,-66.500,-71.000,-89.500
1.355,-112.000,-67.500,-72.500,-91.500
1.356,-112.500,-68.500,-74.000,-93.000
1.357,-112.000,-69.000,-74.500,-93.500
1.358,-110.500,-68.000,-74.000,-92.500
1.359,-107.000,-65.500,-71.500,-90.000
1.360,-102.500,-61.000,-67.500,-85.500
1.361,-97.500,-55.500,-62.000,-80.000
1.362,-92.000,-50.000,-56.500,-74.500
1.363,-88.000,-45.000,-51.500,-70.000
1.364,-86.000,-42.000,-48.500,-67.000
1.365,-85.500,-41.500,-47.000,-66.000
1.366,-86.500,-41.500,-47.500,-66.500
1.367,-87.500,-42.500,-48.000,-67.000
1.368,-88.500,-42.500,-48.000,-66.500
1.369,-88.500,-42.500,-47.500,-66.000
1.370,-88.500,-42.000,-46.500,-64.500
1.371,-88.500,-41.000,-46.000,-63.500
1.372,-88.000,-40.500,-45.000,-63.000
1.373,-87.500,-40.000,-45.000,-62.500
1.374,-87.000,-40.000,-45.000,-63.000
1.375,-86.500,-40.000,-45.500,-63.500
1.376,-86.500,-41.000,-46.500,-64.500
1.377,-86.000,-41.000,-47.000,-65.000
1.378,-84.500,-40.500,-46.500,-64.000
1.379,-82.000,-38.000,-44.500,-62.000
1.380,-77.000,-33.500,-40.000,-57.500
1.381,-71.000,-27.500,-33.500,-51.500
1.382,-64.000,-20.000,-26.000,-44.000
1.383,-57.500,-12.500,-18.500,-37.000
1.384,-52.000,-6.500,-12.000,-31.000
1.385,-49.000,-3.000,-8.500,-27.500
1.386,-48.500,-2.000,-7.000,-26.500
1.387,-50.000,-3.000,-7.500,-27.000
1.388,-51.000,-4.000,-8.500,-27.500
1.389,-52.000,-4.500,-8.500,-27.500
1.390,-52.000,-4.500,-8.500,-27.000
1.391,-51.500,-4.500,-8.000,-26.000
1.392,-51.000,-4.000,-7.500,-25.500
1.393,-50.500,-4.000,-7.000,-25.000
1.394,-50.000,-3.500,-7.000,-25.000
1.395,-49.000,-4.000,-7.000,-25.500
1.396,-48.500,-4.000,-7.500,-26.000
1.397,-47.000,-3.000,-6.500,-25.000
1.398,-44.000,-0.500,-4.500,-22.500
1.399,-39.000,3.500,-0.500,-18.500
1.400,-33.500,9.000,5.000,-13.000
1.401,-26.500,16.000,11.500,-6.500
1.402,-20.000,23.000,19.000,0.500
1.403,-14.500,29.500,25.500,7.000
1.404,-11.000,34.500,31.000,12.000
1.405,-9.500,37.000,34.000,14.500
1.406,-9.500,37.500,35.500,16.000
1.407,-9.500,38.000,36.000,17.000
1.408,-9.000,38.500,37.000,18.000
1.409,-8.000,40.000,39.000,20.000
1.410,-6.500,41.500,40.500,22.000
1.411,-5.000,42.500,41.500,23.500
1.412,-4.000,42.500,42.000,24.000
1.413,-3.500,42.500,42.000,23.500
1.414,-3.500,41.500,41.000,22.500
1.415,-4.000,40.500,40.000,21.500
1.416,-3.500,40.000,39.000,20.500
1.417,-2.000,41.000,39.500,21.500
1.418,1.500,44.000,42.000,24.000
1.419,7.000,49.000,47.000,28.500
1.420,14.000,55.500,53.500,34.500
1.421,21.500,63.500,61.000,42.000
1.422,29.000,71.500,69.000,49.500
1.423,35.000,78.000,76.000,56.000
1.424,38.500,82.500,81.000,61.000
1.425,40.000,85.000,83.500,63.500
1.426,39.500,85.000,84.000,64.000
1.427,38.000,83.500,82.500,63.000
1.428,36.000,82.000,81.000,62.000
1.429,34.500,80.500,80.000,61.000
1.430,34.000,80.000,79.500,61.000
1.431,34.000,80.500,80.000,61.500
1.432,34.500,81.000,80.500,62.500
1.433,35.500,82.000,81.000,63.000
1.434,35.500,81.500,80.500,62.500
1.435,35.000,80.000,79.000,61.000
1.436,34.000,78.500,77.000,59.000
1.437,33.500,77.500,75.500,58.000
1.438,35.500,78.500,76.500,59.000
1.439,39.000,81.500,79.500,62.000
1.440,44.000,86.500,84.000,66.500
1.441,49.000,91.500,89.500,72.000
1.442,54.000,97.000,95.000,77.000
1.443,57.500,101.000,99.500,81.500
1.444,59.000,103.500,102.000,84.000
1.445,58.500,104.000,102.500,84.500
1.446,56.500,102.500,101.500,83.500
1.447,54.000,100.500,100.000,82.000
1.448,51.500,98.000,98.000,80.000
1.449,49.000,96.000,96.000,78.000
1.450,46.500,93.500,94.000,76.000
1.451,44.000,91.000,92.000,74.000
1.452,41.000,88.500,89.000,71.500
1.453,38.000,85.000,85.500,68.000
1.454,35.500,82.000,82.500,64.500
1.455,33.000,79.000,79.000,60.500
1.456,30.500,76.000,76.000,57.000
1.457,28.000,72.500,72.000,53.500
1.458,25.500,69.000,68.000,49.500
1.459,23.000,65.500,64.500,46.000
1.460,22.500,64.500,62.500,44.500
1.461,23.000,65.000,63.500,45.000
1.462,24.000,67.000,65.500,46.500
1.463,24.500,68.000,67.000,47.500
1.464,23.000,67.000,67.000,46.500
1.465,19.000,64.000,64.000,43.500
1.466,13.500,59.000,59.500,38.500
1.467,7.500,53.500,54.000,33.000
1.468,1.500,47.500,48.500,28.000
1.469,-4.000,42.500,43.500,23.000
1.470,-8.500,38.000,39.000,18.500
1.471,-12.500,33.500,34.500,14.500
1.472,-17.000,29.000,30.000,10.000
1.473,-21.500,24.500,25.000,4.500
1.474,-26.500,19.000,19.500,-1.500
1.475,-32.000,13.000,13.000,-8.000
1.476,-37.500,7.000,6.500,-14.500
1.477,-42.000,2.000,0.500,-20.000
1.478,-45.000,-2.000,-4.000,-24.000
1.479,-46.500,-4.000,-6.500,-26.000
1.480,-46.500,-4.000,-7.000,-26.500
1.481,-46.500,-4.000,-7.000,-27.000
1.482,-46.500,-4.000,-7.000,-27.000
1.483,-47.500,-4.500,-7.500,-27.500
1.484,-50.000,-6.000,-9.000,-29.500
1.485,-53.500,-9.000,-11.500,-32.500
1.486,-58.500,-13.500,-15.500,-36.500
1.487,-64.000,-18.000,-20.000,-41.000
1.488,-69.000,-23.000,-24.500,-45.500
1.489,-74.000,-27.500,-29.000,-49.500
1.490,-78.000,-31.500,-32.500,-53.000
1.491,-81.500,-35.500,-36.000,-57.000
1.492,-85.000,-39.000,-40.000,-60.500
1.493,-88.500,-43.000,-44.000,-65.000
1.494,-92.500,-47.000,-49.000,-69.500
1.495,-96.500,-52.000,-54.500,-75.500
1.496,-100.500,-56.500,-59.500,-80.500
1.497,-103.500,-60.000,-64.000,-85.000
1.498,-104.500,-62.000,-66.500,-87.500
1.499,-104.500,-62.500,-67.000,-88.000
1.500,-103.500,-61.500,-66.000,-87.000
1.501,-102.000,-59.500,-64.000,-85.500
1.502,-100.000,-57.500,-61.500,-83.500
1.503,-98.500,-55.000,-59.500,-81.500
1.504,-98.000,-54.000,-58.000,-80.500
1.505,-99.500,-55.000,-58.500,-81.000
1.506,-102.500,-57.000,-60.500,-83.000
1.507,-106.500,-61.000,-64.000,-86.000
1.508,-111.000,-65.000,-67.500,-89.500
1.509,-115.500,-69.000,-71.500,-93.500
1.510,-119.500,-72.500,-75.500,-97.000
1.511,-123.000,-76.500,-79.000,-101.000
1.512,-126.000,-79.500,-83.000,-105.000
1.513,-129.000,-82.500,-86.500,-109.000
1.514,-131.000,-85.500,-90.000,-113.000
1.515,-133.500,-88.500,-93.500,-117.000
1.516,-135.500,-91.500,-97.000,-120.500
1.517,-136.500,-93.500,-100.000,-123.500
1.518,-135.500,-93.500,-101.000,-124.500
1.519,-132.500,-92.000,-99.500,-123.000
1.520,-128.500,-88.500,-97.000,-120.500
1.521,-124.500,-84.000,-93.000,-117.500
1.522,-121.000,-80.500,-89.000,-114.000
1.523,-119.500,-78.500,-86.500,-111.500
1.524,-120.000,-78.500,-85.500,-110.000
1.525,-123.500,-81.500,-86.500,-110.000
1.526,-127.500,-85.000,-88.500,-110.500
1.527,-131.500,-88.000,-89.500,-110.500
1.528,-134.000,-90.000,-89.500,-110.000
1.529,-136.000,-91.000,-89.000,-108.500
1.530,-136.500,-91.500,-88.000,-107.000
1.531,-137.000,-91.500,-87.000,-106.000
1.532,-137.000,-91.500,-87.000,-106.000
1.533,-137.500,-92.000,-88.500,-107.500
1.534,-138.000,-93.000,-90.500,-110.500
1.535,-139.500,-95.000,-94.000,-114.500
1.536,-140.500,-97.500,-97.500,-118.500
1.537,-141.000,-98.500,-100.000,-121.500
1.538,-140.000,-98.500,-101.000,-123.000
1.539,-137.500,-96.500,-99.500,-122.000
1.540,-133.500,-93.000,-96.000,-119.000
1.541,-128.000,-87.500,-91.000,-114.500
1.542,-122.500,-82.000,-85.500,-109.000
1.543,-118.500,-77.500,-80.500,-105.000
1.544,-117.500,-75.500,-78.500,-103.000
1.545,-119.500,-77.000,-79.500,-104.500
1.546,-124.000,-80.500,-83.000,-107.500
1.547,-128.500,-84.500,-86.500,-111.000
1.548,-131.500,-87.500,-89.000,-113.500
1.549,-133.500,-89.500,-90.500,-114.500
1.550,-134.000,-90.000,-91.000,-115.000
1.551,-134.500,-90.500,-91.000,-114.500
1.552,-134.000,-90.500,-91.000,-114.500
1.553,-134.000,-90.500,-91.000,-114.500
1.554,-134.000,-91.000,-92.000,-115.500
1.555,-135.000,-93.000,-94.500,-117.500
1.556,-137.500,-96.000,-98.500,-121.000
1.557,-140.000,-99.500,-102.000,-124.500
1.558,-141.000,-101.000,-103.500,-126.000
1.559,-140.000,-100.000,-102.500,-125.000
1.560,-136.500,-96.500,-99.000,-121.000
1.561,-131.500,-91.500,-94.000,-116.500
1.562,-127.000,-87.000,-89.000,-112.000
1.563,-124.000,-83.000,-85.000,-108.500
1.564,-122.500,-81.500,-83.000,-107.000
1.565,-123.500,-81.500,-83.000,-107.000
1.566,-126.000,-84.000,-84.500,-109.000
1.567,-129.000,-86.000,-86.500,-111.000
1.568,-131.000,-88.000,-87.500,-112.500
1.569,-132.500,-89.000,-88.500,-113.500
1.570,-133.000,-90.000,-89.000,-113.500
1.571,-133.500,-90.500,-89.500,-114.000
1.572,-134.000,-91.000,-90.000,-114.500
1.573,-134.500,-92.000,-91.500,-116.000
1.574,-135.500,-93.500,-93.000,-117.500
1.575,-137.000,-95.500,-95.000,-119.500
1.576,-138.000,-97.000,-97.000,-121.500
1.577,-138.500,-98.500,-98.500,-122.500
1.578,-137.500,-98.000,-98.500,-122.500
1.579,-135.000,-96.000,-97.000,-120.000
1.580,-131.500,-93.000,-94.000,-117.000
1.581,-128.000,-89.500,-91.000,-114.000
1.582,-126.000,-86.500,-88.000,-111.500
1.583,-124.500,-84.500,-86.500,-110.000
1.584,-125.000,-84.500,-86.000,-110.000
1.585,-127.000,-86.000,-87.000,-111.500
1.586,-130.000,-88.500,-89.000,-113.500
1.587,-132.500,-90.500,-90.500,-115.000
1.588,-134.500,-92.500,-92.000,-116.500
1.589,-135.500,-93.500,-92.500,-117.000
1.590,-136.000,-94.500,-93.000,-117.500
1.591,-136.500,-95.000,-94.000,-118.000
1.592,-136.500,-95.500,-94.500,-118.500
1.593,-136.500,-96.000,-95.500,-119.500
1.594,-136.500,-97.000,-96.500,-121.000
1.595,-137.500,-98.000,-98.000,-122.500
1.596,-138.500,-99.500,-100.000,-124.000
1.597,-139.000,-100.000,-101.000,-125.000
1.598,-138.500,-100.000,-101.000,-125.000
1.599,-136.000,-98.500,-99.000,-123.000
1.600,-132.500,-95.500,-96.000,-120.000
1.601,-129.000,-92.000,-92.500,-116.500
1.602,-126.000,-88.500,-89.500,-114.000
1.603,-124.500,-86.500,-87.500,-112.000
1.604,-124.500,-85.500,-86.500,-111.000
1.605,-125.500,-86.000,-86.500,-111.000
1.606,-127.500,-87.000,-87.000,-112.000
1.607,-129.000,-88.000,-88.000,-113.000
1.608,-130.500,-89.500,-89.000,-113.500
1.609,-131.500,-90.500,-89.500,-114.000
1.610,-132.000,-91.000,-90.000,-114.500
1.611,-133.000,-92.000,-91.000,-115.500
1.612,-134.000,-93.500,-92.500,-117.000
1.613,-136.000,-95.500,-94.500,-119.000
1.614,-138.000,-98.500,-97.500,-122.000
1.615,-141.000,-101.500,-101.500,-126.000
1.616,-143.500,-105.000,-105.000,-129.000
1.617,-144.500,-106.500,-107.500,-131.000
1.618,-144.000,-106.500,-107.500,-131.000
1.619,-141.500,-104.500,-105.500,-129.000
1.620,-138.000,-101.000,-102.000,-125.500
1.621,-133.500,-96.500,-97.500,-121.000
1.622,-129.500,-92.000,-93.000,-117.000
1.623,-128.000,-89.000,-90.000,-114.500
1.624,-128.000,-88.000,-88.500,-113.500
1.625,-129.500,-89.000,-89.000,-114.000
1.626,-132.000,-91.000,-91.000,-115.500
1.627,-134.000,-93.000,-92.500,-117.000
1.628,-136.000,-94.500,-94.000,-118.000
1.629,-137.000,-96.000,-95.000,-118.500
1.630,-137.500,-96.500,-95.000,-118.500
1.631,-138.000,-97.000,-95.500,-118.500
1.632,-138.500,-98.000,-96.000,-119.500
1.633,-140.000,-99.500,-97.500,-121.000
1.634,-141.500,-102.000,-100.000,-123.000
1.635,-143.500,-104.500,-102.500,-126.000
1.636,-145.000,-107.000,-105.500,-129.000
1.637,-145.500,-108.500,-107.000,-130.500
1.638,-144.500,-108.000,-107.000,-130.500
1.639,-141.500,-106.000,-105.500,-129.000
1.640,-138.000,-103.000,-103.000,-126.000
1.641,-134.000,-98.500,-99.000,-122.500
1.642,-130.000,-94.000,-94.500,-118.000
1.643,-126.500,-90.000,-90.500,-114.000
1.644,-125.000,-87.500,-88.000,-112.000
1.645,-126.000,-87.500,-87.500,-112.000
1.646,-128.500,-89.500,-89.000,-114.000
1.647,-132.000,-92.500,-92.000,-116.500
1.648,-134.500,-95.000,-94.500,-118.500
1.649,-136.000,-97.000,-96.000,-120.500
1.650,-137.500,-98.500,-97.500,-121.500
1.651,-138.500,-100.000,-99.000,-122.500
1.652,-139.500,-101.000,-100.000,-124.000
1.653,-141.000,-102.500,-102.000,-125.500
1.654,-143.000,-105.000,-104.500,-128.500
1.655,-145.000,-107.500,-107.000,-131.000
1.656,-146.000,-109.500,-109.500,-133.500
1.657,-146.500,-111.000,-111.000,-135.000
1.658,-145.500,-110.500,-111.000,-135.000
1.659,-143.500,-109.000,-110.000,-133.500
1.660,-141.000,-106.500,-107.500,-131.000
1.661,-137.500,-102.500,-103.500,-128.000
1.662,-133.500,-98.000,-99.500,-123.500
1.663,-130.000,-94.000,-95.000,-119.500
1.664,-127.000,-90.500,-91.000,-116.000
1.665,-126.000,-88.500,-89.000,-114.000
1.666,-126.000,-88.500,-88.000,-113.000
1.667,-127.000,-89.000,-88.500,-113.500
1.668,-130.000,-91.500,-90.000,-115.000
1.669,-133.000,-94.500,-93.000,-117.500
1.670,-136.500,-97.000,-95.500,-119.500
1.671,-138.000,-99.000,-97.500,-121.000
1.672,-139.000,-100.000,-98.500,-122.000
1.673,-139.500,-101.000,-99.500,-123.000
1.674,-141.000,-102.500,-101.500,-125.500
1.675,-143.000,-105.000,-104.500,-128.500
1.676,-145.500,-108.000,-107.500,-131.500
1.677,-146.000,-109.000,-108.500,-132.500
1.678,-144.500,-108.000,-107.500,-131.000
1.679,-140.500,-104.500,-104.000,-127.500
1.680,-135.500,-99.500,-99.000,-122.500
1.681,-130.500,-94.500,-94.000,-118.000
1.682,-126.500,-90.500,-90.000,-114.500
1.683,-124.000,-88.000,-87.500,-112.000
1.684,-123.500,-86.500,-86.000,-111.000
1.685,-124.500,-87.000,-86.000,-111.000
1.686,-126.000,-88.500,-87.500,-112.000
1.687,-129.000,-90.500,-89.500,-114.000
1.688,-131.500,-93.500,-92.000,-116.500
1.689,-134.500,-96.500,-95.000,-118.500
1.690,-137.500,-99.500,-98.000,-121.000
1.691,-140.500,-102.500,-100.500,-124.000
1.692,-143.000,-105.000,-103.000,-126.500
1.693,-144.500,-107.000,-105.000,-128.500
1.694,-146.500,-109.000,-107.500,-131.000
1.695,-148.500,-111.000,-110.000,-134.000
1.696,-150.000,-113.500,-112.500,-136.500
1.697,-151.000,-115.000,-114.500,-138.000
1.698,-150.500,-115.000,-115.000,-138.500
1.699,-148.500,-113.500,-113.500,-137.000
1.700,-145.500,-110.500,-110.500,-134.000
1.701,-141.500,-106.000,-106.000,-129.500
1.702,-137.500,-101.500,-101.500,-125.000
1.703,-134.000,-97.000,-97.000,-121.000
1.704,-132.000,-94.000,-93.500,-118.000
1.705,-131.500,-93.000,-92.000,-117.000
1.706,-133.500,-94.000,-92.500,-117.500
1.707,-136.500,-96.500,-94.500,-120.000
1.708,-140.000,-99.500,-97.000,-122.500
1.709,-143.000,-102.500,-100.000,-125.000
1.710,-145.500,-105.000,-102.000,-127.000
1.711,-147.500,-107.000,-104.000,-129.000
1.712,-149.000,-108.000,-105.000,-130.000
1.713,-150.000,-109.500,-106.500,-131.500
1.714,-150.500,-110.500,-108.000,-133.000
1.715,-151.500,-111.500,-109.500,-134.500
1.716,-152.000,-113.000,-111.000,-136.000
1.717,-152.500,-114.000,-112.500,-137.000
1.718,-152.000,-114.000,-113.000,-137.500
1.719,-150.500,-113.000,-112.000,-136.500
1.720,-148.000,-111.000,-110.000,-134.000
1.721,-145.000,-108.000,-106.500,-131.000
1.722,-141.000,-104.000,-102.500,-127.500
1.723,-138.000,-100.500,-98.500,-124.000
1.724,-135.500,-97.500,-95.500,-121.000
1.725,-135.000,-96.000,-93.500,-119.500
1.726,-136.500,-96.500,-93.500,-119.000
1.727,-138.000,-97.500,-94.000,-119.500
1.728,-140.000,-99.000,-95.500,-120.500
1.729,-141.500,-100.500,-96.500,-122.000
1.730,-143.500,-102.000,-98.500,-123.500
1.731,-145.000,-104.000,-100.000,-125.000
1.732,-146.500,-106.000,-102.500,-127.500
1.733,-148.500,-108.000,-106.000,-130.500
1.734,-150.500,-111.000,-109.500,-134.000
1.735,-153.500,-114.500,-113.500,-137.500
1.736,-155.500,-117.000,-117.000,-140.500
1.737,-156.000,-118.500,-118.500,-142.500
1.738,-155.500,-118.000,-118.500,-142.500
1.739,-152.500,-116.000,-116.500,-140.500
1.740,-148.500,-112.500,-113.000,-137.000
1.741,-144.500,-108.000,-109.000,-132.500
1.742,-140.000,-103.000,-104.500,-128.000
1.743,-136.500,-99.000,-100.000,-124.500
1.744,-134.500,-96.500,-97.500,-122.000
1.745,-134.000,-96.000,-96.500,-121.000
1.746,-135.500,-97.000,-97.000,-121.500
1.747,-137.500,-98.500,-98.000,-123.000
1.748,-139.500,-100.000,-99.500,-124.000
1.749,-141.500,-101.500,-100.500,-125.000
1.750,-142.500,-103.000,-102.000,-126.000
1.751,-144.000,-104.500,-103.000,-127.000
1.752,-145.000,-105.500,-104.000,-128.000
1.753,-146.000,-106.500,-105.500,-129.000
1.754,-147.000,-108.000,-107.500,-131.000
1.755,-148.500,-109.500,-109.500,-133.500
1.756,-149.500,-111.000,-112.000,-135.500
1.757,-150.000,-112.000,-113.500,-137.000
1.758,-149.000,-112.000,-113.500,-137.000
1.759,-147.000,-110.000,-111.500,-135.000
1.760,-143.500,-107.000,-108.500,-132.000
1.761,-140.000,-102.500,-104.500,-128.000
1.762,-136.000,-98.500,-99.500,-124.000
1.763,-132.500,-94.000,-95.000,-119.500
1.764,-130.000,-91.000,-91.500,-116.500
1.765,-129.000,-89.500,-89.500,-115.000
1.766,-129.500,-89.500,-89.500,-114.500
1.767,-132.000,-91.000,-90.500,-115.500
1.768,-134.500,-93.000,-92.500,-117.500
1.769,-137.000,-95.000,-94.500,-119.000
1.770,-139.500,-97.000,-96.500,-120.500
1.771,-141.500,-99.000,-98.500,-122.000
1.772,-144.000,-101.500,-101.000,-124.500
1.773,-147.000,-105.000,-104.500,-128.000
1.774,-150.000,-108.500,-108.500,-132.000
1.775,-152.500,-111.000,-112.000,-135.500
1.776,-153.500,-113.000,-114.500,-138.000
1.777,-153.000,-114.000,-115.500,-139.000
1.778,-151.500,-113.500,-115.500,-139.000
1.779,-149.500,-111.500,-114.000,-137.500
1.780,-146.000,-108.500,-111.000,-134.500
1.781,-142.500,-105.000,-107.500,-131.000
1.782,-139.000,-101.000,-103.000,-127.500
1.783,-136.500,-98.000,-99.500,-124.000
1.784,-134.500,-95.500,-97.000,-122.000
1.785,-134.500,-95.000,-96.000,-121.000
1.786,-135.500,-95.500,-96.500,-121.000
1.787,-137.500,-97.000,-97.500,-122.000
1.788,-139.500,-98.500,-99.000,-123.000
1.789,-141.500,-99.500,-100.000,-123.500
1.790,-142.500,-100.500,-101.000,-124.000
1.791,-143.500,-101.500,-102.000,-124.500
1.792,-144.500,-102.500,-103.000,-125.000
1.793,-145.500,-104.000,-104.500,-127.000
1.794,-147.000,-106.500,-107.500,-130.000
1.795,-150.000,-109.500,-111.000,-133.500
1.796,-152.500,-113.000,-115.000,-137.500
1.797,-154.000,-115.000,-117.000,-139.500
1.798,-153.500,-115.000,-117.500,-139.500
1.799,-150.000,-112.000,-115.000,-137.500
1.800,-145.500,-108.000,-110.500,-133.000
1.801,-140.500,-103.000,-105.500,-128.500
1.802,-136.500,-98.500,-101.000,-123.500
1.803,-133.500,-95.000,-97.000,-120.000
1.804,-132.000,-92.500,-94.500,-118.000
1.805,-132.000,-92.000,-93.500,-117.000
1.806,-133.500,-92.500,-94.000,-117.500
1.807,-135.500,-93.500,-94.500,-118.500
1.808,-137.000,-94.500,-95.500,-119.500
1.809,-138.500,-96.000,-96.500,-120.000
1.810,-140.000,-97.000,-97.500,-121.000
1.811,-141.500,-99.000,-99.000,-122.500
1.812,-143.000,-100.500,-101.000,-124.000
1.813,-144.000,-102.000,-102.500,-126.000
1.814,-145.500,-103.500,-104.500,-127.500
1.815,-146.000,-105.000,-106.000,-129.500
1.816,-147.000,-106.000,-107.500,-130.500
1.817,-147.000,-107.000,-109.000,-132.000
1.818,-147.000,-107.000,-110.000,-132.500
1.819,-146.000,-106.500,-109.500,-132.000
1.820,-143.500,-104.000,-108.000,-130.000
1.821,-140.500,-100.500,-104.500,-127.000
1.822,-137.500,-96.500,-100.500,-123.000
1.823,-135.000,-93.500,-97.000,-120.000
1.824,-133.500,-91.500,-94.500,-118.000
1.825,-134.000,-91.500,-94.000,-117.500
1.826,-136.000,-92.500,-94.500,-118.000
1.827,-138.000,-94.500,-96.000,-119.000
1.828,-140.000,-96.000,-97.500,-120.500
1.829,-142.000,-97.500,-99.000,-122.000
1.830,-143.500,-99.000,-100.500,-123.000
1.831,-145.000,-100.000,-102.000,-124.500
1.832,-146.000,-101.500,-103.500,-126.000
1.833,-147.500,-103.500,-105.500,-127.500
1.834,-149.000,-105.500,-107.500,-130.000
1.835,-150.500,-107.500,-110.000,-133.000
1.836,-152.000,-110.000,-113.000,-135.500
1.837,-153.000,-112.000,-115.000,-137.500
1.838,-151.500,-111.500,-115.000,-137.500
1.839,-148.500,-109.000,-113.000,-135.500
1.840,-144.000,-105.000,-109.000,-131.500
1.841,-139.500,-100.500,-104.500,-127.000
1.842,-135.500,-96.000,-100.500,-123.500
1.843,-133.500,-93.000,-97.000,-120.500
1.844,-132.500,-91.000,-94.500,-119.000
1.845,-133.000,-91.000,-94.000,-118.500
1.846,-135.000,-93.000,-95.000,-119.500
1.847,-138.000,-95.500,-97.000,-121.500
1.848,-140.500,-98.000,-99.500,-123.500
1.849,-142.000,-100.000,-101.000,-125.000
1.850,-143.500,-101.500,-102.000,-126.000
1.851,-144.500,-102.500,-103.500,-127.000
1.852,-145.500,-103.500,-104.500,-128.000
1.853,-146.500,-104.500,-106.000,-129.500
1.854,-147.500,-105.500,-107.000,-130.500
1.855,-148.000,-106.500,-108.500,-132.000
1.856,-148.000,-106.500,-109.000,-132.500
1.857,-146.500,-106.000,-108.500,-132.000
1.858,-143.500,-103.500,-106.000,-129.500
1.859,-139.000,-99.500,-102.000,-125.000
1.860,-133.500,-94.500,-97.000,-120.000
1.861,-128.000,-89.000,-91.500,-115.000
1.862,-123.000,-83.500,-86.000,-109.500
1.863,-118.500,-78.500,-81.000,-104.500
1.864,-115.500,-74.500,-76.500,-101.000
1.865,-114.500,-73.000,-74.500,-99.000
1.866,-115.500,-73.000,-74.000,-99.000
1.867,-117.000,-74.000,-74.500,-99.500
1.868,-118.500,-75.000,-75.500,-100.500
1.869,-119.500,-76.000,-76.000,-101.000
1.870,-119.500,-76.500,-76.000,-101.000
1.871,-119.500,-76.000,-76.000,-100.500
1.872,-119.000,-75.500,-75.500,-100.000
1.873,-118.500,-75.500,-75.500,-100.000
1.874,-119.000,-76.500,-77.000,-101.500
1.875,-121.000,-79.000,-79.500,-104.500
1.876,-123.500,-82.500,-83.000,-108.000
1.877,-126.000,-85.000,-86.500,-111.000
1.878,-127.000,-86.500,-88.000,-112.500
1.879,-126.500,-86.500,-88.000,-112.500
1.880,-125.500,-85.000,-87.500,-112.000
1.881,-124.000,-83.500,-85.500,-110.500
1.882,-122.500,-82.000,-84.000,-109.000
1.883,-121.500,-80.500,-82.000,-107.500
1.884,-121.000,-79.500,-81.000,-106.500
1.885,-121.500,-79.500,-81.000,-107.000
1.886,-123.500,-81.000,-82.500,-108.000
1.887,-126.000,-82.500,-84.000,-109.500
1.888,-128.000,-84.500,-85.500,-111.000
1.889,-129.000,-85.000,-86.000,-111.500
1.890,-129.000,-85.000,-86.000,-111.500
1.891,-128.500,-84.500,-85.000,-110.500
1.892,-127.500,-83.500,-84.000,-109.500
1.893,-125.500,-82.000,-82.500,-108.500
1.894,-124.000,-80.500,-81.500,-107.500
1.895,-121.500,-79.000,-80.500,-106.500
1.896,-119.500,-78.000,-79.000,-105.000
1.897,-117.500,-76.500,-78.000,-104.000
1.898,-115.000,-75.000,-77.000,-102.500
1.899,-113.000,-73.500,-75.500,-101.000
1.900,-111.000,-71.500,-73.500,-99.000
1.901,-108.000,-68.500,-71.000,-96.500
1.902,-105.000,-65.000,-67.500,-93.500
1.903,-102.000,-61.500,-63.500,-90.000
1.904,-100.000,-59.000,-61.000,-87.500
1.905,-99.500,-58.000,-59.500,-86.500
1.906,-101.500,-59.000,-60.500,-87.500
1.907,-104.500,-61.500,-62.500,-89.500
1.908,-108.500,-65.500,-65.500,-92.500
1.909,-113.500,-69.500,-69.000,-96.000
1.910,-118.000,-74.500,-73.500,-100.000
1.911,-123.000,-79.000,-78.000,-104.500
1.912,-126.500,-82.500,-82.000,-108.000
1.913,-128.500,-85.500,-85.000,-111.000
1.914,-130.500,-87.500,-87.500,-113.500
1.915,-132.000,-89.500,-90.000,-116.000
1.916,-134.000,-91.500,-92.500,-118.500
1.917,-134.500,-93.000,-94.500,-120.000
1.918,-134.000,-93.000,-94.500,-120.000
1.919,-132.000,-92.000,-93.500,-119.000
1.920,-129.500,-89.500,-91.000,-116.500
1.921,-126.000,-86.500,-88.000,-114.000
1.922,-123.000,-83.000,-84.500,-111.500
1.923,-120.500,-80.000,-81.500,-108.500
1.924,-119.000,-78.000,-79.000,-107.000
1.925,-119.000,-77.500,-78.000,-106.000
1.926,-119.500,-78.000,-78.000,-107.000
1.927,-121.500,-80.000,-79.500,-108.500
1.928,-124.000,-82.500,-82.000,-111.500
1.929,-127.500,-85.500,-85.000,-115.000
1.930,-131.000,-89.000,-89.000,-119.000
1.931,-134.500,-92.500,-93.000,-123.000
1.932,-138.000,-96.500,-97.000,-128.000
1.933,-141.500,-100.000,-101.500,-133.000
1.934,-145.000,-104.000,-106.000,-138.000
1.935,-148.000,-108.000,-110.500,-143.000
1.936,-151.500,-112.000,-115.500,-147.500
1.937,-154.000,-115.500,-119.000,-150.500
1.938,-156.000,-118.000,-121.000,-151.000
1.939,-156.500,-119.000,-121.000,-149.500
1.940,-155.000,-117.500,-118.500,-145.500
1.941,-151.500,-114.000,-113.500,-139.500
1.942,-147.500,-109.000,-107.000,-132.500
1.943,-143.500,-104.500,-101.000,-126.000
1.944,-141.500,-101.500,-97.000,-122.000
1.945,-142.000,-101.000,-95.000,-120.000
1.946,-143.500,-102.000,-95.500,-120.500
1.947,-145.500,-103.500,-96.500,-122.000
1.948,-147.000,-105.000,-98.500,-124.000
1.949,-149.000,-107.500,-101.000,-127.000
1.950,-151.500,-110.000,-104.000,-130.000
1.951,-153.500,-112.500,-107.000,-133.500
1.952,-155.000,-114.500,-109.500,-137.000
1.953,-155.500,-115.500,-111.500,-139.000
1.954,-156.000,-116.500,-113.000,-141.000
1.955,-156.500,-118.000,-114.500,-143.000
1.956,-157.500,-119.000,-116.500,-145.000
1.957,-157.500,-120.000,-118.000,-146.000
1.958,-157.000,-120.000,-118.500,-146.000
1.959,-155.000,-118.500,-117.000,-145.000
1.960,-152.000,-115.500,-114.500,-142.000
1.961,-148.500,-112.000,-111.500,-138.500
1.962,-145.000,-108.500,-107.500,-135.000
1.963,-142.000,-104.500,-103.500,-131.000
1.964,-140.000,-102.000,-101.000,-128.500
1.965,-139.500,-101.000,-99.500,-127.000
1.966,-141.000,-102.000,-100.500,-128.000
1.967,-144.000,-104.000,-102.500,-129.500
1.968,-147.000,-106.500,-104.500,-131.500
1.969,-149.500,-108.500,-106.000,-133.000
1.970,-151.000,-110.000,-107.000,-133.500
1.971,-151.500,-110.000,-107.000,-133.500
1.972,-151.000,-110.000,-107.000,-133.500
1.973,-151.500,-110.500,-107.500,-134.000
1.974,-152.500,-112.000,-110.000,-136.500
1.975,-156.000,-116.000,-114.000,-140.500
1.976,-161.500,-121.500,-120.500,-146.500
1.977,-166.500,-127.000,-126.500,-152.500
1.978,-170.500,-131.500,-131.000,-157.000
1.979,-172.000,-133.500,-133.500,-159.500
1.980,-171.500,-133.500,-133.500,-160.000
1.981,-169.500,-131.500,-132.000,-158.500
1.982,-166.000,-128.000,-128.000,-155.000
1.983,-162.000,-123.500,-123.500,-151.000
1.984,-158.000,-119.000,-119.000,-146.500
1.985,-155.000,-116.000,-115.000,-142.500
1.986,-153.000,-113.000,-112.000,-139.500
1.987,-150.500,-110.000,-108.000,-135.500
1.988,-146.000,-105.500,-103.500,-130.500
1.989,-140.000,-99.000,-96.500,-123.500
1.990,-131.000,-90.000,-87.500,-113.500
1.991,-119.000,-77.500,-75.000,-101.000
1.992,-103.500,-62.000,-60.000,-85.000
1.993,-85.000,-43.500,-41.500,-66.000
1.994,-64.000,-23.500,-21.500,-45.500
1.995,-42.000,-1.500,0.000,-24.000
1.996,-18.500,21.500,23.000,-0.500
1.997,6.500,46.000,48.000,25.500
1.998,34.000,73.000,75.500,53.500
1.999,63.000,102.000,104.500,83.000
2.000,93.000,132.000,135.000,114.500
2.001,123.500,162.500,166.500,146.000
2.002,154.000,194.000,199.000,178.500
2.003,185.000,225.500,231.500,211.000
2.004,215.000,257.000,264.000,243.500
2.005,245.500,288.000,295.500,275.500
2.006,276.000,320.000,328.500,308.500
2.007,310.000,354.000,363.000,344.500
2.008,346.500,391.000,401.500,383.500
2.009,386.000,430.500,442.000,424.500
2.010,426.000,471.000,483.500,466.500
2.011,465.000,510.500,524.000,507.000
2.012,502.500,548.000,562.000,545.500
2.013,537.000,583.000,597.000,580.500
2.014,566.500,612.500,626.500,610.000
2.015,587.000,633.500,646.500,630.000
2.016,594.500,640.500,653.000,637.000
2.017,586.500,632.000,644.000,627.500
2.018,563.500,609.000,619.500,603.000
2.019,529.000,573.500,583.000,566.500
2.020,485.500,530.000,538.500,521.500
2.021,435.500,480.500,488.000,470.000
2.022,379.000,424.500,430.500,411.000
2.023,315.000,360.500,366.000,345.000
2.024,244.500,290.000,294.000,271.500
2.025,170.000,216.000,218.500,194.500
2.026,98.000,144.000,145.000,120.000
2.027,33.500,79.000,79.000,53.500
2.028,-21.500,23.000,23.000,-3.500
2.029,-68.000,-23.500,-24.500,-51.000
2.030,-106.500,-62.500,-63.500,-90.500
2.031,-138.000,-94.500,-95.500,-123.000
2.032,-164.000,-120.500,-122.000,-149.000
2.033,-184.000,-140.500,-142.500,-169.500
2.034,-198.000,-155.000,-157.500,-184.500
2.035,-207.500,-165.000,-167.500,-195.000
2.036,-212.500,-170.500,-173.500,-200.500
2.037,-213.500,-172.500,-176.000,-202.500
2.038,-211.500,-171.000,-174.500,-201.000
2.039,-206.000,-166.000,-169.500,-196.000
2.040,-199.000,-159.000,-162.500,-189.000
2.041,-190.500,-150.500,-153.500,-180.500
2.042,-181.500,-141.500,-144.500,-171.500
2.043,-173.500,-133.000,-135.000,-162.500
2.044,-166.500,-125.000,-127.000,-154.500
2.045,-161.500,-119.500,-120.500,-148.500
2.046,-158.000,-115.500,-116.000,-144.000
2.047,-156.000,-112.500,-113.000,-141.000
2.048,-154.000,-110.000,-110.500,-137.500
2.049,-152.000,-107.500,-108.000,-135.000
2.050,-150.500,-106.000,-106.000,-132.500
2.051,-150.000,-105.000,-105.000,-131.500
2.052,-150.000,-105.500,-105.000,-132.000
2.053,-151.000,-107.000,-106.500,-133.500
2.054,-152.500,-108.500,-108.500,-135.500
2.055,-153.500,-111.000,-111.000,-138.000
2.056,-154.000,-112.500,-113.500,-140.000
2.057,-154.000,-113.500,-114.500,-141.000
2.058,-152.000,-112.500,-114.000,-140.500
2.059,-148.500,-110.000,-112.000,-138.000
2.060,-144.000,-106.000,-108.500,-135.000
2.061,-140.000,-102.000,-104.500,-131.000
2.062,-136.000,-98.000,-100.000,-127.000
2.063,-133.500,-95.000,-96.500,-124.000
2.064,-133.000,-93.500,-95.000,-122.500
2.065,-134.500,-94.500,-96.000,-123.500
2.066,-138.000,-97.000,-98.500,-126.000
2.067,-142.000,-100.500,-101.500,-129.000
2.068,-144.500,-103.000,-104.000,-131.500
2.069,-146.000,-104.000,-105.000,-132.000
2.070,-145.500,-103.500,-104.500,-131.500
2.071,-144.500,-102.500,-103.000,-130.000
2.072,-144.500,-102.500,-103.000,-130.000
2.073,-145.500,-103.500,-104.000,-131.500
2.074,-148.000,-106.000,-107.000,-134.000
2.075,-150.500,-109.500,-110.000,-137.500
2.076,-153.000,-112.500,-113.500,-141.000
2.077,-154.000,-114.000,-115.500,-143.000
2.078,-153.000,-114.000,-116.000,-142.500
2.079,-150.000,-111.500,-113.500,-140.000
2.080,-145.500,-107.500,-109.500,-136.000
2.081,-140.500,-102.000,-104.500,-131.000
2.082,-136.000,-97.500,-99.500,-126.500
2.083,-132.500,-93.500,-95.500,-122.500
2.084,-131.000,-91.500,-93.500,-120.000
2.085,-131.500,-91.000,-92.500,-119.000
2.086,-132.500,-92.000,-93.000,-119.000
2.087,-134.500,-93.500,-94.000,-120.000
2.088,-136.500,-95.000,-95.000,-121.000
2.089,-138.500,-97.000,-96.500,-122.500
2.090,-140.000,-99.000,-97.500,-124.000
2.091,-141.500,-100.000,-98.500,-125.000
2.092,-142.500,-101.500,-99.500,-126.000
2.093,-143.000,-102.500,-100.500,-127.500
2.094,-144.500,-104.000,-102.500,-129.500
2.095,-146.000,-106.000,-105.000,-132.000
2.096,-147.500,-108.000,-107.500,-134.000
2.097,-147.500,-108.500,-109.000,-135.500
2.098,-147.000,-108.000,-108.500,-135.000
2.099,-144.500,-106.000,-106.500,-132.500
2.100,-140.500,-102.000,-103.000,-129.000
2.101,-136.000,-97.000,-98.000,-124.000
2.102,-131.500,-92.500,-93.000,-119.500
2.103,-128.000,-88.500,-89.000,-116.000
2.104,-127.000,-86.500,-86.500,-114.000
2.105,-127.000,-86.000,-86.000,-113.500
2.106,-128.500,-87.000,-86.500,-114.000
2.107,-130.500,-88.500,-87.500,-115.000
2.108,-132.000,-90.000,-89.000,-115.500
2.109,-133.500,-91.000,-90.000,-116.500
2.110,-134.500,-92.500,-91.500,-117.000
2.111,-136.000,-94.000,-93.000,-118.500
2.112,-137.500,-96.000,-94.500,-120.000
2.113,-139.500,-98.000,-96.500,-122.000
2.114,-141.000,-100.000,-98.500,-124.500
2.115,-143.000,-102.000,-101.000,-126.500
2.116,-144.000,-104.000,-103.000,-129.000
2.117,-145.000,-105.000,-105.000,-130.000
2.118,-144.000,-105.000,-105.000,-130.000
2.119,-142.000,-103.000,-103.500,-128.500
2.120,-138.000,-99.500,-100.000,-125.000
2.121,-133.500,-95.000,-96.000,-121.000
2.122,-129.000,-90.000,-91.000,-116.500
2.123,-126.000,-86.500,-87.000,-113.000
2.124,-124.500,-84.500,-84.500,-110.500
2.125,-125.500,-84.000,-84.000,-110.000
2.126,-127.000,-85.000,-84.500,-110.500
2.127,-128.500,-85.500,-85.000,-111.000
2.128,-129.000,-86.000,-85.500,-111.000
2.129,-129.500,-86.500,-85.500,-110.500
2.130,-130.000,-86.500,-85.500,-110.500
2.131,-131.500,-87.500,-86.500,-111.500
2.132,-133.000,-89.000,-87.500,-113.000
2.133,-134.500,-90.500,-89.500,-115.000
2.134,-136.000,-92.000,-91.500,-117.000
2.135,-137.500,-94.000,-93.000,-119.000
2.136,-138.000,-95.000,-95.000,-120.500
2.137,-138.000,-95.500,-95.000,-121.000
2.138,-135.500,-93.500,-93.500,-119.000
2.139,-131.000,-89.500,-89.500,-115.000
2.140,-126.000,-84.500,-84.500,-110.000
2.141,-121.000,-80.000,-80.000,-105.500
2.142,-117.500,-76.000,-75.500,-102.000
2.143,-114.500,-72.500,-72.500,-99.000
2.144,-113.500,-70.500,-70.000,-97.000
2.145,-114.000,-70.500,-70.500,-97.500
2.146,-117.000,-73.000,-72.500,-99.500
2.147,-120.500,-76.000,-75.500,-102.000
2.148,-123.500,-79.000,-77.500,-104.000
2.149,-124.500,-80.000,-78.500,-104.500
2.150,-125.000,-80.500,-78.500,-104.000
2.151,-124.500,-80.000,-78.000,-103.500
2.152,-124.000,-80.000,-78.000,-103.000
2.153,-123.500,-80.000,-78.000,-103.500
2.154,-123.500,-81.000,-79.000,-104.500
2.155,-124.000,-82.000,-80.500,-105.500
2.156,-124.000,-83.000,-81.500,-107.000
2.157,-123.500,-83.000,-82.500,-107.500
2.158,-122.000,-82.000,-81.500,-106.500
2.159,-119.000,-80.000,-80.000,-104.500
2.160,-115.500,-76.500,-76.500,-101.500
2.161,-111.500,-72.000,-72.500,-97.500
2.162,-107.000,-67.500,-68.000,-93.000
2.163,-103.500,-63.000,-63.500,-89.000
2.164,-101.000,-59.500,-60.000,-85.500
2.165,-100.000,-58.500,-58.500,-84.000
2.166,-101.000,-58.500,-58.500,-84.000
2.167,-103.000,-60.000,-59.500,-85.000
2.168,-105.000,-62.000,-60.500,-86.000
2.169,-107.000,-63.000,-61.500,-87.000
2.170,-108.000,-64.000,-62.000,-87.000
2.171,-108.000,-64.000,-61.500,-87.000
2.172,-108.000,-64.000,-61.500,-86.500
2.173,-107.500,-63.500,-61.500,-86.500
2.174,-107.500,-64.000,-62.000,-87.000
2.175,-108.500,-65.500,-64.000,-89.000
2.176,-110.000,-68.000,-66.500,-91.500
2.177,-111.000,-69.500,-68.500,-93.000
2.178,-110.000,-68.500,-68.000,-92.000
2.179,-107.000,-65.500,-65.500,-89.500
2.180,-102.000,-60.500,-60.500,-84.500
2.181,-96.000,-54.500,-54.500,-78.500
2.182,-90.500,-48.500,-48.500,-72.500
2.183,-86.500,-43.500,-43.000,-68.000
2.184,-84.000,-40.500,-39.500,-65.000
2.185,-84.000,-39.500,-38.500,-64.000
2.186,-85.000,-39.500,-38.500,-64.500
2.187,-87.000,-40.500,-39.000,-65.000
2.188,-88.500,-41.500,-39.500,-66.000
2.189,-89.500,-42.500,-40.500,-66.500
2.190,-91.000,-43.000,-41.000,-67.000
2.191,-91.500,-43.500,-41.000,-67.000
2.192,-91.000,-43.000,-41.000,-67.000
2.193,-89.500,-42.500,-40.500,-66.500
2.194,-88.000,-41.500,-40.000,-66.000
2.195,-87.500,-41.500,-40.500,-66.500
2.196,-87.000,-42.000,-42.000,-67.500
2.197,-87.500,-43.000,-43.500,-69.000
2.198,-86.500,-43.500,-44.000,-69.000
2.199,-84.500,-42.000,-43.000,-68.000
2.200,-81.000,-38.500,-39.500,-64.500
2.201,-76.000,-33.000,-34.000,-59.000
2.202,-70.000,-26.500,-27.500,-53.000
2.203,-64.000,-20.000,-21.000,-47.000
2.204,-59.500,-15.000,-16.000,-42.000
2.205,-58.000,-12.500,-13.000,-39.500
2.206,-58.000,-12.500,-12.500,-39.000
2.207,-59.500,-13.000,-13.000,-40.000
2.208,-61.000,-14.000,-13.500,-40.000
2.209,-61.500,-14.500,-13.500,-40.000
2.210,-62.000,-14.500,-13.500,-39.500
2.211,-62.500,-15.000,-13.500,-39.500
2.212,-62.500,-15.500,-13.500,-39.500
2.213,-62.500,-15.500,-13.500,-39.500
2.214,-61.500,-15.000,-13.000,-39.500
2.215,-60.500,-14.500,-12.000,-38.500
2.216,-58.500,-13.000,-11.000,-38.000
2.217,-56.500,-11.500,-9.500,-36.500
2.218,-53.500,-9.500,-8.000,-34.500
2.219,-50.000,-6.500,-5.500,-32.000
2.220,-46.000,-2.500,-2.000,-28.000
2.221,-40.500,3.000,4.000,-22.500
2.222,-34.000,10.500,11.000,-15.500
2.223,-28.000,17.000,18.000,-8.500
2.224,-23.500,22.500,23.500,-3.000
2.225,-20.500,26.000,27.000,0.500
2.226,-19.500,27.000,29.000,2.000
2.227,-19.500,27.500,29.500,3.000
2.228,-20.000,27.500,30.000,3.500
2.229,-20.000,27.500,30.500,4.000
2.230,-20.500,28.000,31.000,5.000
2.231,-20.000,28.500,31.500,5.500
2.232,-20.000,28.500,32.000,6.000
2.233,-20.000,28.500,32.000,5.500
2.234,-19.500,28.500,32.000,5.500
2.235,-18.500,29.000,32.000,5.500
2.236,-17.000,30.000,32.500,6.500
2.237,-14.500,31.500,34.000,8.000
2.238,-11.000,35.000,37.000,11.500
2.239,-5.500,40.000,42.000,16.500
2.240,1.000,46.000,48.000,22.500
2.241,7.500,52.500,54.500,28.500
2.242,13.000,58.500,60.500,34.500
2.243,17.500,64.000,66.000,39.500
2.244,20.500,67.500,70.500,43.500
2.245,23.000,70.500,73.500,46.500
2.246,24.500,72.500,76.500,49.000
2.247,26.500,74.500,78.500,51.500
2.248,27.500,75.500,79.500,53.000
2.249,27.000,75.500,79.500,53.500
2.250,26.500,75.000,79.000,53.000
2.251,25.500,74.500,78.500,52.500
2.252,26.000,74.500,78.500,52.500
2.253,27.500,76.000,79.500,53.500
2.254,28.500,77.000,80.500,54.500
2.255,29.500,77.500,81.000,54.500
2.256,29.500,77.000,80.000,54.000
2.257,29.500,77.000,79.500,53.000
2.258,30.500,77.500,79.500,54.000
2.259,33.500,80.000,82.000,56.500
2.260,38.000,84.500,86.000,60.500
2.261,43.500,90.000,91.500,66.000
2.262,49.000,96.500,98.000,72.000
2.263,54.000,102.000,104.000,77.500
2.264,57.500,106.500,108.000,81.500
2.265,59.000,108.500,110.500,83.000
2.266,58.500,108.500,111.000,83.500
2.267,57.500,108.000,110.500,83.000
2.268,56.500,107.500,110.000,83.000
2.269,56.500,107.000,110.000,83.500
2.270,56.500,107.000,110.500,84.000
2.271,57.000,107.000,111.000,84.500
2.272,57.000,107.000,111.000,84.500
2.273,57.000,106.500,110.500,84.500
2.274,57.000,106.000,110.000,84.000
2.275,57.000,105.500,108.500,83.000
2.276,56.500,104.000,107.000,81.000
2.277,55.500,102.000,104.500,79.000
2.278,55.000,101.000,103.000,77.500
2.279,55.500,101.000,103.000,77.500
2.280,57.500,102.500,104.500,79.000
2.281,60.000,105.500,107.000,81.500
2.282,63.000,109.000,110.500,84.500
2.283,65.500,112.000,113.500,87.000
2.284,66.000,113.500,115.000,88.000
2.285,64.000,112.500,114.000,87.000
2.286,60.000,109.500,111.500,84.000
2.287,55.500,105.500,108.000,80.500
2.288,51.000,102.000,104.500,77.000
2.289,46.500,97.500,100.500,73.000
2.290,41.500,93.000,96.000,69.000
2.291,36.500,87.500,90.500,64.000
2.292,31.500,82.500,85.500,58.500
2.293,26.500,77.500,80.500,53.500
2.294,22.000,72.500,75.000,48.000
2.295,18.000,67.500,70.000,42.500
2.296,14.000,63.000,64.500,37.000
2.297,11.000,59.000,59.500,32.500
2.298,8.500,55.500,55.500,28.500
2.299,6.500,53.000,52.500,25.500
2.300,5.500,52.000,50.500,23.500
2.301,5.000,51.000,49.500,22.500
2.302,4.500,51.000,49.500,22.000
2.303,3.500,50.500,49.000,21.500
2.304,1.500,49.000,48.000,20.000
2.305,-1.500,46.500,45.500,17.500
2.306,-6.500,42.000,42.000,14.000
2.307,-12.000,37.000,37.000,9.000
2.308,-18.000,31.000,31.000,3.500
2.309,-24.000,25.000,25.000,-2.500
2.310,-30.000,19.000,19.000,-8.000
2.311,-35.500,13.500,14.000,-13.000
2.312,-39.500,9.000,9.500,-17.500
2.313,-43.500,5.000,5.500,-22.000
2.314,-47.500,0.500,1.000,-26.500
2.315,-52.000,-4.000,-4.000,-32.000
2.316,-57.000,-9.500,-10.000,-37.500
2.317,-61.500,-15.000,-15.500,-43.000
2.318,-65.000,-18.500,-19.500,-47.000
2.319,-66.000,-20.000,-21.500,-49.000
2.320,-65.000,-19.000,-20.500,-48.000
2.321,-62.000,-16.500,-18.000,-46.000
2.322,-60.000,-14.000,-16.000,-43.500
2.323,-59.500,-13.000,-15.000,-43.000
2.324,-61.000,-14.000,-15.500,-44.000
2.325,-64.000,-16.000,-17.500,-46.000
2.326,-67.500,-19.000,-20.500,-49.000
2.327,-71.000,-22.000,-23.000,-52.000
2.328,-74.500,-25.000,-26.000,-55.000
2.329,-78.500,-28.500,-29.500,-58.000
2.330,-83.000,-33.000,-34.000,-62.000
2.331,-88.500,-38.500,-39.000,-67.500
2.332,-94.000,-44.000,-45.000,-73.000
2.333,-99.500,-49.500,-50.000,-78.500
2.334,-104.000,-54.000,-55.000,-83.500
2.335,-107.500,-58.000,-59.000,-87.500
2.336,-110.500,-61.500,-63.000,-91.500
2.337,-112.000,-64.500,-66.000,-94.500
2.338,-112.500,-65.500,-67.500,-96.000
2.339,-110.500,-64.500,-67.000,-95.000
2.340,-107.500,-61.500,-64.000,-93.000
2.341,-103.500,-57.500,-60.500,-90.000
2.342,-99.000,-53.000,-55.500,-86.500
2.343,-95.500,-49.500,-51.500,-83.000
2.344,-94.000,-47.000,-49.000,-81.500
2.345,-96.000,-48.000,-50.000,-83.000
2.346,-100.500,-52.500,-54.500,-88.000
2.347,-107.000,-58.500,-61.000,-94.500
2.348,-113.500,-65.000,-68.000,-101.500
2.349,-118.000,-70.000,-73.000,-106.500
2.350,-121.000,-73.000,-76.500,-109.500
2.351,-122.500,-74.500,-78.000,-111.000
2.352,-123.500,-76.000,-79.000,-111.500
2.353,-125.000,-77.500,-80.000,-111.500
2.354,-126.500,-80.000,-81.500,-111.500
2.355,-128.500,-82.500,-83.000,-111.500
2.356,-130.000,-84.000,-84.000,-111.000
2.357,-130.000,-84.000,-83.500,-109.500
2.358,-129.000,-83.000,-81.500,-107.000
2.359,-126.500,-80.500,-78.500,-103.500
2.360,-123.500,-77.500,-75.000,-100.000
2.361,-120.500,-74.000,-71.500,-97.000
2.362,-117.500,-70.000,-68.000,-94.000
2.363,-114.500,-67.000,-65.000,-92.000
2.364,-113.000,-65.000,-63.500,-91.500
2.365,-112.500,-64.000,-63.000,-92.000
2.366,-113.500,-64.500,-64.000,-93.000
2.367,-115.000,-65.500,-65.000,-95.000
2.368,-117.000,-66.500,-66.500,-97.000
2.369,-118.500,-68.000,-68.000,-98.500
2.370,-120.500,-69.500,-69.500,-100.500
2.371,-122.500,-71.000,-71.500,-102.500
2.372,-124.500,-73.000,-73.500,-105.000
2.373,-126.500,-75.500,-76.500,-108.000
2.374,-128.500,-78.000,-79.500,-111.000
2.375,-130.000,-80.500,-82.000,-114.000
2.376,-131.500,-82.500,-85.000,-116.500
2.377,-132.000,-83.500,-86.500,-118.000
2.378,-131.000,-83.000,-86.500,-118.000
2.379,-128.500,-81.000,-85.000,-116.000
2.380,-125.000,-78.000,-82.000,-113.000
2.381,-121.000,-74.000,-78.500,-109.500
2.382,-117.500,-70.000,-74.500,-105.500
2.383,-115.000,-66.500,-70.500,-102.500
2.384,-114.000,-65.000,-68.500,-100.500
2.385,-115.500,-65.500,-68.500,-101.000
2.386,-118.000,-67.500,-70.000,-103.000
2.387,-121.500,-70.500,-72.500,-105.500
2.388,-124.500,-73.500,-75.000,-107.500
2.389,-127.000,-75.500,-77.000,-109.000
2.390,-129.000,-77.500,-78.500,-110.500
2.391,-130.500,-79.500,-80.000,-112.000
2.392,-132.000,-81.000,-81.000,-113.500
2.393,-133.000,-82.500,-82.500,-115.000
2.394,-134.000,-83.500,-84.000,-116.500
2.395,-134.500,-84.500,-85.500,-118.000
2.396,-134.500,-85.500,-87.000,-119.500
2.397,-134.000,-86.000,-88.500,-120.500
2.398,-133.000,-85.500,-88.500,-120.000
2.399,-130.000,-83.000,-86.500,-118.000
2.400,-126.500,-79.500,-83.000,-115.000
2.401,-122.000,-75.000,-79.000,-111.000
2.402,-118.000,-71.000,-75.000,-107.000
2.403,-115.500,-67.500,-71.500,-104.000
2.404,-114.500,-66.500,-70.000,-102.500
2.405,-115.500,-66.500,-70.000,-103.000
2.406,-116.500,-67.500,-70.500,-103.500
2.407,-117.500,-68.500,-71.000,-104.000
2.408,-118.500,-69.000,-71.500,-104.000
2.409,-120.000,-70.500,-72.000,-104.500
2.410,-121.500,-72.000,-73.500,-106.000
2.411,-124.000,-74.000,-75.000,-107.500
2.412,-125.000,-75.500,-76.500,-108.500
2.413,-125.500,-76.000,-77.000,-109.000
2.414,-125.500,-76.500,-78.000,-109.500
2.415,-126.000,-78.000,-79.500,-111.000
2.416,-128.000,-80.500,-82.000,-113.500
2.417,-130.000,-83.500,-85.000,-116.500
2.418,-130.500,-84.500,-86.500,-118.000
2.419,-129.000,-83.500,-85.500,-117.000
2.420,-126.000,-80.000,-82.500,-114.000
2.421,-122.000,-76.000,-79.000,-110.500
2.422,-118.500,-72.500,-75.500,-107.000
2.423,-117.000,-69.500,-73.000,-105.000
2.424,-116.500,-68.500,-71.500,-104.000
2.425,-117.500,-69.000,-71.500,-104.500
2.426,-119.500,-70.500,-73.000,-106.000
2.427,-122.000,-73.000,-75.000,-108.000
2.428,-124.500,-75.000,-77.000,-110.000
2.429,-126.500,-77.000,-78.500,-111.500
2.430,-128.000,-79.000,-80.000,-113.000
2.431,-130.000,-80.500,-81.000,-114.500
2.432,-131.500,-82.500,-83.000,-116.500
2.433,-133.500,-84.500,-85.500,-119.000
2.434,-135.500,-86.500,-88.000,-122.000
2.435,-137.500,-89.000,-90.500,-124.500
2.436,-139.000,-91.000,-93.000,-127.000
2.437,-140.000,-92.000,-94.500,-128.000
2.438,-139.000,-91.500,-94.500,-127.500
2.439,-137.500,-90.500,-93.000,-126.500
2.440,-135.000,-88.500,-91.500,-125.000
2.441,-132.000,-85.500,-89.000,-122.500
2.442,-128.000,-82.000,-85.000,-119.500
2.443,-124.500,-77.500,-81.000,-115.500
2.444,-121.500,-74.500,-77.500,-112.500
2.445,-120.000,-72.500,-75.500,-111.000
2.446,-121.000,-73.000,-75.500,-111.000
2.447,-122.500,-74.500,-76.500,-112.000
2.448,-125.000,-76.500,-78.000,-113.500
2.449,-127.000,-78.000,-79.500,-115.000
2.450,-128.500,-79.500,-81.000,-116.000
2.451,-130.000,-80.500,-82.000,-116.500
2.452,-131.500,-81.500,-83.000,-118.000
2.453,-132.500,-83.500,-85.000,-119.500
2.454,-134.500,-86.000,-87.500,-122.500
2.455,-137.500,-89.000,-91.000,-126.000
2.456,-139.500,-92.000,-94.500,-129.500
2.457,-141.000,-94.500,-97.000,-131.500
2.458,-140.000,-94.500,-97.500,-132.000
2.459,-137.500,-92.500,-95.500,-130.000
2.460,-133.500,-89.000,-92.500,-127.000
2.461,-129.500,-85.000,-88.500,-123.500
2.462,-126.500,-82.000,-85.500,-120.500
2.463,-125.000,-80.000,-83.500,-118.500
2.464,-125.000,-79.000,-82.000,-117.500
2.465,-126.500,-80.000,-82.000,-118.000
2.466,-129.500,-81.500,-83.500,-119.500
2.467,-132.500,-84.500,-85.500,-121.500
2.468,-136.000,-87.500,-88.500,-124.000
2.469,-139.000,-90.500,-90.500,-126.000
2.470,-141.500,-93.000,-92.500,-127.500
2.471,-143.000,-94.500,-94.000,-128.500
2.472,-143.500,-95.500,-95.500,-129.500
2.473,-143.500,-96.000,-96.000,-130.000
2.474,-144.000,-96.500,-97.500,-131.500
2.475,-145.000,-98.000,-99.000,-133.000
2.476,-146.000,-99.500,-101.000,-135.000
2.477,-147.000,-101.000,-103.000,-136.500
2.478,-147.000,-101.500,-103.500,-137.000
2.479,-145.500,-100.500,-102.500,-136.000
2.480,-142.500,-97.500,-99.500,-133.500
2.481,-139.000,-93.500,-96.000,-130.000
2.482,-136.000,-89.500,-92.000,-126.500
2.483,-133.000,-86.000,-88.500,-123.000
2.484,-131.500,-84.000,-86.500,-121.000
2.485,-131.500,-83.500,-86.000,-120.500
2.486,-132.500,-85.000,-87.000,-121.500
2.487,-135.000,-87.500,-89.500,-123.500
2.488,-138.000,-90.500,-92.000,-125.500
2.489,-140.000,-93.000,-94.500,-127.500
2.490,-142.000,-95.000,-96.500,-129.000
2.491,-143.500,-97.000,-98.000,-130.500
2.492,-145.000,-98.500,-99.500,-132.000
2.493,-146.000,-100.000,-101.500,-134.000
2.494,-148.000,-102.500,-104.000,-136.500
2.495,-150.000,-104.500,-107.000,-139.000
2.496,-151.500,-107.000,-109.500,-141.000
2.497,-151.500,-107.500,-110.500,-142.000
2.498,-150.000,-106.500,-109.500,-141.000
2.499,-147.000,-104.000,-107.500,-138.500
2.500,-144.000,-101.500,-105.000,-136.000
2.501,-141.500,-99.000,-102.500,-133.500
2.502,-139.500,-96.500,-100.500,-131.500
2.503,-137.500,-94.000,-98.000,-129.000
2.504,-136.500,-92.000,-95.500,-127.000
2.505,-136.500,-91.500,-94.500,-126.500
2.506,-138.500,-92.000,-95.000,-127.500
2.507,-140.500,-94.000,-96.500,-129.000
2.508,-143.000,-96.000,-98.500,-130.500
2.509,-145.000,-97.500,-100.000,-132.000
2.510,-146.500,-99.000,-101.000,-132.500
2.511,-147.000,-100.000,-101.500,-133.000
2.512,-147.000,-100.000,-101.500,-133.000
2.513,-147.000,-100.000,-102.000,-133.500
2.514,-147.000,-100.500,-102.000,-134.000
2.515,-147.000,-101.000,-103.000,-135.000
2.516,-147.000,-102.000,-104.000,-136.000
2.517,-148.000,-103.000,-105.500,-137.500
2.518,-149.000,-104.500,-107.500,-139.000
2.519,-149.500,-106.000,-108.500,-140.000
2.520,-149.000,-105.500,-108.000,-140.000
2.521,-146.500,-103.000,-106.000,-137.500
2.522,-143.000,-99.000,-102.000,-134.000
2.523,-139.000,-95.000,-97.500,-130.000
2.524,-136.500,-92.000,-94.000,-126.500
2.525,-136.000,-91.000,-92.500,-125.500
2.526,-138.000,-92.000,-93.000,-126.500
2.527,-141.000,-95.000,-95.500,-128.500
2.528,-144.500,-98.000,-98.000,-131.000
2.529,-146.500,-100.000,-100.500,-133.000
2.530,-148.000,-101.500,-101.500,-133.500
2.531,-148.000,-102.000,-102.000,-133.500
2.532,-148.000,-101.500,-101.500,-133.000
2.533,-148.000,-101.500,-102.000,-133.500
2.534,-148.500,-102.500,-103.000,-134.500
2.535,-150.000,-104.000,-105.000,-137.000
2.536,-152.000,-107.000,-108.500,-140.000
2.537,-154.000,-109.500,-111.500,-142.500
2.538,-155.000,-110.500,-113.000,-144.000
2.539,-153.500,-110.000,-112.500,-143.000
2.540,-150.500,-107.000,-109.500,-140.000
2.541,-146.500,-102.500,-105.000,-136.000
2.542,-142.000,-98.000,-100.500,-131.500
2.543,-138.500,-94.000,-96.500,-127.500
2.544,-136.500,-91.500,-93.500,-125.000
2.545,-137.000,-91.500,-93.500,-125.000
2.546,-139.500,-93.000,-95.000,-126.500
2.547,-142.500,-96.000,-97.000,-128.500
2.548,-145.500,-98.500,-99.500,-130.500
2.549,-147.500,-100.500,-100.500,-131.500
2.550,-149.000,-102.000,-102.000,-132.500
2.551,-150.500,-103.000,-103.000,-133.500
2.552,-152.000,-104.500,-104.500,-134.500
2.553,-154.000,-106.500,-107.000,-137.000
2.554,-156.000,-109.000,-110.000,-139.500
2.555,-158.500,-111.500,-112.500,-142.500
2.556,-160.000,-113.500,-115.000,-145.000
2.557,-160.500,-114.500,-116.500,-146.500
2.558,-159.500,-114.500,-117.000,-146.500
2.559,-157.500,-113.000,-115.500,-145.000
2.560,-154.500,-110.000,-113.000,-142.500
2.561,-151.000,-106.500,-109.500,-139.500
2.562,-147.500,-102.500,-105.500,-136.000
2.563,-144.500,-99.000,-101.500,-132.500
2.564,-142.500,-96.500,-98.000,-129.500
2.565,-142.000,-95.500,-96.500,-128.500
2.566,-143.000,-96.000,-96.500,-128.500
2.567,-144.500,-97.000,-97.500,-129.000
2.568,-146.000,-98.000,-98.500,-129.500
2.569,-147.500,-99.000,-99.500,-130.500
2.570,-149.000,-100.500,-100.500,-131.000
2.571,-150.500,-102.000,-102.500,-132.500
2.572,-152.500,-104.000,-104.500,-134.500
2.573,-154.500,-106.500,-107.000,-137.000
2.574,-156.000,-108.500,-109.000,-139.500
2.575,-156.500,-109.500,-110.500,-141.500
2.576,-156.500,-110.500,-112.000,-142.500
2.577,-156.000,-111.000,-113.000,-143.500
2.578,-155.500,-111.500,-114.000,-144.000
2.579,-155.000,-111.500,-114.500,-144.000
2.580,-154.000,-111.000,-114.000,-143.500
2.581,-152.000,-109.000,-111.500,-141.500
2.582,-148.500,-105.000,-108.000,-138.000
2.583,-145.500,-101.500,-103.500,-134.500
2.584,-143.500,-98.500,-101.000,-132.500
2.585,-144.000,-98.500,-100.000,-132.000
2.586,-146.000,-99.500,-101.000,-133.000
2.587,-148.500,-101.500,-102.500,-134.000
2.588,-150.500,-103.500,-104.000,-135.500
2.589,-152.500,-105.000,-105.500,-136.500
2.590,-153.500,-106.000,-106.500,-137.500
2.591,-155.000,-107.500,-108.000,-139.000
2.592,-156.000,-109.000,-109.500,-140.500
2.593,-157.500,-110.000,-111.000,-141.500
2.594,-158.000,-111.500,-112.500,-143.000
2.595,-159.000,-112.500,-114.000,-145.000
2.596,-160.000,-114.000,-115.500,-146.500
2.597,-160.500,-114.500,-117.000,-148.000
2.598,-160.000,-115.000,-118.000,-148.500
2.599,-158.500,-114.000,-117.000,-147.500
2.600,-156.000,-111.000,-114.500,-145.000
2.601,-152.000,-107.500,-110.500,-141.000
2.602,-148.000,-102.500,-105.500,-136.000
2.603,-144.500,-98.500,-101.000,-132.000
2.604,-142.500,-95.500,-98.000,-129.000
2.605,-142.000,-94.500,-96.500,-128.000
2.606,-143.500,-95.000,-96.500,-128.000
2.607,-145.000,-96.000,-98.000,-129.000
2.608,-146.500,-97.500,-99.000,-130.000
2.609,-147.500,-98.500,-99.500,-130.500
2.610,-148.500,-99.000,-100.000,-131.000
2.611,-149.500,-100.000,-100.500,-132.000
2.612,-150.500,-101.500,-102.000,-133.500
2.613,-152.000,-103.000,-104.000,-136.000
2.614,-153.500,-105.000,-106.500,-138.000
2.615,-154.500,-106.500,-109.000,-140.500
2.616,-155.000,-108.000,-111.000,-142.500
2.617,-155.000,-109.000,-112.500,-143.500
2.618,-154.000,-108.500,-112.500,-143.000
2.619,-152.000,-107.000,-111.000,-141.500
2.620,-149.000,-104.000,-108.500,-139.000
2.621,-146.000,-101.500,-105.500,-136.000
2.622,-144.000,-99.000,-103.000,-133.500
2.623,-143.000,-97.000,-101.000,-132.000
2.624,-142.500,-96.000,-99.500,-131.000
2.625,-143.000,-96.000,-99.000,-131.000
2.626,-145.000,-97.000,-100.000,-131.500
2.627,-147.500,-99.000,-101.500,-133.000
2.628,-150.500,-101.000,-103.500,-134.500
2.629,-152.500,-102.000,-104.500,-135.500
2.630,-154.500,-103.500,-105.500,-136.000
2.631,-156.000,-105.000,-107.000,-137.000
2.632,-157.500,-106.000,-108.500,-138.500
2.633,-158.500,-108.000,-110.000,-140.000
2.634,-159.500,-109.500,-112.000,-142.000
2.635,-160.000,-111.500,-114.000,-144.500
2.636,-161.000,-113.000,-116.000,-147.000
2.637,-161.000,-114.000,-117.500,-148.000
2.638,-159.500,-113.000,-117.000,-147.500
2.639,-156.500,-110.500,-114.500,-145.000
2.640,-152.000,-107.000,-111.000,-141.000
2.641,-148.000,-102.500,-107.000,-137.000
2.642,-144.000,-99.000,-103.000,-133.500
2.643,-141.500,-96.000,-100.000,-131.000
2.644,-140.500,-94.500,-98.500,-129.500
2.645,-141.000,-94.000,-98.000,-129.500
2.646,-143.000,-95.500,-99.000,-130.500
2.647,-145.000,-97.000,-100.000,-131.500
2.648,-147.000,-99.000,-101.500,-132.500
2.649,-148.500,-100.000,-102.500,-133.000
2.650,-150.000,-101.000,-103.000,-133.500
2.651,-151.000,-102.000,-104.000,-134.000
2.652,-152.500,-103.000,-105.000,-135.500
2.653,-153.500,-104.500,-107.000,-137.000
2.654,-155.000,-106.500,-109.500,-139.500
2.655,-157.000,-108.500,-112.000,-142.000
2.656,-157.500,-110.000,-114.000,-144.000
2.657,-157.000,-110.000,-114.500,-144.500
2.658,-154.500,-108.500,-113.000,-143.000
2.659,-150.500,-104.500,-110.000,-139.000
2.660,-145.000,-99.500,-105.000,-134.000
2.661,-138.500,-93.000,-98.500,-128.000
2.662,-132.500,-86.000,-92.000,-121.500
2.663,-127.500,-80.500,-86.500,-116.500
2.664,-124.500,-77.000,-82.500,-112.500
2.665,-123.500,-75.000,-80.000,-111.000
2.666,-123.500,-74.500,-79.000,-110.000
2.667,-124.500,-74.500,-78.500,-109.500
2.668,-124.500,-74.000,-78.000,-109.000
2.669,-124.000,-74.000,-77.500,-108.000
2.670,-124.000,-73.500,-77.500,-107.500
2.671,-124.500,-74.500,-78.000,-108.000
2.672,-125.500,-75.500,-79.000,-109.000
2.673,-126.500,-77.000,-80.500,-110.500
2.674,-127.500,-78.500,-82.500,-112.500
2.675,-129.000,-80.500,-85.000,-115.000
2.676,-131.000,-83.000,-88.500,-118.500
2.677,-133.500,-86.000,-92.000,-122.000
2.678,-135.000,-88.500,-95.000,-125.000
2.679,-136.000,-89.500,-96.500,-126.000
2.680,-135.000,-89.000,-96.000,-126.000
2.681,-133.000,-87.000,-94.000,-124.000
2.682,-130.500,-84.000,-91.000,-121.500
2.683,-128.500,-81.000,-87.500,-118.500
2.684,-127.500,-79.500,-85.500,-117.000
2.685,-127.500,-79.500,-85.500,-116.500
2.686,-129.000,-81.000,-86.500,-117.500
2.687,-130.500,-82.500,-87.500,-118.000
2.688,-131.500,-83.000,-88.000,-118.500
2.689,-132.000,-83.000,-87.500,-117.500
2.690,-131.500,-82.500,-86.500,-117.000
2.691,-132.000,-82.500,-86.000,-116.500
2.692,-132.500,-83.000,-86.500,-117.000
2.693,-133.000,-83.500,-87.000,-117.500
2.694,-133.000,-84.000,-87.000,-118.500
2.695,-133.000,-84.500,-87.500,-119.000
2.696,-132.500,-84.500,-88.000,-119.500
2.697,-132.000,-84.500,-88.500,-119.500
2.698,-131.000,-84.000,-88.500,-119.500
2.699,-129.000,-82.500,-87.000,-118.000
2.700,-126.000,-80.000,-84.500,-115.500
2.701,-122.500,-76.000,-81.000,-112.000
2.702,-118.500,-71.500,-76.500,-108.000
2.703,-115.000,-67.500,-72.000,-103.500
2.704,-112.500,-63.500,-68.000,-100.000
2.705,-111.500,-61.500,-65.500,-97.500
2.706,-112.000,-61.000,-64.500,-96.500
2.707,-114.000,-62.500,-65.500,-97.500
2.708,-117.500,-65.500,-68.500,-100.000
2.709,-122.000,-70.000,-72.500,-104.000
2.710,-127.000,-75.000,-77.000,-108.500
2.711,-131.500,-79.500,-81.500,-112.500
2.712,-135.000,-83.000,-85.000,-116.500
2.713,-138.000,-86.500,-89.000,-120.000
2.714,-141.000,-89.500,-92.500,-124.000
2.715,-143.500,-93.000,-96.000,-127.500
2.716,-145.500,-95.500,-99.000,-130.500
2.717,-147.000,-97.500,-101.500,-132.000
2.718,-147.000,-98.500,-102.000,-132.500
2.719,-145.500,-97.500,-101.500,-132.000
2.720,-143.000,-95.500,-99.500,-130.000
2.721,-138.500,-91.500,-96.000,-126.500
2.722,-134.000,-87.000,-91.500,-122.500
2.723,-129.500,-82.000,-86.500,-118.000
2.724,-127.000,-78.500,-83.000,-114.500
2.725,-126.500,-77.500,-81.500,-113.500
2.726,-129.000,-79.500,-83.000,-115.000
2.727,-133.000,-82.500,-86.000,-118.000
2.728,-136.500,-86.000,-89.500,-121.500
2.729,-140.000,-89.500,-93.000,-124.500
2.730,-142.500,-92.500,-96.000,-127.000
2.731,-145.000,-95.500,-99.000,-129.500
2.732,-148.000,-99.000,-102.500,-133.000
2.733,-151.500,-103.000,-107.000,-137.000
2.734,-155.500,-107.000,-111.500,-142.000
2.735,-159.500,-111.000,-116.500,-147.000
2.736,-163.500,-115.000,-121.000,-151.500
2.737,-166.000,-118.500,-124.500,-155.000
2.738,-167.000,-120.000,-126.500,-156.500
2.739,-166.000,-119.500,-126.000,-156.000
2.740,-163.500,-117.500,-124.500,-154.000
2.741,-160.500,-114.500,-121.500,-151.000
2.742,-157.000,-111.000,-118.000,-147.500
2.743,-154.500,-107.500,-114.000,-144.500
2.744,-153.000,-105.000,-111.500,-142.000
2.745,-153.500,-104.500,-110.500,-141.500
2.746,-155.000,-105.500,-111.000,-142.000
2.747,-156.500,-106.500,-111.500,-142.500
2.748,-157.000,-106.000,-111.000,-141.500
2.749,-155.500,-105.000,-109.500,-140.000
2.750,-154.500,-103.500,-108.000,-138.000
2.751,-154.500,-103.500,-108.000,-138.000
2.752,-156.500,-106.000,-110.500,-140.000
2.753,-160.500,-110.000,-115.000,-144.500
2.754,-165.000,-114.000,-120.000,-149.500
2.755,-168.000,-118.000,-124.500,-154.000
2.756,-170.500,-120.500,-127.500,-157.500
2.757,-171.500,-122.500,-129.500,-160.000
2.758,-171.000,-123.000,-130.500,-161.000
2.759,-169.000,-121.500,-130.000,-160.500
2.760,-165.000,-118.500,-127.500,-158.000
2.761,-160.000,-114.500,-123.500,-155.000
2.762,-155.000,-110.000,-119.000,-151.000
2.763,-151.500,-105.500,-115.000,-148.000
2.764,-149.000,-103.000,-112.500,-146.000
2.765,-149.000,-102.500,-112.000,-145.500
2.766,-151.000,-104.000,-113.000,-147.000
2.767,-154.500,-107.500,-116.000,-148.500
2.768,-159.000,-111.500,-118.500,-150.000
2.769,-163.000,-115.000,-120.500,-150.500
2.770,-165.500,-117.500,-121.500,-150.000
2.771,-167.000,-118.500,-121.500,-149.000
2.772,-168.000,-119.000,-120.500,-147.500
2.773,-168.500,-119.500,-120.000,-146.000
2.774,-169.000,-120.000,-120.000,-146.000
2.775,-170.000,-121.500,-121.500,-147.000
2.776,-172.000,-124.000,-124.500,-150.000
2.777,-174.500,-127.000,-128.000,-154.000
2.778,-176.500,-129.500,-131.500,-157.500
2.779,-177.500,-131.000,-134.500,-160.500
2.780,-178.000,-132.000,-136.000,-162.500
2.781,-177.500,-131.500,-137.000,-164.000
2.782,-176.500,-130.500,-136.500,-164.500
2.783,-175.000,-128.500,-134.500,-163.000
2.784,-173.000,-125.500,-132.000,-161.000
2.785,-170.500,-122.500,-129.000,-158.500
2.786,-168.500,-120.000,-126.000,-156.000
2.787,-166.500,-117.500,-123.000,-153.000
2.788,-163.000,-114.000,-119.000,-149.000
2.789,-158.500,-109.500,-113.500,-143.500
2.790,-151.500,-102.000,-106.000,-135.500
2.791,-140.500,-91.000,-94.500,-123.500
2.792,-126.000,-76.500,-79.500,-108.000
2.793,-108.500,-59.000,-61.500,-90.000
2.794,-89.000,-40.000,-42.500,-70.500
2.795,-69.000,-20.000,-22.500,-50.000
2.796,-47.500,1.000,-1.500,-28.000
2.797,-23.000,25.000,22.500,-3.500
2.798,4.000,51.500,49.500,24.500
2.799,33.000,81.000,79.500,55.000
2.800,64.000,112.000,111.000,87.000
2.801,95.000,143.500,143.500,120.000
2.802,127.000,176.000,177.000,153.000
2.803,159.000,209.500,211.000,187.500
2.804,191.500,242.500,245.000,221.500
2.805,223.000,275.500,278.500,255.500
2.806,253.500,307.500,311.000,288.500
2.807,286.000,340.500,345.000,323.000
2.808,321.000,376.000,381.500,360.000
2.809,359.500,415.000,421.500,400.500
2.810,400.000,455.500,463.500,442.500
2.811,440.500,497.000,505.500,485.000
2.812,480.500,537.000,546.500,526.500
2.813,518.500,575.000,585.000,565.000
2.814,553.000,610.000,619.500,600.000
2.815,581.500,638.500,648.000,628.500
2.816,601.000,657.000,666.500,647.000
2.817,606.500,662.000,670.500,651.500
2.818,596.500,651.000,659.000,640.000
2.819,571.000,625.500,632.500,613.000
2.820,533.500,587.500,593.500,573.500
2.821,486.500,540.000,545.500,525.000
2.822,432.000,486.000,490.500,469.000
2.823,370.500,424.500,428.500,405.500
2.824,301.500,356.000,359.000,334.500
2.825,227.000,281.500,283.000,257.000
2.826,150.500,205.500,205.500,178.500
2.827,78.000,133.000,131.500,103.500
2.828,13.500,67.500,65.500,37.000
2.829,-42.500,11.000,8.500,-20.500
2.830,-89.000,-36.500,-39.500,-68.500
2.831,-127.500,-75.500,-79.000,-108.500
2.832,-158.000,-107.000,-111.000,-140.500
2.833,-182.000,-131.500,-136.000,-165.500
2.834,-199.500,-150.000,-155.000,-184.500
2.835,-212.500,-163.000,-168.500,-198.000
2.836,-220.500,-171.500,-177.500,-207.000
2.837,-224.000,-176.500,-182.000,-211.500
2.838,-224.000,-177.000,-183.000,-212.000
2.839,-220.000,-173.500,-179.500,-208.500
2.840,-213.000,-166.500,-172.500,-202.000
2.841,-204.500,-158.000,-164.000,-193.500
2.842,-196.000,-149.500,-155.500,-185.000
2.843,-189.000,-142.000,-148.000,-177.000
2.844,-183.000,-135.500,-141.000,-170.500
2.845,-179.000,-130.500,-135.500,-165.000
2.846,-176.000,-127.000,-131.500,-161.000
2.847,-174.500,-125.000,-129.000,-158.000
2.848,-173.500,-123.500,-127.000,-156.000
2.849,-172.500,-122.500,-125.000,-154.500
2.850,-171.500,-121.000,-123.500,-152.500
2.851,-170.000,-119.000,-121.500,-150.500
2.852,-168.000,-117.500,-120.000,-149.000
2.853,-166.000,-116.000,-119.000,-147.500
2.854,-164.500,-115.000,-118.000,-146.500
2.855,-163.000,-114.000,-117.500,-146.000
2.856,-161.500,-113.000,-117.000,-145.500
2.857,-160.500,-112.500,-117.000,-145.000
2.858,-159.000,-111.000,-116.000,-144.000
2.859,-156.500,-109.000,-114.000,-142.500
2.860,-153.500,-105.500,-111.500,-139.500
2.861,-149.500,-101.500,-107.500,-135.500
2.862,-145.500,-97.000,-103.000,-131.500
2.863,-142.500,-93.500,-99.500,-127.500
2.864,-141.000,-91.000,-97.000,-125.000
2.865,-141.500,-91.000,-96.500,-124.500
2.866,-144.000,-93.000,-98.000,-126.000
2.867,-147.000,-95.500,-100.000,-128.500
2.868,-150.000,-98.500,-102.500,-130.500
2.869,-152.000,-100.500,-104.000,-132.000
2.870,-152.500,-102.000,-105.000,-133.000
2.871,-153.000,-102.500,-106.000,-133.500
2.872,-153.500,-103.500,-107.000,-134.500
2.873,-155.000,-105.500,-109.000,-136.500
2.874,-157.000,-108.500,-112.000,-140.000
2.875,-160.000,-112.000,-116.000,-144.000
2.876,-162.500,-115.500,-120.000,-147.500
2.877,-163.500,-117.500,-122.500,-150.000
2.878,-162.500,-117.500,-123.500,-150.000
2.879,-160.500,-116.000,-122.000,-149.000
2.880,-157.500,-113.500,-119.500,-146.000
2.881,-153.500,-109.500,-115.500,-142.500
2.882,-149.500,-105.000,-111.000,-138.500
2.883,-146.000,-101.500,-107.000,-134.500
2.884,-144.000,-98.500,-104.000,-131.500
2.885,-143.500,-97.000,-102.000,-130.000
2.886,-144.000,-97.000,-101.500,-130.000
2.887,-146.000,-98.000,-102.500,-130.500
2.888,-147.500,-99.000,-103.000,-131.500
2.889,-149.000,-100.500,-104.000,-132.000
2.890,-150.000,-102.000,-105.000,-132.500
2.891,-151.500,-104.000,-106.500,-133.500
2.892,-153.500,-106.000,-108.500,-135.000
2.893,-155.000,-108.000,-110.500,-137.000
2.894,-157.000,-110.000,-113.000,-139.500
2.895,-159.000,-112.000,-115.500,-142.000
2.896,-160.500,-114.500,-118.000,-145.000
2.897,-161.500,-116.000,-120.000,-146.500
2.898,-160.500,-116.000,-120.500,-147.000
2.899,-158.000,-114.500,-118.500,-145.500
2.900,-153.500,-110.500,-115.500,-142.000
2.901,-148.500,-105.500,-110.500,-137.000
2.902,-143.500,-100.000,-105.000,-132.000
2.903,-139.500,-95.500,-100.000,-127.000
2.904,-137.000,-92.500,-97.000,-124.500
2.905,-137.500,-92.000,-96.500,-123.500
2.906,-139.500,-93.500,-98.000,-125.000
2.907,-142.000,-95.500,-100.000,-127.000
2.908,-144.000,-97.500,-101.500,-128.000
2.909,-146.000,-99.000,-103.000,-129.500
2.910,-147.500,-100.000,-103.500,-130.000
2.911,-148.500,-100.500,-104.500,-131.000
2.912,-149.500,-101.500,-105.000,-131.500
2.913,-150.000,-102.000,-105.500,-132.500
2.914,-151.000,-103.000,-107.000,-133.500
2.915,-152.000,-104.000,-109.000,-135.500
2.916,-153.000,-106.000,-111.500,-138.000
2.917,-153.500,-107.000,-113.000,-139.500
2.918,-153.000,-107.000,-113.500,-139.500
2.919,-150.500,-105.000,-111.500,-138.000
2.920,-146.000,-101.500,-108.000,-134.000
2.921,-141.500,-97.000,-103.000,-129.500
2.922,-137.000,-92.000,-98.500,-125.000
2.923,-133.500,-88.000,-94.000,-121.000
2.924,-132.000,-85.500,-91.500,-119.000
2.925,-132.000,-85.500,-91.000,-118.500
2.926,-133.500,-86.500,-91.500,-119.500
2.927,-135.500,-88.000,-93.000,-120.500
2.928,-137.500,-90.000,-94.500,-122.000
2.929,-139.500,-91.500,-96.000,-123.000
2.930,-141.000,-92.500,-97.500,-123.500
2.931,-142.000,-93.500,-98.500,-124.500
2.932,-142.000,-94.500,-99.000,-125.000
2.933,-142.000,-95.000,-100.000,-126.000
2.934,-142.500,-96.000,-101.000,-127.000
2.935,-143.500,-97.500,-103.000,-129.500
2.936,-145.500,-100.000,-105.500,-132.000
2.937,-146.000,-101.000,-107.000,-133.500
2.938,-145.000,-100.500,-107.000,-133.000
2.939,-142.000,-98.000,-104.500,-130.500
2.940,-137.000,-93.000,-100.000,-126.000
2.941,-131.500,-87.500,-94.500,-120.500
2.942,-126.000,-82.000,-88.500,-115.500
2.943,-123.000,-78.000,-84.500,-111.500
2.944,-122.500,-76.500,-83.000,-110.000
2.945,-123.500,-77.000,-83.000,-110.500
2.946,-126.000,-78.500,-84.000,-111.500
2.947,-127.500,-79.500,-84.500,-112.000
2.948,-128.000,-79.000,-84.000,-111.500
2.949,-128.000,-78.500,-83.500,-110.500
2.950,-127.500,-78.500,-83.000,-110.000
2.951,-127.500,-78.500,-83.000,-110.000
2.952,-127.500,-79.000,-83.500,-110.000
2.953,-128.000,-80.000,-84.500,-111.000
2.954,-129.000,-81.500,-86.500,-112.500
2.955,-130.000,-83.000,-88.500,-115.000
2.956,-131.000,-85.000,-91.000,-117.500
2.957,-131.500,-86.500,-93.000,-119.000
2.958,-130.500,-86.000,-93.000,-119.000
2.959,-128.000,-84.000,-91.000,-117.500
2.960,-124.000,-80.500,-87.500,-114.000
2.961,-119.000,-75.500,-83.000,-109.000
2.962,-114.500,-70.500,-78.000,-104.500
2.963,-110.500,-66.000,-73.500,-99.500
2.964,-108.000,-63.000,-69.500,-96.000
2.965,-107.000,-61.000,-67.500,-94.000
2.966,-107.000,-60.500,-66.500,-93.500
2.967,-107.500,-60.500,-66.500,-93.000
2.968,-108.000,-61.000,-66.000,-93.000
2.969,-108.000,-61.000,-65.500,-92.500
2.970,-108.000,-61.000,-65.500,-92.000
2.971,-109.000,-61.500,-65.500,-92.000
2.972,-110.000,-62.500,-66.500,-93.000
2.973,-112.000,-64.000,-68.500,-95.000
2.974,-114.500,-66.000,-70.500,-97.000
2.975,-116.500,-68.500,-72.500,-99.500
2.976,-118.500,-70.000,-74.500,-101.500
2.977,-118.500,-71.000,-75.500,-102.500
2.978,-117.000,-70.000,-75.000,-101.500
2.979,-113.500,-66.500,-72.000,-98.500
2.980,-108.500,-62.000,-68.000,-94.000
2.981,-103.000,-57.000,-63.000,-89.000
2.982,-98.000,-52.500,-58.000,-85.000
2.983,-94.500,-48.500,-54.500,-81.500
2.984,-93.000,-46.500,-52.500,-79.500
