'Elapsed time','AECG1','AECG2','AECG3','AECG4'
'seconds','uV','uV','uV','uV'
0.000,-115.000,-83.000,-112.500,-87.500
0.001,-115.500,-83.000,-112.500,-87.500
0.002,-115.500,-83.500,-112.500,-87.500
0.003,-115.500,-83.500,-112.500,-87.500
0.004,-115.500,-83.000,-112.000,-87.500
0.005,-115.000,-83.500,-112.000,-87.500
0.006,-114.500,-83.500,-112.000,-87.500
0.007,-114.000,-83.000,-112.000,-87.500
0.008,-113.500,-83.000,-112.500,-87.500
0.009,-113.500,-83.000,-112.500,-88.000
0.010,-113.000,-83.000,-113.000,-88.500
0.011,-113.000,-83.500,-113.000,-88.500
0.012,-113.000,-83.500,-113.000,-88.500
0.013,-113.000,-83.500,-113.500,-88.500
0.014,-113.000,-83.000,-113.500,-89.000
0.015,-113.000,-83.000,-113.500,-89.000
0.016,-113.500,-83.000,-113.000,-89.000
0.017,-113.500,-83.000,-113.000,-89.000
0.018,-114.000,-83.000,-112.500,-89.000
0.019,-114.000,-83.000,-112.000,-88.500
0.020,-114.000,-83.000,-111.500,-88.000
0.021,-114.500,-83.000,-111.000,-88.000
0.022,-114.500,-83.500,-111.000,-88.000
0.023,-114.500,-83.500,-111.000,-88.000
0.024,-114.500,-83.500,-111.000,-88.000
0.025,-114.000,-83.500,-111.000,-88.000
0.026,-114.000,-83.500,-111.000,-88.000
0.027,-113.500,-84.000,-111.000,-88.000
0.028,-113.500,-84.000,-111.500,-88.000
0.029,-113.000,-84.000,-111.500,-88.000
0.030,-113.000,-84.000,-112.000,-88.000
0.031,-113.000,-84.000,-112.000,-88.500
0.032,-113.000,-84.000,-112.500,-88.500
0.033,-113.000,-84.000,-113.000,-89.000
0.034,-113.000,-84.500,-113.500,-89.000
0.035,-113.000,-84.500,-113.500,-89.000
0.036,-113.000,-85.000,-114.000,-89.000
0.037,-113.500,-85.000,-113.500,-89.500
0.038,-113.500,-85.500,-113.500,-89.500
0.039,-114.000,-86.000,-113.500,-89.500
0.040,-114.500,-86.000,-113.500,-89.500
0.041,-115.000,-86.000,-113.500,-90.000
0.042,-115.500,-86.000,-113.000,-90.000
0.043,-115.500,-86.000,-113.000,-90.000
0.044,-115.500,-85.500,-112.500,-90.000
0.045,-115.000,-85.000,-112.000,-89.500
0.046,-115.000,-85.000,-111.500,-89.000
0.047,-114.500,-85.000,-112.000,-89.000
0.048,-114.000,-85.000,-112.000,-89.000
0.049,-114.000,-85.500,-112.500,-89.000
0.050,-113.500,-85.500,-112.500,-89.000
0.051,-113.500,-85.500,-113.000,-89.500
0.052,-113.500,-86.000,-113.500,-89.500
0.053,-113.500,-86.000,-113.500,-90.000
0.054,-114.000,-86.500,-114.000,-90.000
0.055,-114.500,-87.000,-114.500,-90.500
0.056,-115.000,-87.500,-115.000,-90.500
0.057,-115.500,-88.000,-115.500,-91.500
0.058,-116.500,-89.000,-116.500,-92.000
0.059,-117.500,-90.000,-117.500,-93.000
0.060,-119.000,-91.500,-118.500,-94.000
0.061,-120.000,-92.000,-119.000,-94.500
0.062,-120.500,-93.000,-119.500,-94.500
0.063,-121.000,-93.000,-119.000,-94.500
0.064,-120.500,-93.000,-119.000,-94.500
0.065,-120.500,-93.000,-118.500,-94.500
0.066,-120.000,-92.500,-118.500,-94.500
0.067,-119.000,-92.000,-118.500,-94.000
0.068,-118.000,-91.000,-118.500,-93.500
0.069,-117.500,-90.500,-118.000,-92.500
0.070,-116.500,-90.000,-117.500,-92.000
0.071,-116.000,-89.000,-117.000,-91.500
0.072,-116.000,-89.000,-116.500,-91.500
0.073,-116.000,-88.500,-116.500,-91.500
0.074,-116.000,-88.500,-116.500,-91.500
0.075,-116.000,-89.000,-116.500,-92.000
0.076,-116.500,-89.000,-116.500,-92.000
0.077,-116.500,-89.000,-116.000,-92.000
0.078,-117.000,-89.000,-116.000,-91.500
0.079,-117.500,-89.000,-115.500,-91.500
0.080,-118.000,-89.000,-115.500,-91.500
0.081,-118.000,-89.500,-115.000,-91.500
0.082,-118.000,-89.500,-115.000,-91.500
0.083,-118.000,-89.500,-115.000,-91.500
0.084,-118.000,-89.500,-115.000,-91.500
0.085,-118.000,-89.500,-115.000,-91.500
0.086,-118.000,-89.500,-115.500,-91.500
0.087,-118.000,-89.500,-116.000,-92.000
0.088,-118.000,-90.000,-116.500,-92.000
0.089,-118.000,-90.000,-117.000,-92.500
0.090,-117.500,-90.000,-117.000,-92.500
0.091,-117.500,-90.000,-117.500,-92.500
0.092,-118.000,-90.000,-117.500,-92.500
0.093,-118.000,-90.000,-117.500,-92.500
0.094,-118.000,-90.500,-117.500,-92.500
0.095,-118.000,-90.500,-117.000,-92.500
0.096,-118.000,-90.500,-117.000,-92.500
0.097,-118.000,-90.500,-117.000,-92.500
0.098,-118.500,-90.500,-116.500,-92.500
0.099,-119.000,-90.500,-116.500,-92.000
0.100,-119.000,-90.500,-116.000,-92.000
0.101,-119.500,-91.000,-116.000,-92.000
0.102,-119.500,-91.000,-115.500,-92.000
0.103,-119.500,-91.000,-115.500,-91.500
0.104,-119.000,-91.000,-115.500,-91.500
0.105,-119.000,-90.500,-115.500,-91.500
0.106,-119.000,-90.500,-115.500,-91.000
0.107,-118.500,-90.000,-115.500,-91.000
0.108,-118.500,-90.000,-116.000,-91.000
0.109,-118.500,-90.000,-116.000,-91.000
0.110,-118.500,-90.000,-116.500,-91.000
0.111,-118.000,-90.000,-117.000,-91.500
0.112,-118.000,-90.000,-117.000,-91.500
0.113,-118.000,-90.000,-117.000,-91.500
0.114,-118.000,-90.000,-117.000,-91.000
0.115,-118.000,-90.000,-117.000,-91.000
0.116,-118.500,-90.000,-117.000,-91.000
0.117,-118.500,-90.000,-116.500,-90.500
0.118,-119.000,-90.000,-116.000,-90.500
0.119,-119.500,-90.000,-115.500,-90.500
0.120,-119.500,-90.000,-115.000,-90.500
0.121,-119.500,-90.000,-115.000,-90.000
0.122,-120.000,-90.500,-115.000,-90.000
0.123,-120.000,-90.500,-115.000,-90.000
0.124,-120.000,-90.500,-115.000,-90.000
0.125,-120.000,-90.500,-115.000,-90.000
0.126,-120.000,-90.500,-115.500,-90.000
0.127,-120.000,-90.500,-116.000,-90.000
0.128,-119.500,-90.500,-116.000,-90.000
0.129,-119.500,-90.500,-116.500,-90.000
0.130,-119.000,-90.500,-117.000,-90.000
0.131,-119.000,-90.500,-117.000,-90.000
0.132,-119.000,-90.500,-117.500,-90.000
0.133,-119.000,-90.500,-117.500,-90.500
0.134,-119.000,-90.500,-117.500,-90.500
0.135,-119.000,-90.500,-117.500,-90.500
0.136,-119.000,-90.500,-117.500,-91.000
0.137,-119.500,-90.500,-117.500,-91.000
0.138,-119.500,-91.000,-117.000,-91.000
0.139,-120.000,-91.000,-117.000,-90.500
0.140,-120.000,-91.500,-117.000,-90.500
0.141,-120.500,-91.500,-117.000,-90.500
0.142,-121.000,-92.000,-116.500,-90.500
0.143,-121.500,-92.000,-116.500,-90.500
0.144,-121.500,-92.500,-116.500,-90.500
0.145,-121.500,-92.500,-116.500,-90.500
0.146,-121.500,-92.500,-116.500,-90.500
0.147,-121.500,-92.500,-117.000,-90.500
0.148,-121.500,-92.500,-117.000,-90.000
0.149,-121.500,-92.500,-117.000,-90.000
0.150,-121.500,-92.500,-117.500,-90.000
0.151,-121.500,-92.500,-117.500,-90.500
0.152,-122.000,-92.500,-118.000,-90.500
0.153,-122.000,-92.500,-118.000,-90.500
0.154,-122.000,-92.500,-118.000,-90.500
0.155,-122.000,-92.500,-118.000,-90.500
0.156,-122.000,-92.500,-117.500,-90.500
0.157,-122.000,-92.500,-117.500,-90.000
0.158,-122.000,-92.500,-117.000,-89.500
0.159,-122.500,-92.500,-117.000,-89.000
0.160,-122.500,-93.000,-117.000,-89.000
0.161,-123.000,-93.000,-117.000,-89.000
0.162,-123.000,-93.500,-117.000,-89.500
0.163,-123.500,-93.500,-117.000,-89.500
0.164,-123.500,-93.500,-117.000,-89.500
0.165,-123.500,-93.500,-116.500,-90.000
0.166,-123.500,-93.500,-116.500,-90.000
0.167,-123.000,-93.500,-116.500,-90.000
0.168,-123.000,-93.500,-116.500,-90.000
0.169,-122.500,-93.000,-117.000,-90.000
0.170,-122.500,-93.000,-117.000,-89.500
0.171,-122.000,-92.500,-116.500,-89.500
0.172,-122.000,-92.500,-116.500,-89.500
0.173,-122.000,-92.500,-116.500,-89.500
0.174,-122.000,-92.500,-117.000,-89.500
0.175,-122.000,-92.500,-117.000,-89.500
0.176,-122.000,-93.000,-116.500,-90.000
0.177,-122.000,-93.000,-116.500,-90.000
0.178,-122.000,-93.000,-116.500,-90.000
0.179,-122.500,-93.500,-116.500,-90.500
0.180,-122.500,-93.500,-116.000,-90.500
0.181,-122.500,-93.500,-116.000,-91.000
0.182,-123.000,-93.500,-116.000,-91.000
0.183,-122.500,-93.500,-115.500,-91.000
0.184,-122.500,-93.000,-115.000,-91.000
0.185,-122.000,-93.000,-115.000,-91.000
0.186,-122.000,-92.500,-115.000,-91.000
0.187,-121.500,-92.500,-115.000,-91.000
0.188,-121.000,-92.500,-115.500,-91.000
0.189,-120.500,-92.000,-115.500,-91.000
0.190,-120.000,-92.000,-115.500,-91.500
0.191,-120.000,-92.000,-116.000,-92.000
0.192,-120.000,-91.500,-116.500,-92.000
0.193,-119.500,-91.500,-116.500,-92.000
0.194,-119.500,-91.500,-116.500,-92.000
0.195,-120.000,-91.500,-116.500,-92.500
0.196,-120.000,-91.500,-116.500,-92.500
0.197,-120.500,-91.000,-116.500,-92.500
0.198,-120.500,-91.000,-116.500,-92.500
0.199,-120.500,-91.000,-116.500,-92.500
0.200,-120.500,-91.000,-116.000,-92.500
0.201,-120.000,-90.500,-116.000,-92.500
0.202,-120.000,-90.500,-116.000,-92.000
0.203,-119.500,-90.500,-115.500,-92.000
0.204,-119.000,-90.500,-115.000,-91.500
0.205,-118.500,-90.000,-114.500,-91.500
0.206,-118.000,-89.500,-114.500,-91.000
0.207,-117.500,-89.500,-114.000,-91.000
0.208,-116.500,-89.000,-114.000,-91.000
0.209,-116.000,-88.500,-114.000,-90.500
0.210,-115.500,-87.500,-114.000,-90.500
0.211,-115.000,-87.500,-114.000,-90.500
0.212,-115.000,-87.000,-114.000,-90.500
0.213,-115.000,-87.000,-114.000,-91.000
0.214,-115.000,-87.000,-114.500,-91.000
0.215,-115.000,-87.000,-114.500,-91.500
0.216,-115.500,-87.500,-114.500,-91.500
0.217,-115.500,-87.500,-114.500,-91.500
0.218,-115.500,-87.500,-114.000,-91.500
0.219,-115.500,-87.500,-114.000,-91.500
0.220,-115.500,-87.500,-113.500,-91.500
0.221,-115.500,-87.000,-113.500,-91.500
0.222,-115.500,-87.000,-113.000,-91.500
0.223,-115.500,-87.000,-112.500,-91.000
0.224,-115.000,-87.000,-112.500,-91.000
0.225,-115.000,-87.000,-112.500,-91.000
0.226,-115.000,-87.000,-112.500,-91.500
0.227,-114.500,-87.000,-113.000,-91.500
0.228,-114.000,-87.000,-113.000,-92.000
0.229,-114.000,-87.000,-113.500,-92.000
0.230,-113.500,-87.000,-114.000,-92.500
0.231,-113.000,-86.500,-114.000,-92.500
0.232,-112.500,-86.500,-114.000,-92.500
0.233,-112.500,-86.500,-114.500,-92.500
0.234,-112.000,-86.000,-114.500,-92.500
0.235,-112.000,-86.000,-114.500,-92.500
0.236,-112.000,-86.000,-114.500,-92.000
0.237,-112.000,-86.000,-114.000,-92.000
0.238,-112.500,-86.000,-113.500,-92.000
0.239,-112.500,-86.000,-113.500,-91.500
0.240,-112.500,-86.000,-113.000,-91.500
0.241,-113.000,-86.000,-112.500,-91.000
0.242,-113.000,-86.000,-112.000,-91.000
0.243,-113.000,-86.000,-112.000,-91.000
0.244,-113.000,-86.000,-112.000,-90.500
0.245,-113.000,-86.000,-112.000,-90.500
0.246,-113.000,-85.500,-112.000,-90.500
0.247,-112.500,-85.500,-112.000,-90.500
0.248,-112.000,-85.500,-112.000,-90.500
0.249,-111.500,-85.000,-111.500,-90.500
0.250,-111.500,-85.000,-111.500,-90.500
0.251,-111.000,-85.000,-112.000,-90.500
0.252,-111.000,-84.500,-112.000,-90.500
0.253,-110.500,-84.500,-112.000,-90.500
0.254,-110.500,-84.500,-112.000,-91.000
0.255,-110.500,-84.500,-112.500,-91.000
0.256,-111.000,-84.500,-112.000,-90.500
0.257,-111.000,-84.500,-112.000,-90.500
0.258,-111.500,-84.500,-112.000,-90.500
0.259,-111.500,-84.500,-111.500,-90.000
0.260,-112.000,-84.500,-111.000,-90.000
0.261,-112.000,-84.500,-111.000,-90.000
0.262,-112.500,-84.500,-110.500,-90.500
0.263,-112.500,-84.500,-110.500,-90.500
0.264,-112.500,-85.000,-110.500,-90.500
0.265,-112.500,-85.000,-110.500,-90.500
0.266,-112.500,-85.000,-110.500,-90.500
0.267,-112.500,-85.500,-111.000,-91.000
0.268,-112.000,-85.500,-111.500,-91.000
0.269,-112.000,-85.500,-112.000,-91.000
0.270,-112.000,-85.500,-112.500,-91.000
0.271,-112.000,-85.500,-113.000,-91.500
0.272,-112.000,-85.500,-113.000,-91.500
0.273,-112.000,-85.500,-113.500,-92.000
0.274,-112.000,-85.500,-114.000,-92.000
0.275,-112.000,-85.500,-114.000,-92.000
0.276,-112.000,-85.500,-114.000,-92.000
0.277,-112.000,-85.500,-114.000,-92.000
0.278,-112.000,-85.500,-113.500,-92.000
0.279,-112.000,-85.500,-113.000,-91.500
0.280,-112.000,-85.500,-112.500,-91.500
0.281,-112.000,-85.500,-112.500,-91.000
0.282,-112.000,-85.500,-112.000,-91.000
0.283,-112.000,-85.500,-112.000,-91.000
0.284,-112.000,-85.500,-111.500,-90.500
0.285,-112.000,-85.500,-111.500,-90.500
0.286,-111.500,-85.500,-111.500,-91.000
0.287,-111.500,-85.500,-111.500,-91.000
0.288,-111.500,-85.500,-111.500,-91.000
0.289,-111.000,-85.000,-112.000,-91.000
0.290,-110.500,-85.000,-112.000,-91.000
0.291,-110.000,-85.000,-112.000,-90.500
0.292,-109.500,-84.500,-112.000,-90.500
0.293,-109.500,-84.000,-112.500,-90.500
0.294,-109.500,-84.000,-112.500,-90.500
0.295,-109.500,-84.000,-112.500,-90.500
0.296,-110.000,-84.500,-112.500,-90.500
0.297,-110.000,-84.500,-112.500,-90.500
0.298,-110.500,-84.500,-112.000,-90.500
0.299,-110.500,-84.500,-112.000,-90.500
0.300,-111.000,-85.000,-111.500,-90.500
0.301,-111.000,-85.000,-111.500,-90.000
0.302,-111.000,-85.000,-111.000,-90.000
0.303,-110.500,-85.000,-110.500,-89.500
0.304,-110.500,-85.000,-110.500,-89.500
0.305,-110.000,-85.000,-110.000,-89.000
0.306,-110.000,-85.000,-110.000,-89.000
0.307,-109.500,-85.000,-110.500,-89.500
0.308,-109.500,-85.000,-110.500,-89.500
0.309,-109.000,-85.000,-111.000,-89.500
0.310,-109.000,-85.000,-111.000,-89.500
0.311,-109.000,-85.000,-111.500,-89.500
0.312,-109.000,-85.000,-112.000,-89.500
0.313,-109.000,-85.500,-112.500,-90.000
0.314,-109.000,-85.500,-113.000,-90.000
0.315,-109.000,-85.500,-113.000,-90.000
0.316,-109.500,-85.500,-113.000,-90.000
0.317,-110.000,-85.500,-113.000,-90.000
0.318,-110.000,-85.500,-113.000,-90.500
0.319,-110.500,-85.500,-112.500,-90.500
0.320,-110.500,-85.500,-112.000,-91.000
0.321,-110.500,-85.500,-112.000,-90.500
0.322,-110.500,-85.500,-111.500,-90.500
0.323,-110.500,-85.000,-111.000,-90.500
0.324,-110.500,-85.000,-111.000,-90.000
0.325,-110.000,-84.500,-111.000,-90.000
0.326,-109.500,-84.500,-110.500,-89.500
0.327,-108.500,-84.000,-110.500,-89.000
0.328,-108.000,-84.000,-110.500,-89.000
0.329,-107.500,-83.500,-110.500,-88.500
0.330,-107.500,-83.000,-110.500,-88.500
0.331,-107.000,-83.000,-110.500,-88.500
0.332,-107.000,-83.000,-111.000,-89.000
0.333,-107.000,-83.000,-111.500,-89.000
0.334,-107.000,-83.000,-111.500,-89.000
0.335,-107.000,-83.000,-111.500,-89.000
0.336,-107.500,-82.500,-111.500,-89.000
0.337,-107.500,-82.000,-111.000,-89.000
0.338,-107.500,-82.000,-110.500,-89.000
0.339,-107.500,-82.000,-110.000,-89.000
0.340,-107.500,-82.000,-110.000,-89.000
0.341,-108.000,-82.500,-109.500,-89.000
0.342,-108.000,-82.500,-109.500,-89.000
0.343,-108.000,-83.000,-109.500,-89.000
0.344,-108.500,-83.000,-109.500,-89.000
0.345,-108.500,-83.000,-110.000,-89.000
0.346,-108.000,-83.000,-110.000,-89.500
0.347,-108.000,-82.500,-110.000,-89.500
0.348,-107.500,-82.500,-110.500,-89.500
0.349,-107.000,-82.000,-110.000,-89.000
0.350,-106.500,-81.500,-110.000,-89.000
0.351,-106.000,-81.000,-110.000,-88.500
0.352,-106.000,-81.000,-110.000,-88.000
0.353,-105.500,-80.500,-110.000,-88.000
0.354,-105.500,-80.500,-110.000,-87.500
0.355,-105.500,-80.500,-110.000,-87.500
0.356,-106.000,-80.500,-110.000,-87.500
0.357,-106.000,-80.500,-110.000,-88.000
0.358,-106.000,-80.500,-110.000,-88.000
0.359,-106.500,-81.000,-110.500,-88.500
0.360,-106.500,-81.000,-110.500,-88.500
0.361,-107.000,-81.500,-110.000,-88.500
0.362,-107.000,-81.500,-110.000,-88.500
0.363,-107.000,-81.500,-109.500,-88.000
0.364,-106.500,-81.000,-109.000,-87.500
0.365,-106.500,-81.000,-109.000,-87.500
0.366,-106.000,-81.000,-109.000,-87.500
0.367,-106.000,-80.500,-109.000,-87.500
0.368,-105.500,-81.000,-109.000,-87.500
0.369,-105.500,-81.000,-109.000,-87.500
0.370,-105.500,-80.500,-109.500,-87.500
0.371,-105.000,-80.500,-110.000,-87.500
0.372,-105.000,-80.000,-110.000,-87.500
0.373,-105.000,-80.000,-110.500,-87.500
0.374,-105.000,-80.000,-111.000,-87.500
0.375,-105.000,-80.000,-111.000,-87.500
0.376,-105.000,-80.000,-111.000,-88.000
0.377,-105.000,-80.000,-111.000,-88.500
0.378,-105.500,-80.500,-111.000,-88.500
0.379,-106.000,-80.500,-111.000,-89.000
0.380,-106.500,-80.500,-111.000,-89.000
0.381,-106.500,-80.500,-110.500,-88.500
0.382,-106.500,-80.500,-110.000,-88.500
0.383,-106.500,-80.500,-110.000,-88.000
0.384,-106.000,-80.000,-109.500,-87.500
0.385,-105.500,-80.000,-109.000,-87.500
0.386,-105.500,-79.500,-108.500,-87.000
0.387,-105.000,-79.500,-108.000,-87.000
0.388,-104.500,-79.000,-108.000,-86.500
0.389,-104.500,-79.000,-108.000,-86.500
0.390,-104.000,-79.000,-108.000,-86.500
0.391,-104.000,-78.500,-108.500,-86.500
0.392,-104.000,-78.500,-108.500,-86.500
0.393,-104.000,-78.500,-108.500,-86.500
0.394,-104.000,-78.500,-109.000,-86.500
0.395,-103.500,-78.500,-108.500,-86.500
0.396,-103.500,-78.000,-108.500,-86.500
0.397,-103.500,-78.000,-108.000,-86.500
0.398,-103.000,-77.500,-108.000,-86.500
0.399,-103.000,-77.500,-108.000,-86.000
0.400,-103.000,-78.000,-108.000,-86.000
0.401,-103.500,-78.000,-108.000,-86.000
0.402,-103.500,-78.000,-107.500,-86.000
0.403,-104.000,-78.500,-107.500,-86.500
0.404,-104.000,-78.500,-107.500,-86.500
0.405,-104.000,-78.500,-107.500,-86.500
0.406,-104.000,-78.500,-108.000,-87.000
0.407,-104.500,-78.500,-108.500,-87.000
0.408,-104.500,-79.000,-109.000,-87.500
0.409,-104.500,-79.000,-109.500,-87.500
0.410,-105.000,-80.000,-110.000,-88.000
0.411,-105.500,-80.500,-111.000,-88.500
0.412,-106.500,-81.000,-112.000,-89.000
0.413,-107.000,-82.000,-113.000,-89.000
0.414,-107.500,-82.500,-113.500,-89.500
0.415,-108.000,-83.000,-114.500,-90.000
0.416,-108.500,-83.500,-114.500,-90.000
0.417,-108.500,-83.500,-114.500,-90.500
0.418,-108.500,-83.500,-114.500,-90.000
0.419,-108.500,-82.500,-113.500,-90.000
0.420,-108.500,-82.000,-112.500,-89.500
0.421,-107.500,-81.000,-111.500,-89.000
0.422,-107.000,-80.500,-110.500,-88.000
0.423,-106.000,-79.500,-109.500,-87.500
0.424,-105.000,-78.500,-108.500,-86.500
0.425,-104.500,-78.500,-108.000,-86.000
0.426,-104.000,-78.000,-107.500,-85.500
0.427,-103.500,-78.000,-107.000,-85.500
0.428,-103.000,-78.000,-107.500,-85.500
0.429,-103.000,-78.000,-107.500,-85.500
0.430,-103.000,-78.000,-107.500,-85.500
0.431,-103.000,-78.000,-108.000,-86.000
0.432,-103.000,-78.000,-108.500,-86.000
0.433,-103.500,-78.000,-109.000,-86.500
0.434,-104.000,-78.000,-109.000,-86.500
0.435,-104.500,-78.500,-109.500,-87.000
0.436,-105.000,-78.500,-110.000,-87.000
0.437,-105.500,-78.500,-110.000,-87.500
0.438,-105.500,-79.000,-110.000,-87.500
0.439,-106.000,-79.000,-109.500,-87.500
0.440,-106.000,-79.000,-109.500,-87.500
0.441,-106.000,-79.000,-109.000,-87.000
0.442,-106.000,-79.000,-108.500,-87.000
0.443,-106.000,-79.000,-108.000,-87.000
0.444,-105.500,-78.500,-108.000,-87.000
0.445,-105.500,-78.500,-108.500,-87.000
0.446,-105.500,-78.500,-108.500,-87.000
0.447,-105.500,-78.500,-109.000,-87.000
0.448,-105.000,-78.500,-109.000,-87.000
0.449,-105.000,-78.500,-109.000,-86.500
0.450,-104.500,-78.000,-109.000,-86.500
0.451,-104.500,-78.000,-109.000,-86.000
0.452,-104.000,-78.000,-109.500,-86.000
0.453,-104.000,-78.000,-109.500,-86.000
0.454,-104.000,-77.500,-109.500,-86.000
0.455,-104.000,-77.500,-109.500,-86.000
0.456,-104.500,-77.500,-109.500,-86.000
0.457,-104.500,-77.500,-109.500,-86.500
0.458,-104.500,-77.500,-109.000,-86.500
0.459,-104.500,-77.500,-109.000,-86.500
0.460,-104.000,-77.000,-108.500,-86.500
0.461,-104.000,-77.000,-108.500,-86.500
0.462,-104.000,-77.000,-108.500,-87.000
0.463,-104.000,-77.000,-108.500,-87.000
0.464,-104.000,-76.500,-108.500,-86.500
0.465,-103.500,-76.500,-108.500,-86.500
0.466,-103.000,-76.000,-108.500,-86.000
0.467,-102.500,-76.000,-108.500,-86.000
0.468,-102.000,-76.000,-108.500,-86.000
0.469,-101.500,-76.000,-108.500,-86.000
0.470,-101.500,-75.500,-109.000,-86.000
0.471,-101.000,-75.500,-109.000,-86.000
0.472,-101.000,-75.500,-109.500,-86.000
0.473,-101.000,-75.500,-109.500,-86.000
0.474,-101.000,-75.500,-109.500,-85.500
0.475,-101.000,-75.500,-109.500,-85.500
0.476,-100.500,-75.500,-109.500,-85.500
0.477,-100.500,-75.500,-109.000,-85.500
0.478,-101.000,-75.500,-109.000,-85.500
0.479,-101.000,-75.500,-108.500,-85.500
0.480,-101.500,-75.500,-108.000,-86.000
0.481,-101.500,-75.500,-108.000,-86.000
0.482,-101.500,-75.500,-107.500,-86.000
0.483,-101.500,-75.500,-107.500,-86.000
0.484,-101.000,-75.500,-107.500,-86.000
0.485,-101.000,-75.500,-107.500,-86.500
0.486,-100.500,-75.500,-107.500,-86.500
0.487,-100.500,-75.500,-108.000,-86.500
0.488,-100.000,-75.500,-108.000,-86.500
0.489,-99.500,-75.500,-108.000,-86.500
0.490,-99.000,-75.000,-108.000,-86.000
0.491,-98.500,-75.000,-107.500,-85.500
0.492,-98.000,-74.500,-107.500,-85.500
0.493,-98.000,-74.500,-107.500,-85.500
0.494,-97.500,-74.000,-107.500,-85.000
0.495,-97.500,-74.000,-107.500,-85.000
0.496,-97.500,-73.500,-107.500,-85.000
0.497,-97.500,-73.500,-107.500,-85.000
0.498,-98.000,-73.500,-107.000,-85.000
0.499,-98.500,-73.500,-107.000,-85.000
0.500,-98.500,-73.500,-106.500,-85.000
0.501,-99.000,-73.500,-106.500,-85.000
0.502,-99.000,-74.000,-106.500,-85.000
0.503,-98.500,-74.000,-106.500,-85.000
0.504,-98.500,-74.000,-106.500,-85.000
0.505,-98.000,-73.500,-106.500,-85.500
0.506,-97.500,-73.000,-106.000,-85.000
0.507,-97.000,-73.000,-106.000,-85.000
0.508,-96.500,-72.500,-105.500,-84.500
0.509,-96.000,-72.000,-105.500,-84.000
0.510,-96.000,-71.500,-105.500,-83.500
0.511,-95.500,-71.000,-105.500,-83.500
0.512,-95.500,-71.000,-105.500,-83.000
0.513,-95.000,-70.500,-105.500,-83.000
0.514,-95.000,-70.500,-105.500,-82.500
0.515,-95.000,-71.000,-105.500,-82.500
0.516,-95.000,-71.000,-105.500,-82.500
0.517,-95.000,-71.500,-105.500,-82.500
0.518,-95.500,-71.500,-105.500,-83.000
0.519,-96.000,-72.000,-105.500,-83.000
0.520,-96.500,-72.000,-105.500,-83.500
0.521,-96.500,-72.000,-105.000,-84.000
0.522,-96.500,-72.000,-105.000,-84.000
0.523,-96.000,-72.000,-105.000,-84.000
0.524,-96.000,-71.500,-105.000,-84.000
0.525,-95.500,-71.500,-105.000,-83.500
0.526,-95.000,-71.000,-105.000,-83.500
0.527,-94.500,-71.000,-105.000,-83.000
0.528,-94.000,-71.000,-105.000,-83.000
0.529,-94.000,-71.000,-104.500,-82.500
0.530,-93.500,-70.500,-104.500,-82.500
0.531,-93.000,-70.500,-104.500,-82.000
0.532,-93.000,-70.500,-105.000,-82.000
0.533,-93.000,-70.500,-105.500,-82.500
0.534,-93.000,-70.500,-105.500,-82.500
0.535,-93.500,-70.500,-105.500,-83.000
0.536,-93.500,-70.500,-105.500,-83.000
0.537,-93.500,-70.500,-105.500,-83.500
0.538,-93.500,-70.500,-105.500,-83.500
0.539,-93.500,-70.500,-105.500,-83.500
0.540,-93.500,-70.500,-105.000,-83.000
0.541,-93.500,-70.500,-105.000,-83.000
0.542,-93.500,-70.500,-104.500,-83.000
0.543,-93.500,-70.500,-104.000,-83.000
0.544,-93.500,-71.000,-103.500,-82.500
0.545,-93.000,-71.000,-103.500,-82.500
0.546,-93.000,-70.500,-104.000,-82.500
0.547,-92.500,-70.500,-104.000,-82.500
0.548,-92.000,-70.000,-104.000,-82.500
0.549,-92.000,-70.000,-104.000,-82.500
0.550,-91.500,-69.500,-104.000,-82.500
0.551,-91.000,-69.500,-103.500,-82.000
0.552,-90.500,-69.000,-103.500,-82.000
0.553,-90.500,-69.000,-104.000,-82.000
0.554,-90.000,-68.500,-104.000,-82.000
0.555,-90.000,-69.000,-104.500,-82.000
0.556,-90.500,-69.000,-104.500,-82.500
0.557,-91.000,-69.500,-105.000,-82.500
0.558,-91.000,-69.500,-105.000,-83.000
0.559,-91.500,-70.000,-105.000,-83.500
0.560,-92.000,-70.500,-105.500,-84.000
0.561,-92.500,-71.000,-105.500,-84.500
0.562,-93.000,-71.500,-106.000,-85.000
0.563,-93.000,-71.500,-106.500,-85.000
0.564,-93.000,-72.000,-107.000,-85.000
0.565,-93.000,-72.000,-107.000,-85.500
0.566,-93.000,-72.000,-107.500,-85.500
0.567,-93.500,-72.000,-108.000,-85.500
0.568,-93.500,-72.500,-108.500,-85.500
0.569,-94.000,-72.500,-109.000,-85.500
0.570,-94.500,-73.000,-109.000,-85.500
0.571,-95.000,-73.000,-109.500,-85.500
0.572,-95.500,-73.500,-110.000,-85.500
0.573,-96.500,-73.500,-110.000,-85.500
0.574,-97.000,-74.000,-110.500,-85.500
0.575,-98.000,-75.000,-111.000,-85.500
0.576,-99.000,-76.000,-111.000,-85.500
0.577,-100.000,-76.500,-111.000,-85.500
0.578,-101.000,-77.000,-111.000,-85.000
0.579,-102.000,-77.500,-110.500,-84.500
0.580,-103.000,-78.000,-110.000,-84.000
0.581,-104.000,-78.500,-109.500,-83.500
0.582,-105.000,-78.500,-109.500,-83.000
0.583,-105.500,-78.500,-108.500,-82.500
0.584,-106.000,-79.000,-108.000,-81.500
0.585,-106.000,-78.500,-107.500,-80.500
0.586,-106.000,-78.500,-106.500,-79.000
0.587,-105.500,-77.500,-105.500,-77.500
0.588,-105.500,-77.000,-104.500,-75.500
0.589,-105.500,-76.500,-103.500,-73.500
0.590,-105.500,-75.500,-102.500,-71.500
0.591,-105.500,-75.500,-102.000,-70.000
0.592,-106.000,-75.500,-101.500,-69.000
0.593,-106.500,-75.500,-101.000,-68.000
0.594,-106.500,-75.000,-100.500,-67.500
0.595,-106.500,-74.500,-100.500,-67.000
0.596,-106.000,-74.000,-99.500,-66.500
0.597,-104.500,-72.500,-99.000,-66.500
0.598,-102.500,-71.000,-97.500,-66.000
0.599,-100.000,-69.500,-96.500,-66.000
0.600,-96.500,-67.000,-95.500,-66.000
0.601,-93.500,-65.000,-94.000,-65.500
0.602,-90.000,-63.000,-93.000,-65.500
0.603,-87.000,-61.000,-92.000,-65.500
0.604,-84.500,-59.000,-91.500,-65.500
0.605,-82.000,-57.500,-90.500,-65.500
0.606,-80.000,-56.500,-90.000,-66.000
0.607,-79.000,-56.000,-90.000,-66.000
0.608,-78.000,-55.500,-90.000,-66.500
0.609,-77.500,-55.500,-90.000,-66.500
0.610,-77.000,-55.000,-90.500,-67.000
0.611,-77.500,-55.500,-91.000,-67.500
0.612,-78.000,-56.000,-92.000,-68.000
0.613,-78.500,-57.000,-93.000,-69.000
0.614,-79.500,-58.000,-94.000,-70.000
0.615,-80.500,-58.500,-94.500,-71.000
0.616,-81.500,-59.500,-95.500,-71.500
0.617,-82.500,-60.000,-96.000,-72.000
0.618,-83.500,-61.000,-96.000,-72.500
0.619,-84.500,-61.500,-96.500,-73.000
0.620,-85.500,-62.500,-97.000,-73.500
0.621,-86.000,-63.000,-97.500,-74.000
0.622,-86.500,-63.000,-98.000,-74.500
0.623,-87.000,-63.500,-98.000,-74.500
0.624,-87.000,-64.000,-98.000,-75.000
0.625,-87.500,-64.000,-98.500,-75.000
0.626,-87.500,-64.500,-98.500,-75.500
0.627,-87.000,-64.500,-99.000,-75.500
0.628,-87.000,-64.000,-99.000,-75.500
0.629,-86.500,-64.000,-99.000,-76.000
0.630,-86.000,-63.500,-99.500,-76.000
0.631,-85.500,-63.500,-99.500,-76.000
0.632,-85.500,-63.000,-99.500,-75.500
0.633,-85.500,-62.500,-99.500,-75.500
0.634,-85.500,-62.500,-99.500,-75.000
0.635,-85.500,-62.000,-99.500,-75.000
0.636,-85.500,-62.000,-99.000,-75.000
0.637,-85.500,-62.000,-99.000,-75.000
0.638,-85.500,-62.000,-99.000,-74.500
0.639,-85.500,-61.500,-99.000,-74.500
0.640,-86.000,-61.500,-98.500,-74.000
0.641,-86.500,-61.500,-98.500,-74.000
0.642,-87.000,-62.000,-98.000,-74.000
0.643,-87.000,-62.000,-98.000,-74.500
0.644,-87.000,-62.000,-98.000,-74.500
0.645,-86.500,-62.000,-98.000,-74.500
0.646,-86.000,-62.000,-98.000,-74.500
0.647,-85.500,-62.000,-98.500,-74.500
0.648,-85.000,-62.000,-98.500,-74.500
0.649,-84.500,-61.500,-98.500,-74.500
0.650,-84.000,-61.000,-98.500,-74.000
0.651,-83.500,-61.000,-98.500,-74.000
0.652,-83.000,-60.500,-99.000,-74.000
0.653,-83.000,-60.500,-99.000,-74.500
0.654,-83.000,-60.000,-99.500,-74.500
0.655,-83.000,-60.000,-99.500,-74.500
0.656,-83.000,-60.000,-99.000,-74.500
0.657,-83.000,-60.000,-99.000,-74.500
0.658,-83.000,-60.000,-98.500,-74.000
0.659,-83.000,-60.000,-98.000,-74.000
0.660,-83.500,-60.500,-98.000,-73.500
0.661,-83.500,-60.500,-97.500,-73.500
0.662,-83.500,-60.500,-97.500,-73.500
0.663,-84.000,-61.000,-97.500,-73.500
0.664,-84.000,-61.000,-97.500,-73.500
0.665,-84.000,-61.000,-97.500,-73.500
0.666,-83.500,-61.000,-97.000,-73.500
0.667,-83.500,-61.000,-97.000,-73.000
0.668,-83.000,-60.500,-97.000,-72.500
0.669,-82.500,-60.500,-97.000,-72.000
0.670,-82.000,-60.000,-97.000,-72.000
0.671,-81.500,-60.000,-97.000,-72.000
0.672,-81.500,-59.500,-97.000,-72.000
0.673,-81.500,-59.500,-97.000,-72.000
0.674,-81.500,-59.500,-97.000,-72.000
0.675,-81.500,-59.000,-97.000,-72.000
0.676,-81.500,-59.000,-97.000,-71.500
0.677,-82.000,-59.500,-96.500,-71.500
0.678,-82.000,-59.500,-96.500,-71.500
0.679,-82.000,-59.500,-96.500,-72.000
0.680,-82.500,-59.500,-96.500,-72.000
0.681,-83.000,-59.500,-96.000,-72.500
0.682,-83.000,-60.000,-96.000,-72.500
0.683,-83.000,-60.000,-96.000,-72.500
0.684,-83.000,-59.500,-95.500,-72.000
0.685,-83.000,-59.500,-95.500,-72.000
0.686,-82.500,-59.500,-95.500,-72.000
0.687,-82.500,-59.500,-96.000,-72.000
0.688,-82.500,-59.500,-96.000,-72.000
0.689,-82.000,-59.500,-96.000,-72.000
0.690,-82.000,-59.500,-96.500,-72.000
0.691,-82.000,-59.000,-96.500,-72.000
0.692,-82.000,-59.000,-97.000,-72.000
0.693,-82.000,-58.500,-97.000,-72.000
0.694,-82.000,-58.500,-97.000,-72.000
0.695,-82.000,-58.000,-96.500,-71.500
0.696,-82.000,-57.500,-96.000,-71.500
0.697,-82.000,-57.500,-95.500,-71.500
0.698,-82.000,-57.500,-95.500,-71.500
0.699,-82.500,-57.000,-95.000,-71.500
0.700,-82.500,-57.000,-95.000,-71.500
0.701,-82.500,-57.000,-94.500,-71.500
0.702,-82.000,-56.500,-94.000,-71.000
0.703,-81.500,-56.500,-93.500,-70.500
0.704,-81.000,-56.000,-93.000,-70.500
0.705,-80.500,-56.000,-93.000,-70.000
0.706,-80.000,-55.500,-93.000,-69.500
0.707,-79.500,-55.000,-92.500,-69.500
0.708,-79.000,-55.000,-93.000,-69.000
0.709,-78.500,-54.500,-93.000,-69.000
0.710,-78.000,-54.500,-93.000,-68.500
0.711,-78.000,-54.000,-93.000,-69.000
0.712,-78.000,-54.500,-93.500,-69.000
0.713,-78.500,-54.500,-93.500,-69.000
0.714,-78.500,-55.000,-94.000,-69.500
0.715,-79.000,-55.000,-94.500,-69.500
0.716,-79.000,-55.000,-94.500,-69.500
0.717,-79.000,-55.000,-94.000,-69.500
0.718,-79.000,-54.500,-94.000,-69.500
0.719,-79.500,-54.500,-93.500,-69.500
0.720,-79.500,-54.000,-93.000,-69.500
0.721,-79.500,-54.000,-93.000,-69.500
0.722,-79.500,-54.000,-92.500,-69.000
0.723,-79.000,-54.000,-92.000,-68.500
0.724,-79.000,-54.000,-92.000,-68.500
0.725,-78.500,-54.000,-91.500,-68.000
0.726,-78.500,-54.000,-91.500,-68.000
0.727,-78.000,-54.000,-92.000,-68.000
0.728,-78.000,-54.000,-92.500,-68.000
0.729,-77.500,-54.000,-93.000,-68.000
0.730,-77.000,-54.000,-93.000,-68.000
0.731,-76.500,-54.000,-93.500,-68.000
0.732,-76.500,-54.000,-93.500,-68.000
0.733,-76.000,-54.000,-93.500,-67.500
0.734,-76.000,-53.500,-93.000,-67.500
0.735,-76.000,-53.500,-93.000,-67.000
0.736,-76.000,-53.500,-92.500,-67.000
0.737,-76.500,-53.500,-92.500,-66.500
0.738,-76.500,-53.000,-92.000,-66.500
0.739,-76.500,-53.000,-92.000,-66.500
0.740,-76.500,-53.500,-91.500,-66.500
0.741,-76.500,-53.000,-91.500,-66.500
0.742,-76.500,-53.000,-91.500,-66.000
0.743,-76.500,-53.000,-91.000,-66.000
0.744,-76.500,-53.000,-91.000,-66.000
0.745,-76.500,-53.500,-90.500,-66.000
0.746,-76.000,-53.500,-90.500,-66.000
0.747,-76.000,-53.000,-90.500,-66.000
0.748,-75.500,-53.000,-90.500,-66.000
0.749,-75.000,-53.000,-90.500,-65.500
0.750,-74.500,-52.500,-90.500,-65.500
0.751,-74.000,-52.000,-91.000,-65.500
0.752,-73.500,-52.000,-91.000,-65.500
0.753,-73.500,-52.000,-91.000,-65.500
0.754,-74.000,-52.000,-91.000,-65.500
0.755,-74.500,-52.000,-91.000,-65.500
0.756,-75.000,-52.500,-91.500,-65.500
0.757,-75.500,-53.000,-91.500,-66.000
0.758,-76.000,-53.000,-91.500,-66.000
0.759,-76.500,-53.500,-91.500,-66.000
0.760,-76.500,-54.000,-91.500,-66.000
0.761,-77.000,-54.500,-91.500,-66.500
0.762,-77.000,-55.000,-91.500,-67.000
0.763,-77.500,-55.000,-91.500,-67.000
0.764,-77.500,-56.000,-91.500,-67.500
0.765,-78.000,-56.500,-92.500,-67.500
0.766,-78.500,-57.000,-93.000,-68.000
0.767,-79.000,-58.000,-94.000,-68.000
0.768,-79.500,-58.500,-94.500,-68.000
0.769,-79.500,-58.500,-95.000,-68.000
0.770,-79.000,-58.500,-95.500,-68.000
0.771,-78.500,-58.000,-95.500,-68.000
0.772,-78.000,-57.500,-95.000,-67.500
0.773,-77.000,-56.500,-94.500,-67.000
0.774,-76.000,-56.000,-94.000,-67.000
0.775,-75.500,-55.000,-93.000,-66.000
0.776,-74.500,-54.500,-92.000,-65.500
0.777,-74.000,-53.500,-90.500,-65.000
0.778,-73.500,-52.500,-89.500,-64.500
0.779,-73.500,-52.000,-88.500,-64.000
0.780,-73.500,-51.500,-88.000,-63.500
0.781,-73.500,-51.000,-87.500,-63.000
0.782,-73.500,-50.500,-87.000,-62.500
0.783,-73.000,-50.000,-86.000,-62.000
0.784,-72.500,-49.500,-85.500,-61.500
0.785,-72.000,-49.500,-85.500,-61.000
0.786,-72.000,-49.000,-85.500,-61.000
0.787,-71.500,-49.000,-85.500,-61.000
0.788,-71.500,-49.500,-86.000,-61.000
0.789,-71.000,-49.500,-86.000,-60.500
0.790,-71.000,-49.500,-86.000,-60.500
0.791,-71.000,-50.000,-86.000,-60.500
0.792,-71.500,-50.000,-86.500,-60.500
0.793,-71.500,-50.500,-86.500,-60.500
0.794,-72.000,-50.500,-86.500,-61.000
0.795,-72.500,-50.500,-87.000,-61.000
0.796,-72.500,-50.500,-87.000,-61.000
0.797,-73.000,-50.500,-87.000,-61.000
0.798,-73.500,-50.500,-87.000,-60.500
0.799,-73.500,-50.500,-87.000,-60.500
0.800,-74.000,-50.500,-86.500,-60.500
0.801,-74.000,-50.500,-86.500,-60.500
0.802,-74.000,-50.500,-86.000,-60.500
0.803,-73.500,-50.500,-86.000,-60.500
0.804,-73.500,-50.000,-85.500,-60.000
0.805,-73.500,-50.000,-85.500,-60.000
0.806,-73.000,-50.000,-85.500,-59.500
0.807,-73.000,-49.500,-85.500,-59.500
0.808,-72.500,-49.500,-85.500,-59.000
0.809,-72.000,-49.000,-85.500,-59.000
0.810,-72.000,-49.000,-85.500,-59.000
0.811,-72.000,-49.000,-86.000,-59.000
0.812,-72.000,-49.000,-86.000,-59.500
0.813,-72.000,-49.000,-86.500,-60.000
0.814,-72.000,-49.000,-86.500,-60.000
0.815,-72.500,-49.000,-86.500,-60.000
0.816,-73.000,-49.500,-86.500,-60.000
0.817,-73.000,-49.500,-86.500,-60.000
0.818,-73.500,-50.000,-86.000,-60.000
0.819,-73.500,-50.000,-86.000,-60.000
0.820,-74.000,-50.500,-85.500,-60.000
0.821,-74.000,-50.500,-85.500,-60.000
0.822,-74.000,-50.500,-85.500,-60.000
0.823,-74.500,-50.500,-85.000,-60.500
0.824,-74.500,-50.500,-85.000,-60.500
0.825,-74.500,-50.500,-85.500,-60.500
0.826,-74.500,-50.500,-85.500,-60.500
0.827,-74.000,-50.500,-86.000,-60.500
0.828,-74.000,-50.500,-86.000,-60.500
0.829,-73.500,-50.500,-86.000,-60.500
0.830,-73.000,-50.000,-86.500,-60.000
0.831,-72.500,-50.000,-86.500,-60.000
0.832,-72.000,-49.500,-86.500,-60.000
0.833,-72.000,-49.500,-86.500,-60.000
0.834,-72.000,-49.000,-86.500,-60.000
0.835,-72.000,-49.000,-86.000,-60.000
0.836,-72.000,-49.000,-86.000,-60.500
0.837,-72.000,-49.000,-85.500,-60.500
0.838,-72.000,-48.500,-85.500,-60.500
0.839,-72.000,-48.500,-85.000,-60.500
0.840,-72.000,-48.500,-85.000,-60.000
0.841,-71.500,-48.000,-84.500,-60.000
0.842,-71.500,-48.000,-84.000,-59.500
0.843,-71.500,-47.500,-84.000,-59.500
0.844,-71.000,-47.500,-83.500,-59.500
0.845,-70.500,-47.000,-83.500,-59.500
0.846,-70.000,-47.000,-83.500,-59.500
0.847,-70.000,-46.500,-83.500,-59.500
0.848,-69.500,-46.500,-84.000,-59.500
0.849,-69.000,-46.000,-84.000,-59.500
0.850,-68.500,-45.500,-84.000,-59.000
0.851,-68.000,-45.000,-84.000,-59.000
0.852,-67.500,-44.500,-84.500,-59.000
0.853,-67.000,-44.000,-85.000,-59.000
0.854,-67.000,-44.000,-85.500,-59.500
0.855,-67.000,-43.500,-85.500,-60.000
0.856,-66.500,-43.500,-85.000,-60.000
0.857,-66.500,-44.000,-85.000,-60.000
0.858,-66.500,-44.000,-84.500,-59.500
0.859,-67.000,-44.000,-84.500,-59.500
0.860,-67.000,-44.000,-84.000,-59.500
0.861,-66.500,-43.500,-84.000,-59.500
0.862,-66.500,-43.500,-83.500,-59.500
0.863,-66.000,-42.500,-83.000,-59.000
0.864,-65.500,-42.000,-82.500,-59.000
0.865,-65.000,-41.500,-82.000,-58.500
0.866,-64.500,-41.500,-82.000,-58.000
0.867,-64.000,-41.000,-81.500,-58.000
0.868,-63.500,-41.000,-81.500,-57.500
0.869,-63.000,-40.500,-81.500,-57.500
0.870,-62.500,-40.000,-81.500,-57.500
0.871,-62.000,-40.000,-81.500,-57.500
0.872,-62.000,-40.000,-81.500,-57.500
0.873,-62.000,-40.000,-81.500,-58.000
0.874,-62.000,-40.000,-82.000,-58.000
0.875,-62.000,-40.000,-82.000,-58.000
0.876,-62.000,-40.000,-82.000,-58.000
0.877,-62.500,-40.000,-82.000,-58.000
0.878,-62.500,-40.000,-82.000,-58.500
0.879,-63.000,-40.500,-82.000,-58.500
0.880,-63.500,-41.000,-82.000,-59.000
0.881,-64.000,-41.000,-82.000,-59.000
0.882,-64.000,-41.500,-82.000,-59.000
0.883,-64.500,-41.500,-82.000,-59.000
0.884,-64.000,-41.500,-81.500,-58.500
0.885,-64.000,-41.000,-81.500,-58.000
0.886,-63.500,-40.500,-81.500,-58.000
0.887,-63.000,-40.000,-82.000,-57.500
0.888,-62.500,-40.000,-82.000,-57.500
0.889,-62.000,-39.500,-82.500,-57.500
0.890,-62.000,-39.500,-82.500,-57.500
0.891,-61.500,-39.000,-82.500,-57.500
0.892,-61.000,-38.500,-82.000,-57.000
0.893,-60.500,-38.000,-82.000,-56.500
0.894,-60.000,-37.500,-81.500,-56.500
0.895,-59.500,-37.000,-81.500,-56.500
0.896,-59.500,-37.000,-81.500,-56.500
0.897,-60.000,-36.500,-81.500,-57.000
0.898,-60.000,-36.500,-81.500,-57.000
0.899,-60.500,-37.000,-82.000,-57.500
0.900,-61.000,-37.000,-82.000,-58.000
0.901,-61.000,-37.500,-82.000,-58.000
0.902,-61.000,-37.500,-81.500,-58.000
0.903,-61.000,-37.500,-81.500,-57.500
0.904,-61.000,-37.500,-81.000,-57.000
0.905,-61.000,-37.500,-81.000,-57.000
0.906,-60.500,-37.500,-81.500,-57.000
0.907,-60.500,-37.000,-81.500,-57.000
0.908,-60.500,-37.000,-81.500,-57.000
0.909,-60.000,-37.000,-81.500,-57.000
0.910,-59.500,-36.500,-81.500,-57.000
0.911,-59.000,-36.500,-81.500,-56.500
0.912,-59.000,-36.000,-81.500,-56.500
0.913,-58.500,-36.000,-81.500,-56.500
0.914,-58.500,-35.500,-81.500,-56.500
0.915,-58.000,-35.000,-81.000,-56.500
0.916,-58.000,-35.000,-81.000,-56.500
0.917,-58.500,-35.000,-80.500,-56.000
0.918,-58.500,-35.000,-80.000,-56.000
0.919,-58.500,-35.000,-80.000,-56.000
0.920,-58.500,-35.000,-80.000,-56.000
0.921,-58.500,-35.000,-79.500,-56.000
0.922,-58.500,-35.500,-79.500,-56.000
0.923,-58.500,-35.500,-79.500,-56.500
0.924,-58.500,-35.500,-79.500,-56.500
0.925,-58.000,-35.000,-79.500,-56.000
0.926,-58.000,-35.000,-79.500,-56.000
0.927,-57.500,-35.000,-79.500,-56.000
0.928,-57.500,-35.000,-79.500,-56.000
0.929,-57.000,-34.500,-80.000,-56.000
0.930,-56.500,-34.500,-80.000,-56.000
0.931,-56.000,-34.000,-80.000,-56.000
0.932,-56.000,-33.500,-80.000,-56.000
0.933,-55.500,-33.500,-80.000,-55.500
0.934,-55.500,-33.500,-79.500,-55.500
0.935,-55.500,-33.500,-79.500,-55.000
0.936,-55.500,-33.000,-79.000,-55.000
0.937,-55.500,-33.000,-78.500,-55.000
0.938,-55.500,-33.000,-78.500,-55.000
0.939,-56.000,-33.000,-78.000,-55.000
0.940,-56.000,-33.000,-78.000,-55.000
0.941,-56.500,-33.000,-77.500,-55.000
0.942,-56.500,-33.000,-77.000,-55.500
0.943,-56.500,-33.000,-77.000,-55.500
0.944,-56.500,-33.000,-77.000,-55.500
0.945,-56.500,-33.000,-77.000,-55.500
0.946,-56.500,-33.000,-77.000,-56.000
0.947,-56.500,-33.500,-77.500,-56.500
0.948,-56.500,-33.500,-77.500,-56.500
0.949,-56.500,-33.500,-78.000,-57.000
0.950,-56.500,-33.500,-78.000,-56.500
0.951,-56.000,-33.000,-78.000,-56.500
0.952,-55.500,-33.000,-78.000,-56.500
0.953,-55.500,-33.000,-78.500,-56.000
0.954,-55.500,-33.000,-78.500,-56.000
0.955,-55.500,-32.500,-79.000,-56.000
0.956,-55.000,-32.500,-79.000,-56.000
0.957,-55.000,-32.000,-78.500,-56.000
0.958,-55.000,-31.500,-78.000,-56.000
0.959,-55.000,-31.500,-78.000,-56.000
0.960,-55.000,-31.000,-77.500,-56.000
0.961,-55.000,-31.000,-77.000,-56.000
0.962,-54.500,-31.000,-76.500,-55.500
0.963,-54.500,-31.000,-76.000,-55.000
0.964,-54.000,-30.500,-75.000,-54.500
0.965,-53.500,-30.500,-75.000,-54.000
0.966,-53.000,-30.500,-74.500,-54.000
0.967,-53.000,-30.000,-74.500,-54.000
0.968,-52.500,-30.000,-75.000,-54.000
0.969,-52.500,-30.000,-75.000,-54.000
0.970,-52.500,-29.500,-75.000,-53.500
0.971,-52.000,-29.500,-75.000,-53.500
0.972,-52.000,-29.500,-75.000,-53.500
0.973,-51.500,-29.500,-75.000,-53.500
0.974,-51.500,-29.000,-75.000,-53.000
0.975,-51.500,-29.000,-75.000,-53.000
0.976,-51.000,-29.000,-74.500,-53.000
0.977,-51.000,-29.000,-74.500,-53.000
0.978,-51.000,-29.000,-74.000,-53.500
0.979,-51.500,-29.500,-74.000,-53.500
0.980,-51.500,-29.500,-74.500,-54.000
0.981,-51.500,-29.500,-74.500,-54.000
0.982,-51.500,-29.500,-74.500,-54.000
0.983,-51.500,-29.000,-74.000,-54.000
0.984,-51.500,-29.000,-74.000,-54.000
0.985,-51.500,-28.500,-74.000,-53.500
0.986,-51.500,-28.500,-74.000,-53.500
0.987,-51.000,-28.000,-74.000,-53.000
0.988,-50.500,-28.000,-74.000,-53.000
0.989,-50.500,-28.000,-74.000,-52.500
0.990,-50.000,-28.000,-74.000,-52.000
0.991,-50.000,-28.000,-74.000,-52.000
0.992,-49.500,-28.000,-74.500,-52.000
0.993,-49.500,-27.500,-74.500,-52.000
0.994,-49.000,-27.500,-74.500,-52.000
0.995,-49.000,-27.500,-74.500,-52.000
0.996,-49.000,-27.500,-74.500,-52.000
0.997,-49.500,-27.500,-74.500,-52.000
0.998,-50.000,-27.500,-74.500,-52.000
0.999,-50.500,-27.500,-74.000,-52.500
1.000,-51.000,-27.500,-74.000,-52.500
1.001,-51.000,-27.500,-74.000,-52.500
1.002,-51.000,-27.500,-73.500,-52.500
1.003,-51.500,-28.000,-74.000,-53.000
1.004,-51.500,-28.000,-74.000,-53.500
1.005,-51.500,-28.500,-74.500,-53.500
1.006,-51.500,-28.500,-75.000,-54.000
1.007,-51.500,-28.500,-75.000,-54.000
1.008,-51.000,-28.500,-75.000,-54.000
1.009,-50.500,-28.500,-75.500,-54.000
1.010,-50.000,-28.000,-75.500,-54.000
1.011,-50.000,-28.000,-76.000,-53.500
1.012,-49.500,-27.500,-76.500,-53.500
1.013,-50.000,-27.500,-76.500,-53.500
1.014,-50.000,-27.500,-76.500,-53.500
1.015,-50.500,-27.500,-76.500,-53.000
1.016,-50.500,-27.500,-76.500,-53.000
1.017,-51.000,-27.500,-76.500,-52.500
1.018,-51.000,-27.500,-76.000,-52.500
1.019,-51.000,-27.500,-75.500,-52.500
1.020,-51.000,-27.500,-75.500,-52.000
1.021,-51.000,-27.500,-75.000,-52.000
1.022,-50.500,-27.500,-74.500,-52.000
1.023,-50.500,-27.000,-74.000,-52.000
1.024,-50.500,-27.000,-73.500,-52.000
1.025,-50.500,-27.000,-74.000,-52.000
1.026,-50.000,-27.000,-74.000,-52.000
1.027,-50.000,-27.000,-74.500,-52.500
1.028,-50.000,-27.000,-74.500,-52.500
1.029,-50.000,-26.500,-75.000,-52.500
1.030,-50.000,-26.500,-75.500,-52.500
1.031,-50.000,-26.500,-75.500,-52.500
1.032,-50.000,-26.500,-75.500,-53.000
1.033,-49.500,-26.500,-75.500,-52.500
1.034,-49.500,-26.000,-75.500,-52.500
1.035,-49.000,-26.000,-75.500,-52.500
1.036,-49.000,-25.500,-75.000,-52.000
1.037,-49.000,-25.500,-75.000,-52.000
1.038,-49.000,-25.500,-75.000,-51.500
1.039,-49.500,-25.500,-74.500,-51.500
1.040,-49.500,-25.500,-74.500,-51.000
1.041,-49.500,-25.000,-74.000,-51.000
1.042,-49.500,-25.000,-74.000,-50.500
1.043,-49.000,-24.500,-73.500,-50.500
1.044,-49.000,-24.500,-73.500,-50.500
1.045,-49.000,-24.500,-73.500,-50.500
1.046,-48.500,-24.500,-73.000,-50.000
1.047,-48.000,-24.000,-73.500,-50.000
1.048,-47.500,-24.000,-73.500,-50.000
1.049,-47.500,-24.000,-73.500,-50.000
1.050,-47.000,-23.500,-73.500,-50.000
1.051,-46.500,-23.500,-73.500,-49.500
1.052,-46.500,-23.500,-74.000,-49.500
1.053,-46.000,-23.000,-74.000,-49.500
1.054,-46.000,-23.000,-74.000,-49.500
1.055,-46.000,-22.500,-74.000,-49.500
1.056,-46.500,-22.500,-74.000,-49.500
1.057,-47.000,-22.500,-73.500,-50.000
1.058,-47.000,-23.000,-73.000,-50.000
1.059,-47.500,-23.000,-73.000,-50.000
1.060,-48.000,-23.000,-73.000,-50.500
1.061,-48.000,-23.000,-72.500,-50.500
1.062,-48.000,-23.000,-72.500,-50.500
1.063,-48.500,-23.500,-73.000,-51.000
1.064,-48.500,-23.500,-73.000,-51.000
1.065,-49.000,-23.500,-73.500,-51.000
1.066,-49.000,-23.500,-74.000,-51.500
1.067,-48.500,-23.500,-74.500,-52.000
1.068,-48.500,-24.000,-74.500,-52.500
1.069,-48.000,-23.500,-75.000,-52.500
1.070,-48.000,-23.500,-75.000,-52.500
1.071,-48.000,-23.500,-75.000,-52.500
1.072,-48.000,-23.000,-75.000,-52.500
1.073,-48.000,-23.000,-75.000,-52.500
1.074,-48.000,-23.500,-75.000,-52.000
1.075,-48.000,-23.500,-74.500,-52.000
1.076,-48.500,-23.500,-74.000,-52.000
1.077,-48.500,-24.000,-74.000,-52.000
1.078,-49.000,-24.000,-73.500,-51.500
1.079,-49.000,-24.000,-73.500,-51.500
1.080,-49.000,-24.000,-73.500,-51.500
1.081,-49.500,-24.000,-73.500,-52.000
1.082,-49.500,-24.000,-73.500,-52.000
1.083,-49.500,-24.500,-73.500,-52.000
1.084,-49.500,-24.500,-73.500,-52.000
1.085,-49.500,-24.500,-73.500,-52.000
1.086,-49.500,-24.500,-73.500,-52.000
1.087,-50.000,-24.500,-74.000,-52.000
1.088,-50.000,-24.500,-74.500,-52.500
1.089,-50.000,-24.500,-75.000,-52.500
1.090,-50.000,-25.000,-75.500,-53.000
1.091,-50.500,-25.000,-76.000,-53.500
1.092,-50.500,-25.000,-76.500,-53.500
1.093,-50.500,-25.000,-76.500,-53.500
1.094,-50.500,-25.000,-77.000,-53.500
1.095,-50.500,-25.000,-77.000,-53.500
1.096,-50.500,-25.000,-77.000,-53.500
1.097,-51.000,-25.000,-77.000,-53.500
1.098,-51.000,-25.000,-76.500,-53.500
1.099,-51.000,-25.000,-76.000,-54.000
1.100,-51.500,-25.000,-76.000,-54.000
1.101,-51.500,-25.000,-76.000,-54.000
1.102,-51.500,-25.000,-75.500,-54.000
1.103,-51.500,-24.500,-75.500,-54.000
1.104,-51.000,-24.500,-75.500,-54.000
1.105,-51.000,-24.500,-75.500,-54.000
1.106,-50.500,-24.500,-75.500,-54.000
1.107,-50.000,-24.500,-75.500,-53.500
1.108,-50.000,-24.500,-75.500,-53.500
1.109,-50.000,-24.500,-75.500,-53.500
1.110,-50.000,-24.500,-75.500,-53.500
1.111,-49.500,-24.000,-75.500,-53.500
1.112,-49.500,-24.000,-75.500,-53.000
1.113,-49.000,-23.500,-75.500,-53.000
1.114,-49.000,-23.500,-76.000,-53.000
1.115,-49.000,-23.500,-76.000,-53.000
1.116,-49.500,-23.500,-76.000,-53.000
1.117,-50.000,-24.000,-76.500,-53.500
1.118,-50.500,-24.000,-76.500,-53.500
1.119,-51.000,-24.500,-76.500,-54.000
1.120,-52.000,-25.500,-77.000,-54.000
1.121,-53.000,-26.000,-77.500,-54.500
1.122,-53.500,-27.000,-78.000,-54.500
1.123,-54.000,-27.500,-78.500,-55.000
1.124,-54.000,-27.500,-78.500,-54.500
1.125,-53.500,-27.500,-78.000,-54.500
1.126,-53.000,-27.000,-77.500,-54.000
1.127,-52.500,-26.000,-77.000,-53.500
1.128,-51.500,-25.000,-76.500,-52.500
1.129,-50.500,-24.000,-76.000,-52.000
1.130,-49.500,-23.000,-75.000,-51.500
1.131,-49.000,-22.500,-75.000,-51.500
1.132,-48.000,-21.500,-75.000,-51.500
1.133,-47.500,-21.000,-74.500,-51.000
1.134,-47.500,-21.000,-74.500,-51.000
1.135,-47.000,-20.500,-74.500,-51.000
1.136,-47.000,-20.500,-74.500,-51.000
1.137,-47.000,-20.500,-74.000,-51.000
1.138,-47.000,-20.500,-74.000,-50.500
1.139,-47.500,-21.000,-73.500,-50.500
1.140,-47.500,-21.000,-73.500,-50.500
1.141,-48.000,-21.000,-73.500,-50.500
1.142,-48.000,-21.000,-73.500,-51.000
1.143,-48.000,-21.000,-73.500,-51.000
1.144,-48.000,-21.000,-73.500,-51.500
1.145,-48.000,-20.500,-73.500,-51.500
1.146,-47.500,-20.500,-73.000,-51.500
1.147,-47.500,-20.000,-73.000,-51.000
1.148,-47.000,-20.000,-73.500,-51.000
1.149,-46.500,-20.000,-73.500,-51.000
1.150,-46.500,-19.500,-73.500,-51.000
1.151,-46.500,-19.500,-74.000,-51.000
1.152,-46.000,-19.500,-74.000,-51.000
1.153,-46.000,-19.000,-73.500,-50.500
1.154,-46.000,-19.000,-73.500,-50.500
1.155,-46.000,-19.000,-73.500,-50.500
1.156,-46.500,-18.500,-73.500,-50.500
1.157,-46.500,-19.000,-73.000,-50.500
1.158,-46.500,-19.000,-73.000,-50.500
1.159,-47.000,-19.000,-73.500,-50.500
1.160,-47.500,-19.000,-73.500,-51.000
1.161,-47.500,-19.500,-73.500,-51.000
1.162,-47.500,-19.500,-73.000,-50.500
1.163,-47.500,-19.000,-73.000,-50.500
1.164,-47.500,-18.500,-72.500,-50.500
1.165,-47.000,-18.500,-72.500,-50.000
1.166,-47.000,-18.000,-72.500,-50.000
1.167,-46.500,-18.000,-72.500,-50.000
1.168,-46.000,-17.500,-72.500,-49.500
1.169,-45.500,-17.500,-72.500,-49.500
1.170,-45.000,-17.000,-72.500,-49.000
1.171,-44.500,-16.500,-72.500,-49.000
1.172,-44.500,-16.500,-72.500,-48.500
1.173,-44.500,-16.500,-72.500,-48.500
1.174,-44.500,-17.000,-73.000,-48.500
1.175,-45.000,-17.000,-73.500,-49.000
1.176,-45.000,-17.500,-73.500,-49.000
1.177,-45.000,-17.500,-73.500,-49.000
1.178,-45.000,-17.500,-73.500,-49.000
1.179,-45.000,-17.000,-73.500,-49.000
1.180,-45.000,-17.000,-73.500,-49.000
1.181,-45.000,-17.000,-73.000,-49.000
1.182,-45.500,-17.000,-73.000,-49.500
1.183,-45.500,-17.000,-72.500,-49.500
1.184,-45.000,-16.500,-72.500,-49.000
1.185,-45.000,-16.500,-72.500,-49.000
1.186,-44.500,-16.500,-72.500,-49.000
1.187,-44.500,-16.500,-72.500,-48.500
1.188,-44.000,-16.000,-72.500,-48.500
1.189,-44.000,-16.000,-73.000,-48.500
1.190,-43.500,-16.000,-73.000,-48.500
1.191,-43.500,-16.000,-73.000,-48.500
1.192,-43.500,-15.500,-73.000,-48.500
1.193,-43.500,-15.500,-73.500,-48.000
1.194,-43.500,-15.500,-73.500,-48.000
1.195,-44.000,-15.500,-73.500,-48.000
1.196,-44.000,-15.500,-73.500,-48.000
1.197,-44.000,-15.500,-73.500,-48.000
1.198,-44.500,-15.500,-73.000,-48.000
1.199,-44.500,-15.500,-73.000,-48.500
1.200,-44.500,-15.500,-72.500,-48.500
1.201,-45.000,-15.500,-72.500,-48.500
1.202,-45.000,-15.500,-72.500,-48.500
1.203,-45.000,-15.500,-72.500,-48.000
1.204,-45.000,-15.500,-72.500,-48.000
1.205,-45.000,-15.500,-72.500,-48.000
1.206,-45.000,-15.500,-72.500,-47.500
1.207,-44.500,-15.500,-72.500,-47.500
1.208,-44.500,-15.500,-73.000,-47.500
1.209,-44.500,-15.500,-73.000,-48.000
1.210,-44.000,-15.000,-73.500,-48.000
1.211,-44.000,-15.000,-74.000,-48.000
1.212,-44.000,-15.000,-74.500,-48.500
1.213,-44.000,-15.000,-75.000,-49.000
1.214,-44.000,-15.000,-75.500,-50.000
1.215,-44.500,-15.500,-75.500,-50.500
1.216,-45.000,-15.500,-76.000,-51.500
1.217,-45.500,-16.000,-76.500,-52.000
1.218,-46.500,-16.500,-76.500,-52.500
1.219,-47.000,-17.000,-77.000,-53.500
1.220,-48.000,-18.000,-77.500,-54.000
1.221,-49.000,-19.000,-77.500,-54.500
1.222,-50.000,-19.500,-78.000,-54.500
1.223,-51.000,-20.000,-78.500,-55.000
1.224,-52.000,-21.000,-79.000,-55.000
1.225,-52.500,-21.500,-79.500,-55.000
1.226,-53.000,-21.500,-79.500,-54.500
1.227,-53.500,-22.000,-80.000,-54.000
1.228,-54.000,-22.500,-80.000,-53.500
1.229,-54.500,-22.500,-80.000,-53.000
1.230,-55.500,-23.000,-80.000,-52.500
1.231,-56.000,-23.500,-80.500,-52.000
1.232,-56.500,-24.000,-80.500,-52.000
1.233,-57.500,-24.500,-81.000,-51.500
1.234,-58.500,-25.000,-81.000,-51.500
1.235,-59.500,-25.500,-81.000,-50.500
1.236,-60.000,-25.500,-80.500,-49.500
1.237,-61.000,-25.500,-79.500,-48.500
1.238,-62.000,-25.500,-78.500,-47.500
1.239,-62.500,-25.500,-77.500,-46.000
1.240,-63.500,-25.500,-76.000,-44.000
1.241,-63.500,-25.000,-75.000,-42.500
1.242,-64.000,-24.500,-73.500,-40.500
1.243,-64.500,-24.500,-72.500,-39.000
1.244,-64.500,-24.000,-71.500,-37.500
1.245,-65.000,-24.000,-71.000,-36.500
1.246,-65.500,-23.500,-70.500,-35.500
1.247,-65.500,-23.500,-70.000,-34.500
1.248,-64.500,-23.000,-70.000,-34.000
1.249,-63.500,-22.000,-69.500,-34.000
1.250,-61.500,-21.000,-69.000,-33.500
1.251,-59.000,-19.000,-69.000,-33.500
1.252,-56.000,-17.000,-68.000,-33.000
1.253,-52.500,-14.500,-67.000,-33.000
1.254,-48.500,-12.000,-66.000,-33.000
1.255,-45.000,-9.500,-64.500,-32.500
1.256,-41.500,-7.000,-63.000,-32.500
1.257,-39.000,-5.000,-62.000,-32.500
1.258,-37.000,-3.500,-61.500,-32.500
1.259,-35.500,-2.500,-61.000,-33.000
1.260,-34.500,-2.000,-60.500,-33.000
1.261,-34.000,-1.500,-60.000,-33.500
1.262,-34.000,-1.500,-60.000,-33.500
1.263,-34.500,-2.000,-60.000,-34.500
1.264,-35.000,-3.000,-60.500,-35.000
1.265,-35.500,-4.000,-62.000,-36.500
1.266,-36.500,-5.000,-63.500,-38.000
1.267,-37.500,-6.500,-65.000,-39.500
1.268,-38.500,-7.500,-66.500,-40.500
1.269,-39.500,-8.500,-68.000,-41.500
1.270,-40.500,-9.500,-69.000,-42.500
1.271,-41.000,-10.500,-70.000,-43.500
1.272,-41.500,-11.000,-71.000,-44.000
1.273,-42.000,-11.500,-72.000,-44.500
1.274,-43.000,-12.000,-72.500,-45.000
1.275,-43.500,-12.500,-73.000,-46.000
1.276,-44.500,-13.000,-74.000,-46.500
1.277,-45.000,-13.000,-74.000,-47.000
1.278,-45.500,-13.000,-74.000,-47.000
1.279,-46.000,-13.500,-74.000,-47.000
1.280,-46.500,-13.500,-74.000,-47.500
1.281,-46.500,-13.500,-74.000,-47.500
1.282,-47.000,-14.000,-74.000,-47.500
1.283,-47.000,-14.000,-74.000,-47.500
1.284,-47.000,-14.000,-74.500,-48.000
1.285,-47.000,-14.000,-75.000,-48.000
1.286,-46.500,-13.500,-75.000,-48.000
1.287,-46.000,-13.500,-75.000,-48.000
1.288,-45.500,-13.500,-75.000,-48.000
1.289,-45.000,-13.000,-75.000,-48.000
1.290,-44.500,-13.000,-75.000,-48.000
1.291,-44.500,-13.000,-75.000,-48.000
1.292,-44.500,-13.000,-75.000,-48.500
1.293,-44.500,-12.500,-75.500,-48.500
1.294,-44.500,-12.500,-75.000,-48.500
1.295,-44.500,-12.500,-75.000,-48.500
1.296,-45.000,-12.500,-74.500,-48.500
1.297,-45.000,-12.500,-74.500,-48.500
1.298,-45.500,-12.500,-74.000,-48.000
1.299,-46.000,-12.500,-74.000,-48.000
1.300,-46.000,-12.500,-73.500,-48.000
1.301,-46.000,-12.500,-73.500,-48.000
1.302,-46.000,-12.500,-73.500,-48.000
1.303,-46.000,-13.000,-73.000,-47.500
1.304,-46.000,-13.000,-73.000,-47.500
1.305,-45.500,-13.000,-73.000,-47.500
1.306,-45.500,-13.000,-73.000,-47.000
1.307,-45.000,-12.500,-73.000,-47.000
1.308,-45.000,-12.000,-73.000,-46.500
1.309,-44.500,-12.000,-73.500,-46.500
1.310,-44.000,-11.500,-73.500,-46.000
1.311,-44.000,-11.000,-73.500,-46.000
1.312,-44.000,-11.000,-73.500,-46.000
1.313,-44.000,-11.000,-74.000,-46.500
1.314,-44.500,-11.500,-74.500,-47.000
1.315,-44.500,-11.500,-74.500,-47.000
1.316,-45.000,-11.500,-74.500,-47.000
1.317,-45.500,-11.500,-74.500,-47.000
1.318,-46.000,-11.500,-74.000,-47.000
1.319,-46.500,-12.000,-74.500,-47.500
1.320,-47.000,-12.000,-74.500,-47.500
1.321,-47.500,-12.500,-75.000,-48.000
1.322,-47.500,-12.500,-75.000,-48.500
1.323,-47.500,-13.000,-75.000,-48.500
1.324,-47.500,-13.000,-75.000,-48.500
1.325,-48.000,-13.000,-75.500,-48.500
1.326,-48.000,-13.000,-75.500,-48.500
1.327,-47.500,-13.000,-75.500,-48.000
1.328,-47.500,-12.500,-75.500,-48.000
1.329,-47.500,-12.500,-75.500,-47.500
1.330,-47.000,-12.500,-76.000,-47.500
1.331,-47.000,-12.500,-76.000,-47.500
1.332,-46.500,-12.500,-76.000,-47.500
1.333,-46.500,-12.500,-76.000,-47.500
1.334,-47.000,-13.000,-76.000,-47.500
1.335,-47.000,-13.000,-76.000,-47.500
1.336,-47.000,-13.000,-76.000,-47.500
1.337,-47.500,-13.000,-76.000,-47.000
1.338,-47.500,-13.000,-76.000,-47.000
1.339,-48.000,-13.000,-75.500,-47.500
1.340,-48.000,-13.000,-75.500,-47.500
1.341,-48.000,-13.500,-75.500,-47.500
1.342,-48.500,-13.500,-75.000,-47.500
1.343,-48.500,-13.500,-74.500,-47.500
1.344,-48.500,-13.500,-74.500,-47.000
1.345,-48.500,-14.000,-74.500,-47.500
1.346,-48.500,-14.000,-75.000,-47.500
1.347,-48.500,-14.000,-75.000,-47.500
1.348,-48.500,-14.000,-75.500,-47.500
1.349,-48.000,-13.500,-75.500,-47.500
1.350,-47.500,-13.500,-75.500,-47.500
1.351,-47.500,-13.000,-75.500,-47.500
1.352,-47.000,-13.000,-76.000,-48.000
1.353,-47.500,-13.500,-76.500,-48.500
1.354,-47.500,-13.500,-77.000,-49.000
1.355,-48.000,-13.500,-77.000,-49.000
1.356,-48.000,-14.000,-77.500,-49.500
1.357,-48.500,-14.000,-77.500,-49.500
1.358,-49.000,-14.000,-77.500,-50.000
1.359,-49.500,-14.500,-77.500,-50.000
1.360,-50.000,-14.500,-77.500,-50.000
1.361,-50.000,-14.000,-77.000,-49.500
1.362,-50.000,-14.500,-77.000,-49.500
1.363,-50.500,-14.500,-77.000,-50.000
1.364,-50.500,-15.000,-77.500,-50.500
1.365,-50.500,-15.000,-77.500,-50.500
1.366,-50.500,-15.000,-77.500,-51.000
1.367,-50.500,-15.000,-77.500,-51.000
1.368,-50.500,-15.000,-78.000,-51.000
1.369,-50.000,-15.000,-78.000,-51.000
1.370,-50.000,-15.000,-78.000,-51.000
1.371,-50.000,-14.500,-78.000,-51.000
1.372,-50.000,-14.500,-78.000,-51.000
1.373,-50.000,-14.500,-78.000,-51.000
1.374,-50.500,-14.500,-78.000,-51.000
1.375,-50.500,-14.000,-78.000,-51.000
1.376,-50.500,-14.000,-77.500,-51.000
1.377,-51.000,-14.000,-77.500,-51.000
1.378,-51.500,-14.000,-77.500,-51.000
1.379,-52.000,-14.000,-77.500,-51.500
1.380,-52.500,-14.500,-77.500,-51.500
1.381,-52.500,-14.500,-77.500,-52.000
1.382,-53.000,-14.500,-77.500,-52.000
1.383,-52.500,-14.500,-77.500,-52.000
1.384,-52.500,-14.500,-77.000,-52.000
1.385,-52.000,-14.500,-77.000,-52.000
1.386,-52.000,-14.500,-77.000,-52.000
1.387,-51.500,-14.000,-77.000,-51.500
1.388,-51.500,-14.000,-77.500,-52.000
1.389,-51.500,-13.500,-77.500,-52.000
1.390,-51.000,-13.500,-78.000,-52.000
1.391,-51.000,-13.000,-78.000,-52.000
1.392,-51.000,-13.000,-78.000,-52.000
1.393,-51.000,-13.000,-78.000,-52.000
1.394,-51.000,-13.000,-78.000,-52.000
1.395,-51.000,-13.000,-78.500,-52.000
1.396,-51.000,-13.000,-78.500,-52.000
1.397,-51.500,-13.000,-78.000,-52.000
1.398,-51.500,-13.000,-78.000,-52.000
1.399,-52.000,-13.500,-77.500,-52.000
1.400,-52.000,-13.500,-77.500,-52.000
1.401,-52.000,-13.500,-77.500,-52.500
1.402,-52.000,-14.000,-77.500,-52.500
1.403,-52.000,-14.000,-77.500,-53.000
1.404,-51.500,-14.000,-77.500,-53.000
1.405,-51.500,-13.500,-77.500,-52.500
1.406,-51.000,-13.500,-77.500,-52.500
1.407,-51.000,-13.000,-77.500,-52.000
1.408,-50.500,-13.000,-77.500,-51.500
1.409,-50.500,-13.000,-77.500,-51.500
1.410,-50.500,-13.000,-77.500,-51.500
1.411,-50.500,-12.500,-77.500,-51.000
1.412,-50.000,-12.500,-78.000,-51.500
1.413,-50.000,-12.500,-78.000,-51.500
1.414,-50.500,-12.500,-78.500,-51.500
1.415,-50.500,-13.000,-78.500,-51.500
1.416,-51.000,-13.000,-78.500,-52.000
1.417,-51.500,-13.500,-78.500,-52.000
1.418,-52.500,-13.500,-79.000,-52.000
1.419,-53.000,-14.000,-79.000,-52.000
1.420,-53.500,-14.000,-79.000,-52.000
1.421,-54.000,-14.000,-79.000,-52.000
1.422,-54.500,-14.000,-79.500,-52.500
1.423,-54.500,-14.000,-79.000,-52.500
1.424,-54.500,-14.000,-79.000,-52.500
1.425,-54.500,-14.000,-79.000,-52.000
1.426,-54.000,-13.500,-79.000,-52.000
1.427,-54.000,-13.500,-79.000,-52.000
1.428,-54.000,-13.500,-79.500,-52.000
1.429,-53.500,-13.500,-79.500,-52.500
1.430,-53.000,-13.000,-79.500,-52.500
1.431,-53.000,-13.000,-79.500,-53.000
1.432,-53.000,-13.000,-80.000,-53.000
1.433,-53.000,-13.000,-80.000,-53.000
1.434,-53.000,-12.500,-80.000,-53.000
1.435,-53.500,-13.000,-80.000,-53.000
1.436,-54.000,-13.000,-80.000,-53.000
1.437,-54.500,-13.000,-80.000,-53.000
1.438,-54.500,-13.000,-80.000,-53.000
1.439,-55.000,-13.500,-80.000,-53.000
1.440,-55.500,-13.500,-79.500,-53.000
1.441,-56.000,-13.500,-79.500,-52.500
1.442,-56.000,-14.000,-79.000,-52.500
1.443,-56.000,-14.000,-79.000,-52.000
1.444,-56.000,-14.000,-78.500,-51.500
1.445,-56.000,-14.000,-78.500,-51.000
1.446,-56.000,-14.000,-79.000,-51.000
1.447,-55.500,-14.000,-79.000,-51.000
1.448,-55.500,-14.000,-79.500,-51.000
1.449,-55.500,-14.000,-79.500,-51.000
1.450,-55.000,-14.000,-79.500,-50.500
1.451,-55.000,-14.000,-80.000,-50.500
1.452,-55.000,-14.000,-80.000,-50.500
1.453,-55.500,-14.000,-80.500,-51.000
1.454,-55.500,-14.000,-81.000,-51.000
1.455,-56.000,-14.500,-81.000,-51.500
1.456,-56.000,-14.500,-81.000,-51.500
1.457,-56.500,-14.500,-80.500,-51.500
1.458,-57.000,-14.500,-80.000,-51.500
1.459,-57.000,-14.500,-79.500,-51.500
1.460,-57.500,-14.500,-79.500,-51.500
1.461,-58.000,-14.500,-79.000,-51.500
1.462,-58.000,-14.500,-79.000,-51.500
1.463,-58.000,-14.500,-79.500,-51.500
1.464,-58.000,-14.500,-79.500,-51.500
1.465,-58.000,-15.000,-79.500,-51.500
1.466,-58.000,-15.500,-79.500,-51.500
1.467,-58.000,-15.500,-80.000,-51.500
1.468,-58.500,-16.000,-80.500,-51.500
1.469,-58.500,-16.000,-81.000,-51.500
1.470,-59.000,-16.500,-81.500,-52.000
1.471,-59.500,-17.000,-82.500,-52.000
1.472,-60.000,-17.000,-83.000,-52.500
1.473,-60.500,-18.000,-83.500,-52.500
1.474,-61.000,-18.500,-84.500,-53.000
1.475,-62.000,-19.500,-85.000,-54.000
1.476,-62.500,-20.500,-86.000,-55.000
1.477,-63.500,-21.000,-87.000,-55.500
1.478,-64.000,-21.500,-87.000,-55.500
1.479,-64.000,-21.500,-86.500,-55.500
1.480,-64.000,-21.000,-86.000,-55.000
1.481,-63.500,-20.500,-85.000,-54.000
1.482,-63.000,-19.500,-83.500,-53.500
1.483,-62.000,-18.500,-82.500,-53.000
1.484,-61.000,-17.500,-81.500,-52.500
1.485,-60.000,-16.500,-81.000,-52.000
1.486,-59.000,-16.000,-80.500,-52.000
1.487,-58.500,-15.500,-80.500,-52.000
1.488,-58.000,-15.000,-80.500,-52.000
1.489,-57.500,-15.000,-81.000,-52.000
1.490,-57.000,-14.500,-81.000,-52.500
1.491,-57.000,-14.500,-81.500,-52.500
1.492,-56.500,-14.500,-81.500,-52.500
1.493,-56.500,-14.000,-81.500,-52.500
1.494,-56.500,-14.000,-81.500,-52.500
1.495,-56.500,-14.000,-81.500,-53.000
1.496,-56.500,-14.000,-81.500,-53.500
1.497,-57.000,-14.500,-82.000,-54.000
1.498,-57.000,-14.500,-82.000,-54.500
1.499,-57.500,-15.000,-82.000,-55.000
1.500,-57.500,-15.000,-82.000,-55.000
1.501,-58.000,-15.500,-82.000,-55.000
1.502,-58.000,-15.500,-82.000,-55.000
1.503,-58.000,-16.000,-81.500,-55.000
1.504,-57.500,-16.000,-81.500,-55.000
1.505,-57.500,-16.000,-82.000,-55.000
1.506,-57.000,-15.500,-82.000,-55.000
1.507,-56.500,-15.500,-82.000,-55.000
1.508,-56.500,-15.500,-82.000,-55.500
1.509,-56.000,-15.000,-82.000,-55.500
1.510,-55.500,-15.000,-82.000,-55.500
1.511,-55.000,-15.000,-82.000,-56.000
1.512,-55.000,-14.500,-82.500,-56.000
1.513,-55.000,-14.500,-82.500,-56.000
1.514,-54.500,-14.500,-83.000,-56.500
1.515,-54.500,-15.000,-83.500,-56.500
1.516,-55.000,-15.000,-83.500,-56.500
1.517,-55.000,-15.000,-83.500,-56.500
1.518,-55.500,-15.000,-83.000,-56.500
1.519,-55.500,-15.000,-83.000,-56.500
1.520,-56.000,-15.000,-82.500,-56.500
1.521,-56.000,-15.000,-82.500,-56.500
1.522,-56.500,-15.000,-82.500,-56.500
1.523,-56.500,-15.000,-82.500,-57.000
1.524,-56.000,-14.500,-82.500,-57.000
1.525,-56.000,-14.500,-82.500,-57.000
1.526,-55.500,-14.000,-82.500,-56.500
1.527,-55.000,-14.000,-82.500,-56.500
1.528,-54.500,-14.000,-82.500,-56.500
1.529,-54.500,-14.000,-82.500,-56.500
1.530,-54.000,-13.500,-82.500,-56.500
1.531,-53.500,-13.500,-83.000,-56.500
1.532,-53.500,-13.500,-83.000,-56.500
1.533,-53.500,-13.000,-83.500,-56.500
1.534,-53.500,-13.000,-83.500,-57.000
1.535,-53.500,-13.000,-83.500,-57.000
1.536,-53.500,-13.500,-83.500,-57.000
1.537,-54.000,-13.500,-83.500,-57.000
1.538,-54.500,-13.500,-83.500,-57.500
1.539,-54.500,-14.000,-83.000,-57.500
1.540,-55.000,-14.000,-82.500,-57.500
1.541,-55.000,-14.000,-82.500,-57.500
1.542,-55.500,-13.500,-82.500,-57.500
1.543,-55.500,-13.500,-82.000,-58.000
1.544,-55.500,-14.000,-82.000,-58.000
1.545,-55.500,-14.000,-82.500,-58.000
1.546,-55.500,-14.000,-82.500,-58.000
1.547,-55.000,-14.000,-82.500,-58.000
1.548,-55.000,-13.500,-83.000,-58.500
1.549,-54.500,-13.500,-83.000,-58.500
1.550,-54.500,-13.500,-83.500,-58.500
1.551,-54.000,-13.500,-83.500,-58.500
1.552,-54.000,-13.500,-84.000,-59.000
1.553,-54.000,-13.500,-84.000,-59.000
1.554,-54.000,-13.000,-84.000,-59.500
1.555,-54.500,-13.000,-84.000,-59.500
1.556,-54.500,-13.000,-84.000,-59.500
1.557,-55.000,-13.000,-84.000,-59.500
1.558,-55.500,-13.000,-84.000,-60.000
1.559,-55.500,-13.000,-84.000,-60.000
1.560,-56.000,-13.000,-84.000,-59.500
1.561,-56.000,-13.000,-84.000,-59.500
1.562,-56.000,-13.000,-83.500,-59.500
1.563,-56.000,-13.000,-83.500,-59.500
1.564,-56.000,-13.000,-83.500,-59.500
1.565,-55.500,-12.500,-83.000,-59.500
1.566,-55.500,-12.500,-83.000,-59.500
1.567,-55.000,-12.500,-83.500,-59.500
1.568,-54.500,-12.000,-83.500,-59.500
1.569,-54.500,-12.000,-83.500,-59.500
1.570,-54.000,-12.000,-84.000,-59.500
1.571,-54.000,-12.000,-84.500,-59.500
1.572,-54.500,-12.000,-84.500,-59.000
1.573,-54.500,-12.000,-85.000,-59.000
1.574,-54.500,-12.000,-85.000,-59.000
1.575,-54.500,-12.500,-85.000,-59.000
1.576,-55.000,-12.500,-85.000,-59.000
1.577,-55.000,-12.500,-85.000,-59.000
1.578,-55.500,-12.500,-84.500,-59.500
1.579,-55.500,-12.500,-84.000,-59.000
1.580,-56.000,-12.500,-84.000,-59.000
1.581,-56.000,-12.500,-83.500,-59.000
1.582,-56.000,-12.500,-83.000,-59.000
1.583,-56.000,-12.500,-83.000,-59.000
1.584,-56.000,-12.500,-83.000,-59.000
1.585,-56.000,-12.500,-83.500,-59.500
1.586,-56.000,-12.500,-84.000,-59.500
1.587,-56.000,-12.500,-84.500,-59.500
1.588,-55.500,-12.500,-85.000,-59.000
1.589,-55.000,-12.500,-85.500,-59.000
1.590,-55.000,-12.500,-85.500,-59.000
1.591,-55.000,-13.000,-86.000,-59.500
1.592,-55.000,-13.000,-86.000,-59.500
1.593,-55.000,-13.000,-86.000,-59.000
1.594,-55.500,-13.000,-86.000,-59.000
1.595,-55.500,-13.000,-86.000,-59.000
1.596,-56.000,-13.000,-85.500,-59.000
1.597,-56.500,-13.000,-85.500,-59.000
1.598,-56.500,-13.000,-85.500,-59.000
1.599,-57.000,-13.000,-85.500,-59.000
1.600,-57.000,-13.000,-85.500,-59.000
1.601,-57.500,-13.000,-85.000,-59.000
1.602,-57.500,-13.000,-85.000,-59.500
1.603,-57.500,-13.000,-85.000,-59.500
1.604,-57.500,-13.000,-85.000,-60.000
1.605,-57.500,-13.000,-85.000,-60.000
1.606,-57.000,-13.000,-85.000,-60.000
1.607,-57.000,-13.000,-85.000,-60.000
1.608,-56.500,-13.000,-85.000,-59.500
1.609,-56.500,-13.000,-85.500,-59.500
1.610,-56.500,-12.500,-85.500,-59.500
1.611,-56.000,-12.500,-85.500,-60.000
1.612,-56.000,-12.500,-86.000,-60.000
1.613,-56.000,-12.500,-86.000,-60.500
1.614,-56.000,-12.500,-86.000,-60.500
1.615,-56.500,-12.500,-86.000,-60.500
1.616,-56.500,-12.500,-86.000,-60.500
1.617,-57.000,-12.500,-86.000,-60.500
1.618,-57.500,-12.500,-85.500,-60.000
1.619,-58.000,-12.500,-85.500,-60.000
1.620,-58.500,-13.000,-86.000,-60.000
1.621,-59.000,-13.000,-86.000,-60.500
1.622,-59.000,-13.500,-86.000,-60.500
1.623,-59.000,-13.500,-86.000,-61.000
1.624,-59.000,-14.000,-86.500,-61.000
1.625,-59.000,-13.500,-86.500,-61.000
1.626,-58.500,-13.500,-86.500,-61.500
1.627,-58.000,-13.500,-87.000,-61.500
1.628,-58.000,-13.500,-87.000,-61.500
1.629,-58.000,-13.500,-87.500,-61.500
1.630,-58.000,-13.500,-88.000,-61.500
1.631,-58.000,-13.500,-88.000,-61.500
1.632,-58.000,-13.000,-88.000,-62.000
1.633,-58.000,-13.000,-88.500,-62.000
1.634,-58.000,-13.000,-88.500,-62.000
1.635,-58.500,-13.000,-88.500,-62.500
1.636,-59.000,-13.000,-88.500,-62.500
1.637,-59.500,-13.500,-88.500,-63.000
1.638,-60.000,-13.500,-88.500,-63.000
1.639,-60.500,-14.000,-88.500,-63.000
1.640,-61.000,-14.000,-88.500,-63.000
1.641,-61.000,-13.500,-88.000,-63.000
1.642,-61.000,-13.500,-88.000,-63.000
1.643,-61.000,-13.500,-87.500,-63.000
1.644,-61.000,-13.000,-87.500,-63.000
1.645,-60.500,-13.000,-87.500,-63.000
1.646,-60.500,-13.000,-87.500,-63.000
1.647,-60.500,-12.500,-88.000,-63.000
1.648,-60.000,-12.500,-88.500,-63.000
1.649,-60.000,-12.500,-89.000,-63.500
1.650,-59.500,-12.500,-89.000,-63.500
1.651,-59.500,-12.500,-89.500,-63.000
1.652,-59.500,-13.000,-89.500,-63.000
1.653,-59.500,-13.000,-89.500,-62.500
1.654,-60.000,-13.000,-90.000,-62.500
1.655,-60.500,-13.000,-90.000,-62.500
1.656,-60.500,-13.000,-89.500,-62.500
1.657,-61.000,-13.000,-89.500,-62.500
1.658,-61.000,-13.000,-89.500,-62.500
1.659,-61.500,-13.000,-89.500,-62.500
1.660,-62.000,-13.500,-89.500,-63.000
1.661,-62.500,-13.500,-90.000,-63.500
1.662,-63.000,-13.500,-90.000,-64.000
1.663,-63.000,-13.500,-90.000,-64.000
1.664,-63.000,-13.500,-89.500,-64.000
1.665,-62.500,-13.500,-89.500,-63.500
1.666,-62.500,-13.500,-90.000,-63.500
1.667,-62.500,-13.500,-90.000,-64.000
1.668,-62.500,-13.000,-90.500,-64.000
1.669,-62.500,-13.000,-90.500,-64.000
1.670,-62.000,-13.000,-91.000,-64.500
1.671,-62.000,-13.000,-91.000,-64.500
1.672,-62.000,-13.000,-91.500,-65.000
1.673,-62.000,-13.500,-91.500,-65.000
1.674,-62.500,-13.500,-92.000,-65.000
1.675,-63.000,-13.500,-92.000,-65.000
1.676,-63.000,-13.500,-91.500,-65.000
1.677,-63.500,-13.500,-91.500,-65.000
1.678,-63.500,-13.500,-91.000,-64.500
1.679,-63.500,-13.500,-90.500,-64.500
1.680,-64.000,-13.500,-90.500,-64.500
1.681,-64.000,-13.500,-90.000,-64.500
1.682,-64.000,-14.000,-90.000,-64.500
1.683,-64.000,-14.000,-90.000,-64.000
1.684,-63.500,-14.000,-90.000,-64.000
1.685,-63.500,-13.500,-90.000,-64.000
1.686,-63.000,-13.500,-90.000,-64.000
1.687,-63.000,-13.500,-90.500,-64.000
1.688,-63.000,-13.500,-90.500,-64.500
1.689,-62.500,-13.500,-91.000,-64.500
1.690,-62.500,-13.500,-91.000,-64.500
1.691,-62.500,-13.500,-91.500,-64.500
1.692,-62.500,-13.500,-92.000,-64.500
1.693,-63.000,-13.500,-92.500,-65.000
1.694,-63.000,-14.000,-93.000,-65.500
1.695,-63.500,-14.000,-93.500,-66.000
1.696,-64.000,-14.000,-94.000,-66.500
1.697,-64.000,-14.500,-94.000,-67.000
1.698,-64.500,-14.500,-94.500,-67.000
1.699,-65.000,-14.500,-94.500,-67.000
1.700,-65.500,-14.500,-94.500,-67.500
1.701,-65.500,-14.500,-94.500,-67.000
1.702,-65.500,-14.500,-94.500,-67.000
1.703,-65.500,-14.500,-94.000,-67.000
1.704,-65.500,-14.500,-94.000,-66.500
1.705,-65.000,-14.500,-94.000,-66.500
1.706,-64.500,-14.500,-94.000,-66.000
1.707,-64.000,-14.500,-94.000,-66.000
1.708,-64.000,-14.500,-94.000,-66.000
1.709,-64.000,-14.500,-94.000,-66.000
1.710,-64.000,-14.500,-94.000,-65.500
1.711,-64.000,-14.000,-94.000,-65.500
1.712,-63.500,-14.000,-94.000,-65.500
1.713,-64.000,-14.000,-94.000,-65.500
1.714,-64.000,-14.500,-94.000,-65.500
1.715,-64.000,-14.500,-94.000,-65.500
1.716,-64.500,-14.500,-94.000,-66.000
1.717,-65.000,-15.000,-94.000,-66.000
1.718,-65.500,-15.000,-94.000,-66.000
1.719,-66.000,-15.000,-94.000,-66.500
1.720,-66.000,-15.500,-94.000,-66.500
1.721,-66.500,-15.500,-94.000,-66.500
1.722,-67.000,-15.500,-94.000,-66.500
1.723,-67.000,-16.000,-94.000,-66.500
1.724,-67.500,-15.500,-94.000,-66.500
1.725,-67.500,-15.500,-94.000,-66.500
1.726,-67.500,-15.500,-94.000,-66.500
1.727,-67.500,-15.500,-94.000,-66.500
1.728,-67.500,-15.500,-94.000,-66.500
1.729,-67.500,-15.500,-94.500,-66.500
1.730,-67.500,-15.500,-94.500,-67.000
1.731,-67.500,-15.500,-95.000,-67.500
1.732,-68.000,-15.500,-95.500,-67.500
1.733,-68.000,-15.500,-96.000,-68.000
1.734,-68.500,-16.000,-96.000,-68.000
1.735,-68.500,-16.000,-96.000,-68.000
1.736,-69.000,-16.000,-96.000,-68.000
1.737,-69.000,-16.000,-96.000,-68.000
1.738,-69.500,-16.000,-95.500,-68.000
1.739,-69.500,-16.000,-95.500,-68.500
1.740,-70.000,-16.000,-95.500,-68.500
1.741,-70.000,-16.500,-95.500,-68.500
1.742,-70.000,-16.500,-96.000,-69.000
1.743,-70.000,-16.500,-96.000,-69.000
1.744,-70.000,-16.500,-96.000,-69.000
1.745,-69.500,-16.500,-96.000,-69.500
1.746,-69.500,-16.500,-96.000,-69.500
1.747,-69.500,-16.000,-96.000,-69.500
1.748,-69.500,-16.000,-96.000,-69.500
1.749,-69.500,-16.000,-96.000,-69.500
1.750,-69.500,-16.000,-96.500,-69.000
1.751,-69.500,-16.500,-96.500,-69.000
1.752,-69.500,-16.500,-97.000,-69.000
1.753,-69.500,-16.500,-97.500,-69.000
1.754,-69.500,-17.000,-98.000,-69.500
1.755,-70.000,-17.000,-98.000,-69.500
1.756,-70.500,-17.000,-98.000,-69.500
1.757,-70.500,-17.500,-97.500,-69.500
1.758,-70.500,-17.500,-97.000,-69.000
1.759,-71.000,-17.500,-96.500,-68.000
1.760,-70.500,-17.500,-96.000,-67.500
1.761,-70.500,-17.500,-95.500,-67.000
1.762,-70.500,-17.500,-95.000,-67.000
1.763,-70.500,-17.000,-94.500,-67.000
1.764,-70.500,-17.000,-94.000,-66.500
1.765,-70.000,-17.000,-94.000,-67.000
1.766,-70.000,-17.000,-94.000,-67.000
1.767,-70.000,-17.000,-94.500,-67.000
1.768,-70.000,-17.000,-94.500,-67.000
1.769,-69.500,-17.000,-95.000,-67.000
1.770,-69.000,-17.000,-95.000,-67.000
1.771,-69.000,-17.000,-95.500,-67.000
1.772,-69.000,-16.500,-95.500,-67.500
1.773,-69.000,-16.500,-95.500,-67.500
1.774,-69.000,-16.500,-95.500,-67.500
1.775,-69.000,-16.500,-95.500,-67.500
1.776,-69.500,-16.500,-95.000,-67.500
1.777,-69.500,-16.000,-95.000,-67.500
1.778,-69.500,-16.000,-94.500,-68.000
1.779,-69.500,-16.000,-94.500,-68.000
1.780,-69.500,-16.000,-94.500,-68.000
1.781,-69.500,-16.000,-94.500,-68.000
1.782,-69.500,-16.000,-94.000,-68.500
1.783,-69.500,-16.000,-93.500,-68.500
1.784,-69.000,-16.000,-93.500,-68.500
1.785,-69.000,-16.000,-93.500,-68.500
1.786,-69.000,-16.500,-93.500,-69.000
1.787,-69.000,-16.500,-94.000,-69.000
1.788,-68.500,-16.500,-94.500,-69.500
1.789,-68.500,-16.500,-94.500,-69.500
1.790,-68.000,-16.000,-94.500,-69.000
1.791,-67.500,-16.000,-94.500,-68.500
1.792,-67.000,-15.500,-95.000,-68.500
1.793,-67.000,-15.500,-95.000,-68.000
1.794,-67.000,-15.500,-95.000,-67.500
1.795,-67.000,-16.000,-95.000,-67.500
1.796,-67.500,-16.500,-95.000,-67.500
1.797,-67.500,-16.500,-94.500,-67.500
1.798,-67.500,-16.500,-94.500,-68.000
1.799,-68.000,-16.500,-94.500,-68.000
1.800,-68.000,-16.500,-94.500,-68.000
1.801,-68.500,-16.500,-94.500,-68.000
1.802,-68.500,-16.500,-94.000,-68.500
1.803,-69.000,-16.500,-94.000,-68.500
1.804,-69.000,-16.500,-94.000,-68.000
1.805,-68.500,-16.500,-94.000,-68.000
1.806,-68.500,-16.500,-94.000,-68.000
1.807,-68.000,-16.000,-94.000,-67.500
1.808,-67.500,-16.000,-94.000,-67.500
1.809,-67.000,-16.000,-94.500,-67.500
1.810,-67.000,-16.000,-94.500,-67.500
1.811,-66.500,-15.500,-94.000,-67.000
1.812,-66.500,-15.500,-94.500,-67.000
1.813,-66.500,-15.500,-94.500,-67.500
1.814,-66.500,-16.000,-94.500,-68.000
1.815,-67.000,-16.000,-95.000,-68.500
1.816,-67.000,-16.500,-95.000,-68.500
1.817,-67.500,-17.000,-95.000,-69.000
1.818,-68.000,-17.000,-95.500,-69.000
1.819,-68.500,-17.500,-95.500,-69.500
1.820,-69.000,-18.000,-95.500,-69.500
1.821,-69.500,-18.000,-95.500,-69.500
1.822,-69.500,-18.500,-96.000,-70.000
1.823,-70.000,-19.000,-96.000,-70.000
1.824,-70.500,-20.000,-97.000,-70.500
1.825,-71.000,-20.500,-97.500,-71.000
1.826,-71.500,-21.500,-98.500,-71.500
1.827,-72.000,-22.000,-99.500,-72.000
1.828,-72.500,-22.500,-100.000,-72.000
1.829,-72.000,-23.000,-100.500,-72.500
1.830,-72.000,-23.000,-101.000,-72.000
1.831,-71.500,-23.000,-101.000,-72.000
1.832,-71.000,-22.500,-101.000,-71.500
1.833,-70.500,-21.500,-100.500,-71.500
1.834,-70.500,-21.000,-100.000,-71.000
1.835,-70.000,-20.000,-99.000,-70.500
1.836,-69.500,-19.000,-98.500,-70.000
1.837,-69.500,-18.500,-98.000,-69.500
1.838,-69.500,-18.000,-97.500,-69.000
1.839,-69.000,-17.500,-97.000,-69.000
1.840,-69.000,-17.500,-96.500,-68.500
1.841,-69.000,-17.500,-96.000,-68.500
1.842,-69.000,-17.500,-95.500,-68.000
1.843,-69.000,-17.500,-95.500,-68.000
1.844,-69.000,-17.500,-95.000,-68.000
1.845,-69.000,-17.500,-95.000,-68.000
1.846,-69.000,-18.000,-95.500,-68.000
1.847,-69.000,-18.000,-95.500,-68.000
1.848,-68.500,-18.000,-96.000,-67.500
1.849,-68.500,-18.000,-96.000,-67.500
1.850,-68.500,-17.500,-96.500,-67.500
1.851,-68.500,-17.500,-96.500,-67.500
1.852,-68.500,-17.500,-96.500,-67.500
1.853,-69.000,-17.500,-96.500,-67.500
1.854,-69.000,-17.500,-97.000,-67.500
1.855,-69.500,-18.000,-97.000,-68.000
1.856,-70.000,-18.000,-97.500,-68.000
1.857,-70.000,-18.500,-97.500,-68.500
1.858,-70.500,-18.500,-97.500,-68.500
1.859,-71.000,-19.000,-97.500,-69.000
1.860,-71.500,-19.000,-97.500,-69.000
1.861,-71.500,-19.500,-97.000,-69.000
1.862,-72.000,-19.500,-97.000,-69.000
1.863,-72.000,-19.500,-96.500,-69.000
1.864,-72.000,-19.500,-96.500,-69.000
1.865,-72.000,-19.500,-97.000,-69.000
1.866,-71.500,-19.500,-97.000,-69.000
1.867,-71.500,-19.500,-97.500,-68.500
1.868,-71.000,-19.000,-97.500,-68.500
1.869,-70.500,-19.000,-97.500,-68.500
1.870,-70.500,-19.000,-98.000,-69.000
1.871,-70.500,-19.500,-98.500,-69.000
1.872,-70.500,-19.500,-99.000,-69.500
1.873,-70.500,-19.500,-99.500,-70.500
1.874,-70.500,-20.000,-100.000,-71.000
1.875,-71.000,-20.000,-100.500,-72.000
1.876,-71.500,-20.000,-101.000,-72.500
1.877,-72.000,-20.500,-101.500,-73.000
1.878,-73.000,-21.000,-102.000,-73.500
1.879,-73.500,-21.500,-102.000,-74.000
1.880,-74.500,-22.500,-102.500,-75.000
1.881,-75.500,-23.000,-103.000,-75.500
1.882,-76.500,-24.000,-103.000,-76.000
1.883,-77.000,-24.500,-103.500,-76.500
1.884,-78.000,-25.500,-104.500,-77.000
1.885,-78.500,-26.000,-105.000,-78.000
1.886,-79.500,-27.000,-105.500,-78.500
1.887,-80.000,-27.500,-106.000,-78.500
1.888,-81.000,-28.000,-106.500,-78.500
1.889,-81.500,-28.500,-106.500,-78.000
1.890,-82.000,-29.000,-107.000,-77.500
1.891,-82.500,-29.500,-107.000,-77.500
1.892,-83.000,-30.000,-107.500,-77.500
1.893,-83.500,-30.500,-107.500,-77.500
1.894,-84.500,-31.000,-107.500,-77.000
1.895,-85.000,-31.000,-107.500,-76.500
1.896,-86.000,-31.000,-107.000,-76.000
1.897,-87.000,-31.000,-106.500,-75.000
1.898,-87.500,-31.000,-105.500,-73.500
1.899,-88.000,-31.000,-104.000,-72.000
1.900,-88.500,-30.500,-102.500,-70.500
1.901,-89.000,-30.500,-101.000,-68.500
1.902,-89.000,-30.000,-99.500,-67.000
1.903,-89.500,-29.500,-98.500,-65.500
1.904,-90.000,-29.500,-97.500,-64.000
1.905,-90.500,-29.500,-97.000,-63.000
1.906,-90.500,-29.500,-96.500,-62.000
1.907,-91.000,-30.000,-96.500,-61.500
1.908,-90.500,-30.000,-96.000,-61.000
1.909,-89.500,-29.500,-96.000,-60.500
1.910,-88.000,-28.000,-95.000,-60.000
1.911,-86.000,-26.500,-94.000,-59.500
1.912,-83.000,-24.500,-93.500,-59.000
1.913,-80.000,-22.000,-92.500,-58.500
1.914,-77.000,-19.500,-91.000,-58.500
1.915,-73.500,-17.000,-90.000,-58.500
1.916,-70.500,-15.000,-89.000,-58.500
1.917,-67.500,-13.000,-88.000,-58.500
1.918,-65.000,-11.500,-87.500,-58.500
1.919,-63.500,-10.500,-86.500,-58.500
1.920,-62.000,-9.500,-86.500,-59.000
1.921,-61.500,-9.000,-86.000,-59.500
1.922,-61.000,-9.000,-86.000,-60.000
1.923,-61.000,-9.500,-86.500,-60.500
1.924,-61.000,-10.000,-87.000,-61.500
1.925,-61.500,-11.000,-88.000,-62.500
1.926,-62.000,-12.000,-89.500,-63.500
1.927,-63.000,-13.000,-90.500,-64.500
1.928,-63.500,-13.500,-91.500,-65.500
1.929,-64.500,-14.500,-92.500,-66.500
1.930,-65.500,-15.500,-94.000,-67.000
1.931,-67.000,-16.500,-95.000,-68.500
1.932,-68.000,-17.500,-96.500,-69.500
1.933,-69.000,-18.500,-97.500,-70.500
1.934,-70.000,-19.500,-98.000,-71.500
1.935,-71.000,-20.000,-99.000,-72.500
1.936,-71.500,-20.500,-99.500,-73.000
1.937,-72.000,-21.000,-99.500,-73.000
1.938,-72.500,-21.000,-99.500,-73.000
1.939,-73.000,-21.500,-99.500,-73.000
1.940,-73.500,-22.000,-99.500,-73.500
1.941,-73.500,-22.000,-99.500,-73.500
1.942,-73.500,-22.500,-99.500,-73.500
1.943,-73.500,-22.500,-99.500,-73.500
1.944,-73.500,-22.000,-99.500,-73.500
1.945,-73.500,-22.000,-99.500,-73.000
1.946,-73.000,-21.500,-99.500,-73.000
1.947,-73.000,-21.500,-100.000,-73.000
1.948,-72.500,-21.500,-100.000,-72.500
1.949,-72.500,-21.500,-100.000,-72.500
1.950,-72.000,-21.500,-100.000,-72.500
1.951,-72.000,-21.500,-100.000,-72.500
1.952,-71.500,-21.500,-100.000,-72.500
1.953,-71.500,-21.500,-100.000,-72.000
1.954,-71.500,-21.500,-100.500,-72.000
1.955,-71.500,-21.500,-100.500,-72.000
1.956,-72.000,-21.000,-100.500,-72.000
1.957,-72.000,-21.000,-100.500,-72.000
1.958,-72.500,-21.000,-100.500,-72.000
1.959,-73.000,-21.000,-100.500,-72.000
1.960,-73.000,-21.000,-100.500,-72.500
1.961,-73.500,-21.500,-100.500,-72.500
1.962,-73.500,-21.500,-100.500,-73.000
1.963,-73.500,-21.500,-100.500,-73.000
1.964,-73.500,-21.500,-100.500,-73.000
1.965,-73.000,-21.500,-100.500,-73.000
1.966,-73.000,-21.500,-100.500,-73.000
1.967,-73.000,-21.000,-100.500,-73.000
1.968,-72.500,-21.000,-100.500,-73.000
1.969,-72.500,-21.000,-101.000,-73.500
1.970,-72.000,-21.000,-101.000,-73.500
1.971,-72.000,-21.000,-101.500,-73.500
1.972,-71.500,-20.500,-101.500,-73.500
1.973,-71.500,-20.500,-101.500,-73.000
1.974,-72.000,-20.500,-101.500,-73.000
1.975,-72.000,-20.500,-101.500,-73.000
1.976,-72.500,-20.000,-101.500,-73.000
1.977,-72.500,-20.000,-101.000,-73.000
1.978,-73.000,-20.000,-101.000,-72.500
1.979,-73.000,-20.500,-101.000,-73.000
1.980,-73.500,-20.500,-100.500,-73.000
1.981,-73.500,-21.000,-100.500,-73.000
1.982,-74.000,-21.500,-100.500,-73.000
1.983,-74.000,-21.500,-100.500,-73.000
1.984,-74.000,-22.000,-100.500,-73.000
1.985,-74.000,-22.000,-101.000,-73.500
1.986,-73.500,-22.000,-101.500,-74.000
1.987,-73.500,-22.000,-102.000,-74.000
1.988,-73.000,-22.000,-102.000,-74.000
1.989,-73.000,-22.000,-102.500,-74.000
1.990,-72.500,-22.000,-102.500,-74.000
1.991,-72.500,-22.000,-102.500,-74.000
1.992,-72.500,-21.500,-103.000,-74.000
1.993,-73.000,-22.000,-103.000,-74.000
1.994,-73.000,-22.000,-103.000,-74.000
1.995,-73.500,-22.000,-103.000,-74.000
1.996,-74.000,-22.500,-103.000,-74.000
1.997,-74.000,-22.500,-102.500,-74.000
1.998,-74.500,-22.500,-102.000,-74.000
1.999,-74.500,-23.000,-102.000,-74.000
2.000,-75.000,-23.000,-102.000,-74.000
2.001,-75.500,-23.000,-102.000,-74.500
2.002,-75.500,-23.500,-102.000,-74.500
2.003,-76.000,-23.500,-102.000,-74.500
2.004,-76.000,-24.000,-102.000,-74.500
2.005,-76.000,-24.000,-102.000,-75.000
2.006,-75.500,-24.500,-102.500,-75.000
2.007,-75.500,-24.500,-102.500,-75.500
2.008,-75.500,-24.500,-103.000,-75.500
2.009,-75.000,-24.500,-103.000,-76.000
2.010,-75.000,-24.500,-103.500,-76.500
2.011,-75.000,-24.500,-103.500,-76.500
2.012,-75.000,-24.500,-103.500,-76.500
2.013,-75.500,-24.500,-103.500,-76.500
2.014,-75.500,-24.500,-103.500,-76.000
2.015,-75.500,-24.500,-103.500,-76.000
2.016,-75.500,-24.500,-103.000,-76.000
2.017,-76.000,-24.500,-103.000,-75.500
2.018,-76.000,-24.500,-102.500,-75.500
2.019,-76.000,-24.500,-102.500,-75.500
2.020,-76.000,-24.500,-102.000,-75.500
2.021,-76.000,-24.500,-102.000,-75.500
2.022,-76.000,-24.500,-101.500,-75.500
2.023,-76.000,-24.500,-101.500,-75.500
2.024,-76.000,-25.000,-101.500,-75.000
2.025,-76.000,-25.000,-101.500,-75.000
2.026,-76.000,-25.500,-102.000,-75.500
2.027,-76.000,-25.500,-102.000,-75.500
2.028,-75.500,-25.000,-102.500,-75.500
2.029,-75.500,-25.000,-103.000,-75.500
2.030,-75.500,-25.000,-103.000,-75.500
2.031,-75.000,-25.000,-103.000,-75.500
2.032,-75.000,-25.000,-103.500,-76.000
2.033,-75.500,-25.000,-104.000,-76.000
2.034,-76.000,-25.500,-104.500,-76.000
2.035,-76.500,-26.000,-105.000,-76.500
2.036,-76.500,-26.000,-105.000,-76.500
2.037,-77.000,-26.500,-105.000,-77.000
2.038,-77.500,-27.000,-105.000,-77.000
2.039,-78.000,-27.500,-104.500,-77.000
2.040,-78.000,-27.500,-104.500,-77.000
2.041,-78.500,-27.500,-104.000,-76.500
2.042,-78.500,-27.500,-104.000,-76.500
2.043,-78.500,-27.500,-103.500,-76.000
2.044,-78.500,-27.500,-103.500,-76.000
2.045,-78.000,-27.500,-103.000,-76.000
2.046,-77.500,-27.000,-103.000,-75.500
2.047,-77.500,-27.000,-103.000,-75.500
2.048,-77.000,-27.000,-102.500,-75.000
2.049,-76.500,-27.000,-103.000,-75.000
2.050,-76.500,-27.000,-103.000,-75.000
2.051,-76.000,-27.000,-103.500,-75.000
2.052,-76.000,-27.000,-104.000,-75.000
2.053,-76.500,-27.000,-104.500,-75.000
2.054,-76.500,-27.000,-104.500,-75.500
2.055,-76.500,-27.500,-104.500,-75.500
2.056,-77.000,-27.500,-104.500,-76.000
2.057,-77.500,-28.000,-105.000,-76.500
2.058,-77.500,-28.500,-105.000,-76.500
2.059,-78.000,-29.000,-105.000,-76.500
2.060,-78.500,-29.500,-105.000,-76.500
2.061,-78.500,-29.500,-105.000,-76.500
2.062,-78.500,-30.000,-105.000,-76.500
2.063,-78.500,-30.000,-104.500,-76.500
2.064,-78.500,-30.000,-104.500,-76.500
2.065,-78.500,-30.000,-105.000,-76.500
2.066,-78.500,-30.500,-105.000,-76.500
2.067,-78.500,-30.500,-105.500,-76.500
2.068,-78.500,-30.500,-105.500,-76.500
2.069,-78.500,-30.500,-105.500,-76.500
2.070,-78.500,-30.500,-105.500,-76.500
2.071,-78.500,-30.000,-105.500,-76.500
2.072,-78.500,-30.000,-105.500,-76.500
2.073,-78.500,-30.000,-105.500,-76.500
2.074,-78.500,-30.000,-105.500,-76.000
2.075,-78.500,-30.500,-105.500,-76.000
2.076,-79.000,-30.500,-105.000,-76.000
2.077,-79.000,-30.500,-105.000,-75.500
2.078,-79.500,-31.000,-104.500,-75.500
2.079,-79.500,-31.000,-104.000,-75.500
2.080,-79.500,-31.500,-104.000,-76.000
2.081,-80.000,-31.500,-104.000,-76.000
2.082,-80.000,-31.500,-104.500,-76.000
2.083,-80.500,-31.500,-104.500,-76.500
2.084,-80.500,-31.500,-104.500,-76.500
2.085,-80.500,-31.500,-104.500,-76.500
2.086,-80.500,-31.500,-104.500,-77.000
2.087,-80.000,-31.000,-104.500,-77.000
2.088,-80.000,-31.000,-105.000,-77.000
2.089,-80.000,-31.000,-104.500,-76.500
2.090,-79.500,-31.000,-104.500,-76.500
2.091,-79.500,-31.000,-104.500,-76.000
2.092,-79.000,-31.000,-104.500,-76.000
2.093,-79.000,-31.000,-104.500,-76.000
2.094,-79.500,-31.000,-105.000,-76.000
2.095,-79.500,-31.500,-105.000,-76.000
2.096,-80.000,-31.500,-105.000,-76.000
2.097,-80.500,-31.500,-105.000,-76.000
2.098,-81.500,-32.000,-104.500,-76.500
2.099,-82.000,-32.000,-104.500,-76.000
2.100,-82.000,-32.000,-104.500,-76.000
2.101,-82.500,-32.500,-104.000,-76.000
2.102,-82.500,-32.500,-104.000,-76.000
2.103,-82.500,-32.500,-104.000,-76.000
2.104,-82.500,-32.500,-104.000,-75.500
2.105,-82.000,-32.500,-103.500,-75.500
2.106,-82.000,-32.500,-104.000,-75.000
2.107,-81.500,-32.500,-104.000,-74.500
2.108,-81.500,-32.500,-104.000,-74.500
2.109,-81.000,-32.500,-104.000,-74.500
2.110,-81.000,-32.500,-104.500,-74.500
2.111,-81.000,-32.500,-105.000,-74.500
2.112,-81.000,-32.500,-105.500,-74.500
2.113,-81.000,-33.000,-105.500,-74.500
2.114,-81.000,-33.000,-106.000,-74.500
2.115,-81.000,-33.000,-106.000,-74.500
2.116,-81.500,-33.000,-106.500,-75.000
2.117,-82.000,-33.500,-106.500,-75.000
2.118,-82.500,-33.500,-106.500,-75.000
2.119,-83.000,-33.500,-106.500,-75.500
2.120,-83.500,-34.000,-106.500,-75.500
2.121,-83.500,-34.000,-106.500,-76.000
2.122,-84.000,-34.000,-106.500,-76.000
2.123,-84.000,-34.000,-106.500,-76.000
2.124,-84.000,-34.500,-106.000,-75.500
2.125,-83.500,-34.500,-106.000,-75.500
2.126,-83.500,-34.500,-106.000,-75.000
2.127,-83.000,-34.500,-105.500,-75.000
2.128,-83.000,-34.000,-105.500,-74.500
2.129,-82.500,-34.000,-105.500,-74.500
2.130,-82.500,-33.500,-106.000,-74.000
2.131,-82.000,-33.500,-106.000,-74.000
2.132,-82.000,-34.000,-106.500,-74.000
2.133,-82.500,-34.000,-106.500,-74.000
2.134,-82.500,-34.000,-107.000,-74.000
2.135,-83.000,-34.500,-107.000,-74.500
2.136,-83.500,-35.000,-107.000,-74.500
2.137,-83.500,-35.000,-107.000,-74.500
2.138,-83.500,-35.500,-107.000,-74.500
2.139,-84.000,-35.500,-107.000,-74.500
2.140,-84.000,-35.500,-106.500,-74.500
2.141,-84.500,-36.000,-106.500,-74.500
2.142,-84.500,-36.000,-106.500,-75.000
2.143,-84.500,-36.000,-107.000,-75.500
2.144,-84.500,-36.000,-107.000,-75.500
2.145,-84.000,-36.000,-107.000,-75.500
2.146,-83.500,-36.000,-106.500,-75.500
2.147,-83.000,-35.500,-106.500,-75.000
2.148,-82.500,-35.000,-106.500,-75.000
2.149,-82.000,-35.000,-106.500,-75.000
2.150,-81.500,-35.000,-107.000,-75.000
2.151,-81.500,-34.500,-107.000,-75.500
2.152,-81.500,-34.500,-107.500,-75.500
2.153,-81.500,-34.500,-108.000,-75.500
2.154,-81.500,-34.000,-108.000,-75.500
2.155,-81.500,-34.000,-107.500,-75.500
2.156,-81.500,-34.000,-107.500,-75.000
2.157,-81.500,-33.500,-107.000,-75.000
2.158,-81.000,-33.500,-106.500,-74.500
2.159,-81.000,-33.000,-106.000,-74.500
2.160,-81.000,-33.000,-105.500,-74.500
2.161,-81.000,-32.500,-105.500,-75.000
2.162,-81.000,-32.500,-105.500,-75.000
2.163,-81.000,-32.500,-105.500,-75.500
2.164,-81.000,-32.500,-105.500,-75.500
2.165,-80.500,-32.500,-106.000,-75.500
2.166,-80.000,-32.500,-106.000,-75.500
2.167,-80.000,-32.500,-106.000,-75.500
2.168,-79.000,-32.000,-106.000,-75.500
2.169,-78.500,-32.000,-106.500,-75.500
2.170,-78.000,-31.500,-106.500,-75.500
2.171,-77.500,-31.500,-106.500,-75.500
2.172,-77.500,-31.500,-107.000,-76.000
2.173,-77.500,-31.500,-107.000,-76.000
2.174,-77.500,-32.000,-107.500,-76.500
2.175,-78.000,-32.500,-108.500,-77.000
2.176,-79.000,-33.500,-109.500,-78.000
2.177,-80.000,-34.500,-110.000,-79.000
2.178,-81.000,-35.500,-110.500,-79.500
2.179,-81.500,-36.000,-111.000,-80.000
2.180,-82.000,-36.000,-111.000,-80.000
2.181,-82.000,-36.000,-110.500,-80.000
2.182,-81.500,-35.500,-110.000,-79.500
2.183,-81.000,-35.000,-109.500,-79.000
2.184,-80.000,-34.500,-108.500,-78.500
2.185,-79.000,-33.500,-108.000,-78.500
2.186,-78.000,-33.000,-107.500,-78.000
2.187,-77.000,-32.500,-107.000,-78.000
2.188,-76.500,-32.000,-107.000,-78.000
2.189,-75.500,-31.500,-106.500,-77.500
2.190,-75.000,-31.000,-106.500,-77.500
2.191,-74.500,-30.500,-106.500,-77.500
2.192,-74.500,-30.500,-106.500,-77.500
2.193,-74.500,-30.500,-106.500,-77.500
2.194,-74.000,-30.000,-107.000,-77.500
2.195,-74.000,-30.000,-107.000,-77.500
2.196,-74.000,-30.000,-106.500,-78.000
2.197,-74.000,-30.000,-106.500,-78.000
2.198,-74.500,-30.000,-106.000,-77.500
2.199,-74.500,-30.000,-106.000,-77.500
2.200,-74.500,-30.000,-105.500,-77.500
2.201,-74.500,-29.500,-105.500,-77.000
2.202,-74.500,-29.500,-105.000,-77.000
2.203,-74.500,-29.500,-105.000,-77.000
2.204,-74.500,-29.000,-104.500,-77.000
2.205,-74.500,-29.000,-104.500,-77.000
2.206,-74.500,-29.000,-104.500,-77.000
2.207,-74.000,-29.000,-104.500,-77.000
2.208,-74.000,-29.000,-105.000,-77.000
2.209,-73.500,-29.000,-105.000,-77.000
2.210,-73.500,-29.000,-105.000,-76.500
2.211,-73.000,-28.500,-105.000,-76.500
2.212,-73.000,-28.500,-105.500,-76.500
2.213,-73.000,-28.500,-105.500,-76.500
2.214,-73.000,-28.500,-105.500,-77.000
2.215,-73.500,-28.500,-106.000,-77.000
2.216,-73.500,-28.500,-106.000,-77.000
2.217,-73.500,-28.500,-105.500,-77.500
2.218,-74.000,-28.500,-105.500,-77.500
2.219,-74.500,-29.000,-105.500,-77.500
2.220,-74.500,-29.500,-105.500,-77.500
2.221,-75.000,-29.500,-105.500,-77.500
2.222,-74.500,-29.500,-105.000,-77.000
2.223,-74.500,-29.500,-105.000,-77.000
2.224,-74.500,-29.500,-105.000,-77.000
2.225,-74.500,-29.000,-105.000,-77.000
2.226,-74.000,-29.000,-105.000,-77.500
2.227,-74.000,-29.000,-105.500,-77.500
2.228,-73.500,-29.000,-105.500,-77.500
2.229,-73.500,-29.000,-105.500,-77.500
2.230,-73.000,-29.000,-105.500,-77.500
2.231,-73.000,-28.500,-106.000,-77.500
2.232,-73.000,-28.500,-106.000,-77.500
2.233,-73.000,-28.500,-106.500,-78.000
2.234,-73.500,-28.500,-107.000,-78.000
2.235,-74.000,-29.000,-107.500,-78.500
2.236,-74.500,-29.000,-107.500,-78.500
2.237,-75.000,-29.000,-107.000,-79.000
2.238,-75.000,-29.000,-107.000,-79.000
2.239,-75.500,-29.000,-106.500,-79.000
2.240,-75.500,-29.000,-106.500,-79.000
2.241,-75.500,-29.000,-106.000,-79.000
2.242,-75.000,-29.500,-105.500,-78.500
2.243,-75.000,-29.500,-105.500,-78.000
2.244,-75.000,-29.500,-105.500,-78.000
2.245,-74.500,-29.500,-105.000,-78.000
2.246,-74.000,-29.000,-105.000,-78.000
2.247,-73.500,-29.000,-105.500,-77.500
2.248,-73.500,-29.000,-105.500,-77.500
2.249,-73.000,-28.500,-105.500,-77.500
2.250,-73.000,-29.000,-106.000,-77.500
2.251,-72.500,-29.000,-106.000,-77.500
2.252,-72.500,-29.000,-106.000,-77.500
2.253,-73.000,-29.500,-106.500,-77.500
2.254,-73.000,-29.500,-106.500,-77.500
2.255,-73.000,-30.000,-107.000,-77.500
2.256,-73.500,-30.000,-107.000,-77.500
2.257,-73.500,-30.500,-107.000,-78.000
2.258,-74.000,-30.500,-106.500,-78.000
2.259,-74.500,-30.500,-106.500,-78.500
2.260,-74.500,-30.500,-106.500,-78.500
2.261,-74.500,-30.500,-106.500,-78.500
2.262,-74.500,-30.500,-106.000,-78.500
2.263,-74.500,-30.500,-106.000,-78.500
2.264,-74.000,-30.500,-105.500,-78.000
2.265,-74.000,-30.500,-105.500,-78.000
2.266,-74.000,-30.500,-106.000,-78.000
2.267,-74.000,-30.500,-106.000,-78.000
2.268,-74.000,-30.500,-106.000,-78.000
2.269,-73.500,-30.500,-106.000,-78.000
2.270,-73.500,-30.500,-106.000,-77.500
2.271,-73.500,-30.000,-105.500,-77.500
2.272,-73.500,-30.000,-106.000,-77.500
2.273,-73.500,-30.000,-106.000,-77.500
2.274,-73.500,-29.500,-106.000,-77.500
2.275,-74.000,-29.500,-106.000,-77.500
2.276,-74.000,-29.500,-106.000,-77.500
2.277,-74.500,-29.500,-106.000,-77.500
2.278,-74.500,-30.000,-105.500,-77.500
2.279,-74.500,-30.000,-105.500,-77.500
2.280,-75.000,-30.000,-105.500,-78.000
2.281,-75.000,-30.500,-105.000,-78.000
2.282,-75.000,-30.500,-105.000,-78.000
2.283,-75.000,-30.500,-105.000,-78.000
2.284,-75.000,-30.500,-105.000,-78.500
2.285,-74.500,-30.500,-105.000,-78.500
2.286,-74.500,-30.000,-105.000,-78.500
2.287,-74.000,-30.000,-105.000,-78.500
2.288,-73.500,-30.000,-105.000,-78.500
2.289,-73.000,-29.500,-105.500,-78.500
2.290,-72.500,-29.500,-105.500,-78.000
2.291,-72.000,-29.500,-105.500,-78.000
2.292,-72.000,-29.500,-105.500,-77.500
2.293,-72.000,-29.500,-105.500,-77.500
2.294,-72.000,-29.500,-105.500,-77.500
2.295,-72.000,-29.500,-105.000,-77.500
2.296,-72.000,-29.500,-105.000,-77.500
2.297,-72.000,-29.500,-104.500,-77.000
2.298,-72.000,-29.500,-104.000,-77.000
2.299,-72.500,-29.500,-104.000,-76.500
2.300,-72.500,-29.000,-103.500,-76.500
2.301,-72.500,-29.000,-103.000,-76.000
2.302,-72.500,-28.500,-102.500,-76.000
2.303,-72.500,-28.500,-102.500,-76.000
2.304,-72.000,-28.500,-102.500,-75.500
2.305,-72.000,-28.500,-102.500,-75.500
2.306,-72.000,-28.500,-102.500,-75.500
2.307,-71.500,-28.500,-102.500,-75.500
2.308,-71.500,-28.500,-103.000,-76.000
2.309,-71.500,-28.500,-103.000,-76.000
2.310,-71.000,-28.000,-103.000,-76.000
2.311,-71.000,-28.000,-103.500,-76.000
2.312,-71.000,-28.000,-104.000,-76.000
2.313,-71.500,-28.000,-104.000,-76.000
2.314,-71.500,-28.000,-104.000,-76.000
2.315,-72.000,-28.000,-104.000,-76.000
2.316,-72.000,-27.500,-104.000,-76.500
2.317,-72.500,-27.500,-104.000,-76.500
2.318,-72.500,-27.500,-103.500,-76.000
2.319,-72.500,-27.500,-103.000,-76.000
2.320,-73.000,-27.500,-103.000,-76.000
2.321,-73.000,-27.500,-102.500,-75.500
2.322,-73.000,-27.500,-102.000,-75.000
2.323,-73.000,-27.000,-102.000,-74.500
2.324,-73.000,-27.000,-101.500,-74.500
2.325,-72.500,-27.000,-101.500,-75.000
2.326,-72.500,-27.000,-102.000,-75.000
2.327,-72.500,-27.000,-102.500,-75.500
2.328,-72.000,-27.000,-102.500,-75.500
2.329,-72.000,-27.000,-102.500,-75.500
2.330,-72.000,-27.000,-103.000,-75.500
2.331,-71.500,-27.000,-103.000,-75.000
2.332,-71.500,-27.000,-103.000,-75.000
2.333,-72.000,-27.000,-103.500,-75.500
2.334,-72.000,-27.500,-104.000,-76.000
2.335,-72.000,-27.500,-104.000,-76.000
2.336,-72.000,-27.500,-104.000,-76.000
2.337,-72.000,-27.500,-103.500,-75.500
2.338,-72.000,-27.500,-103.000,-75.500
2.339,-72.500,-27.500,-102.500,-75.000
2.340,-73.000,-27.500,-102.000,-75.000
2.341,-73.000,-28.000,-102.000,-75.500
2.342,-73.000,-28.500,-102.000,-75.500
2.343,-73.000,-28.500,-102.000,-75.500
2.344,-73.000,-28.500,-102.000,-75.500
2.345,-73.000,-28.500,-102.000,-75.500
2.346,-72.500,-28.500,-102.000,-75.500
2.347,-72.500,-28.000,-102.000,-75.500
2.348,-72.000,-28.000,-102.500,-75.500
2.349,-71.500,-28.000,-103.000,-75.500
2.350,-71.000,-28.000,-103.000,-75.500
2.351,-70.500,-28.000,-103.500,-75.500
2.352,-70.500,-28.000,-103.500,-75.500
2.353,-70.500,-28.000,-104.000,-75.500
2.354,-70.500,-28.000,-104.000,-75.500
2.355,-71.000,-28.000,-104.000,-75.500
2.356,-71.000,-28.000,-104.000,-75.500
2.357,-71.500,-28.500,-104.000,-76.000
2.358,-71.500,-29.000,-104.000,-76.000
2.359,-72.000,-29.000,-104.000,-76.000
2.360,-72.500,-29.500,-103.500,-76.000
2.361,-72.500,-29.500,-103.500,-75.500
2.362,-72.500,-29.500,-103.000,-75.500
2.363,-72.500,-29.500,-103.000,-75.500
2.364,-72.500,-29.500,-102.500,-75.500
2.365,-72.000,-29.500,-102.500,-75.500
2.366,-72.000,-29.000,-102.500,-75.000
2.367,-72.000,-29.000,-103.000,-75.000
2.368,-71.500,-29.000,-103.500,-75.000
2.369,-71.000,-29.000,-103.500,-75.000
2.370,-70.500,-29.000,-103.500,-75.000
2.371,-70.500,-29.000,-104.000,-75.000
2.372,-70.500,-29.000,-104.000,-75.000
2.373,-70.500,-29.000,-104.000,-75.000
2.374,-70.500,-29.000,-104.000,-75.500
2.375,-70.500,-29.000,-104.000,-75.500
2.376,-70.500,-29.000,-104.000,-75.000
2.377,-71.000,-29.000,-104.000,-75.000
2.378,-71.000,-29.500,-104.000,-75.000
2.379,-71.500,-29.500,-104.000,-75.000
2.380,-71.500,-30.000,-103.500,-75.000
2.381,-71.500,-30.000,-103.500,-75.000
2.382,-72.000,-30.000,-103.500,-75.000
2.383,-71.500,-30.500,-103.000,-74.500
2.384,-71.500,-30.500,-103.000,-74.500
2.385,-71.500,-30.000,-103.000,-74.500
2.386,-71.000,-30.000,-103.000,-74.500
2.387,-70.500,-30.000,-103.000,-74.500
2.388,-70.500,-30.000,-103.000,-74.500
2.389,-70.000,-30.000,-103.500,-74.500
2.390,-70.000,-30.000,-103.500,-74.500
2.391,-69.500,-30.000,-103.500,-74.500
2.392,-69.500,-30.000,-103.500,-74.500
2.393,-69.500,-30.000,-103.500,-74.500
2.394,-69.500,-30.000,-103.500,-74.500
2.395,-70.000,-30.000,-103.500,-74.500
2.396,-70.000,-30.000,-103.500,-74.500
2.397,-70.500,-30.000,-103.000,-74.500
2.398,-70.500,-30.000,-103.000,-74.500
2.399,-71.000,-30.500,-103.000,-74.000
2.400,-71.500,-31.000,-103.000,-74.000
2.401,-72.000,-31.500,-103.000,-74.000
2.402,-72.500,-31.500,-103.000,-74.500
2.403,-72.500,-32.000,-103.000,-75.000
2.404,-72.500,-32.000,-103.000,-75.000
2.405,-72.500,-32.000,-103.000,-75.500
2.406,-72.000,-32.500,-103.500,-75.500
2.407,-72.000,-32.000,-103.500,-76.000
2.408,-71.500,-32.000,-104.000,-76.000
2.409,-71.500,-32.000,-104.000,-75.500
2.410,-71.000,-32.000,-104.500,-75.500
2.411,-71.000,-32.000,-104.500,-75.500
2.412,-71.000,-32.500,-105.000,-76.000
2.413,-71.500,-32.500,-105.500,-76.000
2.414,-71.500,-33.000,-105.500,-76.500
2.415,-71.500,-33.000,-106.000,-76.500
2.416,-72.000,-33.500,-105.500,-76.500
2.417,-72.000,-34.000,-105.500,-76.500
2.418,-72.500,-34.000,-105.500,-76.500
2.419,-73.000,-34.500,-105.000,-76.500
2.420,-73.500,-34.500,-104.500,-76.500
2.421,-73.500,-35.000,-104.500,-76.500
2.422,-73.500,-35.000,-104.000,-76.500
2.423,-74.000,-35.000,-104.000,-76.500
2.424,-74.000,-35.000,-104.000,-76.500
2.425,-74.000,-35.000,-103.500,-76.500
2.426,-73.500,-35.000,-103.500,-76.000
2.427,-73.500,-35.000,-103.500,-76.000
2.428,-73.000,-34.500,-103.500,-76.000
2.429,-73.000,-34.500,-104.000,-76.000
2.430,-72.500,-34.500,-104.000,-76.000
2.431,-72.500,-34.500,-104.500,-76.000
2.432,-72.500,-34.000,-104.500,-76.000
2.433,-72.500,-34.000,-104.500,-76.000
2.434,-72.500,-34.000,-104.500,-76.000
2.435,-73.000,-34.000,-104.500,-76.000
2.436,-73.000,-34.000,-104.000,-76.500
2.437,-73.500,-34.500,-104.000,-77.000
2.438,-73.500,-34.500,-104.000,-77.000
2.439,-74.000,-34.500,-104.000,-77.000
2.440,-74.000,-34.500,-104.000,-77.000
2.441,-74.000,-34.500,-103.500,-76.500
2.442,-73.500,-34.500,-103.000,-76.500
2.443,-73.500,-34.500,-102.500,-76.500
2.444,-73.000,-34.500,-102.500,-76.500
2.445,-73.000,-34.500,-102.500,-76.500
2.446,-72.500,-34.500,-102.500,-77.000
2.447,-72.500,-34.500,-102.500,-76.500
2.448,-72.000,-34.000,-102.500,-76.500
2.449,-72.000,-34.000,-102.500,-76.500
2.450,-71.500,-33.500,-103.000,-76.500
2.451,-71.500,-33.500,-103.000,-76.500
2.452,-71.500,-33.500,-103.500,-76.500
2.453,-71.500,-33.500,-103.500,-77.000
2.454,-71.500,-34.000,-104.000,-77.000
2.455,-71.500,-34.000,-104.000,-77.500
2.456,-72.000,-34.000,-104.000,-77.500
2.457,-72.000,-34.000,-103.500,-77.500
2.458,-72.500,-34.000,-103.500,-77.500
2.459,-72.500,-34.000,-103.000,-77.500
2.460,-73.000,-34.000,-103.000,-77.500
2.461,-73.000,-34.000,-103.000,-77.500
2.462,-73.000,-34.500,-103.500,-77.500
2.463,-73.500,-34.500,-103.500,-77.500
2.464,-73.000,-34.500,-103.500,-77.500
2.465,-73.000,-34.500,-103.500,-77.500
2.466,-73.000,-34.500,-103.500,-77.500
2.467,-72.500,-34.500,-103.500,-77.000
2.468,-72.500,-34.000,-104.000,-77.000
2.469,-72.000,-34.000,-104.000,-77.000
2.470,-72.000,-33.500,-104.000,-77.000
2.471,-71.500,-33.500,-104.000,-76.500
2.472,-71.000,-33.500,-104.000,-76.500
2.473,-71.000,-33.500,-104.000,-76.500
2.474,-71.000,-33.500,-104.000,-77.000
2.475,-71.000,-33.500,-104.000,-77.000
2.476,-71.500,-34.000,-104.000,-77.500
2.477,-71.500,-34.000,-104.000,-77.500
2.478,-72.000,-34.500,-104.000,-77.500
2.479,-72.500,-35.000,-104.000,-78.000
2.480,-72.500,-35.000,-104.000,-78.000
2.481,-73.000,-35.000,-104.000,-78.000
2.482,-73.000,-35.500,-104.500,-78.500
2.483,-73.000,-35.500,-104.500,-78.500
2.484,-73.000,-35.500,-104.500,-79.000
2.485,-73.000,-36.000,-104.500,-79.000
2.486,-73.000,-35.500,-104.500,-79.500
2.487,-72.500,-35.500,-104.500,-79.500
2.488,-72.000,-35.500,-104.500,-79.500
2.489,-72.000,-35.000,-105.000,-79.500
2.490,-71.500,-35.000,-105.000,-79.500
2.491,-71.500,-35.500,-105.500,-79.500
2.492,-71.000,-35.500,-105.500,-79.500
2.493,-71.500,-36.000,-106.000,-80.000
2.494,-71.500,-36.000,-106.500,-80.000
2.495,-71.500,-35.500,-106.500,-80.000
2.496,-72.000,-35.500,-106.500,-80.000
2.497,-72.000,-36.000,-106.000,-80.000
2.498,-72.000,-36.000,-106.000,-80.000
2.499,-72.500,-36.000,-105.500,-80.000
2.500,-72.500,-36.000,-105.000,-80.000
2.501,-72.500,-36.500,-105.000,-80.000
2.502,-72.500,-36.000,-104.500,-80.000
2.503,-72.500,-36.000,-104.000,-79.500
2.504,-72.500,-36.000,-104.000,-79.500
2.505,-72.000,-36.000,-104.000,-79.000
2.506,-72.000,-36.000,-104.000,-79.000
2.507,-71.500,-35.500,-103.500,-79.000
2.508,-71.500,-35.500,-103.500,-79.000
2.509,-71.000,-35.000,-103.500,-79.000
2.510,-71.000,-35.000,-104.000,-79.000
2.511,-70.500,-35.000,-104.500,-78.500
2.512,-70.500,-35.000,-104.500,-79.000
2.513,-70.500,-35.000,-105.000,-79.000
2.514,-71.000,-35.000,-105.500,-79.000
2.515,-71.000,-35.500,-105.500,-79.000
2.516,-71.500,-36.000,-105.500,-79.500
2.517,-71.500,-36.000,-105.500,-80.000
2.518,-72.000,-36.500,-105.500,-80.000
2.519,-72.000,-37.000,-105.500,-80.500
2.520,-72.500,-37.500,-105.500,-80.500
2.521,-73.500,-38.000,-105.500,-80.500
2.522,-74.000,-38.500,-106.000,-81.000
2.523,-74.500,-39.000,-106.500,-81.500
2.524,-75.000,-40.000,-107.500,-82.000
2.525,-76.000,-41.000,-108.500,-83.000
2.526,-76.500,-42.000,-110.000,-84.000
2.527,-77.000,-43.000,-111.000,-85.000
2.528,-77.000,-43.000,-111.500,-85.000
2.529,-77.000,-43.000,-111.500,-85.500
2.530,-76.500,-43.000,-111.500,-85.000
2.531,-75.500,-43.000,-111.000,-84.500
2.532,-74.500,-42.500,-111.000,-84.500
2.533,-74.000,-42.000,-110.500,-84.000
2.534,-74.000,-41.500,-110.500,-83.500
2.535,-73.500,-41.000,-110.000,-83.500
2.536,-73.500,-40.500,-109.500,-83.000
2.537,-73.000,-40.000,-109.000,-83.000
2.538,-73.000,-40.000,-108.500,-83.000
2.539,-73.000,-39.500,-108.000,-82.500
2.540,-73.500,-39.500,-107.500,-82.500
2.541,-73.500,-39.500,-107.500,-82.500
2.542,-73.500,-39.500,-107.000,-82.500
2.543,-74.000,-39.500,-107.000,-82.500
2.544,-74.000,-39.500,-107.500,-83.000
2.545,-74.000,-40.000,-107.500,-83.000
2.546,-74.000,-40.000,-108.000,-83.500
2.547,-74.000,-40.500,-108.500,-83.500
2.548,-74.500,-41.000,-109.000,-84.000
2.549,-74.500,-41.500,-109.500,-84.500
2.550,-75.000,-42.000,-110.000,-84.500
2.551,-75.500,-43.000,-110.500,-85.000
2.552,-76.000,-43.500,-111.500,-85.500
2.553,-77.000,-44.000,-112.000,-85.500
2.554,-78.000,-44.500,-112.000,-86.000
2.555,-79.000,-45.500,-112.500,-86.000
2.556,-79.500,-46.000,-113.000,-86.000
2.557,-80.500,-47.000,-113.000,-86.000
2.558,-82.000,-47.500,-113.500,-86.500
2.559,-83.000,-48.500,-113.500,-86.500
2.560,-84.500,-49.500,-113.500,-86.500
2.561,-85.500,-50.000,-114.000,-86.500
2.562,-86.500,-50.500,-113.500,-86.000
2.563,-87.500,-50.500,-113.500,-86.000
2.564,-88.500,-51.000,-113.500,-85.500
2.565,-89.000,-51.000,-113.000,-84.500
2.566,-89.000,-51.500,-112.500,-83.500
2.567,-89.000,-51.000,-111.500,-82.000
2.568,-89.500,-51.000,-111.000,-80.500
2.569,-89.000,-50.500,-110.000,-78.500
2.570,-89.000,-50.000,-109.000,-77.000
2.571,-89.000,-49.500,-108.500,-75.000
2.572,-89.500,-49.000,-107.500,-73.500
2.573,-90.000,-49.000,-107.000,-72.500
2.574,-90.500,-49.000,-106.500,-71.500
2.575,-91.500,-49.000,-106.500,-71.500
2.576,-92.000,-49.500,-106.000,-71.000
2.577,-92.500,-49.500,-106.000,-71.000
2.578,-92.000,-49.000,-105.500,-70.500
2.579,-91.000,-48.500,-104.500,-70.000
2.580,-89.500,-47.500,-103.500,-69.500
2.581,-87.000,-45.500,-102.500,-69.500
2.582,-84.000,-43.500,-101.000,-69.000
2.583,-80.500,-41.500,-100.000,-68.500
2.584,-77.000,-39.500,-99.000,-68.500
2.585,-74.000,-37.000,-98.000,-68.500
2.586,-71.000,-35.500,-97.000,-68.500
2.587,-68.500,-33.500,-96.500,-68.500
2.588,-66.500,-32.500,-96.000,-68.500
2.589,-65.000,-31.500,-96.000,-69.000
2.590,-64.500,-31.000,-96.000,-69.000
2.591,-64.000,-31.000,-96.500,-69.500
2.592,-64.000,-31.000,-97.000,-70.500
2.593,-64.000,-31.500,-98.000,-71.000
2.594,-65.000,-32.500,-98.500,-72.000
2.595,-66.000,-34.000,-100.000,-73.500
2.596,-67.500,-35.000,-101.000,-74.500
2.597,-68.500,-36.000,-102.000,-75.500
2.598,-70.000,-37.000,-103.000,-76.500
2.599,-71.000,-38.000,-103.500,-77.000
2.600,-72.500,-38.500,-104.000,-77.500
2.601,-73.000,-39.500,-104.500,-77.500
2.602,-74.000,-40.500,-105.000,-78.500
2.603,-74.500,-41.000,-105.500,-79.000
2.604,-75.000,-41.500,-106.000,-79.500
2.605,-75.500,-42.000,-106.000,-80.000
2.606,-76.000,-42.500,-106.500,-80.500
2.607,-76.000,-42.500,-106.500,-81.000
2.608,-76.500,-43.000,-107.000,-81.000
2.609,-76.500,-43.000,-107.000,-81.000
2.610,-76.000,-43.000,-107.500,-81.500
2.611,-76.000,-43.500,-108.000,-81.500
2.612,-76.000,-43.500,-108.500,-81.500
2.613,-76.000,-44.000,-109.000,-81.500
2.614,-76.000,-44.000,-109.000,-81.500
2.615,-76.000,-44.000,-109.000,-82.000
2.616,-76.000,-44.000,-109.000,-82.000
2.617,-76.500,-44.500,-109.000,-82.500
2.618,-77.000,-44.500,-108.500,-82.500
2.619,-77.000,-45.000,-108.500,-82.500
2.620,-77.500,-45.000,-108.000,-82.500
2.621,-77.500,-45.000,-108.000,-82.500
2.622,-77.500,-45.000,-107.500,-82.500
2.623,-77.000,-45.000,-107.000,-82.000
2.624,-77.000,-44.500,-107.000,-82.000
2.625,-76.500,-44.500,-107.000,-81.500
2.626,-76.500,-45.000,-107.000,-81.500
2.627,-76.500,-45.000,-107.000,-81.500
2.628,-76.000,-45.500,-107.500,-81.500
2.629,-76.000,-45.500,-107.500,-81.500
2.630,-76.000,-45.500,-108.000,-81.500
2.631,-76.000,-45.500,-108.000,-81.500
2.632,-76.000,-46.000,-108.500,-81.500
2.633,-76.000,-46.000,-108.500,-81.000
2.634,-76.000,-46.000,-108.500,-81.000
2.635,-76.000,-46.000,-108.500,-81.000
2.636,-76.500,-46.000,-109.000,-81.000
2.637,-77.000,-46.500,-109.000,-81.000
2.638,-77.500,-46.500,-109.000,-81.500
2.639,-78.000,-47.000,-109.000,-81.500
2.640,-78.500,-47.500,-109.000,-81.500
2.641,-79.000,-48.000,-109.000,-82.000
2.642,-79.000,-48.000,-109.000,-82.000
2.643,-79.500,-48.500,-109.000,-82.000
2.644,-79.000,-48.500,-108.500,-82.000
2.645,-79.000,-48.500,-108.500,-82.000
2.646,-78.500,-48.500,-108.500,-82.000
2.647,-78.500,-48.500,-108.500,-82.000
2.648,-78.000,-48.500,-109.000,-82.000
2.649,-77.500,-48.500,-109.500,-82.000
2.650,-77.500,-48.500,-109.500,-82.000
2.651,-77.500,-48.500,-109.500,-82.000
2.652,-77.500,-48.500,-109.500,-82.000
2.653,-77.500,-48.500,-109.500,-82.500
2.654,-78.000,-48.500,-109.500,-82.500
2.655,-78.000,-49.000,-109.500,-82.500
2.656,-78.500,-49.000,-109.500,-82.500
2.657,-79.000,-49.000,-109.500,-83.000
2.658,-79.500,-49.500,-109.500,-83.000
2.659,-79.500,-49.500,-109.500,-82.500
2.660,-80.000,-50.000,-109.500,-82.500
2.661,-80.500,-50.000,-109.500,-82.500
2.662,-80.500,-50.000,-109.000,-83.000
2.663,-80.500,-50.000,-109.000,-83.000
2.664,-81.000,-50.500,-109.000,-83.000
2.665,-81.000,-50.500,-109.500,-83.500
2.666,-81.500,-51.000,-109.500,-84.000
2.667,-81.500,-51.500,-110.000,-84.000
2.668,-81.500,-52.000,-110.500,-84.000
2.669,-81.000,-52.000,-110.500,-84.000
2.670,-81.000,-52.000,-110.500,-84.000
2.671,-80.500,-51.500,-110.500,-83.500
2.672,-80.500,-51.500,-110.500,-83.500
2.673,-80.500,-51.500,-110.500,-83.500
2.674,-80.500,-51.500,-110.500,-83.500
2.675,-81.000,-51.500,-110.500,-83.500
2.676,-81.000,-51.500,-110.000,-83.500
2.677,-81.500,-51.500,-110.000,-83.500
2.678,-82.000,-52.000,-110.000,-83.500
2.679,-82.000,-52.000,-110.000,-83.500
2.680,-82.500,-52.500,-110.000,-83.500
2.681,-82.500,-52.500,-109.500,-83.500
2.682,-83.000,-53.000,-109.500,-83.500
2.683,-83.000,-53.000,-109.000,-83.000
2.684,-83.000,-53.500,-108.500,-83.000
2.685,-83.000,-53.500,-108.000,-82.500
2.686,-83.000,-53.500,-108.000,-82.500
2.687,-82.500,-53.000,-108.000,-82.000
2.688,-82.000,-53.000,-108.000,-82.000
2.689,-82.000,-53.000,-108.000,-82.000
2.690,-81.500,-52.500,-108.000,-81.500
2.691,-81.500,-52.500,-108.500,-81.500
2.692,-81.500,-52.500,-108.500,-81.500
2.693,-81.500,-52.500,-108.500,-81.500
2.694,-81.500,-52.500,-108.500,-81.500
2.695,-82.000,-52.500,-108.000,-81.000
2.696,-82.000,-53.000,-108.000,-81.000
2.697,-82.000,-53.000,-107.500,-81.000
2.698,-82.500,-53.000,-107.500,-81.000
2.699,-82.500,-53.500,-107.000,-81.000
2.700,-82.500,-53.500,-107.000,-80.500
2.701,-82.000,-53.500,-106.500,-80.500
2.702,-82.000,-53.000,-106.000,-80.000
2.703,-81.500,-53.000,-105.500,-80.000
2.704,-81.500,-53.000,-105.500,-80.000
2.705,-81.000,-52.500,-105.000,-79.500
2.706,-81.000,-52.500,-105.000,-79.500
2.707,-80.500,-52.500,-105.000,-79.500
2.708,-80.500,-52.500,-105.000,-79.500
2.709,-80.000,-52.500,-105.000,-79.000
2.710,-80.000,-52.500,-105.000,-79.000
2.711,-80.000,-52.500,-105.000,-79.000
2.712,-80.000,-52.500,-105.500,-79.000
2.713,-80.000,-52.500,-105.500,-79.000
2.714,-80.000,-52.500,-105.500,-79.000
2.715,-80.000,-52.500,-105.500,-79.000
2.716,-80.000,-52.500,-105.500,-79.000
2.717,-80.000,-52.500,-105.000,-79.000
2.718,-80.000,-52.500,-104.500,-79.000
2.719,-80.500,-52.500,-104.000,-78.500
2.720,-80.500,-52.500,-103.500,-78.500
2.721,-80.500,-52.500,-103.500,-78.500
2.722,-81.000,-52.500,-103.000,-79.000
2.723,-81.000,-52.500,-102.500,-79.000
2.724,-81.000,-52.500,-102.500,-79.500
2.725,-81.000,-52.500,-103.000,-79.500
2.726,-81.000,-52.500,-103.000,-79.500
2.727,-80.500,-52.500,-103.500,-79.500
2.728,-80.500,-52.500,-103.500,-79.500
2.729,-80.500,-52.000,-103.500,-79.500
2.730,-80.000,-52.000,-103.500,-79.000
2.731,-79.500,-52.000,-103.500,-79.000
2.732,-79.500,-51.500,-103.000,-78.500
2.733,-79.500,-51.500,-103.000,-78.500
2.734,-79.500,-51.500,-103.000,-78.500
2.735,-79.500,-52.000,-103.000,-78.500
2.736,-79.500,-52.000,-103.000,-78.500
2.737,-80.000,-52.500,-103.000,-78.500
2.738,-80.500,-52.500,-102.500,-78.500
2.739,-80.500,-53.000,-102.000,-78.500
2.740,-81.000,-53.000,-102.000,-78.500
2.741,-81.000,-53.500,-102.000,-78.500
2.742,-81.000,-53.500,-102.000,-78.500
2.743,-81.000,-53.500,-102.000,-79.000
2.744,-81.000,-53.500,-102.000,-79.000
2.745,-81.000,-53.500,-102.500,-79.000
2.746,-81.000,-53.500,-102.500,-79.000
2.747,-81.000,-53.500,-102.500,-79.000
2.748,-81.000,-53.500,-103.000,-79.000
2.749,-81.000,-53.500,-103.000,-79.000
2.750,-81.000,-53.500,-103.000,-79.000
2.751,-81.000,-53.500,-103.000,-79.000
2.752,-81.000,-53.500,-103.000,-79.000
2.753,-81.000,-53.500,-103.000,-79.000
2.754,-81.000,-53.500,-103.000,-79.000
2.755,-81.500,-54.000,-103.000,-79.000
2.756,-82.000,-54.000,-103.000,-79.500
2.757,-82.500,-54.500,-103.000,-79.500
2.758,-83.000,-54.500,-102.500,-79.500
2.759,-83.500,-54.500,-102.500,-79.000
2.760,-84.000,-55.000,-102.000,-79.000
2.761,-84.000,-55.000,-101.500,-79.000
2.762,-84.000,-55.000,-101.000,-79.000
2.763,-84.500,-55.000,-100.500,-78.500
2.764,-84.500,-55.000,-100.500,-79.000
2.765,-84.500,-55.500,-100.500,-79.000
2.766,-84.500,-55.500,-101.000,-79.000
2.767,-84.500,-55.500,-101.500,-79.000
2.768,-84.500,-55.500,-101.500,-79.000
2.769,-84.000,-55.500,-102.000,-79.000
2.770,-84.000,-55.500,-102.000,-79.000
2.771,-84.500,-55.500,-102.500,-79.000
2.772,-84.500,-55.500,-103.000,-79.500
2.773,-85.000,-56.000,-103.000,-79.500
2.774,-85.500,-56.000,-103.500,-80.000
2.775,-85.500,-56.500,-103.500,-80.000
2.776,-86.000,-56.500,-103.000,-79.500
2.777,-86.000,-56.500,-103.000,-79.500
2.778,-86.500,-57.000,-102.500,-79.000
2.779,-86.500,-57.000,-102.000,-79.000
2.780,-87.000,-57.000,-102.000,-79.000
2.781,-87.000,-56.500,-102.000,-79.000
2.782,-87.000,-56.500,-102.000,-79.000
2.783,-87.000,-57.000,-102.000,-79.000
2.784,-87.000,-57.000,-102.000,-79.000
2.785,-87.000,-57.000,-102.000,-79.000
2.786,-87.500,-57.000,-102.000,-79.000
2.787,-87.500,-57.500,-102.000,-79.000
2.788,-87.500,-57.500,-102.500,-79.000
2.789,-87.500,-57.500,-103.000,-79.000
2.790,-87.000,-57.500,-103.000,-79.000
2.791,-87.000,-57.500,-103.500,-79.000
2.792,-87.000,-57.500,-103.500,-79.000
2.793,-87.000,-57.500,-104.000,-79.000
2.794,-87.500,-58.000,-104.000,-79.000
2.795,-88.000,-58.000,-104.000,-79.000
2.796,-88.500,-58.500,-104.000,-79.500
2.797,-89.000,-59.000,-103.500,-79.500
2.798,-89.500,-59.500,-103.500,-80.000
2.799,-90.000,-59.500,-103.000,-80.000
2.800,-90.500,-60.000,-102.500,-80.000
2.801,-90.500,-60.000,-102.500,-80.000
2.802,-91.000,-60.500,-102.000,-80.000
2.803,-91.000,-60.500,-102.000,-80.000
2.804,-91.000,-60.500,-102.000,-80.000
2.805,-91.000,-61.000,-102.500,-80.000
2.806,-91.000,-61.000,-102.500,-80.000
2.807,-91.000,-61.000,-103.000,-80.500
2.808,-91.000,-61.500,-103.500,-80.500
2.809,-91.000,-61.500,-103.500,-80.500
2.810,-90.500,-61.500,-104.000,-80.500
2.811,-90.500,-61.500,-104.000,-80.500
2.812,-90.500,-61.500,-104.000,-80.500
2.813,-90.500,-61.500,-104.000,-80.000
2.814,-91.000,-61.500,-104.500,-80.000
2.815,-91.000,-61.500,-104.500,-80.000
2.816,-91.500,-61.500,-104.500,-80.000
2.817,-91.500,-62.000,-104.500,-80.500
2.818,-92.000,-62.000,-104.000,-80.500
2.819,-92.000,-62.000,-104.000,-80.500
2.820,-92.500,-62.000,-104.000,-80.500
2.821,-92.500,-62.000,-104.000,-81.000
2.822,-92.500,-62.000,-104.000,-81.000
2.823,-92.500,-62.000,-104.000,-81.000
2.824,-92.000,-62.000,-104.000,-81.000
2.825,-92.000,-62.000,-104.000,-81.000
2.826,-91.500,-62.000,-104.000,-81.000
2.827,-91.000,-61.500,-104.000,-81.000
2.828,-90.500,-61.500,-104.000,-81.000
2.829,-90.500,-61.500,-104.500,-81.000
2.830,-90.500,-61.500,-105.000,-81.500
2.831,-90.500,-61.500,-105.500,-81.500
2.832,-90.500,-61.500,-106.000,-82.000
2.833,-90.500,-61.500,-106.000,-82.500
2.834,-90.500,-61.500,-106.500,-83.000
2.835,-90.500,-61.500,-107.000,-83.500
2.836,-90.500,-61.500,-107.000,-83.500
2.837,-90.500,-62.000,-107.000,-84.000
2.838,-90.500,-62.000,-107.000,-84.000
2.839,-91.000,-62.000,-106.500,-84.000
2.840,-91.000,-62.000,-106.500,-84.000
2.841,-91.500,-62.000,-106.000,-84.000
2.842,-91.500,-62.000,-106.000,-84.000
2.843,-91.500,-62.000,-106.000,-84.500
2.844,-91.500,-62.000,-106.000,-84.500
2.845,-91.000,-62.000,-106.500,-84.500
2.846,-90.500,-62.000,-106.500,-84.500
2.847,-90.000,-62.000,-106.500,-84.500
2.848,-89.500,-61.500,-106.500,-84.500
2.849,-89.000,-61.000,-106.500,-84.000
2.850,-88.500,-60.500,-106.500,-84.000
2.851,-88.000,-60.500,-106.500,-84.000
2.852,-87.500,-60.000,-106.500,-84.000
2.853,-87.500,-60.000,-106.500,-84.500
2.854,-87.500,-60.000,-106.500,-84.500
2.855,-87.500,-60.000,-107.000,-84.500
2.856,-87.500,-60.000,-106.500,-84.500
2.857,-88.000,-60.000,-106.500,-84.500
2.858,-88.000,-60.000,-106.500,-84.500
2.859,-88.000,-60.000,-106.000,-84.500
2.860,-88.500,-60.000,-105.500,-84.500
2.861,-88.500,-59.500,-105.500,-84.000
2.862,-88.500,-59.500,-105.000,-84.000
2.863,-88.500,-59.500,-105.000,-84.000
2.864,-88.500,-59.500,-105.000,-84.000
2.865,-88.500,-60.000,-105.000,-84.000
2.866,-89.000,-60.000,-105.000,-84.000
2.867,-89.000,-60.000,-105.500,-84.500
2.868,-88.500,-60.000,-106.000,-84.500
2.869,-88.500,-60.000,-106.000,-84.000
2.870,-88.500,-60.000,-106.000,-84.000
2.871,-88.500,-60.000,-106.500,-84.000
2.872,-88.500,-60.500,-107.000,-84.500
2.873,-89.000,-61.500,-108.000,-85.000
2.874,-90.000,-62.500,-109.000,-85.500
2.875,-91.000,-63.500,-109.500,-86.500
2.876,-91.500,-64.000,-110.000,-87.000
2.877,-92.500,-64.500,-110.500,-87.500
2.878,-93.000,-65.000,-110.500,-88.000
2.879,-93.000,-65.000,-110.500,-88.000
2.880,-93.000,-64.500,-110.000,-87.500
2.881,-92.500,-64.500,-109.000,-87.500
2.882,-92.000,-64.000,-108.500,-87.000
2.883,-91.500,-63.500,-107.500,-86.500
2.884,-90.500,-62.500,-106.500,-86.000
2.885,-89.500,-62.000,-106.000,-85.500
2.886,-89.000,-61.000,-105.500,-85.000
2.887,-88.500,-60.500,-105.500,-84.500
2.888,-88.000,-60.500,-105.500,-84.500
2.889,-87.500,-60.000,-105.500,-84.000
2.890,-87.000,-60.000,-106.000,-84.000
2.891,-87.000,-60.000,-106.000,-84.500
2.892,-87.000,-60.000,-106.000,-84.500
2.893,-87.000,-60.000,-106.500,-84.500
2.894,-87.000,-60.000,-106.500,-85.000
2.895,-87.000,-60.000,-106.000,-85.000
2.896,-87.000,-60.000,-106.000,-85.000
2.897,-87.000,-60.000,-105.500,-85.000
2.898,-87.000,-60.000,-105.500,-84.500
2.899,-87.500,-60.000,-105.500,-84.500
2.900,-87.500,-60.000,-105.000,-84.500
2.901,-87.500,-60.000,-105.000,-84.500
2.902,-87.500,-60.000,-104.500,-84.000
2.903,-87.500,-59.500,-104.000,-84.000
2.904,-87.500,-59.500,-104.000,-84.000
2.905,-87.000,-59.500,-104.000,-83.500
2.906,-87.000,-59.500,-104.000,-83.000
2.907,-86.500,-59.500,-104.000,-83.000
2.908,-86.000,-59.500,-104.000,-83.000
2.909,-86.000,-59.000,-104.000,-83.000
2.910,-86.000,-59.500,-104.500,-83.000
2.911,-85.500,-59.500,-104.500,-83.000
2.912,-85.500,-59.500,-104.500,-83.000
2.913,-85.500,-59.500,-105.000,-83.500
2.914,-86.000,-60.000,-105.000,-83.500
2.915,-86.000,-60.000,-105.000,-83.500
2.916,-86.500,-60.500,-105.000,-83.500
2.917,-86.500,-60.500,-105.000,-83.500
2.918,-87.000,-61.000,-105.500,-84.000
2.919,-87.500,-61.000,-105.500,-84.500
2.920,-87.500,-61.000,-105.500,-84.500
2.921,-87.500,-61.000,-105.500,-84.500
2.922,-88.000,-61.000,-105.500,-84.500
2.923,-87.500,-61.000,-105.000,-84.000
2.924,-87.500,-60.500,-105.000,-84.000
2.925,-87.000,-60.500,-105.000,-84.000
2.926,-86.500,-60.500,-105.000,-84.000
2.927,-86.000,-60.500,-105.000,-83.500
2.928,-86.000,-60.500,-105.000,-83.500
2.929,-85.500,-60.000,-105.000,-83.000
2.930,-85.000,-60.000,-105.000,-83.000
2.931,-85.000,-59.500,-105.000,-83.000
2.932,-85.000,-59.500,-105.000,-83.000
2.933,-85.000,-59.500,-105.500,-83.500
2.934,-85.000,-59.500,-106.000,-83.500
2.935,-85.500,-59.500,-106.500,-84.000
2.936,-85.500,-59.500,-106.500,-84.000
2.937,-86.000,-59.500,-106.500,-84.000
2.938,-86.000,-59.500,-106.000,-84.000
2.939,-86.500,-60.000,-106.000,-84.500
2.940,-86.500,-60.500,-106.000,-84.500
2.941,-86.500,-60.500,-106.000,-84.500
2.942,-86.500,-61.000,-106.000,-84.500
2.943,-86.500,-61.000,-106.000,-84.500
2.944,-86.500,-61.000,-106.000,-84.500
2.945,-86.500,-61.000,-106.000,-84.500
2.946,-86.500,-61.000,-106.000,-84.500
2.947,-86.000,-61.000,-106.000,-84.000
2.948,-86.000,-61.000,-106.000,-84.000
2.949,-85.500,-61.000,-106.000,-84.000
2.950,-85.500,-61.000,-106.500,-84.000
2.951,-85.500,-61.500,-106.500,-84.000
2.952,-85.500,-61.500,-107.000,-84.500
2.953,-85.500,-61.500,-107.500,-84.500
2.954,-86.000,-61.500,-108.000,-85.000
2.955,-86.000,-62.000,-108.000,-85.000
2.956,-86.500,-62.000,-108.000,-85.000
2.957,-86.500,-62.500,-107.500,-85.000
2.958,-87.000,-62.500,-107.500,-85.000
2.959,-87.000,-63.000,-107.000,-85.500
2.960,-87.500,-63.000,-107.000,-85.500
2.961,-88.000,-63.000,-107.000,-86.000
2.962,-88.000,-63.500,-107.000,-86.000
2.963,-88.500,-63.500,-107.500,-86.500
2.964,-88.500,-63.500,-108.000,-86.500
2.965,-88.500,-63.500,-108.000,-86.500
2.966,-88.500,-63.500,-108.500,-87.000
2.967,-88.500,-63.500,-108.500,-87.000
2.968,-88.000,-63.000,-109.000,-87.000
2.969,-88.000,-63.000,-109.000,-87.000
2.970,-87.500,-62.500,-109.000,-87.000
2.971,-87.000,-62.500,-109.000,-87.000
2.972,-87.000,-63.000,-109.000,-87.000
2.973,-87.000,-63.000,-109.500,-87.000
2.974,-87.000,-63.000,-109.500,-87.000
2.975,-87.000,-63.500,-109.500,-87.000
2.976,-87.000,-63.500,-109.500,-87.000
2.977,-87.500,-63.500,-109.500,-87.000
2.978,-88.000,-63.500,-109.000,-87.000
2.979,-88.500,-64.000,-109.000,-87.000
2.980,-89.000,-64.000,-109.000,-87.500
2.981,-89.500,-64.500,-108.500,-87.500
2.982,-89.500,-64.500,-108.000,-87.500
2.983,-89.500,-64.500,-108.000,-87.500
2.984,-89.500,-64.500,-107.500,-87.500
2.985,-89.000,-65.000,-107.500,-87.500
2.986,-89.000,-65.000,-108.000,-87.000
2.987,-88.500,-65.000,-108.000,-87.000
2.988,-88.500,-65.000,-108.500,-87.000
2.989,-88.000,-65.000,-109.000,-87.000
2.990,-88.000,-65.500,-109.000,-87.000
2.991,-88.000,-66.000,-109.500,-87.500
2.992,-88.000,-66.000,-110.000,-88.000
2.993,-88.000,-66.500,-110.500,-88.500
2.994,-88.500,-66.500,-111.000,-89.000
2.995,-88.500,-67.000,-111.500,-89.500
2.996,-88.500,-67.000,-111.500,-89.500
2.997,-88.500,-66.500,-111.500,-89.500
2.998,-88.500,-66.500,-111.500,-90.000
2.999,-89.000,-66.500,-111.000,-90.000
3.000,-89.000,-66.500,-111.000,-90.000
3.001,-89.500,-66.500,-110.500,-89.500
3.002,-89.500,-66.500,-110.000,-89.500
3.003,-89.000,-66.500,-110.000,-89.500
3.004,-89.000,-66.500,-109.500,-89.000
3.005,-88.500,-66.500,-109.500,-89.000
3.006,-88.500,-66.500,-109.500,-88.500
3.007,-88.000,-66.500,-109.500,-88.500
3.008,-88.000,-66.500,-110.000,-88.500
3.009,-87.500,-66.500,-110.500,-88.500
3.010,-87.500,-67.000,-111.000,-89.000
3.011,-87.500,-67.000,-111.500,-89.000
3.012,-87.500,-67.000,-112.000,-89.500
3.013,-87.500,-67.500,-112.500,-90.000
3.014,-87.500,-67.500,-112.500,-90.000
3.015,-88.000,-67.500,-113.000,-90.500
3.016,-88.000,-68.000,-113.000,-90.500
3.017,-88.500,-68.000,-113.500,-91.000
3.018,-89.000,-68.000,-113.500,-91.000
3.019,-89.500,-68.000,-113.500,-91.500
3.020,-89.500,-68.500,-113.500,-91.500
3.021,-89.500,-68.500,-113.000,-91.500
3.022,-90.000,-68.500,-113.000,-92.000
3.023,-90.000,-69.000,-113.000,-92.000
3.024,-90.000,-69.000,-113.000,-92.000
3.025,-90.000,-69.500,-113.500,-92.500
3.026,-90.000,-69.500,-113.500,-92.500
3.027,-90.000,-70.000,-114.000,-92.500
3.028,-90.000,-70.000,-114.000,-92.500
3.029,-89.500,-69.500,-114.000,-92.000
3.030,-89.000,-69.500,-114.000,-91.500
3.031,-89.000,-69.000,-114.000,-91.000
3.032,-88.500,-69.000,-114.000,-91.000
3.033,-88.500,-69.000,-114.500,-91.000
3.034,-89.000,-69.500,-115.000,-91.000
3.035,-89.000,-69.500,-115.000,-91.500
3.036,-89.500,-70.000,-115.500,-91.500
3.037,-90.000,-70.000,-115.500,-92.000
3.038,-90.500,-70.000,-115.500,-92.000
3.039,-91.000,-70.500,-115.500,-92.000
3.040,-91.000,-70.500,-115.500,-92.000
3.041,-91.000,-70.500,-115.500,-92.000
3.042,-91.500,-70.500,-115.500,-92.000
3.043,-91.500,-70.500,-115.500,-92.000
3.044,-91.500,-71.000,-115.500,-92.500
3.045,-92.000,-71.500,-116.000,-92.500
3.046,-92.000,-71.500,-116.000,-93.000
3.047,-92.000,-71.500,-116.500,-93.000
3.048,-92.000,-71.500,-117.000,-93.500
3.049,-92.000,-71.500,-117.500,-93.500
3.050,-91.500,-72.000,-118.000,-94.000
3.051,-91.500,-72.000,-118.000,-94.000
3.052,-91.500,-72.500,-118.500,-94.000
3.053,-92.000,-72.500,-118.500,-94.000
3.054,-92.500,-73.000,-119.000,-94.000
3.055,-93.000,-73.000,-119.500,-94.000
3.056,-93.500,-73.500,-119.500,-94.000
3.057,-94.000,-73.500,-119.500,-94.500
3.058,-94.500,-73.500,-119.500,-94.500
3.059,-95.000,-73.500,-119.500,-94.500
3.060,-95.000,-74.000,-119.500,-94.500
3.061,-95.500,-74.000,-119.000,-94.000
3.062,-95.500,-74.500,-119.000,-94.000
3.063,-95.500,-75.000,-119.000,-94.000
3.064,-95.500,-75.000,-119.000,-94.500
3.065,-95.500,-75.000,-119.000,-94.500
3.066,-95.500,-75.500,-119.500,-94.500
3.067,-95.500,-75.500,-120.000,-94.500
3.068,-95.000,-75.500,-120.000,-94.500
3.069,-95.000,-75.500,-120.000,-94.500
3.070,-94.500,-75.500,-120.500,-94.500
3.071,-94.500,-75.500,-120.500,-94.500
3.072,-94.500,-75.500,-121.000,-94.500
3.073,-94.500,-75.500,-121.000,-94.500
3.074,-95.000,-76.000,-121.500,-95.000
3.075,-95.000,-76.000,-122.000,-95.000
3.076,-95.500,-76.500,-122.000,-95.500
3.077,-96.000,-77.000,-122.000,-96.000
3.078,-96.500,-77.000,-122.000,-96.000
3.079,-97.000,-77.500,-122.000,-96.000
3.080,-97.000,-78.000,-122.000,-96.500
3.081,-97.500,-78.000,-121.500,-96.000
3.082,-97.500,-78.000,-121.000,-96.000
3.083,-97.000,-77.500,-121.000,-95.500
3.084,-97.000,-77.500,-120.500,-95.500
3.085,-97.000,-77.500,-120.500,-95.500
3.086,-97.000,-77.500,-120.500,-95.000
3.087,-96.500,-77.500,-120.500,-95.000
3.088,-96.500,-77.000,-120.500,-94.500
3.089,-96.000,-77.000,-120.500,-94.500
3.090,-95.500,-77.000,-121.000,-95.000
3.091,-95.000,-77.000,-121.500,-95.000
3.092,-95.000,-77.000,-121.500,-95.000
3.093,-95.000,-76.500,-121.500,-95.000
3.094,-95.000,-76.500,-121.500,-95.000
3.095,-95.000,-76.000,-121.000,-94.500
