'Elapsed time','AECG1','AECG2','AECG3','AECG4'
'seconds','uV','uV','uV','uV'
0.000,89.000,115.000,155.500,142.500
0.001,86.000,111.000,153.500,140.500
0.002,83.000,107.500,152.000,138.000
0.003,80.500,105.000,150.500,136.500
0.004,79.000,103.000,150.000,135.500
0.005,78.500,102.000,150.000,135.500
0.006,78.500,102.000,150.000,136.000
0.007,79.000,102.500,151.000,137.000
0.008,80.000,103.500,152.000,138.000
0.009,81.500,105.000,153.000,139.500
0.010,83.000,107.500,154.000,141.000
0.011,84.000,109.500,155.000,142.000
0.012,84.500,110.500,155.000,143.000
0.013,84.000,110.500,154.500,142.500
0.014,82.000,108.500,152.000,141.000
0.015,79.000,105.000,149.000,138.000
0.016,76.500,101.000,146.000,135.500
0.017,74.000,98.000,143.500,133.000
0.018,73.000,96.000,142.000,131.500
0.019,74.000,96.500,142.500,132.000
0.020,76.500,99.000,144.500,133.500
0.021,80.500,103.000,148.000,137.000
0.022,85.500,108.000,152.500,141.000
0.023,90.500,113.500,157.000,145.500
0.024,94.000,118.000,161.000,149.000
0.025,96.500,120.500,163.500,151.000
0.026,97.500,121.500,164.500,152.000
0.027,98.000,122.000,165.500,152.500
0.028,99.000,122.500,166.500,153.500
0.029,100.000,123.000,168.000,155.000
0.030,101.000,123.500,168.500,155.500
0.031,100.500,122.500,168.000,155.500
0.032,98.000,120.000,166.000,154.000
0.033,95.000,116.500,163.500,151.500
0.034,92.500,114.000,161.000,149.500
0.035,91.000,112.500,159.500,148.500
0.036,89.500,111.000,157.500,147.000
0.037,87.000,109.500,155.500,145.000
0.038,82.500,106.500,151.500,142.000
0.039,79.000,103.500,148.000,139.000
0.040,77.000,102.500,145.500,137.500
0.041,78.500,103.000,145.500,137.500
0.042,82.000,106.000,147.000,139.500
0.043,87.000,109.500,150.000,142.500
0.044,91.500,113.000,152.500,145.000
0.045,95.000,116.500,155.500,147.000
0.046,99.000,120.000,159.000,150.500
0.047,104.500,125.000,164.000,155.000
0.048,111.000,131.500,171.000,162.000
0.049,118.000,139.000,178.500,169.500
0.050,124.000,145.000,185.500,175.500
0.051,127.500,149.000,190.000,180.000
0.052,129.000,151.000,192.000,181.500
0.053,128.500,151.000,192.500,181.500
0.054,127.500,150.000,192.000,180.500
0.055,125.500,148.500,190.500,179.000
0.056,122.500,146.000,188.500,176.500
0.057,118.500,142.000,185.000,173.000
0.058,113.000,136.500,180.000,168.500
0.059,107.000,130.000,174.000,163.000
0.060,101.000,122.000,167.000,157.000
0.061,96.000,114.000,161.000,151.500
0.062,93.000,107.000,156.500,148.500
0.063,92.500,101.500,154.500,149.000
0.064,95.000,97.500,155.500,151.500
0.065,98.000,94.500,158.000,155.500
0.066,99.500,91.500,160.500,158.500
0.067,99.000,87.000,161.500,160.500
0.068,96.000,82.000,161.000,160.500
0.069,91.000,78.000,158.500,159.000
0.070,87.500,76.500,157.000,157.000
0.071,86.500,79.000,157.000,157.500
0.072,89.500,87.000,160.500,160.500
0.073,96.000,98.500,166.500,166.500
0.074,103.500,111.500,173.500,173.000
0.075,111.500,125.000,180.500,180.000
0.076,119.000,137.500,187.500,186.000
0.077,125.500,148.500,193.000,190.500
0.078,130.500,157.500,198.000,194.000
0.079,134.000,165.500,202.500,196.000
0.080,137.500,171.500,206.500,197.500
0.081,140.500,176.500,209.500,198.500
0.082,143.000,180.500,212.000,199.500
0.083,145.500,183.500,214.000,200.000
0.084,148.500,186.000,216.500,201.500
0.085,151.500,189.000,219.500,203.500
0.086,154.000,191.000,222.500,205.500
0.087,156.000,192.500,225.000,207.500
0.088,157.500,193.000,226.500,209.000
0.089,157.500,193.000,227.500,210.000
0.090,157.000,192.000,227.500,210.500
0.091,156.500,190.000,227.000,210.500
0.092,155.500,188.500,227.000,211.000
0.093,155.500,187.500,227.000,211.500
0.094,155.500,186.500,227.500,213.000
0.095,156.000,185.500,228.000,214.500
0.096,156.500,184.500,228.500,216.000
0.097,156.500,183.000,229.000,217.000
0.098,155.000,180.500,227.500,216.500
0.099,152.000,176.500,224.500,214.500
0.100,147.000,171.000,220.000,210.500
0.101,141.000,164.500,214.500,206.000
0.102,135.500,158.500,209.500,201.000
0.103,132.000,154.500,206.000,198.000
0.104,131.500,153.000,205.000,197.500
0.105,133.500,154.500,207.000,199.000
0.106,138.000,158.500,210.500,202.500
0.107,144.000,164.000,216.000,208.000
0.108,151.000,171.000,222.500,214.000
0.109,159.000,178.500,230.000,222.000
0.110,168.000,187.500,238.500,230.500
0.111,177.000,197.000,248.000,239.500
0.112,185.500,206.000,256.000,248.000
0.113,191.500,212.500,262.000,254.000
0.114,194.500,216.500,265.000,257.000
0.115,195.500,218.500,266.000,258.000
0.116,196.000,219.500,266.500,258.000
0.117,196.500,220.500,266.500,258.000
0.118,195.500,220.000,266.000,257.000
0.119,193.000,218.500,264.000,255.000
0.120,189.000,215.000,260.500,252.000
0.121,183.500,209.500,256.500,247.500
0.122,177.500,203.000,251.000,243.000
0.123,172.500,196.500,246.500,238.500
0.124,169.000,191.000,243.000,235.500
0.125,167.500,188.000,242.000,234.000
0.126,167.000,187.000,242.000,234.000
0.127,168.000,188.000,243.000,234.500
0.128,168.500,190.000,244.000,235.500
0.129,169.500,192.500,245.500,236.000
0.130,170.500,195.000,247.000,237.500
0.131,172.000,197.500,248.500,239.500
0.132,173.500,199.000,250.000,241.000
0.133,174.000,199.000,250.000,242.000
0.134,174.000,197.500,248.000,241.500
0.135,174.000,196.000,246.000,240.500
0.136,175.000,195.500,244.500,240.500
0.137,178.500,197.500,244.500,241.500
0.138,182.500,200.500,245.000,242.500
0.139,185.500,203.000,245.000,242.500
0.140,186.500,204.000,243.500,241.000
0.141,185.500,203.000,241.000,238.000
0.142,182.500,201.000,238.500,234.500
0.143,179.500,199.000,236.000,231.500
0.144,177.000,197.500,235.000,229.500
0.145,176.000,197.000,235.500,229.500
0.146,177.000,198.500,238.500,231.000
0.147,180.000,202.500,243.000,235.000
0.148,185.000,208.000,250.000,241.000
0.149,191.500,215.000,258.000,248.000
0.150,198.500,222.500,266.500,256.000
0.151,203.500,228.500,273.500,262.500
0.152,206.500,232.500,278.500,268.000
0.153,206.500,233.000,281.000,271.000
0.154,204.000,230.500,281.000,271.000
0.155,200.000,225.500,278.000,269.500
0.156,195.500,219.500,274.500,266.500
0.157,191.500,213.000,270.500,264.000
0.158,188.500,206.500,266.500,261.000
0.159,185.000,200.500,262.000,257.500
0.160,181.000,195.500,256.500,253.000
0.161,177.500,192.000,252.000,248.500
0.162,175.500,190.500,248.500,245.500
0.163,175.000,190.500,246.000,243.000
0.164,175.000,191.500,244.000,241.500
0.165,174.500,192.000,242.000,239.000
0.166,173.000,192.000,239.500,236.500
0.167,170.500,191.000,236.500,232.500
0.168,167.500,190.000,233.500,229.000
0.169,166.000,189.500,231.500,227.000
0.170,165.000,190.000,231.500,226.500
0.171,166.000,191.500,233.000,227.500
0.172,167.500,193.500,235.000,229.500
0.173,168.500,195.000,236.500,231.000
0.174,168.500,195.500,236.500,231.500
0.175,167.500,193.500,235.000,230.500
0.176,164.500,190.500,232.500,228.000
0.177,161.500,186.500,229.000,225.500
0.178,158.500,182.500,226.500,223.000
0.179,155.500,179.000,224.000,221.000
0.180,152.500,175.500,222.000,218.500
0.181,147.500,170.500,219.000,215.500
0.182,140.500,163.500,215.500,211.000
0.183,131.500,154.500,211.000,205.500
0.184,121.000,142.500,205.500,199.500
0.185,109.500,128.500,199.000,193.000
0.186,98.500,114.000,192.000,186.500
0.187,90.000,100.500,185.000,180.500
0.188,84.000,90.500,178.000,175.000
0.189,81.000,84.000,171.000,169.500
0.190,79.000,81.000,164.500,164.500
0.191,78.000,81.000,159.000,160.000
0.192,78.000,84.000,154.000,156.500
0.193,78.500,88.500,151.000,154.000
0.194,80.500,94.500,149.000,153.000
0.195,83.000,101.500,149.500,153.000
0.196,87.000,110.000,151.500,154.500
0.197,92.000,119.000,155.000,157.000
0.198,97.500,128.000,159.500,159.500
0.199,102.500,136.000,163.500,162.000
0.200,106.500,142.000,166.500,163.500
0.201,109.000,146.000,168.500,164.000
0.202,110.500,148.500,169.500,163.500
0.203,111.500,149.500,170.000,163.500
0.204,113.000,150.500,171.000,163.000
0.205,113.500,150.500,172.000,163.000
0.206,113.500,150.000,172.500,162.500
0.207,113.000,149.000,173.000,161.500
0.208,112.000,148.000,173.000,161.500
0.209,111.000,146.000,173.500,161.000
0.210,109.000,144.000,172.500,160.000
0.211,106.500,140.500,171.000,158.000
0.212,103.000,136.500,168.500,156.000
0.213,100.000,133.000,165.500,154.000
0.214,97.000,129.500,163.000,152.500
0.215,95.000,126.500,160.500,151.000
0.216,93.500,124.000,159.000,150.000
0.217,92.500,122.000,157.500,149.500
0.218,91.500,120.000,156.000,149.000
0.219,89.000,117.500,154.000,147.000
0.220,85.500,113.500,151.000,143.500
0.221,80.500,109.500,146.500,139.500
0.222,75.500,105.000,142.000,134.500
0.223,70.500,99.500,137.000,129.500
0.224,64.500,94.000,131.000,123.500
0.225,59.000,88.000,125.500,118.000
0.226,54.500,84.000,121.500,114.000
0.227,52.500,81.500,119.000,111.500
0.228,52.000,81.000,118.500,111.000
0.229,52.000,81.000,118.500,111.000
0.230,52.500,81.000,118.500,111.000
0.231,52.500,81.000,118.500,111.500
0.232,52.000,81.000,118.500,111.000
0.233,51.500,80.500,118.000,111.000
0.234,52.500,81.000,119.000,112.000
0.235,54.000,82.000,120.500,113.500
0.236,55.500,84.000,122.500,116.000
0.237,56.500,85.500,124.000,117.500
0.238,57.000,86.000,124.500,118.000
0.239,56.500,86.000,124.500,118.000
0.240,57.000,86.000,124.500,118.000
0.241,57.500,87.000,125.000,118.500
0.242,58.500,88.000,125.500,119.000
0.243,59.500,89.000,126.500,119.500
0.244,60.500,89.500,126.500,119.500
0.245,60.500,90.000,126.500,119.500
0.246,60.000,89.500,126.000,118.500
0.247,60.000,89.500,126.000,118.000
0.248,60.000,90.000,126.000,117.500
0.249,61.000,91.000,127.000,118.000
0.250,62.000,92.500,128.500,119.500
0.251,63.000,94.000,130.000,121.500
0.252,63.500,95.000,131.500,123.000
0.253,63.000,95.000,131.500,123.000
0.254,60.500,93.000,130.000,121.500
0.255,56.500,89.000,126.500,117.500
0.256,51.000,84.000,121.500,112.500
0.257,44.500,78.000,115.500,107.000
0.258,39.500,73.000,110.500,102.000
0.259,36.000,69.500,107.000,98.500
0.260,35.500,68.000,106.000,97.000
0.261,36.500,68.500,106.000,97.500
0.262,37.000,68.500,106.000,97.500
0.263,36.000,66.500,104.500,95.500
0.264,33.000,63.000,101.000,92.500
0.265,29.000,58.500,97.000,88.500
0.266,25.500,55.000,94.000,85.500
0.267,24.500,54.000,93.500,85.500
0.268,26.500,56.500,97.000,89.000
0.269,33.000,63.000,103.000,96.000
0.270,41.500,71.500,111.500,104.500
0.271,50.000,80.000,119.500,113.000
0.272,57.000,86.500,125.500,120.000
0.273,61.000,91.000,129.000,124.000
0.274,64.000,93.500,131.500,127.000
0.275,65.500,95.500,132.500,129.000
0.276,66.500,96.500,133.000,129.500
0.277,65.000,96.000,131.500,128.500
0.278,62.500,93.500,129.000,126.000
0.279,59.000,90.000,125.500,122.000
0.280,55.000,86.000,121.500,118.500
0.281,51.500,82.500,118.500,115.000
0.282,49.500,81.000,117.000,113.000
0.283,49.000,80.500,116.500,112.500
0.284,49.500,80.500,117.000,112.500
0.285,49.500,80.500,117.000,112.500
0.286,49.000,80.500,116.500,111.500
0.287,48.500,79.500,115.500,110.500
0.288,47.000,78.500,114.000,108.500
0.289,46.000,77.500,113.000,107.500
0.290,45.000,76.000,112.000,106.000
0.291,43.500,74.000,111.000,105.500
0.292,42.500,71.500,110.000,105.500
0.293,42.000,68.000,109.500,106.000
0.294,41.000,64.000,109.000,107.000
0.295,40.000,59.500,108.500,108.000
0.296,38.000,54.000,106.500,107.500
0.297,34.000,48.000,102.500,105.000
0.298,28.000,42.500,97.500,101.500
0.299,21.000,37.500,92.500,96.500
0.300,14.500,34.000,87.500,92.000
0.301,9.000,32.000,83.500,88.000
0.302,5.500,30.500,80.000,84.000
0.303,3.500,30.500,76.500,80.500
0.304,2.500,31.500,74.500,78.000
0.305,3.500,34.000,73.500,76.000
0.306,6.000,38.000,74.000,76.000
0.307,9.500,43.500,76.500,78.000
0.308,14.500,50.500,81.500,82.000
0.309,21.000,58.500,88.000,87.500
0.310,28.000,67.500,96.500,94.500
0.311,36.500,77.000,105.000,102.000
0.312,44.500,86.000,114.000,110.500
0.313,53.000,94.500,123.000,118.500
0.314,60.500,101.500,130.500,125.500
0.315,66.000,107.000,136.500,131.000
0.316,70.000,110.500,140.000,135.000
0.317,72.500,112.500,143.000,138.000
0.318,74.500,114.500,145.000,140.000
0.319,75.500,115.000,146.500,141.500
0.320,75.000,114.500,146.000,141.000
0.321,72.500,111.000,143.500,138.500
0.322,67.500,105.500,138.500,134.000
0.323,62.000,99.000,133.000,128.000
0.324,56.000,92.000,127.000,122.500
0.325,50.000,85.000,121.000,117.000
0.326,44.500,78.500,116.000,112.000
0.327,39.500,72.500,111.500,108.000
0.328,35.500,67.500,108.500,104.500
0.329,32.500,64.500,107.000,103.000
0.330,32.000,64.000,107.500,104.000
0.331,33.000,65.500,109.500,106.000
0.332,34.500,67.500,111.500,108.500
0.333,36.000,69.500,113.500,110.500
0.334,37.500,71.000,114.500,111.500
0.335,40.000,73.000,116.500,113.000
0.336,43.000,75.500,118.000,115.000
0.337,46.000,78.500,120.500,117.500
0.338,49.000,81.000,123.000,119.500
0.339,51.500,83.500,124.500,121.500
0.340,52.500,85.000,125.000,122.000
0.341,53.000,85.500,124.500,121.000
0.342,52.500,86.000,123.500,120.000
0.343,52.500,86.000,122.000,119.000
0.344,52.000,86.000,121.000,117.500
0.345,51.500,86.000,120.000,116.500
0.346,51.500,86.500,119.500,116.000
0.347,52.500,88.000,120.500,116.500
0.348,54.000,89.500,122.000,118.000
0.349,56.500,92.000,124.000,120.000
0.350,59.000,94.500,126.500,122.500
0.351,60.500,95.500,127.500,124.000
0.352,60.500,95.500,127.500,124.000
0.353,60.000,95.000,127.000,123.500
0.354,59.500,94.500,126.500,123.500
0.355,60.000,94.500,127.000,124.500
0.356,61.000,95.500,127.500,125.500
0.357,60.500,94.500,127.000,125.000
0.358,58.000,91.500,123.500,122.500
0.359,54.000,87.500,119.500,118.000
0.360,50.500,83.500,115.500,114.000
0.361,49.000,81.500,113.000,111.500
0.362,49.000,81.000,113.000,111.000
0.363,50.000,81.500,113.000,111.500
0.364,50.500,82.000,113.500,111.500
0.365,50.500,81.500,114.000,111.500
0.366,50.500,81.500,114.500,111.500
0.367,50.500,82.000,115.000,112.500
0.368,51.000,82.500,116.500,113.500
0.369,52.000,83.500,118.000,115.000
0.370,53.000,84.500,119.500,116.500
0.371,53.500,85.500,120.500,117.500
0.372,54.500,86.500,121.500,118.500
0.373,56.000,88.000,123.000,120.500
0.374,58.000,90.500,125.500,123.000
0.375,60.000,92.500,127.500,125.500
0.376,61.000,94.000,129.000,127.500
0.377,61.000,94.500,129.000,127.500
0.378,60.000,93.500,128.000,127.000
0.379,59.000,92.000,127.000,126.000
0.380,58.000,91.000,126.000,125.000
0.381,57.500,90.000,125.000,124.000
0.382,57.500,89.000,124.000,123.500
0.383,58.000,89.000,124.000,123.500
0.384,59.000,89.000,124.500,124.000
0.385,60.000,89.500,125.500,124.500
0.386,61.000,89.500,126.000,125.000
0.387,60.000,88.000,125.500,124.000
0.388,57.500,86.000,123.000,121.500
0.389,54.000,82.500,119.500,118.000
0.390,50.000,79.000,116.000,114.500
0.391,47.500,76.500,113.500,112.000
0.392,46.000,76.000,112.500,111.500
0.393,47.000,77.500,114.000,113.000
0.394,49.500,80.500,117.000,116.500
0.395,53.500,85.500,121.500,121.500
0.396,58.500,90.500,127.000,127.000
0.397,63.500,96.000,132.000,132.000
0.398,68.500,100.500,136.500,136.500
0.399,72.000,104.500,140.000,140.000
0.400,74.500,106.500,142.000,142.000
0.401,75.500,107.000,142.000,142.500
0.402,75.000,106.000,141.500,142.000
0.403,74.000,105.000,140.000,141.000
0.404,73.000,104.000,139.000,139.500
0.405,72.500,103.000,138.000,139.000
0.406,73.000,103.500,138.000,139.000
0.407,73.500,104.000,138.500,139.000
0.408,73.500,104.500,138.500,139.500
0.409,73.500,104.000,138.500,139.000
0.410,73.000,103.500,138.000,138.500
0.411,72.000,103.000,137.500,138.500
0.412,72.000,102.500,137.500,139.000
0.413,72.000,103.000,138.000,139.500
0.414,71.500,103.500,139.000,140.000
0.415,71.000,103.000,139.000,140.000
0.416,69.500,102.000,138.000,139.000
0.417,67.500,100.000,136.000,137.000
0.418,65.000,97.000,133.000,134.000
0.419,62.000,94.500,130.000,131.000
0.420,60.000,92.000,128.000,128.500
0.421,58.500,91.000,127.000,127.500
0.422,59.000,92.000,128.000,128.000
0.423,61.500,93.500,130.000,130.000
0.424,64.000,96.000,132.500,132.500
0.425,66.500,98.500,135.000,134.500
0.426,68.500,100.000,137.000,136.000
0.427,71.000,102.000,139.500,138.500
0.428,75.000,106.000,143.500,142.500
0.429,81.000,111.000,149.500,148.500
0.430,88.000,117.500,156.500,155.500
0.431,95.500,124.000,164.000,163.500
0.432,102.500,131.000,171.500,171.500
0.433,109.500,138.000,178.500,179.000
0.434,116.000,144.500,185.500,186.000
0.435,121.500,150.500,191.000,192.000
0.436,126.000,155.500,196.000,197.000
0.437,130.500,160.000,199.500,200.500
0.438,133.500,163.500,202.000,203.000
0.439,135.500,165.500,202.500,203.500
0.440,135.500,165.500,201.000,202.500
0.441,133.500,163.000,197.500,199.000
0.442,128.000,158.000,191.500,192.500
0.443,120.000,149.000,182.000,183.000
0.444,108.500,138.000,170.500,171.500
0.445,96.500,125.500,157.500,159.000
0.446,85.000,114.500,146.000,147.500
0.447,76.000,105.000,136.500,138.500
0.448,69.000,98.000,129.500,131.000
0.449,64.000,92.500,123.500,124.500
0.450,59.500,88.000,119.000,119.500
0.451,56.000,84.500,115.000,115.500
0.452,54.000,82.000,113.000,113.000
0.453,53.500,81.500,112.500,112.500
0.454,55.500,83.500,114.500,114.500
0.455,58.500,87.000,117.500,118.000
0.456,61.000,90.000,120.500,121.500
0.457,62.000,91.500,122.000,123.000
0.458,61.500,90.500,121.500,122.500
0.459,58.500,88.000,119.500,120.500
0.460,55.500,84.500,116.500,117.500
0.461,52.000,80.500,113.500,114.500
0.462,49.000,77.500,111.500,112.000
0.463,47.500,75.500,110.000,110.500
0.464,47.000,75.000,109.500,110.000
0.465,48.500,76.000,111.000,111.000
0.466,50.500,78.000,112.500,112.500
0.467,53.000,79.500,114.500,114.000
0.468,55.000,81.000,116.500,115.500
0.469,55.500,82.000,117.500,116.500
0.470,55.500,82.000,118.000,117.500
0.471,56.000,82.500,118.000,118.000
0.472,56.000,82.500,118.500,118.500
0.473,55.500,82.500,118.500,118.500
0.474,54.000,81.000,117.000,117.500
0.475,51.500,78.000,114.000,114.500
0.476,47.000,73.500,109.500,110.500
0.477,42.500,68.500,105.000,106.000
0.478,38.500,64.500,101.000,102.500
0.479,35.500,61.500,98.000,99.500
0.480,33.500,59.000,96.000,97.500
0.481,32.500,58.000,94.500,96.000
0.482,32.500,58.000,95.000,96.000
0.483,33.500,58.500,95.500,96.500
0.484,34.000,59.500,96.500,97.000
0.485,34.500,59.500,96.500,96.500
0.486,33.500,58.500,95.500,95.500
0.487,32.500,57.000,94.500,94.000
0.488,31.000,55.500,93.000,92.500
0.489,30.000,53.500,92.500,92.000
0.490,29.500,52.500,92.500,92.500
0.491,30.000,52.500,93.000,93.500
0.492,31.500,54.000,95.000,96.000
0.493,34.000,56.500,97.500,99.500
0.494,37.500,60.000,101.000,104.000
0.495,41.000,63.500,104.500,108.000
0.496,44.000,67.000,107.000,111.500
0.497,46.000,70.000,109.000,114.000
0.498,48.000,72.000,110.500,115.500
0.499,49.000,73.000,110.500,115.500
0.500,48.000,72.500,110.000,114.500
0.501,45.500,70.500,107.500,112.000
0.502,42.000,67.000,104.500,108.000
0.503,38.000,63.000,100.500,103.500
0.504,34.000,59.000,96.500,99.000
0.505,30.500,56.000,93.500,95.500
0.506,29.000,54.500,92.500,94.000
0.507,28.500,54.500,93.000,93.500
0.508,29.500,56.000,94.500,95.000
0.509,31.500,58.000,97.000,97.000
0.510,34.000,61.000,100.500,100.500
0.511,37.500,65.000,105.000,105.000
0.512,41.000,69.000,109.000,109.500
0.513,43.000,71.500,111.500,112.500
0.514,43.500,72.000,112.000,113.000
0.515,42.500,71.000,111.000,112.000
0.516,42.000,69.500,109.000,110.000
0.517,41.500,68.000,107.000,108.500
0.518,42.500,67.000,105.500,107.000
0.519,43.500,67.000,104.500,105.500
0.520,44.500,66.500,103.000,104.000
0.521,45.000,66.000,101.500,102.000
0.522,44.500,65.500,100.000,100.000
0.523,44.500,65.000,98.500,98.000
0.524,44.000,64.000,97.000,96.500
0.525,43.500,63.500,96.000,95.500
0.526,43.500,64.000,95.500,95.000
0.527,44.500,65.000,96.000,96.000
0.528,46.000,66.500,98.000,97.500
0.529,48.000,69.000,100.000,100.000
0.530,49.500,71.000,102.500,102.000
0.531,50.000,72.500,104.500,104.500
0.532,50.500,73.500,106.000,106.000
0.533,49.000,73.000,106.500,106.500
0.534,47.000,71.500,105.500,106.000
0.535,43.000,68.000,103.000,104.000
0.536,38.500,64.000,100.000,101.000
0.537,33.000,59.000,96.000,96.500
0.538,27.500,53.500,91.000,91.500
0.539,22.000,47.500,86.000,86.500
0.540,18.000,43.500,82.500,82.500
0.541,17.000,42.000,81.500,81.500
0.542,20.000,44.500,84.000,84.000
0.543,27.000,51.500,90.500,90.500
0.544,37.500,61.500,100.500,100.000
0.545,49.000,73.000,112.000,111.500
0.546,60.000,83.500,122.500,121.500
0.547,68.000,91.500,130.000,129.000
0.548,72.000,96.000,133.500,132.500
0.549,73.000,97.000,134.000,133.000
0.550,71.500,95.500,132.000,131.500
0.551,69.000,92.500,129.000,128.500
0.552,66.500,90.000,126.000,125.500
0.553,64.000,87.500,123.000,123.000
0.554,61.500,85.000,120.500,120.500
0.555,58.500,82.000,117.500,117.500
0.556,55.000,78.000,114.000,114.000
0.557,50.500,73.500,109.500,110.000
0.558,46.500,69.500,105.500,106.000
0.559,43.500,67.000,103.000,103.500
0.560,43.500,66.500,102.500,103.500
0.561,46.000,69.000,105.500,106.000
0.562,51.500,74.500,111.000,111.000
0.563,59.000,82.500,118.500,119.000
0.564,69.000,92.500,128.500,128.500
0.565,80.500,104.000,140.000,140.000
0.566,94.000,117.000,153.000,153.500
0.567,107.500,130.500,167.000,167.500
0.568,121.000,143.500,180.500,181.000
0.569,132.000,155.000,192.000,192.500
0.570,141.000,163.500,201.000,201.500
0.571,147.500,170.000,208.000,208.500
0.572,152.000,174.500,212.500,213.500
0.573,156.000,178.500,216.500,218.000
0.574,161.000,183.500,222.000,223.500
0.575,168.500,191.500,230.500,232.000
0.576,179.500,202.500,241.500,243.500
0.577,191.500,214.500,254.000,256.000
0.578,203.000,226.000,266.000,268.000
0.579,212.000,235.500,275.500,278.000
0.580,219.000,242.500,282.500,285.000
0.581,224.000,247.500,288.000,290.500
0.582,229.000,252.000,293.000,295.500
0.583,234.000,257.500,298.000,300.500
0.584,240.500,263.500,304.000,306.500
0.585,248.000,270.500,311.000,313.000
0.586,255.000,277.500,317.500,320.000
0.587,262.000,283.500,324.000,326.500
0.588,267.500,289.000,329.500,331.500
0.589,271.500,293.000,333.500,335.500
0.590,274.000,295.500,336.000,338.500
0.591,276.000,297.500,338.500,341.000
0.592,278.000,299.500,340.500,343.500
0.593,280.000,302.000,342.500,346.000
0.594,282.000,304.500,345.000,348.500
0.595,284.500,306.500,347.500,351.500
0.596,286.000,308.000,349.000,352.500
0.597,285.000,306.500,347.500,351.500
0.598,280.500,302.000,343.000,347.000
0.599,272.500,293.500,334.500,338.000
0.600,261.000,281.500,322.000,326.000
0.601,245.500,266.500,306.500,309.500
0.602,227.000,248.000,287.500,290.500
0.603,206.500,227.000,266.500,269.000
0.604,184.500,205.500,244.500,246.500
0.605,164.000,184.500,223.500,225.000
0.606,146.000,166.500,205.000,206.500
0.607,133.000,152.500,191.000,192.500
0.608,123.500,143.000,181.500,183.000
0.609,118.000,137.000,175.500,176.500
0.610,114.000,132.500,171.000,172.500
0.611,110.000,129.000,167.000,168.500
0.612,106.000,125.000,163.000,165.000
0.613,101.500,120.500,158.500,160.500
0.614,96.000,115.000,153.000,155.000
0.615,88.500,107.500,146.000,148.000
0.616,79.000,98.000,137.000,139.000
0.617,68.500,87.500,126.500,128.500
0.618,57.500,76.500,115.500,117.500
0.619,47.000,66.000,105.000,107.000
0.620,37.000,56.000,95.000,97.000
0.621,28.500,47.500,86.500,88.500
0.622,22.000,40.500,79.500,81.500
0.623,17.500,36.000,75.000,77.000
0.624,16.000,34.500,73.500,75.000
0.625,17.000,35.500,74.500,76.500
0.626,20.000,38.500,77.500,79.500
0.627,24.500,42.500,82.000,84.000
0.628,29.000,47.000,87.000,88.500
0.629,33.000,51.500,91.500,93.000
0.630,37.000,55.000,95.500,97.000
0.631,40.000,58.500,99.000,100.500
0.632,43.500,62.000,102.500,104.500
0.633,47.000,66.000,106.500,109.000
0.634,51.500,70.500,111.000,113.500
0.635,56.500,75.000,116.000,118.500
0.636,61.000,80.000,121.500,124.000
0.637,66.000,85.000,126.500,129.000
0.638,70.500,90.000,131.500,134.000
0.639,75.500,94.000,136.000,138.000
0.640,79.000,97.500,139.500,142.000
0.641,82.000,99.500,141.500,144.000
0.642,83.000,100.000,142.500,145.000
0.643,82.500,99.500,142.000,144.500
0.644,82.000,98.500,141.500,143.500
0.645,81.500,98.000,141.000,143.000
0.646,81.500,98.000,141.000,142.500
0.647,82.500,98.500,141.500,143.000
0.648,83.500,99.500,143.000,144.000
0.649,85.000,101.500,144.500,145.500
0.650,87.500,104.000,147.500,148.500
0.651,91.000,108.000,151.500,152.000
0.652,95.000,112.500,156.500,157.000
0.653,100.000,117.500,161.500,162.500
0.654,104.500,122.000,166.500,167.000
0.655,107.500,125.000,169.500,170.000
0.656,108.500,126.000,170.500,171.500
0.657,107.500,125.000,169.500,171.000
0.658,105.500,122.500,167.500,169.000
0.659,102.000,119.000,164.500,166.000
0.660,98.000,115.000,161.000,162.500
0.661,94.000,110.500,157.000,158.000
0.662,90.000,106.500,153.500,154.500
0.663,87.000,104.000,151.000,151.500
0.664,86.500,103.000,150.000,150.500
0.665,88.000,104.000,151.500,151.500
0.666,91.500,108.000,155.000,154.500
0.667,97.500,113.500,161.000,160.000
0.668,105.000,120.500,168.000,167.000
0.669,112.000,127.500,175.000,174.000
0.670,118.000,133.000,180.500,180.000
0.671,121.500,137.000,184.000,183.500
0.672,123.500,138.500,186.000,185.500
0.673,124.000,139.000,186.500,186.000
0.674,123.500,138.500,186.500,186.000
0.675,122.500,138.000,186.000,186.000
0.676,121.500,137.000,185.500,185.500
0.677,121.000,136.500,185.000,185.000
0.678,120.500,135.500,184.500,184.500
0.679,120.000,134.500,184.000,184.000
0.680,119.500,134.000,183.000,183.500
0.681,119.000,133.000,182.500,182.500
0.682,118.500,133.000,182.000,182.000
0.683,118.500,132.500,181.500,181.500
0.684,118.000,132.000,181.000,180.500
0.685,117.500,131.500,180.500,179.500
0.686,116.500,130.500,179.500,179.000
0.687,116.000,130.000,178.500,178.000
0.688,115.000,129.500,178.000,177.500
0.689,114.500,129.000,177.500,177.000
0.690,114.000,129.000,177.500,177.000
0.691,114.000,129.000,178.000,177.000
0.692,115.000,130.500,179.500,178.500
0.693,117.500,132.500,181.500,181.000
0.694,120.500,135.500,184.500,184.000
0.695,123.500,138.500,188.000,187.000
0.696,126.500,141.000,190.500,189.500
0.697,128.500,142.000,192.000,191.500
0.698,130.000,143.000,193.500,192.500
0.699,131.500,144.000,194.500,193.500
0.700,133.500,145.500,196.500,195.000
0.701,135.500,147.000,198.500,197.000
0.702,137.000,149.000,200.000,198.000
0.703,138.500,150.500,201.500,199.000
0.704,139.500,151.500,202.500,199.500
0.705,140.000,152.000,202.500,199.500
0.706,141.000,153.000,203.500,199.500
0.707,142.500,154.000,204.500,201.000
0.708,144.500,156.500,207.000,203.000
0.709,147.500,159.000,209.500,205.500
0.710,150.500,161.500,212.500,208.500
0.711,153.000,164.000,215.500,211.000
0.712,155.000,166.000,218.000,213.500
0.713,156.000,167.000,219.500,215.000
0.714,156.500,167.500,220.000,215.500
0.715,156.500,167.500,220.500,216.000
0.716,156.500,167.500,221.000,216.000
0.717,156.000,167.000,221.000,215.500
0.718,155.500,166.000,221.000,215.000
0.719,154.500,165.500,220.500,214.500
0.720,154.000,164.500,220.000,213.500
0.721,154.000,164.000,219.500,213.000
0.722,154.000,164.000,219.500,212.500
0.723,154.000,163.500,219.500,212.000
0.724,154.000,163.000,219.000,211.000
0.725,153.500,162.500,218.000,210.000
0.726,152.500,161.500,217.500,209.000
0.727,153.000,161.500,217.500,209.000
0.728,154.000,162.500,218.500,210.000
0.729,155.500,163.500,220.000,211.000
0.730,157.000,165.500,222.000,212.500
0.731,159.000,167.000,223.500,214.000
0.732,160.500,168.500,225.500,216.000
0.733,163.000,170.500,228.000,218.500
0.734,165.500,173.000,230.500,221.000
0.735,168.000,175.500,233.500,224.000
0.736,170.000,177.000,235.500,226.000
0.737,171.500,178.500,237.000,227.500
0.738,173.500,179.500,239.000,229.000
0.739,175.000,181.500,241.000,231.000
0.740,177.000,183.500,243.500,233.000
0.741,178.500,184.500,245.000,234.500
0.742,178.500,185.000,245.500,235.000
0.743,178.000,184.500,245.500,234.500
0.744,178.000,184.000,245.500,234.500
0.745,177.500,184.000,245.500,234.000
0.746,177.500,183.500,245.000,234.000
0.747,176.500,183.000,244.500,233.000
0.748,175.500,182.000,243.500,232.000
0.749,174.500,181.000,242.500,231.000
0.750,174.500,181.000,243.000,231.000
0.751,175.500,182.500,244.500,232.500
0.752,179.000,185.500,247.500,235.500
0.753,184.000,190.500,253.000,240.500
0.754,190.500,197.000,259.500,247.500
0.755,198.000,204.500,267.000,254.500
0.756,204.500,211.000,273.500,261.000
0.757,210.000,216.500,279.500,266.500
0.758,214.500,220.500,283.500,271.000
0.759,216.500,222.000,286.000,273.000
0.760,217.000,221.500,286.500,273.500
0.761,215.500,220.000,285.500,272.000
0.762,213.500,217.500,284.000,270.000
0.763,212.000,215.500,283.000,268.500
0.764,210.500,214.000,282.000,267.000
0.765,210.500,214.000,282.000,267.000
0.766,211.500,214.500,283.000,267.500
0.767,212.500,216.000,284.500,268.500
0.768,214.500,218.000,286.000,270.000
0.769,216.500,220.000,288.000,271.500
0.770,218.000,221.500,289.500,272.500
0.771,219.500,223.500,290.500,273.500
0.772,220.500,225.000,291.500,274.000
0.773,222.000,226.500,292.500,275.500
0.774,223.500,228.500,294.000,277.000
0.775,225.000,231.000,296.000,278.500
0.776,227.000,233.000,297.500,280.500
0.777,228.000,234.500,298.500,281.500
0.778,228.000,234.500,298.500,281.500
0.779,227.500,234.500,298.500,281.000
0.780,228.000,235.000,298.500,281.000
0.781,228.500,235.500,299.500,281.000
0.782,230.000,236.500,300.000,281.500
0.783,230.500,237.500,300.500,281.500
0.784,230.500,237.000,300.000,281.000
0.785,230.000,236.500,299.500,280.000
0.786,230.000,236.500,299.500,280.000
0.787,231.500,238.000,301.000,281.000
0.788,233.000,239.500,303.000,283.000
0.789,234.500,241.000,305.000,284.500
0.790,235.500,242.500,306.500,286.500
0.791,237.000,244.000,308.500,288.000
0.792,238.500,246.000,310.500,290.000
0.793,240.000,247.500,312.000,292.000
0.794,241.000,248.500,313.500,293.500
0.795,242.000,249.000,314.000,294.000
0.796,242.000,249.500,314.500,294.500
0.797,242.000,249.000,314.500,294.500
0.798,242.000,248.500,314.500,294.500
0.799,242.500,249.000,315.000,294.500
0.800,243.500,250.000,316.000,296.000
0.801,245.500,252.000,318.500,298.000
0.802,247.500,254.000,320.500,300.000
0.803,249.000,255.500,322.000,301.500
0.804,250.000,256.500,323.000,302.000
0.805,250.500,256.500,323.500,302.500
0.806,250.500,256.500,324.000,303.000
0.807,250.500,256.500,324.000,303.000
0.808,250.000,256.000,324.000,302.500
0.809,248.500,255.500,323.500,301.500
0.810,247.500,254.500,323.000,301.000
0.811,247.000,254.000,322.500,300.000
0.812,246.500,253.500,322.000,300.000
0.813,246.000,253.000,322.000,299.500
0.814,246.500,253.500,322.000,300.000
0.815,246.500,253.500,322.500,300.000
0.816,246.500,253.000,322.000,300.000
0.817,245.500,252.500,321.500,299.000
0.818,244.500,251.000,320.000,298.000
0.819,243.000,249.500,318.500,296.500
0.820,241.500,248.000,317.000,295.000
0.821,240.000,246.500,315.500,293.000
0.822,238.500,245.000,313.500,291.500
0.823,237.000,243.500,312.000,289.500
0.824,235.500,242.000,310.500,287.500
0.825,234.000,240.000,308.500,285.500
0.826,232.000,238.000,306.500,283.000
0.827,229.500,236.000,304.500,280.500
0.828,226.500,233.000,301.500,277.500
0.829,223.000,229.000,298.000,274.000
0.830,218.500,225.000,294.000,270.000
0.831,214.500,220.500,290.000,266.000
0.832,211.500,217.500,287.000,263.500
0.833,209.500,215.500,285.000,261.500
0.834,209.000,215.000,284.500,261.000
0.835,209.000,215.000,284.500,261.500
0.836,208.500,215.000,284.500,261.500
0.837,208.000,214.500,284.000,261.000
0.838,206.000,212.500,282.500,259.000
0.839,203.000,210.000,279.500,256.000
0.840,199.000,206.000,276.000,251.500
0.841,194.500,201.500,271.500,246.500
0.842,189.000,196.000,266.000,241.000
0.843,184.000,190.500,261.000,235.500
0.844,179.000,185.500,256.000,230.500
0.845,175.000,181.500,251.500,226.500
0.846,172.500,178.000,248.500,223.500
0.847,171.000,176.000,247.000,221.500
0.848,170.000,174.500,245.500,220.000
0.849,170.000,173.000,245.000,219.000
0.850,169.500,172.000,244.000,218.000
0.851,169.000,171.000,243.500,217.000
0.852,168.500,170.000,243.000,217.000
0.853,169.000,170.000,243.000,217.000
0.854,170.000,171.000,244.000,218.000
0.855,171.500,173.000,246.000,220.000
0.856,173.000,175.000,247.500,222.000
0.857,174.500,176.500,249.000,223.000
0.858,174.500,177.000,249.000,223.000
0.859,173.000,176.000,247.500,221.500
0.860,170.000,173.500,245.000,218.500
0.861,166.500,170.000,242.000,215.000
0.862,163.000,166.500,238.500,211.000
0.863,159.000,162.500,235.000,207.000
0.864,155.500,159.000,231.500,203.000
0.865,152.500,155.500,228.500,199.500
0.866,149.500,153.000,225.500,196.500
0.867,147.000,150.500,223.000,194.000
0.868,145.500,148.500,221.500,192.000
0.869,144.000,147.000,220.000,190.500
0.870,142.500,146.000,219.500,189.000
0.871,141.500,144.500,218.500,188.000
0.872,139.500,142.500,217.000,186.000
0.873,137.000,140.000,214.500,184.000
0.874,134.000,137.000,212.000,181.500
0.875,131.000,134.500,209.500,179.000
0.876,129.000,132.000,207.500,177.000
0.877,126.500,129.500,205.500,175.000
0.878,124.000,127.000,203.500,172.500
0.879,121.500,124.500,201.500,170.000
0.880,119.500,122.500,200.000,168.000
0.881,118.500,121.500,199.000,167.000
0.882,119.000,121.500,199.500,167.000
0.883,119.500,122.000,200.000,168.000
0.884,120.000,122.000,201.000,168.500
0.885,120.500,122.500,201.500,169.000
0.886,120.500,123.000,202.000,169.500
0.887,121.000,123.000,203.000,170.000
0.888,121.000,123.000,203.000,170.000
0.889,119.500,122.000,202.000,169.000
0.890,118.000,120.500,201.000,168.000
0.891,116.000,119.000,199.500,167.000
0.892,115.000,117.500,199.000,166.500
0.893,115.000,117.500,199.000,166.500
0.894,116.000,118.000,199.500,167.500
0.895,117.000,118.500,200.000,168.000
0.896,117.500,118.500,200.000,167.500
0.897,118.000,118.000,198.500,166.000
0.898,118.000,117.000,197.000,164.000
0.899,118.000,115.500,195.000,161.500
0.900,117.500,114.000,192.500,158.500
0.901,116.500,112.500,190.000,155.000
0.902,115.500,111.500,188.000,152.000
0.903,114.000,110.000,186.000,149.500
0.904,113.000,109.000,184.500,147.500
0.905,112.000,108.000,184.000,146.500
0.906,111.500,108.000,184.000,146.000
0.907,111.500,108.500,184.500,146.500
0.908,113.000,110.000,185.500,147.500
0.909,114.500,111.500,187.500,149.500
0.910,115.500,113.000,189.500,151.000
0.911,116.000,114.000,191.000,153.000
0.912,116.000,115.000,193.000,154.500
0.913,115.500,116.000,194.500,156.000
0.914,115.000,116.000,195.500,157.500
0.915,113.500,115.500,195.500,157.500
0.916,112.000,114.500,195.000,157.500
0.917,110.000,113.000,194.000,156.500
0.918,108.500,111.500,193.000,155.500
0.919,107.000,110.500,192.000,154.500
0.920,106.500,109.500,191.500,154.000
0.921,106.500,109.000,190.500,153.500
0.922,106.000,108.500,190.000,152.500
0.923,105.500,107.500,189.000,151.500
0.924,105.000,107.000,188.500,150.500
0.925,104.500,107.000,188.000,150.000
0.926,104.000,106.500,188.000,149.000
0.927,103.500,106.500,187.500,148.500
0.928,103.000,106.000,187.500,148.000
0.929,102.000,105.500,187.000,147.000
0.930,101.000,105.000,186.500,146.500
0.931,100.000,104.500,186.000,146.000
0.932,99.500,104.000,185.500,145.500
0.933,99.000,103.500,185.500,146.000
0.934,99.000,103.500,186.000,146.000
0.935,99.000,103.500,186.000,146.500
0.936,99.000,103.000,186.000,146.000
0.937,98.500,102.000,185.500,145.500
0.938,97.500,101.500,185.500,145.000
0.939,97.000,100.500,184.500,144.000
0.940,96.000,99.500,184.000,143.000
0.941,95.000,98.000,183.000,141.500
0.942,94.000,96.500,181.500,140.000
0.943,93.000,95.000,180.500,138.500
0.944,92.000,93.500,179.500,137.500
0.945,92.000,93.000,179.500,137.000
0.946,93.000,93.500,180.000,137.500
0.947,94.000,94.500,181.000,138.500
0.948,95.000,95.500,182.500,139.500
0.949,96.500,97.000,183.500,141.000
0.950,97.500,98.500,185.000,142.000
0.951,98.000,99.000,185.500,142.500
0.952,98.500,100.000,186.500,143.500
0.953,99.500,101.500,188.000,145.000
0.954,101.500,103.500,190.000,147.500
0.955,104.000,106.000,193.000,150.500
0.956,106.000,108.000,195.000,152.500
0.957,107.000,109.500,196.000,154.000
0.958,107.000,109.500,196.000,154.000
0.959,106.500,109.500,196.000,154.000
0.960,107.000,109.500,196.000,154.000
0.961,107.500,110.500,196.500,154.000
0.962,108.500,111.000,196.500,154.500
0.963,108.000,110.500,196.500,153.500
0.964,106.000,109.000,195.000,152.000
0.965,103.500,106.500,192.500,149.000
0.966,101.000,104.000,190.500,146.500
0.967,99.000,102.500,189.000,144.500
0.968,98.000,102.000,188.500,144.000
0.969,98.500,102.500,189.000,144.500
0.970,99.500,103.500,190.000,145.500
0.971,101.000,105.500,192.000,147.500
0.972,102.500,107.000,193.500,149.500
0.973,104.000,108.500,195.000,151.000
0.974,105.000,109.500,196.500,152.500
0.975,105.500,110.000,197.500,153.500
0.976,105.500,110.500,197.500,153.500
0.977,105.000,109.500,197.000,153.500
0.978,103.500,108.500,196.000,152.500
0.979,102.000,107.000,195.000,151.500
0.980,100.500,105.500,193.500,149.500
0.981,99.000,103.500,191.500,147.500
0.982,97.000,101.500,189.500,145.500
0.983,95.000,99.000,187.500,143.000
0.984,93.000,97.000,185.500,140.500
0.985,91.500,95.000,183.500,139.000
0.986,91.000,94.500,183.000,138.500
0.987,91.500,95.000,183.500,139.000
0.988,92.500,96.000,184.500,140.000
0.989,93.000,96.500,185.500,141.000
0.990,93.500,97.000,186.000,141.500
0.991,94.000,98.000,186.500,142.000
0.992,94.500,98.500,187.500,143.000
0.993,95.500,99.500,188.500,144.000
0.994,96.000,100.000,189.000,145.000
0.995,96.500,100.000,189.500,145.000
0.996,96.500,100.000,189.500,145.000
0.997,97.000,100.000,190.000,145.500
0.998,97.500,100.000,190.000,145.500
0.999,98.000,100.000,190.000,145.500
1.000,97.500,99.500,189.500,145.000
1.001,96.500,98.000,188.500,143.500
1.002,95.500,97.000,187.500,142.500
1.003,95.500,97.000,187.500,142.000
1.004,96.500,98.500,189.000,143.500
1.005,98.500,101.000,191.000,145.500
1.006,100.500,103.000,193.500,148.000
1.007,101.500,104.500,194.500,149.000
1.008,101.000,104.000,194.500,149.000
1.009,100.000,103.500,193.500,148.000
1.010,99.500,103.000,193.000,147.500
1.011,99.500,103.500,193.500,147.500
1.012,100.000,104.500,194.500,148.500
1.013,100.500,105.000,195.000,149.500
1.014,100.500,105.000,195.000,149.500
1.015,100.500,105.000,195.000,149.500
1.016,100.500,105.000,195.500,150.000
1.017,101.000,105.000,196.000,150.500
1.018,102.000,106.000,196.500,151.000
1.019,103.000,106.500,197.500,152.000
1.020,103.500,107.000,198.000,152.500
1.021,103.500,107.000,198.000,152.500
1.022,102.500,106.000,196.500,151.000
1.023,101.500,104.500,195.000,149.500
1.024,99.500,102.500,193.000,147.500
1.025,98.000,100.500,191.000,145.000
1.026,96.000,98.500,189.000,142.500
1.027,94.000,96.000,186.500,140.500
1.028,92.000,94.000,185.000,138.000
1.029,90.500,92.500,183.500,136.500
1.030,89.500,92.000,183.500,136.500
1.031,90.500,93.000,184.500,137.500
1.032,93.000,95.500,187.500,140.500
1.033,96.500,99.000,191.500,145.000
1.034,101.000,103.500,196.500,149.500
1.035,104.000,106.500,200.000,153.500
1.036,106.000,108.500,202.000,155.500
1.037,106.000,108.500,202.000,156.000
1.038,105.000,107.000,201.000,154.500
1.039,102.500,105.000,199.000,152.500
1.040,100.000,103.000,196.500,150.000
1.041,98.000,101.000,195.000,148.000
1.042,97.000,99.500,194.000,146.500
1.043,97.000,99.500,193.500,146.000
1.044,97.500,100.500,194.500,147.000
1.045,100.000,102.500,196.500,148.500
1.046,102.500,105.500,199.500,151.000
1.047,105.000,108.000,202.000,153.500
1.048,107.000,110.000,204.000,155.500
1.049,107.500,110.500,205.000,156.500
1.050,107.500,110.500,205.000,156.500
1.051,107.500,110.500,205.500,157.000
1.052,109.000,111.500,207.000,158.000
1.053,111.500,114.500,209.500,161.000
1.054,115.500,118.500,214.000,165.500
1.055,121.000,123.500,219.500,171.000
1.056,126.000,128.500,224.500,176.500
1.057,130.000,132.500,228.500,180.500
1.058,132.500,135.000,231.000,183.000
1.059,133.500,136.000,232.000,183.500
1.060,134.500,136.500,233.000,184.000
1.061,135.500,137.000,234.000,184.500
1.062,137.000,138.000,235.000,185.500
1.063,138.000,139.000,236.500,186.000
1.064,139.000,139.500,237.000,186.000
1.065,138.500,139.000,236.500,185.500
1.066,137.500,137.500,235.000,184.000
1.067,135.000,135.000,232.500,181.500
1.068,132.000,132.000,229.500,178.500
1.069,128.500,128.500,226.000,175.000
1.070,125.000,125.000,223.000,171.500
1.071,122.500,122.500,220.500,169.000
1.072,120.500,120.500,219.000,167.500
1.073,119.500,119.500,218.500,166.500
1.074,119.500,119.500,218.500,167.000
1.075,121.000,120.500,220.000,168.500
1.076,123.000,123.000,222.000,171.000
1.077,126.000,125.500,225.000,174.000
1.078,129.000,128.500,228.500,177.500
1.079,132.500,131.500,232.500,181.000
1.080,136.000,135.000,236.000,184.500
1.081,139.500,138.000,240.000,188.000
1.082,143.500,141.000,243.500,191.000
1.083,147.000,144.000,247.000,194.000
1.084,150.500,146.500,250.500,197.500
1.085,153.500,149.500,253.500,200.000
1.086,156.500,152.000,256.000,202.500
1.087,158.000,154.000,257.500,203.500
1.088,159.500,155.500,258.500,204.500
1.089,160.500,156.500,259.500,205.000
1.090,161.500,157.500,260.500,206.000
1.091,162.500,159.000,261.500,207.000
1.092,163.500,160.000,263.000,208.500
1.093,164.000,160.500,263.500,209.000
1.094,163.500,160.500,263.500,208.500
1.095,162.000,159.000,262.000,207.000
1.096,159.500,156.000,259.500,204.500
1.097,155.500,152.000,256.000,201.000
1.098,151.000,147.500,252.000,196.500
1.099,146.000,142.500,247.500,191.500
1.100,141.500,138.000,243.500,187.000
1.101,137.500,133.500,239.500,183.000
1.102,134.500,130.500,236.500,179.500
1.103,132.000,128.000,234.000,177.000
1.104,130.000,126.500,232.000,175.000
1.105,129.000,125.500,231.000,174.000
1.106,128.500,125.000,230.500,173.000
1.107,128.000,125.500,230.500,173.000
1.108,128.000,125.500,230.500,173.000
1.109,127.500,125.000,230.000,172.500
1.110,127.000,124.500,230.000,172.000
1.111,126.000,124.000,229.000,171.500
1.112,125.000,123.000,228.500,170.500
1.113,123.500,121.500,227.500,169.500
1.114,121.500,120.000,226.000,168.000
1.115,119.500,118.000,224.000,166.000
1.116,117.000,115.500,222.000,163.500
1.117,115.000,113.000,220.000,161.500
1.118,113.500,111.000,219.000,160.000
1.119,112.500,110.000,218.000,159.000
1.120,112.000,109.000,218.000,158.500
1.121,112.500,108.500,218.000,158.500
1.122,112.500,108.000,217.500,157.500
1.123,111.500,107.000,216.500,156.500
1.124,110.000,105.000,215.000,154.500
1.125,108.000,102.500,212.500,152.000
1.126,105.500,100.000,210.000,149.500
1.127,102.500,97.000,207.000,146.500
1.128,99.000,93.500,203.500,143.000
1.129,95.500,89.500,200.000,139.000
1.130,92.500,86.000,197.000,135.500
1.131,90.500,84.000,195.000,133.500
1.132,90.000,83.500,194.500,133.000
1.133,91.000,84.500,195.500,134.000
1.134,93.000,86.000,197.500,136.000
1.135,95.000,88.000,199.500,138.000
1.136,96.000,89.000,201.000,139.500
1.137,96.500,89.500,202.000,140.000
1.138,97.000,90.000,202.500,140.500
1.139,97.500,90.500,203.500,141.500
1.140,98.500,91.500,205.000,142.500
1.141,99.000,93.000,206.500,143.500
1.142,99.500,93.500,207.000,143.500
1.143,99.000,93.000,207.000,142.500
1.144,97.500,91.500,205.500,140.500
1.145,95.000,88.500,203.000,137.500
1.146,92.000,86.000,200.500,134.500
1.147,90.000,84.000,198.500,132.500
1.148,89.500,83.500,198.000,132.000
1.149,90.000,84.500,199.000,133.000
1.150,91.500,86.000,201.500,135.000
1.151,92.500,88.000,203.500,137.000
1.152,94.000,89.500,206.000,139.500
1.153,95.500,91.000,208.000,141.500
1.154,96.000,92.000,209.000,142.500
1.155,96.000,92.000,209.000,142.500
1.156,95.000,90.500,208.000,141.500
1.157,93.500,88.500,206.500,140.000
1.158,92.000,87.000,205.500,138.500
1.159,91.500,86.000,204.500,138.000
1.160,91.500,86.000,205.000,137.500
1.161,92.000,86.000,205.000,138.000
1.162,91.500,85.500,205.000,137.500
1.163,91.000,84.500,204.500,136.000
1.164,90.000,83.500,203.000,134.500
1.165,89.000,82.000,202.000,133.500
1.166,89.000,81.500,202.000,133.000
1.167,89.500,82.000,203.000,134.000
1.168,91.500,84.000,205.500,136.000
1.169,94.000,86.500,208.000,138.500
1.170,96.000,88.500,210.000,140.500
1.171,97.500,89.500,211.000,141.500
1.172,98.000,89.500,211.500,142.000
1.173,98.000,89.500,211.500,142.000
1.174,99.000,89.500,212.000,142.500
1.175,99.500,90.000,213.000,143.000
1.176,100.500,90.500,214.000,144.000
1.177,101.500,91.500,215.500,145.000
1.178,102.500,92.000,216.500,146.500
1.179,103.500,92.500,217.000,147.000
1.180,104.000,92.500,217.000,146.500
1.181,103.500,92.500,217.000,146.000
1.182,103.500,92.000,217.000,146.000
1.183,103.000,92.000,217.000,145.500
1.184,102.500,91.500,217.000,145.000
1.185,102.000,91.000,217.000,144.500
1.186,101.000,90.000,216.000,143.500
1.187,99.500,88.500,215.000,142.000
1.188,98.000,86.500,213.000,140.000
1.189,96.000,84.500,211.500,138.000
1.190,95.000,83.000,210.500,137.000
1.191,94.000,82.500,210.000,136.000
1.192,94.000,82.500,210.500,136.500
1.193,94.500,82.500,211.000,137.000
1.194,95.000,83.500,212.500,138.500
1.195,96.500,85.000,214.000,140.000
1.196,98.500,87.000,216.500,142.500
1.197,100.500,89.500,219.000,145.000
1.198,102.500,91.500,221.500,147.000
1.199,104.500,93.500,223.000,148.500
1.200,105.500,94.000,224.000,149.000
1.201,105.500,94.000,223.500,148.500
1.202,104.000,92.000,222.000,146.500
1.203,102.000,90.000,220.000,144.000
1.204,100.000,88.000,218.000,142.000
1.205,99.500,87.000,217.000,141.000
1.206,99.500,87.000,217.000,140.500
1.207,100.000,87.500,217.500,141.000
1.208,100.500,88.000,218.000,141.000
1.209,100.500,89.000,219.000,141.500
1.210,100.500,89.000,219.000,142.000
1.211,100.500,89.000,219.500,142.000
1.212,100.500,88.500,219.500,142.000
1.213,101.000,89.000,220.500,142.500
1.214,103.500,91.500,223.500,145.500
1.215,107.500,95.500,228.500,150.000
1.216,114.000,102.000,235.500,157.000
1.217,121.000,110.000,243.500,165.000
1.218,129.000,118.500,252.000,174.000
1.219,137.500,127.000,261.000,182.500
1.220,145.000,135.000,269.500,191.000
1.221,152.500,142.500,277.000,198.500
1.222,160.000,150.000,285.500,206.000
1.223,168.500,158.500,294.000,214.500
1.224,178.000,168.000,304.000,224.500
1.225,189.000,179.000,315.000,235.000
1.226,200.500,190.500,327.000,247.000
1.227,213.000,203.500,340.000,259.500
1.228,226.000,216.500,353.500,273.000
1.229,239.000,230.000,367.000,286.500
1.230,250.500,241.500,379.500,299.000
1.231,259.000,251.000,389.000,309.000
1.232,264.500,256.500,395.500,315.500
1.233,267.000,260.000,399.000,319.000
1.234,268.500,262.000,401.500,321.500
1.235,270.500,263.500,403.500,323.500
1.236,273.000,266.000,406.000,326.000
1.237,277.000,270.000,410.500,330.500
1.238,283.000,275.500,416.000,336.500
1.239,289.500,282.000,422.500,343.000
1.240,296.000,288.000,428.500,349.500
1.241,301.000,293.000,433.500,354.000
1.242,305.000,296.500,437.000,357.000
1.243,307.000,298.500,439.000,358.500
1.244,308.000,299.000,439.500,359.000
1.245,308.000,299.000,440.000,358.500
1.246,308.000,298.500,439.500,358.000
1.247,308.000,298.500,439.500,358.000
1.248,308.000,298.500,440.000,358.000
1.249,307.500,297.500,439.500,357.000
1.250,304.500,295.500,437.000,354.500
1.251,300.000,290.500,432.500,350.000
1.252,292.000,282.500,424.500,342.000
1.253,280.000,271.000,412.500,330.000
1.254,264.000,255.000,397.000,314.000
1.255,245.000,235.500,378.000,294.500
1.256,224.500,214.500,357.500,273.500
1.257,204.500,194.500,338.000,253.500
1.258,186.500,176.500,320.000,235.500
1.259,171.500,162.000,305.500,221.000
1.260,161.000,151.500,295.000,210.500
1.261,153.500,145.000,288.500,203.500
1.262,149.000,140.500,284.000,198.500
1.263,146.000,137.500,281.000,195.000
1.264,143.000,135.000,278.000,192.000
1.265,140.500,132.000,275.000,188.500
1.266,137.000,128.500,272.000,185.000
1.267,133.000,124.000,267.500,180.000
1.268,126.000,117.500,260.500,173.000
1.269,117.000,108.000,251.500,164.000
1.270,105.500,96.500,240.000,152.500
1.271,93.000,84.500,227.500,140.500
1.272,81.500,72.500,216.000,129.000
1.273,71.000,62.000,206.000,119.000
1.274,62.500,53.500,197.500,110.500
1.275,55.000,46.000,190.000,103.000
1.276,49.500,40.000,184.000,97.000
1.277,45.500,35.500,179.000,92.000
1.278,44.500,33.500,176.000,89.000
1.279,46.000,34.000,176.000,88.500
1.280,50.500,37.000,178.000,90.000
1.281,56.000,41.500,181.500,93.000
1.282,62.000,46.500,186.000,96.500
1.283,66.500,50.500,189.000,99.500
1.284,69.500,53.000,191.500,101.500
1.285,70.500,54.000,193.000,102.500
1.286,71.000,54.500,194.000,103.000
1.287,72.000,55.000,196.000,104.500
1.288,74.000,57.000,199.000,107.500
1.289,78.000,61.000,204.000,112.000
1.290,83.000,66.500,210.000,118.000
1.291,89.500,74.000,218.000,126.000
1.292,96.500,82.000,226.500,135.000
1.293,103.500,90.500,235.000,144.000
1.294,109.500,98.000,242.500,152.000
1.295,113.500,103.000,248.500,158.000
1.296,116.000,106.500,252.000,161.500
1.297,116.000,107.500,253.500,163.000
1.298,115.500,107.000,253.000,162.500
1.299,114.000,106.000,252.000,161.500
1.300,113.500,105.500,251.000,160.000
1.301,113.500,105.000,250.500,159.500
1.302,114.000,106.000,251.000,159.500
1.303,115.500,107.000,252.500,160.500
1.304,117.000,108.500,253.500,161.500
1.305,118.500,109.500,254.500,162.000
1.306,119.000,110.000,255.000,162.000
1.307,119.000,110.000,255.000,162.000
1.308,119.000,109.500,254.500,161.500
1.309,119.000,110.000,254.500,161.500
1.310,119.500,110.500,255.000,162.000
1.311,120.500,111.000,256.000,163.000
1.312,122.000,112.500,257.500,164.500
1.313,123.500,113.500,258.500,166.500
1.314,124.500,114.500,260.000,167.500
1.315,125.000,115.000,260.000,168.000
1.316,124.500,114.000,259.500,167.500
1.317,124.000,113.500,259.000,167.000
1.318,123.500,112.500,258.500,167.000
1.319,123.000,112.500,258.500,166.500
1.320,123.000,112.000,258.500,166.500
1.321,123.000,112.000,258.500,166.500
1.322,123.000,112.000,258.500,166.500
1.323,123.000,112.000,258.500,166.000
1.324,122.500,112.000,258.500,165.500
1.325,122.500,111.500,258.000,164.500
1.326,122.000,112.000,258.000,164.500
1.327,123.000,113.000,258.500,165.500
1.328,124.000,114.000,260.000,167.000
1.329,125.000,115.500,261.000,168.500
1.330,126.500,117.000,262.500,170.000
1.331,128.000,118.500,264.000,172.000
1.332,129.000,119.500,265.500,173.000
1.333,129.500,120.500,266.500,174.000
1.334,130.000,121.500,268.000,175.500
1.335,131.000,123.000,269.500,177.500
1.336,132.500,124.500,271.500,179.500
1.337,134.500,127.000,274.000,181.500
1.338,136.000,128.500,275.500,183.500
1.339,136.500,129.500,276.000,184.000
1.340,136.500,129.500,276.000,184.000
1.341,136.000,129.000,276.000,183.000
1.342,135.500,128.000,275.500,182.500
1.343,134.500,127.500,274.500,181.500
1.344,134.000,127.000,274.500,181.000
1.345,134.500,127.000,275.000,181.500
1.346,135.000,128.000,276.000,182.000
1.347,136.500,129.500,277.500,183.500
1.348,138.500,131.500,279.500,185.500
1.349,141.000,133.000,281.500,187.500
1.350,143.000,135.000,284.000,190.000
1.351,145.000,137.000,286.500,192.000
1.352,147.000,138.500,288.500,194.500
1.353,149.500,141.000,290.500,196.500
1.354,152.000,143.000,293.000,199.000
1.355,154.000,145.000,295.000,201.000
1.356,154.500,145.500,295.500,201.500
1.357,154.000,145.000,295.000,201.000
1.358,151.500,142.500,292.500,198.500
1.359,148.500,139.000,289.500,195.000
1.360,146.000,136.000,286.500,192.000
1.361,144.500,134.000,284.500,190.000
1.362,143.500,132.500,283.500,189.000
1.363,143.500,132.500,283.500,188.500
1.364,143.500,132.500,283.500,189.000
1.365,144.000,133.500,284.500,189.500
1.366,145.500,135.000,286.500,191.500
1.367,148.000,137.500,288.500,193.500
1.368,150.500,140.000,291.500,196.500
1.369,153.500,143.000,294.500,199.000
1.370,155.500,145.000,296.500,201.500
1.371,157.500,147.000,298.500,203.500
1.372,159.500,148.500,300.500,205.500
1.373,161.500,150.500,303.000,208.000
1.374,163.000,152.500,305.500,210.500
1.375,165.000,154.000,307.500,212.500
1.376,165.500,155.000,309.000,213.500
1.377,166.000,155.000,309.000,214.000
1.378,165.000,154.500,309.000,213.500
1.379,164.000,153.500,308.000,212.500
1.380,163.000,152.000,307.000,211.500
1.381,161.500,151.000,306.000,210.500
1.382,160.000,149.500,304.500,209.000
1.383,157.500,147.000,302.500,206.500
1.384,154.000,144.000,299.000,203.500
1.385,150.500,141.000,296.000,200.000
1.386,147.500,138.000,293.500,197.000
1.387,146.000,136.500,291.500,195.000
1.388,147.000,136.500,292.000,195.500
1.389,150.000,139.500,295.000,198.000
1.390,156.000,145.000,300.500,204.000
1.391,163.500,152.000,308.000,211.500
1.392,171.000,160.000,316.000,220.000
1.393,177.500,167.000,323.000,227.000
1.394,183.500,173.000,329.000,233.500
1.395,188.000,177.500,334.500,239.000
1.396,192.000,181.500,338.500,243.000
1.397,194.500,184.500,341.500,246.000
1.398,196.000,186.000,343.500,247.500
1.399,196.000,186.000,344.000,248.000
1.400,195.500,185.500,343.500,248.000
1.401,195.000,184.500,342.500,247.000
1.402,193.500,183.000,341.000,245.500
1.403,192.500,181.500,340.000,244.000
1.404,191.000,180.500,338.500,242.500
1.405,190.500,179.500,338.000,241.500
1.406,190.000,179.500,338.000,241.500
1.407,190.500,179.500,338.500,241.500
1.408,191.500,180.500,339.500,242.500
1.409,193.000,181.500,341.000,243.500
1.410,195.000,183.500,343.000,245.500
1.411,198.000,186.000,345.500,248.000
1.412,201.000,189.500,349.000,251.500
1.413,204.500,193.000,353.000,255.500
1.414,208.500,196.000,357.000,259.500
1.415,211.500,199.000,360.000,263.000
1.416,214.500,201.500,363.000,266.000
1.417,216.500,203.000,365.000,268.000
1.418,218.500,204.500,366.500,269.500
1.419,220.000,205.500,368.000,271.000
1.420,221.500,207.000,369.000,272.000
1.421,223.000,208.000,370.500,273.000
1.422,224.500,209.000,371.500,274.000
1.423,225.500,210.000,372.500,274.500
1.424,226.000,210.500,373.000,275.000
1.425,226.000,210.500,373.500,275.000
1.426,227.000,211.500,374.500,275.500
1.427,229.000,213.000,376.500,277.500
1.428,232.000,216.000,379.500,280.500
1.429,235.000,220.000,383.500,284.500
1.430,238.000,223.500,387.500,288.000
1.431,240.000,225.500,390.000,291.000
1.432,240.500,226.500,391.500,292.500
1.433,240.500,226.500,391.500,293.000
1.434,240.000,226.000,392.000,293.000
1.435,240.000,226.000,392.500,293.000
1.436,241.000,226.500,393.500,293.500
1.437,241.500,227.000,394.500,294.000
1.438,242.500,228.000,395.500,294.500
1.439,243.000,228.500,396.500,295.000
1.440,243.000,228.500,397.000,295.500
1.441,243.500,229.000,397.500,295.500
1.442,244.000,229.000,398.000,295.500
1.443,243.500,228.500,397.500,295.000
1.444,242.500,227.500,397.000,294.000
1.445,241.500,226.000,396.000,293.000
1.446,240.500,225.000,395.500,292.000
1.447,241.000,225.500,396.000,292.500
1.448,242.500,226.500,398.000,294.000
1.449,245.000,228.500,400.000,296.500
1.450,247.500,230.500,402.500,299.000
1.451,249.500,231.500,404.500,301.000
1.452,250.500,232.500,405.500,302.500
1.453,251.500,233.000,407.000,303.500
1.454,252.500,234.000,408.500,305.000
1.455,253.500,235.000,410.000,306.500
1.456,254.500,236.000,411.500,308.000
1.457,255.000,237.000,412.500,308.500
1.458,254.500,236.500,412.500,308.500
1.459,253.500,235.500,412.000,308.000
1.460,251.500,234.000,411.000,306.500
1.461,249.000,232.500,409.500,305.000
1.462,246.500,230.500,408.500,303.000
1.463,244.500,229.000,407.000,301.500
1.464,242.000,227.000,405.500,299.000
1.465,239.500,224.500,403.000,296.000
1.466,237.000,222.000,400.500,293.000
1.467,235.000,219.500,398.000,290.000
1.468,234.000,218.500,396.000,288.000
1.469,234.000,218.500,396.000,287.500
1.470,235.500,220.000,397.000,288.500
1.471,238.000,223.000,400.000,290.500
1.472,241.500,226.500,403.000,293.500
1.473,244.000,228.500,405.500,296.000
1.474,244.500,229.500,406.000,297.000
1.475,243.500,228.000,405.000,296.000
1.476,241.000,225.500,403.000,294.000
1.477,238.500,223.000,400.500,291.000
1.478,235.500,220.500,398.000,288.500
1.479,233.000,218.500,396.000,286.500
1.480,232.000,217.500,395.000,285.000
1.481,231.500,217.000,395.000,284.500
1.482,232.000,217.500,395.000,284.500
1.483,232.500,217.500,396.000,284.500
1.484,232.500,217.500,395.500,284.500
1.485,232.000,216.500,395.000,283.000
1.486,231.000,215.000,393.500,281.500
1.487,229.000,213.000,392.000,279.000
1.488,226.500,210.500,389.500,276.000
1.489,223.500,207.000,386.500,272.500
1.490,219.500,203.500,383.000,268.500
1.491,215.500,200.000,379.500,264.500
1.492,211.000,195.500,375.000,260.000
1.493,206.000,190.500,370.000,254.500
1.494,200.500,184.500,364.500,248.500
1.495,194.000,178.500,358.000,242.500
1.496,187.500,172.000,352.000,236.000
1.497,182.000,166.000,346.500,230.500
1.498,177.000,161.500,342.000,226.000
1.499,174.000,158.000,339.000,223.000
1.500,173.000,157.000,338.000,221.500
1.501,173.500,157.000,338.500,221.500
1.502,175.000,158.500,340.000,222.500
1.503,176.500,160.000,341.500,223.500
1.504,177.500,161.000,342.500,224.000
1.505,178.000,161.000,343.000,224.000
1.506,178.000,161.500,343.000,224.000
1.507,178.500,161.500,343.500,224.000
1.508,177.500,161.000,343.500,223.000
1.509,175.000,158.500,341.000,220.000
1.510,170.000,153.500,336.500,215.000
1.511,163.500,147.500,330.500,209.000
1.512,157.500,141.000,325.000,203.000
1.513,152.500,136.000,320.000,198.500
1.514,149.000,132.000,316.500,195.000
1.515,146.500,129.500,314.500,192.500
1.516,144.500,127.500,313.000,191.000
1.517,143.000,126.000,311.500,190.000
1.518,142.500,125.500,311.000,189.500
1.519,142.500,125.500,311.000,189.000
1.520,143.000,125.500,311.500,189.000
1.521,143.500,126.000,312.000,189.500
1.522,144.000,126.500,312.500,189.500
1.523,144.000,126.000,312.000,189.000
1.524,143.500,125.500,311.500,188.000
1.525,142.500,124.000,310.500,186.500
1.526,141.000,122.500,309.000,185.000
1.527,139.500,120.500,307.000,183.000
1.528,137.500,118.000,305.000,181.000
1.529,135.000,115.500,303.000,178.500
1.530,133.500,113.500,301.000,176.500
1.531,132.000,112.500,300.500,175.500
1.532,132.000,112.000,300.500,175.500
1.533,132.500,113.000,301.500,176.500
1.534,133.500,114.000,303.000,177.500
1.535,133.500,114.000,303.000,178.000
1.536,132.000,112.500,301.500,176.500
1.537,128.500,109.000,298.500,173.500
1.538,124.500,105.000,295.000,169.500
1.539,121.000,102.000,292.000,166.500
1.540,119.000,99.500,290.000,164.500
1.541,118.000,98.500,289.000,163.000
1.542,117.500,98.000,289.000,162.500
1.543,117.000,97.500,288.500,162.000
1.544,116.500,96.000,288.000,161.000
1.545,116.000,94.500,287.000,160.000
1.546,115.500,93.500,286.500,159.000
1.547,115.000,92.500,286.000,158.500
1.548,115.000,92.000,286.500,158.500
1.549,115.500,92.500,287.000,159.000
1.550,117.000,94.000,288.500,160.500
1.551,118.500,96.500,290.500,162.000
1.552,121.000,99.000,292.500,164.500
1.553,122.500,101.000,294.000,166.000
1.554,123.000,102.000,295.000,166.500
1.555,122.000,101.500,294.500,166.000
1.556,120.500,100.000,293.000,164.000
1.557,118.000,98.000,290.500,162.000
1.558,116.000,95.500,289.000,160.000
1.559,114.500,94.500,288.000,159.000
1.560,114.500,94.000,288.500,159.000
1.561,115.000,95.000,289.500,160.000
1.562,116.500,96.500,291.000,161.500
1.563,118.500,98.500,293.000,163.500
1.564,120.000,100.500,295.000,164.500
1.565,121.500,101.500,296.000,165.500
1.566,122.000,102.000,296.500,165.500
1.567,121.000,101.000,296.000,165.000
1.568,119.500,99.500,295.000,163.500
1.569,118.000,98.000,294.000,162.500
1.570,116.500,96.500,293.500,162.000
1.571,116.000,96.000,294.000,162.500
1.572,116.000,96.500,294.500,163.000
1.573,116.500,97.500,295.500,164.000
1.574,117.000,98.000,296.500,165.000
1.575,117.000,98.500,296.500,165.500
1.576,117.000,98.500,296.000,165.000
1.577,116.000,97.000,294.500,163.500
1.578,114.000,95.000,292.500,161.500
1.579,112.000,92.500,290.000,159.000
1.580,110.500,90.000,288.000,157.000
1.581,109.000,88.500,287.000,155.500
1.582,108.500,87.000,286.500,155.000
1.583,108.000,86.000,286.000,154.500
1.584,107.000,85.000,285.000,153.500
1.585,106.500,84.000,284.500,153.000
1.586,106.000,84.000,284.500,152.500
1.587,106.500,85.000,285.000,153.000
1.588,108.000,86.500,286.500,154.000
1.589,109.000,88.000,288.000,154.500
1.590,110.000,89.500,289.500,155.500
1.591,111.000,91.000,290.500,156.500
1.592,112.500,92.500,292.000,158.000
1.593,114.000,95.000,294.500,160.000
1.594,116.500,97.500,297.000,162.000
1.595,118.500,99.500,299.000,164.000
1.596,120.000,101.500,301.000,165.500
1.597,121.000,102.500,302.000,167.000
1.598,121.000,103.000,302.500,167.500
1.599,120.500,102.500,302.000,167.000
1.600,119.000,101.500,301.000,166.000
1.601,118.000,100.000,300.000,165.000
1.602,117.000,99.000,298.500,163.500
1.603,116.000,98.000,298.000,162.500
1.604,115.000,97.500,297.000,161.500
1.605,114.000,96.000,296.000,160.500
1.606,113.000,95.000,295.000,159.500
1.607,111.500,94.500,294.500,158.500
1.608,111.000,94.000,294.500,158.000
1.609,110.500,94.000,295.000,158.000
1.610,110.000,94.000,295.500,158.500
1.611,109.500,93.500,296.000,158.500
1.612,108.000,92.500,295.500,158.000
1.613,106.500,91.000,294.500,156.500
1.614,104.500,89.000,292.500,154.500
1.615,103.000,87.000,290.500,152.000
1.616,101.000,85.000,288.500,150.000
1.617,99.000,83.000,286.500,148.000
1.618,97.500,81.500,285.000,146.500
1.619,96.500,80.000,283.500,145.000
1.620,96.500,79.500,283.000,144.500
1.621,97.000,79.500,283.000,144.500
1.622,98.000,80.000,284.000,145.500
1.623,99.500,81.000,285.000,146.500
1.624,101.500,82.500,287.000,148.000
1.625,104.500,85.000,289.500,150.500
1.626,107.000,87.500,292.500,153.500
1.627,110.000,90.000,295.500,156.000
1.628,112.000,92.500,298.000,158.500
1.629,113.000,93.500,300.000,160.000
1.630,112.000,93.000,300.000,160.000
1.631,110.000,91.500,299.000,158.500
1.632,107.000,88.500,297.000,156.000
1.633,104.500,85.500,294.500,153.500
1.634,102.500,83.000,292.500,151.500
1.635,101.500,81.500,291.500,150.500
1.636,102.000,81.000,291.000,150.000
1.637,103.000,81.500,291.500,151.000
1.638,105.000,83.000,292.500,152.500
1.639,106.500,84.500,294.000,154.000
1.640,107.500,85.000,294.000,154.500
1.641,106.500,84.500,293.000,154.000
1.642,105.500,83.500,292.000,152.500
1.643,104.500,83.000,291.500,152.000
1.644,105.000,83.500,292.500,152.000
1.645,106.500,85.000,294.000,153.000
1.646,108.000,87.000,296.500,154.500
1.647,109.000,87.500,298.000,155.500
1.648,109.000,86.500,299.000,155.500
1.649,108.000,84.000,299.000,155.000
1.650,106.500,80.500,299.000,155.000
1.651,105.500,77.500,299.500,155.500
1.652,105.000,75.000,301.000,156.500
1.653,105.000,74.000,303.000,158.500
1.654,105.500,74.000,304.500,160.000
1.655,105.500,75.000,305.500,160.000
1.656,105.000,75.500,304.500,158.500
1.657,104.000,76.000,302.000,156.000
1.658,103.000,76.000,299.000,152.500
1.659,102.000,75.500,295.500,148.500
1.660,101.000,75.500,292.500,144.500
1.661,101.000,75.500,289.500,141.000
1.662,101.000,75.500,287.500,138.500
1.663,101.000,76.000,286.500,136.500
1.664,101.000,76.500,285.500,135.500
1.665,101.000,77.000,285.500,135.000
1.666,101.500,78.000,286.500,135.500
1.667,103.500,80.000,288.000,136.500
1.668,106.000,82.500,290.500,139.000
1.669,108.500,85.500,293.500,141.500
1.670,111.000,88.000,296.500,144.500
1.671,113.000,90.000,300.000,148.000
1.672,114.500,92.500,303.000,151.000
1.673,116.000,94.000,306.500,154.000
1.674,117.000,96.000,309.000,157.000
1.675,117.500,97.000,311.500,159.000
1.676,118.000,97.500,313.000,160.500
1.677,118.000,98.000,314.500,162.000
1.678,119.000,99.000,316.000,163.500
1.679,119.500,99.000,317.000,164.500
1.680,119.000,98.000,317.000,164.500
1.681,117.000,95.500,315.500,162.500
1.682,113.500,92.000,313.000,159.500
1.683,110.000,88.500,309.500,155.500
1.684,107.000,85.000,306.500,152.000
1.685,104.500,82.500,304.000,149.000
1.686,103.000,81.500,303.000,147.000
1.687,103.000,81.500,303.000,147.000
1.688,104.500,83.500,304.500,148.500
1.689,107.000,86.000,307.000,151.000
1.690,109.500,89.000,310.000,153.500
1.691,112.000,91.500,312.500,156.500
1.692,114.000,93.500,315.000,159.000
1.693,116.500,96.000,318.000,161.500
1.694,119.500,99.000,321.000,164.500
1.695,123.500,102.500,324.500,168.000
1.696,127.500,106.500,329.000,172.000
1.697,132.000,110.500,333.500,176.500
1.698,135.500,113.500,337.000,180.000
1.699,138.500,116.000,340.000,182.500
1.700,139.500,117.000,341.000,183.500
1.701,140.000,117.000,341.500,183.000
1.702,140.000,117.000,341.500,182.500
1.703,140.000,117.000,341.500,182.000
1.704,140.500,117.000,341.500,181.500
1.705,140.500,117.000,342.000,181.500
1.706,140.500,116.000,341.500,180.500
1.707,139.500,115.000,340.500,179.500
1.708,138.500,113.500,339.000,177.500
1.709,137.500,112.000,338.000,176.000
1.710,136.500,110.500,336.500,175.000
1.711,135.500,109.000,335.500,173.500
1.712,133.500,107.000,334.000,172.000
1.713,131.000,105.000,332.000,170.000
1.714,128.500,102.500,330.000,168.000
1.715,126.500,100.500,328.500,166.500
1.716,126.000,100.000,328.500,166.500
1.717,126.000,100.000,329.000,167.000
1.718,126.500,100.500,329.500,167.500
1.719,127.000,101.000,330.500,168.500
1.720,128.500,102.500,332.500,169.500
1.721,131.000,104.500,335.000,172.000
1.722,135.000,108.500,339.000,176.000
1.723,140.500,113.500,344.500,180.500
1.724,146.500,119.000,350.500,186.500
1.725,152.500,125.000,356.500,192.000
1.726,158.000,130.000,362.000,197.000
1.727,162.500,134.500,366.000,201.000
1.728,166.500,137.500,369.500,204.500
1.729,169.000,140.000,372.000,206.500
1.730,170.500,141.500,373.500,208.000
1.731,170.500,142.000,374.500,209.000
1.732,170.500,142.000,374.500,209.000
1.733,169.500,141.000,374.000,208.500
1.734,168.000,139.500,373.000,207.500
1.735,165.500,137.500,371.000,205.500
1.736,162.500,135.000,369.000,203.000
1.737,159.000,131.500,366.000,200.000
1.738,155.000,128.000,363.000,196.000
1.739,150.500,123.500,359.000,191.500
1.740,146.500,119.000,355.000,187.000
1.741,142.000,115.000,351.000,182.500
1.742,138.000,110.500,346.500,178.000
1.743,134.000,106.500,342.500,173.500
1.744,130.000,102.500,338.500,169.500
1.745,127.000,99.000,335.000,166.000
1.746,124.000,96.000,332.500,163.000
1.747,122.500,94.000,330.500,161.500
1.748,121.500,92.500,329.500,160.500
1.749,120.500,91.000,329.500,160.000
1.750,120.000,90.500,329.000,160.000
1.751,119.500,89.500,328.500,159.000
1.752,118.500,88.500,327.500,158.000
1.753,117.000,87.500,326.500,157.000
1.754,116.000,87.000,326.000,156.500
1.755,115.000,87.000,325.500,156.000
1.756,114.500,87.000,325.000,155.500
1.757,113.500,86.500,324.500,154.500
1.758,112.000,86.000,324.000,153.000
1.759,110.500,84.500,323.000,152.000
1.760,109.000,83.500,322.000,151.000
1.761,107.500,82.000,320.500,149.500
1.762,106.500,80.500,319.500,148.000
1.763,105.500,79.500,319.000,146.500
1.764,105.000,79.000,318.500,146.000
1.765,105.000,79.000,318.000,145.500
1.766,105.000,79.000,318.000,145.000
1.767,104.500,78.500,317.500,144.000
1.768,103.000,77.000,316.500,142.500
1.769,100.500,75.000,314.500,140.000
1.770,97.500,72.000,311.500,137.000
1.771,94.000,68.500,308.500,133.500
1.772,90.500,65.500,305.500,130.500
1.773,88.000,63.000,303.500,128.500
1.774,87.000,61.500,302.500,127.000
1.775,86.500,61.500,302.500,127.500
1.776,87.500,62.000,303.000,128.000
1.777,88.000,62.500,304.500,129.500
1.778,89.000,63.000,305.000,130.500
1.779,88.500,63.000,305.000,130.000
1.780,86.500,61.000,303.500,128.000
1.781,84.000,58.000,301.000,125.000
1.782,81.000,54.500,297.500,121.500
1.783,77.500,51.000,294.000,117.500
1.784,74.500,48.000,291.000,114.000
1.785,72.500,45.000,288.500,111.000
1.786,71.000,43.500,286.500,109.000
1.787,70.000,42.500,286.000,108.000
1.788,69.500,42.000,285.500,107.500
1.789,70.500,42.500,286.000,108.000
1.790,71.500,44.000,288.000,109.500
1.791,73.500,46.000,290.000,112.000
1.792,75.500,48.500,293.000,114.500
1.793,77.000,50.500,295.500,117.000
1.794,78.500,53.000,298.500,119.500
1.795,81.000,55.500,301.500,122.500
1.796,83.000,58.000,304.500,125.500
1.797,84.500,60.000,307.000,127.500
1.798,85.500,60.500,308.000,128.000
1.799,84.500,60.000,307.500,127.500
1.800,83.000,58.000,306.000,125.500
1.801,81.000,56.000,303.500,123.000
1.802,78.500,53.500,301.500,120.500
1.803,77.000,51.500,300.000,118.000
1.804,75.500,50.000,298.500,116.500
1.805,74.500,49.000,297.000,114.500
1.806,74.000,48.000,296.500,113.500
1.807,74.000,47.500,296.000,113.000
1.808,74.500,48.000,296.500,113.000
1.809,75.000,48.500,297.000,113.500
1.810,76.000,49.500,298.000,114.500
1.811,77.000,51.000,300.000,116.500
1.812,78.500,53.000,301.500,118.500
1.813,80.000,54.500,304.000,120.500
1.814,81.000,56.000,305.500,122.000
1.815,81.000,56.500,306.000,122.500
1.816,80.500,56.000,306.000,122.000
1.817,79.500,54.500,305.000,121.000
1.818,78.000,53.000,304.000,119.500
1.819,76.500,51.500,302.500,118.000
1.820,75.000,49.500,301.500,116.000
1.821,73.500,48.000,300.000,114.500
1.822,72.000,46.500,299.000,112.500
1.823,70.000,44.500,297.000,110.500
1.824,68.500,42.500,295.000,108.500
1.825,67.000,41.000,294.000,106.500
1.826,66.500,40.500,293.500,106.500
1.827,67.500,41.500,295.000,107.500
1.828,70.500,44.000,297.500,109.500
1.829,73.500,47.000,300.500,112.500
1.830,76.500,50.000,304.000,115.500
1.831,78.500,52.000,306.000,118.000
1.832,79.500,53.000,307.000,119.000
1.833,79.500,52.500,307.000,119.000
1.834,79.000,52.000,306.500,118.000
1.835,78.000,51.000,306.000,117.500
1.836,77.500,50.000,305.000,116.500
1.837,76.500,48.500,304.500,115.500
1.838,75.000,47.000,303.000,114.000
1.839,73.000,45.000,301.000,112.000
1.840,71.000,43.000,299.500,110.000
1.841,70.500,42.000,299.000,109.000
1.842,70.500,42.000,299.000,109.000
1.843,71.000,42.500,299.500,109.500
1.844,71.500,43.000,300.000,109.500
1.845,72.000,43.500,300.500,109.500
1.846,72.000,44.000,301.000,109.500
1.847,72.500,44.500,301.000,109.500
1.848,73.500,45.000,302.000,110.000
1.849,74.500,46.500,303.500,111.500
1.850,75.500,47.500,305.000,113.000
1.851,76.500,48.500,306.500,114.500
1.852,77.000,49.500,308.000,115.500
1.853,78.000,50.500,309.500,117.500
1.854,79.000,51.500,311.000,119.000
1.855,79.500,52.000,312.000,120.000
1.856,79.500,52.500,312.500,120.500
1.857,79.500,52.500,312.500,120.000
1.858,79.500,52.500,313.000,120.000
1.859,80.500,53.500,314.000,121.000
1.860,83.500,56.500,317.500,124.000
1.861,89.000,62.000,323.000,129.500
1.862,96.500,69.500,331.500,137.000
1.863,106.000,79.000,341.000,146.500
1.864,116.000,89.000,351.500,156.500
1.865,126.500,99.000,362.000,167.000
1.866,136.500,109.000,372.000,177.000
1.867,146.500,119.000,382.500,187.000
1.868,156.500,129.500,393.000,197.500
1.869,167.000,139.500,404.000,208.000
1.870,177.500,150.500,415.000,219.500
1.871,188.000,161.500,427.000,231.000
1.872,199.500,173.000,439.000,243.500
1.873,210.500,185.000,451.000,255.500
1.874,221.500,196.500,463.000,267.500
1.875,231.500,207.000,474.000,278.500
1.876,239.000,215.000,482.500,287.000
1.877,244.500,220.500,488.500,293.000
1.878,247.500,224.000,492.000,296.500
1.879,249.500,226.000,494.500,299.000
1.880,251.500,228.000,497.000,301.000
1.881,254.500,231.000,500.500,304.500
1.882,258.500,235.500,504.500,308.500
1.883,263.000,240.000,509.500,313.000
1.884,266.500,244.000,513.000,316.500
1.885,268.500,245.500,515.000,318.000
1.886,268.500,245.500,514.500,317.000
1.887,267.000,243.500,513.000,315.000
1.888,265.000,241.000,510.500,312.500
1.889,262.500,239.000,508.500,310.000
1.890,261.000,237.000,507.000,308.500
1.891,259.500,236.000,506.000,307.500
1.892,259.000,235.500,506.000,307.500
1.893,258.500,235.500,506.000,307.500
1.894,258.500,235.000,506.000,307.500
1.895,257.000,233.500,504.500,306.500
1.896,253.000,230.000,500.500,302.500
1.897,246.500,223.000,493.500,295.000
1.898,235.500,212.000,482.500,283.500
1.899,221.000,196.500,467.000,267.500
1.900,202.500,178.000,448.500,248.500
1.901,183.000,158.000,428.500,227.500
1.902,163.000,137.500,408.000,206.500
1.903,145.500,119.500,389.500,187.500
1.904,130.500,104.000,374.500,172.000
1.905,119.000,92.500,362.500,159.500
1.906,111.000,84.000,354.000,151.000
1.907,104.500,78.000,348.500,144.500
1.908,100.000,74.000,344.000,140.000
1.909,96.500,70.000,341.000,136.000
1.910,93.500,67.000,337.500,132.500
1.911,89.500,63.000,333.500,128.500
1.912,84.500,58.000,329.000,123.500
1.913,78.500,51.500,322.500,117.000
1.914,71.000,44.500,316.000,110.000
1.915,63.500,37.000,308.500,103.000
1.916,56.000,29.500,301.000,95.500
1.917,48.000,22.000,293.500,87.500
1.918,39.500,13.500,285.500,79.500
1.919,31.500,5.500,278.000,71.500
1.920,24.500,-1.500,270.500,64.000
1.921,18.500,-7.000,265.000,58.500
1.922,15.000,-10.500,261.500,55.000
1.923,13.500,-12.000,260.500,53.500
1.924,15.000,-11.000,261.500,54.500
1.925,18.000,-8.000,264.500,57.000
1.926,22.000,-4.000,268.500,61.000
1.927,26.500,0.500,273.000,65.500
1.928,31.000,4.500,277.500,69.500
1.929,35.000,9.000,282.000,74.000
1.930,39.500,13.500,287.000,78.500
1.931,44.000,18.000,292.000,83.500
1.932,48.500,23.000,297.000,88.500
1.933,52.500,27.500,302.000,93.500
1.934,56.000,31.000,306.000,97.500
1.935,59.000,34.000,309.000,100.500
1.936,61.000,36.500,311.500,103.000
1.937,63.000,38.500,314.000,105.500
1.938,65.000,40.500,316.000,107.500
1.939,67.000,42.500,318.000,109.000
1.940,69.500,44.500,320.000,111.000
1.941,71.500,46.500,322.500,113.000
1.942,73.500,49.000,325.000,115.000
1.943,76.000,51.500,327.500,117.500
1.944,79.500,55.000,331.000,120.500
1.945,83.000,58.500,335.000,123.500
1.946,86.500,62.000,338.500,127.000
1.947,89.500,64.500,341.000,129.500
1.948,92.000,66.500,343.500,131.000
1.949,93.500,67.500,344.500,132.500
1.950,94.500,68.500,345.500,133.000
1.951,95.000,69.000,346.000,134.000
1.952,95.500,69.500,347.000,135.000
1.953,96.000,70.000,347.500,135.500
1.954,96.000,70.500,348.000,136.000
1.955,96.000,70.500,348.000,136.000
1.956,95.000,69.500,347.500,135.500
1.957,94.000,68.500,347.000,134.500
1.958,92.500,67.500,346.500,133.500
1.959,92.000,67.000,346.000,133.000
1.960,92.000,67.000,346.500,133.000
1.961,93.000,68.000,347.500,133.500
1.962,94.500,69.000,348.500,134.000
1.963,96.000,70.000,349.000,135.000
1.964,96.500,70.500,349.500,135.000
1.965,96.500,70.500,349.500,134.500
1.966,96.000,70.500,349.000,134.500
1.967,96.000,70.000,349.000,134.000
1.968,96.000,70.000,349.000,133.500
1.969,96.000,70.000,349.500,134.000
1.970,96.500,70.500,350.000,134.500
1.971,97.500,71.500,351.500,135.500
1.972,99.000,73.000,352.500,136.500
1.973,100.000,74.000,353.500,137.500
1.974,100.500,74.500,354.500,138.000
1.975,100.500,74.500,355.000,138.500
1.976,100.000,74.000,355.000,138.500
1.977,99.500,74.000,355.000,138.500
1.978,99.500,73.500,355.000,138.500
1.979,99.500,74.000,355.500,138.500
1.980,101.000,75.000,357.000,140.000
1.981,102.500,76.500,359.000,141.500
1.982,104.500,78.500,361.000,142.500
1.983,105.500,79.500,362.000,143.500
1.984,106.000,79.500,362.000,143.000
1.985,105.500,79.500,362.000,142.500
1.986,105.500,79.500,361.500,142.000
1.987,105.500,80.000,362.000,142.500
1.988,107.000,81.500,363.500,143.500
1.989,109.500,83.500,366.000,146.000
1.990,112.000,86.500,369.000,148.500
1.991,114.500,89.000,371.500,151.500
1.992,116.000,90.500,373.500,153.500
1.993,117.000,91.500,375.000,155.000
1.994,117.000,91.500,375.500,155.500
1.995,117.000,92.000,376.000,156.000
1.996,117.000,92.500,376.500,156.500
1.997,117.500,92.500,377.000,157.000
1.998,117.000,92.500,377.000,157.000
1.999,116.500,91.500,376.000,156.000
2.000,114.500,90.000,374.000,154.000
2.001,112.000,87.000,371.500,151.000
2.002,109.000,84.000,368.500,147.500
2.003,106.000,81.000,366.000,144.500
2.004,103.500,78.500,363.500,141.500
2.005,102.000,76.500,362.000,139.500
2.006,101.500,76.000,362.000,139.000
2.007,103.000,77.000,363.500,140.500
2.008,105.500,80.000,366.500,143.000
2.009,110.000,84.000,371.000,147.500
2.010,114.000,88.500,375.500,152.000
2.011,118.000,92.500,380.000,156.500
2.012,121.000,96.000,383.000,160.000
2.013,123.000,98.000,385.500,162.500
2.014,125.000,100.000,388.000,164.500
2.015,126.500,102.000,390.000,166.500
2.016,127.500,103.000,392.000,168.000
2.017,127.500,103.500,393.000,169.000
2.018,126.500,103.500,393.000,169.000
2.019,126.000,103.000,393.000,169.000
2.020,125.500,103.000,393.000,169.000
2.021,125.500,103.000,393.500,169.500
2.022,125.500,103.000,394.000,169.500
2.023,125.500,102.500,394.000,169.000
2.024,125.000,102.000,394.000,169.000
2.025,124.500,102.000,393.500,168.500
2.026,125.000,102.500,394.000,169.000
2.027,125.500,103.500,395.500,170.000
2.028,127.500,105.000,397.500,171.500
2.029,129.500,107.000,400.000,174.000
2.030,131.500,109.000,403.000,176.500
2.031,133.000,111.000,405.500,179.500
2.032,134.500,113.000,408.500,182.000
2.033,136.000,114.000,410.500,184.000
2.034,136.500,115.000,411.500,185.000
2.035,137.000,114.500,411.500,185.000
2.036,136.500,114.000,411.000,184.000
2.037,136.000,112.000,409.000,182.000
2.038,134.500,110.000,406.500,179.000
2.039,134.000,108.500,403.500,176.000
2.040,134.000,107.500,401.000,173.000
2.041,136.000,107.500,400.000,171.500
2.042,138.500,109.500,400.500,171.500
2.043,141.500,112.000,402.000,172.500
2.044,144.500,114.000,404.000,174.000
2.045,147.000,116.500,406.500,176.000
2.046,149.500,119.500,409.500,178.500
2.047,153.500,123.500,413.500,182.500
2.048,158.000,128.500,419.000,187.500
2.049,163.000,133.500,424.500,193.000
2.050,167.500,138.500,430.000,198.000
2.051,170.000,141.500,434.000,202.500
2.052,171.500,143.500,437.000,205.000
2.053,171.500,144.500,439.000,207.500
2.054,171.500,145.000,440.500,209.000
2.055,171.500,145.500,442.000,210.500
2.056,170.000,145.000,442.000,211.000
2.057,168.000,143.500,441.000,210.000
2.058,166.000,141.500,439.500,208.000
2.059,164.000,139.500,438.000,207.000
2.060,163.500,139.000,437.500,206.500
2.061,163.500,139.000,438.000,206.500
2.062,164.500,140.000,439.000,207.000
2.063,166.000,141.500,440.500,208.500
2.064,168.500,144.000,442.500,210.500
2.065,171.500,147.000,445.500,213.000
2.066,174.500,150.000,448.500,215.500
2.067,177.000,152.500,451.000,218.000
2.068,179.000,154.500,453.000,219.500
2.069,181.000,156.500,455.000,221.500
2.070,182.500,158.500,457.000,223.500
2.071,185.000,160.500,459.500,226.000
2.072,186.500,162.500,462.000,228.500
2.073,188.500,164.500,464.000,230.500
2.074,189.500,166.000,466.000,232.000
2.075,191.000,167.500,468.000,233.500
2.076,192.500,168.500,469.500,235.000
2.077,193.000,169.500,470.500,236.000
2.078,193.500,170.000,471.000,236.500
2.079,193.500,170.000,471.500,237.000
2.080,195.000,171.000,472.500,238.000
2.081,196.500,173.000,474.500,239.500
2.082,199.000,175.500,476.500,241.500
2.083,201.000,177.500,478.500,243.500
2.084,202.500,179.000,479.500,244.500
2.085,203.500,179.500,480.500,245.000
2.086,204.000,180.500,481.500,245.500
2.087,205.000,181.000,482.000,246.000
2.088,206.000,181.000,482.500,246.000
2.089,206.000,181.500,483.000,246.000
2.090,206.000,181.000,482.500,246.000
2.091,205.500,181.000,482.000,245.500
2.092,205.000,180.500,482.000,245.000
2.093,204.500,180.500,482.000,245.500
2.094,204.500,180.500,483.000,246.000
2.095,204.500,181.000,484.000,247.000
2.096,205.000,181.500,485.000,248.000
2.097,205.000,182.000,485.500,248.000
2.098,205.000,182.000,485.500,248.500
2.099,205.500,183.000,486.000,248.500
2.100,206.500,184.000,487.000,249.500
2.101,208.500,186.000,489.000,251.000
2.102,211.000,188.000,491.500,253.000
2.103,213.500,190.500,493.500,255.000
2.104,215.500,192.500,495.000,256.500
2.105,216.500,193.000,495.500,256.500
2.106,216.500,193.000,495.000,256.000
2.107,215.500,192.000,494.000,255.000
2.108,214.000,190.500,492.500,253.000
2.109,211.500,188.000,490.500,251.000
2.110,208.500,185.000,487.500,248.000
2.111,204.000,181.000,484.500,244.500
2.112,200.000,177.000,480.500,240.500
2.113,196.000,173.000,477.000,237.000
2.114,193.500,170.000,474.500,234.500
2.115,191.500,168.500,473.500,233.000
2.116,191.500,168.000,473.500,233.000
2.117,192.500,169.500,475.000,234.000
2.118,194.000,171.000,477.000,236.000
2.119,195.500,172.500,478.500,237.000
2.120,196.000,172.500,479.000,237.000
2.121,195.000,171.500,478.000,236.000
2.122,193.500,170.000,476.500,234.000
2.123,192.500,169.000,475.500,232.500
2.124,191.500,168.500,475.000,231.500
2.125,191.000,168.000,474.500,231.000
2.126,190.000,167.000,473.000,229.500
2.127,187.500,165.000,471.000,227.000
2.128,185.000,162.500,468.500,224.000
2.129,182.000,159.000,465.000,220.500
2.130,178.500,156.500,462.000,217.500
2.131,176.000,153.500,459.500,215.000
2.132,173.000,151.000,457.000,212.500
2.133,170.500,148.500,454.500,210.000
2.134,167.500,146.000,452.000,207.500
2.135,164.500,143.000,449.500,204.500
2.136,161.500,139.500,446.000,201.000
2.137,157.500,135.500,442.500,197.000
2.138,153.000,131.000,438.000,192.500
2.139,148.500,126.500,433.500,188.000
2.140,144.000,122.000,429.000,183.500
2.141,139.500,117.500,425.000,179.000
2.142,135.500,113.500,421.500,175.000
2.143,132.000,109.500,417.500,171.000
2.144,128.000,105.500,413.500,167.000
2.145,124.500,102.000,410.000,163.000
2.146,122.500,99.500,407.500,160.000
2.147,121.500,98.000,406.500,158.500
2.148,121.500,98.000,406.500,158.500
2.149,122.500,99.000,407.500,159.500
2.150,124.000,100.500,408.500,160.500
2.151,124.000,100.500,409.000,161.000
2.152,123.000,100.000,408.500,160.500
2.153,120.500,98.000,406.500,158.500
2.154,117.000,95.000,404.000,156.000
2.155,113.500,92.000,401.000,153.000
2.156,110.000,88.500,397.500,149.500
2.157,106.500,85.000,394.000,146.000
2.158,103.000,81.500,390.500,142.500
2.159,99.500,78.000,387.000,139.000
2.160,97.000,75.500,384.000,136.000
2.161,95.000,72.500,381.500,133.500
2.162,92.500,70.500,379.500,130.500
2.163,90.500,67.500,377.000,127.500
2.164,88.500,65.000,374.500,125.000
2.165,86.000,63.000,372.000,122.000
2.166,84.000,61.000,370.000,119.500
2.167,83.000,60.000,369.000,118.500
2.168,83.000,60.000,369.000,118.000
2.169,84.000,60.500,369.500,119.000
2.170,84.500,61.500,370.500,119.500
2.171,85.000,61.500,371.000,120.000
2.172,84.500,61.000,370.500,119.500
2.173,83.500,60.500,370.500,119.500
2.174,83.000,60.000,370.500,119.500
2.175,83.000,59.500,370.500,119.500
2.176,82.500,59.000,370.500,119.000
2.177,81.000,57.500,369.000,117.500
2.178,78.500,54.500,366.000,115.000
2.179,74.500,50.500,362.500,110.500
2.180,71.000,46.500,358.500,106.500
2.181,67.500,43.500,355.000,103.000
2.182,66.000,41.500,353.000,101.000
2.183,65.500,40.500,352.000,100.000
2.184,65.000,40.000,351.500,99.000
2.185,65.000,39.000,351.000,98.500
2.186,64.500,38.500,350.500,97.500
2.187,64.000,38.000,350.000,96.500
2.188,64.500,38.000,350.000,96.500
2.189,65.000,38.500,351.000,97.500
2.190,65.500,39.000,352.000,98.000
2.191,66.000,39.500,352.500,98.500
2.192,66.000,40.000,353.500,99.000
2.193,66.500,40.000,353.500,99.500
2.194,66.500,40.000,354.000,100.000
2.195,66.500,39.500,354.500,100.000
2.196,66.500,39.500,354.500,100.000
2.197,66.000,39.000,354.000,99.500
2.198,65.500,38.000,353.500,99.000
2.199,64.000,36.500,352.000,97.500
2.200,62.000,34.500,350.000,95.000
2.201,59.500,32.000,347.500,92.000
2.202,57.000,29.000,345.000,89.000
2.203,54.500,27.000,343.000,86.000
2.204,53.000,25.000,341.500,84.500
2.205,52.500,24.000,340.500,83.500
2.206,53.000,24.000,341.000,83.500
2.207,54.500,25.500,342.000,84.500
2.208,56.500,27.500,344.000,86.000
2.209,58.500,29.500,346.000,88.000
2.210,60.000,31.000,347.500,89.500
2.211,61.000,32.000,348.500,90.000
2.212,60.500,32.000,348.000,90.000
2.213,60.000,31.500,347.500,89.500
2.214,59.000,31.000,347.500,89.500
2.215,59.000,31.000,347.500,90.000
2.216,59.000,31.500,348.000,90.500
2.217,59.000,31.500,348.500,90.500
2.218,58.500,31.500,348.500,90.000
2.219,58.000,31.000,348.000,89.500
2.220,57.500,30.500,347.500,89.000
2.221,57.500,31.000,347.500,89.000
2.222,58.000,31.500,348.000,89.000
2.223,58.500,32.000,349.000,89.500
2.224,59.000,32.500,349.500,89.500
2.225,59.000,32.500,349.500,89.500
2.226,59.000,32.500,349.500,89.500
2.227,59.000,32.500,350.000,89.500
2.228,59.500,33.000,350.500,90.000
2.229,60.000,33.500,351.000,90.500
2.230,60.000,33.500,351.000,90.500
2.231,59.500,33.000,351.000,90.000
2.232,58.500,32.500,350.500,89.500
2.233,57.500,31.500,349.500,89.000
2.234,56.500,30.000,349.000,88.500
2.235,55.500,29.000,348.000,88.000
2.236,55.000,28.500,347.500,87.500
2.237,54.500,28.000,347.000,87.000
2.238,54.500,28.000,347.000,87.500
2.239,55.500,29.000,348.500,88.500
2.240,57.500,30.500,350.000,89.500
2.241,58.500,31.500,350.500,90.000
2.242,58.500,31.500,350.500,89.500
2.243,57.500,30.500,349.000,88.000
2.244,56.000,29.000,347.500,86.000
2.245,55.000,28.000,346.500,85.000
2.246,54.500,27.500,346.500,84.500
2.247,55.000,28.500,347.500,85.500
2.248,56.500,30.000,349.500,87.000
2.249,58.500,31.500,351.500,89.000
2.250,59.500,33.000,353.000,90.500
2.251,60.500,34.000,354.000,91.500
2.252,61.000,34.500,354.500,92.000
2.253,61.500,35.000,355.000,92.500
2.254,62.500,35.500,356.000,93.500
2.255,63.000,36.500,356.500,94.000
2.256,63.000,36.000,356.500,94.000
2.257,62.000,35.000,355.500,93.000
2.258,60.000,33.000,354.000,91.500
2.259,58.000,31.000,352.000,89.000
2.260,56.000,28.500,350.000,86.500
2.261,54.000,26.500,347.500,84.000
2.262,52.000,24.000,345.500,81.500
2.263,50.500,22.000,343.500,79.500
2.264,50.000,21.000,342.500,78.000
2.265,50.500,21.500,342.500,78.000
2.266,53.000,23.500,345.000,80.500
2.267,56.500,27.000,348.500,84.000
2.268,61.000,31.500,353.500,88.000
2.269,64.500,35.500,357.500,92.000
2.270,67.000,38.000,360.500,94.500
2.271,68.000,39.500,361.500,96.000
2.272,67.500,39.000,361.000,96.000
2.273,66.500,38.500,360.500,95.000
2.274,66.000,37.500,360.000,95.000
2.275,65.500,37.000,359.500,94.500
2.276,65.500,37.500,360.000,95.000
2.277,66.000,37.500,360.000,95.500
2.278,66.000,37.500,360.000,95.000
2.279,66.000,37.000,359.500,94.500
2.280,65.000,36.000,358.500,93.500
2.281,64.000,34.500,357.000,92.000
2.282,62.500,33.000,355.500,90.000
2.283,61.500,31.500,354.000,88.000
2.284,60.000,30.000,353.000,86.500
2.285,59.500,29.000,352.000,85.500
2.286,59.500,29.000,352.000,85.500
2.287,60.000,29.000,352.500,86.000
2.288,61.000,30.000,353.500,87.000
2.289,61.500,30.500,354.500,87.500
2.290,61.500,30.500,354.500,87.500
2.291,60.500,30.000,353.500,87.000
2.292,59.000,29.000,353.000,86.000
2.293,58.000,28.000,352.000,85.500
2.294,57.500,27.500,351.000,85.000
2.295,56.500,26.500,350.500,84.500
2.296,56.000,26.000,350.000,84.000
2.297,55.000,25.500,349.000,83.500
2.298,55.000,25.000,349.000,83.000
2.299,54.500,24.500,349.000,82.500
2.300,54.500,24.000,349.000,82.000
2.301,54.500,23.500,348.500,81.500
2.302,54.000,23.000,348.500,81.000
2.303,54.000,23.000,348.000,80.500
2.304,54.000,23.000,348.500,80.500
2.305,55.000,23.500,349.000,81.000
2.306,56.500,25.000,350.500,82.000
2.307,58.000,26.500,352.000,83.000
2.308,59.500,28.000,353.500,84.000
2.309,61.000,29.000,355.000,85.500
2.310,62.000,30.500,356.000,86.000
2.311,62.000,31.000,357.000,87.000
2.312,62.000,31.500,357.500,87.500
2.313,61.000,31.500,357.000,87.500
2.314,60.000,30.500,356.500,87.000
2.315,58.500,29.500,355.500,85.500
2.316,57.500,28.000,354.000,84.500
2.317,56.000,26.500,352.500,83.000
2.318,55.000,25.000,351.500,81.500
2.319,54.000,24.000,350.500,80.500
2.320,52.500,22.500,349.500,79.000
2.321,50.500,21.000,348.500,77.000
2.322,48.500,19.500,346.500,75.500
2.323,46.500,17.500,344.500,73.500
2.324,45.000,16.500,343.000,72.000
2.325,44.500,16.500,343.000,71.500
2.326,45.500,17.500,343.500,72.500
2.327,47.000,19.000,345.500,74.000
2.328,49.000,21.000,347.500,75.500
2.329,50.500,22.500,348.500,77.000
2.330,51.500,23.000,349.500,77.500
2.331,52.000,23.500,349.500,78.000
2.332,52.000,23.500,349.500,78.500
2.333,52.500,23.500,350.000,79.000
2.334,53.000,24.000,350.500,79.500
2.335,53.500,24.000,351.000,80.500
2.336,54.000,25.000,351.500,81.500
2.337,55.500,26.000,352.500,82.500
2.338,57.000,27.500,354.500,84.000
2.339,58.500,29.000,356.000,85.500
2.340,59.500,30.500,357.500,86.500
2.341,60.000,31.000,358.000,87.000
2.342,60.000,31.500,358.500,87.500
2.343,60.500,32.000,359.500,88.000
2.344,61.500,33.500,361.000,89.000
2.345,63.500,35.500,363.000,90.500
2.346,66.000,38.000,365.500,93.000
2.347,68.500,40.500,368.000,95.000
2.348,70.500,43.000,370.500,97.000
2.349,72.500,44.500,372.000,98.500
2.350,73.500,46.000,373.000,100.000
2.351,75.000,47.000,374.000,101.000
2.352,76.000,48.000,376.000,103.000
2.353,78.000,50.000,378.000,105.000
2.354,80.000,51.500,380.500,107.500
2.355,82.000,53.500,382.000,109.500
2.356,84.000,54.500,383.500,111.000
2.357,85.000,55.500,384.500,112.000
2.358,86.500,56.500,385.000,113.000
2.359,87.500,57.500,386.000,113.500
2.360,88.000,57.500,386.000,113.500
2.361,86.500,56.000,384.500,112.000
2.362,83.500,53.000,382.000,109.000
2.363,79.500,49.500,378.500,105.500
2.364,75.500,45.500,375.000,101.500
2.365,72.500,43.000,372.000,98.500
2.366,70.500,41.000,370.000,96.500
2.367,69.500,40.500,369.500,96.000
2.368,70.000,40.500,370.000,96.000
2.369,71.000,42.000,371.000,97.500
2.370,73.000,44.000,373.000,99.500
2.371,76.000,46.500,376.000,102.500
2.372,79.500,50.500,379.500,106.500
2.373,84.500,55.500,384.500,111.500
2.374,90.000,61.500,390.500,117.500
2.375,96.500,68.000,397.500,124.000
2.376,103.000,74.500,404.000,130.500
2.377,108.500,80.000,409.500,136.000
2.378,112.500,84.000,413.500,140.000
2.379,114.500,86.500,416.000,142.500
2.380,115.000,87.000,417.000,143.000
2.381,114.000,86.000,416.500,142.500
2.382,113.000,85.000,415.000,141.000
2.383,111.500,83.500,414.000,139.500
2.384,110.500,82.000,412.500,138.000
2.385,109.500,81.000,411.500,136.500
2.386,108.500,80.000,410.500,135.500
2.387,107.000,78.000,409.000,134.000
2.388,104.500,75.500,406.000,131.000
2.389,100.500,72.000,402.500,127.500
2.390,96.000,67.500,398.000,122.500
2.391,91.500,63.000,393.000,118.000
2.392,86.500,58.000,388.500,113.500
2.393,82.000,53.500,384.000,109.000
2.394,78.000,49.500,380.500,105.500
2.395,74.500,46.000,376.500,102.000
2.396,71.000,43.000,373.500,99.000
2.397,68.000,40.000,370.500,96.500
2.398,65.500,37.000,368.000,94.000
2.399,63.500,35.000,366.000,92.000
2.400,61.000,33.000,364.500,90.000
2.401,59.000,31.000,362.500,88.000
2.402,57.000,29.500,361.000,86.500
2.403,55.000,28.000,359.500,85.000
2.404,53.500,26.500,358.000,83.000
2.405,51.500,25.000,357.000,82.000
2.406,50.000,23.500,355.500,80.500
2.407,48.000,22.000,354.000,79.000
2.408,46.000,20.500,352.500,78.000
2.409,44.000,18.500,351.000,76.500
2.410,42.500,17.500,350.000,76.000
2.411,40.500,16.000,349.000,75.500
2.412,40.000,16.000,349.000,75.500
2.413,40.000,16.000,349.000,76.000
2.414,40.500,16.500,349.500,77.000
2.415,41.000,16.500,349.500,77.000
2.416,40.500,15.500,348.000,75.500
2.417,38.500,13.000,344.500,72.000
2.418,36.000,9.500,340.500,67.500
2.419,34.000,6.500,336.000,62.500
2.420,32.500,3.500,332.000,58.000
2.421,32.000,2.000,329.000,54.500
2.422,32.000,1.000,327.000,52.000
2.423,33.000,0.500,326.500,50.500
2.424,34.500,1.000,327.000,50.500
2.425,36.000,2.000,327.500,51.500
2.426,37.000,3.000,329.000,52.500
2.427,38.000,4.500,330.000,53.500
2.428,39.000,5.500,331.500,55.000
2.429,39.000,6.500,332.500,56.500
2.430,39.000,7.000,333.500,57.500
2.431,38.500,7.500,334.000,58.000
2.432,37.000,7.000,334.500,58.500
2.433,35.500,6.000,334.000,58.500
2.434,34.000,5.000,333.500,58.500
2.435,32.000,4.000,333.000,58.000
2.436,30.500,2.500,331.500,57.000
2.437,28.500,0.500,330.500,56.000
2.438,26.500,-1.500,329.000,54.500
2.439,24.500,-3.500,327.000,53.000
2.440,22.000,-6.000,324.000,50.500
2.441,19.000,-9.000,321.000,47.000
2.442,16.000,-12.000,317.500,43.500
2.443,14.000,-14.500,315.000,40.500
2.444,12.500,-16.000,313.000,38.500
2.445,12.000,-17.000,312.000,37.500
2.446,12.000,-17.000,312.000,37.000
2.447,13.500,-16.000,313.000,38.000
2.448,16.500,-13.500,316.000,40.500
2.449,20.500,-9.500,320.000,44.500
2.450,25.500,-4.500,325.000,49.500
2.451,30.500,0.500,330.500,55.000
2.452,34.500,5.500,335.000,60.000
2.453,37.500,8.500,338.000,63.500
2.454,39.500,10.500,340.000,65.500
2.455,39.500,10.500,340.000,66.000
2.456,38.500,9.500,339.000,65.000
2.457,36.500,7.500,337.000,63.000
2.458,34.000,4.500,334.500,60.500
2.459,31.000,1.500,331.500,57.000
2.460,28.000,-2.000,328.500,54.000
2.461,26.000,-4.500,326.000,51.500
2.462,24.500,-6.000,324.000,49.500
2.463,24.000,-7.000,323.000,48.000
2.464,23.000,-8.000,322.000,47.000
2.465,22.500,-8.500,321.500,46.000
2.466,22.500,-8.500,321.000,46.000
2.467,22.500,-8.500,321.500,46.000
2.468,23.000,-8.000,322.000,46.500
2.469,23.500,-7.500,322.000,47.000
2.470,23.000,-7.500,322.500,47.000
2.471,23.000,-8.000,322.000,47.000
2.472,22.500,-8.000,322.000,47.000
2.473,22.500,-7.500,322.500,48.000
2.474,23.500,-6.500,323.500,49.500
2.475,24.500,-5.000,325.000,51.000
2.476,25.500,-4.000,326.000,52.500
2.477,26.000,-3.500,327.000,53.000
2.478,25.500,-4.000,326.500,52.500
2.479,24.500,-5.000,326.000,52.000
2.480,24.000,-5.500,325.000,51.000
2.481,23.000,-6.500,324.500,50.000
2.482,23.000,-6.500,324.000,49.500
2.483,23.000,-6.500,324.000,49.000
2.484,23.000,-6.500,323.500,49.000
2.485,23.500,-6.500,324.000,49.000
2.486,24.500,-5.500,324.500,49.500
2.487,25.500,-4.500,325.500,50.500
2.488,27.000,-3.500,327.000,52.000
2.489,27.500,-2.500,328.000,53.000
2.490,28.500,-2.000,329.000,53.500
2.491,29.000,-1.000,330.000,54.500
2.492,30.000,-0.500,330.500,55.500
2.493,30.000,0.000,331.000,56.000
2.494,29.500,0.000,331.000,56.000
2.495,29.000,-0.500,330.500,55.500
2.496,28.000,-1.500,329.500,55.000
2.497,27.000,-2.500,329.000,54.500
2.498,26.000,-3.000,328.000,53.500
2.499,26.000,-4.000,327.500,53.000
2.500,25.500,-4.000,327.500,52.500
2.501,25.500,-4.500,327.000,52.000
2.502,25.500,-5.000,326.500,51.500
2.503,25.500,-5.500,325.500,51.000
2.504,25.500,-5.500,325.000,50.500
2.505,26.000,-5.500,325.000,50.000
2.506,26.000,-5.500,325.000,50.000
2.507,26.500,-4.500,325.500,50.500
2.508,28.000,-3.000,327.000,52.000
2.509,31.000,0.000,329.500,54.500
2.510,34.500,4.000,333.500,59.000
2.511,40.000,9.500,339.000,64.500
2.512,46.500,16.000,345.500,71.500
2.513,54.000,24.500,353.500,80.000
2.514,63.500,34.000,363.000,89.500
2.515,74.000,44.500,373.500,100.500
2.516,85.000,55.000,384.500,112.000
2.517,95.500,66.000,395.000,122.500
2.518,104.500,75.500,404.500,132.500
2.519,112.500,83.500,413.000,141.000
2.520,119.500,91.000,420.000,148.500
2.521,126.000,97.500,427.000,155.500
2.522,133.000,105.000,434.500,163.000
2.523,142.000,113.500,443.500,172.000
2.524,152.500,124.000,454.000,182.500
2.525,164.000,136.000,465.500,194.000
2.526,176.000,147.500,477.500,206.500
2.527,186.500,158.500,488.500,217.000
2.528,195.500,167.000,497.500,226.000
2.529,202.000,173.500,504.500,233.000
2.530,206.500,179.000,509.500,238.500
2.531,211.000,183.500,514.500,243.500
2.532,215.500,188.000,519.500,248.500
2.533,220.000,193.000,524.500,254.500
2.534,225.000,198.000,530.000,260.000
2.535,229.500,202.500,535.000,265.000
2.536,233.000,206.500,539.000,269.000
2.537,234.500,208.000,541.000,270.500
2.538,233.500,207.000,540.500,269.500
2.539,231.000,204.500,538.000,267.000
2.540,228.500,202.500,536.000,264.500
2.541,227.500,200.500,534.000,262.500
2.542,227.000,200.000,533.000,261.500
2.543,226.500,199.500,532.500,261.000
2.544,227.000,199.500,532.000,260.500
2.545,227.000,199.500,531.500,260.000
2.546,226.500,198.500,530.500,259.000
2.547,224.500,196.500,528.000,256.000
2.548,220.000,192.000,523.000,251.000
2.549,211.500,183.500,514.000,242.000
2.550,198.500,171.000,501.000,228.500
2.551,181.000,153.500,483.000,210.500
2.552,160.000,132.000,461.500,189.000
2.553,137.000,109.500,439.000,166.500
2.554,116.000,88.500,418.000,145.000
2.555,98.000,71.000,400.500,127.500
2.556,84.500,57.500,386.500,114.000
2.557,75.000,47.000,376.500,104.000
2.558,67.500,39.500,369.000,96.000
2.559,62.000,33.500,363.000,90.000
2.560,58.000,29.000,358.000,85.000
2.561,54.000,25.000,354.000,80.500
2.562,50.000,21.000,349.000,75.000
2.563,44.500,15.000,343.000,68.500
2.564,37.500,7.500,335.000,60.500
2.565,29.000,-1.500,326.000,51.000
2.566,19.500,-11.000,316.500,41.000
2.567,10.500,-20.500,307.000,31.500
2.568,2.000,-29.000,298.500,22.500
2.569,-6.000,-37.000,290.500,15.000
2.570,-12.000,-43.000,284.000,8.500
2.571,-17.000,-48.000,279.500,4.000
2.572,-20.500,-51.500,276.000,1.000
2.573,-22.500,-53.000,274.500,-0.500
2.574,-22.500,-53.000,274.500,0.000
2.575,-21.500,-52.000,275.500,1.500
2.576,-19.000,-50.000,277.500,3.500
2.577,-16.500,-47.500,280.000,6.000
2.578,-13.000,-44.500,283.000,9.000
2.579,-9.500,-41.000,286.500,12.500
2.580,-6.000,-37.000,290.500,16.000
2.581,-2.000,-33.000,294.500,20.000
2.582,3.000,-28.500,299.500,24.500
2.583,7.500,-23.500,304.500,29.500
2.584,12.500,-18.000,310.000,35.000
2.585,18.000,-12.500,315.500,40.500
2.586,23.500,-6.500,321.500,46.000
2.587,29.000,-0.500,327.000,52.000
2.588,34.500,5.500,333.000,58.000
2.589,39.500,11.000,338.000,63.000
2.590,43.500,15.500,342.500,67.500
2.591,46.500,18.500,346.000,71.000
2.592,48.500,20.500,348.500,73.000
2.593,49.500,22.000,350.000,74.500
2.594,51.000,23.000,351.000,76.000
2.595,51.500,24.000,351.500,76.500
2.596,51.500,24.000,352.000,77.000
2.597,51.000,24.000,351.500,77.000
2.598,49.500,23.000,351.000,76.500
2.599,48.000,22.000,349.500,75.000
2.600,46.500,20.500,348.000,73.500
2.601,45.000,19.000,346.500,72.000
2.602,44.000,18.000,345.500,71.500
2.603,45.000,18.500,346.000,71.500
2.604,46.500,20.000,348.000,73.000
2.605,49.500,23.000,350.500,75.500
2.606,52.000,25.500,353.000,78.000
2.607,54.000,28.000,355.500,80.000
2.608,56.500,30.000,357.500,82.500
2.609,59.000,32.500,360.000,84.500
2.610,61.000,35.000,362.000,86.500
2.611,62.000,36.000,363.000,88.000
2.612,62.500,36.500,364.000,89.000
2.613,62.000,36.000,363.500,89.000
2.614,62.000,36.000,364.000,89.000
2.615,62.500,36.500,364.000,90.000
2.616,63.000,37.000,365.000,90.500
2.617,63.500,37.500,365.000,91.000
2.618,63.000,37.000,365.000,91.000
2.619,62.500,36.500,364.500,90.500
2.620,62.000,35.500,363.500,89.500
2.621,61.000,35.000,362.500,88.000
2.622,60.500,34.000,361.500,87.000
2.623,60.000,33.500,361.000,86.000
2.624,60.000,33.500,361.000,86.000
2.625,60.500,34.000,361.000,86.000
2.626,61.500,34.500,361.500,86.500
2.627,62.000,35.500,362.000,87.000
2.628,63.000,36.500,363.000,88.000
2.629,63.500,37.000,363.000,88.000
2.630,63.500,37.000,363.000,88.500
2.631,63.500,36.500,363.000,88.500
2.632,63.500,37.000,363.500,88.500
2.633,63.500,37.500,364.500,89.500
2.634,64.000,38.500,365.500,91.000
2.635,64.500,40.000,367.000,92.500
2.636,65.000,40.500,368.000,93.500
2.637,65.500,41.500,368.500,94.500
2.638,66.500,42.500,369.500,95.500
2.639,67.500,43.500,370.500,97.000
2.640,69.500,45.000,372.000,98.000
2.641,71.000,46.500,373.000,99.000
2.642,72.000,47.000,373.500,99.500
2.643,73.000,47.000,373.500,99.500
2.644,73.000,47.000,373.000,99.000
2.645,73.500,47.000,373.000,99.000
2.646,73.500,47.000,373.000,99.000
2.647,73.500,47.500,373.000,99.000
2.648,74.500,48.500,374.000,100.000
2.649,75.500,50.000,375.500,101.000
2.650,77.000,51.500,377.500,103.000
2.651,79.500,54.000,379.500,105.000
2.652,81.500,56.000,381.500,107.000
2.653,83.500,57.500,383.000,109.000
2.654,85.000,59.000,384.000,110.500
2.655,86.000,59.500,385.000,112.000
2.656,86.000,59.500,385.000,112.000
2.657,85.000,59.000,384.500,111.500
2.658,84.000,58.000,383.500,110.500
2.659,83.000,57.000,383.000,110.000
2.660,83.000,57.000,383.000,109.500
2.661,83.500,57.000,383.000,109.500
2.662,83.500,57.500,383.500,109.500
2.663,84.000,57.500,383.500,109.500
2.664,84.000,58.000,383.500,110.000
2.665,84.500,58.500,384.000,110.500
2.666,85.000,59.500,385.000,111.000
2.667,86.500,61.000,386.500,112.500
2.668,88.000,62.500,387.500,114.000
2.669,89.000,64.000,388.500,115.500
2.670,90.500,65.000,389.500,116.500
2.671,91.000,66.000,390.000,117.500
2.672,92.000,66.500,391.000,118.500
2.673,93.000,67.500,391.500,119.500
2.674,94.000,69.000,393.000,121.000
2.675,95.000,70.000,394.500,123.000
2.676,96.000,71.500,396.000,124.500
2.677,97.000,72.500,397.500,125.500
2.678,97.500,73.500,398.500,126.500
2.679,98.000,73.500,399.000,127.000
2.680,98.000,73.000,398.500,127.000
2.681,97.000,72.000,398.000,126.000
2.682,96.500,71.000,397.500,125.500
2.683,96.000,70.500,397.000,125.000
2.684,96.500,70.500,397.000,125.000
2.685,97.000,71.500,397.500,126.000
2.686,98.500,72.500,398.500,127.000
2.687,100.500,74.000,400.000,128.500
2.688,102.500,76.500,402.500,130.500
2.689,105.500,79.500,405.500,133.500
2.690,109.000,83.000,409.000,137.000
2.691,112.500,87.000,412.500,140.500
2.692,116.000,90.000,415.500,143.500
2.693,118.000,92.000,417.500,145.500
2.694,119.000,93.000,418.000,146.500
2.695,119.500,93.500,418.000,147.000
2.696,120.000,93.500,418.000,147.000
2.697,121.000,94.500,418.500,147.500
2.698,122.000,95.500,419.000,148.500
2.699,123.000,96.500,420.000,149.500
2.700,123.500,97.000,421.000,150.000
2.701,124.000,97.500,421.500,150.000
2.702,124.500,98.000,422.000,150.500
2.703,125.500,98.500,422.500,150.500
2.704,126.500,99.500,423.000,151.000
2.705,127.500,100.500,424.000,152.000
2.706,129.500,101.500,425.500,153.500
2.707,131.500,103.500,427.000,155.500
2.708,134.000,106.000,429.500,158.000
2.709,137.500,109.500,433.000,161.500
2.710,141.000,113.000,436.500,165.000
2.711,145.000,116.500,440.000,169.000
2.712,148.000,120.000,443.500,172.500
2.713,151.000,123.000,446.000,175.500
2.714,153.000,125.000,448.500,177.500
2.715,154.000,126.500,450.000,179.500
2.716,155.000,127.000,450.500,180.500
2.717,155.000,127.500,450.500,181.000
2.718,155.000,127.000,450.500,181.000
2.719,155.000,126.500,450.000,180.500
2.720,155.000,126.500,450.500,180.500
2.721,156.000,127.000,450.500,180.500
2.722,157.000,127.500,451.500,181.000
2.723,158.000,128.500,452.500,181.500
2.724,159.000,130.000,454.000,182.500
2.725,160.500,131.500,455.000,184.000
2.726,162.000,133.000,456.500,185.500
2.727,163.500,134.500,458.000,186.500
2.728,165.000,136.000,459.500,188.000
2.729,165.500,137.000,460.500,189.000
2.730,166.500,138.000,462.000,190.500
2.731,167.500,139.000,463.000,192.000
2.732,168.500,140.000,464.500,193.500
2.733,170.000,141.500,466.000,195.500
2.734,172.000,143.000,468.000,198.000
2.735,174.000,145.000,470.000,200.000
2.736,176.000,146.500,472.000,202.000
2.737,177.000,148.000,473.500,203.500
2.738,177.500,148.500,474.000,204.000
2.739,177.000,148.000,474.000,204.000
2.740,176.500,147.000,473.000,203.000
2.741,175.500,146.000,472.000,202.000
2.742,175.500,146.000,471.500,201.500
2.743,176.000,146.000,472.000,201.500
2.744,177.000,147.000,472.500,202.000
2.745,178.500,148.000,473.500,202.500
2.746,179.500,149.000,474.000,203.500
2.747,180.000,150.000,474.500,203.500
2.748,180.500,150.000,474.500,204.000
2.749,180.500,151.000,475.000,204.500
2.750,181.500,152.000,476.000,206.000
2.751,183.000,153.500,477.500,207.500
2.752,184.500,155.000,479.000,209.500
2.753,185.500,156.000,480.500,210.500
2.754,185.500,156.500,481.000,211.000
2.755,185.500,156.500,481.000,211.000
2.756,185.500,156.000,480.500,211.000
2.757,185.000,156.000,480.500,211.000
2.758,185.000,155.500,480.500,211.000
2.759,184.000,154.500,480.000,210.000
2.760,182.500,153.000,478.500,209.000
2.761,180.500,151.500,477.000,207.000
2.762,179.500,150.000,475.500,205.500
2.763,179.000,149.500,475.000,204.500
2.764,179.000,149.000,474.500,204.500
2.765,179.500,149.000,474.000,204.000
2.766,179.000,149.000,473.500,203.500
2.767,179.000,148.500,473.000,202.500
2.768,179.000,148.500,472.500,202.500
2.769,179.000,148.500,473.000,203.000
2.770,179.500,149.000,473.500,203.500
2.771,179.500,149.500,473.500,203.500
2.772,179.000,148.500,472.500,203.000
2.773,177.500,147.000,471.000,201.500
2.774,175.500,145.500,469.000,200.000
2.775,173.000,143.000,467.000,198.000
2.776,171.000,141.000,464.500,195.500
2.777,168.500,138.000,462.000,193.000
2.778,165.000,135.000,458.500,189.500
2.779,161.500,131.000,455.000,186.000
2.780,157.000,127.000,451.000,182.000
2.781,152.500,122.500,446.500,178.000
2.782,147.500,118.000,442.000,173.500
2.783,143.000,113.500,437.500,169.000
2.784,138.500,109.000,433.500,165.500
2.785,135.000,106.000,430.500,162.000
2.786,132.500,103.500,428.000,160.000
2.787,130.500,101.500,427.000,158.500
2.788,129.000,100.500,426.000,157.500
2.789,128.000,99.000,425.500,157.000
2.790,126.500,97.500,424.500,156.000
2.791,124.500,96.000,423.500,155.000
2.792,122.000,94.000,421.500,153.500
2.793,119.500,92.000,419.000,151.500
2.794,116.500,89.000,416.000,149.000
2.795,114.000,86.000,412.500,145.500
2.796,111.000,83.000,408.500,142.000
2.797,109.000,80.000,404.500,138.000
2.798,107.500,77.500,401.000,134.000
2.799,107.000,76.500,398.000,131.000
2.800,107.000,75.500,396.000,128.000
2.801,107.000,74.500,393.500,125.500
2.802,106.000,73.000,391.500,122.500
2.803,104.500,71.500,389.000,119.500
2.804,102.000,69.500,386.500,117.000
2.805,100.000,67.500,384.500,114.500
2.806,98.000,66.000,383.000,113.000
2.807,97.000,65.000,382.500,112.000
2.808,96.000,64.500,382.000,111.500
2.809,94.500,63.500,381.500,111.000
2.810,92.500,62.000,380.000,110.000
2.811,89.500,60.000,378.500,108.500
2.812,86.500,57.000,376.000,106.500
2.813,83.000,54.500,374.000,105.000
2.814,80.000,52.000,372.000,103.500
2.815,77.000,49.500,370.000,101.500
2.816,74.500,47.000,368.000,100.000
2.817,72.000,44.500,365.500,97.500
2.818,69.500,42.000,363.000,95.000
2.819,67.000,39.500,360.000,92.500
2.820,64.500,37.000,357.500,89.500
2.821,62.500,34.500,355.000,87.000
2.822,60.500,33.000,353.000,85.000
2.823,58.500,31.000,351.500,83.500
2.824,56.500,30.000,350.000,82.000
2.825,55.000,28.500,348.500,80.500
2.826,53.500,27.000,347.000,79.000
2.827,52.000,26.000,345.500,77.500
2.828,51.000,25.000,344.500,76.500
2.829,50.500,24.500,343.500,75.500
2.830,50.000,24.000,342.500,75.000
2.831,50.500,24.500,342.500,75.000
2.832,51.000,25.000,343.000,75.500
2.833,51.500,26.000,343.500,76.500
2.834,52.500,27.000,344.500,77.500
2.835,53.000,27.500,345.000,78.500
2.836,52.500,27.000,345.000,78.500
2.837,52.000,26.500,344.500,77.500
2.838,51.500,26.000,344.000,77.000
2.839,51.500,26.000,343.500,76.500
2.840,51.000,26.000,343.500,76.500
2.841,50.500,25.000,342.500,75.500
2.842,48.500,23.000,340.500,73.000
2.843,45.500,19.500,337.000,69.500
2.844,42.000,16.000,333.500,65.500
2.845,39.500,13.000,331.000,62.500
2.846,38.000,11.000,329.000,61.000
2.847,38.000,11.000,328.500,60.000
2.848,39.000,11.500,329.000,60.500
2.849,40.000,12.500,330.000,61.500
2.850,41.000,13.500,331.000,62.000
2.851,41.500,14.000,331.000,63.000
2.852,41.500,13.500,331.000,63.000
2.853,41.000,13.000,330.500,62.500
2.854,40.500,12.500,329.500,62.500
2.855,40.000,12.000,329.500,62.000
2.856,40.000,11.500,329.000,62.000
2.857,40.000,11.000,329.000,61.500
2.858,40.000,10.500,328.500,61.000
2.859,40.000,10.000,328.000,60.500
2.860,39.500,9.000,327.000,60.000
2.861,39.500,8.500,326.500,59.000
2.862,39.000,8.000,325.500,58.500
2.863,38.500,7.500,325.000,57.500
2.864,38.500,6.500,324.500,57.000
2.865,38.000,6.000,324.000,56.000
2.866,38.500,6.000,324.000,56.000
2.867,39.000,6.500,324.000,56.000
2.868,39.000,6.500,324.500,56.500
2.869,39.500,6.500,324.500,56.500
2.870,39.500,6.500,324.500,56.500
2.871,39.500,7.000,325.000,57.000
2.872,40.000,7.500,325.000,57.500
2.873,40.500,8.000,325.500,58.500
2.874,40.500,8.500,326.000,59.000
2.875,40.500,9.000,326.500,59.500
2.876,40.000,8.500,326.000,59.500
2.877,38.500,7.500,325.000,58.500
2.878,37.000,6.000,323.500,57.000
2.879,35.500,5.000,322.000,56.000
2.880,35.000,4.000,321.500,55.000
2.881,34.500,4.000,321.000,54.500
2.882,34.500,4.000,321.000,54.000
2.883,34.000,3.500,320.500,53.500
2.884,33.000,2.000,319.500,52.500
2.885,31.000,0.500,317.500,50.500
2.886,29.000,-2.000,315.000,48.000
2.887,27.000,-4.000,313.000,46.000
2.888,25.000,-5.000,311.500,44.500
2.889,24.500,-5.500,310.500,44.000
2.890,24.500,-5.000,311.000,44.500
2.891,25.500,-4.000,312.000,46.000
2.892,26.000,-2.500,313.000,47.500
2.893,27.500,-1.000,314.500,49.000
2.894,29.000,1.000,316.500,51.000
2.895,31.000,2.500,318.000,52.500
2.896,32.500,4.000,319.500,54.500
2.897,33.500,5.000,320.500,55.500
2.898,34.000,5.500,321.000,56.000
2.899,34.000,5.500,320.500,56.000
2.900,34.000,5.000,320.000,55.500
2.901,33.000,4.000,318.500,54.000
2.902,32.000,3.000,317.000,52.500
2.903,30.500,1.500,315.000,50.500
2.904,29.000,0.000,313.500,48.500
2.905,28.500,-1.000,313.000,47.500
2.906,28.500,-0.500,313.000,47.500
2.907,29.000,0.000,313.500,48.000
2.908,29.500,1.000,314.000,49.000
2.909,30.500,1.500,314.500,49.500
2.910,31.000,2.500,315.500,50.500
2.911,32.500,3.500,317.000,51.500
2.912,34.000,5.000,318.500,53.500
2.913,35.000,6.500,320.000,55.000
2.914,35.500,7.000,320.500,55.500
2.915,35.500,6.500,320.500,56.000
2.916,35.000,6.500,320.500,55.500
2.917,35.000,6.500,320.500,55.500
2.918,36.000,7.000,321.000,56.500
2.919,37.000,8.000,322.000,57.500
2.920,38.000,9.000,323.000,58.000
2.921,38.000,8.500,322.500,58.000
2.922,36.500,7.000,320.500,56.000
2.923,34.000,4.500,318.000,53.500
2.924,31.000,1.500,315.000,50.500
2.925,28.500,-1.000,312.500,48.000
2.926,27.500,-1.500,312.000,47.000
2.927,27.500,-1.500,312.000,47.000
2.928,28.000,-0.500,313.000,48.000
2.929,29.000,0.500,313.500,48.500
2.930,29.000,0.500,314.000,49.000
2.931,29.500,1.000,314.500,49.500
2.932,29.500,1.000,314.500,49.500
2.933,29.500,1.000,314.500,50.000
2.934,29.500,0.500,314.500,50.000
2.935,29.000,0.000,314.000,49.500
2.936,28.500,-1.000,313.000,48.500
2.937,27.000,-2.000,312.000,47.500
2.938,25.500,-3.500,310.500,46.000
2.939,24.500,-5.000,309.500,44.500
2.940,23.000,-6.000,308.000,43.000
2.941,21.500,-7.000,306.500,41.500
2.942,21.000,-7.500,305.500,40.500
2.943,21.000,-7.500,305.500,40.500
2.944,21.500,-7.000,305.500,40.500
2.945,22.000,-6.000,306.500,41.500
2.946,23.000,-5.500,307.000,42.000
2.947,24.000,-4.500,308.000,43.000
2.948,25.000,-4.000,309.000,44.000
2.949,26.000,-3.000,309.500,45.500
2.950,27.000,-2.500,310.500,46.500
2.951,27.000,-2.000,310.500,47.000
2.952,27.500,-2.000,311.000,47.500
2.953,27.500,-2.000,311.500,48.000
2.954,27.500,-1.500,312.000,49.000
2.955,28.000,-1.000,312.500,49.500
2.956,28.000,-1.000,313.000,49.500
2.957,28.000,-1.000,312.500,50.000
2.958,28.000,-1.500,312.500,49.500
2.959,28.000,-2.000,312.000,49.000
2.960,27.500,-2.500,311.000,48.500
2.961,27.000,-3.500,310.500,47.500
2.962,26.000,-4.500,309.500,46.500
2.963,25.500,-5.500,308.500,45.500
2.964,24.500,-6.000,307.500,44.500
2.965,24.000,-6.500,306.500,43.500
2.966,23.500,-7.000,306.000,42.500
2.967,23.000,-7.500,305.500,42.000
2.968,22.500,-8.000,305.000,41.000
2.969,22.000,-8.500,305.000,40.500
2.970,21.500,-8.500,304.500,40.500
2.971,21.500,-8.000,305.000,41.000
2.972,22.500,-7.500,305.500,42.000
2.973,23.500,-6.500,306.500,43.000
2.974,24.500,-6.000,307.000,44.000
2.975,25.000,-5.500,307.500,45.000
2.976,25.500,-5.000,307.500,45.000
2.977,26.000,-5.000,307.000,45.500
2.978,26.000,-5.500,307.000,45.000
2.979,25.500,-5.500,306.500,45.000
2.980,25.500,-5.500,306.000,45.000
2.981,25.000,-5.500,306.000,44.500
2.982,24.500,-6.000,305.500,43.500
2.983,23.500,-7.000,304.500,42.500
2.984,21.500,-8.000,302.500,40.500
2.985,19.500,-10.500,300.500,38.000
2.986,17.000,-12.500,298.000,35.000
2.987,15.000,-15.000,296.000,33.000
2.988,13.000,-16.500,294.000,31.500
2.989,13.000,-17.000,294.000,31.000
2.990,13.500,-16.000,294.500,32.000
2.991,15.000,-14.500,296.000,34.000
2.992,17.000,-12.500,297.500,35.500
2.993,18.500,-11.500,298.500,37.000
2.994,19.500,-10.500,299.500,38.000
2.995,20.500,-10.000,300.000,39.000
2.996,21.000,-10.000,300.500,39.500
2.997,21.000,-9.500,300.500,40.000
2.998,21.500,-9.500,301.000,40.500
2.999,22.000,-9.000,302.000,41.000
3.000,22.000,-9.000,302.500,41.500
3.001,22.000,-9.000,302.500,41.500
3.002,22.000,-10.000,302.000,40.500
3.003,21.500,-10.500,301.500,40.000
3.004,21.000,-11.000,301.000,39.000
3.005,21.000,-10.500,301.000,39.000
3.006,22.000,-9.500,302.000,39.500
3.007,23.500,-7.500,304.000,41.500
3.008,26.000,-4.500,306.500,44.000
3.009,29.000,-1.500,309.500,47.000
3.010,32.000,2.000,312.000,50.000
3.011,34.500,5.000,314.500,53.000
3.012,36.500,6.500,316.500,55.000
3.013,37.500,7.500,317.000,56.500
3.014,38.000,8.000,317.500,57.500
3.015,39.000,8.500,318.000,58.000
3.016,40.500,9.500,319.000,59.500
3.017,41.500,11.000,320.500,61.000
3.018,43.500,12.500,322.000,62.500
3.019,45.000,14.500,324.000,64.000
3.020,47.500,17.000,326.500,66.500
3.021,50.000,19.000,328.500,68.500
3.022,52.000,21.000,330.000,70.000
3.023,53.500,22.500,331.500,71.500
3.024,54.500,23.000,331.500,71.500
3.025,55.000,23.000,331.500,71.500
3.026,55.000,22.500,331.000,71.000
3.027,54.500,22.000,330.500,70.500
3.028,54.500,21.500,330.000,70.000
3.029,53.500,21.000,329.500,69.500
3.030,52.500,20.000,328.000,68.500
3.031,50.500,18.000,326.000,67.000
3.032,48.000,16.000,324.000,65.000
3.033,46.000,14.000,322.500,63.500
3.034,45.500,14.000,322.000,63.500
3.035,46.000,14.500,323.000,64.500
3.036,47.000,15.500,324.000,65.500
3.037,48.000,16.500,324.500,66.500
3.038,49.500,17.000,325.500,67.000
3.039,51.000,18.000,326.500,68.000
3.040,53.500,19.500,328.000,69.500
3.041,57.000,22.500,330.500,72.000
3.042,61.000,26.000,334.000,75.500
3.043,66.500,31.000,338.500,80.000
3.044,71.500,36.000,343.500,85.000
3.045,77.000,41.500,348.500,90.000
3.046,82.000,46.500,353.500,94.500
3.047,86.000,50.500,357.500,98.500
3.048,89.500,54.000,361.000,102.000
3.049,92.000,56.500,363.500,104.500
3.050,94.000,58.500,365.500,106.500
3.051,95.500,60.500,367.000,108.000
3.052,96.000,61.000,367.500,109.000
3.053,95.000,60.500,367.000,108.500
3.054,93.000,58.500,364.500,106.500
3.055,89.000,55.000,361.000,103.500
3.056,84.000,50.500,356.500,99.000
3.057,78.000,45.000,351.000,93.500
3.058,72.000,39.500,345.500,87.500
3.059,66.000,33.500,339.500,82.000
3.060,60.000,28.000,334.000,76.000
3.061,54.500,22.500,328.000,70.500
3.062,49.000,17.000,322.500,65.000
3.063,43.500,12.000,317.500,59.500
3.064,39.000,8.000,313.000,55.000
3.065,35.500,4.000,309.000,51.000
3.066,32.500,1.000,306.000,47.500
3.067,30.000,-1.500,303.500,45.000
3.068,28.500,-3.000,301.500,43.500
3.069,27.500,-4.000,301.000,43.000
3.070,27.500,-4.000,301.000,43.500
3.071,27.500,-3.500,301.500,44.000
3.072,27.500,-3.500,302.000,45.000
3.073,27.500,-3.000,302.500,45.500
3.074,27.500,-3.000,303.000,46.000
3.075,27.500,-3.000,303.000,46.500
3.076,27.000,-3.000,303.000,46.000
3.077,26.000,-3.500,302.000,45.500
3.078,24.500,-5.000,300.500,44.000
3.079,23.000,-6.500,299.000,42.500
3.080,21.500,-7.500,297.500,41.000
3.081,20.000,-9.000,296.000,39.500
3.082,19.000,-10.000,294.500,38.000
3.083,17.500,-11.500,293.500,36.500
3.084,16.000,-13.000,292.000,35.000
3.085,14.500,-14.500,290.500,33.000
3.086,13.000,-16.000,288.500,30.500
3.087,11.000,-17.500,286.500,28.500
3.088,9.000,-19.500,284.000,26.000
3.089,7.500,-21.000,282.000,24.500
3.090,6.500,-22.500,281.000,23.000
3.091,6.000,-23.000,280.500,22.500
3.092,6.000,-23.000,280.000,22.500
3.093,6.000,-22.500,280.500,23.000
3.094,6.000,-22.000,280.500,24.000
3.095,6.000,-22.000,281.000,24.000
3.096,5.000,-22.500,280.000,23.500
3.097,3.500,-23.500,278.500,22.500
3.098,2.000,-25.000,277.000,21.000
3.099,0.500,-26.500,275.500,19.500
3.100,-0.500,-27.500,274.500,18.500
3.101,-1.000,-28.500,273.500,17.500
3.102,-1.500,-29.000,273.000,17.000
3.103,-2.500,-30.000,272.000,15.500
3.104,-4.000,-31.500,270.500,14.000
3.105,-5.500,-33.500,268.500,11.500
3.106,-7.000,-35.000,267.000,9.500
3.107,-8.000,-36.000,266.000,8.500
3.108,-7.500,-36.000,266.000,8.500
3.109,-7.000,-35.500,266.500,9.500
3.110,-6.500,-35.000,267.000,10.500
3.111,-6.000,-34.500,267.500,11.000
3.112,-6.500,-34.500,267.000,11.000
3.113,-7.000,-35.000,267.000,11.000
3.114,-7.000,-35.000,267.000,11.500
3.115,-6.000,-34.000,267.500,12.000
3.116,-4.500,-32.500,268.500,13.500
3.117,-2.500,-31.000,270.000,15.000
3.118,-1.500,-29.500,271.000,16.500
3.119,-1.000,-29.000,272.000,17.000
3.120,-0.500,-28.500,272.500,17.500
3.121,-1.000,-28.500,272.500,17.500
3.122,-1.500,-29.000,272.000,16.500
3.123,-2.500,-29.500,271.500,16.000
3.124,-3.500,-30.500,270.500,15.500
3.125,-4.500,-31.000,270.500,15.000
3.126,-4.500,-31.000,270.000,14.500
3.127,-5.000,-31.500,269.500,14.000
3.128,-5.000,-32.000,269.000,13.500
3.129,-5.000,-32.000,268.500,13.000
3.130,-5.500,-32.500,268.000,13.000
3.131,-5.500,-32.500,268.000,13.000
3.132,-5.500,-33.000,268.000,13.500
3.133,-6.000,-33.000,268.000,14.000
3.134,-6.000,-32.500,268.000,14.500
3.135,-6.000,-32.500,268.500,15.000
3.136,-6.000,-32.500,268.500,15.000
3.137,-6.500,-32.500,268.500,15.000
3.138,-7.500,-33.000,268.000,15.000
3.139,-8.000,-33.500,268.000,14.500
3.140,-8.500,-34.000,267.500,14.000
3.141,-8.000,-34.000,267.500,14.000
3.142,-7.500,-34.000,267.500,14.500
3.143,-7.000,-33.500,268.000,14.500
3.144,-7.000,-33.000,268.000,14.500
3.145,-7.000,-33.500,268.000,14.500
3.146,-7.500,-33.500,267.500,14.000
3.147,-7.500,-33.500,267.500,13.500
3.148,-6.500,-33.000,268.000,14.000
3.149,-4.500,-31.500,269.500,15.500
3.150,-2.500,-30.000,271.000,17.500
3.151,-1.000,-28.500,272.000,19.000
3.152,-0.500,-28.000,272.500,19.500
3.153,-0.500,-28.000,272.500,20.000
3.154,0.000,-27.500,273.000,21.000
3.155,0.500,-26.500,273.500,22.000
3.156,1.500,-26.000,274.000,23.000
3.157,2.000,-26.000,274.000,23.500
3.158,2.000,-26.000,274.000,23.000
3.159,1.500,-27.000,273.500,22.500
3.160,0.500,-27.500,272.500,22.000
3.161,-1.000,-28.500,271.500,21.000
3.162,-2.000,-29.500,271.000,20.000
3.163,-3.000,-30.500,270.500,19.500
3.164,-4.000,-31.500,270.000,19.000
3.165,-4.500,-32.500,269.500,18.000
3.166,-5.500,-33.000,269.000,17.500
3.167,-5.500,-33.000,269.000,17.500
3.168,-5.500,-32.500,269.500,17.500
3.169,-4.500,-32.000,270.000,18.500
3.170,-4.000,-31.500,270.500,19.000
3.171,-4.000,-31.500,270.500,19.500
3.172,-4.500,-32.000,270.000,19.500
3.173,-4.500,-32.500,269.500,19.500
3.174,-4.500,-32.500,269.500,19.500
3.175,-3.500,-32.000,269.500,20.000
3.176,-2.000,-31.500,269.500,20.000
3.177,0.500,-29.500,270.000,21.000
3.178,4.000,-27.000,271.500,22.000
3.179,8.500,-23.000,274.500,24.500
3.180,15.500,-17.000,279.500,29.000
3.181,24.500,-8.500,286.500,36.000
3.182,35.000,1.500,296.000,45.500
3.183,46.500,12.500,307.000,56.000
3.184,57.500,24.000,318.000,67.000
3.185,68.500,35.000,329.000,78.000
3.186,78.500,45.000,339.500,88.500
3.187,86.500,54.500,349.000,97.500
3.188,94.000,62.500,357.000,106.000
3.189,100.000,69.500,364.500,113.000
3.190,105.500,76.000,371.500,120.500
3.191,111.500,83.000,379.500,128.500
3.192,118.500,90.500,388.000,137.500
3.193,127.000,99.500,397.500,148.000
3.194,136.500,109.500,408.500,159.000
3.195,146.000,119.500,419.000,170.500
3.196,154.500,128.500,428.500,180.500
3.197,161.500,135.500,436.000,188.000
3.198,166.000,141.000,441.500,193.500
3.199,170.000,145.000,445.500,198.000
3.200,174.000,149.000,449.500,202.000
3.201,178.500,154.000,454.500,207.000
3.202,184.500,159.500,460.000,212.000
3.203,190.000,165.000,465.500,217.500
3.204,195.500,170.000,470.000,222.500
3.205,199.500,173.000,473.000,225.500
3.206,201.500,174.500,474.500,226.500
3.207,201.500,174.000,474.000,226.000
3.208,201.500,173.500,473.000,225.500
3.209,201.500,173.500,473.500,226.000
3.210,203.000,174.500,474.500,227.500
3.211,204.000,176.000,476.000,229.000
3.212,205.000,177.000,477.000,230.500
3.213,205.000,177.000,477.000,230.500
3.214,203.500,175.500,475.500,229.500
3.215,200.500,172.500,472.500,226.500
3.216,195.500,167.500,467.500,221.500
3.217,187.500,159.500,459.000,213.000
3.218,176.000,147.500,446.500,200.500
3.219,160.000,131.500,430.000,184.000
3.220,140.000,111.500,409.500,163.500
3.221,118.000,89.500,387.000,140.500
3.222,95.500,67.000,364.000,117.500
3.223,75.500,46.500,343.500,96.500
3.224,59.000,30.000,326.500,79.500
3.225,47.500,18.000,314.500,67.000
3.226,40.000,10.500,307.000,59.500
3.227,36.000,6.500,302.500,55.000
3.228,34.000,4.000,300.000,52.500
3.229,32.000,2.000,297.500,50.000
3.230,28.500,-1.500,294.000,46.000
3.231,23.500,-6.000,289.000,41.000
3.232,17.000,-12.000,283.000,34.500
3.233,9.500,-20.000,275.000,27.000
3.234,0.500,-28.500,266.500,18.500
3.235,-8.500,-37.500,257.500,9.000
3.236,-18.000,-47.500,248.000,0.000
3.237,-27.000,-57.000,239.000,-9.500
3.238,-35.500,-65.500,230.000,-18.000
3.239,-42.000,-73.000,222.500,-25.500
3.240,-47.500,-78.500,216.500,-31.000
3.241,-51.000,-83.000,212.500,-35.500
3.242,-53.000,-85.000,210.000,-38.000
3.243,-53.000,-85.500,209.500,-38.500
3.244,-52.000,-84.500,210.500,-37.000
3.245,-49.500,-81.500,213.000,-34.500
3.246,-46.500,-78.500,216.500,-31.000
3.247,-43.000,-74.000,221.000,-27.000
3.248,-38.000,-69.000,226.000,-22.000
3.249,-32.000,-63.000,232.000,-16.000
3.250,-25.500,-56.500,238.500,-9.000
3.251,-19.000,-49.500,245.500,-2.000
3.252,-12.500,-43.500,252.000,4.500
3.253,-7.000,-37.500,257.500,11.000
3.254,-1.500,-31.500,263.500,17.000
3.255,4.500,-25.500,269.500,23.000
3.256,10.500,-20.000,275.500,29.500
3.257,16.000,-14.000,281.500,35.000
3.258,21.000,-9.000,286.500,40.500
3.259,26.000,-4.500,291.000,45.000
3.260,29.500,-1.500,294.000,48.500
3.261,32.000,1.000,296.000,50.500
3.262,33.000,1.500,296.500,51.000
3.263,32.500,1.000,296.000,50.000
3.264,31.500,-0.500,294.500,48.500
3.265,30.500,-2.000,293.000,46.500
3.266,30.500,-2.500,292.000,46.000
3.267,31.500,-2.000,292.500,46.500
3.268,33.000,-0.500,294.000,48.000
3.269,34.000,1.000,295.000,49.000
3.270,34.500,2.000,296.000,50.000
3.271,35.000,2.000,296.000,50.000
