'Elapsed time','AECG1','AECG2','AECG3','AECG4'
'seconds','uV','uV','uV','uV'
0.000,207.500,183.500,198.500,88.000
0.001,207.000,183.000,198.500,88.000
0.002,208.000,183.000,198.500,88.500
0.003,208.000,182.000,198.000,88.500
0.004,209.000,182.000,198.000,88.500
0.005,209.000,181.500,197.500,88.500
0.006,209.500,181.500,197.500,88.500
0.007,209.000,181.000,196.500,88.000
0.008,209.500,181.500,196.500,88.500
0.009,209.000,181.000,196.000,88.000
0.010,209.000,181.000,196.000,88.000
0.011,208.500,180.500,195.000,87.000
0.012,208.500,180.500,194.500,86.500
0.013,208.000,180.000,193.500,85.500
0.014,208.000,180.000,193.500,85.500
0.015,208.000,179.500,192.500,85.000
0.016,208.000,179.500,192.500,85.000
0.017,208.000,179.500,192.000,85.000
0.018,208.500,180.000,192.000,85.000
0.019,208.000,180.000,192.000,85.000
0.020,208.000,181.000,192.000,85.000
0.021,207.500,181.000,192.000,84.500
0.022,207.500,181.500,192.000,84.500
0.023,206.500,181.500,191.500,84.000
0.024,206.500,182.000,192.000,84.000
0.025,206.000,181.500,191.500,83.500
0.026,206.000,182.000,191.500,83.500
0.027,205.500,181.500,191.000,82.500
0.028,205.500,181.500,191.000,82.500
0.029,205.000,181.500,190.500,81.500
0.030,205.500,181.500,190.500,81.500
0.031,205.000,181.500,190.500,81.000
0.032,205.000,182.000,191.500,81.500
0.033,204.500,182.500,191.500,81.500
0.034,204.500,183.000,192.000,81.500
0.035,204.000,183.000,192.000,81.500
0.036,203.500,184.000,192.500,82.000
0.037,203.000,184.000,192.000,81.500
0.038,202.500,184.000,192.000,82.000
0.039,202.000,183.500,191.500,81.500
0.040,202.000,184.000,191.500,81.000
0.041,202.000,183.500,191.000,80.500
0.042,202.500,183.500,191.000,80.000
0.043,202.500,183.000,190.500,79.500
0.044,203.000,183.500,190.500,79.500
0.045,203.500,184.000,190.500,79.500
0.046,204.500,184.500,191.000,80.000
0.047,205.000,185.000,191.000,80.500
0.048,206.000,185.500,191.000,81.500
0.049,206.500,186.000,191.000,82.000
0.050,207.500,187.000,191.000,82.500
0.051,207.500,187.500,191.000,82.500
0.052,208.000,188.000,191.500,83.000
0.053,208.000,188.000,191.500,83.000
0.054,208.000,188.500,192.000,83.500
0.055,207.000,188.500,191.500,83.500
0.056,206.500,188.500,192.000,84.000
0.057,205.500,188.000,192.000,84.500
0.058,205.000,188.000,192.500,85.000
0.059,204.500,187.500,192.000,85.000
0.060,205.000,187.000,192.500,85.000
0.061,205.000,186.500,192.500,85.000
0.062,205.500,186.500,192.500,85.000
0.063,205.000,186.000,191.500,85.000
0.064,205.500,186.000,191.500,85.000
0.065,205.500,185.500,191.000,84.500
0.066,205.500,186.000,191.000,84.500
0.067,205.000,185.500,190.000,84.500
0.068,205.500,185.500,190.500,84.500
0.069,205.000,185.000,190.000,84.500
0.070,205.000,185.500,190.500,85.000
0.071,205.000,185.500,190.500,85.500
0.072,205.000,186.000,191.000,86.000
0.073,205.000,186.000,191.000,86.500
0.074,205.000,186.000,192.000,87.000
0.075,205.000,185.500,191.500,86.500
0.076,205.000,186.000,192.000,87.000
0.077,204.500,185.500,191.500,86.500
0.078,204.500,185.500,191.500,86.500
0.079,204.000,184.500,190.500,86.500
0.080,204.000,184.500,190.500,86.500
0.081,203.500,184.000,190.000,86.500
0.082,203.500,184.500,189.500,87.000
0.083,203.500,184.000,188.500,86.500
0.084,203.500,184.500,188.500,87.000
0.085,203.500,184.000,187.500,86.500
0.086,203.500,184.000,187.000,86.500
0.087,203.500,183.500,186.000,86.500
0.088,204.000,183.500,186.000,86.500
0.089,203.500,183.000,185.500,86.000
0.090,204.000,183.000,186.000,86.500
0.091,204.000,183.000,185.500,86.000
0.092,204.500,183.000,186.000,86.500
0.093,204.500,183.000,186.000,87.000
0.094,205.000,183.000,186.000,87.500
0.095,204.500,182.500,185.500,87.500
0.096,204.500,182.500,185.500,88.000
0.097,204.000,181.500,185.000,87.500
0.098,204.000,181.500,185.000,88.000
0.099,203.000,180.500,184.500,87.500
0.100,203.000,180.000,185.000,87.500
0.101,202.500,179.500,184.500,86.500
0.102,203.000,179.000,184.500,86.000
0.103,202.500,178.500,184.000,85.000
0.104,203.000,178.500,184.000,84.500
0.105,202.500,178.000,183.000,84.000
0.106,202.500,178.000,183.000,84.000
0.107,202.000,177.500,182.500,84.000
0.108,202.500,177.500,183.000,84.000
0.109,202.000,176.500,182.500,84.000
0.110,202.500,177.000,183.000,84.500
0.111,202.500,176.500,183.000,84.500
0.112,203.000,177.500,183.500,85.000
0.113,203.000,177.500,183.500,85.500
0.114,203.500,178.500,184.500,86.500
0.115,203.500,178.500,185.000,87.000
0.116,204.000,179.500,185.500,87.500
0.117,204.000,179.500,185.000,88.000
0.118,204.000,180.000,185.500,88.500
0.119,203.500,180.000,185.000,88.500
0.120,203.500,180.000,185.000,89.000
0.121,202.500,180.000,184.500,89.500
0.122,202.500,180.000,184.000,90.500
0.123,202.000,180.000,183.500,91.000
0.124,202.000,180.000,183.500,91.500
0.125,201.500,180.000,183.000,91.500
0.126,201.500,180.000,183.000,92.000
0.127,201.000,179.500,182.500,92.000
0.128,201.500,179.500,182.500,92.000
0.129,201.000,178.500,181.500,91.500
0.130,202.000,178.000,181.000,91.500
0.131,202.000,177.000,180.500,91.500
0.132,202.500,176.500,180.500,91.500
0.133,202.500,175.500,180.000,91.500
0.134,203.500,175.500,179.500,92.000
0.135,203.500,174.500,178.500,91.500
0.136,204.000,174.500,178.500,92.000
0.137,203.500,174.500,177.500,91.500
0.138,203.500,175.000,177.000,91.500
0.139,203.000,175.000,176.500,91.500
0.140,203.500,175.500,176.500,91.500
0.141,203.000,175.500,176.500,91.500
0.142,203.500,176.500,177.000,91.500
0.143,203.500,176.500,177.000,91.500
0.144,204.000,176.500,177.500,91.500
0.145,204.000,176.000,177.000,91.500
0.146,204.500,176.000,177.000,92.000
0.147,204.500,175.500,176.500,91.500
0.148,205.000,175.500,176.500,92.000
0.149,205.000,175.000,176.000,91.500
0.150,205.500,175.000,176.500,92.000
0.151,205.500,174.500,176.500,92.000
0.152,206.000,174.500,178.000,92.500
0.153,206.000,174.500,178.500,92.500
0.154,206.000,174.500,179.500,92.500
0.155,205.500,174.500,179.500,92.000
0.156,205.500,174.500,179.500,92.000
0.157,204.500,173.500,178.500,91.000
0.158,204.000,173.500,177.500,90.000
0.159,203.000,173.000,175.500,88.000
0.160,202.500,173.500,175.000,86.500
0.161,202.000,173.000,173.500,85.000
0.162,202.000,174.000,173.500,83.500
0.163,201.500,174.000,173.000,82.500
0.164,202.000,175.000,173.000,82.000
0.165,202.000,175.000,173.000,81.500
0.166,203.000,176.500,174.000,81.500
0.167,203.000,177.000,175.000,82.000
0.168,203.500,178.500,176.500,83.000
0.169,204.000,179.000,177.500,83.500
0.170,205.000,180.000,179.000,84.500
0.171,205.500,180.500,180.000,85.000
0.172,206.500,181.500,181.000,86.000
0.173,206.500,181.500,181.500,86.000
0.174,207.000,182.000,182.000,87.000
0.175,207.000,181.500,182.000,87.000
0.176,207.000,182.000,182.500,87.500
0.177,206.500,181.500,182.500,87.000
0.178,206.500,181.500,183.000,87.500
0.179,206.000,181.000,183.000,87.000
0.180,206.000,181.000,183.500,87.000
0.181,205.500,180.500,183.500,86.000
0.182,206.000,180.500,183.500,86.000
0.183,205.500,180.000,182.500,85.000
0.184,206.000,180.000,182.500,85.000
0.185,205.500,179.500,182.000,84.500
0.186,205.500,180.000,182.000,84.500
0.187,205.000,179.500,182.000,84.000
0.188,205.500,179.500,182.500,84.000
0.189,204.500,179.500,182.500,83.500
0.190,204.500,179.500,183.000,84.000
0.191,204.000,179.500,183.000,83.500
0.192,204.000,180.000,183.500,84.000
0.193,204.000,180.500,183.500,84.000
0.194,204.500,181.500,184.500,85.000
0.195,204.000,182.000,185.000,85.000
0.196,204.500,183.000,186.500,85.500
0.197,204.000,183.500,187.000,85.500
0.198,204.000,184.500,188.000,86.000
0.199,203.500,184.500,188.500,86.000
0.200,203.500,185.500,189.500,86.000
0.201,203.000,186.000,190.000,86.000
0.202,203.000,187.000,191.000,86.000
0.203,202.500,187.500,191.000,86.000
0.204,202.500,188.500,192.000,86.500
0.205,202.000,188.500,192.000,86.000
0.206,202.000,189.000,192.000,86.000
0.207,202.000,189.000,191.500,85.000
0.208,202.000,190.000,192.000,85.000
0.209,202.000,189.500,191.500,84.500
0.210,202.500,190.000,192.000,84.500
0.211,202.500,190.000,191.500,84.000
0.212,203.000,191.000,192.500,84.500
0.213,202.500,191.500,192.500,84.000
0.214,203.000,192.500,193.000,84.500
0.215,202.500,193.000,193.000,84.000
0.216,202.500,194.000,194.000,84.500
0.217,201.500,194.000,194.000,85.000
0.218,201.500,194.500,195.000,85.500
0.219,201.000,194.000,195.000,85.500
0.220,201.000,194.000,195.500,85.500
0.221,200.500,193.000,195.500,85.500
0.222,201.000,193.000,196.000,85.500
0.223,200.500,192.500,195.500,85.500
0.224,201.000,192.500,196.000,85.500
0.225,201.000,192.500,196.000,85.000
0.226,202.000,193.000,196.500,85.000
0.227,202.000,193.000,196.000,84.500
0.228,203.000,193.500,196.500,84.500
0.229,203.000,193.500,196.000,84.500
0.230,204.000,194.000,197.000,85.000
0.231,204.000,194.000,197.000,85.500
0.232,204.500,195.000,198.000,86.000
0.233,204.500,194.500,198.000,86.500
0.234,205.500,195.000,199.000,87.000
0.235,205.500,194.000,199.000,87.500
0.236,206.000,194.000,199.000,88.000
0.237,205.500,193.000,199.000,88.000
0.238,206.000,193.000,199.000,88.500
0.239,205.500,192.500,199.000,88.000
0.240,205.500,192.500,199.000,88.500
0.241,205.000,192.000,198.500,88.000
0.242,205.500,192.000,199.000,88.000
0.243,205.500,191.000,198.500,87.500
0.244,206.000,190.500,198.500,87.500
0.245,206.000,190.000,198.000,87.500
0.246,206.500,190.000,198.000,87.500
0.247,206.500,189.500,197.500,87.500
0.248,207.000,189.500,198.000,88.000
0.249,206.500,189.500,198.000,88.000
0.250,207.000,189.500,198.500,88.500
0.251,206.500,189.000,198.500,88.500
0.252,207.000,189.500,199.000,89.000
0.253,207.000,189.000,198.500,88.500
0.254,207.000,189.000,199.000,88.500
0.255,206.500,188.500,198.500,88.500
0.256,206.500,189.000,199.000,88.500
0.257,206.000,188.500,199.000,88.000
0.258,206.500,189.000,199.000,88.500
0.259,206.500,188.500,198.500,88.500
0.260,206.500,188.000,198.500,88.500
0.261,206.500,187.000,198.000,88.500
0.262,207.000,186.500,198.000,89.000
0.263,206.500,185.500,197.000,89.000
0.264,207.000,185.500,197.000,89.500
0.265,207.000,185.000,196.500,90.500
0.266,207.000,185.000,196.500,91.500
0.267,207.000,184.000,195.500,92.000
0.268,207.000,183.500,195.000,92.500
0.269,206.500,182.000,193.000,93.000
0.270,207.000,180.000,191.500,93.000
0.271,207.000,177.500,188.500,93.000
0.272,208.000,175.500,186.500,93.000
0.273,208.000,172.500,183.500,92.500
0.274,209.000,170.000,181.000,92.500
0.275,209.500,167.000,177.500,91.500
0.276,211.000,164.000,174.500,91.000
0.277,212.500,160.500,171.000,90.500
0.278,214.500,157.500,168.000,90.500
0.279,216.500,154.000,164.000,90.000
0.280,219.000,151.000,161.000,90.500
0.281,221.000,147.500,156.500,90.000
0.282,224.000,144.000,151.500,89.000
0.283,226.000,138.500,144.500,86.000
0.284,229.500,132.000,135.500,81.500
0.285,232.000,123.500,123.500,74.500
0.286,236.000,114.500,110.500,65.500
0.287,238.500,104.000,95.000,55.000
0.288,242.000,94.000,80.000,43.500
0.289,244.500,83.500,65.500,31.500
0.290,247.500,75.500,53.500,21.500
0.291,248.500,68.500,43.500,12.500
0.292,249.500,64.000,37.500,5.500
0.293,249.000,61.500,34.500,0.000
0.294,249.000,62.000,34.500,-3.500
0.295,247.000,64.000,37.000,-5.500
0.296,245.500,68.500,42.000,-6.500
0.297,243.000,74.500,49.000,-6.000
0.298,241.000,82.000,57.500,-5.000
0.299,238.500,89.500,66.500,-3.000
0.300,236.500,98.500,76.500,-0.500
0.301,233.500,107.000,86.000,2.000
0.302,231.500,116.000,96.000,5.000
0.303,229.000,124.000,105.500,8.500
0.304,227.000,132.000,115.500,13.000
0.305,224.000,140.000,125.000,17.500
0.306,221.500,148.000,136.000,23.000
0.307,218.000,155.500,146.000,28.000
0.308,216.000,163.500,156.000,33.500
0.309,213.000,170.500,165.000,37.500
0.310,211.500,177.000,173.000,41.500
0.311,210.000,182.500,179.500,44.500
0.312,209.500,187.000,185.000,46.500
0.313,208.000,190.000,189.000,48.000
0.314,207.500,193.000,192.500,50.000
0.315,206.000,195.500,195.500,51.500
0.316,205.500,197.500,198.000,53.500
0.317,204.500,199.000,200.000,55.500
0.318,204.000,201.000,202.500,58.000
0.319,203.000,202.000,203.500,60.500
0.320,202.500,203.500,205.000,63.000
0.321,202.000,203.500,205.500,65.000
0.322,202.000,203.500,205.500,67.000
0.323,201.500,203.000,205.000,69.000
0.324,202.000,202.500,204.500,71.000
0.325,201.000,201.000,204.000,73.000
0.326,201.000,200.500,203.500,74.500
0.327,200.500,199.000,203.000,76.000
0.328,200.500,198.000,203.000,77.500
0.329,200.000,197.000,203.000,78.500
0.330,200.000,196.500,203.500,80.000
0.331,200.000,195.500,203.500,80.500
0.332,200.500,195.500,204.500,82.000
0.333,200.500,195.000,205.000,82.500
0.334,201.000,195.500,206.500,84.000
0.335,200.500,195.500,207.000,84.500
0.336,201.000,196.000,208.000,86.000
0.337,200.500,196.000,208.500,86.500
0.338,201.000,196.500,209.500,87.500
0.339,200.500,196.000,209.500,88.500
0.340,201.000,196.500,210.000,89.500
0.341,200.500,196.500,209.500,90.000
0.342,200.500,197.000,210.500,91.000
0.343,200.000,196.500,210.500,91.000
0.344,200.500,196.500,211.000,91.500
0.345,200.500,196.000,210.500,92.000
0.346,201.500,196.000,211.500,92.500
0.347,202.000,195.000,211.500,93.000
0.348,203.000,195.000,212.000,94.000
0.349,203.500,194.500,212.000,95.000
0.350,204.500,194.500,213.000,96.500
0.351,204.500,194.000,213.000,97.000
0.352,204.500,194.000,213.500,98.500
0.353,204.000,193.500,213.500,99.000
0.354,204.000,194.000,214.000,100.500
0.355,203.500,193.500,214.500,101.500
0.356,204.000,193.500,215.500,102.500
0.357,204.000,193.000,216.000,103.500
0.358,204.500,193.500,217.000,105.000
0.359,204.500,193.000,217.500,105.500
0.360,205.000,193.500,218.500,107.000
0.361,205.000,193.000,218.500,107.500
0.362,205.500,193.500,219.500,109.000
0.363,205.000,193.500,219.500,109.500
0.364,205.000,193.500,220.500,110.500
0.365,204.500,193.000,220.500,111.000
0.366,204.500,193.000,221.000,112.500
0.367,204.000,192.500,220.500,113.000
0.368,204.000,192.500,221.000,114.000
0.369,203.500,192.000,221.000,114.500
0.370,204.000,192.500,221.000,116.000
0.371,204.000,192.000,221.000,116.500
0.372,204.500,193.000,222.000,118.000
0.373,205.000,193.000,222.000,118.500
0.374,205.500,194.500,223.500,120.000
0.375,205.500,194.500,224.000,121.000
0.376,206.000,195.500,225.000,122.500
0.377,205.500,195.000,225.500,123.000
0.378,206.000,195.500,226.500,124.500
0.379,205.500,195.000,226.500,125.000
0.380,206.000,195.000,227.500,126.000
0.381,205.500,194.500,227.000,126.500
0.382,206.000,194.500,227.500,127.500
0.383,206.000,194.000,227.500,127.500
0.384,206.500,194.000,227.500,128.500
0.385,206.000,193.000,227.000,128.500
0.386,206.500,192.000,227.000,129.000
0.387,205.500,190.500,226.500,129.000
0.388,205.500,190.000,227.000,129.000
0.389,204.500,188.500,226.500,129.000
0.390,204.500,188.000,226.500,129.500
0.391,203.500,187.000,226.000,129.500
0.392,203.500,186.500,226.500,130.000
0.393,203.000,186.000,226.000,130.500
0.394,203.500,186.000,226.500,131.500
0.395,203.000,186.000,226.500,132.000
0.396,203.500,186.500,227.000,133.000
0.397,204.000,186.500,227.000,134.000
0.398,205.000,187.500,227.500,135.000
0.399,205.500,187.500,228.000,136.000
0.400,206.500,188.500,229.000,137.500
0.401,207.500,189.000,229.000,138.000
0.402,208.500,189.500,230.000,139.500
0.403,209.000,189.000,230.000,139.500
0.404,209.500,189.500,230.500,140.500
0.405,209.500,189.000,230.000,140.500
0.406,209.500,189.500,230.500,141.000
0.407,209.000,189.000,230.500,141.500
0.408,209.500,189.000,230.500,142.000
0.409,209.000,188.500,230.500,142.000
0.410,209.000,189.000,230.500,142.500
0.411,208.500,188.500,230.000,143.000
0.412,209.000,188.000,230.000,143.500
0.413,208.500,187.500,229.500,144.000
0.414,209.000,187.500,229.500,145.000
0.415,208.500,187.500,229.000,145.500
0.416,209.000,187.500,229.500,146.500
0.417,209.000,187.000,229.000,147.000
0.418,209.000,187.000,230.000,148.500
0.419,209.000,186.500,230.000,149.000
0.420,209.000,187.000,230.500,150.000
0.421,209.000,186.500,230.000,150.500
0.422,209.000,187.000,230.500,151.500
0.423,208.500,186.500,230.500,151.500
0.424,209.000,187.000,231.000,152.000
0.425,208.500,186.500,230.500,152.000
0.426,209.000,187.000,231.500,153.000
0.427,208.500,186.500,231.000,153.000
0.428,209.000,187.000,231.500,153.500
0.429,208.500,186.500,231.000,154.000
0.430,208.500,186.500,231.500,154.500
0.431,208.000,186.000,231.500,155.000
0.432,208.000,186.500,232.000,155.500
0.433,207.500,186.000,231.500,156.000
0.434,207.500,186.000,232.500,157.000
0.435,206.500,186.000,232.500,157.500
0.436,207.000,186.500,233.000,158.500
0.437,206.500,186.500,232.500,158.500
0.438,207.000,187.000,232.500,159.500
0.439,206.500,187.000,231.500,159.500
0.440,207.500,187.500,231.500,160.500
0.441,207.500,187.000,230.500,160.500
0.442,208.000,187.000,231.000,161.500
0.443,208.000,187.000,230.500,161.500
0.444,208.500,187.000,231.000,162.000
0.445,208.500,187.000,231.000,162.000
0.446,209.000,187.000,231.500,163.000
0.447,209.000,186.500,231.000,163.000
0.448,209.500,187.000,231.500,163.500
0.449,209.500,186.500,231.000,163.500
0.450,210.000,186.500,231.000,164.000
0.451,210.000,186.000,230.500,164.000
0.452,210.000,186.000,231.000,164.500
0.453,209.500,186.000,230.500,164.500
0.454,210.000,186.500,231.000,165.000
0.455,209.000,186.000,230.500,165.500
0.456,209.000,186.000,230.500,166.000
0.457,208.000,185.500,229.500,166.500
0.458,208.500,186.000,230.000,167.500
0.459,208.500,185.500,229.500,168.000
0.460,209.500,186.000,230.000,169.000
0.461,210.000,186.000,230.000,169.500
0.462,211.000,186.500,230.500,170.500
0.463,211.000,186.000,230.500,170.500
0.464,212.000,186.500,230.500,171.500
0.465,212.500,186.000,230.000,171.500
0.466,214.000,186.500,230.000,172.000
0.467,214.500,186.000,229.500,172.500
0.468,215.500,186.500,229.500,173.500
0.469,215.500,186.000,228.500,173.500
0.470,216.000,186.000,228.500,174.500
0.471,215.500,185.500,227.500,174.500
0.472,215.500,185.000,227.500,175.000
0.473,215.000,184.000,227.000,175.000
0.474,215.500,183.500,227.000,175.500
0.475,215.500,182.500,226.500,176.000
0.476,216.500,182.500,226.500,177.000
0.477,216.500,182.000,226.000,177.000
0.478,217.000,182.000,226.000,178.000
0.479,217.000,182.000,225.000,178.500
0.480,218.000,183.500,225.500,179.500
0.481,218.000,184.000,225.000,180.000
0.482,218.500,185.000,225.000,181.000
0.483,218.000,185.500,224.000,181.500
0.484,218.500,186.000,224.000,182.500
0.485,218.000,185.500,223.000,182.500
0.486,218.000,185.500,223.000,183.500
0.487,217.500,185.000,222.000,183.500
0.488,217.500,184.500,221.500,184.500
0.489,217.000,183.500,220.500,184.500
0.490,217.500,183.000,220.000,185.000
0.491,217.500,182.500,219.000,185.500
0.492,218.000,182.000,218.000,186.500
0.493,218.000,181.500,217.000,187.000
0.494,218.500,182.000,216.500,188.000
0.495,218.000,181.500,216.000,189.000
0.496,218.500,182.000,216.500,190.000
0.497,218.500,181.500,216.000,190.500
0.498,219.000,181.500,216.500,191.500
0.499,218.500,181.000,216.000,192.000
0.500,219.000,181.000,216.000,192.500
0.501,219.000,180.500,215.000,193.000
0.502,219.000,180.500,215.000,194.000
0.503,218.500,180.000,214.000,194.500
0.504,219.000,180.000,214.000,195.500
0.505,219.000,179.000,213.000,195.500
0.506,219.000,179.000,212.500,196.500
0.507,218.500,178.000,211.500,196.500
0.508,218.500,178.000,211.500,197.500
0.509,218.000,177.500,210.500,197.500
0.510,218.500,177.500,210.500,198.000
0.511,218.000,177.000,209.500,197.500
0.512,218.500,177.500,209.000,198.500
0.513,218.500,177.500,208.000,198.500
0.514,219.000,178.000,208.000,199.500
0.515,218.500,177.500,207.500,199.500
0.516,219.000,178.000,207.500,200.500
0.517,219.000,178.000,207.500,201.000
0.518,219.500,178.500,207.500,202.000
0.519,219.500,178.000,207.500,202.500
0.520,220.000,179.000,207.500,203.000
0.521,220.000,179.000,207.000,203.500
0.522,221.000,180.000,207.500,204.000
0.523,221.500,180.000,207.000,204.000
0.524,222.000,180.500,207.000,205.000
0.525,222.000,180.500,206.500,205.000
0.526,223.000,181.000,207.000,206.000
0.527,223.000,181.000,206.000,206.000
0.528,223.500,181.500,206.000,206.500
0.529,223.500,181.000,205.000,206.500
0.530,224.000,181.500,204.500,207.500
0.531,223.500,181.000,203.500,207.500
0.532,223.500,180.500,203.500,208.000
0.533,223.000,180.000,202.500,208.000
0.534,223.000,179.500,202.500,208.500
0.535,222.000,179.000,202.000,209.000
0.536,222.000,179.000,202.000,210.000
0.537,221.000,178.500,202.000,210.000
0.538,221.500,178.500,202.500,211.500
0.539,221.500,178.500,202.000,212.000
0.540,222.000,178.500,202.500,213.500
0.541,222.000,178.500,202.500,214.000
0.542,222.500,179.000,203.000,215.000
0.543,221.500,178.500,202.500,215.000
0.544,221.000,179.000,202.000,216.000
0.545,220.000,178.500,201.500,216.000
0.546,219.500,178.500,201.000,216.500
0.547,218.000,178.000,200.000,216.000
0.548,218.000,178.000,200.000,217.000
0.549,217.000,177.500,199.500,217.000
0.550,217.500,177.500,200.500,217.500
0.551,217.500,177.000,200.500,218.000
0.552,218.000,177.500,201.500,219.000
0.553,217.500,177.000,201.500,219.500
0.554,217.000,177.000,202.000,221.000
0.555,216.500,176.500,202.000,221.500
0.556,216.000,177.000,202.500,223.000
0.557,215.500,177.000,202.500,224.000
0.558,215.500,177.500,203.500,225.500
0.559,215.000,177.000,204.000,226.500
0.560,215.000,177.000,204.500,227.500
0.561,214.500,176.000,205.000,228.000
0.562,215.000,175.500,206.000,228.500
0.563,215.000,174.500,206.500,228.500
0.564,215.500,174.500,207.500,229.500
0.565,215.500,173.500,207.500,229.000
0.566,216.500,173.500,208.000,229.500
0.567,216.000,173.500,207.500,229.500
0.568,216.500,173.500,207.500,230.000
0.569,216.000,173.500,207.000,229.500
0.570,216.000,174.000,207.000,230.000
0.571,215.500,174.000,206.500,230.000
0.572,215.000,174.500,207.500,231.000
0.573,214.500,175.000,208.000,231.000
0.574,214.500,175.500,209.500,232.500
0.575,214.000,175.500,210.000,233.000
0.576,214.500,176.000,211.500,234.000
0.577,214.500,175.500,212.500,234.500
0.578,215.000,175.500,214.000,235.500
0.579,215.000,175.000,215.000,235.500
0.580,215.500,175.000,216.500,236.500
0.581,215.000,175.000,217.000,236.500
0.582,216.000,175.500,218.000,237.500
0.583,216.000,175.500,218.500,237.500
0.584,216.500,176.000,219.500,238.000
0.585,216.000,175.500,220.000,237.500
0.586,215.500,176.000,221.000,237.500
0.587,215.000,175.500,221.000,236.500
0.588,214.500,175.500,222.000,236.000
0.589,214.000,175.500,222.000,235.000
0.590,214.000,175.500,222.500,235.000
0.591,213.500,175.500,222.500,234.000
0.592,214.000,176.000,223.500,234.000
0.593,213.500,175.500,223.500,233.000
0.594,214.000,176.000,224.500,233.500
0.595,213.500,175.500,224.500,233.000
0.596,214.000,176.000,226.000,233.500
0.597,213.500,175.500,226.500,233.500
0.598,214.000,176.000,228.000,234.000
0.599,213.500,175.500,229.000,234.000
0.600,214.000,175.500,230.000,234.500
0.601,213.500,175.000,230.000,234.000
0.602,213.500,175.000,231.000,233.500
0.603,213.000,175.000,231.000,232.500
0.604,213.000,175.000,231.500,232.000
0.605,212.500,175.000,231.000,231.000
0.606,213.000,175.500,231.500,231.000
0.607,213.000,176.000,231.500,230.500
0.608,213.000,177.000,232.500,230.500
0.609,212.500,177.000,232.500,229.500
0.610,212.500,178.000,233.500,230.000
0.611,211.500,178.500,233.500,229.500
0.612,211.500,179.000,234.500,229.500
0.613,211.000,179.000,234.500,229.000
0.614,211.000,179.500,235.000,229.000
0.615,211.000,179.000,234.500,228.500
0.616,211.500,179.500,235.500,228.500
0.617,211.500,179.500,235.500,227.500
0.618,212.000,179.500,236.000,227.500
0.619,211.500,179.500,236.000,227.000
0.620,212.000,180.000,236.500,227.000
0.621,211.500,180.500,236.000,226.500
0.622,212.000,181.000,236.500,227.000
0.623,211.500,181.000,236.500,226.500
0.624,212.000,181.500,237.000,226.500
0.625,211.500,181.500,236.500,226.000
0.626,212.000,182.000,237.500,226.000
0.627,212.000,182.000,237.500,225.500
0.628,212.500,182.500,238.000,226.000
0.629,212.500,182.500,238.000,225.500
0.630,213.000,183.000,238.000,225.500
0.631,213.000,183.000,237.500,225.000
0.632,213.500,183.500,237.500,225.000
0.633,213.000,184.000,237.500,225.000
0.634,213.500,185.000,238.000,225.500
0.635,213.500,185.000,238.000,225.500
0.636,214.000,186.000,239.000,226.000
0.637,213.500,186.000,239.500,226.000
0.638,214.000,186.500,240.000,226.500
0.639,213.500,186.000,240.000,226.000
0.640,213.500,186.000,240.000,226.500
0.641,212.500,185.500,239.000,225.500
0.642,212.500,185.000,239.000,225.500
0.643,212.000,184.500,238.500,225.000
0.644,212.500,185.000,238.500,225.000
0.645,212.000,185.000,237.500,224.500
0.646,212.500,186.000,237.500,224.500
0.647,212.500,186.000,237.000,224.000
0.648,213.000,187.000,237.000,224.000
0.649,212.500,187.500,236.500,223.500
0.650,213.500,189.000,237.500,224.000
0.651,213.500,189.500,238.000,224.500
0.652,214.500,191.000,239.500,225.000
0.653,215.000,192.000,240.000,225.500
0.654,216.000,193.000,241.500,226.000
0.655,216.500,193.000,242.000,226.500
0.656,217.500,193.500,243.000,227.000
0.657,217.500,193.000,243.500,227.000
0.658,217.500,193.000,244.500,227.500
0.659,217.000,192.500,244.500,227.500
0.660,217.500,192.500,245.000,227.500
0.661,217.000,192.000,244.500,227.000
0.662,217.000,192.000,245.000,227.000
0.663,216.500,191.500,244.000,226.500
0.664,216.500,191.500,244.000,226.000
0.665,216.000,191.000,243.000,225.000
0.666,216.500,191.000,242.500,224.500
0.667,215.500,190.500,241.500,223.500
0.668,215.500,190.500,241.500,223.500
0.669,215.000,189.500,241.000,222.500
0.670,214.500,189.500,241.000,222.500
0.671,214.000,189.000,240.500,221.500
0.672,214.000,189.000,241.000,222.000
0.673,213.500,189.000,240.500,221.500
0.674,214.000,189.000,241.000,221.500
0.675,213.000,189.000,240.500,220.500
0.676,213.000,189.500,241.000,221.000
0.677,212.500,189.500,241.000,220.500
0.678,212.500,190.000,241.000,220.500
0.679,212.000,190.000,241.000,219.500
0.680,212.000,190.500,241.000,220.000
0.681,211.500,190.000,240.500,219.500
0.682,212.000,190.500,240.500,219.500
0.683,211.500,190.000,240.000,218.500
0.684,211.500,190.000,240.000,218.000
0.685,211.000,189.000,239.500,217.000
0.686,211.000,189.000,240.000,216.500
0.687,210.500,188.000,239.000,215.000
0.688,210.500,187.500,239.000,214.000
0.689,210.000,187.000,238.500,213.000
0.690,210.500,187.000,238.500,212.500
0.691,210.000,187.000,238.500,212.000
0.692,210.500,187.500,239.000,212.000
0.693,210.000,187.500,239.000,212.000
0.694,210.000,188.500,240.500,213.000
0.695,209.500,189.000,241.500,213.500
0.696,209.500,190.000,243.500,215.500
0.697,209.500,191.000,245.000,217.000
0.698,210.000,193.000,247.500,219.500
0.699,210.000,194.000,249.500,222.000
0.700,210.500,196.000,252.500,224.500
0.701,210.500,197.000,254.000,226.500
0.702,211.500,198.500,255.500,228.500
0.703,211.500,199.000,256.000,229.000
0.704,212.500,199.500,256.500,229.500
0.705,212.500,199.000,255.500,229.000
0.706,213.000,198.500,255.000,228.500
0.707,213.000,197.500,253.500,227.000
0.708,213.500,197.000,253.000,226.000
0.709,213.000,195.500,251.500,224.500
0.710,213.500,195.000,250.500,224.000
0.711,213.000,193.500,249.500,222.000
0.712,213.000,192.500,248.500,221.000
0.713,212.500,191.000,247.000,219.000
0.714,212.500,190.000,246.000,218.000
0.715,211.500,188.500,244.500,216.000
0.716,211.500,188.000,243.500,215.500
0.717,210.500,187.000,242.000,214.000
0.718,211.000,186.500,241.500,214.000
0.719,210.500,186.000,240.500,213.500
0.720,211.000,187.000,240.000,213.500
0.721,210.500,187.000,239.500,213.000
0.722,211.000,188.000,239.000,213.000
0.723,211.000,188.000,238.000,212.000
0.724,211.000,188.500,238.000,212.500
0.725,210.500,188.500,237.500,212.000
0.726,211.000,189.500,237.500,212.000
0.727,210.500,189.500,236.500,211.500
0.728,210.500,190.000,237.000,211.500
0.729,209.500,190.000,236.500,211.000
0.730,209.500,190.000,236.500,211.500
0.731,209.000,189.500,235.500,210.500
0.732,209.500,189.500,235.000,210.500
0.733,209.000,188.500,234.000,210.000
0.734,209.500,188.500,234.000,210.000
0.735,209.000,187.500,233.500,209.500
0.736,209.000,187.500,234.000,210.000
0.737,208.000,187.000,234.000,210.000
0.738,208.000,187.000,234.500,210.500
0.739,207.000,186.500,234.000,210.500
0.740,207.000,186.500,234.500,211.000
0.741,206.500,185.500,234.000,210.500
0.742,206.500,185.500,234.500,210.500
0.743,206.500,185.000,233.500,210.000
0.744,206.500,185.500,233.500,210.000
0.745,206.500,185.000,233.000,209.000
0.746,206.500,185.500,233.500,209.000
0.747,206.500,185.500,233.000,208.500
0.748,207.000,186.500,233.500,208.500
0.749,206.500,187.000,233.000,208.000
0.750,207.000,188.000,233.500,208.000
0.751,206.500,188.000,233.500,208.000
0.752,207.000,189.000,233.500,208.000
0.753,207.000,189.000,233.500,207.500
0.754,207.000,189.500,234.000,208.000
0.755,206.500,189.500,233.500,207.500
0.756,206.500,190.000,234.000,208.000
0.757,205.500,189.500,233.500,207.500
0.758,205.000,189.500,234.000,207.500
0.759,204.500,188.500,233.500,207.000
0.760,204.000,188.500,233.500,207.000
0.761,203.000,188.000,232.500,206.000
0.762,203.000,188.500,233.000,206.000
0.763,202.500,188.500,232.500,205.000
0.764,203.000,189.000,233.000,205.000
0.765,202.500,189.500,232.500,204.500
0.766,203.000,190.500,233.000,204.500
0.767,202.500,190.500,232.500,204.000
0.768,203.500,191.000,233.500,204.500
0.769,203.500,190.500,233.000,204.000
0.770,204.500,191.000,233.500,204.500
0.771,205.000,190.500,233.500,204.000
0.772,206.500,190.500,234.500,205.000
0.773,206.500,190.000,234.500,205.000
0.774,207.500,190.500,235.500,205.500
0.775,207.000,190.000,235.000,205.000
0.776,207.500,190.500,235.500,205.500
0.777,206.500,190.500,235.000,205.000
0.778,206.500,191.000,235.500,205.000
0.779,205.500,191.000,234.500,204.500
0.780,205.500,191.500,234.500,204.500
0.781,204.500,191.000,234.000,203.500
0.782,204.500,191.500,234.000,203.500
0.783,204.000,191.000,233.500,202.500
0.784,204.500,191.500,234.000,202.500
0.785,204.000,191.500,233.500,201.500
0.786,204.500,192.000,234.000,201.500
0.787,204.000,191.500,233.500,201.000
0.788,204.000,192.000,234.000,201.500
0.789,203.500,192.000,233.500,201.500
0.790,203.500,192.000,234.000,201.500
0.791,203.000,191.500,233.000,200.500
0.792,202.500,192.000,233.000,200.500
0.793,202.000,191.500,232.500,200.000
0.794,202.000,192.000,232.500,200.500
0.795,202.000,191.500,232.000,200.000
0.796,202.500,192.000,232.500,200.500
0.797,202.500,192.000,232.000,200.000
0.798,203.000,192.000,232.500,200.500
0.799,203.000,191.500,232.000,200.000
0.800,203.500,191.500,232.500,200.000
0.801,203.500,191.000,232.000,200.000
0.802,203.500,191.000,232.500,200.000
0.803,203.000,190.500,232.000,199.500
0.804,203.000,190.500,232.000,199.500
0.805,202.500,189.500,231.000,199.000
0.806,202.500,189.500,231.000,199.000
0.807,202.000,189.000,230.500,198.500
0.808,202.500,189.000,230.500,198.500
0.809,202.000,189.000,230.000,198.000
0.810,203.000,189.500,230.000,198.500
0.811,203.000,189.500,229.000,198.000
0.812,203.500,190.000,229.000,198.500
0.813,203.500,189.500,229.000,198.500
0.814,204.500,189.500,229.500,199.000
0.815,204.500,189.000,229.500,199.500
0.816,205.500,189.500,230.500,200.500
0.817,206.000,189.000,230.500,201.000
0.818,207.500,189.500,231.500,202.000
0.819,207.500,189.500,231.500,202.000
0.820,208.500,190.000,232.000,203.000
0.821,208.000,190.000,231.500,203.000
0.822,208.500,190.000,232.000,203.500
0.823,207.500,189.500,231.500,202.500
0.824,207.500,190.000,231.500,202.500
0.825,207.000,189.500,231.000,201.500
0.826,207.500,190.000,231.000,201.000
0.827,207.000,189.500,230.500,200.000
0.828,207.500,189.500,230.500,200.000
0.829,207.500,189.000,229.500,200.000
0.830,208.000,189.000,229.500,200.000
0.831,207.500,188.000,229.000,199.500
0.832,207.500,188.000,229.000,200.000
0.833,207.000,187.500,228.000,199.500
0.834,207.000,187.000,228.000,199.500
0.835,206.500,186.500,227.500,199.000
0.836,206.500,186.500,227.500,199.500
0.837,206.000,186.500,227.000,199.500
0.838,206.500,186.500,227.500,200.500
0.839,206.000,186.500,227.000,200.000
0.840,206.500,187.000,227.500,200.500
0.841,206.500,186.500,227.000,200.500
0.842,207.000,187.000,227.500,200.500
0.843,207.000,186.500,227.500,200.000
0.844,207.500,187.000,228.000,200.500
0.845,207.000,187.000,227.500,200.000
0.846,207.500,187.500,228.000,200.000
0.847,207.000,187.500,228.000,199.500
0.848,207.500,188.000,228.000,200.000
0.849,207.000,187.500,227.500,199.500
0.850,207.500,188.500,228.000,200.000
0.851,207.000,188.500,227.500,200.000
0.852,207.000,189.000,228.000,200.500
0.853,207.000,189.000,227.500,200.500
0.854,207.000,189.500,228.000,201.000
0.855,207.000,189.500,227.500,200.500
0.856,207.000,189.500,228.000,200.500
0.857,207.000,189.000,227.500,200.000
0.858,207.000,189.000,228.000,200.000
0.859,207.000,188.500,228.000,199.500
0.860,207.500,189.000,228.000,200.000
0.861,208.000,188.500,227.000,199.500
0.862,208.500,189.500,227.000,200.000
0.863,209.000,189.500,226.500,200.000
0.864,209.500,190.500,227.000,200.500
0.865,209.500,190.500,226.500,200.500
0.866,210.500,191.000,227.000,201.000
0.867,210.500,191.000,226.500,201.000
0.868,211.000,191.500,227.000,201.000
0.869,211.000,191.000,226.500,201.000
0.870,211.500,191.000,226.500,201.000
0.871,211.000,190.000,226.000,200.500
0.872,211.500,190.000,226.000,201.000
0.873,211.000,189.500,225.000,200.500
0.874,211.000,189.000,225.500,200.500
0.875,210.500,188.500,225.000,200.500
0.876,210.500,188.500,225.000,201.000
0.877,210.000,187.500,225.000,201.000
0.878,209.500,187.500,225.000,202.000
0.879,209.000,186.500,224.500,202.000
0.880,208.500,186.000,224.500,202.000
0.881,208.000,185.000,224.000,201.500
0.882,208.000,185.000,223.500,201.500
0.883,207.500,184.000,223.000,200.500
0.884,208.000,184.500,222.500,200.500
0.885,207.500,184.000,222.000,199.500
0.886,208.000,184.000,221.500,199.500
0.887,208.500,184.000,221.000,199.000
0.888,209.000,184.000,221.000,199.500
0.889,209.000,184.000,220.500,199.500
0.890,209.500,184.500,221.000,200.000
0.891,209.500,184.500,221.500,200.000
0.892,210.500,185.500,222.500,201.000
0.893,210.500,186.000,222.500,201.000
0.894,211.500,187.000,223.500,202.000
0.895,211.500,187.000,223.000,202.000
0.896,212.500,187.000,223.500,202.500
0.897,212.500,186.500,223.000,202.500
0.898,213.000,186.500,223.500,202.500
0.899,212.500,185.500,222.500,201.500
0.900,212.500,185.500,222.500,201.500
0.901,211.500,185.000,222.000,201.000
0.902,211.500,185.500,222.000,201.000
0.903,211.500,185.000,221.500,200.000
0.904,212.000,185.500,221.500,200.000
0.905,212.000,185.000,220.500,199.500
0.906,212.500,185.500,220.500,200.000
0.907,212.000,185.500,220.000,199.500
0.908,212.500,185.500,220.500,199.500
0.909,212.000,185.500,220.500,199.000
0.910,212.000,186.000,220.500,198.500
0.911,211.000,185.500,220.000,197.500
0.912,211.000,185.500,220.000,197.000
0.913,210.500,185.000,218.500,195.500
0.914,211.000,185.000,218.000,194.000
0.915,211.000,184.500,216.500,192.000
0.916,211.000,184.500,215.500,191.000
0.917,210.000,183.500,214.000,189.000
0.918,210.000,184.000,213.500,188.000
0.919,209.000,183.500,212.500,187.000
0.920,208.500,184.000,213.500,186.500
0.921,207.500,184.000,214.000,186.000
0.922,207.500,185.000,215.000,186.500
0.923,207.000,185.000,215.000,186.500
0.924,207.500,185.500,216.000,187.000
0.925,207.000,185.500,216.500,186.500
0.926,208.000,186.500,217.500,187.000
0.927,208.000,186.000,217.500,187.000
0.928,208.500,186.500,218.000,187.500
0.929,209.000,186.500,217.500,187.000
0.930,209.500,187.000,218.000,187.500
0.931,210.000,186.500,217.500,186.500
0.932,210.500,187.000,217.500,186.500
0.933,210.000,186.500,217.000,186.000
0.934,210.000,187.000,217.000,186.000
0.935,209.500,187.000,216.500,185.000
0.936,209.000,188.000,217.000,185.000
0.937,208.000,188.000,217.000,184.500
0.938,208.000,188.000,217.500,184.500
0.939,207.500,187.500,217.000,183.500
0.940,207.500,188.000,217.000,183.000
0.941,207.000,187.000,216.500,182.000
0.942,207.000,187.000,217.000,182.000
0.943,206.500,186.500,217.000,181.000
0.944,207.000,186.500,217.000,181.000
0.945,207.000,186.500,217.000,180.500
0.946,207.500,186.500,218.000,180.500
0.947,207.000,186.500,218.000,180.000
0.948,207.000,186.500,219.000,180.500
0.949,206.500,186.500,219.500,180.000
0.950,206.500,187.000,220.500,180.500
0.951,206.000,187.500,220.500,180.500
0.952,206.000,189.000,221.500,181.000
0.953,205.000,189.500,221.500,180.500
0.954,205.000,190.500,222.500,181.000
0.955,204.500,190.500,222.500,180.500
0.956,204.500,191.000,223.000,180.500
0.957,204.000,190.000,223.000,180.000
0.958,204.500,190.000,223.500,180.000
0.959,204.500,189.000,224.000,179.500
0.960,205.000,188.500,224.500,180.000
0.961,204.500,187.500,224.500,179.500
0.962,205.000,187.500,225.000,179.500
0.963,204.500,187.000,225.000,179.000
0.964,205.000,187.000,225.000,178.500
0.965,204.500,187.000,224.500,177.500
0.966,204.500,188.000,224.500,177.500
0.967,204.000,188.000,224.000,176.500
0.968,204.500,189.000,224.000,176.500
0.969,204.500,189.000,223.500,176.000
0.970,205.000,189.500,224.000,176.000
0.971,204.500,189.000,223.500,175.500
0.972,205.000,189.000,224.000,175.500
0.973,204.500,188.500,224.000,175.500
0.974,204.500,188.500,225.000,175.500
0.975,204.000,188.000,225.000,175.500
0.976,204.000,188.000,225.500,176.000
0.977,203.500,187.500,225.000,175.500
0.978,203.500,187.500,225.500,176.000
0.979,203.000,187.000,225.000,176.000
0.980,203.000,187.000,225.500,176.500
0.981,202.500,186.500,225.000,176.000
0.982,203.000,186.500,225.500,176.500
0.983,202.500,185.500,225.500,176.000
0.984,203.500,185.500,226.000,176.500
0.985,203.500,185.000,226.000,176.000
0.986,204.000,185.000,226.500,176.000
0.987,204.000,185.000,226.000,176.000
0.988,204.500,185.000,226.000,176.000
0.989,204.500,185.000,225.500,176.000
0.990,205.000,185.000,225.500,176.500
0.991,205.000,185.000,225.500,176.500
0.992,205.000,185.000,226.000,177.000
0.993,204.500,185.000,225.500,177.000
0.994,205.000,185.000,226.000,177.500
0.995,204.500,185.000,226.000,177.500
0.996,204.500,185.500,226.500,178.000
0.997,204.000,185.500,226.500,178.000
0.998,204.000,186.000,227.000,179.000
0.999,203.500,186.000,227.000,179.000
1.000,203.500,186.500,227.500,179.500
1.001,203.500,186.000,227.500,179.000
1.002,204.000,186.000,227.500,179.500
1.003,204.000,185.500,227.000,179.000
1.004,204.500,186.000,227.000,179.000
1.005,204.500,185.500,226.000,179.000
1.006,205.000,185.500,226.000,179.000
1.007,204.500,185.000,225.500,179.000
1.008,204.500,185.000,225.500,179.000
1.009,204.000,184.000,225.000,179.000
1.010,203.500,184.000,225.000,179.000
1.011,202.500,183.500,224.500,179.000
1.012,202.000,184.000,225.000,179.000
1.013,201.500,183.500,225.000,179.000
1.014,201.500,184.000,226.000,180.000
1.015,201.000,184.000,226.000,180.500
1.016,201.500,185.000,227.000,181.500
1.017,201.500,185.000,227.000,183.000
1.018,202.500,185.500,228.500,185.000
1.019,203.000,185.500,229.000,186.500
1.020,204.000,186.000,230.500,189.000
1.021,204.000,185.500,230.500,191.000
1.022,205.000,185.000,231.000,193.000
1.023,205.500,183.500,230.500,194.000
1.024,206.000,182.500,229.500,195.000
1.025,206.000,180.500,227.000,195.000
1.026,206.500,178.500,225.000,195.500
1.027,206.500,176.000,221.500,194.500
1.028,207.000,173.500,219.000,194.000
1.029,206.500,170.000,215.000,192.500
1.030,207.500,166.500,211.000,191.000
1.031,207.500,162.000,205.500,188.000
1.032,209.000,157.500,200.500,185.500
1.033,209.500,152.500,194.500,182.500
1.034,211.000,148.000,189.500,180.500
1.035,212.000,143.000,184.000,178.000
1.036,213.500,138.500,179.000,177.000
1.037,214.500,133.500,173.500,175.000
1.038,216.500,128.500,167.500,173.000
1.039,218.000,122.000,159.500,169.000
1.040,220.500,115.000,149.500,164.000
1.041,223.000,106.000,137.500,156.500
1.042,227.000,97.000,124.500,148.000
1.043,230.000,87.000,110.000,138.000
1.044,233.500,77.500,97.000,128.500
1.045,236.000,69.000,84.500,119.500
1.046,238.500,62.500,75.000,112.000
1.047,239.500,57.500,68.000,105.500
1.048,240.500,55.500,64.500,101.500
1.049,240.500,54.500,63.000,98.000
1.050,240.000,56.500,65.500,97.000
1.051,238.000,59.500,69.000,96.000
1.052,237.000,64.500,75.000,96.500
1.053,234.500,70.500,81.500,97.000
1.054,233.000,78.000,90.500,99.000
1.055,230.000,86.000,99.000,100.500
1.056,228.000,94.500,108.500,102.500
1.057,225.500,103.000,117.000,105.000
1.058,223.500,112.500,127.000,108.000
1.059,221.000,121.000,136.000,111.500
1.060,219.000,129.500,146.500,116.500
1.061,216.500,137.500,156.500,121.500
1.062,215.000,146.000,167.000,127.000
1.063,212.000,153.500,177.000,132.500
1.064,210.000,161.000,187.500,138.000
1.065,207.500,167.500,196.000,142.000
1.066,205.500,174.000,204.000,146.000
1.067,203.500,179.000,210.500,149.000
1.068,202.000,184.000,216.000,151.500
1.069,200.000,187.500,220.500,153.000
1.070,199.500,190.500,224.000,155.000
1.071,198.500,193.000,227.000,156.500
1.072,198.500,195.500,230.000,159.000
1.073,198.000,197.000,232.000,161.000
1.074,198.000,199.000,235.000,163.500
1.075,197.500,200.000,236.500,166.000
1.076,197.500,201.500,238.000,168.500
1.077,197.000,201.500,238.500,170.500
1.078,197.000,201.500,239.500,172.500
1.079,196.500,200.500,239.000,174.000
1.080,197.000,200.000,238.500,175.500
1.081,197.000,198.500,238.000,176.500
1.082,197.500,198.000,238.000,178.000
1.083,197.500,197.000,237.500,178.500
1.084,198.000,197.000,237.500,179.500
1.085,198.000,196.000,237.500,180.000
1.086,198.500,195.500,237.500,181.000
1.087,198.500,195.000,237.000,181.000
1.088,198.500,194.500,237.000,181.500
1.089,198.000,194.000,236.500,181.000
1.090,198.500,193.500,236.500,181.500
1.091,198.000,193.000,236.000,181.000
1.092,198.500,193.000,236.500,181.500
1.093,198.500,192.500,236.500,181.000
1.094,199.500,193.500,237.000,181.500
1.095,199.500,194.000,237.000,181.000
1.096,200.500,195.000,237.500,181.500
1.097,200.500,195.000,237.500,181.000
1.098,201.000,195.500,237.500,181.000
1.099,201.000,195.000,237.000,180.500
1.100,201.500,195.000,237.000,180.500
1.101,201.000,194.500,236.500,180.000
1.102,201.000,194.500,237.000,180.000
1.103,200.500,193.500,236.500,179.500
1.104,201.000,193.500,237.000,179.500
1.105,200.500,193.000,236.500,178.500
1.106,200.500,193.000,236.500,178.500
1.107,200.000,192.500,235.500,177.500
1.108,200.000,192.500,235.500,177.500
1.109,200.000,191.500,234.500,176.500
1.110,200.000,191.500,234.000,176.000
1.111,200.000,190.500,233.500,175.000
1.112,200.500,190.000,233.500,174.500
1.113,200.000,189.000,232.500,174.000
1.114,200.500,188.500,233.000,174.000
1.115,200.000,188.000,232.500,173.500
1.116,200.000,188.500,233.000,174.000
1.117,199.000,188.500,232.500,174.000
1.118,199.500,189.500,233.500,175.000
1.119,199.000,190.000,233.500,176.000
1.120,199.000,191.500,235.000,177.500
1.121,198.500,193.000,236.500,178.500
1.122,199.000,195.000,238.500,181.000
1.123,199.000,196.500,240.500,182.500
1.124,200.500,198.500,242.500,185.000
1.125,201.000,199.500,244.000,186.500
1.126,203.000,200.500,245.500,188.500
1.127,204.000,201.000,245.500,189.000
1.128,205.500,201.500,246.000,189.500
1.129,206.000,201.000,245.500,189.000
1.130,207.000,200.500,245.000,188.500
1.131,206.500,200.000,244.000,187.500
1.132,207.000,199.500,243.500,186.500
1.133,206.000,199.000,242.000,185.000
1.134,206.000,198.500,241.500,184.000
1.135,205.500,197.500,240.000,182.000
1.136,206.000,197.000,239.000,180.500
1.137,206.000,195.500,237.500,178.500
1.138,206.000,195.000,236.500,177.500
1.139,205.500,193.500,235.000,175.500
1.140,206.000,193.500,234.000,174.500
1.141,205.500,193.000,232.500,173.000
1.142,205.500,193.000,232.500,172.500
1.143,205.000,193.000,231.500,171.500
1.144,205.500,193.500,232.000,171.500
1.145,205.000,193.500,231.500,170.500
1.146,205.500,194.000,232.000,170.500
1.147,205.000,193.500,231.500,169.500
1.148,204.500,194.000,231.500,169.000
1.149,203.500,193.500,230.500,168.000
1.150,203.500,193.500,230.500,168.000
1.151,202.500,193.000,229.500,167.500
1.152,202.000,193.500,229.500,167.500
1.153,201.500,193.500,229.000,167.500
1.154,202.000,194.000,229.500,168.000
1.155,201.500,194.500,229.500,168.000
1.156,202.000,195.500,230.500,168.500
1.157,201.500,196.000,230.500,168.000
1.158,202.000,197.000,231.500,168.500
1.159,202.000,197.000,232.000,168.000
1.160,203.000,197.500,233.000,168.000
1.161,203.000,197.500,233.000,167.500
1.162,203.500,197.500,233.000,168.000
1.163,203.500,196.500,232.500,167.500
1.164,204.500,196.000,232.000,167.000
1.165,204.000,195.000,231.000,166.000
1.166,204.500,194.500,230.500,165.500
1.167,204.500,194.000,229.500,164.500
1.168,204.500,194.000,229.000,164.500
1.169,204.000,194.000,228.500,164.000
1.170,204.500,195.000,228.500,164.000
1.171,203.500,195.500,228.000,163.500
1.172,204.000,196.500,228.500,163.500
1.173,203.500,196.500,228.000,163.000
1.174,204.000,197.000,228.500,163.500
1.175,203.500,197.000,228.000,163.000
1.176,204.000,197.500,228.500,163.000
1.177,204.000,197.000,228.500,162.500
1.178,205.000,197.500,229.000,162.500
1.179,205.000,197.000,228.500,161.500
1.180,206.000,197.000,229.000,161.500
1.181,206.000,196.500,228.500,160.500
1.182,206.500,196.500,228.500,160.500
1.183,206.000,196.000,228.000,160.000
1.184,207.000,196.500,228.000,160.000
1.185,207.000,196.000,227.500,159.000
1.186,208.000,196.000,227.500,158.500
1.187,208.000,195.500,227.000,157.500
1.188,208.500,196.000,227.000,157.000
1.189,208.000,195.500,226.000,156.500
1.190,208.500,196.000,225.500,156.000
1.191,208.000,196.000,224.500,155.500
1.192,208.000,197.000,224.500,156.000
1.193,207.500,197.000,224.000,156.000
1.194,207.500,198.000,224.000,156.500
1.195,207.000,198.000,223.500,156.000
1.196,207.500,198.500,224.000,156.500
1.197,207.500,198.500,223.500,156.000
1.198,208.000,198.500,224.000,156.000
1.199,208.000,198.000,224.000,155.500
1.200,209.000,198.500,224.000,155.500
1.201,209.000,198.000,224.000,155.000
1.202,209.500,198.000,224.000,155.500
1.203,209.500,197.000,224.000,155.000
1.204,210.000,197.500,224.000,155.500
1.205,209.500,197.000,223.500,155.000
1.206,210.000,197.500,224.000,154.500
1.207,209.500,197.000,223.000,154.000
1.208,209.500,197.000,223.000,154.000
1.209,209.000,196.500,222.500,153.000
1.210,209.000,196.500,223.000,153.000
1.211,208.000,196.000,222.500,152.500
1.212,208.500,196.000,223.000,153.000
1.213,208.000,195.500,222.500,152.500
1.214,208.500,195.500,223.000,152.500
1.215,208.000,195.000,223.000,152.000
1.216,208.500,195.000,223.000,152.000
1.217,208.500,195.000,223.000,152.000
1.218,209.500,195.500,223.500,152.000
1.219,209.500,195.000,223.500,152.000
1.220,209.500,195.000,224.000,152.500
1.221,209.000,194.500,223.500,152.500
1.222,209.500,194.500,223.500,153.000
1.223,209.000,193.500,223.000,153.000
1.224,209.000,193.500,223.000,153.500
1.225,208.500,192.500,222.000,153.500
1.226,208.500,192.000,222.000,153.500
1.227,208.500,191.000,221.500,153.000
1.228,209.000,190.500,221.000,153.000
1.229,208.500,189.500,220.500,152.500
1.230,208.500,189.500,220.500,153.000
1.231,207.500,189.000,219.500,153.000
1.232,207.500,189.000,219.500,154.000
1.233,207.000,188.500,219.000,154.000
1.234,207.000,188.500,219.000,155.000
1.235,206.500,187.500,218.500,155.000
1.236,206.000,187.000,218.000,156.000
1.237,205.000,185.500,217.000,156.000
1.238,205.000,185.000,217.000,156.500
1.239,204.500,183.500,216.000,156.500
1.240,204.500,183.000,216.000,157.000
1.241,204.500,182.000,215.000,157.000
1.242,205.000,182.500,215.000,158.000
1.243,205.000,182.000,214.500,158.500
1.244,206.500,182.500,214.500,159.500
1.245,207.000,182.500,214.000,160.000
1.246,208.000,183.000,214.000,161.000
1.247,208.500,182.500,213.500,161.500
1.248,209.500,183.000,213.500,163.000
1.249,210.000,183.000,212.500,163.500
1.250,210.500,183.000,213.000,164.500
1.251,210.000,183.000,212.500,165.000
1.252,210.000,183.500,212.500,166.500
1.253,209.500,183.500,211.500,167.000
1.254,209.500,184.000,211.500,168.000
1.255,209.000,184.000,211.000,168.500
1.256,209.000,184.500,211.000,169.500
1.257,208.500,184.000,210.500,170.000
1.258,209.000,184.500,210.500,171.000
1.259,209.000,184.000,209.500,171.000
1.260,209.000,184.000,209.500,172.000
1.261,208.000,183.000,208.000,172.000
1.262,208.000,183.000,207.500,172.500
1.263,207.500,182.500,206.000,172.000
1.264,207.000,182.500,205.500,172.500
1.265,206.000,182.000,204.000,172.500
1.266,206.000,182.000,203.500,173.000
1.267,205.500,181.500,202.000,173.500
1.268,206.000,182.000,201.500,174.000
1.269,205.500,182.000,200.500,174.500
1.270,206.000,182.500,200.500,175.500
1.271,206.000,183.000,199.500,175.500
1.272,206.500,183.500,199.500,176.500
1.273,207.000,184.000,198.500,177.000
1.274,207.500,184.500,198.500,177.500
1.275,207.500,184.500,197.500,178.000
1.276,208.500,185.500,197.500,178.500
1.277,208.000,185.500,196.500,179.000
1.278,208.500,186.000,196.500,180.000
1.279,208.500,186.000,195.500,180.000
1.280,209.000,186.500,195.500,181.000
1.281,208.500,186.500,194.500,181.000
1.282,209.000,187.000,193.500,181.000
1.283,208.500,186.500,192.500,180.500
1.284,209.500,187.000,192.000,180.500
1.285,209.500,187.000,190.500,180.000
1.286,210.000,187.000,190.000,180.500
1.287,209.500,186.500,189.000,180.000
1.288,210.000,186.500,188.000,180.500
1.289,209.500,186.000,187.000,180.000
1.290,209.500,186.000,186.500,180.500
1.291,209.000,185.500,185.000,180.500
1.292,209.000,185.500,184.500,181.000
1.293,208.500,185.000,183.500,181.000
1.294,209.000,185.500,183.500,181.500
1.295,208.500,185.000,182.500,182.000
1.296,209.000,185.000,182.500,182.500
1.297,208.500,184.000,182.000,183.000
1.298,209.000,184.000,182.500,183.500
1.299,209.000,183.500,182.500,184.000
1.300,209.000,183.500,183.000,185.000
1.301,208.500,183.000,183.000,185.000
1.302,209.000,183.000,183.500,186.000
1.303,208.500,182.500,183.500,186.000
1.304,209.000,183.000,184.500,187.000
1.305,209.000,182.500,184.500,187.500
1.306,209.500,182.500,185.000,188.500
1.307,209.500,182.000,184.500,189.000
1.308,210.000,182.000,185.500,190.000
1.309,209.500,182.000,185.500,190.500
1.310,209.500,182.000,186.500,191.500
1.311,209.000,182.000,186.500,192.000
1.312,208.500,182.000,187.500,193.000
1.313,208.000,182.000,188.000,193.500
1.314,208.000,182.500,189.000,194.500
1.315,208.000,182.500,189.500,195.500
1.316,208.500,183.500,190.500,197.000
1.317,208.500,183.500,191.000,197.500
1.318,209.000,184.000,192.500,199.000
1.319,209.000,184.000,193.500,199.500
1.320,209.000,184.500,194.500,200.500
1.321,208.500,184.500,195.000,201.000
1.322,208.500,185.000,196.500,202.000
1.323,207.500,184.500,197.000,202.000
1.324,208.000,185.000,198.000,203.000
1.325,207.500,185.000,198.500,203.000
1.326,207.500,185.000,199.500,203.500
1.327,207.000,185.000,199.500,203.000
1.328,207.500,185.000,200.500,203.500
1.329,206.500,185.000,201.000,203.000
1.330,206.500,185.500,202.000,203.500
1.331,206.000,185.500,202.500,203.500
1.332,205.500,186.000,203.500,204.000
1.333,204.500,186.000,204.000,204.500
1.334,204.500,186.500,205.000,205.000
1.335,204.000,186.000,206.000,205.500
1.336,204.500,187.000,207.500,206.000
1.337,204.000,187.000,208.000,206.500
1.338,204.500,188.000,209.500,207.500
1.339,204.500,188.000,210.500,207.500
1.340,205.000,189.000,211.500,208.000
1.341,204.500,189.000,212.000,208.000
1.342,204.500,189.500,213.500,208.000
1.343,204.000,189.000,214.000,207.500
1.344,204.500,189.500,215.000,208.000
1.345,204.500,189.000,215.000,207.500
1.346,205.000,189.500,216.500,207.500
1.347,205.000,189.000,217.000,206.500
1.348,205.500,189.500,218.000,207.000
1.349,205.500,189.000,218.500,206.500
1.350,205.500,189.500,220.000,206.500
1.351,204.500,189.000,220.500,206.000
1.352,204.500,189.500,221.500,206.000
1.353,204.000,189.500,222.000,205.500
1.354,204.000,189.500,223.000,206.000
1.355,204.000,189.000,223.000,205.000
1.356,204.000,189.500,223.500,205.000
1.357,203.500,189.000,223.000,204.000
1.358,204.000,189.000,223.500,203.500
1.359,203.500,188.000,223.000,202.000
1.360,203.500,188.000,224.000,201.500
1.361,203.000,187.500,224.000,200.500
1.362,203.000,187.000,224.500,200.000
1.363,203.000,186.500,224.500,199.000
1.364,203.500,187.000,225.500,198.500
1.365,203.000,186.500,226.000,197.500
1.366,204.000,187.500,227.000,197.000
1.367,204.000,187.500,227.000,196.500
1.368,205.000,189.000,228.000,196.000
1.369,205.000,189.500,228.000,195.500
1.370,206.500,191.000,229.000,195.500
1.371,207.000,191.500,229.500,195.000
1.372,208.000,192.500,230.500,195.500
1.373,208.000,192.500,231.000,195.000
1.374,208.000,193.000,232.000,195.000
1.375,207.500,192.500,232.000,194.000
1.376,207.500,192.500,233.000,194.000
1.377,206.500,192.000,232.500,193.500
1.378,206.000,191.500,233.000,193.500
1.379,205.500,191.000,232.500,192.500
1.380,205.500,191.500,233.000,192.500
1.381,205.000,191.000,233.000,191.500
1.382,205.500,191.500,233.500,191.500
1.383,205.500,191.000,233.500,190.500
1.384,206.000,191.000,234.000,190.000
1.385,205.500,190.000,233.500,188.500
1.386,206.000,190.000,234.000,187.500
1.387,205.500,189.500,233.500,186.500
1.388,206.000,189.500,234.000,185.500
1.389,205.000,189.000,233.500,184.500
1.390,205.000,189.000,233.500,184.000
1.391,204.500,188.500,233.000,183.000
1.392,204.500,189.000,233.000,183.000
1.393,204.500,188.500,233.000,182.000
1.394,205.000,188.500,233.500,182.000
1.395,204.500,188.500,233.000,181.500
1.396,205.000,189.000,233.500,181.500
1.397,204.500,189.000,233.500,181.500
1.398,205.500,190.500,234.500,181.500
1.399,205.500,191.000,235.000,181.000
1.400,206.500,192.500,235.500,181.500
1.401,206.500,193.000,235.500,181.000
1.402,207.500,194.000,236.500,181.000
1.403,207.500,194.000,236.000,180.000
1.404,208.500,194.000,236.000,179.500
1.405,208.000,193.500,235.000,178.000
1.406,208.500,193.500,234.500,177.000
1.407,208.500,193.000,234.000,176.000
1.408,208.500,193.000,234.000,175.500
1.409,208.000,193.000,233.500,174.500
1.410,208.500,193.500,234.000,174.500
1.411,208.000,193.500,234.000,173.500
1.412,208.500,193.500,234.500,173.500
1.413,208.500,193.000,234.000,172.500
1.414,208.500,193.000,234.500,172.500
1.415,208.500,192.500,234.500,171.500
1.416,208.500,192.500,235.000,171.500
1.417,208.500,192.000,234.500,171.000
1.418,208.500,192.500,235.000,171.000
1.419,208.500,192.000,235.000,170.000
1.420,209.000,192.000,235.500,170.000
1.421,209.000,191.500,235.000,169.500
1.422,209.500,191.500,235.500,169.500
1.423,209.000,190.500,235.000,169.000
1.424,209.500,190.000,235.000,169.000
1.425,209.000,189.500,234.000,168.000
1.426,209.500,189.500,234.500,167.500
1.427,209.500,188.500,234.000,166.500
1.428,210.000,188.500,234.000,166.000
1.429,210.000,188.000,233.500,165.000
1.430,210.500,188.000,233.500,165.000
1.431,210.000,187.500,233.500,164.000
1.432,210.500,188.000,233.500,164.000
1.433,210.000,187.000,233.500,163.500
1.434,211.000,187.000,234.000,163.500
1.435,211.500,186.500,234.000,163.000
1.436,212.500,186.500,235.000,163.500
1.437,213.000,186.500,235.500,163.000
1.438,213.500,186.500,236.500,163.500
1.439,213.500,186.500,237.000,163.500
1.440,214.000,187.000,238.000,164.000
1.441,214.000,186.500,238.000,164.000
1.442,214.500,187.000,238.500,164.000
1.443,214.000,186.500,238.500,163.500
1.444,214.500,187.000,238.500,163.500
1.445,214.500,186.500,238.000,163.000
1.446,215.500,186.500,238.500,163.000
1.447,215.500,186.000,238.000,162.000
1.448,216.000,186.000,238.500,162.000
1.449,215.500,185.500,237.500,161.000
1.450,216.000,186.000,237.500,161.500
1.451,215.500,185.500,237.000,161.000
1.452,215.500,186.000,237.500,161.500
1.453,215.000,186.000,237.000,161.000
1.454,215.500,186.500,237.500,161.500
1.455,215.000,186.500,237.000,161.500
1.456,215.000,187.000,237.500,162.000
1.457,215.000,187.000,237.500,162.000
1.458,215.000,187.000,237.500,162.000
1.459,214.500,186.500,237.000,162.000
1.460,214.500,187.000,237.000,162.000
1.461,214.000,186.500,236.500,161.500
1.462,214.000,186.000,236.500,161.500
1.463,213.500,185.000,236.000,161.000
1.464,214.000,185.000,236.500,161.500
1.465,214.000,184.000,236.000,161.000
1.466,214.500,184.000,236.500,161.000
1.467,214.000,183.500,236.000,160.000
1.468,214.500,183.500,236.000,160.000
1.469,214.500,183.000,235.500,159.500
1.470,215.000,183.000,235.500,159.500
1.471,215.000,183.000,235.000,159.500
1.472,215.500,183.500,235.000,159.500
1.473,215.000,183.500,234.000,159.500
1.474,215.500,184.500,234.500,159.500
1.475,215.000,184.500,234.000,159.500
1.476,215.500,184.500,234.000,159.500
1.477,214.500,184.000,233.500,159.500
1.478,214.500,184.000,234.000,159.500
1.479,214.000,183.500,233.500,159.500
1.480,214.000,183.500,233.500,160.000
1.481,213.500,183.000,233.000,160.000
1.482,213.500,183.000,233.000,160.000
1.483,213.000,183.000,233.000,160.000
1.484,213.000,183.000,233.000,160.000
1.485,212.500,183.000,232.500,159.000
1.486,213.000,183.500,233.000,159.000
1.487,213.000,183.500,233.000,159.000
1.488,213.500,184.000,233.500,159.500
1.489,214.000,184.000,233.000,159.500
1.490,215.000,184.000,234.000,160.000
1.491,215.500,184.000,234.000,160.500
1.492,216.500,184.000,234.500,161.500
1.493,216.000,184.000,234.000,162.000
1.494,216.500,184.000,234.500,162.500
1.495,216.000,184.000,234.500,162.500
1.496,216.500,184.500,235.000,163.000
1.497,216.000,184.500,235.000,163.000
1.498,216.000,184.500,235.500,163.000
1.499,215.500,184.000,235.000,162.500
1.500,215.500,184.500,235.000,163.000
1.501,215.000,184.000,234.500,162.500
1.502,215.000,184.000,235.000,163.000
1.503,214.500,183.500,234.500,163.000
1.504,215.000,184.000,234.500,163.500
1.505,214.500,184.000,234.000,163.500
1.506,214.500,185.000,234.000,163.500
1.507,214.000,185.500,233.000,163.000
1.508,214.000,186.000,232.500,163.000
1.509,213.500,186.000,231.500,162.000
1.510,213.500,186.500,231.500,162.000
1.511,213.000,186.500,231.000,161.500
1.512,213.000,186.500,231.000,161.500
1.513,212.000,186.000,230.500,161.500
1.514,212.000,186.500,231.000,162.000
1.515,211.500,186.000,230.500,162.000
1.516,212.000,186.500,231.000,162.500
1.517,211.500,186.500,231.000,163.000
1.518,212.000,187.000,231.500,164.000
1.519,212.000,187.000,231.500,164.000
1.520,213.000,188.000,232.000,165.000
1.521,213.000,188.500,232.000,165.500
1.522,213.500,189.000,233.000,166.000
1.523,213.500,189.000,233.000,166.000
1.524,214.000,190.000,233.500,166.500
1.525,213.500,190.000,233.000,166.000
1.526,214.000,190.000,233.000,166.500
1.527,213.500,189.500,232.500,165.500
1.528,214.000,189.500,232.500,165.500
1.529,213.500,188.500,231.500,164.500
1.530,213.000,188.500,231.500,164.500
1.531,212.000,187.500,231.000,163.500
1.532,212.000,187.000,231.000,163.500
1.533,211.500,186.000,230.000,163.000
1.534,211.500,186.000,230.500,163.000
1.535,211.500,185.500,230.000,162.500
1.536,212.000,186.000,230.000,163.000
1.537,212.000,186.000,229.500,163.000
1.538,212.500,186.500,230.000,164.000
1.539,212.000,187.000,229.500,164.500
1.540,212.500,189.000,230.500,165.500
1.541,212.000,190.000,231.000,166.000
1.542,212.000,192.500,232.500,168.000
1.543,212.000,194.000,233.500,169.500
1.544,212.500,196.000,235.000,171.500
1.545,212.500,197.000,236.000,173.500
1.546,213.500,198.500,237.500,175.500
1.547,213.500,198.500,238.000,176.500
1.548,214.000,199.000,238.500,177.500
1.549,214.000,198.500,238.000,177.500
1.550,214.500,198.000,238.000,177.500
1.551,214.500,197.000,237.000,177.000
1.552,215.000,196.500,236.500,176.500
1.553,214.500,195.500,235.000,175.000
1.554,214.500,195.500,234.500,174.500
1.555,214.000,194.500,233.000,173.000
1.556,214.000,194.500,232.500,172.000
1.557,213.500,194.000,231.000,170.500
1.558,213.500,193.500,230.000,169.500
1.559,213.000,192.000,228.000,168.000
1.560,213.000,191.500,227.000,167.000
1.561,212.500,190.500,225.500,166.000
1.562,213.000,190.000,225.000,165.500
1.563,212.500,189.500,223.500,165.000
1.564,212.500,189.500,223.500,165.000
1.565,212.500,189.000,222.500,164.500
1.566,212.500,189.500,222.000,164.500
1.567,212.500,189.000,221.000,164.000
1.568,212.500,189.000,221.000,164.000
1.569,212.500,188.500,220.000,163.500
1.570,213.000,188.500,220.000,163.500
1.571,213.000,188.000,219.000,163.000
1.572,214.000,188.000,219.000,163.000
1.573,213.500,187.500,218.500,162.500
1.574,214.000,188.000,219.000,163.000
1.575,213.000,187.500,218.500,163.000
1.576,213.000,187.500,219.000,163.500
1.577,212.500,187.000,219.000,163.500
1.578,212.500,187.500,219.500,164.000
1.579,212.000,187.000,219.000,164.000
1.580,212.000,187.500,219.500,164.500
1.581,211.500,187.500,219.000,164.000
1.582,212.000,188.500,219.000,164.500
1.583,211.500,188.000,218.000,164.500
1.584,212.000,188.500,218.000,165.000
1.585,212.000,188.000,217.500,164.500
1.586,212.500,188.000,218.000,165.000
1.587,212.000,187.500,217.500,165.000
1.588,212.500,187.500,218.000,165.500
1.589,212.500,187.000,218.000,165.000
1.590,212.500,187.500,218.500,165.500
1.591,212.500,187.000,218.000,165.500
1.592,212.500,187.000,218.500,166.000
1.593,212.500,186.500,218.500,166.000
1.594,213.000,186.500,219.000,167.000
1.595,212.500,185.500,218.500,167.500
1.596,213.000,185.500,219.000,169.000
1.597,212.500,185.000,218.500,169.500
1.598,213.000,185.000,219.000,170.500
1.599,212.000,184.500,218.500,170.500
1.600,212.000,184.500,218.500,171.500
1.601,211.000,183.500,218.000,171.500
1.602,210.500,183.500,218.000,171.500
1.603,209.500,182.500,217.000,171.500
1.604,209.500,182.000,216.500,171.500
1.605,209.000,181.000,215.500,170.500
1.606,209.500,180.500,215.000,170.500
1.607,209.500,179.500,214.000,169.500
1.608,210.000,179.500,214.000,170.000
1.609,210.000,179.000,213.500,169.500
1.610,210.500,179.500,214.000,170.500
1.611,210.000,179.500,214.000,170.500
1.612,210.500,180.000,215.000,172.000
1.613,210.500,180.500,215.500,173.000
1.614,211.000,181.500,217.000,174.500
1.615,211.000,182.500,218.000,175.500
1.616,211.500,183.500,219.500,177.000
1.617,211.500,184.000,220.500,177.500
1.618,212.000,185.000,222.000,179.000
1.619,212.000,185.000,222.500,179.500
1.620,212.500,185.500,223.000,180.500
1.621,212.000,185.000,223.000,180.500
1.622,212.000,185.500,224.000,181.500
1.623,211.500,185.000,224.500,181.500
1.624,211.500,185.000,225.000,182.000
1.625,211.000,185.000,225.000,182.000
1.626,211.000,185.000,225.500,182.500
1.627,210.500,184.500,225.000,182.000
1.628,210.500,185.000,225.000,182.500
1.629,210.000,184.500,224.500,182.000
1.630,210.000,185.000,225.000,182.000
1.631,209.500,184.500,225.000,182.000
1.632,209.500,185.000,225.500,182.500
1.633,209.500,185.000,225.500,182.500
1.634,210.000,185.000,226.000,183.500
1.635,210.000,184.000,226.000,183.500
1.636,210.500,184.000,227.000,184.000
1.637,210.000,183.500,226.500,184.000
1.638,210.000,183.500,227.000,185.000
1.639,209.500,183.000,226.500,185.000
1.640,210.000,183.000,227.000,186.000
1.641,210.000,182.500,226.000,186.000
1.642,210.000,182.500,226.000,186.000
1.643,209.500,182.000,225.500,185.500
1.644,209.500,182.000,226.000,186.000
1.645,208.500,181.000,225.500,185.500
1.646,208.500,181.000,226.000,186.000
1.647,207.500,180.500,225.500,185.500
1.648,207.500,181.000,226.000,186.000
1.649,207.000,180.500,226.000,186.500
1.650,207.000,181.000,227.000,187.000
1.651,207.000,180.500,227.500,187.500
1.652,207.500,181.000,228.500,188.500
1.653,207.500,181.000,228.500,189.000
1.654,208.000,182.000,229.500,190.500
1.655,207.500,182.000,229.500,191.000
1.656,208.000,182.500,230.500,193.000
1.657,208.000,182.000,230.500,194.000
1.658,208.500,182.500,231.000,195.500
1.659,208.500,182.000,230.500,196.000
1.660,209.000,182.000,231.000,196.500
1.661,209.000,181.500,230.500,197.000
1.662,209.000,181.500,230.500,197.500
1.663,209.000,181.000,230.000,198.000
1.664,209.500,180.500,230.000,198.500
1.665,209.500,179.500,229.500,199.000
1.666,210.000,179.000,230.000,200.000
1.667,210.000,178.000,229.500,200.500
1.668,210.500,177.500,230.000,201.500
1.669,210.500,176.000,230.000,202.000
1.670,210.500,175.500,230.500,203.000
1.671,210.000,174.500,230.000,203.000
1.672,210.500,174.500,230.000,204.000
1.673,210.000,173.500,229.500,204.500
1.674,210.500,174.000,230.000,205.000
1.675,210.000,173.500,230.000,205.500
1.676,210.000,174.500,230.500,206.500
1.677,209.500,174.500,230.500,207.000
1.678,210.000,175.500,231.000,208.500
1.679,209.500,175.500,231.000,209.000
1.680,210.000,176.000,231.500,210.000
1.681,209.500,176.000,231.000,210.000
1.682,210.000,176.000,231.000,211.000
1.683,209.500,175.000,230.500,211.000
1.684,210.000,175.000,230.000,211.000
1.685,209.500,174.000,229.000,210.500
1.686,210.000,174.000,229.000,211.000
1.687,210.000,173.500,228.000,210.500
1.688,210.500,173.500,228.000,211.500
1.689,210.500,173.000,227.000,211.500
1.690,211.000,172.500,227.500,212.500
1.691,211.000,171.500,227.000,212.500
1.692,211.000,171.500,227.500,214.000
1.693,210.500,170.500,227.500,214.500
1.694,210.500,170.500,228.500,215.500
1.695,210.000,170.000,228.500,216.000
1.696,210.000,170.000,229.000,217.500
1.697,209.500,170.000,229.000,217.500
1.698,210.000,170.500,230.000,218.000
1.699,210.000,170.500,229.500,217.500
1.700,210.000,170.500,229.500,217.500
1.701,210.000,170.500,228.500,216.500
1.702,210.500,170.500,228.500,216.500
1.703,210.000,170.000,227.000,215.000
1.704,210.500,170.000,226.500,214.500
1.705,210.000,169.500,225.500,213.500
1.706,210.500,170.000,225.500,213.000
1.707,210.000,170.000,225.000,212.500
1.708,210.000,170.500,225.500,212.500
1.709,209.500,171.000,226.000,212.000
1.710,209.500,172.000,227.000,213.000
1.711,209.000,172.500,227.500,213.500
1.712,209.000,173.500,229.000,215.000
1.713,208.500,174.000,229.500,216.000
1.714,209.000,174.500,230.500,218.000
1.715,208.000,175.000,230.500,219.000
1.716,208.000,175.500,231.000,220.000
1.717,207.500,175.000,231.000,220.500
1.718,207.500,175.500,231.500,221.500
1.719,206.500,175.500,231.500,222.000
1.720,206.500,175.500,232.000,222.500
1.721,205.500,175.000,231.500,222.500
1.722,206.000,175.500,232.000,223.000
1.723,205.500,175.000,232.000,222.500
1.724,206.000,175.500,232.500,223.000
1.725,206.000,175.000,232.500,222.000
1.726,207.000,175.000,233.000,222.000
1.727,206.500,174.000,232.500,221.000
1.728,207.000,174.000,232.500,221.000
1.729,206.500,173.000,231.500,220.000
1.730,207.000,172.500,231.500,220.000
1.731,206.000,171.500,230.500,219.500
1.732,206.000,171.000,230.500,219.500
1.733,205.000,170.500,230.000,219.000
1.734,204.500,171.000,230.500,219.500
1.735,204.000,170.500,230.500,219.500
1.736,203.500,171.500,231.500,220.500
1.737,203.000,172.000,232.000,220.500
1.738,203.000,173.000,233.500,222.000
1.739,202.500,174.000,234.500,222.500
1.740,203.000,175.000,236.000,224.000
1.741,203.000,176.000,237.000,224.500
1.742,203.500,177.500,238.500,225.500
1.743,204.000,178.500,239.000,226.000
1.744,204.500,179.500,240.000,227.000
1.745,205.000,180.000,240.000,227.500
1.746,205.500,180.500,240.500,228.000
1.747,205.000,180.500,240.000,227.500
1.748,205.000,180.500,240.000,228.000
1.749,204.000,179.500,239.500,228.000
1.750,203.500,179.500,240.000,228.000
1.751,203.000,178.500,239.500,227.500
1.752,202.500,178.000,239.500,227.500
1.753,201.500,177.000,239.000,227.000
1.754,201.500,177.000,239.000,227.500
1.755,201.000,176.000,238.000,227.000
1.756,201.000,176.000,238.000,227.000
1.757,200.500,176.000,237.500,226.500
1.758,200.500,176.500,237.500,227.000
1.759,199.500,176.500,237.000,227.000
1.760,200.000,177.000,237.500,228.000
1.761,199.500,177.000,237.500,228.500
1.762,200.000,177.500,238.000,229.500
1.763,199.500,177.500,238.000,229.500
1.764,200.000,177.500,239.000,230.500
1.765,199.500,177.000,239.000,230.500
1.766,200.000,177.000,239.500,231.000
1.767,200.000,176.500,239.000,230.500
1.768,201.000,177.000,239.500,231.000
1.769,201.500,177.000,239.500,230.500
1.770,202.000,177.500,240.000,231.500
1.771,202.000,177.500,239.500,231.500
1.772,202.500,177.500,240.000,232.000
1.773,202.500,177.500,240.000,232.000
1.774,202.500,177.500,240.000,232.500
1.775,202.000,177.000,239.500,232.000
1.776,202.000,177.000,240.000,232.500
1.777,201.500,176.500,239.500,232.500
1.778,202.000,176.500,240.500,233.000
1.779,201.500,176.000,240.000,233.000
1.780,202.000,176.500,240.500,234.000
1.781,201.500,176.000,240.500,233.500
1.782,202.000,176.000,240.500,234.000
1.783,202.000,175.500,240.000,233.500
1.784,202.000,175.000,240.000,234.000
1.785,201.500,174.000,239.000,233.000
1.786,201.500,174.000,239.500,233.000
1.787,201.000,173.000,239.000,232.500
1.788,201.000,173.000,239.500,233.000
1.789,200.500,173.000,239.500,233.000
1.790,200.500,173.500,240.000,233.500
1.791,200.000,173.500,240.000,233.000
1.792,200.500,173.500,240.500,234.000
1.793,200.500,173.000,240.000,234.000
1.794,201.500,173.500,241.000,234.500
1.795,201.500,173.000,241.000,234.500
1.796,202.500,173.500,242.000,235.500
1.797,203.000,173.000,242.500,236.000
1.798,204.000,173.500,243.000,237.000
1.799,204.000,173.500,243.000,237.500
1.800,204.500,174.000,244.000,238.500
1.801,204.500,174.000,244.000,238.500
1.802,204.500,174.000,244.500,239.500
1.803,204.000,173.500,244.000,239.500
1.804,204.000,173.500,244.500,240.500
1.805,203.500,172.500,243.500,240.500
1.806,204.000,172.000,243.500,242.000
1.807,204.000,170.500,243.000,242.500
1.808,204.000,170.000,242.500,244.000
1.809,204.000,169.000,241.500,244.500
1.810,204.500,168.500,240.500,246.000
1.811,205.000,167.500,239.000,247.000
1.812,206.000,167.000,237.500,248.000
1.813,206.500,165.000,235.500,248.500
1.814,207.500,163.000,233.500,249.000
1.815,208.500,160.500,230.500,248.500
1.816,210.000,157.500,227.500,248.000
1.817,211.000,154.000,223.000,246.000
1.818,213.000,150.500,218.500,244.500
1.819,214.500,146.000,213.000,242.000
1.820,216.500,142.500,208.500,240.000
1.821,218.000,138.500,203.000,237.500
1.822,219.500,134.500,198.000,236.000
1.823,220.500,130.000,192.500,234.000
1.824,222.000,125.500,187.000,232.500
1.825,223.500,119.500,180.000,229.000
1.826,226.000,113.500,172.000,225.000
1.827,228.000,105.500,161.000,219.000
1.828,230.500,96.500,149.000,211.500
1.829,233.000,86.500,135.000,202.000
1.830,236.500,77.000,121.500,192.500
1.831,238.500,67.000,107.000,182.000
1.832,241.000,59.000,95.500,173.500
1.833,242.500,52.000,85.500,165.500
1.834,243.500,47.500,79.500,160.000
1.835,243.500,45.000,76.500,156.500
1.836,243.500,46.000,76.500,155.000
1.837,242.500,48.000,78.500,154.000
1.838,241.000,52.500,83.500,154.500
1.839,239.000,57.500,89.000,155.000
1.840,237.000,64.000,96.500,157.000
1.841,234.500,71.000,104.500,159.000
1.842,232.500,78.500,113.000,161.500
1.843,229.500,85.500,121.500,163.500
1.844,227.500,93.500,130.500,166.000
1.845,225.000,100.500,139.500,168.500
1.846,223.000,108.500,149.000,172.500
1.847,220.000,116.000,158.500,176.500
1.848,218.000,124.000,169.000,182.500
1.849,215.500,131.500,179.500,188.000
1.850,213.500,140.000,190.500,195.000
1.851,211.000,148.000,200.500,200.500
1.852,209.000,156.000,210.500,206.500
1.853,206.500,163.000,218.500,210.500
1.854,205.000,169.500,226.000,214.500
1.855,203.000,174.000,231.500,217.000
1.856,201.500,178.500,236.500,219.500
1.857,200.000,182.000,240.000,220.500
1.858,199.500,185.000,243.500,222.500
1.859,198.000,187.500,246.500,224.000
1.860,197.500,190.000,249.500,226.000
1.861,196.500,192.000,252.000,227.500
1.862,196.500,194.000,254.000,229.500
1.863,196.000,195.000,255.000,231.500
1.864,196.000,195.500,255.500,233.500
1.865,196.000,195.000,255.000,235.000
1.866,196.000,194.000,254.500,237.000
1.867,195.500,192.500,253.500,238.000
1.868,196.000,191.500,252.500,239.500
1.869,195.500,190.000,251.500,240.000
1.870,195.500,189.000,251.500,241.000
1.871,195.000,187.500,251.000,241.000
1.872,195.500,187.500,251.500,242.000
1.873,195.500,187.000,252.000,242.500
1.874,196.000,187.000,253.000,243.500
1.875,196.500,187.000,253.500,244.000
1.876,197.000,187.500,255.000,245.000
1.877,197.500,188.000,255.000,245.000
1.878,198.000,189.000,255.500,245.500
1.879,198.000,189.000,255.500,245.500
1.880,198.500,190.000,256.000,246.000
1.881,198.500,190.000,255.500,246.000
1.882,199.000,190.500,255.500,246.500
1.883,199.000,190.000,255.000,246.000
1.884,199.500,190.500,255.000,246.500
1.885,199.500,190.000,254.000,246.000
1.886,199.500,190.000,254.000,246.000
1.887,199.500,189.500,253.000,245.000
1.888,199.500,189.500,253.000,244.500
1.889,199.000,189.000,252.000,243.500
1.890,199.000,189.000,252.000,243.500
1.891,198.500,188.500,251.500,243.000
1.892,198.500,189.000,251.500,243.000
1.893,198.000,188.500,251.000,242.500
1.894,198.500,188.500,251.500,243.000
1.895,198.500,188.000,251.000,243.000
1.896,199.000,188.000,251.500,243.000
1.897,199.000,187.500,251.000,242.500
1.898,199.500,187.500,251.500,243.000
1.899,199.000,187.000,251.000,242.500
1.900,199.000,187.000,251.500,242.500
1.901,198.500,186.500,251.000,242.000
1.902,198.500,186.500,251.500,242.500
1.903,198.000,186.000,251.000,242.000
1.904,198.500,186.500,251.500,242.000
1.905,198.500,185.500,251.000,242.000
1.906,199.500,185.500,251.000,242.000
1.907,199.500,184.000,250.500,241.500
1.908,200.000,183.500,250.500,242.000
1.909,199.500,182.500,250.000,241.500
1.910,200.000,182.500,250.000,242.000
1.911,199.500,181.500,249.500,242.000
1.912,199.000,181.500,250.000,242.500
1.913,198.500,180.500,249.500,243.000
1.914,198.000,180.500,250.000,244.000
1.915,197.500,180.000,249.500,244.000
1.916,197.500,179.500,250.000,245.000
1.917,197.500,179.000,250.000,245.000
1.918,198.500,179.000,251.000,246.000
1.919,198.500,178.500,251.500,246.500
1.920,200.000,178.500,253.000,247.000
1.921,200.500,178.500,253.500,247.000
1.922,201.500,179.000,254.500,248.000
1.923,202.000,179.000,255.000,247.500
1.924,203.000,179.500,256.000,248.000
1.925,203.500,179.500,256.500,247.500
1.926,204.500,180.000,257.000,248.000
1.927,204.500,179.500,256.500,247.500
1.928,204.500,180.000,257.000,248.000
1.929,204.000,180.000,257.000,247.500
1.930,204.000,180.500,258.000,248.500
1.931,203.000,180.000,257.500,248.500
1.932,202.500,180.500,258.000,249.000
1.933,201.500,180.000,258.000,248.500
1.934,201.500,180.500,258.500,249.000
1.935,201.000,180.000,258.000,249.000
1.936,201.000,180.500,259.000,249.500
1.937,201.000,180.000,259.000,249.500
1.938,201.500,180.000,259.500,250.000
1.939,201.500,180.000,259.500,249.500
1.940,202.000,181.000,260.500,250.000
1.941,202.000,181.000,260.500,249.500
1.942,203.000,182.000,261.000,249.500
1.943,203.000,182.000,260.500,249.000
1.944,203.000,182.500,261.000,249.000
1.945,202.500,182.500,260.500,248.500
1.946,203.000,182.500,260.500,248.500
1.947,202.500,182.000,260.000,248.000
1.948,202.500,182.000,260.000,248.500
1.949,202.000,181.500,260.000,248.000
1.950,202.000,182.000,260.500,248.500
1.951,201.000,182.000,260.000,248.500
1.952,201.000,182.500,261.000,249.000
1.953,200.500,182.500,260.500,248.500
1.954,201.000,183.500,261.000,249.000
1.955,200.500,183.000,260.500,248.000
1.956,200.500,183.000,260.500,248.000
1.957,200.500,182.500,259.500,247.000
1.958,200.500,182.500,259.000,247.000
1.959,200.000,182.000,258.500,246.000
1.960,200.000,182.000,258.500,246.000
1.961,199.500,181.500,258.000,245.500
1.962,200.000,182.000,258.500,245.500
1.963,200.000,182.000,258.500,245.000
1.964,200.500,182.500,259.000,245.500
1.965,200.000,183.000,259.000,245.000
1.966,200.500,183.500,260.000,246.000
1.967,200.500,184.000,260.500,246.500
1.968,201.500,185.000,262.500,248.500
1.969,201.500,185.500,263.500,250.000
1.970,202.500,186.500,266.000,253.000
1.971,202.500,187.000,267.500,255.000
1.972,203.500,188.000,269.500,257.500
1.973,203.500,188.000,270.000,258.500
1.974,204.000,189.000,271.000,260.000
1.975,204.000,188.500,270.000,260.000
1.976,205.000,188.500,270.000,260.500
1.977,205.000,188.000,268.500,259.500
1.978,205.500,188.000,268.000,259.500
1.979,205.000,187.500,266.500,258.000
1.980,205.500,187.000,266.500,257.500
1.981,205.500,186.500,265.500,256.000
1.982,205.500,186.500,265.500,255.000
1.983,205.500,185.500,264.000,253.000
1.984,206.000,184.500,263.000,251.000
1.985,205.500,183.000,260.500,248.500
1.986,206.000,182.000,259.000,246.500
1.987,205.500,180.500,256.500,244.000
1.988,206.000,180.000,255.000,243.000
1.989,205.500,179.500,253.500,241.000
1.990,206.000,179.500,253.000,240.500
1.991,205.500,179.000,252.500,239.500
1.992,206.000,179.500,252.500,239.500
1.993,206.000,179.500,252.000,238.500
1.994,206.500,180.000,252.500,238.500
1.995,206.500,180.000,252.500,238.000
1.996,206.500,180.500,252.500,238.000
1.997,206.000,180.500,252.000,237.500
1.998,206.500,180.500,252.000,237.500
1.999,206.000,180.000,251.500,237.000
2.000,206.500,179.500,252.000,237.500
2.001,206.000,178.500,251.500,237.000
2.002,206.500,178.000,251.500,237.500
2.003,206.000,177.500,251.000,237.000
2.004,206.500,177.500,251.500,237.000
2.005,206.500,177.000,251.000,236.500
2.006,207.000,177.500,251.000,236.500
2.007,207.000,178.000,250.500,236.000
2.008,208.000,178.500,250.500,236.000
2.009,207.500,178.500,250.000,235.500
2.010,207.500,179.000,250.500,235.500
2.011,207.000,179.000,250.500,235.000
2.012,206.500,179.000,251.000,235.000
2.013,205.000,178.500,251.000,235.000
2.014,205.000,178.500,252.000,235.500
2.015,204.000,178.000,252.500,235.500
2.016,204.500,178.500,253.500,236.500
2.017,204.000,178.500,254.000,236.500
2.018,204.500,179.000,255.000,237.500
2.019,204.000,178.500,255.000,237.500
2.020,205.000,178.500,255.500,238.500
2.021,205.000,178.000,255.000,238.500
2.022,205.500,178.500,255.000,240.000
2.023,206.000,178.000,254.500,240.500
2.024,207.000,178.500,255.000,242.000
2.025,207.500,178.500,254.500,242.500
2.026,208.500,179.000,255.000,244.000
2.027,208.500,179.000,255.000,244.500
2.028,209.500,179.500,255.500,245.500
2.029,209.000,179.500,255.000,246.000
2.030,209.500,180.000,255.000,246.500
2.031,208.500,179.500,254.500,246.500
2.032,208.500,180.000,254.500,247.000
2.033,208.000,179.000,253.500,246.500
2.034,208.000,179.000,253.000,247.000
2.035,207.500,178.000,251.500,247.000
2.036,207.500,177.500,250.500,248.000
2.037,207.000,176.500,249.500,248.000
2.038,207.500,176.000,249.000,249.500
2.039,207.000,175.500,248.500,250.000
2.040,207.500,175.500,248.500,251.000
2.041,207.500,175.000,247.500,251.500
2.042,208.000,175.500,247.500,252.500
2.043,208.500,175.500,246.000,252.500
2.044,209.500,176.000,245.500,253.500
2.045,209.500,176.000,244.000,253.000
2.046,211.000,176.500,243.000,253.500
2.047,211.500,176.500,241.500,253.500
2.048,212.500,176.500,240.500,254.000
2.049,212.500,175.500,239.000,254.000
2.050,213.500,175.500,238.500,255.000
2.051,213.500,174.500,237.000,255.000
2.052,214.000,174.000,236.000,255.500
2.053,213.500,173.500,234.500,255.000
2.054,214.000,173.000,233.500,255.500
2.055,213.500,172.500,232.000,255.500
2.056,214.000,172.500,231.500,256.000
2.057,214.000,172.500,231.000,256.000
2.058,214.000,172.500,231.000,257.500
2.059,213.500,172.500,230.500,258.000
2.060,213.500,173.000,230.500,259.000
2.061,213.000,173.500,230.000,259.500
2.062,213.000,174.000,230.000,260.500
2.063,212.500,174.000,229.500,260.500
2.064,212.500,174.500,229.500,261.500
2.065,212.000,174.500,228.500,261.500
2.066,211.500,174.500,228.000,262.000
2.067,210.500,174.000,227.000,261.000
2.068,210.500,174.000,226.000,261.500
2.069,210.000,173.000,224.000,260.500
2.070,210.500,173.000,223.000,261.000
2.071,210.000,172.000,222.000,260.500
2.072,210.500,172.000,222.000,260.500
2.073,210.000,171.500,221.500,260.500
2.074,210.500,172.000,222.000,261.000
2.075,210.000,171.500,221.500,261.000
2.076,210.500,172.000,222.000,261.500
2.077,210.500,172.000,221.500,261.500
2.078,211.000,172.500,221.500,262.500
2.079,211.000,172.500,221.000,262.500
2.080,211.000,173.000,221.500,263.500
2.081,210.500,173.000,221.500,264.000
2.082,210.500,173.500,222.000,265.500
2.083,210.000,173.000,221.500,266.000
2.084,210.000,173.500,222.500,267.000
2.085,209.500,173.500,222.000,267.000
2.086,210.000,174.000,222.500,268.000
2.087,209.500,174.500,222.000,267.500
2.088,209.500,175.000,222.500,268.500
2.089,209.000,175.500,222.000,268.500
2.090,208.500,176.000,222.000,269.000
2.091,207.500,176.500,221.500,269.000
2.092,207.500,177.000,222.000,270.000
2.093,206.500,177.000,221.500,270.000
2.094,206.500,177.500,222.000,271.000
2.095,205.500,177.500,222.000,271.500
2.096,205.500,178.000,222.500,273.000
2.097,205.000,178.000,222.500,273.500
2.098,205.500,178.500,223.500,275.000
2.099,205.000,178.000,223.500,276.000
2.100,205.500,178.000,224.000,277.000
2.101,205.500,177.500,224.000,277.500
2.102,206.000,177.500,225.000,279.000
2.103,205.500,177.000,225.000,279.000
2.104,206.000,177.500,226.000,280.000
2.105,205.000,177.000,226.500,280.000
2.106,205.000,177.500,227.500,281.000
2.107,204.500,177.500,228.000,281.000
2.108,204.000,178.000,228.500,282.000
2.109,203.500,177.500,228.500,281.500
2.110,203.500,178.000,229.500,282.000
2.111,203.000,178.000,229.000,282.000
2.112,203.500,178.500,230.000,282.500
2.113,203.000,178.000,230.000,282.000
2.114,203.500,178.500,231.000,282.500
2.115,203.000,178.500,231.500,282.500
2.116,203.500,179.000,233.000,283.000
2.117,203.000,178.500,234.000,283.000
2.118,203.000,179.500,235.500,284.000
2.119,202.500,179.500,236.000,283.500
2.120,202.500,180.500,237.000,284.000
2.121,202.500,180.500,237.500,283.000
2.122,202.500,180.500,238.500,283.000
2.123,202.500,180.000,238.000,281.500
2.124,203.000,180.500,238.500,281.000
2.125,202.500,180.000,238.000,279.000
2.126,203.000,180.000,238.000,278.000
2.127,202.500,179.500,237.500,276.500
2.128,202.500,179.500,238.000,275.500
2.129,202.000,178.500,238.000,274.500
2.130,202.500,178.500,238.500,274.000
2.131,202.500,177.500,238.500,273.000
2.132,203.000,177.500,239.500,272.500
2.133,202.500,177.000,239.500,271.500
2.134,202.500,176.500,241.000,271.000
2.135,201.500,176.000,241.500,269.500
2.136,201.500,176.000,242.500,269.000
2.137,200.500,175.500,242.500,268.000
2.138,200.500,176.000,243.500,267.500
2.139,199.500,175.500,244.000,266.000
2.140,200.000,176.000,245.500,266.000
2.141,199.500,175.500,246.000,264.500
2.142,200.000,176.000,248.000,264.500
2.143,200.000,176.000,249.000,263.000
2.144,200.500,177.000,250.500,262.500
2.145,200.000,177.000,251.000,260.500
2.146,200.000,177.000,252.000,259.500
2.147,199.500,177.000,252.500,258.000
2.148,199.500,177.500,253.500,257.000
2.149,199.000,178.000,254.000,255.000
2.150,199.000,179.000,256.000,254.000
2.151,198.500,179.500,257.000,252.500
2.152,198.500,180.500,258.500,252.000
2.153,198.000,181.500,259.500,251.000
2.154,198.000,182.500,260.500,250.000
2.155,197.500,183.000,261.000,249.000
2.156,198.000,184.000,262.000,248.500
2.157,197.500,184.000,262.500,247.500
2.158,198.000,185.000,263.500,247.000
2.159,198.000,185.500,264.000,246.500
2.160,199.000,187.000,265.000,246.500
2.161,199.500,187.500,265.000,246.000
2.162,200.500,188.500,266.000,246.000
2.163,200.500,188.500,266.000,245.000
2.164,201.500,189.500,266.500,245.000
2.165,202.000,189.500,266.500,244.000
2.166,203.000,190.000,266.500,243.500
2.167,203.000,189.500,265.500,242.000
2.168,203.500,189.000,265.500,241.500
2.169,203.500,188.000,264.500,240.000
2.170,203.500,187.500,264.000,239.000
2.171,203.000,186.500,263.000,237.000
2.172,202.500,186.500,263.000,236.500
2.173,201.500,186.000,262.500,235.000
2.174,201.000,187.000,262.500,234.500
2.175,200.000,187.000,262.000,233.000
2.176,200.000,188.000,262.000,233.000
2.177,199.000,188.000,261.000,232.000
2.178,199.500,189.000,261.000,231.500
2.179,199.000,189.500,260.500,230.500
2.180,199.000,190.000,260.500,230.000
2.181,199.000,189.500,260.000,228.500
2.182,199.500,190.000,260.500,228.000
2.183,199.000,190.000,260.000,226.500
2.184,199.500,190.500,260.000,226.000
2.185,199.500,190.000,259.500,224.500
2.186,199.500,190.500,259.500,223.500
2.187,199.500,190.500,258.500,222.000
2.188,200.000,191.000,258.500,221.000
2.189,199.500,190.500,257.500,219.500
2.190,200.000,191.000,258.000,219.000
2.191,200.000,191.000,257.500,217.500
2.192,200.000,191.500,258.000,217.500
2.193,199.500,191.500,258.000,216.500
2.194,199.500,192.000,258.500,216.000
2.195,199.000,192.000,258.500,215.000
2.196,199.000,192.500,259.000,214.500
2.197,198.500,192.000,259.000,213.500
2.198,199.000,192.500,259.500,213.500
2.199,198.500,192.000,259.500,212.500
2.200,199.000,192.000,260.000,212.000
2.201,198.500,191.500,259.500,211.000
2.202,198.500,191.500,260.000,210.500
2.203,198.000,191.000,259.000,209.000
2.204,198.500,191.000,259.000,208.500
2.205,198.500,190.000,258.500,207.500
2.206,199.000,190.000,258.500,206.500
2.207,199.000,189.500,257.500,205.500
2.208,199.500,189.500,258.000,204.500
2.209,199.500,189.000,257.000,203.500
2.210,200.000,189.000,257.500,202.500
2.211,200.000,188.000,257.000,201.500
2.212,200.500,188.000,257.000,201.000
2.213,200.500,187.000,257.000,200.000
2.214,200.500,187.500,257.500,199.500
2.215,199.500,187.000,257.500,199.000
2.216,199.500,187.000,258.500,199.000
2.217,199.000,187.000,258.500,198.500
2.218,198.500,187.000,259.500,198.500
2.219,198.000,187.000,259.500,198.000
2.220,198.500,187.000,259.500,197.500
2.221,198.000,186.000,259.000,196.500
2.222,198.500,186.000,259.500,196.000
2.223,198.500,185.000,259.000,195.000
2.224,199.000,185.000,259.500,195.000
2.225,199.000,184.500,259.000,194.000
2.226,200.000,184.500,259.500,194.500
2.227,200.500,184.000,259.000,194.000
2.228,201.000,184.000,259.500,194.000
2.229,201.000,183.500,258.500,193.500
2.230,201.500,183.000,258.500,193.500
2.231,201.500,182.000,258.000,192.500
2.232,201.500,181.500,258.000,192.000
2.233,201.000,180.500,257.000,191.500
2.234,201.000,179.500,257.500,191.500
2.235,200.000,178.500,257.000,191.000
2.236,200.500,178.000,257.500,191.500
2.237,200.000,177.500,257.500,191.500
2.238,200.500,178.000,258.500,192.000
2.239,200.500,178.000,259.000,192.000
2.240,201.000,178.500,260.500,192.500
2.241,201.000,179.000,260.500,192.000
2.242,201.500,179.500,261.500,192.500
2.243,201.000,179.500,261.500,192.500
2.244,201.500,180.000,262.500,192.500
2.245,201.000,180.000,262.000,192.500
2.246,201.000,180.500,262.000,192.500
2.247,201.000,180.500,261.500,191.500
2.248,201.500,181.000,261.500,191.500
2.249,201.500,181.000,261.000,191.000
2.250,202.000,182.000,261.500,191.500
2.251,202.000,182.000,261.500,191.500
2.252,202.500,183.000,262.500,192.000
2.253,202.500,183.000,262.500,192.000
2.254,203.000,184.000,263.000,192.500
2.255,202.500,184.000,262.500,193.000
2.256,203.000,184.500,263.000,194.000
2.257,202.500,184.000,263.000,194.000
2.258,202.500,184.500,263.000,195.000
2.259,201.500,184.000,262.500,195.000
2.260,201.500,184.000,262.500,195.500
2.261,200.500,183.500,261.500,195.000
2.262,200.500,183.500,261.500,195.000
2.263,200.000,183.000,260.500,194.500
2.264,200.500,183.500,260.000,194.500
2.265,200.000,183.000,259.000,194.000
2.266,200.000,183.000,258.500,193.500
2.267,199.500,182.500,257.500,193.000
2.268,200.000,182.500,257.500,193.000
2.269,200.000,182.500,256.500,192.500
2.270,200.500,183.000,257.000,193.000
2.271,200.000,183.000,257.000,192.500
2.272,200.500,183.500,258.000,193.000
2.273,200.000,183.500,258.500,193.000
2.274,200.500,184.000,260.000,193.500
2.275,200.000,184.000,260.500,193.500
2.276,200.500,184.500,261.500,194.000
2.277,200.500,184.500,261.500,194.000
2.278,201.000,184.500,262.000,195.000
2.279,201.000,184.000,261.500,195.000
2.280,201.500,184.500,261.500,195.500
2.281,201.500,184.000,261.000,195.500
2.282,202.000,184.000,261.000,195.500
2.283,201.500,183.000,260.000,195.000
2.284,202.000,183.000,260.000,195.500
2.285,202.000,182.000,259.000,194.500
2.286,202.500,181.500,258.500,194.500
2.287,202.500,181.000,258.000,194.000
2.288,203.000,180.500,258.000,194.500
2.289,203.000,180.000,257.500,194.000
2.290,203.500,180.000,258.000,194.500
2.291,203.500,179.500,258.000,194.500
2.292,204.000,180.000,258.500,195.500
2.293,203.500,180.000,258.000,195.500
2.294,204.000,180.500,258.000,196.000
2.295,204.000,180.500,257.500,195.500
2.296,204.000,181.000,257.500,195.500
2.297,203.500,181.000,256.500,195.000
2.298,203.500,181.500,257.000,195.000
2.299,202.500,181.500,256.000,195.000
2.300,202.500,181.500,256.500,195.000
2.301,202.000,181.500,256.000,195.000
2.302,202.000,181.500,256.500,195.000
2.303,201.500,181.500,256.000,195.000
2.304,201.500,181.500,256.000,195.000
2.305,201.000,181.000,255.000,194.500
2.306,201.500,181.500,254.500,194.500
2.307,201.500,181.000,253.000,193.500
2.308,202.000,181.500,253.000,193.500
2.309,201.500,181.000,252.000,192.500
2.310,202.000,181.500,251.500,192.500
2.311,201.500,181.500,250.000,192.000
2.312,202.000,182.000,250.000,192.000
2.313,201.500,182.000,249.000,191.500
2.314,202.000,182.500,249.000,191.000
2.315,201.500,182.500,248.000,190.000
2.316,202.000,183.000,247.500,189.500
2.317,201.500,183.000,246.500,188.500
2.318,201.500,183.000,246.500,188.000
2.319,201.000,182.500,245.500,187.500
2.320,201.000,183.000,245.000,187.500
2.321,200.500,183.000,244.000,187.000
2.322,200.500,183.500,244.000,187.000
2.323,200.500,183.000,242.500,186.000
2.324,201.000,183.500,242.500,186.000
2.325,201.000,183.000,241.500,185.000
2.326,201.500,183.500,241.500,185.000
2.327,201.000,183.000,240.500,184.000
2.328,201.500,182.500,240.500,184.000
2.329,201.000,182.000,239.500,183.000
2.330,201.500,182.000,239.500,183.000
2.331,201.000,182.000,239.000,182.500
2.332,201.500,182.000,238.500,182.500
2.333,201.000,181.000,238.000,182.000
2.334,201.500,181.000,238.500,182.000
2.335,201.000,180.500,238.000,182.000
2.336,201.000,181.000,239.000,183.000
2.337,200.500,181.000,239.000,183.000
2.338,200.500,181.500,240.000,184.000
2.339,200.500,181.500,240.000,184.000
2.340,201.000,182.500,240.500,184.500
2.341,200.500,182.000,239.500,184.000
2.342,201.000,182.500,239.500,184.000
2.343,201.000,182.000,238.500,183.000
2.344,201.500,181.500,238.000,182.500
2.345,201.500,181.000,236.500,182.000
2.346,202.000,180.500,236.000,181.500
2.347,202.000,180.000,235.000,181.000
2.348,202.500,180.000,234.500,181.000
2.349,202.000,180.000,233.500,181.000
2.350,202.500,180.500,233.500,181.500
2.351,202.000,180.500,232.500,181.500
2.352,202.000,181.500,233.000,182.000
2.353,202.000,181.500,232.500,182.000
2.354,202.000,182.000,232.500,182.500
2.355,202.000,181.500,232.000,182.000
2.356,202.500,181.500,231.500,182.500
2.357,202.500,180.500,230.500,182.000
2.358,203.500,180.500,230.500,182.000
2.359,203.500,179.500,230.000,181.500
2.360,203.500,180.000,230.000,181.500
2.361,203.000,179.500,229.500,181.500
2.362,203.000,180.000,230.000,182.000
2.363,202.500,179.500,230.000,182.000
2.364,203.000,180.000,230.500,182.000
2.365,202.500,180.000,230.500,181.500
2.366,203.000,180.500,231.000,182.000
2.367,203.000,181.000,231.000,181.500
2.368,203.500,181.500,231.500,182.000
2.369,203.000,182.000,231.000,181.500
2.370,203.500,182.500,231.500,181.500
2.371,203.000,182.000,231.500,181.000
2.372,203.000,182.500,232.000,181.000
2.373,203.000,182.000,232.000,180.500
2.374,203.000,182.000,232.500,181.000
2.375,202.500,182.000,232.500,180.500
2.376,202.500,182.500,233.000,180.500
2.377,201.500,182.500,233.000,180.500
2.378,201.500,183.000,233.500,180.500
2.379,200.500,182.500,233.500,180.500
2.380,200.000,183.000,234.000,180.500
2.381,199.500,182.500,234.000,180.000
2.382,199.500,182.500,234.500,180.000
2.383,199.000,182.500,234.000,179.500
2.384,199.500,182.500,234.500,179.500
2.385,199.000,182.500,233.500,178.500
2.386,199.500,183.000,233.500,178.500
2.387,199.000,182.500,232.500,177.500
2.388,199.000,183.000,232.000,177.000
2.389,198.500,182.500,231.500,176.500
2.390,199.000,183.000,231.500,177.000
2.391,198.500,183.500,231.500,177.000
2.392,198.500,184.500,233.000,178.500
2.393,198.000,185.500,234.500,180.000
2.394,198.500,187.500,236.500,182.000
2.395,198.000,189.000,238.000,184.000
2.396,198.500,191.000,240.000,186.000
2.397,198.500,192.000,241.000,187.500
2.398,199.500,193.500,242.500,189.000
2.399,200.000,194.000,242.500,189.500
2.400,200.500,194.500,243.500,190.000
2.401,200.500,194.500,243.500,189.500
2.402,201.500,195.500,244.500,189.000
2.403,201.500,195.500,244.000,188.500
2.404,202.000,196.500,244.500,188.000
2.405,201.500,196.500,243.500,187.000
2.406,202.000,196.500,243.000,186.500
2.407,201.500,196.000,241.500,185.000
2.408,201.500,196.000,240.500,184.000
2.409,201.000,195.000,238.000,182.000
2.410,201.500,194.500,236.500,181.000
2.411,201.500,193.500,234.500,179.000
2.412,202.000,193.000,233.500,178.000
2.413,202.000,192.000,232.000,177.000
2.414,202.500,191.500,231.500,176.500
2.415,202.000,191.000,231.000,176.000
2.416,202.000,191.500,231.000,176.500
2.417,201.500,191.000,231.000,176.000
2.418,201.500,191.500,231.000,176.500
2.419,201.000,191.000,230.500,176.500
2.420,201.000,191.000,231.000,177.000
2.421,200.500,190.500,230.500,177.000
2.422,201.000,191.000,231.000,177.000
2.423,200.500,190.500,230.000,176.500
2.424,201.000,190.000,230.000,177.000
2.425,200.500,189.000,229.000,176.500
2.426,201.000,189.000,229.000,176.500
2.427,200.500,188.000,228.000,176.000
2.428,201.000,188.000,228.000,176.500
2.429,200.500,187.500,227.500,176.000
2.430,201.000,187.500,228.500,176.500
2.431,201.000,187.500,228.500,176.500
2.432,202.000,188.000,229.000,177.000
2.433,201.500,188.500,229.000,177.000
2.434,202.000,189.000,230.000,178.000
2.435,202.000,189.500,230.000,178.000
2.436,202.000,190.000,231.500,179.000
2.437,201.500,190.000,232.000,179.500
2.438,201.500,191.000,233.500,180.500
2.439,200.500,191.000,234.000,181.000
2.440,200.500,191.000,235.500,182.000
2.441,200.000,191.000,235.500,182.500
2.442,200.500,191.000,236.500,183.500
2.443,200.500,191.000,236.500,183.500
2.444,201.500,191.000,237.500,184.500
2.445,201.500,190.500,237.500,184.500
2.446,202.000,191.000,238.500,185.500
2.447,202.000,190.500,238.500,185.500
2.448,202.500,191.000,240.000,186.000
2.449,202.500,191.000,240.000,186.500
2.450,203.000,191.500,241.000,187.000
2.451,202.500,191.000,241.000,187.000
2.452,203.000,191.000,241.500,187.500
2.453,203.000,190.500,241.000,187.500
2.454,203.000,190.500,241.000,188.000
2.455,202.500,189.500,240.500,188.000
2.456,203.000,189.500,240.500,188.500
2.457,203.000,188.500,240.000,188.500
2.458,203.500,188.500,240.000,189.500
2.459,203.000,188.000,239.500,189.500
2.460,203.500,188.500,240.000,190.000
2.461,203.000,188.000,239.500,189.500
2.462,204.000,188.500,239.500,190.000
2.463,204.000,188.000,239.000,190.000
2.464,204.500,188.000,239.000,190.000
2.465,204.500,187.500,238.500,190.000
2.466,205.000,188.000,238.000,190.000
2.467,204.500,187.500,237.000,189.500
2.468,205.000,187.500,236.500,189.500
2.469,204.500,186.500,235.500,189.000
2.470,204.500,186.500,235.500,189.500
2.471,204.500,186.000,234.500,189.500
2.472,205.000,186.500,235.000,190.000
2.473,205.000,186.000,234.500,190.000
2.474,205.500,186.500,235.000,190.500
2.475,205.500,186.500,234.500,190.000
2.476,206.500,186.500,235.000,190.000
2.477,206.500,186.000,234.000,189.000
2.478,207.000,186.000,234.000,188.500
2.479,206.500,185.500,232.500,187.000
2.480,207.500,185.500,232.000,186.000
2.481,207.500,184.500,230.500,184.500
2.482,208.500,184.500,230.000,183.500
2.483,209.000,184.000,228.500,182.500
2.484,209.500,184.500,228.500,182.000
2.485,209.500,184.500,228.000,181.500
2.486,210.000,185.000,229.000,182.000
2.487,210.000,185.000,229.000,182.500
2.488,210.000,185.500,230.000,183.000
2.489,209.000,185.500,230.000,183.500
2.490,209.500,186.500,230.500,184.000
2.491,209.000,186.500,230.500,184.000
2.492,209.000,187.000,231.000,185.000
2.493,208.500,186.500,231.000,184.500
2.494,208.500,187.000,232.000,185.000
2.495,208.000,187.000,232.000,185.000
2.496,208.500,188.000,233.000,185.500
2.497,207.500,188.500,233.000,185.000
2.498,207.500,189.500,233.500,185.500
2.499,207.000,189.500,233.000,185.000
2.500,207.500,190.500,233.500,185.000
2.501,207.500,191.000,233.000,185.000
2.502,207.500,191.500,233.000,185.000
2.503,207.500,191.000,232.500,185.000
2.504,207.500,191.000,232.500,185.500
2.505,207.000,190.500,232.000,185.000
2.506,207.000,190.500,232.000,185.500
2.507,206.000,189.500,231.500,185.500
2.508,206.000,189.500,231.500,186.000
2.509,205.000,189.000,231.500,185.500
2.510,205.000,189.500,232.000,186.000
2.511,204.500,190.000,232.000,186.000
2.512,205.000,191.500,233.000,187.000
2.513,204.500,192.000,233.500,187.000
2.514,204.500,193.500,234.500,188.000
2.515,204.000,194.000,235.500,188.500
2.516,204.500,195.500,237.000,189.500
2.517,204.000,196.000,237.500,189.500
2.518,203.500,196.500,238.500,190.000
2.519,202.500,196.500,239.000,190.000
2.520,202.500,197.500,239.500,190.000
2.521,202.000,197.500,239.500,189.500
2.522,202.000,198.000,240.000,189.500
2.523,201.000,198.000,239.500,188.500
2.524,201.000,199.000,239.500,188.500
2.525,200.500,199.500,238.500,188.000
2.526,201.000,200.500,239.000,188.000
2.527,200.500,201.000,239.000,187.500
2.528,201.000,202.000,240.000,188.000
2.529,201.000,202.500,240.000,188.000
2.530,202.000,203.500,241.000,189.000
2.531,202.000,204.000,241.000,189.000
2.532,203.000,205.000,242.000,190.500
2.533,203.000,205.000,241.500,191.000
2.534,204.000,205.000,242.000,192.500
2.535,204.000,204.500,242.000,193.000
2.536,205.000,204.500,242.500,194.000
2.537,205.000,204.000,242.500,194.000
2.538,205.500,204.500,243.000,194.500
2.539,205.000,204.000,242.000,194.000
2.540,205.500,204.000,242.000,194.500
2.541,205.500,203.500,241.000,194.000
2.542,206.000,203.500,240.500,194.000
2.543,205.500,203.000,239.500,193.500
2.544,205.500,202.500,239.000,193.500
2.545,205.000,202.000,238.500,193.000
2.546,205.000,202.000,238.500,193.000
2.547,204.000,201.000,238.000,192.500
2.548,203.500,201.000,238.500,192.500
2.549,202.500,200.500,238.000,192.000
2.550,202.500,201.000,239.000,192.000
2.551,202.000,200.500,238.500,192.000
2.552,202.000,201.000,239.000,192.500
2.553,201.000,200.500,238.000,192.000
2.554,201.000,201.000,238.000,192.500
2.555,200.500,200.500,237.000,192.000
2.556,201.000,200.500,237.000,192.500
2.557,200.500,200.000,236.000,192.000
2.558,201.000,200.000,236.000,192.500
2.559,201.000,199.500,235.500,192.500
2.560,202.000,199.500,235.500,193.500
2.561,202.000,199.000,235.500,193.500
2.562,202.000,199.000,236.000,194.500
2.563,201.500,198.000,236.000,194.500
2.564,201.500,198.500,236.500,195.000
2.565,200.500,198.000,236.500,194.500
2.566,200.500,198.500,236.500,195.000
2.567,199.500,198.000,236.000,195.000
2.568,200.000,198.500,236.500,195.000
2.569,199.500,198.000,235.500,195.000
2.570,200.000,198.500,236.000,195.500
2.571,200.000,198.500,235.500,195.500
2.572,200.500,199.000,236.000,196.000
2.573,200.000,199.000,235.500,196.500
2.574,200.500,200.000,236.000,197.500
2.575,200.500,200.000,236.000,197.500
2.576,201.000,200.500,236.500,198.500
2.577,200.500,200.000,236.500,199.000
2.578,201.000,200.000,236.500,200.000
2.579,200.500,199.500,236.500,200.000
2.580,201.000,199.500,236.500,201.500
2.581,200.500,198.500,236.500,202.000
2.582,201.000,198.500,237.000,204.000
2.583,201.000,197.500,237.000,205.000
2.584,201.500,197.000,237.500,206.500
2.585,202.000,196.000,237.000,207.500
2.586,203.000,195.000,236.500,209.000
2.587,203.000,193.000,235.000,209.500
2.588,204.000,191.500,234.000,210.500
2.589,204.000,189.500,231.500,210.500
2.590,204.500,187.500,229.500,211.000
2.591,204.500,185.000,226.000,210.500
2.592,205.000,182.500,223.000,210.500
2.593,205.500,179.000,218.500,208.500
2.594,206.500,175.500,214.000,207.000
2.595,207.500,171.000,208.500,204.000
2.596,209.500,167.000,203.000,202.000
2.597,211.000,162.000,197.000,199.500
2.598,213.000,157.500,191.500,198.000
2.599,214.000,152.500,185.500,196.000
2.600,215.500,148.000,179.500,195.000
2.601,216.500,142.000,172.000,192.000
2.602,218.500,136.000,163.000,188.500
2.603,220.500,127.500,151.500,182.000
2.604,223.000,119.000,139.000,174.500
2.605,225.500,109.000,124.000,164.500
2.606,229.000,99.500,109.500,155.000
2.607,231.500,90.000,94.500,144.500
2.608,234.500,82.000,82.500,135.500
2.609,236.000,75.000,72.500,127.500
2.610,238.000,71.000,66.000,122.500
2.611,238.500,69.000,62.500,118.500
2.612,239.000,69.500,62.500,117.500
2.613,238.000,72.000,65.000,117.000
2.614,237.500,76.500,70.500,118.000
2.615,236.000,82.000,77.000,119.500
2.616,234.500,89.500,85.500,121.500
2.617,232.000,97.000,94.500,123.500
2.618,230.000,105.500,104.500,126.000
2.619,227.500,113.500,113.500,128.000
2.620,225.500,122.000,123.000,130.500
2.621,222.500,129.500,132.000,132.500
2.622,221.000,137.500,141.500,135.500
2.623,218.500,145.000,150.500,139.000
2.624,217.000,153.500,161.000,144.000
2.625,214.000,162.000,171.500,149.000
2.626,212.000,170.500,182.000,155.000
2.627,209.000,178.500,192.000,159.500
2.628,206.500,186.000,201.000,164.500
2.629,204.000,192.500,208.500,167.500
2.630,202.000,198.000,215.000,170.000
2.631,199.500,202.000,219.500,171.000
2.632,198.500,206.000,223.500,172.000
2.633,197.000,208.500,226.000,172.000
2.634,196.500,210.500,228.500,173.000
2.635,195.500,212.000,230.000,173.000
2.636,195.000,213.500,232.000,174.500
2.637,194.000,214.500,233.000,175.500
2.638,193.500,215.000,234.500,177.000
2.639,192.500,215.000,235.000,178.000
2.640,192.000,215.000,235.500,179.500
2.641,191.500,214.000,235.500,180.000
2.642,191.500,213.500,235.500,181.500
2.643,191.000,212.500,234.500,182.500
2.644,191.500,212.000,234.500,183.500
2.645,191.500,211.000,234.000,184.000
2.646,192.500,210.500,234.500,185.500
2.647,192.500,210.000,234.000,186.000
2.648,193.500,210.000,234.500,187.500
2.649,193.500,209.500,234.500,188.000
2.650,194.500,210.000,235.500,189.000
2.651,195.000,210.000,235.500,189.500
2.652,196.000,210.500,236.500,191.000
2.653,196.000,210.500,237.000,191.500
2.654,197.000,211.000,238.000,192.500
2.655,196.500,211.000,238.000,192.500
2.656,196.500,211.500,239.000,193.000
2.657,196.000,211.000,239.000,193.000
2.658,196.000,211.000,239.500,193.500
2.659,195.500,210.500,239.500,193.000
2.660,195.500,210.500,240.000,193.000
2.661,195.000,209.500,240.000,192.000
2.662,195.000,209.500,240.500,191.500
2.663,194.500,208.500,240.000,191.000
2.664,194.500,208.000,240.000,190.500
2.665,194.000,207.500,239.500,190.000
2.666,194.500,207.000,239.500,190.000
2.667,194.000,206.500,239.000,189.000
2.668,194.000,206.000,239.500,189.000
2.669,193.000,205.500,239.000,188.500
2.670,193.000,205.000,239.500,189.000
2.671,192.500,204.000,239.500,188.500
2.672,192.500,204.000,240.000,189.000
2.673,192.000,203.500,240.000,188.500
2.674,192.500,203.500,240.500,189.000
2.675,192.500,203.000,240.000,189.000
2.676,193.000,203.000,240.000,189.000
2.677,192.500,202.500,239.000,188.500
2.678,193.000,203.000,239.000,189.000
2.679,192.500,202.500,238.000,188.500
2.680,192.500,202.500,238.000,188.500
2.681,192.000,202.000,237.000,188.000
2.682,192.500,202.000,237.500,188.500
2.683,192.000,201.500,237.500,187.500
2.684,193.000,202.000,238.500,187.500
2.685,193.000,202.000,238.000,187.000
2.686,194.000,202.000,238.500,187.500
2.687,194.000,201.500,238.000,187.500
2.688,194.500,202.000,238.000,188.000
2.689,194.500,201.500,237.500,187.500
2.690,194.500,201.500,237.500,188.000
2.691,194.500,201.000,237.000,188.000
2.692,194.500,201.000,237.500,188.500
2.693,194.500,201.000,237.000,188.500
2.694,195.000,201.000,237.500,189.500
2.695,195.000,200.500,237.500,189.500
2.696,195.500,201.000,238.500,190.000
2.697,195.000,200.500,238.500,190.000
2.698,195.500,200.500,239.500,190.500
2.699,195.000,200.000,239.500,190.500
2.700,195.000,200.000,240.500,191.000
2.701,194.500,199.500,240.500,190.500
2.702,194.500,200.000,241.000,190.500
2.703,194.000,200.000,240.500,190.000
2.704,194.500,200.500,241.000,189.500
2.705,194.500,200.500,240.500,188.500
2.706,195.500,201.500,240.500,188.500
2.707,195.500,201.500,239.500,187.500
2.708,196.000,202.500,240.000,187.500
2.709,196.000,202.500,239.500,187.000
2.710,196.500,203.000,240.000,187.500
2.711,196.500,203.000,239.500,187.500
2.712,196.500,203.500,240.000,188.000
2.713,196.000,203.500,240.000,188.000
2.714,196.500,204.000,240.500,188.000
2.715,196.000,203.500,240.000,187.500
2.716,196.000,203.500,240.000,187.500
2.717,195.500,203.000,239.000,187.000
2.718,196.000,203.000,238.500,186.500
2.719,196.000,202.500,237.500,186.000
2.720,197.000,202.500,237.500,185.500
2.721,197.000,201.500,236.500,185.000
2.722,197.500,201.500,236.500,185.000
2.723,197.000,201.000,235.500,184.000
2.724,197.500,201.000,235.500,184.000
2.725,197.500,200.000,234.500,183.000
2.726,198.000,200.000,234.500,183.000
2.727,198.000,199.500,233.500,182.000
2.728,198.500,199.500,233.000,181.500
2.729,198.500,199.000,232.000,180.000
2.730,199.000,199.000,232.000,179.500
2.731,199.000,199.000,231.000,178.500
2.732,199.500,199.000,230.500,178.500
2.733,199.500,198.500,230.000,177.500
2.734,200.000,198.500,230.000,177.500
2.735,199.500,198.000,229.000,176.500
2.736,200.000,198.000,229.000,176.500
2.737,199.500,197.500,228.500,175.500
2.738,199.500,198.000,228.500,175.500
2.739,199.000,197.500,227.500,174.500
2.740,199.000,197.500,227.500,174.500
2.741,198.500,196.500,226.500,173.000
2.742,199.000,196.500,226.500,172.500
2.743,198.500,196.000,225.500,171.000
2.744,199.000,196.500,225.000,170.500
2.745,198.500,196.000,224.000,169.000
2.746,199.000,196.500,224.000,168.500
2.747,199.000,196.500,223.500,167.000
2.748,199.000,197.000,223.000,166.500
2.749,198.500,197.000,222.000,165.000
2.750,199.000,197.000,221.500,164.000
2.751,198.500,196.500,220.000,163.000
2.752,199.000,197.000,219.000,162.000
2.753,198.500,197.000,218.000,161.000
2.754,199.000,197.500,218.000,160.500
2.755,198.500,198.000,217.500,159.500
2.756,198.500,198.500,217.500,159.000
2.757,198.000,199.000,217.000,158.000
2.758,198.000,199.500,217.500,157.500
2.759,198.000,199.500,216.500,156.500
2.760,199.000,200.500,216.500,156.500
2.761,199.000,200.000,215.500,155.500
2.762,200.500,200.500,215.500,155.500
2.763,201.000,200.500,215.000,154.500
2.764,201.500,201.500,215.000,154.500
2.765,201.500,201.500,214.500,154.000
2.766,201.500,202.500,215.000,154.000
2.767,201.000,203.000,215.000,153.500
2.768,201.000,204.000,215.500,153.000
2.769,200.500,204.500,215.500,152.500
2.770,201.000,205.000,216.000,152.500
2.771,200.500,205.000,215.500,152.500
2.772,201.000,206.000,215.500,152.500
2.773,201.000,206.000,214.500,152.500
2.774,202.000,206.500,214.500,153.000
2.775,202.000,206.000,214.000,153.000
2.776,202.500,206.500,214.000,154.000
2.777,202.500,206.500,213.000,154.000
2.778,203.000,207.000,213.000,154.500
2.779,202.500,207.500,212.500,154.500
2.780,203.000,208.000,212.500,155.000
2.781,202.500,208.500,212.000,155.000
2.782,202.500,209.500,212.500,155.000
2.783,202.000,209.500,212.000,154.500
2.784,202.500,210.000,211.500,154.500
2.785,202.000,209.500,210.500,154.000
2.786,202.500,209.500,210.000,154.000
2.787,202.000,208.500,209.000,153.500
2.788,202.500,208.500,208.500,154.000
2.789,202.000,207.500,207.000,153.500
2.790,202.000,208.000,207.000,154.000
2.791,201.500,207.500,206.000,154.000
2.792,202.000,207.500,205.500,154.500
2.793,202.000,207.500,204.500,154.500
2.794,202.000,207.500,204.500,155.500
2.795,201.500,207.000,203.500,155.500
2.796,201.500,207.000,203.500,156.500
2.797,201.000,206.500,202.500,157.000
2.798,201.000,206.500,202.500,158.000
2.799,200.500,206.000,202.000,158.500
2.800,200.500,206.000,202.000,159.500
2.801,200.500,205.500,201.500,159.500
2.802,201.000,205.500,201.000,160.000
2.803,201.000,204.500,200.000,160.000
2.804,201.500,204.500,199.500,160.000
2.805,201.000,203.500,198.500,160.000
2.806,201.500,203.000,198.000,160.000
2.807,201.500,202.000,196.500,160.000
2.808,202.000,202.000,196.000,160.000
2.809,202.000,201.000,195.000,160.000
2.810,202.000,200.500,194.000,160.500
2.811,201.500,199.500,192.500,160.000
2.812,201.000,199.000,191.500,160.000
2.813,200.000,198.000,190.000,159.500
2.814,200.000,197.500,189.500,159.500
2.815,199.500,197.000,188.000,159.000
2.816,200.000,197.000,187.500,159.500
2.817,199.500,196.500,187.000,159.500
2.818,200.500,197.000,187.500,161.000
2.819,200.500,197.000,187.500,162.000
2.820,201.000,198.000,189.000,163.500
2.821,200.500,198.500,190.000,165.000
2.822,201.000,200.500,191.500,167.500
2.823,200.500,201.500,193.000,169.500
2.824,200.500,203.500,194.500,172.000
2.825,200.000,204.500,196.000,174.000
2.826,200.000,206.000,197.500,176.500
2.827,200.000,206.500,198.000,177.500
2.828,200.500,207.500,198.500,179.000
2.829,200.500,207.000,198.000,179.500
2.830,201.000,207.000,198.000,179.500
2.831,200.500,206.000,197.000,178.500
2.832,201.000,205.000,196.500,177.500
2.833,201.000,203.500,195.000,176.000
2.834,201.000,203.000,194.500,175.500
2.835,201.000,201.500,193.000,174.000
2.836,201.000,200.500,192.500,173.000
2.837,201.000,199.000,191.000,171.000
2.838,201.500,198.500,190.000,170.000
2.839,201.000,197.000,188.000,168.000
2.840,201.500,196.500,187.000,166.500
2.841,201.500,195.000,185.000,164.500
2.842,201.500,194.500,184.500,163.500
2.843,201.000,193.500,183.000,162.000
2.844,201.000,193.000,182.500,161.500
2.845,200.000,192.500,181.500,160.500
2.846,200.500,192.500,181.000,160.500
2.847,200.000,192.000,180.500,159.500
2.848,200.000,192.000,180.000,159.000
2.849,200.000,191.500,179.500,158.000
2.850,200.000,191.500,179.500,158.000
2.851,200.000,190.500,179.000,157.000
2.852,200.500,190.500,179.000,157.000
2.853,200.500,190.000,178.500,156.500
2.854,201.500,190.000,178.500,157.000
2.855,201.500,189.500,178.500,157.000
2.856,202.500,190.000,178.500,157.500
2.857,202.500,189.500,178.500,157.500
2.858,203.500,190.000,178.500,158.000
2.859,203.500,189.500,178.000,157.500
2.860,204.000,190.000,178.500,158.000
2.861,203.500,189.500,178.000,157.500
2.862,203.500,189.500,178.000,157.500
2.863,203.000,189.500,177.500,157.000
2.864,203.000,189.500,178.000,157.500
2.865,202.000,189.500,178.000,157.000
2.866,202.500,190.000,178.500,157.500
2.867,202.000,189.500,179.000,157.500
2.868,202.000,190.000,180.000,158.500
2.869,201.500,190.000,180.500,158.500
2.870,202.000,190.500,181.500,159.000
2.871,202.000,190.000,181.500,159.000
2.872,202.500,190.500,182.000,159.500
2.873,202.000,190.500,182.000,159.500
2.874,202.000,190.500,182.500,160.000
2.875,201.500,190.000,182.500,160.000
2.876,201.500,190.000,183.000,160.500
2.877,200.500,189.500,183.500,160.500
2.878,200.000,190.000,184.500,161.500
2.879,199.500,189.500,185.500,162.000
2.880,199.500,190.000,187.000,163.000
2.881,199.000,189.500,187.500,163.500
2.882,199.500,189.500,188.500,164.000
2.883,199.500,188.500,189.000,164.000
2.884,200.000,188.500,189.500,164.500
2.885,200.500,188.000,189.500,164.500
2.886,201.000,188.000,190.500,165.000
2.887,201.000,187.500,190.500,165.000
2.888,202.000,188.000,191.500,165.500
2.889,202.000,187.500,191.500,165.500
2.890,202.000,188.000,192.500,166.500
2.891,201.500,188.000,193.000,166.500
2.892,202.000,188.500,194.000,167.000
2.893,201.500,188.000,194.000,166.500
2.894,201.500,187.500,194.500,166.500
2.895,201.000,186.500,194.500,165.500
2.896,201.500,186.000,195.000,165.000
2.897,201.500,185.000,195.000,164.000
2.898,202.000,185.000,195.500,164.000
2.899,202.000,184.500,195.500,163.500
2.900,202.500,185.000,196.000,164.000
2.901,202.500,185.500,196.500,163.000
2.902,203.500,186.000,197.000,163.000
2.903,203.500,186.000,197.000,162.000
2.904,204.000,186.500,197.500,161.000
2.905,203.500,186.000,197.500,159.500
2.906,203.500,186.000,197.500,158.500
2.907,203.000,185.000,197.500,156.500
2.908,203.000,185.000,198.000,156.000
2.909,202.500,184.000,197.500,154.500
2.910,202.500,184.000,198.500,154.000
2.911,201.500,183.500,198.500,153.000
2.912,201.500,184.000,199.500,152.500
2.913,201.000,183.500,199.500,151.500
2.914,201.000,184.000,200.000,151.000
2.915,200.500,184.000,200.000,150.000
2.916,201.000,184.500,201.000,149.500
2.917,200.500,184.000,200.500,148.500
2.918,201.000,184.500,201.000,148.000
2.919,200.500,184.500,201.000,147.000
2.920,201.000,185.000,201.000,146.500
2.921,201.000,184.500,200.500,145.000
2.922,201.000,185.000,201.000,144.500
2.923,201.000,185.000,200.500,143.000
2.924,201.000,185.500,200.500,142.500
2.925,201.000,185.500,200.000,141.000
2.926,201.500,186.000,200.500,140.000
2.927,201.000,185.500,200.000,138.500
2.928,202.000,185.500,200.500,137.500
2.929,202.000,185.500,200.500,136.000
2.930,202.500,185.500,201.000,135.500
2.931,202.500,185.500,201.500,134.000
2.932,203.000,186.000,202.000,133.500
2.933,202.500,186.000,202.000,132.500
2.934,203.000,186.500,203.000,132.000
2.935,203.000,186.500,203.000,131.500
2.936,203.500,187.000,203.500,131.000
2.937,203.000,186.500,203.500,130.000
2.938,203.500,187.000,204.000,129.500
2.939,203.500,186.500,203.500,128.500
2.940,204.000,187.000,204.000,127.500
2.941,203.500,186.500,203.500,126.000
2.942,204.000,186.500,203.500,125.000
2.943,203.500,186.500,203.000,123.500
2.944,204.000,187.000,202.500,122.500
2.945,204.000,187.000,202.000,121.000
2.946,204.500,187.500,202.000,120.500
2.947,204.000,187.500,201.500,119.500
2.948,205.000,188.000,202.000,119.000
2.949,205.000,188.000,201.500,118.000
2.950,205.500,188.500,202.000,117.500
2.951,205.500,188.500,202.000,116.500
2.952,206.000,189.000,202.500,116.000
2.953,206.000,189.000,202.000,115.000
2.954,206.000,189.500,202.500,114.500
2.955,206.000,189.500,202.500,113.500
2.956,206.000,189.500,202.500,113.500
2.957,206.000,189.500,202.500,112.500
2.958,206.500,189.500,203.000,112.500
2.959,206.500,189.000,202.500,111.500
2.960,207.000,189.000,203.000,111.000
2.961,206.500,188.500,202.500,110.000
2.962,207.000,188.500,202.500,109.500
2.963,207.000,188.000,202.000,108.000
2.964,207.000,188.000,201.500,107.000
2.965,207.000,188.000,201.000,105.500
2.966,207.500,188.500,200.500,104.500
2.967,207.500,188.000,200.000,103.500
2.968,208.000,188.500,199.500,103.000
2.969,208.000,188.500,199.000,102.000
2.970,208.500,188.500,199.000,101.000
2.971,208.000,188.500,198.500,100.000
2.972,208.000,189.000,198.500,99.000
2.973,207.500,189.000,198.000,98.000
2.974,207.500,189.500,198.500,97.500
2.975,207.000,189.500,198.000,97.000
2.976,207.500,190.500,199.000,96.500
2.977,207.000,190.500,199.000,95.500
2.978,207.500,190.500,199.500,95.000
2.979,207.500,190.000,199.000,94.000
2.980,208.000,190.000,199.000,93.500
2.981,208.000,189.500,198.500,92.500
2.982,208.500,189.500,198.500,92.000
2.983,208.500,189.000,198.000,90.500
2.984,209.000,189.000,198.000,90.000
2.985,208.500,188.500,197.000,89.000
2.986,209.000,189.000,197.500,88.500
2.987,208.500,188.500,197.000,87.500
2.988,209.000,189.000,197.000,87.500
2.989,208.500,189.000,197.000,87.000
2.990,208.500,189.500,197.000,87.000
2.991,208.000,189.000,197.000,86.500
2.992,208.500,189.000,197.000,86.500
2.993,208.000,188.500,196.000,85.500
2.994,208.500,189.000,196.000,85.000
2.995,208.000,188.500,195.500,84.000
2.996,209.000,188.500,195.500,84.000
2.997,209.000,188.500,195.000,83.000
2.998,209.000,188.500,195.500,83.000
2.999,208.500,188.500,195.000,82.000
3.000,209.000,189.000,195.000,82.000
3.001,208.500,188.500,194.500,81.500
3.002,208.500,188.500,194.500,81.500
3.003,208.000,188.000,194.000,80.500
3.004,208.000,187.500,194.000,80.000
3.005,207.000,186.500,193.000,79.000
3.006,207.500,186.000,193.000,78.500
3.007,207.000,185.000,192.000,77.500
3.008,207.000,184.500,191.500,77.000
3.009,206.500,183.500,190.500,76.000
3.010,206.500,183.500,190.000,75.500
3.011,206.000,183.000,189.500,75.000
3.012,206.500,183.000,189.500,74.500
3.013,206.000,183.000,189.500,74.500
3.014,206.500,183.500,189.500,74.500
3.015,206.500,183.500,189.500,74.500
3.016,207.000,184.000,190.000,75.500
3.017,207.000,184.000,190.000,76.000
3.018,208.000,185.000,190.500,77.000
3.019,207.500,185.000,190.000,77.500
3.020,208.000,185.000,190.500,78.500
3.021,208.000,184.500,190.500,78.500
3.022,208.000,185.000,190.500,78.500
3.023,207.500,184.500,189.500,78.000
3.024,207.500,184.500,189.500,78.000
3.025,206.500,184.000,189.000,77.000
3.026,207.000,184.000,189.500,77.000
3.027,206.500,184.000,189.000,76.500
3.028,206.500,185.000,190.000,77.000
3.029,206.000,185.000,190.000,77.000
3.030,206.500,186.000,191.500,77.500
3.031,206.000,186.500,191.500,77.500
3.032,206.000,187.000,192.500,78.000
3.033,205.500,187.000,192.000,78.000
3.034,205.500,187.000,192.500,78.000
3.035,204.500,186.000,192.000,78.000
3.036,204.500,186.000,192.000,78.000
3.037,203.500,185.500,192.000,77.500
3.038,203.500,185.500,192.000,77.500
3.039,203.000,185.000,192.000,77.000
3.040,203.500,185.000,192.000,77.000
3.041,203.500,184.500,192.000,76.000
3.042,204.000,185.000,192.000,76.000
3.043,204.000,184.500,191.000,75.000
3.044,204.000,184.000,190.500,74.500
3.045,203.500,183.000,189.500,74.000
3.046,204.000,183.000,189.000,73.500
3.047,203.500,182.000,188.000,72.500
3.048,204.000,182.000,188.000,72.000
3.049,203.500,181.000,187.000,71.000
3.050,203.500,181.000,187.000,71.000
3.051,203.000,180.000,186.000,70.500
3.052,203.000,180.500,186.500,70.500
3.053,202.000,180.000,186.000,70.000
3.054,202.500,180.000,186.000,70.000
3.055,202.000,179.500,185.500,69.500
3.056,202.500,180.000,185.500,69.500
3.057,202.000,179.500,185.000,69.500
3.058,202.500,180.000,185.000,69.500
3.059,202.500,179.500,184.500,69.000
3.060,203.000,180.000,184.500,69.000
3.061,203.000,180.000,184.000,68.500
3.062,203.500,180.500,184.000,68.500
3.063,203.500,180.500,184.000,67.500
3.064,204.000,181.000,184.000,67.500
3.065,204.000,180.500,184.000,66.500
3.066,204.500,181.000,184.500,66.500
3.067,204.500,181.000,184.000,65.500
3.068,204.500,181.500,184.500,65.500
3.069,204.000,181.000,184.500,64.500
3.070,204.000,181.000,185.000,64.500
3.071,203.500,180.500,184.500,64.000
3.072,204.000,181.000,184.500,64.000
3.073,203.500,180.500,184.000,63.500
3.074,203.500,181.000,184.500,63.500
3.075,203.000,180.500,184.000,63.000
3.076,203.000,181.000,184.000,63.500
3.077,202.500,180.500,183.500,63.000
3.078,203.000,180.500,184.000,63.000
3.079,203.000,180.000,183.500,62.500
3.080,203.500,180.500,183.500,62.000
3.081,203.000,180.000,183.000,61.500
3.082,203.500,180.500,183.000,61.500
3.083,203.000,180.500,182.000,61.000
3.084,203.500,181.000,182.000,61.000
3.085,203.000,181.000,181.500,60.500
3.086,203.000,181.500,181.000,60.500
3.087,203.000,181.500,180.500,60.000
3.088,203.000,181.500,180.500,59.500
3.089,203.000,181.000,179.500,59.000
3.090,203.000,181.000,179.500,58.500
3.091,202.500,180.000,179.000,58.000
3.092,203.000,179.500,179.000,58.000
3.093,202.000,179.000,178.500,57.500
3.094,202.000,179.000,178.500,58.000
3.095,201.500,178.500,178.000,58.000
3.096,201.500,179.000,178.000,58.500
3.097,201.000,179.000,178.000,58.500
3.098,201.000,180.000,178.500,59.000
3.099,200.500,180.000,178.500,58.500
3.100,200.500,180.500,179.000,58.500
3.101,200.000,180.500,179.000,58.000
3.102,200.500,181.000,179.000,58.000
3.103,200.000,180.500,178.500,57.500
3.104,200.000,180.500,179.000,57.500
3.105,199.500,180.000,178.500,57.000
3.106,200.000,180.000,178.500,57.000
3.107,199.500,179.000,178.000,56.500
3.108,200.000,179.000,178.000,56.000
3.109,200.000,178.500,177.000,55.500
3.110,201.000,178.500,176.500,56.000
3.111,201.000,178.000,176.000,56.000
3.112,201.500,178.500,176.000,56.500
3.113,201.500,178.000,175.500,56.500
3.114,202.000,178.500,176.000,57.500
3.115,201.500,178.000,176.000,57.500
3.116,201.500,178.000,176.500,58.000
3.117,201.500,177.500,176.000,58.500
3.118,202.000,177.500,176.500,59.000
3.119,202.000,177.000,176.000,59.000
3.120,202.500,177.000,176.000,60.000
3.121,202.000,176.500,176.000,60.000
3.122,202.500,176.500,176.000,61.000
3.123,202.000,175.500,176.000,61.000
3.124,202.000,175.500,176.000,61.500
3.125,201.500,174.500,175.500,61.000
3.126,201.500,174.500,175.500,61.500
3.127,201.000,174.000,174.500,61.000
3.128,201.000,174.000,174.000,61.000
3.129,200.000,173.500,173.500,60.000
3.130,200.000,173.500,173.000,60.000
3.131,199.000,173.000,172.500,59.500
3.132,198.500,173.000,172.500,59.500
3.133,198.000,172.500,172.000,59.000
3.134,198.000,172.500,172.000,59.500
3.135,197.500,171.500,172.000,60.000
3.136,198.500,171.500,172.000,60.500
3.137,198.500,171.000,172.000,61.000
3.138,199.500,171.000,172.000,62.000
3.139,200.000,171.000,172.000,63.000
3.140,201.500,171.500,172.500,64.000
3.141,202.000,172.000,172.500,64.500
3.142,203.000,173.000,173.500,65.500
3.143,203.000,174.000,174.000,65.500
3.144,203.500,175.000,175.000,66.000
3.145,203.500,175.000,175.500,66.000
3.146,204.000,175.500,176.000,66.000
3.147,203.500,174.500,175.500,66.000
3.148,203.500,174.000,175.500,65.500
3.149,202.500,173.000,174.500,65.000
3.150,202.500,172.000,174.000,65.000
3.151,201.000,171.000,173.500,64.500
3.152,200.500,170.500,173.500,64.500
3.153,199.500,169.500,173.000,64.500
3.154,199.500,169.500,173.500,64.500
3.155,198.500,168.500,173.000,64.500
3.156,198.500,168.000,173.000,64.500
3.157,197.500,167.000,172.500,64.500
3.158,198.000,167.000,172.500,64.500
3.159,197.500,166.000,172.000,64.000
3.160,198.000,166.000,172.000,64.500
3.161,197.500,166.000,171.500,64.500
3.162,197.500,166.500,171.500,64.500
3.163,197.500,166.500,171.000,64.500
3.164,198.000,167.000,171.500,65.000
3.165,198.000,167.000,171.000,65.000
3.166,198.000,167.500,171.000,65.000
3.167,197.500,167.000,170.500,64.500
3.168,198.000,167.000,170.500,64.500
3.169,197.500,166.500,169.500,64.500
3.170,197.500,166.500,169.500,64.500
3.171,197.000,166.000,169.000,64.500
3.172,197.000,166.000,169.500,65.000
