'Elapsed time','AECG1','AECG2','AECG3','AECG4'
'seconds','uV','uV','uV','uV'
0.000,221.000,214.500,224.500,171.500
0.001,221.000,214.500,224.500,171.500
0.002,221.500,215.000,225.000,172.500
0.003,221.500,214.500,224.500,173.000
0.004,222.500,214.500,225.000,174.000
0.005,222.500,214.000,224.000,174.500
0.006,223.000,214.000,224.500,175.500
0.007,223.000,213.500,224.000,175.500
0.008,223.500,214.000,224.000,176.500
0.009,223.000,214.000,223.500,177.000
0.010,223.500,214.500,223.500,177.500
0.011,223.000,214.000,223.000,177.000
0.012,223.000,214.000,222.500,177.000
0.013,222.500,213.000,221.500,176.000
0.014,222.500,212.500,221.500,176.000
0.015,222.000,211.500,220.500,175.000
0.016,221.500,211.500,220.500,175.000
0.017,220.500,211.000,220.000,174.500
0.018,220.000,211.000,220.500,175.000
0.019,218.500,210.500,220.500,175.000
0.020,218.500,211.000,221.000,175.500
0.021,217.500,210.500,220.500,175.000
0.022,217.500,210.500,221.000,175.000
0.023,217.500,209.500,221.000,174.000
0.024,218.000,209.500,221.000,173.500
0.025,218.000,208.500,220.500,172.500
0.026,218.500,208.500,221.000,172.500
0.027,218.000,208.000,221.000,172.000
0.028,218.500,208.000,221.500,172.000
0.029,218.000,207.500,221.500,172.000
0.030,218.500,207.500,222.500,172.000
0.031,218.000,206.500,222.500,171.500
0.032,218.000,206.000,222.500,171.500
0.033,218.000,205.000,222.000,170.500
0.034,218.500,204.500,221.500,170.000
0.035,218.000,203.000,220.500,169.500
0.036,219.000,203.000,220.000,169.000
0.037,219.000,202.000,219.500,168.500
0.038,219.500,201.500,219.500,168.500
0.039,219.500,201.000,219.500,167.500
0.040,220.500,201.000,220.000,167.500
0.041,220.500,201.000,220.000,167.000
0.042,221.500,201.500,220.500,167.000
0.043,221.500,201.000,220.000,166.500
0.044,222.500,201.500,220.500,167.000
0.045,222.500,201.500,220.000,167.000
0.046,222.500,202.500,220.000,167.500
0.047,222.000,202.500,219.000,167.500
0.048,222.500,203.500,219.000,167.500
0.049,222.000,204.000,218.000,167.000
0.050,222.500,205.000,218.000,166.500
0.051,222.500,205.500,217.500,165.000
0.052,223.500,206.500,217.000,164.000
0.053,223.000,206.500,216.500,162.500
0.054,223.500,207.500,216.000,161.500
0.055,223.500,208.000,215.000,160.000
0.056,223.500,208.500,215.000,159.500
0.057,223.000,209.000,214.500,158.500
0.058,223.000,209.500,215.000,158.500
0.059,222.500,209.500,215.000,158.500
0.060,222.500,210.500,215.500,158.500
0.061,222.500,210.500,215.000,158.000
0.062,223.000,211.000,215.500,158.000
0.063,222.500,211.000,215.500,157.500
0.064,223.000,211.500,216.000,157.500
0.065,223.000,211.500,216.000,157.000
0.066,223.000,212.500,217.000,157.000
0.067,222.500,212.500,217.000,157.000
0.068,223.000,213.000,218.000,157.000
0.069,222.500,213.000,218.000,157.000
0.070,222.500,213.500,218.500,157.000
0.071,222.000,213.500,218.500,156.500
0.072,222.000,214.000,219.500,157.000
0.073,222.000,214.500,220.000,157.500
0.074,222.500,215.000,221.000,159.000
0.075,222.500,215.000,222.000,160.000
0.076,223.000,216.000,224.000,162.000
0.077,223.000,216.000,225.000,163.500
0.078,223.500,216.000,226.500,165.500
0.079,223.000,215.500,227.000,167.000
0.080,222.500,216.000,228.000,169.000
0.081,221.500,215.500,227.500,170.500
0.082,221.000,216.000,227.500,172.000
0.083,220.000,215.500,226.500,172.500
0.084,219.500,215.500,225.500,172.500
0.085,218.500,215.000,224.000,172.000
0.086,218.000,214.500,222.000,171.500
0.087,217.000,213.000,219.000,169.500
0.088,216.500,212.000,216.000,168.000
0.089,216.000,210.000,212.000,165.500
0.090,216.000,208.000,208.000,163.500
0.091,215.000,205.000,203.000,160.000
0.092,214.500,202.000,197.500,157.000
0.093,213.000,197.500,191.000,153.000
0.094,212.000,193.000,184.000,148.000
0.095,210.500,187.500,175.500,142.000
0.096,209.500,183.000,167.000,136.000
0.097,208.500,177.500,158.500,129.500
0.098,209.000,172.500,150.500,124.000
0.099,208.500,167.500,142.500,118.000
0.100,209.000,164.000,135.500,113.500
0.101,209.000,160.500,128.500,109.000
0.102,209.000,158.000,122.500,105.500
0.103,208.500,155.000,116.500,101.500
0.104,208.000,153.000,112.000,98.000
0.105,207.000,151.000,107.000,94.500
0.106,206.500,150.500,104.000,92.000
0.107,206.000,149.500,101.500,89.500
0.108,205.500,150.500,102.000,89.500
0.109,205.000,151.500,103.500,89.500
0.110,205.000,155.000,108.500,92.000
0.111,205.000,159.000,115.000,94.500
0.112,206.000,164.500,123.500,98.000
0.113,206.000,169.500,132.500,101.500
0.114,207.500,176.000,143.000,105.500
0.115,208.500,182.000,153.000,109.000
0.116,210.000,188.000,163.000,113.000
0.117,211.000,192.500,172.000,117.000
0.118,212.500,197.500,180.500,121.500
0.119,213.500,201.500,188.000,126.000
0.120,214.500,205.000,195.000,130.500
0.121,215.000,207.500,200.000,134.000
0.122,216.000,210.000,204.500,138.000
0.123,216.500,211.500,207.500,141.000
0.124,217.500,213.000,210.500,144.000
0.125,218.000,213.500,212.500,147.000
0.126,219.000,215.000,215.500,150.500
0.127,219.500,215.500,217.500,153.500
0.128,220.500,216.500,220.000,157.000
0.129,220.500,217.000,221.500,159.000
0.130,221.500,218.500,223.500,161.500
0.131,221.500,219.000,224.000,163.000
0.132,222.000,220.000,224.500,165.000
0.133,221.500,220.000,224.000,165.500
0.134,221.500,220.000,223.500,166.500
0.135,220.500,219.500,222.500,166.500
0.136,220.500,219.000,222.000,167.500
0.137,219.500,218.000,221.000,168.000
0.138,219.500,217.000,221.000,168.500
0.139,219.000,216.000,220.000,169.000
0.140,219.500,215.500,220.500,170.000
0.141,219.000,214.500,220.000,170.500
0.142,219.500,214.500,221.000,172.500
0.143,219.000,214.000,221.000,173.500
0.144,219.500,214.000,221.500,175.500
0.145,218.500,213.500,221.000,176.500
0.146,218.500,213.500,221.000,178.500
0.147,218.000,213.000,220.500,179.500
0.148,218.000,213.500,220.500,180.500
0.149,217.000,213.500,220.500,181.000
0.150,217.000,214.500,221.000,182.000
0.151,216.500,214.500,220.500,182.000
0.152,216.500,215.000,221.000,182.000
0.153,215.500,215.000,220.500,181.500
0.154,215.500,215.000,220.500,181.500
0.155,215.000,214.500,220.000,180.500
0.156,215.000,214.000,219.500,180.000
0.157,215.000,213.000,218.500,179.000
0.158,215.500,213.000,218.500,178.500
0.159,215.500,212.000,217.500,178.000
0.160,216.500,212.000,217.000,177.500
0.161,217.000,211.000,216.000,177.000
0.162,218.000,211.500,216.000,177.000
0.163,219.000,211.000,215.000,177.000
0.164,220.000,212.000,215.500,177.000
0.165,220.500,212.000,215.000,177.000
0.166,222.000,213.000,215.000,177.000
0.167,222.000,213.500,214.500,176.500
0.168,223.000,215.000,215.000,176.500
0.169,222.500,215.500,214.500,176.000
0.170,223.000,216.500,214.500,176.000
0.171,223.000,217.000,214.500,175.500
0.172,223.000,218.000,215.000,175.500
0.173,223.000,218.500,214.500,175.500
0.174,223.500,219.500,215.000,175.500
0.175,223.000,219.500,215.000,175.000
0.176,224.000,220.500,215.000,175.500
0.177,224.000,220.500,214.500,175.000
0.178,224.000,221.000,215.000,175.000
0.179,223.500,220.500,214.500,174.500
0.180,223.500,221.000,215.000,175.000
0.181,222.500,220.500,214.500,175.000
0.182,222.500,220.500,215.000,176.000
0.183,221.500,220.000,214.500,176.000
0.184,222.000,220.000,215.000,176.500
0.185,222.000,220.000,215.000,176.500
0.186,222.500,220.500,215.500,177.000
0.187,223.000,220.000,215.000,176.000
0.188,224.000,221.000,215.500,176.000
0.189,224.000,221.000,215.500,175.000
0.190,225.000,221.500,215.500,174.500
0.191,224.500,221.000,214.500,174.000
0.192,225.000,221.000,214.500,174.000
0.193,225.000,220.000,214.000,174.000
0.194,225.000,220.000,214.000,174.500
0.195,224.500,219.500,213.500,174.000
0.196,224.500,219.000,213.500,174.500
0.197,224.000,218.500,213.000,175.000
0.198,224.500,219.000,213.500,176.000
0.199,224.000,219.000,214.000,177.000
0.200,224.500,219.500,215.000,178.500
0.201,224.000,220.000,215.500,179.000
0.202,224.500,220.500,216.500,180.500
0.203,224.500,220.500,217.000,181.500
0.204,224.500,221.500,218.500,182.500
0.205,224.500,221.000,218.500,182.500
0.206,225.000,221.500,219.000,183.500
0.207,224.500,221.000,218.500,183.500
0.208,225.000,221.000,218.000,184.000
0.209,224.500,220.500,217.000,183.500
0.210,224.500,220.500,216.500,183.500
0.211,224.000,219.500,215.000,182.500
0.212,224.500,219.000,215.000,182.000
0.213,224.000,218.000,214.000,180.500
0.214,224.000,217.500,213.500,180.000
0.215,223.000,216.000,212.500,178.500
0.216,223.000,216.000,212.000,178.500
0.217,222.000,215.000,211.500,178.000
0.218,222.500,215.000,211.500,178.000
0.219,222.000,214.000,210.500,178.000
0.220,222.500,214.000,211.000,179.500
0.221,222.500,213.500,210.500,180.000
0.222,223.000,213.500,211.000,181.500
0.223,222.500,213.000,210.500,182.500
0.224,223.000,213.500,211.000,184.000
0.225,222.500,213.000,211.000,184.500
0.226,222.500,213.500,212.000,186.000
0.227,222.000,213.000,212.000,186.500
0.228,221.500,213.000,213.000,187.500
0.229,220.500,212.000,213.000,188.000
0.230,220.500,212.000,213.500,189.000
0.231,219.000,211.000,213.500,189.000
0.232,218.500,210.500,214.000,189.000
0.233,217.500,209.500,213.500,188.500
0.234,217.500,209.000,213.500,189.000
0.235,216.500,208.000,213.500,188.500
0.236,216.500,208.000,214.000,188.500
0.237,216.000,207.000,214.000,187.500
0.238,216.000,207.000,214.500,188.000
0.239,215.500,206.000,214.000,187.500
0.240,216.000,206.000,214.500,188.000
0.241,215.500,205.000,214.000,187.500
0.242,215.500,205.000,214.000,188.000
0.243,215.000,204.000,213.000,188.000
0.244,215.500,204.000,213.000,188.500
0.245,215.000,204.000,212.500,189.000
0.246,215.500,204.500,212.500,190.000
0.247,215.000,205.000,212.000,190.000
0.248,215.500,205.500,212.500,191.000
0.249,215.000,205.500,212.500,191.500
0.250,215.000,206.000,213.500,192.500
0.251,214.500,205.500,214.000,192.500
0.252,214.000,206.000,215.000,193.500
0.253,213.500,205.500,215.000,194.000
0.254,214.000,206.000,216.000,194.500
0.255,213.500,206.000,216.000,195.000
0.256,214.000,206.000,216.000,195.500
0.257,214.000,205.500,215.500,195.000
0.258,214.500,206.000,215.000,195.500
0.259,214.000,205.500,214.500,195.500
0.260,214.000,205.000,214.000,195.500
0.261,213.500,204.000,213.000,194.500
0.262,213.000,203.500,213.000,193.500
0.263,212.500,202.500,212.000,192.000
0.264,212.500,201.500,211.500,190.500
0.265,212.000,200.500,210.000,188.500
0.266,212.000,200.000,209.500,187.000
0.267,211.500,199.000,208.500,185.000
0.268,212.000,199.000,208.500,184.500
0.269,211.500,199.000,208.000,183.500
0.270,211.500,200.000,208.000,183.500
0.271,211.500,200.000,208.000,183.000
0.272,211.500,200.500,208.500,183.000
0.273,211.000,200.500,208.000,182.000
0.274,211.000,200.500,208.000,181.500
0.275,210.500,200.000,207.000,180.500
0.276,210.500,200.500,207.500,180.000
0.277,210.000,200.000,207.000,179.000
0.278,210.500,201.000,207.500,179.000
0.279,210.500,201.000,207.500,178.000
0.280,211.000,202.000,208.000,178.000
0.281,210.500,202.000,208.500,177.500
0.282,211.000,202.500,209.500,178.000
0.283,211.000,202.500,209.500,177.500
0.284,211.000,203.000,210.500,177.500
0.285,210.000,202.500,210.500,177.000
0.286,210.000,203.000,211.000,177.000
0.287,209.500,202.500,210.500,176.000
0.288,209.500,202.500,210.500,175.500
0.289,209.000,202.000,210.000,174.500
0.290,209.000,202.500,210.000,173.500
0.291,209.000,201.500,209.500,171.500
0.292,209.500,201.500,209.000,169.500
0.293,209.500,200.000,207.500,167.000
0.294,209.500,199.500,206.000,164.500
0.295,209.000,197.500,204.000,162.000
0.296,208.500,196.000,202.500,160.000
0.297,207.000,193.500,200.000,158.000
0.298,205.500,191.500,198.000,157.000
0.299,202.500,189.000,195.500,156.000
0.300,200.500,187.000,194.500,156.000
0.301,198.000,185.000,193.500,156.000
0.302,196.500,185.000,194.000,157.500
0.303,196.000,186.000,196.000,159.500
0.304,197.000,189.500,199.500,163.000
0.305,199.000,193.500,203.000,166.000
0.306,202.500,198.500,208.000,169.500
0.307,206.000,203.500,212.000,172.000
0.308,210.000,208.500,216.000,174.500
0.309,213.500,212.500,218.000,175.000
0.310,218.000,216.500,219.000,175.000
0.311,221.000,218.500,218.500,173.500
0.312,224.000,219.500,217.000,171.000
0.313,225.500,219.000,214.000,166.500
0.314,226.500,217.500,210.500,162.500
0.315,225.500,215.000,206.000,157.500
0.316,225.000,212.500,202.000,153.500
0.317,222.500,209.500,197.500,149.500
0.318,220.500,206.500,194.000,147.500
0.319,218.000,203.000,190.000,145.000
0.320,216.000,200.000,187.500,144.000
0.321,214.000,196.500,185.000,143.000
0.322,213.000,194.500,183.500,142.500
0.323,212.000,192.500,181.500,142.000
0.324,212.000,192.000,181.000,142.000
0.325,212.000,191.500,180.000,141.500
0.326,212.500,192.000,179.500,142.000
0.327,212.500,192.000,179.000,141.500
0.328,213.000,193.000,179.000,141.000
0.329,212.500,193.000,178.500,140.500
0.330,212.500,193.500,178.500,140.000
0.331,212.000,193.500,178.000,139.500
0.332,212.000,194.000,178.000,139.500
0.333,211.500,193.500,178.000,139.000
0.334,211.500,193.000,178.500,139.500
0.335,211.000,192.000,178.500,139.500
0.336,211.500,192.000,179.000,140.000
0.337,210.500,191.000,179.000,140.000
0.338,210.500,190.500,179.500,140.000
0.339,210.000,189.500,179.500,140.000
0.340,210.000,189.500,180.500,140.000
0.341,209.500,188.500,180.500,140.000
0.342,210.000,189.000,180.500,140.000
0.343,209.500,188.500,180.500,140.000
0.344,210.000,189.000,180.500,140.500
0.345,210.000,188.500,180.500,141.000
0.346,210.500,188.500,181.500,142.000
0.347,210.000,188.500,181.500,142.000
0.348,210.000,188.500,182.500,143.000
0.349,209.500,188.500,182.500,143.000
0.350,210.000,188.500,183.500,144.000
0.351,210.000,188.500,183.500,144.000
0.352,210.000,189.000,184.000,144.500
0.353,210.000,189.000,184.000,145.000
0.354,210.000,189.500,185.000,146.000
0.355,210.000,189.500,185.500,146.500
0.356,210.000,190.000,186.500,147.500
0.357,210.000,190.000,187.000,148.000
0.358,210.500,190.500,188.500,149.500
0.359,210.000,190.000,189.500,150.500
0.360,210.000,191.000,191.500,152.000
0.361,209.500,191.000,193.000,153.500
0.362,209.000,192.000,195.000,155.000
0.363,208.000,192.000,196.000,156.000
0.364,207.500,192.500,198.000,157.500
0.365,206.500,193.000,199.000,158.500
0.366,206.500,193.500,201.000,160.000
0.367,206.000,194.000,201.500,160.500
0.368,206.500,194.500,203.000,162.000
0.369,206.500,195.000,204.000,162.500
0.370,206.500,195.500,205.000,163.500
0.371,206.000,195.500,206.000,164.000
0.372,206.000,196.500,207.000,165.000
0.373,205.500,196.500,207.500,165.500
0.374,205.000,197.500,209.000,167.000
0.375,204.500,198.000,210.000,167.500
0.376,205.000,199.000,211.500,168.500
0.377,205.000,199.500,212.500,169.000
0.378,206.000,200.000,213.500,170.000
0.379,206.500,200.000,213.500,170.500
0.380,207.500,200.500,214.500,171.500
0.381,207.500,200.500,214.500,172.000
0.382,208.000,201.500,215.000,173.000
0.383,208.000,201.500,215.000,173.500
0.384,209.000,202.000,215.500,174.500
0.385,209.000,202.500,215.500,175.000
0.386,209.500,203.000,216.500,176.000
0.387,210.000,203.000,216.500,176.500
0.388,210.500,204.000,218.000,177.500
0.389,210.500,204.000,218.500,178.000
0.390,211.500,204.500,220.000,179.000
0.391,211.500,204.500,220.500,179.000
0.392,212.000,205.500,221.500,179.500
0.393,211.500,205.500,221.500,179.500
0.394,211.500,206.000,222.000,179.500
0.395,210.500,206.000,221.500,179.000
0.396,210.500,206.500,221.500,179.500
0.397,209.500,206.000,221.000,179.000
0.398,208.500,206.000,220.500,179.000
0.399,207.500,205.500,219.500,178.500
0.400,206.500,205.000,219.000,179.000
0.401,205.500,204.000,218.000,178.500
0.402,204.500,203.500,217.500,179.000
0.403,203.500,202.000,216.500,178.500
0.404,203.500,202.000,216.500,179.000
0.405,203.000,201.000,216.500,178.500
0.406,203.500,201.500,217.000,179.500
0.407,204.000,201.000,217.000,179.500
0.408,205.000,201.500,217.500,180.000
0.409,205.500,201.500,217.000,179.500
0.410,206.500,202.000,217.500,179.500
0.411,206.500,202.000,216.500,179.000
0.412,207.500,202.500,216.500,179.000
0.413,207.500,202.000,216.000,178.000
0.414,208.000,202.000,216.000,178.000
0.415,208.000,201.500,215.500,177.500
0.416,208.500,201.500,215.500,177.500
0.417,208.500,201.000,215.000,177.000
0.418,209.000,201.000,215.500,177.000
0.419,209.000,201.000,215.500,176.500
0.420,209.500,201.500,216.000,177.000
0.421,209.500,201.500,216.500,177.500
0.422,209.500,202.000,217.500,178.500
0.423,209.000,202.500,218.000,179.000
0.424,209.000,203.500,219.000,180.000
0.425,208.500,204.000,219.000,180.500
0.426,209.000,205.000,219.500,181.500
0.427,208.500,205.000,219.500,181.000
0.428,209.000,206.000,220.000,181.500
0.429,208.500,206.000,219.500,181.000
0.430,209.000,206.500,219.000,180.500
0.431,208.500,206.500,218.000,179.500
0.432,209.000,207.000,217.500,179.000
0.433,209.000,206.500,216.500,177.500
0.434,209.500,206.500,216.000,177.500
0.435,209.000,206.000,215.000,176.500
0.436,209.500,206.500,214.500,176.000
0.437,209.000,206.000,214.000,175.000
0.438,209.000,206.500,214.500,175.000
0.439,209.000,206.500,214.500,174.500
0.440,209.500,207.000,215.000,174.500
0.441,209.000,206.500,214.500,174.500
0.442,209.500,206.500,215.000,175.500
0.443,209.500,205.500,214.500,176.000
0.444,209.500,205.500,215.000,177.000
0.445,209.000,204.500,214.000,177.500
0.446,209.000,204.000,214.000,178.500
0.447,208.500,202.500,213.500,178.500
0.448,209.000,202.500,213.500,178.500
0.449,209.000,201.500,213.000,178.000
0.450,209.500,201.500,213.500,178.500
0.451,209.000,201.000,213.000,178.000
0.452,209.500,201.000,213.000,178.000
0.453,209.000,201.000,212.000,178.000
0.454,209.500,201.500,212.000,178.000
0.455,209.000,201.000,211.000,178.000
0.456,209.500,201.500,211.000,178.000
0.457,209.000,201.500,210.000,178.000
0.458,209.000,201.500,209.500,178.500
0.459,208.500,201.500,209.000,178.500
0.460,208.500,201.500,209.000,179.500
0.461,208.000,201.500,209.000,180.500
0.462,208.000,202.000,209.500,182.000
0.463,207.500,202.000,209.500,182.500
0.464,208.000,203.000,210.500,184.000
0.465,208.000,203.500,210.500,185.000
0.466,208.500,204.500,211.500,186.000
0.467,208.000,205.500,211.000,186.500
0.468,208.500,206.500,211.500,187.000
0.469,207.500,207.000,211.000,187.000
0.470,207.500,208.500,211.000,187.500
0.471,206.000,208.500,210.000,187.000
0.472,205.500,209.500,210.000,187.000
0.473,204.500,209.500,209.000,186.500
0.474,204.000,209.500,209.000,187.000
0.475,203.000,209.000,208.000,186.500
0.476,202.500,209.000,208.500,186.500
0.477,202.000,208.000,208.000,185.500
0.478,202.500,208.000,208.000,185.500
0.479,202.000,207.000,207.500,185.000
0.480,203.000,206.500,207.500,185.500
0.481,203.000,206.000,207.000,185.500
0.482,203.500,206.000,207.000,186.000
0.483,203.500,205.500,206.500,186.500
0.484,204.500,206.000,206.500,187.500
0.485,204.000,205.500,205.500,187.500
0.486,204.500,206.000,206.000,188.500
0.487,204.000,206.000,205.500,188.500
0.488,204.500,207.000,206.000,189.000
0.489,203.500,207.000,206.000,189.000
0.490,203.500,208.500,206.500,189.500
0.491,202.500,209.000,206.500,189.000
0.492,202.000,210.000,207.000,189.000
0.493,201.500,210.500,207.000,188.500
0.494,201.500,211.500,207.000,188.500
0.495,201.500,212.000,207.000,188.000
0.496,201.500,213.000,207.000,188.500
0.497,201.500,213.000,207.000,188.500
0.498,202.000,214.000,207.000,189.000
0.499,201.500,214.000,207.000,189.500
0.500,202.000,214.000,207.500,190.500
0.501,202.000,213.500,207.000,191.000
0.502,202.500,214.000,207.500,192.000
0.503,203.000,214.000,207.500,192.500
0.504,203.500,214.500,208.500,193.000
0.505,203.500,214.500,208.500,193.000
0.506,204.500,215.000,209.000,194.000
0.507,204.000,215.500,209.000,194.000
0.508,204.500,216.500,210.000,194.500
0.509,203.500,216.500,210.500,194.000
0.510,204.000,217.000,211.500,194.500
0.511,203.500,216.500,211.500,193.500
0.512,204.000,217.000,213.000,193.500
0.513,204.000,216.500,213.500,193.000
0.514,205.000,216.500,214.500,192.500
0.515,205.000,215.500,214.500,191.500
0.516,206.500,215.000,215.000,191.500
0.517,206.500,214.000,214.500,190.500
0.518,207.500,213.500,214.500,190.000
0.519,208.000,212.500,213.500,189.000
0.520,208.500,212.500,213.500,188.500
0.521,208.500,211.500,212.500,187.000
0.522,209.000,212.000,212.000,186.500
0.523,209.000,211.500,211.000,185.000
0.524,209.500,212.500,211.000,184.500
0.525,209.000,213.000,210.500,184.000
0.526,209.000,214.500,210.500,184.000
0.527,208.500,215.000,210.500,184.000
0.528,208.500,215.500,211.000,184.500
0.529,207.500,215.500,210.500,184.000
0.530,207.500,215.500,211.000,184.500
0.531,207.000,215.000,210.500,184.000
0.532,207.000,215.000,210.500,184.000
0.533,206.500,214.500,209.500,183.500
0.534,206.500,215.000,209.000,183.500
0.535,206.500,214.500,208.000,183.000
0.536,207.000,214.500,207.500,183.000
0.537,206.500,213.500,206.500,182.000
0.538,206.000,213.000,206.500,182.000
0.539,205.000,212.000,206.000,181.500
0.540,204.000,211.500,206.000,181.500
0.541,202.000,210.500,205.000,181.000
0.542,201.000,210.000,205.000,182.000
0.543,199.500,209.500,204.500,182.000
0.544,198.500,209.500,205.000,183.500
0.545,197.500,209.000,204.500,184.000
0.546,197.500,209.500,205.000,185.000
0.547,196.500,209.500,205.000,185.500
0.548,197.000,210.000,206.000,186.500
0.549,196.500,209.500,206.000,186.500
0.550,197.500,210.000,207.000,187.500
0.551,198.000,210.000,207.000,187.500
0.552,199.000,211.000,207.500,188.000
0.553,199.500,211.000,207.500,187.500
0.554,200.000,211.500,208.500,188.000
0.555,200.000,211.000,208.500,187.500
0.556,200.500,211.500,209.000,188.000
0.557,200.000,210.500,208.500,188.000
0.558,200.000,210.500,209.000,189.000
0.559,199.500,210.000,209.000,189.000
0.560,199.500,210.000,210.000,189.500
0.561,198.500,209.500,210.000,189.500
0.562,198.500,210.000,211.000,190.000
0.563,198.000,209.500,211.000,190.000
0.564,198.000,209.500,211.500,190.500
0.565,197.500,209.000,211.000,190.500
0.566,197.500,209.000,211.000,190.500
0.567,197.000,208.000,210.000,190.000
0.568,197.500,208.000,210.000,190.000
0.569,197.500,207.500,209.500,189.500
0.570,198.000,207.500,209.500,189.000
0.571,198.000,207.500,209.000,187.500
0.572,198.500,207.500,209.000,187.000
0.573,198.500,207.000,208.000,186.000
0.574,199.000,207.500,208.000,185.500
0.575,198.500,207.000,207.000,184.500
0.576,199.000,207.000,207.000,184.000
0.577,198.500,206.500,206.500,183.000
0.578,198.500,207.000,207.000,183.000
0.579,198.000,207.000,206.500,183.000
0.580,198.000,207.500,207.000,183.000
0.581,198.000,207.500,207.000,183.000
0.582,198.500,208.500,207.000,183.500
0.583,198.500,208.500,207.000,183.500
0.584,199.500,209.500,208.000,184.500
0.585,199.500,210.000,208.500,184.500
0.586,200.500,210.500,209.500,185.500
0.587,200.500,210.500,210.000,185.500
0.588,201.000,210.500,211.500,185.500
0.589,201.000,209.500,211.500,185.000
0.590,201.000,209.500,212.000,185.000
0.591,201.000,208.500,211.500,184.000
0.592,201.500,208.000,211.500,183.500
0.593,201.500,207.000,210.500,182.500
0.594,202.000,206.500,210.500,182.500
0.595,201.500,205.500,210.000,182.000
0.596,202.000,205.500,210.000,182.000
0.597,202.000,204.500,210.000,181.500
0.598,203.000,205.000,210.500,182.000
0.599,203.000,205.000,210.500,182.000
0.600,204.000,206.000,211.000,182.500
0.601,204.000,206.000,211.000,182.500
0.602,204.500,207.000,211.500,183.000
0.603,204.500,207.000,211.000,183.000
0.604,205.500,208.000,211.000,184.000
0.605,205.500,208.000,210.500,183.500
0.606,206.500,208.000,210.500,184.000
0.607,206.500,207.500,210.000,183.000
0.608,207.500,208.000,210.000,183.000
0.609,208.000,207.500,209.500,181.500
0.610,208.500,207.500,209.500,181.000
0.611,208.000,206.500,209.000,180.000
0.612,208.500,207.000,209.000,179.500
0.613,208.000,206.500,208.000,179.000
0.614,208.500,207.000,208.000,178.500
0.615,208.000,206.500,207.500,178.000
0.616,208.000,207.000,207.500,177.500
0.617,207.500,206.500,207.000,176.500
0.618,207.500,206.500,207.500,176.000
0.619,207.000,206.000,207.500,175.000
0.620,207.500,206.000,208.000,175.000
0.621,207.500,205.500,208.000,174.500
0.622,208.000,205.500,209.000,174.500
0.623,207.500,204.500,209.000,174.000
0.624,208.000,204.500,209.500,174.000
0.625,208.000,203.500,209.000,173.000
0.626,208.500,203.500,209.000,172.500
0.627,208.500,202.500,208.000,171.000
0.628,209.000,202.000,208.000,170.500
0.629,208.500,201.000,207.000,169.500
0.630,209.000,201.000,207.000,169.000
0.631,209.000,201.000,207.000,168.000
0.632,209.000,201.500,207.500,168.000
0.633,209.000,202.000,207.500,167.500
0.634,209.500,203.000,208.500,167.500
0.635,209.000,203.000,208.500,167.000
0.636,209.000,203.500,209.500,167.000
0.637,208.500,203.500,209.500,167.000
0.638,208.500,204.000,210.500,167.500
0.639,208.000,203.500,210.500,167.500
0.640,208.000,204.000,211.500,168.000
0.641,207.000,203.500,211.500,168.000
0.642,207.000,204.000,212.000,168.500
0.643,206.000,203.000,211.500,168.000
0.644,205.500,203.000,212.000,168.500
0.645,204.500,202.500,211.500,168.000
0.646,204.500,202.000,211.500,168.000
0.647,204.000,201.500,211.000,167.500
0.648,204.500,201.500,211.500,168.000
0.649,204.000,201.000,211.000,167.500
0.650,204.500,201.000,211.000,168.000
0.651,204.000,200.500,210.500,167.500
0.652,204.000,200.500,210.500,167.500
0.653,203.000,200.500,210.000,167.500
0.654,203.000,201.000,210.000,167.500
0.655,202.500,201.000,209.500,167.500
0.656,203.000,202.000,210.000,168.000
0.657,202.500,202.000,209.500,168.000
0.658,203.000,203.000,210.000,168.500
0.659,202.500,203.000,209.500,168.500
0.660,203.500,203.500,210.000,169.000
0.661,203.500,203.000,209.500,169.000
0.662,204.500,203.000,209.500,169.500
0.663,205.000,202.500,208.500,169.500
0.664,205.500,203.000,208.500,170.500
0.665,205.500,202.500,208.000,170.500
0.666,206.500,203.000,208.000,171.500
0.667,206.000,203.000,207.500,171.500
0.668,206.500,203.500,207.500,172.500
0.669,206.000,204.000,207.000,172.500
0.670,206.000,205.000,207.500,173.000
0.671,205.000,205.000,207.000,172.500
0.672,204.500,205.500,207.500,173.000
0.673,203.500,205.500,207.000,172.500
0.674,203.000,206.000,206.500,173.000
0.675,202.500,205.500,206.000,172.500
0.676,203.000,205.500,206.000,173.000
0.677,203.500,204.500,205.500,173.000
0.678,204.500,204.000,205.500,173.500
0.679,205.500,203.000,205.500,173.500
0.680,206.500,203.000,206.000,174.500
0.681,207.000,202.000,206.000,174.500
0.682,207.500,202.000,206.500,175.500
0.683,208.000,201.500,206.000,175.500
0.684,208.500,201.500,206.000,176.000
0.685,209.000,200.500,205.000,176.000
0.686,209.500,200.500,204.500,176.000
0.687,210.000,199.500,203.000,175.500
0.688,210.500,199.000,202.000,175.000
0.689,210.000,197.500,200.000,174.000
0.690,209.500,197.000,199.000,173.000
0.691,208.500,196.000,197.500,171.500
0.692,208.000,196.500,197.000,171.000
0.693,207.000,197.000,196.000,170.000
0.694,207.500,198.000,196.500,170.000
0.695,207.500,198.500,196.000,169.500
0.696,208.000,199.500,196.500,170.000
0.697,208.500,199.500,196.500,169.500
0.698,209.000,200.500,197.000,170.000
0.699,209.500,200.500,197.000,170.000
0.700,210.500,201.000,197.000,171.000
0.701,210.500,200.500,197.000,171.000
0.702,211.000,201.000,197.500,171.500
0.703,210.500,200.500,197.500,171.500
0.704,210.000,200.500,198.000,171.500
0.705,209.000,199.500,197.500,170.500
0.706,208.000,199.000,197.000,170.500
0.707,206.000,197.500,196.000,169.500
0.708,205.000,196.500,195.500,169.000
0.709,202.500,194.500,194.000,168.000
0.710,200.500,192.500,193.500,167.500
0.711,197.500,190.000,192.000,166.500
0.712,195.000,188.500,191.500,166.500
0.713,192.500,186.500,190.500,166.500
0.714,192.000,186.500,191.500,167.500
0.715,191.500,187.000,193.500,169.000
0.716,193.000,190.000,197.000,171.500
0.717,195.000,193.500,200.500,174.500
0.718,198.500,198.500,205.500,178.000
0.719,201.500,203.000,209.500,180.500
0.720,205.500,208.000,213.500,183.000
0.721,209.000,212.000,216.000,184.500
0.722,213.000,216.000,218.500,185.500
0.723,216.000,218.000,219.500,185.000
0.724,219.000,220.000,220.000,184.000
0.725,220.500,220.000,219.000,181.500
0.726,222.000,219.500,217.500,178.500
0.727,221.500,217.500,215.000,175.000
0.728,221.500,215.500,213.000,172.000
0.729,219.500,212.000,210.000,168.500
0.730,218.000,209.500,207.500,166.000
0.731,215.500,206.000,204.500,163.500
0.732,214.000,203.500,202.500,162.000
0.733,212.000,200.500,200.500,160.500
0.734,211.000,198.500,199.500,160.000
0.735,210.000,196.000,198.000,159.000
0.736,210.000,195.000,197.500,159.000
0.737,210.000,194.000,196.500,158.000
0.738,210.500,193.500,197.000,158.000
0.739,211.000,193.000,196.500,157.500
0.740,212.000,193.500,197.500,158.000
0.741,213.000,193.000,197.500,158.000
0.742,214.500,194.000,198.500,159.000
0.743,215.000,194.000,199.000,159.000
0.744,216.500,195.000,200.500,160.000
0.745,217.000,195.000,201.000,160.500
0.746,218.000,196.000,202.500,161.500
0.747,218.000,196.000,202.500,161.500
0.748,218.000,196.500,203.500,162.000
0.749,217.500,196.500,204.000,161.500
0.750,217.000,197.000,204.500,161.000
0.751,216.000,196.500,204.000,160.000
0.752,216.000,197.000,204.000,159.500
0.753,215.000,196.500,203.000,158.000
0.754,215.000,197.000,202.500,157.500
0.755,214.000,196.500,201.500,156.500
0.756,214.500,196.500,201.500,156.000
0.757,214.000,195.500,201.000,155.500
0.758,214.500,196.000,201.500,156.000
0.759,214.500,195.500,201.500,156.000
0.760,215.000,195.500,202.000,157.000
0.761,214.500,195.000,202.000,157.000
0.762,215.000,195.000,202.500,158.000
0.763,215.000,194.000,202.000,158.000
0.764,215.500,194.000,202.000,158.500
0.765,215.000,193.000,201.000,158.000
0.766,215.000,193.000,200.500,158.000
0.767,214.500,192.500,199.500,157.500
0.768,214.500,192.500,199.500,157.500
0.769,214.000,192.000,199.000,156.500
0.770,214.500,192.500,199.000,156.500
0.771,214.500,192.000,199.000,155.500
0.772,215.000,192.000,199.000,155.500
0.773,214.500,191.000,198.500,154.500
0.774,215.000,191.000,198.500,154.500
0.775,214.500,190.000,197.500,153.500
0.776,214.500,189.500,197.000,153.500
0.777,213.500,189.000,196.000,153.000
0.778,213.000,189.000,196.000,153.500
0.779,212.000,189.000,195.500,153.000
0.780,212.000,189.500,196.000,153.500
0.781,211.000,189.500,196.000,153.500
0.782,211.000,190.000,196.500,154.000
0.783,210.500,190.000,196.500,153.500
0.784,211.000,191.000,197.000,154.000
0.785,210.500,191.000,196.500,154.000
0.786,211.500,192.500,197.000,154.500
0.787,211.500,193.000,196.500,154.500
0.788,212.500,194.500,196.500,155.000
0.789,212.500,195.000,196.000,154.500
0.790,213.000,195.500,196.000,154.500
0.791,212.500,195.500,195.500,154.000
0.792,213.000,196.000,196.000,153.500
0.793,213.000,195.500,195.500,153.000
0.794,213.000,195.500,195.500,152.500
0.795,213.000,195.000,194.500,152.000
0.796,213.500,195.000,195.000,152.000
0.797,213.500,194.500,194.500,151.500
0.798,214.000,195.000,195.000,152.000
0.799,214.000,194.500,194.500,152.500
0.800,214.500,195.000,195.000,153.000
0.801,215.000,194.500,195.000,153.500
0.802,216.000,195.000,196.000,154.500
0.803,216.500,195.000,196.500,155.000
0.804,217.500,196.000,197.500,156.500
0.805,218.000,196.500,198.000,158.000
0.806,218.500,198.000,199.500,160.500
0.807,218.500,198.500,200.500,163.000
0.808,219.000,199.500,202.000,165.500
0.809,219.000,200.000,203.000,167.500
0.810,219.500,200.000,204.000,169.500
0.811,219.000,199.500,203.500,170.500
0.812,218.500,199.000,203.500,172.000
0.813,217.500,197.500,202.000,172.000
0.814,217.000,196.500,201.000,172.000
0.815,216.000,195.000,199.000,171.500
0.816,216.000,194.000,197.000,171.000
0.817,215.000,192.000,194.500,169.500
0.818,214.500,190.500,192.500,168.500
0.819,213.500,188.000,190.000,167.000
0.820,213.500,186.500,187.500,166.000
0.821,212.500,183.500,184.000,164.500
0.822,212.000,181.500,181.000,163.000
0.823,210.500,179.000,176.500,160.000
0.824,210.500,177.000,171.500,157.500
0.825,209.500,174.000,165.000,153.000
0.826,209.000,171.500,158.500,148.500
0.827,207.500,168.000,150.000,143.000
0.828,206.500,164.500,142.000,137.000
0.829,205.000,160.500,133.000,130.000
0.830,204.000,156.500,124.500,124.000
0.831,202.500,152.000,116.500,117.500
0.832,201.500,148.500,109.500,112.500
0.833,200.000,144.500,103.000,107.000
0.834,199.500,141.000,97.500,102.000
0.835,197.500,137.500,92.000,96.500
0.836,196.500,135.000,88.000,92.000
0.837,194.500,132.500,84.500,88.000
0.838,193.500,131.500,82.500,85.500
0.839,193.000,131.000,82.000,84.500
0.840,193.500,132.500,84.000,85.500
0.841,194.000,134.500,88.000,88.000
0.842,196.000,138.000,94.000,91.500
0.843,197.500,142.000,101.500,95.500
0.844,200.500,147.500,110.500,100.000
0.845,202.500,153.000,119.500,104.000
0.846,205.000,159.500,129.000,108.500
0.847,207.000,165.500,138.500,112.000
0.848,209.500,172.500,147.500,116.000
0.849,211.000,178.000,156.000,119.500
0.850,213.000,183.500,164.000,123.500
0.851,214.000,187.500,170.500,127.500
0.852,215.500,191.000,177.000,131.500
0.853,216.000,193.500,181.500,135.000
0.854,216.500,196.000,186.000,138.500
0.855,216.500,197.500,189.500,141.500
0.856,217.500,199.500,193.500,145.000
0.857,217.500,200.500,196.500,148.000
0.858,218.500,202.000,199.500,152.000
0.859,219.000,202.500,201.500,155.000
0.860,220.000,204.000,203.500,158.500
0.861,220.000,204.500,204.500,161.500
0.862,221.000,205.000,205.500,164.000
0.863,220.500,205.000,205.500,165.000
0.864,221.000,205.500,205.000,166.500
0.865,220.000,205.500,204.000,167.500
0.866,220.000,205.500,203.500,168.000
0.867,219.500,204.500,202.000,168.000
0.868,219.500,204.000,201.000,168.500
0.869,219.000,203.000,199.500,168.000
0.870,219.000,203.000,199.000,168.500
0.871,218.000,202.500,197.500,168.000
0.872,218.000,202.500,197.500,168.000
0.873,217.500,202.000,196.500,167.500
0.874,217.500,202.000,197.000,168.500
0.875,217.000,202.000,197.000,169.000
0.876,217.000,202.500,197.500,170.500
0.877,217.000,202.000,197.500,171.500
0.878,217.500,203.000,198.000,173.500
0.879,217.500,203.000,198.000,174.500
0.880,217.500,203.500,198.500,176.500
0.881,217.000,203.500,198.000,177.500
0.882,217.500,204.000,199.000,179.000
0.883,217.000,204.000,199.000,179.500
0.884,217.000,204.500,200.000,180.000
0.885,217.000,204.500,200.000,180.000
0.886,217.500,205.000,200.500,180.000
0.887,217.500,204.500,200.000,179.000
0.888,218.000,205.000,200.000,178.500
0.889,218.000,205.000,200.000,177.500
0.890,218.500,205.500,200.000,177.000
0.891,219.000,205.500,200.000,176.000
0.892,219.500,206.000,200.000,175.500
0.893,219.500,205.500,199.500,174.000
0.894,220.000,205.500,200.000,173.500
0.895,219.500,205.000,199.000,172.500
0.896,219.500,205.000,199.000,171.500
0.897,219.000,204.500,198.000,170.500
0.898,219.000,205.000,198.000,170.000
0.899,218.500,204.500,197.500,169.500
0.900,219.000,205.000,198.000,169.500
0.901,219.000,205.500,197.500,169.000
0.902,219.500,206.000,198.000,170.000
0.903,219.000,206.500,198.000,170.000
0.904,220.000,207.000,199.000,170.500
0.905,219.500,207.000,199.000,170.500
0.906,220.000,208.000,200.000,170.500
0.907,219.500,207.500,200.000,169.500
0.908,220.000,208.000,200.500,169.500
0.909,219.500,207.500,200.000,168.500
0.910,219.500,207.500,200.500,168.000
0.911,218.500,207.000,200.000,167.000
0.912,218.500,206.500,200.000,166.500
0.913,218.000,206.000,199.500,165.500
0.914,218.500,205.500,200.000,165.000
0.915,218.000,205.000,199.500,164.000
0.916,218.000,204.500,199.500,163.500
0.917,217.500,203.000,198.500,162.500
0.918,217.500,203.000,199.000,162.500
0.919,217.000,202.000,198.500,161.500
0.920,217.000,202.500,199.000,161.500
0.921,216.500,202.500,199.000,161.000
0.922,216.500,203.500,200.000,161.000
0.923,216.000,204.000,200.000,160.500
0.924,216.500,205.000,200.500,161.000
0.925,216.000,205.500,200.500,160.500
0.926,216.500,206.500,201.500,161.000
0.927,216.500,207.000,201.500,161.000
0.928,217.000,207.500,202.000,161.500
0.929,217.000,207.500,201.500,161.500
0.930,217.500,207.500,202.000,162.000
0.931,217.000,206.500,201.500,162.000
0.932,217.000,206.500,201.500,162.000
0.933,216.500,205.500,201.000,161.500
0.934,217.000,205.500,201.500,162.000
0.935,216.000,204.500,201.000,161.500
0.936,216.000,204.000,202.000,162.000
0.937,215.500,203.500,202.000,162.000
0.938,215.500,203.500,203.000,163.000
0.939,215.000,203.500,203.000,163.000
0.940,215.500,203.500,203.500,164.000
0.941,215.500,203.500,203.000,164.500
0.942,217.000,203.500,203.000,165.000
0.943,217.500,203.000,202.500,165.000
0.944,218.000,203.500,202.500,165.000
0.945,218.000,203.000,202.500,164.500
0.946,218.000,203.000,203.000,165.000
0.947,217.000,202.500,203.000,164.500
0.948,216.500,203.000,204.000,165.000
0.949,215.500,202.500,204.000,164.500
0.950,215.000,202.500,204.000,164.500
0.951,214.500,202.000,204.000,164.000
0.952,214.500,202.000,204.000,164.000
0.953,213.500,201.500,204.000,163.500
0.954,214.000,201.000,204.000,164.000
0.955,213.500,200.000,204.000,163.500
0.956,214.000,200.000,204.000,163.500
0.957,213.500,199.500,203.500,163.000
0.958,213.500,200.000,204.000,163.000
0.959,213.000,200.000,203.500,162.500
0.960,213.000,200.500,203.500,162.500
0.961,212.500,201.000,203.000,162.500
0.962,213.000,202.500,203.500,163.500
0.963,212.500,203.500,203.500,164.000
0.964,213.000,205.000,204.500,165.500
0.965,212.500,205.500,204.500,166.500
0.966,213.000,206.500,205.500,168.000
0.967,213.000,207.000,205.500,169.000
0.968,214.000,207.500,206.000,170.000
0.969,214.000,207.000,206.000,170.000
0.970,214.500,207.000,207.000,171.000
0.971,214.000,206.000,207.000,171.000
0.972,214.000,206.000,207.500,172.000
0.973,213.000,205.000,207.500,172.000
0.974,213.000,204.500,208.000,173.000
0.975,212.000,203.500,208.000,173.500
0.976,212.000,203.000,208.500,174.500
0.977,211.500,202.000,208.000,174.500
0.978,212.500,201.500,208.000,175.500
0.979,212.500,200.500,207.500,176.000
0.980,213.500,199.500,207.500,177.000
0.981,214.000,198.500,206.500,177.000
0.982,215.000,198.000,207.000,178.000
0.983,215.000,197.500,206.500,178.500
0.984,216.000,197.500,206.500,179.500
0.985,216.000,197.500,206.500,179.500
0.986,216.500,198.000,206.500,180.000
0.987,216.500,198.500,206.500,180.000
0.988,217.000,199.500,206.500,180.000
0.989,216.500,199.500,206.500,179.000
0.990,216.500,200.000,206.500,179.000
0.991,216.000,199.500,205.500,177.500
0.992,216.000,199.000,205.000,176.500
0.993,215.000,198.000,203.500,175.000
0.994,214.500,197.000,202.500,173.500
0.995,213.000,195.500,201.000,172.000
0.996,212.000,195.000,200.000,170.500
0.997,210.500,194.000,199.000,169.000
0.998,210.000,194.000,199.000,168.000
0.999,208.500,193.500,199.000,167.500
1.000,208.500,194.000,199.500,167.500
1.001,208.500,193.500,200.000,167.500
1.002,209.000,194.000,201.000,168.000
1.003,209.500,193.500,201.000,168.000
1.004,210.000,193.500,201.500,168.500
1.005,210.500,192.500,201.000,167.500
1.006,211.000,192.000,201.000,167.500
1.007,211.000,191.000,200.500,166.500
1.008,211.500,191.000,200.000,165.500
1.009,211.000,190.000,199.500,164.500
1.010,211.000,190.500,199.500,163.500
1.011,210.000,190.000,199.500,162.000
1.012,209.500,190.500,200.000,161.000
1.013,208.500,190.500,199.500,160.000
1.014,208.000,191.000,200.000,159.000
1.015,207.000,190.500,200.000,157.500
1.016,207.000,190.000,200.000,156.500
1.017,206.500,189.500,199.500,155.000
1.018,206.500,189.000,199.500,154.500
1.019,206.500,187.500,199.000,153.000
1.020,206.500,187.000,199.000,152.500
1.021,206.500,186.000,198.500,151.500
1.022,207.000,186.000,198.500,151.000
1.023,206.500,185.000,198.000,150.000
1.024,207.000,185.000,198.000,149.500
1.025,207.000,184.500,197.000,148.500
1.026,207.500,185.000,197.000,148.000
1.027,207.500,184.500,195.500,146.500
1.028,208.500,184.500,195.000,146.000
1.029,208.500,183.500,193.000,144.500
1.030,209.000,183.500,192.000,143.000
1.031,209.000,182.000,190.500,141.000
1.032,209.500,181.500,190.000,140.000
1.033,209.000,180.500,189.000,138.000
1.034,210.000,180.500,189.000,137.000
1.035,209.500,180.000,188.000,135.500
1.036,210.000,180.000,188.000,134.500
1.037,210.000,179.000,187.500,133.000
1.038,210.500,178.500,187.000,132.000
1.039,210.500,177.500,186.000,130.000
1.040,211.000,177.000,185.500,129.000
1.041,210.500,175.500,184.000,127.500
1.042,211.000,175.500,183.500,127.000
1.043,210.500,174.500,182.500,126.000
1.044,211.000,175.000,182.000,125.500
1.045,210.500,175.000,181.000,124.500
1.046,210.000,176.000,181.000,124.000
1.047,209.000,176.000,180.000,123.000
1.048,209.000,176.500,179.500,122.500
1.049,208.000,176.500,178.500,121.500
1.050,208.000,177.000,178.500,121.000
1.051,207.000,177.000,178.000,120.000
1.052,207.500,177.000,178.000,120.000
1.053,207.000,176.500,178.000,119.000
1.054,207.000,177.000,178.500,119.000
1.055,206.500,176.500,178.000,118.000
1.056,207.000,177.000,178.500,118.000
1.057,206.500,177.000,178.500,117.500
1.058,207.000,177.500,179.500,118.000
1.059,206.500,177.500,179.500,118.000
1.060,206.500,178.000,180.000,118.500
1.061,205.500,178.000,180.000,118.500
1.062,205.500,178.500,180.500,119.000
1.063,204.500,178.500,180.000,119.000
1.064,204.500,178.500,180.000,119.500
1.065,204.000,178.000,179.000,119.500
1.066,204.000,178.000,179.000,119.500
1.067,203.500,177.000,178.500,119.000
1.068,203.500,176.500,178.500,118.500
1.069,202.500,175.500,178.000,117.500
1.070,202.500,175.000,178.000,117.500
1.071,202.000,174.000,177.500,116.500
1.072,202.000,174.000,177.500,116.000
1.073,201.500,173.500,177.500,115.000
1.074,202.000,174.000,177.500,115.000
1.075,201.500,174.000,177.500,114.500
1.076,201.500,174.500,178.000,114.500
1.077,201.000,174.000,178.000,114.500
1.078,201.000,174.500,178.500,115.000
1.079,200.000,174.000,178.500,115.000
1.080,200.000,174.500,179.000,115.500
1.081,199.000,174.500,179.000,115.500
1.082,199.000,175.000,180.000,116.000
1.083,198.500,174.500,180.500,116.500
1.084,198.500,175.000,181.500,117.500
1.085,198.000,174.500,182.000,118.000
1.086,198.000,174.500,183.000,119.000
1.087,197.500,174.000,184.000,119.500
1.088,198.000,174.500,185.000,121.000
1.089,197.500,174.500,186.000,122.000
1.090,198.500,175.000,187.500,123.000
1.091,199.000,175.000,188.500,123.500
1.092,200.500,176.000,190.000,124.500
1.093,201.000,176.000,190.500,125.000
1.094,202.000,176.500,192.000,126.000
1.095,202.000,176.500,192.500,126.500
1.096,203.000,177.000,193.500,128.000
1.097,203.000,177.000,194.000,128.500
1.098,203.500,177.500,195.000,130.000
1.099,203.500,177.500,195.000,131.000
1.100,204.000,178.000,195.500,132.500
1.101,204.500,178.000,195.500,133.500
1.102,205.500,179.000,196.000,134.500
1.103,205.500,179.000,196.500,135.500
1.104,206.000,179.500,197.500,137.000
1.105,205.500,179.500,197.500,138.000
1.106,206.000,180.500,198.500,139.500
1.107,205.500,180.500,199.000,140.000
1.108,205.500,181.000,200.000,141.000
1.109,204.500,181.000,200.000,141.000
1.110,204.500,181.500,200.500,142.000
1.111,204.000,181.500,200.000,141.500
1.112,204.000,181.500,199.500,142.000
1.113,203.500,181.000,198.500,141.500
1.114,203.000,180.500,198.500,141.500
1.115,201.500,178.500,197.000,141.500
1.116,200.500,177.000,196.500,141.500
1.117,198.000,174.500,195.500,142.000
1.118,196.000,173.000,195.500,143.000
1.119,193.500,171.500,195.500,144.500
1.120,192.500,171.500,197.000,147.000
1.121,191.500,172.500,199.000,150.500
1.122,192.500,176.000,203.500,155.000
1.123,194.000,180.000,208.500,160.000
1.124,197.500,186.500,214.500,166.000
1.125,200.500,192.500,220.500,170.500
1.126,204.500,199.000,226.000,175.000
1.127,208.000,204.000,230.500,177.500
1.128,212.500,209.000,234.000,179.000
1.129,215.500,212.500,235.500,179.000
1.130,219.000,215.000,236.500,178.000
1.131,221.500,215.500,235.500,176.000
1.132,223.500,216.000,234.000,173.500
1.133,224.000,215.000,231.000,170.000
1.134,224.500,214.000,228.000,167.500
1.135,223.500,211.500,224.500,165.000
1.136,222.500,209.500,222.000,164.000
1.137,219.500,207.000,219.000,162.500
1.138,217.500,204.500,217.000,162.500
1.139,214.500,202.000,215.000,162.500
1.140,212.500,200.000,214.000,163.500
1.141,210.000,198.500,213.000,164.500
1.142,209.000,198.000,213.000,165.500
1.143,208.000,197.500,213.000,166.500
1.144,208.000,197.500,214.000,168.000
1.145,208.000,197.500,214.000,168.500
1.146,208.500,198.000,214.500,170.000
1.147,209.000,197.500,214.500,170.000
1.148,209.500,198.000,215.500,171.000
1.149,209.500,197.000,215.000,170.500
1.150,210.500,197.000,215.500,170.500
1.151,210.500,196.500,215.500,170.000
1.152,211.500,196.500,216.000,170.000
1.153,211.500,196.000,216.000,169.500
1.154,212.500,196.000,216.500,170.000
1.155,212.500,195.500,216.500,170.000
1.156,212.500,195.500,216.500,170.500
1.157,212.000,195.000,216.000,170.500
1.158,212.500,195.500,216.000,171.000
1.159,212.500,195.000,215.500,171.000
1.160,213.000,195.500,215.500,171.500
1.161,213.000,195.000,214.500,171.500
1.162,213.500,195.500,215.000,172.500
1.163,213.000,195.000,214.500,172.500
1.164,213.500,195.500,215.000,173.500
1.165,213.500,195.500,215.000,173.500
1.166,214.000,196.000,216.000,174.500
1.167,213.500,196.000,216.000,175.000
1.168,214.000,197.000,216.500,175.500
1.169,213.500,197.000,216.000,175.500
1.170,214.000,197.500,216.500,176.000
1.171,213.500,198.000,216.000,176.000
1.172,213.500,198.500,216.500,176.500
1.173,213.000,199.000,216.000,176.500
1.174,213.500,200.000,216.500,177.500
1.175,213.500,200.500,216.000,178.000
1.176,214.000,201.000,216.500,179.000
1.177,213.500,201.000,216.500,179.500
1.178,214.000,201.500,216.500,180.500
1.179,213.500,201.000,216.500,181.000
1.180,213.500,201.500,216.500,182.000
1.181,213.000,201.000,216.500,182.500
1.182,213.500,201.500,216.500,183.500
1.183,213.000,201.000,216.500,184.000
1.184,213.000,201.500,216.500,184.500
1.185,212.000,201.000,216.000,184.500
1.186,211.500,201.500,215.500,185.000
1.187,210.000,201.000,214.500,184.500
1.188,209.500,201.000,214.000,185.000
1.189,208.500,200.500,213.000,184.500
1.190,209.000,200.500,213.000,184.500
1.191,209.000,200.000,212.500,184.000
1.192,210.000,200.000,212.500,184.000
1.193,210.000,199.500,212.000,183.000
1.194,211.000,199.500,212.000,183.000
1.195,210.500,198.500,211.000,182.500
1.196,211.000,198.500,211.000,182.500
1.197,210.500,198.000,210.500,182.500
1.198,210.500,198.000,211.000,183.000
1.199,210.000,198.000,210.500,183.000
1.200,210.500,198.500,211.500,183.500
1.201,210.000,198.500,211.500,183.500
1.202,210.500,199.000,212.000,185.000
1.203,210.000,199.000,212.500,186.000
1.204,210.500,199.500,213.500,187.500
1.205,210.000,199.500,214.000,188.000
1.206,210.500,200.000,215.000,189.500
1.207,210.000,200.000,215.000,189.500
1.208,210.500,200.500,215.500,190.000
1.209,210.500,200.000,215.000,190.000
1.210,210.500,200.000,215.000,190.000
1.211,210.500,199.000,214.000,189.000
1.212,211.000,199.000,214.000,189.500
1.213,210.500,198.000,212.500,189.000
1.214,211.000,197.500,212.000,189.000
1.215,210.500,196.000,210.500,188.500
1.216,211.500,195.500,210.000,188.500
1.217,211.500,194.000,209.000,188.000
1.218,212.000,193.500,209.000,188.500
1.219,212.000,192.500,208.500,188.500
1.220,212.500,192.000,209.500,189.000
1.221,212.500,191.000,209.500,189.000
1.222,213.000,191.000,210.000,190.000
1.223,212.500,190.000,210.000,190.500
1.224,212.500,190.000,211.000,191.500
1.225,212.000,189.500,211.500,192.000
1.226,212.000,190.000,212.000,193.000
1.227,211.500,190.000,212.000,193.000
1.228,211.500,190.500,212.500,193.000
1.229,211.000,190.000,212.000,192.500
1.230,211.500,190.500,212.000,192.500
1.231,211.000,190.500,211.000,192.000
1.232,211.500,191.000,211.000,192.500
1.233,211.000,191.000,210.500,191.500
1.234,211.500,191.500,210.500,191.500
1.235,211.000,191.500,210.500,191.000
1.236,211.500,192.500,211.000,191.000
1.237,211.500,192.500,211.500,191.000
1.238,212.000,193.500,212.500,191.000
1.239,211.500,194.000,213.000,191.000
1.240,212.000,195.500,214.500,192.000
1.241,212.000,195.500,215.000,192.000
1.242,212.500,196.500,215.500,193.000
1.243,212.500,197.000,215.500,193.000
1.244,213.000,197.500,216.000,193.500
1.245,213.000,197.500,215.500,193.500
1.246,213.500,198.000,215.500,193.500
1.247,213.000,197.500,215.000,193.000
1.248,213.500,197.500,215.500,192.500
1.249,213.000,197.000,215.000,191.500
1.250,213.500,197.000,215.500,191.000
1.251,213.500,197.000,215.000,190.000
1.252,214.000,197.500,215.000,189.500
1.253,213.500,198.000,214.500,188.500
1.254,214.000,198.500,214.500,188.000
1.255,214.000,199.000,213.500,187.000
1.256,214.000,200.000,213.500,186.500
1.257,213.500,200.000,213.000,186.000
1.258,214.000,201.000,213.500,186.500
1.259,213.500,201.000,213.500,186.000
1.260,213.500,201.500,214.500,186.500
1.261,213.000,201.500,214.500,186.500
1.262,212.500,202.000,215.500,187.000
1.263,212.000,201.500,216.000,187.500
1.264,211.500,202.000,216.500,188.000
1.265,210.500,201.500,216.500,188.000
1.266,210.500,201.500,217.000,188.500
1.267,210.000,201.000,216.500,188.500
1.268,210.500,201.000,217.000,189.000
1.269,210.000,200.000,216.000,188.500
1.270,210.500,199.500,216.000,189.000
1.271,210.000,199.000,215.000,188.500
1.272,210.500,198.500,215.000,189.000
1.273,210.500,198.000,214.000,188.500
1.274,211.000,198.000,213.500,188.500
1.275,211.000,197.500,213.000,188.000
1.276,211.500,197.500,213.000,188.000
1.277,211.000,197.000,212.500,187.500
1.278,211.000,197.500,213.000,188.000
1.279,210.500,197.000,213.000,188.000
1.280,211.000,197.500,214.000,188.500
1.281,210.500,197.000,214.000,188.500
1.282,210.500,197.000,214.500,189.500
1.283,210.500,196.500,214.500,189.500
1.284,210.500,196.500,215.000,190.000
1.285,210.000,196.000,214.500,189.500
1.286,210.000,196.000,214.500,189.500
1.287,209.500,196.000,214.000,189.000
1.288,210.000,196.500,214.500,188.500
1.289,209.500,197.000,214.000,187.500
1.290,210.000,198.000,214.000,187.000
1.291,209.500,198.500,213.500,186.000
1.292,210.000,199.500,214.000,186.000
1.293,210.000,200.000,214.500,185.500
1.294,210.000,201.000,215.500,186.000
1.295,210.000,201.500,216.000,186.000
1.296,210.500,202.500,217.500,187.000
1.297,211.000,203.000,218.000,187.000
1.298,212.000,204.000,219.500,187.500
1.299,213.000,204.000,219.500,187.500
1.300,214.000,205.000,220.500,188.000
1.301,214.500,204.500,220.500,188.000
1.302,216.000,205.000,221.000,188.500
1.303,216.500,205.000,221.000,188.500
1.304,217.000,205.000,222.000,189.000
1.305,217.000,204.500,222.500,189.000
1.306,217.500,205.000,223.000,189.500
1.307,217.500,204.500,223.000,189.000
1.308,218.500,205.000,223.000,189.000
1.309,218.500,204.500,222.000,187.500
1.310,219.000,204.500,221.000,186.500
1.311,219.000,204.000,219.500,185.000
1.312,219.500,204.000,219.000,184.500
1.313,219.500,203.500,218.500,183.500
1.314,220.000,204.000,218.500,183.000
1.315,219.500,203.500,218.000,182.500
1.316,219.500,203.500,218.000,182.000
1.317,218.500,202.500,218.000,181.500
1.318,218.500,202.500,219.000,181.000
1.319,218.000,201.500,219.500,180.500
1.320,218.000,202.000,220.000,180.500
1.321,217.500,201.500,220.500,180.500
1.322,218.000,201.500,221.000,181.000
1.323,217.500,201.000,221.000,180.500
1.324,218.000,201.000,221.500,181.000
1.325,217.500,200.500,221.500,180.500
1.326,217.500,201.000,222.000,180.500
1.327,216.500,200.500,221.500,179.500
1.328,216.500,201.000,222.000,179.000
1.329,216.000,201.000,221.500,178.000
1.330,216.000,201.500,221.500,177.000
1.331,215.500,201.000,220.500,176.000
1.332,216.000,201.500,220.500,175.000
1.333,215.500,200.500,219.500,173.500
1.334,216.000,200.500,219.500,172.500
1.335,216.000,200.000,218.500,171.000
1.336,216.500,200.000,219.000,170.500
1.337,216.000,199.500,218.500,170.000
1.338,216.000,199.500,219.500,169.500
1.339,215.500,199.500,219.500,169.000
1.340,216.000,199.500,220.500,169.000
1.341,216.000,199.500,221.000,169.000
1.342,216.500,199.500,222.000,169.000
1.343,217.000,199.500,223.000,169.000
1.344,218.000,200.000,224.000,169.500
1.345,218.500,200.000,224.500,169.500
1.346,219.500,200.500,225.500,170.000
1.347,219.500,200.500,225.500,170.000
1.348,220.000,201.000,226.000,170.000
1.349,220.000,201.000,225.500,169.000
1.350,220.500,201.000,225.000,168.500
1.351,220.000,200.000,223.500,167.000
1.352,219.500,200.000,223.000,166.000
1.353,218.500,199.500,221.500,164.000
1.354,218.500,199.000,220.500,163.000
1.355,217.000,198.000,219.500,161.500
1.356,216.500,197.000,219.000,160.500
1.357,215.000,195.500,218.500,159.000
1.358,214.500,195.000,218.500,159.000
1.359,213.500,194.000,218.000,158.500
1.360,214.000,194.000,218.500,159.500
1.361,214.000,194.000,219.000,160.500
1.362,215.500,194.500,219.500,161.500
1.363,216.000,194.500,219.500,162.500
1.364,216.500,195.500,220.000,163.500
1.365,216.500,195.500,220.000,164.000
1.366,216.500,195.500,220.000,164.000
1.367,216.000,195.000,219.500,163.500
1.368,216.000,194.500,219.500,163.500
1.369,215.000,193.500,219.000,163.000
1.370,215.500,193.000,219.000,163.000
1.371,215.000,191.500,218.000,162.500
1.372,215.000,191.000,218.000,163.000
1.373,214.500,190.000,217.500,162.500
1.374,215.000,189.500,218.000,163.000
1.375,214.500,189.000,217.500,163.000
1.376,214.500,189.000,218.000,163.500
1.377,213.500,188.500,218.000,163.500
1.378,213.500,189.000,218.500,164.000
1.379,213.000,189.500,218.500,164.000
1.380,213.000,190.000,219.500,164.500
1.381,213.000,190.500,219.500,165.000
1.382,213.500,191.000,220.000,166.000
1.383,213.000,191.000,220.000,166.500
1.384,213.500,191.500,220.500,167.500
1.385,213.000,191.000,220.000,168.000
1.386,213.000,191.000,220.000,169.000
1.387,212.500,190.000,219.500,169.500
1.388,212.500,190.000,219.500,170.000
1.389,212.000,189.000,219.000,169.500
1.390,212.000,188.500,219.000,170.000
1.391,212.000,188.000,218.500,170.000
1.392,212.000,188.500,219.000,170.500
1.393,212.000,188.500,218.500,171.000
1.394,212.000,189.000,218.500,172.000
1.395,212.000,189.500,218.000,172.500
1.396,212.000,190.500,218.500,174.000
1.397,212.000,191.000,218.000,175.000
1.398,212.500,192.000,218.500,176.500
1.399,212.000,192.000,218.500,177.500
1.400,212.500,192.500,219.000,179.000
1.401,212.000,192.000,218.500,179.500
1.402,212.000,192.500,219.000,180.500
1.403,211.500,192.500,218.000,180.500
1.404,211.500,193.000,218.000,181.000
1.405,211.000,193.000,216.500,181.000
1.406,211.000,193.500,216.000,181.000
1.407,211.000,193.500,214.500,181.000
1.408,211.500,194.000,213.500,181.000
1.409,211.500,194.000,212.000,181.000
1.410,212.000,194.000,211.500,181.000
1.411,211.500,193.500,210.500,180.000
1.412,212.000,194.000,210.000,180.000
1.413,211.500,193.000,209.000,179.500
1.414,211.500,193.000,209.000,179.500
1.415,211.000,192.500,208.500,179.000
1.416,211.000,192.500,209.000,179.500
1.417,210.500,192.500,208.500,179.500
1.418,211.000,192.500,209.000,180.000
1.419,210.500,191.500,208.500,180.000
1.420,211.000,191.500,209.000,180.500
1.421,211.000,191.000,209.000,180.500
1.422,211.500,191.500,209.500,181.000
1.423,211.000,191.500,209.500,181.000
1.424,211.500,192.000,210.500,181.000
1.425,211.000,192.500,210.500,181.000
1.426,211.000,194.000,211.000,181.000
1.427,210.500,194.500,211.000,181.000
1.428,211.000,196.000,211.500,181.000
1.429,211.000,196.500,211.500,180.000
1.430,211.000,198.000,212.000,180.000
1.431,210.000,198.500,212.000,179.500
1.432,210.000,200.000,212.500,179.000
1.433,209.500,200.500,212.500,178.500
1.434,209.500,201.500,212.500,178.500
1.435,209.000,202.000,212.000,178.000
1.436,209.000,203.000,212.000,178.000
1.437,208.500,203.500,211.000,177.000
1.438,208.500,204.000,211.000,177.000
1.439,207.500,204.000,210.000,176.500
1.440,207.500,205.000,210.000,177.000
1.441,206.500,204.500,209.000,176.500
1.442,206.500,205.000,209.000,177.000
1.443,206.000,205.000,208.500,177.000
1.444,206.500,206.000,208.500,177.500
1.445,206.500,206.000,208.500,177.000
1.446,207.000,206.500,209.000,177.000
1.447,207.000,206.000,209.000,176.500
1.448,207.500,206.000,209.500,176.500
1.449,207.500,205.500,209.500,176.000
1.450,208.000,205.500,210.500,176.000
1.451,208.000,205.000,210.000,175.000
1.452,209.000,205.500,210.500,175.000
1.453,209.000,205.500,210.000,174.000
1.454,210.000,206.000,210.000,174.000
1.455,210.000,206.500,210.000,173.500
1.456,210.500,207.000,210.500,173.500
1.457,210.500,207.500,211.000,173.000
1.458,211.500,208.000,211.500,173.000
1.459,211.000,208.000,212.000,172.500
1.460,211.500,208.500,213.000,173.000
1.461,211.500,208.500,213.500,173.000
1.462,212.000,209.000,214.500,174.000
1.463,211.500,209.000,215.000,174.000
1.464,212.000,209.500,216.000,174.500
1.465,211.000,209.000,216.000,174.500
1.466,211.000,208.500,216.500,174.500
1.467,209.500,207.500,216.000,173.000
1.468,209.000,207.000,215.500,172.000
1.469,208.000,206.000,215.000,170.500
1.470,207.500,205.500,215.000,169.500
1.471,206.500,204.500,214.500,168.000
1.472,206.000,204.500,215.000,167.500
1.473,205.500,204.000,214.500,166.500
1.474,205.000,204.000,215.500,166.500
1.475,204.000,203.500,215.500,166.000
1.476,203.500,203.500,216.000,166.500
1.477,203.000,202.500,215.500,166.000
1.478,203.000,202.500,216.000,166.000
1.479,202.500,202.000,216.000,165.500
1.480,203.000,202.500,217.000,165.500
1.481,202.500,202.500,217.000,165.000
1.482,203.000,203.000,218.500,165.500
1.483,202.500,203.000,219.000,165.500
1.484,202.500,204.000,220.000,166.000
1.485,201.500,203.500,220.000,166.000
1.486,202.000,203.500,220.500,166.500
1.487,201.500,202.500,220.500,166.000
1.488,202.000,202.500,221.000,166.000
1.489,201.500,201.500,221.000,165.500
1.490,202.000,202.000,222.000,165.500
1.491,202.000,202.000,222.000,165.000
1.492,203.000,202.500,223.000,165.500
1.493,203.000,203.000,223.500,165.500
1.494,203.500,204.000,225.000,166.500
1.495,203.000,204.500,225.000,166.500
1.496,203.500,205.500,226.000,167.000
1.497,203.500,205.500,225.500,167.000
1.498,204.000,205.500,226.000,167.500
1.499,203.500,205.000,225.000,167.000
1.500,204.000,205.500,225.000,167.500
1.501,203.500,205.000,224.500,167.000
1.502,204.000,205.000,224.000,167.000
1.503,203.500,204.500,223.000,166.500
1.504,203.500,204.500,222.500,167.000
1.505,203.000,204.000,221.000,166.000
1.506,202.500,204.000,220.000,166.000
1.507,201.500,203.500,218.500,165.000
1.508,201.000,203.500,218.000,164.500
1.509,200.500,203.500,216.500,163.500
1.510,200.000,204.000,216.500,163.000
1.511,199.500,203.500,215.500,162.500
1.512,200.000,204.000,215.500,162.500
1.513,199.500,203.500,215.000,162.000
1.514,199.500,203.500,215.000,162.500
1.515,199.000,202.500,214.000,162.000
1.516,199.000,202.500,214.500,162.000
1.517,198.500,202.000,214.000,161.500
1.518,198.500,202.000,214.000,161.500
1.519,198.000,201.500,213.500,160.500
1.520,197.500,201.000,213.000,160.500
1.521,196.000,199.500,212.000,160.000
1.522,195.000,198.500,212.000,160.000
1.523,192.500,196.500,210.500,159.500
1.524,191.000,195.000,209.500,159.500
1.525,188.500,193.000,208.500,159.500
1.526,187.000,192.500,208.500,160.500
1.527,186.000,192.000,209.000,161.000
1.528,186.500,193.500,211.000,163.000
1.529,187.000,195.500,213.500,165.500
1.530,190.000,200.000,218.500,169.500
1.531,193.000,204.500,223.500,173.500
1.532,197.000,210.000,229.500,178.500
1.533,201.000,215.500,234.500,182.500
1.534,205.000,221.000,240.000,187.000
1.535,208.500,225.500,243.500,190.000
1.536,212.000,229.000,246.500,192.500
1.537,214.500,230.500,246.500,193.500
1.538,217.500,231.500,246.000,193.500
1.539,218.500,230.500,243.000,192.500
1.540,219.500,229.000,239.500,191.000
1.541,219.000,225.500,235.000,188.500
1.542,218.500,222.500,230.500,187.000
1.543,216.000,218.000,225.500,184.500
1.544,214.000,214.000,221.000,183.000
1.545,211.000,209.000,216.000,180.500
1.546,208.500,205.000,211.500,178.500
1.547,205.500,200.500,207.000,175.500
1.548,204.000,196.500,203.000,173.000
1.549,202.000,193.000,198.000,169.500
1.550,201.500,190.000,193.500,166.500
1.551,200.000,186.500,188.000,163.000
1.552,199.500,183.500,182.500,159.000
1.553,198.500,179.500,175.500,153.500
1.554,198.500,176.000,168.500,148.000
1.555,197.000,171.000,160.500,141.500
1.556,196.500,166.500,152.500,135.500
1.557,195.500,161.000,143.500,129.000
1.558,194.500,156.500,136.000,123.500
1.559,193.000,152.000,128.000,118.000
1.560,192.000,148.500,121.500,113.500
1.561,190.000,144.500,115.500,108.500
1.562,189.500,142.000,110.500,105.000
1.563,188.000,139.500,106.000,101.000
1.564,188.000,138.000,103.000,98.500
1.565,188.000,137.000,101.000,96.500
1.566,189.500,138.000,101.000,96.000
1.567,190.500,139.000,102.500,96.500
1.568,192.000,141.500,106.500,98.500
1.569,193.000,145.000,111.500,100.500
1.570,194.500,149.500,118.500,104.000
1.571,196.000,154.500,126.500,106.500
1.572,198.000,160.000,136.000,110.000
1.573,199.500,165.500,145.500,112.500
1.574,201.500,171.500,155.000,116.000
1.575,203.000,177.000,164.000,119.500
1.576,205.500,183.000,173.500,123.500
1.577,206.500,187.500,181.000,128.000
1.578,208.500,192.500,189.000,132.500
1.579,209.000,196.500,195.000,136.500
1.580,210.500,200.000,201.000,141.000
1.581,210.500,202.000,205.000,144.000
1.582,211.000,204.000,209.000,147.500
1.583,211.000,205.000,212.000,150.500
1.584,212.000,206.500,215.500,154.000
1.585,212.000,207.000,218.500,157.000
1.586,213.000,208.500,222.000,161.000
1.587,213.500,209.000,224.500,164.000
1.588,214.000,210.000,227.000,167.000
1.589,213.500,210.000,228.000,169.000
1.590,213.500,210.000,228.500,170.500
1.591,213.000,209.500,227.500,170.500
1.592,213.000,209.000,227.000,170.500
1.593,212.500,208.000,225.000,170.000
1.594,212.500,208.000,224.000,170.000
1.595,211.500,207.500,222.500,170.000
1.596,211.500,208.000,222.000,170.500
1.597,211.000,208.000,221.500,171.000
1.598,210.500,208.500,221.000,172.000
1.599,209.500,208.500,220.500,172.500
1.600,209.000,209.000,220.000,174.000
1.601,208.000,208.500,219.500,175.500
1.602,207.500,208.500,219.000,177.500
1.603,207.000,208.000,218.500,178.500
1.604,207.000,208.500,218.500,180.500
1.605,206.500,208.500,218.000,181.000
1.606,206.500,209.000,218.000,182.500
1.607,206.500,208.500,217.500,182.500
1.608,206.500,209.500,218.000,183.000
1.609,206.000,209.500,218.000,183.000
1.610,206.500,210.000,219.000,183.500
1.611,206.000,210.000,219.000,183.500
1.612,206.000,211.000,220.000,183.500
1.613,205.500,211.500,220.000,183.000
1.614,205.500,212.000,220.500,183.000
1.615,205.000,211.500,220.000,182.000
1.616,205.500,212.000,220.500,181.500
1.617,205.500,211.500,220.000,180.500
1.618,206.500,212.000,220.500,180.000
1.619,207.000,212.000,221.000,179.500
1.620,208.000,212.000,222.000,179.500
1.621,208.500,212.000,222.500,179.500
1.622,209.500,212.000,223.500,179.500
1.623,209.500,211.500,224.500,179.500
1.624,210.000,212.000,225.500,180.000
1.625,209.500,211.500,226.000,180.000
1.626,209.500,212.000,227.000,180.500
1.627,209.000,211.500,227.000,179.500
1.628,209.500,211.500,227.500,179.500
1.629,209.500,210.500,227.500,178.000
1.630,210.000,210.000,228.000,177.500
1.631,210.000,208.500,227.500,176.000
1.632,210.500,208.000,227.500,175.000
1.633,210.000,206.500,226.500,173.500
1.634,209.500,206.000,226.500,172.500
1.635,208.500,204.500,225.500,171.000
1.636,208.000,204.000,225.500,170.000
1.637,207.000,203.000,225.000,169.000
1.638,207.000,202.500,225.500,168.500
1.639,206.000,201.500,224.500,167.500
1.640,205.500,201.000,224.500,167.000
1.641,204.500,199.500,223.500,166.500
1.642,204.500,199.500,223.500,167.000
1.643,204.000,198.500,222.500,167.000
1.644,204.500,199.000,223.000,167.500
1.645,204.000,199.000,223.500,168.000
1.646,204.500,200.000,224.500,169.000
1.647,204.500,200.000,224.500,169.500
1.648,205.000,201.000,225.500,170.000
1.649,205.000,200.500,225.500,169.500
1.650,205.000,201.000,226.500,169.500
1.651,204.000,200.000,226.000,168.500
1.652,204.000,200.000,226.500,168.000
1.653,203.500,199.000,225.500,166.500
1.654,204.000,198.500,225.500,166.000
1.655,203.500,197.500,225.000,164.500
1.656,204.000,197.000,225.500,164.500
1.657,204.000,196.000,225.000,163.500
1.658,205.000,196.000,225.500,164.000
1.659,204.500,195.000,225.500,164.000
1.660,205.000,195.000,226.000,164.500
1.661,205.000,194.500,226.000,164.500
1.662,205.000,194.000,226.500,165.000
1.663,205.000,193.000,226.000,165.000
1.664,205.000,193.000,226.000,165.500
1.665,205.000,192.000,225.500,165.500
1.666,205.500,192.000,226.000,166.000
1.667,206.000,191.500,225.500,166.000
1.668,206.500,192.000,226.500,166.500
1.669,206.500,191.500,226.500,166.500
1.670,207.000,192.000,227.000,166.500
1.671,207.000,192.000,227.000,166.000
1.672,207.000,192.500,227.500,166.500
1.673,206.500,192.000,227.500,166.500
1.674,206.500,192.000,228.000,167.000
1.675,206.000,192.000,228.000,166.500
1.676,206.000,192.000,228.500,167.000
1.677,205.500,191.500,228.000,166.500
1.678,205.500,191.500,227.500,166.500
1.679,204.500,190.500,226.500,166.000
1.680,204.000,190.500,226.000,165.500
1.681,203.000,190.000,224.500,165.000
1.682,203.000,190.500,224.500,165.500
1.683,202.500,190.000,224.000,165.500
1.684,202.500,191.000,224.500,166.500
1.685,202.000,191.000,224.500,167.000
1.686,202.000,192.000,225.500,168.000
1.687,202.000,192.500,225.500,168.000
1.688,202.000,193.000,226.000,169.000
1.689,201.500,192.500,225.500,168.500
1.690,202.000,193.000,226.000,169.000
1.691,201.500,193.000,225.500,168.500
1.692,201.500,193.000,225.500,168.000
1.693,201.500,193.000,225.500,167.500
1.694,202.000,194.000,226.000,167.500
1.695,202.500,194.000,226.000,167.000
1.696,203.000,195.000,227.000,167.500
1.697,203.500,195.500,226.500,167.500
1.698,204.000,196.000,227.000,168.000
1.699,204.500,195.500,227.000,168.000
1.700,205.000,196.000,227.500,168.500
1.701,205.500,196.000,227.000,168.500
1.702,206.500,196.000,227.500,169.000
1.703,207.000,195.500,227.500,169.000
1.704,208.000,195.500,228.500,169.500
1.705,208.500,195.000,228.500,170.000
1.706,209.500,195.500,229.000,170.500
1.707,209.500,195.500,228.500,170.500
1.708,209.500,196.000,229.000,171.000
1.709,208.500,196.000,229.000,171.000
1.710,207.500,196.500,229.500,171.500
1.711,206.000,196.000,229.000,171.500
1.712,205.500,196.500,229.500,172.000
1.713,204.000,196.000,229.000,172.000
1.714,204.000,196.000,229.000,173.000
1.715,203.000,195.500,228.500,173.000
1.716,203.000,196.000,228.500,173.500
1.717,202.500,195.500,228.000,173.500
1.718,202.500,196.000,228.500,174.000
1.719,202.500,195.500,228.000,174.500
1.720,203.000,196.500,228.500,175.000
1.721,203.500,196.500,228.500,175.500
1.722,204.500,197.000,229.000,176.000
1.723,204.500,197.000,228.500,176.000
1.724,205.500,197.500,228.500,176.000
1.725,205.500,197.500,228.000,175.500
1.726,206.000,198.000,228.500,175.500
1.727,206.000,197.500,228.000,174.500
1.728,206.500,198.000,228.000,174.000
1.729,206.000,198.000,227.500,172.500
1.730,206.500,198.500,227.500,171.500
1.731,206.000,198.000,226.000,169.500
1.732,207.000,198.500,225.500,168.000
1.733,207.000,197.500,224.500,166.000
1.734,208.000,197.000,224.000,164.500
1.735,208.500,196.000,222.500,162.500
1.736,209.500,195.000,221.500,161.500
1.737,209.500,193.500,220.000,159.500
1.738,210.500,192.500,219.500,158.500
1.739,210.500,191.000,218.000,157.000
1.740,211.000,190.000,217.500,156.500
1.741,210.500,189.000,216.500,155.500
1.742,211.000,188.500,216.500,155.000
1.743,210.500,187.500,216.000,154.000
1.744,210.500,187.000,216.000,153.500
1.745,210.000,186.500,215.500,152.500
1.746,210.000,186.500,215.500,152.500
1.747,209.500,186.000,214.500,151.500
1.748,209.500,186.000,214.500,151.000
1.749,209.000,186.000,213.500,149.500
1.750,209.000,186.000,213.000,148.500
1.751,208.500,186.000,212.000,146.500
1.752,209.000,186.500,211.500,145.500
1.753,209.000,186.500,210.500,143.500
1.754,209.500,187.000,210.500,142.500
1.755,209.000,187.000,210.000,141.000
1.756,209.500,187.500,210.000,140.000
1.757,209.500,187.000,209.000,139.000
1.758,209.500,187.500,209.000,138.000
1.759,209.000,186.500,208.000,137.000
1.760,209.000,186.500,208.000,136.500
1.761,208.500,186.000,207.500,135.500
1.762,209.000,186.000,207.500,135.500
1.763,209.000,185.500,207.000,134.500
1.764,209.000,186.000,207.000,134.000
1.765,209.000,185.500,206.000,133.000
1.766,209.000,185.500,205.500,132.500
1.767,208.500,185.000,204.000,131.500
1.768,208.500,185.000,203.500,130.500
1.769,208.000,184.500,202.000,129.500
1.770,208.000,184.500,201.000,128.500
1.771,207.500,184.000,200.000,127.500
1.772,207.500,184.000,199.500,127.000
1.773,207.000,183.500,199.000,126.000
1.774,207.500,183.500,198.500,125.500
1.775,207.000,183.500,198.000,124.500
1.776,207.000,184.000,198.000,124.500
1.777,206.500,183.500,197.500,124.500
1.778,207.000,184.000,197.500,124.500
1.779,206.000,183.500,197.000,124.500
1.780,206.000,184.000,197.000,125.000
1.781,205.500,183.500,196.000,125.000
1.782,205.000,183.500,195.500,125.500
1.783,204.000,183.000,194.500,125.500
1.784,204.000,183.500,194.500,126.000
1.785,203.500,183.500,194.000,126.000
1.786,204.000,184.500,194.500,126.500
1.787,203.500,184.500,194.500,126.500
1.788,204.000,185.000,195.000,127.000
1.789,204.000,185.000,195.500,127.500
1.790,204.000,186.000,196.000,128.000
1.791,203.500,186.000,196.000,128.000
1.792,203.500,186.500,196.500,128.500
1.793,202.500,186.500,196.000,129.000
1.794,202.500,186.500,196.500,129.500
1.795,202.000,186.000,196.000,129.500
1.796,202.000,186.500,196.500,130.000
1.797,202.000,185.500,196.000,130.000
1.798,202.500,185.500,196.500,130.000
1.799,202.000,184.500,196.500,129.500
1.800,202.500,184.500,197.000,129.500
1.801,202.500,183.500,196.500,129.500
1.802,202.500,183.500,197.000,130.000
1.803,202.000,183.000,196.500,130.000
1.804,202.000,183.000,196.000,130.500
1.805,201.000,182.500,195.500,130.500
1.806,200.500,182.500,195.000,131.000
1.807,199.500,182.000,194.500,130.500
1.808,199.500,182.500,194.500,130.500
1.809,198.500,182.500,194.500,130.000
1.810,199.000,183.000,195.500,130.000
1.811,198.500,183.000,196.000,129.500
1.812,199.000,184.000,197.000,130.500
1.813,199.000,184.000,197.500,130.500
1.814,199.500,184.500,199.000,132.000
1.815,199.500,184.500,200.000,132.500
1.816,200.000,185.500,202.000,134.000
1.817,199.500,185.500,203.000,135.000
1.818,200.000,186.500,205.000,136.500
1.819,199.500,186.500,206.500,137.500
1.820,199.500,187.500,208.500,139.000
1.821,199.000,187.500,209.500,139.500
1.822,199.000,188.500,211.500,141.000
1.823,198.500,188.500,212.500,142.000
1.824,198.500,189.500,214.000,143.500
1.825,197.500,189.500,214.500,144.000
1.826,196.500,190.000,215.500,145.500
1.827,195.500,189.500,215.500,146.500
1.828,194.500,190.000,216.500,148.000
1.829,193.500,190.000,216.500,149.000
1.830,193.000,191.000,218.000,150.500
1.831,192.500,191.500,218.500,151.500
1.832,193.000,193.000,220.000,153.000
1.833,193.000,193.500,221.000,153.500
1.834,193.500,194.500,222.000,155.000
1.835,193.500,195.000,222.500,155.500
1.836,194.000,195.500,224.000,156.500
1.837,194.000,195.000,224.500,157.000
1.838,194.500,195.500,225.500,158.500
1.839,194.000,195.500,226.000,159.000
1.840,194.500,196.500,227.000,160.500
1.841,194.500,196.500,227.500,161.000
1.842,195.500,198.000,228.500,162.500
1.843,195.500,198.500,228.500,163.500
1.844,195.500,199.500,229.000,165.000
1.845,195.000,199.500,228.500,165.500
1.846,195.500,200.000,228.000,166.000
1.847,195.000,199.500,227.500,166.500
1.848,195.000,200.000,227.500,167.000
1.849,194.500,200.000,227.500,167.000
1.850,195.000,201.000,228.000,168.000
1.851,194.500,200.500,228.500,168.000
1.852,195.000,201.000,229.500,168.500
1.853,194.500,200.500,229.500,168.500
1.854,195.500,200.500,230.500,169.000
1.855,195.500,199.500,230.000,169.000
1.856,196.500,199.500,230.500,170.000
1.857,196.500,199.500,230.500,170.000
1.858,197.500,200.000,231.000,171.000
1.859,198.000,200.000,231.000,171.500
1.860,198.500,201.000,232.000,173.000
1.861,199.000,202.000,232.500,174.500
1.862,200.000,203.000,233.500,176.500
1.863,200.500,203.500,234.000,178.000
1.864,202.000,204.000,235.500,179.500
1.865,202.000,204.000,236.000,180.500
1.866,203.000,204.000,236.500,182.000
1.867,202.500,203.500,236.500,182.500
1.868,203.000,203.500,236.500,183.000
1.869,203.000,203.000,236.000,183.500
1.870,203.500,203.000,236.000,184.000
1.871,203.000,202.500,235.000,184.500
1.872,203.000,202.500,235.000,185.000
1.873,202.500,201.500,234.500,184.500
1.874,202.500,201.500,235.000,185.000
1.875,201.500,201.000,235.000,185.000
1.876,201.500,201.000,235.500,185.000
1.877,201.000,200.500,235.500,184.500
1.878,201.000,200.500,236.500,185.000
1.879,201.000,200.500,236.500,184.500
1.880,201.000,201.000,237.000,185.000
1.881,201.000,201.000,236.500,185.000
1.882,201.000,201.500,237.000,186.000
1.883,201.000,201.500,236.500,185.500
1.884,201.500,202.000,237.000,186.000
1.885,201.500,202.000,236.000,186.000
1.886,202.500,202.500,236.000,186.500
1.887,202.000,202.000,235.000,186.000
1.888,202.500,202.000,235.000,186.500
1.889,202.000,201.500,234.000,186.500
1.890,202.000,201.500,234.000,187.000
1.891,201.000,201.000,233.500,186.500
1.892,201.000,200.500,233.000,186.500
1.893,200.000,199.500,232.000,185.500
1.894,200.000,199.500,232.000,185.500
1.895,199.500,198.500,231.000,185.000
1.896,199.500,199.000,231.000,185.000
1.897,199.000,198.500,230.500,184.500
1.898,199.000,199.500,231.000,185.000
1.899,198.500,199.500,230.500,185.500
1.900,199.000,201.000,231.500,187.000
1.901,199.000,201.500,231.500,188.000
1.902,199.500,202.500,232.000,189.500
1.903,199.000,202.500,232.000,190.500
1.904,199.500,203.500,232.500,191.500
1.905,199.000,203.000,232.000,192.000
1.906,199.500,203.000,232.000,193.000
1.907,199.000,202.500,231.500,193.000
1.908,199.000,202.500,232.000,193.500
1.909,198.500,202.000,231.500,193.000
1.910,198.500,202.000,231.500,193.500
1.911,198.000,201.500,231.000,192.500
1.912,198.000,202.000,231.000,192.500
1.913,197.500,201.500,230.000,192.000
1.914,197.500,202.000,229.500,192.000
1.915,196.500,201.500,228.500,191.500
1.916,196.500,202.000,228.500,192.000
1.917,195.500,201.500,227.500,191.500
1.918,195.500,202.000,227.000,191.500
1.919,195.000,201.500,226.000,191.500
1.920,195.500,202.000,226.000,192.000
1.921,195.000,201.500,225.500,192.000
1.922,196.000,202.500,226.000,192.500
1.923,195.500,202.500,225.500,192.500
1.924,196.000,203.000,225.000,192.500
1.925,195.000,202.500,223.500,192.000
1.926,195.000,202.500,222.500,191.500
1.927,193.500,201.500,220.500,190.500
1.928,193.000,201.000,218.500,189.500
1.929,191.000,199.500,216.000,188.500
1.930,189.500,197.500,213.500,187.500
1.931,187.000,195.000,210.000,186.500
1.932,185.000,192.500,207.500,186.000
1.933,182.500,189.500,205.000,185.000
1.934,181.500,188.500,204.500,186.000
1.935,181.000,189.000,205.000,187.000
1.936,182.500,191.500,208.500,190.000
1.937,184.000,195.500,213.000,193.500
1.938,187.500,201.000,219.000,198.500
1.939,190.500,206.500,224.500,203.000
1.940,195.000,212.500,230.000,207.500
1.941,198.500,217.000,233.500,210.000
1.942,202.500,221.000,236.500,212.000
1.943,205.500,223.500,238.000,212.500
1.944,209.500,226.000,238.500,212.500
1.945,211.500,227.000,237.500,210.500
1.946,213.500,227.000,235.500,208.500
1.947,214.000,225.500,232.500,205.000
1.948,214.000,224.000,230.000,202.000
1.949,212.000,221.000,226.500,198.500
1.950,210.000,218.000,224.000,196.500
1.951,206.500,214.500,221.500,194.000
1.952,204.000,211.500,219.500,192.500
1.953,201.000,208.500,217.500,191.500
1.954,199.500,207.000,216.500,191.000
1.955,197.500,205.500,215.000,191.000
1.956,197.000,205.000,215.000,191.500
1.957,196.000,205.000,214.500,192.000
1.958,196.500,206.000,215.000,192.500
1.959,196.500,207.000,215.500,192.500
1.960,197.000,208.500,216.000,193.000
1.961,197.000,209.000,216.000,192.500
1.962,197.500,209.500,216.000,192.500
1.963,197.000,209.500,215.000,191.500
1.964,197.500,210.000,214.500,191.500
1.965,197.500,209.500,214.000,191.000
1.966,197.500,209.500,214.000,191.000
1.967,197.500,209.000,214.000,190.500
1.968,198.000,209.000,214.500,191.000
1.969,197.500,209.000,214.500,191.000
1.970,198.000,209.000,215.500,191.000
1.971,197.500,209.000,215.500,190.500
1.972,198.000,209.000,216.000,190.500
1.973,197.500,209.000,215.500,189.500
1.974,197.500,209.000,216.000,188.500
1.975,197.000,208.000,215.500,187.000
1.976,197.000,208.000,215.500,186.500
1.977,196.000,207.000,215.000,184.500
1.978,196.000,206.500,215.000,183.500
1.979,195.000,205.500,214.500,182.000
1.980,195.000,205.500,214.500,181.000
1.981,194.000,205.000,214.500,179.500
1.982,194.000,205.500,215.000,179.500
1.983,193.500,205.000,215.000,179.000
1.984,194.000,205.500,215.500,179.500
1.985,193.500,205.000,216.000,179.000
1.986,194.000,205.500,217.000,179.500
1.987,194.000,205.000,217.000,179.500
1.988,195.000,205.000,217.500,179.500
1.989,195.000,204.500,217.500,179.000
1.990,195.500,204.500,218.000,179.000
1.991,195.500,204.000,217.500,178.500
1.992,196.000,204.000,218.000,178.500
1.993,195.500,203.500,217.500,178.000
1.994,196.000,203.500,218.000,178.500
1.995,195.500,203.000,217.000,177.500
1.996,196.000,203.500,217.000,177.500
1.997,196.000,203.000,215.500,177.000
1.998,196.500,203.000,215.500,177.000
1.999,196.000,202.500,214.500,176.500
2.000,196.000,203.000,215.000,176.500
2.001,196.000,203.000,214.500,176.000
2.002,196.000,203.500,215.000,176.500
2.003,196.000,203.000,214.500,177.000
2.004,196.000,203.000,215.000,178.000
2.005,196.000,202.500,215.000,178.500
2.006,196.500,203.000,215.500,179.500
2.007,196.500,202.500,215.500,179.500
2.008,197.000,203.000,216.000,180.500
2.009,197.000,203.500,216.000,181.000
2.010,197.500,204.000,216.000,181.500
2.011,197.000,204.000,215.500,181.000
2.012,197.500,204.500,215.500,181.000
2.013,197.000,203.500,214.500,180.500
2.014,197.500,203.500,214.000,180.000
2.015,197.500,202.500,213.000,179.500
2.016,198.000,202.000,212.500,179.500
2.017,197.500,200.500,212.000,179.000
2.018,198.000,200.000,211.500,179.500
2.019,198.000,199.000,211.000,179.500
2.020,198.000,198.500,211.000,180.000
2.021,198.000,197.500,210.500,180.000
2.022,198.500,197.500,210.500,180.500
2.023,198.500,196.500,210.000,180.500
2.024,199.000,196.500,210.000,181.000
2.025,198.500,196.500,209.500,180.500
2.026,198.500,197.000,210.000,181.000
2.027,198.000,197.000,209.500,181.000
2.028,198.000,198.000,209.500,181.500
2.029,197.500,198.000,208.500,181.000
2.030,198.000,199.000,208.500,181.500
2.031,197.500,199.000,208.000,181.000
2.032,197.500,199.500,207.500,181.000
2.033,197.000,199.500,207.000,180.500
2.034,197.500,200.000,207.000,181.000
2.035,197.000,200.000,207.000,180.500
2.036,197.000,200.500,208.000,181.500
2.037,196.500,200.000,208.000,181.500
2.038,196.500,200.500,209.000,182.500
2.039,196.000,200.500,209.000,182.500
2.040,196.000,200.500,210.000,183.500
2.041,195.500,200.000,210.000,183.500
2.042,196.000,200.000,210.500,183.500
2.043,195.500,199.500,210.000,183.000
2.044,195.500,200.000,211.000,183.000
2.045,195.000,199.500,211.000,182.500
2.046,195.000,200.000,212.000,183.000
2.047,194.500,200.000,212.000,182.500
2.048,194.500,200.500,213.000,182.500
2.049,194.500,200.000,213.000,182.000
2.050,195.000,200.000,213.000,181.500
2.051,195.000,199.000,212.000,181.000
2.052,195.500,198.500,212.000,180.500
2.053,195.500,197.000,211.000,179.000
2.054,196.000,196.500,210.500,178.500
2.055,195.500,195.500,210.000,177.500
2.056,195.500,195.000,211.000,177.500
2.057,195.000,194.500,211.500,177.000
2.058,195.000,194.500,212.500,176.500
2.059,194.500,194.000,213.000,176.000
2.060,195.000,194.500,214.000,176.000
2.061,195.000,194.000,214.500,176.000
2.062,195.500,195.000,215.000,176.500
2.063,195.500,195.000,215.500,176.500
2.064,196.000,195.500,216.500,177.000
2.065,195.500,195.500,216.500,176.500
2.066,196.500,196.000,217.000,176.500
2.067,196.500,195.500,216.000,175.500
2.068,197.500,195.500,215.500,175.000
2.069,197.500,194.500,214.000,173.500
2.070,198.500,194.500,213.000,172.500
2.071,198.500,194.000,211.000,171.000
2.072,199.000,193.500,210.500,170.000
2.073,199.000,193.000,209.500,168.500
2.074,199.500,192.500,209.000,167.500
2.075,199.500,192.000,208.500,166.000
2.076,200.500,192.000,208.500,165.000
2.077,200.000,191.500,207.500,164.000
2.078,200.500,192.000,207.000,163.000
2.079,200.000,192.000,206.500,162.000
2.080,200.000,192.500,206.000,161.500
2.081,199.500,193.000,205.000,160.000
2.082,199.500,193.500,205.000,159.000
2.083,198.500,193.000,204.000,157.500
2.084,198.500,193.000,203.500,157.000
2.085,197.500,192.000,202.500,155.500
2.086,197.500,192.500,202.500,155.000
2.087,196.500,192.000,201.500,153.500
2.088,197.000,192.500,202.000,153.500
2.089,197.500,192.500,202.000,152.500
2.090,198.500,193.500,203.000,153.000
2.091,199.000,193.000,203.000,152.500
2.092,199.500,193.500,203.500,152.500
2.093,199.500,193.000,203.500,152.000
2.094,200.000,192.500,203.500,152.500
2.095,200.000,191.500,203.000,152.000
2.096,200.500,191.500,203.000,152.500
2.097,200.500,191.000,203.000,152.000
2.098,201.500,192.000,203.500,152.500
2.099,202.000,192.000,203.500,153.000
2.100,203.000,193.000,204.000,153.500
2.101,203.500,193.500,204.500,154.000
2.102,205.000,194.000,205.500,154.500
2.103,205.000,194.000,206.000,154.500
2.104,205.500,195.000,207.500,155.000
2.105,205.500,195.500,207.500,155.500
2.106,205.500,196.500,208.500,156.500
2.107,205.000,196.500,208.500,157.000
2.108,205.000,197.500,208.500,158.000
2.109,204.500,197.500,208.000,158.500
2.110,205.000,197.500,208.000,159.500
2.111,205.000,197.000,207.000,159.500
2.112,205.500,197.000,206.500,160.500
2.113,206.000,197.000,206.000,161.000
2.114,207.000,197.500,206.000,161.500
2.115,207.500,197.500,205.500,161.500
2.116,209.000,198.000,206.000,162.500
2.117,209.000,198.000,205.500,162.500
2.118,209.500,198.000,205.500,163.000
2.119,209.000,197.000,205.000,163.500
2.120,209.000,196.500,204.500,164.500
2.121,208.000,195.500,203.500,165.000
2.122,208.000,195.000,203.000,166.500
2.123,207.500,194.500,202.000,167.500
2.124,208.000,194.500,201.500,169.000
2.125,207.500,194.000,200.000,169.500
2.126,207.500,194.000,199.500,170.500
2.127,206.500,194.000,198.000,170.500
2.128,207.000,194.500,197.500,170.500
2.129,206.500,194.000,196.500,169.000
2.130,207.000,193.500,196.000,168.500
2.131,206.500,192.500,194.500,166.500
2.132,207.000,192.500,194.000,165.500
2.133,206.500,191.500,192.500,163.500
2.134,207.000,191.500,192.000,162.500
2.135,206.500,190.500,190.500,161.500
2.136,207.500,191.000,190.500,161.500
2.137,208.000,190.500,190.000,161.000
2.138,209.500,191.500,190.500,161.000
2.139,211.000,191.500,190.500,161.500
2.140,213.000,193.000,191.000,162.500
2.141,214.500,193.500,191.500,163.000
2.142,216.000,194.500,193.000,164.000
2.143,217.000,195.000,193.500,165.000
2.144,218.500,195.500,194.500,166.000
2.145,219.000,195.500,195.000,166.500
2.146,220.000,195.500,196.000,166.500
2.147,220.500,195.000,196.000,166.500
2.148,221.000,195.000,197.000,167.000
2.149,221.000,194.000,197.000,166.500
2.150,221.500,194.000,197.500,167.000
2.151,221.000,193.500,197.000,167.000
2.152,221.000,193.500,197.000,167.000
2.153,220.500,193.000,196.000,166.000
2.154,220.500,193.000,195.000,165.500
2.155,220.500,193.000,193.500,164.000
2.156,221.000,193.500,192.500,163.500
2.157,221.000,193.500,191.000,162.500
2.158,221.500,194.000,190.500,162.500
2.159,222.000,194.000,189.500,162.000
2.160,223.500,194.500,189.500,162.500
2.161,224.000,194.500,189.000,162.500
2.162,225.500,195.000,189.500,163.500
2.163,226.000,194.500,189.000,163.500
2.164,227.500,195.000,189.500,164.000
2.165,228.000,194.500,189.000,164.000
2.166,229.000,195.000,189.500,164.500
2.167,229.000,194.500,189.000,164.500
2.168,230.000,195.000,189.500,164.500
2.169,230.000,195.000,189.000,163.500
2.170,230.500,195.000,189.500,163.500
2.171,230.000,194.500,189.000,162.000
2.172,230.500,195.000,189.500,161.500
2.173,230.000,194.500,189.000,160.000
2.174,230.000,195.000,189.000,160.000
2.175,229.500,195.000,188.500,159.000
2.176,229.500,195.500,189.000,159.000
2.177,229.000,195.000,188.500,158.500
2.178,229.000,195.500,189.500,158.500
2.179,228.500,195.000,189.500,158.000
2.180,229.000,195.000,190.500,158.000
2.181,228.500,194.500,191.000,157.000
2.182,228.500,195.000,192.000,157.000
2.183,228.000,194.500,192.500,156.500
2.184,228.500,195.000,194.000,157.000
2.185,228.000,194.500,194.500,156.500
2.186,228.000,195.500,195.000,156.500
2.187,227.000,195.500,195.000,156.000
2.188,227.500,196.000,195.000,156.000
2.189,227.000,196.000,194.500,155.500
2.190,227.000,196.500,194.500,154.500
2.191,226.500,196.500,194.000,153.000
2.192,227.000,196.500,194.000,152.500
2.193,227.000,196.000,193.500,151.000
2.194,227.500,196.000,194.000,150.500
2.195,226.500,196.000,193.500,150.000
2.196,226.500,196.500,194.000,150.000
2.197,226.000,196.500,193.500,149.500
2.198,226.000,197.000,194.000,150.500
2.199,225.000,197.000,194.000,150.500
2.200,225.000,197.000,194.000,151.000
2.201,224.500,196.500,193.500,151.000
2.202,225.000,196.500,194.000,151.000
2.203,225.500,196.000,193.500,150.500
2.204,226.500,196.000,193.500,150.500
2.205,227.000,195.500,193.000,150.000
2.206,228.500,196.000,193.500,150.000
2.207,229.000,195.500,193.000,149.500
2.208,230.000,195.500,193.000,149.500
2.209,230.000,195.000,193.000,148.500
2.210,230.500,195.000,193.000,148.000
2.211,230.000,194.000,193.000,146.500
2.212,229.500,193.500,193.000,145.500
2.213,228.500,192.000,192.000,143.500
2.214,227.500,191.000,192.000,142.000
2.215,226.000,189.000,191.000,140.000
2.216,224.500,188.000,190.000,138.000
2.217,223.000,186.500,189.000,136.000
2.218,222.000,186.000,188.500,135.000
2.219,220.500,185.500,188.000,134.000
2.220,220.500,186.000,188.500,134.000
2.221,219.500,186.000,188.500,134.000
2.222,220.000,187.000,189.500,135.500
2.223,220.000,187.000,190.000,136.500
2.224,221.000,188.000,191.000,138.000
2.225,221.000,188.000,191.500,138.500
2.226,221.000,188.500,192.500,139.500
2.227,220.500,188.500,193.000,139.500
2.228,221.000,189.000,194.000,140.000
2.229,220.500,189.500,194.000,140.000
2.230,220.500,190.000,194.500,140.500
2.231,220.000,190.000,194.500,140.000
2.232,220.500,190.500,194.500,139.500
2.233,220.000,190.500,194.000,138.500
2.234,220.000,190.500,194.000,138.000
2.235,219.500,190.500,193.500,137.000
2.236,219.500,190.500,194.000,136.500
2.237,219.500,190.500,194.000,136.000
2.238,219.500,191.000,194.500,136.000
2.239,219.500,191.500,194.500,136.000
2.240,220.000,192.000,195.500,137.000
2.241,220.000,192.500,196.000,137.500
2.242,221.000,193.500,197.500,139.000
2.243,221.000,194.000,198.500,140.500
2.244,222.000,195.000,200.500,142.500
2.245,222.000,195.000,202.000,144.000
2.246,222.500,196.000,204.500,146.500
2.247,222.000,196.500,205.500,148.500
2.248,222.000,197.000,207.000,151.000
2.249,221.000,196.500,207.500,152.500
2.250,220.500,196.000,208.000,154.000
2.251,219.500,195.000,207.000,155.000
2.252,219.000,193.500,206.500,156.000
2.253,218.000,191.500,204.500,156.500
2.254,218.000,190.000,203.000,156.500
2.255,217.500,188.000,200.500,156.000
2.256,217.500,186.500,198.500,155.500
2.257,217.000,184.500,195.500,154.000
2.258,217.000,183.500,193.500,153.000
2.259,216.500,181.500,190.500,151.000
2.260,216.500,180.000,187.500,149.500
2.261,215.500,177.500,183.500,147.000
2.262,215.000,175.500,179.000,144.500
2.263,213.500,172.500,173.500,141.000
2.264,212.500,170.000,167.500,137.500
2.265,210.500,166.500,160.500,133.000
2.266,209.000,163.000,153.000,128.000
2.267,207.000,158.500,144.500,121.500
2.268,205.500,154.500,136.500,115.500
2.269,203.500,150.000,127.500,108.500
2.270,202.500,147.000,120.000,103.000
2.271,201.000,143.500,113.000,97.000
2.272,200.500,141.000,107.000,92.500
2.273,200.000,138.000,101.000,87.500
2.274,200.000,136.500,96.500,84.000
2.275,199.000,134.500,92.000,80.500
2.276,199.500,133.500,89.000,78.500
2.277,199.000,132.500,87.500,77.000
2.278,200.000,133.500,88.000,77.000
2.279,200.000,135.000,90.000,78.500
2.280,201.500,138.000,95.000,82.000
2.281,202.500,142.000,101.500,86.000
2.282,204.500,148.000,110.500,91.000
2.283,206.500,154.000,120.000,96.000
2.284,209.000,161.500,131.000,101.500
2.285,210.500,168.000,141.000,106.500
2.286,213.000,175.000,151.500,111.500
2.287,214.500,180.500,160.500,115.500
2.288,216.500,186.000,169.500,120.000
2.289,217.500,190.500,176.500,123.500
2.290,219.000,194.500,183.500,127.500
2.291,219.500,197.000,188.500,130.000
2.292,220.500,199.500,193.500,133.000
2.293,221.000,201.500,196.500,134.500
2.294,222.000,203.000,199.000,137.000
2.295,222.000,204.000,200.500,138.500
2.296,222.500,205.000,202.000,141.000
2.297,222.000,205.000,203.000,143.000
2.298,222.000,206.000,204.500,146.000
2.299,221.500,206.000,205.500,148.500
2.300,222.000,206.500,206.500,151.500
2.301,221.500,206.000,207.500,153.500
2.302,221.500,206.500,208.500,156.000
2.303,221.500,206.500,208.500,157.500
2.304,222.000,206.500,209.500,159.000
2.305,222.000,206.000,209.000,159.500
2.306,222.500,205.500,208.500,160.000
2.307,222.000,204.500,207.500,160.000
2.308,222.000,204.000,206.500,160.500
2.309,221.500,203.000,205.500,160.500
2.310,222.000,203.000,205.000,161.500
2.311,222.000,202.000,204.000,162.500
2.312,222.500,202.500,204.500,164.000
2.313,222.000,202.000,204.000,165.000
2.314,222.500,202.500,204.500,166.500
2.315,222.000,202.000,204.000,167.500
2.316,222.000,202.500,204.500,169.000
2.317,221.500,202.500,204.000,170.000
2.318,221.500,203.000,204.000,171.500
2.319,221.000,202.500,203.000,172.000
2.320,221.000,202.500,202.500,172.500
2.321,220.000,202.000,201.500,172.500
2.322,220.000,202.000,201.000,173.000
2.323,219.000,201.000,199.500,172.500
2.324,218.500,200.500,199.000,172.500
2.325,217.500,200.000,198.000,172.000
2.326,217.000,199.500,198.000,172.000
2.327,216.000,198.500,197.000,171.500
2.328,216.000,198.500,197.000,171.500
2.329,215.000,198.000,196.500,171.000
2.330,215.000,198.500,196.000,170.500
2.331,214.000,198.000,195.000,169.500
2.332,213.500,198.500,194.500,169.000
2.333,212.500,198.000,193.000,167.500
2.334,211.500,198.000,192.500,167.000
2.335,209.500,197.000,191.500,166.000
2.336,208.500,196.500,190.500,165.500
2.337,206.000,194.500,188.500,164.500
2.338,204.500,192.500,187.500,164.500
2.339,202.500,190.500,186.500,164.500
2.340,201.500,189.500,186.500,165.000
2.341,200.500,189.000,187.500,166.000
2.342,202.000,191.000,191.000,169.000
2.343,203.500,193.500,195.000,172.000
2.344,206.500,198.500,200.000,176.000
2.345,210.000,203.000,205.000,179.000
2.346,214.500,208.000,210.000,182.500
2.347,218.000,212.000,214.000,184.000
2.348,222.500,216.500,217.000,185.500
2.349,226.000,219.500,219.000,185.000
2.350,230.000,222.000,220.500,184.500
2.351,232.500,223.000,220.000,182.500
2.352,235.000,223.500,219.500,180.500
2.353,236.000,222.500,217.500,177.500
2.354,236.500,221.000,215.000,175.500
2.355,236.000,217.500,212.000,172.500
2.356,234.500,214.500,209.500,171.000
2.357,232.000,210.500,206.000,169.000
2.358,229.500,207.000,204.000,168.000
2.359,226.500,203.000,202.000,166.500
2.360,224.000,199.500,200.500,166.000
2.361,221.500,196.000,199.000,164.500
2.362,219.500,194.000,198.000,164.000
2.363,218.000,191.500,196.500,163.000
2.364,217.000,190.000,195.500,162.500
2.365,216.000,188.500,194.500,161.500
2.366,216.000,188.000,194.000,161.500
2.367,215.000,187.500,193.500,161.000
2.368,215.500,187.500,194.500,162.000
2.369,215.000,187.500,195.000,162.500
2.370,215.000,188.000,196.000,163.500
2.371,215.000,188.000,197.000,164.000
2.372,215.500,188.500,198.000,165.000
2.373,215.000,188.000,198.000,165.500
2.374,215.500,188.500,198.500,166.000
2.375,215.000,188.500,198.500,166.000
2.376,215.500,189.000,198.500,166.500
2.377,215.000,188.500,198.000,166.500
2.378,215.000,189.000,198.000,167.500
2.379,214.000,189.000,197.000,167.500
2.380,214.000,189.500,197.000,168.500
2.381,213.500,189.000,196.500,168.500
2.382,213.000,189.000,196.500,169.000
2.383,212.500,188.500,196.500,169.000
2.384,212.500,189.000,196.500,170.000
2.385,212.000,189.000,196.500,170.000
2.386,212.500,190.000,197.000,170.500
2.387,212.500,190.000,197.000,170.500
2.388,213.000,191.000,197.500,171.500
2.389,213.000,191.500,197.500,171.000
2.390,213.500,192.000,197.500,171.500
2.391,213.000,191.500,197.000,170.500
2.392,212.500,192.000,197.500,170.000
2.393,211.500,191.500,196.500,169.000
2.394,211.500,191.500,196.500,168.500
2.395,211.000,190.500,196.000,167.500
2.396,211.500,190.500,196.500,167.500
2.397,211.500,190.000,196.000,167.000
2.398,212.000,191.000,196.500,167.500
2.399,212.000,191.000,196.500,167.000
2.400,213.000,192.000,197.000,167.500
2.401,212.500,192.000,197.000,167.500
2.402,213.000,192.500,197.500,168.500
2.403,212.500,192.500,198.000,169.000
2.404,212.500,193.500,199.000,170.500
2.405,211.500,193.500,199.000,171.500
2.406,211.500,194.000,200.000,172.500
2.407,211.000,194.000,200.000,173.000
2.408,211.000,195.000,200.500,173.500
2.409,210.000,194.500,200.500,173.000
2.410,210.000,195.000,200.500,173.000
2.411,209.500,195.000,199.500,172.000
2.412,209.000,195.500,199.500,171.500
2.413,208.500,195.000,198.500,170.500
2.414,208.000,195.000,198.500,169.500
2.415,207.500,194.000,197.500,168.500
2.416,207.500,194.000,197.500,168.000
2.417,207.500,193.500,197.000,167.000
2.418,207.500,193.000,197.000,167.000
2.419,207.500,192.500,196.500,166.500
2.420,208.000,192.500,196.500,166.500
2.421,207.500,191.500,195.500,166.000
2.422,208.000,191.500,195.000,166.500
2.423,207.000,190.500,194.000,166.000
2.424,207.000,190.500,193.500,166.000
2.425,206.500,189.500,192.500,165.500
2.426,207.000,189.000,192.000,165.000
2.427,207.000,188.000,191.000,164.000
2.428,207.000,188.000,190.500,163.000
2.429,206.500,187.000,189.500,161.500
2.430,207.000,187.000,189.000,160.500
2.431,206.500,186.500,188.000,159.000
2.432,207.000,186.500,187.500,158.500
2.433,206.500,186.000,186.500,157.500
2.434,206.500,186.000,186.000,157.500
2.435,206.000,186.000,185.000,157.000
2.436,206.000,186.500,185.000,157.000
2.437,205.500,186.000,184.000,157.000
2.438,205.000,186.500,184.000,157.500
2.439,204.500,186.500,183.500,157.500
2.440,205.500,187.000,184.000,158.000
2.441,205.500,187.000,183.500,157.500
2.442,207.000,187.500,184.000,158.000
2.443,207.500,187.500,184.000,158.000
2.444,208.500,188.000,184.500,158.500
2.445,209.000,187.500,184.000,158.500
2.446,209.500,188.000,184.500,159.000
2.447,209.000,187.500,184.500,158.500
2.448,210.000,188.000,184.500,158.500
2.449,210.000,187.500,184.000,157.500
2.450,210.500,187.500,184.500,157.000
2.451,210.000,186.500,184.000,156.000
2.452,210.000,187.000,184.000,155.000
2.453,209.000,186.500,183.500,153.500
2.454,209.000,187.000,183.500,152.500
2.455,208.000,187.000,182.500,151.500
2.456,208.000,187.500,182.500,150.500
2.457,208.000,187.500,182.000,149.500
2.458,208.500,188.500,182.000,149.000
2.459,209.000,188.500,181.500,148.000
2.460,209.500,188.500,181.500,147.500
2.461,210.000,188.000,181.000,146.500
2.462,210.500,188.000,181.000,146.000
2.463,210.500,187.000,181.000,145.000
2.464,211.000,187.000,181.000,144.500
2.465,211.000,186.000,181.000,143.500
2.466,211.000,186.000,181.500,142.500
2.467,210.500,185.500,181.000,141.500
2.468,210.500,185.500,181.000,141.000
2.469,210.000,185.000,180.500,140.000
2.470,210.500,185.000,180.000,139.000
2.471,210.000,184.500,179.000,137.500
2.472,210.500,184.500,178.000,136.500
2.473,210.000,183.500,176.500,134.500
2.474,210.500,183.000,176.000,133.500
2.475,210.000,182.000,175.000,131.500
2.476,209.500,181.000,174.500,130.500
2.477,209.000,180.000,173.500,129.000
2.478,208.500,179.500,173.500,128.000
2.479,208.000,178.500,173.000,126.500
2.480,208.000,178.000,173.000,126.000
2.481,207.500,178.000,172.500,125.000
2.482,207.500,178.500,172.000,125.500
2.483,207.500,178.500,171.500,125.000
2.484,208.000,179.000,171.500,125.500
2.485,208.000,179.000,171.000,126.000
2.486,209.000,179.500,171.500,126.500
2.487,208.500,179.500,171.500,127.000
2.488,209.000,179.500,172.000,127.000
2.489,208.500,179.000,171.500,126.500
2.490,209.000,179.000,171.500,126.500
2.491,208.000,177.500,171.000,125.500
2.492,208.000,177.000,170.500,124.500
2.493,207.500,176.000,169.000,123.500
2.494,207.500,176.000,168.500,122.500
2.495,206.500,175.000,167.500,121.000
2.496,206.500,175.000,167.000,120.500
2.497,205.500,174.500,166.000,119.500
2.498,205.500,175.000,165.500,119.000
2.499,204.500,174.500,164.500,118.500
2.500,204.000,174.000,164.000,118.000
2.501,203.000,172.500,162.500,117.500
2.502,202.500,171.500,162.000,117.500
2.503,201.500,170.000,160.500,117.500
2.504,201.000,169.500,160.000,118.000
2.505,200.000,168.000,159.500,118.500
2.506,200.000,168.000,160.000,119.500
2.507,199.500,168.000,161.000,120.000
2.508,200.000,168.500,162.500,120.500
2.509,200.000,168.500,163.500,121.000
2.510,201.000,169.000,165.500,121.500
2.511,201.000,169.500,166.500,121.500
2.512,202.000,170.000,168.000,122.000
2.513,202.000,170.000,168.500,121.500
2.514,202.500,171.000,169.500,122.000
2.515,202.500,171.000,170.000,121.500
2.516,202.500,171.500,171.000,122.000
2.517,202.000,171.500,171.500,121.500
2.518,202.500,172.000,172.500,122.000
2.519,202.500,172.000,173.000,122.000
2.520,203.500,173.000,174.000,123.000
2.521,204.000,173.000,174.500,123.000
2.522,205.500,174.000,175.500,124.000
2.523,206.000,174.000,176.000,124.000
2.524,207.000,174.500,176.500,124.500
2.525,207.000,174.000,176.500,124.500
2.526,207.500,174.000,177.000,125.000
2.527,207.500,173.000,177.000,125.000
2.528,207.500,173.000,177.500,125.000
2.529,207.500,172.000,177.500,125.000
2.530,207.500,172.000,178.000,125.500
2.531,206.500,171.500,178.500,125.000
2.532,206.500,171.500,179.500,125.500
2.533,205.500,171.000,180.000,126.000
2.534,206.000,171.000,181.500,127.000
2.535,206.000,171.000,182.500,127.500
2.536,206.500,171.500,185.000,129.500
2.537,207.000,171.500,186.500,130.500
2.538,208.000,172.500,188.500,132.500
2.539,208.500,173.000,190.000,133.500
2.540,210.000,174.500,192.000,134.500
2.541,210.000,175.000,193.000,134.500
2.542,211.000,175.500,194.500,135.500
2.543,211.000,176.000,195.000,135.500
2.544,212.000,176.500,196.000,136.000
2.545,212.000,176.000,196.500,136.000
2.546,212.500,176.500,198.000,136.500
2.547,212.500,176.500,198.000,137.000
2.548,213.000,177.000,199.000,138.000
2.549,212.500,177.000,199.500,138.500
2.550,213.000,177.000,200.500,139.500
2.551,212.000,176.500,201.500,140.500
2.552,212.000,176.500,202.500,141.500
2.553,211.500,176.000,203.500,142.000
2.554,211.500,176.000,204.500,143.000
2.555,210.500,175.500,205.500,143.000
2.556,210.500,175.500,206.500,144.000
2.557,210.000,175.500,207.000,144.000
2.558,210.000,176.000,208.000,144.500
2.559,210.000,176.000,208.500,144.500
2.560,210.500,176.500,209.000,145.000
2.561,210.500,176.500,209.000,145.000
2.562,211.500,177.000,209.000,145.500
2.563,211.500,176.500,208.500,145.500
2.564,212.500,177.000,208.000,146.500
2.565,212.500,177.000,207.500,147.000
2.566,213.500,177.500,208.000,148.000
2.567,214.000,177.500,208.000,148.500
2.568,214.500,178.000,208.500,149.500
2.569,214.500,178.500,209.000,149.500
2.570,215.000,179.500,209.500,150.000
2.571,214.500,180.000,210.000,150.000
2.572,214.500,181.500,210.500,150.500
2.573,214.000,182.000,210.500,150.000
2.574,214.000,183.000,211.500,151.000
2.575,213.500,183.500,211.500,151.500
2.576,214.000,184.500,212.000,152.500
2.577,213.000,184.500,211.500,153.000
2.578,213.000,185.500,212.000,154.000
2.579,212.500,186.000,212.000,154.500
2.580,213.000,187.000,212.500,155.000
2.581,212.500,187.500,212.000,155.000
2.582,213.000,188.500,212.000,155.500
2.583,212.500,189.000,211.000,155.500
2.584,213.000,189.500,211.000,155.500
2.585,212.500,189.500,210.000,155.000
2.586,212.500,190.500,209.500,155.000
2.587,212.000,190.500,208.500,155.000
2.588,211.500,191.000,208.500,155.000
2.589,211.000,191.000,207.500,155.000
2.590,211.500,191.000,207.500,155.500
2.591,211.000,190.500,207.000,156.000
2.592,212.000,190.500,207.500,156.500
2.593,212.000,190.000,207.000,156.500
2.594,212.500,189.500,207.500,157.000
2.595,212.500,189.000,207.500,157.000
2.596,213.500,188.500,208.000,157.000
2.597,213.500,188.000,208.000,157.000
2.598,214.000,188.500,209.000,158.000
2.599,214.000,188.500,209.500,158.500
2.600,214.500,189.000,210.500,160.000
2.601,214.000,189.500,210.500,161.000
2.602,214.000,190.500,211.500,162.500
2.603,213.500,191.000,212.000,163.500
2.604,214.000,192.000,212.500,164.500
2.605,213.500,192.000,212.000,164.500
2.606,214.000,192.500,212.000,165.000
2.607,214.000,192.000,211.000,164.500
2.608,215.000,192.500,211.000,165.000
2.609,215.000,192.000,209.500,164.500
2.610,215.000,192.500,209.000,164.500
2.611,214.500,192.500,207.500,164.500
2.612,215.000,193.000,207.500,164.500
2.613,214.500,193.000,206.500,164.500
2.614,214.500,194.000,206.500,165.500
2.615,214.000,194.000,206.500,165.500
2.616,214.500,195.000,207.000,166.500
2.617,214.000,195.000,207.000,167.000
2.618,214.000,196.000,207.500,167.500
2.619,213.500,196.000,207.000,168.000
2.620,214.000,196.500,207.000,168.500
2.621,213.500,196.500,206.000,168.500
2.622,213.500,196.500,205.500,169.000
2.623,213.000,196.000,205.000,169.000
2.624,213.500,196.000,205.000,169.500
2.625,213.000,195.000,204.000,169.000
2.626,213.000,194.500,204.000,169.000
2.627,212.500,193.500,203.500,168.000
2.628,213.000,193.500,204.000,168.000
2.629,212.500,193.000,203.500,167.000
2.630,212.500,193.000,203.500,167.000
2.631,212.500,192.500,203.500,166.500
2.632,213.000,193.000,204.500,167.000
2.633,213.000,192.500,204.500,167.000
2.634,214.000,193.000,205.500,168.000
2.635,214.000,192.500,205.500,168.000
2.636,214.500,192.500,206.500,168.500
2.637,214.000,191.500,206.500,168.000
2.638,213.500,191.500,207.000,169.000
2.639,212.500,191.000,206.500,169.000
2.640,212.500,191.000,206.500,170.000
2.641,211.500,190.500,206.000,170.000
2.642,211.500,191.000,205.500,170.000
2.643,210.500,190.500,204.500,169.500
2.644,210.500,190.500,204.000,170.000
2.645,209.500,189.500,203.000,169.500
2.646,209.500,189.500,203.000,169.500
2.647,209.000,189.000,202.000,169.500
2.648,210.000,189.500,202.000,170.000
2.649,210.000,189.500,201.500,170.000
2.650,211.500,189.500,201.500,171.000
2.651,212.000,189.000,200.500,171.000
2.652,213.000,189.000,200.500,171.500
2.653,213.000,188.500,200.000,171.500
2.654,213.000,188.000,200.000,171.500
2.655,213.000,186.500,199.500,171.500
2.656,213.000,186.000,199.500,172.000
2.657,213.000,185.000,199.000,172.000
2.658,213.000,184.500,199.000,172.500
2.659,213.000,184.000,198.500,172.500
2.660,213.500,184.000,199.000,173.000
2.661,213.500,183.500,199.000,173.000
2.662,214.000,183.500,199.500,173.500
2.663,213.500,183.000,199.500,173.000
2.664,213.500,183.500,200.000,173.500
2.665,213.000,183.000,200.000,173.000
2.666,213.500,183.500,200.500,173.500
2.667,213.000,183.000,200.000,173.000
2.668,213.500,183.000,200.000,173.000
2.669,213.500,182.500,199.000,172.500
2.670,214.000,183.000,198.500,172.000
2.671,213.500,182.500,198.000,171.000
2.672,214.000,182.500,197.500,170.500
2.673,214.000,182.500,197.000,169.500
2.674,214.500,182.500,197.000,169.500
2.675,214.000,182.500,196.500,169.000
2.676,215.000,183.000,197.000,169.000
2.677,215.000,183.000,196.500,168.500
2.678,215.500,184.000,197.000,168.500
2.679,215.500,184.000,197.000,168.000
2.680,216.000,184.000,197.500,168.500
2.681,215.500,183.500,197.500,168.000
2.682,215.500,184.000,198.000,168.000
2.683,214.500,183.500,198.000,167.500
2.684,214.500,184.000,198.500,168.000
2.685,214.000,184.000,199.000,168.000
2.686,213.500,184.500,199.500,168.500
2.687,213.000,185.000,199.500,168.500
2.688,213.000,185.500,200.500,169.000
2.689,212.500,185.500,200.000,169.000
2.690,212.500,186.000,200.500,169.000
2.691,212.000,185.500,200.500,168.500
2.692,212.000,185.500,201.000,168.500
2.693,211.500,184.500,201.000,167.500
2.694,211.500,183.500,201.500,167.500
2.695,211.000,182.500,201.500,167.000
2.696,211.000,181.500,202.000,167.000
2.697,211.000,180.500,201.500,166.000
2.698,211.500,180.000,201.500,166.000
2.699,211.500,179.500,201.000,165.500
2.700,212.000,179.500,201.000,166.000
2.701,212.000,179.000,200.000,165.500
2.702,212.500,179.500,200.000,166.000
2.703,212.000,180.000,199.000,166.000
2.704,212.000,180.500,199.500,166.500
2.705,211.500,181.000,199.000,167.000
2.706,212.000,182.000,200.000,167.500
2.707,211.500,182.500,200.000,168.000
2.708,211.500,183.500,201.000,169.000
2.709,211.000,184.500,201.500,170.000
2.710,211.000,185.500,202.500,171.000
2.711,210.000,186.000,202.500,171.500
2.712,210.000,187.500,203.500,172.500
2.713,209.000,188.000,203.500,173.000
2.714,208.500,188.500,204.500,173.500
2.715,208.000,188.500,204.500,174.000
2.716,208.000,189.000,205.000,174.500
2.717,207.500,189.000,205.500,175.000
2.718,207.500,189.000,206.500,175.500
2.719,207.000,188.500,207.000,176.000
2.720,207.500,188.000,208.000,176.500
2.721,207.000,187.000,208.000,176.500
2.722,207.000,187.000,208.500,177.000
2.723,206.500,186.000,208.500,177.000
2.724,206.500,186.000,209.000,177.000
2.725,206.000,185.000,209.000,177.000
2.726,206.500,185.000,210.000,177.500
2.727,206.500,184.500,210.000,177.500
2.728,207.000,184.500,210.500,178.000
2.729,206.500,184.000,210.500,177.500
2.730,207.000,184.000,211.000,178.000
2.731,207.000,183.000,211.000,177.500
2.732,207.500,182.500,211.500,177.500
2.733,207.000,182.000,211.500,177.000
2.734,207.000,182.000,212.000,176.500
2.735,206.500,181.500,212.000,175.500
2.736,207.000,182.000,212.500,174.500
2.737,207.000,181.500,212.000,173.500
2.738,207.000,181.000,211.500,172.500
2.739,206.500,179.500,210.500,171.500
2.740,206.500,178.000,210.000,170.500
2.741,205.500,176.000,208.500,169.500
2.742,204.500,174.000,207.500,169.000
2.743,202.500,171.500,206.500,168.000
2.744,200.500,169.500,206.000,168.000
2.745,197.500,167.000,204.500,167.000
2.746,195.500,165.500,204.000,166.500
2.747,193.000,164.000,203.500,166.000
2.748,192.000,164.000,204.500,167.000
2.749,191.500,165.000,206.500,168.500
2.750,193.500,168.500,210.500,172.000
2.751,196.000,173.000,215.000,175.500
2.752,199.500,179.500,221.000,179.500
2.753,203.000,185.000,226.000,183.000
2.754,207.000,191.500,231.000,186.500
2.755,210.000,196.000,234.500,188.000
2.756,213.000,200.500,238.000,189.000
2.757,215.500,203.500,239.500,188.500
2.758,218.000,205.500,240.500,188.000
2.759,219.000,205.500,239.500,185.500
2.760,220.000,205.500,239.000,183.500
2.761,219.000,203.500,237.000,180.000
2.762,217.500,201.500,235.000,177.500
2.763,215.000,198.500,232.000,174.500
2.764,212.000,195.500,229.500,172.500
2.765,208.500,191.500,227.000,170.500
2.766,205.500,189.000,225.500,169.500
2.767,202.500,186.000,223.500,168.500
2.768,200.500,184.500,223.000,168.000
2.769,199.000,183.000,221.500,167.500
2.770,198.500,183.000,221.500,167.500
2.771,198.000,183.000,221.500,167.000
2.772,198.000,184.000,222.000,167.500
2.773,197.500,184.500,222.000,167.000
2.774,197.500,185.000,222.500,167.500
2.775,197.500,185.000,223.000,167.000
2.776,198.000,185.500,224.000,167.500
2.777,197.500,185.500,224.500,167.000
2.778,198.500,186.000,225.500,167.500
2.779,198.500,186.000,225.500,167.000
2.780,199.500,186.500,226.500,167.500
2.781,199.500,186.500,226.500,167.500
2.782,200.000,187.000,227.500,168.000
2.783,199.500,186.500,227.500,168.000
2.784,200.000,187.000,228.500,168.500
2.785,200.000,187.000,229.000,168.000
2.786,200.000,187.500,230.500,168.000
2.787,200.000,187.500,231.000,167.000
2.788,200.000,187.500,232.500,167.000
2.789,199.000,187.000,232.500,166.000
2.790,199.000,187.000,233.500,165.500
2.791,198.500,186.000,233.000,164.500
2.792,199.000,186.000,233.500,164.000
2.793,198.500,185.500,233.500,163.500
2.794,198.500,185.500,234.000,164.000
2.795,198.500,185.000,234.500,164.000
2.796,198.500,185.500,235.500,164.500
2.797,197.500,185.500,236.000,164.000
2.798,197.500,186.000,237.500,164.500
2.799,197.000,185.500,238.000,164.500
2.800,197.000,186.000,239.000,165.000
2.801,197.000,185.500,239.000,165.500
2.802,197.500,185.500,239.500,166.000
2.803,197.500,185.000,239.000,166.500
2.804,198.500,185.000,239.000,167.500
2.805,198.500,184.500,238.500,168.000
2.806,198.500,184.500,239.500,169.000
2.807,198.500,184.500,239.500,169.500
2.808,198.500,184.500,240.500,171.000
2.809,198.000,184.000,241.000,171.500
2.810,198.000,184.000,241.500,172.500
2.811,197.000,183.500,241.000,172.500
2.812,197.000,183.500,241.500,173.000
2.813,196.500,183.000,241.500,173.000
2.814,196.000,183.000,243.000,174.000
2.815,194.500,182.500,243.500,174.000
2.816,193.500,183.000,245.500,175.000
2.817,191.500,183.000,246.500,175.000
2.818,190.000,183.500,248.000,176.000
2.819,187.500,183.500,249.000,176.500
2.820,186.000,184.500,250.000,178.000
2.821,184.000,184.500,250.000,178.500
2.822,183.000,185.000,251.000,179.500
2.823,181.500,185.000,250.500,179.500
2.824,180.500,185.500,251.000,180.500
2.825,179.000,185.000,250.500,180.500
2.826,178.500,185.500,250.500,181.500
2.827,177.500,185.500,250.500,182.000
2.828,177.000,186.500,251.500,183.000
2.829,176.000,186.500,252.000,184.000
2.830,176.000,186.500,252.500,185.000
2.831,175.500,186.000,252.500,185.500
2.832,175.500,185.500,252.500,186.500
2.833,175.000,184.500,252.000,186.500
2.834,175.000,184.500,251.500,187.000
2.835,174.500,183.500,250.500,187.000
2.836,175.000,183.500,250.000,187.500
2.837,174.500,182.500,249.000,187.000
2.838,175.500,182.500,249.000,187.500
2.839,175.500,181.500,248.000,187.500
2.840,176.000,181.500,247.500,188.000
2.841,176.000,181.000,247.000,188.500
2.842,176.500,181.500,247.500,189.500
2.843,176.500,181.000,247.000,190.000
2.844,177.000,181.000,247.500,191.500
2.845,176.500,181.000,247.000,192.000
2.846,177.000,181.000,247.500,192.500
2.847,177.000,181.000,247.500,192.500
2.848,177.500,182.000,248.500,193.500
2.849,177.500,182.500,248.500,193.500
2.850,178.000,183.500,249.500,194.000
2.851,177.500,183.500,249.500,194.500
2.852,178.000,184.500,250.500,195.000
2.853,178.000,184.500,250.500,195.500
2.854,179.000,185.000,251.500,196.500
2.855,179.000,184.500,251.500,196.500
2.856,180.000,185.000,252.500,198.000
2.857,180.500,184.500,252.500,198.500
2.858,181.000,185.500,253.000,200.000
2.859,181.000,185.500,253.000,200.500
2.860,181.500,186.000,254.000,202.000
2.861,181.500,186.000,253.500,202.500
2.862,181.500,186.500,254.000,203.500
2.863,181.000,186.000,254.000,203.500
2.864,181.000,186.500,254.500,204.500
2.865,180.500,186.000,254.000,204.500
2.866,180.500,186.000,254.500,205.000
2.867,180.000,186.000,254.500,205.000
2.868,180.000,186.500,255.000,205.500
2.869,179.000,186.000,255.000,205.000
2.870,178.500,186.500,255.500,205.500
2.871,177.500,186.500,255.000,205.000
2.872,177.500,187.000,255.500,205.000
2.873,177.000,187.000,255.500,205.000
2.874,177.000,188.000,256.500,205.500
2.875,176.500,188.000,257.000,205.500
2.876,176.500,189.000,258.500,207.000
2.877,176.500,189.000,259.000,207.000
2.878,176.500,189.500,260.500,207.500
2.879,176.000,189.000,260.500,207.500
2.880,176.000,189.000,262.000,207.500
2.881,175.500,188.000,262.500,207.000
2.882,176.000,188.500,263.500,207.500
2.883,176.000,188.000,263.500,207.500
2.884,177.000,189.000,264.500,208.500
2.885,177.000,189.000,265.000,208.500
2.886,177.500,189.500,265.500,209.500
2.887,177.500,189.500,265.500,209.500
2.888,177.000,190.000,266.500,209.500
2.889,176.000,189.500,266.500,209.000
2.890,175.500,189.500,267.000,208.500
2.891,174.500,189.000,266.500,207.000
2.892,174.000,189.000,267.000,206.500
2.893,173.000,188.500,266.000,205.000
2.894,172.500,188.500,266.000,204.500
2.895,171.500,188.000,265.000,203.000
2.896,171.500,188.000,265.000,203.000
2.897,171.000,188.500,264.500,203.000
2.898,171.000,189.500,265.000,203.500
2.899,171.000,190.500,265.000,204.000
2.900,172.000,192.000,266.000,205.000
2.901,172.500,192.500,266.000,205.500
2.902,173.500,193.500,266.500,206.500
2.903,173.500,193.500,266.000,206.000
2.904,174.000,194.000,266.500,206.500
2.905,174.000,194.000,266.500,205.500
2.906,174.000,194.500,267.000,205.500
2.907,173.500,194.500,266.500,204.500
2.908,173.500,195.000,267.500,204.500
2.909,173.000,194.500,268.000,203.500
2.910,173.000,194.500,269.500,204.000
2.911,172.500,194.000,270.000,203.500
2.912,172.500,194.500,271.000,203.500
2.913,172.000,194.000,271.000,203.000
2.914,172.000,194.000,272.000,203.500
2.915,172.000,193.500,272.500,203.000
2.916,172.000,194.000,273.500,203.000
2.917,171.500,193.500,273.500,202.500
2.918,171.500,193.500,274.500,202.500
2.919,171.000,193.000,275.000,202.000
2.920,171.000,193.000,276.500,202.000
2.921,170.500,192.500,277.000,202.000
2.922,170.500,192.500,278.500,202.500
2.923,170.000,192.000,279.000,202.500
2.924,170.000,192.000,281.000,202.500
2.925,169.500,191.500,281.500,202.000
2.926,170.000,191.500,283.000,202.500
2.927,169.500,190.500,283.500,202.000
2.928,169.500,190.500,285.000,202.000
2.929,169.000,190.000,285.000,201.500
2.930,169.000,190.000,285.500,201.000
2.931,168.000,189.000,285.000,200.000
2.932,168.000,189.000,285.000,200.000
2.933,167.000,188.500,284.000,199.000
2.934,167.000,188.500,284.000,198.500
2.935,166.000,188.000,283.500,197.500
2.936,166.000,188.500,283.500,197.500
2.937,165.500,188.000,283.000,196.500
2.938,165.500,188.500,283.500,197.000
2.939,165.000,188.500,283.500,196.500
2.940,165.000,189.000,285.000,197.500
2.941,164.500,189.000,285.500,198.000
2.942,164.500,189.500,287.000,199.000
2.943,164.000,189.500,287.500,199.500
2.944,164.000,190.000,289.000,200.500
2.945,163.000,189.500,289.500,201.000
2.946,163.000,190.000,291.000,202.000
2.947,162.500,189.500,291.000,202.000
2.948,162.500,190.000,292.500,202.500
2.949,161.500,189.500,293.000,202.000
2.950,161.500,190.000,294.000,202.500
2.951,161.000,190.000,294.000,202.000
2.952,161.000,190.500,294.500,202.500
2.953,160.500,190.500,294.500,202.000
2.954,160.500,191.000,295.500,202.500
2.955,159.500,190.500,296.000,202.500
2.956,159.500,191.500,297.500,204.000
2.957,159.000,191.500,298.500,205.000
2.958,159.500,192.000,301.000,207.500
2.959,159.000,192.000,302.500,209.500
2.960,159.500,192.500,304.500,212.000
2.961,159.000,192.500,305.000,213.500
2.962,159.500,192.500,305.500,215.000
2.963,159.000,192.000,305.000,216.000
2.964,158.500,191.500,305.000,217.000
2.965,157.500,190.500,304.000,217.000
2.966,157.000,190.000,303.000,217.500
2.967,156.000,189.000,300.500,216.500
2.968,156.000,188.500,299.000,216.500
2.969,155.000,187.000,296.000,215.000
2.970,154.000,186.000,294.000,214.500
2.971,152.500,184.500,290.500,212.500
2.972,151.500,183.000,287.500,211.000
2.973,150.000,180.500,283.500,208.500
2.974,149.000,178.000,279.000,206.500
2.975,147.500,174.000,273.500,202.500
2.976,146.500,170.500,268.000,198.500
2.977,145.000,166.000,260.500,192.500
2.978,144.000,162.000,254.000,187.000
2.979,142.500,157.500,246.000,180.500
2.980,142.000,153.500,239.500,175.000
2.981,141.000,149.500,232.500,169.000
2.982,140.500,146.000,227.000,164.500
2.983,139.500,143.000,221.500,160.000
2.984,138.500,140.500,217.500,156.500
2.985,137.500,138.500,213.000,152.500
2.986,136.500,137.000,209.500,149.500
2.987,135.000,135.000,205.500,146.000
2.988,134.000,134.000,202.500,143.500
2.989,132.500,133.500,200.500,141.500
2.990,131.500,134.000,200.500,141.000
2.991,130.500,135.500,202.000,141.500
2.992,130.500,138.000,206.500,143.500
2.993,130.000,141.500,212.500,146.000
2.994,131.000,146.000,220.500,150.000
2.995,131.500,151.000,229.500,153.000
2.996,133.000,156.500,239.500,157.500
2.997,134.000,161.500,249.000,161.000
2.998,136.000,167.500,259.000,165.000
2.999,137.500,172.000,267.500,168.000
3.000,139.500,177.500,276.500,172.500
3.001,140.500,181.500,283.000,176.000
3.002,141.500,185.500,290.000,180.500
3.003,141.500,188.000,295.000,184.500
3.004,142.000,191.000,299.500,188.000
3.005,142.000,193.000,303.000,191.000
3.006,142.000,195.000,306.000,194.000
3.007,141.500,197.000,308.500,196.000
3.008,141.500,199.000,311.000,198.500
3.009,141.000,201.000,313.000,200.500
3.010,141.000,203.000,316.000,203.500
3.011,140.500,204.000,318.000,205.500
3.012,140.000,206.000,320.500,207.500
3.013,139.500,207.000,321.500,208.500
3.014,139.000,208.000,322.500,209.500
3.015,138.000,208.000,322.500,210.000
3.016,138.000,208.500,323.500,210.500
3.017,137.500,208.000,323.000,210.500
3.018,138.000,208.000,323.500,211.000
3.019,137.500,207.500,323.500,211.500
3.020,138.000,207.500,324.500,212.500
3.021,137.500,207.000,324.500,213.000
3.022,138.000,207.000,325.500,215.000
3.023,137.500,206.500,325.500,216.000
3.024,137.000,206.000,326.000,218.000
3.025,136.000,205.000,325.500,219.000
3.026,136.000,204.500,326.000,220.500
3.027,135.000,203.500,326.000,221.000
3.028,135.000,203.500,326.500,222.500
3.029,135.000,203.000,326.500,223.000
3.030,135.000,203.500,327.500,224.000
3.031,135.000,203.500,328.000,224.000
3.032,135.000,204.000,329.000,224.500
3.033,134.500,204.000,329.500,224.000
3.034,134.000,204.000,330.500,223.500
3.035,133.000,203.500,330.500,222.500
3.036,132.500,203.500,331.000,222.500
3.037,131.500,202.500,331.000,222.000
3.038,131.500,202.500,331.500,222.500
3.039,131.000,202.000,331.000,223.000
3.040,131.000,202.000,332.000,224.000
3.041,130.500,202.000,332.000,225.000
3.042,130.500,202.500,332.500,226.000
3.043,130.000,202.500,332.500,226.500
3.044,129.500,203.500,333.500,227.500
3.045,128.500,204.000,333.500,227.500
3.046,128.000,205.000,334.500,227.500
3.047,127.000,205.000,334.500,227.000
3.048,127.000,206.000,336.000,227.000
3.049,126.000,206.000,336.000,226.500
3.050,126.000,206.500,337.500,226.500
3.051,125.500,206.000,337.500,226.500
3.052,125.500,206.500,339.000,227.000
3.053,124.500,206.500,339.500,227.000
3.054,124.500,207.000,341.500,228.000
3.055,124.500,206.500,342.500,228.000
3.056,124.500,207.000,344.000,229.500
3.057,124.500,207.000,345.000,229.500
3.058,125.000,207.500,346.500,230.500
3.059,125.000,207.000,347.500,230.500
3.060,125.500,207.500,349.000,231.500
3.061,125.500,207.500,349.500,231.500
3.062,125.500,207.500,350.500,232.000
3.063,125.000,206.500,350.500,232.000
3.064,125.500,206.500,351.000,232.500
3.065,125.000,205.500,350.500,232.500
3.066,124.500,206.000,351.000,233.500
3.067,123.500,205.500,350.500,234.000
3.068,123.500,206.000,351.000,234.500
3.069,122.500,206.000,351.000,234.500
3.070,122.500,206.500,351.500,235.000
3.071,122.000,206.500,351.500,234.500
3.072,122.000,207.000,352.500,234.500
3.073,122.000,206.500,352.500,234.000
3.074,122.500,206.500,353.500,234.500
3.075,122.500,206.500,353.500,234.000
3.076,123.000,206.500,355.000,235.000
3.077,123.000,206.500,356.000,235.000
3.078,123.000,206.500,357.500,236.500
3.079,123.000,206.000,358.500,237.000
3.080,123.000,206.500,360.000,239.000
3.081,122.000,206.000,360.500,240.000
3.082,121.500,206.500,362.000,242.000
3.083,121.000,206.500,362.500,243.500
3.084,120.500,207.000,363.500,245.500
3.085,120.000,207.000,364.000,246.500
3.086,120.000,207.500,365.000,247.500
3.087,119.500,207.000,365.000,248.000
3.088,119.500,207.500,366.000,249.000
3.089,119.000,207.500,366.000,249.000
3.090,119.000,207.500,367.000,250.000
3.091,118.000,207.000,367.000,250.000
3.092,117.500,207.000,368.500,251.000
3.093,116.500,206.500,369.000,251.500
3.094,115.500,207.000,370.500,253.000
3.095,114.500,206.500,371.000,253.500
3.096,113.500,207.000,372.500,255.000
3.097,112.500,207.000,373.000,255.500
3.098,112.500,207.500,373.500,257.500
3.099,111.500,207.000,373.500,258.500
3.100,111.000,208.000,374.000,260.000
3.101,110.000,208.000,374.000,261.000
3.102,109.500,209.000,375.500,263.000
3.103,109.000,210.000,376.000,263.500
3.104,108.500,211.000,377.500,265.000
3.105,107.500,211.500,378.000,265.500
3.106,107.000,212.500,379.500,266.000
3.107,105.500,212.000,379.500,266.000
3.108,105.000,212.500,380.000,266.500
3.109,104.000,212.000,379.000,266.500
3.110,104.000,212.000,379.500,267.500
3.111,103.000,211.000,379.000,267.500
3.112,102.500,210.500,379.500,268.000
3.113,102.000,209.500,379.000,268.000
3.114,101.500,209.500,380.000,268.000
3.115,100.500,208.500,380.500,268.000
3.116,100.500,209.000,382.500,268.500
3.117,100.500,209.000,383.500,269.000
3.118,101.000,210.500,385.500,270.500
3.119,101.500,211.500,387.000,271.500
3.120,102.000,213.500,389.500,274.000
3.121,102.000,215.000,391.000,275.500
3.122,102.500,216.500,393.000,277.500
3.123,102.500,217.500,394.000,278.500
3.124,102.500,218.000,396.000,280.000
3.125,101.500,218.000,396.500,280.500
3.126,101.000,218.000,397.500,281.000
3.127,100.000,217.000,397.000,280.000
3.128,99.500,216.500,398.000,279.000
3.129,98.500,215.000,397.000,276.500
3.130,97.000,214.500,397.000,275.000
3.131,95.500,213.000,395.500,272.500
3.132,94.000,213.000,394.500,270.500
3.133,92.000,212.000,392.500,268.500
3.134,91.500,212.000,392.000,267.500
3.135,90.500,211.000,390.500,266.000
3.136,90.000,211.000,390.500,265.500
3.137,89.500,210.500,389.500,264.500
3.138,89.500,210.500,390.000,265.000
3.139,89.500,210.000,389.500,264.500
3.140,90.000,210.000,390.500,265.500
3.141,90.000,210.000,391.000,266.000
3.142,90.500,211.000,392.000,267.000
3.143,90.500,211.000,392.000,267.000
3.144,90.500,211.500,393.000,267.500
3.145,89.500,211.000,393.000,267.500
3.146,89.000,211.000,393.500,267.500
3.147,88.000,210.500,392.500,267.000
3.148,87.000,210.000,392.500,266.500
3.149,84.500,208.000,391.500,265.500
3.150,82.500,206.500,391.500,265.000
3.151,80.000,204.000,390.000,264.000
3.152,77.500,203.000,390.500,264.500
3.153,75.500,202.000,390.500,265.000
3.154,75.000,203.500,393.500,267.000
3.155,75.500,205.500,397.000,270.000
3.156,77.500,210.000,402.500,274.500
3.157,80.500,214.500,408.000,278.500
