'Elapsed time','AECG1','AECG2','AECG3','AECG4'
'seconds','uV','uV','uV','uV'
0.000,252.000,99.500,268.000,255.000
0.001,252.000,99.500,268.000,255.000
0.002,252.000,100.000,268.500,255.000
0.003,252.500,100.500,269.500,256.000
0.004,253.000,101.500,270.500,257.500
0.005,254.500,103.000,272.500,259.000
0.006,256.000,105.000,275.000,261.500
0.007,258.000,107.500,278.000,264.500
0.008,260.000,110.500,281.500,268.000
0.009,261.500,113.000,285.000,271.500
0.010,262.000,114.500,287.000,273.500
0.011,261.500,114.500,287.500,274.000
0.012,259.500,113.000,286.500,272.000
0.013,257.000,110.000,283.500,269.000
0.014,254.000,106.000,279.000,264.500
0.015,250.500,102.000,273.500,259.000
0.016,247.000,97.500,268.500,253.500
0.017,244.000,94.000,264.000,249.000
0.018,242.500,91.500,260.500,246.000
0.019,241.500,90.000,259.000,244.500
0.020,241.500,89.500,258.000,244.000
0.021,241.500,89.500,258.000,244.000
0.022,242.000,90.000,258.000,244.500
0.023,242.500,91.000,259.000,245.500
0.024,243.500,92.000,261.000,247.500
0.025,245.000,94.000,263.000,250.000
0.026,246.500,96.000,266.000,253.000
0.027,248.500,99.000,269.500,257.000
0.028,251.000,102.000,273.000,261.500
0.029,252.500,104.500,277.000,265.000
0.030,253.500,106.000,279.000,267.500
0.031,253.000,106.000,279.500,268.000
0.032,251.500,104.500,278.000,266.500
0.033,248.500,101.500,274.500,263.000
0.034,245.000,97.500,269.500,257.500
0.035,241.000,93.000,263.500,251.500
0.036,237.500,88.500,258.500,246.000
0.037,235.000,85.000,254.000,241.500
0.038,233.500,83.000,251.500,239.000
0.039,233.500,82.500,250.000,237.500
0.040,234.000,82.500,250.000,237.500
0.041,235.000,83.500,251.000,238.000
0.042,236.500,85.000,252.500,239.500
0.043,238.000,87.000,254.000,241.500
0.044,239.500,89.000,256.500,243.500
0.045,241.500,91.500,259.000,246.500
0.046,243.500,94.000,262.500,250.000
0.047,245.500,97.500,266.000,254.000
0.048,248.000,100.500,269.500,258.000
0.049,249.500,103.500,273.000,262.000
0.050,250.000,105.000,275.000,264.000
0.051,249.500,105.000,275.000,264.000
0.052,247.500,103.000,273.000,262.000
0.053,244.500,99.500,269.500,258.000
0.054,240.500,95.000,264.000,252.500
0.055,236.500,90.000,258.500,247.000
0.056,233.000,85.500,253.000,241.500
0.057,230.500,82.500,249.000,237.500
0.058,229.000,80.500,246.500,235.000
0.059,228.500,79.500,245.000,234.000
0.060,228.500,79.500,245.000,233.500
0.061,229.000,80.000,245.500,234.000
0.062,230.000,80.500,246.500,235.000
0.063,231.500,82.000,248.000,236.500
0.064,233.000,84.000,250.000,239.000
0.065,235.000,86.500,253.000,242.000
0.066,237.000,89.500,256.500,245.500
0.067,240.000,93.000,260.500,249.500
0.068,242.500,96.500,265.500,254.500
0.069,245.000,100.000,269.500,258.500
0.070,246.500,102.000,272.000,261.500
0.071,246.500,102.500,272.500,262.000
0.072,245.000,101.000,271.000,260.500
0.073,242.500,98.000,267.500,257.000
0.074,239.000,93.500,262.500,252.000
0.075,235.000,89.000,257.000,246.500
0.076,232.000,84.500,252.000,241.500
0.077,230.000,81.500,248.500,237.500
0.078,228.500,80.000,246.000,235.500
0.079,228.500,79.000,245.000,234.000
0.080,228.500,79.500,245.000,234.000
0.081,229.500,80.000,245.500,234.500
0.082,230.500,81.000,247.000,235.500
0.083,231.500,82.500,248.500,237.000
0.084,233.000,84.000,250.500,239.500
0.085,234.500,86.000,253.500,242.000
0.086,236.500,89.000,256.500,245.500
0.087,238.500,92.000,260.000,249.000
0.088,241.000,95.000,263.500,253.000
0.089,242.500,97.500,267.000,256.500
0.090,243.500,99.000,268.500,258.500
0.091,243.000,99.000,269.000,259.000
0.092,241.000,97.000,267.000,257.000
0.093,238.000,93.500,263.000,252.500
0.094,234.000,89.000,258.000,247.000
0.095,230.000,84.000,252.500,241.000
0.096,226.500,79.000,247.000,235.500
0.097,224.000,75.500,242.500,231.000
0.098,222.000,73.500,239.500,228.500
0.099,221.500,72.500,238.000,227.000
0.100,222.000,72.500,238.000,227.000
0.101,223.000,73.500,238.500,227.500
0.102,224.000,74.500,240.000,228.500
0.103,226.000,76.500,242.000,230.500
0.104,227.500,78.500,244.000,233.000
0.105,229.500,81.000,247.000,235.500
0.106,232.000,83.500,250.000,239.000
0.107,234.000,87.000,253.500,242.500
0.108,236.000,90.000,257.500,246.500
0.109,238.000,92.500,260.500,250.000
0.110,239.000,94.500,263.000,252.000
0.111,239.000,94.500,263.500,253.000
0.112,237.500,93.500,262.000,251.500
0.113,235.000,90.500,259.000,248.000
0.114,231.500,86.500,254.500,243.500
0.115,228.500,82.000,249.500,238.000
0.116,225.500,78.000,245.000,233.000
0.117,224.000,75.000,241.500,229.500
0.118,223.000,73.500,239.000,227.000
0.119,223.000,73.000,238.000,226.000
0.120,223.500,73.500,238.000,226.000
0.121,224.500,74.500,239.000,227.000
0.122,226.000,75.500,240.000,228.000
0.123,227.500,77.000,241.500,229.500
0.124,229.000,78.500,243.500,231.500
0.125,231.000,80.500,246.000,234.000
0.126,232.500,83.000,248.500,236.500
0.127,234.500,86.000,252.000,240.000
0.128,236.500,88.500,255.000,243.500
0.129,237.500,91.000,258.000,247.000
0.130,238.500,92.500,260.000,249.000
0.131,238.000,92.500,260.500,249.000
0.132,236.500,91.000,259.000,247.000
0.133,234.000,88.000,255.500,243.500
0.134,231.500,84.500,251.500,239.500
0.135,228.500,80.500,247.000,235.000
0.136,226.000,77.500,243.000,230.500
0.137,224.000,74.500,239.500,227.500
0.138,223.000,73.000,237.500,226.000
0.139,223.000,73.000,237.000,225.500
0.140,223.500,73.500,237.500,226.500
0.141,224.500,74.500,239.000,228.000
0.142,226.000,76.500,240.500,230.000
0.143,228.000,78.500,243.000,233.000
0.144,230.000,81.000,246.000,236.000
0.145,233.000,84.000,249.500,239.500
0.146,235.500,87.500,253.000,244.000
0.147,239.000,91.000,257.500,248.500
0.148,241.500,95.000,261.500,253.000
0.149,244.000,98.000,265.000,256.500
0.150,245.000,100.000,267.500,259.000
0.151,245.000,100.000,268.000,259.000
0.152,244.000,98.500,266.500,257.500
0.153,241.500,95.000,263.000,254.000
0.154,238.000,91.000,258.500,249.000
0.155,234.500,86.000,253.000,243.000
0.156,231.500,81.500,248.000,238.000
0.157,229.000,78.500,244.000,233.500
0.158,227.500,76.000,241.000,231.000
0.159,227.000,75.500,239.500,229.500
0.160,227.000,75.000,239.500,229.000
0.161,227.500,76.000,240.000,229.500
0.162,228.000,76.500,241.000,230.500
0.163,229.000,78.000,242.000,231.500
0.164,230.000,79.500,243.500,233.000
0.165,231.500,81.000,245.500,235.500
0.166,233.000,83.500,248.500,238.500
0.167,235.500,86.500,252.000,242.000
0.168,238.000,90.000,256.000,246.500
0.169,240.000,93.000,260.000,250.000
0.170,241.000,95.000,262.500,252.500
0.171,241.000,95.500,263.000,253.500
0.172,240.000,94.000,262.000,252.000
0.173,237.500,91.000,258.500,248.500
0.174,234.000,86.500,253.500,243.500
0.175,230.000,82.000,248.000,237.500
0.176,226.500,77.500,243.000,232.000
0.177,223.500,74.000,238.500,227.000
0.178,221.500,71.500,235.500,224.000
0.179,220.500,70.000,233.500,222.000
0.180,220.500,69.500,233.000,221.500
0.181,221.000,70.000,233.000,221.500
0.182,222.000,70.500,234.000,222.500
0.183,223.000,72.000,235.500,224.000
0.184,224.500,73.500,237.500,226.000
0.185,226.000,75.500,240.000,229.000
0.186,228.000,78.500,243.500,232.500
0.187,230.500,82.000,247.500,237.000
0.188,233.000,86.000,252.000,241.500
0.189,235.000,89.500,256.000,245.500
0.190,236.500,91.500,259.000,248.000
0.191,236.000,92.000,259.500,248.500
0.192,234.500,90.500,258.000,247.000
0.193,232.000,87.500,255.000,243.500
0.194,229.000,83.500,250.500,239.000
0.195,226.000,79.500,245.500,234.000
0.196,223.000,76.000,241.000,229.000
0.197,221.500,73.000,237.500,225.500
0.198,221.000,72.000,235.500,223.500
0.199,221.000,71.500,235.000,222.500
0.200,222.000,72.000,235.000,223.000
0.201,223.000,73.000,236.000,224.000
0.202,224.500,74.500,238.000,225.500
0.203,226.500,76.500,240.000,227.500
0.204,228.500,79.000,242.500,230.500
0.205,231.000,82.000,246.000,233.500
0.206,233.500,85.500,249.500,237.000
0.207,236.000,89.500,253.500,241.000
0.208,239.000,93.000,258.000,245.000
0.209,241.000,96.500,261.500,249.000
0.210,242.500,98.500,264.000,251.500
0.211,242.500,99.000,265.000,252.500
0.212,241.500,97.500,264.000,251.500
0.213,239.000,95.000,261.500,249.000
0.214,236.000,91.000,257.000,245.000
0.215,233.000,86.500,252.500,240.500
0.216,230.000,83.000,248.000,236.000
0.217,228.000,80.000,244.500,232.500
0.218,227.000,78.500,242.500,230.000
0.219,227.500,78.000,242.000,229.500
0.220,228.500,79.000,242.500,230.000
0.221,230.000,80.000,243.500,231.000
0.222,231.500,82.000,245.000,233.000
0.223,233.000,83.500,247.000,235.000
0.224,234.500,86.000,249.500,237.000
0.225,236.500,88.000,252.000,240.000
0.226,239.000,91.000,255.000,243.000
0.227,241.000,94.000,258.500,247.000
0.228,243.500,97.000,262.500,251.000
0.229,245.000,99.500,266.000,254.500
0.230,246.000,101.500,268.000,256.500
0.231,245.000,101.500,268.000,257.000
0.232,243.000,99.500,266.000,255.000
0.233,239.500,96.000,262.000,251.000
0.234,235.500,91.000,256.500,245.000
0.235,231.000,86.000,250.500,239.000
0.236,227.000,80.500,244.500,233.000
0.237,223.500,76.500,240.000,228.000
0.238,221.500,74.000,236.500,224.500
0.239,221.000,72.500,235.000,222.500
0.240,221.000,72.000,234.000,221.500
0.241,221.500,72.500,234.500,221.500
0.242,222.000,73.000,235.000,222.500
0.243,223.000,74.000,236.500,223.500
0.244,224.500,75.500,238.000,225.500
0.245,226.000,77.500,240.500,228.000
0.246,227.500,79.500,243.000,230.500
0.247,229.000,82.500,246.000,234.000
0.248,231.000,85.000,249.500,238.000
0.249,233.000,88.000,253.000,241.500
0.250,233.500,89.000,255.000,243.500
0.251,233.000,89.000,255.500,244.000
0.252,231.500,87.000,254.000,242.000
0.253,228.500,84.000,250.500,238.500
0.254,224.500,79.500,245.500,233.000
0.255,220.500,74.500,239.500,227.000
0.256,216.500,69.500,234.000,221.000
0.257,214.000,65.500,229.500,216.500
0.258,212.000,63.500,226.500,213.500
0.259,211.500,62.500,225.500,212.000
0.260,211.500,62.500,225.000,212.000
0.261,212.500,63.000,226.000,212.500
0.262,214.000,64.500,227.500,214.000
0.263,216.000,66.000,229.000,216.000
0.264,218.000,68.000,231.500,218.500
0.265,220.500,71.000,235.000,222.000
0.266,223.500,74.500,239.000,226.500
0.267,227.000,78.500,244.000,231.500
0.268,230.500,83.000,249.000,237.000
0.269,234.000,87.500,254.000,242.000
0.270,236.500,91.000,258.000,246.000
0.271,237.500,92.500,260.000,247.500
0.272,237.500,92.500,260.000,247.500
0.273,236.500,91.000,258.500,246.000
0.274,234.500,88.000,255.000,242.500
0.275,232.000,84.500,250.500,238.000
0.276,229.500,81.000,246.500,233.500
0.277,228.000,78.500,243.500,230.500
0.278,227.500,77.500,242.000,228.500
0.279,228.000,77.500,241.500,228.000
0.280,228.500,78.000,242.000,228.500
0.281,230.000,79.000,243.000,229.500
0.282,231.500,80.500,244.500,231.500
0.283,233.500,82.000,246.500,233.500
0.284,235.000,84.000,249.000,236.000
0.285,237.500,86.500,251.500,239.000
0.286,239.500,89.500,255.000,242.500
0.287,242.000,92.500,259.000,246.500
0.288,244.500,96.000,263.000,250.500
0.289,246.500,98.500,266.000,254.500
0.290,247.500,100.500,268.500,256.500
0.291,247.000,100.500,269.000,257.000
0.292,245.500,99.000,267.000,255.000
0.293,242.500,96.000,263.500,251.500
0.294,239.000,91.500,259.000,246.000
0.295,235.500,87.000,253.500,240.000
0.296,232.000,82.500,248.000,234.500
0.297,229.000,78.500,244.000,229.500
0.298,227.500,76.000,241.000,227.000
0.299,226.500,75.000,239.500,225.500
0.300,226.000,74.500,239.000,225.000
0.301,226.500,75.000,239.500,225.500
0.302,227.500,76.000,240.500,227.000
0.303,229.000,77.500,242.000,229.000
0.304,231.000,80.000,244.500,231.500
0.305,233.500,83.000,247.500,234.500
0.306,236.500,86.500,251.500,238.500
0.307,239.500,90.500,256.500,243.500
0.308,243.000,94.500,261.000,248.500
0.309,246.000,98.500,265.500,253.000
0.310,247.500,100.500,269.000,256.500
0.311,247.500,101.000,270.000,257.500
0.312,246.500,100.000,269.000,256.500
0.313,243.500,97.000,265.500,253.500
0.314,240.000,93.000,261.000,248.500
0.315,236.000,88.000,255.500,243.000
0.316,232.500,83.500,250.000,237.500
0.317,230.000,80.000,246.000,233.000
0.318,228.500,78.000,243.000,230.000
0.319,228.000,76.500,241.500,228.500
0.320,228.000,76.500,241.500,228.500
0.321,229.000,77.000,242.000,229.000
0.322,230.000,78.500,243.000,230.500
0.323,232.000,80.000,245.000,232.500
0.324,233.500,82.500,247.500,235.000
0.325,235.500,85.000,250.500,238.000
0.326,237.500,88.000,254.000,241.500
0.327,240.500,91.500,258.000,246.000
0.328,243.000,95.500,262.500,250.500
0.329,245.500,99.000,266.500,255.000
0.330,247.000,101.500,269.500,258.000
0.331,247.500,102.500,270.500,259.000
0.332,247.000,101.500,269.500,258.500
0.333,245.000,99.500,266.500,255.500
0.334,242.000,96.000,262.500,251.000
0.335,239.000,92.000,257.500,246.500
0.336,236.500,88.500,253.000,242.000
0.337,234.500,86.000,249.500,238.500
0.338,233.000,84.500,247.000,236.000
0.339,233.000,84.000,246.000,235.500
0.340,233.500,84.000,246.500,235.500
0.341,234.500,85.500,247.000,236.500
0.342,236.000,86.500,248.500,238.000
0.343,237.500,88.500,250.500,240.000
0.344,239.000,90.500,253.000,242.000
0.345,241.000,93.000,256.000,245.000
0.346,243.000,96.000,259.000,249.000
0.347,245.500,99.500,263.000,253.000
0.348,248.000,102.500,267.500,257.500
0.349,250.000,105.500,271.000,261.500
0.350,251.500,107.500,274.000,264.500
0.351,252.000,108.500,275.000,265.500
0.352,250.500,107.000,273.500,264.000
0.353,248.000,104.500,270.500,261.000
0.354,245.000,100.500,266.000,256.000
0.355,241.500,96.500,260.500,251.000
0.356,238.000,92.500,255.500,245.500
0.357,236.000,89.000,252.000,241.500
0.358,234.500,87.500,249.500,239.000
0.359,234.000,86.500,248.500,238.000
0.360,234.500,87.000,248.500,238.000
0.361,235.000,87.500,249.000,238.500
0.362,236.000,89.000,250.500,240.000
0.363,237.500,90.500,252.000,242.000
0.364,239.000,92.500,254.000,244.500
0.365,241.000,94.500,256.500,247.000
0.366,243.000,97.500,260.000,250.500
0.367,245.500,101.000,263.500,254.500
0.368,248.000,104.500,267.500,259.000
0.369,250.000,107.500,271.500,262.500
0.370,251.000,109.500,273.500,265.000
0.371,251.000,109.500,274.000,265.500
0.372,249.000,108.000,272.500,263.500
0.373,246.000,104.500,269.000,259.500
0.374,242.500,100.000,264.000,254.000
0.375,238.500,95.000,258.500,248.000
0.376,234.500,90.000,253.000,242.000
0.377,232.000,86.500,249.000,237.500
0.378,230.500,84.500,246.000,235.000
0.379,230.000,83.500,245.000,234.000
0.380,230.000,84.000,245.000,234.000
0.381,231.000,84.500,246.000,235.000
0.382,232.500,86.000,247.000,236.500
0.383,234.000,87.500,249.000,238.000
0.384,236.000,90.000,251.500,240.500
0.385,238.000,92.500,254.000,243.500
0.386,240.500,96.000,257.500,246.500
0.387,243.000,99.500,261.500,250.500
0.388,246.000,103.000,266.000,255.000
0.389,248.000,106.000,269.500,259.000
0.390,249.500,108.000,272.500,262.000
0.391,249.000,108.500,273.000,262.500
0.392,248.000,107.000,271.500,261.500
0.393,245.500,104.500,268.500,258.000
0.394,242.500,101.000,264.500,253.500
0.395,239.500,96.500,259.500,248.500
0.396,237.000,92.500,254.500,243.000
0.397,234.500,89.000,250.500,238.500
0.398,233.500,87.000,248.000,236.000
0.399,233.000,86.000,246.500,234.000
0.400,233.000,86.000,246.000,234.000
0.401,233.500,86.000,246.500,234.500
0.402,234.500,87.500,247.500,235.500
0.403,236.000,89.000,249.500,237.500
0.404,237.500,90.500,251.500,239.500
0.405,239.500,93.000,254.000,242.500
0.406,241.500,95.500,257.500,245.500
0.407,244.000,98.500,261.000,249.000
0.408,246.500,102.000,265.000,253.500
0.409,249.000,105.000,268.500,257.000
0.410,250.000,107.000,271.500,260.000
0.411,250.500,108.000,272.500,261.000
0.412,249.000,106.500,271.000,260.000
0.413,246.500,104.000,268.000,256.500
0.414,243.000,99.500,263.000,252.000
0.415,239.500,95.000,257.500,246.500
0.416,236.500,91.000,252.500,241.000
0.417,234.000,87.500,248.500,237.000
0.418,232.500,85.500,246.000,234.000
0.419,232.000,84.500,244.500,232.500
0.420,232.500,84.500,244.500,232.500
0.421,233.500,85.000,245.500,233.500
0.422,235.000,86.500,247.000,235.000
0.423,236.500,88.500,249.000,237.000
0.424,238.500,90.500,251.500,239.000
0.425,240.500,93.000,254.000,242.500
0.426,243.000,96.000,258.000,246.000
0.427,246.000,100.000,262.000,250.500
0.428,249.000,103.500,266.500,255.500
0.429,251.500,107.000,270.500,260.000
0.430,253.000,109.000,273.500,263.000
0.431,253.500,109.500,274.000,264.000
0.432,252.000,108.500,273.000,263.000
0.433,249.500,105.500,270.000,260.000
0.434,246.500,101.500,265.500,255.500
0.435,243.000,97.500,260.500,250.000
0.436,240.000,93.500,256.000,245.000
0.437,237.500,90.500,252.000,240.500
0.438,236.000,88.500,249.500,237.500
0.439,235.000,87.000,248.000,236.000
0.440,235.000,86.500,247.000,235.000
0.441,235.000,86.500,247.000,235.000
0.442,235.500,86.500,248.000,236.000
0.443,236.500,87.500,249.000,237.000
0.444,237.500,88.500,250.000,238.500
0.445,238.500,90.500,252.000,240.500
0.446,240.500,92.500,255.000,243.500
0.447,242.500,95.500,258.500,247.000
0.448,244.500,98.500,262.500,251.000
0.449,246.000,101.500,266.000,255.000
0.450,247.000,103.000,268.500,257.500
0.451,246.500,103.000,269.000,258.000
0.452,245.000,101.000,267.000,256.000
0.453,242.000,97.500,263.000,252.000
0.454,238.000,92.500,257.500,246.000
0.455,233.500,87.000,251.500,239.500
0.456,229.000,81.500,245.000,233.000
0.457,225.500,77.000,239.500,227.500
0.458,223.000,73.500,235.500,223.500
0.459,221.000,71.500,233.500,221.000
0.460,220.000,70.000,232.000,220.000
0.461,219.500,70.000,232.000,220.000
0.462,219.500,70.000,232.500,220.500
0.463,219.500,70.500,233.500,222.000
0.464,220.000,71.500,235.000,224.000
0.465,221.000,73.000,237.000,226.500
0.466,222.000,75.000,239.500,229.500
0.467,223.000,77.500,242.500,233.000
0.468,224.500,79.500,246.000,237.000
0.469,225.500,82.000,249.000,241.000
0.470,226.500,83.500,251.500,243.500
0.471,226.000,83.500,252.000,245.000
0.472,224.500,82.500,251.500,244.500
0.473,222.500,80.500,249.000,242.500
0.474,219.500,77.500,245.500,239.500
0.475,216.500,74.000,241.500,235.500
0.476,214.000,70.500,238.000,232.000
0.477,213.000,69.000,236.000,230.500
0.478,213.500,69.500,236.000,231.000
0.479,215.500,71.500,238.500,233.500
0.480,219.000,75.000,242.000,237.500
0.481,223.500,79.500,246.500,242.000
0.482,227.500,84.000,251.000,247.000
0.483,232.000,88.500,256.000,252.000
0.484,235.500,92.500,260.500,257.500
0.485,239.500,97.000,265.000,262.500
0.486,243.000,101.500,270.000,268.000
0.487,247.000,106.000,275.500,273.500
0.488,251.500,111.000,281.500,279.500
0.489,255.000,116.000,287.000,285.000
0.490,258.500,120.000,291.000,289.000
0.491,261.000,122.500,294.000,291.500
0.492,262.000,123.500,294.500,291.500
0.493,261.500,122.500,293.000,289.000
0.494,260.500,120.500,289.500,284.500
0.495,259.000,117.500,285.500,279.000
0.496,257.000,114.000,280.500,273.000
0.497,255.000,110.500,276.000,267.500
0.498,253.500,107.500,272.000,263.000
0.499,252.000,105.500,269.000,259.000
0.500,251.000,104.000,266.500,256.500
0.501,250.500,103.500,265.000,254.500
0.502,250.000,103.000,264.000,253.000
0.503,249.500,102.500,264.000,252.500
0.504,249.500,103.000,264.000,253.000
0.505,249.500,103.500,265.000,253.500
0.506,249.500,104.000,266.000,255.000
0.507,250.500,105.500,268.000,257.000
0.508,251.500,107.500,270.500,259.500
0.509,252.000,109.000,272.500,262.000
0.510,252.000,109.500,273.500,263.000
0.511,250.500,108.500,272.500,262.000
0.512,247.500,105.500,269.500,259.000
0.513,244.000,101.000,264.500,253.500
0.514,239.000,95.500,258.000,247.000
0.515,234.000,89.500,251.000,239.000
0.516,229.500,83.500,244.500,232.000
0.517,226.000,78.500,239.000,226.000
0.518,223.500,75.500,235.000,222.000
0.519,222.000,73.500,233.000,220.000
0.520,222.000,73.500,232.500,220.000
0.521,222.500,73.500,233.500,220.500
0.522,223.000,74.500,234.500,222.000
0.523,224.500,76.000,236.500,224.000
0.524,226.000,78.000,239.000,227.000
0.525,228.000,81.000,242.000,230.500
0.526,230.500,84.000,246.000,234.500
0.527,233.500,88.000,250.000,239.500
0.528,236.500,91.500,254.500,244.000
0.529,238.500,95.000,258.500,248.500
0.530,240.000,97.000,261.000,251.500
0.531,239.500,97.500,262.000,252.000
0.532,237.500,96.000,260.000,250.500
0.533,234.500,92.500,256.500,247.000
0.534,230.500,88.000,251.500,241.000
0.535,226.000,82.500,245.500,234.500
0.536,221.500,77.000,239.000,228.000
0.537,218.500,73.000,234.000,222.500
0.538,216.500,70.000,230.500,219.000
0.539,215.500,68.500,228.500,217.000
0.540,215.500,68.000,227.500,216.000
0.541,215.500,67.500,227.000,216.000
0.542,215.500,68.000,227.500,216.000
0.543,216.000,68.500,228.000,216.500
0.544,217.000,69.500,229.500,218.000
0.545,218.000,71.000,231.000,220.000
0.546,219.500,73.000,233.500,222.500
0.547,221.500,75.500,237.000,226.000
0.548,223.500,78.500,240.500,230.000
0.549,225.500,81.000,244.000,233.500
0.550,226.000,82.500,246.000,236.000
0.551,226.000,82.500,246.500,236.500
0.552,224.500,81.000,245.000,235.000
0.553,221.500,78.000,242.000,231.500
0.554,218.000,73.500,237.000,226.500
0.555,214.000,68.500,231.500,220.500
0.556,210.500,64.000,226.000,214.500
0.557,207.500,60.500,222.000,210.000
0.558,205.500,58.000,219.000,207.000
0.559,204.500,57.000,217.000,205.500
0.560,204.000,56.000,216.000,204.500
0.561,204.500,56.000,216.000,205.000
0.562,205.000,56.500,216.500,205.500
0.563,206.000,57.500,217.500,207.000
0.564,207.500,59.000,219.500,209.000
0.565,209.500,61.500,222.000,211.500
0.566,211.500,64.000,225.000,215.000
0.567,214.000,67.500,229.000,219.000
0.568,217.000,71.000,233.500,223.500
0.569,219.000,74.000,237.500,227.500
0.570,220.500,76.000,240.000,230.000
0.571,220.500,76.500,240.500,231.000
0.572,219.000,75.500,239.500,230.000
0.573,216.500,72.500,236.000,226.500
0.574,213.000,68.500,231.500,222.000
0.575,209.500,64.000,226.500,216.500
0.576,206.000,59.500,221.500,211.000
0.577,203.500,56.000,217.000,206.500
0.578,202.000,54.000,214.500,203.500
0.579,201.500,53.000,212.500,202.000
0.580,201.500,52.500,212.000,201.500
0.581,202.500,53.000,212.500,202.000
0.582,203.000,54.000,213.500,203.000
0.583,204.500,55.500,215.000,204.500
0.584,205.500,57.000,217.000,206.500
0.585,207.000,59.000,219.500,209.500
0.586,209.000,62.000,223.000,213.000
0.587,211.500,65.000,226.500,217.000
0.588,214.000,68.500,231.000,221.000
0.589,216.000,71.500,235.000,225.000
0.590,217.500,74.000,238.000,228.000
0.591,218.500,75.000,239.500,229.000
0.592,218.000,74.500,238.500,228.000
0.593,216.500,72.500,236.000,225.000
0.594,213.500,68.500,231.500,220.500
0.595,210.000,64.000,226.500,214.500
0.596,206.000,59.000,220.500,209.000
0.597,203.000,55.000,216.000,204.000
0.598,200.500,51.500,212.000,200.500
0.599,199.000,49.500,210.000,198.500
0.600,198.500,49.000,209.000,198.000
0.601,199.000,49.000,209.000,198.000
0.602,200.000,50.000,210.000,199.000
0.603,201.000,51.000,211.000,200.000
0.604,202.500,52.500,212.500,202.000
0.605,204.000,54.500,214.500,204.000
0.606,206.000,57.000,217.500,207.500
0.607,208.500,60.000,221.500,211.000
0.608,211.000,63.500,225.500,215.500
0.609,213.500,67.000,230.000,220.000
0.610,215.000,69.500,233.000,223.500
0.611,215.500,70.500,234.500,225.000
0.612,214.500,69.500,234.000,224.000
0.613,212.500,67.500,231.500,221.500
0.614,209.500,63.500,227.500,217.500
0.615,206.000,59.000,222.500,212.500
0.616,203.000,55.000,217.000,207.000
0.617,200.500,51.500,213.000,203.000
0.618,199.000,49.500,210.000,200.000
0.619,198.500,48.500,208.500,199.000
0.620,199.000,48.500,208.500,199.000
0.621,199.500,49.500,209.500,200.000
0.622,201.000,51.000,211.500,201.500
0.623,203.000,53.000,214.000,204.000
0.624,205.000,55.500,216.500,206.500
0.625,207.500,58.500,219.500,210.000
0.626,210.000,61.500,223.500,214.000
0.627,213.000,65.000,227.500,218.000
0.628,216.000,69.000,232.000,223.000
0.629,218.500,72.500,236.500,227.500
0.630,220.000,75.000,239.500,231.000
0.631,220.500,76.000,241.000,232.500
0.632,220.000,76.000,240.500,232.000
0.633,218.500,74.000,238.500,229.500
0.634,216.000,71.000,234.500,226.000
0.635,213.000,67.500,230.000,221.000
0.636,210.000,63.500,225.500,216.500
0.637,208.000,60.500,222.000,213.000
0.638,207.000,58.500,219.500,210.000
0.639,206.500,57.500,218.000,209.000
0.640,207.000,57.500,218.000,209.000
0.641,208.000,58.500,219.000,210.000
0.642,209.500,60.000,220.500,211.500
0.643,211.000,62.000,222.500,213.500
0.644,213.000,64.500,225.000,216.500
0.645,215.500,67.500,228.500,219.500
0.646,218.500,71.000,232.500,223.500
0.647,222.000,75.000,237.000,228.000
0.648,225.500,79.500,242.000,233.000
0.649,228.500,83.500,247.000,238.000
0.650,231.000,86.500,250.500,242.000
0.651,231.500,87.500,252.000,243.500
0.652,231.000,86.500,251.500,243.000
0.653,229.000,84.500,249.000,240.500
0.654,226.000,80.500,245.000,236.500
0.655,223.000,76.000,240.000,231.000
0.656,220.000,72.500,235.500,226.000
0.657,218.000,69.500,231.500,222.500
0.658,217.500,67.500,229.500,220.000
0.659,217.500,67.500,228.500,219.000
0.660,218.000,67.500,228.500,219.500
0.661,219.500,68.500,229.500,220.000
0.662,220.500,70.000,231.000,221.500
0.663,222.500,71.500,233.000,223.500
0.664,224.500,73.500,236.000,226.000
0.665,226.500,76.500,239.000,229.500
0.666,229.500,79.500,242.500,233.500
0.667,232.000,83.000,247.000,238.000
0.668,235.000,87.000,251.000,243.000
0.669,237.500,90.500,255.500,247.500
0.670,239.000,93.000,258.000,250.500
0.671,239.500,93.500,259.500,252.000
0.672,238.500,93.000,258.500,251.500
0.673,236.500,90.500,256.000,248.500
0.674,234.000,87.500,252.000,244.500
0.675,231.000,83.500,247.000,239.500
0.676,228.500,80.000,242.500,234.500
0.677,226.500,77.000,239.000,231.000
0.678,225.500,75.500,237.000,228.500
0.679,225.500,75.000,236.500,227.500
0.680,226.000,75.500,236.500,228.000
0.681,227.000,76.500,237.000,228.500
0.682,228.500,78.000,238.500,230.000
0.683,230.000,79.500,240.000,232.000
0.684,231.000,81.000,242.000,234.000
0.685,233.000,83.000,244.500,237.000
0.686,235.000,86.000,247.500,240.000
0.687,237.500,89.000,251.500,244.000
0.688,240.000,92.500,255.500,248.500
0.689,242.500,96.000,259.500,253.000
0.690,244.000,98.000,262.500,256.000
0.691,244.500,98.500,263.000,257.000
0.692,243.000,97.500,262.000,256.000
0.693,240.500,94.500,259.000,252.500
0.694,237.500,90.500,254.500,247.500
0.695,233.500,85.500,249.000,242.000
0.696,230.000,81.000,244.000,236.000
0.697,227.000,77.000,239.500,231.500
0.698,224.500,74.500,236.000,228.000
0.699,223.500,72.500,234.000,226.000
0.700,223.000,72.000,233.000,225.000
0.701,223.000,72.000,233.000,225.500
0.702,223.500,73.000,234.000,226.000
0.703,225.000,74.000,235.500,228.000
0.704,226.500,76.000,237.500,230.000
0.705,228.500,78.000,240.500,233.000
0.706,231.000,81.000,243.500,236.000
0.707,233.500,84.000,247.500,240.000
0.708,236.000,88.000,252.000,244.500
0.709,238.500,91.500,256.000,249.000
0.710,240.000,94.000,259.000,252.000
0.711,240.500,95.000,260.000,253.500
0.712,239.500,94.000,259.500,253.000
0.713,237.500,92.000,257.000,250.000
0.714,235.000,88.500,253.000,246.000
0.715,232.000,84.500,248.000,241.000
0.716,229.000,81.000,243.500,236.500
0.717,227.000,78.000,240.000,232.500
0.718,226.000,76.500,238.000,230.000
0.719,225.500,76.000,236.500,229.000
0.720,226.000,76.000,236.500,229.000
0.721,226.500,76.500,237.000,229.500
0.722,227.500,77.500,238.000,230.500
0.723,228.500,78.500,239.000,231.500
0.724,230.000,80.000,241.000,233.500
0.725,231.000,81.500,243.000,235.500
0.726,233.000,84.000,245.500,238.500
0.727,235.000,86.500,249.000,242.000
0.728,237.000,89.500,253.000,246.000
0.729,239.500,92.500,257.000,249.500
0.730,240.500,94.500,259.500,252.500
0.731,241.000,95.000,260.500,253.000
0.732,240.000,94.000,260.000,252.000
0.733,238.000,91.500,257.000,249.500
0.734,235.500,88.000,253.000,245.000
0.735,232.500,84.000,248.500,240.000
0.736,230.000,80.000,244.000,235.500
0.737,228.000,77.500,240.500,232.000
0.738,227.500,76.000,238.000,230.000
0.739,227.500,75.500,237.000,229.000
0.740,228.000,76.000,237.500,229.000
0.741,228.500,77.000,238.000,229.500
0.742,230.000,78.000,239.500,231.000
0.743,231.500,80.000,241.500,233.000
0.744,233.500,82.000,244.000,235.500
0.745,236.000,84.500,247.000,238.500
0.746,238.500,87.500,250.500,242.500
0.747,241.000,91.000,254.500,246.500
0.748,244.000,95.000,259.000,251.000
0.749,246.500,98.000,263.000,255.000
0.750,248.500,100.500,266.000,258.000
0.751,248.500,101.500,267.000,259.000
0.752,247.500,100.500,266.000,258.000
0.753,245.500,98.000,263.000,255.000
0.754,242.000,94.000,258.500,250.500
0.755,238.500,89.500,253.000,245.000
0.756,235.500,85.500,248.000,240.000
0.757,233.500,82.000,244.000,236.000
0.758,232.000,80.000,241.500,233.500
0.759,232.000,79.500,240.500,232.500
0.760,232.500,80.000,241.000,233.000
0.761,234.000,81.000,242.000,234.500
0.762,235.500,83.000,244.000,236.000
0.763,237.500,85.000,246.000,238.500
0.764,240.000,87.500,249.000,241.500
0.765,242.000,90.500,252.500,244.500
0.766,245.000,93.500,256.000,248.000
0.767,247.500,97.000,260.500,252.500
0.768,250.500,101.000,265.000,257.000
0.769,253.500,104.500,269.000,261.500
0.770,255.500,107.000,272.000,264.500
0.771,256.000,108.000,273.500,266.000
0.772,255.500,107.500,273.000,265.500
0.773,254.000,106.000,271.000,263.000
0.774,252.000,103.000,267.500,259.000
0.775,249.500,99.500,263.500,254.500
0.776,247.000,96.000,259.000,250.000
0.777,245.500,93.500,256.000,246.000
0.778,245.000,92.500,254.000,244.000
0.779,245.000,92.500,253.500,243.500
0.780,246.500,93.000,254.000,244.000
0.781,248.000,94.500,255.500,245.500
0.782,249.500,96.500,257.000,247.500
0.783,252.000,98.500,259.500,250.000
0.784,254.000,101.000,262.000,253.000
0.785,256.500,104.000,265.000,256.000
0.786,259.000,107.000,268.500,260.000
0.787,262.000,110.500,273.000,264.500
0.788,265.000,114.500,277.500,269.000
0.789,267.500,118.000,282.000,273.500
0.790,269.500,120.500,285.500,277.000
0.791,270.000,122.000,287.500,279.000
0.792,269.500,121.000,286.500,278.000
0.793,267.500,118.500,284.000,275.000
0.794,264.500,115.000,279.500,270.500
0.795,261.500,110.500,274.500,265.000
0.796,258.000,106.500,269.000,260.000
0.797,255.500,103.500,265.000,255.500
0.798,254.000,101.000,262.000,252.000
0.799,253.000,99.500,260.000,250.000
0.800,252.500,99.000,259.000,249.000
0.801,252.500,98.500,259.000,249.000
0.802,253.000,99.000,259.500,249.000
0.803,253.500,99.500,260.000,250.000
0.804,254.000,101.000,261.500,251.500
0.805,255.000,102.500,263.000,253.500
0.806,256.500,104.500,265.500,256.000
0.807,258.500,107.000,268.500,259.500
0.808,260.500,110.000,272.500,263.500
0.809,262.500,112.500,276.000,267.000
0.810,263.500,114.000,278.000,269.000
0.811,263.500,114.500,278.500,269.500
0.812,262.000,113.000,277.500,268.000
0.813,259.500,110.000,274.000,265.000
0.814,256.000,106.500,269.500,260.000
0.815,252.500,101.500,264.000,254.500
0.816,248.500,97.000,259.000,248.500
0.817,245.500,93.000,254.500,244.000
0.818,244.000,90.500,251.000,240.500
0.819,243.000,89.000,249.500,238.500
0.820,243.000,89.000,249.000,238.000
0.821,243.500,89.000,249.000,238.000
0.822,244.500,90.000,249.500,238.500
0.823,245.500,91.000,251.000,240.000
0.824,246.500,92.500,252.500,242.000
0.825,248.000,94.500,255.000,244.500
0.826,250.000,97.500,258.000,247.500
0.827,252.500,100.500,261.500,252.000
0.828,255.500,104.000,266.000,256.500
0.829,258.000,107.500,269.500,260.500
0.830,259.000,109.500,272.500,263.500
0.831,259.500,110.000,273.500,264.500
0.832,258.500,109.000,272.500,263.500
0.833,256.000,106.500,269.500,260.000
0.834,253.000,102.500,265.000,255.500
0.835,249.000,98.000,259.500,250.000
0.836,245.500,93.500,254.500,244.000
0.837,242.500,89.500,250.000,239.500
0.838,241.000,87.000,247.000,236.500
0.839,240.000,86.000,245.500,234.500
0.840,240.000,85.500,245.000,234.000
0.841,240.500,86.000,245.000,234.500
0.842,241.500,87.000,246.000,236.000
0.843,242.500,88.500,247.500,237.500
0.844,244.000,90.000,249.500,239.500
0.845,246.000,92.500,252.500,242.500
0.846,248.500,95.500,255.500,246.000
0.847,251.000,99.000,259.500,250.000
0.848,254.000,102.500,264.000,254.500
0.849,256.500,106.000,268.000,259.000
0.850,258.000,108.500,271.000,262.000
0.851,258.500,109.500,272.500,263.000
0.852,257.500,108.500,271.500,262.500
0.853,255.000,106.000,269.000,259.000
0.854,252.000,102.000,264.500,254.500
0.855,249.000,98.000,259.500,249.500
0.856,246.000,93.500,254.000,244.000
0.857,243.000,90.000,249.500,239.500
0.858,241.500,87.500,246.500,236.000
0.859,240.500,86.000,245.000,234.500
0.860,240.500,86.000,244.500,234.000
0.861,241.500,86.500,245.500,234.500
0.862,242.000,87.500,246.500,236.000
0.863,243.500,89.000,248.000,237.500
0.864,245.000,90.500,250.000,239.000
0.865,246.500,92.500,252.500,241.500
0.866,248.500,95.000,255.500,244.500
0.867,250.500,98.000,259.000,248.500
0.868,253.000,101.000,263.000,252.500
0.869,255.000,104.500,267.000,256.500
0.870,256.500,107.000,269.500,259.500
0.871,257.000,107.500,270.500,261.000
0.872,256.000,107.000,269.500,260.000
0.873,254.000,104.500,267.000,257.000
0.874,251.000,101.000,262.500,252.500
0.875,248.000,96.500,257.500,247.500
0.876,244.500,92.000,252.500,242.000
0.877,241.500,88.500,248.500,237.000
0.878,239.500,86.000,245.500,234.000
0.879,239.000,84.500,244.000,232.500
0.880,239.000,84.000,243.000,232.000
0.881,239.500,84.500,243.500,232.500
0.882,241.000,85.500,244.000,234.000
0.883,242.500,87.000,245.500,236.000
0.884,244.500,89.000,248.000,239.000
0.885,247.000,91.500,251.500,242.500
0.886,249.500,95.000,255.000,246.500
0.887,253.000,98.500,260.000,251.000
0.888,256.000,103.000,265.000,256.000
0.889,259.000,106.500,269.500,260.500
0.890,261.000,109.500,272.500,264.000
0.891,261.500,110.500,274.000,265.500
0.892,260.500,109.500,273.000,264.500
0.893,258.000,106.500,270.500,261.500
0.894,255.000,102.500,266.000,257.000
0.895,251.500,98.000,260.500,251.500
0.896,248.000,93.500,255.500,245.500
0.897,245.500,90.000,250.500,241.000
0.898,243.500,87.000,247.000,237.500
0.899,242.000,85.500,245.000,235.500
0.900,241.500,84.500,243.500,234.000
0.901,241.500,84.000,243.000,233.500
0.902,242.000,84.000,242.500,233.000
0.903,242.000,84.500,243.000,233.000
0.904,242.500,85.000,243.500,233.500
0.905,243.500,86.000,245.000,234.500
0.906,244.500,87.500,247.000,236.500
0.907,246.500,90.000,250.000,239.500
0.908,248.500,93.000,253.500,243.000
0.909,250.500,95.500,257.500,247.000
0.910,251.500,98.000,260.000,250.000
0.911,251.500,98.500,261.500,251.500
0.912,250.500,97.500,261.000,251.000
0.913,248.000,94.500,258.500,248.500
0.914,244.500,91.000,254.000,244.000
0.915,241.000,86.500,249.500,239.500
0.916,238.000,83.000,244.500,234.500
0.917,236.000,80.000,241.000,231.000
0.918,235.000,78.500,239.000,229.000
0.919,235.500,78.500,238.500,228.500
0.920,236.500,79.500,239.500,229.500
0.921,238.000,81.000,241.000,231.000
0.922,240.000,83.000,243.000,233.500
0.923,242.000,85.000,245.500,236.000
0.924,244.000,87.000,248.000,239.000
0.925,246.000,89.500,251.000,242.000
0.926,248.500,92.500,254.500,245.000
0.927,251.000,95.500,258.000,249.000
0.928,253.500,99.000,262.000,253.000
0.929,255.500,102.000,265.500,257.000
0.930,257.000,103.500,268.000,259.500
0.931,257.000,104.000,269.000,260.000
0.932,256.000,103.000,268.000,259.000
0.933,254.500,101.000,266.000,256.500
0.934,251.500,97.500,262.000,252.000
0.935,248.500,93.500,257.000,246.500
0.936,245.500,90.000,252.500,241.500
0.937,243.000,86.500,248.000,237.000
0.938,241.500,84.000,245.000,234.000
0.939,241.000,83.000,243.000,232.500
0.940,241.000,82.500,242.500,232.000
0.941,241.000,82.500,242.500,232.000
0.942,242.000,83.500,243.500,233.000
0.943,242.500,84.500,244.500,234.500
0.944,243.500,86.000,246.000,236.000
0.945,245.000,88.000,248.500,238.500
0.946,247.000,90.000,251.000,241.500
0.947,249.500,93.500,255.000,245.500
0.948,252.500,97.000,259.000,250.000
0.949,255.000,100.000,263.000,254.500
0.950,256.500,102.500,265.500,257.500
0.951,257.000,103.500,267.000,259.000
0.952,256.000,102.500,266.000,258.000
0.953,253.500,100.000,263.000,255.000
0.954,250.500,96.500,259.000,250.500
0.955,247.500,92.500,254.500,245.000
0.956,244.500,89.000,250.000,240.000
0.957,242.500,86.000,246.000,236.000
0.958,241.500,84.500,244.000,233.500
0.959,241.500,84.000,243.000,232.500
0.960,242.000,84.500,243.500,233.000
0.961,242.500,85.000,244.000,233.500
0.962,243.500,86.000,245.500,235.000
0.963,245.000,87.500,247.000,237.000
0.964,246.500,89.500,249.000,239.500
0.965,248.000,91.500,251.500,242.000
0.966,250.000,94.500,255.000,246.000
0.967,252.500,98.000,259.000,250.500
0.968,255.000,101.500,263.500,255.000
0.969,257.500,105.000,268.000,259.500
0.970,259.000,107.500,271.000,263.000
0.971,259.500,108.000,272.000,264.000
0.972,258.500,107.000,271.000,263.000
0.973,256.000,104.500,268.500,260.000
0.974,253.000,101.000,264.000,255.500
0.975,249.500,96.500,259.000,250.000
0.976,246.000,92.500,253.500,244.500
0.977,243.500,89.000,249.500,240.000
0.978,241.500,86.500,246.000,236.500
0.979,240.500,85.000,244.500,235.000
0.980,240.500,85.000,243.500,234.500
0.981,240.500,85.500,243.500,234.500
0.982,241.000,86.500,244.000,235.500
0.983,242.000,87.500,245.500,237.000
0.984,243.000,89.000,247.000,238.500
0.985,244.500,91.000,249.000,240.500
0.986,246.000,92.500,251.500,243.000
0.987,248.000,95.000,255.000,246.500
0.988,250.000,98.000,258.500,250.500
0.989,252.000,101.000,262.000,254.000
0.990,253.500,103.000,264.500,256.500
0.991,253.500,103.000,265.500,257.000
0.992,252.000,101.500,264.000,255.500
0.993,249.500,98.500,261.000,252.000
0.994,246.000,94.000,256.000,247.000
0.995,242.000,89.000,250.500,241.000
0.996,238.500,84.500,245.000,235.500
0.997,235.500,81.000,240.500,231.000
0.998,234.500,78.500,237.500,228.000
0.999,234.000,78.000,236.500,226.500
1.000,234.500,78.500,236.500,226.500
1.001,235.500,79.500,237.500,227.500
1.002,236.500,81.000,239.000,229.000
1.003,238.500,83.000,241.000,231.000
1.004,240.000,85.500,243.500,233.500
1.005,242.500,88.000,246.500,236.500
1.006,245.000,91.500,250.000,240.500
1.007,248.000,95.000,254.000,244.500
1.008,250.500,98.500,258.500,249.000
1.009,253.000,101.500,262.000,253.000
1.010,254.000,103.500,265.000,256.000
1.011,254.000,104.000,266.000,257.000
1.012,253.000,103.000,265.000,256.000
1.013,250.500,100.500,262.000,253.000
1.014,247.000,96.500,257.500,248.500
1.015,243.500,92.000,252.000,242.500
1.016,240.000,87.500,246.500,237.000
1.017,237.500,84.000,242.000,232.500
1.018,236.000,81.500,239.000,229.000
1.019,235.000,80.500,237.500,227.500
1.020,235.500,80.000,237.000,227.000
1.021,236.000,80.500,237.500,227.500
1.022,237.000,82.000,238.500,228.500
1.023,238.000,83.000,240.000,230.000
1.024,239.000,85.000,242.000,231.500
1.025,240.500,86.500,244.500,234.000
1.026,242.500,89.000,247.500,237.500
1.027,244.500,92.000,251.000,241.000
1.028,247.000,95.000,254.500,245.000
1.029,248.500,98.000,258.000,249.000
1.030,249.500,99.500,260.500,251.500
1.031,249.000,100.000,261.000,252.000
1.032,247.500,98.500,259.500,250.500
1.033,245.000,95.500,256.500,247.000
1.034,241.500,91.500,251.500,242.000
1.035,238.000,86.500,246.000,236.500
1.036,234.500,82.000,240.500,230.500
1.037,231.500,78.500,236.000,226.000
1.038,229.500,75.500,233.000,222.500
1.039,228.500,74.000,231.000,220.500
1.040,228.000,73.500,230.000,219.500
1.041,227.500,73.000,229.500,219.000
1.042,227.500,73.500,229.500,219.500
1.043,228.000,74.000,230.500,220.500
1.044,229.000,75.000,232.000,221.500
1.045,230.000,76.500,234.000,224.000
1.046,231.500,78.500,236.500,226.500
1.047,233.500,81.000,240.000,230.000
1.048,235.500,84.000,244.000,234.000
1.049,237.500,87.000,247.500,238.000
1.050,239.000,89.000,250.500,241.000
1.051,239.000,90.000,251.500,242.000
1.052,238.000,89.000,250.500,241.000
1.053,236.000,86.500,248.000,238.000
1.054,232.500,83.000,243.500,233.000
1.055,229.000,78.000,238.000,227.500
1.056,225.500,73.500,233.000,222.000
1.057,223.000,69.500,228.500,217.500
1.058,221.000,67.000,225.500,214.500
1.059,220.000,65.500,223.500,212.500
1.060,219.500,64.500,222.000,211.500
1.061,219.000,64.500,222.000,211.000
1.062,219.500,64.500,222.000,211.500
1.063,220.000,65.500,222.500,212.000
1.064,220.500,66.000,223.500,213.000
1.065,221.500,67.500,225.000,215.000
1.066,222.500,69.000,227.000,217.500
1.067,224.000,71.500,230.000,220.500
1.068,226.000,74.500,233.500,224.500
1.069,227.500,77.000,237.000,228.000
1.070,228.500,78.500,239.000,230.000
1.071,228.000,79.000,239.500,230.500
1.072,226.500,77.500,238.500,229.000
1.073,223.500,74.500,235.000,225.500
1.074,220.000,70.500,230.500,220.000
1.075,216.500,65.500,225.000,214.500
1.076,213.000,61.000,220.000,208.500
1.077,210.000,57.500,215.500,204.000
1.078,208.500,55.000,212.500,201.000
1.079,208.000,54.000,211.000,200.000
1.080,208.000,54.000,211.000,200.000
1.081,209.500,55.000,212.000,201.000
1.082,211.000,56.500,213.500,202.500
1.083,213.000,58.500,216.000,205.000
1.084,215.000,60.500,218.500,207.500
1.085,217.500,63.500,221.500,211.000
1.086,220.500,66.500,225.500,215.000
1.087,223.500,70.500,229.500,219.500
1.088,226.000,74.500,233.500,224.000
1.089,228.500,77.500,237.500,228.000
1.090,230.000,80.000,240.000,231.000
1.091,230.000,80.500,241.500,232.000
1.092,229.000,79.500,240.500,231.000
1.093,227.000,76.500,237.500,227.500
1.094,224.000,73.000,233.500,223.000
1.095,220.500,68.500,228.500,217.500
1.096,217.000,64.000,223.500,212.000
1.097,214.500,60.500,219.500,207.500
1.098,213.000,58.000,216.500,204.500
1.099,212.000,56.500,215.000,203.000
1.100,211.500,56.000,214.500,202.000
1.101,212.000,56.000,214.500,202.500
1.102,212.500,56.500,215.000,203.000
1.103,213.500,58.000,216.500,204.500
1.104,215.000,59.500,218.000,206.000
1.105,216.500,61.500,220.500,208.500
1.106,218.500,64.000,223.500,212.000
1.107,221.000,67.500,227.500,216.000
1.108,223.500,71.000,231.500,220.500
1.109,226.000,74.000,236.000,225.000
1.110,227.500,76.500,239.500,228.500
1.111,228.500,78.000,241.000,230.000
1.112,227.500,77.500,240.500,229.500
1.113,225.500,75.500,238.000,226.500
1.114,223.000,72.000,234.000,222.500
1.115,220.000,68.000,229.500,218.000
1.116,217.500,64.500,225.000,213.000
1.117,215.000,61.500,221.000,209.000
1.118,214.000,59.500,219.000,206.500
1.119,214.000,58.500,217.500,205.000
1.120,214.500,58.500,217.500,205.000
1.121,215.500,59.500,218.000,206.000
1.122,216.500,60.500,219.500,207.500
1.123,218.000,62.000,221.500,209.500
1.124,220.000,64.500,224.000,212.000
1.125,222.500,67.000,227.000,215.000
1.126,225.000,70.500,230.500,218.500
1.127,228.000,74.000,234.500,223.000
1.128,230.500,77.500,239.000,227.500
1.129,233.000,81.000,242.500,231.500
1.130,234.000,83.000,245.500,234.500
1.131,234.500,83.500,246.500,235.500
1.132,233.500,82.500,245.500,234.500
1.133,231.000,80.000,242.500,231.500
1.134,228.000,76.500,238.000,227.000
1.135,224.000,72.000,233.000,221.500
1.136,221.000,67.500,228.000,216.000
1.137,218.000,64.000,224.000,211.500
1.138,216.000,62.000,221.000,208.500
1.139,215.000,60.500,219.000,206.500
1.140,214.500,60.000,218.500,205.500
1.141,215.000,60.000,218.500,205.500
1.142,215.500,60.500,219.000,206.500
1.143,216.500,62.000,220.500,208.000
1.144,217.500,63.000,222.000,210.000
1.145,219.000,65.000,224.000,212.500
1.146,221.000,67.500,226.500,215.500
1.147,223.000,70.500,230.000,219.500
1.148,226.000,74.500,234.500,224.000
1.149,228.500,78.000,238.500,228.500
1.150,230.000,80.500,242.000,231.500
1.151,230.500,82.000,243.500,233.000
1.152,229.500,81.000,242.500,232.000
1.153,227.500,78.500,240.000,229.000
1.154,224.000,75.000,235.500,224.500
1.155,220.500,70.000,230.000,219.000
1.156,217.000,65.500,224.500,213.500
1.157,214.000,62.000,220.000,209.000
1.158,212.000,59.000,216.500,205.500
1.159,211.000,57.500,214.500,203.500
1.160,210.000,57.000,213.500,202.500
1.161,210.000,56.500,213.500,202.500
1.162,210.000,57.000,213.500,203.000
1.163,210.500,58.000,214.500,204.000
1.164,212.000,59.500,216.000,205.500
1.165,213.500,61.500,218.000,208.000
1.166,215.000,64.000,221.000,211.000
1.167,217.500,67.500,224.500,215.000
1.168,220.500,71.000,228.500,219.500
1.169,223.000,74.500,233.000,223.500
1.170,224.500,77.000,236.000,226.500
1.171,225.000,78.000,237.000,228.000
1.172,224.000,77.000,236.500,227.000
1.173,222.500,75.000,234.000,224.500
1.174,219.500,71.500,230.500,220.000
1.175,216.500,67.500,226.000,215.500
1.176,213.500,63.500,221.000,210.500
1.177,211.000,60.500,217.500,206.500
1.178,209.500,58.000,214.500,204.000
1.179,209.500,57.500,213.500,203.000
1.180,210.000,57.500,213.500,203.000
1.181,211.500,58.500,214.500,204.000
1.182,213.000,60.000,216.000,206.000
1.183,214.500,62.000,218.000,208.000
1.184,216.500,64.500,220.500,210.500
1.185,218.500,67.000,223.500,213.500
1.186,221.000,70.500,226.500,217.000
1.187,224.000,74.000,230.500,221.000
1.188,226.500,77.500,235.000,225.500
1.189,229.500,81.500,239.000,230.000
1.190,231.000,84.000,242.000,233.000
1.191,231.500,84.500,243.500,234.500
1.192,230.500,84.000,242.500,233.500
1.193,228.500,81.500,240.000,230.500
1.194,226.000,78.000,235.500,226.000
1.195,223.000,74.000,230.500,220.500
1.196,220.000,70.500,225.500,215.500
1.197,218.500,67.500,222.000,211.500
1.198,217.500,66.000,219.500,209.000
1.199,217.500,65.500,219.000,208.500
1.200,218.000,66.000,219.000,208.500
1.201,219.000,66.500,220.000,210.000
1.202,220.500,68.000,221.500,211.500
1.203,222.000,69.500,223.500,213.500
1.204,224.000,72.000,226.000,216.000
1.205,226.000,74.500,229.000,219.500
1.206,229.000,78.000,232.500,223.000
1.207,232.000,81.500,237.000,227.500
1.208,235.500,86.000,241.500,232.500
1.209,239.000,90.000,246.500,237.500
1.210,241.000,93.000,250.000,241.000
1.211,242.500,95.000,252.000,243.000
1.212,242.500,95.000,252.500,243.000
1.213,241.500,94.000,250.500,241.000
1.214,239.500,91.000,247.500,237.500
1.215,237.000,87.500,243.000,233.000
1.216,234.500,84.000,238.500,228.500
1.217,233.000,81.000,235.000,225.000
1.218,232.000,79.500,233.000,222.500
1.219,232.000,79.000,232.000,222.000
1.220,233.000,80.000,233.000,222.500
1.221,234.500,81.500,234.000,224.000
1.222,236.000,83.000,236.000,226.000
1.223,238.000,85.000,238.000,228.000
1.224,240.000,87.500,240.000,230.500
1.225,242.000,90.000,243.000,233.500
1.226,244.500,93.000,246.000,237.500
1.227,247.000,97.000,250.500,242.000
1.228,250.500,101.000,255.500,247.000
1.229,253.500,105.000,260.000,252.000
1.230,255.500,108.000,264.000,256.000
1.231,256.000,109.000,265.500,257.500
1.232,255.000,108.500,264.500,256.500
1.233,253.000,106.000,261.500,253.500
1.234,249.500,102.000,257.000,248.500
1.235,245.500,97.000,251.500,242.500
1.236,241.500,92.500,246.000,236.500
1.237,238.500,88.500,241.500,232.000
1.238,237.000,86.000,238.500,229.000
1.239,235.500,84.500,236.500,227.000
1.240,235.500,84.000,236.000,226.000
1.241,235.500,84.000,236.000,226.000
1.242,236.000,85.000,237.000,227.000
1.243,237.000,86.000,238.000,228.500
1.244,238.500,87.500,240.000,230.000
1.245,239.500,89.500,242.000,232.500
1.246,241.000,91.500,244.000,235.000
1.247,243.000,94.000,247.500,238.500
1.248,245.000,97.000,251.000,242.500
1.249,246.500,100.000,254.500,246.500
1.250,248.000,102.000,257.000,249.000
1.251,248.000,102.500,258.000,250.500
1.252,247.000,101.500,257.500,249.500
1.253,245.000,99.000,254.500,246.000
1.254,241.500,95.500,250.500,241.500
1.255,238.000,91.000,245.000,235.500
1.256,234.000,86.500,239.500,230.000
1.257,231.000,82.500,235.000,225.000
1.258,228.500,79.500,231.500,221.500
1.259,227.000,78.000,229.000,219.500
1.260,226.000,77.000,228.000,219.000
1.261,225.500,76.500,227.500,218.500
1.262,225.500,77.000,227.500,219.000
1.263,226.000,77.500,228.000,220.000
1.264,226.500,78.000,229.500,221.500
1.265,227.500,79.500,231.000,224.000
1.266,228.500,81.500,233.500,227.000
1.267,230.500,84.000,237.000,230.500
1.268,232.500,86.500,241.000,234.500
1.269,234.000,89.000,244.500,238.500
1.270,235.000,91.000,247.500,241.500
1.271,234.500,91.500,248.500,243.000
1.272,233.000,90.000,248.000,242.500
1.273,231.000,87.500,245.500,240.000
1.274,227.500,83.500,241.500,236.500
1.275,224.500,79.500,237.000,232.000
1.276,221.000,75.500,232.500,228.000
1.277,219.000,73.000,229.000,224.500
1.278,218.000,71.500,227.500,223.500
1.279,219.000,72.000,228.000,224.500
1.280,220.500,74.000,229.500,227.000
1.281,223.500,77.000,232.500,230.500
1.282,226.500,80.500,236.500,235.000
1.283,230.000,84.500,240.500,239.500
1.284,233.500,88.500,245.000,244.500
1.285,236.500,92.000,249.500,249.000
1.286,239.000,95.500,253.500,253.500
1.287,241.500,99.000,257.500,258.000
1.288,244.000,102.500,262.000,262.500
1.289,246.000,105.500,266.000,267.000
1.290,248.000,108.500,269.000,270.000
1.291,249.000,110.000,271.000,271.500
1.292,249.000,110.500,271.000,271.000
1.293,248.000,109.000,269.000,268.000
1.294,246.000,106.500,265.000,263.500
1.295,244.000,103.000,260.500,257.500
1.296,241.500,99.000,255.000,250.500
1.297,239.500,95.500,250.000,244.500
1.298,237.500,92.500,245.500,239.000
1.299,236.000,89.500,241.500,234.000
1.300,234.000,87.000,238.000,230.000
1.301,232.000,84.500,235.000,226.000
1.302,230.500,82.500,232.500,223.500
1.303,229.000,81.000,231.000,221.500
1.304,228.000,80.000,230.000,220.500
1.305,227.500,80.000,230.500,221.000
1.306,228.000,81.000,232.000,222.500
1.307,228.500,82.500,234.000,225.000
1.308,229.500,84.500,237.000,228.500
1.309,230.000,86.000,239.500,231.000
1.310,229.500,86.500,240.500,233.000
1.311,227.500,85.000,240.000,232.500
1.312,224.500,82.000,237.000,230.500
1.313,220.500,78.000,233.000,226.000
1.314,216.000,72.500,227.000,220.500
1.315,211.500,67.000,221.000,214.000
1.316,207.500,62.000,215.000,208.500
1.317,204.500,57.500,210.500,203.500
1.318,202.500,55.000,207.000,200.000
1.319,201.500,53.000,205.000,197.500
1.320,201.000,52.500,204.000,197.000
1.321,201.500,53.000,204.000,197.000
1.322,202.000,54.000,204.500,197.500
1.323,203.500,55.500,206.000,199.000
1.324,205.000,57.000,208.000,201.000
1.325,206.500,59.500,210.500,203.500
1.326,209.000,62.000,213.000,206.000
1.327,211.500,65.000,216.500,209.500
1.328,214.000,68.500,221.000,213.500
1.329,216.500,71.500,224.500,217.500
1.330,218.000,74.000,227.500,220.500
1.331,218.000,74.500,228.500,221.500
1.332,217.000,74.000,228.000,221.000
1.333,214.500,71.000,225.000,218.000
1.334,211.500,67.500,220.500,213.500
1.335,208.000,63.000,215.500,208.000
1.336,204.500,58.500,210.000,202.500
1.337,201.500,54.500,205.500,197.500
1.338,200.000,52.000,202.500,194.000
1.339,199.000,51.000,200.500,192.000
1.340,199.000,51.000,200.000,191.500
1.341,199.500,51.500,200.500,192.000
1.342,200.500,52.500,201.500,193.000
1.343,201.500,53.500,203.500,195.000
1.344,203.000,55.500,205.500,197.000
1.345,205.000,58.000,208.500,200.000
1.346,207.500,60.500,211.500,203.500
1.347,209.500,63.500,215.000,207.500
1.348,212.000,67.000,218.500,211.500
1.349,214.000,69.500,222.000,215.500
1.350,215.000,71.500,224.000,217.500
1.351,215.000,72.000,225.000,218.500
1.352,213.500,70.500,224.000,217.000
1.353,211.000,68.000,221.000,213.500
1.354,208.000,64.000,216.500,209.000
1.355,204.500,60.000,211.000,203.500
1.356,201.500,55.500,206.500,198.000
1.357,199.000,52.500,202.500,194.000
1.358,198.000,50.500,200.000,191.500
1.359,197.500,49.500,199.000,190.000
1.360,198.000,50.000,199.000,190.500
1.361,199.000,51.000,200.000,191.500
1.362,200.500,52.500,202.000,193.000
1.363,202.000,54.500,204.000,195.000
1.364,204.000,56.500,206.500,197.500
1.365,206.000,59.000,209.500,200.500
1.366,208.500,62.000,213.500,204.500
1.367,211.500,65.500,217.500,208.500
1.368,214.000,69.000,222.000,213.500
1.369,216.500,72.500,226.000,217.500
1.370,217.500,74.500,229.000,220.500
1.371,218.000,76.000,230.000,222.000
1.372,217.500,75.500,229.500,221.500
1.373,215.500,73.500,227.500,219.000
1.374,213.000,70.500,223.500,215.000
1.375,209.500,66.000,218.500,210.000
1.376,206.500,61.500,213.500,204.500
1.377,204.000,58.000,209.500,200.000
1.378,202.500,55.500,206.500,197.000
1.379,201.500,54.500,204.500,195.500
1.380,201.500,54.000,204.000,195.000
1.381,202.000,54.500,204.000,195.500
1.382,203.000,55.000,205.000,196.500
1.383,204.500,56.500,206.500,198.000
1.384,206.000,58.500,208.500,200.000
1.385,208.000,60.500,211.000,202.500
1.386,210.000,63.500,214.000,206.000
1.387,213.000,67.000,218.000,210.500
1.388,216.000,71.000,222.500,215.000
1.389,219.000,74.500,226.500,219.500
1.390,221.000,77.500,230.000,223.000
1.391,221.500,79.000,231.500,224.500
1.392,221.000,78.500,231.000,224.000
1.393,219.000,76.500,228.500,221.000
1.394,216.000,73.000,224.500,216.500
1.395,212.500,69.000,219.500,211.500
1.396,209.500,65.000,214.500,206.000
1.397,207.000,61.500,210.500,201.500
1.398,205.500,59.500,207.500,199.000
1.399,205.500,58.500,206.500,197.500
1.400,206.000,58.500,206.500,197.500
1.401,206.500,59.500,207.000,198.500
1.402,208.000,61.000,208.500,200.000
1.403,209.000,62.500,210.000,201.500
1.404,210.500,64.500,212.000,203.500
1.405,212.000,66.000,214.000,205.500
1.406,213.000,68.000,216.500,208.500
1.407,215.000,70.500,220.000,211.500
1.408,216.500,73.500,223.500,215.500
1.409,218.000,76.000,226.500,219.000
1.410,219.000,77.500,229.000,221.500
1.411,218.500,78.000,229.500,222.000
1.412,217.000,76.500,228.000,221.000
1.413,214.500,74.000,225.000,218.000
1.414,211.000,70.000,220.500,213.500
1.415,207.500,65.500,215.500,208.000
1.416,204.500,61.000,210.500,203.000
1.417,202.000,57.500,206.500,198.500
1.418,200.500,55.500,203.500,195.500
1.419,199.500,54.500,202.000,194.000
1.420,199.500,54.000,201.500,193.500
1.421,199.500,54.500,201.500,193.500
1.422,200.000,55.000,202.000,194.000
1.423,201.000,56.000,203.000,195.000
1.424,202.000,57.000,204.500,197.000
1.425,203.500,59.000,206.500,199.000
1.426,205.000,61.500,209.500,202.000
1.427,207.500,64.000,212.500,206.000
1.428,209.500,67.500,216.500,210.000
1.429,211.500,70.500,220.000,214.000
1.430,213.000,72.500,223.000,216.500
1.431,212.500,73.000,223.500,217.500
1.432,211.500,71.500,222.500,216.000
1.433,208.500,68.500,219.000,213.000
1.434,205.000,64.500,214.500,208.000
1.435,201.000,59.500,209.000,203.000
1.436,197.500,55.500,203.500,197.500
1.437,195.000,52.000,199.500,193.000
1.438,193.500,49.500,196.500,190.000
1.439,192.500,48.500,195.000,188.500
1.440,192.500,48.000,194.500,188.000
1.441,192.000,48.000,194.000,188.000
1.442,192.000,48.000,194.500,188.000
1.443,192.500,48.500,195.000,188.500
1.444,193.000,49.000,195.500,189.500
1.445,193.500,50.500,197.000,191.000
1.446,194.000,52.000,199.000,193.000
1.447,195.500,54.000,202.000,196.000
1.448,197.000,56.000,205.000,199.000
1.449,198.000,58.500,208.000,202.500
1.450,199.000,59.500,210.000,204.500
1.451,198.500,59.500,210.500,205.000
1.452,197.000,58.000,209.000,204.000
1.453,195.000,55.500,206.000,201.000
1.454,192.000,51.500,202.000,196.500
1.455,188.500,47.000,197.000,191.500
1.456,185.500,43.000,192.000,186.500
1.457,183.000,40.000,188.500,183.000
1.458,181.500,38.000,185.500,180.000
1.459,181.000,36.500,184.000,178.500
1.460,181.000,36.500,183.500,178.000
1.461,181.500,36.500,183.500,178.500
1.462,182.500,37.500,184.500,179.500
1.463,183.500,38.500,186.000,181.000
1.464,185.500,40.500,188.000,183.000
1.465,187.000,42.500,190.000,185.500
1.466,189.000,45.000,193.000,188.500
1.467,191.000,47.500,196.000,192.000
1.468,193.000,50.500,200.000,196.000
1.469,194.500,53.000,203.500,199.500
1.470,195.500,55.000,205.500,202.000
1.471,195.500,55.000,206.500,202.500
1.472,194.000,54.000,205.000,201.500
1.473,192.000,51.000,202.000,198.000
1.474,189.000,47.500,198.000,194.000
1.475,186.500,43.500,193.000,189.000
1.476,183.500,39.500,188.500,184.500
1.477,182.000,36.500,185.000,180.500
1.478,181.000,35.000,183.000,178.500
1.479,181.000,34.500,182.500,178.000
1.480,181.500,35.000,183.000,178.500
1.481,183.000,36.000,184.000,179.500
1.482,184.500,38.000,186.000,181.500
1.483,186.500,40.000,188.000,184.000
1.484,189.000,42.500,190.500,186.500
1.485,191.500,45.500,193.500,190.000
1.486,194.500,49.000,197.000,193.500
1.487,197.500,52.500,201.500,198.000
1.488,200.500,56.500,206.000,203.000
1.489,203.000,60.000,210.500,207.500
1.490,204.500,62.000,213.500,210.500
1.491,205.000,63.000,214.500,212.000
1.492,203.500,62.000,214.000,211.000
1.493,201.000,59.500,211.500,208.000
1.494,198.000,55.500,207.000,203.500
1.495,194.500,51.500,202.000,198.500
1.496,191.000,47.000,197.000,193.000
1.497,188.500,44.000,193.000,188.500
1.498,187.000,41.500,190.000,186.000
1.499,186.500,40.500,188.500,184.500
1.500,186.500,40.500,188.000,184.000
1.501,187.000,41.000,188.500,184.000
1.502,188.000,42.000,189.000,185.000
1.503,189.000,43.000,190.500,186.500
1.504,190.500,45.000,192.000,188.500
1.505,192.000,47.000,194.500,191.000
1.506,194.000,50.000,197.500,194.000
1.507,196.500,53.000,201.000,198.000
1.508,199.000,56.500,205.500,202.000
1.509,201.000,59.500,209.500,206.000
1.510,202.500,62.000,212.500,209.000
1.511,202.500,62.500,213.500,210.500
1.512,201.500,62.000,213.000,210.000
1.513,199.500,59.500,210.500,207.000
1.514,196.000,55.500,206.500,202.500
1.515,192.500,51.000,201.000,197.000
1.516,189.000,46.000,196.000,191.500
1.517,186.000,42.500,191.000,186.500
1.518,184.000,39.500,188.000,183.000
1.519,183.000,38.000,186.000,181.500
1.520,183.000,37.500,185.500,181.000
1.521,183.500,38.000,185.500,181.000
1.522,184.000,38.500,186.500,182.000
1.523,184.500,39.500,187.500,183.000
1.524,185.000,40.500,188.500,184.500
1.525,186.500,42.000,190.500,186.500
1.526,188.000,44.000,193.500,189.500
1.527,190.000,47.000,197.000,193.000
1.528,192.000,50.000,201.000,197.500
1.529,194.500,53.500,204.500,201.500
1.530,196.000,56.000,208.000,205.000
1.531,196.500,57.000,209.500,206.500
1.532,195.500,56.500,208.500,205.500
1.533,193.500,54.000,206.000,203.000
1.534,190.000,50.500,202.000,198.500
1.535,186.500,46.000,197.000,192.500
1.536,182.500,41.500,191.500,187.000
1.537,179.500,37.500,186.500,182.000
1.538,177.500,35.000,183.500,179.000
1.539,176.500,33.500,182.000,177.000
1.540,176.500,33.000,181.500,176.500
1.541,177.000,33.000,181.500,176.500
1.542,178.000,34.000,182.500,177.500
1.543,179.000,35.000,183.500,179.000
1.544,180.500,36.500,185.000,181.000
1.545,182.000,38.500,187.500,183.500
1.546,184.500,41.500,190.000,186.500
1.547,186.500,44.500,194.000,190.000
1.548,189.000,48.000,197.500,194.000
1.549,191.000,51.000,201.500,198.000
1.550,192.000,53.000,204.000,200.500
1.551,192.000,53.500,205.000,201.500
1.552,191.000,52.500,204.000,200.500
1.553,188.500,50.000,201.500,198.000
1.554,185.500,46.500,197.500,193.500
1.555,182.500,42.500,192.500,188.500
1.556,179.000,38.000,187.500,183.500
1.557,176.500,34.500,183.000,179.000
1.558,175.000,32.000,180.000,176.000
1.559,174.500,31.000,178.500,174.500
1.560,174.500,31.000,178.000,174.000
1.561,175.500,32.000,178.500,174.500
1.562,176.500,33.000,179.000,175.500
1.563,177.500,34.000,180.500,177.000
1.564,179.000,35.500,182.000,178.500
1.565,180.500,37.500,184.500,181.000
1.566,182.500,40.000,187.500,184.000
1.567,185.000,43.000,191.000,187.500
1.568,188.000,47.000,195.500,192.500
1.569,191.000,50.500,200.500,197.000
1.570,193.000,53.500,204.000,201.000
1.571,194.000,55.500,206.000,203.000
1.572,194.000,55.000,205.500,203.000
1.573,192.500,53.500,203.500,201.000
1.574,190.500,50.500,200.000,197.500
1.575,188.000,47.000,196.000,193.000
1.576,186.000,43.500,191.500,188.500
1.577,184.500,41.000,188.500,185.000
1.578,184.000,39.500,186.500,183.000
1.579,184.500,39.500,186.000,182.500
1.580,185.500,40.500,187.000,183.000
1.581,187.000,42.000,188.000,184.000
1.582,189.000,43.500,189.500,186.000
1.583,191.000,45.500,191.500,188.000
1.584,192.500,47.500,193.500,190.500
1.585,194.500,49.500,196.000,193.500
1.586,196.500,52.500,199.000,197.000
1.587,199.500,55.500,203.000,201.500
1.588,202.500,59.500,207.500,206.500
1.589,205.500,63.500,212.000,211.000
1.590,207.500,66.500,216.000,214.500
1.591,208.500,68.000,217.500,216.500
1.592,208.500,67.500,217.500,216.000
1.593,207.000,65.500,215.500,214.000
1.594,205.000,62.500,212.000,210.000
1.595,202.000,58.500,207.500,205.000
1.596,199.500,55.000,203.000,200.500
1.597,198.000,52.000,199.500,196.500
1.598,197.500,51.000,197.500,194.500
1.599,197.500,51.000,197.000,194.000
1.600,199.000,52.000,198.000,195.000
1.601,201.000,54.000,200.000,197.000
1.602,202.500,56.000,202.000,199.000
1.603,205.000,58.500,204.500,202.000
1.604,207.000,61.000,207.500,205.000
1.605,209.500,64.000,211.000,208.500
1.606,212.000,67.000,214.500,212.500
1.607,215.500,71.000,219.000,217.000
1.608,218.500,75.500,223.500,222.000
1.609,222.000,79.500,228.500,227.000
1.610,224.500,82.500,232.500,231.000
1.611,225.500,84.000,234.500,232.500
1.612,225.500,84.000,234.500,232.500
1.613,223.500,82.000,232.000,230.000
1.614,221.000,79.000,228.500,226.000
1.615,217.500,75.000,223.500,220.500
1.616,214.500,71.000,218.500,215.500
1.617,212.000,67.500,214.500,211.000
1.618,210.500,65.000,211.500,208.000
1.619,210.000,64.000,210.000,206.500
1.620,210.000,64.000,209.500,206.000
1.621,210.500,64.500,209.500,207.000
1.622,211.500,65.500,211.000,208.000
1.623,213.000,67.000,212.500,210.000
1.624,214.500,68.500,214.500,212.000
1.625,216.500,70.500,217.500,214.500
1.626,218.500,73.000,220.500,218.000
1.627,220.500,76.500,224.000,222.000
1.628,223.000,80.000,228.500,226.000
1.629,225.000,83.000,232.000,230.000
1.630,226.500,85.000,235.000,232.500
1.631,226.500,86.000,236.000,233.500
1.632,225.000,84.500,235.000,232.000
1.633,222.000,81.500,231.500,228.500
1.634,218.500,77.000,226.500,223.000
1.635,214.500,72.000,220.500,217.000
1.636,210.500,67.000,214.500,211.500
1.637,207.000,63.000,209.500,206.500
1.638,205.000,60.000,206.000,203.000
1.639,204.000,58.500,204.000,201.000
1.640,203.500,57.500,203.000,200.000
1.641,203.500,57.500,203.000,200.000
1.642,204.000,58.000,204.000,201.000
1.643,205.000,59.000,205.000,202.500
1.644,207.000,61.000,207.500,204.500
1.645,209.000,63.500,210.000,207.500
1.646,211.500,66.500,213.500,211.000
1.647,214.500,70.000,217.500,215.000
1.648,217.500,73.500,222.000,220.000
1.649,220.000,77.000,226.500,224.500
1.650,221.500,79.000,229.000,227.500
1.651,221.500,80.000,230.500,228.500
1.652,220.000,79.000,229.500,227.500
1.653,218.000,76.000,226.500,224.500
1.654,214.500,72.000,222.000,220.000
1.655,210.500,67.500,217.000,214.000
1.656,207.000,63.000,211.500,208.500
1.657,203.500,59.000,207.000,203.500
1.658,201.500,56.000,204.000,200.500
1.659,201.000,55.000,202.500,199.000
1.660,201.000,55.000,202.000,198.500
1.661,202.500,56.000,203.000,199.000
1.662,204.500,57.500,204.500,201.000
1.663,207.000,59.500,206.500,203.000
1.664,209.500,62.500,209.500,206.500
1.665,212.500,65.500,213.000,210.000
1.666,215.500,69.500,217.500,214.000
1.667,219.000,73.500,222.000,219.000
1.668,222.500,78.000,227.500,224.500
1.669,225.500,82.000,232.000,229.500
1.670,227.500,85.000,235.500,232.500
1.671,228.000,86.500,237.000,234.500
1.672,227.500,85.500,236.500,233.500
1.673,225.000,83.500,234.000,231.000
1.674,222.000,80.000,230.000,226.500
1.675,218.500,75.500,225.000,221.500
1.676,215.500,71.000,220.000,216.000
1.677,213.000,67.500,215.500,211.500
1.678,211.500,65.000,212.500,208.500
1.679,211.000,64.000,211.000,207.000
1.680,211.000,63.500,210.500,206.500
1.681,211.500,64.000,210.500,206.500
1.682,212.500,64.500,211.000,207.500
1.683,213.500,65.500,212.000,208.500
1.684,214.500,67.000,213.500,210.000
1.685,215.500,68.500,215.500,212.000
1.686,217.000,70.500,218.000,214.000
1.687,219.000,73.000,220.500,217.000
1.688,220.500,75.500,224.000,220.000
1.689,222.500,78.000,226.500,222.500
1.690,223.000,79.500,228.500,224.500
1.691,223.000,79.500,229.000,224.500
1.692,221.500,78.000,227.500,222.500
1.693,219.500,75.000,224.500,219.500
1.694,216.500,71.500,220.500,215.000
1.695,213.500,67.500,216.000,210.000
1.696,211.500,64.000,211.500,206.000
1.697,209.500,61.500,209.000,203.000
1.698,209.000,60.500,207.500,202.000
1.699,209.500,60.000,207.000,202.000
1.700,210.500,61.000,208.000,203.500
1.701,212.000,62.500,210.500,206.000
1.702,214.000,65.000,213.000,209.000
1.703,216.500,67.500,216.000,212.500
1.704,219.000,71.000,219.500,216.000
1.705,222.000,74.000,223.000,220.500
1.706,225.500,78.000,227.500,225.000
1.707,228.500,82.000,232.000,230.000
1.708,232.000,86.000,237.000,234.500
1.709,234.500,89.500,241.500,239.000
1.710,236.500,92.000,244.500,242.000
1.711,237.000,93.000,246.000,243.500
1.712,236.000,92.500,245.500,243.000
1.713,234.000,90.000,242.500,240.000
1.714,231.500,86.000,238.500,235.500
1.715,228.000,82.000,233.500,230.000
1.716,225.000,77.500,228.500,224.500
1.717,222.500,74.000,224.000,219.500
1.718,220.500,71.500,220.500,216.500
1.719,219.500,70.000,219.000,214.500
1.720,219.500,69.500,218.000,213.500
1.721,219.500,69.500,218.000,213.500
1.722,220.000,70.000,218.500,214.000
1.723,221.000,71.500,219.500,215.000
1.724,222.500,73.000,221.000,217.000
1.725,224.500,75.000,223.500,219.500
1.726,226.500,78.000,227.000,222.500
1.727,229.000,81.000,230.500,226.500
1.728,231.500,84.000,234.500,230.500
1.729,233.000,87.000,238.500,234.500
1.730,234.500,89.000,241.000,237.500
1.731,234.500,89.500,242.500,239.000
1.732,233.500,89.000,241.500,238.500
1.733,231.500,86.500,239.000,235.500
1.734,228.500,83.000,234.500,230.500
1.735,224.500,78.500,229.500,225.500
1.736,221.000,74.500,224.000,220.000
1.737,218.500,71.000,220.000,215.500
1.738,216.500,68.500,216.500,212.500
1.739,215.500,67.000,214.500,210.500
1.740,215.500,66.000,213.500,210.000
1.741,215.500,66.500,213.500,210.000
1.742,216.500,67.000,214.500,211.000
1.743,217.500,68.000,215.500,212.000
1.744,218.500,70.000,217.000,214.000
1.745,220.500,72.000,219.500,216.500
1.746,222.500,75.000,223.000,220.000
1.747,225.000,78.500,227.000,224.000
1.748,228.000,82.500,231.000,228.500
1.749,230.500,86.000,235.500,232.500
1.750,232.500,89.000,239.000,236.000
1.751,233.500,90.500,241.000,238.000
1.752,233.000,90.500,241.000,238.000
1.753,231.500,89.500,239.000,236.000
1.754,229.000,87.000,236.000,232.500
1.755,226.500,83.500,232.000,228.000
1.756,224.000,80.000,227.500,223.500
1.757,222.000,77.000,224.000,219.500
1.758,221.000,75.000,221.000,217.000
1.759,220.500,74.500,220.000,216.000
1.760,220.500,74.000,219.500,215.500
1.761,221.000,74.500,219.500,216.000
1.762,222.500,75.500,220.500,217.500
1.763,224.000,77.500,222.500,219.500
1.764,226.000,79.500,225.000,222.000
1.765,228.500,82.500,228.500,225.500
1.766,231.500,86.500,232.500,229.500
1.767,234.500,90.500,237.000,234.500
1.768,237.500,95.000,242.000,239.500
1.769,240.500,98.500,246.500,244.000
1.770,242.000,101.000,249.500,247.000
1.771,242.500,102.000,251.000,248.500
1.772,241.000,101.500,250.500,248.000
1.773,239.000,99.000,247.500,245.000
1.774,236.000,95.000,243.000,240.500
1.775,232.500,91.000,238.000,235.000
1.776,229.000,86.500,232.500,229.500
1.777,226.000,83.000,228.000,225.000
1.778,224.500,80.500,225.500,222.000
1.779,224.000,79.500,224.000,220.500
1.780,224.500,79.500,224.000,220.500
1.781,225.500,80.500,224.500,221.500
1.782,226.500,81.500,226.000,223.000
1.783,228.000,83.500,227.500,224.500
1.784,229.500,85.500,230.000,227.000
1.785,231.000,87.500,232.500,229.500
1.786,232.500,90.000,235.500,232.500
1.787,234.500,92.500,238.500,236.000
1.788,236.500,95.500,242.000,240.000
1.789,238.500,98.500,245.500,243.500
1.790,240.000,100.500,248.000,246.500
1.791,240.000,101.000,249.000,247.000
1.792,239.000,100.000,248.000,246.000
1.793,236.500,97.000,244.500,242.500
1.794,233.500,93.000,240.000,237.500
1.795,229.500,88.500,234.000,231.500
1.796,225.500,83.500,228.000,225.500
1.797,222.000,79.500,223.500,220.500
1.798,220.000,77.000,220.000,216.500
1.799,219.000,75.500,218.000,214.500
1.800,218.500,75.000,217.000,214.000
1.801,218.500,75.000,217.000,214.000
1.802,219.500,76.000,218.000,215.000
1.803,220.000,77.000,219.500,216.500
1.804,221.000,78.500,221.000,218.500
1.805,222.500,80.500,223.500,220.500
1.806,223.500,82.500,226.000,223.500
1.807,225.500,85.500,229.000,226.500
1.808,227.500,88.500,233.000,230.500
1.809,229.000,91.000,236.500,234.500
1.810,230.500,93.500,239.000,237.000
1.811,230.500,94.000,240.500,238.500
1.812,230.000,94.000,240.000,237.500
1.813,228.500,92.000,237.500,235.500
1.814,226.000,89.000,234.000,231.500
1.815,223.000,85.500,229.500,226.500
1.816,220.500,81.500,225.000,222.000
1.817,218.500,79.000,221.500,218.000
1.818,218.000,77.000,219.000,215.500
1.819,218.000,76.500,218.000,214.500
1.820,219.000,77.000,218.000,215.000
1.821,220.500,78.500,219.000,216.000
1.822,222.000,80.000,220.500,217.500
1.823,223.500,82.000,222.500,219.500
1.824,225.500,84.000,225.000,222.000
1.825,228.000,87.000,228.000,225.000
1.826,230.500,90.000,231.500,229.000
1.827,233.000,93.500,235.500,233.500
1.828,235.500,97.000,240.000,238.000
1.829,238.500,100.500,244.500,242.500
1.830,240.500,103.500,248.000,246.000
1.831,241.500,104.500,250.000,247.500
1.832,241.000,104.500,249.500,247.500
1.833,239.500,103.000,247.500,245.500
1.834,237.000,100.000,244.500,242.000
1.835,234.500,96.500,240.000,237.500
1.836,231.500,93.000,235.500,233.000
1.837,229.500,90.000,231.500,229.000
1.838,228.500,88.500,229.000,226.500
1.839,229.000,87.500,228.500,226.000
1.840,229.500,88.000,229.000,226.000
1.841,231.000,89.000,230.000,227.500
1.842,232.500,90.500,231.500,229.000
1.843,234.500,92.500,233.500,231.000
1.844,236.000,94.500,235.500,233.500
1.845,238.000,96.500,238.500,236.500
1.846,240.500,99.500,241.500,240.000
1.847,243.000,102.500,245.500,244.000
1.848,245.500,106.500,250.000,248.500
1.849,248.000,110.000,254.500,253.500
1.850,250.000,113.000,258.000,257.000
1.851,251.000,114.500,260.000,259.000
1.852,250.500,114.000,259.500,259.000
1.853,248.500,111.500,257.500,257.000
1.854,245.000,108.000,253.500,252.500
1.855,241.500,103.500,248.000,247.000
1.856,238.000,99.000,243.000,241.500
1.857,235.500,95.500,239.000,237.000
1.858,234.000,93.500,236.000,234.000
1.859,234.000,92.500,235.000,233.000
1.860,234.000,93.000,235.000,232.500
1.861,235.000,94.000,235.500,233.500
1.862,236.500,95.500,237.000,234.500
1.863,238.000,97.500,239.000,236.500
1.864,240.000,99.500,241.000,239.000
1.865,241.500,102.000,244.000,242.000
1.866,244.000,105.000,247.000,245.500
1.867,246.500,108.000,251.000,250.000
1.868,249.000,111.500,255.000,254.500
1.869,251.000,115.000,259.000,259.000
1.870,253.000,117.000,262.000,262.500
1.871,253.000,118.000,263.500,264.000
1.872,252.500,117.500,263.000,263.500
1.873,250.500,115.000,260.500,261.000
1.874,247.000,111.000,256.000,256.500
1.875,243.500,106.500,250.500,251.000
1.876,240.000,101.500,245.500,245.000
1.877,237.000,98.000,241.000,240.500
1.878,235.500,95.500,238.000,237.500
1.879,235.000,94.500,236.500,236.000
1.880,235.500,94.500,236.500,236.000
1.881,236.000,95.000,237.000,236.500
1.882,237.000,96.000,238.000,238.000
1.883,238.000,97.000,239.500,239.500
1.884,239.500,98.500,241.000,241.500
1.885,241.000,100.500,243.500,244.000
1.886,242.500,102.500,246.000,246.500
1.887,244.500,105.500,249.000,250.000
1.888,247.000,108.500,253.000,253.500
1.889,249.000,111.500,256.500,257.500
1.890,250.500,113.500,259.500,260.000
1.891,250.500,114.000,260.500,261.000
1.892,250.000,113.500,259.500,260.000
1.893,247.500,111.000,257.000,257.000
1.894,245.000,107.500,253.000,253.000
1.895,242.000,103.500,248.500,248.000
1.896,239.000,99.500,243.500,243.000
1.897,236.500,96.000,239.500,238.500
1.898,235.000,93.500,236.500,236.000
1.899,234.000,92.500,235.000,234.500
1.900,234.000,92.000,234.500,234.000
1.901,235.000,92.500,235.000,234.500
1.902,236.000,94.000,236.500,235.500
1.903,237.000,95.000,237.500,237.500
1.904,238.500,96.500,239.500,239.000
1.905,239.500,98.500,241.500,241.500
1.906,241.500,100.500,244.000,244.500
1.907,243.000,103.000,247.500,248.000
1.908,245.000,106.000,251.000,252.000
1.909,247.000,109.000,255.000,256.000
1.910,248.500,112.000,258.000,259.000
1.911,249.500,113.000,260.000,260.500
1.912,249.000,113.000,260.000,260.500
1.913,247.500,111.000,258.000,258.000
1.914,245.000,108.000,254.500,254.000
1.915,242.000,104.000,250.000,249.500
1.916,239.500,100.500,245.500,245.000
1.917,237.000,97.000,241.500,241.000
1.918,236.000,95.000,239.000,238.500
1.919,235.500,94.500,238.000,237.500
1.920,236.000,95.000,238.000,237.500
1.921,237.000,95.500,238.500,238.500
1.922,238.000,97.000,240.000,239.500
1.923,239.500,98.500,241.500,241.500
1.924,241.000,100.500,244.000,243.500
1.925,242.500,102.500,246.000,246.000
1.926,244.500,105.000,249.000,249.000
1.927,247.000,108.000,252.500,253.000
1.928,249.000,111.000,256.500,257.500
1.929,251.500,114.000,260.000,261.000
1.930,252.500,116.000,263.000,264.000
1.931,252.500,117.000,264.000,264.500
1.932,251.500,116.000,263.000,263.500
1.933,249.000,113.000,260.000,260.500
1.934,246.000,109.000,255.500,256.000
1.935,242.000,104.500,250.000,251.000
1.936,238.500,100.000,245.000,245.500
1.937,236.000,96.000,240.500,241.000
1.938,234.500,94.000,237.500,238.000
1.939,233.500,92.500,236.000,236.500
1.940,233.500,92.500,235.500,236.000
1.941,233.500,92.500,235.500,236.000
1.942,234.000,93.000,236.000,236.500
1.943,235.000,94.000,236.500,237.500
1.944,236.000,95.000,238.000,239.000
1.945,237.000,97.000,239.500,241.000
1.946,238.000,98.500,242.000,243.500
1.947,239.500,101.000,244.500,246.500
1.948,241.500,103.500,248.000,250.000
1.949,243.000,106.000,251.000,253.500
1.950,244.000,107.500,253.500,256.000
1.951,243.500,107.500,254.500,256.500
1.952,241.500,106.000,253.000,255.000
1.953,238.000,102.500,249.500,251.000
1.954,234.000,98.500,244.000,246.000
1.955,230.000,93.500,238.500,240.000
1.956,226.000,89.000,232.500,234.000
1.957,223.000,85.500,228.000,229.500
1.958,221.500,83.500,224.500,226.000
1.959,220.500,82.000,222.500,224.000
1.960,220.000,82.000,222.000,223.500
1.961,220.500,82.500,222.500,224.000
1.962,221.500,83.500,223.500,225.500
1.963,222.500,85.000,225.000,227.000
1.964,224.000,86.500,227.000,229.000
1.965,226.000,88.500,229.500,232.000
1.966,228.000,91.500,232.000,234.500
1.967,230.000,94.000,235.500,238.000
1.968,232.000,97.000,239.000,242.000
1.969,233.500,99.500,242.000,245.000
1.970,234.500,101.000,244.500,247.500
1.971,234.000,101.500,245.000,248.000
1.972,232.500,100.000,243.500,246.500
1.973,229.500,97.000,240.500,243.000
1.974,225.500,92.500,235.500,237.500
1.975,221.500,87.000,230.000,231.500
1.976,217.500,82.000,224.000,225.000
1.977,214.000,77.500,218.500,220.000
1.978,211.500,74.500,215.000,216.000
1.979,210.000,72.500,212.500,214.000
1.980,209.500,72.000,211.500,213.000
1.981,209.500,72.000,211.500,212.500
1.982,209.500,72.500,212.000,213.000
1.983,210.500,73.500,213.000,214.000
1.984,211.500,75.000,214.500,216.000
1.985,213.500,77.000,216.500,218.500
1.986,215.000,79.500,219.500,221.500
1.987,217.000,82.000,222.500,225.000
1.988,219.500,85.000,226.000,229.000
1.989,221.500,88.000,229.500,232.500
1.990,223.000,90.500,232.500,236.000
1.991,223.500,91.500,234.000,237.500
1.992,222.500,91.000,233.500,237.000
1.993,221.000,89.500,231.500,235.000
1.994,218.000,86.000,227.500,231.000
1.995,215.500,82.000,223.000,226.500
1.996,212.500,78.000,218.500,221.500
1.997,210.500,75.000,215.000,217.500
1.998,209.500,73.000,212.500,215.000
1.999,209.500,72.500,211.500,214.000
2.000,210.500,73.000,211.500,214.000
2.001,211.500,74.000,212.500,215.000
2.002,213.000,75.500,214.000,216.500
2.003,215.000,77.500,216.000,218.000
2.004,217.000,80.000,218.000,220.500
2.005,219.500,82.500,221.000,223.500
2.006,222.000,85.500,225.000,227.500
2.007,224.500,89.000,229.000,232.000
2.008,227.000,92.500,233.000,236.500
2.009,229.500,96.000,237.500,241.000
2.010,231.000,98.000,240.500,244.000
2.011,231.500,99.000,242.000,245.500
2.012,230.500,98.000,241.000,244.500
2.013,228.500,96.000,238.500,242.000
2.014,225.500,92.500,234.500,237.500
2.015,222.000,88.000,229.500,232.500
2.016,218.500,84.000,224.500,227.000
2.017,216.000,80.500,220.000,223.000
2.018,214.500,78.000,216.500,220.000
2.019,213.500,76.500,214.500,218.000
2.020,213.000,76.000,214.000,217.000
2.021,213.000,76.000,213.500,217.000
2.022,213.500,76.500,214.000,217.500
2.023,214.000,77.000,214.500,218.000
2.024,214.500,78.000,215.500,219.500
2.025,215.500,79.500,217.500,221.500
2.026,217.000,81.000,219.500,224.000
2.027,218.000,83.000,222.500,227.000
2.028,219.500,85.500,225.500,230.500
2.029,221.000,87.500,228.000,233.500
2.030,221.000,88.500,229.500,235.500
2.031,220.000,88.000,229.500,235.500
2.032,217.500,86.000,227.500,233.000
2.033,214.000,82.000,223.500,229.000
2.034,209.500,77.000,217.500,223.500
2.035,204.500,71.500,211.000,217.000
2.036,200.000,66.000,205.000,210.500
2.037,196.000,61.500,199.500,205.000
2.038,193.000,57.500,196.000,201.500
2.039,191.000,55.500,193.500,199.000
2.040,190.000,54.000,192.500,198.500
2.041,189.500,53.500,192.500,199.000
2.042,189.500,53.500,193.000,200.000
2.043,190.000,54.500,194.000,202.000
2.044,190.500,56.000,196.000,204.500
2.045,192.000,58.500,199.000,208.500
2.046,194.500,61.500,203.000,213.000
2.047,197.500,66.000,208.000,219.000
2.048,201.000,70.500,214.000,225.500
2.049,204.000,75.500,220.000,231.500
2.050,207.000,79.500,225.000,237.500
2.051,209.500,82.500,229.000,241.500
2.052,210.500,84.500,231.500,244.000
2.053,210.500,84.500,231.500,244.500
2.054,210.000,83.500,230.500,243.500
2.055,208.500,81.500,227.500,241.000
2.056,207.000,78.500,224.500,237.500
2.057,205.500,76.000,221.500,235.000
2.058,204.500,74.500,219.500,233.000
2.059,204.500,74.500,218.500,232.500
2.060,206.000,75.500,219.500,233.500
2.061,208.000,77.500,221.500,235.500
2.062,211.000,80.500,224.000,238.000
2.063,214.500,83.500,227.000,240.500
2.064,218.000,87.500,230.000,243.500
2.065,222.000,91.500,234.000,246.500
2.066,226.000,96.000,238.000,249.500
2.067,230.500,101.000,243.000,253.000
2.068,235.000,105.500,247.500,256.500
2.069,238.500,109.000,252.000,260.000
2.070,240.000,111.000,254.000,261.000
2.071,240.000,111.000,254.000,260.500
2.072,238.000,108.500,251.000,257.000
2.073,234.500,104.000,246.000,251.000
2.074,229.000,98.000,239.000,243.500
2.075,223.000,91.000,231.000,234.500
2.076,217.000,83.500,223.000,225.500
2.077,211.500,77.000,215.000,217.500
2.078,206.500,71.500,209.000,211.000
2.079,203.000,67.000,204.000,206.000
2.080,200.000,63.500,200.000,202.000
2.081,198.000,60.500,197.000,199.000
2.082,196.500,58.500,195.000,197.000
2.083,195.000,57.500,194.000,196.000
2.084,194.500,57.000,193.500,196.000
2.085,194.000,57.000,194.500,197.000
2.086,195.000,58.500,196.500,199.000
2.087,196.000,61.000,199.500,202.500
2.088,197.500,63.500,203.000,206.500
2.089,199.000,66.500,206.500,210.500
2.090,200.500,68.500,209.500,214.000
2.091,200.500,69.500,211.000,215.500
2.092,199.500,69.000,210.500,215.500
2.093,197.500,67.000,208.500,213.000
2.094,195.000,64.000,205.000,209.500
2.095,192.000,60.000,200.500,205.000
2.096,189.500,56.500,196.000,200.500
2.097,187.500,53.500,192.500,197.000
2.098,187.000,51.500,190.500,194.500
2.099,187.000,51.000,189.500,193.500
2.100,188.000,51.500,189.500,193.500
2.101,189.000,53.000,190.500,194.500
2.102,191.000,54.500,192.000,196.000
2.103,192.500,57.000,194.000,198.000
2.104,195.000,59.500,196.500,200.500
2.105,197.000,62.000,199.500,203.500
2.106,199.500,65.000,202.500,207.000
2.107,202.000,68.000,206.000,210.500
2.108,205.000,71.500,210.500,215.000
2.109,207.500,75.000,214.000,219.000
2.110,209.000,77.500,217.000,222.000
2.111,210.000,78.500,218.500,223.000
2.112,209.000,78.000,218.500,222.500
2.113,207.500,76.000,216.000,220.000
2.114,204.500,72.500,212.500,215.500
2.115,201.000,68.500,207.500,210.500
2.116,198.000,64.500,202.500,205.500
2.117,195.500,61.000,198.500,201.000
2.118,194.000,58.500,195.500,198.500
2.119,193.500,57.000,194.000,197.000
2.120,193.500,57.000,193.500,196.500
2.121,194.500,58.000,194.000,197.500
2.122,196.000,59.500,196.000,199.500
2.123,198.000,62.000,198.000,202.000
2.124,200.500,64.500,201.000,205.000
2.125,203.500,67.500,204.000,208.500
2.126,206.500,71.000,208.000,212.500
2.127,210.000,75.500,213.000,217.500
2.128,214.000,79.500,218.000,223.000
2.129,217.000,84.000,223.000,228.000
2.130,219.000,87.000,227.000,232.000
2.131,220.000,88.500,229.000,234.000
2.132,219.500,88.500,228.500,233.500
2.133,217.500,86.000,226.000,231.000
2.134,214.000,82.500,222.000,226.000
2.135,210.500,78.000,216.500,220.500
2.136,207.500,73.500,211.000,215.000
2.137,204.500,69.500,206.500,210.500
2.138,203.000,67.000,203.500,207.000
2.139,202.500,65.500,202.000,205.500
2.140,202.500,65.500,201.500,205.500
2.141,203.500,66.500,202.500,206.500
2.142,204.500,68.000,204.000,208.000
2.143,206.500,69.500,205.500,210.000
2.144,208.500,72.000,208.000,212.500
2.145,211.000,74.500,211.000,215.500
2.146,214.000,77.500,214.500,219.000
2.147,217.000,81.500,218.500,223.500
2.148,220.500,85.000,223.000,228.000
2.149,223.500,89.000,227.500,232.500
2.150,225.500,92.000,231.000,236.500
2.151,226.500,93.500,233.000,238.500
2.152,226.500,93.500,233.000,238.500
2.153,224.500,92.000,231.000,236.500
2.154,222.000,89.000,227.500,232.500
2.155,219.000,85.000,223.000,228.000
2.156,216.000,81.000,218.000,222.500
2.157,213.000,77.000,213.500,218.000
2.158,211.000,74.500,210.500,214.500
2.159,210.000,73.000,208.500,212.000
2.160,209.500,72.000,207.500,211.500
2.161,210.000,72.500,207.500,211.500
2.162,211.000,73.000,208.000,212.000
2.163,212.000,74.000,209.500,213.000
2.164,213.000,76.000,211.500,215.000
2.165,215.000,78.000,214.000,217.500
2.166,217.000,80.500,217.000,221.000
2.167,219.500,83.500,221.000,225.000
2.168,222.000,87.000,225.000,229.500
2.169,224.500,90.000,229.000,233.500
2.170,226.000,92.500,232.000,236.500
2.171,226.500,93.500,233.000,238.000
2.172,225.500,92.500,232.500,237.000
2.173,223.500,90.000,230.000,234.500
2.174,220.500,86.000,225.500,230.000
2.175,216.500,81.500,220.500,224.500
2.176,213.000,77.000,215.000,218.500
2.177,210.000,73.000,210.000,214.000
2.178,208.000,70.500,206.500,210.500
2.179,207.000,69.000,205.000,208.500
2.180,206.500,68.500,204.000,208.000
2.181,206.500,68.500,204.500,208.000
2.182,207.000,69.000,205.000,208.500
2.183,208.000,70.000,206.000,210.000
2.184,209.000,71.000,207.000,211.000
2.185,210.000,72.500,209.000,213.000
2.186,211.000,74.500,211.000,215.500
2.187,212.500,76.500,214.000,218.500
2.188,214.000,79.000,217.000,222.000
2.189,215.500,81.000,220.000,225.500
2.190,216.500,82.500,222.500,228.000
2.191,217.000,83.000,223.500,229.000
2.192,216.000,82.000,222.500,228.000
2.193,214.000,80.000,220.000,225.500
2.194,211.000,76.500,216.000,221.000
2.195,208.000,72.500,211.500,215.500
2.196,205.000,68.500,206.500,210.500
2.197,202.500,65.000,202.000,205.500
2.198,201.000,62.000,199.000,202.500
2.199,200.000,60.500,197.000,200.500
2.200,199.500,60.000,196.000,199.500
2.201,200.000,60.000,196.000,199.500
2.202,200.500,60.500,196.500,200.500
2.203,202.000,62.000,198.000,201.500
2.204,203.500,63.500,200.000,203.500
2.205,205.000,66.000,202.500,206.500
2.206,207.500,69.000,206.000,209.500
2.207,210.000,72.500,210.000,213.500
2.208,212.500,76.000,214.500,218.000
2.209,215.000,79.000,218.500,222.500
2.210,216.500,81.500,222.000,226.000
2.211,217.000,82.500,223.500,228.000
2.212,216.000,82.000,223.500,227.500
2.213,214.500,80.000,221.000,225.500
2.214,211.500,76.500,217.500,221.500
2.215,208.500,72.500,212.500,217.000
2.216,205.500,68.500,207.500,212.000
2.217,203.000,64.500,203.500,207.500
2.218,201.500,62.500,200.500,204.500
2.219,201.500,61.500,199.000,203.000
2.220,202.000,61.500,199.000,202.500
2.221,202.500,62.000,199.500,203.000
2.222,204.000,63.000,200.500,204.000
2.223,205.000,64.500,201.500,205.500
2.224,206.500,66.000,203.500,207.500
2.225,208.500,68.000,205.500,209.500
2.226,210.000,70.500,208.000,212.500
2.227,212.000,72.500,211.000,215.500
2.228,213.500,75.000,214.500,219.000
2.229,215.000,77.500,218.000,223.000
2.230,216.000,79.000,220.500,225.500
2.231,215.500,79.000,221.000,226.500
2.232,214.000,78.000,220.500,225.500
2.233,211.500,75.000,217.500,222.500
2.234,208.000,71.000,212.500,217.500
2.235,204.000,66.000,207.000,211.500
2.236,200.000,61.000,201.000,205.500
2.237,196.500,56.500,196.000,200.500
2.238,194.500,53.500,192.500,197.000
2.239,193.000,52.000,190.000,195.000
2.240,193.000,51.000,189.500,194.000
2.241,193.000,51.500,189.500,194.500
2.242,194.000,52.500,191.000,195.500
2.243,195.500,54.000,192.500,197.500
2.244,197.500,56.000,195.000,200.000
2.245,199.500,58.500,198.000,202.500
2.246,202.000,61.500,201.500,206.000
2.247,205.000,65.000,205.500,210.500
2.248,208.000,69.000,210.000,215.500
2.249,211.000,73.000,215.000,221.000
2.250,213.500,76.500,219.000,225.000
2.251,215.500,78.500,222.000,228.000
2.252,215.500,79.500,222.500,228.500
2.253,214.500,78.000,221.000,227.000
2.254,212.500,75.500,218.000,224.000
2.255,209.500,71.500,213.000,219.000
2.256,206.000,67.500,208.000,214.000
2.257,203.000,64.000,204.000,209.500
2.258,201.500,61.000,200.500,206.000
2.259,200.500,59.500,199.000,204.000
2.260,200.000,59.000,198.000,203.000
2.261,200.500,59.000,198.500,203.000
2.262,201.000,59.500,199.000,203.500
2.263,202.000,60.500,200.000,204.500
2.264,203.000,61.500,201.500,206.000
2.265,204.000,63.000,203.000,208.000
2.266,205.000,65.000,205.500,210.500
2.267,207.000,67.500,208.000,213.500
2.268,208.500,70.000,211.500,217.000
2.269,210.000,72.500,214.500,220.500
2.270,211.500,74.500,217.000,223.000
2.271,211.500,75.000,218.500,224.000
2.272,210.500,74.500,217.500,223.000
2.273,208.500,72.000,215.500,220.500
2.274,206.000,68.500,211.500,216.500
2.275,202.500,64.000,206.500,211.000
2.276,199.000,59.500,201.000,206.000
2.277,196.000,56.000,196.500,201.000
2.278,194.000,53.000,193.000,198.000
2.279,192.500,51.500,190.500,196.000
2.280,192.500,51.000,189.500,195.000
2.281,192.500,51.000,189.500,195.000
2.282,192.500,51.500,190.000,195.500
2.283,193.500,52.000,191.000,196.500
2.284,194.000,53.500,192.000,198.000
2.285,195.000,54.500,194.000,200.000
2.286,196.500,56.500,196.500,202.500
2.287,198.000,59.000,199.500,206.000
2.288,200.000,61.500,203.000,209.500
2.289,201.500,64.000,206.500,213.000
2.290,203.000,66.000,209.000,215.500
2.291,203.000,66.500,210.000,216.000
2.292,201.500,65.500,209.000,215.000
2.293,198.500,62.500,205.500,211.500
2.294,195.000,58.000,201.000,206.500
2.295,191.000,53.000,195.000,201.000
2.296,187.000,48.000,189.500,195.000
2.297,184.000,44.000,184.500,190.000
2.298,182.000,41.000,180.500,186.000
2.299,180.500,39.500,178.500,184.000
2.300,180.000,39.000,178.000,183.000
2.301,180.500,39.000,178.000,183.000
2.302,181.500,39.500,179.000,183.500
2.303,182.500,40.500,180.000,185.000
2.304,184.000,42.000,181.500,187.000
2.305,185.500,44.000,183.500,189.000
2.306,187.500,46.000,186.000,192.000
2.307,190.000,49.500,189.500,196.000
2.308,193.000,53.000,194.000,200.500
2.309,195.500,57.000,198.500,205.500
2.310,198.000,60.000,202.000,209.000
2.311,199.000,61.500,204.000,211.000
2.312,198.500,61.000,204.000,211.000
2.313,197.000,59.000,202.000,209.000
2.314,194.000,55.500,198.000,204.500
2.315,190.500,51.500,193.000,199.500
2.316,187.000,47.000,188.000,194.000
2.317,184.500,43.500,183.500,189.000
2.318,182.500,40.500,180.500,185.500
2.319,181.000,39.000,178.500,183.500
2.320,181.000,38.500,178.000,182.500
2.321,181.500,39.000,178.000,182.500
2.322,182.000,39.500,179.000,183.500
2.323,183.000,41.000,180.500,185.000
2.324,184.500,42.500,182.500,187.000
2.325,186.000,44.500,184.500,189.500
2.326,188.000,47.000,187.000,192.500
2.327,189.500,49.500,190.000,196.000
2.328,191.500,52.000,193.000,199.500
2.329,193.000,54.000,196.000,202.500
2.330,193.500,55.500,197.500,205.000
2.331,193.000,55.500,198.000,205.000
2.332,191.000,53.500,196.500,203.500
2.333,188.500,50.500,193.000,200.000
2.334,184.500,45.500,188.000,195.000
2.335,180.500,40.500,182.000,189.000
2.336,176.000,35.000,176.000,182.500
2.337,172.500,30.500,170.500,177.000
2.338,170.000,27.000,166.500,172.500
2.339,168.500,25.000,163.500,170.000
2.340,168.000,24.000,162.000,168.500
2.341,167.500,23.500,161.500,168.000
2.342,168.000,23.500,161.500,168.000
2.343,168.500,24.000,162.500,169.000
2.344,170.000,25.000,164.000,170.500
2.345,171.500,27.000,166.000,173.000
2.346,174.000,29.500,168.500,176.000
2.347,176.500,33.000,172.500,180.000
2.348,179.500,36.500,177.000,184.500
2.349,182.000,40.500,181.500,189.000
2.350,184.000,43.500,185.500,193.000
2.351,185.000,45.000,187.500,195.000
2.352,185.000,45.500,188.000,195.000
2.353,183.500,44.000,186.500,193.000
2.354,181.500,41.000,183.500,190.000
2.355,178.500,37.500,179.000,185.500
2.356,176.000,33.500,174.500,181.000
2.357,173.000,30.000,170.000,176.500
2.358,171.000,27.000,166.500,172.500
2.359,170.000,24.500,164.000,170.000
2.360,169.000,23.500,162.500,168.500
2.361,169.000,22.500,162.000,168.000
2.362,169.000,22.500,162.000,168.000
2.363,169.500,23.000,162.500,169.000
2.364,170.500,24.500,164.000,170.500
2.365,172.000,26.000,166.000,172.500
2.366,173.500,28.500,168.500,175.500
2.367,175.500,31.500,172.000,179.000
2.368,177.500,34.500,175.500,182.500
2.369,179.500,37.500,179.000,186.500
2.370,180.500,39.500,181.500,189.000
2.371,180.500,40.000,182.500,190.000
2.372,179.500,39.000,181.500,189.000
2.373,177.000,36.000,179.000,185.500
2.374,173.500,32.500,174.500,181.000
2.375,170.000,27.500,169.000,175.000
2.376,166.000,22.500,163.500,169.000
2.377,163.000,18.500,158.500,164.000
2.378,160.500,15.500,155.000,160.500
2.379,159.500,14.000,152.500,158.500
2.380,159.000,13.000,152.000,157.500
2.381,159.500,13.500,152.500,158.000
2.382,160.500,14.500,153.500,159.000
2.383,162.000,16.000,155.000,160.500
2.384,163.500,18.000,157.000,162.500
2.385,165.000,20.000,159.000,165.000
2.386,167.000,22.500,162.000,168.000
2.387,169.500,25.500,165.500,171.500
2.388,172.000,29.000,169.500,176.000
2.389,174.500,32.500,173.500,180.000
2.390,176.000,34.500,176.500,183.500
2.391,176.500,35.500,178.000,184.500
2.392,175.500,35.000,177.500,184.000
2.393,173.000,32.500,174.500,181.500
2.394,170.000,29.000,170.500,177.000
2.395,166.500,24.500,165.000,171.000
2.396,162.500,19.500,159.000,165.500
2.397,159.000,15.500,154.000,160.000
2.398,157.000,12.000,150.500,156.000
2.399,155.000,9.500,147.500,153.500
2.400,154.500,8.500,146.500,152.000
2.401,154.500,8.500,146.000,151.500
2.402,155.000,8.500,146.500,152.000
2.403,156.000,9.500,147.500,153.000
2.404,157.000,11.000,149.000,155.000
2.405,158.500,13.000,151.500,157.500
2.406,160.500,15.000,154.000,161.000
2.407,162.500,18.000,157.500,164.500
2.408,164.500,21.000,161.000,168.500
2.409,166.000,24.000,165.000,172.500
2.410,167.500,26.000,168.000,175.500
2.411,168.000,27.000,169.000,176.500
2.412,166.500,26.000,168.500,176.000
2.413,164.500,23.500,166.000,173.500
2.414,161.500,20.000,161.500,169.500
2.415,158.000,16.000,157.000,164.500
2.416,155.000,12.000,152.000,159.000
2.417,152.500,8.500,147.500,154.500
2.418,151.000,6.000,144.500,151.500
2.419,151.000,5.500,143.500,150.500
2.420,151.500,5.500,143.500,150.500
2.421,153.000,7.000,144.500,151.500
2.422,155.000,9.000,146.500,153.500
2.423,157.500,11.500,149.500,156.500
2.424,161.000,15.000,153.000,160.000
2.425,164.000,18.500,157.000,164.000
2.426,168.000,22.500,161.500,168.500
2.427,171.500,27.000,166.500,174.000
2.428,176.000,32.000,172.500,179.500
2.429,179.500,36.500,178.000,185.000
2.430,182.500,40.500,182.000,189.500
2.431,184.000,42.500,184.500,192.000
2.432,184.000,42.500,185.000,192.500
2.433,183.000,41.000,183.500,190.500
2.434,181.000,38.000,180.000,187.000
2.435,178.000,34.000,175.500,182.500
2.436,175.000,30.000,170.500,177.000
2.437,172.000,26.000,166.000,172.000
2.438,170.000,23.000,162.000,168.500
2.439,168.500,21.000,159.500,165.500
2.440,168.000,20.000,158.500,164.500
2.441,168.000,20.000,158.000,164.000
2.442,169.000,20.500,158.500,164.500
2.443,169.500,22.000,160.000,166.000
2.444,171.000,23.500,161.500,168.000
2.445,172.500,25.500,164.000,170.500
2.446,174.500,27.500,167.000,173.000
2.447,176.500,30.000,170.000,176.500
2.448,178.500,33.000,174.000,180.500
2.449,181.000,36.000,177.500,184.500
2.450,183.000,38.500,181.000,188.000
2.451,184.000,40.000,182.500,189.500
2.452,183.500,39.500,182.000,189.500
2.453,182.000,38.000,180.000,187.000
2.454,179.000,34.500,176.000,183.000
2.455,176.000,30.000,171.000,177.500
2.456,172.500,25.500,166.000,172.000
2.457,169.500,21.500,161.000,167.000
2.458,167.500,19.000,157.500,163.000
2.459,166.500,17.000,155.500,161.000
2.460,166.000,16.500,154.000,159.500
2.461,166.000,16.500,154.000,159.500
2.462,166.500,17.000,154.500,160.000
2.463,167.500,18.000,156.000,161.000
2.464,169.000,19.500,157.500,162.500
2.465,170.000,21.000,159.000,164.000
2.466,172.000,23.000,161.500,166.500
2.467,173.500,25.000,164.000,169.000
2.468,175.500,27.500,167.500,172.000
2.469,177.000,29.500,170.500,175.000
2.470,177.500,31.000,172.500,177.000
2.471,177.500,31.500,173.000,177.000
2.472,176.500,30.000,172.000,176.000
2.473,174.000,28.000,169.500,173.000
2.474,171.500,24.500,165.500,169.500
2.475,168.500,21.000,161.500,165.000
2.476,165.500,17.500,157.500,161.500
2.477,163.500,15.000,154.000,158.500
2.478,162.500,13.500,152.500,156.500
2.479,163.000,13.500,152.000,156.500
2.480,164.000,14.000,153.000,157.500
2.481,166.000,16.000,155.000,159.500
2.482,168.000,18.000,157.000,162.000
2.483,170.500,20.500,160.000,165.500
2.484,173.500,24.000,163.000,169.000
2.485,176.000,27.000,166.500,172.500
2.486,179.000,30.500,170.000,176.500
2.487,182.000,34.500,174.000,181.000
2.488,185.000,38.000,178.500,185.500
2.489,187.500,41.500,183.000,189.500
2.490,189.500,44.500,186.000,192.500
2.491,190.500,45.500,188.000,194.000
2.492,190.000,45.500,188.000,193.500
2.493,188.500,43.500,185.500,191.000
2.494,186.000,40.000,181.500,187.000
2.495,182.500,35.500,176.500,181.500
2.496,179.000,31.000,171.000,176.000
2.497,176.000,27.500,166.000,171.000
2.498,174.000,24.500,162.500,167.500
2.499,173.000,23.000,160.500,165.500
2.500,173.000,22.500,160.000,164.500
2.501,173.000,23.000,160.000,164.500
2.502,174.000,24.000,161.000,165.000
2.503,175.500,25.000,162.500,166.500
2.504,177.000,27.000,165.000,169.000
2.505,179.000,29.500,167.500,172.000
2.506,181.000,32.000,170.500,175.500
2.507,183.500,35.000,174.500,179.500
2.508,186.000,39.000,178.500,184.000
2.509,188.500,42.500,183.000,188.000
2.510,190.500,45.500,187.000,192.000
2.511,191.500,47.500,189.000,194.000
2.512,191.500,47.500,189.000,194.000
2.513,190.000,46.000,187.500,192.000
2.514,187.000,42.500,183.500,188.000
2.515,183.500,38.500,179.000,183.000
2.516,180.500,34.000,174.000,177.500
2.517,178.000,30.500,169.000,173.000
2.518,176.000,28.000,165.500,169.500
2.519,175.000,27.000,163.500,167.500
2.520,174.500,26.500,162.500,166.500
2.521,175.000,26.500,163.000,166.500
2.522,175.500,27.000,163.500,167.000
2.523,176.500,28.000,165.000,168.500
2.524,177.500,29.500,166.500,170.000
2.525,179.000,31.500,169.000,172.500
2.526,181.000,34.000,171.500,175.500
2.527,183.500,37.000,175.000,179.500
2.528,186.000,40.500,179.500,183.500
2.529,189.000,44.000,183.500,188.000
2.530,191.000,46.500,187.000,191.500
2.531,191.500,48.000,189.000,193.500
2.532,191.000,47.500,188.500,193.000
2.533,189.000,45.500,186.500,190.500
2.534,186.500,42.000,182.500,187.000
2.535,183.500,38.000,178.000,182.000
2.536,180.500,34.500,173.500,177.000
2.537,178.500,31.500,169.500,173.000
2.538,177.500,30.000,167.500,170.500
2.539,177.500,29.500,166.500,169.500
2.540,178.000,30.000,166.500,169.500
2.541,179.500,31.000,167.500,170.500
2.542,181.000,32.500,169.000,172.000
2.543,183.000,35.000,171.000,174.500
2.544,185.500,37.500,174.000,177.000
2.545,188.500,40.500,177.000,180.500
2.546,191.000,44.000,181.000,184.500
2.547,194.000,47.500,185.000,189.000
2.548,197.000,52.000,190.000,194.000
2.549,200.000,55.500,194.500,198.500
2.550,201.500,58.500,198.000,202.500
2.551,202.500,60.000,199.500,205.000
2.552,202.000,60.000,200.000,205.000
2.553,200.500,58.000,198.000,203.000
2.554,197.500,54.500,194.500,199.000
2.555,194.000,50.500,189.500,193.500
2.556,191.000,45.500,184.000,187.500
2.557,188.000,42.000,179.500,183.000
2.558,186.500,39.000,176.500,179.500
2.559,185.500,38.000,174.500,178.000
2.560,186.000,37.500,174.000,177.000
2.561,186.500,38.000,174.500,177.500
2.562,187.500,39.000,175.500,178.500
2.563,189.000,40.500,177.000,180.000
2.564,190.000,42.000,178.500,181.500
2.565,191.500,44.000,181.000,184.000
2.566,193.500,46.000,183.500,186.500
2.567,195.500,49.000,187.000,190.000
2.568,197.500,52.000,190.500,193.500
2.569,199.000,55.000,194.000,197.000
2.570,200.500,57.000,196.500,200.000
2.571,200.500,58.000,198.000,201.500
2.572,199.500,57.500,197.500,201.500
2.573,197.500,55.500,195.500,199.000
2.574,195.000,52.000,192.000,195.500
2.575,191.500,48.000,187.500,190.500
2.576,188.500,44.000,182.000,185.500
2.577,185.500,40.000,177.500,181.000
2.578,184.000,37.500,174.000,177.500
2.579,183.000,36.000,172.000,175.500
2.580,183.000,35.000,171.500,175.000
2.581,183.500,35.500,171.500,175.500
2.582,184.500,36.000,172.500,176.000
2.583,185.500,37.000,174.000,177.500
2.584,186.500,39.000,176.000,179.000
2.585,188.000,41.000,178.500,181.000
2.586,190.000,43.500,181.500,184.000
2.587,193.000,47.500,185.500,188.000
2.588,196.000,51.000,190.500,192.500
2.589,199.000,55.000,195.000,197.500
2.590,201.500,58.500,199.000,202.000
2.591,203.500,61.000,202.000,204.500
2.592,204.000,61.500,202.500,205.500
2.593,203.000,60.500,201.500,204.000
2.594,201.000,58.500,199.000,201.000
2.595,198.500,55.000,195.000,197.000
2.596,196.000,51.500,191.000,192.500
2.597,194.000,48.500,187.500,188.500
2.598,192.500,47.000,185.000,186.000
2.599,192.000,46.000,183.500,184.500
2.600,192.000,46.000,183.000,184.500
2.601,192.500,46.500,183.500,185.000
2.602,193.500,47.000,184.000,185.500
2.603,194.500,48.500,185.500,187.000
2.604,195.500,49.500,187.000,188.500
2.605,197.000,51.500,189.000,190.500
2.606,199.000,53.500,192.000,193.500
2.607,201.500,56.500,195.500,197.500
2.608,204.000,60.000,199.500,201.500
2.609,206.500,63.500,204.000,206.000
2.610,208.500,66.000,207.500,209.000
2.611,209.500,67.500,209.500,211.000
2.612,209.000,67.000,209.000,210.500
2.613,207.000,65.500,207.000,208.500
2.614,204.500,62.000,203.000,204.500
2.615,201.000,57.500,198.000,199.000
2.616,197.500,53.000,192.500,193.000
2.617,194.500,48.500,187.500,188.000
2.618,192.500,46.000,184.000,184.500
2.619,191.500,44.000,182.000,182.000
2.620,191.000,43.500,181.000,181.500
2.621,191.500,43.500,181.000,181.500
2.622,192.500,44.500,182.000,182.500
2.623,194.000,46.500,183.500,184.500
2.624,196.000,48.500,186.000,187.000
2.625,197.500,51.000,188.500,189.500
2.626,199.500,53.500,191.500,193.000
2.627,202.000,56.500,195.000,196.500
2.628,204.500,59.500,198.500,200.500
2.629,206.000,62.500,202.000,204.000
2.630,207.500,64.500,204.500,207.000
2.631,207.500,65.000,205.500,208.000
2.632,206.000,64.000,205.000,207.000
2.633,203.500,61.000,202.000,204.000
2.634,199.500,56.500,197.000,199.000
2.635,195.500,51.500,191.000,193.000
2.636,191.000,46.000,185.000,186.500
2.637,187.000,41.000,179.500,180.500
2.638,183.500,37.000,175.000,175.500
2.639,181.000,34.000,172.000,172.000
2.640,180.000,32.500,170.000,170.500
2.641,179.500,32.000,169.500,169.500
2.642,179.500,32.000,169.500,170.000
2.643,180.000,33.000,170.000,170.500
2.644,180.500,34.000,171.500,172.000
2.645,182.000,35.500,173.500,174.500
2.646,183.500,37.500,176.000,177.500
2.647,185.500,40.500,179.500,181.000
2.648,188.000,43.500,183.500,185.000
2.649,190.000,46.500,187.500,189.000
2.650,191.500,49.000,190.500,192.000
2.651,191.500,50.000,191.500,193.500
2.652,190.500,49.000,191.000,193.000
2.653,188.000,46.500,188.000,190.500
2.654,185.000,42.500,184.000,186.000
2.655,181.000,38.000,178.500,180.500
2.656,177.500,33.500,173.000,174.500
2.657,174.500,29.500,168.500,169.500
2.658,172.000,26.500,165.000,166.000
2.659,171.000,24.500,163.000,163.500
2.660,170.500,23.500,162.000,162.500
2.661,171.000,23.500,162.000,162.500
2.662,171.500,24.000,162.500,163.500
2.663,172.500,25.500,164.000,164.500
2.664,174.000,27.000,165.500,166.500
2.665,176.000,29.000,168.000,169.000
2.666,178.500,32.000,170.500,172.000
2.667,181.000,35.000,174.500,175.500
2.668,183.500,38.500,179.000,180.000
2.669,186.000,42.000,183.000,184.500
2.670,187.500,44.500,186.500,188.000
2.671,188.000,46.000,188.000,189.500
2.672,187.500,45.500,188.000,189.500
2.673,185.500,43.500,186.000,187.500
2.674,183.000,40.500,182.500,183.500
2.675,180.000,36.500,177.500,178.500
2.676,177.000,32.500,172.500,173.000
2.677,174.500,29.000,168.500,168.500
2.678,172.500,26.500,165.500,165.000
2.679,171.500,25.000,163.500,163.500
2.680,171.000,24.500,163.000,163.000
2.681,171.500,25.000,163.500,163.500
2.682,173.000,26.500,165.000,165.000
2.683,174.500,28.000,167.000,166.500
2.684,176.500,30.000,169.000,169.000
2.685,178.500,32.500,172.000,171.500
2.686,180.500,35.000,174.500,175.000
2.687,182.500,37.500,178.000,178.500
2.688,184.500,41.000,182.000,183.000
2.689,187.000,44.000,186.500,187.500
2.690,189.000,47.000,189.500,191.000
2.691,190.000,49.000,191.500,193.500
2.692,190.000,49.000,191.500,193.500
2.693,188.500,47.500,190.000,191.500
2.694,186.000,44.500,186.000,187.500
2.695,183.000,40.000,181.500,182.500
2.696,180.000,36.000,176.500,177.500
2.697,177.500,32.500,172.500,173.000
2.698,175.500,30.000,169.500,170.000
2.699,175.000,28.500,168.000,168.000
2.700,175.000,28.500,167.500,167.500
2.701,175.500,29.500,168.000,168.000
2.702,177.000,30.500,169.000,169.000
2.703,178.000,32.000,170.500,171.000
2.704,180.000,34.500,173.000,173.500
2.705,182.000,37.000,176.000,177.000
2.706,184.500,40.000,179.500,180.500
2.707,187.000,43.500,184.000,185.000
2.708,190.000,47.500,188.500,190.000
2.709,193.000,51.000,193.500,195.000
2.710,195.000,54.000,197.000,198.500
2.711,196.000,55.500,199.000,201.000
2.712,196.000,55.500,199.000,201.000
2.713,194.000,53.500,197.000,199.000
2.714,191.500,50.500,193.500,195.000
2.715,188.500,46.000,189.000,190.000
2.716,185.000,42.000,184.000,184.500
2.717,182.500,38.500,180.000,180.000
2.718,181.000,36.500,177.000,177.000
2.719,181.000,36.000,176.000,175.000
2.720,181.500,36.000,175.500,175.000
2.721,182.500,37.000,176.000,175.000
2.722,183.500,38.000,177.000,176.000
2.723,184.500,39.000,178.000,177.500
2.724,186.000,41.000,180.000,179.500
2.725,187.000,42.500,182.000,182.000
2.726,189.000,45.000,184.500,184.500
2.727,191.000,48.000,188.000,188.000
2.728,193.000,51.000,191.500,192.000
2.729,195.500,54.500,195.500,196.000
2.730,197.000,57.000,198.500,199.000
2.731,197.000,58.000,200.000,200.500
2.732,196.000,57.500,199.500,200.000
2.733,193.500,55.000,197.000,197.000
2.734,190.500,51.500,192.500,192.500
2.735,186.500,47.000,187.500,187.000
2.736,183.000,43.000,182.500,181.500
2.737,180.500,39.000,177.500,176.500
2.738,178.500,36.500,174.500,173.000
2.739,178.000,35.000,172.000,170.500
2.740,177.500,34.500,171.000,170.000
2.741,178.000,34.500,171.000,170.000
2.742,179.000,35.000,171.500,171.000
2.743,180.000,36.500,172.500,172.000
2.744,181.500,38.000,174.500,174.000
2.745,183.500,40.000,176.500,176.500
2.746,185.000,42.500,179.500,179.000
2.747,187.500,45.500,183.000,183.000
2.748,189.500,48.500,187.000,187.000
2.749,191.500,52.000,191.000,191.500
2.750,193.000,54.500,194.500,195.000
2.751,193.500,55.500,196.000,196.500
2.752,192.500,55.000,196.000,196.000
2.753,191.000,53.500,193.500,193.500
2.754,188.000,50.000,189.500,189.000
2.755,185.000,45.500,184.500,183.500
2.756,181.500,41.000,179.500,178.000
2.757,179.000,37.500,175.000,173.000
2.758,178.000,35.000,172.000,170.000
2.759,177.500,34.500,170.500,169.000
2.760,178.000,35.000,170.500,169.000
2.761,179.000,36.000,171.500,170.000
2.762,180.500,37.500,173.000,171.500
2.763,182.500,39.500,174.500,174.000
2.764,184.500,41.500,177.000,176.000
2.765,186.000,44.000,179.500,179.000
2.766,188.500,47.000,182.000,181.500
2.767,190.500,49.500,185.500,185.000
2.768,193.000,53.000,189.500,189.000
2.769,195.000,55.500,193.000,192.500
2.770,196.000,57.500,195.500,195.500
2.771,196.000,58.500,196.500,196.500
2.772,195.000,57.500,195.500,196.000
2.773,192.500,55.000,193.000,193.000
2.774,189.500,51.500,189.000,188.000
2.775,185.500,47.000,183.500,182.500
2.776,181.500,42.500,178.000,176.500
2.777,178.000,38.000,173.000,171.000
2.778,175.500,34.500,169.500,167.000
2.779,174.000,32.500,167.000,164.500
2.780,173.500,31.500,166.000,163.500
2.781,173.500,31.500,166.000,163.500
2.782,174.000,32.000,166.500,164.000
2.783,175.000,33.000,168.000,165.000
2.784,176.000,34.500,169.500,167.000
2.785,177.500,36.000,171.000,169.000
2.786,179.000,38.000,173.500,171.500
2.787,181.000,41.000,176.500,175.000
2.788,183.000,44.000,180.500,179.000
2.789,185.000,47.000,184.500,183.500
2.790,186.500,49.500,187.500,187.000
2.791,187.000,51.000,189.000,188.500
2.792,186.500,50.500,189.000,188.500
2.793,184.500,48.500,186.500,186.000
2.794,182.000,45.000,182.500,182.000
2.795,178.500,40.500,177.500,176.500
2.796,175.000,35.500,172.500,170.500
2.797,172.000,31.000,167.500,165.500
2.798,169.500,28.000,164.000,162.000
2.799,168.500,26.000,161.500,159.500
2.800,167.500,25.000,160.000,158.000
2.801,167.500,24.500,159.500,157.500
2.802,167.500,24.500,159.000,157.500
2.803,167.500,25.000,159.500,158.000
2.804,167.500,26.000,160.000,159.000
2.805,168.000,27.000,161.000,160.500
2.806,168.500,28.500,163.000,162.500
2.807,169.500,30.500,165.000,165.500
2.808,171.000,32.500,168.000,168.500
2.809,172.500,34.500,171.000,171.500
2.810,173.000,36.000,173.000,174.000
2.811,172.500,36.500,173.500,175.000
2.812,171.000,35.000,172.500,174.500
2.813,168.500,32.500,170.000,171.500
2.814,165.000,28.000,165.500,167.000
2.815,160.500,23.500,160.000,161.500
2.816,156.500,18.500,154.500,156.000
2.817,153.000,14.000,149.500,151.000
2.818,150.500,11.000,145.500,147.500
2.819,149.000,9.000,143.500,145.500
2.820,148.500,8.500,142.500,145.000
2.821,148.500,8.500,143.000,145.500
2.822,149.000,9.500,144.500,147.000
2.823,150.500,11.000,146.500,149.500
2.824,152.500,13.000,149.000,152.000
2.825,154.500,16.000,152.500,156.000
2.826,157.500,19.500,156.500,161.000
2.827,160.500,23.500,161.500,166.500
2.828,164.000,28.500,167.500,173.500
2.829,167.500,33.500,173.500,180.000
2.830,171.000,38.000,179.000,186.000
2.831,174.000,42.000,184.000,191.000
2.832,175.500,44.500,186.500,194.500
2.833,176.500,45.500,187.500,195.500
2.834,175.500,44.500,186.500,194.500
2.835,174.000,42.500,184.000,191.500
2.836,172.500,40.000,180.500,188.500
2.837,171.000,37.500,177.500,185.500
2.838,170.000,36.000,175.500,183.500
2.839,170.500,36.000,175.000,183.000
2.840,172.500,37.500,176.000,184.000
2.841,175.000,40.000,178.500,186.000
2.842,178.500,43.500,181.500,188.500
2.843,182.000,47.000,184.500,191.500
2.844,186.000,50.500,188.000,194.500
2.845,190.000,54.500,191.500,197.500
2.846,194.000,58.500,195.500,200.500
2.847,197.500,63.000,200.000,204.000
2.848,201.000,66.500,204.000,207.000
2.849,203.500,69.500,207.000,209.500
2.850,205.000,71.500,208.500,210.500
2.851,204.500,71.500,208.500,209.500
2.852,202.000,69.000,205.500,206.000
2.853,198.000,64.500,200.500,200.000
2.854,193.000,58.500,193.500,192.000
2.855,187.000,51.500,185.500,183.000
2.856,181.500,44.000,177.500,174.500
2.857,176.000,37.500,170.000,166.500
2.858,172.000,32.500,164.500,161.000
2.859,169.500,29.000,160.500,157.000
2.860,167.500,27.000,158.500,155.500
2.861,167.000,26.000,157.500,155.000
2.862,166.500,26.000,157.500,155.500
2.863,166.500,26.000,158.500,156.500
2.864,166.500,27.000,159.000,158.000
2.865,167.500,28.000,161.000,160.000
2.866,168.500,30.000,163.000,162.500
2.867,170.500,32.500,166.000,166.000
2.868,172.500,35.500,169.500,170.000
2.869,174.500,39.000,173.500,174.500
2.870,176.000,41.500,176.500,178.000
2.871,177.000,43.000,178.500,179.500
2.872,176.500,42.500,178.000,179.500
2.873,174.500,40.500,176.000,177.000
2.874,172.000,37.500,172.500,173.000
2.875,169.000,33.500,167.500,167.500
2.876,166.000,29.500,163.000,162.500
2.877,163.500,26.000,158.500,158.000
2.878,162.000,24.000,155.500,155.000
2.879,162.000,22.500,154.000,153.000
2.880,162.000,22.500,153.500,152.500
2.881,163.000,23.000,153.500,153.000
2.882,164.000,24.000,155.000,154.000
2.883,165.500,25.500,156.500,155.500
2.884,167.000,27.500,159.000,157.500
2.885,169.000,30.000,161.500,160.000
2.886,171.500,33.000,164.500,163.000
2.887,174.000,36.000,168.500,167.000
2.888,176.500,39.500,172.500,171.000
2.889,179.000,43.000,176.500,175.500
2.890,181.000,45.500,180.000,179.000
2.891,181.500,47.000,181.500,181.000
2.892,181.000,46.500,181.500,181.000
2.893,179.500,44.500,180.000,179.000
2.894,177.500,41.500,176.500,175.500
2.895,174.500,37.500,172.500,170.500
2.896,172.000,34.000,168.000,166.000
2.897,170.000,31.000,164.500,162.000
2.898,169.500,29.000,162.000,159.500
2.899,169.500,28.500,161.500,159.000
2.900,170.500,29.000,161.500,159.000
2.901,172.000,30.500,162.500,160.000
2.902,173.500,32.000,164.000,162.000
2.903,175.500,34.000,166.500,164.000
2.904,177.500,36.500,169.000,166.500
2.905,180.000,39.500,172.000,169.500
2.906,182.500,42.500,175.500,173.000
2.907,185.500,46.500,179.500,177.500
2.908,188.500,50.000,184.000,182.000
2.909,190.500,53.500,188.000,186.500
2.910,192.500,56.000,191.500,190.000
2.911,192.500,57.000,193.000,191.500
2.912,192.000,56.000,192.500,191.000
2.913,189.500,54.000,190.000,188.000
2.914,186.500,50.500,186.000,183.500
2.915,183.000,46.000,181.000,178.000
2.916,179.500,41.500,175.500,172.000
2.917,176.500,38.000,171.000,167.000
2.918,174.500,35.500,167.500,164.000
2.919,173.500,34.000,165.500,162.500
2.920,173.000,33.500,165.000,162.000
2.921,173.500,34.000,165.500,163.000
2.922,175.000,35.000,167.000,164.500
2.923,176.500,36.500,169.000,166.500
2.924,178.000,38.500,171.000,168.500
2.925,180.000,41.000,173.500,171.000
2.926,181.500,43.500,176.000,174.000
2.927,184.000,46.500,179.500,177.500
2.928,186.500,50.000,184.000,182.000
2.929,189.500,54.000,188.500,186.000
2.930,192.000,57.500,192.000,190.000
2.931,193.000,59.500,194.500,192.000
2.932,193.000,60.000,194.500,192.000
2.933,191.500,58.500,193.000,190.500
2.934,189.000,55.500,189.500,187.000
2.935,186.000,51.500,184.500,182.000
2.936,182.500,47.000,179.500,177.000
2.937,179.500,43.000,175.000,172.000
2.938,177.500,40.000,171.500,168.500
2.939,176.500,38.500,170.000,166.500
2.940,176.500,38.000,169.500,166.000
2.941,177.000,38.500,170.000,166.000
2.942,178.500,39.500,171.000,167.500
2.943,180.000,41.000,172.500,169.000
2.944,181.500,43.000,174.500,171.500
2.945,183.500,45.500,177.500,174.000
2.946,185.500,48.000,180.500,177.500
2.947,188.000,51.500,184.000,181.500
2.948,191.000,54.500,188.000,186.000
2.949,193.500,58.000,192.000,190.500
2.950,195.500,61.000,195.500,194.000
2.951,196.000,62.500,197.500,196.000
2.952,195.500,62.500,198.000,196.500
2.953,194.000,61.000,196.000,194.000
2.954,191.000,57.500,192.000,190.000
2.955,188.000,53.500,187.500,184.500
2.956,184.500,49.000,182.500,179.500
2.957,182.000,45.500,178.000,174.500
2.958,180.500,43.000,175.000,171.000
2.959,180.000,42.000,173.000,169.500
2.960,180.000,42.000,173.000,169.000
2.961,181.000,43.000,173.500,169.500
2.962,182.000,44.000,174.500,170.500
2.963,183.000,45.000,176.000,172.000
2.964,184.000,46.500,177.500,173.500
2.965,185.000,48.000,179.000,175.500
2.966,186.500,49.500,181.500,178.000
2.967,188.500,52.000,184.500,181.000
2.968,190.500,54.500,188.000,185.000
2.969,192.500,57.500,191.500,188.500
2.970,194.000,60.500,194.500,192.000
2.971,194.500,61.500,196.500,194.000
2.972,194.000,62.000,196.500,194.000
2.973,192.500,60.000,195.000,192.500
2.974,190.000,57.500,191.500,189.000
2.975,186.500,53.500,187.000,184.500
2.976,183.500,49.500,182.500,179.500
2.977,181.000,46.000,178.000,175.000
2.978,179.500,43.500,175.000,172.000
2.979,178.500,42.000,173.000,170.000
2.980,179.000,41.500,172.500,169.500
2.981,179.500,42.000,172.500,170.000
2.982,180.000,43.000,173.000,170.500
2.983,181.000,44.000,174.000,172.000
2.984,182.000,45.000,176.000,173.500
2.985,183.500,46.500,178.000,175.500
2.986,185.000,49.000,180.500,178.500
2.987,187.000,51.500,184.000,182.000
2.988,189.500,55.000,188.000,186.000
2.989,192.000,58.500,192.000,190.500
2.990,194.000,61.500,195.500,194.000
2.991,195.000,63.000,197.500,196.000
2.992,195.000,63.500,198.000,196.000
2.993,193.500,61.500,196.000,194.500
2.994,190.500,58.500,192.000,190.500
2.995,187.500,54.000,187.000,185.500
2.996,184.000,49.500,182.000,180.000
2.997,181.000,45.500,177.000,175.000
2.998,178.500,42.500,173.500,171.500
2.999,177.000,40.500,171.500,169.000
3.000,176.500,40.000,170.500,168.000
3.001,177.000,40.000,170.500,168.500
3.002,177.500,40.500,171.000,169.500
3.003,179.000,41.500,172.500,171.000
3.004,180.000,43.000,174.000,173.000
3.005,181.500,45.000,176.000,175.500
3.006,183.000,47.000,179.000,178.500
3.007,185.000,50.000,182.000,182.000
3.008,187.000,53.000,186.000,186.000
3.009,189.000,56.500,190.000,190.000
3.010,191.000,59.000,193.500,193.500
3.011,191.500,60.500,195.000,195.500
3.012,190.500,60.000,195.000,195.500
3.013,189.000,58.500,193.500,193.500
3.014,186.000,55.000,189.500,189.500
3.015,182.000,50.500,184.000,184.000
3.016,178.500,45.500,178.500,178.500
3.017,175.000,41.500,173.500,173.000
3.018,172.500,38.000,169.500,169.000
3.019,171.000,36.500,167.000,166.500
3.020,170.500,35.500,166.500,166.000
3.021,170.500,35.500,166.500,166.000
3.022,171.500,36.000,167.000,166.500
3.023,172.000,37.000,168.000,167.500
3.024,173.500,38.500,169.500,169.500
3.025,174.500,40.000,172.000,171.500
3.026,176.500,42.000,174.500,174.500
3.027,178.500,45.000,178.000,178.000
3.028,180.500,48.000,182.000,182.000
3.029,183.000,51.000,186.000,186.500
3.030,184.500,53.500,189.000,190.000
3.031,185.000,54.500,191.000,191.500
3.032,184.000,54.000,190.500,191.000
3.033,181.500,51.500,187.500,188.500
3.034,178.000,47.500,183.000,183.500
3.035,173.500,42.500,177.000,177.500
3.036,169.000,37.000,171.500,171.500
3.037,165.500,32.500,166.500,166.000
3.038,163.500,29.500,162.500,162.000
3.039,162.000,27.500,160.500,160.000
3.040,162.000,27.500,160.000,159.500
3.041,163.000,28.000,160.500,160.500
3.042,164.500,29.000,162.000,162.000
3.043,166.000,30.500,163.500,163.500
3.044,167.500,32.500,165.500,166.000
3.045,169.500,34.500,168.000,168.500
3.046,171.500,37.500,171.000,171.500
3.047,173.500,40.000,174.000,175.000
3.048,175.500,43.500,178.000,179.000
3.049,177.500,46.500,181.500,183.000
3.050,178.500,49.000,184.000,186.500
3.051,179.000,50.000,185.500,188.000
3.052,178.000,49.500,185.500,187.500
3.053,175.500,47.500,183.000,185.500
3.054,172.500,44.000,179.500,181.500
3.055,169.000,40.000,174.500,176.500
3.056,166.000,35.500,169.000,171.000
3.057,163.500,31.500,164.500,166.500
3.058,162.000,29.000,161.500,163.500
3.059,161.500,28.000,159.500,162.000
3.060,162.000,28.000,159.500,161.500
3.061,163.000,29.000,160.000,162.000
3.062,164.500,30.000,161.000,163.500
3.063,166.000,32.000,162.500,165.000
3.064,168.000,34.000,164.500,167.000
3.065,170.000,36.000,167.000,169.500
3.066,172.500,38.500,170.000,172.500
3.067,175.000,41.500,173.500,176.000
3.068,177.500,45.000,177.500,180.000
3.069,180.000,48.500,181.500,184.000
3.070,182.000,51.500,184.500,187.500
3.071,183.000,52.500,186.500,189.000
3.072,182.000,52.000,186.000,188.500
3.073,179.500,49.500,183.500,186.000
3.074,176.500,45.500,179.000,181.500
3.075,172.500,40.500,173.500,176.000
3.076,169.000,36.000,168.000,170.000
3.077,165.500,31.500,163.000,165.500
3.078,164.000,29.000,159.500,162.000
3.079,163.000,27.500,158.000,160.000
3.080,163.500,27.500,158.000,160.000
3.081,164.000,28.000,158.500,160.500
3.082,165.500,29.500,160.000,162.000
3.083,167.000,31.000,161.500,164.000
3.084,168.500,33.000,163.500,166.500
3.085,170.500,35.000,165.500,169.000
3.086,172.000,37.000,168.000,171.500
3.087,174.000,40.000,171.500,174.500
3.088,176.000,42.500,175.000,178.000
3.089,178.000,45.500,178.500,182.000
3.090,179.500,47.500,181.000,184.500
3.091,179.500,48.000,182.000,186.000
3.092,178.500,47.000,181.500,185.000
3.093,176.000,44.000,178.500,182.500
3.094,173.000,40.000,174.000,178.000
3.095,169.500,35.500,169.000,172.500
3.096,165.500,31.000,163.500,166.500
3.097,162.500,26.500,158.500,161.500
3.098,160.000,23.500,155.000,157.500
3.099,158.500,22.000,152.500,155.000
3.100,158.000,21.000,151.000,154.000
3.101,158.000,21.000,151.000,153.500
3.102,158.500,21.500,151.500,154.000
3.103,159.500,22.500,152.500,155.500
3.104,161.000,24.000,154.000,157.000
3.105,162.500,25.500,156.000,159.000
3.106,164.500,27.500,158.500,161.500
3.107,166.500,30.000,161.500,165.000
3.108,168.500,33.000,165.000,169.000
3.109,170.500,36.000,169.000,172.500
3.110,172.000,38.500,171.500,175.500
3.111,172.500,39.000,173.000,177.000
3.112,171.500,38.000,172.500,176.000
3.113,169.000,35.000,169.500,173.000
3.114,165.500,30.500,164.500,168.500
3.115,161.000,25.500,158.500,162.000
3.116,157.000,20.000,152.500,156.000
3.117,153.500,15.500,147.500,150.500
3.118,151.000,12.000,143.500,146.500
3.119,150.000,10.500,141.500,144.500
3.120,149.500,9.500,140.500,143.500
3.121,150.000,10.000,140.500,143.500
3.122,151.000,10.500,141.500,144.000
3.123,152.000,12.000,143.000,145.500
3.124,153.000,13.500,144.500,147.000
3.125,155.000,15.500,146.500,149.500
3.126,157.000,18.000,149.500,152.500
3.127,160.000,21.000,153.000,156.000
3.128,163.000,25.000,157.500,161.000
3.129,166.000,28.500,162.500,165.500
3.130,168.000,31.500,166.000,170.000
3.131,169.000,33.000,168.500,172.500
3.132,169.000,33.500,169.000,173.000
3.133,167.500,32.000,167.500,171.000
3.134,165.500,29.500,164.500,167.500
3.135,162.500,26.000,160.500,163.000
3.136,160.000,22.000,155.500,157.500
3.137,157.500,18.500,151.500,153.000
3.138,155.500,16.000,148.500,149.500
3.139,155.000,14.500,146.500,147.500
3.140,154.500,13.500,145.500,146.500
3.141,155.000,13.500,145.500,146.500
3.142,155.500,14.500,146.000,147.500
3.143,156.500,15.500,147.000,149.000
3.144,157.500,16.500,148.500,150.500
3.145,159.000,18.500,150.500,152.500
3.146,160.500,20.000,152.500,155.000
3.147,162.000,22.500,155.500,158.000
3.148,164.000,25.000,159.000,161.500
3.149,166.500,28.500,162.500,165.500
3.150,168.000,31.000,165.500,168.500
3.151,169.000,32.000,167.000,170.500
3.152,168.500,32.000,167.000,170.500
3.153,167.000,30.500,165.500,168.500
3.154,164.500,27.000,162.000,165.000
3.155,161.000,23.000,157.000,160.000
3.156,157.500,18.500,152.000,154.000
3.157,154.500,14.500,147.000,149.000
3.158,152.500,12.000,144.000,145.500
3.159,151.500,10.500,142.000,143.500
3.160,151.500,10.500,141.500,142.500
3.161,152.500,10.500,142.000,143.000
3.162,153.500,11.500,143.000,144.000
3.163,155.000,13.000,144.500,146.000
3.164,156.500,15.000,146.500,148.000
3.165,158.500,17.000,149.000,150.500
3.166,160.000,19.500,152.000,153.500
3.167,162.000,22.000,155.000,156.500
3.168,164.500,25.500,159.000,160.500
3.169,167.000,28.500,163.500,165.000
3.170,168.500,31.000,166.500,168.500
3.171,169.000,32.500,168.500,170.500
3.172,169.000,32.500,169.000,171.000
3.173,167.500,31.000,167.500,169.500
3.174,165.500,28.500,164.500,166.000
3.175,162.500,25.000,160.500,161.500
3.176,159.500,21.000,155.500,156.500
3.177,157.500,17.500,151.000,152.000
3.178,156.000,15.500,148.000,149.000
3.179,155.500,14.500,146.500,147.000
3.180,156.000,14.000,146.000,146.500
3.181,157.000,14.500,146.500,147.000
3.182,158.000,15.500,147.500,148.000
3.183,159.500,17.000,149.000,149.500
3.184,160.500,19.000,150.500,151.500
3.185,162.000,20.500,153.000,154.000
3.186,164.000,23.000,155.500,157.000
3.187,166.000,25.500,158.500,160.000
3.188,168.000,28.500,162.500,164.000
3.189,170.500,31.500,166.000,168.000
3.190,172.000,34.000,169.500,171.000
3.191,172.500,35.500,171.000,173.000
3.192,172.000,35.500,171.000,172.500
3.193,170.500,34.000,169.500,171.000
3.194,168.000,31.000,166.000,167.500
3.195,165.000,27.500,161.500,163.000
3.196,162.000,23.500,156.500,158.000
3.197,159.500,20.000,152.000,153.500
3.198,157.500,17.500,149.000,150.000
3.199,157.000,16.000,147.500,148.500
3.200,157.000,16.000,147.000,148.000
3.201,158.000,16.500,147.000,148.000
3.202,159.000,17.500,148.500,149.500
3.203,161.000,19.500,150.500,151.500
3.204,163.000,21.500,153.000,154.000
3.205,165.000,24.500,155.500,157.000
3.206,167.500,27.500,159.000,160.500
3.207,170.000,30.500,162.500,164.500
3.208,173.000,34.000,167.000,169.000
3.209,175.500,37.500,171.000,173.500
3.210,177.500,40.500,175.000,177.000
3.211,178.500,42.000,177.000,179.500
3.212,178.500,42.000,177.500,179.500
3.213,177.000,40.500,176.000,178.000
3.214,175.000,37.500,172.500,174.500
3.215,172.000,34.000,168.000,170.000
3.216,169.000,29.500,163.000,165.000
3.217,166.500,26.000,158.500,160.000
3.218,164.500,23.500,155.500,156.500
3.219,164.000,22.000,153.500,154.500
3.220,164.000,21.500,153.000,153.500
3.221,164.500,22.000,153.000,153.500
3.222,165.500,23.000,153.500,154.500
3.223,167.000,24.500,155.000,156.000
3.224,168.500,26.500,157.000,158.000
3.225,170.500,29.000,159.000,160.500
3.226,172.000,31.500,162.000,163.500
3.227,174.500,35.000,165.500,167.500
3.228,177.000,38.500,170.000,172.000
3.229,180.000,42.500,174.500,176.500
3.230,182.000,45.500,178.500,180.500
3.231,183.000,47.500,181.000,183.000
3.232,183.000,47.500,181.500,183.500
