'Elapsed time','AECG1','AECG2','AECG3','AECG4'
'seconds','uV','uV','uV','uV'
0.000,0.000,-15.000,56.500,-16.000
0.001,-0.500,-129.500,496.500,-137.500
0.002,-0.500,-148.500,571.000,-157.500
0.003,-0.500,-158.000,607.500,-167.500
0.004,-0.500,-161.500,621.500,-171.000
0.005,-0.500,-162.000,625.000,-172.000
0.006,-0.500,-162.000,625.500,-172.000
0.007,-0.500,-162.000,625.000,-171.500
0.008,-0.500,-161.500,625.000,-172.000
0.009,-0.500,-161.000,625.500,-172.000
0.010,-0.500,-160.500,626.000,-172.000
0.011,-0.500,-160.500,626.000,-172.000
0.012,-0.500,-160.500,625.500,-172.000
0.013,-0.500,-160.500,624.500,-172.000
0.014,-0.500,-160.500,624.000,-172.000
0.015,-0.500,-160.500,625.000,-172.000
0.016,0.000,-160.500,627.000,-172.000
0.017,0.000,-160.500,630.000,-172.500
0.018,0.000,-160.000,632.500,-172.500
0.019,0.000,-160.000,633.500,-172.500
0.020,0.000,-160.500,633.500,-172.500
0.021,0.000,-160.500,633.000,-172.500
0.022,0.000,-160.500,633.500,-172.500
0.023,0.000,-160.500,634.000,-173.000
0.024,0.000,-160.500,635.000,-173.000
0.025,0.500,-160.500,637.000,-173.500
0.026,0.500,-160.500,638.000,-174.000
0.027,0.500,-160.500,639.000,-174.500
0.028,0.500,-160.500,638.500,-174.500
0.029,0.500,-160.000,637.000,-174.000
0.030,0.500,-160.000,636.000,-174.000
0.031,0.500,-159.500,635.000,-173.500
0.032,0.500,-159.500,633.500,-173.500
0.033,0.500,-159.500,632.500,-173.500
0.034,0.500,-159.500,631.500,-173.500
0.035,0.500,-159.000,630.500,-173.500
0.036,0.000,-159.000,630.000,-173.500
0.037,0.000,-159.000,630.000,-173.500
0.038,0.000,-159.000,630.500,-173.500
0.039,0.000,-159.000,631.000,-173.500
0.040,0.000,-159.000,631.000,-173.000
0.041,0.500,-159.000,631.000,-173.000
0.042,0.500,-159.000,630.500,-173.000
0.043,0.500,-159.000,630.500,-172.500
0.044,0.500,-158.500,630.500,-172.500
0.045,0.500,-158.500,630.000,-172.500
0.046,0.500,-158.500,629.500,-172.500
0.047,0.500,-158.500,629.500,-172.500
0.048,0.000,-158.500,629.000,-173.000
0.049,0.000,-159.000,628.500,-173.500
0.050,0.000,-159.500,628.000,-174.000
0.051,0.000,-160.000,627.000,-174.500
0.052,0.000,-160.000,626.000,-174.500
0.053,0.000,-160.000,625.000,-174.500
0.054,0.000,-160.000,624.500,-174.500
0.055,0.000,-160.000,624.500,-175.000
0.056,0.500,-160.000,624.000,-175.000
0.057,0.500,-159.500,624.000,-175.000
0.058,0.500,-160.000,623.500,-175.000
0.059,0.500,-160.000,624.000,-175.000
0.060,0.000,-159.500,626.000,-175.000
0.061,0.000,-159.500,627.500,-175.000
0.062,0.000,-159.500,629.000,-175.000
0.063,0.000,-159.500,630.000,-175.000
0.064,0.000,-159.000,631.000,-175.000
0.065,0.000,-159.000,631.500,-175.000
0.066,0.000,-158.500,632.500,-174.500
0.067,0.000,-158.500,633.000,-174.000
0.068,0.000,-157.500,632.500,-173.000
0.069,0.000,-157.000,631.500,-172.000
0.070,0.000,-156.500,629.500,-171.000
0.071,0.000,-155.500,627.000,-170.000
0.072,0.000,-155.000,624.500,-169.000
0.073,0.000,-154.000,622.000,-168.500
0.074,0.000,-154.000,620.500,-168.000
0.075,0.000,-153.500,620.000,-168.000
0.076,0.000,-153.500,620.500,-167.500
0.077,0.500,-153.500,621.000,-167.500
0.078,0.500,-153.500,621.000,-167.500
0.079,0.500,-153.500,621.000,-167.500
0.080,0.500,-153.500,620.500,-167.500
0.081,0.500,-154.000,620.000,-167.500
0.082,0.500,-154.000,620.000,-168.000
0.083,0.000,-154.500,621.000,-168.500
0.084,0.000,-154.500,621.500,-168.500
0.085,0.000,-155.000,621.500,-168.500
0.086,0.000,-155.000,620.500,-168.500
0.087,0.000,-155.500,619.500,-168.500
0.088,0.000,-155.500,620.500,-168.500
0.089,0.000,-155.500,622.500,-168.500
0.090,0.000,-155.000,626.000,-168.500
0.091,0.000,-154.500,629.500,-168.000
0.092,0.000,-154.000,632.000,-167.500
0.093,0.000,-153.500,632.500,-167.000
0.094,0.000,-153.500,631.000,-166.500
0.095,0.000,-153.000,629.000,-166.500
0.096,0.000,-153.000,628.000,-166.000
0.097,0.000,-153.000,627.000,-166.000
0.098,0.000,-153.000,627.000,-166.000
0.099,0.000,-153.500,627.000,-166.500
0.100,0.000,-153.500,626.500,-166.500
0.101,0.000,-153.500,624.500,-167.000
0.102,0.000,-153.500,622.000,-167.000
0.103,0.000,-153.500,621.000,-167.000
0.104,-0.500,-153.500,621.500,-167.000
0.105,-0.500,-154.000,624.500,-167.500
0.106,-0.500,-154.500,626.500,-167.500
0.107,-1.000,-155.000,627.500,-168.000
0.108,-1.000,-155.500,626.000,-168.000
0.109,-1.000,-155.500,625.000,-168.000
0.110,-0.500,-156.000,624.500,-168.500
0.111,-0.500,-156.500,624.500,-168.500
0.112,-0.500,-156.500,625.500,-168.000
0.113,-0.500,-156.000,627.000,-167.500
0.114,-0.500,-155.500,627.500,-167.500
0.115,0.000,-155.500,627.000,-167.000
0.116,0.000,-155.000,626.000,-167.000
0.117,0.000,-154.500,626.000,-167.000
0.118,0.000,-154.500,626.500,-166.500
0.119,0.000,-154.000,627.500,-166.500
0.120,0.000,-153.500,628.000,-166.500
0.121,0.000,-153.500,628.500,-166.000
0.122,0.000,-153.500,628.500,-166.000
0.123,0.000,-153.500,628.500,-165.500
0.124,0.000,-153.500,628.000,-165.500
0.125,0.000,-153.500,627.500,-165.000
0.126,0.000,-153.000,626.000,-165.000
0.127,0.000,-153.000,624.500,-164.500
0.128,0.000,-153.000,621.500,-164.500
0.129,0.000,-153.000,618.500,-164.000
0.130,0.000,-153.500,615.500,-164.000
0.131,0.000,-153.500,613.500,-164.000
0.132,0.000,-153.500,612.500,-164.000
0.133,0.000,-154.000,612.000,-164.000
0.134,0.000,-154.000,612.000,-164.500
0.135,0.000,-153.500,612.500,-164.500
0.136,0.000,-153.500,613.500,-164.500
0.137,0.000,-153.500,615.000,-164.500
0.138,0.000,-153.500,616.500,-164.500
0.139,0.000,-153.500,618.500,-164.500
0.140,0.000,-153.500,620.000,-164.500
0.141,0.000,-153.000,620.500,-164.000
0.142,0.000,-152.500,620.500,-163.000
0.143,0.000,-152.000,620.000,-162.500
0.144,0.000,-151.500,619.000,-162.000
0.145,0.000,-151.500,617.000,-161.500
0.146,0.000,-151.000,615.500,-161.500
0.147,-0.500,-151.000,614.500,-161.500
0.148,-0.500,-151.000,614.000,-161.500
0.149,0.000,-151.000,614.500,-161.000
0.150,0.000,-150.500,615.500,-161.000
0.151,0.000,-150.500,616.000,-160.500
0.152,0.000,-151.000,616.500,-160.000
0.153,0.500,-151.000,617.500,-160.000
0.154,0.500,-151.000,618.500,-160.000
0.155,0.000,-151.000,618.500,-160.000
0.156,0.000,-151.000,618.500,-160.500
0.157,-0.500,-151.000,618.500,-160.500
0.158,-0.500,-151.000,619.000,-160.500
0.159,-0.500,-151.500,619.500,-161.000
0.160,-0.500,-151.500,620.000,-160.500
0.161,-0.500,-151.500,620.500,-160.500
0.162,0.000,-151.500,622.000,-160.500
0.163,0.000,-151.500,623.500,-160.500
0.164,0.000,-151.500,623.500,-160.500
0.165,0.000,-151.500,622.500,-160.500
0.166,0.000,-151.500,621.000,-160.000
0.167,0.000,-151.000,619.500,-159.500
0.168,0.000,-151.000,620.000,-159.000
0.169,0.000,-151.000,621.500,-158.500
0.170,0.000,-150.500,622.500,-158.000
0.171,0.000,-150.500,622.500,-158.000
0.172,-0.500,-150.000,621.500,-158.000
0.173,-0.500,-150.000,619.500,-157.500
0.174,-0.500,-150.000,617.000,-157.000
0.175,-0.500,-149.500,614.500,-157.000
0.176,-0.500,-149.500,613.000,-156.500
0.177,-0.500,-149.500,613.000,-156.500
0.178,-0.500,-149.000,614.500,-156.500
0.179,-0.500,-148.500,618.000,-156.000
0.180,-0.500,-148.000,621.500,-155.500
0.181,-0.500,-147.500,624.000,-155.000
0.182,-0.500,-147.000,624.500,-154.500
0.183,-0.500,-146.500,623.500,-154.000
0.184,-0.500,-146.500,622.500,-153.500
0.185,0.000,-146.500,621.500,-153.500
0.186,0.000,-146.500,621.500,-154.000
0.187,0.000,-147.000,622.000,-154.000
0.188,0.000,-147.000,622.500,-154.000
0.189,0.500,-146.500,622.000,-154.000
0.190,0.500,-146.500,621.000,-153.500
0.191,0.500,-146.500,620.500,-153.500
0.192,0.500,-146.000,621.000,-153.000
0.193,0.500,-146.000,622.000,-153.000
0.194,0.000,-146.000,622.500,-153.000
0.195,0.000,-146.000,622.000,-153.000
0.196,0.000,-145.500,620.500,-152.500
0.197,0.000,-145.500,619.500,-152.500
0.198,0.000,-145.500,619.500,-152.500
0.199,0.000,-145.500,620.500,-152.500
0.200,0.000,-145.000,621.000,-152.500
0.201,-0.500,-145.000,620.500,-152.500
0.202,-0.500,-144.500,618.500,-152.000
0.203,-0.500,-144.500,615.500,-151.500
0.204,-0.500,-144.000,613.000,-151.000
0.205,0.000,-144.000,611.500,-151.000
0.206,0.000,-144.000,610.500,-150.500
0.207,0.000,-144.000,609.500,-150.500
0.208,0.000,-144.000,609.000,-150.500
0.209,0.000,-144.000,608.000,-150.000
0.210,0.000,-144.000,608.000,-150.000
0.211,-0.500,-144.000,608.500,-150.000
0.212,-0.500,-144.000,610.000,-150.000
0.213,-0.500,-144.000,611.500,-150.000
0.214,-0.500,-144.000,613.000,-150.500
0.215,-0.500,-144.000,614.000,-150.500
0.216,-0.500,-144.500,613.000,-151.000
0.217,-0.500,-144.500,611.500,-151.000
0.218,-0.500,-145.000,610.500,-151.000
0.219,-0.500,-145.000,611.500,-151.500
0.220,-0.500,-145.500,614.000,-152.000
0.221,-0.500,-145.500,616.500,-152.000
0.222,-0.500,-146.000,617.500,-152.500
0.223,0.000,-146.000,617.000,-152.500
0.224,0.000,-146.500,615.500,-153.000
0.225,0.000,-147.000,613.000,-154.000
0.226,0.000,-147.500,611.000,-154.000
0.227,0.000,-147.500,608.500,-154.500
0.228,0.000,-147.500,606.500,-154.500
0.229,0.000,-147.500,606.000,-154.500
0.230,0.000,-147.500,607.000,-154.500
0.231,-0.500,-147.000,608.500,-154.500
0.232,-0.500,-147.500,610.500,-154.500
0.233,-0.500,-147.500,612.000,-154.500
0.234,-0.500,-147.500,612.500,-154.500
0.235,0.000,-148.000,612.500,-154.500
0.236,0.000,-148.000,611.500,-155.000
0.237,0.000,-148.500,609.500,-155.000
0.238,0.000,-148.500,607.500,-155.500
0.239,0.000,-148.500,605.500,-155.500
0.240,0.000,-148.500,605.000,-155.000
0.241,0.000,-148.500,605.000,-154.500
0.242,0.000,-148.000,605.000,-154.500
0.243,0.000,-147.500,606.500,-154.000
0.244,0.000,-147.500,608.500,-153.500
0.245,0.000,-147.500,611.000,-153.500
0.246,0.000,-148.000,614.000,-153.500
0.247,0.000,-148.000,616.500,-153.000
0.248,-0.500,-148.000,619.000,-152.500
0.249,-0.500,-148.000,621.000,-152.000
0.250,-0.500,-148.000,622.000,-151.000
0.251,-0.500,-148.000,622.500,-151.000
0.252,-0.500,-148.000,623.000,-151.000
0.253,-0.500,-148.000,623.500,-151.000
0.254,0.000,-148.500,624.000,-152.000
0.255,0.000,-149.000,624.500,-153.500
0.256,0.000,-150.500,624.500,-156.000
0.257,0.000,-152.500,624.500,-160.000
0.258,0.000,-155.000,624.500,-164.500
0.259,0.000,-157.500,624.000,-168.500
0.260,0.000,-159.500,623.000,-172.000
0.261,0.000,-161.000,621.000,-174.000
0.262,0.000,-161.500,619.000,-175.000
0.263,0.000,-161.500,617.500,-175.000
0.264,0.000,-161.500,616.500,-174.500
0.265,0.000,-161.000,615.000,-173.000
0.266,0.000,-160.000,612.500,-171.500
0.267,0.000,-158.500,610.000,-170.000
0.268,0.000,-157.500,609.000,-168.000
0.269,0.000,-156.000,609.500,-165.500
0.270,0.000,-154.500,610.500,-163.500
0.271,0.000,-153.500,612.500,-161.500
0.272,0.000,-152.500,614.500,-160.000
0.273,0.000,-152.000,617.000,-159.000
0.274,0.000,-151.500,619.500,-158.500
0.275,0.000,-151.000,621.500,-157.500
0.276,0.000,-150.500,623.000,-156.500
0.277,0.000,-150.000,623.500,-156.000
0.278,0.000,-150.000,622.500,-155.500
0.279,0.000,-149.500,620.500,-155.000
0.280,0.000,-149.500,618.000,-155.000
0.281,0.000,-149.500,615.500,-154.500
0.282,0.000,-149.000,614.000,-154.500
0.283,0.000,-148.500,613.500,-154.000
0.284,0.000,-148.500,614.500,-154.000
0.285,0.000,-148.500,616.000,-154.000
0.286,0.000,-149.000,617.500,-154.000
0.287,0.000,-149.500,619.500,-154.500
0.288,0.000,-150.000,621.000,-155.000
0.289,-0.500,-150.500,622.000,-155.000
0.290,0.000,-151.000,622.000,-155.500
0.291,0.000,-151.000,621.000,-155.500
0.292,0.000,-151.000,619.500,-155.000
0.293,0.000,-151.500,618.000,-155.000
0.294,0.000,-151.500,617.500,-155.500
0.295,0.000,-152.000,617.000,-155.500
0.296,0.000,-152.000,616.500,-155.500
0.297,-0.500,-152.000,615.500,-155.000
0.298,-0.500,-152.000,615.000,-155.500
0.299,-0.500,-152.000,615.000,-155.500
0.300,-0.500,-152.000,615.000,-155.500
0.301,-0.500,-152.000,614.500,-155.500
0.302,-0.500,-152.000,613.500,-155.500
0.303,0.000,-152.500,613.000,-155.500
0.304,0.000,-152.500,613.000,-155.000
0.305,0.000,-152.500,613.500,-154.500
0.306,0.000,-152.000,614.500,-154.000
0.307,-0.500,-151.500,615.500,-153.500
0.308,-0.500,-151.000,616.000,-153.000
0.309,-0.500,-150.500,616.500,-152.500
0.310,-1.000,-150.000,617.000,-152.000
0.311,-0.500,-149.500,617.500,-151.500
0.312,-0.500,-149.000,617.500,-151.000
0.313,-0.500,-148.500,616.500,-150.500
0.314,-0.500,-148.000,614.500,-150.000
0.315,-0.500,-148.000,612.000,-149.500
0.316,-0.500,-147.500,609.000,-149.000
0.317,-0.500,-147.500,607.000,-149.000
0.318,-0.500,-148.000,605.500,-149.000
0.319,-0.500,-148.000,604.000,-149.000
0.320,-0.500,-148.000,602.000,-149.000
0.321,-0.500,-148.000,600.000,-149.000
0.322,-0.500,-148.000,599.500,-149.000
0.323,-0.500,-148.500,600.500,-149.000
0.324,-0.500,-148.500,603.500,-149.000
0.325,-0.500,-148.500,606.000,-149.000
0.326,-0.500,-149.000,608.500,-149.000
0.327,-0.500,-149.000,609.500,-149.000
0.328,-0.500,-149.500,609.500,-149.500
0.329,-0.500,-149.500,609.000,-149.500
0.330,-0.500,-149.000,608.500,-149.500
0.331,-0.500,-149.000,608.000,-149.500
0.332,-0.500,-149.000,608.000,-149.000
0.333,-0.500,-148.500,607.500,-149.000
0.334,-0.500,-149.000,607.000,-149.500
0.335,-0.500,-149.000,607.000,-149.500
0.336,-0.500,-149.000,607.000,-149.500
0.337,-0.500,-149.000,607.000,-149.500
0.338,-0.500,-149.000,607.500,-149.500
0.339,-0.500,-149.000,607.000,-149.000
0.340,-0.500,-148.500,606.000,-149.000
0.341,-0.500,-148.500,605.000,-149.000
0.342,-0.500,-148.500,604.500,-148.500
0.343,-0.500,-148.500,604.500,-148.500
0.344,-0.500,-148.000,605.500,-148.000
0.345,0.000,-148.000,607.500,-147.500
0.346,0.000,-147.500,609.000,-147.500
0.347,0.000,-147.500,609.000,-147.000
0.348,0.000,-147.500,609.000,-146.500
0.349,0.000,-147.500,609.000,-146.500
0.350,0.500,-147.500,609.500,-146.000
0.351,0.500,-148.000,611.000,-146.000
0.352,0.500,-147.500,612.000,-146.000
0.353,0.500,-147.500,612.500,-146.000
0.354,0.500,-148.000,612.500,-146.500
0.355,0.000,-148.000,612.000,-146.500
0.356,0.000,-148.500,611.500,-146.500
0.357,0.000,-148.500,611.500,-146.500
0.358,0.000,-148.500,612.500,-146.500
0.359,0.000,-148.500,614.500,-146.000
0.360,0.000,-149.000,615.500,-146.500
0.361,0.000,-149.000,615.000,-146.500
0.362,0.000,-149.000,613.000,-146.500
0.363,0.000,-149.000,610.500,-147.000
0.364,0.000,-149.000,608.000,-147.000
0.365,0.000,-149.000,606.000,-147.000
0.366,0.000,-149.000,604.500,-147.000
0.367,0.000,-149.000,603.000,-146.500
0.368,0.000,-149.000,603.000,-146.500
0.369,0.000,-148.500,604.000,-146.000
0.370,0.000,-148.500,606.500,-145.500
0.371,0.000,-148.000,608.500,-145.000
0.372,0.000,-148.000,609.000,-145.000
0.373,0.000,-147.500,607.000,-145.000
0.374,-0.500,-147.500,604.500,-145.000
0.375,-0.500,-147.500,601.000,-145.000
0.376,-0.500,-147.500,599.000,-145.000
0.377,-0.500,-148.000,597.500,-145.000
0.378,-0.500,-148.000,597.500,-145.000
0.379,0.000,-148.000,597.500,-145.000
0.380,0.000,-148.000,597.500,-145.500
0.381,0.000,-148.000,597.500,-145.500
0.382,0.000,-148.000,597.000,-145.500
0.383,0.000,-148.000,597.500,-145.500
0.384,-0.500,-148.500,598.500,-145.500
0.385,-0.500,-148.500,600.000,-145.500
0.386,-0.500,-148.500,600.500,-145.500
0.387,-0.500,-148.500,600.500,-145.500
0.388,-0.500,-148.500,599.500,-145.000
0.389,-0.500,-148.500,598.000,-145.000
0.390,-0.500,-148.000,595.500,-145.000
0.391,-0.500,-148.000,594.000,-144.500
0.392,-0.500,-148.000,594.000,-144.000
0.393,-0.500,-147.500,596.000,-144.000
0.394,-0.500,-147.500,598.500,-143.500
0.395,-0.500,-147.000,601.000,-143.500
0.396,-0.500,-147.000,602.000,-143.000
0.397,-0.500,-146.500,602.500,-143.000
0.398,-0.500,-146.500,602.000,-143.000
0.399,-1.000,-147.000,601.000,-143.000
0.400,-1.000,-147.000,598.500,-143.000
0.401,-1.000,-147.000,596.500,-143.000
0.402,-1.000,-147.000,595.500,-143.000
0.403,-1.000,-147.000,595.000,-143.000
0.404,-0.500,-146.500,596.000,-143.000
0.405,-0.500,-146.500,597.500,-143.000
0.406,-0.500,-146.500,599.500,-142.500
0.407,-0.500,-146.000,601.000,-142.000
0.408,-0.500,-146.000,602.500,-142.000
0.409,-0.500,-146.000,602.000,-142.500
0.410,-0.500,-146.000,600.000,-142.500
0.411,-0.500,-146.000,596.500,-142.500
0.412,-0.500,-146.500,594.000,-142.500
0.413,-0.500,-147.000,593.000,-142.500
0.414,-0.500,-147.500,593.000,-142.500
0.415,-0.500,-147.500,593.500,-142.500
0.416,-0.500,-147.500,593.500,-142.000
0.417,-0.500,-147.000,594.000,-141.500
0.418,-0.500,-146.500,593.500,-141.000
0.419,-0.500,-146.000,592.500,-140.500
0.420,-0.500,-146.000,592.500,-140.500
0.421,-0.500,-146.000,593.000,-140.500
0.422,-0.500,-146.000,594.000,-140.500
0.423,-0.500,-145.500,595.000,-141.000
0.424,0.000,-145.500,595.500,-140.500
0.425,0.000,-145.500,596.000,-140.500
0.426,0.000,-145.000,596.500,-140.500
0.427,0.000,-145.500,596.000,-140.500
0.428,0.000,-145.500,594.500,-140.000
0.429,0.000,-145.500,592.000,-140.000
0.430,-0.500,-145.500,590.000,-140.000
0.431,-0.500,-145.000,588.000,-139.500
0.432,0.000,-144.500,586.000,-139.500
0.433,0.000,-144.000,584.500,-139.000
0.434,0.000,-144.000,582.500,-139.000
0.435,0.000,-144.000,581.500,-139.000
0.436,0.000,-144.000,582.500,-139.000
0.437,0.000,-144.000,584.000,-139.000
0.438,0.000,-143.500,586.000,-139.000
0.439,0.000,-143.500,588.500,-139.000
0.440,0.000,-143.000,591.000,-139.000
0.441,0.000,-143.000,592.500,-138.500
0.442,-0.500,-143.000,593.500,-138.500
0.443,-0.500,-143.000,593.000,-138.000
0.444,-0.500,-143.000,592.000,-138.000
0.445,-0.500,-143.000,591.500,-138.000
0.446,-0.500,-143.000,592.000,-138.000
0.447,0.000,-143.000,593.500,-138.000
0.448,0.000,-143.000,595.000,-138.000
0.449,0.000,-142.500,595.500,-138.000
0.450,0.000,-142.500,594.000,-137.500
0.451,-0.500,-142.000,591.000,-137.000
0.452,-0.500,-142.000,588.000,-136.500
0.453,-0.500,-141.500,585.500,-136.000
0.454,-0.500,-141.500,584.000,-136.000
0.455,-0.500,-141.000,584.000,-136.000
0.456,0.000,-141.000,584.500,-136.000
0.457,0.000,-141.500,586.000,-136.000
0.458,0.000,-141.500,587.000,-136.000
0.459,0.000,-142.000,587.500,-136.000
0.460,0.000,-142.000,588.000,-136.000
0.461,0.000,-142.000,587.500,-136.000
0.462,0.000,-142.000,587.000,-135.500
0.463,0.000,-142.000,587.000,-135.500
0.464,0.000,-142.000,588.000,-136.000
0.465,0.000,-142.000,589.000,-136.000
0.466,0.000,-142.000,589.500,-136.500
0.467,-0.500,-142.000,589.000,-137.000
0.468,-0.500,-142.000,587.500,-137.500
0.469,-0.500,-141.500,586.000,-137.500
0.470,-0.500,-141.500,585.000,-137.000
0.471,-0.500,-141.000,585.500,-136.500
0.472,-0.500,-141.000,586.500,-136.000
0.473,-0.500,-140.500,587.000,-135.500
0.474,-0.500,-140.500,587.000,-135.000
0.475,-0.500,-140.000,587.000,-134.000
0.476,-0.500,-139.500,587.000,-133.500
0.477,-0.500,-139.500,587.000,-133.000
0.478,-0.500,-139.000,587.500,-133.000
0.479,-0.500,-139.000,587.500,-132.500
0.480,-0.500,-138.500,587.500,-132.500
0.481,-0.500,-138.500,588.500,-132.500
0.482,0.000,-139.000,590.500,-132.500
0.483,0.000,-139.000,594.000,-132.500
0.484,0.000,-139.000,596.000,-132.500
0.485,0.000,-139.500,596.000,-132.500
0.486,0.000,-139.500,595.000,-132.500
0.487,0.000,-139.500,594.000,-133.000
0.488,0.000,-139.500,593.000,-133.000
0.489,0.000,-140.000,592.000,-133.500
0.490,0.000,-140.000,590.500,-133.500
0.491,0.500,-140.000,588.500,-133.500
0.492,0.500,-140.000,587.000,-133.500
0.493,0.500,-140.000,587.000,-133.000
0.494,0.000,-140.000,588.500,-133.000
0.495,0.500,-140.000,590.500,-133.000
0.496,0.500,-140.000,592.500,-133.000
0.497,0.000,-140.000,593.000,-133.500
0.498,0.000,-140.500,592.500,-134.000
0.499,0.000,-140.500,590.500,-134.500
0.500,-0.500,-141.000,587.500,-134.500
0.501,-0.500,-141.000,586.000,-134.500
0.502,-0.500,-141.000,586.000,-134.500
0.503,0.000,-141.000,587.500,-134.500
0.504,0.000,-140.500,589.500,-134.500
0.505,0.000,-140.500,590.000,-134.500
0.506,0.000,-140.500,589.000,-134.500
0.507,0.000,-140.500,588.000,-134.500
0.508,0.000,-140.500,587.000,-134.000
0.509,0.000,-140.500,586.500,-134.000
0.510,0.000,-140.500,585.500,-134.000
0.511,0.000,-140.500,584.000,-134.000
0.512,0.000,-140.000,583.000,-133.500
0.513,0.000,-140.000,582.000,-133.000
0.514,-0.500,-140.000,582.000,-133.000
0.515,-0.500,-140.000,582.000,-132.500
0.516,0.000,-140.000,582.500,-132.000
0.517,0.000,-140.000,584.000,-132.000
0.518,0.000,-140.000,586.000,-132.000
0.519,0.000,-140.500,588.000,-132.500
0.520,0.000,-140.500,590.000,-132.500
0.521,-0.500,-140.500,590.500,-132.500
0.522,-0.500,-141.000,590.500,-132.500
0.523,-0.500,-141.000,589.500,-132.500
0.524,-0.500,-140.500,589.000,-132.500
0.525,-0.500,-140.500,589.000,-132.000
0.526,-0.500,-140.500,589.000,-132.000
0.527,-0.500,-140.000,589.000,-132.500
0.528,-0.500,-140.000,588.500,-132.500
0.529,-1.000,-140.000,586.500,-132.000
0.530,-1.000,-140.000,584.500,-131.500
0.531,-1.000,-140.000,583.000,-131.000
0.532,-1.000,-140.000,583.000,-130.500
0.533,-1.000,-139.500,583.500,-130.000
0.534,-1.000,-139.500,584.500,-130.000
0.535,-1.000,-139.500,586.500,-130.000
0.536,-0.500,-139.500,589.500,-130.000
0.537,-0.500,-139.000,593.000,-130.000
0.538,-0.500,-139.000,595.500,-130.500
0.539,0.000,-138.500,596.500,-130.500
0.540,0.000,-138.500,596.500,-130.500
0.541,0.000,-138.500,596.000,-130.000
0.542,0.000,-138.000,594.500,-130.000
0.543,0.000,-138.000,592.500,-130.000
0.544,0.000,-138.000,590.000,-129.500
0.545,0.000,-137.500,587.500,-129.500
0.546,0.000,-137.500,586.000,-129.000
0.547,0.000,-137.500,584.500,-129.000
0.548,0.000,-137.500,584.000,-129.000
0.549,0.000,-137.000,583.000,-128.500
0.550,0.000,-136.500,582.000,-128.000
0.551,0.000,-136.000,581.500,-127.500
0.552,0.000,-135.000,581.500,-126.500
0.553,0.000,-134.000,582.000,-126.000
0.554,0.000,-133.500,583.000,-125.000
0.555,0.000,-133.000,583.000,-124.500
0.556,0.000,-132.500,583.500,-124.000
0.557,0.000,-132.500,583.500,-124.000
0.558,0.000,-132.000,584.000,-123.500
0.559,0.000,-132.000,583.500,-123.000
0.560,0.000,-131.500,582.500,-122.500
0.561,0.000,-131.500,580.500,-122.500
0.562,0.000,-131.500,578.500,-122.500
0.563,0.000,-131.500,578.500,-123.000
0.564,0.000,-132.000,579.500,-123.500
0.565,0.500,-132.000,581.500,-124.000
0.566,0.500,-132.000,583.000,-124.000
0.567,0.500,-132.500,583.000,-124.500
0.568,0.000,-132.500,582.500,-124.500
0.569,0.000,-133.000,582.500,-124.500
0.570,0.000,-133.000,583.000,-125.000
0.571,0.000,-133.000,583.500,-125.000
0.572,0.000,-133.500,583.500,-125.000
0.573,0.000,-133.500,583.000,-125.000
0.574,0.000,-133.500,583.000,-125.000
0.575,0.000,-133.000,583.000,-125.000
0.576,0.000,-133.000,582.500,-125.000
0.577,0.000,-133.000,583.000,-125.000
0.578,-0.500,-133.000,583.500,-125.000
0.579,-0.500,-132.500,584.000,-125.000
0.580,-0.500,-132.500,584.500,-125.000
0.581,-0.500,-132.500,585.000,-125.000
0.582,-0.500,-132.500,586.000,-125.000
0.583,-0.500,-132.000,587.000,-124.500
0.584,-0.500,-132.000,587.000,-124.500
0.585,-0.500,-132.000,587.000,-124.500
0.586,-0.500,-132.000,586.000,-124.000
0.587,0.000,-131.500,584.000,-124.000
0.588,0.000,-131.500,581.500,-123.500
0.589,0.000,-131.500,579.000,-123.500
0.590,0.000,-132.000,576.500,-123.000
0.591,-0.500,-131.500,574.500,-123.000
0.592,-0.500,-131.500,572.000,-123.000
0.593,-0.500,-131.500,570.000,-123.500
0.594,0.000,-131.500,569.500,-124.000
0.595,0.000,-131.000,570.500,-124.000
0.596,0.000,-130.500,572.000,-123.500
0.597,0.000,-130.000,574.000,-123.000
0.598,0.000,-129.500,575.500,-122.500
0.599,0.000,-129.000,576.000,-122.000
0.600,0.000,-128.500,576.500,-121.500
0.601,-0.500,-128.000,576.000,-121.000
0.602,-0.500,-128.000,575.500,-120.500
0.603,-0.500,-128.000,574.500,-120.500
0.604,-0.500,-127.500,573.000,-120.000
0.605,-0.500,-127.500,571.500,-119.500
0.606,-0.500,-127.500,570.500,-119.000
0.607,-0.500,-127.000,570.000,-118.000
0.608,-0.500,-126.500,570.000,-117.500
0.609,-0.500,-126.500,571.000,-117.000
0.610,-0.500,-126.500,572.500,-116.500
0.611,0.000,-126.500,574.000,-116.500
0.612,0.000,-126.500,575.000,-117.500
0.613,0.000,-127.500,576.000,-119.000
0.614,-0.500,-129.000,576.000,-121.500
0.615,-0.500,-131.000,575.500,-125.000
0.616,-0.500,-133.500,574.500,-129.000
0.617,-0.500,-136.000,573.000,-133.000
0.618,-0.500,-138.000,571.000,-135.500
0.619,-0.500,-139.000,569.000,-137.500
0.620,-0.500,-139.500,567.000,-138.000
0.621,-0.500,-140.000,566.000,-138.000
0.622,-0.500,-139.500,565.500,-137.500
0.623,-0.500,-139.000,566.000,-136.500
0.624,-0.500,-138.500,567.500,-135.500
0.625,-0.500,-138.000,569.500,-134.000
0.626,-0.500,-137.000,573.000,-132.500
0.627,-0.500,-136.000,576.500,-131.000
0.628,-0.500,-135.000,580.000,-129.000
0.629,-0.500,-134.000,583.000,-127.500
0.630,-0.500,-133.000,584.500,-126.000
0.631,0.000,-132.500,584.500,-125.000
0.632,0.000,-131.500,582.500,-124.000
0.633,-0.500,-131.000,578.500,-123.000
0.634,-0.500,-131.000,574.000,-122.500
0.635,-0.500,-131.000,570.500,-122.500
0.636,-0.500,-131.500,568.500,-123.000
0.637,-0.500,-132.500,568.500,-124.000
0.638,-0.500,-133.500,569.500,-125.500
0.639,-0.500,-135.000,571.500,-127.500
0.640,-0.500,-136.500,573.500,-129.500
0.641,-0.500,-138.500,575.500,-132.000
0.642,-0.500,-140.500,577.500,-134.000
0.643,-0.500,-143.000,578.500,-136.500
0.644,-0.500,-144.500,578.500,-139.000
0.645,-0.500,-146.500,578.000,-141.000
0.646,-0.500,-148.000,578.000,-142.500
0.647,-0.500,-149.000,579.000,-143.500
0.648,-0.500,-149.000,581.000,-143.500
0.649,-0.500,-149.000,583.500,-143.500
0.650,-0.500,-148.500,584.000,-142.500
0.651,-0.500,-147.500,584.000,-141.000
0.652,-0.500,-147.000,583.500,-140.000
0.653,-0.500,-146.000,582.000,-138.500
0.654,-0.500,-145.000,580.500,-137.000
0.655,-0.500,-143.500,579.000,-135.000
0.656,-0.500,-141.500,578.500,-132.000
0.657,-0.500,-139.000,579.000,-129.000
0.658,-0.500,-136.500,579.000,-125.500
0.659,-0.500,-133.000,578.500,-121.500
0.660,-0.500,-129.500,577.000,-117.000
0.661,-0.500,-125.000,575.000,-112.000
0.662,-0.500,-120.000,573.500,-106.500
0.663,-0.500,-115.000,572.000,-101.000
0.664,-0.500,-110.000,571.500,-95.500
0.665,-0.500,-105.000,572.500,-90.000
0.666,0.000,-100.500,574.000,-85.000
0.667,0.000,-96.000,576.000,-80.000
0.668,0.000,-92.000,577.500,-75.500
0.669,0.000,-88.000,577.500,-70.500
0.670,0.000,-84.000,576.500,-66.000
0.671,0.000,-80.500,574.500,-62.000
0.672,0.000,-76.500,573.000,-57.500
0.673,0.000,-72.500,572.000,-53.500
0.674,-0.500,-68.500,572.500,-49.000
0.675,-0.500,-64.500,574.000,-45.000
0.676,-0.500,-61.000,575.500,-42.000
0.677,-0.500,-58.000,576.500,-39.500
0.678,-0.500,-56.500,577.500,-38.000
0.679,-0.500,-55.500,578.000,-37.000
0.680,-0.500,-55.000,578.000,-36.500
0.681,-0.500,-55.500,577.500,-37.500
0.682,-0.500,-56.500,576.000,-39.000
0.683,-0.500,-58.000,574.500,-41.500
0.684,-0.500,-60.500,573.500,-44.500
0.685,-0.500,-63.500,573.000,-48.500
0.686,-0.500,-67.000,574.000,-53.000
0.687,-0.500,-70.500,575.500,-57.500
0.688,-0.500,-74.000,576.500,-61.500
0.689,-0.500,-77.500,576.000,-66.000
0.690,-0.500,-81.000,574.500,-69.500
0.691,-0.500,-84.500,574.500,-73.500
0.692,0.000,-88.000,576.000,-77.000
0.693,0.000,-91.500,580.000,-80.500
0.694,0.000,-94.500,584.000,-83.500
0.695,0.000,-97.000,587.000,-86.000
0.696,-0.500,-99.500,588.000,-88.500
0.697,-0.500,-101.500,587.500,-91.000
0.698,-0.500,-104.000,585.500,-93.000
0.699,-0.500,-106.000,582.000,-95.500
0.700,0.000,-108.500,578.000,-98.000
0.701,0.000,-110.500,575.000,-100.500
0.702,0.000,-112.500,573.500,-102.500
0.703,0.000,-114.500,573.500,-104.500
0.704,0.000,-116.000,574.500,-106.500
0.705,0.000,-117.000,575.000,-108.000
0.706,0.000,-118.500,575.000,-109.500
0.707,0.000,-119.500,575.000,-111.000
0.708,-0.500,-120.500,574.500,-111.500
0.709,-0.500,-121.000,574.500,-112.000
0.710,-0.500,-121.500,574.500,-112.500
0.711,-0.500,-121.500,575.000,-112.500
0.712,-0.500,-121.500,574.500,-112.500
0.713,-0.500,-121.500,574.000,-112.500
0.714,-0.500,-121.000,574.000,-112.000
0.715,-0.500,-121.000,574.500,-112.000
0.716,-0.500,-121.000,575.000,-112.000
0.717,-0.500,-120.500,575.000,-112.000
0.718,-0.500,-120.500,575.000,-112.500
0.719,-0.500,-121.000,576.000,-112.500
0.720,0.000,-121.000,577.500,-113.000
0.721,0.000,-121.000,579.000,-113.000
0.722,0.000,-121.500,579.500,-113.000
0.723,-0.500,-121.500,579.000,-113.000
0.724,-0.500,-122.000,577.500,-113.000
0.725,-0.500,-122.000,576.500,-113.000
0.726,-0.500,-122.000,576.000,-113.500
0.727,-0.500,-122.000,577.000,-113.500
0.728,-0.500,-122.000,579.500,-114.000
0.729,-0.500,-122.000,581.500,-113.500
0.730,0.000,-121.500,583.000,-113.000
0.731,0.000,-121.000,583.500,-112.500
0.732,0.000,-121.000,583.500,-112.000
0.733,-0.500,-120.500,583.000,-111.500
0.734,-0.500,-120.000,582.000,-111.500
0.735,-0.500,-120.000,581.500,-111.500
0.736,-0.500,-119.500,581.000,-111.000
0.737,-0.500,-119.000,580.000,-111.000
0.738,-0.500,-119.000,578.000,-111.000
0.739,-0.500,-119.000,576.000,-111.000
0.740,-0.500,-119.500,574.500,-111.000
0.741,-0.500,-119.500,574.000,-111.500
0.742,-0.500,-120.000,574.000,-111.500
0.743,-0.500,-120.000,574.000,-112.000
0.744,-0.500,-120.000,574.000,-112.500
0.745,-0.500,-120.000,573.500,-112.500
0.746,-0.500,-119.500,573.500,-112.500
0.747,-0.500,-119.000,572.500,-112.500
0.748,-0.500,-118.500,571.000,-112.000
0.749,-0.500,-118.000,569.500,-111.500
0.750,-0.500,-117.500,568.000,-111.000
0.751,-0.500,-117.000,567.000,-111.000
0.752,-0.500,-116.500,567.000,-110.500
0.753,-0.500,-116.000,569.000,-110.500
0.754,-0.500,-116.000,571.000,-110.500
0.755,-0.500,-116.000,573.500,-110.500
0.756,-0.500,-116.500,576.000,-110.500
0.757,0.000,-116.000,577.500,-110.500
0.758,0.000,-116.000,578.000,-110.000
0.759,0.000,-115.500,577.000,-110.000
0.760,0.000,-115.500,575.500,-109.500
0.761,0.000,-115.500,574.000,-109.500
0.762,-0.500,-115.000,573.500,-109.500
0.763,-0.500,-115.500,573.000,-110.000
0.764,-0.500,-115.500,573.000,-110.000
0.765,0.000,-115.500,573.000,-110.000
0.766,0.000,-115.500,573.500,-110.000
0.767,0.000,-115.500,574.000,-110.000
0.768,0.000,-115.500,574.000,-109.500
0.769,0.000,-115.500,574.000,-109.500
0.770,-0.500,-115.500,574.000,-109.000
0.771,-0.500,-115.000,574.500,-109.000
0.772,-0.500,-115.000,575.000,-109.000
0.773,0.000,-114.500,575.000,-109.000
0.774,0.000,-114.500,575.000,-109.500
0.775,0.000,-114.500,575.000,-109.500
0.776,0.000,-114.500,575.000,-110.000
0.777,0.000,-114.500,574.500,-110.000
0.778,0.000,-114.500,574.000,-110.000
0.779,0.000,-114.500,573.500,-110.000
0.780,0.000,-114.500,574.000,-109.500
0.781,0.000,-114.500,574.500,-109.500
0.782,0.000,-114.000,575.000,-109.500
0.783,0.000,-114.000,575.500,-109.000
0.784,0.000,-113.500,575.500,-109.000
0.785,0.000,-113.500,574.500,-109.000
0.786,0.000,-113.500,573.500,-109.000
0.787,-0.500,-113.500,573.000,-108.500
0.788,-0.500,-113.500,572.500,-108.500
0.789,-0.500,-113.000,571.500,-108.500
0.790,-0.500,-113.000,570.500,-108.500
0.791,-0.500,-112.500,569.000,-108.000
0.792,-0.500,-112.500,567.500,-108.000
0.793,-0.500,-112.500,567.000,-107.500
0.794,-0.500,-112.000,568.000,-107.500
0.795,-0.500,-111.500,569.500,-107.000
0.796,-0.500,-111.500,571.000,-107.000
0.797,-0.500,-111.000,571.000,-106.500
0.798,-0.500,-111.000,570.000,-106.500
0.799,-0.500,-111.000,568.500,-106.500
0.800,-0.500,-111.500,567.500,-107.000
0.801,-0.500,-111.500,567.500,-107.000
0.802,-0.500,-112.000,567.500,-107.000
0.803,-0.500,-112.000,568.000,-107.500
0.804,0.000,-112.000,569.000,-107.500
0.805,0.000,-111.500,569.500,-107.500
0.806,0.000,-111.500,569.000,-107.500
0.807,-0.500,-111.500,567.000,-108.000
0.808,-0.500,-111.500,564.500,-108.000
0.809,-0.500,-112.000,563.000,-108.500
0.810,-1.000,-112.500,562.000,-108.500
0.811,-1.000,-113.000,561.000,-109.000
0.812,-1.000,-113.000,559.500,-109.000
0.813,-0.500,-113.000,557.500,-109.000
0.814,-0.500,-113.000,555.500,-109.000
0.815,-0.500,-113.000,555.000,-109.000
0.816,-0.500,-113.000,556.000,-109.000
0.817,-0.500,-113.000,558.000,-109.000
0.818,-0.500,-113.000,561.000,-109.500
0.819,-0.500,-113.000,562.500,-109.500
0.820,-0.500,-113.500,563.000,-110.000
0.821,-0.500,-113.500,563.000,-110.000
0.822,-0.500,-113.000,563.000,-110.000
0.823,-0.500,-113.000,563.000,-109.500
0.824,-0.500,-112.500,563.000,-109.000
0.825,-0.500,-111.500,563.000,-108.500
0.826,-0.500,-111.000,564.500,-107.500
0.827,-0.500,-110.000,566.500,-106.500
0.828,-0.500,-109.500,570.000,-105.500
0.829,-0.500,-109.000,574.500,-105.000
0.830,-0.500,-108.500,578.000,-104.500
0.831,0.000,-108.500,580.000,-104.500
0.832,0.000,-108.000,580.000,-104.000
0.833,0.000,-107.500,578.500,-104.000
0.834,0.000,-107.500,576.500,-103.500
0.835,0.000,-107.000,575.000,-103.500
0.836,0.000,-106.500,574.500,-103.000
0.837,0.000,-106.500,574.000,-103.500
0.838,0.000,-106.000,574.000,-103.500
0.839,0.000,-106.000,573.500,-103.500
0.840,0.000,-106.000,572.500,-103.500
0.841,0.500,-106.000,571.500,-103.500
0.842,0.000,-106.000,570.000,-103.500
0.843,0.000,-106.000,568.000,-103.000
0.844,0.000,-105.500,566.500,-103.000
0.845,0.000,-105.500,564.000,-103.000
0.846,0.000,-105.500,563.000,-103.000
0.847,0.000,-106.000,563.500,-103.500
0.848,0.000,-106.000,565.500,-103.500
0.849,0.000,-106.000,567.000,-103.500
0.850,0.000,-106.000,568.000,-103.500
0.851,-0.500,-106.000,567.500,-103.500
0.852,-0.500,-105.500,566.000,-103.000
0.853,-0.500,-105.500,564.500,-102.500
0.854,-0.500,-105.500,563.000,-102.000
0.855,-0.500,-105.000,561.500,-101.500
0.856,-0.500,-105.000,560.500,-101.500
0.857,-0.500,-105.000,559.500,-101.500
0.858,-0.500,-105.000,559.000,-101.500
0.859,-0.500,-105.000,559.500,-101.500
0.860,-0.500,-105.500,560.000,-101.500
0.861,0.000,-105.500,561.000,-102.000
0.862,0.000,-105.500,562.000,-102.000
0.863,0.000,-105.500,562.000,-102.000
0.864,0.000,-105.000,561.500,-101.500
0.865,0.000,-105.000,561.000,-101.000
0.866,0.000,-104.500,560.500,-100.500
0.867,-0.500,-104.000,560.000,-100.500
0.868,-0.500,-104.000,559.500,-100.000
0.869,-0.500,-104.000,559.500,-100.500
0.870,-0.500,-104.000,559.500,-100.500
0.871,-0.500,-104.000,559.500,-100.500
0.872,-0.500,-104.000,559.500,-100.500
0.873,-0.500,-103.500,559.500,-100.000
0.874,-0.500,-103.500,559.000,-99.500
0.875,-0.500,-103.000,557.500,-99.500
0.876,-0.500,-103.000,555.000,-99.500
0.877,-0.500,-102.500,552.000,-99.500
0.878,-0.500,-102.500,550.000,-99.500
0.879,-0.500,-102.500,550.500,-99.500
0.880,-0.500,-102.500,552.000,-100.000
0.881,0.000,-102.500,554.000,-100.000
0.882,0.000,-103.000,554.500,-100.000
0.883,0.000,-103.500,554.500,-100.500
0.884,0.000,-103.500,553.500,-100.500
0.885,-0.500,-103.500,553.500,-100.000
0.886,-0.500,-103.500,554.000,-100.000
0.887,-0.500,-103.500,555.500,-99.500
0.888,-0.500,-103.500,557.000,-99.500
0.889,-0.500,-103.500,557.500,-99.000
0.890,-0.500,-103.500,556.500,-99.000
0.891,-0.500,-103.000,555.500,-98.500
0.892,-0.500,-103.000,554.000,-98.000
0.893,-0.500,-102.000,553.000,-97.500
0.894,-0.500,-101.500,552.000,-96.500
0.895,-0.500,-101.000,552.000,-96.000
0.896,-0.500,-100.500,552.000,-96.000
0.897,-0.500,-100.000,553.000,-95.500
0.898,-0.500,-100.000,554.000,-95.000
0.899,-0.500,-99.500,554.000,-94.500
0.900,-0.500,-99.500,552.000,-94.000
0.901,-0.500,-99.500,549.000,-94.000
0.902,-0.500,-99.000,546.000,-94.000
0.903,-0.500,-99.000,545.000,-93.500
0.904,-0.500,-98.500,545.000,-93.000
0.905,0.000,-98.500,545.500,-93.000
0.906,0.000,-98.000,546.000,-92.500
0.907,0.000,-98.000,545.000,-92.500
0.908,0.000,-98.000,543.000,-92.500
0.909,0.000,-98.500,541.000,-92.500
0.910,-0.500,-99.000,540.000,-93.500
0.911,-0.500,-99.500,539.500,-94.000
0.912,-0.500,-100.000,539.500,-94.500
0.913,-0.500,-100.500,540.000,-95.000
0.914,-0.500,-100.000,541.000,-95.000
0.915,-0.500,-100.000,543.500,-94.500
0.916,-0.500,-99.500,546.500,-94.000
0.917,-0.500,-99.000,549.500,-93.500
0.918,-0.500,-98.500,551.500,-93.000
0.919,-0.500,-98.000,552.500,-92.000
0.920,-0.500,-97.000,551.500,-91.000
0.921,0.000,-96.500,550.000,-90.000
0.922,-0.500,-95.500,548.500,-89.000
0.923,-0.500,-95.000,547.500,-88.500
0.924,-0.500,-95.000,546.500,-87.500
0.925,-0.500,-94.500,546.500,-87.000
0.926,-0.500,-94.000,546.500,-86.500
0.927,-0.500,-93.500,547.000,-86.000
0.928,-0.500,-93.000,547.000,-85.500
0.929,-0.500,-92.500,547.000,-85.500
0.930,-0.500,-92.500,547.000,-85.000
0.931,-0.500,-92.000,547.000,-85.000
0.932,-0.500,-91.000,547.500,-84.500
0.933,-0.500,-91.000,549.000,-84.500
0.934,-0.500,-90.500,550.000,-84.000
0.935,-0.500,-90.500,551.000,-83.500
0.936,-0.500,-90.500,551.000,-83.500
0.937,-0.500,-90.000,551.000,-83.000
0.938,0.000,-90.000,550.500,-83.000
0.939,0.000,-90.000,550.500,-82.500
0.940,0.000,-89.500,550.500,-82.000
0.941,0.000,-89.500,551.500,-82.000
0.942,0.000,-89.500,552.500,-82.500
0.943,0.000,-89.500,553.000,-82.500
0.944,-0.500,-90.000,553.500,-82.500
0.945,-0.500,-90.000,553.500,-82.500
0.946,-0.500,-90.000,553.500,-82.000
0.947,-0.500,-89.500,553.000,-81.500
0.948,-0.500,-89.500,551.000,-81.000
0.949,-0.500,-89.000,549.000,-80.500
0.950,-0.500,-89.000,546.500,-80.000
0.951,-0.500,-88.500,544.500,-80.000
0.952,-0.500,-88.500,543.500,-79.500
0.953,-0.500,-88.500,543.500,-79.500
0.954,-0.500,-88.500,544.500,-79.000
0.955,-0.500,-88.000,545.000,-79.000
0.956,-0.500,-87.500,545.000,-78.500
0.957,-0.500,-87.500,544.500,-78.500
0.958,-0.500,-87.500,543.500,-78.500
0.959,-0.500,-87.500,543.000,-78.000
0.960,-0.500,-87.500,542.500,-78.000
0.961,0.000,-87.500,543.000,-78.000
0.962,0.000,-88.000,543.500,-77.500
0.963,0.000,-88.000,543.500,-77.500
0.964,0.000,-88.000,543.500,-77.500
0.965,-0.500,-88.500,543.000,-77.000
0.966,-0.500,-88.500,542.500,-77.000
0.967,-0.500,-89.000,541.500,-77.500
0.968,-0.500,-90.000,540.500,-78.000
0.969,-0.500,-91.000,539.500,-80.000
0.970,-0.500,-92.000,538.000,-82.000
0.971,-0.500,-94.000,537.500,-85.000
0.972,-0.500,-96.000,537.000,-88.500
0.973,-0.500,-98.000,538.000,-92.000
0.974,-0.500,-99.500,540.000,-95.000
0.975,-0.500,-101.000,543.500,-96.500
0.976,-0.500,-101.500,546.500,-97.500
0.977,-0.500,-102.000,549.000,-98.000
0.978,-0.500,-102.000,550.000,-97.500
0.979,-0.500,-101.500,549.000,-97.000
0.980,-0.500,-101.000,547.500,-96.000
0.981,-0.500,-100.500,545.500,-94.500
0.982,-0.500,-99.500,543.500,-93.000
0.983,-0.500,-98.000,542.500,-91.000
0.984,-0.500,-97.500,543.500,-89.500
0.985,-0.500,-96.500,546.000,-88.500
0.986,-0.500,-96.500,548.500,-88.000
0.987,-0.500,-96.000,550.000,-87.500
0.988,-0.500,-95.500,550.000,-87.000
0.989,-0.500,-94.500,549.500,-86.000
0.990,-0.500,-94.000,548.500,-85.500
0.991,0.000,-93.500,548.500,-85.000
0.992,0.000,-93.000,548.500,-84.500
0.993,0.000,-92.500,548.500,-84.000
0.994,0.000,-92.000,548.500,-84.000
0.995,0.000,-92.000,548.500,-84.000
0.996,0.000,-91.500,548.000,-83.500
0.997,0.000,-91.500,547.000,-83.500
0.998,0.000,-91.000,546.000,-83.000
0.999,0.000,-90.500,546.000,-82.500
1.000,0.000,-90.000,547.000,-82.000
1.001,0.000,-90.000,548.000,-81.500
1.002,0.000,-90.000,549.000,-81.500
1.003,0.000,-89.500,549.500,-81.000
1.004,0.000,-89.500,549.500,-80.500
1.005,0.000,-89.000,549.000,-80.000
1.006,-0.500,-88.500,546.500,-79.500
1.007,-0.500,-88.000,543.500,-79.000
1.008,-0.500,-87.500,540.000,-79.000
1.009,-0.500,-87.500,537.500,-79.000
1.010,-0.500,-87.500,537.500,-79.000
1.011,-0.500,-87.500,539.000,-79.000
1.012,-0.500,-87.500,541.000,-79.500
1.013,0.000,-87.000,542.500,-79.000
1.014,-0.500,-86.500,542.500,-79.000
1.015,-0.500,-86.500,541.000,-78.500
1.016,-0.500,-86.000,539.000,-78.500
1.017,-0.500,-86.000,537.000,-78.500
1.018,-0.500,-86.000,536.000,-78.500
1.019,-0.500,-86.000,535.000,-78.500
1.020,-0.500,-85.500,534.000,-78.000
1.021,-0.500,-85.500,534.500,-77.500
1.022,-0.500,-85.000,536.000,-77.500
1.023,-0.500,-85.000,538.500,-77.500
1.024,-0.500,-85.000,540.500,-77.500
1.025,-0.500,-85.500,541.500,-77.500
1.026,-0.500,-85.500,541.000,-78.000
1.027,-0.500,-85.500,540.000,-78.000
1.028,-0.500,-85.500,539.000,-78.000
1.029,-0.500,-85.500,538.500,-77.500
1.030,-0.500,-85.500,538.000,-77.500
1.031,-0.500,-85.500,537.500,-77.500
1.032,-0.500,-85.500,537.000,-77.500
1.033,-0.500,-85.500,536.000,-77.500
1.034,-0.500,-85.000,534.500,-77.000
1.035,-0.500,-85.000,533.000,-77.000
1.036,-0.500,-85.000,531.500,-77.000
1.037,-0.500,-84.500,530.000,-76.500
1.038,-0.500,-84.500,530.000,-76.500
1.039,-0.500,-84.000,530.500,-76.500
1.040,0.000,-84.000,531.500,-76.500
1.041,0.000,-84.000,533.000,-76.500
1.042,0.000,-84.000,535.000,-76.500
1.043,0.000,-83.500,537.000,-76.500
1.044,0.000,-83.500,539.000,-76.500
1.045,0.000,-83.500,540.000,-76.500
1.046,0.000,-83.500,540.000,-76.500
1.047,0.000,-83.000,539.500,-76.500
1.048,0.000,-83.000,539.000,-76.000
1.049,0.000,-83.000,539.000,-76.000
1.050,0.000,-83.000,540.000,-75.500
1.051,0.000,-83.000,541.000,-75.000
1.052,0.000,-83.000,542.000,-75.000
1.053,0.000,-83.000,543.500,-74.000
1.054,0.000,-82.500,543.500,-73.500
1.055,0.000,-82.500,543.000,-73.000
1.056,0.000,-82.000,542.000,-72.500
1.057,0.000,-82.000,541.500,-72.500
1.058,0.000,-82.000,541.000,-73.000
1.059,0.000,-82.000,540.000,-73.000
1.060,0.000,-82.000,538.000,-73.500
1.061,0.000,-82.000,536.500,-73.000
1.062,-0.500,-81.500,535.500,-72.500
1.063,-0.500,-81.500,534.500,-72.000
1.064,-0.500,-81.000,534.000,-72.000
1.065,-0.500,-81.500,533.000,-71.500
1.066,-0.500,-81.500,532.500,-71.500
1.067,-1.000,-82.000,532.000,-71.500
1.068,-1.000,-82.000,532.500,-71.500
1.069,-0.500,-82.000,533.500,-71.500
1.070,-0.500,-81.500,534.500,-71.500
1.071,0.000,-81.500,535.500,-71.000
1.072,0.500,-81.500,535.000,-71.000
1.073,0.500,-81.500,534.500,-70.500
1.074,0.500,-81.500,534.500,-70.500
1.075,0.500,-81.500,535.500,-70.500
1.076,0.000,-81.500,537.000,-70.500
1.077,0.000,-81.000,537.500,-70.500
1.078,0.000,-81.000,537.000,-70.500
1.079,0.000,-81.000,536.000,-70.000
1.080,0.000,-80.500,535.000,-70.000
1.081,0.000,-80.500,534.500,-69.500
1.082,0.000,-80.000,534.000,-69.000
1.083,0.000,-79.500,534.500,-68.500
1.084,0.000,-79.500,535.000,-68.500
1.085,0.000,-79.500,535.000,-68.500
1.086,-0.500,-80.000,533.500,-68.500
1.087,-0.500,-80.000,532.000,-69.000
1.088,-0.500,-80.500,532.000,-69.500
1.089,-0.500,-80.500,532.500,-69.500
1.090,0.000,-80.000,534.000,-70.000
1.091,0.000,-80.000,535.000,-70.000
1.092,0.000,-79.500,535.000,-70.000
1.093,0.000,-79.500,535.500,-70.500
1.094,-0.500,-79.500,535.500,-70.500
1.095,-0.500,-80.000,536.500,-71.000
1.096,-0.500,-80.000,537.000,-71.500
1.097,0.000,-80.000,537.000,-71.500
1.098,0.000,-80.000,537.000,-71.000
1.099,0.000,-80.000,537.000,-71.000
1.100,0.000,-80.000,536.500,-71.000
1.101,0.000,-80.500,535.000,-71.500
1.102,0.000,-81.000,533.500,-72.500
1.103,0.000,-82.000,532.000,-73.000
1.104,0.000,-83.000,531.500,-74.000
1.105,0.000,-84.500,531.500,-75.000
1.106,0.000,-85.500,533.000,-75.500
1.107,0.000,-86.000,534.500,-76.000
1.108,0.000,-86.500,535.500,-76.000
1.109,0.000,-86.500,535.500,-76.000
1.110,0.000,-86.000,533.500,-75.500
1.111,0.000,-85.000,530.500,-75.000
1.112,0.000,-84.500,527.500,-74.000
1.113,-0.500,-84.000,525.500,-73.500
1.114,-0.500,-83.000,525.000,-72.500
1.115,-0.500,-82.000,525.500,-71.500
1.116,-0.500,-81.500,526.500,-70.500
1.117,-0.500,-80.500,527.000,-69.500
1.118,-0.500,-79.500,527.500,-69.000
1.119,-0.500,-78.500,528.000,-68.000
1.120,-0.500,-77.500,530.500,-67.000
1.121,-0.500,-76.500,534.000,-66.000
1.122,-0.500,-76.500,537.500,-65.500
1.123,-0.500,-76.000,540.500,-65.000
1.124,-0.500,-75.500,540.500,-64.500
1.125,-0.500,-75.000,538.500,-64.000
1.126,-0.500,-75.000,534.500,-63.500
1.127,-0.500,-74.500,530.500,-63.500
1.128,-0.500,-74.500,527.000,-63.000
1.129,0.000,-74.500,526.000,-63.000
1.130,0.000,-75.000,527.000,-62.500
1.131,-0.500,-75.000,530.500,-62.000
1.132,-0.500,-75.500,533.500,-62.000
1.133,-0.500,-76.000,535.500,-61.500
1.134,-0.500,-76.500,536.000,-62.000
1.135,-0.500,-77.000,535.000,-62.000
1.136,0.000,-77.000,533.000,-62.500
1.137,0.000,-77.000,530.000,-62.500
1.138,0.000,-77.000,528.000,-62.500
1.139,0.500,-76.500,527.000,-62.000
1.140,0.500,-76.000,527.000,-62.000
1.141,0.500,-75.500,528.000,-62.000
1.142,0.000,-75.500,528.000,-62.000
1.143,-0.500,-75.500,528.500,-61.500
1.144,-0.500,-75.500,529.000,-61.500
1.145,-0.500,-76.000,530.000,-61.500
1.146,-0.500,-76.500,532.000,-61.000
1.147,-0.500,-77.000,534.000,-61.000
1.148,-0.500,-77.500,536.500,-61.000
1.149,-0.500,-78.000,538.000,-61.000
1.150,-0.500,-78.500,538.500,-61.000
1.151,-0.500,-79.000,537.500,-61.500
1.152,-0.500,-79.000,535.000,-61.500
1.153,-0.500,-79.000,532.500,-61.500
1.154,0.000,-79.500,531.000,-62.000
1.155,0.000,-79.500,531.000,-62.000
1.156,0.000,-80.000,531.500,-62.000
1.157,-0.500,-80.500,531.500,-62.000
1.158,-0.500,-80.500,532.000,-62.000
1.159,-0.500,-81.000,533.000,-62.500
1.160,-0.500,-81.000,534.500,-62.500
1.161,0.000,-81.500,535.000,-63.000
1.162,0.000,-82.000,534.500,-63.000
1.163,0.000,-82.000,532.500,-63.000
1.164,0.000,-81.500,530.500,-63.000
1.165,0.000,-81.500,528.500,-62.500
1.166,0.000,-81.500,527.500,-62.500
1.167,0.000,-81.500,527.000,-62.500
1.168,0.000,-82.000,527.500,-62.500
1.169,0.000,-81.500,528.000,-62.500
1.170,0.000,-81.500,528.500,-62.500
1.171,0.000,-81.500,529.000,-62.000
1.172,0.000,-81.000,529.500,-61.500
1.173,0.000,-80.500,529.000,-61.000
1.174,0.000,-80.000,528.500,-61.000
1.175,-0.500,-80.000,528.000,-61.000
1.176,-0.500,-80.000,528.000,-61.000
1.177,-0.500,-80.000,528.000,-61.500
1.178,-0.500,-80.000,528.500,-62.000
1.179,-0.500,-80.000,529.500,-62.000
1.180,0.000,-80.000,530.500,-61.500
1.181,0.000,-79.000,531.000,-61.000
1.182,0.500,-78.500,531.000,-60.500
1.183,0.500,-77.500,530.000,-60.000
1.184,0.500,-77.000,529.500,-59.500
1.185,0.500,-77.000,529.000,-59.500
1.186,0.000,-77.000,529.500,-59.500
1.187,0.000,-77.000,530.500,-59.000
1.188,0.000,-77.000,532.000,-58.500
1.189,0.000,-76.500,534.000,-58.000
1.190,0.000,-76.500,535.500,-57.500
1.191,0.000,-76.000,536.000,-56.500
1.192,-0.500,-76.000,535.500,-56.500
1.193,-0.500,-76.500,534.000,-56.000
1.194,-0.500,-77.000,531.000,-56.000
1.195,-0.500,-77.000,529.000,-56.000
1.196,-0.500,-77.500,527.000,-56.000
1.197,-0.500,-77.500,527.000,-55.500
1.198,-0.500,-77.500,527.000,-55.500
1.199,-0.500,-77.000,527.000,-55.500
1.200,-0.500,-77.000,526.000,-55.500
1.201,-0.500,-77.000,524.500,-55.500
1.202,-0.500,-77.000,524.000,-55.500
1.203,-0.500,-77.000,523.000,-55.500
1.204,-0.500,-77.000,523.000,-55.500
1.205,-0.500,-77.500,523.500,-55.500
1.206,-0.500,-77.500,525.000,-55.500
1.207,-0.500,-77.500,526.500,-55.500
1.208,-0.500,-77.500,527.500,-55.500
1.209,-0.500,-77.500,527.500,-55.500
1.210,-0.500,-77.500,527.000,-55.500
1.211,-1.000,-77.000,525.000,-55.000
1.212,-1.000,-77.000,522.000,-55.000
1.213,-0.500,-76.500,520.500,-54.500
1.214,-0.500,-76.500,519.500,-54.500
1.215,-0.500,-77.000,520.500,-54.500
1.216,0.000,-77.000,522.500,-54.500
1.217,0.000,-77.500,524.500,-54.500
1.218,0.000,-77.500,527.000,-54.500
1.219,-0.500,-77.500,529.000,-54.500
1.220,-0.500,-77.000,530.500,-54.500
1.221,-0.500,-77.000,530.500,-54.000
1.222,-0.500,-76.500,530.500,-54.000
1.223,-0.500,-76.500,529.500,-54.000
1.224,-0.500,-76.000,528.500,-53.500
1.225,-0.500,-75.500,527.500,-53.500
1.226,0.000,-75.000,527.000,-53.000
1.227,0.000,-74.500,526.500,-53.000
1.228,-0.500,-74.500,527.000,-52.500
1.229,-0.500,-74.500,527.500,-52.500
1.230,-0.500,-74.500,527.000,-52.500
1.231,-0.500,-74.500,525.000,-52.000
1.232,-0.500,-74.000,522.000,-52.000
1.233,-0.500,-74.000,519.000,-52.000
1.234,-0.500,-74.000,516.000,-52.000
1.235,-0.500,-73.500,513.500,-51.500
1.236,-0.500,-73.000,511.500,-51.500
1.237,0.000,-73.000,510.500,-52.000
1.238,0.000,-72.500,511.500,-52.000
1.239,0.000,-72.500,514.000,-52.000
1.240,0.000,-72.500,515.500,-52.000
1.241,0.000,-72.500,515.500,-52.000
1.242,0.000,-72.500,515.000,-51.000
1.243,0.000,-72.500,514.000,-50.500
1.244,0.000,-72.500,513.000,-50.500
1.245,0.000,-72.500,511.500,-50.000
1.246,0.000,-72.500,510.500,-50.500
1.247,0.000,-72.500,511.500,-50.500
1.248,0.000,-72.500,513.500,-50.500
1.249,0.000,-72.000,516.000,-50.500
1.250,0.000,-72.000,517.500,-50.000
1.251,-0.500,-71.500,517.000,-49.500
1.252,-0.500,-71.000,515.000,-49.000
1.253,-0.500,-70.500,512.500,-48.500
1.254,-0.500,-70.000,509.500,-48.500
1.255,-0.500,-70.000,507.500,-48.500
1.256,-0.500,-70.000,507.000,-49.000
1.257,-0.500,-70.000,508.000,-49.000
1.258,-0.500,-70.000,510.500,-49.500
1.259,-0.500,-70.500,513.500,-50.000
1.260,-0.500,-70.500,515.500,-50.500
1.261,-0.500,-70.500,516.500,-50.500
1.262,0.000,-70.500,517.500,-51.000
1.263,0.000,-70.500,518.000,-51.000
1.264,0.000,-70.500,518.500,-51.000
1.265,0.000,-70.000,519.000,-51.000
1.266,0.500,-70.000,519.000,-51.000
1.267,0.000,-70.000,518.500,-50.500
1.268,0.000,-70.000,516.500,-50.500
1.269,0.000,-70.500,514.000,-50.500
1.270,0.000,-70.500,512.000,-50.000
1.271,0.000,-70.500,510.500,-50.000
1.272,0.000,-70.500,509.000,-49.500
1.273,0.000,-70.500,507.500,-49.000
1.274,-0.500,-70.500,506.000,-48.500
1.275,-0.500,-70.500,505.000,-48.500
1.276,-0.500,-70.500,505.000,-49.000
1.277,-0.500,-70.500,505.000,-49.000
1.278,-0.500,-70.000,505.500,-49.000
1.279,-0.500,-69.500,506.000,-48.500
1.280,0.000,-69.000,507.000,-48.500
1.281,0.000,-69.000,509.000,-48.000
1.282,0.000,-68.500,511.000,-48.000
1.283,0.000,-67.500,512.000,-47.500
1.284,0.000,-67.000,512.500,-47.000
1.285,0.000,-66.500,511.000,-46.500
1.286,-0.500,-66.000,509.000,-46.500
1.287,-0.500,-66.000,506.500,-46.000
1.288,-0.500,-66.000,505.000,-45.500
1.289,-0.500,-66.500,505.500,-45.500
1.290,-0.500,-66.500,507.000,-45.000
1.291,-0.500,-66.500,509.000,-44.500
1.292,-0.500,-66.500,510.500,-44.000
1.293,-0.500,-66.000,511.500,-43.500
1.294,-0.500,-65.500,512.500,-43.000
1.295,-0.500,-65.000,514.000,-43.000
1.296,-0.500,-65.000,514.000,-43.000
1.297,-0.500,-65.000,512.000,-43.500
1.298,-0.500,-65.000,509.500,-43.500
1.299,0.000,-65.500,507.500,-43.500
1.300,0.000,-65.500,507.000,-43.500
1.301,0.000,-65.500,506.500,-43.000
1.302,0.000,-65.500,506.000,-43.000
1.303,0.000,-65.500,505.000,-43.000
1.304,0.000,-65.500,505.000,-43.000
1.305,0.000,-65.500,506.500,-43.000
1.306,0.000,-65.000,507.500,-43.000
1.307,0.000,-65.000,507.500,-42.500
1.308,0.000,-65.000,506.500,-42.500
1.309,0.000,-65.000,504.500,-42.500
1.310,0.000,-65.000,503.500,-42.500
1.311,-0.500,-65.000,504.000,-42.000
1.312,-0.500,-65.000,505.500,-42.000
1.313,0.000,-65.000,507.500,-42.000
1.314,0.000,-65.500,510.000,-42.000
1.315,0.000,-65.500,512.000,-42.000
1.316,0.000,-66.000,514.000,-42.500
1.317,0.000,-66.500,515.500,-42.500
1.318,0.500,-67.000,517.500,-43.500
1.319,0.500,-68.000,519.500,-44.500
1.320,0.500,-69.000,521.500,-45.500
1.321,0.000,-70.000,522.500,-47.000
1.322,0.000,-71.000,522.500,-48.500
1.323,0.000,-72.500,522.000,-50.500
1.324,-0.500,-74.500,521.000,-53.500
1.325,-0.500,-76.500,519.000,-57.000
1.326,0.000,-78.500,517.500,-60.000
1.327,0.000,-80.000,517.000,-62.000
1.328,0.000,-81.000,517.500,-62.500
1.329,0.000,-80.500,518.000,-62.500
1.330,0.000,-80.000,518.000,-61.500
1.331,0.000,-79.500,518.000,-60.500
1.332,-0.500,-78.000,517.000,-59.000
1.333,-0.500,-77.000,516.000,-57.500
1.334,-0.500,-75.500,514.500,-55.500
1.335,-0.500,-74.000,513.000,-53.500
1.336,-0.500,-72.500,512.500,-52.000
1.337,-0.500,-71.500,512.500,-50.000
1.338,-0.500,-70.500,514.000,-48.500
1.339,-0.500,-69.500,516.000,-47.500
1.340,-0.500,-68.500,517.500,-47.000
1.341,-0.500,-68.000,518.500,-46.500
1.342,-0.500,-68.000,518.500,-46.500
1.343,-0.500,-68.000,518.500,-46.500
1.344,-0.500,-68.000,518.500,-46.500
1.345,0.000,-68.000,518.500,-47.000
1.346,0.000,-68.500,518.000,-47.000
1.347,0.000,-68.500,517.000,-47.000
1.348,0.000,-68.500,515.500,-47.000
1.349,0.000,-69.000,514.000,-47.500
1.350,0.000,-69.000,513.500,-47.500
1.351,0.000,-69.500,512.500,-47.500
1.352,0.000,-69.500,511.500,-47.500
1.353,0.000,-70.000,510.000,-48.000
1.354,0.000,-70.000,508.500,-48.000
1.355,0.000,-70.000,507.000,-48.500
1.356,0.000,-69.500,506.500,-48.500
1.357,0.000,-69.500,507.000,-48.500
1.358,0.000,-69.000,508.500,-48.000
1.359,0.000,-68.500,510.000,-47.500
1.360,0.000,-67.500,510.500,-47.000
1.361,0.000,-67.000,510.500,-46.500
1.362,-0.500,-67.000,509.500,-46.000
1.363,-0.500,-66.500,508.500,-46.000
1.364,-0.500,-66.500,508.000,-46.000
1.365,-0.500,-66.000,508.500,-46.000
1.366,-0.500,-66.000,509.500,-46.000
1.367,0.000,-66.000,510.500,-46.000
1.368,0.000,-66.000,510.000,-46.000
1.369,0.000,-65.500,508.500,-46.000
1.370,0.000,-65.500,506.000,-45.500
1.371,-0.500,-65.000,503.500,-45.500
1.372,-0.500,-64.500,501.500,-45.000
1.373,-0.500,-64.500,500.500,-45.000
1.374,-0.500,-64.500,501.000,-45.000
1.375,-0.500,-64.500,502.000,-45.000
1.376,-0.500,-65.000,503.500,-45.000
1.377,-0.500,-66.000,504.500,-45.500
1.378,-0.500,-67.000,505.500,-46.500
1.379,-0.500,-68.000,504.500,-47.500
1.380,-0.500,-69.000,503.000,-48.500
1.381,-0.500,-70.000,501.000,-49.500
1.382,-0.500,-71.000,500.000,-51.500
1.383,-0.500,-72.500,501.000,-53.000
1.384,-0.500,-74.000,503.000,-55.500
1.385,-0.500,-75.500,506.000,-57.500
1.386,-0.500,-77.500,508.000,-60.000
1.387,-0.500,-79.500,509.000,-62.000
1.388,-0.500,-81.000,508.500,-64.000
1.389,-0.500,-82.000,507.500,-65.500
1.390,-0.500,-83.000,506.000,-66.500
1.391,-0.500,-84.000,505.500,-67.500
1.392,-0.500,-85.000,506.500,-68.500
1.393,-0.500,-85.000,508.000,-68.500
1.394,-0.500,-84.500,508.000,-68.000
1.395,-0.500,-84.000,506.500,-67.000
1.396,-0.500,-83.000,504.500,-66.000
1.397,-0.500,-82.000,502.000,-64.500
1.398,-0.500,-81.000,498.500,-63.000
1.399,-0.500,-79.500,495.500,-61.500
1.400,-0.500,-77.500,493.500,-59.500
1.401,-0.500,-75.500,493.000,-57.000
1.402,-0.500,-73.000,493.500,-54.000
1.403,-0.500,-70.000,495.000,-50.500
1.404,-0.500,-67.000,496.500,-46.500
1.405,-0.500,-63.500,498.500,-42.000
1.406,-0.500,-59.500,500.500,-37.000
1.407,-0.500,-55.000,502.500,-32.000
1.408,-0.500,-50.500,503.500,-26.500
1.409,-0.500,-46.000,504.500,-21.000
1.410,-0.500,-41.500,506.500,-16.500
1.411,-0.500,-37.500,508.000,-11.500
1.412,-0.500,-33.500,509.000,-7.000
1.413,-0.500,-30.000,508.000,-2.500
1.414,0.000,-26.500,506.500,2.000
1.415,0.000,-23.500,504.500,5.500
1.416,0.000,-20.500,502.500,9.500
1.417,0.000,-17.000,500.500,13.000
1.418,0.000,-13.500,499.000,17.000
1.419,-0.500,-9.500,497.500,20.500
1.420,-0.500,-6.000,496.000,24.000
1.421,-0.500,-3.500,494.500,26.500
1.422,-0.500,-2.000,493.500,28.000
1.423,-0.500,-1.000,492.000,29.000
1.424,-0.500,-0.500,491.000,29.000
1.425,-0.500,-0.500,489.000,28.500
1.426,-0.500,-1.500,487.000,27.000
1.427,-0.500,-3.500,485.500,24.500
1.428,-0.500,-6.000,484.500,21.000
1.429,-0.500,-9.000,484.500,17.000
1.430,-0.500,-12.500,485.000,12.500
1.431,-0.500,-16.500,486.500,7.500
1.432,-0.500,-20.000,487.500,3.500
1.433,-0.500,-24.000,489.000,-1.000
1.434,-0.500,-27.500,489.000,-4.500
1.435,-0.500,-30.500,488.500,-8.500
1.436,-0.500,-34.000,487.500,-12.000
1.437,-0.500,-36.500,487.000,-15.000
1.438,-0.500,-39.000,487.500,-17.500
1.439,-0.500,-41.000,488.500,-20.000
1.440,-0.500,-43.000,489.500,-22.500
1.441,-0.500,-45.500,490.500,-25.500
1.442,-0.500,-47.500,491.500,-28.000
1.443,0.000,-50.000,493.000,-31.000
1.444,0.000,-52.000,494.500,-34.500
1.445,0.000,-54.000,495.500,-37.500
1.446,0.000,-56.000,496.500,-40.000
1.447,0.000,-58.000,496.500,-42.000
1.448,0.000,-59.500,496.000,-43.500
1.449,0.000,-61.000,495.500,-45.000
1.450,0.000,-62.000,495.000,-46.000
1.451,0.000,-63.000,495.500,-47.000
1.452,0.000,-64.000,495.500,-48.000
1.453,-0.500,-65.000,496.000,-49.000
1.454,-0.500,-65.500,496.000,-49.500
1.455,0.000,-66.000,496.500,-50.000
1.456,0.000,-66.000,496.500,-50.000
1.457,0.000,-66.500,495.500,-50.500
1.458,0.000,-67.000,493.500,-50.500
1.459,0.500,-67.000,491.500,-50.500
1.460,0.500,-67.500,491.000,-50.500
1.461,0.000,-67.500,491.000,-50.500
1.462,0.000,-68.000,491.000,-50.500
1.463,0.000,-68.000,491.000,-50.500
1.464,0.000,-68.500,490.500,-50.500
1.465,0.000,-69.000,490.000,-51.000
1.466,-0.500,-69.000,488.500,-51.500
1.467,-0.500,-69.500,486.500,-52.000
1.468,-0.500,-69.500,484.500,-52.000
1.469,-0.500,-69.000,483.500,-52.500
1.470,-0.500,-69.000,484.500,-52.500
1.471,-0.500,-69.000,485.500,-53.000
1.472,-0.500,-69.000,486.000,-53.000
1.473,-0.500,-69.000,485.500,-53.000
1.474,-0.500,-69.000,484.500,-53.500
1.475,0.000,-69.000,484.000,-53.500
1.476,0.000,-69.500,483.000,-54.000
1.477,0.000,-69.500,481.500,-54.000
1.478,0.000,-69.500,480.000,-54.000
1.479,-0.500,-70.000,480.000,-54.500
1.480,-0.500,-70.000,482.000,-55.000
1.481,-0.500,-70.500,484.500,-55.000
1.482,-0.500,-70.500,487.500,-55.500
1.483,-0.500,-70.500,490.000,-55.500
1.484,-0.500,-71.000,492.000,-56.000
1.485,-0.500,-71.000,493.500,-56.000
1.486,-0.500,-71.500,496.000,-56.500
1.487,-0.500,-71.500,498.000,-56.500
1.488,-0.500,-72.000,500.000,-57.000
1.489,-0.500,-72.500,500.000,-57.000
1.490,-0.500,-72.500,498.500,-57.500
1.491,-0.500,-72.500,496.000,-57.500
1.492,-0.500,-72.500,493.000,-57.500
1.493,-0.500,-72.500,492.000,-57.500
1.494,-0.500,-72.500,491.500,-57.500
1.495,0.000,-72.500,491.500,-57.500
1.496,0.000,-72.500,492.000,-58.000
1.497,0.000,-73.000,492.500,-58.500
1.498,0.000,-73.500,493.500,-59.500
1.499,0.000,-74.000,494.000,-60.000
1.500,0.000,-74.500,494.000,-60.500
1.501,0.000,-75.000,493.500,-61.000
1.502,0.000,-75.000,492.000,-61.000
1.503,0.000,-75.000,489.500,-61.500
1.504,0.000,-75.500,487.000,-61.500
1.505,-0.500,-75.500,485.500,-61.500
1.506,-0.500,-75.500,484.500,-62.000
1.507,-0.500,-75.500,484.000,-62.000
1.508,-0.500,-76.000,483.500,-62.000
1.509,-0.500,-76.000,483.000,-62.000
1.510,-0.500,-76.000,484.000,-62.000
1.511,0.000,-75.500,485.500,-61.500
1.512,0.000,-75.500,487.000,-61.500
1.513,0.000,-75.000,488.500,-61.500
1.514,0.000,-74.500,489.500,-61.000
1.515,-0.500,-74.000,490.000,-61.000
1.516,-0.500,-73.500,490.000,-60.500
1.517,-0.500,-73.500,490.000,-60.500
1.518,-0.500,-73.000,490.000,-60.000
1.519,-0.500,-73.000,489.500,-60.000
1.520,-0.500,-73.500,488.500,-60.000
1.521,-0.500,-73.500,487.500,-60.500
1.522,-0.500,-74.000,487.500,-60.500
1.523,-0.500,-74.000,487.500,-61.000
1.524,-0.500,-74.000,487.500,-61.500
1.525,-0.500,-74.500,488.000,-61.500
1.526,-0.500,-74.500,489.000,-62.000
1.527,-0.500,-75.000,490.500,-62.500
1.528,-0.500,-75.000,492.000,-62.500
1.529,-0.500,-75.500,492.500,-62.500
1.530,-0.500,-75.000,492.500,-62.500
1.531,-0.500,-75.000,492.500,-62.500
1.532,-0.500,-74.500,492.000,-62.000
1.533,-0.500,-74.000,492.000,-61.500
1.534,-0.500,-73.500,492.000,-61.000
1.535,-0.500,-73.000,492.000,-60.500
1.536,-0.500,-73.000,492.000,-60.500
1.537,-0.500,-73.500,491.000,-61.000
1.538,-0.500,-73.500,489.500,-61.000
1.539,-0.500,-74.000,487.500,-61.500
1.540,-0.500,-74.000,486.000,-61.500
1.541,-0.500,-74.000,485.500,-62.000
1.542,-1.000,-74.000,486.000,-62.500
1.543,-1.000,-74.000,487.500,-63.000
1.544,-1.000,-74.000,489.000,-63.500
1.545,-0.500,-74.000,490.000,-63.500
1.546,-0.500,-74.000,489.500,-64.000
1.547,-0.500,-74.000,488.500,-64.000
1.548,-0.500,-74.000,487.000,-64.000
1.549,-0.500,-74.000,487.000,-63.500
1.550,-0.500,-73.500,487.000,-63.000
1.551,-0.500,-73.000,488.000,-63.000
1.552,-0.500,-73.000,489.500,-62.500
1.553,-0.500,-72.500,491.500,-62.500
1.554,-0.500,-72.500,493.500,-62.500
1.555,-0.500,-72.000,494.500,-62.500
1.556,-0.500,-72.000,495.000,-63.000
1.557,-0.500,-72.000,494.500,-63.500
1.558,-1.000,-72.500,493.000,-64.000
1.559,-0.500,-73.000,492.000,-64.500
1.560,-0.500,-73.500,491.500,-65.000
1.561,-0.500,-74.000,491.500,-65.500
1.562,0.000,-74.000,492.500,-66.000
1.563,0.000,-74.000,493.500,-66.000
1.564,0.500,-74.000,494.500,-66.500
1.565,0.500,-74.500,494.500,-66.500
1.566,0.500,-74.500,494.500,-67.000
1.567,0.000,-75.000,493.000,-67.000
1.568,0.000,-75.500,491.000,-67.500
1.569,0.000,-76.000,488.500,-67.500
1.570,-0.500,-76.000,486.000,-68.000
1.571,-0.500,-76.000,484.000,-68.000
1.572,-0.500,-76.000,481.500,-68.000
1.573,-0.500,-76.000,479.000,-68.000
1.574,-0.500,-76.000,476.000,-68.000
1.575,0.000,-76.000,474.000,-68.000
1.576,0.000,-76.000,473.500,-68.000
1.577,0.000,-75.500,474.500,-68.500
1.578,0.000,-75.500,476.500,-68.500
1.579,0.000,-75.500,479.000,-68.500
1.580,-0.500,-75.500,481.500,-68.500
1.581,-0.500,-75.000,483.000,-68.500
1.582,-0.500,-75.000,483.500,-68.500
1.583,-0.500,-75.000,483.500,-68.500
1.584,-0.500,-75.500,483.500,-69.000
1.585,-0.500,-75.500,483.500,-69.000
1.586,-0.500,-75.500,483.500,-69.000
1.587,-0.500,-75.500,483.000,-69.000
1.588,-0.500,-75.500,483.000,-69.500
1.589,-0.500,-75.500,482.500,-69.500
1.590,-0.500,-75.500,482.500,-69.500
1.591,-0.500,-75.500,483.000,-69.500
1.592,-0.500,-75.500,484.000,-69.500
1.593,-0.500,-75.000,485.000,-69.500
1.594,-0.500,-75.000,486.000,-69.000
1.595,-0.500,-74.500,486.000,-69.000
1.596,-0.500,-74.500,485.500,-69.000
1.597,-0.500,-74.500,485.000,-69.000
1.598,-0.500,-74.500,485.000,-69.500
1.599,-0.500,-74.500,485.000,-70.000
1.600,-0.500,-75.000,485.000,-70.000
1.601,-0.500,-75.500,485.000,-70.000
1.602,-0.500,-75.500,485.000,-69.500
1.603,-0.500,-75.500,484.500,-69.500
1.604,-0.500,-75.500,484.500,-69.000
1.605,-0.500,-75.500,485.000,-69.000
1.606,-0.500,-75.500,486.500,-69.000
1.607,-0.500,-76.000,488.000,-69.500
1.608,-0.500,-76.000,489.000,-69.500
1.609,-0.500,-76.000,489.000,-70.000
1.610,0.000,-76.000,489.000,-70.500
1.611,0.000,-76.500,488.500,-70.500
1.612,0.000,-76.500,488.000,-71.000
1.613,0.000,-76.500,487.500,-71.000
1.614,0.000,-76.000,486.500,-71.000
1.615,-0.500,-76.000,485.000,-71.000
1.616,-0.500,-76.000,483.500,-71.000
1.617,-0.500,-75.500,482.500,-71.000
1.618,0.000,-75.500,482.000,-71.000
1.619,0.000,-75.500,482.000,-71.000
1.620,0.000,-75.500,482.000,-71.000
1.621,0.000,-75.000,482.000,-71.000
1.622,0.000,-75.000,482.500,-71.000
1.623,0.000,-75.000,483.500,-71.500
1.624,0.000,-75.000,484.500,-72.000
1.625,0.000,-75.500,486.000,-72.500
1.626,0.000,-75.500,488.000,-73.000
1.627,-0.500,-76.000,490.500,-73.500
1.628,-0.500,-76.000,493.500,-73.500
1.629,-0.500,-76.500,495.500,-74.000
1.630,-0.500,-77.000,496.000,-74.500
1.631,-0.500,-77.000,495.000,-74.500
1.632,-0.500,-77.500,494.500,-74.500
1.633,-0.500,-77.500,494.000,-74.500
1.634,-0.500,-77.500,494.500,-74.500
1.635,-0.500,-77.500,495.500,-74.000
1.636,-0.500,-77.000,496.500,-73.500
1.637,-0.500,-77.000,497.500,-73.500
1.638,-0.500,-76.500,498.000,-73.000
1.639,-0.500,-76.500,497.500,-73.000
1.640,-0.500,-76.000,496.500,-73.000
1.641,-0.500,-75.500,494.500,-73.000
1.642,-0.500,-75.500,493.500,-73.000
1.643,-0.500,-75.500,493.500,-73.000
1.644,-0.500,-75.500,494.500,-73.000
1.645,-0.500,-75.500,496.500,-73.500
1.646,-0.500,-75.500,498.000,-73.500
1.647,-0.500,-75.000,499.500,-73.500
1.648,-0.500,-75.000,500.000,-73.000
1.649,-0.500,-75.000,501.000,-73.000
1.650,-0.500,-74.500,502.000,-73.000
1.651,-0.500,-74.500,502.000,-73.000
1.652,-1.000,-74.500,500.500,-72.500
1.653,-1.000,-74.500,498.000,-72.500
1.654,-1.000,-74.000,495.500,-72.000
1.655,-0.500,-74.000,493.500,-71.500
1.656,-0.500,-73.500,492.000,-71.000
1.657,-0.500,-73.500,491.500,-70.500
1.658,-0.500,-73.000,491.000,-70.500
1.659,-0.500,-73.000,491.000,-70.000
1.660,0.000,-73.000,490.000,-70.000
1.661,0.000,-72.500,489.000,-70.000
1.662,0.000,-72.500,488.000,-70.000
1.663,0.000,-72.500,487.000,-70.000
1.664,0.000,-72.500,487.500,-70.000
1.665,-0.500,-73.000,488.500,-70.000
1.666,-0.500,-73.000,489.500,-70.000
1.667,-0.500,-73.000,490.500,-70.000
1.668,-0.500,-73.000,491.000,-69.500
1.669,-0.500,-73.000,490.500,-69.500
1.670,-0.500,-73.000,489.500,-70.000
1.671,-0.500,-73.500,488.500,-71.500
1.672,-0.500,-75.000,487.000,-73.500
1.673,-0.500,-77.000,485.000,-76.500
1.674,-0.500,-79.500,482.500,-80.000
1.675,-0.500,-82.000,480.500,-84.000
1.676,-0.500,-84.500,478.500,-87.500
1.677,-0.500,-86.000,477.500,-90.000
1.678,-0.500,-87.000,477.000,-92.000
1.679,-0.500,-87.500,477.000,-92.500
1.680,-0.500,-87.000,477.000,-92.000
1.681,-0.500,-86.500,476.500,-91.500
1.682,-0.500,-85.500,475.500,-90.500
1.683,-0.500,-84.000,475.000,-89.000
1.684,-0.500,-82.500,475.000,-87.500
1.685,0.000,-81.500,475.500,-86.000
1.686,0.000,-80.500,476.000,-84.000
1.687,0.000,-79.500,476.500,-82.500
1.688,0.000,-79.000,476.500,-81.500
1.689,-0.500,-78.500,476.500,-80.500
1.690,-0.500,-78.000,477.000,-79.500
1.691,-0.500,-77.500,477.500,-79.000
1.692,-0.500,-77.000,479.000,-79.000
1.693,-0.500,-77.000,480.500,-78.500
1.694,-0.500,-76.500,481.500,-78.500
1.695,-0.500,-76.500,482.000,-78.500
1.696,-0.500,-76.500,482.000,-78.500
1.697,-0.500,-76.500,481.500,-78.500
1.698,-0.500,-76.500,481.000,-79.000
1.699,-0.500,-77.000,479.500,-79.500
1.700,0.000,-77.500,478.500,-80.000
1.701,0.000,-78.000,477.500,-80.500
1.702,0.000,-78.500,476.500,-81.500
1.703,0.000,-78.500,476.000,-82.500
1.704,0.000,-79.000,476.000,-83.000
1.705,0.000,-79.500,477.000,-83.500
1.706,0.000,-80.000,478.000,-84.000
1.707,0.000,-80.000,480.000,-84.500
1.708,0.000,-80.500,482.000,-85.000
1.709,-0.500,-81.000,483.500,-85.000
1.710,-0.500,-81.500,484.000,-85.500
1.711,-0.500,-81.500,484.500,-86.000
1.712,-0.500,-82.000,484.500,-86.500
1.713,-0.500,-82.500,484.500,-87.500
1.714,-0.500,-83.000,484.000,-88.500
1.715,-0.500,-84.000,483.000,-89.000
1.716,-0.500,-84.500,480.500,-90.000
1.717,-0.500,-85.500,478.500,-91.000
1.718,-0.500,-86.000,477.000,-91.500
1.719,-0.500,-86.500,477.000,-92.000
1.720,-0.500,-86.500,477.000,-92.500
1.721,0.000,-87.000,476.000,-93.000
1.722,0.000,-87.500,474.500,-93.000
1.723,0.000,-88.000,472.500,-93.500
1.724,0.000,-88.000,470.500,-93.500
1.725,-0.500,-88.500,469.000,-94.500
1.726,-0.500,-89.000,468.500,-95.000
1.727,-0.500,-89.500,469.000,-95.500
1.728,-0.500,-90.000,470.000,-96.000
1.729,-0.500,-90.000,472.000,-96.500
1.730,-0.500,-90.000,474.500,-97.000
1.731,-0.500,-90.500,477.000,-97.500
1.732,-0.500,-91.000,478.500,-97.500
1.733,-0.500,-91.000,479.000,-98.000
1.734,-0.500,-91.500,479.500,-98.500
1.735,-0.500,-92.000,479.000,-98.500
1.736,-0.500,-92.500,477.500,-98.500
1.737,-0.500,-92.500,475.000,-99.000
1.738,-0.500,-92.500,472.500,-99.000
1.739,-0.500,-93.000,470.500,-99.500
1.740,-0.500,-93.000,471.000,-99.500
1.741,-0.500,-93.000,472.500,-99.500
1.742,-0.500,-93.000,474.500,-100.000
1.743,0.000,-93.000,475.500,-100.000
1.744,0.000,-93.000,476.000,-100.500
1.745,0.000,-92.500,475.500,-100.500
1.746,0.000,-92.000,474.500,-100.500
1.747,0.000,-92.000,473.500,-100.500
1.748,0.000,-92.000,472.500,-100.500
1.749,-0.500,-92.000,471.500,-101.000
1.750,-0.500,-93.000,470.000,-101.500
1.751,-0.500,-94.500,468.500,-102.000
1.752,-0.500,-95.500,467.000,-102.500
1.753,-0.500,-96.000,465.500,-102.500
1.754,-0.500,-96.500,465.000,-102.500
1.755,-0.500,-96.500,465.000,-102.500
1.756,0.000,-96.000,465.500,-102.500
1.757,0.000,-96.000,467.000,-102.500
1.758,0.000,-95.500,469.000,-103.000
1.759,0.000,-95.500,470.500,-103.000
1.760,0.000,-95.500,471.500,-103.000
1.761,0.000,-95.000,471.500,-103.000
1.762,0.000,-94.500,471.000,-103.000
1.763,0.000,-94.500,470.000,-103.000
1.764,0.000,-94.500,469.000,-103.000
1.765,0.000,-94.500,468.500,-103.000
1.766,-0.500,-94.500,468.000,-103.000
1.767,-0.500,-95.000,468.500,-103.000
1.768,-0.500,-95.000,469.000,-103.500
1.769,-0.500,-95.000,469.500,-103.500
1.770,-0.500,-95.500,469.500,-104.000
1.771,-0.500,-95.500,470.000,-104.500
1.772,0.000,-96.000,471.000,-105.000
1.773,0.000,-96.500,472.000,-105.500
1.774,0.500,-97.000,472.000,-106.000
1.775,0.500,-97.000,471.500,-106.000
1.776,0.500,-97.500,470.500,-106.500
1.777,0.500,-98.000,470.500,-107.000
1.778,0.500,-98.500,471.500,-107.500
1.779,0.000,-99.000,473.000,-107.500
1.780,0.000,-99.500,475.000,-108.000
1.781,-0.500,-100.000,476.000,-108.500
1.782,-0.500,-100.000,476.000,-108.500
1.783,-0.500,-99.500,475.500,-109.000
1.784,-0.500,-99.000,475.000,-109.000
1.785,0.000,-99.000,475.000,-108.500
1.786,0.000,-98.500,475.500,-108.500
1.787,0.000,-98.500,476.000,-108.500
1.788,0.000,-98.000,476.500,-108.500
1.789,-0.500,-98.000,476.000,-108.500
1.790,-0.500,-97.500,476.000,-108.500
1.791,-0.500,-97.500,476.000,-109.000
1.792,-0.500,-98.000,476.500,-109.500
1.793,-0.500,-98.000,477.500,-109.500
1.794,-0.500,-98.500,479.000,-110.000
1.795,-0.500,-99.000,480.500,-110.000
1.796,-0.500,-99.000,481.000,-110.500
1.797,-0.500,-99.500,481.000,-111.000
1.798,-0.500,-100.000,480.000,-111.500
1.799,-0.500,-100.500,478.500,-112.000
1.800,-0.500,-101.000,477.500,-112.500
1.801,-0.500,-101.000,477.000,-113.000
1.802,0.000,-101.500,476.500,-113.500
1.803,0.000,-101.500,476.500,-113.500
1.804,0.000,-102.000,477.000,-114.000
1.805,0.000,-102.000,477.500,-114.000
1.806,-0.500,-102.000,478.000,-114.500
1.807,-0.500,-102.500,478.000,-114.500
1.808,-0.500,-102.500,477.500,-115.000
1.809,-0.500,-103.000,476.500,-115.500
1.810,-0.500,-103.000,476.000,-116.000
1.811,-0.500,-103.000,476.500,-116.000
1.812,-0.500,-103.000,477.000,-116.000
1.813,-0.500,-102.500,477.500,-116.000
1.814,-0.500,-102.500,476.500,-116.500
1.815,-0.500,-102.500,474.500,-116.500
1.816,-0.500,-102.500,472.500,-116.500
1.817,-0.500,-102.500,470.500,-116.500
1.818,-0.500,-102.500,469.500,-116.000
1.819,-0.500,-102.500,469.500,-116.000
1.820,-0.500,-103.000,469.000,-116.000
1.821,-0.500,-103.000,468.000,-116.500
1.822,-0.500,-103.000,467.500,-116.500
1.823,-0.500,-103.000,467.000,-117.000
1.824,-0.500,-103.000,466.500,-117.000
1.825,0.000,-103.000,466.000,-117.000
1.826,-0.500,-103.000,465.500,-117.500
1.827,-0.500,-103.500,466.000,-117.500
1.828,-0.500,-103.500,467.000,-118.000
1.829,-0.500,-104.000,468.000,-118.500
1.830,-0.500,-104.000,469.000,-119.000
1.831,-0.500,-104.000,470.500,-119.000
1.832,-0.500,-104.000,472.000,-119.500
1.833,-0.500,-104.000,473.500,-119.500
1.834,-0.500,-103.500,474.500,-119.500
1.835,-0.500,-103.000,475.500,-119.500
1.836,0.000,-103.000,476.000,-119.500
1.837,0.000,-103.000,477.000,-119.500
1.838,0.000,-103.500,477.000,-119.500
1.839,0.000,-104.000,476.500,-120.000
1.840,0.000,-104.500,475.000,-120.000
1.841,0.000,-104.500,472.500,-120.500
1.842,0.000,-105.000,470.500,-121.000
1.843,0.000,-105.000,469.500,-121.500
1.844,0.000,-105.000,469.000,-122.000
1.845,-0.500,-105.000,469.000,-122.500
1.846,-0.500,-105.000,469.500,-122.500
1.847,-0.500,-105.000,470.000,-123.000
1.848,-0.500,-105.000,471.000,-123.000
1.849,-0.500,-105.000,472.500,-123.000
1.850,-0.500,-104.500,473.500,-123.000
1.851,-0.500,-104.500,473.500,-123.000
1.852,-0.500,-104.500,471.000,-123.000
1.853,-0.500,-104.500,467.500,-123.000
1.854,-0.500,-104.500,463.000,-123.500
1.855,-0.500,-104.500,460.000,-123.500
1.856,-1.000,-104.500,459.000,-123.500
1.857,-1.000,-104.500,459.500,-123.000
1.858,-1.000,-104.000,460.500,-123.000
1.859,-1.000,-104.000,460.000,-123.000
1.860,-1.000,-104.000,459.500,-122.500
1.861,-0.500,-104.000,460.000,-122.500
1.862,-0.500,-103.500,462.000,-123.000
1.863,-0.500,-103.500,464.500,-123.000
1.864,-0.500,-104.000,466.500,-123.500
1.865,-0.500,-104.000,468.000,-124.000
1.866,-0.500,-104.500,467.500,-124.500
1.867,-0.500,-105.000,466.000,-125.000
1.868,-0.500,-105.000,465.000,-125.500
1.869,-0.500,-105.500,465.000,-126.000
1.870,-0.500,-106.500,465.000,-126.500
1.871,-0.500,-107.000,466.000,-127.000
1.872,-0.500,-107.000,467.000,-127.500
1.873,-0.500,-107.000,467.500,-127.500
1.874,-1.000,-107.000,467.500,-127.500
1.875,-1.000,-107.000,467.500,-127.500
1.876,-1.000,-107.000,468.000,-127.500
1.877,-0.500,-107.000,469.000,-127.500
1.878,-0.500,-106.500,470.000,-127.500
1.879,-0.500,-106.500,470.500,-127.500
1.880,-0.500,-106.500,471.500,-127.500
1.881,-0.500,-106.500,472.500,-127.500
1.882,-0.500,-106.000,473.500,-127.500
1.883,-0.500,-106.000,473.500,-128.000
1.884,-0.500,-106.000,473.000,-128.000
1.885,-0.500,-106.000,472.000,-128.500
1.886,-0.500,-106.000,472.000,-129.000
1.887,-0.500,-106.000,471.500,-129.500
1.888,-0.500,-106.500,471.000,-129.500
1.889,-0.500,-106.500,470.000,-129.500
1.890,-0.500,-107.000,469.000,-129.500
1.891,-0.500,-107.000,468.000,-129.500
1.892,0.000,-107.000,466.000,-129.500
1.893,-0.500,-107.000,464.000,-130.000
1.894,-0.500,-107.000,462.000,-130.000
1.895,-0.500,-107.000,461.000,-130.500
1.896,-0.500,-107.000,460.500,-131.000
1.897,-1.000,-107.000,461.000,-131.000
1.898,-1.000,-107.000,461.500,-131.500
1.899,-1.000,-107.000,462.000,-131.500
1.900,-0.500,-106.500,462.500,-132.000
1.901,-0.500,-106.500,464.000,-132.000
1.902,-0.500,-106.000,466.000,-132.000
1.903,-0.500,-105.500,468.000,-131.500
1.904,-0.500,-105.500,469.500,-131.500
1.905,-0.500,-105.500,469.000,-131.500
1.906,-0.500,-105.500,468.500,-131.500
1.907,-0.500,-106.000,468.000,-132.500
1.908,-0.500,-106.500,468.500,-133.000
1.909,-1.000,-107.000,469.000,-133.500
1.910,-1.000,-107.500,470.000,-133.500
1.911,-1.000,-107.500,470.000,-134.000
1.912,-1.000,-108.000,470.000,-134.000
1.913,-0.500,-108.000,470.000,-134.000
1.914,-0.500,-108.000,470.500,-134.500
1.915,-0.500,-108.500,471.500,-134.500
1.916,-0.500,-108.500,472.500,-135.000
1.917,-0.500,-108.500,473.000,-135.500
1.918,-0.500,-109.000,473.000,-136.000
1.919,-0.500,-109.500,473.000,-136.000
1.920,-0.500,-109.500,473.500,-136.000
1.921,-0.500,-109.500,474.500,-136.000
1.922,-0.500,-109.500,475.000,-135.500
1.923,-0.500,-109.000,474.500,-135.500
1.924,-0.500,-109.000,473.000,-135.000
1.925,-0.500,-108.500,471.500,-135.000
1.926,-0.500,-108.500,470.500,-135.500
1.927,-0.500,-109.000,469.500,-136.000
1.928,-0.500,-109.000,469.000,-136.000
1.929,-0.500,-109.500,468.000,-136.000
1.930,-0.500,-109.500,466.500,-136.000
1.931,-0.500,-109.500,465.500,-136.000
1.932,-0.500,-109.500,464.500,-136.000
1.933,-0.500,-109.000,463.500,-136.000
1.934,-1.000,-109.000,462.000,-136.000
1.935,-0.500,-109.000,461.500,-136.500
1.936,-0.500,-109.000,461.500,-136.500
1.937,-0.500,-109.500,462.500,-137.000
1.938,-0.500,-110.000,463.500,-137.500
1.939,-0.500,-110.500,465.000,-138.000
1.940,-1.000,-111.000,465.500,-138.500
1.941,-1.000,-111.500,466.000,-139.000
1.942,-0.500,-111.500,465.500,-139.000
1.943,-0.500,-111.500,465.500,-139.000
1.944,-0.500,-111.000,465.500,-138.500
1.945,-0.500,-111.000,465.500,-138.500
1.946,-0.500,-111.000,465.500,-138.500
1.947,-1.000,-111.000,465.500,-138.500
1.948,-1.000,-111.000,465.500,-138.500
1.949,-1.000,-111.000,466.500,-138.500
1.950,-1.000,-111.000,468.500,-138.500
1.951,-1.000,-111.500,471.000,-138.500
1.952,-1.000,-111.500,472.000,-138.500
1.953,-1.000,-111.500,471.500,-138.000
1.954,-0.500,-111.500,470.000,-138.000
1.955,-0.500,-112.000,468.000,-138.000
1.956,-0.500,-112.000,466.000,-138.500
1.957,-0.500,-112.500,465.500,-138.500
1.958,-0.500,-112.500,466.000,-138.500
1.959,-0.500,-112.500,467.500,-138.500
1.960,-0.500,-113.000,469.500,-139.000
1.961,-0.500,-113.000,472.000,-139.500
1.962,-0.500,-113.500,474.000,-140.500
1.963,-0.500,-114.000,475.000,-141.000
1.964,-0.500,-114.500,474.500,-141.000
1.965,-0.500,-114.500,472.500,-141.000
1.966,-0.500,-114.500,470.000,-141.000
1.967,-0.500,-114.500,467.500,-141.000
1.968,-0.500,-114.000,465.000,-141.000
1.969,-0.500,-114.000,463.500,-141.000
1.970,-0.500,-114.000,463.500,-141.000
1.971,-0.500,-114.000,465.000,-141.000
1.972,-0.500,-114.500,467.000,-141.500
1.973,-0.500,-114.500,467.500,-141.500
1.974,-0.500,-115.000,467.500,-141.500
1.975,-0.500,-115.500,467.500,-142.000
1.976,-0.500,-115.500,469.000,-142.500
1.977,-0.500,-116.000,471.500,-143.000
1.978,-0.500,-116.500,473.000,-143.000
1.979,-0.500,-117.000,473.000,-143.500
1.980,-0.500,-117.000,471.500,-143.500
1.981,-0.500,-116.500,468.500,-143.000
1.982,-0.500,-116.000,465.500,-143.000
1.983,-0.500,-116.000,463.500,-142.500
1.984,-0.500,-116.000,462.000,-142.500
1.985,-0.500,-116.000,462.500,-142.500
1.986,-0.500,-116.000,463.000,-142.500
1.987,-1.000,-116.500,464.000,-142.500
1.988,-1.000,-117.000,465.500,-143.000
1.989,-1.000,-117.500,466.000,-143.500
1.990,-1.000,-118.000,466.500,-143.500
1.991,-1.000,-118.000,467.000,-144.000
1.992,-1.000,-118.500,467.500,-144.500
1.993,-1.000,-119.000,467.000,-144.500
1.994,-1.000,-119.000,466.500,-144.000
1.995,-1.000,-119.500,465.500,-143.500
1.996,-1.000,-119.000,465.000,-143.000
1.997,-1.000,-119.000,464.500,-142.500
1.998,-1.000,-118.500,463.500,-142.500
1.999,-1.000,-118.500,462.500,-143.000
2.000,-1.000,-118.500,461.500,-143.500
2.001,-1.000,-119.000,460.500,-144.000
2.002,-1.000,-119.000,460.000,-144.500
2.003,-1.000,-119.000,459.000,-144.500
2.004,-0.500,-119.000,457.500,-144.000
2.005,-1.000,-118.500,457.000,-143.500
2.006,-1.000,-118.500,457.500,-143.500
2.007,-1.000,-118.000,458.500,-143.000
2.008,-1.000,-118.000,458.500,-142.500
2.009,-0.500,-118.500,457.000,-142.000
2.010,-0.500,-118.500,455.500,-142.000
2.011,-0.500,-119.000,455.500,-142.000
2.012,-0.500,-119.500,456.500,-142.000
2.013,-0.500,-120.500,457.500,-142.500
2.014,-0.500,-120.500,457.500,-142.500
2.015,-0.500,-121.000,456.500,-142.500
2.016,-0.500,-121.000,455.000,-143.000
2.017,-0.500,-121.500,455.000,-143.500
2.018,-0.500,-122.500,455.000,-145.000
2.019,-0.500,-123.500,455.000,-147.000
2.020,-0.500,-125.500,454.000,-149.500
2.021,-0.500,-127.500,453.000,-153.000
2.022,-0.500,-130.500,452.500,-157.000
2.023,-0.500,-133.000,453.000,-161.500
2.024,-0.500,-135.500,453.500,-165.000
2.025,-0.500,-137.000,453.500,-167.000
2.026,-0.500,-137.500,453.500,-168.000
2.027,-0.500,-137.500,453.000,-167.500
2.028,-0.500,-136.500,452.000,-166.500
2.029,-0.500,-135.500,451.000,-165.500
2.030,-0.500,-134.500,449.500,-164.000
2.031,-0.500,-133.500,448.500,-162.500
2.032,-0.500,-132.000,447.500,-160.500
2.033,-0.500,-131.000,447.500,-158.500
2.034,-0.500,-130.500,448.000,-157.000
2.035,-0.500,-129.500,449.000,-156.000
2.036,-0.500,-129.000,450.500,-155.000
2.037,-0.500,-129.000,452.000,-154.000
2.038,-0.500,-129.000,454.000,-154.000
2.039,-0.500,-129.000,456.000,-154.000
2.040,-0.500,-129.000,458.000,-154.000
2.041,-0.500,-129.000,458.500,-154.000
2.042,-0.500,-128.500,458.000,-153.500
2.043,-0.500,-128.500,457.000,-153.500
2.044,-0.500,-128.000,456.000,-153.000
2.045,-0.500,-127.500,455.500,-153.000
2.046,-0.500,-127.000,455.000,-153.000
2.047,-0.500,-127.000,454.500,-152.500
2.048,-0.500,-127.000,454.000,-152.500
2.049,-0.500,-127.000,454.500,-152.000
2.050,-0.500,-127.000,455.500,-152.000
2.051,-0.500,-127.000,456.500,-152.000
2.052,-0.500,-127.500,457.000,-152.500
2.053,-0.500,-127.500,457.000,-152.500
2.054,-0.500,-127.500,456.500,-152.500
2.055,0.000,-127.000,456.000,-152.000
2.056,0.000,-127.000,456.000,-152.000
2.057,0.000,-126.500,457.000,-151.500
2.058,0.000,-126.500,457.500,-151.500
2.059,0.000,-126.500,457.500,-151.500
2.060,0.000,-127.000,457.500,-151.500
2.061,0.000,-127.500,457.500,-151.500
2.062,0.000,-128.000,458.500,-152.000
2.063,-0.500,-128.500,460.000,-152.500
2.064,-0.500,-129.000,461.000,-152.500
2.065,-0.500,-129.500,462.000,-153.000
2.066,-1.000,-130.000,461.500,-153.500
2.067,-1.000,-130.500,461.000,-153.500
2.068,-1.000,-131.000,460.500,-153.500
2.069,-1.000,-131.000,460.500,-153.500
2.070,-0.500,-131.000,461.500,-153.000
2.071,-0.500,-131.000,463.000,-153.000
2.072,-0.500,-131.000,464.000,-153.000
2.073,-0.500,-131.000,464.000,-153.000
2.074,-0.500,-131.000,462.500,-153.000
2.075,-0.500,-131.000,459.500,-153.000
2.076,-1.000,-131.000,457.000,-153.000
2.077,-1.000,-131.000,455.000,-153.500
2.078,-0.500,-131.000,454.000,-153.500
2.079,-0.500,-131.500,454.000,-154.500
2.080,-0.500,-132.000,455.000,-155.000
2.081,-0.500,-132.500,456.000,-155.500
2.082,-0.500,-133.000,457.000,-156.500
2.083,-0.500,-133.000,458.500,-157.000
2.084,-0.500,-133.000,459.500,-157.500
2.085,-0.500,-133.500,459.500,-157.500
2.086,-0.500,-133.500,459.000,-157.500
2.087,-0.500,-133.500,459.000,-157.500
2.088,-0.500,-133.500,459.500,-157.500
2.089,-0.500,-133.500,460.500,-157.000
2.090,-0.500,-133.500,461.000,-157.000
2.091,0.000,-133.500,461.000,-157.000
2.092,0.000,-133.500,460.000,-157.000
2.093,-0.500,-133.500,459.000,-157.000
2.094,-0.500,-134.000,458.500,-157.000
2.095,-0.500,-134.000,458.500,-157.000
2.096,-0.500,-134.000,459.000,-157.500
2.097,-0.500,-134.000,459.000,-157.000
2.098,-1.000,-134.000,458.000,-157.000
2.099,-1.000,-134.500,456.000,-157.000
2.100,-1.000,-134.500,455.000,-157.500
2.101,-1.000,-135.000,454.500,-158.000
2.102,-1.000,-135.000,454.000,-158.500
2.103,-1.000,-135.500,453.000,-159.000
2.104,-0.500,-136.000,452.000,-159.500
2.105,-0.500,-136.000,451.500,-159.500
2.106,-0.500,-136.500,450.500,-159.500
2.107,-0.500,-136.500,450.000,-159.500
2.108,-0.500,-136.500,449.500,-160.000
2.109,-0.500,-137.000,450.000,-160.000
2.110,-0.500,-137.000,451.500,-160.500
2.111,-1.000,-137.000,453.000,-161.000
2.112,-1.000,-136.500,454.500,-161.000
2.113,-0.500,-136.000,456.000,-161.000
2.114,-0.500,-136.000,457.000,-161.000
2.115,-0.500,-135.500,457.500,-161.000
2.116,-0.500,-135.500,456.500,-161.000
2.117,-0.500,-135.500,454.500,-161.000
2.118,-0.500,-136.000,452.000,-161.000
2.119,-1.000,-136.000,450.000,-161.000
2.120,-1.000,-136.500,448.500,-161.500
2.121,-1.000,-136.500,447.500,-161.500
2.122,-0.500,-136.500,448.000,-162.500
2.123,-0.500,-137.000,448.500,-163.000
2.124,-0.500,-137.000,449.000,-163.000
2.125,-0.500,-137.500,449.500,-163.500
2.126,-0.500,-137.500,450.000,-163.500
2.127,-0.500,-138.000,450.500,-163.500
2.128,-0.500,-138.000,451.500,-163.500
2.129,-0.500,-138.000,452.500,-164.000
2.130,-0.500,-138.500,453.500,-164.000
2.131,-0.500,-138.500,453.500,-164.000
2.132,-0.500,-138.500,453.500,-163.500
2.133,-0.500,-138.500,453.500,-163.000
2.134,-0.500,-138.000,452.500,-162.500
2.135,-0.500,-138.000,451.000,-162.500
2.136,-0.500,-137.500,449.000,-162.500
2.137,-0.500,-137.500,447.500,-163.000
2.138,-0.500,-138.000,446.500,-163.500
2.139,-0.500,-138.000,446.000,-164.500
2.140,-0.500,-138.500,446.000,-165.000
2.141,-0.500,-139.000,446.500,-165.500
2.142,-0.500,-139.500,448.500,-165.500
2.143,-0.500,-140.000,451.000,-166.000
2.144,-1.000,-140.000,453.000,-166.000
2.145,-1.000,-140.500,454.500,-166.500
2.146,-1.000,-141.000,455.000,-167.000
2.147,-1.000,-142.000,454.000,-168.000
2.148,-0.500,-142.500,453.000,-168.500
2.149,-0.500,-143.000,452.000,-169.500
2.150,-0.500,-144.000,451.000,-170.000
2.151,-0.500,-145.000,450.000,-171.000
2.152,-0.500,-146.000,449.000,-172.000
2.153,-0.500,-147.000,448.500,-173.500
2.154,-0.500,-148.500,447.500,-175.000
2.155,-0.500,-150.000,446.500,-177.000
2.156,-0.500,-152.000,446.000,-179.000
2.157,-0.500,-154.000,446.000,-181.500
2.158,-0.500,-156.000,446.000,-184.000
2.159,-0.500,-158.500,447.000,-186.500
2.160,-0.500,-160.500,448.500,-188.500
2.161,-0.500,-162.000,449.000,-190.500
2.162,-0.500,-163.500,449.000,-192.000
2.163,-0.500,-164.000,447.500,-192.500
2.164,-0.500,-164.500,445.500,-192.500
2.165,-0.500,-164.000,443.500,-192.000
2.166,-0.500,-163.500,442.000,-191.000
2.167,0.000,-162.500,442.000,-189.500
2.168,0.000,-161.500,443.000,-188.000
2.169,0.000,-160.000,445.000,-186.000
2.170,0.000,-159.000,446.500,-184.000
2.171,0.000,-157.000,448.000,-181.500
2.172,-0.500,-154.500,448.000,-179.000
2.173,-0.500,-152.000,447.500,-175.000
2.174,-0.500,-148.500,447.000,-171.000
2.175,-0.500,-145.000,446.500,-166.000
2.176,-0.500,-141.000,446.000,-161.000
2.177,-0.500,-136.500,446.000,-156.000
2.178,-0.500,-132.500,446.000,-151.000
2.179,-0.500,-128.000,446.000,-146.000
2.180,-0.500,-124.000,446.500,-141.500
2.181,-0.500,-119.500,447.500,-136.500
2.182,-0.500,-115.500,448.500,-131.500
2.183,-0.500,-111.500,449.000,-126.500
2.184,-0.500,-108.000,448.500,-122.000
2.185,-0.500,-104.500,448.000,-118.000
2.186,-0.500,-101.500,447.000,-114.000
2.187,-0.500,-98.500,446.500,-110.500
2.188,-0.500,-95.500,446.500,-106.500
2.189,-1.000,-92.000,445.500,-103.000
2.190,-1.000,-88.000,444.500,-99.000
2.191,-1.000,-84.000,443.500,-95.000
2.192,-1.000,-81.000,442.500,-92.500
2.193,-1.000,-78.500,441.500,-90.500
2.194,-1.000,-76.500,439.500,-89.500
2.195,-1.000,-76.000,438.000,-89.000
2.196,-1.000,-76.000,437.000,-89.500
2.197,-1.000,-76.500,436.000,-90.500
2.198,-1.000,-78.500,436.000,-93.000
2.199,-1.000,-81.500,436.000,-96.000
2.200,-1.000,-85.000,435.500,-100.000
2.201,-1.000,-88.500,435.500,-105.000
2.202,-1.000,-92.500,435.500,-110.000
2.203,-1.000,-96.500,436.000,-115.000
2.204,-1.000,-100.000,437.500,-119.500
2.205,-1.000,-104.000,438.500,-124.000
2.206,-1.000,-107.500,439.000,-127.500
2.207,-1.000,-111.000,439.000,-131.000
2.208,-0.500,-114.000,438.000,-134.500
2.209,-0.500,-117.000,437.500,-137.500
2.210,-0.500,-119.500,437.000,-140.500
2.211,-0.500,-122.000,437.500,-143.500
2.212,-0.500,-124.500,437.500,-146.000
2.213,-0.500,-126.500,438.000,-148.500
2.214,-1.000,-129.000,439.500,-151.000
2.215,-1.000,-131.500,441.000,-154.000
2.216,-1.000,-134.000,442.500,-156.500
2.217,-0.500,-136.500,443.500,-159.000
2.218,-0.500,-138.000,443.500,-161.000
2.219,-1.000,-139.500,443.500,-162.000
2.220,-1.000,-140.500,443.000,-163.500
2.221,-1.000,-141.500,441.500,-164.500
2.222,-1.000,-143.000,440.000,-165.500
2.223,-0.500,-144.000,439.000,-167.000
2.224,-0.500,-145.500,439.000,-168.000
2.225,0.000,-146.500,439.500,-169.000
2.226,0.000,-147.500,441.500,-170.000
2.227,0.000,-148.500,443.000,-170.500
2.228,0.000,-149.000,444.000,-170.500
2.229,-0.500,-149.000,444.000,-170.500
2.230,-0.500,-149.500,443.000,-171.000
2.231,-0.500,-149.500,441.500,-171.000
2.232,-0.500,-149.500,440.000,-171.000
2.233,-0.500,-150.000,439.500,-171.000
2.234,-0.500,-150.500,439.500,-171.500
2.235,-0.500,-151.000,439.000,-171.500
2.236,-0.500,-151.500,438.500,-172.000
2.237,-0.500,-152.000,438.500,-172.500
2.238,-0.500,-152.500,438.000,-173.000
2.239,-0.500,-152.500,437.000,-173.500
2.240,-0.500,-153.000,435.000,-174.000
2.241,-0.500,-153.000,433.000,-174.500
2.242,-0.500,-153.000,432.000,-175.000
2.243,-0.500,-153.500,431.500,-175.500
2.244,-0.500,-153.500,431.500,-175.500
2.245,-1.000,-154.000,430.500,-176.000
2.246,-1.000,-154.000,430.000,-176.000
2.247,-0.500,-154.000,430.500,-176.000
2.248,-0.500,-154.000,432.000,-175.500
2.249,-0.500,-153.500,433.000,-175.500
2.250,0.000,-153.500,433.000,-175.500
2.251,0.000,-153.500,433.000,-175.500
2.252,0.500,-153.000,433.000,-175.000
2.253,0.500,-153.000,433.000,-175.000
2.254,0.000,-152.500,433.500,-175.000
2.255,0.000,-152.500,435.000,-175.000
2.256,0.000,-152.500,436.500,-175.000
2.257,0.000,-153.000,439.000,-175.000
2.258,0.000,-153.000,442.000,-175.000
2.259,0.000,-153.500,444.000,-175.500
2.260,0.000,-153.500,445.500,-176.000
2.261,0.000,-153.500,446.500,-176.500
2.262,0.000,-153.500,446.500,-177.000
2.263,0.000,-153.500,445.500,-177.500
2.264,0.000,-154.000,443.000,-177.500
2.265,0.000,-154.000,439.500,-177.500
2.266,0.000,-154.000,437.000,-177.500
2.267,0.000,-154.000,435.500,-177.500
2.268,0.000,-154.000,436.000,-177.000
2.269,-0.500,-154.000,438.000,-177.000
2.270,-0.500,-154.000,439.000,-176.500
2.271,-0.500,-154.000,439.500,-176.500
2.272,-1.000,-154.000,438.500,-177.000
2.273,-0.500,-154.500,437.500,-177.000
2.274,-0.500,-155.000,436.500,-177.500
2.275,-0.500,-155.000,436.000,-177.500
2.276,-0.500,-155.500,436.000,-177.500
2.277,-0.500,-155.500,435.500,-178.000
2.278,-0.500,-155.500,434.500,-178.000
2.279,-0.500,-155.500,433.500,-178.000
2.280,-0.500,-155.000,433.000,-178.000
2.281,-0.500,-155.000,433.500,-178.000
2.282,-0.500,-155.000,434.000,-178.000
2.283,-0.500,-155.500,434.500,-178.000
2.284,-0.500,-155.500,435.000,-178.000
2.285,-0.500,-155.500,436.000,-178.500
2.286,-0.500,-156.000,437.000,-178.500
2.287,-0.500,-156.000,437.000,-178.000
2.288,-0.500,-156.000,435.000,-178.000
2.289,-0.500,-156.000,431.500,-178.500
2.290,-0.500,-156.000,427.500,-178.500
2.291,-0.500,-156.000,424.000,-178.500
2.292,-0.500,-156.000,423.000,-178.500
2.293,-0.500,-156.000,424.000,-178.500
2.294,-0.500,-156.000,426.000,-179.000
2.295,-0.500,-156.000,429.000,-179.000
2.296,-0.500,-156.500,433.000,-179.000
2.297,-0.500,-156.500,436.000,-179.500
2.298,-0.500,-156.500,437.000,-179.500
2.299,-0.500,-156.500,436.000,-179.500
2.300,-0.500,-156.500,434.000,-180.000
2.301,-0.500,-156.500,433.000,-180.000
2.302,-1.000,-156.500,432.500,-179.500
2.303,-1.000,-156.500,432.000,-179.000
2.304,-1.000,-156.000,431.500,-178.500
2.305,-0.500,-156.000,431.500,-178.000
2.306,-0.500,-155.500,431.000,-177.500
2.307,-0.500,-155.500,431.500,-177.500
2.308,-0.500,-155.500,432.000,-178.000
2.309,-0.500,-156.000,432.500,-178.000
2.310,-0.500,-156.000,433.000,-178.500
2.311,-0.500,-156.000,433.000,-178.500
2.312,-0.500,-156.000,433.000,-178.500
2.313,0.000,-156.000,432.000,-178.500
2.314,-0.500,-156.000,431.000,-178.500
2.315,-0.500,-156.500,430.000,-178.500
2.316,-0.500,-156.500,429.000,-178.500
2.317,-1.000,-156.500,429.000,-178.500
2.318,-1.000,-156.000,429.000,-178.500
2.319,-1.000,-156.000,428.500,-178.500
2.320,-1.000,-156.000,428.000,-178.500
2.321,-1.000,-156.500,426.500,-179.000
2.322,-1.000,-157.000,425.000,-179.000
2.323,-1.000,-157.500,423.500,-179.500
2.324,-1.000,-157.500,423.000,-179.500
2.325,-1.000,-157.500,424.500,-179.500
2.326,-0.500,-157.000,427.000,-179.000
2.327,-0.500,-157.000,429.500,-179.000
2.328,-0.500,-156.500,430.000,-179.000
2.329,-0.500,-157.000,428.500,-179.500
2.330,-0.500,-157.000,425.500,-179.500
2.331,-0.500,-158.000,422.500,-180.000
2.332,-0.500,-158.500,420.500,-180.500
2.333,-0.500,-158.500,420.000,-181.000
2.334,-0.500,-158.500,421.000,-181.000
2.335,-0.500,-158.500,422.000,-181.000
2.336,-0.500,-158.000,423.000,-181.000
2.337,-0.500,-158.000,424.000,-181.000
2.338,0.000,-158.000,426.500,-181.000
2.339,0.000,-158.500,429.500,-181.000
2.340,-0.500,-158.500,432.000,-181.500
2.341,-0.500,-158.500,433.000,-181.500
2.342,-0.500,-159.000,432.500,-182.000
2.343,-0.500,-159.000,431.500,-182.500
2.344,-0.500,-159.500,430.000,-183.000
2.345,-0.500,-159.500,429.000,-183.000
2.346,-0.500,-159.000,428.500,-183.000
2.347,-0.500,-159.000,429.000,-182.500
2.348,-0.500,-158.500,429.500,-181.500
2.349,-0.500,-158.000,430.500,-181.000
2.350,-0.500,-157.500,432.000,-180.000
2.351,-0.500,-157.000,433.000,-179.500
2.352,-0.500,-156.500,433.500,-179.000
2.353,-0.500,-156.000,433.500,-178.500
2.354,-0.500,-155.500,432.500,-178.000
2.355,-0.500,-155.000,431.500,-177.500
2.356,-0.500,-154.500,429.500,-177.000
2.357,0.000,-154.500,428.500,-176.500
2.358,0.000,-154.500,428.500,-176.000
2.359,0.000,-154.500,429.000,-175.500
2.360,0.000,-154.500,430.000,-175.000
2.361,0.000,-154.000,430.500,-174.500
2.362,0.000,-154.000,431.000,-174.000
2.363,0.000,-154.000,431.000,-174.000
2.364,0.000,-154.000,431.000,-174.000
2.365,-0.500,-155.000,430.000,-175.500
2.366,-0.500,-156.500,429.000,-177.500
2.367,-0.500,-158.500,429.000,-180.500
2.368,-0.500,-161.000,428.500,-184.000
2.369,-0.500,-163.500,428.500,-188.000
2.370,-0.500,-166.000,428.000,-191.500
2.371,-1.000,-168.500,427.000,-194.000
2.372,-1.000,-169.500,426.000,-195.500
2.373,-1.000,-170.500,425.000,-196.000
2.374,-1.000,-170.500,424.500,-195.500
2.375,-1.000,-170.000,425.500,-195.000
2.376,-0.500,-169.000,427.500,-194.000
2.377,-0.500,-168.000,430.500,-192.500
2.378,-0.500,-166.500,432.500,-191.000
2.379,0.000,-165.000,432.500,-189.000
2.380,0.000,-163.000,431.000,-187.000
2.381,0.000,-162.000,428.500,-185.500
2.382,0.000,-160.500,427.500,-184.000
2.383,0.000,-159.500,428.000,-182.500
2.384,0.000,-159.000,429.000,-181.500
2.385,0.000,-158.500,429.500,-180.500
2.386,-0.500,-158.000,429.500,-179.500
2.387,-0.500,-158.000,429.000,-179.000
2.388,-0.500,-158.000,428.500,-178.500
2.389,-0.500,-157.500,428.000,-178.500
2.390,-0.500,-157.500,427.500,-178.000
2.391,-0.500,-157.000,426.500,-177.500
2.392,-0.500,-156.500,426.000,-177.000
2.393,-0.500,-156.000,426.500,-176.500
2.394,-0.500,-156.000,427.000,-176.500
2.395,-0.500,-155.500,428.000,-176.000
2.396,-0.500,-155.500,428.000,-176.000
2.397,-0.500,-155.500,427.500,-176.000
2.398,-0.500,-155.500,427.000,-176.500
2.399,-0.500,-155.500,428.000,-176.500
2.400,-0.500,-156.000,430.500,-176.500
2.401,-0.500,-155.500,433.500,-176.500
2.402,-0.500,-155.500,437.000,-176.500
2.403,-0.500,-155.500,439.500,-176.000
2.404,-0.500,-155.000,440.500,-176.000
2.405,-0.500,-155.000,440.000,-175.500
2.406,-0.500,-154.500,438.500,-175.500
2.407,-0.500,-154.500,435.500,-175.500
2.408,-0.500,-154.500,433.000,-175.000
2.409,-0.500,-154.000,431.000,-174.500
2.410,-0.500,-154.000,429.000,-174.500
2.411,-0.500,-154.000,427.500,-174.000
2.412,-1.000,-154.000,425.000,-173.500
2.413,-1.000,-153.500,423.500,-173.500
2.414,-1.000,-153.500,423.500,-173.500
2.415,-0.500,-154.000,426.000,-174.000
2.416,-0.500,-154.500,428.500,-174.000
2.417,-0.500,-154.500,429.500,-174.500
2.418,-0.500,-155.000,428.000,-174.500
2.419,-0.500,-155.500,425.000,-175.000
2.420,-0.500,-155.500,422.000,-175.500
2.421,-0.500,-155.500,420.000,-176.000
2.422,-0.500,-156.000,420.000,-176.500
2.423,-0.500,-156.000,422.000,-176.500
2.424,-0.500,-156.000,424.500,-176.500
2.425,-0.500,-156.000,426.500,-176.000
2.426,-0.500,-156.000,427.000,-176.000
2.427,-0.500,-155.500,428.000,-175.500
2.428,-0.500,-155.500,428.500,-175.000
2.429,-0.500,-156.000,429.500,-175.000
2.430,-0.500,-156.000,430.500,-174.500
2.431,-0.500,-156.000,431.500,-174.500
2.432,-0.500,-155.500,431.500,-174.000
2.433,-0.500,-155.000,431.000,-174.000
2.434,-0.500,-154.500,430.000,-173.500
2.435,-0.500,-153.500,429.500,-173.000
2.436,-0.500,-153.000,429.000,-173.000
2.437,-0.500,-153.000,429.000,-172.500
2.438,-0.500,-153.000,428.000,-172.500
2.439,-0.500,-153.000,427.500,-172.000
2.440,-0.500,-153.000,427.500,-172.000
2.441,-0.500,-153.500,428.500,-171.500
2.442,-0.500,-153.500,429.500,-171.500
2.443,-0.500,-154.000,430.500,-171.000
2.444,-0.500,-154.000,431.500,-171.000
2.445,-0.500,-154.000,432.500,-171.000
2.446,-0.500,-154.000,432.000,-170.500
2.447,-0.500,-153.500,431.500,-170.500
2.448,-1.000,-153.500,431.000,-170.500
2.449,-1.000,-153.500,430.000,-170.500
2.450,-1.000,-153.000,429.000,-170.500
2.451,-1.000,-153.000,427.000,-170.500
2.452,-1.000,-152.500,424.500,-170.500
2.453,-1.000,-152.500,422.500,-170.000
2.454,-0.500,-152.500,420.500,-170.000
2.455,-0.500,-152.500,419.500,-169.500
2.456,-1.000,-152.500,420.000,-169.500
2.457,-1.000,-152.000,421.000,-169.000
2.458,-1.000,-152.000,423.000,-168.500
2.459,-0.500,-152.000,424.500,-168.500
2.460,-0.500,-152.000,425.000,-168.500
2.461,-0.500,-152.000,425.000,-168.500
2.462,-0.500,-152.000,424.500,-168.500
2.463,-0.500,-152.000,423.500,-168.500
2.464,-0.500,-152.500,422.500,-169.000
2.465,-0.500,-152.500,423.500,-169.000
2.466,-0.500,-152.500,425.000,-169.000
2.467,-0.500,-152.500,426.500,-169.000
2.468,-0.500,-153.000,427.000,-169.000
2.469,-1.000,-153.000,425.500,-168.500
2.470,-0.500,-153.000,422.500,-168.500
2.471,-0.500,-153.000,419.500,-168.500
2.472,-0.500,-153.000,418.000,-169.000
2.473,-0.500,-153.000,417.000,-169.000
2.474,-0.500,-153.000,417.000,-169.500
2.475,-0.500,-153.500,418.000,-169.500
2.476,-0.500,-153.500,419.000,-170.000
2.477,-0.500,-153.500,419.500,-169.500
2.478,-0.500,-154.000,420.000,-169.500
2.479,-1.000,-154.000,421.000,-169.500
2.480,-1.000,-154.500,422.500,-169.500
2.481,-1.000,-155.000,424.500,-170.000
2.482,-0.500,-156.000,425.500,-170.500
2.483,-0.500,-156.500,425.500,-171.000
2.484,-0.500,-157.500,425.500,-172.000
2.485,-0.500,-158.000,425.000,-172.500
2.486,-0.500,-158.000,424.500,-173.000
2.487,-0.500,-158.500,424.500,-174.000
2.488,-0.500,-158.500,426.000,-174.500
2.489,-1.000,-158.500,428.000,-175.000
2.490,-1.000,-158.500,429.000,-175.000
2.491,-1.000,-159.000,430.000,-175.000
2.492,-1.000,-159.500,431.000,-175.500
2.493,-1.000,-160.000,431.000,-175.500
2.494,-1.000,-160.500,430.500,-176.000
2.495,-1.000,-161.000,429.000,-176.500
2.496,-1.000,-161.000,427.000,-176.500
2.497,-1.000,-161.000,424.500,-177.000
2.498,-1.000,-161.000,423.000,-177.500
2.499,-1.000,-161.000,421.500,-178.000
2.500,-1.000,-161.500,420.000,-178.000
2.501,-0.500,-162.000,419.000,-178.500
2.502,-0.500,-162.000,419.500,-179.000
2.503,-0.500,-162.500,421.000,-179.500
2.504,0.000,-163.000,421.500,-179.500
2.505,0.000,-163.000,421.500,-180.000
2.506,0.000,-163.500,420.500,-180.000
2.507,0.000,-163.500,419.500,-180.500
2.508,0.000,-163.500,420.000,-180.500
2.509,0.000,-163.500,421.500,-180.500
2.510,-0.500,-163.500,424.000,-180.500
2.511,-0.500,-163.500,426.000,-180.000
2.512,-0.500,-163.500,428.000,-180.000
2.513,-0.500,-163.500,429.000,-180.000
2.514,-0.500,-164.000,430.000,-180.000
2.515,-0.500,-164.500,430.500,-180.500
2.516,-0.500,-165.000,430.500,-181.000
2.517,-0.500,-165.500,430.000,-181.500
2.518,-0.500,-166.000,429.000,-182.000
2.519,-0.500,-166.000,428.000,-182.500
2.520,-0.500,-166.000,427.000,-183.000
2.521,-0.500,-166.000,426.000,-183.000
2.522,-0.500,-166.000,426.000,-183.000
2.523,-0.500,-166.000,426.500,-183.000
2.524,-0.500,-166.000,426.500,-183.000
2.525,-0.500,-166.000,425.500,-182.500
2.526,-0.500,-166.000,422.500,-182.000
2.527,-0.500,-166.000,419.500,-182.000
2.528,-0.500,-165.500,417.000,-181.500
2.529,-0.500,-165.500,414.500,-181.000
2.530,-0.500,-165.000,413.000,-181.000
2.531,-0.500,-165.000,412.500,-180.500
2.532,-0.500,-165.000,412.500,-180.500
2.533,-0.500,-165.500,412.500,-180.500
2.534,-0.500,-165.000,411.500,-180.500
2.535,-0.500,-165.000,411.000,-180.500
2.536,-0.500,-165.000,411.000,-180.500
2.537,-0.500,-164.500,411.500,-180.000
2.538,-0.500,-164.500,411.500,-179.500
2.539,-0.500,-164.500,411.500,-179.500
2.540,-0.500,-164.500,410.500,-179.500
2.541,-0.500,-164.500,409.500,-179.500
2.542,-0.500,-164.500,409.000,-179.500
2.543,-0.500,-164.500,409.500,-179.500
2.544,-0.500,-164.500,410.500,-179.500
2.545,-0.500,-164.500,413.000,-179.500
2.546,-0.500,-164.500,415.500,-179.500
2.547,-1.000,-164.500,417.000,-179.500
2.548,-1.000,-164.500,418.000,-179.500
2.549,-1.000,-164.500,418.500,-179.500
2.550,-1.000,-164.000,419.500,-179.500
2.551,-1.000,-164.000,420.500,-179.000
2.552,-1.000,-164.000,420.500,-178.500
2.553,-1.000,-163.500,420.000,-178.000
2.554,-1.000,-163.000,418.500,-178.000
2.555,-1.000,-162.500,417.000,-177.500
2.556,-0.500,-162.500,416.000,-177.500
2.557,-0.500,-162.000,415.000,-177.500
2.558,-0.500,-162.000,415.000,-177.500
2.559,-0.500,-162.500,416.000,-178.000
2.560,-0.500,-162.500,417.000,-178.500
2.561,-0.500,-163.000,417.500,-179.000
2.562,-0.500,-163.500,417.000,-179.500
2.563,-0.500,-164.000,416.000,-179.500
2.564,-0.500,-164.000,415.000,-179.500
2.565,-0.500,-164.000,413.500,-179.500
2.566,0.000,-164.000,411.500,-180.000
2.567,0.000,-164.000,409.000,-180.000
2.568,0.000,-164.000,406.500,-179.500
2.569,0.000,-164.000,405.000,-179.500
2.570,0.000,-163.500,404.000,-179.000
2.571,-0.500,-163.500,405.000,-179.000
2.572,-0.500,-163.500,406.500,-178.500
2.573,-0.500,-163.500,409.500,-178.500
2.574,-0.500,-163.500,413.000,-179.000
2.575,-0.500,-164.000,416.000,-179.000
2.576,-0.500,-164.000,418.000,-179.000
2.577,-0.500,-164.000,419.000,-179.000
2.578,-0.500,-164.000,418.500,-179.000
2.579,-0.500,-164.000,417.500,-179.000
2.580,-0.500,-164.000,417.500,-179.000
2.581,-0.500,-164.000,417.500,-179.000
2.582,-0.500,-164.000,418.000,-178.500
2.583,-1.000,-164.000,417.500,-178.500
2.584,-1.000,-163.500,417.000,-178.500
2.585,-1.000,-163.500,416.500,-178.000
2.586,-0.500,-163.000,416.500,-178.000
2.587,-0.500,-163.000,416.500,-178.500
2.588,-0.500,-163.500,417.000,-179.000
2.589,-0.500,-163.500,417.500,-179.500
2.590,-0.500,-164.000,418.000,-179.500
2.591,-0.500,-163.500,418.000,-179.500
2.592,-0.500,-163.000,417.000,-178.500
2.593,-0.500,-162.000,415.500,-177.500
2.594,-0.500,-161.000,414.000,-176.500
2.595,-0.500,-160.500,412.000,-176.000
2.596,-0.500,-160.000,411.000,-176.000
2.597,-1.000,-160.000,410.500,-176.000
2.598,-1.000,-160.000,411.000,-176.000
2.599,-1.000,-159.500,411.500,-176.500
2.600,-1.000,-159.500,412.000,-176.500
2.601,-1.000,-159.500,411.500,-176.500
2.602,-1.000,-159.000,410.500,-176.500
2.603,-1.000,-159.000,409.500,-176.500
2.604,-1.000,-158.500,409.500,-176.500
2.605,-1.000,-158.500,410.000,-176.000
2.606,-0.500,-158.000,412.000,-175.500
2.607,-0.500,-158.000,414.500,-175.500
2.608,-0.500,-158.500,416.500,-175.000
2.609,-0.500,-158.500,417.000,-175.500
2.610,-0.500,-159.000,416.000,-175.500
2.611,-0.500,-159.500,415.000,-176.000
2.612,-0.500,-159.500,414.000,-176.500
2.613,-0.500,-159.500,413.500,-177.000
2.614,-0.500,-160.000,412.500,-177.000
2.615,-0.500,-160.000,411.500,-176.500
2.616,-0.500,-159.500,410.500,-176.500
2.617,-0.500,-159.500,409.500,-176.000
2.618,-0.500,-159.500,408.500,-176.000
2.619,-0.500,-159.500,408.000,-176.500
2.620,-0.500,-159.000,406.500,-176.500
2.621,-0.500,-159.500,405.000,-177.000
2.622,-0.500,-159.500,404.500,-177.000
2.623,-0.500,-159.500,404.500,-177.500
2.624,-0.500,-159.500,405.500,-177.500
2.625,0.000,-159.500,406.000,-177.500
2.626,0.000,-159.000,407.000,-177.500
2.627,-0.500,-159.000,407.500,-177.500
2.628,-0.500,-159.000,409.000,-177.500
2.629,-0.500,-159.000,409.500,-177.000
2.630,-0.500,-159.000,409.000,-177.000
2.631,-0.500,-159.000,408.000,-177.000
2.632,-0.500,-159.000,407.000,-176.500
2.633,-0.500,-159.000,406.500,-176.500
2.634,-0.500,-159.000,406.500,-176.500
2.635,0.000,-158.500,407.500,-176.500
2.636,0.000,-158.500,410.000,-176.000
2.637,0.000,-158.500,413.000,-176.000
2.638,0.000,-159.000,416.000,-176.000
2.639,0.000,-159.000,418.500,-175.500
2.640,0.000,-159.000,419.500,-175.500
2.641,0.000,-159.000,418.500,-175.500
2.642,0.000,-159.000,417.000,-175.500
2.643,0.000,-159.000,414.500,-175.500
2.644,0.000,-158.500,413.000,-175.000
2.645,0.000,-158.000,412.000,-175.000
2.646,-0.500,-157.500,411.000,-175.000
2.647,-0.500,-157.500,411.000,-175.000
2.648,-0.500,-157.000,411.500,-175.000
2.649,-0.500,-157.000,411.500,-175.000
2.650,-0.500,-157.000,411.500,-174.500
2.651,-0.500,-157.000,411.500,-174.500
2.652,-0.500,-157.000,412.000,-174.000
2.653,-0.500,-157.000,413.000,-173.500
2.654,-0.500,-157.000,413.500,-173.000
2.655,-0.500,-156.500,414.000,-172.500
2.656,-0.500,-156.500,415.000,-172.500
2.657,-0.500,-156.000,415.500,-172.500
2.658,-0.500,-155.500,414.500,-172.000
2.659,-0.500,-155.000,412.500,-172.000
2.660,-0.500,-155.000,409.000,-172.000
2.661,-0.500,-155.000,406.000,-172.000
2.662,-0.500,-155.000,403.500,-172.000
2.663,-0.500,-155.000,402.500,-172.500
2.664,-0.500,-155.500,402.500,-172.500
2.665,-0.500,-155.500,403.500,-173.000
2.666,-1.000,-155.500,404.500,-173.000
2.667,-1.000,-155.500,405.000,-173.000
2.668,-1.000,-155.500,404.000,-173.000
2.669,-1.000,-155.000,403.000,-172.500
2.670,-1.000,-155.000,402.500,-172.000
2.671,-1.000,-155.000,401.500,-171.500
2.672,-1.000,-155.000,400.500,-171.500
2.673,-1.000,-155.000,400.000,-171.500
2.674,-1.000,-155.500,400.500,-171.500
2.675,-1.000,-155.500,401.500,-171.500
2.676,-0.500,-155.500,401.000,-171.500
2.677,-0.500,-155.500,400.500,-171.500
2.678,-0.500,-155.500,400.000,-171.500
2.679,-0.500,-155.500,400.500,-171.500
2.680,-0.500,-155.500,402.000,-171.500
2.681,-0.500,-155.500,403.000,-171.500
2.682,-0.500,-155.500,404.500,-171.500
2.683,-0.500,-155.000,405.500,-171.500
2.684,-0.500,-155.000,405.500,-171.500
2.685,-0.500,-155.000,404.000,-171.500
2.686,-0.500,-155.000,402.500,-171.000
2.687,-0.500,-155.000,401.000,-171.000
2.688,-0.500,-155.000,400.000,-171.000
2.689,-0.500,-155.000,400.000,-171.000
2.690,-0.500,-155.500,400.500,-171.000
2.691,-1.000,-155.500,401.500,-171.000
2.692,-1.000,-155.500,402.500,-171.000
2.693,-1.000,-155.500,403.000,-171.000
2.694,-1.000,-155.500,402.500,-170.500
2.695,-1.000,-155.000,401.000,-170.500
2.696,-1.000,-155.000,398.500,-170.000
2.697,-1.000,-155.000,396.000,-170.000
2.698,-1.000,-155.000,394.500,-170.000
2.699,-1.000,-155.000,395.000,-170.000
2.700,-0.500,-155.000,397.000,-170.000
2.701,-0.500,-154.500,399.000,-170.000
2.702,-0.500,-154.500,400.500,-169.500
2.703,-0.500,-154.000,401.000,-169.000
2.704,-0.500,-153.500,400.500,-168.500
2.705,-0.500,-153.500,400.000,-168.000
2.706,-0.500,-153.000,399.000,-167.500
2.707,-0.500,-152.500,398.500,-166.500
2.708,-0.500,-151.500,398.000,-165.500
2.709,-0.500,-151.000,397.500,-165.000
2.710,-0.500,-150.500,397.000,-165.000
2.711,-0.500,-151.000,397.000,-165.500
2.712,-0.500,-151.500,397.000,-166.500
2.713,-0.500,-152.500,396.500,-168.500
2.714,-0.500,-154.000,396.500,-171.000
2.715,-1.000,-156.500,397.500,-174.500
2.716,-1.000,-158.500,399.500,-178.500
2.717,-1.000,-160.500,401.500,-181.500
2.718,-0.500,-162.500,403.500,-184.000
2.719,-0.500,-163.500,405.000,-185.500
2.720,-0.500,-164.000,405.000,-186.000
2.721,-0.500,-164.500,405.000,-186.000
2.722,-0.500,-164.000,405.000,-185.500
2.723,-0.500,-163.500,406.000,-185.000
2.724,-0.500,-162.500,407.000,-183.500
2.725,-0.500,-161.500,409.000,-182.500
2.726,-0.500,-160.500,411.500,-180.500
2.727,-0.500,-159.500,414.000,-179.000
2.728,-0.500,-158.000,416.000,-177.000
2.729,-0.500,-157.000,417.500,-175.000
2.730,-0.500,-156.000,417.000,-173.500
2.731,-0.500,-155.000,415.500,-172.500
2.732,-0.500,-154.500,413.000,-171.500
2.733,-0.500,-154.000,410.500,-170.500
2.734,-0.500,-153.500,409.000,-170.500
2.735,-0.500,-153.500,408.000,-170.000
2.736,-0.500,-153.500,407.500,-170.000
2.737,-0.500,-153.500,406.000,-170.000
2.738,-0.500,-153.000,403.500,-170.000
2.739,-1.000,-153.000,400.500,-170.000
2.740,-1.000,-153.000,397.000,-169.500
2.741,-1.000,-153.000,394.000,-169.500
2.742,-0.500,-153.000,392.000,-169.000
2.743,-0.500,-153.000,391.000,-169.000
2.744,-0.500,-152.500,391.000,-168.500
2.745,-0.500,-152.500,391.500,-168.000
2.746,-0.500,-152.000,392.000,-167.500
2.747,-0.500,-152.000,393.000,-167.500
2.748,-0.500,-151.500,395.000,-167.500
2.749,-0.500,-151.500,397.500,-167.500
2.750,-0.500,-152.000,399.500,-168.000
2.751,-0.500,-152.000,400.000,-168.000
2.752,-0.500,-152.000,399.500,-168.000
2.753,-0.500,-152.000,398.500,-167.500
2.754,-0.500,-152.000,397.500,-167.500
2.755,-1.000,-152.000,397.000,-167.000
2.756,-1.000,-151.500,398.000,-167.000
2.757,-1.000,-151.500,400.000,-167.000
2.758,-1.000,-151.500,403.500,-167.500
2.759,-1.000,-151.500,406.500,-167.500
2.760,-0.500,-151.000,409.500,-167.500
2.761,-0.500,-151.000,411.000,-167.500
2.762,-0.500,-151.000,411.000,-167.500
2.763,-0.500,-151.000,410.500,-167.500
2.764,-1.000,-151.000,409.000,-167.500
2.765,-1.000,-151.000,407.000,-167.000
2.766,-1.000,-150.500,405.500,-167.000
2.767,-0.500,-150.500,405.000,-167.000
2.768,-0.500,-150.500,405.500,-167.000
2.769,-0.500,-151.000,406.500,-167.000
2.770,-0.500,-151.000,407.500,-167.500
2.771,-0.500,-151.500,408.500,-168.000
2.772,-0.500,-152.000,409.500,-168.000
2.773,-1.000,-152.000,410.000,-168.500
2.774,-1.000,-152.000,410.000,-168.500
2.775,-1.000,-152.500,409.000,-168.500
2.776,-1.000,-152.500,408.000,-168.500
2.777,-0.500,-152.500,406.000,-168.500
2.778,-0.500,-152.500,405.000,-168.500
2.779,-0.500,-152.500,404.500,-168.000
2.780,-0.500,-152.500,404.000,-168.000
2.781,-1.000,-152.000,403.500,-168.000
2.782,-1.000,-152.000,403.500,-168.000
2.783,-1.000,-152.000,404.500,-168.000
2.784,-0.500,-151.500,407.000,-168.000
2.785,-0.500,-151.500,409.500,-168.000
2.786,-0.500,-151.500,412.000,-167.500
2.787,-0.500,-152.000,413.500,-168.000
2.788,-0.500,-152.500,414.500,-168.000
2.789,-0.500,-153.000,414.500,-168.000
2.790,-0.500,-153.500,413.500,-168.500
2.791,-0.500,-154.000,412.000,-168.500
2.792,-0.500,-154.000,410.500,-168.500
2.793,-0.500,-154.000,409.000,-168.500
2.794,-0.500,-154.000,407.500,-168.000
2.795,0.000,-153.500,406.000,-168.000
2.796,0.000,-153.000,405.000,-167.500
2.797,-0.500,-152.500,404.500,-167.500
2.798,-0.500,-152.000,405.500,-167.000
2.799,-0.500,-152.000,408.500,-167.000
2.800,-0.500,-152.500,412.000,-167.000
2.801,-1.000,-152.500,414.000,-167.000
2.802,-1.000,-152.500,414.000,-167.000
2.803,-1.000,-153.000,413.000,-167.500
2.804,-1.000,-153.000,411.000,-167.500
2.805,-0.500,-153.000,408.000,-167.500
2.806,-0.500,-153.000,405.500,-167.500
2.807,-0.500,-152.500,403.000,-167.000
2.808,-0.500,-152.500,400.500,-166.500
2.809,-0.500,-152.000,397.500,-166.000
2.810,-0.500,-151.500,396.000,-165.500
2.811,-0.500,-151.000,396.000,-165.000
2.812,-0.500,-151.000,397.500,-165.000
2.813,-0.500,-151.000,399.000,-165.000
2.814,-0.500,-151.000,401.000,-165.000
2.815,-1.000,-151.500,402.000,-165.000
2.816,-1.000,-151.500,402.500,-165.000
2.817,-1.000,-151.500,401.500,-165.500
2.818,-1.000,-152.000,400.000,-165.500
2.819,-1.000,-152.000,397.500,-165.500
2.820,-0.500,-152.000,394.500,-165.500
2.821,-0.500,-152.000,391.000,-165.500
2.822,-0.500,-152.000,388.500,-165.000
2.823,-0.500,-151.500,387.500,-165.000
2.824,-0.500,-152.000,387.500,-165.000
2.825,-0.500,-152.000,388.000,-164.500
2.826,-1.000,-152.000,388.000,-164.500
2.827,-1.000,-152.000,387.000,-164.500
2.828,-1.000,-152.000,385.500,-164.000
2.829,-1.000,-152.000,385.000,-164.000
2.830,-1.000,-152.000,385.000,-164.000
2.831,-1.000,-152.500,385.500,-164.000
2.832,-1.000,-152.500,385.500,-164.500
2.833,-0.500,-153.000,385.000,-164.500
2.834,-0.500,-153.000,384.500,-164.500
2.835,-0.500,-153.000,384.000,-164.500
2.836,-0.500,-153.000,383.500,-164.500
2.837,-0.500,-153.000,383.500,-164.000
2.838,-0.500,-153.000,384.500,-164.500
2.839,-0.500,-153.000,385.000,-164.500
2.840,-0.500,-153.000,385.500,-165.000
2.841,-0.500,-153.000,384.000,-165.500
2.842,-1.000,-153.000,382.500,-165.500
2.843,-1.000,-153.000,382.500,-165.500
2.844,-1.000,-153.000,384.000,-165.000
2.845,-1.000,-152.500,385.000,-164.000
2.846,-1.000,-151.500,385.500,-163.500
2.847,-1.000,-151.000,386.000,-162.500
2.848,-1.000,-150.500,386.000,-161.500
2.849,-1.000,-150.000,387.000,-161.000
2.850,-1.000,-149.500,388.000,-161.000
2.851,-1.000,-149.000,389.500,-161.000
2.852,-1.000,-148.500,390.500,-160.500
2.853,-1.000,-148.000,391.000,-160.500
2.854,-0.500,-148.000,391.000,-160.500
2.855,-0.500,-147.500,391.000,-160.500
2.856,-0.500,-147.500,390.500,-160.000
2.857,-0.500,-147.500,390.500,-159.500
2.858,-0.500,-147.500,390.000,-159.500
2.859,-0.500,-148.000,390.000,-159.000
2.860,-0.500,-148.000,389.000,-159.500
2.861,-0.500,-148.500,388.500,-159.500
2.862,-0.500,-149.500,389.500,-160.500
2.863,-0.500,-150.000,391.500,-161.000
2.864,-0.500,-150.500,394.000,-161.500
2.865,-0.500,-151.000,395.500,-162.000
2.866,-0.500,-151.000,396.000,-161.500
2.867,0.000,-151.000,396.000,-161.500
2.868,0.000,-150.500,395.500,-161.000
2.869,0.000,-150.500,395.000,-161.000
2.870,0.000,-150.000,394.500,-160.500
2.871,-0.500,-150.000,395.000,-160.500
2.872,-0.500,-150.000,395.500,-160.500
2.873,-0.500,-150.000,396.000,-160.500
2.874,-0.500,-150.000,396.000,-160.500
2.875,-0.500,-150.000,394.500,-160.500
2.876,-0.500,-150.000,392.500,-160.500
2.877,-0.500,-150.000,389.500,-160.500
2.878,-0.500,-150.000,387.000,-160.500
2.879,-0.500,-149.500,384.500,-160.500
2.880,-0.500,-149.500,382.500,-160.500
2.881,-0.500,-149.000,381.000,-160.500
2.882,-0.500,-149.000,380.500,-160.500
2.883,-0.500,-149.000,381.000,-160.500
2.884,-0.500,-149.000,382.000,-160.000
2.885,-1.000,-149.000,383.000,-160.000
2.886,-1.000,-149.000,383.500,-159.500
2.887,-1.000,-149.000,383.500,-159.500
2.888,-1.000,-148.500,383.500,-159.000
2.889,-1.000,-148.500,383.500,-158.500
2.890,-1.000,-148.500,382.500,-158.000
2.891,-1.000,-148.500,382.000,-158.000
2.892,-1.000,-148.500,382.500,-158.000
2.893,-1.000,-148.500,383.500,-157.500
2.894,-1.000,-148.000,384.500,-157.500
2.895,-1.000,-148.000,385.000,-157.000
2.896,-0.500,-147.500,383.500,-156.500
2.897,-0.500,-147.000,381.500,-156.500
2.898,-0.500,-147.000,378.000,-156.500
2.899,-0.500,-147.500,375.000,-156.500
2.900,-0.500,-147.500,372.500,-156.500
2.901,-0.500,-147.500,370.500,-156.500
2.902,-0.500,-147.500,370.000,-156.000
2.903,-0.500,-148.000,370.000,-156.000
2.904,-0.500,-148.000,371.000,-156.500
2.905,-0.500,-148.500,373.000,-157.000
2.906,-0.500,-149.000,375.500,-157.500
2.907,-0.500,-149.500,377.500,-158.000
2.908,-0.500,-150.000,378.000,-158.500
2.909,-0.500,-150.000,378.000,-159.000
2.910,-0.500,-150.500,377.500,-159.000
2.911,-0.500,-150.500,378.000,-159.000
2.912,-1.000,-150.500,379.000,-158.500
2.913,-1.000,-150.500,380.000,-158.500
2.914,-1.000,-150.500,381.000,-158.000
2.915,-1.000,-150.500,381.500,-157.500
2.916,-1.000,-150.500,381.500,-157.000
2.917,-1.000,-150.500,381.500,-157.000
2.918,-1.000,-150.500,382.000,-157.000
2.919,-1.000,-151.000,383.000,-157.500
2.920,-0.500,-151.000,383.000,-157.500
2.921,-0.500,-151.000,383.500,-158.000
2.922,-0.500,-151.000,383.500,-157.500
2.923,-0.500,-151.000,384.000,-157.500
2.924,-0.500,-150.500,384.000,-157.500
2.925,-0.500,-150.500,383.000,-157.500
2.926,-0.500,-150.500,381.500,-157.500
2.927,-0.500,-150.500,380.000,-157.500
2.928,-1.000,-151.000,378.500,-157.500
2.929,-1.000,-151.500,378.000,-158.000
2.930,-1.000,-152.500,378.500,-158.500
2.931,-1.000,-153.500,380.000,-159.500
2.932,-1.000,-154.500,382.000,-160.500
2.933,-1.000,-155.500,383.500,-162.000
2.934,-0.500,-157.000,385.000,-163.500
2.935,-1.000,-159.000,385.000,-165.500
2.936,-1.000,-160.500,384.500,-167.500
2.937,-1.000,-162.500,384.000,-169.500
2.938,-1.000,-164.500,383.500,-172.000
2.939,-1.000,-166.000,382.500,-174.000
2.940,-1.000,-167.500,380.000,-176.000
2.941,-1.000,-168.500,376.000,-177.000
2.942,-1.000,-169.000,371.500,-177.500
2.943,-1.000,-169.500,368.000,-177.500
2.944,-1.000,-169.000,365.500,-177.500
2.945,-1.000,-169.000,364.500,-176.500
2.946,-1.000,-168.500,364.000,-175.500
2.947,-1.000,-167.500,364.500,-174.500
2.948,-0.500,-166.500,366.000,-173.000
2.949,-1.000,-165.500,367.500,-171.000
2.950,-1.000,-164.000,369.000,-168.500
2.951,-1.000,-162.000,369.500,-166.000
2.952,-1.000,-159.500,368.500,-163.000
2.953,-1.000,-157.000,366.500,-159.500
2.954,-1.000,-154.000,364.000,-155.000
2.955,-1.000,-150.000,362.500,-150.500
2.956,-0.500,-146.000,362.500,-146.000
2.957,-0.500,-142.000,363.500,-141.000
2.958,-0.500,-137.500,364.500,-135.500
2.959,-0.500,-133.000,365.500,-130.000
2.960,-0.500,-128.500,367.500,-124.500
2.961,-0.500,-124.000,370.500,-119.000
2.962,-0.500,-119.500,374.500,-114.000
2.963,-0.500,-115.000,377.000,-109.000
2.964,-0.500,-111.500,378.000,-105.000
2.965,-0.500,-108.000,378.000,-101.500
2.966,-0.500,-105.000,377.500,-98.000
2.967,-0.500,-102.500,377.500,-94.500
2.968,-0.500,-99.000,378.000,-91.000
2.969,-0.500,-95.500,378.000,-86.500
2.970,-0.500,-92.000,377.500,-82.500
2.971,-0.500,-88.500,377.000,-78.500
2.972,-1.000,-85.500,377.000,-75.500
2.973,-1.000,-83.500,377.000,-73.000
2.974,-1.000,-82.500,377.000,-72.000
2.975,-1.000,-82.000,377.500,-71.500
2.976,-1.000,-82.500,378.500,-72.000
2.977,-1.000,-83.500,379.500,-74.000
2.978,-1.000,-85.000,380.000,-76.500
2.979,-0.500,-87.500,379.500,-80.000
2.980,-0.500,-90.500,377.000,-84.500
2.981,-1.000,-94.000,373.500,-88.500
2.982,-1.000,-97.500,369.500,-93.000
2.983,-1.000,-101.500,367.000,-97.500
2.984,-1.000,-105.500,367.000,-101.500
2.985,-1.000,-109.000,369.500,-105.500
2.986,-1.000,-112.500,373.000,-109.500
2.987,-1.000,-115.500,375.500,-112.500
2.988,-1.000,-118.500,377.000,-115.500
2.989,-1.000,-121.000,378.500,-118.500
2.990,-1.000,-123.000,380.000,-120.500
2.991,-0.500,-125.000,381.500,-123.000
2.992,-0.500,-126.500,381.500,-125.000
2.993,-0.500,-128.500,381.000,-127.000
2.994,-0.500,-131.000,380.500,-129.500
2.995,-0.500,-133.000,380.000,-131.500
2.996,-0.500,-135.500,379.500,-134.000
2.997,-0.500,-137.500,379.500,-135.500
2.998,-0.500,-139.000,379.000,-137.500
2.999,-0.500,-140.500,378.500,-139.000
3.000,-0.500,-141.500,379.000,-140.500
3.001,-0.500,-143.000,379.500,-141.500
3.002,-0.500,-144.000,380.000,-143.000
3.003,-0.500,-145.000,379.500,-144.000
3.004,-0.500,-145.500,380.000,-145.000
3.005,-0.500,-146.500,381.000,-145.500
3.006,-0.500,-147.000,382.500,-146.000
3.007,-0.500,-147.500,384.000,-146.500
3.008,-0.500,-147.500,385.000,-147.000
3.009,-0.500,-148.000,385.000,-147.500
3.010,-1.000,-148.500,385.000,-148.000
3.011,-1.000,-148.500,384.000,-148.000
3.012,-1.000,-148.500,382.000,-148.000
3.013,-1.000,-149.000,379.500,-148.000
3.014,-1.000,-149.000,377.000,-147.500
3.015,-0.500,-149.000,376.000,-147.500
3.016,-0.500,-149.000,376.500,-147.000
3.017,-1.000,-149.000,377.000,-146.500
3.018,-1.000,-149.000,377.500,-146.000
3.019,-1.000,-149.000,377.000,-146.000
3.020,-1.000,-149.000,376.500,-145.500
3.021,-1.000,-148.500,376.500,-145.500
3.022,-1.000,-149.000,377.500,-145.500
3.023,-1.000,-149.000,380.000,-146.000
3.024,-1.000,-149.500,383.000,-146.000
3.025,-1.000,-149.500,385.500,-146.500
3.026,-1.000,-149.500,386.500,-146.000
3.027,-1.000,-149.500,387.000,-146.000
3.028,-1.000,-149.500,386.000,-145.500
3.029,-1.000,-149.000,385.000,-145.500
3.030,-1.000,-149.000,383.500,-145.500
3.031,-0.500,-149.000,383.500,-145.500
3.032,-0.500,-149.000,384.500,-145.500
3.033,-0.500,-149.000,385.500,-145.500
3.034,-0.500,-149.000,386.500,-145.500
3.035,-0.500,-149.000,388.000,-145.000
3.036,-0.500,-149.000,390.000,-145.000
3.037,-1.000,-149.000,390.500,-144.500
3.038,-1.000,-149.000,390.000,-144.500
3.039,-0.500,-148.500,388.500,-144.500
3.040,-0.500,-148.500,386.500,-144.500
3.041,-0.500,-149.000,385.000,-145.000
3.042,-1.000,-149.000,384.500,-145.000
3.043,-1.000,-149.000,384.000,-145.000
3.044,-1.000,-148.500,383.500,-145.000
3.045,-1.000,-148.000,383.500,-144.500
3.046,-0.500,-148.000,383.500,-144.000
3.047,-0.500,-148.000,383.000,-143.500
3.048,-0.500,-147.500,382.500,-142.500
3.049,-0.500,-147.500,382.000,-141.500
3.050,-0.500,-147.000,381.500,-141.000
3.051,-0.500,-147.000,381.500,-140.500
3.052,-0.500,-146.500,381.000,-140.500
3.053,-0.500,-146.500,381.000,-140.000
3.054,-0.500,-146.500,381.500,-140.000
3.055,-0.500,-146.500,381.500,-139.500
3.056,-0.500,-147.000,381.500,-140.000
3.057,-0.500,-147.500,381.500,-140.500
3.058,-0.500,-148.500,381.500,-141.500
3.059,-0.500,-149.500,382.000,-143.500
3.060,-0.500,-151.500,382.000,-146.500
3.061,-0.500,-154.000,382.000,-150.500
3.062,-0.500,-156.500,382.000,-154.500
3.063,-0.500,-159.000,381.500,-158.500
3.064,-0.500,-160.500,381.500,-161.500
3.065,-0.500,-162.000,381.000,-163.000
3.066,-0.500,-162.500,380.000,-163.500
3.067,-0.500,-162.500,378.000,-163.000
3.068,-0.500,-162.000,375.500,-162.000
3.069,-0.500,-161.000,373.000,-160.000
3.070,-0.500,-160.000,371.000,-158.000
3.071,-0.500,-158.500,370.000,-155.500
3.072,-0.500,-157.000,371.000,-153.000
3.073,-0.500,-155.000,372.500,-150.500
3.074,-0.500,-153.500,373.500,-148.500
3.075,-0.500,-152.500,374.000,-146.500
3.076,-0.500,-151.500,373.000,-145.000
3.077,-0.500,-150.500,372.000,-144.000
3.078,-0.500,-150.000,372.500,-143.500
3.079,-0.500,-150.000,373.500,-143.000
3.080,-1.000,-149.500,374.500,-143.000
3.081,-1.000,-149.500,374.500,-143.000
3.082,-1.000,-149.500,373.500,-143.000
3.083,-1.000,-149.500,372.500,-142.500
3.084,-1.000,-149.500,373.000,-142.500
3.085,-1.000,-149.500,374.000,-142.000
3.086,-1.000,-149.500,376.000,-141.500
3.087,-1.000,-149.500,377.500,-141.500
3.088,-1.000,-149.500,378.000,-141.500
3.089,-1.000,-149.500,378.000,-141.000
3.090,-1.000,-149.500,377.500,-141.000
3.091,-1.000,-149.500,377.500,-141.000
3.092,-0.500,-149.500,378.500,-140.500
3.093,-0.500,-149.500,380.000,-140.500
3.094,-0.500,-150.000,381.000,-140.500
3.095,-0.500,-150.500,381.000,-141.000
3.096,-1.000,-150.500,380.000,-141.000
3.097,-1.000,-151.000,379.000,-141.500
3.098,-1.000,-151.000,378.500,-142.000
3.099,-1.000,-151.500,377.500,-142.500
3.100,-1.000,-151.500,376.500,-143.000
3.101,-1.000,-151.500,375.500,-143.500
3.102,-1.000,-151.500,373.500,-143.500
3.103,-1.500,-151.500,371.500,-143.500
3.104,-1.500,-152.000,370.500,-143.500
3.105,-1.000,-152.000,371.000,-144.000
3.106,-1.000,-152.500,374.500,-144.000
3.107,-1.000,-152.500,379.000,-143.500
3.108,-1.000,-152.000,384.000,-143.000
3.109,-1.000,-151.500,387.000,-142.000
3.110,-1.000,-150.500,388.000,-140.500
3.111,-1.000,-149.500,386.000,-139.500
3.112,-1.000,-148.500,382.500,-138.000
3.113,-1.000,-147.500,378.500,-137.000
3.114,-1.000,-147.000,376.000,-136.000
3.115,-1.000,-146.500,375.000,-135.500
3.116,-0.500,-146.500,374.000,-135.500
3.117,-0.500,-146.500,373.000,-135.000
3.118,-0.500,-147.000,372.500,-135.000
3.119,-0.500,-147.000,372.500,-135.000
3.120,-0.500,-147.000,372.500,-135.000
3.121,-0.500,-146.500,373.000,-135.000
3.122,-0.500,-146.500,373.500,-134.500
3.123,-0.500,-146.500,374.000,-134.500
3.124,-0.500,-146.500,374.500,-134.500
3.125,-0.500,-147.000,376.000,-134.500
3.126,-1.000,-147.000,378.000,-135.000
3.127,-1.000,-147.500,380.000,-135.000
3.128,-1.000,-148.000,381.500,-135.000
3.129,-1.000,-148.000,383.000,-135.000
3.130,-1.000,-148.500,384.000,-135.500
3.131,-1.000,-149.000,384.500,-136.000
3.132,-1.000,-149.500,384.000,-136.000
3.133,-1.000,-150.000,382.500,-136.500
3.134,-1.000,-150.500,381.500,-136.500
3.135,-1.000,-150.500,380.000,-137.000
3.136,-1.000,-151.000,380.000,-137.000
3.137,-1.000,-151.000,381.000,-137.500
3.138,-0.500,-151.000,383.000,-137.500
3.139,-0.500,-151.000,385.500,-137.500
3.140,-0.500,-151.500,387.500,-137.500
3.141,-0.500,-151.500,388.000,-137.500
3.142,-0.500,-151.500,387.000,-137.500
3.143,-0.500,-152.000,384.000,-138.000
3.144,-0.500,-152.000,380.000,-138.500
3.145,-0.500,-152.500,377.000,-139.000
3.146,-0.500,-153.000,375.000,-139.000
