'Elapsed time','AECG1','AECG2','AECG3','AECG4'
'seconds','uV','uV','uV','uV'
0.000,-524.500,-495.000,-250.000,-387.500
0.001,-524.500,-495.000,-250.000,-387.500
0.002,-524.500,-496.000,-249.500,-388.000
0.003,-525.500,-497.000,-250.000,-388.000
0.004,-526.500,-497.500,-250.000,-387.500
0.005,-528.000,-498.000,-250.000,-387.500
0.006,-529.000,-498.500,-250.500,-387.500
0.007,-530.000,-498.000,-250.000,-387.500
0.008,-530.500,-497.500,-250.000,-387.500
0.009,-531.000,-496.500,-249.500,-387.000
0.010,-530.500,-496.000,-249.500,-386.500
0.011,-530.000,-495.000,-250.000,-386.000
0.012,-529.000,-495.000,-250.500,-386.000
0.013,-528.000,-494.500,-251.000,-385.500
0.014,-527.500,-494.500,-251.000,-385.000
0.015,-526.500,-494.000,-251.000,-384.500
0.016,-526.500,-494.000,-250.500,-384.500
0.017,-526.000,-494.500,-250.500,-384.500
0.018,-526.000,-495.000,-250.500,-384.500
0.019,-526.500,-495.500,-251.000,-384.500
0.020,-526.500,-496.000,-251.000,-384.000
0.021,-527.000,-496.500,-251.500,-383.500
0.022,-527.500,-496.500,-251.500,-383.000
0.023,-527.500,-497.000,-251.000,-382.500
0.024,-528.500,-497.500,-251.500,-382.500
0.025,-529.000,-498.000,-251.500,-383.000
0.026,-529.500,-498.500,-252.000,-383.000
0.027,-530.000,-498.500,-252.000,-383.500
0.028,-530.500,-498.500,-252.000,-383.500
0.029,-531.000,-498.500,-251.500,-383.000
0.030,-531.500,-498.500,-251.000,-383.000
0.031,-531.500,-498.500,-251.000,-382.500
0.032,-532.000,-499.000,-251.000,-382.000
0.033,-532.000,-499.000,-251.000,-381.500
0.034,-532.000,-499.000,-250.500,-381.000
0.035,-532.500,-499.000,-250.000,-380.000
0.036,-532.500,-498.500,-249.000,-379.500
0.037,-532.500,-498.500,-248.000,-378.500
0.038,-532.500,-498.000,-247.000,-377.500
0.039,-532.500,-497.500,-246.500,-377.000
0.040,-532.500,-497.500,-245.500,-376.500
0.041,-533.000,-497.000,-245.000,-376.500
0.042,-533.000,-497.000,-245.000,-376.500
0.043,-533.000,-497.500,-245.000,-376.000
0.044,-533.500,-497.500,-245.000,-376.000
0.045,-534.000,-498.000,-245.000,-376.000
0.046,-535.000,-498.500,-245.500,-376.000
0.047,-535.500,-499.000,-246.000,-376.000
0.048,-536.000,-499.500,-246.000,-376.000
0.049,-537.000,-500.000,-246.500,-376.000
0.050,-537.000,-500.500,-247.000,-376.000
0.051,-537.500,-500.500,-247.000,-376.000
0.052,-538.000,-501.000,-247.500,-376.000
0.053,-538.000,-501.000,-247.500,-376.000
0.054,-538.500,-501.500,-247.500,-375.500
0.055,-538.500,-501.000,-247.000,-375.000
0.056,-538.500,-501.000,-246.500,-375.000
0.057,-538.000,-500.500,-246.000,-375.000
0.058,-538.000,-500.500,-246.000,-375.000
0.059,-538.500,-500.500,-246.000,-375.000
0.060,-538.500,-500.500,-245.500,-375.000
0.061,-539.000,-500.500,-245.000,-374.500
0.062,-539.500,-500.500,-244.500,-374.000
0.063,-540.000,-500.500,-244.500,-374.000
0.064,-540.500,-501.000,-244.500,-374.000
0.065,-541.000,-501.500,-245.000,-374.500
0.066,-542.000,-502.000,-245.500,-375.000
0.067,-542.500,-503.000,-246.000,-375.000
0.068,-543.000,-503.500,-246.500,-375.500
0.069,-543.500,-504.000,-246.500,-375.500
0.070,-544.000,-504.000,-246.500,-375.000
0.071,-544.500,-504.000,-246.500,-374.500
0.072,-544.500,-504.000,-246.500,-374.500
0.073,-544.500,-504.000,-246.500,-374.000
0.074,-544.500,-504.000,-246.500,-374.000
0.075,-544.500,-503.500,-246.500,-373.500
0.076,-544.500,-503.500,-246.000,-373.000
0.077,-544.000,-503.000,-245.500,-372.500
0.078,-544.000,-503.000,-245.500,-372.500
0.079,-543.500,-503.500,-245.000,-372.500
0.080,-543.500,-503.500,-245.500,-372.500
0.081,-543.500,-504.000,-245.500,-372.500
0.082,-544.000,-504.500,-246.000,-373.000
0.083,-544.500,-505.000,-247.000,-373.500
0.084,-545.000,-506.000,-248.000,-374.500
0.085,-546.000,-507.000,-249.000,-375.000
0.086,-547.500,-508.000,-249.500,-375.500
0.087,-548.500,-508.500,-250.000,-375.500
0.088,-549.500,-509.000,-250.500,-376.000
0.089,-550.500,-509.000,-251.000,-376.500
0.090,-551.000,-509.000,-251.500,-376.500
0.091,-551.000,-508.500,-251.500,-375.500
0.092,-551.000,-508.000,-251.000,-375.000
0.093,-550.500,-507.000,-250.500,-373.500
0.094,-549.500,-506.500,-250.000,-372.500
0.095,-548.000,-505.500,-249.500,-372.000
0.096,-547.000,-504.500,-249.000,-371.500
0.097,-546.000,-504.000,-248.500,-371.000
0.098,-545.000,-504.000,-248.000,-371.000
0.099,-544.500,-504.000,-248.000,-371.000
0.100,-545.000,-504.500,-248.000,-371.000
0.101,-545.000,-505.500,-248.000,-371.000
0.102,-545.500,-506.500,-248.500,-370.500
0.103,-545.500,-507.000,-248.500,-370.000
0.104,-546.000,-507.500,-249.000,-370.000
0.105,-546.000,-508.000,-249.500,-370.000
0.106,-546.500,-508.000,-250.000,-370.000
0.107,-547.000,-507.500,-250.000,-369.500
0.108,-547.500,-507.000,-250.000,-369.000
0.109,-548.000,-506.500,-249.500,-369.000
0.110,-548.500,-506.500,-249.000,-368.500
0.111,-549.000,-506.500,-249.000,-368.500
0.112,-549.500,-507.500,-249.500,-368.500
0.113,-550.500,-508.500,-249.500,-369.000
0.114,-551.000,-509.500,-250.000,-369.000
0.115,-551.500,-510.500,-250.500,-369.000
0.116,-552.000,-510.500,-250.500,-369.000
0.117,-552.000,-510.500,-250.000,-368.500
0.118,-552.000,-510.000,-249.500,-368.000
0.119,-552.000,-509.500,-249.500,-367.500
0.120,-552.000,-508.500,-249.000,-367.500
0.121,-551.500,-507.500,-248.500,-367.000
0.122,-551.000,-507.000,-248.500,-367.000
0.123,-550.500,-506.000,-248.000,-367.000
0.124,-550.000,-505.500,-247.500,-367.000
0.125,-549.500,-504.500,-247.000,-366.500
0.126,-549.000,-504.500,-246.500,-366.500
0.127,-549.500,-504.000,-246.500,-366.500
0.128,-550.000,-504.000,-246.500,-366.500
0.129,-551.000,-504.000,-246.500,-366.500
0.130,-552.000,-504.500,-247.000,-367.000
0.131,-553.000,-505.500,-247.500,-367.000
0.132,-553.500,-506.500,-248.500,-366.500
0.133,-554.000,-507.500,-249.500,-366.500
0.134,-554.500,-509.000,-250.500,-366.000
0.135,-555.000,-510.000,-251.500,-365.500
0.136,-555.000,-511.000,-252.500,-365.500
0.137,-555.000,-512.000,-253.500,-365.500
0.138,-555.000,-512.000,-254.000,-365.500
0.139,-554.500,-512.000,-254.500,-366.000
0.140,-554.500,-512.000,-254.500,-366.000
0.141,-554.500,-511.500,-254.500,-366.500
0.142,-554.500,-511.000,-254.000,-366.000
0.143,-554.500,-511.000,-254.000,-366.000
0.144,-555.000,-510.500,-253.500,-365.500
0.145,-555.500,-510.500,-253.500,-365.500
0.146,-556.000,-510.500,-253.000,-365.500
0.147,-557.000,-510.500,-253.500,-366.000
0.148,-558.000,-511.000,-253.500,-366.000
0.149,-558.500,-511.000,-254.000,-366.000
0.150,-559.500,-511.500,-254.500,-365.500
0.151,-560.000,-512.000,-254.500,-365.000
0.152,-560.500,-512.500,-254.500,-364.000
0.153,-561.000,-512.500,-254.500,-363.500
0.154,-561.500,-512.500,-255.000,-363.000
0.155,-561.500,-512.500,-254.500,-362.500
0.156,-561.500,-512.500,-254.500,-362.000
0.157,-561.000,-512.500,-254.000,-362.000
0.158,-561.000,-512.500,-253.500,-361.500
0.159,-561.000,-512.000,-253.000,-361.500
0.160,-561.000,-512.000,-252.500,-361.000
0.161,-561.000,-512.000,-252.500,-361.500
0.162,-561.000,-512.000,-252.500,-361.500
0.163,-561.500,-512.500,-252.500,-361.500
0.164,-561.500,-513.000,-253.000,-361.500
0.165,-562.500,-513.000,-253.000,-361.500
0.166,-563.000,-513.500,-252.500,-361.500
0.167,-564.000,-513.500,-252.500,-361.000
0.168,-565.000,-513.500,-252.500,-361.000
0.169,-565.500,-514.000,-252.500,-361.500
0.170,-566.000,-514.000,-253.000,-361.500
0.171,-566.000,-514.000,-253.000,-361.500
0.172,-566.500,-514.000,-253.500,-361.500
0.173,-566.500,-514.500,-253.500,-361.000
0.174,-566.500,-514.500,-253.500,-360.500
0.175,-567.000,-514.500,-253.500,-360.000
0.176,-567.000,-514.500,-253.500,-359.500
0.177,-566.500,-514.500,-253.000,-359.500
0.178,-566.500,-515.000,-253.000,-359.500
0.179,-566.500,-514.500,-252.500,-359.500
0.180,-566.500,-514.500,-252.000,-359.000
0.181,-567.000,-514.500,-251.500,-359.000
0.182,-567.500,-515.000,-251.000,-358.500
0.183,-568.000,-515.500,-251.000,-358.500
0.184,-569.000,-516.000,-251.500,-358.500
0.185,-570.000,-516.500,-252.000,-359.000
0.186,-571.000,-516.500,-252.500,-359.500
0.187,-571.500,-516.500,-253.000,-359.500
0.188,-572.500,-516.500,-253.500,-359.500
0.189,-572.500,-516.000,-253.500,-359.500
0.190,-572.500,-515.500,-253.000,-359.500
0.191,-572.000,-515.500,-253.000,-359.500
0.192,-571.500,-515.000,-253.000,-359.500
0.193,-570.500,-515.000,-252.500,-359.000
0.194,-569.500,-514.500,-251.500,-359.000
0.195,-569.000,-514.000,-251.000,-358.000
0.196,-568.500,-513.500,-249.500,-357.500
0.197,-568.000,-513.000,-248.500,-357.000
0.198,-568.000,-512.500,-247.500,-356.000
0.199,-568.000,-512.500,-246.500,-355.500
0.200,-568.500,-512.000,-246.000,-355.000
0.201,-568.500,-512.000,-245.500,-354.500
0.202,-569.000,-512.000,-245.000,-354.500
0.203,-569.500,-512.500,-245.000,-354.500
0.204,-570.000,-512.500,-245.000,-354.500
0.205,-570.500,-513.500,-245.500,-354.500
0.206,-571.500,-514.000,-246.000,-355.000
0.207,-572.500,-514.500,-246.000,-355.000
0.208,-573.000,-515.500,-246.500,-355.000
0.209,-574.000,-516.500,-246.500,-355.000
0.210,-575.000,-517.500,-246.500,-355.000
0.211,-576.500,-519.000,-247.000,-354.500
0.212,-577.500,-519.500,-247.000,-354.500
0.213,-578.000,-520.500,-247.000,-354.500
0.214,-578.500,-520.500,-247.000,-354.500
0.215,-579.000,-520.000,-246.500,-354.500
0.216,-579.000,-519.500,-246.000,-354.500
0.217,-578.500,-518.500,-245.000,-354.500
0.218,-578.000,-517.000,-244.500,-354.500
0.219,-577.000,-516.000,-244.000,-354.500
0.220,-575.500,-515.000,-243.500,-354.500
0.221,-574.500,-513.500,-243.000,-354.000
0.222,-573.000,-512.500,-242.500,-353.500
0.223,-572.000,-512.000,-242.000,-352.500
0.224,-571.500,-511.500,-241.500,-352.000
0.225,-571.000,-512.000,-242.000,-352.000
0.226,-571.500,-512.500,-242.500,-352.000
0.227,-572.000,-513.500,-243.000,-352.000
0.228,-572.500,-514.500,-243.500,-352.000
0.229,-573.000,-515.500,-244.500,-351.500
0.230,-573.500,-516.500,-245.000,-351.500
0.231,-574.000,-517.500,-246.000,-351.500
0.232,-574.500,-518.000,-246.500,-352.000
0.233,-575.000,-519.000,-246.500,-352.000
0.234,-575.000,-519.000,-246.500,-352.000
0.235,-575.000,-519.000,-246.500,-352.000
0.236,-575.000,-518.500,-246.000,-352.000
0.237,-575.000,-518.000,-245.000,-351.500
0.238,-575.000,-517.500,-244.000,-351.000
0.239,-575.000,-516.500,-243.000,-350.500
0.240,-575.000,-516.000,-241.500,-350.000
0.241,-575.000,-515.500,-241.000,-350.000
0.242,-575.000,-515.500,-240.500,-350.000
0.243,-575.500,-515.500,-241.000,-350.000
0.244,-576.000,-516.000,-241.500,-349.500
0.245,-576.500,-517.000,-242.500,-349.500
0.246,-577.500,-518.000,-243.000,-349.000
0.247,-578.500,-519.500,-243.500,-348.500
0.248,-579.000,-521.000,-244.000,-348.500
0.249,-579.500,-522.000,-244.000,-348.000
0.250,-580.000,-523.500,-244.000,-348.000
0.251,-580.500,-524.000,-244.000,-347.500
0.252,-580.500,-524.000,-243.000,-347.500
0.253,-580.500,-523.500,-242.500,-347.000
0.254,-580.000,-522.500,-242.000,-346.500
0.255,-579.500,-521.500,-241.000,-346.000
0.256,-579.000,-520.500,-240.500,-345.500
0.257,-578.500,-519.000,-239.500,-344.500
0.258,-578.000,-518.500,-238.500,-344.500
0.259,-577.500,-517.500,-237.500,-344.000
0.260,-577.000,-517.500,-237.000,-344.000
0.261,-576.500,-517.500,-237.000,-344.000
0.262,-576.500,-517.500,-237.500,-344.000
0.263,-577.000,-518.500,-238.000,-344.500
0.264,-577.500,-519.500,-239.000,-345.000
0.265,-578.000,-521.000,-240.500,-346.000
0.266,-578.500,-522.500,-242.000,-346.500
0.267,-579.000,-524.000,-243.000,-347.500
0.268,-579.500,-524.500,-243.500,-347.500
0.269,-580.000,-525.000,-244.000,-347.500
0.270,-580.500,-525.000,-244.000,-347.500
0.271,-580.500,-525.000,-244.000,-347.500
0.272,-581.000,-525.000,-244.000,-348.000
0.273,-581.000,-525.000,-244.000,-348.000
0.274,-581.000,-525.000,-243.500,-348.000
0.275,-581.000,-525.000,-243.000,-347.500
0.276,-581.000,-524.500,-242.000,-347.000
0.277,-580.500,-524.500,-241.500,-346.500
0.278,-580.500,-524.500,-241.000,-346.000
0.279,-580.000,-524.500,-240.500,-345.000
0.280,-580.000,-524.500,-240.500,-344.500
0.281,-580.000,-525.000,-240.500,-344.000
0.282,-580.000,-525.500,-241.000,-343.500
0.283,-580.000,-526.000,-241.500,-343.500
0.284,-580.500,-526.500,-241.500,-343.000
0.285,-581.000,-526.500,-241.500,-343.000
0.286,-581.500,-527.000,-241.500,-343.000
0.287,-582.500,-527.000,-242.000,-343.500
0.288,-583.000,-527.500,-242.500,-343.500
0.289,-583.500,-528.000,-242.500,-344.000
0.290,-584.000,-528.500,-243.000,-344.000
0.291,-584.500,-528.500,-242.500,-344.000
0.292,-584.500,-529.000,-242.000,-344.000
0.293,-585.000,-528.500,-241.000,-343.500
0.294,-585.500,-528.500,-240.500,-343.000
0.295,-585.500,-528.000,-240.000,-342.500
0.296,-586.000,-527.500,-239.500,-342.500
0.297,-586.000,-527.500,-239.500,-342.000
0.298,-586.000,-527.000,-239.000,-341.500
0.299,-585.500,-527.000,-239.000,-341.500
0.300,-585.000,-526.500,-238.500,-341.000
0.301,-584.000,-526.000,-238.500,-340.500
0.302,-582.500,-526.000,-238.000,-340.500
0.303,-582.000,-526.000,-238.000,-340.000
0.304,-581.500,-526.000,-238.000,-340.500
0.305,-581.500,-526.500,-238.500,-341.000
0.306,-582.000,-527.500,-239.500,-342.000
0.307,-583.000,-528.500,-240.000,-342.500
0.308,-584.000,-529.500,-241.000,-343.000
0.309,-585.500,-531.000,-241.500,-343.000
0.310,-587.000,-532.000,-242.000,-343.000
0.311,-588.000,-532.500,-242.000,-342.500
0.312,-589.500,-532.500,-242.000,-342.000
0.313,-590.000,-532.500,-242.000,-342.000
0.314,-590.500,-532.500,-242.000,-342.000
0.315,-590.500,-532.000,-242.000,-342.000
0.316,-590.500,-531.500,-242.000,-342.000
0.317,-590.000,-531.000,-242.000,-342.000
0.318,-589.000,-530.500,-242.000,-342.000
0.319,-588.000,-530.000,-242.000,-342.000
0.320,-587.000,-529.500,-242.000,-341.500
0.321,-586.500,-529.000,-241.500,-341.500
0.322,-586.000,-528.500,-241.500,-341.000
0.323,-586.500,-529.000,-241.000,-341.000
0.324,-587.000,-529.000,-241.000,-341.000
0.325,-588.000,-529.500,-241.500,-341.000
0.326,-589.500,-530.000,-241.500,-341.500
0.327,-591.000,-530.500,-242.000,-341.500
0.328,-592.000,-531.500,-242.500,-341.000
0.329,-593.500,-532.000,-243.000,-341.000
0.330,-594.500,-532.500,-243.500,-340.000
0.331,-595.000,-533.000,-243.500,-339.500
0.332,-596.000,-533.500,-243.500,-338.500
0.333,-597.000,-533.500,-243.000,-337.500
0.334,-597.000,-533.500,-242.000,-336.000
0.335,-597.500,-533.000,-241.000,-334.500
0.336,-597.000,-532.000,-239.500,-332.500
0.337,-597.000,-531.000,-238.500,-331.000
0.338,-596.000,-529.500,-236.500,-329.000
0.339,-595.000,-528.000,-235.000,-327.000
0.340,-594.500,-526.500,-233.000,-324.500
0.341,-593.500,-525.000,-231.500,-322.500
0.342,-592.500,-524.000,-230.000,-321.000
0.343,-592.000,-523.500,-229.500,-320.000
0.344,-591.000,-523.000,-228.500,-319.500
0.345,-590.500,-523.000,-228.500,-319.500
0.346,-590.000,-522.500,-228.000,-319.500
0.347,-589.500,-522.000,-228.000,-319.500
0.348,-588.500,-521.500,-227.000,-319.000
0.349,-588.000,-520.500,-226.500,-318.000
0.350,-587.500,-520.000,-225.500,-317.000
0.351,-587.000,-519.000,-224.500,-316.500
0.352,-586.500,-518.000,-223.500,-316.000
0.353,-586.500,-517.000,-222.500,-316.000
0.354,-586.000,-516.000,-222.000,-316.000
0.355,-585.500,-515.500,-221.500,-316.000
0.356,-585.000,-515.000,-221.000,-316.500
0.357,-584.500,-514.500,-221.500,-317.000
0.358,-584.500,-515.000,-222.000,-317.500
0.359,-584.500,-515.500,-223.000,-318.500
0.360,-585.000,-516.500,-224.000,-319.000
0.361,-585.000,-517.500,-225.500,-320.000
0.362,-585.500,-518.000,-226.500,-321.000
0.363,-585.500,-519.000,-227.500,-321.500
0.364,-586.000,-520.000,-228.500,-322.500
0.365,-586.500,-521.000,-230.000,-323.500
0.366,-587.000,-522.000,-231.000,-324.500
0.367,-587.500,-523.000,-231.500,-325.000
0.368,-588.000,-524.000,-232.500,-326.000
0.369,-589.000,-525.500,-233.500,-326.500
0.370,-589.500,-526.500,-234.000,-326.500
0.371,-590.500,-527.500,-234.500,-327.000
0.372,-591.500,-528.500,-235.500,-327.000
0.373,-592.500,-529.500,-236.000,-327.500
0.374,-593.500,-530.000,-236.500,-327.500
0.375,-594.000,-530.500,-236.500,-328.000
0.376,-594.500,-531.000,-236.500,-328.000
0.377,-595.000,-531.000,-236.500,-328.000
0.378,-595.500,-531.000,-236.500,-328.000
0.379,-596.000,-530.500,-236.000,-328.000
0.380,-596.000,-530.500,-235.500,-328.000
0.381,-596.500,-530.000,-235.000,-328.000
0.382,-596.500,-530.000,-235.000,-328.000
0.383,-597.000,-530.000,-235.000,-327.500
0.384,-597.500,-530.500,-235.000,-327.500
0.385,-598.000,-531.000,-235.500,-327.500
0.386,-599.000,-531.500,-235.500,-327.500
0.387,-600.500,-532.000,-235.500,-328.000
0.388,-601.500,-532.500,-235.500,-328.000
0.389,-602.500,-533.000,-235.500,-328.000
0.390,-603.500,-533.500,-235.500,-328.000
0.391,-604.500,-534.000,-235.500,-327.500
0.392,-605.500,-534.000,-236.000,-327.500
0.393,-606.000,-534.000,-236.000,-327.000
0.394,-606.500,-534.000,-236.500,-326.500
0.395,-606.500,-534.000,-236.500,-326.000
0.396,-606.000,-534.500,-236.000,-325.000
0.397,-605.000,-534.500,-236.000,-324.500
0.398,-603.500,-534.500,-235.500,-323.500
0.399,-601.500,-534.500,-235.000,-323.500
0.400,-600.500,-534.000,-234.500,-323.000
0.401,-599.500,-534.000,-234.000,-323.000
0.402,-599.000,-533.500,-233.500,-323.000
0.403,-598.500,-533.000,-233.500,-323.500
0.404,-598.500,-532.500,-234.000,-324.000
0.405,-599.000,-532.000,-234.500,-324.500
0.406,-600.000,-532.000,-235.000,-324.500
0.407,-600.500,-532.000,-235.000,-324.500
0.408,-601.500,-531.500,-235.000,-324.500
0.409,-602.000,-531.500,-235.000,-324.000
0.410,-603.000,-532.000,-234.500,-323.500
0.411,-604.000,-532.000,-234.500,-323.000
0.412,-604.500,-532.500,-234.500,-323.000
0.413,-605.000,-533.000,-235.000,-323.000
0.414,-606.000,-534.000,-235.000,-323.000
0.415,-606.500,-535.000,-235.000,-323.000
0.416,-607.000,-535.500,-234.500,-322.500
0.417,-607.500,-536.000,-234.000,-322.000
0.418,-607.500,-536.000,-233.500,-321.500
0.419,-608.000,-536.000,-233.500,-321.000
0.420,-608.000,-535.500,-233.500,-320.500
0.421,-607.500,-536.000,-234.500,-321.000
0.422,-607.500,-536.000,-235.500,-321.000
0.423,-607.000,-536.000,-237.000,-322.000
0.424,-606.000,-536.000,-238.000,-322.500
0.425,-605.500,-535.500,-239.000,-323.000
0.426,-605.000,-534.500,-239.000,-323.500
0.427,-604.500,-534.000,-239.000,-323.500
0.428,-604.500,-533.500,-238.500,-323.500
0.429,-605.000,-533.000,-238.500,-323.500
0.430,-605.500,-533.000,-238.000,-323.500
0.431,-606.500,-533.000,-238.000,-323.000
0.432,-607.000,-533.500,-238.000,-322.500
0.433,-607.500,-533.500,-238.000,-322.000
0.434,-608.000,-534.000,-238.000,-321.000
0.435,-608.000,-534.000,-237.500,-320.000
0.436,-608.000,-534.000,-237.000,-319.500
0.437,-608.000,-533.500,-236.500,-318.500
0.438,-608.000,-533.500,-236.000,-318.000
0.439,-608.000,-533.500,-235.500,-318.000
0.440,-608.000,-533.500,-235.500,-317.500
0.441,-608.000,-533.000,-235.000,-317.500
0.442,-608.000,-533.500,-235.000,-317.500
0.443,-608.500,-533.500,-235.000,-317.500
0.444,-608.500,-534.000,-235.000,-318.000
0.445,-609.000,-534.500,-235.500,-318.500
0.446,-609.500,-534.500,-236.000,-319.000
0.447,-610.000,-535.000,-236.500,-319.500
0.448,-610.500,-535.000,-237.000,-320.000
0.449,-611.000,-535.500,-237.500,-320.000
0.450,-611.500,-535.500,-238.000,-320.500
0.451,-612.000,-536.000,-238.500,-320.500
0.452,-612.500,-536.000,-239.000,-321.000
0.453,-613.000,-536.500,-239.000,-321.000
0.454,-613.500,-536.000,-239.500,-321.000
0.455,-613.500,-536.000,-239.000,-320.500
0.456,-614.000,-535.500,-238.500,-320.000
0.457,-614.000,-535.000,-238.000,-318.500
0.458,-613.500,-534.500,-237.000,-317.500
0.459,-613.500,-533.500,-236.000,-316.500
0.460,-613.500,-533.000,-235.000,-315.500
0.461,-613.500,-532.500,-235.000,-315.500
0.462,-613.500,-532.500,-234.500,-315.000
0.463,-614.000,-532.500,-235.000,-315.000
0.464,-614.500,-533.000,-236.000,-314.500
0.465,-615.000,-534.000,-237.000,-314.500
0.466,-615.500,-535.000,-238.000,-314.500
0.467,-616.000,-536.000,-239.000,-314.500
0.468,-617.000,-537.000,-239.500,-314.500
0.469,-617.500,-538.000,-240.500,-314.500
0.470,-618.000,-539.000,-241.000,-315.000
0.471,-618.000,-539.000,-241.000,-315.000
0.472,-618.500,-539.500,-241.500,-315.500
0.473,-618.500,-539.500,-241.500,-316.000
0.474,-618.000,-539.000,-242.000,-316.000
0.475,-618.000,-539.000,-242.000,-316.000
0.476,-617.500,-538.500,-242.000,-316.000
0.477,-617.500,-538.000,-241.500,-316.000
0.478,-617.500,-538.000,-241.500,-315.500
0.479,-617.000,-537.500,-241.000,-315.500
0.480,-617.000,-537.000,-240.500,-315.000
0.481,-617.000,-537.000,-240.500,-315.000
0.482,-617.000,-537.000,-240.500,-315.000
0.483,-617.500,-537.000,-240.500,-315.000
0.484,-618.000,-537.000,-240.500,-315.000
0.485,-618.500,-537.500,-240.500,-315.000
0.486,-619.000,-537.500,-240.500,-315.000
0.487,-620.000,-538.000,-240.500,-315.000
0.488,-620.500,-538.000,-240.500,-315.000
0.489,-621.000,-538.000,-240.500,-315.000
0.490,-622.000,-538.000,-240.500,-314.500
0.491,-623.000,-538.500,-240.500,-314.000
0.492,-623.500,-538.500,-240.500,-314.000
0.493,-624.500,-539.000,-240.500,-313.500
0.494,-625.000,-539.000,-240.500,-313.500
0.495,-625.500,-539.500,-240.000,-313.000
0.496,-626.000,-539.000,-239.500,-313.000
0.497,-626.000,-538.500,-239.500,-312.500
0.498,-625.500,-538.000,-239.000,-312.500
0.499,-625.000,-537.500,-239.000,-312.000
0.500,-624.500,-537.000,-238.500,-312.000
0.501,-623.500,-536.500,-238.500,-311.500
0.502,-622.500,-536.000,-238.500,-311.000
0.503,-621.500,-536.000,-238.000,-310.500
0.504,-621.000,-535.500,-238.500,-310.500
0.505,-620.500,-536.000,-239.000,-310.500
0.506,-620.500,-536.500,-239.500,-310.500
0.507,-621.000,-537.000,-240.000,-310.500
0.508,-622.000,-538.000,-240.500,-310.500
0.509,-623.000,-539.000,-241.000,-310.500
0.510,-624.000,-540.000,-241.000,-310.000
0.511,-625.000,-541.000,-241.000,-310.000
0.512,-626.000,-541.500,-241.000,-310.000
0.513,-627.000,-542.000,-241.000,-309.500
0.514,-627.500,-542.000,-240.500,-309.500
0.515,-628.000,-541.500,-240.000,-309.500
0.516,-628.000,-540.500,-239.500,-310.000
0.517,-627.500,-540.000,-239.500,-310.000
0.518,-627.000,-539.500,-239.000,-309.500
0.519,-626.000,-538.500,-239.000,-309.000
0.520,-625.000,-538.000,-238.500,-308.500
0.521,-623.500,-537.000,-238.500,-308.000
0.522,-622.500,-536.500,-238.500,-307.500
0.523,-621.500,-536.000,-238.500,-307.000
0.524,-621.000,-536.000,-238.500,-307.000
0.525,-621.000,-536.000,-239.000,-307.000
0.526,-621.500,-536.500,-239.000,-307.000
0.527,-622.500,-537.000,-239.500,-307.500
0.528,-623.000,-537.500,-240.000,-307.500
0.529,-624.000,-538.000,-240.000,-307.500
0.530,-624.500,-538.500,-240.000,-307.500
0.531,-625.500,-538.500,-240.500,-307.500
0.532,-625.500,-539.000,-240.500,-307.000
0.533,-626.000,-539.000,-240.500,-306.500
0.534,-626.500,-538.500,-240.000,-306.000
0.535,-626.500,-538.000,-239.500,-305.500
0.536,-626.500,-538.000,-239.000,-305.000
0.537,-626.500,-537.500,-238.000,-304.500
0.538,-627.000,-537.000,-237.000,-304.000
0.539,-627.000,-536.000,-236.500,-303.500
0.540,-627.500,-536.000,-236.000,-303.500
0.541,-627.500,-535.500,-235.500,-303.000
0.542,-628.000,-535.500,-235.500,-303.000
0.543,-628.000,-535.500,-235.000,-302.500
0.544,-628.000,-536.000,-235.000,-302.500
0.545,-628.000,-537.000,-235.500,-302.500
0.546,-628.500,-538.000,-236.000,-302.500
0.547,-628.500,-539.000,-237.500,-303.000
0.548,-629.500,-540.000,-239.000,-303.500
0.549,-630.000,-541.000,-240.000,-304.000
0.550,-630.500,-541.500,-241.000,-304.000
0.551,-630.500,-541.500,-241.500,-303.500
0.552,-630.500,-541.000,-241.500,-302.500
0.553,-630.500,-540.000,-240.500,-301.500
0.554,-630.000,-539.000,-239.500,-301.000
0.555,-629.500,-538.500,-238.500,-300.000
0.556,-629.000,-538.000,-237.500,-299.500
0.557,-629.000,-537.500,-237.000,-299.500
0.558,-629.000,-537.500,-237.000,-299.500
0.559,-629.000,-537.000,-237.000,-300.000
0.560,-629.000,-537.500,-237.000,-300.500
0.561,-629.000,-537.500,-237.000,-300.500
0.562,-629.500,-537.500,-237.000,-300.500
0.563,-629.500,-538.000,-237.000,-300.000
0.564,-629.500,-538.500,-237.000,-300.000
0.565,-630.000,-538.500,-237.000,-300.000
0.566,-630.000,-539.000,-237.500,-300.000
0.567,-630.500,-539.500,-237.500,-300.000
0.568,-631.000,-540.000,-237.500,-300.000
0.569,-631.500,-541.000,-238.000,-299.500
0.570,-632.500,-541.500,-238.500,-299.500
0.571,-633.000,-542.000,-239.000,-300.000
0.572,-633.500,-542.500,-239.500,-300.500
0.573,-633.500,-542.000,-240.000,-301.000
0.574,-634.000,-541.500,-239.500,-301.000
0.575,-633.500,-540.500,-238.500,-301.000
0.576,-633.500,-539.500,-237.500,-301.000
0.577,-633.000,-538.500,-236.500,-300.000
0.578,-632.500,-538.000,-236.000,-299.500
0.579,-632.500,-537.500,-236.000,-298.500
0.580,-632.000,-538.000,-236.500,-298.000
0.581,-632.000,-538.000,-236.500,-297.500
0.582,-632.000,-538.500,-236.500,-297.500
0.583,-632.000,-539.000,-237.000,-297.500
0.584,-632.500,-539.500,-237.000,-298.000
0.585,-633.000,-540.000,-237.000,-298.500
0.586,-633.500,-540.500,-237.000,-298.500
0.587,-634.000,-541.000,-237.000,-298.500
0.588,-634.500,-541.000,-237.500,-298.500
0.589,-635.000,-541.000,-238.000,-298.500
0.590,-635.000,-541.000,-238.000,-298.000
0.591,-635.500,-541.500,-238.500,-297.500
0.592,-635.500,-541.500,-238.500,-297.000
0.593,-635.500,-541.500,-238.000,-296.500
0.594,-635.500,-541.000,-238.000,-296.000
0.595,-635.000,-541.000,-237.500,-296.000
0.596,-635.000,-541.500,-237.000,-295.500
0.597,-635.000,-541.500,-237.000,-295.500
0.598,-635.000,-541.500,-236.500,-295.500
0.599,-635.000,-541.500,-236.500,-295.500
0.600,-635.500,-541.500,-236.500,-295.500
0.601,-636.000,-541.000,-236.000,-295.500
0.602,-636.500,-540.500,-235.500,-295.500
0.603,-636.500,-540.000,-235.500,-295.500
0.604,-637.000,-540.000,-235.500,-295.500
0.605,-637.000,-539.500,-235.500,-295.500
0.606,-636.500,-539.500,-235.500,-296.000
0.607,-636.000,-539.500,-236.000,-296.000
0.608,-636.000,-540.000,-236.500,-296.500
0.609,-636.000,-540.500,-237.000,-296.500
0.610,-636.000,-542.000,-237.500,-297.000
0.611,-636.500,-543.000,-237.500,-297.000
0.612,-637.500,-544.000,-237.500,-297.000
0.613,-638.000,-545.000,-237.500,-297.500
0.614,-639.000,-545.000,-237.500,-297.500
0.615,-639.000,-545.000,-238.000,-297.500
0.616,-639.500,-544.500,-238.000,-297.500
0.617,-639.000,-543.500,-238.000,-297.500
0.618,-638.500,-542.500,-237.500,-297.000
0.619,-637.500,-541.000,-237.000,-297.000
0.620,-636.500,-540.000,-237.000,-297.000
0.621,-635.000,-539.000,-236.500,-297.500
0.622,-634.000,-538.500,-236.000,-297.500
0.623,-633.500,-538.000,-235.500,-297.500
0.624,-633.500,-538.000,-235.500,-297.500
0.625,-634.000,-538.000,-235.500,-297.500
0.626,-634.500,-538.500,-236.000,-298.000
0.627,-635.500,-539.500,-236.000,-298.000
0.628,-636.000,-540.000,-236.500,-298.000
0.629,-636.500,-540.500,-237.000,-298.000
0.630,-637.000,-541.000,-237.000,-298.000
0.631,-637.500,-542.000,-237.000,-298.000
0.632,-637.500,-542.000,-237.000,-297.500
0.633,-638.000,-542.500,-236.500,-297.000
0.634,-638.000,-543.000,-236.000,-296.500
0.635,-638.000,-543.000,-235.500,-296.500
0.636,-638.000,-542.500,-234.500,-296.000
0.637,-637.500,-542.000,-233.500,-295.500
0.638,-637.500,-541.500,-232.500,-295.000
0.639,-637.000,-541.000,-232.000,-295.000
0.640,-637.000,-540.500,-231.500,-294.500
0.641,-637.500,-540.000,-231.000,-294.000
0.642,-637.500,-540.500,-231.500,-293.500
0.643,-637.500,-540.500,-232.000,-293.500
0.644,-638.000,-541.500,-232.500,-293.500
0.645,-638.500,-542.000,-233.500,-293.500
0.646,-639.000,-542.500,-234.000,-294.000
0.647,-640.000,-543.000,-234.000,-294.000
0.648,-640.500,-543.500,-234.000,-294.000
0.649,-641.500,-543.500,-234.000,-294.000
0.650,-642.000,-543.500,-233.500,-293.500
0.651,-642.500,-543.500,-233.500,-293.500
0.652,-642.500,-543.500,-233.000,-293.500
0.653,-642.500,-543.000,-232.500,-293.000
0.654,-642.500,-543.000,-232.500,-293.000
0.655,-642.500,-543.000,-232.000,-292.500
0.656,-642.500,-543.000,-231.500,-292.500
0.657,-642.500,-543.000,-231.000,-292.000
0.658,-642.000,-543.000,-231.000,-292.000
0.659,-641.500,-542.500,-231.000,-292.000
0.660,-641.000,-542.500,-231.000,-292.000
0.661,-641.000,-543.000,-231.000,-292.500
0.662,-641.000,-543.000,-231.500,-293.000
0.663,-641.000,-543.000,-232.000,-293.500
0.664,-641.500,-543.500,-232.500,-294.000
0.665,-642.000,-544.000,-233.000,-294.000
0.666,-642.500,-544.500,-233.500,-294.000
0.667,-643.000,-544.500,-234.000,-293.500
0.668,-643.500,-545.000,-234.000,-293.500
0.669,-644.000,-545.000,-234.000,-293.000
0.670,-644.500,-545.000,-234.000,-292.500
0.671,-645.000,-545.000,-234.000,-292.500
0.672,-645.000,-545.000,-233.500,-291.500
0.673,-645.500,-544.500,-233.000,-291.000
0.674,-645.500,-544.500,-232.500,-290.500
0.675,-645.500,-544.000,-232.000,-290.000
0.676,-645.000,-543.000,-231.000,-289.500
0.677,-645.000,-543.000,-230.000,-289.000
0.678,-644.500,-542.500,-229.500,-289.000
0.679,-644.500,-542.000,-228.500,-288.500
0.680,-644.500,-541.500,-228.000,-288.500
0.681,-644.500,-541.500,-227.500,-288.000
0.682,-644.500,-541.500,-227.000,-288.000
0.683,-645.000,-541.500,-227.500,-288.000
0.684,-645.500,-542.000,-228.000,-288.000
0.685,-646.000,-543.000,-229.000,-288.500
0.686,-647.000,-543.500,-230.000,-288.500
0.687,-647.500,-544.000,-230.500,-289.500
0.688,-648.500,-544.000,-231.000,-290.000
0.689,-649.000,-544.000,-231.000,-290.000
0.690,-649.500,-544.000,-231.000,-290.500
0.691,-650.000,-544.500,-230.500,-290.500
0.692,-650.000,-545.000,-230.500,-290.500
0.693,-650.000,-545.500,-231.000,-290.000
0.694,-649.500,-546.000,-231.000,-289.500
0.695,-649.500,-546.500,-230.500,-288.500
0.696,-649.000,-546.500,-230.000,-287.500
0.697,-648.000,-546.500,-229.000,-286.500
0.698,-647.500,-545.500,-228.000,-286.000
0.699,-647.000,-545.000,-227.000,-285.500
0.700,-646.500,-544.000,-226.500,-285.000
0.701,-646.000,-543.500,-225.500,-284.500
0.702,-646.000,-543.000,-225.000,-284.500
0.703,-646.000,-543.000,-225.000,-284.500
0.704,-646.500,-543.000,-224.500,-284.500
0.705,-647.000,-543.000,-224.500,-284.500
0.706,-647.500,-543.500,-225.000,-285.000
0.707,-648.500,-544.500,-225.000,-285.000
0.708,-649.500,-545.000,-225.000,-285.000
0.709,-650.500,-546.000,-225.000,-285.500
0.710,-651.000,-546.000,-225.000,-285.500
0.711,-652.000,-546.000,-225.000,-285.500
0.712,-652.500,-546.000,-225.000,-285.500
0.713,-653.000,-545.500,-224.500,-285.000
0.714,-653.000,-545.000,-223.500,-284.500
0.715,-652.500,-544.000,-223.000,-284.000
0.716,-651.500,-544.000,-222.000,-284.000
0.717,-650.500,-544.000,-221.500,-284.000
0.718,-649.000,-544.000,-221.500,-284.500
0.719,-648.000,-544.500,-221.500,-284.500
0.720,-647.500,-544.500,-221.500,-284.500
0.721,-647.000,-545.000,-222.000,-284.000
0.722,-647.000,-545.500,-222.500,-284.000
0.723,-647.500,-545.500,-223.000,-283.500
0.724,-648.000,-545.500,-223.500,-283.000
0.725,-648.500,-545.000,-223.500,-282.500
0.726,-648.500,-544.500,-223.000,-281.500
0.727,-648.000,-543.500,-222.500,-281.000
0.728,-647.500,-542.500,-221.500,-280.500
0.729,-646.500,-541.500,-220.500,-280.000
0.730,-646.000,-540.500,-219.500,-279.500
0.731,-645.500,-540.000,-219.000,-279.500
0.732,-645.500,-540.000,-218.500,-279.500
0.733,-645.500,-540.000,-218.500,-279.000
0.734,-646.000,-540.000,-217.500,-279.000
0.735,-646.000,-540.000,-216.500,-278.000
0.736,-646.500,-539.500,-215.500,-277.500
0.737,-646.000,-539.500,-214.000,-276.500
0.738,-646.000,-539.000,-213.500,-276.000
0.739,-646.000,-539.000,-213.000,-275.500
0.740,-645.500,-538.500,-212.500,-275.000
0.741,-645.500,-538.500,-213.000,-275.000
0.742,-645.500,-539.000,-213.000,-275.500
0.743,-645.500,-539.500,-214.000,-275.500
0.744,-646.000,-540.000,-214.500,-276.000
0.745,-646.500,-540.500,-215.000,-276.500
0.746,-647.000,-541.000,-215.500,-277.000
0.747,-647.500,-541.500,-215.500,-277.000
0.748,-648.000,-541.500,-215.000,-276.500
0.749,-648.500,-541.500,-214.500,-276.000
0.750,-649.000,-541.500,-214.500,-275.500
0.751,-649.000,-541.500,-214.000,-275.000
0.752,-649.500,-541.500,-213.000,-274.500
0.753,-649.500,-541.000,-212.500,-273.500
0.754,-649.000,-541.000,-211.500,-272.500
0.755,-648.500,-540.500,-211.000,-272.000
0.756,-648.000,-540.000,-210.000,-271.000
0.757,-647.500,-539.000,-209.000,-270.500
0.758,-647.000,-538.500,-208.500,-270.000
0.759,-647.000,-538.500,-208.000,-269.500
0.760,-646.500,-538.000,-207.500,-269.500
0.761,-646.500,-538.000,-207.500,-269.500
0.762,-646.500,-538.500,-207.500,-269.500
0.763,-646.500,-538.500,-208.000,-270.000
0.764,-647.000,-539.000,-208.500,-270.500
0.765,-647.500,-539.000,-209.000,-271.500
0.766,-648.000,-539.500,-209.500,-272.500
0.767,-649.000,-539.500,-210.000,-273.500
0.768,-649.500,-540.000,-210.500,-274.500
0.769,-650.000,-540.500,-211.500,-275.500
0.770,-650.500,-541.000,-212.000,-276.000
0.771,-651.000,-541.000,-212.500,-275.500
0.772,-651.000,-541.500,-212.500,-275.000
0.773,-650.500,-541.500,-212.000,-274.000
0.774,-650.000,-541.500,-211.000,-273.000
0.775,-649.000,-541.500,-210.000,-272.000
0.776,-648.000,-541.500,-209.500,-271.500
0.777,-647.500,-541.500,-208.500,-270.500
0.778,-647.000,-541.000,-208.000,-270.000
0.779,-646.500,-541.000,-207.500,-269.500
0.780,-646.500,-540.500,-207.000,-269.500
0.781,-646.500,-540.500,-207.000,-269.500
0.782,-646.500,-541.000,-207.000,-269.500
0.783,-646.000,-541.000,-207.500,-269.500
0.784,-646.500,-541.500,-207.500,-270.000
0.785,-646.500,-541.500,-208.000,-270.000
0.786,-647.000,-541.500,-208.000,-270.000
0.787,-647.500,-541.500,-208.500,-270.000
0.788,-648.000,-541.500,-208.500,-270.000
0.789,-648.500,-541.500,-208.000,-270.000
0.790,-649.000,-541.500,-208.000,-269.500
0.791,-649.000,-541.500,-207.500,-269.500
0.792,-649.000,-541.500,-207.500,-269.500
0.793,-649.000,-541.000,-207.000,-269.000
0.794,-649.000,-541.000,-207.000,-269.000
0.795,-649.000,-540.500,-206.500,-268.500
0.796,-648.500,-540.500,-206.500,-268.500
0.797,-648.000,-540.500,-206.500,-268.500
0.798,-647.500,-540.500,-206.500,-268.500
0.799,-647.000,-540.000,-206.500,-269.000
0.800,-647.000,-540.000,-206.000,-269.000
0.801,-646.500,-539.500,-205.500,-269.000
0.802,-646.500,-539.000,-205.000,-269.000
0.803,-646.500,-538.000,-204.000,-269.500
0.804,-646.500,-537.000,-203.000,-269.500
0.805,-647.000,-536.500,-202.500,-270.000
0.806,-647.500,-536.500,-203.000,-270.000
0.807,-648.000,-537.500,-203.500,-270.500
0.808,-648.500,-538.500,-205.000,-270.500
0.809,-649.000,-540.000,-206.500,-270.500
0.810,-650.000,-541.500,-207.500,-270.000
0.811,-650.500,-543.500,-208.500,-270.000
0.812,-651.000,-545.000,-209.000,-269.500
0.813,-651.500,-545.500,-209.000,-269.000
0.814,-652.000,-546.000,-208.500,-269.000
0.815,-652.000,-545.500,-208.000,-269.000
0.816,-652.500,-545.000,-207.000,-268.500
0.817,-652.500,-544.000,-206.000,-269.000
0.818,-652.500,-543.000,-206.000,-269.000
0.819,-652.000,-542.500,-206.000,-270.000
0.820,-652.000,-543.000,-206.500,-270.500
0.821,-651.500,-543.500,-207.500,-272.000
0.822,-651.000,-544.000,-208.500,-273.000
0.823,-651.000,-545.500,-209.500,-274.000
0.824,-651.500,-546.500,-210.500,-275.000
0.825,-652.000,-547.500,-210.500,-275.000
0.826,-653.000,-548.000,-211.000,-275.000
0.827,-654.500,-548.500,-211.000,-274.500
0.828,-656.000,-548.500,-211.000,-274.500
0.829,-657.500,-548.500,-211.000,-274.000
0.830,-658.500,-548.000,-211.500,-274.000
0.831,-659.500,-547.500,-211.000,-273.500
0.832,-659.500,-547.000,-211.000,-273.000
0.833,-659.500,-547.000,-210.500,-272.000
0.834,-659.000,-546.500,-209.500,-271.000
0.835,-658.000,-546.500,-208.500,-269.500
0.836,-657.000,-546.000,-207.500,-267.500
0.837,-656.000,-545.500,-205.500,-265.500
0.838,-655.000,-544.500,-204.000,-263.500
0.839,-654.000,-543.000,-202.000,-261.000
0.840,-653.500,-541.500,-200.000,-259.000
0.841,-652.500,-539.500,-198.000,-257.000
0.842,-651.500,-538.000,-196.000,-255.000
0.843,-651.000,-536.500,-194.500,-254.000
0.844,-650.500,-535.000,-193.500,-253.000
0.845,-649.500,-534.500,-192.000,-252.500
0.846,-649.000,-533.500,-191.000,-252.000
0.847,-649.000,-533.000,-190.500,-252.000
0.848,-648.500,-532.500,-190.000,-251.500
0.849,-648.000,-531.500,-189.500,-251.000
0.850,-647.500,-531.000,-188.500,-250.500
0.851,-647.000,-530.000,-187.500,-249.500
0.852,-646.000,-529.000,-186.500,-248.500
0.853,-645.000,-528.500,-185.500,-247.500
0.854,-644.000,-527.500,-184.500,-246.500
0.855,-643.000,-527.000,-183.500,-246.000
0.856,-641.500,-526.000,-182.500,-245.000
0.857,-640.500,-525.000,-181.500,-245.000
0.858,-640.000,-524.500,-181.000,-245.500
0.859,-639.000,-524.500,-181.000,-246.000
0.860,-639.000,-524.500,-181.500,-247.000
0.861,-639.000,-524.500,-182.000,-248.500
0.862,-639.000,-525.000,-183.000,-250.000
0.863,-639.000,-525.500,-184.000,-251.500
0.864,-639.000,-526.500,-185.000,-252.500
0.865,-639.500,-527.000,-185.500,-253.000
0.866,-640.000,-527.500,-186.000,-253.500
0.867,-640.500,-528.000,-186.500,-253.500
0.868,-641.500,-528.500,-187.000,-254.000
0.869,-642.500,-529.000,-187.500,-254.500
0.870,-643.000,-529.000,-188.000,-255.000
0.871,-644.000,-529.500,-189.000,-256.000
0.872,-644.500,-530.500,-190.000,-257.500
0.873,-645.500,-531.000,-191.000,-258.500
0.874,-646.000,-532.000,-192.000,-259.500
0.875,-646.500,-532.500,-192.000,-259.500
0.876,-646.500,-533.000,-192.000,-259.500
0.877,-646.500,-533.500,-192.000,-259.500
0.878,-646.500,-533.500,-192.000,-259.000
0.879,-646.000,-534.000,-192.000,-258.500
0.880,-646.000,-534.000,-192.000,-258.000
0.881,-646.000,-534.000,-192.000,-257.500
0.882,-646.000,-534.500,-192.000,-257.500
0.883,-646.000,-535.000,-192.500,-257.500
0.884,-646.500,-536.000,-193.000,-257.500
0.885,-647.000,-536.500,-193.500,-258.500
0.886,-648.000,-536.500,-194.000,-259.000
0.887,-648.500,-537.000,-194.500,-259.500
0.888,-649.500,-537.000,-194.500,-259.500
0.889,-650.000,-536.500,-194.000,-259.500
0.890,-650.500,-536.500,-194.000,-259.000
0.891,-650.500,-536.500,-194.000,-259.000
0.892,-651.000,-536.500,-194.000,-258.500
0.893,-651.500,-537.000,-194.500,-258.500
0.894,-651.500,-537.000,-194.500,-259.000
0.895,-651.500,-537.500,-195.000,-259.500
0.896,-651.500,-537.500,-195.500,-260.000
0.897,-651.000,-537.500,-195.500,-260.000
0.898,-650.500,-537.500,-195.000,-259.500
0.899,-650.000,-537.000,-194.500,-259.000
0.900,-650.000,-537.000,-193.500,-258.500
0.901,-650.000,-537.000,-193.000,-258.000
0.902,-650.000,-536.500,-192.500,-258.000
0.903,-650.000,-536.500,-192.500,-257.500
0.904,-650.500,-536.500,-192.500,-258.000
0.905,-651.000,-537.000,-192.500,-258.500
0.906,-652.000,-537.000,-192.500,-259.000
0.907,-652.500,-537.000,-192.500,-259.500
0.908,-653.500,-537.500,-193.000,-260.000
0.909,-654.000,-538.000,-193.000,-260.000
0.910,-655.000,-538.500,-193.500,-260.500
0.911,-656.000,-539.500,-194.500,-261.000
0.912,-656.500,-540.000,-195.000,-261.000
0.913,-657.000,-541.000,-195.500,-261.000
0.914,-657.500,-541.500,-195.500,-261.000
0.915,-657.500,-541.500,-195.000,-260.000
0.916,-657.500,-541.500,-194.000,-259.500
0.917,-657.500,-541.500,-193.500,-258.500
0.918,-657.000,-541.500,-192.500,-258.000
0.919,-656.500,-541.500,-192.000,-257.500
0.920,-656.000,-541.500,-191.500,-257.000
0.921,-655.000,-541.000,-191.500,-257.000
0.922,-654.500,-541.000,-191.500,-257.000
0.923,-654.000,-540.500,-191.500,-257.000
0.924,-653.500,-540.000,-191.500,-257.000
0.925,-653.500,-539.500,-191.500,-257.000
0.926,-653.000,-538.500,-191.000,-257.500
0.927,-653.000,-537.500,-191.000,-257.500
0.928,-652.500,-536.500,-191.000,-258.000
0.929,-652.000,-536.000,-191.500,-258.500
0.930,-651.500,-535.500,-192.500,-258.500
0.931,-651.000,-536.000,-193.500,-259.000
0.932,-651.000,-536.000,-194.000,-258.500
0.933,-651.000,-536.500,-194.500,-258.500
0.934,-651.500,-537.000,-194.500,-258.000
0.935,-651.500,-537.500,-193.500,-257.000
0.936,-651.500,-537.000,-192.500,-256.500
0.937,-651.000,-536.500,-191.000,-255.500
0.938,-651.000,-535.500,-189.000,-255.000
0.939,-650.500,-534.500,-187.500,-254.500
0.940,-650.000,-534.000,-186.500,-254.000
0.941,-650.000,-533.500,-186.000,-254.000
0.942,-650.500,-533.500,-186.500,-254.000
0.943,-650.500,-534.000,-187.000,-254.000
0.944,-651.000,-534.500,-187.500,-254.000
0.945,-651.500,-535.000,-188.500,-254.500
0.946,-652.000,-536.000,-189.000,-255.000
0.947,-653.000,-536.500,-190.000,-255.000
0.948,-653.500,-537.500,-190.500,-255.500
0.949,-654.000,-538.000,-191.000,-256.000
0.950,-654.500,-538.500,-192.000,-256.500
0.951,-654.500,-539.000,-192.500,-257.000
0.952,-655.000,-539.000,-193.000,-257.000
0.953,-655.000,-539.000,-193.000,-257.000
0.954,-655.000,-538.500,-192.500,-256.500
0.955,-655.000,-538.000,-191.500,-256.000
0.956,-655.000,-537.500,-190.500,-255.500
0.957,-654.500,-537.000,-189.500,-255.000
0.958,-654.500,-536.500,-188.500,-254.500
0.959,-654.500,-536.000,-188.000,-254.500
0.960,-654.000,-536.000,-188.000,-254.500
0.961,-654.000,-535.500,-187.500,-254.500
0.962,-654.000,-535.500,-187.500,-255.000
0.963,-654.500,-536.000,-187.500,-255.000
0.964,-654.500,-536.000,-188.000,-255.500
0.965,-655.000,-536.500,-188.500,-256.000
0.966,-656.000,-537.000,-189.500,-256.000
0.967,-656.500,-537.500,-190.000,-256.500
0.968,-656.500,-538.000,-191.000,-257.000
0.969,-657.000,-538.000,-191.500,-256.500
0.970,-657.500,-538.500,-191.500,-256.500
0.971,-657.500,-538.500,-191.500,-256.000
0.972,-657.500,-538.500,-191.500,-255.000
0.973,-657.500,-538.500,-190.500,-254.000
0.974,-657.500,-538.500,-190.000,-253.500
0.975,-657.500,-538.500,-189.500,-252.500
0.976,-657.000,-538.500,-189.000,-252.500
0.977,-657.000,-538.000,-189.000,-252.000
0.978,-656.500,-537.500,-189.000,-252.000
0.979,-656.000,-537.500,-189.000,-252.000
0.980,-656.000,-537.000,-188.500,-251.500
0.981,-656.000,-536.500,-187.500,-251.000
0.982,-655.500,-536.000,-187.000,-251.000
0.983,-656.000,-536.000,-187.000,-251.000
0.984,-656.000,-536.000,-187.000,-251.000
0.985,-656.500,-536.500,-188.000,-251.500
0.986,-657.000,-537.000,-188.500,-252.000
0.987,-657.500,-537.500,-189.500,-253.000
0.988,-658.000,-538.000,-190.500,-254.000
0.989,-658.500,-538.500,-191.000,-254.000
0.990,-658.500,-538.500,-191.500,-254.000
0.991,-659.000,-538.500,-191.500,-254.000
0.992,-659.000,-538.500,-191.000,-254.000
0.993,-659.000,-538.500,-191.000,-253.500
0.994,-659.000,-538.500,-190.500,-253.000
0.995,-659.000,-538.500,-190.000,-253.000
0.996,-659.000,-538.000,-190.000,-252.500
0.997,-658.500,-538.000,-189.500,-252.500
0.998,-658.500,-537.500,-189.000,-252.500
0.999,-658.500,-537.000,-188.500,-252.000
1.000,-658.500,-536.500,-188.000,-251.500
1.001,-658.500,-536.500,-187.000,-251.000
1.002,-658.500,-536.500,-186.500,-250.500
1.003,-658.500,-537.000,-186.000,-250.000
1.004,-658.500,-537.500,-185.500,-250.000
1.005,-659.000,-537.500,-185.500,-250.000
1.006,-659.000,-538.000,-186.000,-250.000
1.007,-659.500,-538.000,-186.000,-250.500
1.008,-659.500,-537.500,-186.000,-250.500
1.009,-659.000,-537.000,-186.000,-250.500
1.010,-659.000,-536.500,-186.000,-250.500
1.011,-659.000,-536.000,-185.500,-250.500
1.012,-658.500,-535.500,-185.500,-250.000
1.013,-658.000,-535.000,-185.000,-250.000
1.014,-657.500,-534.500,-185.000,-249.500
1.015,-657.000,-534.000,-184.000,-249.000
1.016,-656.500,-533.500,-183.500,-248.500
1.017,-656.000,-532.500,-182.500,-248.000
1.018,-655.500,-532.000,-182.000,-247.500
1.019,-655.000,-531.500,-181.000,-247.000
1.020,-654.500,-531.000,-181.000,-247.000
1.021,-654.500,-530.500,-180.500,-246.500
1.022,-654.500,-530.500,-180.500,-247.000
1.023,-654.500,-530.500,-181.000,-247.500
1.024,-655.000,-531.500,-182.000,-248.500
1.025,-656.000,-532.500,-182.500,-249.000
1.026,-656.500,-534.000,-184.000,-249.500
1.027,-657.500,-535.500,-185.000,-249.500
1.028,-658.500,-536.500,-185.500,-249.500
1.029,-659.500,-537.500,-186.500,-249.500
1.030,-660.500,-538.500,-187.000,-249.500
1.031,-661.500,-539.000,-187.000,-249.000
1.032,-662.500,-539.500,-187.000,-249.000
1.033,-663.000,-539.000,-186.500,-248.500
1.034,-662.500,-538.500,-186.000,-248.000
1.035,-662.000,-537.000,-185.500,-247.000
1.036,-660.500,-535.500,-184.500,-246.500
1.037,-659.000,-533.500,-184.000,-246.000
1.038,-657.000,-531.500,-182.500,-245.000
1.039,-655.500,-530.000,-181.500,-244.500
1.040,-654.000,-528.000,-180.500,-244.000
1.041,-652.500,-526.500,-179.000,-243.500
1.042,-651.500,-525.000,-177.500,-243.000
1.043,-651.000,-524.500,-177.000,-242.500
1.044,-651.000,-524.000,-176.500,-242.500
1.045,-651.500,-524.500,-177.500,-242.500
1.046,-652.000,-525.500,-179.000,-242.500
1.047,-653.000,-527.000,-180.500,-243.000
1.048,-654.000,-528.000,-181.500,-243.000
1.049,-654.500,-529.000,-182.000,-243.000
1.050,-654.500,-530.000,-182.500,-243.000
1.051,-655.000,-530.500,-182.000,-242.500
1.052,-655.000,-530.500,-181.000,-242.000
1.053,-655.000,-530.000,-180.500,-241.500
1.054,-655.000,-529.500,-179.000,-241.500
1.055,-655.000,-529.000,-178.000,-241.000
1.056,-655.000,-528.500,-177.500,-240.500
1.057,-654.500,-528.000,-177.000,-240.000
1.058,-654.000,-528.000,-176.500,-240.000
1.059,-654.000,-528.000,-176.500,-239.500
1.060,-653.500,-528.000,-177.000,-240.000
1.061,-653.500,-528.000,-177.000,-240.000
1.062,-653.500,-528.500,-177.500,-240.500
1.063,-653.500,-529.000,-178.500,-241.000
1.064,-654.000,-529.500,-179.500,-241.000
1.065,-654.500,-530.000,-180.500,-241.000
1.066,-655.000,-530.500,-181.000,-241.000
1.067,-656.000,-531.000,-182.000,-241.500
1.068,-656.500,-531.500,-182.500,-241.500
1.069,-657.000,-531.500,-182.500,-242.000
1.070,-657.500,-531.500,-182.500,-242.000
1.071,-657.500,-531.500,-182.500,-242.500
1.072,-657.500,-531.500,-182.500,-242.500
1.073,-657.500,-531.000,-182.500,-243.000
1.074,-657.500,-531.000,-182.500,-242.500
1.075,-657.000,-530.500,-182.000,-242.000
1.076,-657.000,-530.000,-181.000,-241.500
1.077,-656.500,-529.500,-180.000,-240.500
1.078,-656.000,-529.000,-179.000,-239.500
1.079,-656.000,-528.500,-179.000,-239.000
1.080,-656.000,-528.500,-178.500,-239.000
1.081,-655.500,-528.500,-178.500,-238.500
1.082,-655.500,-528.500,-178.500,-238.500
1.083,-655.000,-528.000,-178.500,-238.500
1.084,-655.000,-528.500,-178.500,-238.500
1.085,-655.500,-528.500,-178.500,-239.000
1.086,-655.500,-529.000,-178.500,-239.000
1.087,-655.500,-529.500,-179.000,-239.500
1.088,-656.000,-530.000,-179.500,-239.500
1.089,-656.000,-530.500,-180.000,-240.000
1.090,-656.000,-531.000,-180.500,-240.500
1.091,-656.000,-531.000,-181.000,-240.500
1.092,-656.000,-531.000,-181.000,-240.500
1.093,-656.000,-530.500,-181.000,-240.500
1.094,-655.500,-530.000,-180.500,-240.500
1.095,-655.000,-529.500,-180.000,-241.000
1.096,-655.000,-529.000,-180.000,-241.000
1.097,-654.500,-529.000,-179.500,-241.000
1.098,-653.500,-528.500,-179.500,-241.000
1.099,-653.000,-528.500,-179.500,-240.500
1.100,-653.000,-528.500,-180.000,-240.000
1.101,-652.500,-528.500,-180.000,-240.000
1.102,-652.500,-528.500,-180.500,-239.500
1.103,-652.500,-528.500,-180.500,-239.500
1.104,-652.500,-528.500,-180.500,-239.000
1.105,-653.000,-529.000,-181.000,-239.000
1.106,-653.000,-529.000,-181.000,-239.000
1.107,-653.500,-529.000,-180.500,-238.500
1.108,-654.000,-529.000,-180.500,-238.500
1.109,-654.500,-529.000,-180.500,-238.000
1.110,-655.000,-529.500,-180.500,-237.500
1.111,-655.500,-529.000,-180.000,-237.500
1.112,-655.500,-529.000,-180.000,-237.500
1.113,-655.500,-529.000,-180.000,-237.000
1.114,-655.500,-528.500,-179.500,-237.000
1.115,-655.000,-528.000,-179.500,-237.000
1.116,-654.500,-528.000,-180.000,-237.500
1.117,-654.500,-528.000,-180.000,-238.000
1.118,-654.000,-528.000,-180.500,-238.000
1.119,-653.500,-528.000,-180.500,-238.000
1.120,-653.000,-527.500,-180.000,-237.500
1.121,-652.500,-527.500,-179.500,-237.000
1.122,-652.500,-527.000,-179.000,-236.000
1.123,-652.000,-527.000,-178.500,-235.500
1.124,-652.000,-527.000,-178.500,-235.000
1.125,-652.500,-527.000,-178.500,-235.000
1.126,-653.000,-527.500,-179.500,-235.000
1.127,-653.500,-527.500,-180.000,-235.500
1.128,-654.000,-528.000,-180.500,-235.500
1.129,-655.000,-528.000,-181.000,-236.000
1.130,-655.500,-528.000,-181.000,-236.000
1.131,-655.500,-528.000,-180.500,-235.500
1.132,-656.000,-528.000,-180.000,-235.500
1.133,-655.500,-527.500,-180.000,-235.000
1.134,-655.500,-527.500,-179.500,-235.000
1.135,-655.000,-527.500,-179.500,-235.000
1.136,-654.500,-527.000,-179.500,-235.500
1.137,-654.000,-527.000,-179.500,-235.500
1.138,-654.000,-527.000,-179.500,-236.000
1.139,-653.500,-526.500,-179.000,-236.000
1.140,-653.000,-526.000,-178.000,-235.500
1.141,-653.000,-525.000,-177.500,-235.000
1.142,-652.500,-524.500,-176.500,-235.000
1.143,-652.000,-523.500,-176.000,-235.000
1.144,-652.000,-523.500,-176.000,-235.000
1.145,-652.500,-523.500,-176.500,-235.500
1.146,-653.000,-524.000,-177.500,-236.000
1.147,-653.500,-525.000,-179.000,-236.000
1.148,-654.000,-526.000,-180.500,-236.000
1.149,-654.500,-527.000,-181.000,-235.500
1.150,-655.000,-527.500,-181.500,-234.500
1.151,-655.000,-528.500,-181.500,-234.000
1.152,-655.000,-528.500,-181.500,-233.000
1.153,-655.000,-528.500,-181.000,-232.500
1.154,-654.500,-528.000,-180.000,-232.000
1.155,-654.000,-527.500,-179.500,-231.500
1.156,-653.500,-526.500,-178.500,-231.000
1.157,-653.000,-525.500,-177.500,-230.000
1.158,-652.500,-524.500,-176.500,-229.500
1.159,-652.500,-524.000,-175.500,-229.500
1.160,-652.000,-523.500,-175.000,-229.000
1.161,-652.000,-523.000,-175.000,-229.000
1.162,-651.500,-523.000,-174.500,-229.000
1.163,-651.500,-522.500,-174.000,-229.000
1.164,-651.500,-522.500,-174.000,-229.000
1.165,-652.000,-522.500,-174.000,-229.000
1.166,-652.500,-523.000,-174.500,-229.000
1.167,-653.000,-523.000,-174.500,-229.000
1.168,-653.500,-524.000,-175.500,-229.500
1.169,-654.000,-525.000,-176.000,-230.000
1.170,-655.000,-526.000,-177.500,-230.500
1.171,-655.500,-527.000,-178.500,-231.000
1.172,-656.000,-528.000,-179.000,-231.500
1.173,-656.500,-528.500,-179.000,-231.000
1.174,-656.500,-528.000,-178.500,-230.500
1.175,-656.000,-527.000,-177.500,-230.000
1.176,-655.500,-526.000,-176.500,-229.000
1.177,-655.000,-524.500,-175.500,-228.000
1.178,-654.000,-523.000,-174.000,-227.500
1.179,-653.000,-521.500,-173.500,-227.000
1.180,-651.500,-520.000,-172.500,-227.000
1.181,-650.500,-518.000,-171.500,-226.500
1.182,-650.000,-517.000,-170.500,-226.000
1.183,-649.500,-516.000,-170.000,-225.500
1.184,-649.500,-516.500,-170.000,-225.000
1.185,-650.000,-517.500,-170.500,-225.000
1.186,-651.000,-519.000,-171.500,-225.000
1.187,-652.000,-521.000,-173.000,-225.500
1.188,-653.500,-522.500,-174.000,-225.500
1.189,-654.500,-523.500,-174.500,-225.000
1.190,-655.500,-524.000,-174.500,-225.000
1.191,-655.500,-524.000,-174.500,-224.500
1.192,-655.500,-523.000,-174.000,-224.500
1.193,-654.500,-521.500,-173.500,-224.000
1.194,-653.000,-520.000,-172.500,-224.000
1.195,-651.500,-519.000,-172.000,-223.500
1.196,-650.000,-517.500,-171.500,-223.500
1.197,-648.500,-516.500,-171.000,-223.000
1.198,-647.500,-516.000,-170.500,-222.000
1.199,-646.500,-515.500,-169.500,-221.500
1.200,-646.000,-515.000,-169.000,-221.000
1.201,-646.000,-515.000,-168.500,-220.500
1.202,-646.000,-515.000,-168.500,-220.000
1.203,-646.500,-515.000,-168.000,-220.000
1.204,-646.500,-515.000,-168.000,-220.000
1.205,-647.000,-515.500,-168.500,-220.000
1.206,-647.500,-516.000,-168.500,-220.000
1.207,-648.000,-516.500,-169.500,-220.500
1.208,-648.500,-517.000,-169.500,-220.500
1.209,-649.000,-517.000,-170.000,-221.000
1.210,-650.000,-517.500,-170.500,-221.000
1.211,-650.000,-517.500,-170.500,-221.000
1.212,-650.500,-518.000,-171.000,-221.500
1.213,-650.500,-518.000,-171.000,-221.500
1.214,-650.500,-518.500,-171.500,-222.000
1.215,-650.500,-518.500,-171.500,-222.500
1.216,-650.500,-518.000,-171.000,-223.000
1.217,-650.000,-518.000,-171.000,-223.000
1.218,-650.000,-518.000,-170.500,-223.000
1.219,-649.500,-517.500,-170.000,-222.500
1.220,-649.500,-517.500,-169.500,-222.000
1.221,-649.000,-517.000,-169.500,-221.500
1.222,-648.500,-517.000,-169.000,-221.000
1.223,-648.500,-517.000,-169.000,-220.500
1.224,-648.500,-517.000,-168.500,-220.500
1.225,-648.500,-517.000,-168.500,-220.000
1.226,-648.500,-517.000,-168.000,-219.500
1.227,-648.500,-517.500,-167.500,-219.000
1.228,-648.500,-517.500,-167.500,-219.000
1.229,-648.000,-518.000,-167.500,-218.500
1.230,-647.500,-518.500,-167.500,-218.000
1.231,-647.500,-519.000,-167.500,-218.000
1.232,-647.500,-519.000,-167.500,-217.500
1.233,-647.000,-519.000,-167.000,-217.000
1.234,-647.000,-518.500,-166.000,-216.500
1.235,-646.500,-518.000,-164.500,-216.000
1.236,-646.000,-517.500,-163.000,-215.000
1.237,-645.500,-517.000,-162.000,-214.500
1.238,-645.000,-516.500,-161.000,-214.000
1.239,-645.000,-515.500,-160.500,-214.000
1.240,-644.500,-515.500,-160.500,-214.000
1.241,-644.000,-515.000,-160.500,-214.000
1.242,-644.000,-514.500,-160.500,-214.000
1.243,-643.500,-514.500,-160.000,-214.000
1.244,-643.500,-514.000,-160.000,-214.000
1.245,-643.500,-514.000,-159.500,-214.500
1.246,-643.500,-513.500,-159.500,-215.000
1.247,-643.500,-513.500,-159.500,-215.500
1.248,-644.000,-513.500,-160.000,-215.500
1.249,-644.500,-514.000,-160.500,-215.500
1.250,-644.500,-514.500,-160.500,-215.500
1.251,-645.000,-515.000,-161.000,-215.000
1.252,-645.000,-516.000,-161.000,-214.500
1.253,-645.000,-516.000,-161.000,-214.500
1.254,-644.500,-516.500,-160.500,-214.000
1.255,-644.000,-516.000,-159.500,-213.500
1.256,-643.500,-515.500,-158.500,-213.000
1.257,-643.500,-515.000,-158.000,-213.000
1.258,-643.000,-514.500,-157.500,-213.000
1.259,-643.000,-514.500,-157.000,-212.500
1.260,-642.500,-514.000,-156.500,-212.500
1.261,-642.000,-514.000,-156.000,-212.500
1.262,-641.500,-514.000,-156.000,-212.500
1.263,-641.500,-514.000,-156.000,-213.000
1.264,-641.000,-513.500,-155.500,-213.000
1.265,-641.000,-513.500,-155.500,-213.000
1.266,-641.500,-513.500,-155.000,-212.500
1.267,-642.000,-513.000,-155.000,-212.500
1.268,-642.000,-513.000,-155.000,-213.000
1.269,-642.500,-513.000,-155.000,-213.000
1.270,-643.000,-513.000,-155.000,-213.500
1.271,-643.500,-513.000,-155.500,-214.000
1.272,-643.500,-513.000,-156.000,-214.500
1.273,-643.500,-513.000,-156.000,-214.500
1.274,-643.000,-513.000,-156.500,-215.000
1.275,-642.500,-513.000,-156.500,-214.500
1.276,-642.000,-513.500,-156.500,-214.500
1.277,-641.500,-513.500,-156.500,-214.000
1.278,-641.000,-513.500,-156.500,-214.000
1.279,-640.000,-513.500,-157.000,-214.000
1.280,-639.500,-513.500,-156.500,-213.500
1.281,-639.500,-513.500,-156.500,-213.500
1.282,-639.000,-513.500,-156.000,-213.000
1.283,-639.000,-513.500,-155.000,-212.500
1.284,-639.500,-513.500,-155.000,-212.000
1.285,-639.500,-513.500,-154.500,-212.000
1.286,-639.500,-513.000,-154.500,-211.500
1.287,-639.500,-513.000,-154.500,-211.500
1.288,-640.000,-513.000,-154.000,-211.500
1.289,-640.000,-513.000,-154.000,-211.500
1.290,-640.000,-513.000,-154.000,-211.500
1.291,-640.000,-512.500,-154.000,-211.500
1.292,-639.500,-512.000,-154.000,-211.500
1.293,-639.500,-512.000,-153.500,-211.000
1.294,-639.500,-511.500,-152.500,-210.500
1.295,-639.000,-511.000,-152.000,-210.000
1.296,-639.000,-510.500,-151.500,-210.000
1.297,-638.500,-510.000,-151.000,-209.500
1.298,-638.000,-510.000,-150.500,-209.500
1.299,-637.500,-509.500,-150.000,-209.500
1.300,-637.000,-509.500,-149.500,-209.000
1.301,-636.500,-509.000,-149.500,-209.000
1.302,-636.500,-509.500,-149.000,-209.000
1.303,-636.500,-509.500,-149.000,-209.000
1.304,-636.500,-510.000,-149.500,-209.500
1.305,-636.500,-510.500,-149.500,-209.500
1.306,-637.000,-511.000,-149.500,-209.500
1.307,-637.500,-511.000,-149.500,-209.000
1.308,-638.500,-511.500,-149.500,-208.500
1.309,-639.000,-512.000,-149.000,-208.500
1.310,-639.500,-512.000,-149.000,-208.500
1.311,-640.000,-512.000,-148.500,-208.500
1.312,-640.000,-512.000,-148.000,-208.500
1.313,-640.000,-511.500,-147.500,-208.500
1.314,-639.500,-511.000,-147.000,-208.000
1.315,-639.000,-510.500,-147.000,-208.000
1.316,-638.500,-510.000,-146.500,-207.500
1.317,-638.000,-510.000,-146.500,-207.500
1.318,-637.500,-510.500,-146.500,-207.500
1.319,-637.000,-510.500,-147.000,-207.500
1.320,-637.000,-511.000,-147.500,-207.500
1.321,-636.500,-512.000,-147.500,-208.000
1.322,-636.500,-512.500,-148.000,-208.500
1.323,-636.500,-513.000,-148.500,-209.000
1.324,-637.000,-513.500,-149.500,-210.000
1.325,-638.000,-514.500,-150.500,-211.000
1.326,-638.500,-515.500,-151.000,-212.000
1.327,-639.000,-516.000,-152.000,-212.500
1.328,-640.000,-516.500,-152.000,-213.000
1.329,-640.500,-517.000,-152.000,-212.500
1.330,-640.500,-517.000,-151.500,-212.000
1.331,-640.500,-517.000,-150.500,-211.500
1.332,-641.000,-517.000,-149.500,-211.000
1.333,-641.000,-517.000,-149.000,-210.500
1.334,-641.500,-517.500,-148.500,-210.000
1.335,-641.500,-518.500,-148.000,-209.500
1.336,-642.000,-519.000,-147.500,-209.000
1.337,-642.500,-519.500,-147.000,-208.500
1.338,-643.500,-519.500,-146.500,-208.000
1.339,-644.000,-519.500,-146.000,-207.000
1.340,-644.000,-518.500,-145.000,-205.500
1.341,-644.500,-517.500,-144.000,-204.500
1.342,-644.000,-516.000,-142.500,-202.500
1.343,-643.500,-514.500,-141.500,-201.000
1.344,-642.500,-513.000,-140.500,-199.000
1.345,-641.000,-511.500,-139.000,-197.500
1.346,-639.500,-510.000,-137.500,-196.000
1.347,-638.000,-508.500,-136.000,-194.000
1.348,-636.500,-507.500,-134.500,-192.500
1.349,-635.500,-507.000,-133.000,-191.500
1.350,-634.500,-506.000,-131.500,-190.000
1.351,-633.500,-505.000,-130.500,-188.500
1.352,-632.500,-503.500,-129.500,-187.500
1.353,-631.500,-502.000,-128.500,-186.500
1.354,-630.000,-500.500,-127.000,-185.000
1.355,-628.500,-498.500,-125.500,-184.000
1.356,-627.000,-496.500,-124.000,-183.000
1.357,-625.500,-495.000,-122.500,-182.000
1.358,-624.000,-493.500,-121.000,-181.500
1.359,-623.000,-492.500,-120.000,-181.500
1.360,-622.000,-491.500,-119.000,-181.500
1.361,-621.500,-491.500,-119.000,-182.000
1.362,-621.000,-491.500,-119.500,-183.000
1.363,-620.500,-492.000,-120.000,-183.500
1.364,-620.000,-493.000,-121.000,-184.000
1.365,-620.000,-494.000,-122.000,-185.000
1.366,-620.000,-495.000,-123.000,-185.500
1.367,-620.000,-496.500,-124.500,-186.500
1.368,-620.000,-498.000,-126.000,-187.500
1.369,-620.500,-499.000,-127.000,-188.500
1.370,-621.000,-499.500,-128.000,-189.500
1.371,-621.500,-499.500,-128.000,-190.000
1.372,-621.500,-499.500,-128.500,-191.000
1.373,-622.000,-500.000,-128.500,-191.000
1.374,-622.000,-500.000,-128.500,-191.500
1.375,-622.000,-500.000,-128.500,-192.000
1.376,-622.000,-500.500,-129.000,-192.500
1.377,-622.000,-501.000,-130.000,-193.500
1.378,-622.500,-502.000,-131.000,-194.000
1.379,-623.000,-502.500,-132.000,-195.000
1.380,-623.000,-503.000,-132.500,-196.000
1.381,-623.500,-504.000,-133.500,-197.500
1.382,-624.000,-504.500,-134.000,-198.000
1.383,-624.500,-505.000,-134.500,-199.000
1.384,-625.000,-505.500,-135.000,-199.000
1.385,-625.500,-506.000,-135.000,-199.000
1.386,-626.000,-506.500,-135.000,-199.000
1.387,-627.000,-507.000,-135.500,-199.000
1.388,-627.500,-507.000,-135.500,-199.000
1.389,-628.000,-507.500,-135.000,-199.000
1.390,-628.500,-507.500,-135.000,-198.500
1.391,-628.500,-507.500,-134.500,-198.500
1.392,-628.500,-507.500,-134.500,-198.000
1.393,-628.500,-507.500,-134.000,-197.000
1.394,-628.000,-507.000,-133.500,-196.500
1.395,-627.500,-506.500,-132.500,-196.000
1.396,-627.000,-506.000,-132.000,-195.500
1.397,-626.000,-505.000,-131.000,-195.000
1.398,-625.500,-504.500,-130.500,-195.000
1.399,-625.500,-504.000,-130.000,-195.000
1.400,-625.000,-503.500,-129.500,-195.500
1.401,-625.000,-503.500,-129.500,-195.500
1.402,-625.000,-504.500,-130.000,-195.500
1.403,-625.500,-505.500,-131.000,-196.000
1.404,-626.000,-507.000,-132.500,-196.000
1.405,-626.500,-508.500,-133.500,-196.500
1.406,-627.500,-509.500,-134.000,-196.500
1.407,-628.000,-510.000,-134.500,-196.500
1.408,-629.000,-510.000,-134.500,-196.500
1.409,-629.500,-510.000,-134.500,-196.000
1.410,-630.000,-509.500,-134.500,-196.000
1.411,-629.500,-509.500,-134.500,-196.000
1.412,-629.000,-509.000,-135.000,-196.000
1.413,-627.500,-508.500,-135.000,-196.500
1.414,-626.000,-508.500,-135.500,-196.500
1.415,-625.000,-508.000,-135.500,-196.500
1.416,-623.500,-507.500,-135.000,-196.000
1.417,-623.000,-507.000,-134.500,-195.500
1.418,-622.000,-506.500,-134.000,-194.500
1.419,-621.500,-506.000,-133.000,-194.000
1.420,-621.000,-505.500,-132.000,-193.500
1.421,-621.000,-505.000,-131.500,-193.000
1.422,-620.500,-504.500,-130.500,-192.000
1.423,-620.500,-504.000,-130.000,-191.500
1.424,-621.000,-504.000,-129.500,-191.500
1.425,-621.500,-504.500,-129.500,-191.000
1.426,-622.000,-505.000,-130.000,-191.500
1.427,-622.500,-505.500,-131.000,-192.000
1.428,-623.000,-505.500,-131.500,-192.500
1.429,-623.000,-506.000,-132.000,-192.500
1.430,-623.500,-506.000,-132.500,-192.500
1.431,-623.500,-506.000,-132.000,-192.500
1.432,-623.500,-505.500,-131.500,-192.000
1.433,-623.000,-505.000,-131.000,-191.000
1.434,-623.000,-505.000,-130.500,-190.500
1.435,-622.500,-504.500,-129.500,-190.000
1.436,-622.000,-504.000,-129.000,-190.000
1.437,-621.500,-503.500,-128.500,-189.500
1.438,-621.000,-503.000,-127.500,-189.500
1.439,-621.000,-502.500,-127.000,-189.000
1.440,-620.500,-502.500,-126.500,-189.000
1.441,-620.500,-502.000,-126.500,-189.000
1.442,-620.500,-502.500,-127.000,-189.000
1.443,-620.500,-503.000,-127.500,-189.000
1.444,-621.000,-504.000,-128.500,-189.500
1.445,-621.000,-505.000,-129.500,-190.500
1.446,-621.500,-505.500,-130.500,-191.000
1.447,-622.000,-506.500,-131.000,-191.500
1.448,-622.000,-507.000,-131.000,-191.500
1.449,-622.500,-507.000,-131.000,-191.000
1.450,-622.000,-507.000,-130.500,-190.500
1.451,-622.000,-506.500,-130.000,-190.000
1.452,-621.500,-506.500,-129.500,-189.500
1.453,-621.000,-506.500,-129.000,-189.000
1.454,-620.500,-506.500,-129.000,-188.500
1.455,-620.500,-506.000,-128.500,-188.000
1.456,-620.000,-506.000,-128.000,-187.000
1.457,-619.500,-505.500,-127.000,-186.500
1.458,-619.000,-505.500,-126.500,-186.000
1.459,-619.000,-505.000,-125.500,-185.500
1.460,-618.500,-504.500,-125.500,-185.500
1.461,-618.000,-504.500,-125.000,-185.500
1.462,-618.000,-504.500,-125.000,-186.000
1.463,-618.500,-504.000,-124.500,-186.000
1.464,-618.500,-504.000,-124.500,-186.000
1.465,-619.000,-504.000,-125.000,-186.000
1.466,-619.000,-504.000,-125.000,-186.500
1.467,-619.500,-504.000,-125.500,-187.000
1.468,-620.000,-504.500,-126.500,-187.000
1.469,-620.000,-505.000,-127.000,-187.500
1.470,-620.000,-505.000,-127.000,-187.500
1.471,-620.000,-505.000,-127.000,-187.500
1.472,-620.000,-504.500,-127.000,-187.500
1.473,-619.500,-504.000,-126.000,-187.000
1.474,-619.000,-503.000,-125.000,-186.500
1.475,-618.500,-502.000,-124.000,-186.000
1.476,-618.000,-501.500,-123.500,-185.500
1.477,-617.500,-501.000,-123.000,-185.000
1.478,-617.000,-501.000,-123.000,-184.500
1.479,-617.000,-501.500,-123.500,-184.500
1.480,-617.000,-502.500,-124.500,-184.500
1.481,-617.000,-503.000,-125.000,-184.500
1.482,-617.000,-503.500,-125.500,-184.500
1.483,-617.500,-504.000,-125.500,-184.500
1.484,-618.000,-504.000,-125.000,-184.500
1.485,-618.500,-504.000,-125.000,-184.000
1.486,-619.500,-504.000,-124.500,-184.000
1.487,-620.000,-504.000,-124.500,-184.000
1.488,-620.500,-504.500,-124.500,-184.000
1.489,-620.500,-505.500,-124.500,-183.500
1.490,-620.500,-506.000,-124.500,-183.500
1.491,-620.000,-506.500,-124.500,-183.000
1.492,-619.500,-506.500,-124.500,-183.000
1.493,-619.000,-506.000,-124.500,-183.000
1.494,-618.500,-505.000,-124.500,-182.500
1.495,-618.000,-504.500,-124.000,-182.500
1.496,-617.500,-503.500,-123.500,-182.000
1.497,-617.000,-502.500,-123.500,-181.500
1.498,-616.500,-501.500,-123.000,-181.500
1.499,-616.500,-501.000,-122.500,-181.000
1.500,-616.000,-500.500,-122.500,-181.500
1.501,-616.000,-500.000,-122.000,-181.500
1.502,-615.500,-499.500,-121.500,-181.500
1.503,-615.500,-499.500,-121.000,-182.000
1.504,-615.500,-499.500,-121.000,-181.500
1.505,-615.500,-499.500,-121.000,-181.500
1.506,-616.000,-499.500,-121.500,-181.500
1.507,-616.000,-500.000,-122.000,-181.500
1.508,-616.000,-500.000,-122.000,-181.500
1.509,-616.500,-500.500,-122.500,-181.000
1.510,-616.500,-500.500,-122.500,-181.000
1.511,-616.500,-500.500,-122.500,-180.500
1.512,-616.000,-500.000,-122.000,-180.000
1.513,-616.000,-500.000,-121.500,-179.500
1.514,-615.500,-499.500,-120.500,-179.500
1.515,-615.000,-499.000,-120.000,-179.000
1.516,-614.500,-498.500,-119.000,-178.500
1.517,-614.000,-498.000,-118.500,-178.500
1.518,-614.000,-498.000,-118.000,-178.000
1.519,-613.500,-497.500,-118.000,-177.500
1.520,-613.500,-497.500,-118.000,-177.000
1.521,-613.000,-498.000,-118.000,-176.500
1.522,-613.500,-498.500,-118.000,-176.000
1.523,-613.500,-499.000,-118.000,-176.000
1.524,-614.000,-500.500,-118.500,-176.000
1.525,-614.500,-501.500,-119.000,-176.500
1.526,-615.000,-502.500,-119.500,-176.500
1.527,-615.500,-503.000,-119.500,-177.000
1.528,-616.000,-503.000,-119.500,-177.000
1.529,-616.500,-503.000,-119.500,-176.500
1.530,-617.000,-502.500,-119.000,-176.000
1.531,-617.000,-501.500,-119.000,-175.500
1.532,-616.500,-500.500,-118.500,-175.000
1.533,-616.000,-499.500,-118.000,-174.500
1.534,-614.500,-498.000,-117.000,-173.500
1.535,-613.000,-497.000,-116.000,-172.500
1.536,-611.500,-495.500,-114.500,-172.000
1.537,-610.000,-494.500,-113.500,-171.000
1.538,-608.500,-493.500,-112.500,-170.500
1.539,-607.500,-493.000,-112.000,-170.500
1.540,-607.000,-492.500,-111.500,-170.000
1.541,-606.500,-492.500,-111.500,-170.500
1.542,-607.000,-493.000,-111.500,-170.500
1.543,-607.000,-493.000,-111.500,-170.500
1.544,-607.500,-493.500,-112.000,-171.000
1.545,-608.500,-494.000,-112.000,-171.000
1.546,-609.000,-494.500,-112.500,-171.500
1.547,-610.000,-495.000,-113.000,-171.500
1.548,-610.500,-495.500,-113.500,-171.500
1.549,-611.000,-495.500,-113.500,-171.500
1.550,-611.000,-496.000,-114.000,-171.000
1.551,-611.000,-496.500,-114.000,-170.500
1.552,-611.000,-496.500,-114.000,-170.000
1.553,-611.000,-496.500,-113.500,-170.000
1.554,-611.000,-496.500,-113.500,-169.500
1.555,-610.500,-496.500,-113.000,-169.500
1.556,-610.000,-496.500,-112.500,-169.500
1.557,-609.500,-496.000,-112.000,-169.500
1.558,-608.500,-495.500,-112.000,-169.000
1.559,-608.000,-495.500,-111.500,-169.000
1.560,-607.500,-495.000,-111.000,-168.500
1.561,-607.000,-494.500,-111.000,-168.500
1.562,-606.500,-494.000,-110.500,-168.000
1.563,-606.500,-494.000,-110.000,-167.500
1.564,-606.000,-494.000,-110.000,-167.500
1.565,-606.500,-494.500,-110.500,-168.000
1.566,-606.500,-495.000,-111.500,-168.500
1.567,-607.500,-496.000,-112.500,-168.500
1.568,-608.000,-496.500,-112.500,-168.500
1.569,-608.500,-497.000,-113.000,-168.000
1.570,-609.000,-497.500,-112.500,-167.500
1.571,-609.000,-497.500,-112.500,-166.500
1.572,-608.500,-497.500,-112.000,-166.000
1.573,-608.000,-497.000,-111.000,-165.500
1.574,-607.500,-496.500,-110.500,-165.500
1.575,-607.000,-495.500,-109.500,-165.000
1.576,-606.000,-495.000,-109.000,-165.000
1.577,-605.500,-495.000,-108.500,-165.500
1.578,-605.000,-495.000,-108.500,-165.500
1.579,-604.500,-495.000,-108.500,-165.500
1.580,-604.000,-495.000,-109.000,-165.000
1.581,-603.500,-495.500,-109.000,-164.500
1.582,-603.500,-496.000,-109.000,-164.000
1.583,-603.500,-497.000,-109.000,-164.000
1.584,-604.000,-497.500,-109.500,-164.000
1.585,-604.000,-498.000,-110.000,-164.000
1.586,-604.000,-498.500,-110.000,-164.000
1.587,-604.500,-499.000,-110.000,-164.500
1.588,-604.500,-499.000,-110.000,-164.500
1.589,-604.000,-499.000,-110.000,-164.500
1.590,-604.000,-499.000,-110.000,-164.500
1.591,-603.500,-499.000,-110.000,-164.500
1.592,-603.500,-498.500,-110.000,-164.500
1.593,-603.000,-498.500,-110.500,-164.500
1.594,-603.000,-499.000,-110.500,-165.000
1.595,-602.500,-498.500,-111.000,-165.000
1.596,-602.000,-498.500,-110.500,-165.000
1.597,-601.500,-498.500,-110.500,-165.000
1.598,-600.500,-498.000,-110.000,-165.000
1.599,-600.000,-498.000,-109.500,-165.000
1.600,-599.500,-497.500,-109.500,-165.000
1.601,-599.000,-497.500,-109.000,-165.000
1.602,-599.000,-497.500,-108.500,-165.000
1.603,-598.500,-497.000,-108.500,-165.000
1.604,-599.000,-497.000,-108.500,-165.000
1.605,-599.000,-497.000,-108.500,-165.000
1.606,-599.500,-497.000,-108.500,-165.000
1.607,-600.000,-497.000,-108.500,-165.000
1.608,-600.000,-497.000,-108.000,-164.500
1.609,-600.500,-497.000,-108.000,-164.500
1.610,-600.500,-497.000,-107.500,-164.000
1.611,-600.500,-497.000,-107.500,-164.500
1.612,-600.500,-497.000,-107.000,-164.500
1.613,-600.500,-497.000,-107.000,-164.000
1.614,-600.000,-497.000,-107.000,-164.000
1.615,-599.000,-496.500,-106.500,-163.500
1.616,-598.000,-496.000,-106.000,-162.500
1.617,-597.500,-496.000,-106.000,-162.000
1.618,-596.500,-495.500,-105.500,-162.000
1.619,-595.500,-495.500,-105.500,-161.500
1.620,-594.500,-495.500,-105.500,-161.500
1.621,-594.000,-496.000,-105.500,-161.500
1.622,-593.500,-496.500,-105.000,-161.000
1.623,-593.000,-496.500,-105.000,-161.000
1.624,-593.500,-497.000,-105.000,-161.000
1.625,-594.000,-497.500,-105.000,-161.000
1.626,-594.000,-498.000,-105.500,-161.500
1.627,-594.500,-498.500,-106.000,-161.500
1.628,-595.000,-499.000,-106.500,-162.000
1.629,-595.500,-499.000,-106.500,-162.000
1.630,-595.500,-498.500,-106.500,-162.000
1.631,-595.500,-498.500,-106.500,-161.500
1.632,-595.500,-498.000,-106.000,-161.500
1.633,-595.500,-498.000,-106.000,-161.500
1.634,-595.000,-498.000,-106.000,-161.000
1.635,-594.500,-498.000,-105.500,-161.000
1.636,-593.500,-498.000,-105.500,-161.000
1.637,-593.000,-498.000,-105.500,-161.000
1.638,-592.500,-497.500,-105.500,-161.500
1.639,-591.500,-497.500,-105.000,-161.500
1.640,-591.500,-497.000,-105.000,-162.000
1.641,-591.000,-496.500,-104.500,-162.500
1.642,-591.000,-496.500,-104.500,-163.000
1.643,-591.000,-496.000,-104.500,-163.000
1.644,-591.000,-496.000,-104.500,-163.000
1.645,-591.000,-495.500,-104.500,-163.000
1.646,-591.000,-495.500,-104.500,-162.500
1.647,-591.500,-496.000,-105.000,-162.500
1.648,-592.000,-496.500,-105.500,-162.000
1.649,-592.000,-497.000,-106.000,-161.500
1.650,-592.000,-497.500,-106.500,-161.000
1.651,-592.000,-498.000,-107.000,-160.500
1.652,-592.000,-498.500,-107.000,-160.000
1.653,-591.500,-498.500,-107.000,-159.000
1.654,-591.500,-498.000,-106.000,-158.000
1.655,-591.000,-497.500,-105.000,-157.500
1.656,-590.500,-497.000,-104.000,-156.500
1.657,-590.000,-496.000,-103.000,-156.000
1.658,-589.500,-495.500,-102.500,-155.500
1.659,-589.000,-495.000,-101.500,-155.500
1.660,-589.000,-494.500,-101.500,-155.500
1.661,-588.500,-494.500,-101.500,-155.500
1.662,-588.500,-494.500,-101.500,-155.500
1.663,-588.500,-495.000,-102.000,-156.000
1.664,-588.500,-495.000,-102.500,-156.000
1.665,-589.000,-495.500,-103.000,-156.000
1.666,-589.000,-495.500,-103.500,-156.500
1.667,-589.000,-496.000,-104.000,-156.500
1.668,-589.000,-496.000,-104.500,-156.500
1.669,-589.500,-496.500,-104.500,-156.500
1.670,-589.500,-497.000,-104.500,-156.500
1.671,-589.500,-497.000,-104.500,-156.000
1.672,-589.000,-496.500,-104.500,-156.000
1.673,-588.500,-496.500,-104.500,-155.500
1.674,-588.000,-496.000,-104.000,-155.000
1.675,-587.500,-495.500,-103.500,-155.000
1.676,-587.000,-495.500,-103.000,-154.500
1.677,-586.500,-495.000,-103.000,-155.000
1.678,-586.000,-495.000,-103.500,-155.000
1.679,-585.500,-495.000,-103.500,-155.500
1.680,-585.500,-494.500,-103.500,-156.000
1.681,-585.000,-494.500,-103.500,-156.000
1.682,-585.000,-494.500,-103.000,-156.000
1.683,-584.500,-494.000,-102.500,-156.000
1.684,-584.500,-493.500,-102.000,-155.500
1.685,-584.500,-492.500,-101.500,-155.500
1.686,-585.000,-492.000,-101.000,-155.500
1.687,-585.000,-492.000,-101.500,-155.500
1.688,-586.000,-492.000,-101.500,-155.000
1.689,-586.500,-492.500,-102.000,-155.000
1.690,-587.000,-492.500,-102.000,-155.000
1.691,-587.000,-493.000,-102.000,-154.500
1.692,-587.000,-493.500,-102.000,-154.000
1.693,-587.000,-494.000,-101.500,-154.000
1.694,-586.500,-494.500,-101.500,-153.000
1.695,-586.000,-495.000,-101.000,-152.500
1.696,-585.500,-495.000,-101.000,-151.500
1.697,-585.000,-495.000,-100.500,-151.000
1.698,-584.500,-494.500,-100.000,-150.000
1.699,-583.500,-493.500,-99.500,-149.500
1.700,-583.000,-492.500,-99.000,-149.000
1.701,-582.000,-491.500,-98.500,-148.500
1.702,-581.500,-491.000,-98.000,-148.000
1.703,-580.500,-490.500,-97.500,-147.500
1.704,-580.000,-490.500,-97.000,-147.500
1.705,-580.000,-490.500,-97.000,-147.500
1.706,-580.000,-491.000,-98.000,-148.000
1.707,-580.000,-491.500,-99.000,-148.000
1.708,-580.500,-492.500,-100.000,-148.500
1.709,-580.500,-493.500,-101.500,-149.000
1.710,-581.000,-494.000,-102.500,-149.500
1.711,-581.000,-494.500,-103.500,-149.500
1.712,-581.000,-494.500,-103.500,-149.500
1.713,-581.000,-494.000,-103.000,-149.500
1.714,-580.500,-493.000,-102.500,-149.000
1.715,-580.000,-492.500,-101.500,-149.000
1.716,-579.500,-492.000,-100.500,-148.500
1.717,-579.000,-491.500,-100.000,-148.500
1.718,-578.500,-491.000,-99.500,-148.500
1.719,-578.000,-491.000,-99.000,-148.500
1.720,-577.500,-490.500,-99.000,-148.500
1.721,-577.500,-490.500,-98.500,-148.500
1.722,-577.500,-490.500,-98.500,-148.500
1.723,-577.500,-490.500,-98.000,-148.000
1.724,-577.500,-490.500,-98.000,-148.000
1.725,-578.000,-491.000,-97.500,-147.500
1.726,-578.000,-491.000,-97.500,-147.500
1.727,-578.500,-491.500,-97.000,-147.000
1.728,-579.000,-492.000,-97.000,-146.500
1.729,-579.000,-492.000,-96.500,-146.500
1.730,-579.000,-492.000,-96.500,-146.000
1.731,-579.000,-492.000,-96.500,-145.500
1.732,-578.500,-492.000,-96.000,-145.000
1.733,-578.500,-491.500,-95.500,-144.000
1.734,-578.000,-491.500,-95.000,-143.500
1.735,-577.000,-491.000,-94.500,-143.000
1.736,-576.000,-490.500,-93.500,-142.000
1.737,-575.000,-490.000,-92.500,-141.500
1.738,-574.500,-489.500,-91.500,-141.000
1.739,-574.000,-489.000,-90.500,-140.500
1.740,-573.500,-489.000,-90.000,-140.000
1.741,-573.500,-489.000,-89.000,-139.500
1.742,-573.500,-489.500,-88.500,-139.500
1.743,-573.500,-490.000,-88.500,-139.500
1.744,-574.000,-490.500,-88.000,-140.000
1.745,-575.000,-490.500,-88.500,-140.500
1.746,-575.500,-490.500,-88.500,-141.000
1.747,-576.000,-490.500,-89.000,-141.500
1.748,-576.500,-490.500,-89.500,-142.000
1.749,-576.500,-490.000,-89.500,-142.000
1.750,-576.000,-489.500,-89.000,-142.000
1.751,-575.000,-488.500,-88.500,-142.000
1.752,-573.500,-488.000,-88.000,-142.000
1.753,-572.000,-487.500,-87.500,-141.500
1.754,-571.000,-487.500,-87.500,-141.000
1.755,-570.000,-487.500,-87.500,-141.000
1.756,-569.500,-487.500,-87.500,-140.500
1.757,-569.000,-488.000,-87.500,-140.000
1.758,-568.500,-488.000,-87.500,-139.500
1.759,-568.000,-488.000,-87.500,-139.500
1.760,-568.000,-488.000,-87.500,-139.000
1.761,-567.500,-488.000,-87.000,-139.000
1.762,-567.000,-488.000,-87.000,-139.000
1.763,-567.000,-487.500,-86.500,-138.500
1.764,-567.000,-487.500,-86.000,-138.500
1.765,-567.500,-487.500,-86.000,-139.000
1.766,-568.000,-488.000,-86.500,-139.500
1.767,-568.000,-488.500,-87.000,-140.000
1.768,-568.500,-489.000,-87.500,-141.000
1.769,-568.000,-489.000,-87.500,-141.500
1.770,-568.000,-489.500,-87.500,-142.000
1.771,-567.500,-489.500,-87.000,-142.000
1.772,-567.500,-489.500,-86.500,-141.500
1.773,-567.000,-489.000,-86.000,-141.000
1.774,-566.500,-489.000,-86.000,-140.000
1.775,-566.500,-488.500,-85.500,-139.500
1.776,-566.000,-488.000,-85.000,-139.000
1.777,-565.500,-487.500,-84.500,-138.500
1.778,-565.000,-487.000,-84.000,-137.500
1.779,-564.000,-486.500,-83.500,-137.000
1.780,-563.500,-486.000,-83.000,-136.500
1.781,-563.000,-486.000,-82.500,-136.500
1.782,-562.500,-485.500,-82.000,-136.500
1.783,-562.500,-486.000,-82.500,-137.000
1.784,-562.500,-486.000,-83.000,-138.000
1.785,-563.000,-486.500,-83.500,-139.000
1.786,-563.000,-487.000,-84.000,-139.500
1.787,-563.000,-487.000,-84.000,-140.000
1.788,-563.500,-487.000,-84.000,-140.500
1.789,-563.500,-487.500,-84.500,-141.000
1.790,-563.500,-488.000,-85.000,-141.000
1.791,-563.500,-488.500,-85.500,-140.500
1.792,-563.500,-489.000,-86.000,-140.000
1.793,-563.000,-489.000,-86.000,-139.500
1.794,-563.000,-489.000,-85.500,-139.000
1.795,-563.000,-489.000,-85.000,-138.500
1.796,-562.500,-488.500,-84.000,-138.000
1.797,-562.500,-488.000,-83.000,-137.500
1.798,-562.000,-487.500,-82.500,-137.500
1.799,-561.500,-487.000,-81.500,-137.000
1.800,-561.000,-486.500,-81.000,-137.000
1.801,-560.500,-486.000,-80.000,-136.500
1.802,-560.000,-485.500,-79.500,-136.500
1.803,-560.000,-485.500,-78.500,-136.000
1.804,-559.500,-485.000,-78.000,-135.500
1.805,-559.500,-485.000,-78.000,-135.500
1.806,-559.500,-485.500,-78.000,-135.500
1.807,-560.000,-486.000,-78.500,-135.500
1.808,-560.000,-486.500,-79.000,-135.500
1.809,-560.000,-487.000,-79.500,-135.500
1.810,-560.000,-487.000,-79.500,-135.500
1.811,-560.000,-487.500,-79.500,-135.500
1.812,-560.000,-487.500,-79.500,-135.500
1.813,-560.000,-487.000,-79.000,-135.500
1.814,-559.500,-486.500,-78.500,-135.000
1.815,-559.000,-486.500,-78.500,-135.000
1.816,-558.500,-486.000,-78.500,-135.000
1.817,-558.500,-486.000,-79.000,-135.500
1.818,-558.000,-485.500,-80.000,-136.000
1.819,-558.000,-485.500,-80.500,-136.000
1.820,-558.000,-486.000,-81.000,-136.500
1.821,-558.000,-486.500,-81.500,-137.000
1.822,-558.000,-487.000,-82.000,-138.000
1.823,-558.000,-488.000,-82.500,-138.500
1.824,-558.000,-489.500,-82.500,-139.500
1.825,-558.500,-490.500,-83.000,-140.000
1.826,-559.000,-491.500,-83.000,-140.500
1.827,-559.000,-492.500,-83.500,-141.000
1.828,-559.500,-492.500,-83.500,-141.000
1.829,-560.000,-493.000,-83.500,-140.500
1.830,-560.500,-493.000,-83.000,-140.000
1.831,-561.000,-493.000,-82.500,-139.500
1.832,-561.500,-493.000,-82.000,-138.500
1.833,-562.000,-493.000,-81.500,-138.000
1.834,-562.500,-493.000,-81.000,-137.500
1.835,-563.000,-492.500,-80.500,-137.500
1.836,-563.000,-492.000,-79.500,-137.000
1.837,-563.000,-491.000,-79.000,-136.500
1.838,-562.000,-490.000,-78.500,-136.000
1.839,-561.000,-489.000,-77.500,-135.000
1.840,-560.000,-488.000,-76.500,-134.000
1.841,-558.500,-487.000,-75.000,-132.500
1.842,-557.000,-485.500,-74.000,-131.000
1.843,-556.000,-484.500,-72.500,-129.000
1.844,-555.000,-483.500,-71.000,-127.000
1.845,-554.500,-482.500,-69.500,-125.000
1.846,-554.000,-482.000,-68.000,-123.000
1.847,-554.000,-481.000,-66.500,-121.000
1.848,-553.500,-480.000,-65.500,-119.500
1.849,-553.000,-479.500,-64.500,-118.000
1.850,-552.500,-479.000,-63.500,-117.500
1.851,-551.500,-478.000,-63.000,-117.000
1.852,-551.000,-477.500,-62.500,-117.000
1.853,-550.000,-477.000,-62.000,-117.000
1.854,-549.000,-476.000,-61.500,-117.000
1.855,-547.500,-475.500,-60.500,-116.500
1.856,-546.000,-474.500,-59.500,-115.500
1.857,-544.500,-473.500,-58.500,-115.000
1.858,-543.000,-472.500,-57.000,-114.500
1.859,-541.500,-471.000,-56.000,-114.000
1.860,-540.000,-470.500,-55.000,-114.000
1.861,-539.000,-470.000,-54.500,-114.000
1.862,-538.000,-470.000,-54.500,-115.000
1.863,-537.500,-470.000,-55.000,-116.000
1.864,-537.500,-470.500,-55.500,-117.500
1.865,-537.000,-471.000,-56.000,-118.500
1.866,-537.500,-471.500,-57.000,-119.500
1.867,-537.500,-472.500,-58.000,-120.500
1.868,-538.000,-473.000,-58.500,-121.000
1.869,-538.000,-473.000,-58.500,-121.500
1.870,-538.500,-473.500,-59.000,-122.000
1.871,-538.500,-473.500,-59.000,-122.000
1.872,-538.500,-474.000,-59.000,-122.500
1.873,-539.000,-474.500,-59.000,-122.500
1.874,-539.000,-474.500,-59.000,-123.000
1.875,-539.000,-475.000,-59.000,-123.500
1.876,-539.000,-475.500,-59.500,-124.500
1.877,-539.000,-476.000,-60.500,-125.000
1.878,-539.500,-477.000,-61.500,-126.000
1.879,-540.000,-478.000,-62.500,-126.500
1.880,-540.000,-479.000,-63.000,-126.500
1.881,-541.000,-480.000,-63.500,-126.500
1.882,-541.500,-481.500,-64.000,-127.000
1.883,-542.000,-482.500,-65.000,-127.000
1.884,-542.500,-483.500,-65.500,-127.500
1.885,-543.500,-484.500,-66.000,-128.000
1.886,-544.000,-485.000,-67.000,-128.500
1.887,-544.500,-485.500,-67.000,-128.500
1.888,-545.000,-486.000,-67.000,-128.500
1.889,-545.500,-486.000,-66.500,-128.000
1.890,-546.000,-486.000,-66.000,-128.000
1.891,-546.000,-486.000,-65.500,-127.500
1.892,-546.000,-486.000,-65.000,-127.500
1.893,-545.500,-486.000,-65.000,-127.000
1.894,-545.500,-486.000,-64.500,-127.500
1.895,-545.000,-485.500,-64.000,-127.500
1.896,-544.500,-485.000,-63.500,-127.000
1.897,-543.500,-484.500,-62.500,-127.000
1.898,-543.000,-483.500,-61.500,-126.500
1.899,-542.500,-483.000,-61.000,-126.000
1.900,-542.000,-483.000,-60.500,-125.500
1.901,-541.500,-483.000,-61.000,-125.000
1.902,-541.500,-483.500,-61.500,-125.000
1.903,-541.500,-484.500,-62.000,-124.500
1.904,-541.500,-485.500,-62.000,-124.500
1.905,-541.500,-486.500,-62.500,-124.500
1.906,-542.000,-487.000,-63.000,-124.500
1.907,-542.500,-487.500,-63.000,-124.500
1.908,-542.500,-488.000,-63.000,-125.000
1.909,-543.000,-488.000,-63.500,-125.000
1.910,-543.000,-488.500,-64.000,-125.500
1.911,-543.000,-488.500,-64.500,-126.000
1.912,-543.000,-489.000,-64.500,-126.000
1.913,-542.500,-489.000,-64.500,-126.000
1.914,-542.000,-489.000,-64.000,-126.000
1.915,-541.500,-488.500,-63.500,-125.500
1.916,-541.000,-488.500,-63.000,-125.500
1.917,-540.500,-488.000,-62.500,-125.000
1.918,-540.000,-488.000,-62.000,-125.000
1.919,-540.000,-488.000,-61.500,-125.500
1.920,-540.000,-487.500,-61.000,-125.500
1.921,-539.500,-487.500,-61.000,-126.000
1.922,-539.500,-487.500,-60.500,-126.500
1.923,-539.500,-487.500,-60.500,-126.500
1.924,-539.500,-488.000,-60.500,-127.000
1.925,-540.000,-488.000,-60.500,-126.500
1.926,-540.000,-488.000,-60.500,-126.500
1.927,-540.500,-488.500,-61.000,-126.000
1.928,-540.500,-488.500,-61.000,-126.000
1.929,-541.000,-488.500,-60.500,-125.500
1.930,-541.000,-488.000,-60.000,-125.000
1.931,-541.000,-488.000,-60.000,-124.000
1.932,-540.500,-487.500,-59.500,-123.000
1.933,-540.500,-487.500,-59.000,-122.500
1.934,-540.000,-487.500,-58.500,-122.000
1.935,-539.500,-487.000,-58.500,-121.500
1.936,-538.500,-487.000,-57.500,-121.000
1.937,-538.000,-486.500,-57.000,-120.500
1.938,-537.500,-486.000,-56.500,-120.500
1.939,-537.000,-485.500,-56.000,-120.000
1.940,-536.500,-485.500,-55.500,-119.500
1.941,-536.500,-485.000,-55.500,-119.500
1.942,-536.000,-485.500,-55.500,-119.500
1.943,-536.000,-486.000,-55.500,-120.000
1.944,-536.000,-486.000,-56.000,-120.500
1.945,-536.500,-486.500,-56.000,-121.000
1.946,-536.500,-486.500,-56.500,-121.500
1.947,-536.500,-487.000,-56.500,-121.500
1.948,-537.000,-487.000,-56.500,-121.500
1.949,-537.500,-487.500,-57.000,-122.000
1.950,-538.000,-488.000,-57.500,-122.000
1.951,-538.000,-488.500,-58.000,-122.500
1.952,-538.500,-488.500,-58.000,-122.500
1.953,-538.000,-488.000,-58.000,-122.500
1.954,-537.500,-487.500,-57.000,-122.000
1.955,-537.000,-487.000,-56.000,-121.500
1.956,-536.500,-486.500,-54.500,-121.000
1.957,-536.000,-486.000,-54.000,-120.000
1.958,-535.500,-486.000,-54.000,-120.000
1.959,-535.000,-486.000,-54.500,-120.000
1.960,-534.500,-486.500,-55.000,-120.500
1.961,-534.500,-487.000,-56.000,-121.000
1.962,-534.000,-487.500,-56.500,-121.000
1.963,-534.000,-487.500,-56.500,-121.500
1.964,-534.000,-488.000,-56.500,-121.500
1.965,-534.500,-488.000,-56.000,-121.500
1.966,-534.500,-488.000,-56.000,-121.500
1.967,-535.000,-488.000,-56.000,-121.500
1.968,-535.000,-488.000,-55.500,-121.000
1.969,-535.500,-488.000,-55.500,-121.000
1.970,-535.500,-488.000,-55.000,-121.000
1.971,-535.500,-487.500,-55.000,-121.000
1.972,-535.500,-487.500,-55.000,-120.500
1.973,-535.500,-487.000,-54.500,-120.500
1.974,-535.500,-487.000,-54.500,-120.500
1.975,-535.000,-487.000,-54.000,-120.000
1.976,-535.000,-487.000,-54.000,-120.000
1.977,-534.500,-486.500,-53.500,-119.500
1.978,-534.500,-486.500,-53.500,-119.500
1.979,-534.000,-486.500,-53.000,-119.500
1.980,-533.500,-486.500,-53.000,-119.500
1.981,-533.500,-486.500,-53.000,-119.500
1.982,-533.500,-486.500,-53.000,-120.000
1.983,-533.500,-486.500,-53.000,-120.500
1.984,-533.500,-487.000,-53.000,-120.500
1.985,-534.000,-487.000,-53.500,-121.000
1.986,-534.500,-487.500,-53.500,-121.000
1.987,-535.000,-488.000,-54.000,-121.500
1.988,-535.500,-488.000,-54.000,-121.500
1.989,-536.000,-488.000,-53.500,-121.000
1.990,-536.000,-487.500,-53.500,-121.000
1.991,-536.000,-487.500,-53.500,-120.500
1.992,-535.500,-487.000,-53.500,-120.500
1.993,-535.500,-487.500,-53.500,-120.500
1.994,-535.500,-487.500,-54.000,-121.000
1.995,-535.500,-487.500,-54.500,-121.000
1.996,-535.000,-487.000,-54.000,-121.000
1.997,-534.500,-486.500,-53.000,-120.500
1.998,-534.500,-486.000,-52.000,-119.500
1.999,-534.000,-485.000,-51.000,-119.000
2.000,-534.000,-484.500,-50.500,-119.000
2.001,-533.500,-484.500,-50.500,-119.000
2.002,-533.500,-484.500,-50.500,-118.500
2.003,-533.500,-484.500,-50.500,-118.500
2.004,-533.500,-485.000,-51.000,-118.000
2.005,-534.000,-486.000,-51.000,-117.500
2.006,-534.500,-486.500,-51.500,-117.000
2.007,-535.000,-487.000,-51.500,-117.000
2.008,-536.000,-487.500,-51.500,-116.500
2.009,-536.000,-488.000,-51.500,-116.500
2.010,-536.500,-488.500,-51.500,-116.500
2.011,-536.500,-488.500,-51.000,-117.000
2.012,-536.500,-488.500,-50.500,-117.000
2.013,-536.000,-488.500,-49.500,-117.000
2.014,-535.500,-488.000,-48.500,-116.500
2.015,-535.000,-487.500,-48.000,-116.000
2.016,-534.000,-487.500,-47.500,-115.500
2.017,-533.500,-487.500,-47.500,-115.000
2.018,-533.000,-487.000,-47.500,-114.000
2.019,-532.500,-487.000,-48.000,-113.500
2.020,-532.000,-486.500,-48.000,-113.000
2.021,-532.000,-486.500,-48.000,-112.500
2.022,-531.500,-486.500,-47.500,-112.000
2.023,-531.500,-486.000,-47.000,-112.000
2.024,-531.500,-486.000,-47.000,-112.000
2.025,-532.000,-486.500,-47.500,-112.500
2.026,-532.000,-487.000,-48.000,-113.000
2.027,-532.500,-487.500,-49.000,-114.000
2.028,-533.000,-488.000,-49.500,-114.500
2.029,-533.000,-488.000,-50.000,-115.000
2.030,-533.000,-488.000,-50.000,-114.500
2.031,-533.000,-488.000,-50.000,-114.000
2.032,-532.500,-487.500,-49.500,-114.000
2.033,-532.500,-487.000,-49.000,-113.500
2.034,-532.500,-486.500,-48.500,-113.000
2.035,-532.000,-486.000,-48.000,-112.500
2.036,-531.500,-485.500,-47.500,-112.000
2.037,-531.000,-485.000,-47.000,-111.500
2.038,-530.500,-484.500,-46.000,-111.000
2.039,-530.000,-484.000,-45.500,-110.000
2.040,-530.000,-484.000,-45.000,-109.500
2.041,-529.500,-483.500,-44.500,-109.000
2.042,-529.500,-483.500,-44.500,-109.000
2.043,-530.000,-483.500,-44.500,-109.000
2.044,-530.500,-483.500,-44.500,-109.500
2.045,-531.000,-484.000,-45.000,-109.500
2.046,-531.000,-484.000,-45.000,-109.500
2.047,-531.500,-484.000,-45.000,-109.500
2.048,-532.000,-484.000,-44.500,-109.000
2.049,-532.000,-484.000,-44.500,-108.500
2.050,-532.500,-484.000,-44.000,-108.500
2.051,-532.500,-484.000,-43.500,-108.000
2.052,-532.500,-484.000,-43.500,-108.000
2.053,-532.500,-484.000,-43.500,-108.000
2.054,-532.000,-484.000,-43.500,-108.000
2.055,-532.000,-484.000,-43.500,-108.000
2.056,-531.500,-483.500,-43.000,-107.500
2.057,-531.500,-483.000,-42.500,-107.000
2.058,-531.000,-482.500,-42.000,-106.500
2.059,-530.500,-482.000,-41.500,-106.000
2.060,-530.500,-481.500,-41.000,-105.500
2.061,-530.000,-481.500,-41.000,-105.500
2.062,-530.000,-481.500,-41.000,-105.000
2.063,-530.000,-481.500,-41.000,-105.000
2.064,-530.000,-481.500,-41.000,-105.000
2.065,-530.500,-481.500,-41.000,-105.000
2.066,-531.500,-482.000,-42.000,-105.500
2.067,-532.000,-483.000,-43.000,-106.000
2.068,-532.500,-484.000,-44.000,-106.500
2.069,-532.500,-484.500,-45.000,-107.000
2.070,-533.000,-485.000,-45.500,-107.000
2.071,-533.000,-485.000,-45.500,-106.500
2.072,-533.000,-484.500,-45.000,-106.000
2.073,-532.500,-484.000,-44.500,-105.500
2.074,-532.500,-483.500,-43.500,-104.500
2.075,-532.000,-482.500,-43.000,-104.000
2.076,-531.500,-482.000,-42.500,-103.500
2.077,-531.000,-482.000,-42.500,-104.000
2.078,-530.500,-481.500,-42.500,-104.000
2.079,-530.000,-481.500,-43.000,-104.500
2.080,-529.500,-481.500,-43.000,-105.000
2.081,-529.000,-481.000,-43.000,-105.000
2.082,-529.000,-481.000,-43.000,-105.000
2.083,-529.000,-481.000,-43.000,-105.000
2.084,-529.000,-481.000,-43.000,-104.500
2.085,-529.500,-481.000,-42.500,-104.500
2.086,-529.500,-481.000,-42.500,-104.000
2.087,-530.000,-481.000,-42.500,-104.000
2.088,-530.500,-481.000,-42.500,-103.500
2.089,-530.500,-481.000,-42.500,-103.500
2.090,-531.000,-481.500,-43.000,-103.500
2.091,-531.000,-482.000,-43.500,-104.000
2.092,-531.500,-482.000,-44.000,-104.000
2.093,-531.500,-482.500,-45.000,-104.500
2.094,-531.500,-482.500,-45.500,-104.500
2.095,-531.500,-482.500,-45.500,-104.500
2.096,-531.000,-482.500,-45.500,-104.500
2.097,-530.500,-482.000,-45.500,-104.500
2.098,-530.500,-482.000,-45.500,-104.000
2.099,-530.000,-481.500,-45.000,-104.000
2.100,-529.500,-481.000,-45.000,-103.500
2.101,-529.000,-481.000,-45.000,-103.500
2.102,-528.500,-480.500,-45.000,-103.000
2.103,-528.000,-481.000,-45.000,-103.000
2.104,-527.500,-481.000,-45.500,-103.000
2.105,-527.000,-481.000,-46.000,-103.000
2.106,-527.000,-481.500,-46.000,-102.500
2.107,-526.500,-481.500,-46.500,-102.500
2.108,-526.500,-482.000,-46.500,-102.500
2.109,-526.500,-482.500,-47.000,-102.500
2.110,-526.500,-482.500,-47.000,-102.000
2.111,-526.500,-482.500,-47.000,-102.000
2.112,-526.000,-482.500,-46.500,-101.500
2.113,-526.000,-481.500,-46.000,-100.500
2.114,-526.000,-481.000,-45.500,-100.500
2.115,-525.500,-480.500,-45.500,-100.000
2.116,-525.500,-480.000,-45.000,-100.500
2.117,-525.500,-479.500,-45.000,-100.500
2.118,-525.500,-479.500,-45.000,-100.000
2.119,-525.000,-479.500,-44.500,-100.000
2.120,-525.000,-479.000,-44.500,-99.500
2.121,-524.500,-479.000,-44.500,-99.500
2.122,-524.500,-479.000,-44.500,-99.500
2.123,-524.500,-479.500,-45.000,-99.500
2.124,-525.000,-479.500,-45.500,-100.000
2.125,-525.000,-480.000,-46.500,-101.000
2.126,-525.500,-481.000,-47.500,-101.500
2.127,-526.000,-481.500,-48.000,-102.500
2.128,-526.000,-482.000,-48.500,-103.000
2.129,-526.500,-482.500,-48.500,-103.500
2.130,-527.000,-483.000,-48.500,-104.000
2.131,-527.000,-483.000,-49.000,-104.500
2.132,-527.500,-483.500,-49.500,-105.000
2.133,-528.000,-483.000,-49.500,-105.000
2.134,-528.500,-482.000,-49.000,-104.500
2.135,-528.000,-481.500,-48.500,-103.500
2.136,-528.000,-480.500,-47.500,-102.500
2.137,-527.500,-480.000,-47.000,-101.500
2.138,-526.500,-479.500,-47.000,-100.500
2.139,-526.000,-479.500,-47.500,-100.000
2.140,-525.500,-479.000,-47.500,-100.000
2.141,-524.500,-479.000,-47.500,-100.000
2.142,-524.500,-479.000,-47.500,-100.500
2.143,-524.000,-479.500,-47.500,-100.500
2.144,-524.500,-479.500,-48.000,-101.000
2.145,-524.500,-480.000,-48.000,-101.000
2.146,-525.500,-481.000,-48.000,-101.000
2.147,-526.000,-481.500,-48.000,-101.000
2.148,-527.000,-482.000,-48.000,-101.000
2.149,-527.500,-482.500,-48.500,-101.000
2.150,-528.000,-482.500,-49.000,-101.500
2.151,-528.000,-482.500,-49.500,-101.500
2.152,-528.000,-481.500,-49.500,-101.500
2.153,-528.000,-480.500,-49.000,-101.500
2.154,-527.500,-479.500,-48.000,-101.000
2.155,-527.000,-478.500,-47.500,-100.500
2.156,-526.500,-477.500,-46.500,-100.000
2.157,-526.000,-477.000,-46.000,-99.500
2.158,-525.500,-476.500,-46.000,-99.500
2.159,-525.000,-476.000,-46.500,-99.500
2.160,-525.000,-476.500,-46.500,-100.000
2.161,-525.000,-476.500,-47.000,-100.000
2.162,-525.000,-476.500,-47.000,-100.500
2.163,-525.000,-476.500,-47.000,-100.500
2.164,-525.500,-476.500,-47.000,-101.000
2.165,-526.000,-476.500,-47.500,-101.500
2.166,-526.500,-477.000,-48.000,-102.000
2.167,-527.000,-477.000,-48.500,-102.500
2.168,-528.000,-477.000,-48.500,-102.500
2.169,-528.500,-477.000,-48.500,-102.000
2.170,-529.000,-477.000,-48.000,-101.500
2.171,-529.500,-477.000,-48.000,-101.500
2.172,-530.000,-477.000,-48.000,-101.000
2.173,-530.000,-476.500,-48.000,-101.000
2.174,-530.000,-476.000,-47.500,-100.500
2.175,-529.500,-475.500,-46.500,-100.000
2.176,-529.500,-475.000,-45.500,-99.500
2.177,-530.000,-474.000,-44.500,-99.500
2.178,-529.500,-473.500,-44.000,-99.000
2.179,-529.500,-473.000,-43.000,-98.500
2.180,-529.500,-472.500,-42.500,-98.000
2.181,-529.500,-472.500,-42.000,-97.500
2.182,-529.500,-472.500,-42.000,-97.500
2.183,-529.000,-472.500,-42.000,-97.000
2.184,-529.000,-473.000,-42.000,-96.500
2.185,-529.000,-473.000,-42.500,-96.000
2.186,-529.000,-473.000,-43.000,-96.000
2.187,-529.000,-473.500,-43.500,-96.000
2.188,-529.000,-473.500,-44.000,-96.000
2.189,-528.500,-474.000,-45.000,-96.000
2.190,-528.500,-474.000,-45.500,-96.500
2.191,-528.500,-474.000,-46.000,-96.500
2.192,-528.500,-474.000,-46.500,-97.000
2.193,-528.500,-473.500,-46.500,-97.000
2.194,-528.500,-473.000,-46.000,-97.000
2.195,-528.500,-472.500,-45.000,-97.000
2.196,-528.000,-472.000,-44.500,-97.000
2.197,-527.500,-471.000,-43.500,-96.500
2.198,-527.500,-470.500,-43.000,-96.500
2.199,-527.000,-470.500,-42.500,-96.500
2.200,-527.000,-470.000,-42.500,-96.000
2.201,-527.000,-469.500,-42.500,-96.000
2.202,-527.000,-469.500,-42.000,-95.500
2.203,-527.000,-469.500,-42.000,-95.500
2.204,-527.500,-469.000,-42.000,-95.000
2.205,-527.500,-469.500,-42.000,-95.000
2.206,-528.000,-469.500,-42.000,-94.500
2.207,-528.500,-469.500,-42.000,-95.000
2.208,-529.500,-470.000,-42.500,-95.000
2.209,-530.000,-470.000,-42.500,-95.000
2.210,-530.500,-470.000,-42.500,-95.000
2.211,-530.500,-470.000,-42.000,-95.000
2.212,-530.500,-470.000,-42.000,-95.000
2.213,-530.500,-469.500,-41.500,-95.000
2.214,-530.500,-469.500,-41.500,-94.500
2.215,-530.500,-469.500,-41.500,-94.500
2.216,-530.000,-469.500,-41.500,-94.000
2.217,-529.500,-469.000,-41.500,-94.000
2.218,-529.000,-469.000,-42.000,-94.000
2.219,-528.500,-469.000,-42.000,-94.000
2.220,-528.000,-469.000,-42.000,-94.000
2.221,-527.500,-469.000,-42.000,-94.000
2.222,-527.000,-469.000,-42.000,-94.000
2.223,-527.000,-469.000,-42.000,-94.000
2.224,-527.000,-469.000,-41.500,-94.000
2.225,-527.000,-468.500,-41.500,-93.500
2.226,-527.000,-468.500,-41.500,-93.500
2.227,-527.500,-468.500,-41.500,-93.500
2.228,-527.500,-468.500,-41.500,-93.500
2.229,-528.000,-468.000,-41.000,-93.500
2.230,-527.500,-468.000,-40.500,-93.000
2.231,-527.500,-467.500,-40.000,-92.000
2.232,-527.500,-467.000,-39.500,-91.500
2.233,-527.500,-467.000,-39.000,-91.000
2.234,-527.500,-467.000,-39.500,-90.500
2.235,-527.500,-467.500,-39.500,-90.000
2.236,-527.500,-467.500,-39.500,-89.500
2.237,-527.000,-467.500,-39.000,-89.000
2.238,-526.000,-467.000,-39.000,-88.500
2.239,-525.500,-467.000,-38.000,-88.000
2.240,-525.000,-467.000,-37.500,-87.500
2.241,-524.500,-466.500,-37.000,-87.000
2.242,-524.000,-466.000,-37.000,-87.000
2.243,-524.000,-466.000,-37.000,-87.000
2.244,-524.000,-466.000,-37.000,-87.500
2.245,-524.500,-466.000,-37.500,-88.000
2.246,-524.500,-466.500,-38.000,-88.500
2.247,-525.000,-466.500,-38.000,-89.000
2.248,-525.000,-466.500,-38.000,-88.500
2.249,-525.000,-466.500,-38.000,-88.500
2.250,-525.000,-466.500,-37.500,-88.000
2.251,-525.000,-466.500,-37.500,-88.000
2.252,-525.000,-466.500,-37.500,-88.000
2.253,-525.000,-466.500,-37.500,-88.500
2.254,-525.000,-466.500,-37.500,-88.500
2.255,-524.500,-466.000,-37.500,-88.500
2.256,-524.000,-465.500,-37.000,-88.000
2.257,-523.500,-465.000,-36.500,-87.500
2.258,-523.000,-464.500,-35.500,-87.000
2.259,-522.500,-463.500,-34.500,-86.500
2.260,-522.000,-462.500,-33.500,-86.500
2.261,-521.500,-462.000,-33.000,-86.500
2.262,-521.500,-462.000,-33.000,-87.000
2.263,-521.500,-462.500,-34.000,-87.500
2.264,-522.000,-464.000,-35.500,-88.000
2.265,-522.500,-466.000,-37.000,-88.500
2.266,-523.500,-467.500,-38.000,-88.500
2.267,-525.000,-469.000,-39.000,-89.000
2.268,-526.000,-470.000,-40.000,-89.000
2.269,-527.000,-470.500,-41.000,-89.500
2.270,-527.500,-471.000,-41.500,-90.500
2.271,-528.000,-471.000,-41.500,-91.000
2.272,-527.500,-470.000,-41.500,-91.000
2.273,-527.000,-469.000,-41.000,-91.000
2.274,-525.500,-468.000,-40.000,-90.500
2.275,-524.000,-467.000,-39.500,-90.000
2.276,-522.000,-466.000,-39.000,-89.500
2.277,-520.000,-465.500,-38.500,-89.500
2.278,-518.500,-465.500,-38.000,-89.000
2.279,-517.500,-465.000,-37.500,-89.000
2.280,-517.000,-464.500,-37.000,-88.500
2.281,-516.500,-464.500,-36.500,-87.500
2.282,-516.500,-464.500,-35.500,-87.000
2.283,-516.500,-464.500,-35.000,-87.000
2.284,-517.000,-464.500,-35.000,-86.500
2.285,-517.500,-464.500,-35.000,-86.500
2.286,-518.000,-465.000,-35.000,-87.000
2.287,-518.500,-465.000,-35.500,-87.000
2.288,-518.500,-465.500,-35.500,-87.500
2.289,-519.000,-465.500,-35.500,-87.500
2.290,-519.000,-465.000,-35.500,-87.500
2.291,-519.500,-465.000,-36.000,-87.500
2.292,-519.500,-465.000,-36.000,-87.500
2.293,-519.500,-464.500,-36.000,-87.500
2.294,-519.000,-464.500,-36.000,-87.500
2.295,-519.000,-464.000,-36.000,-87.500
2.296,-518.500,-464.000,-36.000,-87.500
2.297,-518.000,-463.500,-35.500,-87.500
2.298,-518.000,-463.000,-35.000,-87.500
2.299,-517.500,-462.500,-35.000,-87.500
2.300,-517.000,-462.500,-34.500,-87.500
2.301,-517.000,-462.500,-34.500,-87.500
2.302,-517.000,-463.000,-34.500,-87.500
2.303,-517.000,-463.500,-34.500,-87.500
2.304,-517.000,-464.500,-34.500,-87.500
2.305,-517.000,-465.000,-34.500,-87.500
2.306,-517.000,-465.500,-34.500,-87.500
2.307,-517.000,-465.500,-34.500,-87.000
2.308,-516.500,-465.500,-34.500,-87.000
2.309,-516.500,-465.000,-34.500,-86.500
2.310,-516.500,-464.500,-34.500,-86.500
2.311,-516.000,-464.000,-34.500,-86.000
2.312,-516.000,-463.500,-34.500,-86.000
2.313,-515.500,-463.000,-34.500,-86.500
2.314,-515.500,-463.000,-34.500,-86.500
2.315,-515.500,-463.000,-34.500,-86.500
2.316,-515.000,-463.000,-34.500,-86.500
2.317,-515.000,-463.500,-34.000,-86.500
2.318,-515.000,-464.500,-34.000,-86.500
2.319,-515.000,-465.000,-34.000,-86.500
2.320,-515.500,-465.500,-34.000,-86.500
2.321,-516.000,-466.000,-34.000,-87.000
2.322,-516.500,-466.000,-34.000,-87.500
2.323,-517.000,-466.500,-34.500,-88.000
2.324,-518.000,-466.500,-35.000,-88.500
2.325,-518.500,-466.000,-36.000,-88.500
2.326,-519.000,-466.000,-36.500,-88.500
2.327,-519.500,-466.000,-37.000,-89.000
2.328,-519.500,-465.500,-37.000,-88.500
2.329,-519.000,-465.000,-37.000,-88.000
2.330,-518.500,-464.500,-36.500,-87.000
2.331,-518.000,-463.500,-36.000,-85.500
2.332,-517.000,-462.500,-34.500,-83.500
2.333,-516.000,-461.500,-33.500,-81.000
2.334,-515.500,-460.500,-31.500,-78.500
2.335,-514.500,-459.000,-29.000,-76.000
2.336,-513.500,-457.500,-26.500,-73.000
2.337,-512.000,-455.500,-23.500,-70.000
2.338,-511.000,-454.000,-21.000,-67.500
2.339,-509.500,-452.000,-19.000,-65.000
2.340,-508.000,-450.500,-17.000,-63.000
2.341,-506.500,-449.500,-16.000,-62.000
2.342,-505.500,-448.500,-16.000,-62.000
2.343,-504.500,-448.000,-16.000,-62.000
2.344,-503.500,-447.000,-16.500,-62.500
2.345,-503.000,-446.500,-16.500,-62.500
2.346,-502.500,-446.000,-16.000,-62.000
2.347,-502.000,-445.000,-15.500,-61.500
2.348,-501.000,-444.500,-14.500,-61.000
2.349,-500.500,-443.500,-14.000,-61.000
2.350,-500.000,-443.000,-13.500,-60.500
2.351,-499.500,-442.500,-13.000,-60.500
2.352,-498.500,-442.500,-13.000,-61.000
2.353,-498.000,-442.000,-13.500,-61.500
2.354,-497.000,-442.000,-14.000,-62.500
2.355,-496.000,-441.500,-14.500,-63.000
2.356,-495.000,-441.500,-15.000,-64.000
2.357,-494.000,-441.500,-15.000,-64.500
2.358,-493.500,-441.000,-15.000,-65.000
2.359,-493.000,-441.000,-14.500,-65.500
2.360,-493.000,-441.000,-14.500,-66.000
2.361,-493.000,-441.000,-14.000,-66.500
2.362,-493.000,-441.500,-14.500,-67.000
2.363,-493.500,-442.000,-15.000,-68.000
2.364,-494.500,-443.000,-15.500,-68.500
2.365,-495.500,-444.000,-16.000,-69.000
2.366,-496.000,-445.000,-17.000,-70.000
2.367,-496.500,-445.500,-18.000,-71.000
2.368,-497.000,-446.000,-19.000,-72.000
2.369,-497.500,-447.000,-20.000,-72.500
2.370,-498.000,-447.500,-21.000,-73.000
2.371,-498.500,-448.500,-21.500,-73.000
2.372,-499.000,-449.500,-22.500,-72.500
2.373,-499.000,-450.500,-23.500,-72.000
2.374,-499.500,-451.000,-23.500,-71.500
2.375,-499.000,-451.500,-23.500,-71.000
2.376,-499.000,-451.500,-23.000,-70.500
2.377,-499.000,-451.500,-22.500,-70.500
2.378,-498.500,-451.500,-22.000,-70.000
2.379,-498.500,-451.000,-21.000,-69.500
2.380,-498.500,-450.500,-20.500,-69.500
2.381,-498.500,-450.000,-20.000,-69.500
2.382,-499.000,-450.000,-20.000,-69.500
2.383,-499.000,-450.000,-20.500,-69.500
2.384,-499.500,-450.000,-21.500,-70.000
2.385,-499.500,-450.000,-23.000,-71.000
2.386,-499.500,-450.000,-24.000,-71.500
2.387,-499.000,-450.500,-25.000,-72.500
2.388,-498.000,-450.000,-25.500,-72.500
2.389,-497.500,-450.000,-25.500,-72.500
2.390,-496.500,-449.500,-25.000,-72.500
2.391,-496.000,-449.000,-24.500,-72.000
2.392,-495.500,-448.500,-24.000,-72.000
2.393,-495.000,-448.000,-23.500,-71.500
2.394,-494.500,-447.500,-23.000,-71.500
2.395,-494.000,-446.500,-22.500,-71.000
2.396,-493.500,-446.500,-22.000,-71.000
2.397,-493.500,-446.000,-22.000,-70.500
2.398,-493.000,-446.500,-22.000,-70.000
2.399,-493.000,-446.500,-22.000,-69.500
2.400,-492.500,-447.000,-22.000,-69.000
2.401,-492.500,-447.000,-22.000,-68.500
2.402,-492.500,-447.500,-22.000,-68.000
2.403,-492.500,-447.500,-21.500,-68.000
2.404,-492.500,-447.500,-21.500,-68.000
2.405,-492.500,-448.000,-21.500,-68.000
2.406,-492.500,-448.000,-22.000,-68.000
2.407,-493.000,-448.500,-22.000,-68.000
2.408,-493.000,-448.500,-22.500,-68.000
2.409,-493.000,-448.500,-22.500,-67.500
2.410,-493.500,-448.500,-22.500,-67.000
2.411,-493.500,-448.000,-22.000,-66.500
2.412,-493.500,-447.000,-21.500,-66.000
2.413,-493.000,-446.500,-20.500,-65.500
2.414,-493.000,-445.500,-19.500,-65.000
2.415,-492.500,-444.500,-19.000,-65.000
2.416,-492.000,-444.000,-18.000,-65.000
2.417,-491.500,-444.000,-18.000,-64.500
2.418,-490.500,-443.500,-18.000,-64.500
2.419,-490.000,-443.500,-18.000,-64.000
2.420,-489.500,-443.500,-17.500,-63.500
2.421,-488.500,-443.500,-17.500,-63.000
2.422,-488.000,-444.000,-18.000,-62.500
2.423,-487.500,-444.500,-18.000,-62.000
2.424,-487.500,-445.500,-18.500,-62.000
2.425,-487.500,-446.500,-19.000,-62.000
2.426,-487.500,-447.000,-19.500,-61.500
2.427,-488.000,-447.500,-20.000,-61.500
2.428,-488.000,-448.000,-20.000,-61.500
2.429,-488.000,-448.000,-20.000,-61.500
2.430,-488.000,-448.500,-20.000,-61.500
2.431,-488.000,-448.000,-20.000,-61.500
2.432,-487.500,-447.500,-19.500,-61.500
2.433,-487.000,-446.500,-19.000,-61.000
2.434,-486.500,-445.500,-18.500,-61.000
2.435,-485.500,-444.500,-18.000,-60.500
2.436,-485.000,-443.500,-17.500,-60.000
2.437,-484.500,-442.500,-17.000,-60.000
2.438,-484.500,-442.000,-16.500,-59.500
2.439,-484.000,-441.500,-16.500,-59.500
2.440,-483.500,-441.500,-16.000,-59.500
2.441,-483.500,-442.000,-16.000,-59.500
2.442,-483.500,-443.000,-16.000,-59.500
2.443,-483.500,-444.500,-16.000,-59.500
2.444,-484.000,-446.000,-16.500,-59.500
2.445,-485.000,-447.000,-17.000,-60.000
2.446,-485.500,-448.000,-17.500,-60.500
2.447,-485.500,-448.000,-18.000,-61.000
2.448,-486.000,-447.500,-19.000,-61.500
2.449,-485.500,-446.500,-19.500,-62.000
2.450,-485.500,-445.500,-19.500,-62.500
2.451,-484.500,-444.000,-20.000,-62.500
2.452,-483.500,-443.000,-19.500,-62.000
2.453,-482.000,-441.500,-19.000,-61.500
2.454,-480.500,-440.500,-18.500,-61.000
2.455,-478.500,-439.500,-17.500,-60.000
2.456,-476.500,-438.500,-16.500,-59.500
2.457,-475.500,-438.000,-15.500,-59.000
2.458,-474.500,-437.500,-15.000,-58.500
2.459,-474.000,-437.000,-14.500,-58.500
2.460,-474.000,-437.000,-14.000,-58.000
2.461,-473.500,-436.500,-13.500,-58.000
2.462,-473.500,-436.500,-13.000,-57.500
2.463,-473.500,-436.500,-12.500,-57.000
2.464,-474.000,-436.500,-12.500,-56.500
2.465,-474.000,-436.500,-12.000,-56.500
2.466,-474.500,-437.000,-12.500,-56.000
2.467,-475.000,-437.000,-12.500,-56.000
2.468,-475.000,-437.000,-13.000,-56.000
2.469,-475.500,-437.000,-13.000,-55.500
2.470,-475.500,-436.500,-13.000,-55.500
2.471,-475.000,-436.500,-12.500,-55.500
2.472,-475.000,-436.500,-12.500,-55.000
2.473,-474.500,-436.000,-12.000,-55.000
2.474,-474.000,-436.000,-11.500,-54.500
2.475,-473.500,-435.500,-10.500,-54.500
2.476,-473.000,-435.000,-10.000,-53.500
2.477,-472.500,-434.500,-9.000,-53.000
2.478,-472.000,-434.500,-8.500,-52.500
2.479,-472.000,-434.000,-8.500,-52.000
2.480,-472.000,-434.000,-8.500,-52.000
2.481,-472.000,-434.500,-9.000,-52.000
2.482,-471.500,-434.500,-9.500,-52.500
2.483,-471.500,-434.500,-9.500,-52.500
2.484,-471.500,-435.000,-10.000,-52.500
2.485,-472.000,-435.000,-10.000,-52.500
2.486,-472.000,-435.500,-10.000,-52.000
2.487,-472.500,-435.500,-10.000,-52.000
2.488,-473.000,-436.000,-10.000,-52.000
2.489,-473.000,-436.500,-10.500,-51.500
2.490,-473.500,-436.500,-10.500,-51.500
2.491,-474.000,-437.000,-10.000,-51.000
2.492,-474.000,-437.500,-10.000,-50.500
2.493,-474.000,-437.500,-9.500,-50.000
2.494,-474.000,-437.500,-9.000,-49.500
2.495,-474.000,-437.500,-8.500,-49.000
2.496,-473.500,-437.000,-7.500,-49.000
2.497,-473.000,-436.500,-7.000,-48.500
2.498,-473.000,-435.500,-7.000,-48.500
2.499,-472.500,-435.000,-7.500,-49.000
2.500,-471.500,-435.000,-7.500,-49.000
2.501,-470.000,-434.000,-7.500,-49.000
2.502,-469.000,-433.500,-7.500,-49.000
2.503,-467.500,-433.000,-7.000,-48.500
2.504,-466.500,-433.000,-7.000,-48.500
2.505,-465.500,-432.500,-7.000,-48.500
2.506,-465.500,-433.000,-7.000,-48.500
2.507,-465.500,-433.000,-7.500,-48.500
2.508,-465.500,-433.000,-7.500,-48.500
2.509,-466.000,-433.000,-7.000,-48.000
2.510,-466.000,-432.500,-7.000,-47.500
2.511,-466.500,-432.000,-6.500,-47.000
2.512,-466.000,-431.500,-5.500,-46.500
2.513,-466.000,-430.500,-5.000,-46.000
2.514,-466.000,-430.000,-4.000,-46.000
2.515,-465.500,-430.000,-3.000,-45.500
2.516,-465.000,-429.500,-2.500,-44.500
2.517,-464.500,-429.000,-2.000,-44.000
2.518,-463.500,-428.500,-1.000,-43.000
2.519,-462.500,-428.000,-0.500,-42.500
2.520,-462.000,-427.500,0.500,-41.500
2.521,-461.500,-427.500,0.500,-41.000
2.522,-461.000,-428.000,0.000,-41.000
2.523,-461.000,-429.000,-1.000,-41.000
2.524,-461.000,-430.000,-2.000,-41.500
2.525,-461.000,-431.000,-3.000,-41.500
2.526,-461.000,-432.000,-4.000,-41.000
2.527,-461.500,-432.000,-4.000,-40.500
2.528,-461.500,-432.000,-4.000,-40.500
2.529,-462.000,-432.000,-4.000,-40.000
2.530,-462.000,-431.500,-4.000,-39.500
2.531,-462.000,-430.500,-3.500,-39.500
2.532,-461.500,-430.000,-3.000,-39.500
2.533,-461.500,-429.500,-2.500,-39.500
2.534,-461.000,-429.000,-1.500,-39.500
2.535,-460.500,-428.500,-1.000,-39.000
2.536,-459.500,-428.000,0.000,-38.500
2.537,-459.000,-427.500,0.500,-37.500
2.538,-458.500,-427.000,1.000,-37.000
2.539,-458.000,-427.000,1.000,-36.500
2.540,-457.500,-427.000,1.000,-36.500
2.541,-457.000,-427.000,0.500,-36.500
2.542,-457.000,-427.000,0.500,-36.500
2.543,-457.000,-427.500,0.000,-36.000
2.544,-457.000,-427.500,0.000,-36.000
2.545,-457.500,-428.000,-0.500,-36.000
2.546,-457.500,-428.500,-1.000,-35.500
2.547,-458.000,-428.500,-1.000,-35.500
2.548,-458.500,-429.000,-1.500,-35.500
2.549,-458.500,-429.000,-1.000,-35.500
2.550,-459.000,-429.000,-1.000,-35.000
2.551,-459.000,-429.000,-1.000,-35.000
2.552,-459.000,-428.500,-0.500,-35.000
2.553,-459.000,-428.500,-0.500,-35.000
2.554,-458.500,-428.000,0.500,-34.500
2.555,-457.500,-427.000,1.000,-34.000
2.556,-457.000,-426.000,1.500,-33.500
2.557,-456.000,-425.500,2.500,-33.000
2.558,-455.500,-424.500,3.000,-32.500
2.559,-455.000,-424.000,3.000,-32.000
2.560,-454.500,-424.000,2.500,-32.000
2.561,-454.500,-424.000,2.000,-32.500
2.562,-454.000,-424.500,1.500,-33.000
2.563,-454.000,-425.000,1.000,-33.500
2.564,-454.500,-425.000,0.500,-34.000
2.565,-455.000,-425.500,0.000,-34.500
2.566,-455.500,-425.500,-0.500,-34.500
2.567,-456.000,-425.500,-0.500,-35.000
2.568,-456.500,-425.500,-1.000,-35.000
2.569,-457.500,-425.000,-1.000,-35.000
2.570,-458.000,-425.000,-1.000,-35.000
2.571,-458.000,-425.500,-1.000,-34.500
2.572,-458.000,-426.000,-0.500,-34.500
2.573,-457.500,-426.500,0.000,-33.500
2.574,-457.000,-427.500,0.500,-32.500
2.575,-456.500,-428.000,1.000,-32.000
2.576,-456.000,-429.000,1.500,-31.000
2.577,-455.500,-429.000,1.500,-31.000
2.578,-455.000,-428.500,2.000,-30.500
2.579,-454.500,-427.500,2.500,-30.000
2.580,-454.000,-426.500,2.500,-29.500
2.581,-453.500,-426.000,3.000,-29.500
2.582,-452.500,-425.000,2.500,-30.000
2.583,-452.000,-424.500,2.500,-30.500
2.584,-451.000,-424.000,2.000,-30.500
2.585,-450.000,-423.000,2.000,-30.500
2.586,-448.500,-422.500,2.500,-30.500
2.587,-447.500,-421.500,2.500,-30.000
2.588,-446.500,-421.000,2.500,-30.000
2.589,-446.000,-420.500,2.000,-30.000
2.590,-446.000,-420.500,2.000,-30.500
2.591,-446.000,-420.500,1.500,-31.000
2.592,-446.500,-420.500,1.000,-31.500
2.593,-447.000,-421.000,1.000,-31.500
2.594,-447.500,-421.000,0.500,-32.000
2.595,-447.500,-421.500,1.000,-31.500
2.596,-447.500,-421.500,1.000,-31.500
2.597,-447.500,-422.000,1.500,-31.000
2.598,-447.500,-422.000,1.500,-30.500
2.599,-447.500,-422.000,1.500,-30.500
2.600,-447.500,-421.500,1.500,-30.000
2.601,-447.500,-421.500,2.000,-30.000
2.602,-448.000,-421.000,2.000,-30.000
2.603,-448.000,-421.000,2.500,-29.500
2.604,-448.000,-420.500,3.000,-29.500
2.605,-447.500,-420.000,3.000,-29.500
2.606,-447.000,-420.000,3.000,-29.000
2.607,-446.000,-420.000,3.000,-29.000
2.608,-445.500,-420.000,3.000,-29.500
2.609,-445.000,-420.000,3.000,-29.500
2.610,-444.500,-420.000,2.500,-29.500
2.611,-444.500,-420.500,2.500,-30.000
2.612,-444.000,-420.500,2.000,-30.000
2.613,-444.000,-421.000,2.000,-30.000
2.614,-444.000,-421.000,2.000,-30.000
2.615,-444.000,-421.000,2.000,-30.000
2.616,-443.500,-421.500,2.000,-30.000
2.617,-443.500,-421.500,1.500,-30.000
2.618,-443.000,-421.500,1.500,-30.500
2.619,-442.500,-421.500,1.000,-30.500
2.620,-442.000,-421.000,1.000,-30.500
2.621,-442.000,-421.000,1.000,-30.500
2.622,-441.500,-421.000,1.000,-30.500
2.623,-441.500,-421.000,1.000,-30.500
2.624,-441.500,-421.000,1.500,-30.000
2.625,-441.500,-421.000,1.000,-30.000
2.626,-441.500,-421.000,1.000,-29.500
2.627,-442.000,-421.500,1.000,-29.000
2.628,-442.000,-421.500,1.500,-28.000
2.629,-442.000,-421.000,1.500,-27.000
2.630,-442.000,-420.500,2.000,-26.500
2.631,-441.500,-420.000,2.500,-25.500
2.632,-441.000,-419.500,3.500,-24.500
2.633,-440.500,-418.500,4.000,-24.000
2.634,-440.000,-418.000,4.500,-23.500
2.635,-439.000,-417.000,5.000,-23.500
2.636,-438.500,-416.500,5.500,-23.000
2.637,-437.500,-416.000,5.500,-23.000
2.638,-437.000,-415.500,6.000,-22.500
2.639,-436.500,-415.500,6.000,-22.500
2.640,-436.500,-415.000,6.500,-22.500
2.641,-436.000,-415.000,6.500,-22.500
2.642,-436.000,-414.500,6.000,-23.000
2.643,-435.500,-414.500,6.000,-23.000
2.644,-435.500,-414.500,6.000,-23.000
2.645,-436.000,-414.500,6.000,-23.000
2.646,-436.500,-414.500,6.000,-23.500
2.647,-436.500,-414.500,5.500,-24.000
2.648,-437.000,-415.000,5.000,-24.000
2.649,-437.500,-415.500,4.000,-24.500
2.650,-437.500,-416.000,3.000,-25.000
2.651,-437.500,-416.500,1.500,-25.000
2.652,-437.000,-416.500,1.000,-25.000
2.653,-437.000,-416.500,1.000,-24.500
2.654,-436.500,-416.500,1.000,-24.000
2.655,-436.000,-416.000,1.500,-23.000
2.656,-435.000,-415.500,2.000,-22.000
2.657,-434.000,-414.500,3.000,-21.500
2.658,-433.500,-413.500,4.000,-21.000
2.659,-433.000,-412.500,5.000,-20.500
2.660,-432.500,-411.000,5.500,-20.500
2.661,-432.000,-410.000,6.500,-20.500
2.662,-431.500,-409.500,7.000,-20.500
2.663,-431.500,-409.000,7.000,-20.500
2.664,-431.500,-409.000,6.500,-20.500
2.665,-432.000,-409.000,6.500,-20.000
2.666,-432.000,-409.500,6.000,-19.500
2.667,-432.000,-410.000,5.500,-19.000
2.668,-432.000,-411.000,5.000,-18.500
2.669,-431.500,-411.500,4.500,-18.000
2.670,-431.500,-412.000,4.500,-17.500
2.671,-431.000,-412.500,4.000,-17.500
2.672,-430.500,-413.000,3.500,-17.500
2.673,-430.500,-413.500,3.000,-17.500
2.674,-430.500,-413.500,3.000,-17.500
2.675,-430.000,-413.000,3.000,-17.000
2.676,-430.000,-412.500,4.000,-17.000
2.677,-429.500,-412.000,5.000,-16.500
2.678,-429.000,-411.500,6.000,-15.500
2.679,-428.500,-411.000,7.000,-15.000
2.680,-428.500,-411.500,7.500,-14.500
2.681,-428.500,-412.000,7.500,-14.500
2.682,-429.000,-412.500,7.000,-14.500
2.683,-429.500,-413.000,7.000,-14.500
2.684,-430.000,-413.000,6.500,-15.000
2.685,-430.500,-413.000,6.500,-15.500
2.686,-430.500,-412.000,6.500,-16.000
2.687,-430.500,-411.500,6.500,-16.000
2.688,-429.500,-410.000,7.000,-16.000
2.689,-428.500,-408.500,7.500,-15.500
2.690,-427.500,-407.500,7.500,-15.000
2.691,-426.000,-406.500,7.500,-14.500
2.692,-424.500,-406.000,7.000,-14.000
2.693,-423.500,-406.000,6.500,-13.500
2.694,-423.000,-406.500,5.500,-13.000
2.695,-422.500,-407.000,5.000,-12.500
2.696,-422.500,-408.000,5.000,-12.000
2.697,-422.500,-408.500,5.000,-11.500
2.698,-422.500,-408.500,5.500,-11.000
2.699,-422.500,-409.000,5.500,-11.000
2.700,-422.500,-409.000,5.500,-11.000
2.701,-422.500,-409.000,6.000,-11.000
2.702,-422.500,-409.000,6.000,-11.000
2.703,-423.000,-409.500,6.500,-11.000
2.704,-423.000,-410.000,6.500,-11.000
2.705,-423.500,-410.000,7.000,-10.500
2.706,-424.000,-410.000,7.000,-10.000
2.707,-424.500,-410.000,7.000,-10.000
2.708,-425.000,-409.500,6.500,-9.500
2.709,-425.500,-409.000,6.500,-9.000
2.710,-425.500,-408.500,7.000,-9.000
2.711,-425.000,-407.500,7.500,-8.500
2.712,-424.000,-406.500,8.000,-8.000
2.713,-422.500,-405.500,8.500,-7.500
2.714,-421.000,-404.500,9.000,-7.000
2.715,-419.500,-404.000,9.500,-6.500
2.716,-418.500,-403.500,10.000,-6.500
2.717,-417.000,-403.000,10.000,-6.000
2.718,-416.000,-402.500,10.500,-5.500
2.719,-415.500,-402.500,10.500,-5.500
2.720,-415.000,-402.500,10.500,-5.000
2.721,-415.000,-402.500,11.000,-4.500
2.722,-415.000,-403.000,11.000,-4.000
2.723,-415.000,-403.000,11.000,-3.500
2.724,-415.500,-403.500,10.500,-3.500
2.725,-416.000,-404.000,10.000,-3.500
2.726,-417.000,-404.500,9.000,-4.500
2.727,-417.500,-405.500,7.500,-5.500
2.728,-418.000,-406.000,6.500,-6.000
2.729,-418.500,-406.500,6.000,-6.500
2.730,-419.000,-406.500,5.500,-7.000
2.731,-418.500,-406.500,5.500,-7.000
2.732,-418.500,-407.000,5.500,-7.000
2.733,-418.000,-407.500,5.000,-7.000
2.734,-417.000,-408.000,5.000,-6.500
2.735,-416.500,-408.000,5.000,-6.500
2.736,-415.500,-407.500,6.000,-5.500
2.737,-414.500,-406.500,7.000,-4.500
2.738,-413.500,-405.000,8.000,-3.500
2.739,-412.500,-403.500,8.500,-2.500
2.740,-412.000,-402.000,9.500,-1.500
2.741,-411.500,-401.500,10.000,-1.000
2.742,-411.000,-401.000,10.000,-1.000
2.743,-411.000,-400.500,10.000,-0.500
2.744,-411.000,-400.500,10.000,-0.500
2.745,-411.000,-400.500,9.500,-0.500
2.746,-411.500,-401.000,8.500,-1.000
2.747,-411.500,-401.000,8.000,-1.000
2.748,-411.500,-401.500,7.500,-1.000
2.749,-411.500,-401.500,7.000,-1.500
2.750,-411.500,-401.500,6.500,-1.500
2.751,-411.500,-401.500,6.500,-2.000
2.752,-411.500,-401.500,6.000,-2.000
2.753,-411.500,-401.500,6.000,-2.500
2.754,-411.000,-401.000,6.000,-2.000
2.755,-410.500,-400.500,6.500,-1.500
2.756,-410.000,-400.000,7.000,-1.000
2.757,-409.500,-399.500,7.500,-0.500
2.758,-408.500,-399.000,8.000,0.000
2.759,-408.000,-398.500,8.500,0.500
2.760,-407.000,-398.000,9.000,0.500
2.761,-407.000,-398.000,9.000,1.000
2.762,-406.500,-398.000,9.000,1.000
2.763,-406.500,-398.000,9.000,1.000
2.764,-406.500,-398.500,8.500,0.500
2.765,-407.000,-398.500,8.000,0.000
2.766,-407.000,-399.000,7.500,-0.500
2.767,-407.500,-399.000,6.500,-0.500
2.768,-408.000,-399.500,6.500,-1.000
2.769,-408.000,-399.500,6.000,-1.000
2.770,-408.000,-400.000,5.500,-1.000
2.771,-408.000,-400.000,5.500,-1.000
2.772,-408.000,-400.000,6.000,-0.500
2.773,-407.500,-399.500,6.000,-0.500
2.774,-406.500,-399.000,6.500,0.500
2.775,-406.000,-398.500,7.500,1.000
2.776,-405.000,-398.000,8.000,1.500
2.777,-404.500,-398.000,9.000,2.000
2.778,-404.000,-397.500,9.500,2.500
2.779,-403.500,-397.500,10.000,3.500
2.780,-403.000,-397.000,10.500,4.000
2.781,-403.000,-396.500,11.000,4.000
2.782,-402.500,-396.500,11.500,4.500
2.783,-402.000,-396.500,11.500,4.500
2.784,-401.500,-396.500,11.000,4.500
2.785,-401.500,-397.000,10.000,4.500
2.786,-401.500,-397.000,9.500,4.000
2.787,-401.000,-397.500,9.000,4.000
2.788,-401.000,-397.500,8.500,4.000
2.789,-401.000,-397.500,9.000,4.000
2.790,-401.000,-397.000,9.000,4.000
2.791,-401.000,-396.500,10.000,4.000
2.792,-401.000,-396.500,10.500,4.000
2.793,-401.000,-397.000,10.500,4.000
2.794,-401.500,-397.500,10.000,3.500
2.795,-402.000,-398.500,9.500,3.500
2.796,-402.000,-399.500,8.500,3.000
2.797,-402.500,-400.000,7.500,3.000
2.798,-402.500,-400.500,7.500,3.000
2.799,-402.500,-400.500,7.500,3.000
2.800,-402.500,-400.000,7.500,2.500
2.801,-402.000,-399.500,7.000,2.000
2.802,-401.500,-398.500,7.000,2.000
2.803,-400.500,-397.500,6.500,2.000
2.804,-399.500,-397.000,6.000,2.500
2.805,-398.500,-397.000,5.500,3.000
2.806,-398.000,-397.000,5.000,3.500
2.807,-398.000,-397.500,4.500,4.000
2.808,-398.000,-398.500,4.000,4.000
2.809,-398.500,-399.500,4.000,4.500
2.810,-399.500,-400.500,4.000,4.500
2.811,-400.500,-401.500,4.000,5.000
2.812,-401.500,-402.500,4.000,5.500
2.813,-402.500,-403.500,4.000,6.500
2.814,-403.500,-404.000,4.000,7.500
2.815,-403.500,-403.500,5.000,8.500
2.816,-404.000,-402.500,6.000,10.500
2.817,-403.500,-400.500,8.000,12.500
2.818,-402.500,-398.500,10.500,15.000
2.819,-401.000,-396.000,13.000,17.500
2.820,-399.500,-393.500,15.500,20.000
2.821,-397.000,-391.000,18.000,22.500
2.822,-395.000,-388.500,20.000,24.500
2.823,-393.000,-386.500,22.000,26.500
2.824,-391.500,-385.500,23.500,27.500
2.825,-390.500,-384.500,23.500,28.000
2.826,-390.500,-384.000,23.500,27.500
2.827,-390.000,-384.000,23.000,27.000
2.828,-390.000,-383.500,23.000,27.000
2.829,-389.500,-383.000,23.000,27.000
2.830,-389.000,-382.500,23.500,27.500
2.831,-388.000,-382.000,24.000,28.000
2.832,-387.500,-381.500,24.500,28.500
2.833,-386.500,-381.500,24.500,29.000
2.834,-385.500,-381.000,25.500,29.500
2.835,-384.000,-380.000,26.000,30.500
2.836,-383.000,-379.500,27.000,31.000
2.837,-382.000,-378.500,28.000,31.000
2.838,-381.500,-378.000,28.500,31.000
2.839,-381.000,-377.500,28.500,31.000
2.840,-380.500,-377.500,28.500,30.500
2.841,-380.000,-378.000,28.000,29.500
2.842,-380.000,-378.000,27.500,29.000
2.843,-380.000,-378.500,26.500,28.000
2.844,-380.500,-379.000,25.500,27.000
2.845,-381.000,-380.000,24.500,26.500
2.846,-381.500,-380.500,23.000,25.500
2.847,-382.000,-381.500,22.000,24.500
2.848,-383.000,-382.500,20.500,23.000
2.849,-384.000,-383.500,19.500,22.000
2.850,-384.500,-384.500,18.500,21.000
2.851,-385.500,-385.000,17.500,20.000
2.852,-386.000,-385.500,17.000,19.500
2.853,-386.500,-385.500,16.500,19.500
2.854,-387.000,-385.500,17.000,19.500
2.855,-387.500,-385.500,17.500,19.500
2.856,-387.500,-385.500,18.000,19.500
2.857,-387.500,-385.500,18.000,20.000
2.858,-387.500,-386.000,18.000,20.000
2.859,-387.500,-386.000,18.000,20.000
2.860,-387.000,-386.000,18.000,20.000
2.861,-387.000,-386.500,17.500,20.000
2.862,-386.500,-386.500,17.000,20.000
2.863,-386.500,-387.000,17.000,20.000
2.864,-386.500,-387.500,16.500,20.000
2.865,-386.500,-387.500,16.500,20.000
2.866,-386.500,-388.000,16.000,20.000
2.867,-387.000,-388.500,15.000,20.000
2.868,-387.000,-389.000,14.000,19.500
2.869,-387.500,-390.000,13.000,18.500
2.870,-388.000,-390.500,12.500,18.000
2.871,-388.000,-390.500,12.000,18.000
2.872,-388.000,-390.500,12.000,18.000
2.873,-388.000,-390.000,12.500,18.500
2.874,-387.500,-389.000,13.000,19.000
2.875,-387.000,-388.500,13.500,20.000
2.876,-386.500,-388.000,14.000,20.500
2.877,-386.500,-387.500,14.500,21.000
2.878,-386.000,-387.000,15.000,21.500
2.879,-386.000,-386.500,15.500,21.500
2.880,-385.500,-386.000,15.500,22.000
2.881,-385.500,-386.000,16.000,22.000
2.882,-385.500,-386.000,16.000,22.500
2.883,-385.000,-386.000,16.000,22.500
2.884,-385.000,-387.000,16.000,22.500
2.885,-385.000,-388.000,15.500,22.000
2.886,-385.000,-389.000,14.500,22.000
2.887,-385.500,-390.000,13.500,21.500
2.888,-385.500,-390.500,12.000,21.000
2.889,-385.500,-391.000,11.500,20.500
2.890,-385.500,-390.500,11.000,20.500
2.891,-385.500,-390.000,10.500,20.500
2.892,-385.000,-389.500,10.500,21.000
2.893,-385.000,-389.000,10.500,21.000
2.894,-384.500,-388.500,10.500,21.500
2.895,-384.500,-388.500,11.000,22.000
2.896,-384.000,-388.000,11.000,22.500
2.897,-383.500,-388.000,11.500,22.500
2.898,-383.000,-388.000,11.500,22.500
2.899,-383.000,-387.500,11.500,23.000
2.900,-382.500,-387.500,11.500,23.000
2.901,-382.500,-387.500,12.000,23.500
2.902,-382.500,-387.000,12.500,24.500
2.903,-382.000,-387.000,13.000,25.000
2.904,-382.000,-387.000,13.500,25.500
2.905,-382.500,-387.000,13.500,25.500
2.906,-382.500,-387.000,13.500,25.500
2.907,-383.000,-387.500,13.000,25.000
2.908,-383.500,-388.500,12.500,24.500
2.909,-384.000,-389.500,12.000,24.000
2.910,-385.000,-390.500,11.500,24.000
2.911,-385.500,-391.000,11.500,24.000
2.912,-386.500,-391.500,11.500,24.500
2.913,-387.000,-392.000,11.500,25.000
2.914,-387.000,-391.500,12.000,25.500
2.915,-387.000,-391.000,12.000,25.500
2.916,-386.500,-390.000,12.500,26.000
2.917,-385.500,-389.000,13.000,26.500
2.918,-384.500,-388.000,13.500,26.500
2.919,-383.000,-387.500,14.000,27.000
2.920,-381.500,-386.500,14.000,27.500
2.921,-380.500,-386.000,14.500,27.500
2.922,-379.500,-385.500,15.000,28.000
2.923,-379.000,-385.000,15.000,27.500
