'Elapsed time','AECG1','AECG2','AECG3','AECG4'
'seconds','uV','uV','uV','uV'
0.000,-55.500,-12.500,-45.500,-32.000
0.001,-55.000,-13.000,-46.000,-32.500
0.002,-55.000,-13.500,-47.000,-33.000
0.003,-54.500,-14.500,-47.500,-33.500
0.004,-55.000,-15.500,-48.500,-34.000
0.005,-55.000,-16.500,-49.000,-34.500
0.006,-55.000,-17.500,-49.500,-35.000
0.007,-55.000,-18.000,-49.500,-35.000
0.008,-55.000,-19.000,-50.000,-35.000
0.009,-55.000,-19.000,-49.500,-35.000
0.010,-55.000,-19.000,-49.500,-35.000
0.011,-55.000,-18.000,-49.000,-34.500
0.012,-55.500,-17.500,-49.000,-34.000
0.013,-55.500,-16.000,-48.500,-34.000
0.014,-55.500,-15.000,-48.000,-34.000
0.015,-55.500,-13.500,-47.500,-33.500
0.016,-55.500,-12.500,-47.000,-33.500
0.017,-55.000,-11.500,-46.500,-33.500
0.018,-55.500,-11.500,-47.000,-33.500
0.019,-55.000,-11.500,-46.500,-33.500
0.020,-55.500,-12.000,-47.000,-33.500
0.021,-55.000,-13.000,-47.500,-34.000
0.022,-55.000,-14.000,-48.500,-34.500
0.023,-54.500,-15.000,-49.000,-34.500
0.024,-54.500,-16.000,-50.000,-35.000
0.025,-54.000,-17.000,-50.000,-35.000
0.026,-54.000,-18.000,-51.000,-35.000
0.027,-54.000,-18.000,-51.000,-35.000
0.028,-54.500,-18.500,-51.500,-35.500
0.029,-54.500,-18.000,-51.000,-36.000
0.030,-55.000,-18.000,-51.000,-36.000
0.031,-55.000,-17.500,-50.500,-36.000
0.032,-55.500,-17.000,-50.000,-36.000
0.033,-55.000,-17.000,-49.500,-36.000
0.034,-55.500,-17.000,-49.500,-36.000
0.035,-55.000,-17.000,-49.000,-35.500
0.036,-55.500,-17.000,-49.000,-35.000
0.037,-55.000,-17.000,-48.500,-34.500
0.038,-55.000,-17.000,-48.500,-35.000
0.039,-54.500,-16.500,-48.000,-35.000
0.040,-54.500,-16.500,-48.000,-35.000
0.041,-54.000,-16.500,-48.000,-35.000
0.042,-54.000,-17.000,-48.000,-35.500
0.043,-54.000,-17.500,-48.000,-35.000
0.044,-54.500,-18.000,-48.500,-35.500
0.045,-54.500,-18.000,-48.500,-35.000
0.046,-54.500,-18.500,-49.000,-35.500
0.047,-54.500,-19.000,-49.000,-35.500
0.048,-54.500,-19.000,-49.500,-35.500
0.049,-54.500,-19.000,-49.500,-35.500
0.050,-54.500,-19.500,-49.500,-36.000
0.051,-54.500,-19.000,-49.500,-35.500
0.052,-55.000,-19.000,-50.000,-35.500
0.053,-55.000,-18.500,-49.500,-35.000
0.054,-55.000,-18.000,-49.000,-35.000
0.055,-55.000,-17.000,-48.500,-34.500
0.056,-55.000,-16.500,-48.000,-34.500
0.057,-54.500,-15.500,-47.500,-34.000
0.058,-54.500,-15.000,-47.500,-34.000
0.059,-54.000,-14.500,-47.500,-34.000
0.060,-54.000,-15.000,-48.000,-34.000
0.061,-54.000,-15.000,-48.500,-34.000
0.062,-54.000,-16.000,-49.000,-34.500
0.063,-53.500,-17.000,-50.000,-35.000
0.064,-54.000,-18.000,-51.000,-35.500
0.065,-53.500,-19.000,-51.500,-35.500
0.066,-53.500,-20.000,-52.000,-36.000
0.067,-53.000,-20.500,-51.500,-36.500
0.068,-53.000,-21.500,-51.500,-36.500
0.069,-52.500,-22.000,-51.000,-36.500
0.070,-53.000,-22.500,-50.500,-36.500
0.071,-53.000,-22.500,-49.500,-36.000
0.072,-53.500,-22.000,-49.000,-36.000
0.073,-53.500,-21.500,-48.000,-35.500
0.074,-54.000,-21.000,-47.500,-35.500
0.075,-54.000,-20.500,-47.000,-35.000
0.076,-54.500,-20.000,-47.000,-35.000
0.077,-54.000,-19.500,-46.500,-35.000
0.078,-54.000,-19.000,-47.000,-35.000
0.079,-53.500,-19.000,-47.500,-35.000
0.080,-53.000,-19.000,-48.500,-35.500
0.081,-52.500,-19.000,-49.000,-35.500
0.082,-52.500,-19.500,-50.000,-36.000
0.083,-52.500,-20.000,-51.000,-36.500
0.084,-53.000,-20.500,-51.500,-37.000
0.085,-53.000,-21.000,-51.500,-37.500
0.086,-53.000,-21.500,-52.000,-38.000
0.087,-53.000,-21.500,-51.500,-38.000
0.088,-53.500,-21.500,-51.500,-38.500
0.089,-53.500,-21.500,-51.000,-38.500
0.090,-53.500,-21.500,-51.000,-38.500
0.091,-53.500,-21.500,-50.500,-38.000
0.092,-54.000,-21.000,-50.500,-38.000
0.093,-54.000,-20.000,-49.500,-37.500
0.094,-54.000,-19.000,-49.000,-37.500
0.095,-54.000,-17.500,-48.000,-37.500
0.096,-54.500,-17.000,-47.500,-37.000
0.097,-54.500,-16.000,-47.000,-36.500
0.098,-54.500,-15.500,-46.500,-36.500
0.099,-54.000,-15.000,-46.000,-36.500
0.100,-53.500,-15.500,-46.000,-36.500
0.101,-53.000,-15.500,-46.000,-36.500
0.102,-53.000,-16.500,-46.500,-36.500
0.103,-53.000,-17.500,-46.500,-36.500
0.104,-53.000,-18.500,-47.500,-37.000
0.105,-52.500,-19.000,-48.000,-37.000
0.106,-53.000,-19.500,-49.000,-37.000
0.107,-53.000,-19.500,-49.500,-37.000
0.108,-53.500,-19.500,-50.000,-36.500
0.109,-53.500,-18.500,-49.500,-36.000
0.110,-53.500,-18.000,-49.000,-35.000
0.111,-53.500,-16.500,-47.500,-33.500
0.112,-53.500,-15.000,-46.500,-32.500
0.113,-53.000,-13.500,-45.000,-31.000
0.114,-53.000,-12.500,-44.000,-30.000
0.115,-53.000,-11.500,-43.000,-28.500
0.116,-53.000,-10.500,-42.000,-28.000
0.117,-52.500,-10.000,-41.000,-27.000
0.118,-53.000,-9.500,-40.500,-27.000
0.119,-52.500,-10.000,-40.000,-27.000
0.120,-53.000,-10.500,-41.000,-28.000
0.121,-53.000,-11.500,-41.500,-28.500
0.122,-53.000,-13.500,-43.500,-30.000
0.123,-53.000,-15.000,-45.000,-31.000
0.124,-53.500,-17.500,-47.000,-32.500
0.125,-53.500,-19.000,-49.000,-33.500
0.126,-54.000,-21.000,-51.000,-35.000
0.127,-54.000,-22.500,-52.000,-36.000
0.128,-54.500,-24.000,-53.500,-37.000
0.129,-54.500,-24.500,-53.500,-38.000
0.130,-55.000,-24.500,-54.000,-39.000
0.131,-55.000,-24.500,-53.500,-39.000
0.132,-55.500,-24.000,-53.500,-39.500
0.133,-55.000,-23.000,-52.500,-39.500
0.134,-55.000,-21.500,-51.500,-39.500
0.135,-54.500,-20.000,-50.000,-38.500
0.136,-54.500,-18.500,-49.000,-38.000
0.137,-54.000,-16.500,-47.500,-37.000
0.138,-53.500,-15.000,-46.500,-36.500
0.139,-53.000,-13.000,-45.000,-35.500
0.140,-53.000,-12.000,-44.500,-35.000
0.141,-52.500,-11.000,-44.000,-34.500
0.142,-52.500,-11.000,-44.000,-34.000
0.143,-52.000,-11.500,-44.000,-33.500
0.144,-52.500,-12.500,-44.500,-33.500
0.145,-52.500,-13.000,-45.000,-33.000
0.146,-52.500,-14.000,-45.500,-33.000
0.147,-52.500,-15.000,-45.500,-33.000
0.148,-53.000,-16.000,-46.000,-33.000
0.149,-53.000,-16.500,-45.500,-32.500
0.150,-53.500,-17.000,-45.500,-32.000
0.151,-53.000,-16.500,-44.500,-31.500
0.152,-53.000,-16.500,-44.000,-31.500
0.153,-53.000,-16.000,-43.000,-31.500
0.154,-53.000,-15.000,-42.000,-31.500
0.155,-52.500,-13.500,-41.000,-31.000
0.156,-53.000,-12.500,-40.500,-31.000
0.157,-52.500,-11.000,-40.000,-30.500
0.158,-53.000,-10.000,-39.500,-30.500
0.159,-52.500,-9.500,-39.500,-30.500
0.160,-52.500,-9.500,-40.000,-30.500
0.161,-52.000,-9.500,-40.500,-31.000
0.162,-52.000,-11.000,-41.500,-31.500
0.163,-51.500,-12.000,-42.500,-32.000
0.164,-51.500,-13.500,-43.000,-33.000
0.165,-51.000,-14.500,-43.000,-33.500
0.166,-51.000,-16.000,-43.500,-34.000
0.167,-51.000,-16.500,-43.000,-34.000
0.168,-51.500,-17.000,-43.000,-34.000
0.169,-51.000,-17.500,-43.000,-34.000
0.170,-51.500,-17.500,-43.000,-34.000
0.171,-51.000,-17.500,-42.500,-33.500
0.172,-51.500,-17.000,-42.500,-33.500
0.173,-51.000,-16.000,-42.000,-33.000
0.174,-51.500,-15.500,-41.500,-32.500
0.175,-51.000,-14.500,-40.500,-32.000
0.176,-51.500,-13.500,-40.000,-32.000
0.177,-51.000,-13.000,-39.500,-31.500
0.178,-51.000,-12.500,-39.000,-31.500
0.179,-50.500,-12.500,-39.000,-31.500
0.180,-50.000,-13.000,-39.500,-32.000
0.181,-49.500,-13.500,-40.000,-32.000
0.182,-49.500,-14.500,-40.500,-32.500
0.183,-49.500,-15.000,-41.000,-32.500
0.184,-50.000,-16.000,-42.000,-33.000
0.185,-49.500,-16.500,-42.500,-33.000
0.186,-50.000,-17.500,-43.000,-33.500
0.187,-49.500,-17.500,-43.000,-33.500
0.188,-50.000,-17.500,-43.000,-34.000
0.189,-49.500,-17.500,-43.000,-33.500
0.190,-50.000,-17.000,-43.000,-33.500
0.191,-50.000,-16.500,-43.000,-33.500
0.192,-50.000,-16.000,-43.000,-33.500
0.193,-50.000,-15.500,-42.000,-33.000
0.194,-50.500,-14.500,-41.500,-33.500
0.195,-50.500,-14.000,-40.500,-33.000
0.196,-50.500,-13.500,-40.000,-33.500
0.197,-50.500,-13.000,-39.000,-33.000
0.198,-50.500,-12.500,-38.500,-33.500
0.199,-50.000,-12.500,-38.000,-33.000
0.200,-50.000,-12.500,-38.500,-33.500
0.201,-50.000,-12.500,-38.500,-33.000
0.202,-50.000,-13.000,-39.500,-33.500
0.203,-49.500,-13.500,-40.000,-33.500
0.204,-49.500,-14.500,-41.000,-34.000
0.205,-49.500,-15.000,-41.500,-34.000
0.206,-49.500,-15.500,-42.000,-34.500
0.207,-49.500,-16.000,-42.500,-34.500
0.208,-49.000,-16.000,-42.500,-34.500
0.209,-48.500,-16.000,-42.500,-34.000
0.210,-48.500,-15.500,-42.000,-34.000
0.211,-48.500,-15.000,-41.500,-33.000
0.212,-48.500,-14.500,-41.000,-33.000
0.213,-48.500,-14.000,-40.500,-32.500
0.214,-49.000,-14.000,-40.000,-32.500
0.215,-49.000,-13.500,-39.000,-32.500
0.216,-49.500,-14.000,-39.000,-32.500
0.217,-49.500,-14.000,-39.000,-32.500
0.218,-49.500,-14.500,-39.000,-33.000
0.219,-49.500,-15.000,-39.500,-33.500
0.220,-49.500,-15.000,-40.000,-33.500
0.221,-49.000,-15.000,-40.000,-33.500
0.222,-48.500,-15.500,-41.000,-33.500
0.223,-48.000,-15.500,-41.000,-33.500
0.224,-48.000,-15.500,-42.000,-33.500
0.225,-48.000,-15.000,-42.000,-33.500
0.226,-48.000,-15.500,-42.500,-33.500
0.227,-48.000,-15.500,-43.000,-33.500
0.228,-48.500,-15.500,-43.000,-34.000
0.229,-49.000,-15.500,-43.000,-34.000
0.230,-49.500,-15.500,-42.500,-34.000
0.231,-49.500,-15.000,-42.000,-34.000
0.232,-49.500,-15.000,-41.500,-34.000
0.233,-49.500,-14.000,-41.000,-34.000
0.234,-49.500,-13.500,-40.000,-33.500
0.235,-49.000,-12.500,-39.000,-33.000
0.236,-49.000,-12.000,-38.000,-32.500
0.237,-48.500,-11.000,-37.000,-32.500
0.238,-48.500,-10.500,-37.000,-32.500
0.239,-48.500,-10.000,-36.500,-32.000
0.240,-48.500,-10.500,-37.000,-32.500
0.241,-48.000,-10.500,-37.500,-32.500
0.242,-48.000,-11.500,-38.500,-33.000
0.243,-47.500,-12.500,-39.500,-33.000
0.244,-47.500,-14.000,-40.500,-33.500
0.245,-47.500,-15.000,-41.000,-34.000
0.246,-47.500,-16.500,-41.500,-34.500
0.247,-47.500,-17.000,-41.500,-34.500
0.248,-47.500,-18.000,-42.000,-34.500
0.249,-47.000,-18.500,-41.500,-34.000
0.250,-47.000,-19.000,-41.500,-34.500
0.251,-46.500,-19.000,-40.500,-34.000
0.252,-46.500,-18.000,-40.000,-34.000
0.253,-46.500,-16.500,-38.500,-33.500
0.254,-47.000,-15.500,-37.500,-33.500
0.255,-47.000,-13.500,-36.500,-32.500
0.256,-47.000,-12.500,-35.500,-32.500
0.257,-47.000,-11.000,-35.000,-32.000
0.258,-47.000,-10.500,-35.000,-32.000
0.259,-47.000,-10.000,-35.000,-32.000
0.260,-47.000,-10.000,-36.000,-32.000
0.261,-46.500,-10.000,-36.500,-32.000
0.262,-46.500,-11.000,-37.500,-32.500
0.263,-46.500,-11.500,-38.500,-32.500
0.264,-46.500,-12.000,-39.500,-33.000
0.265,-46.500,-12.500,-40.000,-33.000
0.266,-46.500,-13.500,-40.500,-33.500
0.267,-46.500,-14.000,-40.500,-33.500
0.268,-46.000,-14.500,-41.000,-33.500
0.269,-45.500,-14.500,-41.000,-33.500
0.270,-46.000,-14.500,-41.000,-33.500
0.271,-46.000,-14.500,-41.000,-33.500
0.272,-46.000,-14.500,-41.000,-33.500
0.273,-46.000,-14.000,-40.500,-33.000
0.274,-46.500,-14.000,-40.000,-33.000
0.275,-46.500,-13.500,-39.000,-32.500
0.276,-47.000,-13.000,-38.500,-32.000
0.277,-47.000,-12.500,-38.000,-31.000
0.278,-47.000,-12.500,-37.500,-31.000
0.279,-46.500,-12.000,-37.000,-31.000
0.280,-46.500,-12.500,-37.500,-31.000
0.281,-46.000,-13.000,-37.500,-30.500
0.282,-46.000,-14.000,-37.500,-31.000
0.283,-45.500,-14.500,-37.500,-31.000
0.284,-45.500,-15.500,-37.000,-31.500
0.285,-45.500,-16.500,-37.000,-31.500
0.286,-46.000,-17.000,-37.000,-31.500
0.287,-46.000,-17.000,-36.500,-31.000
0.288,-46.500,-17.500,-37.000,-31.500
0.289,-46.500,-17.000,-37.000,-31.000
0.290,-46.500,-17.000,-37.000,-31.000
0.291,-46.500,-16.000,-37.000,-30.500
0.292,-47.000,-15.500,-37.000,-30.000
0.293,-47.000,-14.500,-36.500,-29.000
0.294,-47.500,-13.500,-36.000,-29.000
0.295,-47.500,-12.000,-35.000,-28.500
0.296,-47.500,-11.000,-34.500,-28.500
0.297,-47.500,-10.000,-34.000,-28.000
0.298,-47.500,-9.500,-34.000,-28.000
0.299,-47.500,-8.500,-33.500,-27.500
0.300,-48.000,-8.500,-34.000,-27.500
0.301,-48.000,-9.000,-34.500,-27.500
0.302,-48.000,-10.000,-35.500,-27.500
0.303,-48.000,-11.500,-36.000,-27.500
0.304,-48.000,-13.000,-37.000,-28.000
0.305,-48.000,-14.500,-37.500,-28.500
0.306,-48.000,-16.500,-38.000,-29.000
0.307,-48.000,-17.500,-38.500,-29.000
0.308,-48.000,-18.500,-39.000,-29.000
0.309,-47.500,-18.500,-39.000,-29.000
0.310,-47.500,-18.000,-39.500,-29.000
0.311,-47.500,-17.500,-39.000,-28.500
0.312,-47.500,-16.500,-39.000,-29.000
0.313,-47.000,-15.500,-38.500,-28.500
0.314,-47.500,-14.000,-38.500,-29.000
0.315,-47.000,-12.500,-38.000,-28.500
0.316,-47.000,-11.500,-37.500,-29.000
0.317,-47.000,-10.500,-37.000,-28.500
0.318,-47.000,-10.000,-37.500,-29.000
0.319,-46.500,-10.000,-37.500,-29.000
0.320,-46.500,-10.500,-38.000,-29.500
0.321,-46.000,-11.000,-38.000,-30.000
0.322,-46.500,-11.500,-39.000,-30.500
0.323,-46.500,-12.500,-40.000,-31.000
0.324,-47.000,-14.000,-41.000,-32.000
0.325,-47.000,-15.000,-41.500,-32.500
0.326,-47.500,-16.000,-42.000,-33.000
0.327,-47.500,-17.000,-42.500,-33.500
0.328,-47.500,-17.500,-42.500,-34.000
0.329,-47.500,-18.000,-42.500,-34.000
0.330,-47.500,-18.000,-42.500,-34.000
0.331,-47.000,-17.000,-42.000,-34.000
0.332,-47.000,-16.500,-42.000,-33.500
0.333,-47.000,-15.000,-41.500,-33.000
0.334,-47.000,-14.000,-41.500,-33.000
0.335,-46.500,-12.500,-41.000,-32.500
0.336,-47.000,-11.500,-40.500,-32.500
0.337,-47.000,-10.500,-40.000,-32.000
0.338,-47.000,-10.500,-39.500,-32.000
0.339,-46.500,-10.000,-39.000,-31.500
0.340,-46.500,-10.500,-39.500,-31.500
0.341,-46.000,-11.000,-39.500,-31.500
0.342,-46.000,-12.000,-40.000,-32.500
0.343,-45.500,-13.000,-40.500,-33.000
0.344,-45.500,-14.000,-41.500,-33.500
0.345,-45.500,-15.000,-42.000,-34.000
0.346,-45.500,-16.000,-42.500,-35.000
0.347,-45.000,-16.000,-42.500,-35.000
0.348,-45.500,-16.000,-42.500,-35.500
0.349,-45.500,-15.500,-42.000,-35.500
0.350,-46.000,-14.500,-41.500,-35.500
0.351,-46.000,-13.500,-40.500,-35.000
0.352,-46.500,-12.000,-40.000,-34.500
0.353,-46.500,-10.500,-39.500,-34.000
0.354,-47.000,-9.500,-38.500,-33.500
0.355,-47.000,-8.000,-37.500,-33.000
0.356,-47.500,-7.500,-37.000,-32.500
0.357,-47.500,-6.500,-36.500,-32.500
0.358,-47.500,-6.500,-36.000,-32.500
0.359,-47.000,-6.000,-35.500,-32.000
0.360,-47.000,-6.500,-35.500,-32.500
0.361,-46.000,-7.000,-35.500,-32.500
0.362,-46.000,-8.500,-36.000,-33.000
0.363,-45.500,-9.500,-36.500,-33.000
0.364,-45.500,-11.000,-37.000,-33.500
0.365,-45.500,-12.000,-37.500,-34.000
0.366,-45.500,-13.000,-38.000,-34.500
0.367,-45.500,-13.000,-38.000,-34.500
0.368,-46.000,-13.500,-38.500,-35.000
0.369,-46.000,-13.500,-38.000,-35.000
0.370,-46.500,-13.500,-38.000,-35.500
0.371,-46.000,-13.000,-37.000,-35.000
0.372,-46.500,-12.500,-36.500,-35.000
0.373,-46.000,-12.000,-36.000,-35.000
0.374,-46.500,-11.000,-35.000,-34.500
0.375,-46.000,-10.000,-34.000,-34.000
0.376,-46.500,-9.500,-33.500,-34.000
0.377,-46.000,-8.500,-32.500,-33.500
0.378,-46.000,-8.000,-32.500,-33.500
0.379,-45.500,-8.000,-32.500,-33.000
0.380,-45.000,-8.000,-33.000,-33.000
0.381,-44.500,-8.000,-33.500,-33.000
0.382,-44.500,-8.500,-34.500,-33.500
0.383,-44.000,-9.000,-35.500,-33.500
0.384,-44.000,-10.000,-36.000,-34.000
0.385,-44.000,-10.500,-36.500,-34.500
0.386,-44.000,-11.000,-36.500,-34.500
0.387,-43.500,-11.000,-36.500,-34.500
0.388,-43.500,-11.500,-36.500,-34.500
0.389,-43.000,-11.000,-36.500,-34.000
0.390,-43.000,-11.000,-36.500,-33.500
0.391,-43.000,-10.500,-36.500,-33.000
0.392,-43.000,-10.500,-36.000,-33.000
0.393,-42.500,-10.500,-35.500,-32.500
0.394,-43.000,-10.000,-35.000,-32.500
0.395,-42.500,-9.500,-34.000,-32.000
0.396,-43.000,-9.000,-33.500,-31.500
0.397,-42.500,-8.500,-32.500,-31.000
0.398,-43.000,-8.500,-32.500,-30.500
0.399,-42.500,-8.500,-32.000,-30.000
0.400,-42.500,-9.000,-32.000,-30.000
0.401,-42.500,-9.000,-32.000,-29.500
0.402,-42.500,-10.000,-32.000,-29.000
0.403,-42.500,-10.500,-32.000,-28.500
0.404,-42.500,-11.500,-32.000,-27.500
0.405,-42.000,-12.000,-31.500,-26.000
0.406,-42.500,-12.500,-31.500,-24.500
0.407,-42.500,-12.500,-31.000,-22.500
0.408,-43.000,-13.000,-31.000,-20.500
0.409,-43.000,-12.500,-30.500,-18.500
0.410,-43.500,-12.500,-30.500,-16.500
0.411,-44.000,-12.000,-30.500,-14.500
0.412,-44.500,-12.000,-30.500,-13.000
0.413,-44.500,-11.500,-30.500,-11.500
0.414,-45.000,-11.500,-31.000,-10.000
0.415,-45.000,-11.500,-31.000,-8.000
0.416,-45.500,-11.500,-31.500,-7.000
0.417,-46.000,-11.500,-31.500,-6.000
0.418,-46.500,-12.500,-32.500,-5.500
0.419,-47.000,-13.000,-33.500,-5.000
0.420,-48.000,-14.500,-34.500,-5.000
0.421,-48.500,-16.000,-36.000,-5.500
0.422,-49.000,-18.000,-38.500,-6.500
0.423,-49.500,-19.500,-41.000,-8.000
0.424,-50.500,-22.000,-45.000,-10.000
0.425,-51.000,-24.000,-49.000,-12.000
0.426,-51.500,-26.500,-53.500,-14.500
0.427,-52.000,-29.000,-57.500,-17.000
0.428,-53.000,-31.500,-62.000,-20.500
0.429,-53.500,-33.500,-66.000,-24.500
0.430,-54.000,-35.500,-70.500,-29.500
0.431,-54.500,-36.500,-74.500,-35.000
0.432,-55.500,-38.000,-79.000,-41.500
0.433,-55.500,-39.000,-83.000,-48.000
0.434,-56.000,-40.000,-87.500,-55.500
0.435,-56.500,-40.500,-92.000,-63.000
0.436,-57.000,-41.500,-97.000,-70.500
0.437,-57.000,-42.500,-101.500,-77.500
0.438,-57.000,-43.500,-106.000,-84.000
0.439,-57.000,-44.000,-109.500,-89.500
0.440,-57.000,-44.000,-112.000,-94.500
0.441,-56.500,-44.000,-112.500,-98.000
0.442,-56.000,-43.500,-112.500,-101.000
0.443,-55.000,-42.500,-110.500,-102.000
0.444,-54.000,-41.000,-107.500,-103.000
0.445,-53.000,-39.500,-104.000,-102.500
0.446,-52.500,-37.500,-100.000,-101.500
0.447,-51.500,-35.500,-95.500,-100.000
0.448,-50.500,-33.000,-91.000,-97.500
0.449,-50.000,-30.000,-86.000,-94.500
0.450,-49.500,-27.500,-82.000,-91.500
0.451,-49.000,-24.500,-77.000,-88.000
0.452,-48.500,-21.500,-72.500,-84.500
0.453,-48.000,-18.000,-68.000,-81.000
0.454,-47.500,-15.500,-63.500,-78.000
0.455,-46.500,-13.000,-59.500,-75.500
0.456,-46.000,-11.000,-56.000,-73.000
0.457,-45.000,-9.500,-52.500,-71.000
0.458,-44.000,-8.500,-50.000,-69.000
0.459,-43.500,-7.500,-47.000,-67.000
0.460,-43.000,-7.000,-45.000,-65.500
0.461,-42.000,-6.500,-43.500,-63.500
0.462,-42.000,-6.500,-42.000,-62.000
0.463,-41.500,-7.000,-41.000,-60.000
0.464,-41.500,-7.500,-40.000,-58.500
0.465,-41.500,-8.000,-39.000,-57.000
0.466,-41.500,-8.500,-38.500,-55.500
0.467,-41.500,-9.500,-37.500,-53.500
0.468,-42.000,-10.000,-37.000,-52.000
0.469,-41.500,-10.500,-36.000,-50.000
0.470,-42.000,-11.000,-35.500,-48.500
0.471,-42.000,-11.000,-34.000,-46.500
0.472,-42.000,-10.500,-33.500,-45.000
0.473,-42.000,-9.500,-32.500,-43.000
0.474,-42.000,-9.000,-32.000,-41.500
0.475,-42.000,-8.000,-31.000,-39.500
0.476,-42.000,-7.000,-31.000,-38.500
0.477,-42.000,-6.500,-31.000,-37.000
0.478,-42.000,-6.000,-31.000,-36.500
0.479,-42.000,-5.500,-31.000,-35.500
0.480,-42.000,-5.500,-31.500,-35.000
0.481,-42.000,-5.500,-32.000,-34.500
0.482,-42.500,-6.000,-32.500,-34.500
0.483,-42.500,-6.500,-32.500,-34.000
0.484,-42.500,-7.000,-33.000,-34.000
0.485,-42.500,-7.500,-32.500,-33.500
0.486,-42.500,-8.000,-32.500,-33.500
0.487,-42.000,-8.000,-32.500,-33.000
0.488,-42.000,-8.500,-32.500,-32.500
0.489,-42.000,-9.000,-32.500,-32.000
0.490,-42.000,-10.000,-32.500,-32.000
0.491,-41.500,-10.500,-32.000,-32.000
0.492,-42.000,-10.500,-32.000,-32.000
0.493,-42.000,-10.500,-31.000,-31.500
0.494,-42.500,-9.500,-30.500,-31.500
0.495,-42.500,-8.500,-30.000,-30.500
0.496,-42.500,-7.000,-29.500,-30.500
0.497,-42.500,-6.000,-28.500,-30.000
0.498,-42.500,-5.500,-28.000,-30.000
0.499,-42.000,-5.000,-27.500,-29.500
0.500,-42.000,-5.000,-28.000,-30.000
0.501,-41.500,-5.500,-28.000,-30.000
0.502,-41.500,-6.500,-28.500,-30.000
0.503,-41.000,-7.500,-29.000,-30.000
0.504,-40.500,-8.500,-30.000,-30.000
0.505,-40.000,-9.000,-30.000,-30.000
0.506,-40.000,-10.000,-31.000,-30.000
0.507,-40.000,-10.000,-31.000,-30.000
0.508,-40.000,-10.500,-32.000,-30.500
0.509,-39.500,-10.500,-32.000,-30.500
0.510,-40.000,-10.500,-32.000,-30.500
0.511,-40.000,-10.000,-31.500,-30.500
0.512,-40.500,-9.500,-31.000,-30.500
0.513,-40.500,-9.000,-30.000,-30.000
0.514,-41.000,-8.000,-29.500,-30.000
0.515,-40.500,-7.000,-28.500,-29.500
0.516,-41.000,-6.500,-28.000,-29.500
0.517,-40.500,-5.500,-28.000,-29.000
0.518,-40.500,-5.000,-28.500,-29.000
0.519,-40.000,-5.000,-28.500,-29.000
0.520,-40.000,-5.500,-29.500,-29.000
0.521,-39.500,-6.000,-30.000,-29.000
0.522,-39.500,-7.000,-30.500,-29.500
0.523,-39.500,-8.000,-31.000,-29.500
0.524,-40.000,-9.000,-31.500,-30.000
0.525,-40.000,-10.000,-31.500,-30.000
0.526,-40.000,-10.500,-32.000,-31.000
0.527,-40.000,-10.500,-32.000,-31.000
0.528,-40.500,-10.500,-32.500,-31.500
0.529,-40.500,-10.500,-33.000,-32.000
0.530,-41.000,-10.500,-33.000,-32.000
0.531,-41.000,-10.500,-33.000,-32.000
0.532,-41.000,-10.500,-33.000,-32.000
0.533,-41.000,-10.000,-32.500,-32.000
0.534,-41.000,-9.500,-32.000,-31.500
0.535,-41.000,-9.000,-31.500,-31.000
0.536,-40.500,-8.500,-31.500,-30.500
0.537,-40.000,-8.000,-31.000,-30.500
0.538,-40.000,-8.000,-31.500,-30.500
0.539,-40.000,-8.000,-31.500,-30.000
0.540,-40.000,-8.000,-32.000,-30.500
0.541,-39.500,-8.500,-32.000,-30.500
0.542,-39.500,-9.000,-32.500,-31.000
0.543,-39.500,-9.500,-32.000,-31.000
0.544,-40.000,-10.500,-31.500,-30.500
0.545,-40.000,-11.500,-31.000,-30.000
0.546,-40.500,-12.000,-30.500,-29.500
0.547,-40.500,-12.000,-30.000,-29.000
0.548,-40.500,-12.000,-29.000,-28.500
0.549,-40.500,-11.500,-28.000,-27.500
0.550,-40.500,-11.000,-27.500,-27.500
0.551,-40.000,-10.500,-26.000,-27.000
0.552,-40.000,-9.500,-25.500,-27.000
0.553,-40.000,-9.000,-24.500,-26.500
0.554,-40.000,-8.500,-23.500,-26.500
0.555,-39.500,-8.000,-23.000,-26.000
0.556,-39.500,-8.000,-23.000,-26.500
0.557,-39.500,-7.500,-23.000,-27.000
0.558,-40.000,-8.000,-24.000,-28.000
0.559,-40.000,-8.500,-25.000,-29.000
0.560,-40.500,-9.500,-26.500,-30.500
0.561,-40.500,-10.000,-28.000,-31.500
0.562,-41.000,-11.000,-30.000,-33.000
0.563,-41.000,-12.000,-32.000,-34.000
0.564,-41.500,-13.000,-33.500,-35.500
0.565,-41.500,-14.000,-35.000,-36.000
0.566,-42.000,-15.000,-36.500,-37.000
0.567,-42.000,-15.500,-37.500,-37.000
0.568,-42.000,-16.500,-38.500,-37.500
0.569,-42.000,-16.500,-38.500,-37.500
0.570,-42.000,-16.000,-38.500,-37.500
0.571,-41.500,-15.000,-37.500,-37.000
0.572,-41.500,-13.500,-37.000,-36.500
0.573,-41.000,-12.000,-35.500,-35.500
0.574,-41.000,-10.500,-34.500,-34.500
0.575,-41.000,-9.000,-33.000,-33.500
0.576,-41.000,-7.500,-32.000,-32.500
0.577,-40.500,-6.500,-31.000,-31.500
0.578,-40.500,-5.500,-30.500,-31.000
0.579,-40.000,-5.000,-30.000,-30.500
0.580,-40.000,-4.500,-29.500,-30.500
0.581,-40.000,-4.500,-29.000,-30.000
0.582,-40.000,-5.000,-29.000,-30.500
0.583,-39.500,-6.000,-29.000,-30.500
0.584,-39.500,-7.000,-29.500,-31.000
0.585,-39.500,-8.000,-29.500,-31.000
0.586,-39.500,-9.500,-30.000,-31.000
0.587,-39.500,-11.000,-30.000,-31.000
0.588,-40.000,-12.000,-30.500,-31.500
0.589,-40.000,-12.000,-30.500,-32.000
0.590,-40.000,-12.000,-30.500,-32.000
0.591,-40.000,-11.500,-29.500,-32.000
0.592,-40.500,-11.000,-29.500,-32.000
0.593,-40.500,-10.000,-28.500,-32.000
0.594,-40.500,-9.000,-28.000,-31.500
0.595,-40.500,-8.000,-27.500,-31.000
0.596,-40.500,-7.500,-27.000,-31.000
0.597,-40.000,-7.000,-26.500,-30.500
0.598,-40.000,-7.000,-26.500,-30.500
0.599,-39.500,-7.000,-26.500,-30.500
0.600,-39.500,-7.500,-27.500,-31.000
0.601,-39.500,-7.500,-28.000,-31.000
0.602,-39.500,-8.500,-29.000,-31.500
0.603,-39.500,-9.000,-30.000,-31.500
0.604,-39.500,-10.000,-30.500,-32.500
0.605,-39.500,-10.500,-31.000,-32.500
0.606,-39.500,-11.000,-31.500,-33.000
0.607,-39.500,-11.500,-31.500,-33.000
0.608,-39.500,-12.000,-32.000,-33.500
0.609,-39.500,-12.000,-31.500,-33.500
0.610,-39.500,-12.500,-31.500,-33.500
0.611,-39.500,-12.000,-31.000,-33.000
0.612,-39.500,-12.000,-31.000,-33.000
0.613,-39.500,-12.000,-30.500,-32.500
0.614,-40.000,-11.500,-30.500,-32.500
0.615,-39.500,-11.000,-30.000,-32.500
0.616,-40.000,-10.500,-30.500,-33.000
0.617,-39.500,-10.000,-31.000,-33.000
0.618,-39.500,-10.500,-31.500,-33.500
0.619,-39.000,-10.500,-32.000,-34.000
0.620,-39.000,-11.500,-32.500,-34.500
0.621,-38.500,-12.500,-33.000,-34.500
0.622,-38.500,-13.500,-33.500,-35.000
0.623,-38.500,-14.500,-33.500,-35.000
0.624,-39.000,-16.000,-34.000,-36.000
0.625,-39.000,-16.500,-34.000,-36.000
0.626,-39.500,-17.000,-34.500,-36.500
0.627,-39.500,-17.000,-35.000,-36.500
0.628,-40.000,-17.000,-36.000,-37.000
0.629,-40.000,-17.000,-36.500,-37.000
0.630,-40.000,-17.000,-37.000,-37.000
0.631,-40.000,-16.500,-37.000,-37.000
0.632,-40.500,-17.000,-37.500,-37.000
0.633,-40.500,-17.000,-37.000,-37.000
0.634,-40.500,-17.000,-37.000,-37.500
0.635,-40.500,-17.000,-36.500,-37.500
0.636,-40.500,-16.500,-36.500,-37.500
0.637,-40.000,-16.000,-36.500,-37.500
0.638,-40.000,-15.500,-37.000,-37.500
0.639,-39.500,-15.000,-37.000,-37.500
0.640,-40.000,-15.000,-38.000,-38.000
0.641,-40.000,-15.000,-38.500,-38.000
0.642,-40.000,-15.500,-39.500,-38.500
0.643,-40.000,-16.000,-40.500,-39.000
0.644,-40.000,-17.000,-41.500,-39.000
0.645,-39.500,-17.500,-42.500,-39.000
0.646,-39.500,-18.500,-43.000,-39.500
0.647,-39.500,-18.500,-43.000,-39.500
0.648,-39.500,-19.000,-43.500,-40.000
0.649,-39.500,-19.000,-43.000,-40.000
0.650,-40.000,-19.000,-43.000,-40.000
0.651,-40.000,-18.000,-42.500,-39.500
0.652,-40.500,-17.500,-42.500,-39.500
0.653,-40.500,-16.500,-42.000,-38.500
0.654,-41.000,-16.000,-42.000,-38.000
0.655,-41.000,-15.500,-41.500,-37.500
0.656,-41.000,-15.000,-41.500,-37.500
0.657,-41.000,-15.000,-41.000,-37.000
0.658,-41.000,-15.000,-40.500,-37.500
0.659,-40.500,-15.000,-40.000,-37.500
0.660,-40.500,-15.000,-40.500,-38.500
0.661,-40.000,-15.500,-40.500,-38.500
0.662,-40.000,-16.000,-41.000,-39.500
0.663,-39.500,-16.500,-41.500,-40.000
0.664,-39.500,-17.000,-42.500,-40.500
0.665,-39.500,-17.500,-43.000,-40.500
0.666,-39.500,-18.000,-43.500,-40.500
0.667,-39.500,-18.000,-43.500,-40.500
0.668,-39.500,-18.500,-43.500,-40.500
0.669,-39.500,-18.500,-43.000,-40.000
0.670,-39.500,-18.500,-43.000,-40.000
0.671,-39.500,-18.000,-42.000,-39.000
0.672,-39.500,-17.500,-41.500,-38.500
0.673,-39.000,-16.000,-40.500,-37.500
0.674,-39.500,-15.000,-39.500,-37.000
0.675,-39.000,-14.000,-38.500,-35.500
0.676,-39.500,-13.000,-37.500,-35.000
0.677,-39.000,-12.000,-36.500,-34.000
0.678,-39.000,-11.500,-36.000,-33.500
0.679,-38.500,-11.500,-35.000,-32.500
0.680,-38.500,-11.500,-35.000,-32.500
0.681,-38.000,-12.000,-35.000,-32.000
0.682,-38.000,-12.500,-35.000,-31.500
0.683,-38.000,-13.000,-35.000,-31.000
0.684,-38.000,-14.000,-35.000,-31.000
0.685,-38.000,-14.000,-35.000,-30.500
0.686,-38.000,-14.500,-34.500,-30.000
0.687,-38.000,-14.500,-34.000,-28.500
0.688,-37.500,-14.000,-33.000,-28.000
0.689,-37.000,-13.500,-32.000,-27.000
0.690,-37.000,-12.500,-30.500,-26.000
0.691,-37.000,-11.500,-29.000,-25.000
0.692,-37.000,-10.500,-27.500,-24.500
0.693,-36.500,-9.500,-25.500,-23.500
0.694,-36.000,-9.000,-24.500,-22.500
0.695,-36.000,-8.000,-23.000,-22.000
0.696,-36.000,-7.500,-22.500,-21.500
0.697,-35.500,-7.000,-21.500,-20.500
0.698,-35.500,-6.500,-21.500,-20.500
0.699,-35.500,-6.000,-21.500,-20.000
0.700,-35.500,-6.000,-22.500,-20.000
0.701,-35.500,-6.000,-23.000,-20.000
0.702,-35.000,-6.000,-23.500,-20.500
0.703,-35.000,-6.500,-24.000,-20.500
0.704,-35.000,-7.500,-24.500,-20.500
0.705,-34.500,-8.500,-24.500,-20.500
0.706,-34.500,-9.500,-24.500,-21.000
0.707,-34.500,-10.500,-24.000,-20.500
0.708,-34.500,-11.000,-23.500,-20.500
0.709,-34.500,-10.500,-22.500,-20.000
0.710,-34.500,-10.500,-21.500,-20.000
0.711,-34.500,-9.500,-20.000,-20.000
0.712,-34.500,-9.000,-19.500,-19.500
0.713,-34.500,-8.000,-18.500,-19.000
0.714,-34.500,-7.000,-18.000,-19.000
0.715,-34.000,-5.500,-17.000,-18.500
0.716,-34.000,-5.000,-16.500,-18.500
0.717,-33.500,-4.000,-16.000,-18.500
0.718,-33.500,-3.500,-15.500,-19.000
0.719,-33.000,-3.000,-14.500,-19.000
0.720,-33.000,-3.000,-14.500,-19.500
0.721,-32.500,-2.500,-14.000,-20.000
0.722,-32.500,-3.000,-14.000,-20.000
0.723,-32.500,-3.000,-13.500,-20.000
0.724,-33.000,-3.000,-14.000,-20.500
0.725,-33.000,-3.000,-14.000,-20.500
0.726,-33.000,-3.500,-14.500,-21.000
0.727,-32.500,-3.500,-15.000,-21.000
0.728,-33.000,-3.500,-15.000,-21.500
0.729,-33.000,-3.500,-15.000,-21.500
0.730,-33.000,-3.500,-15.500,-21.500
0.731,-33.000,-3.000,-15.000,-21.000
0.732,-33.000,-2.500,-15.000,-21.000
0.733,-33.000,-1.500,-14.500,-21.000
0.734,-32.500,-1.000,-14.000,-20.500
0.735,-32.000,-0.500,-13.500,-20.000
0.736,-32.000,0.000,-13.000,-19.500
0.737,-31.500,0.500,-12.500,-19.500
0.738,-31.500,0.500,-13.000,-19.500
0.739,-31.000,0.500,-13.000,-19.000
0.740,-31.000,0.500,-13.000,-19.500
0.741,-31.000,0.000,-13.000,-19.500
0.742,-31.000,-1.000,-13.500,-20.000
0.743,-31.000,-1.000,-14.000,-20.500
0.744,-31.500,-2.000,-14.000,-20.500
0.745,-31.500,-2.500,-14.000,-20.500
0.746,-31.500,-3.000,-14.500,-21.000
0.747,-31.500,-3.500,-15.000,-21.500
0.748,-31.500,-4.000,-15.000,-22.000
0.749,-31.500,-4.500,-15.000,-22.000
0.750,-31.500,-5.000,-15.500,-22.000
0.751,-31.500,-5.000,-15.500,-21.500
0.752,-31.500,-4.500,-15.500,-21.500
0.753,-32.000,-4.000,-15.000,-21.500
0.754,-32.000,-3.000,-15.000,-21.000
0.755,-32.000,-2.000,-15.000,-21.000
0.756,-32.000,-1.500,-14.500,-21.000
0.757,-32.000,-0.500,-14.000,-21.000
0.758,-32.000,0.500,-14.000,-21.000
0.759,-32.000,0.500,-13.500,-21.000
0.760,-32.000,1.000,-14.000,-21.500
0.761,-32.000,1.000,-14.000,-21.500
0.762,-32.000,1.000,-14.500,-21.500
0.763,-31.500,0.000,-15.000,-21.500
0.764,-31.500,-0.500,-15.500,-22.000
0.765,-31.500,-1.000,-16.000,-22.500
0.766,-31.500,-2.000,-16.000,-23.000
0.767,-31.500,-2.000,-16.000,-23.000
0.768,-32.000,-2.500,-16.000,-23.500
0.769,-32.000,-2.500,-15.500,-23.500
0.770,-32.500,-2.500,-15.000,-23.500
0.771,-32.000,-2.000,-14.500,-23.000
0.772,-32.500,-1.500,-14.500,-23.000
0.773,-32.500,-0.500,-14.000,-22.500
0.774,-32.500,-0.500,-13.500,-22.500
0.775,-32.500,0.500,-13.000,-22.500
0.776,-32.500,1.000,-13.000,-22.500
0.777,-32.500,1.000,-12.500,-22.500
0.778,-32.500,1.000,-12.500,-22.500
0.779,-32.500,1.000,-12.500,-22.000
0.780,-32.500,1.000,-13.500,-22.000
0.781,-32.000,0.500,-14.000,-22.000
0.782,-31.500,0.000,-15.000,-22.500
0.783,-31.500,-1.000,-15.500,-23.000
0.784,-31.500,-2.000,-16.500,-23.500
0.785,-31.500,-3.000,-17.500,-24.000
0.786,-31.500,-4.000,-18.000,-25.000
0.787,-31.500,-4.500,-18.500,-25.000
0.788,-31.500,-5.500,-19.000,-25.000
0.789,-31.000,-6.000,-19.000,-24.500
0.790,-31.500,-6.500,-19.500,-24.500
0.791,-31.000,-6.500,-19.000,-24.000
0.792,-31.500,-6.500,-19.000,-23.500
0.793,-31.500,-6.000,-18.000,-23.500
0.794,-32.000,-5.500,-17.500,-23.500
0.795,-32.000,-4.500,-16.500,-23.000
0.796,-32.500,-3.500,-15.500,-23.500
0.797,-32.000,-2.500,-14.000,-23.500
0.798,-32.500,-1.500,-13.500,-23.500
0.799,-32.000,-1.000,-12.500,-23.500
0.800,-32.000,-1.000,-12.500,-23.500
0.801,-32.000,-1.000,-12.500,-23.500
0.802,-32.000,-2.000,-12.500,-24.000
0.803,-31.500,-2.500,-12.500,-24.500
0.804,-32.000,-3.500,-13.000,-25.000
0.805,-32.000,-3.500,-13.000,-25.000
0.806,-32.000,-4.000,-13.500,-25.500
0.807,-32.000,-4.500,-13.500,-26.000
0.808,-32.500,-5.000,-14.000,-26.500
0.809,-32.500,-5.000,-13.500,-26.500
0.810,-32.500,-5.500,-13.500,-26.500
0.811,-32.500,-5.000,-13.000,-26.500
0.812,-33.000,-5.000,-13.500,-26.000
0.813,-32.500,-4.500,-13.500,-25.500
0.814,-32.500,-4.000,-13.500,-25.000
0.815,-32.000,-3.000,-13.500,-24.500
0.816,-32.000,-2.000,-13.500,-24.000
0.817,-31.500,-1.500,-13.000,-24.000
0.818,-31.500,-1.000,-13.000,-24.000
0.819,-31.000,-0.500,-12.500,-23.500
0.820,-31.500,-0.500,-12.500,-23.500
0.821,-31.000,-1.000,-12.000,-23.500
0.822,-31.500,-1.500,-12.000,-23.500
0.823,-31.500,-2.000,-12.000,-23.000
0.824,-31.500,-2.500,-12.500,-23.000
0.825,-31.500,-3.000,-13.000,-23.000
0.826,-32.000,-4.000,-13.000,-23.000
0.827,-32.000,-4.000,-13.000,-23.000
0.828,-32.500,-4.500,-13.000,-23.000
0.829,-32.500,-4.000,-12.500,-23.000
0.830,-32.500,-4.000,-12.500,-23.000
0.831,-32.500,-3.500,-11.500,-22.500
0.832,-32.500,-3.000,-11.000,-22.500
0.833,-32.500,-2.000,-10.000,-22.500
0.834,-32.500,-1.000,-9.500,-22.500
0.835,-32.500,-0.500,-8.500,-22.000
0.836,-32.500,0.500,-8.500,-22.000
0.837,-32.500,0.500,-8.000,-21.500
0.838,-32.500,1.000,-8.000,-22.000
0.839,-32.000,1.000,-8.000,-22.000
0.840,-32.000,0.500,-9.000,-22.000
0.841,-31.500,-0.500,-9.500,-22.500
0.842,-31.500,-1.500,-10.500,-23.000
0.843,-31.000,-3.000,-11.000,-23.000
0.844,-31.000,-4.000,-12.000,-23.500
0.845,-31.000,-5.000,-12.500,-24.000
0.846,-31.000,-6.500,-13.000,-24.500
0.847,-31.000,-7.000,-13.000,-24.500
0.848,-31.500,-7.500,-13.000,-24.500
0.849,-31.500,-7.500,-12.500,-24.500
0.850,-32.000,-7.000,-12.000,-24.500
0.851,-32.500,-6.000,-11.500,-24.000
0.852,-32.500,-5.000,-11.000,-23.500
0.853,-32.500,-4.000,-10.000,-23.000
0.854,-32.500,-3.000,-9.500,-23.000
0.855,-32.500,-1.500,-8.500,-23.000
0.856,-32.500,-1.000,-8.500,-23.000
0.857,-32.000,0.000,-8.000,-22.500
0.858,-32.000,0.500,-8.000,-22.500
0.859,-31.500,0.500,-7.500,-22.000
0.860,-32.000,0.500,-8.000,-22.000
0.861,-32.000,-0.500,-8.500,-22.000
0.862,-32.000,-1.500,-9.500,-22.000
0.863,-32.000,-2.500,-10.000,-22.000
0.864,-32.000,-3.500,-10.500,-22.000
0.865,-31.500,-4.500,-11.000,-22.000
0.866,-31.000,-5.000,-11.500,-22.500
0.867,-30.500,-5.500,-11.500,-22.500
0.868,-30.500,-5.500,-11.500,-23.000
0.869,-30.500,-5.000,-11.000,-23.000
0.870,-31.000,-4.500,-11.000,-23.000
0.871,-31.000,-4.000,-10.000,-22.500
0.872,-31.500,-3.500,-9.500,-22.500
0.873,-31.500,-2.500,-8.500,-22.000
0.874,-32.000,-2.000,-8.000,-22.000
0.875,-32.000,-0.500,-7.500,-21.500
0.876,-32.000,0.500,-7.000,-21.500
0.877,-31.500,1.500,-6.500,-21.000
0.878,-31.500,2.500,-6.500,-21.000
0.879,-31.000,3.000,-6.500,-21.000
0.880,-31.000,3.000,-7.000,-21.000
0.881,-30.500,2.500,-7.000,-21.000
0.882,-30.500,2.500,-7.500,-21.500
0.883,-30.000,1.500,-8.000,-22.000
0.884,-30.000,1.000,-8.500,-22.500
0.885,-29.500,0.000,-8.500,-23.000
0.886,-29.500,-1.000,-8.500,-23.500
0.887,-29.000,-1.000,-8.500,-24.000
0.888,-29.000,-1.500,-8.500,-24.500
0.889,-29.000,-1.500,-8.500,-24.500
0.890,-29.500,-1.500,-8.500,-25.000
0.891,-29.000,-1.500,-8.500,-24.500
0.892,-29.500,-1.000,-8.000,-24.500
0.893,-29.500,-0.500,-8.000,-24.000
0.894,-29.500,-0.500,-8.000,-24.000
0.895,-29.500,-0.500,-8.000,-24.000
0.896,-29.500,-0.500,-8.000,-24.000
0.897,-29.000,-0.500,-8.000,-24.000
0.898,-29.500,-1.000,-8.000,-24.500
0.899,-29.000,-1.000,-8.500,-24.500
0.900,-29.000,-1.500,-9.000,-25.000
0.901,-28.500,-1.500,-9.500,-24.500
0.902,-28.500,-2.000,-10.000,-25.000
0.903,-28.500,-2.500,-10.000,-25.000
0.904,-28.500,-3.000,-10.000,-25.500
0.905,-28.500,-3.500,-9.500,-25.500
0.906,-28.500,-4.000,-9.000,-26.000
0.907,-28.500,-4.000,-8.500,-26.500
0.908,-28.500,-4.000,-8.500,-26.500
0.909,-28.500,-4.000,-8.000,-26.500
0.910,-29.000,-4.000,-8.000,-26.500
0.911,-29.000,-3.000,-8.000,-26.500
0.912,-29.000,-2.500,-8.500,-26.500
0.913,-29.000,-2.000,-8.500,-26.500
0.914,-29.000,-1.500,-8.500,-26.500
0.915,-28.500,-0.500,-8.500,-26.000
0.916,-28.500,-0.500,-8.500,-26.000
0.917,-28.000,0.000,-8.000,-26.000
0.918,-28.000,0.000,-8.000,-26.500
0.919,-27.500,-0.500,-8.000,-26.000
0.920,-27.500,-1.000,-8.500,-26.500
0.921,-27.500,-1.500,-9.000,-26.000
0.922,-28.000,-2.000,-9.500,-26.500
0.923,-28.000,-2.500,-10.000,-26.000
0.924,-28.000,-3.500,-10.500,-26.500
0.925,-28.000,-3.500,-11.000,-26.500
0.926,-28.500,-4.000,-11.000,-27.000
0.927,-28.500,-4.000,-11.000,-27.000
0.928,-28.500,-4.000,-11.500,-27.000
0.929,-28.500,-4.000,-11.000,-27.000
0.930,-29.000,-3.500,-10.500,-27.500
0.931,-29.000,-3.000,-10.000,-27.500
0.932,-29.500,-3.000,-9.500,-28.000
0.933,-29.500,-2.000,-8.500,-27.500
0.934,-29.500,-1.500,-8.500,-27.500
0.935,-29.500,-0.500,-7.500,-27.000
0.936,-29.500,0.000,-7.500,-27.000
0.937,-29.500,0.500,-7.000,-27.000
0.938,-29.500,1.000,-7.000,-27.000
0.939,-29.000,1.000,-7.500,-27.000
0.940,-29.000,1.000,-8.000,-27.000
0.941,-28.500,0.000,-8.500,-27.500
0.942,-28.500,-1.000,-9.500,-27.500
0.943,-28.000,-2.000,-10.000,-27.500
0.944,-28.500,-3.000,-11.000,-27.500
0.945,-28.500,-4.500,-11.500,-27.500
0.946,-28.500,-6.000,-12.500,-27.500
0.947,-28.000,-7.000,-12.500,-27.500
0.948,-28.000,-8.000,-12.500,-27.000
0.949,-28.000,-8.000,-12.000,-27.000
0.950,-28.500,-8.000,-11.500,-27.000
0.951,-28.500,-7.500,-11.000,-26.500
0.952,-29.000,-6.500,-11.000,-26.500
0.953,-29.000,-5.000,-10.000,-26.000
0.954,-29.000,-4.000,-9.500,-26.000
0.955,-29.000,-2.500,-9.000,-25.500
0.956,-29.500,-1.000,-8.500,-25.500
0.957,-29.500,0.000,-7.500,-25.000
0.958,-29.500,1.000,-7.500,-25.000
0.959,-29.000,1.500,-7.000,-24.500
0.960,-29.000,2.000,-7.000,-24.500
0.961,-29.000,1.500,-7.000,-24.500
0.962,-29.000,1.000,-7.500,-24.500
0.963,-28.500,0.500,-8.000,-24.500
0.964,-29.000,-0.500,-8.500,-25.000
0.965,-28.500,-1.500,-8.500,-25.000
0.966,-28.500,-2.000,-9.000,-25.500
0.967,-28.500,-2.500,-9.500,-25.500
0.968,-28.500,-3.000,-9.500,-26.000
0.969,-28.000,-3.000,-9.500,-26.500
0.970,-28.000,-2.500,-9.000,-26.500
0.971,-28.000,-2.000,-8.500,-26.500
0.972,-28.000,-1.500,-8.000,-26.500
0.973,-27.500,-0.500,-7.000,-26.000
0.974,-27.500,0.500,-6.000,-26.000
0.975,-27.500,1.500,-5.000,-25.500
0.976,-27.500,2.500,-4.500,-25.000
0.977,-27.000,2.500,-4.000,-24.500
0.978,-27.500,3.000,-4.000,-24.500
0.979,-27.000,3.000,-4.000,-24.000
0.980,-27.500,3.000,-4.500,-24.000
0.981,-27.000,2.500,-4.500,-23.500
0.982,-27.000,2.500,-4.500,-23.500
0.983,-26.500,2.000,-4.000,-22.500
0.984,-26.500,2.000,-4.000,-22.000
0.985,-26.500,1.500,-3.500,-21.500
0.986,-26.500,1.500,-3.000,-21.000
0.987,-26.000,1.000,-2.500,-21.000
0.988,-26.000,0.500,-2.500,-21.000
0.989,-26.000,0.000,-2.500,-21.000
0.990,-26.000,-1.000,-3.000,-21.500
0.991,-26.000,-1.500,-3.500,-21.500
0.992,-26.500,-2.500,-4.000,-22.500
0.993,-27.000,-2.500,-4.000,-22.500
0.994,-27.500,-3.000,-4.500,-23.500
0.995,-27.500,-3.000,-4.000,-23.500
0.996,-28.000,-3.000,-4.500,-24.500
0.997,-28.000,-2.500,-4.500,-24.500
0.998,-28.500,-2.500,-5.500,-25.500
0.999,-29.000,-2.500,-6.000,-26.000
1.000,-29.000,-3.000,-7.000,-27.000
1.001,-29.000,-3.500,-7.500,-28.000
1.002,-29.000,-4.000,-8.500,-29.000
1.003,-29.000,-4.500,-9.000,-30.000
1.004,-29.000,-5.000,-9.000,-30.500
1.005,-28.500,-5.500,-9.000,-31.000
1.006,-28.500,-6.000,-9.000,-31.000
1.007,-28.500,-6.500,-9.000,-31.000
1.008,-28.500,-6.500,-9.000,-30.500
1.009,-28.000,-6.500,-8.500,-30.000
1.010,-28.500,-6.500,-8.000,-29.500
1.011,-28.000,-6.000,-7.000,-29.000
1.012,-28.500,-5.500,-6.500,-28.500
1.013,-28.500,-4.000,-5.500,-27.500
1.014,-29.000,-3.000,-4.500,-26.500
1.015,-29.000,-2.000,-3.000,-25.500
1.016,-29.000,-1.000,-2.000,-25.000
1.017,-28.500,0.000,-1.000,-24.500
1.018,-28.500,1.000,-1.000,-24.000
1.019,-28.000,1.500,-0.500,-23.500
1.020,-27.500,1.500,-1.000,-23.500
1.021,-27.000,1.500,-1.000,-23.500
1.022,-27.500,1.500,-1.500,-24.000
1.023,-27.500,1.000,-2.000,-24.000
1.024,-27.500,0.500,-2.500,-24.000
1.025,-27.000,-0.500,-2.500,-24.000
1.026,-27.500,-1.000,-3.000,-24.000
1.027,-27.000,-1.000,-3.000,-23.500
1.028,-27.500,-1.500,-3.000,-23.500
1.029,-27.000,-1.000,-2.500,-23.500
1.030,-27.500,-1.000,-2.500,-23.500
1.031,-27.500,-0.500,-2.000,-23.500
1.032,-27.500,0.000,-1.500,-23.500
1.033,-27.500,1.000,-1.000,-23.000
1.034,-28.000,2.000,-0.500,-22.500
1.035,-28.000,2.500,0.000,-21.500
1.036,-28.000,3.500,0.500,-21.500
1.037,-27.500,3.500,0.000,-21.000
1.038,-27.500,4.000,-0.500,-20.500
1.039,-27.500,3.500,-1.000,-20.500
1.040,-27.500,3.500,-1.500,-20.500
1.041,-27.000,2.500,-1.500,-20.500
1.042,-27.000,2.000,-2.000,-21.000
1.043,-26.500,1.000,-2.500,-21.000
1.044,-26.000,1.000,-2.500,-21.500
1.045,-25.500,0.500,-2.500,-21.500
1.046,-25.500,-0.500,-3.000,-22.000
1.047,-25.000,-0.500,-3.000,-22.000
1.048,-25.500,-1.000,-3.000,-22.500
1.049,-25.500,-0.500,-2.500,-22.000
1.050,-25.500,-0.500,-2.000,-21.500
1.051,-26.000,0.000,-1.000,-21.000
1.052,-26.500,1.000,-1.000,-21.000
1.053,-26.500,1.500,-0.500,-20.000
1.054,-27.000,2.000,0.000,-20.000
1.055,-27.000,2.500,0.500,-19.500
1.056,-27.000,3.500,0.500,-19.500
1.057,-27.000,3.500,0.500,-19.500
1.058,-27.000,4.000,1.000,-19.500
1.059,-27.000,4.000,0.500,-19.500
1.060,-27.000,4.000,0.500,-20.000
1.061,-26.500,3.000,0.000,-20.500
1.062,-26.500,2.500,-1.000,-21.000
1.063,-26.500,1.000,-1.500,-21.500
1.064,-26.500,0.000,-2.000,-22.000
1.065,-26.000,-1.500,-2.500,-22.500
1.066,-26.000,-2.500,-3.000,-23.000
1.067,-25.500,-3.500,-3.500,-23.500
1.068,-26.000,-4.000,-4.000,-24.000
1.069,-26.000,-4.000,-4.000,-24.000
1.070,-26.000,-3.500,-4.000,-24.000
1.071,-26.000,-3.000,-3.500,-23.500
1.072,-26.500,-2.500,-3.000,-23.500
1.073,-26.000,-1.500,-2.500,-23.000
1.074,-26.500,-0.500,-1.500,-22.500
1.075,-26.000,0.500,-1.000,-22.000
1.076,-26.500,1.500,-0.500,-22.000
1.077,-26.000,2.500,0.500,-21.500
1.078,-26.000,3.000,1.000,-22.000
1.079,-26.000,3.500,1.000,-21.500
1.080,-25.500,4.000,1.000,-22.000
1.081,-25.000,4.000,1.000,-22.000
1.082,-25.000,4.000,1.000,-22.500
1.083,-24.500,3.500,1.000,-23.000
1.084,-24.500,3.000,1.000,-23.500
1.085,-24.500,2.000,1.000,-24.000
1.086,-24.500,1.500,0.500,-25.000
1.087,-24.500,0.500,0.000,-25.500
1.088,-25.000,0.500,-1.000,-26.000
1.089,-25.000,0.500,-1.000,-26.000
1.090,-25.000,1.000,-1.500,-26.000
1.091,-24.500,1.500,-1.500,-26.000
1.092,-24.500,2.500,-1.000,-25.500
1.093,-24.500,3.000,0.000,-25.000
1.094,-25.000,4.000,1.000,-24.500
1.095,-25.000,5.000,1.500,-24.000
1.096,-25.500,5.500,2.500,-23.500
1.097,-25.500,6.000,3.500,-23.000
1.098,-25.500,6.500,4.000,-23.000
1.099,-25.000,6.000,4.000,-22.500
1.100,-25.000,6.000,4.000,-22.500
1.101,-24.500,5.000,3.500,-22.000
1.102,-24.000,4.000,3.000,-22.000
1.103,-23.500,2.500,2.500,-22.000
1.104,-23.500,1.500,1.500,-22.500
1.105,-23.500,0.500,1.000,-22.500
1.106,-23.500,0.000,0.500,-23.000
1.107,-23.500,0.000,0.000,-23.000
1.108,-24.000,0.000,-0.500,-23.500
1.109,-24.000,0.500,0.000,-23.000
1.110,-24.500,1.000,0.500,-23.000
1.111,-24.500,1.000,1.000,-22.500
1.112,-25.000,2.000,1.500,-22.500
1.113,-25.000,2.500,2.000,-22.000
1.114,-25.000,3.000,3.000,-21.500
1.115,-25.000,3.000,4.000,-21.000
1.116,-25.000,3.000,5.000,-21.000
1.117,-24.500,3.000,6.000,-21.000
1.118,-24.500,3.000,6.500,-21.000
1.119,-24.500,3.000,6.500,-21.000
1.120,-24.500,3.000,6.000,-21.000
1.121,-24.000,2.500,5.000,-21.000
1.122,-24.000,2.500,4.000,-21.500
1.123,-24.000,2.000,2.500,-22.000
1.124,-24.000,1.500,1.500,-22.000
1.125,-23.500,1.000,1.000,-22.000
1.126,-23.500,0.500,0.500,-22.500
1.127,-23.000,0.000,0.500,-22.500
1.128,-23.000,0.000,1.000,-23.000
1.129,-23.000,0.000,1.000,-23.000
1.130,-23.000,-0.500,1.500,-23.500
1.131,-23.000,0.000,2.000,-23.000
1.132,-23.500,0.500,2.000,-23.000
1.133,-23.500,1.000,2.000,-23.000
1.134,-24.000,1.500,2.500,-23.000
1.135,-24.000,2.500,3.000,-22.500
1.136,-24.000,3.500,3.500,-22.500
1.137,-23.500,4.000,4.000,-22.500
1.138,-23.500,5.000,4.500,-22.500
1.139,-23.000,5.000,5.000,-22.000
1.140,-23.000,5.500,5.000,-22.000
1.141,-23.000,5.000,5.000,-21.500
1.142,-23.000,5.000,4.500,-21.000
1.143,-22.500,4.500,4.000,-21.000
1.144,-23.000,4.500,4.000,-21.000
1.145,-23.000,4.000,3.500,-20.500
1.146,-23.000,4.000,3.500,-20.500
1.147,-22.500,4.000,4.000,-19.500
1.148,-22.500,4.000,5.000,-19.000
1.149,-22.500,4.500,6.000,-17.500
1.150,-22.500,5.500,8.000,-16.000
1.151,-22.500,6.000,10.000,-14.000
1.152,-23.000,6.500,12.000,-11.500
1.153,-23.000,7.000,13.500,-9.000
1.154,-23.500,7.500,14.500,-7.000
1.155,-23.500,8.000,15.000,-4.500
1.156,-24.000,8.000,15.500,-3.000
1.157,-24.000,8.000,15.000,-1.500
1.158,-24.500,7.500,14.000,-0.500
1.159,-25.000,7.000,12.500,0.500
1.160,-25.500,6.500,11.000,1.000
1.161,-25.500,5.000,9.000,1.500
1.162,-26.000,3.500,7.500,1.500
1.163,-26.000,2.000,6.000,1.500
1.164,-26.500,-0.500,4.000,1.500
1.165,-27.000,-2.500,1.500,1.000
1.166,-27.500,-5.500,-1.000,0.000
1.167,-27.500,-7.500,-4.000,-1.000
1.168,-28.500,-10.000,-7.000,-2.500
1.169,-29.000,-12.000,-10.500,-4.000
1.170,-30.000,-14.000,-14.000,-6.000
1.171,-30.500,-15.500,-17.000,-7.500
1.172,-32.000,-16.500,-21.000,-10.000
1.173,-32.500,-17.500,-24.500,-13.000
1.174,-33.500,-18.500,-28.500,-16.500
1.175,-34.000,-19.500,-32.500,-21.000
1.176,-34.500,-20.000,-37.000,-26.500
1.177,-34.500,-21.000,-41.500,-32.500
1.178,-35.000,-22.000,-46.500,-39.500
1.179,-35.000,-23.500,-51.500,-46.500
1.180,-35.000,-25.000,-56.500,-54.500
1.181,-35.000,-27.000,-62.000,-62.000
1.182,-35.500,-29.000,-67.000,-69.000
1.183,-35.500,-30.500,-71.000,-75.000
1.184,-35.500,-32.000,-74.500,-80.500
1.185,-35.000,-32.500,-76.500,-84.500
1.186,-35.000,-33.000,-77.500,-87.500
1.187,-34.000,-32.000,-76.500,-89.500
1.188,-33.500,-31.000,-74.000,-90.500
1.189,-32.500,-29.000,-70.500,-90.500
1.190,-31.500,-26.500,-65.500,-90.000
1.191,-30.500,-24.000,-60.000,-88.500
1.192,-30.000,-21.500,-54.500,-86.500
1.193,-29.000,-18.500,-48.500,-84.000
1.194,-28.500,-15.500,-43.000,-81.000
1.195,-27.500,-12.500,-37.500,-77.500
1.196,-27.000,-10.000,-33.500,-74.500
1.197,-26.000,-7.000,-29.500,-71.000
1.198,-25.500,-5.000,-26.500,-68.000
1.199,-25.000,-2.500,-24.000,-65.000
1.200,-24.500,-1.000,-22.000,-63.000
1.201,-23.500,0.500,-20.000,-61.000
1.202,-23.500,1.500,-18.500,-60.000
1.203,-23.000,2.000,-17.000,-58.500
1.204,-22.500,2.500,-15.000,-57.000
1.205,-22.000,2.500,-13.000,-55.000
1.206,-22.000,2.500,-11.000,-53.500
1.207,-21.500,3.000,-8.500,-51.500
1.208,-21.500,3.500,-6.500,-50.000
1.209,-21.500,4.000,-4.500,-47.500
1.210,-21.500,4.500,-3.000,-46.000
1.211,-21.000,5.000,-1.500,-44.000
1.212,-21.500,5.500,-0.500,-42.000
1.213,-21.500,6.500,0.500,-40.000
1.214,-21.500,7.000,1.500,-38.000
1.215,-21.500,7.500,2.500,-36.000
1.216,-22.000,8.000,3.500,-34.500
1.217,-21.500,8.000,4.000,-32.500
1.218,-21.500,8.500,4.500,-31.000
1.219,-21.000,8.000,4.500,-29.500
1.220,-21.000,8.000,4.500,-28.500
1.221,-20.500,7.000,3.500,-27.500
1.222,-20.500,6.000,3.000,-27.000
1.223,-20.500,5.000,2.000,-26.000
1.224,-20.500,4.000,1.000,-26.000
1.225,-20.000,2.500,0.500,-25.500
1.226,-20.500,2.000,0.500,-25.500
1.227,-20.500,1.000,0.000,-25.000
1.228,-20.500,1.000,0.500,-25.500
1.229,-20.000,1.000,0.500,-25.000
1.230,-20.000,1.500,1.500,-25.000
1.231,-19.500,1.500,2.000,-24.000
1.232,-20.000,2.500,2.500,-24.000
1.233,-19.500,3.000,3.000,-23.000
1.234,-20.000,4.000,4.000,-23.000
1.235,-20.000,4.500,4.500,-22.000
1.236,-20.000,5.000,5.000,-22.000
1.237,-19.500,5.500,5.000,-21.500
1.238,-19.500,6.000,5.000,-21.500
1.239,-19.000,6.500,4.500,-21.000
1.240,-19.500,6.500,4.000,-21.500
1.241,-19.500,6.500,4.000,-21.500
1.242,-19.500,6.500,4.000,-22.000
1.243,-19.500,6.000,4.000,-22.000
1.244,-20.000,6.000,4.500,-22.000
1.245,-20.000,5.500,4.500,-21.500
1.246,-20.000,5.000,4.500,-21.500
1.247,-20.000,4.500,4.000,-21.500
1.248,-20.000,4.500,4.000,-22.000
1.249,-20.000,4.500,3.500,-22.000
1.250,-20.000,4.500,4.000,-22.000
1.251,-19.500,4.500,4.000,-21.500
1.252,-19.500,4.500,4.000,-21.500
1.253,-19.500,5.000,4.500,-21.000
1.254,-20.000,5.500,5.000,-20.500
1.255,-20.000,5.500,5.000,-20.000
1.256,-20.000,6.000,5.500,-19.500
1.257,-20.000,6.000,6.000,-19.000
1.258,-20.000,6.500,6.500,-19.000
1.259,-19.500,6.500,7.000,-19.000
1.260,-19.500,6.500,7.000,-19.500
1.261,-19.500,6.000,7.000,-19.500
1.262,-19.500,5.500,7.000,-20.000
1.263,-19.500,5.000,6.500,-20.500
1.264,-19.500,4.000,6.000,-21.000
1.265,-19.500,3.000,5.000,-21.000
1.266,-20.000,2.500,4.500,-21.500
1.267,-20.000,2.000,3.500,-21.500
1.268,-20.000,2.000,3.000,-22.000
1.269,-20.000,1.500,2.500,-22.000
1.270,-20.500,1.500,2.500,-22.000
1.271,-20.500,1.500,3.000,-22.000
1.272,-20.500,2.500,4.000,-22.000
1.273,-20.500,3.000,5.000,-21.500
1.274,-21.000,3.500,5.500,-21.000
1.275,-21.000,4.000,6.000,-20.500
1.276,-21.000,5.000,6.000,-20.000
1.277,-20.500,5.500,6.000,-20.000
1.278,-20.500,6.000,6.000,-20.000
1.279,-20.500,6.000,6.000,-19.500
1.280,-20.500,6.000,5.500,-20.000
1.281,-20.000,5.500,5.000,-20.000
1.282,-20.500,5.000,5.000,-20.500
1.283,-20.000,3.500,4.500,-20.500
1.284,-20.000,2.500,4.500,-21.000
1.285,-19.500,1.000,4.000,-21.000
1.286,-19.000,0.000,4.000,-21.500
1.287,-19.000,-1.000,4.000,-21.500
1.288,-19.000,-1.500,4.000,-21.500
1.289,-19.000,-1.500,4.000,-21.500
1.290,-19.500,-1.000,4.500,-21.500
1.291,-19.500,0.000,5.000,-21.000
1.292,-19.500,1.000,5.500,-21.000
1.293,-19.500,2.000,6.000,-20.000
1.294,-19.500,2.500,7.000,-20.000
1.295,-19.500,3.000,7.500,-19.500
1.296,-19.500,3.000,8.000,-19.000
1.297,-19.500,3.000,8.500,-18.500
1.298,-19.500,3.000,8.500,-18.500
1.299,-19.000,3.000,8.500,-18.500
1.300,-19.000,3.000,8.500,-18.500
1.301,-18.500,2.500,8.000,-18.500
1.302,-19.000,2.500,8.000,-19.000
1.303,-19.000,2.000,7.000,-19.500
1.304,-19.000,2.000,7.000,-20.000
1.305,-19.000,1.500,6.500,-20.000
1.306,-19.000,2.000,6.000,-20.000
1.307,-19.000,2.000,6.000,-20.000
1.308,-19.500,2.500,6.000,-20.000
1.309,-19.500,3.000,6.500,-19.500
1.310,-20.000,4.000,7.000,-19.500
1.311,-20.000,5.000,7.000,-19.500
1.312,-20.000,6.500,8.000,-19.500
1.313,-20.000,7.500,8.500,-19.000
1.314,-20.000,8.500,9.000,-18.500
1.315,-19.500,9.000,9.500,-18.000
1.316,-19.500,9.500,10.000,-17.500
1.317,-19.500,10.000,10.000,-17.000
1.318,-19.500,10.000,10.500,-17.000
1.319,-19.000,9.500,10.000,-17.000
1.320,-19.500,8.500,9.000,-17.000
1.321,-19.500,7.500,8.000,-17.500
1.322,-19.500,6.500,6.500,-18.000
1.323,-19.000,5.000,5.500,-18.000
1.324,-19.500,4.000,4.500,-18.500
1.325,-19.500,2.500,4.000,-18.500
1.326,-19.500,2.000,3.500,-19.000
1.327,-19.000,1.500,3.500,-19.000
1.328,-19.000,1.500,3.500,-19.500
1.329,-19.000,1.500,3.000,-19.500
1.330,-19.500,2.000,3.500,-19.500
1.331,-19.500,2.000,3.000,-19.500
1.332,-20.000,2.500,3.000,-20.000
1.333,-20.500,2.500,3.000,-19.500
1.334,-20.500,3.000,3.000,-19.500
1.335,-20.500,3.500,3.000,-19.500
1.336,-20.500,4.500,3.500,-19.500
1.337,-20.500,4.500,4.000,-19.000
1.338,-20.500,5.000,4.500,-19.000
1.339,-20.000,4.500,5.000,-18.500
1.340,-20.000,4.000,5.000,-19.000
1.341,-19.500,3.500,4.500,-19.000
1.342,-19.000,2.500,4.000,-19.000
1.343,-19.000,1.000,3.000,-19.500
1.344,-19.000,0.500,2.000,-20.000
1.345,-18.500,-0.500,0.500,-20.500
1.346,-19.000,-1.000,-0.500,-21.000
1.347,-19.000,-1.000,-1.500,-21.500
1.348,-19.500,-1.500,-2.000,-22.000
1.349,-19.500,-1.500,-2.000,-22.000
1.350,-20.000,-1.500,-1.500,-22.000
1.351,-20.000,-1.500,-1.000,-22.000
1.352,-20.000,-1.500,-0.500,-22.000
1.353,-20.000,-1.000,0.500,-21.000
1.354,-20.500,-0.500,1.000,-21.000
1.355,-20.500,0.000,1.500,-20.500
1.356,-20.500,0.500,2.000,-20.500
1.357,-20.500,0.500,2.000,-20.500
1.358,-20.500,0.500,2.500,-21.000
1.359,-20.500,0.500,2.000,-21.000
1.360,-20.500,0.500,1.500,-21.500
1.361,-20.000,0.000,0.500,-22.000
1.362,-20.000,-1.000,-0.500,-22.500
1.363,-20.000,-1.000,-1.000,-23.000
1.364,-20.000,-1.500,-1.500,-23.500
1.365,-19.500,-2.000,-2.000,-23.500
1.366,-20.000,-2.500,-3.000,-24.000
1.367,-19.500,-3.000,-3.000,-24.500
1.368,-20.000,-3.500,-3.500,-25.000
1.369,-19.500,-3.500,-4.000,-25.000
1.370,-20.000,-3.500,-4.500,-25.500
1.371,-20.000,-3.500,-5.000,-25.500
1.372,-20.000,-3.500,-5.500,-25.500
1.373,-20.500,-3.000,-5.500,-25.000
1.374,-21.000,-2.500,-5.500,-25.500
1.375,-21.000,-1.500,-5.500,-25.000
1.376,-21.000,-1.500,-5.500,-25.500
1.377,-21.000,-1.000,-5.500,-25.000
1.378,-21.000,-1.000,-5.500,-25.500
1.379,-20.500,-1.000,-5.500,-25.500
1.380,-20.000,-1.500,-6.000,-26.000
1.381,-20.000,-2.000,-7.000,-26.000
1.382,-20.000,-3.000,-8.000,-26.500
1.383,-20.000,-4.000,-9.000,-27.000
1.384,-20.000,-5.500,-10.000,-27.500
1.385,-20.000,-6.500,-11.000,-27.500
1.386,-20.500,-8.000,-12.000,-28.000
1.387,-20.500,-8.500,-12.500,-27.500
1.388,-21.000,-9.000,-13.000,-28.000
1.389,-21.000,-9.000,-13.000,-27.500
1.390,-21.000,-8.500,-13.000,-28.000
1.391,-21.000,-8.000,-12.500,-27.500
1.392,-21.500,-7.500,-12.500,-28.000
1.393,-21.500,-6.500,-11.500,-28.000
1.394,-21.500,-6.000,-11.000,-28.500
1.395,-21.000,-5.500,-10.500,-28.500
1.396,-21.500,-5.000,-10.000,-29.000
1.397,-21.500,-4.500,-9.500,-29.000
1.398,-21.500,-4.500,-9.500,-29.500
1.399,-21.500,-4.500,-10.000,-29.500
1.400,-21.500,-5.000,-11.000,-29.500
1.401,-21.000,-6.000,-12.000,-29.500
1.402,-21.000,-7.000,-13.000,-30.000
1.403,-20.500,-8.500,-14.500,-30.500
1.404,-20.500,-9.500,-15.500,-31.000
1.405,-20.500,-10.500,-16.500,-31.000
1.406,-20.500,-11.000,-17.500,-31.000
1.407,-20.500,-11.000,-17.500,-31.000
1.408,-21.000,-11.000,-17.500,-31.000
1.409,-21.000,-10.500,-17.000,-30.500
1.410,-21.500,-10.000,-16.500,-30.000
1.411,-21.500,-8.500,-15.500,-29.000
1.412,-21.500,-8.000,-15.000,-28.500
1.413,-21.500,-7.000,-13.500,-27.500
1.414,-22.000,-6.000,-12.500,-26.500
1.415,-22.000,-5.000,-11.500,-25.500
1.416,-22.000,-4.000,-10.000,-25.000
1.417,-21.500,-3.000,-8.500,-24.000
1.418,-21.500,-3.000,-7.500,-23.000
1.419,-21.000,-2.500,-6.500,-21.500
1.420,-21.000,-2.000,-6.000,-21.000
1.421,-21.000,-2.000,-5.000,-20.000
1.422,-21.000,-2.000,-5.000,-19.000
1.423,-20.500,-2.000,-4.500,-18.500
1.424,-20.500,-2.500,-4.500,-18.500
1.425,-20.000,-2.500,-4.500,-18.000
1.426,-20.000,-3.500,-5.000,-18.500
1.427,-20.000,-4.000,-5.500,-18.000
1.428,-20.000,-5.000,-6.000,-18.500
1.429,-20.000,-5.500,-6.000,-18.500
1.430,-20.500,-6.000,-6.000,-18.500
1.431,-20.500,-6.000,-6.000,-18.500
1.432,-21.000,-6.000,-6.000,-19.000
1.433,-21.500,-6.000,-5.500,-19.000
1.434,-22.000,-5.500,-5.000,-19.000
1.435,-22.000,-5.000,-4.500,-19.000
1.436,-22.500,-4.500,-4.500,-19.000
1.437,-22.500,-4.000,-4.000,-19.000
1.438,-22.500,-4.000,-4.500,-19.500
1.439,-22.000,-3.500,-4.500,-19.500
1.440,-22.000,-3.500,-4.500,-19.500
1.441,-21.500,-3.500,-4.500,-19.000
1.442,-21.500,-4.000,-4.500,-19.000
1.443,-20.500,-4.000,-4.000,-18.500
1.444,-20.000,-4.000,-4.000,-18.000
1.445,-19.500,-4.000,-3.000,-17.000
1.446,-19.000,-4.000,-2.500,-16.500
1.447,-18.500,-3.000,-1.500,-15.500
1.448,-18.000,-2.500,-0.500,-15.000
1.449,-17.500,-1.500,1.000,-14.000
1.450,-17.500,-1.000,2.500,-13.500
1.451,-17.000,0.000,3.500,-13.000
1.452,-17.000,1.000,4.500,-12.500
1.453,-17.000,2.000,5.500,-12.000
1.454,-17.000,2.500,6.500,-11.500
1.455,-16.500,3.500,7.000,-11.000
1.456,-16.500,4.000,7.500,-11.000
1.457,-16.000,4.500,8.000,-10.500
1.458,-16.000,5.000,8.000,-10.500
1.459,-15.500,5.000,8.000,-10.000
1.460,-15.500,5.000,7.500,-10.500
1.461,-15.000,4.500,6.500,-10.500
1.462,-15.000,4.000,6.500,-11.000
1.463,-14.500,3.500,6.000,-11.000
1.464,-14.500,3.000,6.000,-11.000
1.465,-14.000,2.500,5.500,-10.500
1.466,-14.500,2.500,6.000,-10.500
1.467,-14.500,2.000,6.000,-10.500
1.468,-14.500,2.000,6.000,-10.500
1.469,-14.500,2.000,6.000,-10.500
1.470,-15.000,2.500,6.500,-10.500
1.471,-15.000,3.000,7.000,-10.500
1.472,-15.000,3.500,8.000,-10.500
1.473,-15.000,4.500,8.500,-10.000
1.474,-15.000,5.500,9.500,-10.000
1.475,-15.000,6.000,10.000,-9.500
1.476,-15.000,7.000,11.000,-9.500
1.477,-14.500,7.500,11.000,-9.000
1.478,-14.000,8.000,11.500,-9.000
1.479,-13.500,8.000,11.500,-9.000
1.480,-13.500,7.500,11.500,-9.500
1.481,-13.000,7.000,11.000,-9.500
1.482,-13.000,6.500,11.000,-10.000
1.483,-12.500,5.500,10.000,-10.500
1.484,-12.500,5.000,10.000,-11.000
1.485,-12.500,4.000,9.500,-11.500
1.486,-12.500,4.000,9.500,-12.000
1.487,-12.500,4.000,10.000,-12.500
1.488,-13.000,4.000,10.500,-12.500
1.489,-13.000,4.000,11.000,-12.500
1.490,-13.000,4.500,12.000,-12.000
1.491,-13.000,5.000,12.500,-11.500
1.492,-13.000,5.500,13.500,-11.500
1.493,-13.500,6.000,14.000,-11.000
1.494,-13.500,6.500,14.500,-11.000
1.495,-13.500,6.500,14.500,-11.000
1.496,-13.500,6.500,14.500,-11.000
1.497,-13.000,6.500,13.500,-11.500
1.498,-12.500,6.500,13.000,-11.500
1.499,-12.000,6.500,12.000,-12.000
1.500,-12.000,6.500,11.000,-12.500
1.501,-11.500,6.000,9.500,-13.000
1.502,-11.500,6.000,9.000,-13.500
1.503,-11.000,5.000,8.000,-13.500
1.504,-11.000,4.500,8.000,-13.500
1.505,-11.000,4.000,7.500,-13.500
1.506,-11.000,3.500,7.500,-13.500
1.507,-11.000,3.000,7.000,-13.000
1.508,-11.000,3.000,7.500,-12.500
1.509,-10.500,2.500,7.000,-12.000
1.510,-11.000,2.500,7.500,-12.000
1.511,-11.500,2.500,7.500,-11.500
1.512,-12.000,3.000,8.000,-11.000
1.513,-12.000,3.500,8.000,-10.500
1.514,-12.000,4.500,9.000,-10.000
1.515,-12.000,5.000,9.500,-9.500
1.516,-12.000,6.500,10.000,-9.500
1.517,-12.000,7.000,10.500,-9.000
1.518,-11.500,8.000,11.000,-9.000
1.519,-11.000,8.000,11.000,-8.500
1.520,-11.000,7.500,11.500,-9.000
1.521,-10.500,7.000,11.000,-9.000
1.522,-10.500,6.500,11.000,-9.500
1.523,-10.500,5.500,10.500,-9.500
1.524,-10.500,5.000,10.500,-10.000
1.525,-10.000,4.000,10.000,-10.000
1.526,-9.500,3.500,10.000,-10.000
1.527,-9.500,3.000,9.500,-10.500
1.528,-9.500,3.000,9.500,-11.000
1.529,-9.000,2.500,9.000,-11.000
1.530,-9.000,3.000,9.500,-11.500
1.531,-9.000,3.000,9.500,-11.500
1.532,-9.000,3.500,10.000,-12.000
1.533,-8.500,4.000,10.500,-11.500
1.534,-9.000,5.000,11.500,-11.500
1.535,-8.500,5.500,12.000,-11.000
1.536,-8.500,6.500,12.500,-11.000
1.537,-8.500,6.500,12.500,-10.500
1.538,-8.000,7.000,13.000,-10.500
1.539,-7.500,7.000,12.500,-10.500
1.540,-7.500,7.000,12.500,-11.000
1.541,-7.500,6.500,12.000,-11.000
1.542,-7.500,6.500,11.500,-11.000
1.543,-7.000,5.500,10.500,-11.000
1.544,-7.500,5.000,10.000,-11.500
1.545,-7.000,4.000,9.000,-12.000
1.546,-7.000,3.500,9.000,-12.500
1.547,-7.000,2.500,8.500,-12.500
1.548,-6.500,2.500,8.500,-13.000
1.549,-6.000,2.000,8.500,-13.000
1.550,-6.000,2.500,9.000,-13.000
1.551,-6.000,2.500,9.500,-12.500
1.552,-6.000,3.500,10.500,-12.000
1.553,-6.000,4.500,11.500,-11.500
1.554,-6.500,5.500,12.000,-11.500
1.555,-6.500,6.500,12.500,-11.000
1.556,-7.000,7.500,13.000,-11.000
1.557,-7.000,7.500,13.000,-10.500
1.558,-7.000,8.000,13.500,-10.000
1.559,-7.000,8.000,13.000,-9.500
1.560,-7.000,8.000,12.500,-9.500
1.561,-7.000,8.000,12.000,-9.500
1.562,-7.000,7.500,11.500,-10.000
1.563,-7.000,7.000,10.500,-10.500
1.564,-7.500,7.000,10.000,-11.000
1.565,-7.500,7.000,9.500,-11.500
1.566,-8.000,7.000,9.500,-12.000
1.567,-8.000,6.500,9.500,-11.500
1.568,-8.000,6.500,10.000,-11.500
1.569,-8.000,6.500,10.000,-11.000
1.570,-8.500,6.500,10.500,-11.000
1.571,-8.500,6.500,10.500,-10.500
1.572,-8.500,7.000,11.000,-10.500
1.573,-8.500,7.500,11.500,-10.000
1.574,-8.500,8.000,12.500,-10.500
1.575,-8.500,8.500,13.000,-10.000
1.576,-8.500,9.000,14.000,-10.000
1.577,-8.000,9.000,14.500,-9.500
1.578,-8.000,9.500,15.000,-9.500
1.579,-7.500,9.500,15.000,-9.500
1.580,-7.500,9.000,15.000,-9.500
1.581,-7.000,8.500,14.500,-9.000
1.582,-7.000,8.000,14.000,-9.500
1.583,-7.000,7.000,13.000,-9.500
1.584,-7.000,6.500,12.500,-10.000
1.585,-6.500,6.000,11.500,-10.000
1.586,-7.000,5.500,11.500,-10.500
1.587,-7.000,5.500,11.000,-11.000
1.588,-7.000,5.500,11.000,-11.500
1.589,-7.000,5.500,11.000,-11.500
1.590,-7.000,6.000,11.500,-11.500
1.591,-7.000,6.000,11.500,-11.500
1.592,-7.500,7.000,12.500,-11.500
1.593,-7.500,7.500,13.000,-11.000
1.594,-7.500,8.500,13.500,-10.500
1.595,-7.000,9.000,13.500,-10.000
1.596,-7.000,10.000,14.000,-9.500
1.597,-7.000,10.500,14.500,-9.500
1.598,-7.000,11.000,14.500,-9.500
1.599,-7.000,11.000,14.500,-9.500
1.600,-7.000,10.500,14.500,-9.500
1.601,-6.500,9.500,14.000,-9.500
1.602,-6.500,9.000,13.500,-10.000
1.603,-6.500,8.000,12.500,-10.500
1.604,-6.500,7.500,12.000,-10.500
1.605,-6.500,7.000,11.500,-10.500
1.606,-6.500,6.500,11.000,-11.000
1.607,-6.500,6.500,10.500,-11.500
1.608,-6.500,7.000,10.500,-12.000
1.609,-6.500,7.000,10.500,-12.000
1.610,-6.500,8.000,10.500,-11.500
1.611,-6.500,8.500,11.000,-11.000
1.612,-7.000,9.500,11.500,-10.500
1.613,-7.000,10.000,12.500,-9.500
1.614,-7.500,11.000,13.500,-9.000
1.615,-7.500,11.000,14.000,-8.500
1.616,-7.500,11.500,14.500,-8.000
1.617,-7.500,11.000,15.000,-7.500
1.618,-7.500,10.500,15.000,-7.500
1.619,-7.000,9.500,14.500,-7.500
1.620,-7.000,8.500,14.000,-8.000
1.621,-7.000,7.000,13.500,-8.000
1.622,-7.000,6.500,13.000,-8.000
1.623,-6.500,5.500,12.500,-8.000
1.624,-6.000,5.500,12.500,-8.000
1.625,-5.500,5.500,12.500,-8.000
1.626,-5.500,5.500,12.500,-8.500
1.627,-5.000,5.500,12.500,-9.000
1.628,-5.000,5.500,12.500,-9.500
1.629,-5.000,5.500,12.500,-9.500
1.630,-5.000,6.000,13.000,-10.000
1.631,-5.000,6.500,13.500,-10.000
1.632,-5.500,7.500,14.500,-10.000
1.633,-6.000,8.500,15.000,-9.500
1.634,-6.000,10.000,16.000,-9.500
1.635,-6.000,10.500,16.000,-8.500
1.636,-6.500,11.500,16.500,-8.500
1.637,-6.000,12.000,16.500,-8.000
1.638,-6.000,12.500,16.500,-8.000
1.639,-6.000,12.500,16.000,-7.500
1.640,-6.000,12.500,15.500,-7.500
1.641,-5.500,12.000,15.000,-7.500
1.642,-5.500,12.000,14.500,-8.000
1.643,-5.500,11.000,13.500,-8.500
1.644,-5.500,10.500,13.000,-8.500
1.645,-5.500,9.500,12.500,-9.000
1.646,-6.000,9.000,12.500,-9.500
1.647,-6.000,8.500,12.500,-9.500
1.648,-6.500,8.000,12.500,-10.000
1.649,-6.500,8.000,13.000,-10.000
1.650,-6.500,8.500,13.500,-10.000
1.651,-6.000,8.500,13.500,-9.500
1.652,-6.500,9.500,14.000,-9.500
1.653,-6.500,10.500,14.000,-9.000
1.654,-6.500,12.000,14.500,-9.000
1.655,-6.500,13.000,15.000,-8.000
1.656,-6.500,14.000,16.000,-8.000
1.657,-6.500,14.500,16.500,-7.500
1.658,-6.500,15.000,17.000,-7.500
1.659,-6.000,15.000,17.000,-7.000
1.660,-5.500,14.500,17.500,-7.500
1.661,-5.000,13.500,17.000,-7.500
1.662,-5.000,13.000,17.000,-7.500
1.663,-4.500,12.000,16.000,-7.500
1.664,-4.500,11.000,15.500,-8.000
1.665,-4.500,10.000,14.500,-8.500
1.666,-4.500,9.500,14.000,-9.000
1.667,-4.000,9.000,13.000,-9.000
1.668,-4.000,9.500,13.000,-9.500
1.669,-4.000,9.500,13.000,-9.000
1.670,-4.000,10.000,13.500,-9.000
1.671,-3.500,10.000,14.000,-8.500
1.672,-4.000,11.000,15.500,-8.500
1.673,-4.000,12.000,16.500,-8.000
1.674,-4.000,13.000,17.500,-7.500
1.675,-4.000,13.500,18.000,-7.000
1.676,-4.500,14.500,18.500,-7.000
1.677,-4.500,15.000,18.000,-6.500
1.678,-4.500,15.500,17.500,-6.500
1.679,-4.000,15.000,16.500,-6.500
1.680,-4.500,15.000,16.000,-7.000
1.681,-4.500,14.000,15.000,-7.000
1.682,-4.500,13.500,14.500,-7.500
1.683,-4.500,12.000,14.000,-7.500
1.684,-5.000,11.000,14.000,-8.000
1.685,-5.000,10.000,13.500,-8.500
1.686,-5.000,9.500,13.500,-8.500
1.687,-5.000,9.000,13.000,-8.500
1.688,-5.000,9.000,13.000,-8.500
1.689,-4.500,9.000,13.000,-8.500
1.690,-4.500,9.500,13.000,-8.000
1.691,-4.500,10.000,13.000,-7.500
1.692,-4.500,11.000,13.500,-7.000
1.693,-4.500,11.500,14.000,-6.000
1.694,-4.500,12.500,15.000,-6.000
1.695,-4.500,13.000,15.500,-5.500
1.696,-4.500,13.500,16.000,-5.000
1.697,-4.500,14.000,16.500,-4.500
1.698,-4.500,14.000,16.500,-4.500
1.699,-4.000,14.000,16.500,-4.500
1.700,-4.000,14.000,16.500,-4.500
1.701,-4.000,13.500,15.500,-4.500
1.702,-4.000,13.000,15.000,-5.000
1.703,-4.000,12.000,14.000,-5.000
1.704,-4.000,11.000,13.500,-5.500
1.705,-3.500,10.500,13.000,-5.500
1.706,-3.500,10.000,13.000,-5.500
1.707,-3.000,9.000,12.500,-5.500
1.708,-3.000,9.000,13.000,-5.500
1.709,-3.000,9.000,13.500,-5.500
1.710,-3.500,9.500,14.500,-5.000
1.711,-3.500,10.000,15.000,-5.000
1.712,-4.000,11.000,15.500,-5.000
1.713,-4.000,11.500,15.500,-5.000
1.714,-4.000,13.000,16.000,-5.000
1.715,-3.500,13.500,16.500,-4.500
1.716,-3.500,14.500,17.000,-4.500
1.717,-3.500,14.500,17.000,-4.500
1.718,-3.500,15.000,17.000,-4.500
1.719,-3.000,15.000,17.000,-4.500
1.720,-3.000,15.000,17.000,-5.000
1.721,-3.000,14.500,17.000,-5.000
1.722,-3.000,14.000,16.500,-5.000
1.723,-2.500,13.000,16.000,-5.000
1.724,-2.500,12.500,16.000,-5.000
1.725,-2.000,11.500,15.500,-5.000
1.726,-2.000,11.000,15.500,-5.500
1.727,-2.000,10.500,15.500,-5.500
1.728,-2.000,10.500,15.000,-6.000
1.729,-2.000,10.500,14.500,-6.000
1.730,-2.500,11.000,14.500,-6.500
1.731,-2.500,11.500,14.500,-6.500
1.732,-3.000,12.500,15.000,-6.500
1.733,-3.500,13.000,15.500,-6.000
1.734,-3.500,13.500,16.500,-5.500
1.735,-3.500,14.000,17.000,-5.000
1.736,-3.500,15.000,17.500,-4.500
1.737,-3.500,15.500,18.000,-4.000
1.738,-3.500,16.500,18.500,-3.500
1.739,-3.500,17.000,18.500,-3.000
1.740,-3.000,17.500,19.000,-3.000
1.741,-3.000,17.500,18.500,-3.000
1.742,-3.000,17.000,18.000,-3.500
1.743,-2.500,16.500,17.500,-3.500
1.744,-3.000,16.000,17.500,-4.000
1.745,-3.000,15.000,16.500,-4.000
1.746,-3.000,14.500,16.500,-4.500
1.747,-3.000,14.000,16.000,-4.500
1.748,-3.500,14.000,16.000,-5.000
1.749,-3.000,13.500,16.000,-4.500
1.750,-3.500,14.000,16.000,-4.500
1.751,-3.500,14.000,16.500,-4.000
1.752,-3.500,14.500,17.000,-4.000
1.753,-3.000,15.000,17.000,-3.500
1.754,-3.000,16.000,18.000,-3.000
1.755,-3.000,17.000,18.500,-2.000
1.756,-3.000,17.500,19.000,-2.000
1.757,-3.000,18.000,19.000,-1.500
1.758,-3.500,18.500,19.000,-1.500
1.759,-3.500,18.000,19.000,-1.500
1.760,-3.500,17.500,19.000,-2.000
1.761,-3.500,16.500,18.500,-2.000
1.762,-3.500,16.000,18.000,-2.500
1.763,-3.500,15.500,17.500,-2.500
1.764,-3.500,14.500,17.000,-3.000
1.765,-3.500,13.500,16.500,-2.500
1.766,-3.500,13.000,16.500,-2.500
1.767,-3.000,12.500,16.500,-2.000
1.768,-3.000,12.500,16.500,-2.000
1.769,-3.000,12.500,16.500,-1.500
1.770,-3.500,12.500,17.000,-1.000
1.771,-3.500,13.000,17.500,-0.500
1.772,-4.000,14.000,18.000,-0.500
1.773,-4.000,14.500,19.000,0.000
1.774,-4.500,15.500,19.500,0.500
1.775,-4.500,16.000,20.000,1.000
1.776,-5.000,17.500,20.500,1.500
1.777,-5.000,18.000,21.000,1.500
1.778,-5.000,18.500,21.500,1.500
1.779,-4.500,18.500,21.500,1.500
1.780,-4.500,18.500,21.500,1.500
1.781,-4.000,18.000,21.000,1.500
1.782,-4.000,17.500,21.000,1.000
1.783,-3.500,16.500,20.000,0.500
1.784,-4.000,16.000,19.500,0.500
1.785,-4.000,15.000,19.000,0.500
1.786,-4.000,14.000,18.500,0.000
1.787,-4.000,13.500,18.000,0.000
1.788,-4.000,13.000,17.500,0.000
1.789,-4.000,12.500,17.500,0.500
1.790,-4.000,12.500,17.500,0.500
1.791,-4.000,12.500,17.500,0.500
1.792,-4.000,13.500,18.000,1.000
1.793,-4.000,14.000,18.500,1.000
1.794,-4.500,15.000,19.000,1.000
1.795,-4.500,16.000,19.500,1.000
1.796,-4.500,16.500,20.000,1.500
1.797,-4.000,17.000,20.000,1.500
1.798,-4.000,17.500,20.000,1.500
1.799,-4.000,17.000,19.000,1.000
1.800,-4.000,17.000,18.500,1.000
1.801,-4.000,16.000,17.500,0.500
1.802,-3.500,15.000,16.500,0.000
1.803,-3.500,13.500,15.500,-0.500
1.804,-3.500,12.500,14.500,-1.000
1.805,-3.000,11.500,14.000,-1.000
1.806,-3.000,11.000,14.000,-1.500
1.807,-3.000,10.000,14.000,-1.000
1.808,-3.500,10.000,14.500,-1.500
1.809,-3.500,10.000,14.500,-1.000
1.810,-3.500,10.500,15.500,-1.000
1.811,-3.500,11.000,16.000,-1.000
1.812,-3.500,11.500,16.500,-0.500
1.813,-4.000,12.500,17.000,0.000
1.814,-4.000,13.500,18.000,0.500
1.815,-4.000,14.000,18.500,0.500
1.816,-4.500,15.500,19.000,0.500
1.817,-4.000,16.000,19.000,0.500
1.818,-4.000,16.500,19.500,0.500
1.819,-4.000,16.500,19.000,0.500
1.820,-3.500,16.500,19.000,0.000
1.821,-3.000,16.000,19.000,-0.500
1.822,-3.000,16.000,18.500,-1.000
1.823,-3.000,15.000,18.000,-1.500
1.824,-3.000,14.500,17.500,-2.000
1.825,-2.500,14.000,17.000,-2.500
1.826,-2.500,13.500,16.500,-2.500
1.827,-2.500,13.000,16.000,-2.500
1.828,-2.500,13.000,16.000,-2.500
1.829,-2.500,13.000,16.000,-1.500
1.830,-2.500,13.500,16.500,-1.000
1.831,-2.500,13.500,17.000,-0.500
1.832,-3.000,14.000,17.500,0.500
1.833,-3.000,14.500,18.000,1.000
1.834,-3.500,15.500,18.500,1.500
1.835,-3.000,16.000,19.000,1.500
1.836,-3.500,17.000,19.500,2.000
1.837,-3.500,18.000,19.500,2.000
1.838,-3.500,18.500,20.000,2.000
1.839,-3.500,18.500,20.000,1.500
1.840,-3.500,19.000,20.000,1.500
1.841,-3.500,18.500,20.000,1.000
1.842,-3.000,18.500,20.000,0.500
1.843,-3.000,18.000,20.000,0.000
1.844,-3.000,17.500,19.500,0.000
1.845,-3.000,16.500,19.000,0.000
1.846,-3.000,16.500,18.500,0.000
1.847,-3.000,16.000,18.000,0.000
1.848,-3.500,16.000,18.000,0.000
1.849,-3.500,16.000,18.000,0.500
1.850,-3.500,16.500,19.000,1.500
1.851,-3.000,17.000,19.500,2.000
1.852,-3.000,18.000,21.000,3.500
1.853,-3.000,19.000,22.000,4.500
1.854,-3.000,20.500,23.500,6.000
1.855,-3.000,21.500,24.500,7.500
1.856,-3.000,22.500,26.000,8.500
1.857,-3.000,23.000,26.500,9.000
1.858,-3.000,23.500,27.500,9.500
1.859,-2.500,23.000,27.000,9.500
1.860,-2.500,23.000,27.000,9.000
1.861,-2.000,22.000,26.000,8.500
1.862,-2.000,21.000,25.000,7.500
1.863,-2.000,19.500,23.500,6.500
1.864,-2.500,18.500,22.000,5.000
1.865,-2.500,17.000,20.500,3.500
1.866,-3.000,15.500,19.000,2.500
1.867,-3.000,14.500,17.500,1.000
1.868,-3.500,14.000,16.500,-0.500
1.869,-4.000,13.500,15.500,-1.000
1.870,-4.500,14.000,15.500,-2.000
1.871,-4.500,14.000,15.000,-2.000
1.872,-5.000,14.500,15.500,-2.500
1.873,-5.000,15.000,15.500,-2.500
1.874,-5.500,16.000,16.500,-2.500
1.875,-5.500,16.000,16.500,-2.000
1.876,-5.500,17.000,17.500,-1.500
1.877,-5.500,17.500,18.000,-0.500
1.878,-5.500,18.000,18.500,0.500
1.879,-5.000,18.000,19.000,1.000
1.880,-4.000,18.500,20.000,2.500
1.881,-3.000,18.500,20.500,3.500
1.882,-2.500,19.000,21.500,5.000
1.883,-1.500,19.500,22.500,7.000
1.884,-1.500,20.000,23.500,9.000
1.885,-1.000,20.000,24.500,11.500
1.886,-1.500,20.000,25.500,14.000
1.887,-1.500,19.500,26.500,16.000
1.888,-2.000,19.500,27.500,18.000
1.889,-2.000,19.000,28.000,20.000
1.890,-2.500,18.500,28.500,22.000
1.891,-2.500,18.000,28.500,23.500
1.892,-3.000,18.000,28.500,25.500
1.893,-3.000,17.500,28.000,27.000
1.894,-3.500,18.000,27.500,28.000
1.895,-4.000,18.000,26.500,29.000
1.896,-4.500,18.000,25.500,29.500
1.897,-4.500,17.500,24.000,30.000
1.898,-5.000,17.000,22.500,30.000
1.899,-5.000,15.500,20.000,29.000
1.900,-5.500,14.000,17.500,28.500
1.901,-5.500,11.500,14.000,27.000
1.902,-6.500,9.500,10.500,25.500
1.903,-7.000,6.500,6.500,24.000
1.904,-8.000,4.000,2.500,22.000
1.905,-9.000,1.000,-2.000,20.000
1.906,-9.500,-2.000,-6.500,17.500
1.907,-10.500,-4.500,-10.500,14.000
1.908,-11.000,-7.000,-15.000,10.000
1.909,-11.500,-9.000,-19.500,5.000
1.910,-12.000,-11.000,-24.500,-1.000
1.911,-12.500,-12.500,-29.500,-8.000
1.912,-13.500,-14.000,-34.500,-15.000
1.913,-14.000,-15.000,-39.500,-22.500
1.914,-14.500,-16.000,-45.000,-30.000
1.915,-14.500,-17.000,-49.500,-37.000
1.916,-15.500,-17.500,-53.000,-43.500
1.917,-15.500,-17.500,-56.000,-48.500
1.918,-15.500,-17.000,-57.500,-53.000
1.919,-15.000,-16.500,-58.000,-56.500
1.920,-14.500,-16.000,-57.500,-58.500
1.921,-13.500,-15.000,-55.500,-59.500
1.922,-13.000,-13.500,-53.000,-60.000
1.923,-11.500,-12.000,-49.500,-59.000
1.924,-11.000,-10.500,-45.500,-58.000
1.925,-10.000,-8.500,-41.000,-56.500
1.926,-9.000,-6.500,-36.000,-54.500
1.927,-7.500,-4.500,-31.000,-52.000
1.928,-7.000,-2.000,-26.000,-49.500
1.929,-6.000,1.000,-21.500,-46.500
1.930,-5.500,3.500,-17.000,-44.000
1.931,-4.500,6.000,-12.500,-41.000
1.932,-4.500,8.500,-9.000,-39.000
1.933,-4.000,11.000,-5.500,-36.500
1.934,-3.500,13.500,-2.500,-34.500
1.935,-3.500,15.500,0.500,-32.500
1.936,-3.500,18.000,3.000,-30.500
1.937,-3.000,19.500,5.500,-28.000
1.938,-3.000,21.500,8.000,-26.000
1.939,-2.500,23.000,10.000,-24.000
1.940,-2.000,24.000,12.000,-23.000
1.941,-1.500,24.500,13.500,-21.500
1.942,-1.000,24.500,14.500,-20.000
1.943,-1.000,24.000,15.500,-18.500
1.944,-1.000,23.500,16.500,-17.500
1.945,-1.000,23.000,17.500,-15.500
1.946,-1.000,22.500,18.000,-14.000
1.947,-1.000,22.000,18.500,-12.500
1.948,-1.500,22.000,19.500,-10.500
1.949,-2.000,22.000,20.000,-8.500
1.950,-2.500,22.500,20.500,-7.000
1.951,-2.500,23.000,21.500,-5.000
1.952,-3.000,24.000,22.000,-3.000
1.953,-3.500,24.500,22.500,-1.000
1.954,-3.500,25.000,23.500,1.000
1.955,-3.500,25.000,24.000,2.500
1.956,-3.500,25.000,24.500,3.500
1.957,-3.500,25.000,25.000,4.500
1.958,-3.500,25.000,25.000,5.000
1.959,-3.500,24.500,25.000,5.000
1.960,-3.500,24.500,25.000,5.500
1.961,-3.000,24.000,24.500,5.500
1.962,-3.000,23.500,24.500,5.500
1.963,-3.000,23.000,23.500,5.500
1.964,-3.000,23.000,23.500,5.500
1.965,-3.000,22.000,23.000,5.500
1.966,-3.000,22.000,22.500,5.500
1.967,-3.000,21.500,22.000,5.500
1.968,-3.000,21.500,22.500,5.500
1.969,-3.000,22.000,22.500,5.500
1.970,-3.000,22.500,23.000,5.500
1.971,-3.000,23.000,23.000,5.500
1.972,-3.000,24.000,23.500,6.000
1.973,-3.000,24.500,23.500,6.500
1.974,-3.500,25.500,23.500,7.500
1.975,-3.500,26.000,23.500,8.000
1.976,-3.500,27.000,23.500,8.500
1.977,-3.000,27.500,23.500,8.500
1.978,-3.000,28.000,23.500,9.000
1.979,-2.500,28.000,23.500,9.000
1.980,-2.500,28.000,23.500,9.000
1.981,-2.500,27.500,23.000,8.500
1.982,-2.500,27.000,22.500,8.500
1.983,-2.000,26.000,22.000,8.000
1.984,-2.000,25.000,22.000,8.000
1.985,-2.000,24.000,21.500,8.000
1.986,-2.000,23.500,21.500,8.000
1.987,-1.500,22.500,21.000,7.500
1.988,-1.500,22.000,21.000,7.500
1.989,-1.500,21.500,20.500,7.500
1.990,-2.000,21.500,20.500,7.500
1.991,-2.000,21.000,20.500,7.500
1.992,-2.000,21.500,21.000,8.000
1.993,-2.000,22.000,21.000,8.500
1.994,-2.500,23.000,21.500,9.000
1.995,-2.500,23.500,21.500,9.500
1.996,-2.500,24.000,22.500,10.000
1.997,-2.500,24.500,22.500,10.500
1.998,-3.000,25.500,22.500,10.500
1.999,-3.000,25.500,22.000,10.500
2.000,-3.000,25.500,22.000,10.500
2.001,-2.500,25.000,21.000,10.000
2.002,-2.500,24.500,20.500,10.000
2.003,-2.500,24.000,20.000,9.500
2.004,-2.000,23.500,20.000,9.000
2.005,-2.000,22.500,20.000,8.500
2.006,-2.000,22.500,20.000,8.500
2.007,-1.500,22.000,20.000,8.000
2.008,-2.000,22.000,20.500,8.000
2.009,-2.000,22.000,20.500,7.500
2.010,-2.000,22.500,20.500,7.500
2.011,-2.500,22.500,20.500,7.500
2.012,-2.500,23.000,20.500,8.000
2.013,-2.500,23.000,21.000,8.500
2.014,-3.000,23.500,21.500,9.000
2.015,-3.000,23.500,22.000,9.500
2.016,-3.000,24.000,23.000,10.000
2.017,-2.500,24.000,23.000,10.000
2.018,-2.500,24.000,23.500,10.000
2.019,-2.500,23.500,23.000,10.000
2.020,-2.500,23.500,23.000,9.500
2.021,-2.500,23.000,22.500,9.500
2.022,-3.000,23.000,22.500,9.000
2.023,-3.000,22.000,22.500,8.500
2.024,-3.500,21.000,22.500,8.500
2.025,-3.500,20.500,22.000,8.000
2.026,-3.500,20.000,22.000,8.000
2.027,-3.500,20.000,21.500,7.500
2.028,-3.500,20.000,21.500,7.500
2.029,-3.500,20.000,21.000,8.000
2.030,-3.500,21.000,21.500,8.500
2.031,-3.500,21.500,22.000,9.000
2.032,-4.000,22.500,22.500,9.500
2.033,-4.000,23.000,23.000,9.500
2.034,-4.500,24.000,23.500,10.000
2.035,-4.500,25.000,23.500,10.000
2.036,-5.000,26.000,24.000,10.000
2.037,-5.000,26.500,24.000,10.000
2.038,-5.000,27.000,24.500,10.000
2.039,-5.000,27.000,24.500,9.500
2.040,-5.000,27.000,24.500,10.000
2.041,-5.000,26.500,24.000,9.500
2.042,-5.000,25.500,24.000,9.500
2.043,-5.000,24.500,23.500,9.000
2.044,-5.000,23.500,23.000,9.000
2.045,-5.000,22.500,23.000,8.000
2.046,-4.500,21.500,23.000,7.500
2.047,-4.500,21.000,23.000,7.000
2.048,-4.500,21.000,23.500,7.000
2.049,-4.500,21.000,23.500,7.000
2.050,-5.000,21.000,23.500,7.000
2.051,-5.000,21.500,23.500,7.000
2.052,-5.500,22.000,23.500,7.000
2.053,-5.500,22.000,23.000,7.000
2.054,-6.000,23.000,22.500,7.000
2.055,-6.000,23.500,22.000,6.500
2.056,-6.000,24.000,22.000,7.000
2.057,-6.000,24.500,22.000,7.000
2.058,-6.000,25.000,22.000,7.000
2.059,-5.500,25.500,21.500,6.500
2.060,-5.500,25.500,21.500,6.500
2.061,-5.500,25.500,21.000,6.500
2.062,-5.500,25.000,20.500,6.500
2.063,-5.500,24.000,19.500,6.000
2.064,-5.500,23.500,19.000,6.500
2.065,-5.500,22.500,18.500,6.500
2.066,-5.500,22.000,18.000,6.500
2.067,-5.500,21.000,17.500,6.500
2.068,-5.000,21.000,17.000,6.500
2.069,-4.500,21.000,17.000,6.500
2.070,-4.500,21.500,17.000,6.500
2.071,-4.500,21.500,17.000,6.500
2.072,-4.500,22.000,17.500,6.500
2.073,-4.500,22.000,17.500,7.000
2.074,-5.000,22.500,18.000,7.500
2.075,-5.500,23.000,18.500,8.000
2.076,-6.000,24.000,19.000,8.500
2.077,-6.000,24.000,19.000,8.500
2.078,-6.500,24.500,19.000,8.500
2.079,-6.500,24.000,19.000,8.500
2.080,-6.500,24.000,18.500,8.000
2.081,-6.000,23.000,17.500,7.000
2.082,-6.000,22.500,17.000,6.500
2.083,-5.500,21.500,15.500,5.500
2.084,-5.500,20.500,14.500,5.000
2.085,-5.000,19.500,13.500,4.500
2.086,-5.500,18.500,12.500,4.000
2.087,-5.500,17.500,12.000,4.000
2.088,-5.500,17.500,12.000,4.000
2.089,-6.000,17.000,12.000,3.500
2.090,-6.000,17.500,12.500,4.000
2.091,-6.000,17.500,13.000,4.000
2.092,-6.000,18.500,14.000,4.000
2.093,-6.000,19.000,14.500,4.000
2.094,-6.000,20.000,15.500,4.000
2.095,-5.500,20.000,15.500,4.000
2.096,-5.500,20.500,16.000,3.500
2.097,-5.000,20.500,15.500,3.000
2.098,-5.500,20.500,15.500,3.000
2.099,-5.500,20.000,15.000,3.000
2.100,-5.500,19.500,14.500,3.000
2.101,-5.000,18.500,13.500,2.500
2.102,-5.500,18.000,12.500,2.500
2.103,-5.500,17.000,11.500,2.000
2.104,-5.500,16.000,11.000,1.500
2.105,-5.000,15.000,10.000,0.500
2.106,-5.500,14.500,9.500,-0.500
2.107,-5.500,14.000,9.000,-1.000
2.108,-6.000,14.000,8.500,-1.500
2.109,-6.000,14.000,8.500,-1.500
2.110,-6.000,14.500,8.500,-1.500
2.111,-6.000,14.500,9.000,-1.000
2.112,-6.000,15.500,9.500,-1.000
2.113,-5.500,16.000,9.500,-0.500
2.114,-5.500,17.000,10.500,0.000
2.115,-5.000,17.500,10.500,0.000
2.116,-5.500,18.500,11.000,0.000
2.117,-5.500,18.500,10.500,0.000
2.118,-6.000,19.000,10.500,-0.500
2.119,-6.000,18.500,9.500,-1.000
2.120,-6.000,18.000,9.000,-2.000
2.121,-6.000,17.000,8.000,-2.000
2.122,-6.000,16.500,7.000,-2.500
2.123,-5.500,16.000,6.000,-3.000
2.124,-5.500,15.000,5.000,-3.500
2.125,-5.000,14.000,4.000,-3.500
2.126,-5.500,13.500,3.000,-4.000
2.127,-5.500,12.500,2.500,-4.500
2.128,-5.500,12.000,2.000,-5.000
2.129,-5.500,11.500,1.500,-5.000
2.130,-5.500,11.500,1.000,-5.000
2.131,-5.500,11.500,1.000,-4.500
2.132,-6.000,11.500,1.000,-4.500
2.133,-6.000,11.500,1.000,-4.000
2.134,-6.500,12.000,1.500,-4.000
2.135,-6.500,12.500,2.000,-3.500
2.136,-7.000,13.000,2.500,-3.500
2.137,-7.000,13.500,3.000,-3.500
2.138,-7.000,14.000,3.000,-3.500
2.139,-7.000,14.000,3.000,-3.500
2.140,-7.000,14.500,3.000,-4.000
2.141,-7.000,14.000,2.000,-4.000
2.142,-7.000,13.500,1.500,-4.500
2.143,-6.500,12.500,1.000,-4.500
2.144,-7.000,11.500,0.500,-5.000
2.145,-7.000,10.500,0.000,-5.500
2.146,-7.000,10.000,-0.500,-5.500
2.147,-7.000,9.500,-0.500,-5.000
2.148,-7.500,9.500,-0.500,-4.500
2.149,-7.500,9.500,0.500,-4.000
2.150,-8.000,10.000,1.000,-3.000
2.151,-7.500,10.500,2.000,-2.500
2.152,-8.000,11.000,2.500,-1.500
2.153,-8.000,12.000,3.500,-0.500
2.154,-8.000,13.000,4.500,0.500
2.155,-7.500,14.000,5.500,1.000
2.156,-7.500,15.500,7.000,2.000
2.157,-7.500,16.500,8.000,3.000
2.158,-7.000,17.500,9.500,4.000
2.159,-6.500,18.000,10.500,5.000
2.160,-6.500,18.500,11.500,5.500
2.161,-6.000,18.000,11.500,6.000
2.162,-6.000,17.500,12.000,7.000
2.163,-5.500,16.500,11.500,7.000
2.164,-5.500,16.000,11.500,7.500
2.165,-5.000,15.500,11.500,7.500
2.166,-5.500,15.000,11.500,8.000
2.167,-5.000,15.000,11.500,8.000
2.168,-5.500,15.500,12.000,8.500
2.169,-5.500,16.000,12.500,8.500
2.170,-5.500,17.000,13.500,9.500
2.171,-5.000,18.000,14.500,10.500
2.172,-5.000,19.500,16.000,11.500
2.173,-5.000,20.500,17.000,12.500
2.174,-5.000,22.000,18.500,14.000
2.175,-5.000,23.000,19.500,15.000
2.176,-5.000,24.500,21.000,16.500
2.177,-4.500,25.000,22.000,17.500
2.178,-4.500,26.000,22.500,18.000
2.179,-4.500,26.000,23.000,18.500
2.180,-4.500,26.000,23.000,18.500
2.181,-4.500,25.500,22.500,18.500
2.182,-4.500,25.000,22.500,18.000
2.183,-4.000,24.500,22.000,17.500
2.184,-4.000,24.500,22.500,17.500
2.185,-4.000,24.000,22.500,17.000
2.186,-4.500,24.000,22.500,17.500
2.187,-4.500,24.000,23.000,17.500
2.188,-4.500,24.000,23.500,17.500
2.189,-4.500,24.500,23.500,17.500
2.190,-5.000,25.000,24.500,18.000
2.191,-5.000,25.500,24.500,18.500
2.192,-5.000,26.500,25.500,19.000
2.193,-5.500,27.000,26.000,19.500
2.194,-5.500,28.500,27.000,20.500
2.195,-5.500,29.000,27.500,20.500
2.196,-5.500,30.000,28.500,21.000
2.197,-5.500,30.500,29.000,21.000
2.198,-5.500,31.000,29.500,21.000
2.199,-5.000,31.000,29.000,20.500
2.200,-5.000,31.000,28.500,20.500
2.201,-4.500,30.000,27.500,19.500
2.202,-4.500,29.500,27.000,19.000
2.203,-4.500,28.500,26.000,18.500
2.204,-4.500,27.500,25.500,18.000
2.205,-4.500,26.500,25.000,17.500
2.206,-5.000,26.000,25.000,17.500
2.207,-5.000,25.500,24.500,17.000
2.208,-5.000,25.500,25.000,17.000
2.209,-5.000,25.000,25.500,16.500
2.210,-5.000,25.500,26.500,17.000
2.211,-5.000,26.000,27.000,17.000
2.212,-4.500,27.000,27.500,17.500
2.213,-4.500,27.500,28.000,17.500
2.214,-4.500,28.500,28.500,18.000
2.215,-4.500,29.000,29.000,18.000
2.216,-5.000,30.000,30.000,18.500
2.217,-5.000,30.500,30.000,18.500
2.218,-5.000,31.000,30.000,18.500
2.219,-4.500,31.500,29.500,18.500
2.220,-4.500,31.500,29.000,18.000
2.221,-4.000,31.500,27.500,17.500
2.222,-4.000,31.000,26.500,17.500
2.223,-3.500,30.500,25.500,17.000
2.224,-3.500,29.500,24.500,17.000
2.225,-3.000,29.000,23.500,17.000
2.226,-3.500,28.500,23.000,17.500
2.227,-3.500,27.500,23.000,17.500
2.228,-4.000,27.500,23.000,18.500
2.229,-4.000,27.000,23.000,18.500
2.230,-4.500,27.000,23.000,19.000
2.231,-4.500,27.000,23.000,19.000
2.232,-4.500,27.500,23.500,19.500
2.233,-4.500,27.500,24.000,19.500
2.234,-4.500,28.500,24.500,20.000
2.235,-4.000,29.500,25.000,20.500
2.236,-4.000,30.500,26.000,20.500
2.237,-3.500,31.000,26.500,20.500
2.238,-4.000,31.500,27.000,20.500
2.239,-4.000,32.000,27.500,20.500
2.240,-4.000,32.000,27.500,20.000
2.241,-3.500,31.500,27.500,19.500
2.242,-3.500,31.000,27.500,19.500
2.243,-3.500,30.000,27.000,19.000
2.244,-3.500,29.500,26.500,19.000
2.245,-3.000,28.500,25.500,18.500
2.246,-3.500,28.000,25.000,18.000
2.247,-3.500,27.500,24.500,18.000
2.248,-3.500,27.500,24.000,18.000
2.249,-3.500,27.000,23.500,18.500
2.250,-4.000,27.500,23.500,19.000
2.251,-4.000,27.500,24.000,19.000
2.252,-4.000,28.500,24.500,20.000
2.253,-3.500,29.000,25.000,20.500
2.254,-4.000,30.000,26.000,21.000
2.255,-4.000,30.500,26.500,21.000
2.256,-4.000,31.500,27.000,21.000
2.257,-3.500,32.000,27.000,21.000
2.258,-4.000,32.500,27.000,21.000
2.259,-4.000,32.500,27.000,20.500
2.260,-4.000,32.500,27.000,21.000
2.261,-3.500,32.000,27.000,20.500
2.262,-3.500,32.000,26.500,20.500
2.263,-3.500,31.000,26.000,20.500
2.264,-3.500,30.000,25.500,20.500
2.265,-3.500,29.000,24.500,20.000
2.266,-4.000,28.500,24.000,19.500
2.267,-4.500,28.000,23.500,18.500
2.268,-5.000,27.500,23.000,18.000
2.269,-5.000,27.000,22.000,17.500
2.270,-5.500,27.500,22.000,17.500
2.271,-5.500,27.500,22.000,17.500
2.272,-6.000,28.500,23.000,17.500
2.273,-6.000,29.500,23.500,17.500
2.274,-6.000,30.500,24.000,18.000
2.275,-5.500,31.500,24.500,18.000
2.276,-5.500,33.000,25.500,19.000
2.277,-5.000,33.500,25.500,19.500
2.278,-5.000,34.000,26.000,20.000
2.279,-5.000,34.000,26.000,20.500
2.280,-5.000,34.000,26.000,20.500
2.281,-4.500,33.500,25.500,20.500
2.282,-5.000,33.000,25.500,20.500
2.283,-4.500,32.000,25.000,20.500
2.284,-4.500,31.500,25.000,21.000
2.285,-4.500,31.000,25.000,21.000
2.286,-4.500,31.000,25.500,21.500
2.287,-4.000,31.000,25.500,22.000
2.288,-4.000,31.500,26.500,23.000
2.289,-4.000,31.500,27.500,23.500
2.290,-4.500,32.500,29.000,24.500
2.291,-4.500,33.500,30.000,25.500
2.292,-4.500,34.500,31.000,26.500
2.293,-4.500,35.000,31.500,27.000
2.294,-5.000,36.000,32.500,27.500
2.295,-5.500,36.000,33.000,27.000
2.296,-5.500,36.500,33.000,27.000
2.297,-5.500,36.500,32.500,26.000
2.298,-6.000,36.000,32.000,25.500
2.299,-6.000,35.000,30.500,24.000
2.300,-6.000,34.000,29.000,23.000
2.301,-6.000,32.500,27.000,21.500
2.302,-6.000,30.500,25.000,20.500
2.303,-6.500,28.500,22.500,19.500
2.304,-6.500,27.500,21.000,18.500
2.305,-6.500,26.000,19.000,17.500
2.306,-7.000,25.000,18.000,16.500
2.307,-7.000,24.500,17.000,15.500
2.308,-7.000,24.500,16.500,15.500
2.309,-7.000,24.000,16.500,15.000
2.310,-7.000,24.500,17.000,15.500
2.311,-6.500,25.000,17.500,15.500
2.312,-6.500,26.000,18.500,16.500
2.313,-6.000,27.000,20.000,17.500
2.314,-6.000,28.500,21.500,19.000
2.315,-5.500,29.500,22.500,20.000
2.316,-5.500,31.000,24.000,21.000
2.317,-5.500,32.500,25.000,21.500
2.318,-5.500,33.500,26.500,22.500
2.319,-5.000,34.500,27.000,22.500
2.320,-4.500,35.000,27.500,23.000
2.321,-4.000,35.000,27.500,23.000
2.322,-4.000,35.000,27.500,23.000
2.323,-4.000,34.500,27.000,22.500
2.324,-4.000,34.000,26.500,22.500
2.325,-4.000,33.500,25.500,22.000
2.326,-4.000,32.500,25.000,22.000
2.327,-4.000,31.500,24.000,21.000
2.328,-4.500,31.500,23.500,21.000
2.329,-4.500,31.000,22.500,20.500
2.330,-4.500,31.000,22.500,20.500
2.331,-4.500,30.500,22.500,20.500
2.332,-5.000,31.000,23.000,21.000
2.333,-5.000,31.500,23.500,21.500
2.334,-5.500,32.500,24.500,22.500
2.335,-5.000,33.000,25.000,23.000
2.336,-5.500,33.500,26.000,23.500
2.337,-5.000,34.000,26.500,23.500
2.338,-5.000,34.000,27.000,24.000
2.339,-4.500,34.000,27.000,24.000
2.340,-4.500,34.000,27.000,24.000
2.341,-4.000,33.500,27.000,23.500
2.342,-4.000,33.000,26.500,23.000
2.343,-3.500,32.500,26.000,22.000
2.344,-4.000,32.500,26.000,21.500
2.345,-4.000,32.000,26.000,21.000
2.346,-4.000,32.000,26.000,21.000
2.347,-3.500,32.000,26.000,21.000
2.348,-3.500,32.500,26.500,21.000
2.349,-3.500,32.500,26.500,21.000
2.350,-3.500,32.500,27.500,21.500
2.351,-3.500,32.500,27.500,22.000
2.352,-3.500,33.000,28.500,22.500
2.353,-3.500,33.000,29.000,22.500
2.354,-4.000,33.500,29.500,23.000
2.355,-4.000,33.500,30.000,23.500
2.356,-4.000,34.500,30.500,24.000
2.357,-3.500,34.500,30.500,24.000
2.358,-3.500,35.000,30.500,24.000
2.359,-2.500,35.000,30.000,23.500
2.360,-2.500,35.000,29.500,23.500
2.361,-2.000,34.000,29.000,23.000
2.362,-2.000,33.500,28.000,22.500
2.363,-1.500,32.500,27.000,22.000
2.364,-1.500,32.000,26.500,22.000
2.365,-1.500,31.000,26.000,21.500
2.366,-1.500,30.500,26.000,21.500
2.367,-1.500,29.500,25.500,21.500
2.368,-1.500,29.500,26.000,21.500
2.369,-1.000,29.000,26.000,21.500
2.370,-1.000,29.500,26.500,22.000
2.371,-0.500,30.000,26.500,22.000
2.372,-0.500,30.500,27.000,22.500
2.373,-0.500,31.500,27.500,23.000
2.374,-0.500,32.500,28.000,23.500
2.375,-0.500,33.000,28.000,23.500
2.376,-1.000,33.500,28.500,24.000
2.377,-0.500,33.500,28.500,24.500
2.378,-0.500,33.500,29.000,25.000
2.379,0.000,32.500,28.500,25.000
2.380,0.500,32.000,28.500,25.000
2.381,0.500,31.000,28.000,25.000
2.382,1.000,30.500,27.500,24.500
2.383,1.000,29.500,26.500,24.000
2.384,1.500,29.500,25.500,23.500
2.385,1.500,29.000,24.500,23.000
2.386,1.500,29.000,23.500,23.000
2.387,1.500,29.000,22.500,22.500
2.388,1.500,29.500,22.500,22.500
2.389,1.000,29.500,22.000,22.500
2.390,1.000,30.500,22.500,22.500
2.391,0.500,31.000,23.000,22.500
2.392,0.500,32.000,24.000,23.500
2.393,0.000,33.000,25.000,24.000
2.394,-0.500,34.000,26.500,24.500
2.395,-0.500,35.000,27.000,25.000
2.396,-0.500,35.500,28.000,25.500
2.397,-0.500,36.000,28.500,25.500
2.398,-0.500,36.500,28.500,25.500
2.399,-0.500,36.500,28.000,25.500
2.400,-1.000,36.000,28.000,25.500
2.401,-0.500,35.500,27.000,25.000
2.402,-1.000,35.000,27.000,24.500
2.403,-1.000,34.000,26.000,24.000
2.404,-1.000,33.000,26.000,24.000
2.405,-0.500,32.000,25.500,23.500
2.406,0.000,31.500,25.500,23.500
2.407,0.000,31.000,25.500,23.500
2.408,0.500,31.000,25.500,23.500
2.409,0.000,31.000,26.000,24.000
2.410,0.000,31.000,26.500,24.500
2.411,0.000,31.500,27.500,24.500
2.412,-0.500,32.500,28.500,25.500
2.413,-1.000,33.500,29.500,26.000
2.414,-1.000,34.500,31.000,26.500
2.415,-1.000,35.500,31.500,26.500
2.416,-1.500,36.500,32.000,26.500
2.417,-1.000,37.500,31.500,26.500
2.418,-1.500,38.000,31.500,26.000
2.419,-1.500,37.500,30.500,25.500
2.420,-1.500,37.000,30.000,25.500
2.421,-1.000,36.000,29.000,25.000
2.422,-1.000,35.500,28.500,24.500
2.423,-0.500,34.500,27.500,24.000
2.424,-0.500,33.500,27.500,24.000
2.425,0.000,32.000,27.000,24.000
2.426,-0.500,31.500,26.500,24.000
2.427,-0.500,31.000,26.500,23.500
2.428,-1.000,31.000,27.000,23.500
2.429,-1.000,31.000,27.500,23.500
2.430,-1.500,31.500,28.000,23.500
2.431,-2.000,32.000,28.500,24.000
2.432,-2.000,33.000,29.500,24.500
2.433,-2.000,33.000,30.000,24.500
2.434,-2.500,34.000,30.500,25.000
2.435,-2.500,34.000,30.500,25.000
2.436,-2.500,35.000,31.000,25.500
2.437,-2.000,35.000,31.000,26.000
2.438,-2.500,35.500,31.500,26.000
2.439,-2.000,35.000,31.000,26.000
2.440,-2.000,35.500,31.000,26.000
2.441,-1.500,35.000,30.500,26.000
2.442,-1.500,35.000,30.000,25.500
2.443,-1.500,34.500,29.000,25.000
2.444,-1.500,34.500,28.500,25.000
2.445,-1.000,33.500,28.000,24.500
2.446,-1.000,33.000,27.500,24.500
2.447,-1.000,32.500,27.000,24.500
2.448,-1.000,32.500,27.000,25.000
2.449,-0.500,32.500,27.000,25.000
2.450,-1.000,33.000,27.500,25.000
2.451,-1.000,33.500,27.500,25.000
2.452,-1.000,34.500,28.500,25.500
2.453,-1.000,35.000,29.000,25.500
2.454,-1.000,36.500,30.000,26.000
2.455,-1.000,37.000,30.500,26.000
2.456,-1.000,38.000,31.000,26.500
2.457,-0.500,38.500,31.000,26.500
2.458,-1.000,38.500,31.000,27.000
2.459,-1.000,38.500,30.500,26.500
2.460,-1.000,38.500,30.500,26.500
2.461,-0.500,37.500,29.500,26.000
2.462,-0.500,37.000,29.500,26.000
2.463,0.000,36.000,29.000,26.000
2.464,0.500,35.500,28.500,26.000
2.465,0.500,34.500,27.500,25.500
2.466,0.500,33.500,27.000,25.500
2.467,0.500,33.000,26.000,25.500
2.468,0.500,33.000,26.000,25.500
2.469,0.500,32.500,26.000,25.500
2.470,0.000,33.000,27.000,26.000
2.471,-0.500,33.500,27.500,26.000
2.472,-1.000,34.500,28.500,27.000
2.473,-1.500,35.500,29.500,27.000
2.474,-1.500,36.000,31.000,27.500
2.475,-1.500,36.500,32.000,28.000
2.476,-2.000,37.500,33.000,28.500
2.477,-1.500,37.500,33.500,28.500
2.478,-1.500,38.000,34.500,29.000
2.479,-1.500,38.000,34.500,29.000
2.480,-1.500,38.000,34.500,29.000
2.481,-1.000,37.000,33.500,29.000
2.482,-1.000,36.500,33.000,29.000
2.483,-0.500,35.000,32.000,28.500
2.484,-0.500,34.500,31.500,28.000
2.485,0.000,33.000,30.500,27.500
2.486,0.000,32.500,30.000,27.500
2.487,0.000,32.000,29.500,27.000
2.488,0.000,32.000,29.500,27.000
2.489,0.000,31.500,29.000,27.000
2.490,-0.500,32.000,29.500,27.500
2.491,-0.500,32.000,29.500,27.500
2.492,-1.000,32.500,30.000,28.000
2.493,-1.500,33.000,30.500,28.500
2.494,-2.000,33.500,31.500,29.000
2.495,-2.500,34.000,32.000,29.000
2.496,-2.500,34.500,32.500,29.500
2.497,-2.500,35.000,32.500,29.500
2.498,-2.000,35.500,33.000,29.500
2.499,-1.500,35.000,32.500,29.500
2.500,-1.000,35.000,32.500,29.000
2.501,-0.500,34.500,31.500,28.500
2.502,-0.500,34.000,31.000,28.500
2.503,0.000,33.000,30.000,28.500
2.504,0.000,32.500,29.000,28.000
2.505,0.000,31.000,27.500,27.500
2.506,-0.500,30.500,26.500,27.000
2.507,-0.500,29.500,25.500,26.500
2.508,-0.500,29.000,25.000,26.000
2.509,-0.500,28.500,24.000,25.500
2.510,-1.000,29.000,24.000,25.500
2.511,-1.000,29.000,24.000,25.000
2.512,-1.000,29.500,24.000,25.500
2.513,-1.000,30.500,24.000,25.000
2.514,-1.000,31.500,25.000,25.500
2.515,-1.000,32.000,25.500,25.500
2.516,-1.500,33.000,26.000,25.500
2.517,-2.000,33.000,26.000,25.500
2.518,-2.000,33.500,26.000,25.500
2.519,-2.000,33.000,26.000,25.500
2.520,-2.000,33.000,26.000,25.500
2.521,-2.000,32.500,25.500,25.000
2.522,-1.500,32.000,25.500,24.500
2.523,-1.000,31.000,25.000,24.000
2.524,-1.000,30.500,24.500,24.000
2.525,-1.000,30.000,23.500,23.500
2.526,-1.000,29.500,23.500,23.000
2.527,-0.500,28.500,22.500,22.500
2.528,-1.000,28.500,22.500,22.500
2.529,-1.000,28.500,22.000,22.000
2.530,-1.500,29.000,22.000,22.500
2.531,-1.500,29.500,22.500,22.500
2.532,-1.500,30.000,23.000,22.500
2.533,-1.500,30.500,23.000,22.500
2.534,-1.500,31.500,24.000,23.000
2.535,-1.500,32.000,24.500,23.000
2.536,-1.500,33.000,25.000,23.500
2.537,-1.500,33.500,25.000,23.000
2.538,-1.500,34.000,25.500,23.000
2.539,-1.500,34.000,25.500,23.000
2.540,-1.500,34.500,25.500,23.000
2.541,-1.500,34.000,25.500,22.500
2.542,-1.000,33.500,25.500,22.500
2.543,-0.500,33.000,25.500,22.500
2.544,-0.500,32.000,25.000,22.000
2.545,0.000,31.000,24.500,21.500
2.546,0.500,30.500,24.500,21.500
2.547,0.500,29.500,24.500,21.500
2.548,1.000,29.000,24.500,21.500
2.549,1.000,28.500,24.000,21.500
2.550,1.000,28.500,24.000,21.000
2.551,0.500,29.000,24.000,21.000
2.552,0.500,29.500,24.000,21.000
2.553,0.500,30.500,24.500,20.500
2.554,0.500,31.500,25.000,21.000
2.555,0.000,32.500,25.500,21.500
2.556,0.000,34.000,26.000,22.500
2.557,0.000,34.500,26.500,23.000
2.558,-0.500,35.500,27.000,23.500
2.559,-0.500,36.000,27.500,23.500
2.560,-0.500,36.000,27.500,24.000
2.561,-0.500,35.500,27.500,23.500
2.562,-0.500,35.000,27.500,23.500
2.563,0.000,34.500,27.500,23.000
2.564,-0.500,34.000,28.000,23.000
2.565,0.000,33.500,28.000,23.000
2.566,-0.500,33.000,28.500,23.000
2.567,-0.500,32.500,28.000,22.500
2.568,-1.000,32.500,28.000,23.000
2.569,-1.000,32.500,27.500,22.500
2.570,-1.500,33.000,27.000,22.500
2.571,-1.500,33.000,26.500,22.500
2.572,-2.000,34.000,26.500,23.000
2.573,-2.000,34.500,26.500,23.000
2.574,-2.000,35.500,27.000,23.500
2.575,-2.000,36.500,27.000,24.000
2.576,-2.000,37.000,28.000,24.500
2.577,-2.000,37.500,28.500,25.000
2.578,-2.000,38.000,29.000,25.000
2.579,-1.500,37.500,29.000,25.000
2.580,-1.500,37.500,29.000,25.000
2.581,-1.000,37.000,28.500,24.500
2.582,-1.000,36.000,28.500,24.000
2.583,-0.500,35.000,27.500,23.500
2.584,-0.500,34.000,27.000,23.000
2.585,-0.500,32.500,26.500,22.500
2.586,-0.500,32.000,26.500,22.500
2.587,-0.500,31.000,26.000,22.500
2.588,-1.000,31.000,26.500,23.000
2.589,-1.000,31.000,27.000,24.000
2.590,-1.500,31.500,28.000,25.000
2.591,-1.500,32.000,29.000,26.500
2.592,-1.500,33.500,30.500,28.500
2.593,-1.500,34.500,31.500,30.000
2.594,-2.000,36.000,33.000,32.500
2.595,-2.000,37.000,34.000,35.000
2.596,-2.000,38.000,35.000,37.500
2.597,-2.000,38.500,36.000,39.500
2.598,-2.000,39.000,36.500,42.000
2.599,-2.000,39.000,36.500,43.500
2.600,-2.000,38.500,36.000,45.500
2.601,-2.000,37.500,35.000,46.500
2.602,-2.500,36.500,34.000,47.500
2.603,-2.500,34.500,33.000,48.500
2.604,-3.500,33.000,31.500,49.000
2.605,-4.000,31.000,30.500,49.500
2.606,-4.500,29.500,29.000,50.500
2.607,-5.000,27.000,27.500,50.500
2.608,-6.000,25.500,26.000,51.000
2.609,-6.500,23.500,24.000,50.500
2.610,-7.500,22.000,21.500,49.500
2.611,-8.000,20.500,18.500,48.000
2.612,-8.500,19.500,16.000,46.500
2.613,-9.000,18.000,12.500,45.000
2.614,-10.000,16.500,9.500,43.000
2.615,-10.500,15.000,6.000,40.500
2.616,-11.500,14.000,2.500,38.000
2.617,-12.000,12.000,-1.500,34.000
2.618,-12.500,10.500,-6.000,30.000
2.619,-12.500,8.000,-10.500,24.000
2.620,-13.000,6.000,-16.000,18.000
2.621,-13.500,3.000,-21.500,10.500
2.622,-13.500,0.500,-27.500,2.500
2.623,-13.500,-2.500,-33.500,-6.000
2.624,-14.000,-5.000,-39.500,-14.500
2.625,-14.000,-7.000,-45.000,-22.500
2.626,-14.500,-8.500,-50.000,-29.500
2.627,-14.500,-9.500,-53.500,-35.500
2.628,-14.500,-10.000,-56.000,-40.000
2.629,-14.500,-9.000,-56.500,-43.500
2.630,-14.500,-7.500,-56.000,-45.500
2.631,-14.000,-5.500,-54.000,-46.000
2.632,-13.500,-3.000,-50.500,-46.000
2.633,-13.000,0.500,-46.000,-44.500
2.634,-12.500,4.000,-41.000,-43.000
2.635,-11.500,7.500,-36.000,-40.500
2.636,-11.000,11.000,-30.500,-38.000
2.637,-10.000,14.500,-25.500,-35.500
2.638,-9.000,18.500,-20.500,-32.500
2.639,-8.000,21.000,-16.000,-30.000
2.640,-7.000,24.000,-12.000,-27.500
2.641,-6.000,25.500,-8.000,-25.000
2.642,-5.000,27.000,-4.500,-23.000
2.643,-4.500,27.500,-1.000,-21.000
2.644,-4.000,28.000,1.500,-19.500
2.645,-3.000,28.500,3.500,-18.000
2.646,-3.000,29.000,5.500,-16.500
2.647,-2.500,29.500,7.000,-14.500
2.648,-2.500,30.500,9.000,-12.500
2.649,-2.000,31.500,10.500,-10.500
2.650,-2.000,32.500,12.500,-8.500
2.651,-1.500,33.500,14.500,-6.500
2.652,-1.500,34.500,16.500,-4.500
2.653,-1.000,35.000,19.000,-2.500
2.654,-1.000,36.000,21.000,-1.000
2.655,-1.000,36.500,23.000,1.000
2.656,-1.000,37.000,24.500,3.500
2.657,-1.000,37.500,25.500,5.500
2.658,-1.500,38.500,26.500,7.500
2.659,-1.500,39.000,26.500,9.000
2.660,-1.500,39.500,26.500,10.500
2.661,-1.000,39.000,25.500,12.000
2.662,-1.500,38.500,25.000,13.000
2.663,-1.000,37.500,24.000,13.500
2.664,-1.500,37.000,23.000,14.000
2.665,-1.500,36.000,22.500,14.500
2.666,-1.500,35.500,22.000,15.500
2.667,-2.000,35.000,21.500,16.000
2.668,-2.000,35.000,21.500,17.000
2.669,-2.000,34.500,21.500,17.500
2.670,-2.500,35.000,22.000,18.500
2.671,-3.000,35.500,22.000,19.500
2.672,-3.000,36.500,23.000,20.500
2.673,-3.000,37.000,23.500,21.000
2.674,-3.000,37.500,24.000,22.000
2.675,-3.000,38.000,24.500,22.500
2.676,-3.500,38.500,25.500,23.000
2.677,-3.500,38.500,25.500,23.500
2.678,-3.500,38.500,26.000,23.500
2.679,-3.500,38.000,26.000,23.500
2.680,-3.500,37.500,26.000,23.500
2.681,-3.000,37.000,25.000,23.500
2.682,-3.000,36.500,24.500,23.500
2.683,-3.000,35.500,24.000,23.000
2.684,-3.000,34.500,23.500,22.500
2.685,-3.000,33.500,22.500,22.000
2.686,-3.500,33.000,22.500,22.000
2.687,-3.000,32.500,22.000,21.500
2.688,-3.000,32.500,22.000,21.500
2.689,-3.000,32.000,22.000,21.000
2.690,-3.000,32.500,22.000,21.500
2.691,-3.000,33.000,22.500,21.000
2.692,-3.000,34.000,23.000,21.500
2.693,-3.000,34.500,23.500,21.500
2.694,-3.000,35.500,24.500,21.500
2.695,-3.000,36.500,25.500,21.500
2.696,-3.000,37.500,26.500,22.000
2.697,-2.500,38.000,27.000,22.000
2.698,-2.500,38.500,27.500,22.500
2.699,-2.500,38.500,27.500,22.500
2.700,-2.000,38.500,27.000,22.500
2.701,-1.500,37.500,26.000,22.500
2.702,-1.500,37.000,25.500,22.000
2.703,-1.500,35.500,24.000,21.500
2.704,-1.500,34.000,23.500,21.000
2.705,-1.000,32.500,23.000,20.000
2.706,-1.000,31.500,22.500,19.500
2.707,-1.000,30.000,22.000,18.500
2.708,-1.000,29.500,22.000,18.500
2.709,-1.000,29.000,22.000,18.000
2.710,-1.500,29.500,23.000,18.500
2.711,-2.000,30.000,23.500,19.000
2.712,-2.000,31.500,24.000,20.000
2.713,-2.500,32.500,25.000,20.500
2.714,-2.500,34.000,26.000,21.000
2.715,-2.500,35.500,26.500,21.500
2.716,-3.000,37.000,27.500,22.500
2.717,-2.500,38.000,28.500,23.000
2.718,-2.500,39.000,29.500,23.500
2.719,-2.000,40.000,30.000,23.500
2.720,-2.000,40.500,30.500,24.500
2.721,-2.000,40.500,30.500,25.000
2.722,-2.000,40.500,31.000,25.500
2.723,-1.500,39.500,30.500,26.000
2.724,-1.500,39.000,30.500,26.000
2.725,-1.500,38.000,30.000,26.000
2.726,-1.500,37.000,29.500,26.000
2.727,-1.500,36.500,29.000,25.500
2.728,-1.500,36.000,29.000,25.000
2.729,-1.500,35.500,28.500,24.500
2.730,-2.000,36.000,28.000,24.500
2.731,-2.500,36.000,27.500,24.000
2.732,-3.000,36.000,27.500,23.500
2.733,-3.000,35.500,26.500,23.000
2.734,-3.500,35.500,26.000,22.500
2.735,-4.000,34.500,25.500,21.500
2.736,-4.500,34.000,25.000,20.500
2.737,-4.500,33.500,24.000,19.500
2.738,-5.000,32.500,23.000,19.000
2.739,-5.000,31.500,22.000,18.000
2.740,-5.000,31.000,21.000,17.500
2.741,-5.000,29.500,20.000,16.500
2.742,-5.000,29.000,19.500,16.000
2.743,-5.000,27.500,18.500,15.500
2.744,-5.000,27.000,18.500,15.500
2.745,-5.000,26.000,18.000,15.500
2.746,-5.000,25.500,18.500,15.500
2.747,-4.500,25.500,19.000,16.000
2.748,-4.500,25.500,20.000,16.500
2.749,-4.000,26.000,21.000,17.000
2.750,-4.500,27.000,22.500,18.000
2.751,-4.000,28.000,23.500,19.000
2.752,-4.500,29.000,25.000,20.000
2.753,-4.500,30.000,26.000,20.500
2.754,-4.500,31.500,27.500,21.000
2.755,-4.000,32.500,28.000,21.500
2.756,-4.000,34.000,28.500,22.000
2.757,-4.000,34.500,29.000,22.000
2.758,-4.000,35.000,29.500,22.000
2.759,-4.000,35.000,29.000,21.500
2.760,-3.500,35.000,29.000,21.000
2.761,-3.000,34.000,28.500,20.500
2.762,-3.000,33.500,28.000,20.500
2.763,-2.500,32.500,27.000,20.000
2.764,-2.500,31.500,26.500,20.000
2.765,-2.500,30.500,25.500,19.500
2.766,-2.500,30.500,25.000,19.500
2.767,-2.000,30.000,25.000,19.500
2.768,-2.500,30.500,25.000,19.500
2.769,-2.500,30.500,25.000,19.500
2.770,-3.000,30.500,25.000,19.500
2.771,-3.000,30.500,25.000,19.500
2.772,-3.500,31.000,25.500,20.000
2.773,-3.500,31.500,25.500,20.000
2.774,-4.000,32.500,26.000,20.000
2.775,-4.000,33.000,26.000,20.000
2.776,-4.000,34.000,26.500,20.500
2.777,-4.000,34.500,27.000,20.500
2.778,-4.500,35.500,27.000,21.000
2.779,-4.500,35.500,26.000,20.500
2.780,-4.500,35.500,25.500,20.500
2.781,-4.000,34.500,24.000,20.000
2.782,-4.000,34.000,23.000,19.500
2.783,-3.500,33.000,21.500,19.000
2.784,-4.000,32.500,20.500,19.000
2.785,-4.000,31.000,19.500,18.500
2.786,-4.000,30.500,19.500,18.000
2.787,-3.500,29.500,19.500,17.500
2.788,-4.000,29.000,19.500,17.500
2.789,-3.500,28.500,19.500,17.000
2.790,-4.000,28.500,20.000,17.000
2.791,-4.000,28.000,20.500,17.000
2.792,-4.000,28.500,21.000,17.000
2.793,-4.000,28.500,21.000,16.500
2.794,-4.500,28.500,22.000,17.000
2.795,-5.000,28.000,22.000,17.000
2.796,-5.000,28.000,22.500,17.000
2.797,-5.000,27.500,22.000,17.000
2.798,-5.000,27.000,22.000,16.500
2.799,-5.000,26.500,21.500,16.000
2.800,-5.000,26.500,21.000,15.500
2.801,-4.500,26.000,20.000,15.000
2.802,-4.500,26.000,19.500,14.500
2.803,-4.000,25.500,18.500,14.000
2.804,-4.500,25.500,18.000,14.000
2.805,-4.500,25.000,17.000,13.500
2.806,-5.000,25.000,17.000,13.500
2.807,-5.000,25.000,16.000,13.000
2.808,-5.000,25.500,16.000,13.000
2.809,-5.000,25.500,15.500,12.500
2.810,-5.500,26.000,15.000,12.500
2.811,-5.500,26.000,14.500,12.000
2.812,-6.000,26.500,14.500,12.500
2.813,-6.000,27.000,14.500,12.500
2.814,-6.500,27.500,14.500,13.000
2.815,-6.500,28.000,14.000,13.000
2.816,-6.500,28.500,14.000,13.000
2.817,-6.500,28.500,14.000,12.500
2.818,-6.500,28.500,14.000,12.500
2.819,-6.500,28.000,13.000,11.500
2.820,-7.000,28.000,12.500,11.000
2.821,-7.000,27.000,11.000,10.500
2.822,-7.000,26.000,10.500,10.000
2.823,-7.000,25.000,9.500,9.500
2.824,-7.500,24.000,8.500,9.000
2.825,-7.500,22.500,8.000,8.500
2.826,-7.500,22.000,8.000,8.500
2.827,-7.500,21.000,7.500,8.500
2.828,-8.000,20.500,8.000,9.000
2.829,-8.000,20.000,8.000,9.000
2.830,-8.000,20.500,8.500,9.000
2.831,-8.000,20.500,8.500,9.000
2.832,-8.500,21.500,9.500,9.000
2.833,-8.500,22.000,10.000,9.000
2.834,-9.000,23.000,11.000,9.500
2.835,-9.000,23.500,11.000,9.500
2.836,-9.000,24.500,11.500,10.000
2.837,-9.000,25.000,11.500,10.000
2.838,-9.000,25.500,11.500,10.500
2.839,-8.500,25.500,11.000,10.000
2.840,-9.000,25.500,11.000,9.500
2.841,-8.500,25.000,10.500,9.000
2.842,-8.500,24.500,10.000,8.500
2.843,-8.000,23.500,9.500,8.000
2.844,-8.000,22.500,9.000,8.000
2.845,-8.000,21.500,8.500,7.500
2.846,-8.000,21.000,8.000,7.000
2.847,-7.500,20.500,7.500,7.000
2.848,-8.000,20.000,7.500,7.000
2.849,-8.000,19.500,7.000,7.000
2.850,-8.000,19.500,7.000,7.500
2.851,-8.500,19.500,7.000,7.500
2.852,-8.500,20.000,7.000,8.500
2.853,-8.500,20.500,7.000,9.000
2.854,-8.500,21.500,7.500,9.500
2.855,-8.500,22.500,8.000,10.000
2.856,-8.500,23.500,8.500,10.500
2.857,-8.000,24.000,9.000,11.000
2.858,-8.000,24.500,9.000,11.000
2.859,-8.000,24.500,9.000,11.000
2.860,-8.000,24.500,9.000,11.500
2.861,-7.500,24.000,8.500,11.000
2.862,-7.500,23.500,8.000,11.000
2.863,-7.000,22.500,7.500,11.000
2.864,-7.000,22.500,7.500,11.500
2.865,-6.500,22.000,7.500,11.500
2.866,-7.000,22.000,8.000,12.000
2.867,-7.000,22.000,8.500,12.000
2.868,-7.000,22.500,9.500,13.000
2.869,-7.000,22.500,10.000,13.500
2.870,-7.500,23.500,11.000,14.000
2.871,-7.500,24.000,11.500,15.000
2.872,-8.000,25.000,12.000,16.000
2.873,-8.000,26.000,12.500,16.500
2.874,-8.000,27.000,13.000,17.500
2.875,-7.500,28.000,13.500,18.000
2.876,-7.500,29.000,14.500,19.000
2.877,-7.000,29.500,15.500,20.000
2.878,-7.000,30.000,16.500,20.500
2.879,-6.500,30.000,17.500,21.000
2.880,-6.500,30.000,18.000,21.500
2.881,-6.000,29.500,18.500,22.000
2.882,-5.500,29.500,19.000,22.500
2.883,-5.000,28.500,19.500,23.000
2.884,-5.000,28.000,19.500,23.000
2.885,-4.500,27.500,19.500,23.000
2.886,-4.500,27.500,19.500,23.500
2.887,-4.500,27.000,19.500,23.500
2.888,-5.000,27.500,20.000,24.000
2.889,-5.000,27.500,20.500,24.000
2.890,-5.500,28.500,21.500,24.500
2.891,-5.500,29.000,22.000,25.000
2.892,-6.000,30.000,23.000,25.500
2.893,-6.000,31.000,24.000,25.500
2.894,-6.000,32.500,25.000,26.500
2.895,-6.000,33.500,26.000,26.500
2.896,-6.000,34.500,27.000,27.500
2.897,-6.000,35.000,27.500,27.500
2.898,-5.500,36.000,28.500,28.000
2.899,-5.000,36.000,28.500,28.000
2.900,-5.000,36.000,29.000,28.000
2.901,-5.000,35.000,28.500,27.500
2.902,-5.000,34.500,28.500,27.500
2.903,-5.000,33.500,28.000,26.500
2.904,-5.000,33.000,27.500,26.000
2.905,-5.000,32.500,27.000,25.500
2.906,-5.000,32.500,27.000,25.000
2.907,-5.000,32.000,26.500,24.500
2.908,-5.000,32.500,26.500,24.500
2.909,-5.000,32.500,26.500,24.000
2.910,-5.500,33.000,26.500,24.500
2.911,-5.500,33.500,26.000,24.500
2.912,-6.000,34.500,26.500,25.000
2.913,-6.000,35.000,27.000,25.000
2.914,-6.000,36.000,28.000,25.500
2.915,-5.500,36.500,28.500,26.000
2.916,-5.500,37.000,29.000,26.000
2.917,-5.000,37.500,29.500,26.000
2.918,-4.500,37.500,30.000,26.500
2.919,-4.000,37.500,29.500,26.000
2.920,-4.000,37.500,29.500,25.500
2.921,-4.000,37.000,28.500,25.000
2.922,-4.000,36.500,28.000,24.500
2.923,-4.000,35.500,27.500,23.500
2.924,-4.000,35.000,27.000,23.500
2.925,-4.500,34.000,26.500,23.000
2.926,-4.500,33.500,26.000,22.500
2.927,-4.500,33.000,26.000,22.500
2.928,-5.000,33.500,26.000,22.500
2.929,-5.000,33.500,26.000,22.000
2.930,-5.000,34.000,26.500,22.000
2.931,-5.000,34.000,26.500,22.000
2.932,-5.500,34.500,26.500,22.500
2.933,-6.000,35.000,27.000,22.500
2.934,-6.500,36.000,27.500,23.000
2.935,-6.500,36.500,27.500,23.000
2.936,-6.500,37.500,28.000,24.000
2.937,-6.000,37.500,28.000,24.000
2.938,-6.000,38.000,28.000,24.000
2.939,-5.500,38.000,27.500,24.000
2.940,-5.500,38.000,27.500,23.500
2.941,-5.500,37.000,26.500,23.000
2.942,-5.500,36.500,26.000,22.500
2.943,-5.000,35.000,25.500,22.000
2.944,-5.000,34.000,25.000,21.500
2.945,-5.000,33.000,24.500,21.000
2.946,-5.000,32.500,24.500,21.000
2.947,-5.000,31.500,24.500,21.000
2.948,-5.000,31.500,25.000,21.000
2.949,-5.000,31.000,25.000,21.000
2.950,-5.500,31.500,25.500,21.500
2.951,-5.500,31.500,26.000,21.500
2.952,-6.000,32.000,26.500,22.000
2.953,-6.000,32.500,27.000,22.500
2.954,-6.000,33.500,27.500,22.500
2.955,-6.000,34.000,28.000,22.500
2.956,-6.500,35.000,28.000,22.500
2.957,-6.500,35.000,28.000,22.500
2.958,-6.500,35.500,28.500,22.500
2.959,-6.500,35.500,28.000,22.000
2.960,-6.500,35.500,27.500,22.000
2.961,-6.000,35.000,27.000,21.500
2.962,-6.000,34.000,26.500,21.500
2.963,-5.500,33.000,25.500,21.000
2.964,-5.000,32.000,25.000,21.000
2.965,-5.000,30.500,24.000,20.500
2.966,-5.000,30.000,23.500,20.500
2.967,-5.000,29.500,23.000,20.500
2.968,-5.000,29.500,22.500,20.000
2.969,-5.000,29.500,22.500,20.000
2.970,-5.500,30.000,22.500,20.000
2.971,-5.000,30.500,23.000,20.000
2.972,-5.500,31.000,23.500,20.000
2.973,-5.500,32.000,24.000,20.500
2.974,-5.500,33.000,25.000,21.000
2.975,-5.500,33.500,25.500,21.000
2.976,-6.000,34.500,26.500,21.500
2.977,-6.000,34.500,26.500,22.000
2.978,-6.000,35.000,27.000,22.000
2.979,-5.500,35.000,27.500,22.000
2.980,-5.500,35.000,27.500,22.000
2.981,-5.000,34.000,27.500,21.500
2.982,-5.000,33.500,27.000,21.000
2.983,-4.500,32.500,26.500,20.500
2.984,-4.500,32.000,26.000,20.500
2.985,-4.500,31.500,25.000,20.500
2.986,-4.500,31.000,24.500,20.500
2.987,-4.500,30.500,24.000,20.500
2.988,-5.000,30.500,24.000,20.500
2.989,-5.000,30.500,24.000,20.500
2.990,-5.000,31.000,24.500,21.000
2.991,-5.000,31.500,25.000,21.000
2.992,-5.000,32.000,25.500,21.000
2.993,-5.000,32.500,26.000,21.000
2.994,-5.500,33.000,26.000,21.000
2.995,-5.500,33.000,26.000,21.000
2.996,-6.000,33.000,26.000,21.500
2.997,-5.500,32.500,26.000,21.500
2.998,-5.500,32.500,26.000,21.500
2.999,-5.500,32.500,25.500,21.500
3.000,-5.000,32.500,25.500,21.500
3.001,-4.500,32.000,25.000,21.000
3.002,-4.500,32.000,24.500,21.000
3.003,-4.500,31.500,24.000,20.500
3.004,-4.500,31.500,24.000,20.500
3.005,-4.500,31.500,23.500,20.000
3.006,-5.000,31.500,23.500,20.000
3.007,-5.000,31.500,23.000,19.500
3.008,-5.500,31.500,23.000,20.000
3.009,-5.500,31.500,23.000,20.000
3.010,-6.000,32.000,23.000,20.500
3.011,-6.000,32.000,23.500,21.000
3.012,-6.500,32.500,24.000,21.500
3.013,-6.500,32.500,24.500,22.000
3.014,-7.000,33.000,25.000,22.500
3.015,-7.500,33.500,25.500,22.500
3.016,-7.500,34.000,26.500,22.500
3.017,-7.500,34.500,26.500,22.000
3.018,-7.500,35.500,27.000,22.500
3.019,-7.500,35.500,27.000,22.000
3.020,-8.000,36.000,27.000,22.000
3.021,-8.000,36.000,26.500,21.500
3.022,-8.000,36.000,26.000,21.000
3.023,-8.000,35.500,25.500,20.500
3.024,-8.000,35.000,25.000,20.500
3.025,-7.500,34.000,24.500,20.500
3.026,-7.500,33.500,24.000,20.500
3.027,-7.000,33.000,24.000,20.000
3.028,-7.000,32.500,24.000,20.500
3.029,-7.000,32.000,24.500,20.500
3.030,-7.500,32.500,25.000,20.500
3.031,-7.500,32.500,25.000,21.000
3.032,-7.500,33.000,26.000,21.500
3.033,-7.000,33.000,26.500,21.500
3.034,-7.500,33.500,27.000,22.500
3.035,-7.500,34.000,27.500,22.500
3.036,-7.500,34.500,28.000,23.000
3.037,-7.000,34.500,28.000,23.000
3.038,-7.500,35.000,27.500,23.500
3.039,-7.500,35.000,27.000,23.500
3.040,-7.500,35.000,26.500,23.500
3.041,-7.500,34.500,25.500,23.000
3.042,-8.000,34.000,25.500,23.000
3.043,-8.000,33.500,25.000,22.500
3.044,-8.000,33.000,25.000,22.000
3.045,-8.000,32.500,24.500,21.500
3.046,-8.000,32.500,25.000,21.000
3.047,-7.500,32.000,25.000,20.500
3.048,-8.000,32.500,25.000,20.500
3.049,-8.000,32.500,25.000,20.500
3.050,-8.000,33.000,25.500,20.500
3.051,-8.500,33.500,26.000,20.500
3.052,-9.000,34.000,26.500,21.000
3.053,-9.000,34.500,27.000,21.500
3.054,-9.000,35.000,27.500,22.000
3.055,-9.000,35.500,28.000,22.000
3.056,-8.500,36.000,29.000,22.500
3.057,-8.000,36.000,30.000,22.500
3.058,-8.000,36.500,31.000,23.000
3.059,-7.500,36.500,31.000,23.000
3.060,-7.500,36.500,31.500,23.000
3.061,-7.500,36.000,31.000,22.500
3.062,-7.500,35.500,30.500,22.500
3.063,-7.500,34.000,29.500,22.000
3.064,-7.500,33.000,29.000,21.500
3.065,-7.500,31.500,28.000,21.000
3.066,-7.500,31.000,27.500,21.000
3.067,-7.500,30.000,27.000,20.500
3.068,-8.000,30.000,26.500,20.500
3.069,-8.000,30.000,26.500,20.000
3.070,-8.500,30.500,26.500,20.000
3.071,-8.500,30.500,27.000,20.000
3.072,-9.000,31.500,27.500,20.000
3.073,-9.000,31.500,27.500,20.000
3.074,-9.500,32.000,28.000,20.500
3.075,-9.500,31.500,27.500,20.000
3.076,-9.500,32.000,27.500,20.000
3.077,-9.500,32.000,27.000,20.000
3.078,-9.500,32.000,27.000,20.000
3.079,-9.000,32.000,26.000,19.500
3.080,-9.000,32.000,26.000,19.500
3.081,-8.500,31.500,25.500,19.000
3.082,-8.500,31.000,25.000,18.500
3.083,-8.000,30.000,24.500,18.000
3.084,-8.000,29.000,24.500,18.000
3.085,-8.000,27.500,24.000,17.500
3.086,-8.000,27.000,24.000,17.500
3.087,-8.000,26.500,24.000,17.500
3.088,-8.000,26.500,24.000,17.500
3.089,-8.500,26.500,24.000,17.500
3.090,-8.500,27.000,24.000,18.000
3.091,-8.500,27.500,24.500,18.000
3.092,-9.000,28.500,25.000,18.000
3.093,-8.500,29.000,25.500,18.000
3.094,-8.500,29.500,26.500,18.500
3.095,-8.000,30.000,26.500,18.500
3.096,-8.000,30.500,27.000,18.500
3.097,-8.000,30.500,27.000,18.000
3.098,-7.500,31.000,27.500,18.000
3.099,-7.000,30.500,27.000,17.500
3.100,-7.000,30.500,26.500,17.500
3.101,-6.500,30.000,26.000,17.000
3.102,-6.500,29.500,25.500,17.000
3.103,-6.000,28.500,25.000,16.000
3.104,-6.000,28.000,24.500,16.000
3.105,-6.000,27.000,23.500,15.500
3.106,-6.000,26.500,23.000,15.000
3.107,-5.500,26.000,22.000,15.000
3.108,-5.500,26.000,21.500,15.000
3.109,-5.500,25.500,21.000,14.500
3.110,-6.000,25.500,21.000,15.000
3.111,-6.000,25.500,20.500,15.000
3.112,-6.000,26.500,21.000,15.000
3.113,-6.000,27.000,21.000,15.000
3.114,-6.500,27.500,21.500,15.500
3.115,-6.500,28.000,21.500,15.500
3.116,-6.500,29.000,22.000,16.000
3.117,-6.500,29.000,22.000,16.000
3.118,-6.500,29.500,22.500,16.500
3.119,-6.500,29.000,22.500,16.500
3.120,-6.000,29.000,22.500,16.500
3.121,-5.500,28.500,22.000,16.500
3.122,-5.500,28.500,21.500,16.500
3.123,-5.500,27.500,21.000,16.000
3.124,-5.500,26.500,21.000,15.500
3.125,-5.500,26.000,20.500,15.000
3.126,-5.500,25.500,20.500,15.000
3.127,-5.500,25.000,20.500,14.500
3.128,-6.000,24.500,20.500,14.500
3.129,-6.000,24.500,20.500,14.500
3.130,-6.000,24.500,20.500,14.500
3.131,-6.000,24.500,20.000,14.000
3.132,-6.500,25.000,20.000,14.500
3.133,-7.000,25.500,20.000,14.500
3.134,-7.000,26.500,20.500,15.000
3.135,-7.000,27.000,21.000,15.000
3.136,-7.000,27.500,21.500,15.000
3.137,-7.000,28.000,22.000,15.000
3.138,-7.000,28.500,22.500,15.000
3.139,-7.000,28.500,22.500,14.500
3.140,-6.500,28.500,22.500,14.500
3.141,-6.000,28.000,22.000,14.000
3.142,-6.000,27.500,22.000,14.000
3.143,-5.500,26.500,21.500,14.000
3.144,-5.500,25.500,21.500,14.000
3.145,-5.000,25.000,21.000,13.500
3.146,-5.500,24.500,21.000,13.500
3.147,-5.500,24.500,20.500,13.500
3.148,-5.500,24.500,21.000,13.500
3.149,-5.500,25.000,21.000,14.000
3.150,-6.000,25.500,22.000,14.500
3.151,-6.500,26.000,22.500,15.000
3.152,-6.500,26.500,24.000,16.000
3.153,-6.500,27.500,25.500,17.000
3.154,-6.500,28.500,27.000,18.500
3.155,-6.500,29.000,28.500,19.500
3.156,-6.500,30.500,29.500,20.500
3.157,-6.500,31.500,30.000,21.500
3.158,-6.500,32.500,30.500,22.000
3.159,-6.500,33.000,30.000,22.000
3.160,-6.500,33.500,29.000,21.500
3.161,-6.000,33.000,28.000,21.000
3.162,-6.000,32.500,27.000,20.000
3.163,-5.500,31.500,25.500,19.000
3.164,-5.500,30.000,24.000,18.000
3.165,-5.500,28.500,22.500,17.000
3.166,-6.000,27.000,21.000,15.500
3.167,-6.000,25.000,19.000,14.500
3.168,-6.500,23.500,18.000,13.500
3.169,-6.500,22.500,16.500,12.500
3.170,-7.000,21.500,15.500,12.000
3.171,-7.500,21.000,14.500,11.500
3.172,-8.500,21.000,14.500,11.000
3.173,-9.000,20.500,14.500,11.000
3.174,-9.500,21.000,15.000,11.000
3.175,-9.500,21.000,15.000,11.000
3.176,-10.000,21.500,16.000,11.500
3.177,-10.000,21.500,16.500,11.500
3.178,-9.500,22.000,17.500,12.000
3.179,-9.000,22.000,18.000,12.000
3.180,-8.500,22.000,18.500,13.000
3.181,-7.500,22.000,19.000,13.500
3.182,-7.000,22.000,19.000,14.500
3.183,-6.500,21.500,19.000,15.000
3.184,-6.500,21.000,19.000,15.500
3.185,-6.000,20.500,19.000,15.500
3.186,-6.000,20.500,19.500,16.000
3.187,-6.000,20.000,20.000,16.000
3.188,-6.000,20.500,21.500,16.500
3.189,-6.000,20.500,22.500,16.500
3.190,-6.000,21.500,23.500,17.000
3.191,-6.000,22.500,24.000,17.000
3.192,-6.000,23.500,24.500,17.500
3.193,-6.000,24.500,25.000,18.000
3.194,-6.500,26.000,25.500,18.500
3.195,-6.500,27.000,26.000,19.000
3.196,-6.500,28.500,26.000,19.000
3.197,-6.500,29.000,26.000,19.000
3.198,-6.500,29.500,26.000,19.500
3.199,-6.000,29.500,26.000,19.500
3.200,-6.000,30.000,26.000,19.500
3.201,-5.500,29.500,25.500,19.000
3.202,-5.500,29.000,25.500,19.000
3.203,-5.000,28.000,25.000,18.500
3.204,-5.000,27.500,24.500,18.500
3.205,-5.000,26.500,23.500,18.000
3.206,-5.000,26.000,23.500,17.500
3.207,-5.000,25.000,22.500,17.500
3.208,-5.500,25.000,22.500,17.500
3.209,-5.500,24.500,22.000,17.500
3.210,-6.000,24.500,21.500,17.500
3.211,-6.000,24.500,21.500,17.500
3.212,-6.500,24.500,21.500,17.500
3.213,-6.500,24.500,21.000,17.500
3.214,-7.000,25.500,21.000,17.500
3.215,-7.000,26.000,20.500,17.500
3.216,-7.500,27.000,20.500,18.000
3.217,-7.000,27.000,20.500,18.000
3.218,-7.000,27.500,20.500,18.500
3.219,-7.000,27.500,20.000,18.000
3.220,-6.500,27.500,19.500,18.000
3.221,-6.000,26.500,19.000,17.500
3.222,-6.000,26.000,18.500,17.500
3.223,-6.000,25.000,18.000,16.500
3.224,-6.000,24.500,17.500,16.000
3.225,-6.000,23.500,17.000,15.500
3.226,-6.500,23.000,17.000,15.000
3.227,-6.500,22.000,16.500,14.500
3.228,-6.500,21.500,16.500,14.500
3.229,-6.500,21.000,16.500,14.500
3.230,-6.500,21.000,17.000,14.500
3.231,-6.500,21.000,17.000,14.500
3.232,-7.000,22.000,17.500,14.500
3.233,-7.500,22.500,18.000,14.500
3.234,-7.500,24.000,18.500,14.500
3.235,-7.500,25.000,19.000,14.500
3.236,-8.000,26.000,19.000,14.500
3.237,-7.500,26.500,19.000,14.500
3.238,-7.500,27.500,18.500,14.500
3.239,-7.000,27.500,18.000,14.500
3.240,-7.000,27.000,17.500,14.000
3.241,-7.000,26.000,17.000,13.500
3.242,-7.000,25.000,17.500,13.000
3.243,-6.500,24.000,17.500,12.500
3.244,-6.500,23.000,17.500,12.500
3.245,-6.500,22.000,17.500,12.500
3.246,-6.500,21.500,18.000,12.500
3.247,-6.500,21.000,18.000,12.500
3.248,-6.500,21.500,18.000,13.000
3.249,-7.000,21.500,17.500,13.000
3.250,-7.500,22.500,18.000,13.000
3.251,-7.500,23.000,18.000,13.500
3.252,-8.000,24.500,19.000,14.000
3.253,-8.000,26.000,19.500,14.000
3.254,-8.000,27.500,21.000,14.500
3.255,-8.000,28.500,22.000,15.000
3.256,-8.000,29.500,23.500,15.500
3.257,-7.500,30.000,24.000,15.500
3.258,-8.000,30.500,24.000,15.500
3.259,-8.000,30.000,24.000,15.000
3.260,-8.000,29.500,23.500,15.000
3.261,-7.500,28.500,22.500,14.500
3.262,-7.500,28.000,21.500,14.000
3.263,-7.000,27.000,21.000,13.500
3.264,-6.500,26.500,20.500,13.000
3.265,-6.000,25.500,19.500,12.500
3.266,-6.000,25.000,19.500,12.500
3.267,-6.000,24.500,19.000,12.500
3.268,-6.000,24.500,19.000,13.000
3.269,-6.000,24.000,19.000,13.000
3.270,-6.500,24.500,19.500,14.000
3.271,-6.500,25.000,20.000,14.000
3.272,-7.000,26.000,21.000,15.000
3.273,-7.000,27.000,21.500,15.500
3.274,-7.000,28.000,22.000,16.000
3.275,-7.000,28.500,22.000,16.000
3.276,-7.000,29.000,22.000,16.000
3.277,-7.000,29.500,22.000,15.500
3.278,-7.000,30.000,22.000,15.500
3.279,-7.000,29.500,21.000,15.000
3.280,-6.500,29.500,20.500,15.000
3.281,-6.000,28.500,20.000,14.500
3.282,-6.000,28.000,19.500,14.000
3.283,-5.500,27.000,19.000,13.500
3.284,-5.500,26.000,19.000,13.500
3.285,-5.000,25.000,18.500,13.000
3.286,-5.500,25.000,19.000,13.000
3.287,-5.500,24.500,18.500,13.000
3.288,-5.500,24.500,19.000,13.000
3.289,-5.500,24.000,19.000,12.500
3.290,-6.000,24.500,19.000,12.500
3.291,-6.000,24.500,19.500,12.500
3.292,-6.000,25.000,20.000,13.000
3.293,-6.000,25.000,20.500,13.000
3.294,-6.500,26.000,21.000,13.500
3.295,-6.500,26.500,21.500,14.000
3.296,-6.500,27.000,22.000,14.500
3.297,-6.000,27.000,22.000,15.000
3.298,-6.000,27.000,22.500,16.000
3.299,-6.000,27.000,22.500,16.500
3.300,-5.500,26.500,23.000,17.500
3.301,-5.000,26.000,23.000,18.500
3.302,-5.000,25.500,23.500,20.000
3.303,-5.000,24.500,24.500,21.500
3.304,-5.000,24.000,25.500,23.000
3.305,-5.000,23.500,26.500,25.000
3.306,-5.500,23.000,27.500,27.000
3.307,-5.500,22.500,28.000,28.500
3.308,-6.000,22.500,28.500,30.500
3.309,-6.500,22.500,28.500,31.500
3.310,-7.000,22.000,28.000,33.000
3.311,-7.000,22.000,27.500,34.500
3.312,-8.000,22.000,26.500,36.000
3.313,-8.500,21.500,25.500,37.000
3.314,-9.000,21.500,24.500,38.000
3.315,-9.500,21.000,23.500,39.000
3.316,-10.000,20.000,22.000,39.500
3.317,-10.500,18.500,20.500,39.500
3.318,-11.000,17.000,18.500,39.000
3.319,-11.500,15.000,16.000,38.000
3.320,-12.000,13.000,13.000,36.500
3.321,-12.500,10.500,9.000,34.500
3.322,-13.500,8.500,5.500,32.500
3.323,-14.000,6.000,1.000,29.500
3.324,-14.500,4.000,-3.500,27.000
3.325,-15.000,2.000,-8.500,23.000
3.326,-16.000,-0.500,-13.500,19.000
3.327,-16.500,-3.000,-18.000,13.500
3.328,-17.000,-5.500,-23.000,8.000
3.329,-17.000,-7.500,-27.500,1.000
3.330,-17.500,-9.500,-32.000,-6.500
3.331,-17.500,-11.000,-36.500,-14.500
3.332,-18.000,-12.000,-41.500,-22.500
3.333,-18.500,-13.000,-46.000,-30.000
3.334,-19.000,-13.500,-51.000,-37.500
3.335,-19.000,-13.500,-55.000,-44.000
3.336,-19.000,-13.500,-58.000,-49.500
3.337,-18.500,-13.000,-60.000,-53.500
3.338,-18.000,-12.000,-60.500,-57.000
3.339,-17.000,-10.500,-59.500,-58.500
3.340,-16.000,-9.000,-58.000,-59.500
3.341,-15.000,-7.000,-55.000,-59.500
3.342,-14.500,-5.000,-51.000,-58.500
3.343,-13.500,-2.500,-47.000,-57.000
3.344,-12.500,-1.000,-42.500,-55.500
3.345,-11.500,1.000,-37.500,-53.000
3.346,-11.000,3.000,-33.000,-50.500
3.347,-10.500,5.000,-28.500,-47.500
3.348,-10.000,6.500,-24.000,-44.500
3.349,-9.000,8.500,-20.000,-41.000
3.350,-8.500,10.500,-16.000,-38.000
3.351,-7.500,12.500,-12.000,-35.000
3.352,-7.000,14.500,-8.500,-32.500
3.353,-6.500,16.500,-5.000,-30.000
3.354,-6.000,18.500,-2.000,-28.500
3.355,-5.500,20.000,1.500,-26.500
3.356,-5.500,21.000,5.000,-24.500
3.357,-5.000,22.000,8.000,-22.500
3.358,-5.000,22.500,10.500,-21.000
3.359,-4.500,23.000,12.500,-19.000
3.360,-4.000,23.000,13.500,-17.500
3.361,-3.500,23.000,14.000,-16.000
3.362,-3.000,23.000,13.500,-14.500
3.363,-3.000,22.000,13.000,-13.500
3.364,-3.000,22.000,13.000,-12.000
3.365,-3.000,21.500,12.500,-10.500
3.366,-3.000,21.500,13.000,-9.000
3.367,-3.500,21.000,13.000,-7.500
3.368,-3.500,21.000,13.500,-5.500
3.369,-3.500,20.500,14.000,-3.500
3.370,-4.000,20.500,14.500,-2.000
3.371,-4.000,20.000,15.000,-0.500
3.372,-4.500,20.000,16.000,1.000
3.373,-5.000,20.000,16.500,2.000
3.374,-5.000,20.500,17.000,3.000
3.375,-5.000,20.500,17.500,4.000
3.376,-5.500,21.000,18.000,5.000
3.377,-5.500,21.500,18.500,5.500
3.378,-5.500,21.500,18.500,6.000
3.379,-5.000,21.500,18.500,6.500
3.380,-5.000,21.500,18.500,6.500
3.381,-4.500,21.000,18.000,6.500
3.382,-4.500,21.000,17.500,7.000
3.383,-4.500,20.000,16.500,6.500
3.384,-4.500,19.500,16.000,6.500
3.385,-4.500,18.500,15.500,6.000
3.386,-5.000,18.000,15.000,6.000
3.387,-5.000,17.000,14.500,5.500
3.388,-5.000,17.000,14.500,5.500
3.389,-5.500,16.500,14.500,5.500
3.390,-5.500,17.000,15.000,5.500
3.391,-5.500,17.000,15.500,6.000
3.392,-6.000,18.000,16.000,6.500
3.393,-6.000,18.500,16.500,7.000
3.394,-6.000,20.000,17.500,7.500
3.395,-6.000,21.000,18.000,8.000
3.396,-6.000,22.000,18.500,8.500
3.397,-5.500,22.500,18.500,9.000
3.398,-5.500,23.500,18.500,9.000
3.399,-5.500,23.500,18.000,9.000
3.400,-5.000,24.000,17.500,9.000
3.401,-4.500,23.500,17.000,8.500
3.402,-4.500,23.000,16.500,8.500
3.403,-4.500,22.000,16.000,8.000
3.404,-4.500,21.000,16.000,7.500
3.405,-4.500,20.000,15.500,7.000
3.406,-5.000,19.000,15.000,7.000
3.407,-4.500,18.500,15.000,6.500
3.408,-4.500,18.000,15.000,6.500
3.409,-4.500,18.000,14.500,6.500
3.410,-4.500,18.000,15.000,6.500
3.411,-4.500,18.500,15.000,7.000
3.412,-4.500,19.000,15.000,7.000
3.413,-4.500,19.500,15.500,7.000
3.414,-5.000,20.500,16.000,7.500
3.415,-5.500,21.000,16.000,8.000
3.416,-5.500,22.500,17.000,8.500
3.417,-5.500,23.000,17.000,8.500
3.418,-5.500,24.000,17.500,9.000
3.419,-5.500,24.000,17.500,9.000
3.420,-5.000,24.000,17.500,9.000
