'Elapsed time','AECG1','AECG2','AECG3','AECG4'
'seconds','uV','uV','uV','uV'
0.000,355.000,162.000,406.500,387.000
0.001,355.000,162.000,406.500,386.500
0.002,355.500,162.000,406.500,387.000
0.003,355.500,162.000,406.500,387.000
0.004,356.000,162.500,406.500,387.000
0.005,357.000,162.500,406.500,387.000
0.006,357.500,162.500,406.500,386.500
0.007,357.500,163.000,407.000,387.000
0.008,358.000,163.000,407.000,387.000
0.009,357.500,163.000,407.000,387.500
0.010,357.500,163.000,406.500,387.500
0.011,357.000,162.500,406.500,387.500
0.012,357.000,162.000,406.000,387.500
0.013,356.500,162.000,405.500,388.000
0.014,356.000,162.000,405.000,388.000
0.015,355.500,161.500,405.000,388.500
0.016,355.500,161.500,405.000,389.000
0.017,355.000,162.000,405.000,389.000
0.018,355.000,162.000,405.000,389.000
0.019,355.000,162.500,405.000,389.500
0.020,355.000,162.500,405.500,389.500
0.021,355.000,163.000,405.500,389.500
0.022,355.500,163.500,406.000,389.500
0.023,356.000,163.500,406.500,390.000
0.024,356.500,164.000,406.500,390.000
0.025,357.000,164.000,407.000,390.000
0.026,357.500,164.000,407.000,390.000
0.027,358.000,164.000,407.000,390.000
0.028,358.000,164.000,406.500,390.000
0.029,358.000,163.500,405.500,389.500
0.030,357.500,162.500,405.000,389.000
0.031,357.000,162.000,404.000,388.000
0.032,356.500,161.500,402.500,387.500
0.033,356.000,161.000,401.500,386.500
0.034,355.000,160.500,400.500,386.000
0.035,354.500,160.500,400.000,385.500
0.036,354.000,161.000,400.000,385.500
0.037,354.000,161.000,399.500,385.500
0.038,353.500,161.000,399.500,385.500
0.039,353.500,161.000,399.500,385.500
0.040,353.500,161.000,400.000,385.500
0.041,353.500,161.000,400.000,385.500
0.042,354.000,161.000,400.500,385.500
0.043,354.500,161.500,401.000,386.000
0.044,355.500,162.000,402.000,386.000
0.045,356.000,162.500,402.500,386.500
0.046,356.500,162.500,403.000,387.000
0.047,356.500,162.500,403.000,387.000
0.048,357.000,162.000,403.000,387.000
0.049,356.500,161.500,402.000,386.500
0.050,356.500,160.500,401.000,386.000
0.051,356.000,159.500,400.500,385.500
0.052,356.000,159.000,399.500,385.000
0.053,356.000,159.000,399.000,385.000
0.054,356.000,159.000,399.000,385.000
0.055,356.000,159.000,399.000,385.500
0.056,356.000,159.000,398.500,385.500
0.057,355.500,159.000,398.500,385.500
0.058,355.500,159.000,398.500,385.500
0.059,355.500,159.000,398.500,385.500
0.060,355.500,159.500,398.500,386.000
0.061,355.500,160.000,399.000,386.000
0.062,356.000,160.500,399.500,386.000
0.063,356.500,161.500,399.500,386.000
0.064,357.500,162.500,400.000,386.000
0.065,358.000,163.000,399.500,386.000
0.066,359.000,163.500,399.500,386.500
0.067,359.500,163.500,398.500,386.500
0.068,359.500,163.000,398.000,386.500
0.069,359.000,162.500,397.500,386.500
0.070,359.000,162.000,397.000,386.500
0.071,358.500,161.500,396.000,386.000
0.072,358.000,161.000,396.000,386.000
0.073,357.500,161.000,396.000,386.000
0.074,357.000,161.000,396.000,386.000
0.075,356.500,161.500,396.500,386.500
0.076,356.500,161.500,396.500,386.500
0.077,356.500,162.000,396.500,386.500
0.078,356.500,162.000,396.000,386.000
0.079,357.000,162.000,395.500,386.000
0.080,357.500,162.000,395.000,385.500
0.081,357.500,162.000,395.000,385.500
0.082,358.000,162.000,394.500,385.500
0.083,358.500,162.000,395.000,386.000
0.084,359.000,162.000,395.000,386.500
0.085,359.000,162.000,395.500,386.500
0.086,359.500,162.000,395.500,386.500
0.087,360.000,162.000,395.500,386.000
0.088,360.000,161.500,395.000,386.000
0.089,360.000,161.500,394.500,385.500
0.090,360.000,161.000,394.000,385.000
0.091,360.000,161.500,393.500,385.000
0.092,359.500,161.500,393.500,385.000
0.093,359.000,161.500,393.500,385.000
0.094,358.500,162.000,394.000,385.500
0.095,358.000,162.000,394.000,385.500
0.096,357.500,162.000,394.000,386.000
0.097,357.500,162.000,394.000,386.000
0.098,357.500,162.000,393.500,386.000
0.099,357.500,162.000,393.500,386.000
0.100,357.500,162.000,394.000,386.500
0.101,357.500,162.500,394.500,386.500
0.102,358.000,162.500,395.000,387.000
0.103,358.500,163.000,395.500,387.500
0.104,359.000,163.500,395.500,387.500
0.105,359.000,164.000,396.000,388.000
0.106,359.500,164.000,396.000,388.000
0.107,360.000,164.500,396.000,388.000
0.108,360.500,164.500,396.500,388.500
0.109,360.500,165.000,396.500,388.500
0.110,360.500,165.000,396.500,388.500
0.111,360.000,164.500,396.000,388.000
0.112,359.500,164.500,396.000,387.500
0.113,359.000,164.500,395.500,387.000
0.114,358.000,164.000,395.000,387.000
0.115,357.500,163.500,394.500,386.500
0.116,357.000,163.500,394.500,386.000
0.117,357.000,163.000,394.000,386.000
0.118,356.500,163.000,394.000,386.000
0.119,357.000,163.500,394.500,386.000
0.120,357.000,164.000,395.000,386.500
0.121,357.500,164.500,395.000,387.000
0.122,358.000,165.000,396.000,387.500
0.123,358.500,165.500,396.500,387.500
0.124,359.000,166.500,397.000,388.000
0.125,359.000,167.000,397.500,388.000
0.126,359.500,168.000,398.000,388.500
0.127,359.500,168.500,398.000,388.000
0.128,359.000,168.500,398.000,388.000
0.129,359.000,168.500,398.000,387.500
0.130,359.000,168.000,397.000,387.000
0.131,359.000,167.500,396.500,386.500
0.132,359.000,167.000,395.000,386.000
0.133,358.500,166.500,394.500,385.500
0.134,358.000,165.500,393.500,385.000
0.135,357.500,165.000,393.000,385.000
0.136,357.500,165.000,393.000,385.500
0.137,357.500,164.500,392.500,385.500
0.138,357.500,164.500,392.500,386.000
0.139,357.500,164.500,392.500,386.000
0.140,357.500,164.000,392.500,386.000
0.141,357.500,164.000,392.500,386.500
0.142,358.000,164.000,393.000,387.000
0.143,358.500,164.000,393.500,387.000
0.144,359.000,164.500,393.500,387.500
0.145,359.500,165.000,393.500,387.500
0.146,360.500,165.500,393.500,387.500
0.147,361.000,166.500,394.000,387.500
0.148,361.500,167.000,394.000,387.500
0.149,362.000,167.500,394.500,388.000
0.150,362.500,167.500,395.000,388.000
0.151,362.000,167.000,395.000,388.000
0.152,361.500,166.500,394.500,388.000
0.153,361.000,166.000,394.500,388.000
0.154,360.500,165.500,394.000,388.500
0.155,360.500,165.000,394.000,389.000
0.156,360.000,165.000,394.000,389.500
0.157,360.500,165.500,394.000,390.000
0.158,360.500,166.000,394.000,390.000
0.159,361.000,166.500,393.500,390.000
0.160,361.000,167.000,394.000,390.000
0.161,361.500,167.500,394.000,389.500
0.162,361.500,168.000,394.500,389.500
0.163,362.000,168.500,395.500,390.000
0.164,362.500,169.000,396.000,390.000
0.165,362.500,169.500,396.500,390.500
0.166,362.500,169.500,397.000,390.500
0.167,363.000,169.500,396.500,390.500
0.168,363.000,169.500,396.500,390.000
0.169,362.500,169.500,396.000,390.000
0.170,362.500,169.500,395.500,389.500
0.171,362.000,169.500,396.000,389.500
0.172,361.500,169.500,396.000,389.500
0.173,360.500,169.000,395.500,389.500
0.174,360.000,168.500,394.500,388.500
0.175,359.000,168.000,393.500,388.000
0.176,359.000,167.500,392.000,387.000
0.177,358.500,167.000,391.500,387.000
0.178,358.500,166.500,391.500,387.500
0.179,358.500,166.500,391.500,387.500
0.180,359.000,166.500,391.500,388.000
0.181,359.000,166.000,391.500,388.000
0.182,359.500,166.000,391.500,388.000
0.183,360.000,166.000,391.500,387.500
0.184,360.500,166.000,391.500,387.000
0.185,361.000,166.500,392.000,387.000
0.186,361.500,167.000,393.000,387.500
0.187,362.000,167.500,393.500,388.000
0.188,362.500,168.500,394.500,388.000
0.189,362.000,169.000,395.000,388.000
0.190,362.000,169.000,395.500,388.000
0.191,361.500,169.500,395.500,388.500
0.192,361.000,169.000,395.500,388.500
0.193,360.500,169.000,395.000,388.500
0.194,360.000,168.500,394.000,388.500
0.195,359.500,167.500,393.000,388.500
0.196,359.500,167.000,392.000,388.000
0.197,359.000,166.000,391.500,388.000
0.198,359.000,165.500,391.000,388.000
0.199,359.500,165.500,391.000,388.500
0.200,359.500,165.500,391.500,389.000
0.201,360.000,166.000,392.500,389.500
0.202,360.500,166.500,393.000,389.500
0.203,361.000,167.000,393.500,389.500
0.204,362.000,167.000,393.000,389.500
0.205,362.500,167.500,393.000,389.000
0.206,362.500,168.000,393.000,388.500
0.207,362.500,168.000,393.000,388.500
0.208,362.500,168.500,393.500,388.500
0.209,362.000,168.500,393.500,388.500
0.210,361.500,168.500,393.500,389.000
0.211,361.000,168.500,393.500,389.000
0.212,360.500,168.500,393.500,389.000
0.213,360.000,168.000,393.000,389.000
0.214,359.500,168.000,392.500,388.500
0.215,359.000,167.500,392.000,388.500
0.216,359.000,167.000,391.500,388.000
0.217,359.000,167.000,391.500,388.500
0.218,359.500,167.000,391.500,389.000
0.219,359.500,167.000,392.000,389.500
0.220,360.000,167.500,392.500,390.500
0.221,360.500,167.500,393.500,391.500
0.222,361.000,168.000,394.500,392.500
0.223,361.000,168.000,395.000,393.000
0.224,361.500,168.500,396.000,393.500
0.225,362.000,168.500,396.500,394.000
0.226,362.500,169.000,397.000,394.500
0.227,363.500,169.500,397.000,395.000
0.228,363.500,170.000,397.500,395.500
0.229,364.000,170.500,397.500,396.000
0.230,364.500,170.500,397.000,396.000
0.231,364.000,171.000,396.500,395.500
0.232,364.000,170.500,395.500,395.000
0.233,363.500,170.500,395.000,394.000
0.234,363.500,170.000,394.000,393.500
0.235,363.000,169.500,393.500,392.500
0.236,363.000,169.500,392.500,392.000
0.237,363.000,169.000,392.500,391.500
0.238,363.000,168.500,392.000,391.500
0.239,363.000,168.500,392.000,391.500
0.240,363.000,168.000,392.000,391.500
0.241,363.000,168.000,392.000,392.000
0.242,363.000,168.000,392.500,392.000
0.243,363.500,168.000,392.500,392.500
0.244,364.000,168.500,393.000,392.500
0.245,364.500,169.000,393.500,392.500
0.246,365.000,169.500,394.000,392.500
0.247,366.000,170.500,394.000,392.500
0.248,366.000,170.500,394.500,393.000
0.249,366.000,170.500,395.000,393.000
0.250,366.000,170.500,395.000,392.500
0.251,365.500,170.000,394.500,392.500
0.252,365.000,170.000,394.500,392.000
0.253,364.500,170.000,394.000,392.000
0.254,364.000,169.500,394.000,392.000
0.255,363.500,170.000,394.000,392.500
0.256,363.500,170.000,393.500,392.500
0.257,363.000,170.500,393.500,392.500
0.258,363.000,170.500,393.500,392.500
0.259,363.000,171.000,394.000,393.000
0.260,363.000,171.500,394.000,393.500
0.261,363.000,171.500,394.500,394.000
0.262,363.500,172.000,395.000,394.500
0.263,364.000,172.000,395.500,394.500
0.264,364.000,172.500,395.500,394.500
0.265,364.500,172.000,395.500,394.500
0.266,364.500,172.000,395.000,394.000
0.267,365.000,171.500,395.000,394.000
0.268,365.000,171.500,395.500,394.500
0.269,365.000,171.500,395.500,395.000
0.270,364.500,171.000,395.500,395.000
0.271,364.000,170.500,395.500,395.500
0.272,364.000,170.500,395.500,395.500
0.273,363.500,170.000,395.000,395.000
0.274,363.000,169.500,394.000,394.500
0.275,363.000,169.500,394.000,394.000
0.276,363.000,169.500,393.500,393.500
0.277,363.000,169.500,393.000,393.000
0.278,363.500,169.500,392.000,392.500
0.279,363.500,170.000,392.000,392.500
0.280,363.500,170.500,392.000,393.000
0.281,364.000,171.000,393.000,394.000
0.282,364.000,172.000,394.000,395.000
0.283,364.500,173.000,395.000,396.000
0.284,365.500,173.500,396.000,397.000
0.285,365.500,174.500,396.500,397.500
0.286,366.000,175.000,397.000,397.500
0.287,366.500,175.000,397.500,397.500
0.288,367.000,175.000,397.000,397.500
0.289,367.000,174.500,397.000,397.000
0.290,366.500,174.500,396.500,396.500
0.291,366.000,174.000,396.000,396.000
0.292,365.500,174.000,395.500,395.500
0.293,365.000,174.000,395.000,395.500
0.294,364.000,174.000,395.000,395.500
0.295,363.500,173.500,394.500,395.000
0.296,363.500,173.500,393.500,394.500
0.297,363.500,173.000,393.000,394.500
0.298,363.500,172.500,392.500,394.000
0.299,363.500,172.500,392.000,393.500
0.300,364.000,173.000,392.500,393.500
0.301,365.000,173.500,393.000,394.000
0.302,366.000,174.500,394.000,394.500
0.303,367.000,175.500,395.000,395.000
0.304,368.000,176.500,395.500,395.500
0.305,368.500,176.500,395.500,395.500
0.306,369.000,176.500,395.000,395.500
0.307,369.500,176.000,394.500,395.500
0.308,369.500,175.000,394.000,395.500
0.309,369.000,174.000,393.000,395.500
0.310,368.000,173.500,392.500,395.500
0.311,367.500,173.000,392.000,395.500
0.312,367.000,173.000,392.000,395.500
0.313,366.500,173.000,391.500,395.000
0.314,366.000,173.000,391.000,395.000
0.315,365.500,173.000,391.000,394.500
0.316,365.000,173.000,390.500,394.000
0.317,365.000,173.500,390.000,393.500
0.318,365.000,173.500,390.000,394.000
0.319,365.000,174.500,390.500,394.500
0.320,365.500,175.000,391.500,395.500
0.321,366.500,176.000,392.500,396.500
0.322,367.000,177.000,393.500,397.500
0.323,367.500,177.500,394.500,398.500
0.324,368.000,177.500,395.000,399.000
0.325,368.500,177.500,395.000,399.500
0.326,368.500,177.000,395.000,399.500
0.327,368.500,177.000,395.000,399.000
0.328,368.000,176.500,394.500,398.500
0.329,368.000,176.000,394.000,398.000
0.330,368.000,175.500,394.000,397.500
0.331,367.500,175.500,393.500,397.500
0.332,367.500,175.500,393.000,397.000
0.333,367.500,175.500,392.500,397.000
0.334,367.000,175.500,392.000,396.500
0.335,367.000,175.500,391.500,396.000
0.336,366.500,175.500,391.500,396.000
0.337,366.000,175.000,391.000,395.500
0.338,366.000,175.000,391.000,395.500
0.339,366.000,175.000,390.500,395.500
0.340,366.000,175.000,390.500,395.500
0.341,366.500,175.500,390.500,395.500
0.342,366.500,176.000,391.000,396.000
0.343,367.000,176.500,392.000,396.500
0.344,367.500,177.000,392.500,397.000
0.345,368.000,177.500,393.000,397.500
0.346,368.000,178.000,393.500,398.000
0.347,368.000,178.000,393.500,398.000
0.348,368.000,178.500,394.000,398.500
0.349,367.500,178.500,394.000,398.500
0.350,367.500,178.500,394.000,398.500
0.351,367.000,178.500,394.000,398.500
0.352,366.500,178.000,393.500,398.500
0.353,366.500,177.500,393.000,398.000
0.354,366.000,177.000,392.500,397.000
0.355,365.500,176.000,391.500,396.000
0.356,365.500,175.000,390.500,395.000
0.357,365.000,174.500,390.000,394.000
0.358,364.500,174.500,389.000,393.500
0.359,364.500,174.000,389.000,393.000
0.360,364.000,174.000,388.500,393.000
0.361,364.000,173.500,388.500,393.000
0.362,364.500,173.500,388.500,393.000
0.363,364.500,173.500,388.500,393.000
0.364,364.500,174.000,388.500,393.000
0.365,365.000,174.000,388.500,393.500
0.366,365.000,174.500,389.000,393.500
0.367,365.500,175.000,389.500,394.000
0.368,365.500,175.500,389.500,394.000
0.369,365.500,175.500,389.500,394.000
0.370,365.000,175.000,389.000,394.000
0.371,364.000,174.500,388.500,393.500
0.372,363.000,174.000,388.500,394.000
0.373,362.000,173.500,388.500,394.500
0.374,361.000,173.500,389.000,395.500
0.375,360.000,173.500,389.500,396.500
0.376,359.500,174.000,390.000,398.000
0.377,359.500,175.000,391.000,399.500
0.378,359.500,175.500,391.500,401.000
0.379,360.000,176.500,392.500,402.500
0.380,360.500,178.000,394.000,404.500
0.381,361.500,179.000,396.000,406.500
0.382,362.500,181.000,398.500,409.000
0.383,364.000,182.500,401.000,411.500
0.384,365.500,184.500,403.500,413.500
0.385,367.000,186.000,405.000,415.000
0.386,369.000,187.000,406.000,416.000
0.387,370.500,188.500,407.500,417.000
0.388,372.500,189.000,408.500,418.000
0.389,373.500,190.000,409.500,418.500
0.390,375.000,190.500,410.500,419.000
0.391,375.500,190.500,411.000,419.500
0.392,375.500,191.000,411.000,419.500
0.393,376.000,191.000,410.500,419.000
0.394,376.000,191.000,410.000,418.000
0.395,376.000,191.500,409.500,417.500
0.396,376.500,192.000,409.500,417.000
0.397,376.500,193.000,409.000,416.500
0.398,377.000,193.500,409.000,415.500
0.399,377.000,194.000,408.500,414.500
0.400,378.000,194.500,408.000,414.000
0.401,378.500,195.000,408.000,413.000
0.402,379.500,195.500,408.000,412.500
0.403,380.000,195.500,408.000,412.000
0.404,381.000,196.000,408.000,412.000
0.405,382.000,196.000,408.000,411.500
0.406,382.500,196.500,408.500,411.500
0.407,383.000,196.000,408.500,411.000
0.408,383.000,195.500,408.000,410.000
0.409,382.500,195.000,407.000,409.000
0.410,381.500,193.500,406.000,408.500
0.411,380.500,192.500,404.500,407.500
0.412,379.500,191.000,403.000,406.500
0.413,378.500,189.500,401.500,406.000
0.414,377.500,188.000,400.000,405.500
0.415,376.000,187.000,399.000,405.000
0.416,375.000,186.000,398.500,404.500
0.417,374.500,185.000,397.500,404.000
0.418,373.500,184.500,397.000,403.500
0.419,373.500,184.000,396.500,403.000
0.420,373.000,184.000,396.500,402.500
0.421,373.000,184.000,396.500,402.500
0.422,373.000,184.000,397.000,402.500
0.423,373.000,184.500,398.000,403.000
0.424,373.000,184.500,398.500,403.500
0.425,373.500,185.000,399.000,404.000
0.426,373.500,185.000,399.000,403.500
0.427,373.500,185.000,399.000,403.000
0.428,373.500,184.500,398.000,402.000
0.429,373.000,184.000,397.000,401.500
0.430,373.000,183.000,396.500,400.500
0.431,372.500,182.500,396.000,400.500
0.432,372.000,182.000,396.000,400.500
0.433,371.500,182.000,396.000,400.500
0.434,371.000,181.500,396.000,400.500
0.435,370.500,181.500,396.000,400.500
0.436,370.000,182.000,396.000,401.000
0.437,370.000,182.000,396.000,401.000
0.438,369.500,182.500,396.000,401.000
0.439,369.500,182.500,396.000,401.500
0.440,369.500,183.000,396.500,401.500
0.441,370.000,183.500,396.500,402.000
0.442,370.500,184.000,397.000,402.500
0.443,371.000,185.000,397.500,403.000
0.444,371.500,185.500,398.000,403.500
0.445,372.500,186.000,398.000,403.500
0.446,373.000,186.000,397.500,403.000
0.447,373.000,186.000,397.500,403.000
0.448,373.000,185.500,397.000,402.500
0.449,373.000,185.000,396.500,402.000
0.450,372.500,184.500,396.000,401.500
0.451,372.500,184.000,395.500,401.000
0.452,372.000,184.000,395.000,400.500
0.453,372.000,184.000,394.500,400.500
0.454,371.500,184.000,394.500,400.500
0.455,371.500,184.000,394.500,401.000
0.456,372.000,184.000,394.500,401.000
0.457,372.000,184.500,394.500,401.000
0.458,372.000,184.000,395.000,401.500
0.459,372.500,184.000,395.000,402.000
0.460,372.500,184.000,395.500,402.500
0.461,373.000,184.000,396.000,403.000
0.462,373.000,184.000,396.500,403.500
0.463,374.000,184.500,397.000,404.500
0.464,374.500,185.000,397.500,405.000
0.465,375.000,185.500,398.000,405.500
0.466,375.500,186.500,399.000,406.000
0.467,376.000,187.500,399.000,406.500
0.468,376.000,188.000,399.500,406.500
0.469,376.500,188.500,399.500,406.500
0.470,376.000,188.500,399.000,406.000
0.471,376.000,188.000,398.500,405.500
0.472,375.500,188.000,398.000,405.000
0.473,375.000,187.500,397.500,405.000
0.474,374.500,187.000,397.500,405.000
0.475,373.500,187.000,397.500,405.500
0.476,373.000,187.000,397.500,405.500
0.477,373.000,187.000,397.000,405.000
0.478,373.000,187.000,396.500,405.000
0.479,373.000,187.500,396.500,404.500
0.480,373.500,188.000,397.000,405.000
0.481,374.000,188.500,397.500,405.500
0.482,374.500,189.000,398.500,406.000
0.483,375.000,190.000,399.500,407.000
0.484,376.000,190.500,400.000,407.500
0.485,376.500,190.500,400.500,408.000
0.486,377.000,191.000,400.500,408.000
0.487,377.500,191.000,400.000,407.500
0.488,377.500,191.000,399.500,407.000
0.489,377.000,190.500,399.000,406.000
0.490,376.500,190.000,398.500,405.500
0.491,376.500,190.000,398.000,404.500
0.492,376.000,189.500,397.500,404.000
0.493,375.500,189.000,397.000,403.500
0.494,375.500,189.000,396.500,403.500
0.495,375.500,189.000,396.500,403.500
0.496,375.500,189.000,397.000,404.000
0.497,375.500,189.000,397.000,404.000
0.498,375.500,189.000,397.500,405.000
0.499,375.500,189.500,398.000,405.500
0.500,375.500,189.500,398.500,405.500
0.501,375.500,189.000,399.000,406.000
0.502,376.000,189.000,399.000,406.500
0.503,376.500,189.500,399.500,407.000
0.504,377.000,189.500,400.000,407.500
0.505,377.500,190.000,400.500,408.000
0.506,377.500,191.000,401.500,408.500
0.507,377.500,191.500,402.000,409.000
0.508,377.500,192.000,402.500,409.500
0.509,377.500,192.500,403.000,409.500
0.510,377.000,192.500,403.000,409.500
0.511,376.500,192.500,402.500,409.500
0.512,376.000,192.500,402.500,409.000
0.513,375.500,192.500,402.500,408.500
0.514,375.000,192.500,402.500,408.500
0.515,374.500,193.000,402.500,408.500
0.516,374.500,193.000,402.000,408.500
0.517,374.500,193.000,401.500,408.500
0.518,374.500,192.500,401.000,408.500
0.519,374.500,192.500,400.000,408.000
0.520,374.500,192.000,399.000,407.500
0.521,375.000,191.500,398.500,407.000
0.522,375.000,191.000,398.000,407.000
0.523,375.500,191.000,398.500,407.000
0.524,375.500,191.500,399.000,407.500
0.525,375.500,192.000,399.500,407.500
0.526,375.500,192.500,400.000,408.000
0.527,376.000,193.000,401.000,408.500
0.528,376.000,193.500,401.500,408.500
0.529,376.000,194.000,402.000,408.500
0.530,375.500,194.500,402.000,408.500
0.531,375.500,194.500,402.000,408.500
0.532,375.000,194.000,402.000,408.500
0.533,374.500,194.000,402.000,408.500
0.534,374.000,194.000,402.000,408.500
0.535,373.500,194.000,402.000,409.500
0.536,373.500,193.500,402.500,410.000
0.537,373.500,193.500,403.000,410.500
0.538,374.000,193.000,403.000,411.000
0.539,374.000,192.000,403.000,411.500
0.540,374.000,191.500,403.000,411.500
0.541,374.000,190.500,403.000,411.500
0.542,374.000,190.500,403.500,412.000
0.543,374.000,190.500,403.500,412.000
0.544,374.500,191.000,404.000,412.000
0.545,374.500,192.000,404.000,412.000
0.546,375.000,193.000,404.500,412.000
0.547,375.000,193.500,405.000,412.000
0.548,375.000,194.500,405.000,411.500
0.549,375.000,195.000,405.500,411.500
0.550,375.000,195.000,405.500,411.500
0.551,374.500,195.000,405.500,411.500
0.552,374.000,195.000,405.000,411.000
0.553,373.500,194.500,404.500,410.500
0.554,373.000,194.500,404.000,410.000
0.555,372.500,194.000,403.000,409.500
0.556,372.000,193.500,402.500,408.500
0.557,371.500,193.000,401.500,408.000
0.558,371.000,193.000,401.000,408.000
0.559,371.000,193.000,401.000,408.000
0.560,371.000,193.000,401.000,408.000
0.561,371.500,193.000,401.000,408.500
0.562,372.000,193.500,401.500,408.500
0.563,372.500,194.000,402.500,409.000
0.564,373.000,194.500,403.000,410.000
0.565,373.000,195.500,404.000,410.500
0.566,373.500,196.000,405.000,411.000
0.567,373.500,196.000,405.500,411.500
0.568,373.500,196.000,405.500,412.000
0.569,373.500,196.000,406.000,412.500
0.570,373.500,196.000,406.000,412.500
0.571,373.000,196.000,406.000,413.000
0.572,373.000,196.000,406.000,413.000
0.573,372.500,196.000,406.000,413.500
0.574,372.000,196.000,406.000,413.500
0.575,371.000,195.500,406.000,413.500
0.576,370.500,195.500,405.500,413.500
0.577,370.000,195.500,405.500,413.000
0.578,370.000,195.000,405.000,413.000
0.579,369.500,195.000,404.500,413.000
0.580,369.500,195.500,404.500,412.500
0.581,369.500,195.500,405.000,413.000
0.582,370.000,196.000,406.000,413.500
0.583,370.000,196.500,407.000,414.000
0.584,370.500,197.000,408.000,414.500
0.585,371.500,197.500,409.000,415.500
0.586,372.000,198.000,409.500,416.000
0.587,372.500,198.500,410.000,416.000
0.588,373.000,198.500,410.500,416.500
0.589,373.500,198.500,410.500,416.500
0.590,373.500,198.000,410.500,416.500
0.591,373.000,197.500,410.000,416.500
0.592,373.000,196.500,409.500,416.500
0.593,372.000,196.000,409.000,416.000
0.594,371.500,195.000,408.000,415.000
0.595,371.000,194.500,407.000,414.500
0.596,370.500,194.500,406.000,413.000
0.597,370.500,194.500,405.000,412.500
0.598,370.000,194.500,404.500,412.000
0.599,370.000,195.000,404.500,412.000
0.600,370.500,196.000,405.000,412.500
0.601,370.500,196.500,405.500,413.000
0.602,371.000,197.000,406.500,414.000
0.603,371.000,197.500,407.000,414.000
0.604,371.500,198.500,408.000,414.500
0.605,371.500,199.000,408.500,415.000
0.606,371.500,199.000,409.000,415.000
0.607,371.500,199.500,409.000,415.000
0.608,371.500,199.500,409.000,415.000
0.609,371.500,199.500,409.000,415.000
0.610,371.000,199.500,409.000,415.000
0.611,370.500,199.500,409.000,415.000
0.612,369.500,200.000,409.000,415.500
0.613,369.000,200.000,408.500,415.500
0.614,368.000,199.500,408.500,415.500
0.615,367.000,199.500,408.000,415.000
0.616,366.500,199.500,408.000,415.000
0.617,366.000,199.000,407.500,415.000
0.618,366.000,199.000,407.500,415.000
0.619,366.500,199.500,407.500,415.500
0.620,367.000,199.500,408.000,416.000
0.621,368.000,200.000,409.000,416.500
0.622,369.000,200.500,409.500,417.000
0.623,369.500,200.500,410.000,417.500
0.624,370.000,200.500,410.500,417.500
0.625,370.500,200.000,410.500,418.000
0.626,371.000,199.000,410.500,418.000
0.627,370.500,198.000,410.000,418.000
0.628,370.500,196.500,409.000,418.000
0.629,370.500,195.500,408.500,417.500
0.630,370.000,195.000,408.000,417.500
0.631,370.000,195.000,407.000,417.000
0.632,369.500,195.000,406.500,416.500
0.633,369.500,195.500,405.500,416.000
0.634,369.000,196.500,405.500,416.000
0.635,368.500,197.000,405.000,416.000
0.636,368.000,197.500,405.000,415.500
0.637,367.500,198.000,405.000,415.500
0.638,367.500,198.000,405.000,415.500
0.639,367.000,198.500,405.000,415.000
0.640,367.500,198.500,405.000,414.500
0.641,367.500,199.000,405.500,414.500
0.642,368.500,199.500,406.000,415.000
0.643,369.000,200.500,407.500,415.500
0.644,369.500,201.500,408.500,416.000
0.645,370.000,202.000,409.500,416.500
0.646,370.500,203.000,410.000,416.500
0.647,371.000,203.500,410.500,416.500
0.648,371.500,204.000,410.500,416.500
0.649,371.500,203.500,410.000,416.500
0.650,371.000,203.500,409.500,416.000
0.651,370.500,202.500,408.500,416.000
0.652,369.500,201.500,407.500,415.500
0.653,369.000,200.500,406.500,415.500
0.654,368.500,199.500,405.500,415.000
0.655,368.000,199.000,404.500,414.500
0.656,367.500,198.000,403.500,413.500
0.657,367.000,197.500,403.000,413.000
0.658,367.500,197.000,402.500,412.500
0.659,367.500,197.000,402.500,412.000
0.660,367.500,197.500,402.500,412.000
0.661,368.000,198.000,403.000,412.000
0.662,368.500,198.500,403.500,412.000
0.663,369.000,199.000,404.000,412.500
0.664,369.000,199.500,404.500,412.500
0.665,369.000,200.000,405.000,413.000
0.666,369.500,200.500,405.500,413.000
0.667,370.000,200.500,406.000,413.000
0.668,370.000,201.000,406.000,413.000
0.669,370.000,201.000,406.500,413.000
0.670,369.500,201.000,406.500,413.000
0.671,369.500,201.500,406.000,412.500
0.672,369.000,201.500,405.500,412.000
0.673,368.000,201.500,404.500,411.500
0.674,367.500,201.000,404.500,411.500
0.675,367.000,201.000,404.500,411.500
0.676,367.000,201.000,404.500,412.000
0.677,366.500,201.500,404.500,412.500
0.678,367.000,201.500,405.000,413.000
0.679,367.000,202.000,405.000,413.500
0.680,367.500,202.500,405.500,414.000
0.681,367.500,202.500,406.000,414.500
0.682,368.000,202.500,406.500,414.500
0.683,368.500,202.500,407.000,415.000
0.684,369.000,202.500,407.500,415.000
0.685,369.000,202.500,407.500,415.500
0.686,369.000,202.000,407.000,415.500
0.687,369.500,202.000,406.500,415.000
0.688,369.500,202.000,406.000,414.500
0.689,369.500,201.500,405.000,414.000
0.690,369.500,201.500,404.000,413.000
0.691,369.500,201.500,403.500,412.500
0.692,369.500,201.000,402.500,412.000
0.693,369.000,201.500,402.500,412.000
0.694,368.500,201.500,402.500,412.500
0.695,368.500,201.500,403.000,412.500
0.696,368.000,201.500,403.000,413.000
0.697,368.000,202.000,403.000,413.000
0.698,368.000,202.000,403.500,413.000
0.699,368.000,202.500,403.500,413.000
0.700,368.000,203.000,404.000,413.500
0.701,368.500,203.500,404.500,414.000
0.702,368.500,204.000,405.500,414.500
0.703,369.000,205.000,406.000,415.000
0.704,369.500,205.500,407.000,416.000
0.705,369.500,206.000,407.000,416.000
0.706,370.000,206.000,407.500,416.500
0.707,370.500,206.000,407.000,416.500
0.708,370.500,206.000,407.000,416.500
0.709,370.500,205.500,406.500,416.000
0.710,370.000,205.500,406.000,416.500
0.711,370.000,205.000,406.000,416.500
0.712,369.000,205.000,406.000,416.500
0.713,368.500,205.000,405.500,416.500
0.714,368.000,205.000,405.500,416.500
0.715,367.000,205.000,405.500,416.000
0.716,366.500,205.000,405.000,416.000
0.717,366.500,205.000,405.000,416.000
0.718,366.000,205.500,405.000,416.000
0.719,366.000,205.500,405.000,416.000
0.720,366.500,205.500,405.000,416.000
0.721,366.500,205.500,404.500,416.000
0.722,367.000,205.500,404.500,416.000
0.723,367.500,205.500,404.500,415.500
0.724,368.500,205.500,404.500,415.500
0.725,369.000,206.000,404.500,415.500
0.726,369.500,206.000,405.000,415.000
0.727,370.500,205.500,405.000,415.000
0.728,370.500,205.000,405.000,414.500
0.729,370.500,204.500,404.500,414.000
0.730,370.500,204.000,404.000,413.500
0.731,370.000,203.500,403.500,413.500
0.732,369.500,203.500,403.000,413.500
0.733,368.500,203.500,402.500,413.000
0.734,368.000,203.500,402.000,413.000
0.735,367.500,203.500,402.000,413.000
0.736,367.000,203.500,402.000,413.500
0.737,366.500,204.000,402.000,413.500
0.738,366.500,204.500,402.000,414.000
0.739,367.000,205.000,402.500,414.500
0.740,367.000,205.500,402.500,414.500
0.741,367.500,205.500,403.000,415.000
0.742,368.000,205.500,403.500,416.000
0.743,368.500,206.000,404.500,416.500
0.744,369.000,206.000,405.000,417.500
0.745,369.500,206.500,406.000,418.000
0.746,370.000,206.500,406.500,418.000
0.747,370.500,206.500,406.500,418.500
0.748,370.500,207.000,407.000,418.500
0.749,371.000,207.000,407.000,418.000
0.750,370.500,207.000,406.500,418.000
0.751,370.000,207.000,406.000,418.000
0.752,369.500,207.000,405.500,417.500
0.753,369.000,207.000,405.000,417.500
0.754,368.500,206.500,404.500,417.000
0.755,368.000,206.500,404.000,417.000
0.756,367.500,206.000,403.000,416.500
0.757,367.500,205.500,402.000,416.000
0.758,367.500,205.500,401.500,415.000
0.759,367.500,206.000,401.000,414.500
0.760,367.500,206.500,401.500,414.500
0.761,368.000,207.000,402.000,415.000
0.762,368.500,208.000,403.500,415.500
0.763,369.000,209.000,404.500,416.000
0.764,369.000,210.000,405.500,416.500
0.765,369.500,210.500,406.000,417.000
0.766,369.500,211.000,406.000,417.500
0.767,369.500,211.000,405.500,418.000
0.768,370.000,210.500,405.500,418.000
0.769,369.500,210.000,405.000,418.500
0.770,369.500,209.500,405.000,419.000
0.771,369.500,209.000,405.000,419.000
0.772,369.000,208.500,404.500,419.000
0.773,368.500,208.000,404.500,419.000
0.774,368.000,207.500,404.500,418.500
0.775,367.500,207.500,404.500,418.500
0.776,367.500,208.000,404.500,418.500
0.777,367.500,208.000,404.500,418.500
0.778,367.500,208.500,404.500,418.500
0.779,367.500,209.000,404.500,419.000
0.780,368.000,209.500,405.000,419.000
0.781,368.000,210.000,405.000,419.500
0.782,368.500,210.500,405.500,419.500
0.783,369.000,210.500,405.500,419.500
0.784,369.500,211.000,405.500,419.000
0.785,370.000,211.000,405.500,419.000
0.786,370.500,211.500,405.500,419.000
0.787,371.000,211.500,405.500,418.500
0.788,371.000,211.500,405.000,418.500
0.789,371.000,211.500,405.000,418.500
0.790,371.000,211.000,405.000,418.000
0.791,370.500,210.500,404.500,418.000
0.792,370.000,210.500,404.500,418.000
0.793,369.500,210.000,404.000,418.000
0.794,369.500,209.500,403.500,418.000
0.795,369.000,209.500,403.500,418.000
0.796,368.500,209.500,403.500,418.000
0.797,368.500,210.000,403.500,418.500
0.798,368.000,210.500,404.000,418.500
0.799,367.500,210.500,404.500,419.000
0.800,367.500,211.000,405.000,419.500
0.801,368.000,211.500,405.500,420.000
0.802,368.500,212.000,406.000,420.000
0.803,369.000,212.500,407.000,420.500
0.804,370.000,213.000,407.500,421.000
0.805,370.500,213.500,408.000,421.500
0.806,371.000,214.000,408.500,422.000
0.807,372.000,214.500,409.000,422.500
0.808,372.000,214.500,409.000,422.500
0.809,372.500,214.000,408.500,422.000
0.810,372.500,213.500,408.000,421.500
0.811,372.000,212.500,407.000,421.000
0.812,372.000,211.500,406.000,420.500
0.813,371.500,210.500,405.500,420.000
0.814,371.000,210.000,404.500,420.000
0.815,370.500,209.500,404.000,420.000
0.816,370.000,209.000,403.500,419.500
0.817,369.500,209.500,402.500,419.000
0.818,369.500,209.500,402.000,418.500
0.819,369.500,210.000,401.500,418.500
0.820,369.500,210.000,401.500,418.500
0.821,369.500,210.500,402.000,418.500
0.822,370.000,211.000,402.500,419.000
0.823,370.500,211.500,403.500,419.500
0.824,371.500,212.000,404.500,420.000
0.825,372.000,212.500,405.500,421.000
0.826,372.500,213.000,406.500,421.500
0.827,373.000,213.500,407.500,422.000
0.828,374.000,213.500,408.000,422.500
0.829,374.000,213.500,408.000,422.500
0.830,374.500,213.500,408.500,422.500
0.831,374.500,213.000,408.000,422.500
0.832,374.500,212.500,408.000,422.000
0.833,374.000,211.500,407.500,422.000
0.834,373.500,211.000,407.000,421.500
0.835,373.000,210.500,406.000,421.000
0.836,373.000,210.000,405.500,421.000
0.837,372.500,210.000,405.000,420.500
0.838,372.500,210.000,404.500,420.000
0.839,373.000,210.500,404.000,420.000
0.840,373.000,210.500,404.000,420.000
0.841,373.500,211.000,404.000,420.000
0.842,374.000,211.500,404.500,420.000
0.843,374.500,211.500,404.500,420.000
0.844,375.000,212.000,405.000,420.000
0.845,375.500,212.000,405.500,420.500
0.846,376.000,212.500,406.000,421.000
0.847,376.500,212.500,406.500,421.500
0.848,376.500,212.500,407.000,422.000
0.849,376.500,212.500,407.000,422.500
0.850,376.500,212.500,407.000,422.500
0.851,376.000,212.500,407.000,423.000
0.852,375.000,213.000,407.000,423.000
0.853,374.500,213.000,407.000,423.000
0.854,374.000,213.000,407.000,423.000
0.855,373.500,212.500,406.500,423.000
0.856,373.000,212.000,406.000,423.000
0.857,373.000,212.000,405.500,422.500
0.858,372.500,211.500,405.000,422.000
0.859,373.000,211.500,404.500,422.000
0.860,373.000,211.500,405.000,422.500
0.861,374.000,212.000,405.500,423.000
0.862,374.500,213.000,406.500,423.500
0.863,375.000,213.500,407.500,424.000
0.864,375.500,214.000,408.500,424.000
0.865,376.000,214.500,409.000,424.000
0.866,376.500,214.500,409.000,424.000
0.867,376.500,214.500,408.500,423.500
0.868,376.500,214.000,407.500,423.500
0.869,376.500,214.000,407.000,423.500
0.870,376.500,213.500,407.000,423.500
0.871,376.000,213.000,406.500,423.500
0.872,376.000,212.500,406.000,423.500
0.873,375.500,212.000,405.500,423.500
0.874,374.500,212.000,405.500,423.000
0.875,374.000,211.500,405.000,423.000
0.876,373.500,211.500,405.500,423.000
0.877,373.500,211.500,405.500,423.500
0.878,373.500,212.000,405.500,423.500
0.879,373.500,212.000,405.500,424.000
0.880,374.000,212.500,405.500,424.000
0.881,374.500,212.500,405.500,424.000
0.882,375.000,213.000,405.000,423.500
0.883,375.500,213.000,405.000,423.000
0.884,376.000,213.000,404.500,423.000
0.885,376.500,213.500,404.500,422.500
0.886,376.500,213.500,404.500,422.500
0.887,376.500,213.500,404.500,422.500
0.888,376.500,214.000,404.500,422.500
0.889,376.500,214.000,405.000,423.000
0.890,376.000,214.500,405.500,423.500
0.891,375.500,214.500,406.000,424.500
0.892,375.000,214.500,406.000,424.500
0.893,374.500,214.500,406.000,425.000
0.894,374.000,214.000,405.500,424.500
0.895,374.000,214.000,404.500,424.500
0.896,373.500,213.500,403.500,424.000
0.897,373.500,213.000,403.000,423.000
0.898,373.500,213.000,402.500,422.500
0.899,373.500,213.000,402.500,422.500
0.900,373.500,213.500,403.000,423.000
0.901,374.000,214.000,403.500,423.500
0.902,374.500,214.500,404.000,424.000
0.903,375.000,215.000,405.000,424.500
0.904,375.500,215.500,406.000,425.000
0.905,376.000,216.000,406.500,425.500
0.906,376.500,216.000,407.000,426.000
0.907,376.500,216.000,407.500,426.000
0.908,377.000,216.000,407.000,425.500
0.909,377.000,216.000,406.500,425.000
0.910,377.000,215.500,406.000,424.500
0.911,376.500,215.500,405.500,424.500
0.912,376.500,215.500,405.000,424.500
0.913,375.500,215.500,404.500,424.500
0.914,375.000,215.500,404.000,424.500
0.915,374.500,215.000,403.500,424.500
0.916,374.000,215.000,403.000,424.000
0.917,374.000,215.000,402.500,424.000
0.918,374.000,215.500,403.000,424.000
0.919,374.000,215.500,403.000,424.000
0.920,374.500,216.000,403.500,424.000
0.921,375.500,216.000,403.500,424.000
0.922,376.000,215.500,403.500,423.500
0.923,377.000,215.500,403.500,423.500
0.924,377.500,215.500,403.500,423.500
0.925,378.500,215.500,404.000,424.000
0.926,379.500,215.500,404.500,424.500
0.927,380.000,215.500,405.500,425.500
0.928,380.500,215.500,406.000,426.000
0.929,381.000,215.500,406.500,426.000
0.930,381.000,215.000,406.500,426.000
0.931,380.500,215.000,406.000,425.500
0.932,380.000,214.500,405.500,425.000
0.933,379.500,214.500,405.000,424.500
0.934,378.500,214.000,404.500,424.500
0.935,378.000,214.500,404.000,424.500
0.936,378.000,215.000,404.000,424.500
0.937,377.500,215.500,404.000,424.500
0.938,377.500,216.000,404.000,425.000
0.939,377.000,216.500,404.500,425.000
0.940,377.000,216.500,404.500,425.000
0.941,377.500,217.000,405.000,425.000
0.942,378.000,217.500,405.000,425.000
0.943,378.500,217.500,405.000,425.000
0.944,379.000,218.000,405.000,425.000
0.945,379.500,218.000,405.000,424.500
0.946,380.000,218.000,405.000,424.500
0.947,380.000,218.500,405.500,425.000
0.948,380.500,218.500,406.000,425.000
0.949,380.500,218.500,406.500,425.500
0.950,380.500,218.500,407.000,425.500
0.951,380.500,218.500,407.500,426.000
0.952,380.000,218.500,408.000,426.000
0.953,380.000,218.500,408.000,425.500
0.954,379.500,218.500,408.000,425.500
0.955,379.000,218.500,407.500,425.500
0.956,379.000,218.500,407.500,425.000
0.957,378.500,218.000,407.000,425.000
0.958,378.500,218.000,407.000,425.000
0.959,378.500,218.000,407.000,425.000
0.960,379.000,218.500,407.000,425.000
0.961,379.500,218.500,407.000,425.000
0.962,380.000,219.000,407.000,424.500
0.963,380.500,219.000,407.000,424.000
0.964,381.000,219.000,406.500,423.500
0.965,381.500,219.000,406.500,423.000
0.966,381.500,219.500,407.000,422.500
0.967,381.500,219.500,407.000,422.000
0.968,381.000,219.500,407.000,421.500
0.969,380.500,219.500,407.000,421.000
0.970,380.000,219.500,406.500,420.000
0.971,379.500,218.500,405.000,419.500
0.972,378.500,217.500,404.000,418.500
0.973,378.000,216.500,402.500,418.000
0.974,377.000,215.500,401.500,417.500
0.975,376.500,214.500,400.500,417.500
0.976,376.000,214.000,400.000,417.500
0.977,375.500,213.000,400.000,417.500
0.978,375.000,213.000,400.000,418.000
0.979,375.000,212.500,400.500,418.500
0.980,375.000,213.000,401.000,419.000
0.981,375.000,213.000,401.500,419.500
0.982,375.000,213.500,402.000,420.000
0.983,375.000,214.000,403.000,421.000
0.984,375.000,215.000,404.000,422.000
0.985,375.000,215.500,405.000,423.000
0.986,375.000,216.000,406.000,424.500
0.987,375.000,217.000,407.000,425.500
0.988,375.000,217.500,408.000,427.500
0.989,375.000,218.500,409.500,429.500
0.990,375.000,219.500,411.500,431.500
0.991,375.500,220.500,413.000,434.000
0.992,376.000,221.500,414.500,436.000
0.993,376.500,222.500,415.500,437.500
0.994,377.000,223.500,416.500,439.000
0.995,377.500,224.500,417.000,439.500
0.996,378.000,225.000,417.500,440.000
0.997,378.500,225.500,417.500,440.000
0.998,379.500,226.500,418.000,440.000
0.999,380.500,227.500,418.500,440.000
1.000,381.500,228.500,419.000,440.500
1.001,383.000,230.000,420.000,441.000
1.002,384.500,231.000,421.500,441.500
1.003,386.000,232.500,422.500,441.500
1.004,387.000,233.500,423.500,441.500
1.005,388.500,234.000,424.000,441.500
1.006,389.500,234.500,424.500,441.500
1.007,390.500,235.000,424.500,441.000
1.008,391.000,235.000,424.500,440.000
1.009,391.000,234.500,424.000,439.500
1.010,391.000,234.000,423.500,438.500
1.011,391.000,233.000,422.500,437.000
1.012,390.500,231.500,421.500,435.500
1.013,390.500,230.500,420.500,434.000
1.014,390.000,230.000,419.500,433.000
1.015,389.500,230.000,418.500,431.500
1.016,389.000,230.000,418.000,431.000
1.017,388.500,230.000,417.500,430.000
1.018,388.000,230.500,417.500,429.500
1.019,388.000,230.500,417.000,429.000
1.020,388.000,230.500,416.500,428.500
1.021,388.000,231.000,416.500,428.500
1.022,388.000,231.000,416.500,428.500
1.023,388.000,231.000,417.000,428.500
1.024,388.500,231.000,417.500,428.500
1.025,388.500,231.000,417.500,428.000
1.026,388.000,230.500,417.500,427.500
1.027,388.000,229.500,416.500,427.000
1.028,387.500,228.500,415.500,425.500
1.029,386.500,226.500,414.000,424.500
1.030,386.000,225.000,412.500,423.000
1.031,385.000,223.500,411.000,422.500
1.032,384.500,222.500,410.500,422.000
1.033,383.500,222.000,410.000,421.500
1.034,382.500,221.500,409.000,421.000
1.035,382.000,221.000,408.500,421.000
1.036,381.000,220.500,407.500,420.500
1.037,380.500,220.500,407.500,420.500
1.038,380.000,221.000,407.500,421.000
1.039,380.000,221.000,407.500,421.500
1.040,379.500,221.500,408.000,422.000
1.041,379.500,222.000,408.500,423.000
1.042,380.000,222.500,409.500,423.500
1.043,380.000,223.000,410.000,424.500
1.044,380.500,223.500,411.500,425.000
1.045,381.000,224.000,412.500,425.500
1.046,381.500,224.500,413.000,426.000
1.047,382.000,225.000,413.500,426.000
1.048,382.500,225.500,414.000,426.500
1.049,382.500,226.000,414.000,426.500
1.050,382.000,226.000,414.000,426.000
1.051,381.500,225.500,413.500,425.500
1.052,381.000,225.500,413.000,424.500
1.053,380.500,225.000,412.500,424.000
1.054,380.000,224.500,411.500,423.000
1.055,379.500,224.000,411.000,422.000
1.056,379.500,223.500,410.000,421.500
1.057,379.500,223.000,409.500,421.000
1.058,379.500,223.000,409.000,421.000
1.059,379.500,223.500,409.500,421.000
1.060,380.000,224.000,410.000,421.500
1.061,380.500,224.000,411.000,422.500
1.062,380.500,224.500,412.000,423.000
1.063,381.000,224.500,413.000,424.000
1.064,381.000,224.500,413.500,424.000
1.065,381.500,224.500,413.500,424.500
1.066,381.500,224.500,413.500,424.000
1.067,382.000,224.000,413.000,423.500
1.068,382.000,223.500,412.500,422.500
1.069,382.000,223.500,411.500,422.000
1.070,381.500,223.500,411.000,421.500
1.071,381.000,223.000,411.000,421.500
1.072,380.500,223.500,410.500,421.500
1.073,380.000,223.000,410.500,421.000
1.074,379.500,223.000,410.000,421.000
1.075,379.500,223.000,410.000,421.500
1.076,379.000,223.000,410.000,421.500
1.077,378.500,223.000,410.000,422.000
1.078,378.000,223.500,410.500,422.000
1.079,378.000,224.000,411.500,422.000
1.080,378.000,224.500,412.000,422.500
1.081,378.500,225.000,412.500,422.500
1.082,378.500,225.500,413.000,422.500
1.083,378.500,225.500,413.000,422.500
1.084,379.000,225.500,412.000,422.500
1.085,379.000,225.000,411.500,422.000
1.086,379.500,225.000,411.000,422.000
1.087,380.000,224.500,410.500,422.000
1.088,380.000,224.000,410.500,422.500
1.089,380.000,224.000,411.000,423.000
1.090,380.000,223.500,411.500,423.500
1.091,379.500,223.500,412.000,424.000
1.092,379.500,223.500,412.000,424.000
1.093,379.000,223.000,412.000,424.000
1.094,378.500,223.000,411.500,423.500
1.095,378.000,222.500,411.500,423.000
1.096,377.500,222.000,411.000,423.000
1.097,377.000,222.000,411.000,422.500
1.098,377.000,222.000,410.500,422.500
1.099,376.500,222.000,410.500,422.500
1.100,376.500,222.000,410.500,422.500
1.101,377.000,222.000,410.500,422.000
1.102,377.500,222.000,410.500,422.000
1.103,378.000,222.500,410.500,421.500
1.104,378.500,222.500,410.500,421.500
1.105,379.000,223.000,411.000,421.500
1.106,379.000,223.500,411.500,421.500
1.107,379.000,224.000,411.500,421.500
1.108,379.000,224.500,411.500,421.500
1.109,379.000,224.500,412.000,421.500
1.110,379.000,224.500,412.000,421.000
1.111,379.000,224.000,412.000,420.500
1.112,378.500,223.500,411.500,420.000
1.113,378.000,222.500,411.000,419.000
1.114,377.500,222.000,410.500,418.500
1.115,376.500,221.500,410.000,418.000
1.116,376.000,221.500,410.000,418.000
1.117,376.000,221.500,410.000,418.500
1.118,376.000,221.500,410.500,419.000
1.119,376.000,222.000,411.000,419.500
1.120,376.000,222.000,411.500,420.000
1.121,376.500,222.500,412.000,420.500
1.122,377.000,223.000,413.000,421.000
1.123,377.500,223.500,413.500,421.000
1.124,378.000,224.000,414.000,421.500
1.125,378.000,224.000,414.500,421.500
1.126,378.500,224.500,415.000,421.500
1.127,378.500,225.000,415.000,421.500
1.128,378.500,225.500,415.500,421.500
1.129,378.500,225.500,415.000,421.500
1.130,378.000,225.500,414.500,421.000
1.131,377.500,225.000,414.000,420.000
1.132,377.000,224.500,413.000,419.500
1.133,376.500,224.000,412.500,419.000
1.134,376.000,223.500,412.000,418.500
1.135,375.500,223.000,411.500,418.000
1.136,375.500,222.500,411.000,417.500
1.137,375.500,222.500,410.500,417.000
1.138,375.500,222.500,410.500,417.000
1.139,376.000,222.500,410.500,417.000
1.140,376.500,222.500,411.000,417.500
1.141,377.000,223.000,411.500,417.500
1.142,377.500,223.500,412.500,418.000
1.143,377.500,223.500,413.500,419.000
1.144,378.000,224.000,414.500,419.500
1.145,378.500,224.500,415.000,420.000
1.146,378.500,225.000,416.000,421.000
1.147,379.000,226.000,416.500,421.500
1.148,379.000,226.500,416.500,422.000
1.149,379.000,227.000,416.500,422.000
1.150,378.500,227.500,416.500,421.500
1.151,378.500,227.500,416.000,421.500
1.152,377.500,227.500,415.500,421.000
1.153,377.000,227.000,415.500,420.500
1.154,376.500,226.500,415.500,420.500
1.155,376.000,225.500,415.500,420.500
1.156,375.500,225.000,415.500,420.000
1.157,375.000,224.500,415.500,420.000
1.158,375.000,224.500,415.500,420.000
1.159,374.500,224.500,415.000,420.500
1.160,374.500,225.000,415.000,420.500
1.161,375.000,225.500,415.500,421.000
1.162,375.000,226.000,416.000,421.500
1.163,376.000,226.500,416.500,422.000
1.164,376.500,227.000,417.000,422.500
1.165,377.000,227.500,417.500,422.500
1.166,377.500,227.500,417.500,422.000
1.167,377.500,227.500,417.500,422.000
1.168,377.500,227.500,417.000,421.500
1.169,377.000,227.000,416.500,421.000
1.170,376.500,226.500,416.000,420.500
1.171,376.000,226.000,416.000,420.000
1.172,375.500,225.500,415.500,420.000
1.173,375.000,225.500,415.500,420.000
1.174,374.500,225.500,415.500,420.000
1.175,374.000,225.000,415.000,420.000
1.176,373.500,225.500,415.000,419.500
1.177,373.500,225.500,415.000,419.500
1.178,373.500,226.000,416.000,420.000
1.179,374.000,227.000,417.500,420.500
1.180,374.000,228.000,418.500,421.000
1.181,374.500,229.000,420.000,422.000
1.182,375.000,229.500,420.500,422.500
1.183,375.000,230.000,421.500,423.000
1.184,375.500,230.500,421.500,423.500
1.185,375.500,230.500,421.500,424.000
1.186,375.500,230.000,421.500,424.500
1.187,375.500,230.000,421.500,425.000
1.188,375.500,229.500,421.000,425.000
1.189,375.000,229.000,420.500,425.000
1.190,375.000,229.000,420.500,425.000
1.191,374.500,229.000,420.500,424.500
1.192,374.000,229.000,420.000,424.500
1.193,373.500,229.000,420.000,424.000
1.194,373.000,229.000,420.000,423.500
1.195,372.500,229.000,419.500,423.500
1.196,372.000,228.500,419.500,423.000
1.197,371.500,228.500,419.000,423.000
1.198,371.500,229.000,419.000,423.000
1.199,371.000,229.000,419.500,423.000
1.200,371.000,229.500,419.500,423.500
1.201,371.000,229.500,419.500,423.500
1.202,371.500,230.000,419.500,423.000
1.203,372.000,230.000,420.000,423.500
1.204,372.500,230.500,420.500,423.500
1.205,373.500,231.000,421.000,424.000
1.206,374.000,231.000,421.000,424.000
1.207,374.500,231.000,421.500,424.000
1.208,374.500,230.500,421.500,423.500
1.209,374.500,230.000,421.500,423.500
1.210,374.500,229.500,421.500,423.500
1.211,374.000,229.000,421.500,423.000
1.212,373.500,228.500,421.000,423.000
1.213,373.000,228.000,420.500,422.500
1.214,372.500,227.500,420.000,422.000
1.215,372.000,227.000,420.000,421.500
1.216,371.500,227.000,419.500,421.000
1.217,371.000,227.000,419.500,421.000
1.218,371.000,227.500,420.000,421.000
1.219,371.000,228.000,420.000,421.500
1.220,371.000,228.500,420.500,421.500
1.221,371.000,229.500,421.000,421.500
1.222,371.500,230.000,421.500,422.000
1.223,371.500,230.500,422.500,422.000
1.224,372.000,231.000,423.500,422.500
1.225,372.000,231.500,424.500,423.000
1.226,372.500,232.000,425.500,424.000
1.227,372.500,232.500,426.000,424.000
1.228,372.500,232.500,426.500,424.000
1.229,372.000,232.500,426.500,423.500
1.230,372.000,232.000,426.000,423.500
1.231,371.000,231.500,425.000,423.000
1.232,370.500,231.500,424.500,422.500
1.233,370.000,231.000,424.000,422.500
1.234,369.500,231.000,424.000,422.000
1.235,369.000,231.000,424.000,422.000
1.236,368.500,231.000,424.000,422.000
1.237,368.500,230.500,424.000,422.000
1.238,368.500,230.500,424.000,422.000
1.239,369.000,230.000,423.500,421.500
1.240,369.000,230.000,423.500,421.500
1.241,369.500,229.500,423.500,421.000
1.242,370.000,229.500,423.500,421.000
1.243,370.500,229.500,423.500,420.500
1.244,370.500,229.000,423.500,420.500
1.245,371.000,228.500,423.500,420.000
1.246,371.000,228.000,423.500,420.000
1.247,371.000,228.000,424.000,420.500
1.248,371.000,228.000,424.000,420.500
1.249,371.000,228.000,423.500,420.500
1.250,370.500,228.000,423.500,420.000
1.251,370.000,227.500,422.500,419.000
1.252,370.000,227.500,422.000,418.500
1.253,369.500,227.500,422.000,418.000
1.254,369.000,227.500,421.500,417.500
1.255,368.500,227.500,421.500,417.500
1.256,368.000,227.500,421.000,417.500
1.257,367.500,227.500,421.000,417.500
1.258,367.500,227.500,421.500,418.000
1.259,367.500,228.000,421.500,418.000
1.260,367.500,228.000,422.000,418.500
1.261,367.500,228.500,422.500,418.500
1.262,367.500,228.500,423.000,418.500
1.263,367.500,229.000,423.500,418.000
1.264,368.000,229.500,424.000,418.000
1.265,368.500,229.500,424.000,417.500
1.266,369.000,230.000,424.500,417.500
1.267,369.000,230.000,424.500,417.000
1.268,369.500,230.000,424.000,416.500
1.269,369.500,230.000,423.500,416.000
1.270,369.500,229.500,422.500,415.000
1.271,369.000,228.500,421.500,413.500
1.272,368.500,227.500,420.000,412.500
1.273,368.000,227.000,419.000,411.500
1.274,367.500,226.500,418.500,411.000
1.275,367.000,226.500,418.500,410.500
1.276,366.500,226.000,418.000,410.500
1.277,366.000,226.000,418.000,411.000
1.278,366.000,226.000,418.500,411.000
1.279,366.000,226.500,418.500,411.000
1.280,366.000,227.000,418.500,411.500
1.281,366.500,227.500,419.000,411.500
1.282,366.500,228.000,419.500,411.500
1.283,367.000,229.000,420.500,411.500
1.284,367.000,229.500,421.500,412.000
1.285,367.000,230.500,422.000,412.500
1.286,367.500,231.000,423.000,412.500
1.287,367.500,231.500,423.000,412.000
1.288,367.500,231.500,423.500,412.000
1.289,368.000,231.500,423.500,411.500
1.290,368.000,231.500,423.000,410.500
1.291,368.000,231.000,422.500,410.500
1.292,367.500,230.500,421.500,410.000
1.293,367.000,229.500,421.000,410.000
1.294,366.500,228.500,420.500,410.500
1.295,365.500,227.500,420.000,410.500
1.296,365.000,226.500,420.000,411.000
1.297,364.500,226.000,420.000,411.000
1.298,364.500,226.000,420.000,411.000
1.299,364.500,226.000,420.500,411.000
1.300,365.000,226.500,421.000,411.500
1.301,365.500,227.000,421.500,411.500
1.302,366.000,228.000,422.000,411.500
1.303,366.500,228.500,422.500,411.500
1.304,367.000,229.000,423.000,411.500
1.305,367.500,229.500,423.500,411.000
1.306,368.000,230.000,423.000,410.500
1.307,368.000,229.500,422.500,410.000
1.308,368.000,229.500,422.000,409.000
1.309,368.000,229.000,421.500,408.000
1.310,367.500,229.000,421.500,408.000
1.311,367.000,229.000,421.500,408.000
1.312,366.500,228.500,421.500,407.500
1.313,366.000,228.500,421.000,407.500
1.314,365.500,228.000,420.500,407.000
1.315,365.000,227.500,420.500,407.000
1.316,364.500,227.500,420.500,407.000
1.317,364.500,227.500,420.500,407.500
1.318,364.500,228.000,420.500,407.500
1.319,364.500,228.000,421.000,408.000
1.320,364.500,228.500,421.500,408.000
1.321,365.000,229.000,421.500,408.000
1.322,365.000,229.000,422.000,408.000
1.323,365.500,229.000,422.000,407.500
1.324,365.500,229.500,422.500,407.500
1.325,366.000,230.000,423.000,408.000
1.326,366.000,230.500,423.500,408.500
1.327,366.000,231.000,424.000,408.500
1.328,366.000,231.000,424.500,408.500
1.329,365.500,231.000,424.500,408.500
1.330,365.500,231.000,424.500,408.000
1.331,365.000,230.500,424.500,408.000
1.332,364.500,230.000,424.000,407.500
1.333,364.000,230.000,423.500,407.000
1.334,363.000,229.500,423.000,407.000
1.335,362.500,229.000,422.500,406.500
1.336,362.000,228.500,422.000,406.000
1.337,361.500,228.000,421.000,405.500
1.338,361.000,227.500,420.500,405.000
1.339,361.000,227.000,419.500,404.500
1.340,361.500,226.500,419.000,404.000
1.341,362.000,226.500,419.000,403.500
1.342,362.500,226.500,419.000,403.000
1.343,363.000,227.000,419.500,402.500
1.344,363.500,228.000,420.500,402.500
1.345,364.000,228.500,421.000,403.000
1.346,364.000,229.000,422.000,403.500
1.347,364.000,229.500,422.500,404.000
1.348,364.000,230.000,423.000,404.000
1.349,363.500,230.000,423.000,404.000
1.350,363.500,229.500,423.000,403.500
1.351,363.000,229.500,422.500,403.500
1.352,362.500,229.000,422.500,403.000
1.353,362.000,229.000,422.500,403.000
1.354,361.500,229.000,422.500,403.000
1.355,361.000,229.000,422.500,403.500
1.356,361.000,229.500,423.000,404.000
1.357,361.000,230.000,423.500,404.500
1.358,361.000,230.000,423.500,404.500
1.359,361.500,230.500,424.000,404.500
1.360,361.500,230.500,424.000,405.000
1.361,362.000,230.500,424.500,405.000
1.362,363.000,230.500,425.000,405.500
1.363,363.500,230.500,425.500,406.000
1.364,364.000,230.500,426.000,406.000
1.365,364.500,231.000,426.500,406.500
1.366,365.500,231.000,426.500,406.500
1.367,366.000,231.000,426.500,406.500
1.368,366.500,231.000,426.500,406.000
1.369,366.500,231.000,426.000,405.500
1.370,366.500,230.500,425.500,405.000
1.371,366.000,230.000,424.500,404.500
1.372,365.000,229.000,423.500,403.500
1.373,364.500,228.500,423.000,403.000
1.374,363.500,228.000,422.500,402.500
1.375,363.000,228.000,422.500,402.500
1.376,363.000,228.000,422.500,402.500
1.377,362.500,228.500,423.000,403.000
1.378,362.500,229.000,423.000,403.000
1.379,363.000,229.500,423.500,403.500
1.380,363.000,230.000,424.000,404.000
1.381,363.000,231.000,425.000,404.000
1.382,363.500,232.000,426.000,404.500
1.383,363.500,233.000,427.000,405.000
1.384,364.000,233.500,428.500,405.500
1.385,364.000,234.500,429.500,405.500
1.386,364.500,234.500,430.500,405.500
1.387,364.500,234.500,431.000,405.500
1.388,364.500,234.500,431.000,405.500
1.389,364.000,234.000,431.000,405.500
1.390,364.000,233.500,430.500,405.500
1.391,363.500,233.000,429.500,405.000
1.392,363.000,232.000,429.000,405.000
1.393,362.500,231.000,428.500,404.500
1.394,362.000,230.500,427.500,404.000
1.395,361.500,229.500,427.000,403.500
1.396,361.500,229.000,426.500,403.000
1.397,361.000,229.000,426.500,402.500
1.398,361.000,229.000,426.500,402.500
1.399,361.000,229.000,427.000,403.000
1.400,361.000,229.500,428.000,403.500
1.401,361.000,230.500,429.000,404.000
1.402,361.500,231.000,430.000,404.500
1.403,362.000,231.500,431.000,405.000
1.404,362.000,232.000,431.000,405.500
1.405,362.500,232.000,431.000,405.500
1.406,363.000,232.000,430.500,405.000
1.407,363.500,231.500,430.500,404.500
1.408,363.500,231.500,430.000,404.000
1.409,363.500,231.500,430.000,404.000
1.410,363.500,231.000,430.000,404.000
1.411,363.000,231.000,430.000,404.500
1.412,362.000,230.500,430.000,404.000
1.413,361.500,230.000,429.500,403.500
1.414,360.500,229.500,428.500,403.000
1.415,360.000,229.500,428.000,402.500
1.416,359.500,229.000,427.500,402.000
1.417,359.000,229.000,427.000,401.500
1.418,359.000,229.000,427.500,401.500
1.419,359.500,229.500,428.000,402.000
1.420,359.500,230.000,428.500,402.500
1.421,360.000,231.000,429.500,403.000
1.422,360.500,231.500,430.000,403.500
1.423,361.000,231.500,431.000,403.500
1.424,361.500,232.000,431.500,403.500
1.425,362.000,232.500,431.500,403.500
1.426,362.500,232.500,431.500,403.500
1.427,363.000,233.000,431.500,403.000
1.428,363.000,233.000,431.500,403.000
1.429,363.000,233.500,432.000,403.000
1.430,362.500,233.500,431.500,403.000
1.431,362.000,233.000,431.500,402.500
1.432,361.500,233.000,431.000,402.000
1.433,361.000,232.500,430.500,401.500
1.434,360.500,232.000,430.000,401.000
1.435,360.000,232.000,430.000,401.000
1.436,359.500,231.500,429.500,400.500
1.437,359.500,231.500,429.000,400.000
1.438,359.000,231.000,428.500,399.500
1.439,358.500,230.500,428.000,399.000
1.440,358.500,230.500,427.500,398.000
1.441,358.500,230.000,426.500,397.500
1.442,359.000,230.000,426.500,397.000
1.443,359.500,230.000,426.500,396.500
1.444,360.000,230.000,427.000,397.000
1.445,360.000,230.500,427.500,397.500
1.446,360.500,231.000,428.500,398.000
1.447,360.500,231.500,429.000,398.500
1.448,360.500,231.500,429.500,399.000
1.449,360.500,231.500,429.500,399.500
1.450,360.000,231.000,429.500,399.500
1.451,359.500,231.000,429.500,400.000
1.452,359.000,230.500,429.500,400.000
1.453,358.500,230.500,429.500,400.500
1.454,358.000,230.000,429.500,400.500
1.455,357.500,229.500,429.500,400.500
1.456,357.000,229.500,430.000,401.000
1.457,357.000,230.000,430.500,402.000
1.458,357.000,230.500,431.500,402.500
1.459,357.500,231.000,432.500,403.000
1.460,358.000,232.000,433.000,403.500
1.461,358.500,232.500,434.000,403.500
1.462,359.000,233.500,434.500,403.500
1.463,359.500,234.000,435.000,403.500
1.464,359.500,234.500,435.000,403.500
1.465,360.000,235.000,435.500,403.500
1.466,360.000,235.500,435.500,403.000
1.467,360.500,236.000,436.000,403.000
1.468,360.500,236.000,436.000,403.000
1.469,360.500,236.000,436.000,402.500
1.470,360.500,235.500,435.500,402.000
1.471,360.000,234.500,435.000,401.500
1.472,359.500,234.000,434.500,401.000
1.473,359.500,233.500,434.000,401.000
1.474,359.000,233.000,434.000,401.500
1.475,359.000,232.000,434.000,401.500
1.476,359.000,231.500,434.000,402.000
1.477,359.000,231.500,434.000,402.500
1.478,359.000,231.000,434.000,402.500
1.479,359.000,231.000,434.000,403.000
1.480,359.000,231.000,434.500,403.000
1.481,359.000,231.500,435.000,403.500
1.482,359.500,231.500,435.500,403.500
1.483,360.000,232.000,436.000,403.500
1.484,360.500,233.000,436.500,403.500
1.485,361.000,234.000,436.500,403.500
1.486,361.500,234.500,437.000,403.000
1.487,362.000,235.000,437.000,402.500
1.488,362.000,235.500,437.000,402.500
1.489,362.000,236.000,437.000,402.000
1.490,362.000,236.000,436.500,402.000
1.491,361.000,235.500,436.000,401.500
1.492,360.500,235.000,435.000,401.500
1.493,359.500,234.000,434.500,401.500
1.494,359.000,233.500,434.000,401.500
1.495,358.000,233.500,434.000,402.000
1.496,357.500,233.000,434.000,402.000
1.497,357.000,232.500,433.500,402.000
1.498,356.500,232.500,433.500,401.500
1.499,356.500,232.000,433.000,401.000
1.500,356.500,232.000,433.000,400.500
1.501,357.000,232.500,433.000,400.500
1.502,358.000,233.000,434.000,400.500
1.503,358.500,233.500,434.500,401.000
1.504,359.500,234.000,435.500,401.000
1.505,359.500,234.000,436.000,401.500
1.506,360.000,234.000,436.500,402.000
1.507,360.000,234.000,437.000,402.500
1.508,360.000,233.500,437.000,402.000
1.509,359.500,233.000,436.500,401.500
1.510,359.000,232.500,436.500,401.000
1.511,358.000,232.000,436.000,401.000
1.512,357.500,231.500,435.500,400.500
1.513,357.000,231.000,435.000,400.000
1.514,357.000,231.000,435.000,400.000
1.515,356.500,231.500,435.500,400.500
1.516,356.000,231.500,435.500,400.500
1.517,356.000,232.000,435.500,400.500
1.518,355.500,232.000,435.500,400.500
1.519,355.000,232.000,435.500,400.000
1.520,355.000,232.500,436.000,400.000
1.521,355.500,233.000,436.500,400.500
1.522,355.500,233.000,437.000,400.500
1.523,356.000,233.500,437.500,400.500
1.524,356.500,234.000,438.000,401.000
1.525,357.000,234.500,438.000,401.000
1.526,357.500,235.000,438.500,400.500
1.527,357.500,235.000,438.500,400.500
1.528,357.500,235.000,438.000,400.000
1.529,357.500,234.500,438.000,400.000
1.530,357.500,234.500,437.500,399.500
1.531,357.500,234.000,437.500,399.500
1.532,357.000,234.000,437.500,399.500
1.533,356.500,233.500,437.000,399.000
1.534,356.000,233.000,436.500,398.500
1.535,355.000,233.000,436.500,398.500
1.536,354.500,232.500,436.000,398.000
1.537,354.000,232.500,436.000,398.000
1.538,353.500,232.500,436.000,398.000
1.539,353.000,232.500,436.000,398.000
1.540,353.000,233.000,436.000,397.500
1.541,353.000,233.000,436.000,397.500
1.542,353.500,233.000,436.500,397.500
1.543,354.000,233.500,436.500,397.000
1.544,354.000,233.500,436.500,397.000
1.545,354.500,234.000,437.000,397.000
1.546,355.000,234.500,437.500,397.000
1.547,355.500,234.500,438.000,397.500
1.548,355.500,234.500,438.000,397.500
1.549,355.500,234.500,438.000,397.000
1.550,355.500,234.000,437.000,396.500
1.551,355.000,233.500,436.500,396.000
1.552,355.000,233.000,436.000,395.500
1.553,354.500,232.500,436.000,395.500
1.554,354.500,232.500,436.000,395.500
1.555,354.000,232.500,436.500,396.000
1.556,354.000,232.500,437.000,397.000
1.557,354.000,233.000,437.500,397.500
1.558,354.000,233.000,437.500,397.500
1.559,354.000,233.000,437.000,397.000
1.560,354.000,233.500,437.000,396.500
1.561,354.500,233.500,437.000,396.500
1.562,354.500,234.000,436.500,396.000
1.563,355.000,234.500,437.000,396.000
1.564,355.500,234.500,437.000,395.500
1.565,355.500,235.000,437.500,396.000
1.566,356.000,235.500,437.500,396.000
1.567,356.000,236.000,437.500,396.000
1.568,355.500,236.000,437.500,396.000
1.569,355.500,236.000,437.500,396.000
1.570,355.000,235.500,437.000,395.500
1.571,354.500,235.500,436.500,395.000
1.572,354.000,235.000,436.000,395.000
1.573,353.500,235.000,436.000,394.500
1.574,353.000,235.000,436.000,394.500
1.575,352.500,234.500,436.000,394.500
1.576,352.000,234.500,436.000,394.500
1.577,351.500,234.500,436.000,394.000
1.578,351.500,234.000,435.500,393.500
1.579,351.000,234.000,435.500,393.000
1.580,351.000,233.500,435.000,392.500
1.581,350.500,233.500,435.000,392.000
1.582,350.500,233.500,435.000,391.500
1.583,350.500,233.500,434.500,391.000
1.584,350.000,233.000,434.500,390.500
1.585,350.000,233.000,434.500,390.000
1.586,349.500,233.000,434.000,389.500
1.587,349.500,232.500,433.500,389.000
1.588,349.000,232.000,433.500,388.500
1.589,348.500,232.000,433.000,388.000
1.590,348.000,231.500,432.500,388.000
1.591,347.000,231.000,432.000,387.500
1.592,346.000,230.500,431.500,387.000
1.593,345.000,230.000,430.500,387.000
1.594,344.000,229.000,430.500,386.500
1.595,342.500,228.500,430.000,386.500
1.596,341.500,228.000,430.000,387.000
1.597,340.500,228.000,430.500,387.500
1.598,340.000,228.500,432.000,389.000
1.599,340.000,229.500,433.500,390.500
1.600,340.500,230.500,435.500,392.500
1.601,341.000,232.000,437.500,395.000
1.602,342.000,233.000,439.500,398.000
1.603,343.000,234.500,441.500,401.000
1.604,344.000,235.500,443.500,404.000
1.605,345.000,236.500,446.000,407.000
1.606,346.000,238.000,448.000,409.500
1.607,347.000,239.000,450.000,412.000
1.608,348.000,239.500,451.500,413.000
1.609,348.500,240.500,452.000,413.500
1.610,349.500,241.500,452.500,413.500
1.611,350.000,242.000,452.500,413.000
1.612,351.000,243.000,452.500,413.000
1.613,351.500,244.000,453.000,413.000
1.614,352.500,245.500,453.500,413.000
1.615,353.000,246.500,454.000,413.500
1.616,353.500,247.500,455.000,413.500
1.617,354.000,248.500,455.500,414.000
1.618,354.500,249.000,455.500,413.500
1.619,355.000,249.500,455.500,413.000
1.620,356.000,249.500,455.500,412.500
1.621,356.500,249.500,455.000,411.500
1.622,357.500,250.000,455.000,411.000
1.623,358.500,250.500,455.000,410.000
1.624,359.000,251.000,455.000,409.500
1.625,359.500,251.000,455.000,408.500
1.626,360.500,251.500,454.500,407.000
1.627,360.500,251.500,454.000,406.000
1.628,361.000,251.000,453.500,404.500
1.629,361.000,250.500,452.500,403.000
1.630,360.500,250.000,451.500,402.000
1.631,360.000,249.500,450.500,401.000
1.632,359.500,249.000,450.000,400.000
1.633,359.000,248.500,449.000,399.500
1.634,358.500,247.500,448.500,399.500
1.635,357.500,247.000,448.000,399.000
1.636,356.500,246.000,447.500,399.000
1.637,356.000,245.500,446.500,398.000
1.638,355.000,245.000,445.500,397.500
1.639,354.000,244.500,444.500,397.000
1.640,353.500,244.000,444.000,397.000
1.641,353.000,243.500,444.500,397.000
1.642,353.000,244.000,445.000,397.000
1.643,352.500,244.000,445.500,397.500
1.644,352.500,244.500,446.000,398.000
1.645,352.500,244.500,446.000,398.000
1.646,353.000,244.500,446.000,398.000
1.647,352.500,244.500,446.000,397.500
1.648,352.500,244.000,446.000,397.500
1.649,352.000,244.000,446.500,397.500
1.650,351.500,243.500,446.000,397.000
1.651,351.000,243.000,445.500,396.500
1.652,350.000,242.500,444.500,395.500
1.653,349.500,242.000,443.500,394.500
1.654,349.000,242.000,442.500,393.500
1.655,348.500,242.000,442.500,393.000
1.656,348.500,242.000,442.500,393.000
1.657,348.000,242.500,442.500,393.500
1.658,347.500,242.500,443.000,393.500
1.659,347.500,243.000,443.000,393.500
1.660,347.500,243.000,442.500,393.500
1.661,347.500,243.000,442.500,393.500
1.662,348.000,243.500,443.000,394.000
1.663,348.500,244.000,443.500,394.500
1.664,349.000,244.500,444.500,395.500
1.665,349.500,245.500,445.500,396.000
1.666,350.000,246.000,446.500,397.000
1.667,350.000,246.000,447.000,397.000
1.668,350.500,246.000,447.000,397.500
1.669,350.500,245.500,447.000,397.000
1.670,350.500,244.500,447.000,396.500
1.671,350.500,244.000,446.500,396.000
1.672,350.500,243.000,445.500,395.500
1.673,350.000,242.500,445.000,395.000
1.674,349.500,242.000,444.000,394.500
1.675,349.000,241.500,443.500,394.000
1.676,348.500,241.500,443.000,393.500
1.677,348.500,242.000,443.000,393.500
1.678,348.500,242.500,444.000,394.000
1.679,348.000,243.500,444.500,394.500
1.680,348.500,244.000,445.000,395.000
1.681,348.500,245.000,445.500,395.500
1.682,348.500,245.500,446.000,396.000
1.683,349.000,246.000,446.500,396.000
1.684,349.500,246.000,446.500,395.500
1.685,349.500,246.500,447.000,395.500
1.686,350.000,246.500,447.000,395.000
1.687,350.000,246.500,447.500,395.500
1.688,350.000,247.000,448.000,395.500
1.689,349.500,247.000,448.500,395.500
1.690,349.500,246.500,448.500,395.500
1.691,349.000,246.500,448.500,395.500
1.692,348.500,246.000,448.000,395.500
1.693,348.000,245.500,447.500,395.000
1.694,347.500,245.000,447.000,395.000
1.695,347.000,244.500,446.500,394.500
1.696,346.500,243.500,446.000,394.500
1.697,346.000,243.000,446.000,394.000
1.698,346.000,242.500,446.000,394.000
1.699,346.000,242.500,446.000,393.500
1.700,346.000,242.500,445.500,393.500
1.701,346.500,243.000,445.500,393.500
1.702,347.000,243.500,446.000,393.500
1.703,348.000,244.000,446.000,393.500
1.704,348.500,244.500,446.500,393.500
1.705,349.000,245.000,446.500,393.500
1.706,349.000,245.500,447.000,393.500
1.707,349.000,246.000,447.000,393.500
1.708,349.000,246.500,447.000,393.000
1.709,348.500,246.500,447.000,392.500
1.710,348.000,246.000,447.000,392.000
1.711,347.000,246.000,447.000,391.500
1.712,346.500,245.500,446.500,391.000
1.713,346.000,245.000,445.500,391.000
1.714,345.500,244.000,445.000,391.000
1.715,344.500,243.500,444.500,391.000
1.716,343.500,243.000,444.000,391.500
1.717,343.000,242.500,443.500,391.500
1.718,342.500,242.500,443.500,391.500
1.719,342.500,242.500,443.500,391.500
1.720,342.500,242.500,444.500,392.000
1.721,342.500,243.000,445.000,392.000
1.722,343.000,243.500,446.500,392.500
1.723,343.500,244.500,447.500,393.000
1.724,344.000,245.000,448.000,393.000
1.725,344.000,245.500,448.500,393.000
1.726,344.500,246.000,449.000,393.000
1.727,344.000,246.500,448.500,393.000
1.728,344.000,246.500,448.500,392.500
1.729,344.000,246.500,448.000,392.500
1.730,343.500,246.500,448.000,392.500
1.731,343.000,246.500,447.500,392.000
1.732,343.000,246.000,446.500,391.500
1.733,342.500,245.500,445.500,390.500
1.734,341.500,245.000,444.000,390.000
1.735,341.500,244.500,443.000,389.000
1.736,341.000,244.500,443.000,389.000
1.737,341.000,244.500,443.000,389.000
1.738,341.500,244.500,443.000,389.500
1.739,342.000,244.500,444.000,390.000
1.740,342.500,245.000,444.500,390.500
1.741,342.500,245.000,445.500,391.500
1.742,343.000,245.500,446.500,392.000
1.743,343.000,245.500,447.500,393.000
1.744,343.500,246.000,448.000,393.500
1.745,343.500,246.500,449.000,394.000
1.746,344.000,247.000,449.500,394.500
1.747,344.500,247.500,450.000,394.000
1.748,345.000,248.000,450.000,394.000
1.749,345.000,248.500,449.500,393.500
1.750,345.000,248.000,449.000,393.000
1.751,345.000,248.000,448.500,392.500
1.752,344.500,248.000,448.000,392.500
1.753,344.000,248.000,447.500,392.500
1.754,343.500,248.000,447.500,393.000
1.755,342.500,248.000,448.000,393.500
1.756,342.000,248.000,448.000,393.500
1.757,341.500,248.000,448.500,394.000
1.758,341.500,248.000,448.500,394.000
1.759,341.000,248.000,448.500,394.000
1.760,341.500,248.500,449.000,394.000
1.761,341.500,249.000,449.500,394.500
1.762,342.000,249.500,450.500,395.500
1.763,342.500,250.500,451.500,396.000
1.764,343.000,251.000,452.500,397.000
1.765,343.500,251.500,453.000,397.500
1.766,343.500,251.500,453.500,397.500
1.767,343.500,251.500,453.000,398.000
1.768,344.000,251.500,453.000,397.500
1.769,344.000,251.500,453.000,397.500
1.770,344.000,251.500,453.000,397.000
1.771,344.000,252.000,453.000,397.000
1.772,343.500,252.000,453.500,397.500
1.773,343.500,252.000,453.500,397.500
1.774,343.000,252.000,453.500,397.500
1.775,343.000,252.000,453.000,397.500
1.776,342.500,252.000,452.500,397.500
1.777,342.500,252.000,452.000,397.000
1.778,342.500,251.500,451.500,396.500
1.779,342.000,252.000,451.000,396.000
1.780,342.500,252.000,451.000,396.000
1.781,342.500,252.000,451.500,395.500
1.782,343.000,252.500,452.000,395.500
1.783,343.000,253.000,452.500,396.000
1.784,343.500,253.500,453.000,396.000
1.785,344.000,253.500,453.500,396.500
1.786,344.500,254.000,454.500,397.000
1.787,345.000,254.500,455.000,397.000
1.788,345.000,254.500,455.500,397.500
1.789,345.000,254.500,456.000,397.500
1.790,345.000,254.500,456.000,397.500
1.791,344.500,254.000,455.500,397.500
1.792,344.000,253.500,455.500,397.500
1.793,343.500,253.000,455.000,397.500
1.794,343.000,252.500,455.000,397.500
1.795,342.500,252.500,454.500,397.500
1.796,342.000,252.500,454.500,397.500
1.797,341.500,252.500,454.000,398.000
1.798,341.500,253.000,454.500,398.000
1.799,341.500,254.000,454.500,398.500
1.800,341.500,255.000,455.500,399.000
1.801,342.000,256.000,456.000,399.500
1.802,342.500,257.000,457.000,400.000
1.803,343.000,257.500,458.000,400.500
1.804,343.500,258.500,459.000,400.500
1.805,344.000,259.000,459.500,400.500
1.806,344.000,259.000,459.500,400.500
1.807,344.000,259.000,460.000,400.500
1.808,344.000,259.000,460.000,400.500
1.809,343.500,259.000,460.000,400.500
1.810,343.000,259.000,460.000,400.500
1.811,343.000,259.000,459.500,400.500
1.812,342.500,259.000,459.500,400.500
1.813,342.000,259.000,459.000,400.500
1.814,341.500,259.000,458.500,400.500
1.815,341.000,259.000,458.500,400.000
1.816,341.000,259.000,458.000,400.000
1.817,341.000,259.000,458.000,400.000
1.818,341.000,259.000,457.500,399.500
1.819,341.000,259.500,457.500,399.500
1.820,341.000,260.000,458.500,399.500
1.821,341.500,261.500,459.500,400.500
1.822,341.500,262.500,461.000,401.000
1.823,342.000,263.000,462.000,402.000
1.824,342.000,263.500,462.500,402.500
1.825,342.000,263.500,463.000,403.000
1.826,342.000,263.000,462.500,403.000
1.827,342.000,262.500,462.500,403.000
1.828,341.500,262.000,462.000,403.500
1.829,341.500,261.000,461.500,403.000
1.830,341.500,260.500,461.000,403.000
1.831,341.500,260.000,460.500,402.500
1.832,341.500,259.500,460.500,402.000
1.833,341.000,259.000,460.000,401.500
1.834,341.000,258.500,459.000,401.000
1.835,340.500,258.000,458.500,400.000
1.836,340.000,257.500,458.000,399.500
1.837,339.000,257.000,457.500,399.000
1.838,338.500,257.000,457.000,399.000
1.839,338.500,257.000,457.000,399.000
1.840,338.500,257.500,457.000,399.500
1.841,339.000,258.000,457.500,400.000
1.842,339.000,259.000,458.000,400.500
1.843,340.000,260.000,459.000,401.000
1.844,340.500,260.500,459.500,401.500
1.845,341.000,261.500,460.000,401.500
1.846,341.500,261.500,460.000,401.500
1.847,342.000,262.000,460.000,401.500
1.848,342.000,262.000,460.000,401.500
1.849,342.000,262.000,460.000,401.000
1.850,341.500,261.500,460.000,400.500
1.851,340.500,261.000,459.500,400.000
1.852,340.000,260.500,459.000,399.000
1.853,339.000,260.000,458.500,398.500
1.854,338.500,260.000,458.500,398.500
1.855,338.000,260.000,458.500,398.500
1.856,337.500,260.000,458.500,398.500
1.857,337.000,260.000,459.000,399.000
1.858,336.500,260.000,459.000,399.500
1.859,336.500,260.500,459.500,400.000
1.860,336.000,260.500,460.000,400.000
1.861,336.000,260.500,460.500,400.500
1.862,336.000,261.000,461.000,401.000
1.863,336.500,261.000,462.000,401.500
1.864,337.000,261.500,462.500,402.000
1.865,337.500,261.500,463.000,402.500
1.866,338.000,261.500,463.000,402.500
1.867,338.500,261.500,463.000,402.500
1.868,338.500,262.000,463.000,402.000
1.869,339.000,261.500,462.500,401.500
1.870,339.000,261.500,462.000,401.000
1.871,338.500,261.000,461.000,400.000
1.872,338.500,260.500,460.000,399.000
1.873,338.000,260.000,459.500,398.000
1.874,337.500,260.000,459.000,397.000
1.875,337.500,260.000,459.000,396.500
1.876,337.500,260.000,459.000,396.000
1.877,337.500,260.500,459.500,395.500
1.878,337.500,260.500,460.000,395.500
1.879,337.500,261.500,460.500,396.000
1.880,337.000,262.000,461.000,396.000
1.881,337.000,262.500,462.000,396.500
1.882,337.500,263.500,463.000,397.000
1.883,337.500,264.000,464.000,397.500
1.884,338.000,265.000,464.500,398.000
1.885,338.500,265.500,465.500,398.500
1.886,338.500,265.500,465.500,398.500
1.887,339.000,266.000,466.000,398.500
1.888,339.000,266.000,466.000,398.500
1.889,339.000,266.000,466.000,398.500
1.890,339.000,266.000,465.500,398.000
1.891,339.000,265.500,465.000,397.500
1.892,338.500,265.500,464.000,397.000
1.893,338.500,264.500,463.000,396.500
1.894,338.000,264.000,462.000,396.000
1.895,338.000,263.500,462.000,396.000
1.896,337.500,263.000,462.000,396.000
1.897,337.000,263.000,462.000,396.000
1.898,337.000,262.500,462.000,396.500
1.899,336.500,263.000,462.000,396.500
1.900,337.000,263.000,462.000,396.000
1.901,337.000,263.500,461.500,395.500
1.902,337.500,264.000,461.500,395.500
1.903,338.000,264.500,461.500,395.000
1.904,338.500,265.500,462.500,395.500
1.905,339.000,266.500,463.000,395.500
1.906,339.500,267.000,464.000,395.500
1.907,339.500,267.500,464.500,396.000
1.908,339.500,267.500,464.500,396.000
1.909,339.500,267.500,464.500,396.000
1.910,339.500,267.500,464.500,396.000
1.911,339.500,267.500,464.500,396.000
1.912,339.000,267.000,464.000,396.000
1.913,338.000,267.000,464.000,396.000
1.914,337.500,266.500,464.000,396.500
1.915,337.000,266.500,464.500,397.000
1.916,336.500,267.000,465.000,397.500
1.917,336.000,267.000,465.500,398.000
1.918,335.500,267.500,465.500,398.000
1.919,335.500,268.000,466.000,398.000
1.920,335.500,269.000,466.500,398.000
1.921,335.500,269.500,467.000,398.500
1.922,336.000,270.000,467.500,399.000
1.923,336.500,270.500,468.500,399.500
1.924,337.000,271.000,469.000,400.000
1.925,338.000,271.000,469.000,400.000
1.926,338.500,271.000,469.000,400.000
1.927,339.000,271.000,469.000,400.000
1.928,339.500,270.500,469.000,400.000
1.929,340.000,270.500,469.000,400.000
1.930,340.000,270.000,469.000,400.000
1.931,340.000,269.500,469.500,400.000
1.932,339.500,269.000,469.500,400.500
1.933,339.000,268.500,469.500,400.500
1.934,338.500,268.000,469.500,400.500
1.935,338.000,267.500,469.000,400.500
1.936,338.000,267.500,468.500,400.000
1.937,338.000,268.000,468.000,399.000
1.938,338.000,268.500,467.500,399.000
1.939,338.000,269.000,467.000,399.000
1.940,338.000,270.000,467.000,399.500
1.941,338.000,270.500,467.000,400.000
1.942,338.500,270.500,467.500,400.500
1.943,338.500,271.000,468.000,401.500
1.944,339.000,271.500,468.500,402.000
1.945,339.000,272.000,469.500,403.000
1.946,339.500,272.500,470.500,403.500
1.947,339.500,273.000,471.500,404.000
1.948,339.500,273.000,472.500,404.500
1.949,339.500,273.500,473.000,404.500
1.950,339.500,273.500,473.500,404.000
1.951,339.000,273.500,473.500,404.000
1.952,339.000,273.500,473.500,403.500
1.953,338.500,273.500,473.000,403.500
1.954,338.000,273.500,472.500,403.000
1.955,337.500,273.000,472.000,402.500
1.956,337.000,272.500,471.500,402.000
1.957,337.000,272.000,471.000,401.500
1.958,336.500,272.000,470.500,401.500
1.959,336.500,272.000,470.500,401.500
1.960,336.500,272.500,471.000,402.000
1.961,337.000,273.000,471.500,402.500
1.962,337.500,273.500,472.000,403.000
1.963,337.500,274.000,472.500,403.500
1.964,338.000,274.500,473.000,403.500
1.965,338.500,275.000,473.500,403.500
1.966,339.000,275.500,474.000,404.000
1.967,339.000,276.000,475.000,404.500
1.968,339.500,276.000,475.500,404.500
1.969,339.500,276.000,475.000,404.500
1.970,339.500,275.500,475.000,404.000
1.971,339.500,275.000,474.500,403.500
1.972,339.000,274.500,474.000,403.000
1.973,338.500,274.000,474.000,402.500
1.974,338.000,274.000,473.500,402.500
1.975,337.500,273.500,473.500,402.500
1.976,337.000,273.500,473.500,402.500
1.977,336.500,273.500,473.500,403.000
1.978,336.500,273.500,473.500,402.500
1.979,336.500,273.500,473.500,402.500
1.980,336.500,273.500,473.000,402.500
1.981,337.000,274.000,473.000,402.500
1.982,337.500,274.500,473.500,402.500
1.983,338.000,274.500,474.000,403.000
1.984,338.500,275.000,475.000,404.000
1.985,339.000,275.500,475.500,404.000
1.986,339.000,276.000,476.000,404.500
1.987,339.000,276.000,475.500,404.000
1.988,339.000,275.500,475.000,403.500
1.989,338.500,275.500,474.500,403.000
1.990,338.500,275.500,474.000,402.500
1.991,338.000,275.500,474.000,402.500
1.992,337.500,275.000,474.000,402.500
1.993,337.000,275.000,473.500,402.500
1.994,337.000,274.500,473.500,402.500
1.995,337.000,274.500,473.000,402.500
1.996,337.000,274.500,473.000,402.500
1.997,337.000,274.500,473.000,403.000
1.998,337.500,275.000,473.500,403.500
1.999,337.500,275.500,474.000,404.000
2.000,338.000,275.500,474.500,404.500
2.001,338.000,275.500,475.000,405.000
2.002,338.500,275.500,475.000,405.500
2.003,339.000,275.000,475.000,405.500
2.004,339.500,275.000,475.000,405.500
2.005,340.000,275.000,475.000,405.500
2.006,340.000,275.000,475.500,406.000
2.007,340.000,275.000,475.500,406.000
2.008,340.500,275.000,475.500,406.500
2.009,340.500,275.500,475.500,406.500
2.010,340.500,276.000,475.500,406.500
2.011,340.000,276.000,475.500,406.500
2.012,340.000,276.000,475.500,406.000
2.013,339.500,276.000,475.500,406.000
2.014,339.000,276.500,475.500,406.000
2.015,338.500,276.000,475.000,406.000
2.016,338.500,276.000,475.000,406.000
2.017,338.000,276.000,474.500,406.000
2.018,338.000,276.000,474.000,406.000
2.019,338.000,276.000,473.500,406.000
2.020,338.000,276.000,473.500,406.500
2.021,338.500,276.000,473.500,406.500
2.022,339.000,276.000,474.000,406.500
2.023,339.500,276.500,474.500,407.000
2.024,340.500,277.000,475.000,407.000
2.025,341.000,277.500,475.500,407.500
2.026,342.000,277.500,476.000,408.000
2.027,342.500,277.500,476.000,408.000
2.028,342.500,277.000,476.000,408.000
2.029,343.000,276.500,475.500,407.500
2.030,342.500,275.500,475.000,407.500
2.031,342.000,274.500,474.500,407.000
2.032,341.500,274.000,474.000,407.000
2.033,341.000,273.000,473.500,406.500
2.034,340.500,273.000,473.000,406.500
2.035,340.000,273.000,472.500,406.500
2.036,339.500,273.500,472.500,407.000
2.037,339.500,274.000,473.000,407.500
2.038,339.500,275.000,473.000,408.000
2.039,340.000,275.500,473.500,408.500
2.040,340.500,276.000,473.500,409.000
2.041,341.000,276.000,474.000,409.000
2.042,341.500,276.000,474.000,409.500
2.043,342.500,276.500,474.500,409.500
2.044,343.000,276.500,475.000,410.000
2.045,343.000,276.500,475.500,410.500
2.046,343.000,276.500,476.000,410.500
2.047,343.000,276.500,476.500,411.000
2.048,343.500,277.000,476.500,411.000
2.049,343.500,277.000,477.000,410.500
2.050,343.500,277.500,477.000,410.500
2.051,343.500,277.500,477.000,410.500
2.052,343.000,277.500,476.000,410.000
2.053,342.500,277.500,474.500,409.500
2.054,342.000,276.500,473.000,409.000
2.055,341.500,276.000,471.500,408.000
2.056,341.000,274.500,470.000,407.500
2.057,341.000,273.500,469.000,407.500
2.058,340.500,273.000,468.500,408.000
2.059,341.000,272.500,468.000,408.500
2.060,341.000,272.000,468.500,409.000
2.061,341.500,272.500,469.000,409.500
2.062,342.000,272.500,470.000,410.000
2.063,342.500,273.500,471.000,410.500
2.064,343.000,274.000,472.000,411.000
2.065,343.500,274.500,472.500,411.500
2.066,344.000,275.000,472.500,412.000
2.067,344.000,275.500,473.000,412.500
2.068,344.500,275.500,473.000,412.500
2.069,344.500,275.500,473.500,413.000
2.070,344.500,275.500,473.500,413.000
2.071,344.000,275.500,473.000,413.000
2.072,344.000,275.000,472.500,413.000
2.073,343.500,275.000,471.500,412.500
2.074,343.000,274.500,471.000,412.000
2.075,342.500,274.000,470.500,412.000
2.076,342.000,274.000,470.000,411.500
2.077,342.000,274.000,470.000,412.000
2.078,342.000,274.500,470.500,412.500
2.079,342.000,275.000,471.000,413.000
2.080,342.500,275.000,471.000,413.500
2.081,342.500,275.500,471.500,414.000
2.082,343.000,276.000,472.000,414.500
2.083,343.500,277.000,472.500,415.000
2.084,344.000,277.500,472.500,415.000
2.085,344.500,278.500,473.000,415.500
2.086,344.500,279.000,473.500,415.500
2.087,345.000,279.500,474.000,416.000
2.088,345.000,279.500,474.000,416.000
2.089,345.500,279.000,474.000,415.500
2.090,345.500,279.000,473.500,415.500
2.091,345.500,278.500,473.000,415.500
2.092,345.000,278.000,472.500,415.000
2.093,345.000,278.000,472.500,415.000
2.094,345.000,277.500,472.000,415.000
2.095,345.000,277.000,471.500,415.000
2.096,345.000,276.500,471.000,415.000
2.097,345.000,276.000,470.500,415.000
2.098,345.000,275.500,470.500,415.000
2.099,345.000,275.000,470.500,415.000
2.100,345.500,275.000,470.500,415.000
2.101,345.500,275.000,470.500,415.500
2.102,346.000,275.000,471.000,415.500
2.103,346.500,275.500,471.500,416.000
2.104,347.000,276.500,472.000,416.500
2.105,347.500,277.500,473.000,417.500
2.106,348.000,278.500,473.500,418.000
2.107,348.000,279.500,474.500,419.000
2.108,348.000,280.000,475.000,419.000
2.109,348.000,280.500,475.500,419.500
2.110,348.000,280.500,475.500,419.500
2.111,347.500,280.500,475.500,419.500
2.112,347.000,280.000,475.500,419.500
2.113,347.000,280.000,475.000,419.500
2.114,347.000,279.500,475.000,419.500
2.115,346.500,279.000,474.500,419.500
2.116,346.500,278.500,474.000,419.500
2.117,346.500,278.000,473.500,419.000
2.118,346.500,277.500,473.000,419.000
2.119,346.500,277.000,472.500,418.500
2.120,346.500,276.500,472.000,418.000
2.121,346.500,276.500,471.500,418.000
2.122,347.000,276.500,472.000,418.500
2.123,347.500,277.000,472.500,419.000
2.124,348.500,277.500,473.000,419.500
2.125,349.000,278.500,473.500,420.000
2.126,349.500,279.500,474.000,420.500
2.127,350.000,280.500,474.500,421.000
2.128,350.500,281.000,475.000,421.500
2.129,350.500,281.000,475.000,421.500
2.130,350.000,281.000,475.000,422.000
2.131,349.500,281.000,474.500,421.500
2.132,349.000,280.500,473.500,421.500
2.133,348.500,280.500,473.000,421.500
2.134,348.000,280.500,472.500,421.000
2.135,347.500,280.500,472.500,421.000
2.136,347.000,280.000,472.000,421.000
2.137,347.500,280.000,472.000,421.000
2.138,347.500,280.000,471.500,421.000
2.139,347.500,280.000,471.000,421.000
2.140,348.000,280.000,470.500,421.000
2.141,348.500,280.000,470.500,421.000
2.142,348.500,280.000,471.000,421.000
2.143,349.000,280.000,471.000,421.000
2.144,349.500,280.000,471.500,421.000
2.145,349.500,280.000,472.000,421.500
2.146,350.000,280.000,472.500,422.000
2.147,350.000,280.000,473.000,422.500
2.148,350.500,280.000,473.000,423.000
2.149,350.500,279.500,473.000,423.000
2.150,350.500,279.500,473.000,422.500
2.151,350.500,279.000,472.500,422.500
2.152,350.000,279.000,472.000,422.500
2.153,349.500,278.500,471.500,422.000
2.154,349.500,278.500,471.000,422.000
2.155,349.000,278.500,470.500,422.000
2.156,348.500,278.000,470.000,422.000
2.157,348.500,278.500,470.000,422.000
2.158,348.500,278.500,470.500,422.500
2.159,348.500,279.000,471.000,423.000
2.160,348.500,279.500,471.500,423.500
2.161,349.000,280.000,472.000,424.000
2.162,349.500,280.000,473.000,424.500
2.163,350.500,280.500,473.500,425.000
2.164,351.500,281.000,474.000,425.500
2.165,352.000,282.000,475.000,425.500
2.166,353.000,282.500,476.000,426.000
2.167,353.000,283.500,476.500,426.500
2.168,353.500,284.000,477.000,426.500
2.169,353.500,284.500,477.000,426.500
2.170,353.000,284.000,476.500,426.500
2.171,352.500,283.000,475.500,426.000
2.172,352.000,281.500,474.000,425.500
2.173,351.500,280.500,472.500,425.500
2.174,351.000,279.500,471.500,425.000
2.175,350.500,279.000,471.000,425.500
2.176,350.000,278.500,470.500,425.500
2.177,349.500,278.000,470.500,425.500
2.178,349.000,278.000,470.500,425.000
2.179,349.000,278.000,470.500,425.000
2.180,349.000,278.500,470.500,425.000
2.181,349.000,278.500,470.500,425.000
2.182,349.000,278.500,470.500,424.500
2.183,349.500,278.500,471.000,424.500
2.184,349.500,278.500,471.000,424.500
2.185,350.000,278.500,471.500,425.000
2.186,350.000,279.000,472.000,425.000
2.187,350.000,278.500,472.000,425.500
2.188,350.000,278.000,472.000,425.500
2.189,349.500,277.000,471.500,425.000
2.190,349.000,276.000,471.000,424.500
2.191,348.000,275.000,470.500,424.500
2.192,347.000,274.500,469.500,424.000
2.193,346.500,273.500,469.000,424.000
2.194,346.000,273.000,468.000,424.000
2.195,345.500,272.000,467.500,424.000
2.196,345.000,271.500,467.000,424.000
2.197,344.500,271.500,467.000,423.500
2.198,344.500,271.000,466.500,423.500
2.199,344.000,270.500,466.500,423.500
2.200,344.000,270.000,466.500,424.000
2.201,344.000,270.000,467.000,425.000
2.202,344.000,270.500,467.500,426.500
2.203,344.500,271.000,469.000,428.000
2.204,345.000,272.000,470.500,430.000
2.205,346.000,273.500,472.500,432.500
2.206,347.500,275.000,474.500,435.000
2.207,348.500,277.000,476.500,438.000
2.208,350.000,279.500,479.000,440.500
2.209,351.000,281.500,481.000,443.000
2.210,352.000,283.000,483.000,445.000
2.211,353.000,284.500,484.500,446.500
2.212,354.000,285.500,485.500,447.500
2.213,354.500,286.500,486.500,448.500
2.214,355.500,287.000,487.000,449.500
2.215,356.000,288.000,487.500,450.000
2.216,357.000,288.500,488.000,450.500
2.217,357.500,289.500,488.000,451.500
2.218,358.000,290.000,488.500,451.500
2.219,359.000,291.000,488.500,452.000
2.220,359.500,291.500,488.500,452.000
2.221,360.500,292.500,489.000,452.500
2.222,362.000,293.000,489.500,452.500
2.223,363.500,294.000,489.500,452.000
2.224,364.500,294.500,490.000,451.500
2.225,365.500,295.000,489.500,450.500
2.226,366.500,295.000,488.500,449.000
2.227,367.500,295.000,487.500,447.500
2.228,368.000,294.500,486.500,446.000
2.229,368.000,294.000,485.500,445.000
2.230,368.500,293.500,484.500,444.000
2.231,368.500,292.500,483.500,443.000
2.232,368.500,291.500,482.500,442.000
2.233,368.000,290.500,481.500,441.000
2.234,367.500,289.500,480.500,440.500
2.235,367.000,288.500,480.000,440.000
2.236,366.500,287.500,479.500,440.000
2.237,365.500,286.500,479.000,439.500
2.238,365.000,285.500,478.000,439.500
2.239,364.500,285.000,477.500,439.000
2.240,364.000,284.500,477.000,439.000
2.241,364.000,284.500,476.500,439.000
2.242,364.000,284.500,476.000,439.000
2.243,364.000,284.500,475.500,438.500
2.244,364.000,284.500,475.500,438.500
2.245,364.000,284.500,475.500,438.500
2.246,364.000,284.500,475.000,438.000
2.247,364.000,284.000,475.000,438.000
2.248,363.500,283.500,474.000,437.500
2.249,363.000,283.000,473.500,437.000
2.250,363.000,282.000,472.500,436.000
2.251,362.500,281.000,471.500,435.500
2.252,362.000,280.500,470.500,435.000
2.253,361.500,279.500,469.500,434.500
2.254,361.000,279.000,468.500,434.500
2.255,360.500,278.500,467.500,434.500
2.256,360.000,278.000,467.000,434.500
2.257,360.000,277.500,467.000,434.500
2.258,360.000,277.500,467.000,435.000
2.259,360.000,278.000,467.500,435.500
2.260,360.500,278.000,468.000,436.000
2.261,360.500,278.500,468.500,436.500
2.262,361.000,278.500,469.000,437.000
2.263,361.500,278.500,469.000,437.000
2.264,362.000,279.000,469.000,437.000
2.265,362.500,279.000,469.000,437.500
2.266,362.500,279.000,469.000,437.500
2.267,363.000,279.500,469.500,437.500
2.268,363.000,280.000,469.500,438.000
2.269,363.000,280.500,470.000,437.500
2.270,363.000,281.000,470.500,437.500
2.271,363.000,281.000,470.500,437.500
2.272,362.500,281.500,470.500,437.500
2.273,362.000,281.500,470.000,437.500
2.274,361.500,281.000,469.500,438.000
2.275,360.500,280.500,469.000,438.000
2.276,359.500,280.000,468.000,438.500
2.277,359.000,279.000,466.500,438.500
2.278,358.500,278.000,465.500,438.500
2.279,358.500,277.500,464.500,438.000
2.280,359.000,277.000,464.000,438.000
2.281,360.000,276.500,464.000,438.500
2.282,361.500,277.000,464.500,438.500
2.283,362.500,277.000,465.500,439.000
2.284,364.000,277.500,466.000,439.500
2.285,365.000,278.000,467.000,439.500
2.286,366.000,278.000,467.000,440.000
2.287,366.500,278.000,467.500,439.500
2.288,367.000,277.500,467.000,439.000
2.289,367.000,277.000,466.500,438.500
2.290,367.000,276.500,465.500,438.000
2.291,367.000,276.000,465.000,438.000
2.292,366.500,276.000,464.500,438.000
2.293,366.000,276.000,464.000,438.000
2.294,366.000,276.000,463.500,438.000
2.295,365.500,276.500,463.000,438.500
2.296,365.000,276.500,463.000,439.000
2.297,365.000,277.000,463.000,439.500
2.298,364.500,277.500,463.000,439.500
2.299,364.500,277.500,463.500,440.000
2.300,365.000,278.000,464.000,440.500
2.301,365.000,278.500,464.500,441.000
2.302,365.500,278.500,464.500,441.500
2.303,366.000,279.000,465.000,442.000
2.304,367.000,279.500,465.000,442.000
2.305,367.500,280.000,465.000,442.000
2.306,368.000,280.000,465.000,442.000
2.307,368.500,280.500,465.000,442.500
2.308,368.500,281.000,465.000,443.000
2.309,369.000,281.000,465.000,443.000
2.310,369.000,281.000,465.000,443.500
2.311,369.000,280.500,465.000,443.500
2.312,368.500,280.500,464.500,443.500
2.313,368.500,280.000,464.000,443.500
2.314,368.000,279.500,463.500,443.500
2.315,368.000,279.000,463.000,443.500
2.316,367.500,279.000,462.500,443.500
2.317,367.500,278.500,462.500,444.000
2.318,367.500,279.000,462.500,444.000
2.319,368.000,279.000,462.500,444.500
2.320,368.000,279.500,463.000,444.500
2.321,368.500,280.000,463.500,445.000
2.322,369.500,280.500,464.000,445.500
2.323,370.000,281.000,464.000,446.000
2.324,370.500,281.500,464.500,446.000
2.325,371.000,282.000,464.500,446.000
2.326,371.500,282.500,464.500,446.000
2.327,372.000,283.000,464.500,446.000
2.328,372.500,283.000,464.500,446.500
2.329,372.500,283.500,465.000,446.500
2.330,373.000,283.000,465.000,447.000
2.331,373.000,283.000,465.000,447.000
2.332,373.000,282.000,464.500,447.000
2.333,373.000,281.500,463.500,446.500
2.334,372.500,280.500,463.000,446.000
2.335,372.500,279.500,462.000,445.000
2.336,372.500,278.500,461.000,444.500
2.337,372.000,278.000,460.500,444.500
2.338,372.000,278.000,460.000,444.500
2.339,371.500,278.000,460.000,444.500
2.340,371.500,278.000,460.000,445.000
2.341,372.000,278.000,460.000,445.000
2.342,372.500,278.500,460.000,445.000
2.343,373.000,279.000,460.000,445.000
2.344,373.500,279.500,460.500,445.500
2.345,374.000,280.000,461.000,446.000
2.346,374.000,280.500,461.500,446.500
2.347,374.500,280.500,461.500,447.000
2.348,374.500,280.500,461.500,447.000
2.349,375.000,280.500,461.000,447.000
2.350,375.000,280.000,460.500,446.500
2.351,375.000,279.500,460.000,446.500
2.352,374.500,279.000,459.500,446.000
2.353,374.500,279.000,459.000,446.000
2.354,374.000,278.500,458.500,446.500
2.355,373.500,278.500,458.000,446.500
2.356,373.500,278.000,458.000,446.500
2.357,373.000,278.500,458.000,447.000
2.358,373.000,278.500,458.500,447.500
2.359,373.000,279.000,459.000,448.000
2.360,373.000,280.000,459.500,449.000
2.361,373.500,280.500,460.500,450.000
2.362,374.000,281.500,461.500,450.500
2.363,374.500,282.000,462.000,451.000
2.364,375.000,282.500,462.500,451.500
2.365,375.500,283.000,462.500,452.000
2.366,376.000,283.500,463.000,452.500
2.367,376.000,283.500,463.000,452.500
2.368,376.500,283.500,463.000,452.500
2.369,376.500,283.500,463.500,452.500
2.370,376.500,283.500,463.000,452.500
2.371,376.500,283.500,463.000,452.000
2.372,377.000,283.000,462.000,451.500
2.373,376.500,282.500,461.000,451.000
2.374,376.500,281.500,460.500,451.000
2.375,376.000,280.500,459.500,450.500
2.376,375.000,280.000,459.500,451.000
2.377,374.500,279.500,459.500,451.500
2.378,374.500,279.500,459.500,452.000
2.379,374.000,280.000,459.500,452.500
2.380,374.000,280.000,459.500,453.000
2.381,374.500,281.000,459.500,453.000
2.382,375.000,281.500,460.000,454.000
2.383,375.500,282.000,460.500,454.500
2.384,376.500,283.000,461.000,455.000
2.385,377.000,283.500,461.500,455.500
2.386,377.500,283.500,461.500,456.000
2.387,378.000,283.000,462.000,456.000
2.388,378.000,282.500,462.000,456.500
2.389,377.500,282.000,461.500,456.000
2.390,377.500,282.000,461.000,456.000
2.391,377.000,281.500,460.500,455.500
2.392,377.000,281.500,459.500,455.500
2.393,376.500,282.000,459.500,455.000
2.394,376.000,282.500,459.000,455.000
2.395,375.500,283.000,459.000,455.500
2.396,375.500,283.000,459.000,455.500
2.397,375.000,283.000,458.500,456.000
2.398,374.500,283.000,458.000,456.500
2.399,374.500,282.500,458.000,457.000
2.400,375.000,282.000,457.500,457.000
2.401,375.000,281.500,457.000,457.000
2.402,375.500,281.500,456.500,457.000
2.403,376.000,281.000,457.000,457.000
2.404,376.500,281.000,457.000,457.500
2.405,377.000,281.500,457.500,457.500
2.406,377.500,281.500,458.000,458.000
2.407,377.500,282.000,458.000,458.500
2.408,378.000,282.000,458.000,458.500
2.409,377.500,282.000,458.000,458.500
2.410,377.500,281.500,457.000,458.000
2.411,377.000,281.000,456.500,457.500
2.412,376.500,280.500,456.000,457.500
2.413,376.000,280.500,455.500,457.500
2.414,375.500,280.000,455.500,457.500
2.415,375.500,279.500,455.000,457.500
2.416,375.000,279.500,454.500,457.500
2.417,374.500,279.500,454.500,457.500
2.418,374.500,279.500,454.500,457.500
2.419,374.500,279.500,454.500,457.500
2.420,374.500,280.000,454.500,458.000
2.421,375.000,280.000,455.000,458.000
2.422,375.000,280.500,455.500,458.500
2.423,375.500,281.000,456.000,459.000
2.424,376.000,281.500,457.000,460.000
2.425,376.500,282.500,458.000,460.500
2.426,377.000,283.000,459.000,461.500
2.427,377.500,283.500,460.000,462.000
2.428,378.000,283.500,460.500,462.500
2.429,378.000,283.500,460.500,462.500
2.430,378.000,283.000,460.000,462.000
2.431,377.500,282.500,459.000,461.500
2.432,377.500,282.000,458.500,461.500
2.433,377.000,282.000,458.000,461.500
2.434,376.500,281.500,458.000,462.000
2.435,376.000,281.500,458.000,462.000
2.436,376.000,281.500,457.500,462.500
2.437,376.000,281.500,457.500,462.500
2.438,376.000,281.500,457.000,462.500
2.439,376.000,282.000,457.000,463.000
2.440,376.000,282.000,457.000,463.000
2.441,376.500,282.000,457.500,463.500
2.442,377.000,282.000,457.500,463.500
2.443,377.500,281.500,458.000,463.500
2.444,378.000,281.500,458.000,463.500
2.445,378.500,281.500,458.000,463.500
2.446,379.000,281.500,457.500,463.500
2.447,379.500,281.500,457.500,463.500
2.448,379.500,282.000,457.500,463.500
2.449,379.500,282.000,457.500,463.500
2.450,379.500,282.500,457.000,463.000
2.451,379.000,282.500,456.500,462.500
2.452,378.500,282.500,456.000,462.000
2.453,378.000,282.500,455.000,461.500
2.454,377.000,282.000,454.500,461.000
2.455,376.500,281.500,453.500,461.000
2.456,376.500,281.000,453.000,461.000
2.457,376.500,280.500,452.500,461.000
2.458,376.500,280.500,452.500,461.000
2.459,377.000,280.500,452.500,461.500
2.460,378.000,280.500,453.000,462.500
2.461,378.500,281.000,453.500,463.000
2.462,379.000,281.000,454.500,464.000
2.463,379.500,281.500,455.000,464.500
2.464,379.500,281.500,455.500,465.000
2.465,380.000,281.500,456.000,465.000
2.466,380.000,281.500,456.000,465.000
2.467,380.000,282.000,456.000,465.500
2.468,380.000,282.000,456.000,465.000
2.469,380.000,282.500,455.500,465.000
2.470,380.000,282.500,455.000,464.500
2.471,380.000,282.500,454.500,464.000
2.472,379.500,282.500,453.500,463.500
2.473,379.000,282.500,453.000,463.000
2.474,379.000,282.500,452.500,463.000
2.475,378.500,282.000,452.000,462.500
2.476,378.500,282.000,452.000,462.500
2.477,378.500,281.500,452.000,463.000
2.478,378.500,281.500,452.000,463.500
2.479,379.000,281.500,451.500,463.500
2.480,379.000,281.000,451.500,464.000
2.481,379.500,281.000,451.500,464.000
2.482,380.000,280.500,451.500,464.000
2.483,380.000,280.500,451.000,463.500
2.484,380.500,280.500,451.000,463.000
2.485,381.000,280.500,450.500,462.500
2.486,381.500,280.500,450.000,462.000
2.487,381.500,281.000,450.000,461.500
2.488,382.000,281.000,450.000,461.500
2.489,382.000,281.000,450.000,461.500
2.490,382.000,281.000,449.500,461.000
2.491,382.000,281.000,449.000,461.000
2.492,382.000,281.000,449.000,461.000
2.493,381.500,280.500,448.000,460.500
2.494,381.500,280.500,447.500,461.000
2.495,381.500,280.500,447.500,461.000
2.496,381.000,280.500,447.000,461.000
2.497,381.000,280.500,446.500,461.000
2.498,381.000,280.500,446.500,461.000
2.499,381.500,280.500,446.500,461.000
2.500,381.500,281.000,446.500,461.000
2.501,382.000,281.500,447.000,461.000
2.502,383.000,282.500,448.000,461.500
2.503,383.500,283.000,449.500,462.500
2.504,384.500,284.000,450.500,463.000
2.505,385.000,285.000,451.000,464.000
2.506,385.500,285.500,451.500,464.500
2.507,386.000,286.000,451.000,465.000
2.508,386.000,285.500,450.500,465.500
2.509,385.500,285.000,450.000,466.000
2.510,385.000,284.500,449.000,466.000
2.511,385.000,283.500,448.000,465.500
2.512,384.500,283.000,447.500,465.500
2.513,384.000,283.000,446.500,465.000
2.514,383.500,283.000,446.000,464.500
2.515,383.500,282.500,446.000,464.500
2.516,383.000,282.500,446.000,464.000
2.517,382.500,282.500,445.500,464.000
2.518,382.500,282.500,445.500,463.500
2.519,382.500,282.500,445.000,463.000
2.520,383.000,282.500,444.500,463.000
2.521,383.500,283.000,444.500,463.000
2.522,384.000,283.000,445.000,463.500
2.523,384.500,283.500,445.000,463.500
2.524,385.000,283.500,445.000,463.500
2.525,385.500,284.000,445.500,463.500
2.526,385.500,284.000,446.000,464.000
2.527,386.000,284.000,446.000,464.000
2.528,386.000,284.500,446.000,464.500
2.529,386.000,284.000,446.000,464.000
2.530,386.000,284.000,445.500,464.000
2.531,386.000,284.000,445.000,463.500
2.532,386.000,283.500,444.500,463.500
2.533,385.500,283.500,444.000,463.500
2.534,385.000,283.500,443.500,463.000
2.535,384.500,283.500,443.000,463.500
2.536,384.500,283.500,443.000,463.500
2.537,384.000,284.000,443.000,464.000
2.538,383.500,284.500,443.500,464.000
2.539,383.500,285.000,444.000,464.500
2.540,383.500,285.500,444.000,465.000
2.541,384.000,286.000,444.500,465.500
2.542,384.500,286.500,445.000,465.500
2.543,385.000,286.500,445.000,466.000
2.544,385.500,286.500,445.500,466.000
2.545,386.000,286.500,445.500,466.000
2.546,386.500,286.500,446.000,466.000
2.547,387.000,286.000,446.000,466.000
2.548,387.500,286.000,445.500,466.000
2.549,388.000,286.000,445.000,465.500
2.550,388.500,285.500,444.500,465.000
2.551,388.500,285.000,443.500,464.000
2.552,388.500,284.500,442.500,463.500
2.553,388.000,284.500,442.000,463.500
2.554,387.500,284.000,442.000,464.000
2.555,387.000,284.000,442.000,464.000
2.556,387.000,284.000,442.000,464.500
2.557,386.500,284.000,441.500,464.500
2.558,386.500,284.000,441.000,464.000
2.559,386.500,284.500,441.000,464.000
2.560,387.000,285.000,441.000,464.500
2.561,387.500,286.000,441.500,465.000
2.562,388.000,287.000,442.000,465.500
2.563,388.500,287.500,442.500,466.000
2.564,389.500,288.000,443.000,467.000
2.565,390.500,288.500,443.500,467.000
2.566,391.000,289.000,444.500,468.000
2.567,391.500,289.000,445.000,468.500
2.568,392.000,289.000,445.500,469.000
2.569,391.500,288.500,445.500,469.500
2.570,391.500,288.000,445.000,469.500
2.571,390.500,287.500,444.500,469.000
2.572,390.000,287.000,443.500,468.500
2.573,389.500,286.500,442.500,468.000
2.574,389.000,286.000,442.000,468.000
2.575,389.000,286.000,441.500,467.500
2.576,388.500,286.000,441.500,467.500
2.577,388.500,286.000,441.500,467.500
2.578,388.500,286.500,441.500,467.500
2.579,389.000,286.500,441.500,467.500
2.580,389.000,287.000,441.500,467.500
2.581,389.500,287.500,441.000,468.000
2.582,390.000,287.500,441.000,468.000
2.583,390.500,288.000,441.500,468.000
2.584,391.000,288.000,441.500,468.000
2.585,391.500,288.500,441.500,468.000
2.586,392.000,288.500,441.500,467.500
2.587,392.000,288.500,441.500,467.500
2.588,392.000,289.000,441.500,467.500
2.589,392.000,289.000,441.500,468.000
2.590,391.500,289.000,441.500,468.000
2.591,391.500,288.500,441.500,468.000
2.592,391.000,288.000,441.000,467.500
2.593,390.500,288.000,440.500,467.500
2.594,390.500,287.500,440.000,468.000
2.595,390.000,287.500,440.000,468.000
2.596,390.000,287.500,440.500,468.500
2.597,390.000,287.500,440.500,468.500
2.598,390.000,287.500,440.000,468.500
2.599,390.500,288.000,440.000,468.500
2.600,391.000,288.000,440.500,468.500
2.601,391.000,288.500,441.000,468.500
2.602,391.500,289.500,441.500,469.000
2.603,392.000,290.500,442.500,469.500
2.604,393.000,291.500,443.000,470.000
2.605,393.500,292.000,443.500,470.500
2.606,394.000,292.000,443.500,470.500
2.607,394.000,292.000,443.000,470.500
2.608,394.000,291.500,442.500,470.500
2.609,393.500,290.500,442.000,470.500
2.610,393.500,290.000,441.500,470.500
2.611,393.000,289.000,441.000,470.500
2.612,393.000,288.500,440.500,470.500
2.613,392.500,288.000,440.000,470.500
2.614,392.500,288.000,440.000,470.000
2.615,392.500,287.500,439.500,470.000
2.616,392.500,287.500,439.000,469.500
2.617,392.500,287.000,438.500,469.500
2.618,392.500,287.000,437.500,469.000
2.619,393.000,287.000,437.000,469.000
2.620,393.000,287.000,436.500,469.000
2.621,393.500,287.000,436.500,469.000
2.622,394.000,287.500,436.500,469.000
2.623,394.500,288.000,436.500,469.000
2.624,395.000,288.500,437.000,469.500
2.625,395.500,289.000,437.500,470.000
2.626,396.000,289.500,438.000,470.500
2.627,396.500,289.500,438.500,470.500
2.628,396.500,289.500,438.500,470.500
2.629,396.500,289.500,438.000,470.500
2.630,396.500,289.000,438.000,470.000
2.631,396.000,288.500,437.500,470.000
2.632,396.000,288.500,437.000,470.000
2.633,395.500,288.500,437.000,470.000
2.634,395.000,288.500,437.000,470.000
2.635,394.500,288.500,437.000,470.500
2.636,394.000,288.500,437.000,471.000
2.637,393.500,289.000,437.000,471.500
2.638,393.500,289.500,437.000,472.000
2.639,393.500,290.000,437.500,472.500
2.640,394.000,290.500,437.500,473.000
2.641,394.500,291.000,438.000,473.500
2.642,395.000,291.500,438.000,474.000
2.643,396.000,292.000,438.500,474.500
2.644,396.500,292.000,439.000,474.500
2.645,397.000,292.500,439.000,474.500
2.646,397.500,293.000,439.000,474.500
2.647,397.500,293.000,438.500,474.500
2.648,398.000,292.500,438.000,474.000
2.649,398.000,292.500,438.000,474.000
2.650,398.000,292.000,438.000,474.000
2.651,398.000,292.000,438.000,474.000
2.652,397.500,291.500,438.000,474.500
2.653,397.500,291.000,438.000,474.500
2.654,397.000,290.500,438.000,474.500
2.655,396.500,290.000,437.500,474.500
2.656,396.500,289.500,437.000,474.500
2.657,396.000,289.000,436.000,474.000
2.658,396.500,288.500,435.000,473.500
2.659,397.000,288.000,434.000,472.500
2.660,397.500,288.000,433.500,472.500
2.661,398.000,288.500,433.500,472.500
2.662,399.000,289.000,434.000,473.000
2.663,399.500,289.500,434.500,473.500
2.664,400.000,290.000,435.000,474.000
2.665,400.500,290.000,435.000,474.500
2.666,400.500,290.000,435.000,474.500
2.667,401.000,290.000,435.000,474.500
2.668,401.000,290.000,435.000,474.500
2.669,400.500,289.500,435.000,474.500
2.670,400.000,289.000,435.000,474.500
2.671,400.000,289.000,435.000,475.000
2.672,399.500,289.000,434.500,475.000
2.673,399.000,288.500,434.000,474.500
2.674,398.500,288.500,433.500,474.000
2.675,397.500,288.500,433.000,473.500
2.676,397.500,288.000,432.500,473.000
2.677,397.000,288.500,432.000,473.000
2.678,397.000,288.500,432.000,473.000
2.679,397.500,289.000,432.000,473.000
2.680,397.500,289.000,432.000,473.000
2.681,398.000,289.000,432.000,473.000
2.682,398.500,289.500,432.500,473.500
2.683,398.500,289.500,433.000,473.500
2.684,399.000,289.500,433.000,473.500
2.685,399.500,289.500,433.000,473.500
2.686,400.000,289.000,432.500,473.000
2.687,400.500,289.000,432.000,473.000
2.688,401.000,288.500,431.500,472.500
2.689,400.500,288.500,431.000,472.500
2.690,400.500,288.000,431.000,472.500
2.691,400.000,287.500,430.500,473.000
2.692,399.500,287.500,430.500,473.500
2.693,399.000,287.000,430.500,474.000
2.694,398.500,287.000,431.000,475.000
2.695,398.000,287.000,431.000,476.000
2.696,397.500,287.000,431.000,476.500
2.697,397.000,287.000,431.000,477.500
2.698,397.000,287.000,431.000,477.500
2.699,397.000,287.000,431.000,478.000
2.700,397.500,287.500,431.000,478.500
2.701,398.000,288.000,431.500,478.500
2.702,398.500,288.500,432.000,479.000
2.703,399.500,289.000,432.500,479.500
2.704,400.000,289.500,433.000,479.500
2.705,400.500,289.500,433.500,480.000
2.706,401.000,290.000,433.500,480.000
2.707,401.500,290.000,433.000,479.500
2.708,402.000,290.000,432.500,479.000
2.709,402.500,290.000,432.000,478.000
2.710,402.500,290.500,431.500,477.000
2.711,402.000,290.500,431.000,476.500
2.712,402.000,291.000,430.500,476.000
2.713,401.500,291.000,430.000,476.500
2.714,401.000,291.000,429.500,476.500
2.715,400.500,290.500,429.000,477.000
2.716,400.000,290.000,428.500,477.000
2.717,399.500,289.500,428.000,477.000
2.718,399.000,288.500,427.500,477.000
2.719,399.000,288.500,427.000,477.000
2.720,399.000,288.000,426.500,477.500
2.721,399.500,288.500,427.000,478.000
2.722,400.000,289.000,427.500,478.500
2.723,400.500,289.500,428.500,479.000
2.724,400.500,290.000,429.000,479.000
2.725,401.000,290.500,429.500,479.500
2.726,401.500,291.000,430.000,479.500
2.727,401.500,291.000,429.500,479.500
2.728,401.500,291.000,429.000,479.000
2.729,402.000,290.500,428.500,478.500
2.730,402.000,290.000,427.500,477.500
2.731,402.000,289.500,427.000,477.000
2.732,401.500,289.500,426.500,477.000
2.733,401.500,289.000,426.000,477.000
2.734,401.000,289.000,425.500,477.000
2.735,401.000,289.000,425.500,477.000
2.736,401.000,288.500,425.000,477.000
2.737,401.000,288.500,425.000,477.000
2.738,401.000,288.000,424.500,477.500
2.739,400.500,288.000,425.000,478.000
2.740,400.500,288.000,425.500,478.500
2.741,400.500,288.000,426.000,479.000
2.742,400.000,288.000,426.500,480.000
2.743,400.500,288.500,427.000,480.000
2.744,401.000,288.500,427.500,480.500
2.745,401.500,289.000,427.500,480.500
2.746,402.000,289.500,427.500,480.500
2.747,402.500,289.500,428.000,481.000
2.748,403.500,290.000,428.000,481.000
2.749,403.500,290.000,428.000,481.000
2.750,403.500,289.500,428.000,481.000
2.751,403.500,289.000,428.000,480.500
2.752,403.000,288.500,427.500,480.500
2.753,402.500,288.000,427.000,480.000
2.754,402.500,287.500,426.500,480.000
2.755,402.000,287.000,426.000,480.000
2.756,401.500,286.500,425.500,480.000
2.757,401.500,286.500,425.000,480.000
2.758,401.000,286.500,425.000,479.500
2.759,401.000,286.500,424.500,479.500
2.760,401.000,287.000,424.500,479.500
2.761,401.500,287.500,424.000,479.000
2.762,402.000,288.000,424.000,478.500
2.763,402.500,288.000,424.000,478.500
2.764,403.000,288.500,424.000,478.500
2.765,403.500,289.000,424.500,478.500
2.766,403.500,289.500,425.000,479.000
2.767,404.000,290.000,425.500,479.500
2.768,404.000,290.500,426.500,480.500
2.769,404.000,290.500,426.500,481.000
2.770,403.500,290.500,426.500,481.000
2.771,403.500,290.000,426.000,481.000
2.772,403.000,289.500,425.500,480.500
2.773,402.500,288.500,424.500,480.000
2.774,402.000,288.000,423.000,479.000
2.775,401.500,287.000,422.000,478.500
2.776,401.000,286.500,421.000,478.000
2.777,400.500,286.000,420.500,477.500
2.778,400.000,286.000,420.000,477.500
2.779,400.000,286.000,419.500,477.500
2.780,400.500,286.500,419.500,477.500
2.781,401.000,287.000,420.000,478.000
2.782,401.000,287.500,421.000,478.500
2.783,401.500,287.500,421.500,478.500
2.784,402.000,287.500,422.000,478.500
2.785,402.500,287.500,422.000,478.500
2.786,402.500,287.500,422.000,478.500
2.787,402.500,287.500,422.000,478.500
2.788,402.500,287.000,421.500,478.000
2.789,401.500,286.500,421.000,478.000
2.790,400.500,285.500,420.500,477.500
2.791,399.500,284.000,419.500,476.500
2.792,398.500,283.000,418.500,476.000
2.793,397.500,282.000,417.500,475.000
2.794,396.500,281.000,416.500,474.500
2.795,396.000,280.000,415.500,474.000
2.796,395.000,279.000,414.500,473.500
2.797,394.500,278.500,414.000,473.500
2.798,394.000,278.000,414.000,473.500
2.799,394.000,278.000,414.000,474.000
2.800,393.500,278.500,414.000,474.500
2.801,393.500,278.500,414.000,475.000
2.802,393.500,278.500,414.000,475.500
2.803,393.500,278.500,414.000,476.000
2.804,393.000,278.500,414.000,476.500
2.805,393.000,278.500,414.500,477.500
2.806,392.500,279.000,415.500,479.000
2.807,392.500,279.000,416.500,480.000
2.808,392.500,279.500,417.500,481.500
2.809,392.500,280.500,418.500,483.000
2.810,393.000,281.000,419.000,485.000
2.811,393.000,282.000,420.000,486.500
2.812,393.500,283.000,420.500,488.000
2.813,393.500,284.000,422.000,490.000
2.814,394.000,285.500,423.500,492.000
2.815,394.500,286.500,425.000,494.500
2.816,395.000,288.000,426.500,496.500
2.817,395.500,289.000,428.000,498.000
2.818,396.000,290.000,429.000,499.000
2.819,397.000,291.000,429.500,499.500
2.820,398.500,292.500,430.500,500.000
2.821,400.000,293.500,431.500,501.000
2.822,402.000,295.000,433.000,501.500
2.823,404.000,296.500,434.500,502.000
2.824,406.000,298.000,436.000,502.500
2.825,407.500,299.000,436.500,502.500
2.826,408.500,299.500,437.000,502.500
2.827,409.500,300.000,437.000,502.000
2.828,410.000,299.500,436.000,501.000
2.829,410.500,299.000,434.500,499.500
2.830,410.500,298.500,432.500,498.000
2.831,410.500,297.500,430.500,496.500
2.832,410.500,296.500,428.000,495.000
2.833,410.000,296.000,426.500,493.500
2.834,410.000,295.500,425.000,492.500
2.835,409.500,295.500,424.500,492.000
2.836,409.500,295.500,424.000,491.500
2.837,409.000,295.000,423.500,491.000
2.838,408.500,295.000,423.000,490.500
2.839,408.500,294.000,422.500,489.500
2.840,408.000,293.500,422.500,489.500
2.841,407.500,293.000,422.000,489.000
2.842,407.500,292.500,422.000,489.000
2.843,408.000,291.500,422.000,488.500
2.844,408.000,291.000,421.500,488.000
2.845,408.000,290.500,421.000,487.500
2.846,408.000,290.000,420.500,487.000
2.847,407.500,289.000,420.000,486.000
2.848,407.000,288.500,419.000,485.500
2.849,406.500,288.000,418.500,485.000
2.850,406.000,287.500,417.500,484.500
2.851,405.500,287.000,417.000,484.000
2.852,404.500,286.500,416.500,483.500
2.853,403.500,286.500,416.000,483.000
2.854,402.500,286.000,415.500,483.000
2.855,402.000,285.500,415.000,482.500
2.856,401.000,285.000,414.000,482.000
2.857,400.500,284.500,413.500,481.500
2.858,400.000,284.000,412.500,481.500
2.859,399.500,283.500,412.500,481.500
2.860,399.000,284.000,413.000,482.000
2.861,399.000,284.000,413.500,482.500
2.862,399.500,284.500,414.000,483.000
2.863,400.000,285.000,414.500,483.000
2.864,400.500,285.000,414.500,483.000
2.865,401.000,285.500,415.000,483.000
2.866,401.000,286.000,415.000,483.000
2.867,401.500,286.000,415.500,483.000
2.868,401.500,286.000,415.500,483.000
2.869,401.000,286.000,415.500,483.000
2.870,400.500,286.000,415.000,482.500
2.871,400.000,285.500,414.500,482.000
2.872,399.500,285.000,414.000,481.500
2.873,399.000,284.500,413.500,481.500
2.874,398.500,284.000,413.000,481.000
2.875,398.000,284.000,412.500,481.000
2.876,398.000,283.500,412.000,480.500
2.877,397.500,283.000,411.500,480.500
2.878,397.500,282.500,411.000,480.500
2.879,397.500,282.500,410.500,480.000
2.880,397.500,282.500,410.000,479.500
2.881,398.000,282.500,409.500,479.500
2.882,398.500,282.500,409.500,479.000
2.883,398.500,283.000,409.500,479.000
2.884,399.000,283.000,409.500,479.000
2.885,399.000,283.500,410.000,479.000
2.886,399.000,284.000,410.500,479.500
2.887,399.500,284.000,410.500,479.500
2.888,399.500,284.500,411.000,479.500
2.889,399.500,284.000,410.500,479.500
2.890,399.000,283.500,410.000,478.500
2.891,398.500,283.000,409.000,478.000
2.892,398.000,282.500,408.500,477.500
2.893,397.500,282.000,408.000,477.000
2.894,397.000,281.500,407.500,477.000
2.895,397.000,281.500,407.500,477.500
2.896,397.000,281.500,407.500,478.000
2.897,397.500,282.000,408.000,478.500
2.898,397.500,282.000,409.000,479.500
2.899,398.000,282.500,409.500,480.000
2.900,398.000,282.500,409.500,480.500
2.901,398.500,282.500,410.000,481.000
2.902,398.500,282.500,410.500,481.500
2.903,399.000,282.500,411.000,481.500
2.904,399.500,282.500,411.000,482.000
2.905,400.000,283.000,411.500,482.000
2.906,400.500,283.000,411.500,482.000
2.907,401.000,283.500,411.500,481.500
2.908,401.000,283.500,411.500,481.500
2.909,401.500,283.500,411.000,481.000
2.910,401.500,283.500,410.500,480.500
2.911,401.000,283.500,409.500,480.500
2.912,400.500,283.000,408.500,480.000
2.913,400.500,282.500,407.500,479.500
2.914,400.000,282.000,407.000,479.000
2.915,399.500,282.000,406.000,478.500
2.916,399.000,281.500,406.000,478.000
2.917,398.500,281.500,405.500,477.500
2.918,398.000,281.500,405.000,477.500
2.919,398.000,281.500,405.500,477.500
2.920,397.500,282.500,405.500,477.500
2.921,397.500,283.000,406.500,478.000
2.922,398.000,284.000,407.000,479.000
2.923,398.500,284.500,408.000,479.500
2.924,398.500,285.500,408.500,479.500
2.925,399.000,286.000,409.000,480.000
2.926,399.500,286.000,409.500,480.000
2.927,399.500,286.500,409.500,480.000
2.928,400.000,286.000,410.000,480.000
2.929,400.000,286.000,410.000,480.000
2.930,400.500,285.500,410.000,480.500
2.931,400.500,285.000,410.000,480.500
2.932,400.000,284.500,410.000,480.000
2.933,399.500,283.500,409.500,480.000
2.934,399.000,282.500,409.000,479.500
2.935,398.500,281.500,409.000,479.500
2.936,398.000,281.000,408.500,479.000
2.937,398.000,280.500,408.500,478.500
2.938,397.500,280.500,409.000,478.500
2.939,397.500,280.500,409.000,478.500
2.940,397.500,281.000,409.000,478.500
2.941,397.500,281.500,408.500,478.500
2.942,398.000,282.000,408.500,478.500
2.943,398.500,282.500,408.000,478.500
2.944,399.000,282.500,407.500,478.500
2.945,399.000,282.500,406.500,478.000
2.946,399.000,282.000,406.000,477.500
2.947,399.000,281.500,405.500,477.500
2.948,399.000,281.000,405.000,477.000
2.949,398.500,281.000,405.000,477.000
2.950,398.500,280.500,405.000,477.000
2.951,397.500,280.500,405.000,476.500
2.952,397.000,280.500,404.500,476.500
2.953,396.500,280.000,404.500,476.000
2.954,396.000,280.000,404.000,476.000
2.955,395.500,279.500,403.500,475.500
2.956,395.000,279.000,403.500,475.500
2.957,395.000,278.500,403.000,476.000
2.958,394.500,278.500,402.500,476.000
2.959,394.500,278.500,402.500,476.500
2.960,395.000,279.000,403.000,477.000
2.961,395.000,279.500,403.500,477.500
2.962,395.500,280.500,404.000,478.000
2.963,395.500,281.000,405.000,479.000
2.964,396.000,281.500,405.500,479.500
2.965,396.000,281.500,406.000,479.500
2.966,396.500,281.500,406.000,480.000
2.967,396.500,281.500,405.500,480.000
2.968,396.500,281.500,405.500,480.000
2.969,396.000,281.500,405.500,480.000
2.970,396.000,282.000,405.500,480.000
2.971,395.500,282.000,405.500,480.000
2.972,395.000,282.000,405.000,479.500
2.973,394.500,282.000,404.500,479.000
2.974,394.000,281.500,403.500,478.500
2.975,393.500,281.500,403.000,478.000
2.976,393.000,281.000,402.500,478.000
2.977,392.500,281.000,402.500,478.000
2.978,392.000,281.000,402.500,478.500
2.979,392.000,281.000,403.000,479.000
2.980,392.000,281.500,403.500,479.500
2.981,392.500,282.000,404.000,480.000
2.982,393.000,282.500,405.000,480.500
2.983,393.500,282.500,405.500,480.500
2.984,394.000,282.500,405.500,481.000
2.985,394.000,282.500,406.000,481.000
2.986,394.500,282.000,406.500,481.000
2.987,394.500,281.500,406.500,480.500
2.988,394.500,281.000,406.500,480.500
2.989,394.500,280.500,406.000,480.500
2.990,394.000,280.500,405.500,480.000
2.991,394.000,280.500,405.000,479.500
2.992,394.000,280.500,404.000,478.500
2.993,393.500,280.000,403.000,478.000
2.994,393.000,280.000,402.000,477.500
2.995,392.500,280.000,401.500,477.000
2.996,392.000,280.000,401.000,477.000
2.997,391.500,279.500,400.500,476.500
2.998,391.000,279.500,400.500,476.500
2.999,391.000,279.500,400.500,476.000
3.000,390.500,279.500,400.500,476.000
3.001,390.500,280.000,400.500,476.500
3.002,390.500,280.500,401.000,476.500
3.003,390.500,281.000,401.500,477.000
3.004,390.500,281.500,402.000,477.000
3.005,391.000,282.500,403.000,477.500
3.006,391.000,283.000,404.000,478.500
3.007,391.500,283.500,404.500,479.000
3.008,391.500,284.000,405.000,479.500
3.009,391.500,284.500,405.500,480.000
3.010,392.000,284.500,405.500,480.000
3.011,392.000,284.500,405.500,479.500
3.012,392.000,284.000,405.000,479.000
3.013,391.500,283.500,404.000,479.000
3.014,391.000,283.000,403.500,478.500
3.015,390.500,282.500,402.500,478.500
3.016,389.500,281.500,402.500,478.500
3.017,389.000,281.500,402.000,478.500
3.018,388.500,281.000,402.500,479.000
3.019,388.000,281.500,402.500,479.500
3.020,388.000,281.500,403.000,480.000
3.021,388.500,282.000,403.500,480.500
3.022,389.000,283.000,404.000,481.000
3.023,389.000,283.500,404.500,481.500
3.024,389.500,284.000,405.000,482.000
3.025,390.000,284.500,405.500,482.000
3.026,390.000,285.000,406.000,482.000
3.027,390.500,285.000,406.000,482.000
3.028,390.000,284.500,406.000,481.500
3.029,390.000,284.000,405.500,481.000
3.030,389.500,283.000,405.000,480.000
3.031,389.000,282.000,404.000,479.500
3.032,388.000,281.500,403.000,479.000
3.033,387.500,280.500,402.000,478.500
3.034,387.000,280.000,401.500,478.000
3.035,386.500,280.000,401.000,478.000
3.036,386.000,280.000,401.000,478.000
3.037,385.500,280.000,401.000,478.500
3.038,385.500,280.500,401.500,479.000
3.039,385.500,281.000,402.500,480.000
3.040,385.500,282.000,403.000,480.500
3.041,386.000,282.500,403.500,480.500
3.042,386.500,283.000,403.500,481.000
3.043,387.000,283.000,403.500,480.500
3.044,387.500,283.000,403.000,480.500
3.045,387.500,283.000,403.000,480.000
3.046,388.000,283.000,402.500,480.000
3.047,388.000,283.000,402.500,479.500
3.048,388.500,283.000,402.500,479.500
3.049,388.500,283.000,402.500,479.000
3.050,388.000,283.000,402.500,479.000
3.051,387.500,283.500,403.000,478.500
3.052,387.000,283.500,403.000,478.500
3.053,386.000,283.500,403.000,479.000
3.054,385.500,283.500,403.000,479.500
3.055,384.500,283.000,402.500,479.500
3.056,384.000,283.000,402.000,480.000
3.057,383.500,282.000,401.500,480.000
3.058,383.000,281.500,401.000,480.000
3.059,383.000,281.000,400.500,479.500
3.060,383.000,280.500,400.500,480.000
3.061,383.500,280.500,400.500,480.000
3.062,384.000,281.000,401.500,480.500
3.063,385.000,281.000,402.000,481.000
3.064,385.500,281.000,402.500,481.000
3.065,385.500,281.000,402.500,481.000
3.066,386.000,281.000,402.500,481.000
3.067,386.000,281.000,402.500,481.000
3.068,386.000,280.500,402.500,481.000
3.069,385.500,280.000,402.000,480.500
3.070,385.000,280.000,401.500,480.500
3.071,384.500,279.500,400.500,480.000
3.072,384.000,279.000,399.000,479.000
3.073,383.500,278.500,397.500,478.000
3.074,383.000,278.000,396.500,477.000
3.075,382.500,277.500,395.000,476.000
3.076,382.000,277.000,394.500,475.500
3.077,381.500,277.000,394.000,475.000
3.078,381.500,277.000,394.000,474.500
3.079,381.000,277.000,393.500,474.000
3.080,381.000,277.000,393.000,474.000
3.081,381.000,277.000,392.500,473.500
3.082,381.500,277.500,392.500,473.500
3.083,381.500,277.500,393.000,474.000
3.084,382.000,278.500,393.500,474.500
3.085,382.000,278.500,394.000,475.000
3.086,382.000,279.000,394.500,475.000
3.087,382.000,279.000,395.000,475.500
3.088,381.500,279.000,395.000,475.000
3.089,381.500,279.000,395.000,475.000
3.090,381.000,279.000,394.500,474.500
3.091,380.500,278.500,394.000,474.000
3.092,380.000,278.500,393.500,473.500
3.093,379.500,278.500,393.500,474.000
3.094,379.000,278.500,393.500,474.000
3.095,378.500,278.500,393.500,474.000
3.096,378.000,278.500,393.000,474.000
3.097,377.500,278.500,392.500,473.500
3.098,377.500,278.000,392.000,473.000
3.099,377.500,278.000,391.500,473.000
3.100,377.500,278.000,391.500,473.000
3.101,378.000,278.500,392.000,473.000
3.102,378.500,279.000,392.500,473.500
3.103,379.500,279.500,393.000,474.000
3.104,380.500,280.000,394.000,474.000
3.105,381.000,280.500,394.000,474.500
3.106,381.500,280.000,394.000,474.000
3.107,381.000,279.500,393.500,473.500
3.108,380.500,279.000,393.000,473.000
3.109,380.000,278.000,392.000,472.500
3.110,379.500,277.500,391.500,472.000
3.111,379.000,277.000,390.500,472.000
3.112,378.500,277.000,390.000,472.000
3.113,378.000,277.000,390.000,472.000
3.114,377.500,277.000,389.500,472.500
3.115,377.000,277.500,389.500,472.500
3.116,377.000,277.500,389.500,473.000
3.117,376.500,277.500,389.500,473.000
3.118,376.500,278.000,390.000,473.500
3.119,376.500,278.000,390.500,474.000
3.120,377.000,278.500,391.000,474.000
3.121,377.000,278.500,392.000,474.500
3.122,377.500,279.000,392.500,474.500
3.123,378.000,279.500,393.000,474.000
3.124,378.500,280.000,393.000,474.000
3.125,379.500,280.000,393.500,473.500
3.126,380.000,280.500,393.500,473.500
3.127,380.000,281.000,393.500,473.500
3.128,380.500,281.000,393.500,473.500
3.129,380.000,281.000,393.500,473.500
3.130,380.000,281.000,393.000,473.500
3.131,379.500,281.000,392.500,473.000
3.132,379.000,280.500,392.000,472.500
3.133,378.500,280.000,391.000,472.000
3.134,378.000,279.500,390.000,471.500
3.135,377.000,278.500,389.000,470.500
3.136,376.500,278.000,388.500,470.000
3.137,376.000,278.000,387.500,469.500
3.138,375.500,278.000,387.000,469.500
3.139,375.500,278.500,387.000,469.500
3.140,375.000,278.500,387.000,469.500
3.141,375.000,279.500,387.500,470.000
3.142,375.000,280.000,388.500,470.500
3.143,375.500,280.500,389.000,471.000
3.144,375.500,281.000,390.000,471.500
3.145,376.000,281.000,391.000,472.000
3.146,376.000,281.500,391.500,472.500
3.147,376.500,281.500,391.500,472.500
3.148,376.500,281.500,392.000,472.500
3.149,376.500,281.500,392.000,472.500
3.150,376.500,281.500,391.500,472.500
3.151,376.500,281.000,391.500,472.500
3.152,376.500,280.500,391.000,472.000
3.153,376.000,280.000,390.500,472.000
3.154,375.000,279.000,390.000,471.500
