'Elapsed time','AECG1','AECG2','AECG3','AECG4'
'seconds','uV','uV','uV','uV'
0.000,-260.000,-242.000,-266.500,-271.000
0.001,-256.000,-239.000,-263.500,-268.000
0.002,-253.000,-237.000,-261.500,-266.000
0.003,-251.000,-236.000,-260.000,-264.500
0.004,-249.000,-235.000,-259.000,-263.000
0.005,-246.500,-232.500,-256.500,-260.500
0.006,-242.500,-229.000,-252.500,-256.500
0.007,-237.000,-223.000,-247.000,-250.500
0.008,-231.000,-216.500,-240.500,-244.000
0.009,-226.500,-211.500,-235.500,-239.000
0.010,-225.500,-209.500,-234.000,-237.000
0.011,-229.000,-211.500,-236.500,-239.500
0.012,-235.000,-216.500,-241.500,-244.000
0.013,-241.000,-221.000,-246.500,-249.000
0.014,-245.000,-224.500,-250.000,-252.500
0.015,-246.500,-225.500,-251.000,-253.500
0.016,-246.500,-225.000,-251.000,-253.500
0.017,-245.500,-224.500,-250.500,-253.000
0.018,-243.500,-222.500,-249.000,-251.500
0.019,-241.000,-220.500,-247.500,-250.000
0.020,-239.000,-219.000,-246.000,-248.500
0.021,-238.500,-219.000,-246.000,-249.000
0.022,-239.500,-220.000,-247.500,-250.500
0.023,-241.000,-221.500,-249.000,-252.000
0.024,-241.500,-221.500,-249.500,-252.000
0.025,-240.000,-220.000,-247.500,-250.000
0.026,-236.500,-216.500,-243.500,-246.500
0.027,-232.000,-212.000,-238.500,-241.500
0.028,-228.000,-208.000,-234.500,-237.000
0.029,-226.500,-206.000,-232.000,-235.000
0.030,-227.500,-206.500,-233.000,-235.500
0.031,-232.000,-210.500,-236.500,-239.000
0.032,-238.000,-216.000,-242.500,-244.500
0.033,-245.000,-223.000,-249.500,-251.500
0.034,-251.500,-229.000,-256.000,-258.000
0.035,-257.000,-235.000,-262.000,-264.000
0.036,-262.500,-241.000,-268.500,-270.000
0.037,-268.500,-247.000,-275.000,-276.500
0.038,-274.000,-253.000,-281.000,-282.500
0.039,-277.500,-257.000,-285.500,-286.500
0.040,-278.500,-258.500,-286.500,-287.500
0.041,-276.500,-257.000,-285.500,-286.000
0.042,-273.000,-254.000,-282.500,-283.000
0.043,-269.000,-250.500,-278.500,-279.500
0.044,-266.000,-248.000,-275.500,-276.500
0.045,-263.500,-245.500,-272.500,-274.000
0.046,-261.500,-243.500,-270.000,-271.500
0.047,-259.000,-241.000,-266.500,-268.500
0.048,-256.500,-238.000,-263.000,-265.500
0.049,-254.500,-235.500,-260.000,-262.500
0.050,-253.000,-234.000,-258.000,-260.000
0.051,-253.500,-234.000,-257.500,-259.500
0.052,-255.000,-235.000,-258.000,-259.500
0.053,-256.500,-235.500,-258.500,-259.500
0.054,-257.000,-235.500,-258.000,-258.500
0.055,-256.500,-234.500,-257.000,-257.500
0.056,-255.500,-233.500,-256.000,-256.500
0.057,-254.000,-232.500,-255.500,-255.500
0.058,-251.500,-230.000,-254.000,-254.000
0.059,-247.000,-226.000,-250.500,-250.500
0.060,-240.500,-220.000,-245.500,-245.500
0.061,-234.000,-213.500,-239.500,-239.500
0.062,-227.500,-207.000,-233.500,-234.000
0.063,-223.500,-203.500,-230.000,-230.500
0.064,-223.000,-203.000,-229.000,-229.500
0.065,-226.500,-206.500,-232.000,-232.500
0.066,-233.500,-213.500,-238.000,-239.000
0.067,-243.000,-223.500,-246.500,-248.000
0.068,-254.500,-235.000,-257.500,-259.000
0.069,-266.000,-246.500,-268.000,-269.500
0.070,-275.500,-256.000,-276.500,-278.000
0.071,-280.500,-261.000,-281.000,-282.000
0.072,-282.000,-262.500,-282.000,-282.500
0.073,-279.500,-259.500,-279.000,-279.000
0.074,-274.000,-254.000,-273.500,-273.000
0.075,-267.000,-247.000,-267.000,-266.000
0.076,-260.500,-241.000,-261.500,-260.500
0.077,-256.000,-236.500,-258.500,-257.000
0.078,-253.500,-234.500,-258.000,-256.500
0.079,-251.000,-233.500,-258.000,-256.000
0.080,-248.000,-231.000,-257.000,-255.000
0.081,-243.500,-227.000,-253.500,-251.500
0.082,-238.000,-221.500,-248.500,-247.000
0.083,-233.000,-217.000,-243.500,-242.500
0.084,-230.000,-214.000,-240.500,-240.500
0.085,-229.500,-213.000,-239.500,-239.500
0.086,-230.000,-213.000,-239.500,-240.500
0.087,-231.000,-213.500,-240.000,-241.500
0.088,-233.000,-214.500,-241.000,-242.500
0.089,-236.000,-216.500,-242.500,-244.500
0.090,-240.000,-220.000,-245.500,-247.000
0.091,-244.500,-224.000,-248.500,-250.000
0.092,-247.500,-227.000,-251.000,-252.000
0.093,-248.500,-228.000,-251.500,-252.500
0.094,-248.000,-228.000,-250.500,-251.500
0.095,-248.000,-228.000,-250.000,-251.000
0.096,-248.000,-228.500,-250.000,-252.000
0.097,-249.500,-230.000,-252.000,-253.500
0.098,-252.000,-232.500,-254.000,-256.500
0.099,-255.000,-235.000,-257.000,-259.500
0.100,-258.500,-238.500,-260.000,-263.500
0.101,-261.500,-241.500,-263.000,-266.500
0.102,-263.500,-243.500,-265.000,-269.000
0.103,-264.000,-244.500,-265.500,-269.500
0.104,-263.500,-244.500,-265.000,-270.000
0.105,-262.500,-244.000,-264.000,-269.500
0.106,-260.500,-242.000,-262.500,-268.000
0.107,-258.500,-239.000,-260.000,-265.500
0.108,-255.500,-235.500,-256.000,-261.500
0.109,-251.500,-230.500,-251.000,-256.500
0.110,-245.000,-223.500,-243.500,-249.000
0.111,-236.000,-213.500,-233.000,-238.500
0.112,-223.500,-201.000,-220.500,-225.500
0.113,-211.500,-189.000,-208.500,-213.500
0.114,-205.000,-181.500,-201.500,-206.500
0.115,-206.500,-183.500,-203.500,-208.500
0.116,-217.500,-194.500,-215.500,-220.000
0.117,-234.500,-212.000,-233.500,-238.000
0.118,-252.500,-231.000,-252.500,-257.000
0.119,-267.500,-247.500,-268.500,-273.000
0.120,-277.500,-258.500,-279.500,-284.000
0.121,-283.000,-264.500,-285.500,-290.500
0.122,-284.000,-267.000,-287.500,-292.500
0.123,-282.500,-265.500,-286.500,-291.000
0.124,-279.500,-263.000,-284.000,-288.500
0.125,-278.000,-261.500,-282.000,-287.000
0.126,-279.000,-262.500,-283.000,-288.000
0.127,-282.000,-265.500,-285.500,-291.000
0.128,-286.000,-268.000,-288.000,-293.500
0.129,-288.500,-270.000,-289.500,-295.000
0.130,-290.000,-270.500,-289.500,-295.500
0.131,-290.000,-270.000,-288.500,-294.500
0.132,-289.000,-267.500,-286.000,-291.500
0.133,-286.000,-263.500,-282.000,-287.500
0.134,-282.000,-259.000,-277.000,-283.000
0.135,-277.500,-254.500,-272.500,-278.000
0.136,-274.000,-250.500,-268.500,-274.000
0.137,-271.500,-248.000,-266.500,-271.500
0.138,-270.000,-247.000,-265.500,-270.500
0.139,-268.500,-246.500,-265.000,-270.000
0.140,-266.500,-245.000,-263.500,-269.000
0.141,-263.000,-242.500,-260.500,-266.500
0.142,-258.500,-239.000,-257.500,-263.000
0.143,-255.000,-236.500,-254.500,-260.500
0.144,-252.500,-234.000,-252.000,-258.000
0.145,-249.500,-232.000,-249.500,-255.500
0.146,-246.500,-229.000,-246.500,-252.000
0.147,-242.500,-225.500,-242.500,-248.000
0.148,-239.000,-221.500,-238.500,-244.000
0.149,-236.000,-218.000,-235.500,-240.500
0.150,-236.000,-217.000,-234.500,-239.500
0.151,-239.000,-219.000,-236.500,-241.500
0.152,-244.500,-223.500,-241.000,-246.000
0.153,-250.500,-229.000,-247.000,-251.500
0.154,-255.500,-233.500,-251.500,-256.000
0.155,-258.000,-236.000,-254.000,-258.500
0.156,-257.500,-235.000,-254.000,-258.000
0.157,-253.500,-231.500,-250.500,-254.000
0.158,-247.000,-225.500,-244.500,-248.000
0.159,-240.000,-218.500,-238.000,-241.500
0.160,-234.500,-213.500,-233.000,-236.500
0.161,-232.500,-212.500,-231.500,-235.000
0.162,-236.000,-216.000,-235.000,-238.500
0.163,-242.500,-223.000,-241.500,-245.000
0.164,-250.000,-230.500,-249.000,-252.500
0.165,-255.500,-237.000,-255.000,-258.000
0.166,-259.000,-240.500,-258.500,-261.500
0.167,-260.500,-242.000,-259.500,-262.500
0.168,-261.000,-242.000,-260.000,-262.500
0.169,-260.500,-242.000,-259.500,-262.500
0.170,-260.500,-242.000,-259.500,-262.500
0.171,-261.000,-242.000,-260.000,-262.500
0.172,-262.000,-243.000,-261.000,-263.000
0.173,-262.500,-243.500,-262.000,-263.500
0.174,-263.500,-244.500,-263.000,-263.500
0.175,-263.000,-243.500,-262.500,-263.000
0.176,-261.000,-241.000,-260.000,-260.000
0.177,-256.000,-236.000,-255.000,-255.000
0.178,-250.000,-229.500,-249.000,-248.500
0.179,-243.500,-224.000,-243.500,-243.500
0.180,-240.500,-221.000,-241.500,-241.000
0.181,-240.500,-222.000,-243.000,-243.000
0.182,-242.500,-225.500,-247.000,-247.000
0.183,-245.500,-229.000,-251.000,-251.000
0.184,-246.500,-231.000,-252.500,-253.000
0.185,-246.000,-231.000,-252.000,-252.000
0.186,-243.500,-228.500,-249.500,-249.500
0.187,-240.500,-225.500,-246.000,-245.500
0.188,-236.000,-220.500,-240.500,-240.000
0.189,-229.500,-213.500,-233.000,-232.500
0.190,-222.500,-205.500,-224.500,-224.000
0.191,-217.500,-199.500,-218.000,-217.500
0.192,-217.500,-198.000,-216.500,-216.000
0.193,-222.000,-202.000,-220.500,-219.500
0.194,-230.000,-209.000,-227.500,-226.500
0.195,-237.500,-216.000,-234.500,-233.500
0.196,-244.000,-222.000,-240.500,-239.000
0.197,-249.000,-227.000,-245.000,-244.500
0.198,-254.000,-231.500,-249.500,-249.500
0.199,-259.000,-237.000,-254.500,-255.500
0.200,-264.500,-242.500,-260.000,-261.500
0.201,-269.500,-248.000,-265.500,-267.500
0.202,-274.500,-253.500,-271.500,-274.000
0.203,-279.500,-259.000,-277.000,-280.000
0.204,-284.500,-264.500,-282.500,-286.000
0.205,-287.500,-267.500,-285.500,-289.500
0.206,-287.000,-267.000,-285.500,-289.000
0.207,-283.000,-263.000,-281.500,-285.000
0.208,-277.500,-257.000,-275.500,-278.500
0.209,-272.500,-251.500,-270.000,-273.000
0.210,-270.000,-249.000,-267.000,-269.500
0.211,-270.000,-248.000,-266.000,-267.500
0.212,-271.000,-249.000,-266.500,-267.500
0.213,-273.500,-251.000,-268.500,-269.000
0.214,-276.000,-253.500,-271.000,-271.500
0.215,-277.000,-255.500,-273.000,-273.000
0.216,-276.500,-255.500,-273.500,-273.500
0.217,-275.000,-254.000,-272.500,-272.000
0.218,-273.000,-253.000,-271.500,-271.000
0.219,-272.000,-252.500,-270.500,-270.500
0.220,-272.000,-252.000,-270.000,-271.000
0.221,-270.000,-251.000,-269.000,-270.000
0.222,-266.500,-248.000,-266.000,-267.000
0.223,-261.500,-243.500,-261.500,-263.000
0.224,-257.000,-239.500,-257.500,-259.500
0.225,-255.000,-237.500,-256.000,-258.000
0.226,-255.000,-237.500,-256.000,-258.000
0.227,-255.000,-237.000,-255.500,-257.500
0.228,-253.500,-235.500,-253.000,-255.000
0.229,-250.000,-231.500,-248.500,-250.500
0.230,-245.000,-226.000,-243.000,-244.500
0.231,-240.500,-221.000,-237.500,-239.500
0.232,-238.500,-218.000,-234.500,-236.500
0.233,-239.000,-217.500,-234.500,-236.500
0.234,-240.500,-218.500,-235.500,-237.500
0.235,-241.500,-219.000,-236.500,-238.500
0.236,-241.500,-218.500,-236.000,-238.000
0.237,-240.500,-218.000,-234.500,-236.500
0.238,-241.000,-218.000,-234.500,-236.500
0.239,-245.000,-222.000,-238.000,-240.500
0.240,-253.500,-231.000,-246.500,-249.500
0.241,-266.000,-244.000,-259.500,-262.500
0.242,-280.000,-258.000,-274.000,-276.500
0.243,-291.500,-269.500,-285.500,-288.000
0.244,-297.500,-276.000,-292.000,-294.500
0.245,-299.000,-277.500,-293.000,-296.000
0.246,-297.000,-276.000,-291.500,-293.500
0.247,-293.500,-272.500,-288.000,-290.000
0.248,-290.000,-268.500,-284.000,-285.500
0.249,-286.000,-263.500,-279.500,-281.000
0.250,-281.000,-258.500,-274.500,-276.000
0.251,-276.000,-253.000,-269.000,-270.500
0.252,-270.000,-247.000,-263.000,-264.500
0.253,-264.500,-241.000,-257.500,-258.500
0.254,-258.500,-235.000,-252.000,-253.000
0.255,-253.500,-230.000,-247.500,-248.000
0.256,-250.000,-226.500,-244.500,-245.000
0.257,-248.000,-224.500,-243.500,-244.000
0.258,-247.000,-223.500,-243.500,-243.500
0.259,-245.500,-222.000,-242.000,-242.500
0.260,-242.500,-218.500,-239.000,-239.000
0.261,-238.000,-214.000,-234.500,-235.000
0.262,-234.000,-210.500,-231.000,-231.000
0.263,-231.500,-208.500,-229.000,-229.000
0.264,-230.500,-208.000,-228.500,-228.500
0.265,-229.500,-207.000,-227.000,-227.000
0.266,-226.500,-205.000,-224.500,-224.000
0.267,-223.000,-201.500,-220.000,-219.500
0.268,-219.000,-197.500,-215.000,-214.500
0.269,-216.000,-194.000,-211.000,-210.500
0.270,-214.500,-192.500,-209.000,-208.500
0.271,-215.000,-192.500,-209.500,-208.500
0.272,-217.000,-194.000,-211.000,-210.000
0.273,-218.500,-195.500,-212.500,-211.000
0.274,-219.000,-195.500,-212.500,-210.500
0.275,-219.000,-195.500,-212.000,-210.000
0.276,-219.000,-195.000,-211.500,-209.500
0.277,-218.500,-194.500,-211.000,-209.500
0.278,-217.500,-193.500,-210.500,-209.000
0.279,-215.000,-191.500,-209.500,-208.000
0.280,-212.000,-189.000,-207.500,-207.000
0.281,-209.500,-186.500,-206.500,-205.500
0.282,-207.500,-185.500,-206.000,-205.500
0.283,-208.000,-186.500,-208.000,-207.000
0.284,-211.000,-189.000,-211.000,-210.000
0.285,-214.500,-193.000,-215.000,-214.000
0.286,-218.500,-197.000,-219.000,-218.000
0.287,-222.000,-200.500,-222.500,-221.500
0.288,-225.000,-204.000,-225.000,-224.500
0.289,-226.500,-205.500,-226.500,-225.500
0.290,-226.000,-204.500,-225.000,-224.500
0.291,-221.500,-199.500,-219.500,-219.000
0.292,-213.500,-191.500,-210.500,-210.000
0.293,-204.000,-181.500,-200.000,-200.000
0.294,-197.500,-174.000,-192.500,-192.500
0.295,-196.500,-172.500,-191.000,-191.500
0.296,-203.000,-179.000,-197.000,-198.000
0.297,-215.000,-191.000,-209.000,-210.000
0.298,-228.500,-205.000,-222.500,-224.000
0.299,-240.500,-217.500,-235.000,-237.000
0.300,-248.500,-226.500,-243.000,-245.500
0.301,-251.500,-230.000,-246.500,-249.000
0.302,-250.500,-229.500,-245.500,-248.000
0.303,-246.000,-225.500,-241.500,-244.000
0.304,-240.500,-220.000,-235.500,-238.000
0.305,-234.000,-213.500,-229.500,-231.500
0.306,-227.500,-207.000,-223.500,-225.500
0.307,-222.000,-201.500,-218.000,-219.500
0.308,-217.500,-197.000,-214.000,-215.500
0.309,-214.500,-194.000,-211.500,-212.000
0.310,-213.000,-192.000,-210.000,-210.500
0.311,-213.000,-191.000,-209.500,-209.500
0.312,-214.000,-191.500,-210.000,-210.000
0.313,-216.500,-193.000,-212.000,-211.500
0.314,-219.500,-195.500,-214.500,-213.500
0.315,-222.000,-198.000,-216.500,-216.000
0.316,-224.000,-200.000,-218.000,-217.500
0.317,-224.500,-200.500,-219.000,-218.500
0.318,-224.000,-200.000,-218.500,-218.500
0.319,-222.000,-198.500,-217.000,-217.000
0.320,-218.000,-195.000,-213.000,-214.000
0.321,-212.000,-189.000,-207.500,-209.000
0.322,-205.000,-182.000,-200.500,-203.000
0.323,-199.000,-176.500,-195.000,-198.000
0.324,-197.500,-175.000,-194.000,-197.000
0.325,-202.000,-179.500,-199.000,-202.000
0.326,-212.000,-190.000,-210.000,-213.000
0.327,-226.000,-204.000,-224.000,-227.000
0.328,-240.000,-218.500,-238.000,-240.500
0.329,-251.500,-229.500,-248.500,-250.500
0.330,-259.000,-236.000,-255.000,-256.000
0.331,-263.000,-239.500,-258.000,-258.500
0.332,-265.000,-241.000,-259.500,-260.000
0.333,-267.000,-242.000,-260.500,-261.000
0.334,-268.500,-242.500,-261.500,-261.500
0.335,-269.000,-243.500,-262.500,-262.500
0.336,-269.500,-244.000,-262.500,-263.000
0.337,-270.500,-245.000,-263.000,-263.500
0.338,-271.500,-246.000,-264.000,-264.500
0.339,-272.000,-247.000,-265.000,-265.500
0.340,-271.500,-247.500,-266.000,-266.000
0.341,-270.500,-247.500,-266.500,-266.500
0.342,-269.500,-247.000,-266.500,-266.500
0.343,-268.000,-247.000,-266.500,-266.500
0.344,-266.500,-246.000,-265.500,-265.500
0.345,-265.000,-244.000,-263.500,-263.500
0.346,-262.000,-241.500,-260.500,-260.500
0.347,-259.500,-238.000,-257.000,-257.000
0.348,-257.500,-235.500,-254.000,-254.000
0.349,-256.500,-234.000,-252.500,-252.000
0.350,-257.000,-234.000,-252.500,-251.500
0.351,-259.000,-235.500,-253.500,-252.500
0.352,-262.500,-238.500,-256.500,-255.500
0.353,-267.000,-242.500,-260.500,-259.500
0.354,-272.000,-247.000,-265.000,-264.000
0.355,-275.500,-250.000,-268.500,-267.500
0.356,-274.500,-249.500,-268.000,-267.500
0.357,-269.500,-245.500,-263.500,-263.500
0.358,-262.500,-239.000,-258.000,-258.000
0.359,-256.500,-234.000,-253.000,-253.500
0.360,-254.000,-232.500,-252.000,-252.500
0.361,-255.500,-234.500,-254.500,-255.000
0.362,-260.000,-239.500,-259.500,-260.500
0.363,-265.500,-245.500,-265.500,-266.500
0.364,-269.500,-250.000,-269.500,-271.000
0.365,-270.500,-251.500,-271.000,-272.500
0.366,-269.000,-249.000,-268.500,-270.000
0.367,-264.000,-243.500,-263.000,-264.500
0.368,-257.500,-236.000,-255.500,-257.000
0.369,-250.500,-228.000,-247.500,-249.000
0.370,-244.000,-221.000,-240.500,-242.000
0.371,-239.500,-215.500,-235.000,-236.500
0.372,-236.000,-211.500,-230.500,-232.000
0.373,-234.000,-209.500,-227.500,-229.000
0.374,-234.000,-209.000,-226.500,-228.000
0.375,-237.500,-213.000,-229.000,-231.000
0.376,-245.500,-221.500,-237.000,-239.500
0.377,-258.000,-234.000,-249.500,-252.000
0.378,-272.500,-249.000,-264.500,-267.500
0.379,-287.000,-263.500,-279.000,-283.000
0.380,-299.000,-275.500,-291.500,-295.500
0.381,-308.000,-284.500,-300.500,-305.500
0.382,-314.500,-291.500,-307.500,-313.000
0.383,-319.500,-297.000,-313.000,-319.000
0.384,-324.000,-302.000,-318.500,-324.500
0.385,-327.500,-306.000,-323.000,-329.500
0.386,-329.500,-308.500,-326.000,-332.000
0.387,-328.500,-308.000,-325.500,-331.500
0.388,-322.500,-302.500,-320.000,-325.500
0.389,-311.500,-291.500,-309.000,-314.500
0.390,-296.000,-275.500,-293.000,-297.500
0.391,-277.000,-256.000,-273.000,-277.000
0.392,-255.500,-233.500,-250.000,-254.000
0.393,-231.000,-208.500,-224.500,-228.000
0.394,-204.000,-181.000,-196.000,-199.500
0.395,-174.500,-151.000,-165.500,-169.000
0.396,-142.500,-118.500,-132.500,-136.000
0.397,-108.000,-84.000,-97.000,-100.000
0.398,-70.000,-45.500,-58.000,-60.500
0.399,-27.000,-2.000,-13.000,-15.500
0.400,21.500,47.000,37.000,35.000
0.401,73.500,99.500,91.000,89.000
0.402,127.000,153.500,146.000,144.500
0.403,179.500,207.000,200.000,199.500
0.404,230.000,258.500,252.000,251.500
0.405,276.000,305.500,299.500,299.000
0.406,317.000,347.000,341.500,341.500
0.407,351.500,382.500,377.500,377.500
0.408,381.000,412.500,408.500,408.500
0.409,405.000,437.000,433.500,434.000
0.410,421.500,454.500,451.000,452.000
0.411,429.500,463.000,459.500,460.000
0.412,426.500,460.500,456.500,457.000
0.413,413.000,447.000,442.000,442.500
0.414,389.000,423.500,417.000,417.500
0.415,356.500,390.500,383.500,383.000
0.416,316.000,350.000,341.500,340.500
0.417,269.000,302.000,293.000,291.000
0.418,217.000,249.500,239.000,236.500
0.419,164.000,195.000,183.500,180.500
0.420,111.500,141.000,129.000,125.000
0.421,62.000,90.500,77.500,73.500
0.422,17.500,45.000,31.500,26.000
0.423,-21.500,5.000,-9.000,-15.000
0.424,-54.000,-28.500,-42.500,-49.500
0.425,-81.000,-56.500,-70.500,-77.500
0.426,-103.500,-80.000,-94.000,-101.500
0.427,-124.500,-101.500,-115.000,-123.000
0.428,-144.500,-121.500,-135.500,-143.500
0.429,-165.000,-141.000,-155.000,-163.000
0.430,-184.000,-159.000,-173.500,-181.000
0.431,-200.500,-174.500,-189.000,-196.500
0.432,-214.000,-186.500,-201.000,-208.500
0.433,-222.500,-194.500,-209.000,-216.500
0.434,-227.000,-198.500,-213.000,-220.500
0.435,-228.000,-199.500,-214.000,-221.500
0.436,-225.500,-198.000,-212.000,-219.500
0.437,-221.000,-195.000,-209.000,-216.000
0.438,-217.000,-191.500,-205.500,-212.500
0.439,-213.500,-189.000,-203.000,-210.000
0.440,-211.500,-188.000,-201.500,-208.500
0.441,-211.000,-187.500,-201.000,-208.500
0.442,-210.500,-187.500,-201.000,-208.500
0.443,-211.500,-188.000,-201.500,-209.500
0.444,-213.500,-190.500,-204.000,-212.000
0.445,-218.000,-194.500,-208.000,-216.500
0.446,-224.000,-200.000,-213.000,-221.500
0.447,-229.500,-205.000,-218.000,-227.000
0.448,-233.000,-208.500,-221.500,-230.000
0.449,-234.000,-209.000,-222.500,-230.500
0.450,-232.500,-207.000,-220.500,-228.500
0.451,-229.000,-203.500,-217.500,-225.000
0.452,-226.000,-200.500,-214.500,-222.000
0.453,-226.000,-200.000,-213.500,-221.500
0.454,-230.500,-204.000,-217.500,-225.500
0.455,-240.000,-213.000,-226.500,-235.000
0.456,-253.500,-226.500,-239.500,-248.000
0.457,-267.000,-240.000,-253.000,-262.000
0.458,-277.000,-250.500,-263.500,-272.500
0.459,-281.500,-256.000,-269.000,-278.000
0.460,-281.500,-256.000,-269.500,-278.500
0.461,-277.500,-252.500,-266.500,-276.000
0.462,-273.000,-248.000,-262.500,-272.500
0.463,-268.500,-244.000,-258.500,-269.000
0.464,-265.000,-240.500,-255.000,-266.000
0.465,-263.000,-238.500,-252.500,-263.500
0.466,-261.500,-237.000,-250.500,-261.500
0.467,-260.500,-236.000,-249.000,-260.000
0.468,-260.000,-235.000,-248.500,-259.000
0.469,-259.500,-234.500,-248.000,-258.500
0.470,-259.500,-234.000,-248.000,-259.000
0.471,-259.500,-234.000,-248.500,-259.000
0.472,-259.000,-234.000,-248.500,-259.000
0.473,-258.000,-232.500,-247.500,-258.000
0.474,-256.000,-230.500,-245.000,-255.500
0.475,-253.500,-227.500,-241.500,-252.000
0.476,-251.000,-224.500,-238.500,-249.000
0.477,-249.500,-223.000,-236.500,-247.000
0.478,-249.500,-222.500,-236.000,-246.500
0.479,-250.000,-223.500,-236.500,-247.500
0.480,-251.000,-224.500,-237.500,-248.500
0.481,-251.500,-226.000,-239.000,-249.500
0.482,-251.000,-226.500,-239.500,-250.500
0.483,-251.000,-227.000,-240.500,-251.500
0.484,-251.500,-228.500,-241.500,-252.500
0.485,-252.500,-230.500,-243.500,-255.000
0.486,-254.500,-232.500,-245.000,-257.500
0.487,-255.500,-233.500,-246.000,-258.500
0.488,-254.500,-233.000,-245.000,-258.000
0.489,-252.000,-230.000,-242.000,-255.000
0.490,-249.000,-226.500,-238.000,-251.500
0.491,-246.000,-223.000,-235.000,-249.000
0.492,-245.000,-221.500,-233.500,-247.500
0.493,-244.500,-221.000,-233.500,-247.500
0.494,-244.500,-220.000,-233.500,-247.000
0.495,-243.000,-218.500,-232.000,-245.500
0.496,-240.000,-215.500,-229.000,-242.500
0.497,-235.500,-211.500,-225.000,-238.000
0.498,-231.500,-207.500,-221.000,-234.000
0.499,-229.000,-205.000,-218.000,-230.500
0.500,-228.000,-204.500,-217.000,-229.000
0.501,-229.000,-205.000,-217.500,-229.500
0.502,-231.000,-207.000,-219.000,-231.500
0.503,-233.000,-209.000,-221.000,-233.500
0.504,-235.000,-211.000,-223.000,-236.000
0.505,-235.500,-212.000,-224.000,-237.500
0.506,-235.000,-211.500,-223.000,-237.000
0.507,-231.500,-208.500,-220.000,-234.000
0.508,-226.500,-203.000,-215.000,-228.500
0.509,-219.500,-196.500,-208.000,-221.500
0.510,-213.000,-190.000,-201.000,-214.500
0.511,-209.000,-185.500,-196.500,-210.000
0.512,-208.500,-185.000,-196.000,-209.500
0.513,-211.000,-187.000,-198.000,-212.000
0.514,-215.500,-191.500,-202.500,-216.500
0.515,-220.000,-196.000,-207.500,-221.500
0.516,-224.500,-200.000,-212.000,-225.500
0.517,-227.000,-202.500,-214.500,-228.500
0.518,-227.500,-203.500,-215.500,-229.500
0.519,-227.000,-204.000,-215.500,-229.500
0.520,-226.500,-204.500,-215.500,-230.000
0.521,-226.500,-205.500,-216.500,-230.500
0.522,-227.500,-207.000,-218.000,-232.000
0.523,-228.500,-208.500,-219.500,-233.500
0.524,-229.000,-209.500,-220.500,-234.500
0.525,-228.500,-209.000,-220.500,-234.500
0.526,-227.000,-207.500,-219.500,-233.000
0.527,-225.000,-205.000,-217.500,-231.500
0.528,-223.000,-203.000,-215.500,-229.500
0.529,-221.500,-201.000,-213.500,-227.500
0.530,-220.000,-199.500,-211.500,-225.500
0.531,-218.500,-197.000,-209.000,-222.500
0.532,-214.500,-192.500,-203.500,-216.500
0.533,-208.000,-185.500,-195.500,-208.500
0.534,-199.000,-176.500,-186.000,-198.500
0.535,-191.000,-168.500,-177.500,-190.000
0.536,-187.500,-165.000,-173.500,-186.000
0.537,-190.000,-168.000,-176.000,-188.500
0.538,-198.500,-177.000,-184.500,-197.500
0.539,-208.500,-188.000,-195.500,-208.500
0.540,-217.000,-197.000,-205.000,-218.000
0.541,-221.500,-202.500,-210.500,-224.000
0.542,-224.000,-205.500,-213.500,-227.000
0.543,-226.000,-208.000,-216.000,-230.000
0.544,-229.000,-210.500,-219.000,-233.000
0.545,-233.000,-214.000,-222.000,-236.500
0.546,-238.000,-218.000,-226.000,-240.500
0.547,-243.500,-222.500,-231.000,-245.500
0.548,-249.500,-227.000,-235.500,-250.500
0.549,-254.500,-231.000,-239.500,-254.500
0.550,-257.500,-233.500,-242.000,-257.000
0.551,-258.500,-233.500,-242.500,-257.000
0.552,-256.500,-231.000,-240.000,-254.500
0.553,-251.000,-225.000,-234.500,-249.000
0.554,-242.500,-217.000,-227.000,-241.000
0.555,-232.500,-206.500,-217.500,-231.500
0.556,-221.500,-196.000,-207.000,-221.000
0.557,-212.000,-186.500,-198.000,-212.000
0.558,-205.000,-180.000,-191.500,-206.000
0.559,-202.500,-177.500,-189.500,-204.000
0.560,-204.000,-180.000,-191.500,-206.500
0.561,-208.500,-185.000,-196.500,-212.000
0.562,-213.000,-190.500,-202.000,-217.500
0.563,-216.000,-194.000,-205.500,-221.000
0.564,-216.500,-195.500,-207.500,-222.500
0.565,-216.000,-195.000,-207.500,-222.500
0.566,-215.000,-194.000,-207.000,-221.500
0.567,-214.000,-193.000,-205.500,-220.000
0.568,-213.000,-191.500,-204.000,-218.000
0.569,-212.000,-190.500,-202.500,-215.500
0.570,-212.000,-190.000,-201.500,-214.000
0.571,-212.000,-190.000,-201.000,-213.000
0.572,-212.000,-190.000,-200.500,-212.000
0.573,-210.500,-188.500,-199.000,-210.000
0.574,-208.000,-186.500,-196.500,-207.000
0.575,-206.000,-184.000,-194.000,-204.500
0.576,-204.500,-182.500,-192.500,-203.000
0.577,-204.500,-182.000,-192.000,-202.500
0.578,-205.500,-182.500,-192.500,-203.000
0.579,-207.000,-183.500,-193.500,-204.000
0.580,-207.000,-183.500,-193.000,-204.000
0.581,-206.000,-181.500,-191.500,-202.500
0.582,-202.000,-177.500,-187.500,-199.000
0.583,-196.500,-172.000,-182.000,-194.000
0.584,-189.500,-165.000,-175.500,-187.500
0.585,-182.000,-157.500,-168.000,-180.500
0.586,-174.000,-150.000,-160.000,-172.500
0.587,-167.000,-143.000,-153.000,-165.500
0.588,-163.000,-139.000,-148.500,-161.000
0.589,-164.000,-140.000,-149.000,-162.000
0.590,-171.000,-146.000,-155.500,-168.000
0.591,-182.000,-157.000,-166.500,-178.500
0.592,-194.000,-168.500,-178.500,-190.000
0.593,-203.500,-178.000,-188.500,-199.500
0.594,-207.500,-182.500,-192.500,-203.500
0.595,-204.500,-179.500,-190.000,-200.000
0.596,-196.000,-171.500,-181.500,-191.500
0.597,-184.000,-160.000,-170.000,-179.500
0.598,-170.500,-147.000,-156.500,-166.000
0.599,-157.500,-134.500,-144.000,-153.500
0.600,-145.500,-123.000,-133.000,-142.500
0.601,-136.500,-114.500,-124.000,-133.500
0.602,-130.500,-109.000,-118.500,-128.000
0.603,-127.500,-106.500,-116.500,-125.500
0.604,-127.500,-106.000,-116.000,-125.500
0.605,-127.500,-106.500,-116.500,-126.000
0.606,-128.000,-106.500,-116.500,-126.500
0.607,-128.000,-107.000,-116.500,-126.500
0.608,-129.500,-108.000,-117.000,-127.500
0.609,-134.000,-111.500,-120.000,-130.500
0.610,-140.500,-117.500,-126.000,-136.000
0.611,-149.000,-125.500,-133.000,-142.500
0.612,-156.000,-132.000,-138.500,-148.000
0.613,-158.500,-134.500,-140.500,-149.500
0.614,-155.000,-131.500,-136.500,-145.500
0.615,-145.500,-123.000,-127.000,-136.000
0.616,-133.000,-111.000,-114.000,-123.000
0.617,-120.000,-98.500,-101.000,-110.000
0.618,-110.500,-89.500,-92.000,-101.500
0.619,-108.000,-86.500,-90.000,-99.500
0.620,-111.500,-90.000,-94.000,-103.500
0.621,-117.500,-96.000,-100.500,-110.000
0.622,-123.000,-101.500,-107.000,-116.500
0.623,-126.000,-105.000,-112.000,-121.000
0.624,-128.000,-107.000,-114.500,-123.500
0.625,-129.000,-108.000,-116.000,-125.000
0.626,-129.000,-108.000,-116.000,-124.500
0.627,-127.500,-106.000,-114.000,-122.500
0.628,-124.500,-102.500,-109.500,-118.500
0.629,-121.000,-98.000,-105.000,-114.000
0.630,-119.000,-95.500,-101.500,-111.000
0.631,-119.500,-94.500,-100.500,-110.000
0.632,-121.000,-94.500,-101.000,-110.500
0.633,-121.500,-94.000,-100.500,-110.500
0.634,-119.500,-90.500,-97.500,-107.500
0.635,-113.500,-83.500,-90.500,-100.500
0.636,-103.000,-73.000,-80.000,-89.500
0.637,-89.000,-59.500,-66.000,-76.000
0.638,-74.000,-44.500,-51.000,-61.500
0.639,-59.000,-29.500,-36.000,-46.500
0.640,-45.000,-15.500,-22.000,-33.000
0.641,-32.500,-3.500,-10.000,-21.000
0.642,-22.500,6.000,-0.500,-11.500
0.643,-14.000,13.500,7.000,-4.000
0.644,-7.500,19.500,12.500,2.000
0.645,-2.500,24.000,16.500,6.000
0.646,-0.500,25.000,17.500,7.500
0.647,-5.500,20.500,12.500,2.500
0.648,-20.000,6.500,-1.000,-11.000
0.649,-42.500,-15.500,-22.500,-32.000
0.650,-67.500,-39.500,-46.000,-55.500
0.651,-88.000,-59.000,-64.500,-74.500
0.652,-98.500,-69.500,-74.500,-84.000
0.653,-99.000,-69.500,-75.000,-83.500
0.654,-92.000,-61.500,-67.500,-75.500
0.655,-80.000,-49.500,-56.000,-64.000
0.656,-68.500,-38.000,-45.000,-52.500
0.657,-60.500,-29.500,-37.500,-44.500
0.658,-56.500,-26.000,-34.000,-41.000
0.659,-54.500,-24.500,-33.000,-40.000
0.660,-53.000,-24.000,-32.500,-39.500
0.661,-51.000,-22.500,-31.000,-38.000
0.662,-48.500,-21.000,-29.500,-36.500
0.663,-47.000,-20.000,-28.000,-35.500
0.664,-46.000,-19.500,-28.000,-35.000
0.665,-46.000,-20.000,-27.500,-35.000
0.666,-46.000,-20.000,-27.000,-34.000
0.667,-44.000,-18.000,-25.000,-31.500
0.668,-39.500,-13.500,-20.000,-26.500
0.669,-33.000,-7.000,-13.500,-19.500
0.670,-28.000,-1.000,-7.500,-13.000
0.671,-25.000,3.000,-4.000,-8.500
0.672,-24.500,4.500,-2.500,-7.000
0.673,-25.500,4.500,-3.000,-6.500
0.674,-26.000,4.500,-3.000,-6.000
0.675,-26.000,4.500,-3.000,-5.500
0.676,-25.500,5.000,-3.000,-5.000
0.677,-25.500,4.500,-3.000,-5.500
0.678,-26.000,4.000,-4.000,-7.000
0.679,-27.500,2.000,-6.000,-9.500
0.680,-31.000,-2.000,-10.000,-14.000
0.681,-36.500,-7.500,-16.000,-20.500
0.682,-42.500,-14.500,-23.000,-28.000
0.683,-48.500,-21.500,-30.000,-35.000
0.684,-54.000,-27.500,-36.000,-41.000
0.685,-57.500,-32.000,-40.000,-45.500
0.686,-60.000,-34.500,-42.500,-48.000
0.687,-61.500,-36.000,-44.000,-49.000
0.688,-63.500,-37.000,-45.000,-49.500
0.689,-66.000,-38.500,-46.000,-51.000
0.690,-69.500,-41.000,-48.000,-53.000
0.691,-73.000,-44.000,-51.000,-55.500
0.692,-76.500,-47.500,-54.000,-58.500
0.693,-80.500,-51.000,-57.500,-62.000
0.694,-85.000,-55.500,-62.500,-67.000
0.695,-90.000,-61.000,-67.500,-72.500
0.696,-94.500,-66.000,-73.000,-78.000
0.697,-98.000,-70.500,-77.500,-83.000
0.698,-101.000,-74.000,-81.000,-87.000
0.699,-103.000,-77.000,-84.000,-90.500
0.700,-105.000,-80.000,-87.500,-94.000
0.701,-107.500,-84.000,-91.500,-98.500
0.702,-111.000,-88.000,-96.000,-103.500
0.703,-115.500,-93.000,-101.500,-109.000
0.704,-120.500,-98.500,-106.500,-115.000
0.705,-126.000,-103.500,-112.000,-120.500
0.706,-131.000,-108.500,-117.000,-125.500
0.707,-135.500,-112.500,-121.000,-129.500
0.708,-139.000,-116.000,-124.000,-132.500
0.709,-141.000,-118.000,-126.000,-134.000
0.710,-141.000,-117.500,-126.000,-133.500
0.711,-139.000,-115.500,-123.500,-131.000
0.712,-137.000,-113.000,-121.500,-128.500
0.713,-137.000,-113.000,-121.500,-128.500
0.714,-140.500,-116.500,-125.000,-132.000
0.715,-148.000,-124.000,-132.500,-139.000
0.716,-156.500,-133.000,-141.500,-147.500
0.717,-164.000,-141.000,-149.000,-155.000
0.718,-169.000,-146.500,-154.500,-160.500
0.719,-172.000,-150.500,-157.500,-164.000
0.720,-174.500,-153.500,-160.500,-167.000
0.721,-177.500,-156.500,-163.500,-170.500
0.722,-180.000,-159.000,-166.000,-173.000
0.723,-180.500,-160.000,-166.500,-173.500
0.724,-178.500,-159.000,-165.500,-173.000
0.725,-176.500,-157.000,-163.500,-171.500
0.726,-175.500,-156.000,-163.000,-171.500
0.727,-177.000,-157.000,-164.500,-173.000
0.728,-180.000,-159.000,-167.500,-176.500
0.729,-184.000,-162.500,-172.000,-181.000
0.730,-189.500,-167.000,-177.500,-186.000
0.731,-198.500,-175.000,-185.500,-194.500
0.732,-211.500,-187.000,-198.000,-206.500
0.733,-227.500,-202.500,-213.500,-222.000
0.734,-243.500,-218.000,-229.000,-237.500
0.735,-255.500,-230.000,-241.000,-249.000
0.736,-262.000,-237.000,-247.500,-255.000
0.737,-263.500,-239.000,-249.000,-256.500
0.738,-262.500,-238.000,-248.000,-255.500
0.739,-260.500,-236.500,-246.000,-254.000
0.740,-259.000,-235.500,-245.000,-253.000
0.741,-258.500,-235.000,-245.000,-253.500
0.742,-258.500,-235.000,-245.500,-254.000
0.743,-258.000,-234.500,-246.000,-255.000
0.744,-257.000,-234.500,-247.000,-255.500
0.745,-256.500,-234.000,-247.000,-255.500
0.746,-256.000,-233.500,-246.500,-255.000
0.747,-255.000,-232.500,-245.000,-253.500
0.748,-253.000,-230.500,-242.000,-250.500
0.749,-250.500,-227.000,-237.500,-246.500
0.750,-247.000,-223.000,-232.500,-241.000
0.751,-244.000,-219.000,-228.000,-236.500
0.752,-242.500,-216.500,-225.000,-233.500
0.753,-243.000,-216.500,-225.000,-233.000
0.754,-246.000,-218.500,-227.500,-235.500
0.755,-250.500,-223.000,-232.000,-240.000
0.756,-256.000,-228.500,-238.500,-246.000
0.757,-262.000,-234.500,-245.000,-252.500
0.758,-266.000,-239.000,-250.500,-257.500
0.759,-268.500,-241.000,-254.000,-261.000
0.760,-268.500,-242.000,-255.500,-262.000
0.761,-267.000,-241.000,-255.000,-261.500
0.762,-265.000,-240.000,-254.500,-260.500
0.763,-263.500,-239.000,-254.000,-260.000
0.764,-262.500,-239.500,-254.500,-260.500
0.765,-263.000,-240.000,-255.000,-261.000
0.766,-263.500,-241.000,-255.000,-261.500
0.767,-263.500,-241.000,-254.500,-261.000
0.768,-262.500,-240.500,-252.500,-259.000
0.769,-260.500,-238.500,-249.500,-256.500
0.770,-258.000,-236.000,-246.000,-253.000
0.771,-255.500,-233.000,-243.000,-250.000
0.772,-253.000,-229.500,-240.000,-246.500
0.773,-250.000,-226.500,-237.000,-244.000
0.774,-247.500,-223.500,-234.500,-241.500
0.775,-246.500,-221.500,-233.000,-239.500
0.776,-246.000,-220.500,-232.000,-239.000
0.777,-246.500,-220.500,-232.000,-239.500
0.778,-247.000,-220.500,-231.500,-239.500
0.779,-247.000,-220.000,-230.500,-239.000
0.780,-244.500,-218.000,-227.500,-237.000
0.781,-239.500,-213.000,-222.500,-232.000
0.782,-232.000,-205.500,-214.500,-224.500
0.783,-222.500,-197.000,-205.500,-215.000
0.784,-213.500,-188.500,-197.000,-206.500
0.785,-207.500,-182.500,-191.000,-200.500
0.786,-206.000,-181.000,-190.000,-199.500
0.787,-211.000,-186.000,-194.500,-204.000
0.788,-221.500,-196.000,-205.000,-213.500
0.789,-235.000,-209.500,-218.500,-227.000
0.790,-249.500,-223.500,-233.000,-240.500
0.791,-262.000,-236.000,-245.000,-252.500
0.792,-271.000,-245.000,-254.000,-261.000
0.793,-276.500,-250.000,-259.000,-265.500
0.794,-278.000,-251.500,-260.000,-266.500
0.795,-277.500,-250.500,-259.000,-265.500
0.796,-275.000,-248.000,-256.500,-263.000
0.797,-271.500,-244.500,-252.500,-259.500
0.798,-266.500,-240.000,-248.000,-255.000
0.799,-260.500,-235.000,-243.000,-250.000
0.800,-254.500,-230.000,-237.500,-245.000
0.801,-249.000,-225.000,-233.000,-240.500
0.802,-244.500,-221.500,-229.000,-237.000
0.803,-241.500,-219.000,-226.500,-234.500
0.804,-239.000,-217.000,-225.000,-233.500
0.805,-236.500,-215.000,-223.000,-231.500
0.806,-233.500,-212.000,-220.500,-228.500
0.807,-229.500,-208.000,-216.500,-224.500
0.808,-224.500,-203.000,-211.500,-219.000
0.809,-218.500,-196.000,-204.500,-212.000
0.810,-210.000,-187.000,-195.000,-202.000
0.811,-198.500,-175.000,-182.500,-189.500
0.812,-188.000,-163.500,-171.000,-177.500
0.813,-184.000,-159.000,-166.000,-172.500
0.814,-190.500,-165.500,-172.500,-179.000
0.815,-208.500,-183.500,-190.500,-196.500
0.816,-233.500,-208.500,-216.000,-221.500
0.817,-258.500,-234.000,-241.000,-247.000
0.818,-278.500,-254.000,-261.500,-267.000
0.819,-291.000,-267.500,-274.500,-280.000
0.820,-297.000,-274.000,-281.000,-286.500
0.821,-298.000,-275.500,-282.500,-288.000
0.822,-296.500,-274.500,-281.500,-287.500
0.823,-294.000,-272.500,-280.000,-285.500
0.824,-292.000,-270.000,-278.500,-284.000
0.825,-289.500,-268.000,-276.500,-282.500
0.826,-286.500,-265.000,-274.500,-280.500
0.827,-283.000,-260.500,-270.500,-276.500
0.828,-278.500,-255.500,-265.500,-271.500
0.829,-273.500,-250.500,-260.500,-266.500
0.830,-269.500,-245.500,-255.500,-262.000
0.831,-266.000,-242.000,-251.500,-257.500
0.832,-263.000,-239.000,-247.500,-254.000
0.833,-260.000,-236.000,-244.000,-250.000
0.834,-257.000,-233.500,-240.500,-246.500
0.835,-254.500,-231.500,-238.000,-244.500
0.836,-254.000,-231.000,-237.500,-244.000
0.837,-256.000,-233.000,-239.500,-246.000
0.838,-259.500,-237.000,-243.500,-250.500
0.839,-264.500,-242.000,-249.000,-256.500
0.840,-269.500,-246.500,-254.500,-262.000
0.841,-273.000,-250.000,-258.500,-266.500
0.842,-274.000,-251.500,-260.500,-269.000
0.843,-273.000,-251.000,-260.000,-269.000
0.844,-270.500,-249.000,-257.500,-267.000
0.845,-266.000,-244.500,-253.500,-262.500
0.846,-260.500,-238.500,-247.000,-256.500
0.847,-253.500,-231.500,-239.500,-249.000
0.848,-246.500,-223.500,-231.500,-240.500
0.849,-239.500,-216.500,-224.500,-232.500
0.850,-234.500,-210.500,-218.500,-226.500
0.851,-232.000,-207.000,-215.000,-223.000
0.852,-232.500,-207.000,-214.500,-223.000
0.853,-235.500,-209.000,-217.000,-225.500
0.854,-239.000,-212.500,-220.500,-229.000
0.855,-241.000,-214.500,-222.500,-230.500
0.856,-240.500,-214.000,-221.500,-230.000
0.857,-237.000,-211.000,-217.500,-226.500
0.858,-232.500,-207.000,-213.000,-222.000
0.859,-228.500,-203.500,-209.500,-218.000
0.860,-226.000,-201.500,-207.500,-216.000
0.861,-225.500,-202.000,-208.000,-217.000
0.862,-227.000,-204.000,-210.500,-219.500
0.863,-229.000,-206.500,-214.000,-222.500
0.864,-230.500,-208.000,-216.000,-225.000
0.865,-230.000,-208.000,-216.000,-225.000
0.866,-230.000,-208.000,-215.500,-224.500
0.867,-231.000,-209.500,-216.500,-225.500
0.868,-236.000,-214.500,-220.500,-229.500
0.869,-244.500,-222.000,-227.500,-236.500
0.870,-252.500,-229.500,-234.500,-243.500
0.871,-258.000,-234.000,-238.500,-248.000
0.872,-259.000,-234.000,-238.500,-248.000
0.873,-256.500,-231.500,-235.500,-245.500
0.874,-254.000,-228.500,-232.500,-243.000
0.875,-254.000,-228.000,-232.500,-242.500
0.876,-257.500,-231.000,-235.500,-245.500
0.877,-263.000,-236.500,-240.500,-251.000
0.878,-270.000,-243.500,-247.000,-258.000
0.879,-277.000,-250.500,-254.000,-265.000
0.880,-282.500,-257.000,-260.000,-271.000
0.881,-286.000,-261.000,-264.000,-275.500
0.882,-287.000,-262.500,-265.000,-277.500
0.883,-284.500,-260.500,-263.000,-276.000
0.884,-278.500,-255.000,-257.500,-270.500
0.885,-270.000,-246.500,-248.500,-262.000
0.886,-259.000,-235.000,-237.000,-250.500
0.887,-246.500,-222.000,-224.000,-237.500
0.888,-233.500,-209.000,-210.500,-224.000
0.889,-222.000,-197.000,-198.000,-211.000
0.890,-212.500,-187.000,-187.500,-200.500
0.891,-206.500,-180.500,-181.000,-193.000
0.892,-206.000,-179.500,-179.500,-191.000
0.893,-211.000,-184.500,-184.500,-195.500
0.894,-221.500,-195.000,-194.500,-205.000
0.895,-234.000,-207.500,-207.000,-218.000
0.896,-246.500,-220.500,-220.000,-231.000
0.897,-257.500,-231.500,-231.500,-242.500
0.898,-266.500,-241.000,-241.500,-253.000
0.899,-274.500,-249.500,-250.000,-262.000
0.900,-281.000,-256.500,-258.000,-270.000
0.901,-286.000,-262.500,-263.500,-276.500
0.902,-289.000,-266.000,-267.500,-280.500
0.903,-290.500,-268.000,-269.500,-282.500
0.904,-291.500,-269.000,-271.000,-284.500
0.905,-292.500,-270.000,-272.000,-285.500
0.906,-293.000,-269.500,-272.000,-285.500
0.907,-291.000,-267.000,-269.000,-282.500
0.908,-286.000,-261.500,-263.000,-276.000
0.909,-279.500,-254.000,-255.000,-268.000
0.910,-273.500,-246.500,-247.500,-260.000
0.911,-269.000,-241.500,-242.500,-254.500
0.912,-267.500,-239.500,-240.500,-252.000
0.913,-267.500,-239.500,-240.500,-251.500
0.914,-269.000,-240.500,-241.500,-252.500
0.915,-270.000,-241.500,-242.500,-253.000
0.916,-270.000,-241.500,-242.500,-253.000
0.917,-269.500,-241.500,-242.500,-253.000
0.918,-268.000,-240.500,-241.500,-252.500
0.919,-266.000,-238.500,-240.500,-252.000
0.920,-263.500,-236.500,-238.500,-250.000
0.921,-260.000,-234.000,-236.500,-248.000
0.922,-257.500,-232.000,-235.000,-246.500
0.923,-256.500,-231.000,-234.500,-246.000
0.924,-256.500,-231.500,-235.500,-247.000
0.925,-257.500,-233.500,-237.500,-249.000
0.926,-259.500,-235.500,-239.500,-251.500
0.927,-261.000,-237.000,-241.000,-253.000
0.928,-261.000,-237.000,-241.000,-253.000
0.929,-258.500,-234.500,-238.000,-250.500
0.930,-254.000,-229.500,-233.000,-245.500
0.931,-247.000,-222.500,-225.500,-238.000
0.932,-240.500,-215.500,-217.500,-230.000
0.933,-235.500,-210.000,-212.000,-224.500
0.934,-234.000,-207.000,-209.000,-221.500
0.935,-235.000,-207.000,-209.000,-221.000
0.936,-236.500,-208.000,-210.000,-221.500
0.937,-237.500,-209.000,-211.000,-222.500
0.938,-237.000,-209.000,-211.000,-222.000
0.939,-237.000,-209.500,-211.000,-223.000
0.940,-239.000,-212.500,-214.500,-226.000
0.941,-245.500,-219.500,-221.500,-233.000
0.942,-255.500,-230.000,-232.000,-243.500
0.943,-267.500,-243.000,-244.500,-256.000
0.944,-280.500,-255.500,-257.000,-268.500
0.945,-290.500,-266.000,-267.500,-278.500
0.946,-295.500,-271.500,-273.000,-284.000
0.947,-296.500,-273.000,-274.500,-285.000
0.948,-293.500,-270.500,-272.000,-282.000
0.949,-289.500,-266.000,-267.500,-277.500
0.950,-285.000,-261.500,-262.500,-272.500
0.951,-281.500,-257.000,-258.000,-268.000
0.952,-279.500,-254.500,-255.500,-265.000
0.953,-279.500,-254.000,-256.000,-265.000
0.954,-281.500,-255.500,-258.500,-267.500
0.955,-284.000,-258.000,-261.500,-270.500
0.956,-285.500,-259.500,-263.000,-272.000
0.957,-284.500,-259.000,-262.500,-271.500
0.958,-280.500,-255.000,-258.000,-268.000
0.959,-274.000,-249.000,-251.500,-261.500
0.960,-266.500,-241.500,-243.500,-254.000
0.961,-260.500,-235.500,-237.000,-248.000
0.962,-256.500,-232.000,-233.000,-244.000
0.963,-254.500,-230.500,-231.500,-242.500
0.964,-253.000,-229.000,-229.500,-241.000
0.965,-250.000,-225.500,-226.500,-238.000
0.966,-244.500,-220.000,-221.000,-232.500
0.967,-237.500,-213.000,-214.000,-225.500
0.968,-231.000,-205.500,-207.000,-218.500
0.969,-226.000,-199.500,-201.500,-212.500
0.970,-224.000,-196.500,-198.500,-209.500
0.971,-224.500,-196.500,-199.000,-209.500
0.972,-228.000,-199.000,-201.500,-212.000
0.973,-233.500,-204.000,-207.000,-217.500
0.974,-241.000,-212.000,-214.500,-225.500
0.975,-250.000,-221.000,-223.500,-234.500
0.976,-257.500,-229.500,-231.500,-243.000
0.977,-262.500,-235.000,-236.500,-248.500
0.978,-265.000,-238.500,-239.000,-251.500
0.979,-267.500,-241.000,-241.000,-253.500
0.980,-270.000,-244.000,-243.500,-257.000
0.981,-273.500,-248.000,-247.500,-261.500
0.982,-277.500,-252.000,-252.000,-266.000
0.983,-279.500,-255.000,-255.000,-269.000
0.984,-279.500,-254.500,-254.500,-269.000
0.985,-277.000,-252.000,-252.000,-266.500
0.986,-273.500,-248.500,-248.000,-263.000
0.987,-271.000,-245.500,-244.500,-259.500
0.988,-269.500,-243.500,-242.500,-257.500
0.989,-268.500,-242.500,-241.500,-255.500
0.990,-266.500,-240.500,-239.500,-253.000
0.991,-264.000,-237.500,-237.000,-249.500
0.992,-262.000,-235.500,-235.500,-247.000
0.993,-262.500,-236.000,-235.500,-246.500
0.994,-265.000,-239.000,-238.500,-249.000
0.995,-270.000,-243.500,-243.000,-254.000
0.996,-274.500,-248.000,-248.000,-258.500
0.997,-277.500,-251.500,-252.000,-262.500
0.998,-279.500,-253.500,-254.500,-265.000
0.999,-280.500,-255.000,-256.500,-267.000
1.000,-281.500,-255.500,-258.000,-268.500
1.001,-281.500,-256.000,-258.500,-269.500
1.002,-280.500,-255.500,-258.000,-269.000
1.003,-278.500,-253.500,-256.000,-267.500
1.004,-275.000,-250.000,-252.500,-264.000
1.005,-271.000,-246.000,-248.500,-260.000
1.006,-267.500,-242.500,-245.000,-256.500
1.007,-266.000,-241.000,-243.000,-254.500
1.008,-267.000,-241.500,-243.500,-255.000
1.009,-268.500,-243.000,-245.000,-256.000
1.010,-270.000,-244.000,-246.000,-256.500
1.011,-270.000,-243.500,-245.000,-256.000
1.012,-269.000,-242.500,-243.500,-254.500
1.013,-267.500,-240.500,-241.500,-252.500
1.014,-266.000,-239.000,-239.500,-251.500
1.015,-265.500,-238.500,-239.000,-251.500
1.016,-265.500,-239.000,-239.500,-252.000
1.017,-266.000,-240.500,-240.500,-253.500
1.018,-267.500,-242.500,-243.000,-255.500
1.019,-269.500,-245.000,-245.500,-258.000
1.020,-271.500,-248.000,-248.500,-261.000
1.021,-273.500,-250.500,-251.000,-264.000
1.022,-275.000,-252.000,-253.500,-266.500
1.023,-276.000,-254.000,-255.500,-268.500
1.024,-277.000,-255.000,-257.000,-270.000
1.025,-277.500,-255.500,-257.500,-270.500
1.026,-277.000,-255.000,-257.000,-270.000
1.027,-275.000,-253.000,-255.000,-267.500
1.028,-272.500,-250.000,-251.500,-264.000
1.029,-269.500,-246.500,-248.500,-260.000
1.030,-266.500,-243.000,-244.500,-256.000
1.031,-263.000,-239.000,-240.000,-251.000
1.032,-259.000,-234.000,-235.000,-245.500
1.033,-255.000,-229.500,-230.000,-241.000
1.034,-252.500,-226.500,-227.000,-237.500
1.035,-252.000,-225.500,-225.500,-236.500
1.036,-252.500,-226.000,-226.500,-237.500
1.037,-254.500,-228.000,-228.500,-240.000
1.038,-256.500,-230.500,-231.000,-242.500
1.039,-258.500,-233.000,-233.500,-245.000
1.040,-260.000,-235.000,-235.000,-247.000
1.041,-262.000,-237.500,-237.000,-249.000
1.042,-264.500,-240.500,-240.000,-252.000
1.043,-267.500,-243.500,-243.000,-255.500
1.044,-269.500,-245.500,-245.500,-258.000
1.045,-270.000,-246.500,-246.500,-259.500
1.046,-269.000,-245.000,-246.000,-258.500
1.047,-266.500,-242.500,-244.000,-256.500
1.048,-264.500,-240.000,-242.000,-254.000
1.049,-263.500,-239.000,-241.000,-253.000
1.050,-264.500,-239.500,-242.500,-254.000
1.051,-267.500,-242.500,-245.000,-256.500
1.052,-271.000,-245.500,-248.500,-260.000
1.053,-274.500,-249.500,-252.500,-263.500
1.054,-279.000,-254.000,-257.000,-268.000
1.055,-284.000,-259.500,-262.500,-273.500
1.056,-289.000,-265.500,-268.000,-278.500
1.057,-292.000,-269.000,-271.000,-281.500
1.058,-291.000,-268.000,-270.000,-280.000
1.059,-285.000,-262.500,-265.000,-274.500
1.060,-277.000,-254.500,-257.500,-267.000
1.061,-270.500,-247.500,-250.500,-261.000
1.062,-267.000,-244.500,-247.500,-258.000
1.063,-268.000,-245.500,-248.000,-259.000
1.064,-271.500,-249.000,-251.500,-263.000
1.065,-275.000,-253.000,-255.000,-266.000
1.066,-276.000,-254.000,-256.000,-267.000
1.067,-273.500,-252.000,-254.000,-265.000
1.068,-269.500,-248.000,-249.500,-260.500
1.069,-265.500,-243.000,-245.000,-255.500
1.070,-262.500,-239.000,-241.000,-251.500
1.071,-262.000,-237.500,-240.000,-250.000
1.072,-264.000,-238.500,-241.000,-251.000
1.073,-267.500,-241.500,-244.000,-254.000
1.074,-271.500,-245.000,-248.000,-257.500
1.075,-274.500,-248.500,-251.500,-261.000
1.076,-277.000,-251.000,-254.000,-263.500
1.077,-278.500,-253.000,-255.500,-265.500
1.078,-279.000,-253.500,-256.500,-266.000
1.079,-277.500,-253.000,-255.500,-265.500
1.080,-274.500,-250.500,-252.500,-263.000
1.081,-269.500,-246.000,-247.500,-258.500
1.082,-263.000,-239.500,-241.500,-252.500
1.083,-255.500,-232.500,-234.500,-245.500
1.084,-249.000,-226.000,-227.500,-238.500
1.085,-243.500,-220.500,-222.000,-233.000
1.086,-240.000,-216.500,-218.500,-229.000
1.087,-238.500,-215.500,-217.000,-227.500
1.088,-240.000,-216.500,-218.000,-228.500
1.089,-242.500,-219.000,-220.500,-231.500
1.090,-245.000,-221.500,-223.000,-233.500
1.091,-245.500,-222.500,-223.500,-234.000
1.092,-243.500,-220.500,-222.000,-232.000
1.093,-240.500,-217.500,-218.500,-228.000
1.094,-237.000,-214.000,-215.000,-224.000
1.095,-236.000,-213.000,-213.500,-222.500
1.096,-236.500,-214.000,-214.000,-223.500
1.097,-238.000,-216.000,-215.500,-225.500
1.098,-239.000,-216.500,-217.000,-227.000
1.099,-239.000,-216.500,-217.500,-227.500
1.100,-239.000,-216.500,-218.000,-228.500
1.101,-239.500,-217.000,-219.500,-230.000
1.102,-240.500,-218.500,-221.000,-232.000
1.103,-242.000,-220.000,-223.000,-234.000
1.104,-242.500,-220.500,-224.000,-235.500
1.105,-242.000,-220.000,-223.500,-235.000
1.106,-240.000,-218.000,-221.000,-233.000
1.107,-238.000,-215.500,-218.500,-230.500
1.108,-236.500,-213.000,-216.000,-228.000
1.109,-236.000,-211.500,-214.500,-226.500
1.110,-235.500,-210.500,-213.000,-225.000
1.111,-234.000,-208.000,-211.000,-222.500
1.112,-231.000,-204.000,-207.500,-219.000
1.113,-226.000,-199.000,-202.500,-214.000
1.114,-221.500,-193.500,-197.500,-209.000
1.115,-217.500,-189.500,-193.000,-204.500
1.116,-215.000,-186.500,-190.000,-201.500
1.117,-213.000,-184.500,-187.500,-199.500
1.118,-210.500,-182.000,-185.000,-197.000
1.119,-207.500,-179.500,-182.500,-194.500
1.120,-204.500,-177.000,-180.500,-192.500
1.121,-201.500,-175.000,-178.000,-190.500
1.122,-199.000,-173.000,-176.500,-188.500
1.123,-196.500,-171.500,-174.500,-187.000
1.124,-195.500,-171.000,-174.000,-187.000
1.125,-199.000,-174.500,-177.500,-190.500
1.126,-207.500,-183.500,-186.000,-199.000
1.127,-220.000,-195.500,-198.000,-211.500
1.128,-232.000,-207.500,-210.000,-223.000
1.129,-240.000,-215.500,-218.000,-231.000
1.130,-244.000,-219.000,-221.500,-234.000
1.131,-246.000,-221.000,-223.000,-235.500
1.132,-249.500,-224.500,-226.500,-238.500
1.133,-256.500,-231.000,-232.500,-245.000
1.134,-264.500,-239.000,-240.500,-253.000
1.135,-270.500,-245.000,-246.500,-258.500
1.136,-271.000,-246.000,-247.500,-259.500
1.137,-266.000,-241.500,-243.000,-255.000
1.138,-258.500,-234.000,-236.000,-248.000
1.139,-251.000,-227.000,-230.000,-242.000
1.140,-246.500,-222.500,-226.000,-238.500
1.141,-243.500,-220.000,-224.000,-236.500
1.142,-241.500,-218.500,-223.000,-235.500
1.143,-239.000,-216.500,-221.000,-233.500
1.144,-236.000,-214.000,-218.000,-230.000
1.145,-232.500,-210.000,-214.000,-226.000
1.146,-229.000,-206.000,-210.000,-222.000
1.147,-227.500,-204.500,-208.500,-220.000
1.148,-229.500,-207.000,-210.000,-221.500
1.149,-236.500,-213.000,-216.000,-227.000
1.150,-246.500,-223.000,-225.000,-236.500
1.151,-258.000,-234.000,-235.500,-247.000
1.152,-268.000,-243.500,-245.000,-256.000
1.153,-275.000,-250.000,-251.000,-262.000
1.154,-277.000,-251.500,-252.500,-263.500
1.155,-276.000,-250.000,-251.000,-262.000
1.156,-273.000,-247.500,-248.000,-259.000
1.157,-269.500,-244.000,-244.500,-255.500
1.158,-265.000,-240.000,-240.500,-251.000
1.159,-259.000,-235.000,-235.500,-246.000
1.160,-252.500,-229.000,-230.000,-240.500
1.161,-246.500,-223.500,-225.500,-236.000
1.162,-243.000,-220.500,-223.500,-234.000
1.163,-244.000,-221.500,-225.000,-236.000
1.164,-250.000,-227.500,-232.000,-243.500
1.165,-261.500,-239.500,-244.000,-256.000
1.166,-277.500,-255.500,-259.500,-272.500
1.167,-296.000,-273.500,-277.500,-290.000
1.168,-312.500,-290.500,-293.000,-306.000
1.169,-324.000,-302.000,-303.500,-316.000
1.170,-328.500,-306.000,-307.500,-319.500
1.171,-327.000,-304.500,-305.000,-316.500
1.172,-321.500,-299.000,-299.500,-311.000
1.173,-316.000,-293.000,-293.500,-304.500
1.174,-311.000,-288.000,-289.500,-300.000
1.175,-308.000,-284.500,-287.000,-297.000
1.176,-305.000,-282.000,-285.000,-294.500
1.177,-301.500,-278.500,-282.000,-291.500
1.178,-298.000,-274.500,-279.000,-288.000
1.179,-293.500,-270.500,-275.000,-284.500
1.180,-289.500,-266.500,-271.500,-281.500
1.181,-286.000,-263.000,-268.500,-278.500
1.182,-283.500,-260.500,-266.000,-276.500
1.183,-281.000,-259.000,-264.000,-275.000
1.184,-280.000,-258.000,-263.000,-274.000
1.185,-279.500,-258.000,-263.000,-274.000
1.186,-280.500,-259.000,-263.500,-274.500
1.187,-282.000,-260.500,-264.500,-275.500
1.188,-284.500,-262.500,-265.000,-276.500
1.189,-286.500,-264.000,-266.000,-277.500
1.190,-288.500,-264.500,-266.000,-277.500
1.191,-289.500,-265.000,-266.000,-277.500
1.192,-290.500,-265.500,-266.000,-277.500
1.193,-291.500,-266.500,-266.500,-277.500
1.194,-293.000,-267.500,-268.000,-279.000
1.195,-295.000,-270.000,-270.000,-281.500
1.196,-297.000,-272.500,-273.000,-284.000
1.197,-298.000,-274.000,-275.000,-286.500
1.198,-297.500,-274.000,-275.500,-287.500
1.199,-295.500,-272.500,-274.000,-286.500
1.200,-292.000,-270.000,-272.000,-284.500
1.201,-288.500,-267.000,-269.500,-282.000
1.202,-285.500,-264.000,-267.000,-279.500
1.203,-281.500,-260.500,-264.000,-276.500
1.204,-276.000,-255.000,-258.500,-271.000
1.205,-266.000,-244.500,-248.000,-260.000
1.206,-250.000,-228.500,-231.500,-243.000
1.207,-229.000,-207.000,-209.500,-220.500
1.208,-207.000,-184.000,-186.000,-196.500
1.209,-187.500,-163.500,-164.500,-175.000
1.210,-170.500,-146.000,-146.500,-155.500
1.211,-154.000,-128.000,-128.500,-136.500
1.212,-134.000,-108.000,-107.500,-114.500
1.213,-109.500,-82.500,-81.500,-88.000
1.214,-79.000,-51.500,-49.500,-55.000
1.215,-42.000,-14.000,-10.500,-16.000
1.216,1.500,30.000,34.500,29.000
1.217,50.500,79.000,84.500,79.000
1.218,101.500,131.000,136.500,130.500
1.219,152.500,182.500,188.000,182.000
1.220,201.000,231.000,236.500,230.500
1.221,245.500,276.500,281.500,275.500
1.222,288.000,318.500,324.000,318.000
1.223,328.500,359.500,365.000,360.000
1.224,367.500,399.000,405.000,400.500
1.225,404.500,436.000,442.500,438.000
1.226,435.000,467.000,473.500,469.500
1.227,456.000,488.000,494.500,490.500
1.228,463.500,496.000,501.500,498.000
1.229,454.500,487.000,492.500,488.500
1.230,428.000,461.000,465.500,461.000
1.231,384.000,417.500,422.000,416.500
1.232,327.500,361.000,365.000,359.000
1.233,263.500,297.000,300.500,294.500
1.234,199.500,232.500,235.500,229.000
1.235,140.000,172.000,174.500,168.000
1.236,87.500,118.500,121.000,114.000
1.237,41.500,71.500,73.500,66.000
1.238,1.500,30.500,31.500,23.500
1.239,-34.000,-6.000,-5.500,-14.000
1.240,-65.000,-38.000,-38.500,-47.500
1.241,-92.000,-66.500,-68.000,-77.500
1.242,-117.000,-92.500,-94.500,-104.500
1.243,-139.000,-115.500,-119.000,-128.500
1.244,-159.000,-136.500,-140.000,-150.000
1.245,-175.500,-153.500,-157.500,-167.500
1.246,-188.000,-166.500,-170.000,-180.000
1.247,-196.500,-175.500,-178.500,-188.500
1.248,-203.000,-182.000,-185.500,-195.500
1.249,-209.500,-188.500,-191.500,-201.500
1.250,-215.500,-194.500,-197.500,-207.500
1.251,-220.500,-199.500,-201.500,-212.000
1.252,-223.000,-201.000,-202.500,-213.500
1.253,-222.500,-200.000,-201.000,-212.000
1.254,-220.000,-197.500,-198.000,-209.000
1.255,-217.500,-194.500,-196.000,-206.500
1.256,-216.500,-194.500,-195.500,-206.000
1.257,-218.500,-196.500,-198.500,-209.000
1.258,-222.500,-201.000,-203.500,-214.000
1.259,-227.500,-206.000,-208.500,-220.000
1.260,-232.000,-210.500,-213.500,-225.000
1.261,-235.000,-214.000,-217.000,-229.000
1.262,-237.000,-216.500,-220.000,-231.500
1.263,-238.500,-218.500,-221.500,-233.500
1.264,-238.500,-219.000,-222.000,-234.000
1.265,-238.500,-219.500,-222.000,-234.000
1.266,-239.500,-220.000,-222.000,-234.500
1.267,-242.000,-222.500,-224.000,-236.000
1.268,-247.500,-226.500,-228.000,-240.500
1.269,-253.500,-232.000,-233.000,-245.500
1.270,-258.500,-236.500,-237.500,-249.500
1.271,-261.000,-238.500,-239.500,-251.500
1.272,-262.000,-239.500,-240.000,-252.000
1.273,-262.000,-239.000,-239.500,-251.500
1.274,-260.500,-238.500,-238.000,-250.500
1.275,-258.000,-236.000,-235.500,-248.000
1.276,-254.500,-232.500,-232.000,-244.000
1.277,-250.000,-228.500,-227.500,-240.000
1.278,-245.500,-224.000,-223.500,-236.000
1.279,-242.000,-220.000,-220.500,-233.000
1.280,-238.500,-217.000,-217.500,-231.000
1.281,-236.000,-214.000,-216.000,-229.500
1.282,-235.000,-213.000,-215.000,-229.000
1.283,-236.000,-213.500,-216.000,-230.500
1.284,-238.000,-215.500,-218.000,-232.000
1.285,-239.000,-216.000,-219.000,-233.000
1.286,-237.500,-214.500,-217.000,-231.500
1.287,-232.500,-209.000,-212.000,-226.500
1.288,-225.500,-201.500,-204.500,-218.500
1.289,-218.500,-194.500,-197.500,-211.500
1.290,-215.500,-190.500,-194.000,-207.500
1.291,-217.500,-192.500,-196.000,-209.500
1.292,-225.000,-199.500,-203.000,-216.000
1.293,-233.500,-208.000,-211.500,-224.500
1.294,-241.000,-215.500,-219.000,-231.500
1.295,-244.000,-219.500,-222.500,-235.000
1.296,-244.500,-220.000,-223.500,-236.000
1.297,-244.500,-220.000,-223.000,-236.000
1.298,-245.500,-221.000,-224.500,-237.500
1.299,-249.500,-225.000,-228.000,-241.500
1.300,-255.000,-231.000,-234.000,-247.000
1.301,-260.500,-236.500,-239.500,-253.000
1.302,-264.500,-241.000,-244.000,-257.000
1.303,-267.000,-243.500,-247.000,-259.500
1.304,-267.500,-244.500,-248.000,-261.000
1.305,-267.000,-244.500,-248.000,-260.500
1.306,-265.000,-242.500,-246.500,-259.500
1.307,-262.000,-240.000,-244.000,-257.000
1.308,-258.000,-236.500,-241.000,-254.000
1.309,-255.000,-234.000,-238.500,-252.000
1.310,-253.000,-232.000,-237.000,-250.500
1.311,-252.000,-231.000,-236.500,-250.000
1.312,-250.500,-229.500,-235.000,-248.500
1.313,-248.500,-227.500,-233.000,-246.500
1.314,-246.500,-225.000,-231.000,-244.000
1.315,-245.000,-223.000,-229.000,-242.000
1.316,-244.000,-221.500,-227.500,-240.500
1.317,-243.000,-220.000,-225.500,-239.000
1.318,-241.500,-218.500,-223.000,-237.000
1.319,-238.500,-215.500,-219.500,-233.500
1.320,-233.500,-210.500,-214.000,-228.500
1.321,-226.500,-203.500,-207.000,-221.500
1.322,-219.000,-196.000,-199.500,-214.500
1.323,-212.500,-190.000,-193.000,-208.500
1.324,-209.500,-187.000,-190.000,-206.000
1.325,-210.000,-187.000,-190.500,-206.500
1.326,-212.000,-189.000,-192.000,-208.500
1.327,-214.000,-190.500,-194.000,-210.000
1.328,-214.500,-191.000,-194.000,-210.500
1.329,-213.500,-190.000,-193.000,-209.000
1.330,-211.500,-188.000,-190.500,-206.500
1.331,-208.000,-184.500,-187.500,-203.000
1.332,-205.000,-181.000,-184.000,-199.500
1.333,-202.500,-179.000,-182.000,-197.000
1.334,-202.000,-178.500,-182.000,-196.500
1.335,-204.000,-180.500,-184.000,-198.500
1.336,-207.000,-184.500,-188.000,-202.500
1.337,-210.500,-189.000,-193.000,-207.000
1.338,-214.500,-193.500,-197.500,-211.500
1.339,-217.000,-196.500,-200.500,-214.500
1.340,-218.000,-197.500,-201.000,-215.000
1.341,-218.000,-197.000,-200.500,-214.500
1.342,-218.500,-197.500,-200.000,-214.500
1.343,-220.500,-199.000,-201.500,-216.000
1.344,-224.000,-202.000,-204.500,-219.500
1.345,-228.500,-206.000,-208.500,-223.500
1.346,-234.000,-211.000,-213.500,-228.500
1.347,-240.500,-216.500,-219.000,-233.500
1.348,-247.000,-222.000,-224.500,-239.000
1.349,-252.500,-226.500,-229.000,-243.000
1.350,-256.000,-229.500,-231.500,-245.500
1.351,-258.000,-231.500,-233.500,-246.500
1.352,-260.000,-233.500,-235.000,-248.000
1.353,-263.500,-237.000,-238.500,-250.500
1.354,-268.500,-242.000,-243.500,-255.500
1.355,-273.500,-247.500,-249.000,-260.500
1.356,-277.000,-251.000,-252.500,-264.500
1.357,-277.500,-251.500,-253.000,-265.000
1.358,-275.000,-249.500,-250.500,-263.000
1.359,-270.500,-245.000,-246.500,-259.000
1.360,-264.500,-239.000,-241.500,-254.000
1.361,-258.500,-233.500,-236.000,-248.500
1.362,-252.500,-227.500,-231.000,-243.500
1.363,-247.000,-222.500,-226.500,-239.500
1.364,-242.500,-218.500,-222.500,-235.500
1.365,-239.500,-215.500,-220.500,-233.500
1.366,-238.000,-214.500,-219.500,-232.500
1.367,-238.000,-214.000,-219.500,-232.500
1.368,-238.000,-214.000,-219.000,-232.500
1.369,-237.000,-212.500,-217.500,-231.000
1.370,-235.000,-210.000,-214.500,-227.500
1.371,-233.000,-207.000,-211.500,-224.500
1.372,-231.500,-205.000,-209.500,-222.000
1.373,-231.500,-204.500,-208.500,-221.000
1.374,-232.500,-205.000,-209.000,-221.500
1.375,-233.500,-206.000,-209.500,-222.000
1.376,-233.000,-205.500,-209.000,-221.500
1.377,-231.000,-203.500,-207.000,-219.500
1.378,-227.000,-200.000,-203.500,-216.500
1.379,-222.000,-195.500,-199.500,-212.500
1.380,-217.000,-191.000,-195.500,-208.500
1.381,-212.500,-187.500,-192.000,-205.000
1.382,-208.500,-184.500,-189.000,-201.500
1.383,-205.500,-182.000,-186.000,-199.000
1.384,-203.000,-180.000,-184.000,-197.000
1.385,-202.000,-179.000,-182.500,-195.000
1.386,-201.000,-178.000,-180.500,-193.500
1.387,-199.500,-176.500,-178.500,-191.000
1.388,-196.500,-173.500,-174.500,-187.000
1.389,-192.000,-168.500,-168.500,-181.000
1.390,-186.000,-162.500,-162.000,-174.500
1.391,-182.500,-157.500,-157.500,-170.000
1.392,-182.500,-157.000,-157.000,-169.500
1.393,-188.000,-161.500,-162.000,-175.000
1.394,-197.500,-170.000,-171.500,-184.500
1.395,-208.500,-181.000,-182.500,-195.500
1.396,-218.000,-190.500,-192.500,-205.500
1.397,-223.000,-196.500,-199.000,-211.500
1.398,-224.000,-198.500,-201.000,-214.000
1.399,-222.000,-197.500,-200.500,-213.500
1.400,-218.500,-194.500,-198.000,-211.000
1.401,-214.500,-191.000,-194.500,-208.000
1.402,-210.000,-187.500,-190.500,-204.000
1.403,-205.000,-182.500,-185.500,-199.000
1.404,-200.000,-178.000,-181.000,-194.500
1.405,-196.000,-174.500,-177.000,-191.000
1.406,-193.500,-172.000,-175.000,-188.500
1.407,-191.500,-170.500,-173.500,-187.000
1.408,-189.500,-168.000,-171.500,-185.000
1.409,-186.000,-164.500,-168.000,-181.000
1.410,-181.000,-159.500,-162.500,-175.500
1.411,-175.000,-153.000,-156.000,-168.500
1.412,-168.500,-146.500,-148.500,-161.000
1.413,-162.000,-139.500,-141.000,-154.000
1.414,-155.500,-132.500,-133.500,-146.500
1.415,-149.000,-125.500,-126.500,-139.500
1.416,-143.500,-119.500,-120.500,-133.500
1.417,-141.000,-116.500,-118.000,-131.000
1.418,-143.500,-118.500,-120.000,-133.500
1.419,-150.000,-125.000,-126.500,-140.500
1.420,-158.000,-133.000,-135.000,-149.000
1.421,-164.000,-139.000,-141.000,-155.500
1.422,-165.500,-141.000,-142.500,-157.500
1.423,-162.500,-138.500,-140.500,-156.000
1.424,-158.000,-135.000,-136.500,-152.500
1.425,-154.500,-131.500,-133.500,-149.500
1.426,-153.500,-131.000,-133.000,-149.500
1.427,-153.500,-131.500,-134.500,-150.500
1.428,-154.000,-131.500,-135.500,-151.000
1.429,-153.000,-130.500,-134.500,-149.500
1.430,-150.500,-127.000,-131.000,-146.500
1.431,-147.000,-123.000,-127.000,-142.000
1.432,-144.000,-120.000,-123.500,-138.500
1.433,-142.000,-118.000,-121.000,-136.000
1.434,-142.000,-118.000,-121.000,-136.000
1.435,-143.500,-120.500,-123.000,-138.000
1.436,-146.000,-123.000,-125.500,-140.000
1.437,-147.500,-124.500,-126.500,-141.000
1.438,-146.500,-123.000,-125.000,-139.500
1.439,-142.000,-118.500,-120.000,-134.500
1.440,-136.000,-112.000,-114.000,-128.500
1.441,-130.000,-106.000,-108.000,-122.500
1.442,-125.000,-101.000,-103.000,-117.500
1.443,-121.000,-97.000,-99.500,-114.000
1.444,-117.500,-94.000,-96.500,-110.500
1.445,-114.500,-90.500,-93.500,-107.500
1.446,-110.500,-87.000,-90.000,-104.000
1.447,-105.500,-82.000,-85.000,-99.500
1.448,-99.000,-75.500,-78.500,-92.500
1.449,-90.000,-66.500,-69.500,-83.500
1.450,-80.000,-56.000,-59.000,-72.500
1.451,-70.000,-45.500,-48.500,-61.500
1.452,-62.500,-37.000,-40.000,-53.000
1.453,-57.500,-32.500,-35.500,-48.000
1.454,-56.500,-31.000,-34.000,-46.500
1.455,-58.000,-32.000,-35.500,-48.000
1.456,-61.000,-35.000,-38.000,-51.000
1.457,-65.000,-39.000,-42.500,-55.000
1.458,-70.500,-44.500,-48.000,-60.500
1.459,-77.000,-51.000,-54.500,-67.500
1.460,-84.000,-58.500,-62.000,-74.500
1.461,-90.500,-64.500,-68.000,-81.000
1.462,-93.500,-67.500,-71.000,-84.000
1.463,-91.500,-65.500,-69.000,-82.500
1.464,-85.500,-59.000,-62.500,-76.000
1.465,-76.500,-50.000,-53.500,-67.000
1.466,-66.500,-40.000,-44.000,-57.000
1.467,-57.000,-30.000,-34.000,-47.000
1.468,-48.000,-21.000,-25.500,-38.000
1.469,-41.000,-13.000,-17.500,-30.000
1.470,-35.500,-7.000,-11.000,-23.000
1.471,-31.000,-2.000,-6.000,-18.000
1.472,-27.500,1.500,-1.500,-13.500
1.473,-23.000,6.000,3.000,-9.000
1.474,-18.000,10.500,8.000,-4.000
1.475,-14.000,14.500,12.500,0.000
1.476,-12.500,15.500,13.500,1.000
1.477,-14.500,13.000,11.000,-2.000
1.478,-19.000,8.000,6.000,-7.000
1.479,-24.000,2.500,0.500,-13.000
1.480,-28.500,-3.000,-5.000,-18.500
1.481,-32.000,-7.000,-9.500,-23.000
1.482,-34.000,-9.500,-12.500,-26.500
1.483,-34.000,-10.000,-13.500,-27.000
1.484,-32.000,-8.000,-12.000,-25.500
1.485,-28.000,-4.000,-8.500,-22.000
1.486,-23.000,1.500,-3.500,-17.000
1.487,-17.000,7.500,2.500,-11.000
1.488,-11.000,14.000,8.500,-5.000
1.489,-5.000,20.500,14.500,1.500
1.490,2.000,27.500,21.500,9.000
1.491,9.500,35.500,28.500,16.500
1.492,16.500,42.500,35.500,23.500
1.493,21.000,47.000,39.500,28.000
1.494,21.500,47.500,40.000,28.000
1.495,19.000,44.500,36.500,25.000
1.496,14.500,39.500,31.000,19.500
1.497,8.500,33.000,24.500,13.000
1.498,1.500,25.500,17.000,5.500
1.499,-7.000,17.000,8.000,-3.500
1.500,-15.000,9.000,-1.000,-12.000
1.501,-20.500,3.500,-6.500,-17.500
1.502,-22.000,2.000,-8.500,-19.500
1.503,-21.000,3.000,-8.000,-18.500
1.504,-21.500,3.000,-7.500,-18.500
1.505,-25.500,-0.500,-11.000,-22.500
1.506,-34.000,-8.500,-19.000,-30.500
1.507,-45.500,-19.500,-30.000,-42.000
1.508,-57.000,-30.500,-41.500,-53.000
1.509,-66.000,-39.500,-50.500,-62.500
1.510,-72.000,-45.500,-56.000,-68.000
1.511,-74.500,-47.500,-58.500,-70.000
1.512,-75.500,-48.000,-58.500,-70.000
1.513,-76.500,-49.000,-59.500,-71.000
1.514,-80.500,-52.500,-63.000,-74.500
1.515,-86.500,-59.000,-69.500,-80.500
1.516,-93.500,-66.000,-77.000,-87.500
1.517,-99.500,-73.000,-84.000,-94.500
1.518,-104.000,-78.000,-89.500,-100.500
1.519,-108.500,-83.000,-95.000,-106.000
1.520,-113.000,-88.000,-100.500,-112.000
1.521,-118.500,-94.000,-107.000,-118.500
1.522,-124.000,-100.000,-112.500,-124.500
1.523,-129.000,-105.500,-118.000,-130.000
1.524,-133.000,-110.000,-122.500,-135.000
1.525,-137.500,-114.500,-127.000,-140.000
1.526,-142.000,-119.500,-132.000,-145.500
1.527,-147.500,-124.500,-137.500,-150.500
1.528,-152.500,-129.000,-142.000,-155.500
1.529,-157.000,-133.500,-146.500,-159.000
1.530,-161.500,-137.500,-150.500,-162.500
1.531,-167.500,-142.500,-155.000,-167.000
1.532,-175.000,-149.000,-161.500,-173.000
1.533,-183.500,-156.500,-169.000,-180.500
1.534,-191.500,-164.000,-176.500,-188.000
1.535,-198.500,-171.000,-183.500,-195.500
1.536,-204.000,-176.000,-189.500,-201.500
1.537,-207.500,-180.000,-194.000,-206.000
1.538,-208.500,-181.500,-196.000,-208.000
1.539,-207.000,-181.000,-195.500,-208.000
1.540,-203.500,-178.000,-193.500,-205.500
1.541,-199.000,-174.500,-190.000,-202.000
1.542,-195.500,-171.500,-187.500,-199.500
1.543,-193.500,-170.000,-186.500,-198.000
1.544,-194.000,-170.500,-187.500,-199.000
1.545,-197.000,-173.500,-190.500,-202.500
1.546,-202.000,-178.000,-195.000,-207.500
1.547,-207.500,-183.000,-200.000,-212.500
1.548,-213.000,-188.000,-204.000,-216.500
1.549,-218.000,-192.000,-208.000,-220.500
1.550,-221.500,-195.500,-210.500,-223.500
1.551,-223.500,-197.000,-212.000,-224.500
1.552,-223.000,-196.500,-211.500,-224.000
1.553,-220.500,-194.000,-209.000,-221.500
1.554,-216.500,-190.000,-205.500,-217.500
1.555,-212.000,-185.500,-201.000,-213.000
1.556,-209.000,-182.500,-198.000,-209.500
1.557,-208.000,-182.000,-197.500,-209.500
1.558,-210.500,-184.500,-200.500,-212.500
1.559,-213.500,-188.000,-204.500,-216.000
1.560,-215.000,-190.000,-206.500,-218.500
1.561,-214.500,-190.000,-207.000,-219.000
1.562,-213.000,-189.000,-206.000,-218.000
1.563,-212.500,-188.500,-205.500,-218.000
1.564,-213.500,-189.500,-207.000,-219.000
1.565,-215.500,-191.500,-208.500,-221.000
1.566,-217.500,-193.500,-210.500,-223.000
1.567,-218.000,-194.000,-211.000,-223.500
1.568,-217.500,-193.500,-210.500,-223.000
1.569,-217.000,-193.000,-210.000,-222.000
1.570,-217.500,-193.000,-211.000,-222.500
1.571,-220.500,-195.500,-214.000,-225.000
1.572,-225.000,-200.500,-218.500,-229.500
1.573,-230.500,-205.500,-224.000,-235.000
1.574,-235.000,-210.000,-228.500,-239.500
1.575,-237.000,-212.000,-230.500,-241.500
1.576,-236.000,-211.000,-230.000,-241.000
1.577,-234.000,-209.500,-228.500,-240.000
1.578,-232.000,-208.000,-227.500,-238.500
1.579,-231.000,-207.500,-227.000,-238.000
1.580,-231.500,-208.000,-227.500,-239.000
1.581,-233.000,-209.500,-229.000,-240.000
1.582,-234.500,-211.500,-230.500,-242.000
1.583,-238.000,-215.000,-233.500,-245.000
1.584,-243.000,-220.500,-238.500,-250.500
1.585,-250.500,-227.500,-245.000,-257.000
1.586,-257.500,-234.500,-251.500,-263.000
1.587,-261.500,-239.000,-255.000,-266.500
1.588,-261.500,-238.500,-254.000,-265.500
1.589,-257.500,-234.000,-249.000,-260.000
1.590,-250.000,-226.000,-241.000,-252.000
1.591,-241.500,-216.000,-231.500,-242.500
1.592,-232.500,-206.500,-222.000,-233.000
1.593,-225.500,-199.000,-214.500,-225.500
1.594,-220.500,-193.500,-210.000,-221.000
1.595,-219.000,-191.500,-208.500,-219.500
1.596,-219.500,-192.500,-210.000,-221.000
1.597,-222.500,-195.500,-213.500,-225.000
1.598,-226.500,-200.000,-218.500,-230.000
1.599,-230.000,-204.000,-223.500,-235.000
1.600,-232.500,-207.000,-227.500,-238.500
1.601,-232.500,-208.000,-229.000,-240.000
1.602,-231.000,-207.000,-228.500,-239.500
1.603,-229.000,-205.500,-227.500,-238.000
1.604,-228.000,-205.000,-226.500,-237.500
1.605,-228.500,-206.500,-227.500,-238.500
1.606,-231.000,-209.000,-229.500,-240.500
1.607,-233.000,-211.500,-231.500,-242.500
1.608,-234.500,-213.000,-232.500,-243.500
1.609,-235.500,-213.000,-232.000,-243.000
1.610,-236.000,-213.000,-232.500,-243.000
1.611,-238.500,-214.500,-233.500,-244.000
1.612,-241.500,-217.000,-236.000,-246.500
1.613,-245.000,-219.500,-238.500,-248.500
1.614,-246.000,-220.000,-238.000,-249.000
1.615,-243.500,-217.000,-235.000,-245.500
1.616,-238.000,-211.500,-229.500,-240.000
1.617,-232.000,-205.500,-223.000,-234.000
1.618,-226.500,-200.500,-218.500,-229.500
1.619,-224.000,-198.500,-216.500,-227.500
1.620,-225.000,-200.500,-218.000,-229.000
1.621,-229.000,-205.000,-223.000,-233.500
1.622,-234.500,-211.500,-229.000,-240.000
1.623,-240.000,-218.000,-235.500,-246.500
1.624,-244.500,-223.000,-240.500,-251.500
1.625,-247.000,-226.500,-244.000,-255.000
1.626,-247.500,-226.500,-244.500,-255.500
1.627,-245.500,-224.500,-243.000,-253.500
1.628,-242.500,-221.000,-240.000,-249.500
1.629,-239.500,-217.500,-237.000,-246.500
1.630,-238.500,-216.000,-235.500,-245.000
1.631,-241.000,-218.000,-237.500,-246.500
1.632,-246.500,-223.000,-242.000,-251.500
1.633,-254.000,-229.500,-248.500,-258.000
1.634,-261.000,-236.000,-255.000,-264.500
1.635,-265.500,-240.000,-259.500,-269.000
1.636,-266.500,-240.500,-260.500,-270.500
1.637,-264.000,-238.500,-258.500,-269.000
1.638,-259.500,-234.500,-255.000,-265.500
1.639,-254.000,-229.500,-250.000,-261.000
1.640,-247.500,-223.500,-244.000,-255.500
1.641,-241.500,-218.500,-238.500,-250.000
1.642,-237.000,-214.500,-234.000,-246.000
1.643,-235.000,-212.000,-231.500,-244.000
1.644,-233.500,-210.500,-230.500,-243.000
1.645,-230.500,-208.000,-228.000,-240.500
1.646,-225.500,-202.500,-223.000,-236.000
1.647,-218.000,-195.000,-216.000,-229.000
1.648,-211.500,-188.000,-209.000,-222.000
1.649,-207.500,-183.500,-205.000,-218.000
1.650,-207.500,-183.500,-204.500,-217.500
1.651,-210.500,-186.500,-207.000,-220.000
1.652,-215.000,-190.500,-210.000,-223.500
1.653,-218.000,-193.500,-212.500,-226.000
1.654,-219.500,-195.000,-214.000,-227.000
1.655,-221.000,-196.500,-215.000,-228.000
1.656,-223.000,-199.000,-218.000,-231.000
1.657,-227.500,-203.500,-222.500,-236.000
1.658,-233.500,-209.500,-229.500,-242.500
1.659,-241.000,-217.000,-237.000,-250.500
1.660,-248.500,-225.000,-245.000,-258.500
1.661,-254.500,-231.500,-251.500,-265.000
1.662,-258.000,-235.500,-255.500,-268.500
1.663,-258.500,-236.000,-256.000,-269.000
1.664,-255.500,-233.000,-253.000,-266.000
1.665,-249.500,-227.500,-247.500,-260.000
1.666,-242.500,-220.500,-240.000,-252.500
1.667,-235.500,-213.000,-233.000,-245.000
1.668,-230.000,-207.500,-227.500,-239.500
1.669,-228.000,-204.500,-224.500,-236.000
1.670,-228.500,-204.500,-224.500,-236.000
1.671,-230.500,-206.500,-226.500,-237.500
1.672,-233.000,-208.000,-228.000,-238.500
1.673,-233.000,-208.000,-228.000,-238.500
1.674,-231.500,-206.500,-226.000,-236.500
1.675,-229.000,-204.000,-223.000,-234.000
1.676,-226.500,-202.000,-221.000,-232.000
1.677,-226.000,-201.500,-220.500,-232.000
1.678,-226.500,-202.500,-222.000,-234.000
1.679,-229.500,-205.000,-224.500,-237.000
1.680,-233.000,-208.000,-228.000,-241.000
1.681,-236.500,-212.000,-232.500,-245.500
1.682,-240.000,-215.500,-236.000,-249.500
1.683,-242.000,-218.000,-239.500,-252.500
1.684,-243.500,-220.000,-241.500,-254.500
1.685,-244.000,-221.500,-243.000,-256.000
1.686,-244.000,-221.500,-242.500,-255.500
1.687,-242.000,-220.000,-240.500,-253.000
1.688,-239.500,-217.500,-237.000,-249.500
1.689,-237.500,-215.000,-234.000,-246.500
1.690,-237.000,-214.000,-232.500,-245.000
1.691,-237.000,-213.500,-231.500,-243.500
1.692,-236.000,-211.500,-229.500,-242.000
1.693,-234.000,-209.000,-227.000,-239.000
1.694,-231.500,-206.000,-224.000,-236.500
1.695,-231.000,-205.000,-223.500,-236.000
1.696,-232.500,-207.000,-226.000,-238.000
1.697,-236.000,-210.500,-230.000,-242.000
1.698,-240.500,-215.500,-235.500,-247.500
1.699,-244.500,-220.500,-241.500,-253.500
1.700,-248.500,-225.000,-246.500,-258.500
1.701,-250.500,-228.500,-250.000,-262.000
1.702,-252.000,-230.500,-252.000,-264.000
1.703,-252.500,-231.000,-252.500,-264.500
1.704,-252.500,-231.000,-252.000,-264.000
1.705,-252.000,-230.500,-251.000,-263.000
1.706,-250.500,-228.500,-248.500,-261.000
1.707,-248.500,-226.000,-245.000,-257.500
1.708,-245.500,-222.500,-241.500,-254.000
1.709,-242.500,-219.000,-238.000,-250.500
1.710,-241.500,-217.000,-236.500,-248.500
1.711,-242.000,-217.000,-237.000,-248.000
1.712,-245.000,-219.000,-239.500,-250.500
1.713,-248.500,-222.500,-244.000,-254.000
1.714,-252.500,-226.500,-248.500,-258.500
1.715,-256.000,-230.000,-252.500,-262.500
1.716,-258.500,-233.000,-255.500,-266.000
1.717,-260.000,-235.500,-258.500,-269.000
1.718,-261.000,-237.000,-260.500,-271.500
1.719,-261.500,-238.500,-262.500,-274.000
1.720,-260.500,-238.000,-263.000,-274.500
1.721,-257.500,-235.500,-261.500,-273.500
1.722,-252.000,-231.000,-257.000,-269.500
1.723,-245.000,-223.500,-250.500,-263.000
1.724,-237.000,-215.500,-242.000,-255.000
1.725,-230.500,-208.500,-234.500,-247.500
1.726,-227.000,-204.500,-230.000,-242.500
1.727,-227.000,-204.000,-229.000,-241.500
1.728,-230.500,-207.000,-230.500,-243.500
1.729,-234.500,-211.000,-233.500,-246.000
1.730,-237.500,-214.000,-235.500,-248.000
1.731,-239.000,-215.500,-236.000,-248.000
1.732,-239.000,-215.500,-236.000,-247.500
1.733,-240.000,-216.000,-236.000,-247.500
1.734,-241.000,-217.500,-237.500,-248.500
1.735,-243.500,-220.000,-240.000,-250.500
1.736,-245.500,-223.000,-243.000,-253.500
1.737,-248.500,-226.000,-247.000,-257.000
1.738,-252.000,-230.000,-252.000,-261.500
1.739,-256.000,-234.500,-257.000,-266.500
1.740,-259.500,-238.000,-261.500,-271.000
1.741,-261.500,-240.000,-264.500,-274.500
1.742,-261.500,-240.500,-265.000,-275.000
1.743,-260.000,-239.000,-263.500,-274.000
1.744,-256.500,-236.000,-261.000,-271.500
1.745,-252.500,-232.000,-257.000,-267.500
1.746,-248.500,-227.500,-252.500,-263.500
1.747,-244.000,-223.000,-247.500,-259.000
1.748,-240.500,-219.000,-243.500,-255.000
1.749,-238.500,-216.000,-240.000,-251.500
1.750,-238.000,-214.500,-239.000,-250.000
1.751,-239.500,-215.000,-239.500,-250.500
1.752,-242.000,-217.500,-241.500,-252.500
1.753,-246.000,-220.500,-245.000,-255.500
1.754,-248.500,-222.500,-247.000,-257.500
1.755,-248.000,-222.000,-245.500,-257.000
1.756,-243.000,-217.000,-240.500,-251.500
1.757,-234.000,-208.500,-232.000,-243.000
1.758,-222.500,-198.000,-221.000,-232.500
1.759,-212.000,-188.500,-211.500,-222.500
1.760,-205.000,-183.000,-205.500,-217.000
1.761,-204.000,-183.000,-205.500,-217.000
1.762,-209.500,-189.000,-210.500,-222.500
1.763,-218.500,-198.500,-219.500,-231.500
1.764,-229.000,-208.500,-229.500,-241.000
1.765,-238.500,-218.000,-238.500,-250.000
1.766,-246.000,-225.500,-246.000,-257.500
1.767,-251.500,-230.500,-251.500,-262.500
1.768,-255.500,-234.000,-255.500,-266.000
1.769,-257.500,-236.000,-258.500,-268.500
1.770,-259.500,-236.500,-260.000,-270.000
1.771,-259.500,-236.000,-260.000,-269.500
1.772,-257.500,-233.500,-258.000,-267.500
1.773,-253.500,-229.500,-254.500,-264.000
1.774,-250.500,-226.000,-251.000,-260.000
1.775,-248.500,-224.000,-249.000,-258.000
1.776,-249.000,-224.500,-249.000,-258.000
1.777,-250.000,-225.500,-250.000,-258.500
1.778,-249.500,-225.500,-250.000,-258.500
1.779,-247.000,-223.500,-248.500,-257.000
1.780,-244.000,-221.000,-246.500,-255.000
1.781,-241.500,-219.500,-245.000,-254.000
1.782,-241.000,-220.500,-245.500,-255.000
1.783,-243.500,-223.500,-248.500,-258.500
1.784,-248.000,-228.000,-252.500,-263.500
1.785,-253.500,-234.000,-258.000,-269.000
1.786,-258.500,-239.000,-262.500,-274.500
1.787,-262.000,-242.500,-266.000,-278.000
1.788,-263.500,-244.000,-267.500,-279.500
1.789,-263.000,-243.500,-267.000,-278.500
1.790,-261.000,-241.000,-264.500,-276.000
1.791,-258.500,-237.500,-261.500,-272.500
1.792,-255.500,-234.500,-258.000,-268.500
1.793,-253.500,-231.500,-254.500,-265.000
1.794,-251.500,-229.000,-251.500,-262.000
1.795,-249.000,-226.500,-248.500,-258.500
1.796,-246.000,-223.000,-245.000,-255.000
1.797,-241.500,-218.500,-240.500,-250.500
1.798,-236.000,-213.000,-235.500,-245.000
1.799,-229.500,-207.000,-229.500,-239.000
1.800,-222.500,-200.500,-224.000,-233.500
1.801,-217.500,-195.500,-219.500,-229.500
1.802,-215.000,-193.000,-217.500,-228.000
1.803,-215.500,-194.000,-218.500,-229.000
1.804,-218.000,-197.000,-221.500,-232.000
1.805,-221.000,-201.000,-225.000,-235.500
1.806,-224.000,-204.000,-227.500,-238.000
1.807,-226.000,-206.500,-229.500,-239.500
1.808,-228.000,-209.000,-232.000,-241.500
1.809,-232.500,-213.000,-236.000,-245.500
1.810,-239.500,-219.500,-242.500,-252.000
1.811,-248.500,-228.000,-250.500,-260.500
1.812,-258.000,-236.000,-259.000,-269.000
1.813,-265.500,-243.000,-265.500,-276.000
1.814,-270.000,-247.000,-270.000,-280.500
1.815,-271.000,-247.500,-271.000,-281.500
1.816,-269.000,-246.000,-269.500,-280.000
1.817,-265.500,-242.500,-266.500,-277.000
1.818,-261.000,-238.500,-263.000,-273.000
1.819,-257.000,-235.000,-259.500,-269.500
1.820,-253.000,-231.500,-256.000,-266.500
1.821,-250.000,-229.000,-253.500,-264.000
1.822,-248.000,-227.500,-252.500,-263.000
1.823,-247.500,-227.500,-252.500,-263.000
1.824,-248.000,-228.000,-253.000,-263.000
1.825,-248.000,-228.000,-253.000,-263.000
1.826,-246.000,-226.500,-251.000,-260.500
1.827,-242.000,-222.000,-246.000,-255.500
1.828,-235.000,-215.000,-239.000,-248.000
1.829,-226.500,-206.500,-230.000,-239.500
1.830,-219.500,-198.500,-222.500,-232.000
1.831,-217.000,-195.500,-219.500,-229.000
1.832,-220.500,-198.500,-222.500,-232.000
1.833,-229.000,-207.000,-231.000,-241.000
1.834,-239.000,-217.500,-241.500,-251.000
1.835,-247.000,-226.000,-250.500,-260.000
1.836,-251.500,-231.000,-256.000,-265.500
1.837,-252.000,-232.000,-258.000,-268.000
1.838,-250.000,-231.000,-257.000,-267.500
1.839,-247.000,-228.000,-255.000,-266.000
1.840,-243.000,-224.500,-252.000,-263.000
1.841,-239.000,-220.500,-248.000,-259.000
1.842,-234.000,-216.000,-243.500,-254.500
1.843,-229.000,-211.500,-238.500,-249.500
1.844,-225.500,-208.000,-234.000,-245.000
1.845,-223.000,-206.000,-231.500,-242.500
1.846,-222.000,-205.500,-230.000,-241.000
1.847,-222.000,-205.500,-229.500,-240.500
1.848,-222.500,-206.000,-229.500,-240.000
1.849,-223.000,-206.000,-229.500,-240.000
1.850,-224.500,-206.500,-230.000,-240.000
1.851,-227.000,-207.500,-231.500,-241.000
1.852,-229.000,-209.000,-233.000,-242.500
1.853,-230.000,-208.500,-233.500,-242.500
1.854,-228.500,-206.500,-231.500,-240.500
1.855,-224.500,-202.000,-227.000,-236.000
1.856,-219.500,-196.500,-222.000,-231.000
1.857,-214.000,-191.000,-217.000,-226.500
1.858,-210.500,-188.000,-214.500,-223.500
1.859,-209.500,-187.500,-214.500,-223.500
1.860,-211.500,-189.500,-217.000,-226.500
1.861,-215.500,-194.000,-222.000,-231.000
1.862,-220.000,-199.000,-227.000,-236.500
1.863,-224.000,-203.500,-231.000,-241.000
1.864,-226.500,-206.000,-234.000,-244.000
1.865,-227.500,-207.500,-235.500,-245.000
1.866,-226.500,-206.500,-235.000,-244.000
1.867,-223.500,-204.000,-232.500,-241.000
1.868,-218.500,-199.500,-228.500,-236.000
1.869,-212.500,-193.500,-222.500,-230.000
1.870,-207.000,-187.500,-216.500,-223.500
1.871,-202.500,-182.500,-211.500,-218.000
1.872,-200.000,-179.000,-207.500,-214.000
1.873,-199.000,-177.000,-205.000,-211.000
1.874,-198.000,-175.000,-203.000,-209.000
1.875,-196.500,-172.500,-201.000,-206.500
1.876,-193.500,-169.500,-198.000,-204.000
1.877,-189.500,-165.500,-194.500,-200.500
1.878,-184.500,-161.000,-191.000,-197.000
1.879,-179.000,-156.000,-186.500,-192.500
1.880,-173.500,-151.000,-181.500,-188.000
1.881,-167.000,-145.500,-176.000,-182.500
1.882,-161.500,-140.500,-170.500,-177.000
1.883,-158.000,-137.000,-167.000,-173.500
1.884,-159.500,-138.000,-167.500,-174.000
1.885,-166.500,-145.000,-174.000,-180.500
1.886,-179.500,-157.500,-186.500,-192.500
1.887,-196.500,-173.500,-202.500,-208.500
1.888,-213.000,-190.500,-218.500,-224.500
1.889,-227.000,-204.000,-231.500,-237.500
1.890,-235.500,-213.000,-240.000,-245.000
1.891,-239.000,-216.500,-243.500,-248.000
1.892,-239.000,-216.000,-243.000,-247.000
1.893,-236.500,-213.000,-240.000,-244.000
1.894,-231.500,-208.000,-235.500,-239.000
1.895,-225.000,-201.500,-230.000,-233.000
1.896,-216.000,-193.000,-222.000,-225.500
1.897,-204.500,-182.000,-212.500,-215.500
1.898,-191.500,-170.500,-201.000,-204.500
1.899,-179.500,-159.000,-190.500,-194.500
1.900,-170.500,-151.000,-182.500,-187.000
1.901,-167.000,-148.000,-179.500,-184.500
1.902,-169.000,-150.500,-182.000,-187.000
1.903,-176.000,-157.500,-189.500,-195.000
1.904,-186.000,-168.500,-200.000,-206.000
1.905,-198.000,-180.500,-212.000,-218.000
1.906,-208.500,-191.000,-222.500,-228.000
1.907,-215.000,-197.500,-228.000,-234.000
1.908,-215.500,-198.000,-228.000,-233.500
1.909,-210.500,-192.500,-222.000,-227.000
1.910,-202.000,-183.500,-212.000,-217.000
1.911,-193.000,-174.000,-202.000,-206.500
1.912,-187.500,-168.500,-196.000,-200.000
1.913,-189.000,-169.000,-197.000,-200.500
1.914,-198.000,-178.000,-206.000,-209.000
1.915,-213.500,-193.500,-221.500,-224.000
1.916,-231.000,-211.500,-239.500,-242.000
1.917,-248.500,-228.500,-256.500,-259.500
1.918,-262.500,-243.000,-271.000,-274.000
1.919,-272.500,-254.000,-282.500,-285.000
1.920,-279.500,-261.500,-290.500,-293.500
1.921,-283.500,-266.500,-296.000,-299.000
1.922,-285.500,-269.500,-299.500,-302.500
1.923,-285.500,-270.500,-300.500,-303.500
1.924,-284.500,-270.000,-300.000,-303.000
1.925,-283.500,-269.000,-298.500,-301.500
1.926,-283.000,-268.000,-297.500,-300.500
1.927,-283.500,-268.000,-297.500,-300.500
1.928,-285.000,-268.500,-298.000,-301.000
1.929,-286.500,-268.500,-298.500,-301.500
1.930,-287.500,-268.000,-298.000,-301.000
1.931,-286.500,-266.000,-296.000,-299.000
1.932,-284.500,-262.500,-293.000,-296.000
1.933,-281.000,-258.500,-288.500,-292.000
1.934,-277.000,-254.500,-284.500,-288.000
1.935,-273.000,-250.000,-280.000,-283.500
1.936,-268.000,-245.000,-275.000,-279.000
1.937,-262.500,-239.500,-270.000,-274.000
1.938,-257.000,-234.000,-265.500,-269.000
1.939,-251.500,-229.000,-260.500,-264.000
1.940,-246.500,-224.500,-256.500,-260.000
1.941,-242.500,-221.500,-254.000,-257.500
1.942,-241.000,-220.500,-253.500,-257.500
1.943,-242.500,-222.500,-256.000,-260.500
1.944,-246.500,-227.500,-260.500,-265.500
1.945,-251.500,-232.500,-266.000,-271.500
1.946,-255.000,-236.500,-269.500,-275.500
1.947,-254.500,-236.500,-269.500,-275.500
1.948,-251.000,-233.500,-266.000,-272.000
1.949,-246.000,-228.500,-261.000,-266.500
1.950,-242.000,-224.000,-257.000,-261.500
1.951,-240.000,-221.500,-254.000,-258.500
1.952,-239.000,-220.000,-252.500,-257.000
1.953,-238.000,-218.500,-251.000,-255.000
1.954,-235.500,-216.000,-248.000,-252.000
1.955,-234.000,-214.000,-246.000,-250.500
1.956,-235.500,-215.500,-247.000,-251.500
1.957,-242.000,-222.000,-253.500,-258.500
1.958,-254.500,-234.000,-266.000,-271.500
1.959,-271.500,-251.500,-283.500,-289.000
1.960,-291.500,-271.500,-303.500,-309.500
1.961,-310.000,-291.000,-322.500,-329.000
1.962,-323.500,-305.500,-337.000,-343.500
1.963,-330.500,-313.000,-344.000,-350.500
1.964,-331.500,-314.000,-345.000,-351.500
1.965,-327.500,-310.500,-341.000,-348.000
1.966,-320.000,-302.500,-333.000,-339.500
1.967,-307.500,-290.000,-320.000,-326.000
1.968,-289.500,-271.500,-301.500,-307.000
1.969,-267.000,-248.500,-278.000,-283.000
1.970,-241.500,-222.000,-251.500,-256.000
1.971,-214.000,-194.000,-223.000,-226.500
1.972,-186.000,-164.500,-193.000,-196.500
1.973,-156.500,-134.500,-162.500,-165.000
1.974,-125.000,-102.500,-130.000,-132.000
1.975,-92.000,-69.000,-96.000,-97.500
1.976,-55.500,-33.000,-59.500,-60.000
1.977,-15.500,7.000,-19.000,-19.000
1.978,29.000,51.500,25.500,27.000
1.979,78.000,100.000,74.500,76.500
1.980,129.500,151.000,125.500,128.000
1.981,181.000,202.500,177.000,180.000
1.982,229.500,251.000,225.500,229.000
1.983,274.500,295.500,270.500,274.500
1.984,314.500,336.000,311.500,316.000
1.985,352.000,373.500,350.000,354.000
1.986,387.000,409.000,386.000,391.000
1.987,420.000,442.500,420.500,425.500
1.988,448.500,472.500,450.500,456.000
1.989,469.000,494.000,472.500,478.500
1.990,478.000,504.500,482.500,488.500
1.991,472.500,500.500,478.000,484.000
1.992,453.500,482.500,459.000,464.500
1.993,420.500,450.000,426.000,431.500
1.994,375.000,405.500,380.500,385.500
1.995,320.500,350.500,325.000,329.000
1.996,261.500,290.500,264.500,268.000
1.997,204.500,233.000,206.000,209.000
1.998,154.500,181.000,153.500,156.000
1.999,109.500,134.500,106.500,108.500
2.000,66.000,89.500,61.000,62.000
2.001,19.500,42.000,13.000,13.000
2.002,-29.000,-7.500,-37.500,-38.000
2.003,-77.000,-56.500,-87.000,-88.500
2.004,-120.000,-100.500,-131.500,-133.000
2.005,-155.000,-136.500,-167.500,-169.500
2.006,-181.500,-163.500,-195.000,-197.000
2.007,-199.500,-182.000,-214.000,-215.500
2.008,-211.500,-194.500,-226.500,-228.000
2.009,-220.000,-203.000,-235.000,-236.000
2.010,-226.500,-209.000,-240.500,-241.500
2.011,-231.500,-213.000,-244.500,-244.500
2.012,-234.000,-215.500,-246.000,-246.000
2.013,-234.000,-215.000,-245.500,-245.000
2.014,-230.500,-211.500,-242.000,-241.000
2.015,-224.500,-205.500,-236.000,-235.000
2.016,-217.500,-198.500,-229.000,-228.000
2.017,-211.000,-192.000,-222.000,-221.500
2.018,-205.000,-186.500,-216.500,-216.500
2.019,-201.500,-183.500,-213.000,-213.500
2.020,-200.000,-183.000,-212.000,-212.500
2.021,-201.000,-185.000,-213.500,-214.500
2.022,-204.000,-188.500,-216.500,-217.500
2.023,-207.000,-192.000,-220.000,-221.500
2.024,-209.000,-195.000,-222.500,-224.500
2.025,-211.500,-197.000,-225.000,-227.000
2.026,-214.500,-199.500,-228.000,-230.500
2.027,-220.000,-204.000,-232.500,-235.500
2.028,-227.500,-211.000,-239.500,-242.500
2.029,-237.000,-219.500,-248.000,-251.500
2.030,-247.000,-228.500,-257.500,-260.500
2.031,-255.000,-236.000,-265.500,-268.000
2.032,-259.500,-240.000,-270.000,-272.000
2.033,-260.000,-240.500,-271.000,-272.500
2.034,-258.000,-237.500,-269.000,-270.000
2.035,-254.000,-234.000,-266.500,-267.000
2.036,-251.000,-230.500,-263.500,-264.000
2.037,-248.000,-228.000,-261.500,-261.500
2.038,-245.000,-226.000,-259.500,-259.500
2.039,-242.500,-224.000,-257.500,-257.500
2.040,-240.000,-222.500,-255.500,-256.000
2.041,-238.500,-221.500,-254.500,-255.500
2.042,-238.500,-222.000,-254.500,-256.500
2.043,-240.000,-224.000,-256.000,-259.000
2.044,-243.000,-227.500,-259.000,-263.000
2.045,-246.000,-231.000,-262.500,-267.000
2.046,-248.000,-233.000,-264.500,-269.000
2.047,-247.500,-232.500,-264.500,-269.000
2.048,-245.000,-229.500,-261.500,-265.500
2.049,-239.500,-224.000,-256.000,-259.500
2.050,-234.000,-218.000,-250.000,-252.500
2.051,-229.000,-212.500,-245.000,-247.000
2.052,-227.000,-210.000,-242.500,-244.000
2.053,-228.000,-210.500,-242.500,-243.500
2.054,-230.500,-212.500,-244.500,-245.500
2.055,-233.000,-214.500,-246.500,-247.500
2.056,-234.000,-215.500,-247.000,-248.500
2.057,-232.500,-215.000,-246.500,-248.000
2.058,-230.500,-213.000,-244.500,-246.500
2.059,-228.000,-211.500,-243.000,-245.500
2.060,-226.000,-210.500,-242.000,-245.000
2.061,-225.000,-210.500,-242.000,-245.000
2.062,-225.500,-210.500,-242.000,-245.500
2.063,-226.500,-212.000,-243.000,-247.000
2.064,-228.500,-214.000,-245.000,-249.000
2.065,-231.000,-217.000,-248.000,-251.500
2.066,-235.000,-220.500,-251.500,-255.000
2.067,-238.500,-224.000,-255.000,-258.000
2.068,-242.000,-227.000,-258.000,-261.000
2.069,-244.000,-229.000,-260.000,-262.500
2.070,-244.500,-229.500,-260.000,-263.000
2.071,-243.500,-228.000,-258.500,-261.000
2.072,-241.000,-224.500,-255.000,-257.500
2.073,-237.500,-220.500,-250.500,-253.500
2.074,-233.000,-215.500,-245.000,-248.000
2.075,-227.500,-210.500,-240.000,-243.000
2.076,-222.500,-205.500,-235.000,-238.000
2.077,-218.000,-201.500,-231.000,-234.000
2.078,-214.500,-199.000,-228.500,-231.500
2.079,-213.500,-198.000,-227.500,-230.500
2.080,-215.000,-199.500,-228.500,-232.000
2.081,-219.000,-203.500,-232.500,-236.000
2.082,-224.500,-209.500,-238.000,-241.500
2.083,-230.000,-214.500,-243.500,-247.000
2.084,-232.000,-216.000,-245.500,-249.500
2.085,-230.000,-214.000,-244.500,-248.000
2.086,-226.500,-210.000,-241.000,-245.000
2.087,-223.000,-206.500,-238.000,-241.500
2.088,-220.500,-204.000,-235.500,-239.500
2.089,-218.000,-202.000,-233.000,-236.500
2.090,-214.000,-197.500,-229.000,-232.000
2.091,-207.000,-191.000,-223.000,-225.000
2.092,-199.500,-183.500,-215.500,-217.500
2.093,-192.000,-176.500,-209.000,-210.500
2.094,-186.500,-171.000,-203.500,-205.000
2.095,-184.000,-169.000,-201.500,-203.000
2.096,-186.500,-171.500,-203.500,-205.000
2.097,-194.500,-179.500,-211.000,-213.000
2.098,-207.000,-192.000,-223.000,-225.500
2.099,-221.500,-206.500,-236.500,-239.500
2.100,-233.500,-219.000,-249.000,-252.000
2.101,-242.000,-227.500,-257.500,-261.000
2.102,-246.000,-232.000,-262.000,-265.500
2.103,-246.000,-231.500,-262.500,-266.000
2.104,-243.000,-229.000,-260.500,-264.000
2.105,-240.000,-225.500,-257.500,-260.500
2.106,-237.000,-222.500,-254.500,-258.000
2.107,-235.000,-220.000,-253.000,-256.000
2.108,-233.000,-218.500,-251.000,-254.000
2.109,-231.500,-216.000,-249.000,-251.500
2.110,-230.000,-214.500,-247.000,-250.000
2.111,-230.000,-213.500,-245.500,-248.500
2.112,-231.500,-214.000,-245.500,-248.500
2.113,-233.000,-214.500,-245.500,-249.000
2.114,-233.000,-214.000,-244.500,-247.500
2.115,-230.500,-211.500,-241.500,-245.000
2.116,-226.000,-207.000,-237.000,-240.000
2.117,-221.000,-202.500,-232.000,-235.000
2.118,-216.500,-198.500,-227.500,-230.500
2.119,-213.000,-195.000,-224.000,-226.500
2.120,-209.500,-192.500,-220.500,-223.000
2.121,-207.500,-191.000,-218.500,-220.500
2.122,-207.000,-191.500,-218.000,-220.000
2.123,-208.500,-193.500,-219.500,-222.000
2.124,-211.000,-196.500,-222.000,-224.500
2.125,-211.500,-198.000,-224.000,-226.500
2.126,-209.500,-196.500,-223.000,-226.000
2.127,-206.000,-193.000,-220.500,-224.000
2.128,-203.000,-190.000,-219.000,-222.500
2.129,-204.000,-190.500,-220.500,-224.500
2.130,-208.000,-194.500,-225.500,-229.500
2.131,-214.000,-200.500,-232.000,-236.500
2.132,-219.500,-206.000,-237.500,-242.000
2.133,-222.500,-208.500,-240.000,-244.000
2.134,-221.500,-207.500,-239.000,-243.000
2.135,-218.500,-204.000,-235.000,-239.000
2.136,-214.000,-199.500,-229.500,-234.000
2.137,-209.500,-194.500,-224.000,-229.000
2.138,-206.000,-190.500,-220.000,-225.000
2.139,-204.000,-188.500,-217.000,-222.500
2.140,-203.500,-187.500,-216.000,-222.000
2.141,-203.500,-187.500,-216.500,-222.500
2.142,-203.500,-188.000,-216.500,-222.500
2.143,-202.500,-187.000,-216.000,-222.000
2.144,-200.000,-184.500,-214.000,-220.000
2.145,-196.000,-180.500,-210.000,-216.000
2.146,-191.000,-175.000,-204.500,-211.000
2.147,-185.000,-169.000,-198.500,-205.000
2.148,-178.500,-162.000,-191.500,-198.000
2.149,-171.000,-154.500,-184.500,-191.000
2.150,-164.000,-147.000,-177.000,-183.500
2.151,-157.500,-140.500,-171.000,-177.000
2.152,-154.500,-137.000,-167.500,-173.000
2.153,-154.500,-137.000,-167.500,-173.000
2.154,-157.500,-140.000,-170.500,-176.000
2.155,-162.000,-145.500,-175.500,-180.500
2.156,-168.000,-151.500,-181.500,-186.500
2.157,-175.000,-159.000,-188.500,-193.500
2.158,-182.500,-167.000,-196.500,-201.500
2.159,-190.500,-175.500,-205.000,-210.000
2.160,-198.000,-183.500,-213.000,-217.500
2.161,-203.500,-189.000,-218.500,-223.000
2.162,-205.000,-191.500,-220.500,-225.000
2.163,-203.500,-190.000,-219.000,-223.000
2.164,-199.000,-185.500,-214.000,-218.500
2.165,-193.500,-180.000,-208.500,-213.000
2.166,-189.000,-175.500,-203.000,-208.000
2.167,-185.500,-172.000,-198.500,-204.000
2.168,-183.500,-169.500,-196.000,-201.500
2.169,-183.000,-169.500,-195.500,-200.500
2.170,-184.500,-170.500,-196.500,-201.000
2.171,-187.500,-172.500,-198.500,-203.000
2.172,-189.500,-174.000,-199.500,-204.000
2.173,-189.000,-173.000,-198.500,-202.500
2.174,-186.000,-169.500,-195.000,-199.000
2.175,-181.000,-164.000,-190.000,-193.500
2.176,-175.500,-158.500,-185.000,-188.500
2.177,-170.500,-154.000,-180.500,-184.000
2.178,-166.500,-150.000,-177.500,-180.500
2.179,-162.500,-146.500,-174.500,-177.500
2.180,-159.000,-143.500,-171.500,-175.000
2.181,-156.000,-141.500,-169.000,-172.500
2.182,-154.000,-139.500,-167.500,-170.500
2.183,-152.000,-138.500,-166.000,-169.000
2.184,-150.000,-137.000,-164.500,-167.500
2.185,-147.000,-134.500,-162.000,-164.500
2.186,-143.000,-131.000,-158.000,-161.000
2.187,-138.500,-126.500,-153.000,-156.000
2.188,-133.500,-121.000,-147.500,-150.000
2.189,-127.000,-114.500,-140.000,-143.000
2.190,-119.000,-105.500,-131.000,-133.500
2.191,-110.000,-95.500,-120.000,-122.500
2.192,-99.000,-83.500,-108.000,-110.000
2.193,-86.000,-70.500,-94.500,-96.500
2.194,-73.000,-56.500,-80.500,-82.000
2.195,-61.500,-44.500,-69.000,-70.500
2.196,-56.000,-38.500,-63.000,-64.500
2.197,-59.500,-41.500,-67.000,-68.500
2.198,-73.000,-54.500,-80.500,-82.500
2.199,-93.500,-75.500,-101.500,-103.500
2.200,-116.000,-98.000,-125.000,-127.000
2.201,-134.500,-117.500,-144.500,-146.500
2.202,-144.000,-128.500,-155.000,-157.500
2.203,-145.000,-130.000,-157.000,-159.000
2.204,-140.000,-126.000,-152.500,-154.500
2.205,-133.500,-120.000,-146.500,-148.500
2.206,-128.500,-115.000,-141.500,-143.000
2.207,-125.500,-112.000,-138.000,-139.500
2.208,-123.000,-109.000,-135.500,-136.000
2.209,-120.500,-106.500,-132.000,-132.000
2.210,-117.500,-103.500,-128.500,-128.000
2.211,-114.500,-99.500,-124.500,-123.500
2.212,-110.500,-95.000,-119.500,-118.000
2.213,-106.500,-89.500,-114.500,-113.000
2.214,-101.500,-84.500,-109.000,-107.500
2.215,-97.000,-79.000,-103.500,-102.500
2.216,-92.500,-74.000,-99.000,-98.000
2.217,-88.000,-69.500,-94.500,-94.000
2.218,-84.000,-65.000,-91.000,-90.000
2.219,-79.500,-61.000,-87.500,-87.000
2.220,-74.500,-56.500,-83.500,-83.500
2.221,-69.500,-51.500,-79.000,-78.500
2.222,-62.500,-44.500,-72.000,-72.000
2.223,-53.500,-35.500,-63.000,-63.000
2.224,-42.000,-24.000,-51.000,-51.500
2.225,-27.500,-10.000,-36.500,-37.000
2.226,-10.000,7.500,-19.000,-19.500
2.227,9.000,26.500,0.500,0.000
2.228,27.500,45.000,19.500,19.000
2.229,42.000,60.000,34.000,33.500
2.230,50.000,68.000,42.000,42.000
2.231,51.000,70.000,43.500,44.000
2.232,46.000,65.500,39.000,40.000
2.233,36.500,56.500,30.000,31.500
2.234,22.000,43.000,16.500,18.000
2.235,4.000,25.000,-1.000,0.500
2.236,-15.500,5.500,-20.500,-19.000
2.237,-33.500,-13.000,-38.500,-37.000
2.238,-46.500,-26.500,-52.000,-50.500
2.239,-53.500,-35.000,-60.000,-58.500
2.240,-55.500,-37.500,-62.500,-61.000
2.241,-53.500,-36.000,-61.000,-59.500
2.242,-49.000,-32.000,-57.000,-55.000
2.243,-43.500,-27.000,-52.000,-50.000
2.244,-38.500,-22.000,-46.500,-44.500
2.245,-33.500,-17.000,-41.500,-39.500
2.246,-30.000,-13.500,-38.000,-36.000
2.247,-28.000,-11.000,-36.000,-34.000
2.248,-26.000,-9.000,-34.500,-32.000
2.249,-24.000,-6.000,-32.000,-29.500
2.250,-20.000,-2.000,-28.000,-25.500
2.251,-15.500,3.500,-23.000,-20.500
2.252,-11.500,8.000,-18.500,-16.000
2.253,-8.500,11.500,-15.000,-12.500
2.254,-6.500,13.500,-13.000,-10.500
2.255,-4.000,16.000,-11.000,-8.500
2.256,-1.000,19.000,-8.500,-6.000
2.257,3.000,23.000,-5.000,-2.500
2.258,6.500,26.500,-2.000,0.500
2.259,9.500,29.000,0.500,2.500
2.260,10.500,29.500,1.500,3.500
2.261,10.000,29.000,1.000,2.500
2.262,9.000,27.500,-1.000,1.000
2.263,7.000,25.500,-3.000,-1.500
2.264,5.500,23.500,-5.000,-3.500
2.265,4.000,21.500,-7.500,-5.500
2.266,0.500,18.000,-11.000,-9.500
2.267,-7.500,10.000,-19.000,-17.000
2.268,-21.000,-3.500,-32.500,-30.500
2.269,-39.000,-22.000,-50.500,-48.000
2.270,-59.500,-42.000,-70.000,-67.500
2.271,-77.500,-60.500,-87.500,-84.500
2.272,-91.500,-74.000,-100.500,-97.500
2.273,-100.000,-83.000,-109.000,-106.000
2.274,-105.000,-88.500,-114.000,-111.000
2.275,-109.000,-92.500,-118.500,-115.000
2.276,-113.000,-97.500,-123.000,-119.500
2.277,-117.500,-102.000,-128.500,-125.000
2.278,-121.500,-106.500,-133.500,-130.000
2.279,-125.000,-110.500,-137.500,-134.000
2.280,-128.500,-113.500,-141.500,-138.000
2.281,-132.000,-117.000,-145.500,-142.000
2.282,-135.500,-121.000,-150.000,-146.500
2.283,-138.500,-124.500,-153.500,-150.000
2.284,-140.000,-126.500,-156.000,-152.500
2.285,-141.500,-128.500,-157.500,-154.000
2.286,-143.000,-130.000,-158.500,-156.000
2.287,-145.500,-132.500,-161.000,-158.500
2.288,-149.500,-136.000,-164.500,-162.500
2.289,-154.000,-140.500,-169.000,-167.500
2.290,-159.500,-145.500,-174.500,-173.000
2.291,-164.500,-150.000,-179.000,-177.500
2.292,-168.000,-153.000,-181.500,-180.000
2.293,-170.000,-154.500,-182.500,-181.500
2.294,-171.000,-155.000,-183.000,-181.500
2.295,-171.500,-155.500,-183.500,-182.000
2.296,-172.500,-156.500,-184.500,-183.000
2.297,-173.000,-157.500,-185.500,-184.000
2.298,-173.500,-158.000,-186.000,-184.000
2.299,-172.500,-157.500,-185.000,-183.500
2.300,-171.500,-157.000,-184.000,-182.500
2.301,-171.500,-157.500,-183.500,-182.500
2.302,-173.000,-160.000,-185.500,-184.500
2.303,-177.000,-164.500,-189.500,-189.000
2.304,-182.500,-171.000,-195.500,-195.000
2.305,-190.000,-178.500,-203.500,-202.500
2.306,-199.500,-188.000,-213.500,-213.000
2.307,-210.500,-199.000,-225.000,-224.500
2.308,-221.500,-209.000,-236.500,-235.500
2.309,-230.000,-217.000,-245.000,-244.000
2.310,-236.000,-221.500,-250.500,-249.500
2.311,-239.000,-223.500,-253.000,-252.000
2.312,-240.000,-224.000,-253.500,-252.500
2.313,-240.000,-223.500,-253.000,-252.000
2.314,-240.000,-222.500,-252.000,-251.500
2.315,-239.000,-222.000,-251.500,-251.000
2.316,-238.500,-221.500,-251.000,-251.500
2.317,-237.500,-221.000,-251.000,-251.500
2.318,-236.500,-220.000,-251.000,-252.000
2.319,-235.000,-219.000,-250.500,-251.500
2.320,-232.500,-217.500,-248.500,-249.500
2.321,-229.000,-214.500,-245.500,-246.500
2.322,-225.000,-210.500,-241.500,-242.500
2.323,-221.000,-207.500,-238.000,-239.000
2.324,-218.500,-205.000,-235.500,-236.500
2.325,-216.500,-203.000,-234.000,-235.000
2.326,-214.500,-201.000,-231.500,-232.500
2.327,-210.000,-196.000,-227.000,-228.000
2.328,-202.500,-188.500,-219.500,-220.000
2.329,-193.000,-179.000,-209.500,-209.500
2.330,-184.000,-169.500,-199.500,-199.000
2.331,-177.500,-162.000,-191.500,-191.000
2.332,-175.000,-159.000,-187.500,-187.500
2.333,-177.000,-160.500,-188.500,-188.500
2.334,-183.500,-166.500,-194.000,-194.000
2.335,-193.500,-176.500,-203.500,-203.500
2.336,-206.500,-189.500,-216.500,-216.500
2.337,-221.500,-205.000,-232.000,-232.000
2.338,-236.500,-220.000,-247.500,-247.500
2.339,-250.000,-233.500,-261.500,-261.500
2.340,-259.000,-243.000,-271.500,-271.000
2.341,-263.500,-248.000,-276.500,-276.500
2.342,-263.500,-249.000,-278.000,-277.500
2.343,-262.000,-248.000,-277.000,-276.500
2.344,-260.000,-246.500,-276.000,-275.500
2.345,-259.500,-245.500,-275.000,-274.500
2.346,-259.000,-244.500,-274.000,-274.000
2.347,-258.000,-243.500,-272.000,-272.000
2.348,-256.000,-241.000,-269.000,-269.000
2.349,-252.500,-237.500,-265.000,-265.000
2.350,-248.500,-232.500,-260.000,-259.500
2.351,-243.000,-227.000,-254.000,-253.500
2.352,-237.500,-221.500,-248.000,-247.500
2.353,-232.500,-216.000,-243.000,-242.500
2.354,-228.000,-211.500,-238.500,-238.000
2.355,-225.000,-208.000,-235.500,-235.000
2.356,-222.500,-205.500,-234.000,-233.000
2.357,-220.500,-203.000,-232.000,-231.000
2.358,-217.500,-200.500,-230.000,-229.000
2.359,-214.500,-197.500,-227.500,-226.500
2.360,-212.500,-196.000,-226.000,-225.000
2.361,-213.000,-196.500,-227.000,-226.000
2.362,-217.500,-201.000,-231.500,-230.500
2.363,-225.000,-209.000,-240.000,-239.000
2.364,-236.000,-220.000,-250.500,-249.500
2.365,-247.000,-231.000,-261.500,-260.500
2.366,-257.000,-241.000,-271.000,-270.000
2.367,-263.500,-248.000,-277.500,-276.500
2.368,-266.500,-251.000,-280.000,-279.500
2.369,-267.000,-251.000,-280.000,-279.500
2.370,-264.500,-248.500,-278.000,-277.500
2.371,-261.000,-245.000,-274.000,-273.500
2.372,-256.500,-240.000,-269.000,-268.500
2.373,-251.000,-234.000,-263.000,-263.000
2.374,-246.500,-229.000,-258.000,-257.500
2.375,-243.500,-226.000,-254.000,-254.000
2.376,-242.000,-225.000,-252.500,-253.000
2.377,-242.000,-225.000,-252.500,-253.000
2.378,-242.500,-226.000,-253.500,-254.000
2.379,-242.000,-226.500,-254.500,-255.000
2.380,-242.000,-227.000,-255.000,-255.500
2.381,-242.000,-227.500,-256.000,-257.000
2.382,-243.000,-229.000,-257.500,-258.500
2.383,-244.000,-230.500,-259.000,-260.500
2.384,-246.000,-232.000,-260.500,-262.500
2.385,-247.500,-233.500,-262.000,-264.000
2.386,-249.000,-234.500,-263.000,-265.000
2.387,-249.500,-235.000,-263.000,-265.000
2.388,-249.000,-233.500,-261.500,-264.000
2.389,-246.500,-231.000,-258.500,-261.000
2.390,-242.500,-226.000,-254.000,-256.500
2.391,-237.000,-220.000,-247.500,-250.000
2.392,-231.000,-213.500,-241.000,-243.000
2.393,-225.500,-207.500,-235.000,-237.000
2.394,-221.000,-203.000,-230.000,-232.000
2.395,-217.500,-199.000,-226.500,-228.000
2.396,-214.500,-196.500,-223.500,-224.500
2.397,-212.000,-194.500,-221.500,-222.500
2.398,-211.000,-194.000,-221.000,-222.000
2.399,-212.000,-195.500,-222.500,-223.500
2.400,-214.500,-199.000,-225.500,-226.500
2.401,-217.500,-202.500,-229.000,-230.000
2.402,-220.000,-205.000,-231.500,-232.500
2.403,-222.500,-207.500,-234.000,-235.500
2.404,-227.000,-212.000,-238.000,-239.500
2.405,-233.500,-218.000,-244.500,-246.000
2.406,-242.000,-225.500,-252.000,-254.000
2.407,-250.000,-232.500,-259.500,-262.000
2.408,-255.500,-238.000,-265.000,-267.500
2.409,-257.500,-239.500,-266.500,-269.000
2.410,-255.500,-237.500,-264.000,-266.000
2.411,-250.500,-232.500,-258.500,-260.500
2.412,-244.500,-227.000,-252.000,-254.000
2.413,-240.000,-223.000,-247.000,-248.500
2.414,-237.000,-221.000,-244.000,-246.000
2.415,-236.000,-220.500,-243.500,-245.000
2.416,-235.500,-221.000,-243.500,-245.500
2.417,-234.500,-220.500,-243.500,-245.500
2.418,-233.500,-220.000,-243.000,-245.500
2.419,-232.500,-219.500,-242.500,-245.500
2.420,-232.000,-219.000,-242.000,-245.500
2.421,-231.500,-218.500,-241.000,-245.500
2.422,-230.000,-217.000,-239.500,-244.500
2.423,-227.000,-213.500,-236.000,-242.000
2.424,-222.000,-208.000,-230.500,-236.500
2.425,-213.500,-199.000,-221.500,-227.500
2.426,-202.000,-187.000,-209.500,-215.500
2.427,-189.500,-174.000,-196.000,-202.000
2.428,-179.000,-163.000,-185.500,-191.000
2.429,-174.500,-158.000,-181.000,-186.000
2.430,-178.500,-161.500,-184.500,-189.500
2.431,-190.500,-172.500,-196.500,-201.000
2.432,-207.500,-189.500,-213.500,-218.000
2.433,-226.000,-207.500,-231.500,-235.500
2.434,-241.500,-222.500,-246.500,-250.000
2.435,-251.500,-232.500,-256.000,-259.500
2.436,-256.500,-237.500,-260.500,-264.000
2.437,-258.000,-239.000,-262.000,-265.000
2.438,-257.500,-238.500,-261.000,-265.000
2.439,-255.500,-237.000,-260.000,-264.000
2.440,-253.500,-235.500,-258.000,-263.000
2.441,-251.000,-233.500,-256.000,-261.500
2.442,-249.000,-231.000,-254.000,-260.000
2.443,-246.500,-229.000,-251.500,-258.000
2.444,-244.500,-227.000,-249.500,-257.000
2.445,-244.000,-226.500,-248.500,-256.500
2.446,-244.500,-227.000,-249.500,-257.500
2.447,-246.000,-228.500,-251.000,-259.000
2.448,-247.000,-229.500,-252.000,-259.500
2.449,-246.000,-228.500,-251.500,-258.500
2.450,-244.000,-226.500,-249.500,-256.000
2.451,-242.000,-223.500,-247.000,-253.000
2.452,-240.000,-221.500,-244.500,-250.500
2.453,-239.500,-220.000,-243.500,-249.000
2.454,-239.500,-220.000,-243.500,-249.000
2.455,-240.500,-221.000,-244.000,-250.000
2.456,-241.000,-222.000,-245.000,-250.500
2.457,-240.500,-222.000,-244.500,-250.500
2.458,-238.500,-220.500,-243.000,-249.000
2.459,-236.500,-218.500,-241.000,-247.000
2.460,-235.500,-217.500,-240.500,-246.500
2.461,-237.000,-219.500,-242.500,-248.500
2.462,-241.000,-224.000,-246.500,-253.000
2.463,-246.000,-229.000,-251.500,-258.000
2.464,-250.000,-233.500,-255.500,-262.500
2.465,-252.500,-236.000,-258.000,-265.000
2.466,-254.000,-237.500,-259.000,-266.000
2.467,-255.500,-239.000,-260.000,-267.500
2.468,-258.500,-241.500,-262.500,-270.000
2.469,-263.500,-246.000,-267.000,-274.000
2.470,-269.000,-251.000,-271.500,-279.000
2.471,-273.500,-255.000,-275.000,-282.500
2.472,-275.000,-256.000,-275.500,-283.000
2.473,-273.000,-253.500,-272.500,-280.000
2.474,-268.500,-249.000,-267.500,-274.500
2.475,-263.000,-243.500,-261.500,-269.000
2.476,-258.000,-238.500,-257.000,-264.000
2.477,-254.500,-235.500,-254.000,-261.000
2.478,-251.500,-233.500,-252.000,-259.500
2.479,-250.000,-232.500,-251.500,-259.500
2.480,-249.000,-232.000,-251.500,-259.500
2.481,-248.000,-231.000,-251.000,-259.500
2.482,-245.500,-229.000,-249.000,-257.500
2.483,-241.500,-225.000,-245.000,-254.000
2.484,-237.000,-220.500,-241.000,-250.000
2.485,-234.000,-217.500,-238.000,-247.000
2.486,-232.000,-215.500,-236.000,-245.500
2.487,-231.000,-215.000,-235.500,-245.000
2.488,-230.000,-213.500,-233.500,-243.500
2.489,-228.000,-211.500,-231.500,-241.000
2.490,-226.000,-209.500,-228.500,-238.500
2.491,-224.500,-207.500,-226.000,-236.500
2.492,-223.500,-205.500,-224.000,-234.500
2.493,-223.000,-204.500,-222.500,-233.500
2.494,-222.500,-204.000,-222.000,-233.000
2.495,-223.500,-205.000,-223.000,-234.000
2.496,-226.500,-208.500,-226.500,-237.500
2.497,-232.500,-214.500,-233.000,-244.000
2.498,-240.500,-223.000,-241.500,-252.500
2.499,-249.000,-231.500,-250.000,-261.500
2.500,-256.000,-238.500,-257.000,-268.500
2.501,-260.000,-243.000,-261.500,-273.000
2.502,-263.000,-245.500,-264.000,-275.500
2.503,-264.500,-247.500,-265.500,-277.500
2.504,-266.000,-249.000,-266.500,-278.500
2.505,-267.000,-250.000,-267.000,-279.000
2.506,-267.500,-250.000,-267.000,-279.000
2.507,-267.000,-249.500,-266.000,-278.000
2.508,-265.500,-248.000,-264.000,-276.000
2.509,-263.500,-245.000,-261.500,-273.500
2.510,-260.500,-241.500,-258.000,-269.500
2.511,-256.500,-236.500,-253.000,-264.000
2.512,-251.000,-230.500,-246.500,-257.000
2.513,-243.500,-223.000,-239.000,-249.000
2.514,-235.000,-215.000,-230.500,-240.000
2.515,-226.500,-206.500,-222.000,-231.500
2.516,-217.500,-198.500,-214.000,-223.000
2.517,-208.500,-190.500,-206.000,-215.000
2.518,-200.000,-182.500,-198.000,-207.000
2.519,-192.000,-175.500,-191.000,-200.000
2.520,-187.500,-170.500,-186.500,-196.000
2.521,-187.000,-170.500,-186.500,-196.000
2.522,-192.500,-175.000,-191.500,-201.000
2.523,-203.000,-185.500,-202.000,-212.000
2.524,-218.000,-200.500,-216.500,-226.500
2.525,-234.500,-217.000,-232.500,-242.500
2.526,-249.000,-231.500,-246.000,-256.500
2.527,-260.000,-242.000,-256.000,-266.500
2.528,-267.000,-248.500,-262.000,-272.500
2.529,-270.000,-251.500,-264.000,-274.500
2.530,-271.000,-251.500,-264.000,-274.500
2.531,-271.500,-252.000,-264.000,-274.500
2.532,-274.000,-253.500,-266.500,-276.500
2.533,-279.000,-258.500,-271.500,-281.500
2.534,-287.000,-266.500,-280.000,-290.000
2.535,-295.000,-275.000,-289.000,-299.000
2.536,-300.500,-281.000,-296.000,-306.500
2.537,-301.500,-283.000,-298.500,-309.000
2.538,-297.500,-280.000,-295.500,-306.500
2.539,-289.000,-272.500,-288.500,-300.000
2.540,-279.000,-263.500,-279.000,-291.000
2.541,-269.500,-254.500,-270.000,-282.500
2.542,-262.000,-247.000,-261.500,-274.500
2.543,-256.000,-241.000,-255.500,-268.500
2.544,-252.500,-237.500,-252.000,-265.000
2.545,-251.000,-236.500,-250.500,-263.500
2.546,-251.500,-236.500,-250.500,-263.500
2.547,-252.500,-238.000,-251.500,-264.000
2.548,-254.000,-239.000,-252.000,-264.500
2.549,-255.000,-239.000,-252.000,-264.500
2.550,-255.000,-238.500,-250.500,-263.000
2.551,-252.500,-235.500,-247.000,-259.000
2.552,-247.000,-229.000,-240.500,-252.500
2.553,-238.500,-219.500,-231.000,-242.500
2.554,-228.500,-209.000,-220.000,-232.000
2.555,-220.000,-199.500,-211.000,-222.500
2.556,-214.000,-193.500,-205.000,-217.000
2.557,-212.500,-192.000,-203.500,-216.000
2.558,-214.500,-194.500,-206.500,-219.500
2.559,-221.000,-201.000,-213.000,-226.500
2.560,-229.500,-210.000,-222.000,-236.000
2.561,-239.000,-219.500,-232.000,-246.000
2.562,-247.000,-228.500,-240.500,-255.000
2.563,-253.500,-235.500,-247.000,-262.000
2.564,-258.000,-240.000,-252.000,-266.500
2.565,-260.500,-243.000,-254.500,-269.500
2.566,-262.500,-245.500,-256.500,-271.000
2.567,-264.500,-247.500,-258.000,-272.500
2.568,-267.000,-250.500,-260.500,-274.500
2.569,-270.000,-253.000,-263.000,-277.000
2.570,-272.500,-256.000,-265.500,-279.500
2.571,-275.000,-258.000,-267.500,-281.000
2.572,-276.500,-258.500,-268.500,-282.000
2.573,-276.500,-258.000,-268.500,-281.500
2.574,-275.000,-256.500,-266.500,-279.500
2.575,-272.000,-253.500,-264.000,-277.000
2.576,-269.000,-249.500,-260.000,-273.000
2.577,-265.500,-246.000,-256.000,-269.500
2.578,-262.000,-242.500,-252.000,-266.000
2.579,-259.000,-239.500,-249.000,-263.000
2.580,-256.000,-237.000,-246.000,-260.000
2.581,-252.000,-234.000,-243.000,-257.000
2.582,-248.500,-230.500,-240.000,-254.500
2.583,-245.000,-228.000,-238.000,-252.500
2.584,-242.500,-226.500,-237.000,-251.500
2.585,-241.000,-225.500,-237.000,-251.500
2.586,-239.500,-224.500,-236.000,-251.000
2.587,-237.500,-222.500,-234.000,-249.000
2.588,-233.500,-219.000,-230.000,-245.000
2.589,-228.500,-213.000,-224.500,-238.500
2.590,-222.000,-206.000,-217.000,-231.000
2.591,-215.000,-198.500,-209.500,-223.500
2.592,-209.500,-192.000,-202.500,-216.500
2.593,-205.500,-187.500,-198.000,-211.500
2.594,-203.500,-185.000,-194.500,-208.000
2.595,-202.000,-183.500,-192.000,-205.500
2.596,-200.000,-181.500,-189.500,-203.000
2.597,-197.000,-179.000,-187.000,-200.500
2.598,-194.000,-176.000,-184.500,-198.000
2.599,-192.000,-175.000,-184.000,-197.000
2.600,-192.500,-176.000,-186.000,-199.000
2.601,-195.500,-179.500,-190.500,-203.500
2.602,-199.500,-184.000,-195.500,-208.500
2.603,-202.000,-187.000,-199.000,-211.500
2.604,-201.500,-187.000,-199.000,-211.000
2.605,-197.500,-183.000,-195.500,-207.000
2.606,-191.500,-177.500,-189.500,-201.000
2.607,-186.500,-172.500,-184.500,-196.000
2.608,-184.500,-170.000,-182.000,-194.000
2.609,-185.000,-171.000,-182.500,-194.500
2.610,-187.000,-172.500,-184.000,-196.000
2.611,-187.500,-173.000,-183.500,-196.000
2.612,-186.000,-171.000,-181.500,-193.500
2.613,-184.000,-168.500,-178.500,-190.000
2.614,-183.500,-167.500,-177.500,-188.500
2.615,-186.500,-170.500,-180.000,-190.500
2.616,-194.000,-178.000,-187.500,-197.500
2.617,-204.000,-188.500,-198.000,-208.000
2.618,-214.500,-199.000,-208.500,-219.000
2.619,-221.000,-206.500,-216.000,-226.500
2.620,-223.500,-209.500,-219.000,-230.000
2.621,-223.000,-209.500,-219.500,-231.000
2.622,-222.000,-209.000,-219.500,-231.000
2.623,-220.500,-208.000,-218.500,-230.500
2.624,-217.500,-205.500,-216.500,-228.500
2.625,-212.500,-200.500,-211.500,-224.000
2.626,-205.500,-193.500,-204.500,-217.000
2.627,-197.500,-186.000,-197.000,-209.500
2.628,-191.000,-179.000,-190.000,-202.500
2.629,-187.000,-174.500,-185.500,-197.500
2.630,-187.000,-174.000,-184.500,-196.500
2.631,-191.000,-177.000,-188.000,-199.500
2.632,-198.500,-183.500,-194.000,-205.500
2.633,-207.000,-191.000,-201.500,-213.000
2.634,-215.500,-198.500,-208.500,-220.000
2.635,-222.000,-204.500,-214.500,-226.000
2.636,-226.500,-209.000,-218.500,-230.000
2.637,-229.000,-212.000,-221.500,-233.000
2.638,-231.000,-214.000,-224.000,-235.500
2.639,-233.000,-216.500,-226.000,-238.000
2.640,-234.500,-218.500,-228.500,-240.500
2.641,-235.000,-219.500,-230.000,-242.000
2.642,-234.500,-220.000,-230.500,-242.500
2.643,-233.500,-219.000,-230.000,-241.500
2.644,-231.000,-217.500,-228.000,-239.500
2.645,-227.500,-214.500,-225.000,-236.000
2.646,-223.000,-210.000,-220.000,-231.000
2.647,-217.000,-204.000,-214.000,-224.000
2.648,-212.000,-198.500,-207.500,-217.500
2.649,-209.000,-195.500,-203.500,-213.500
2.650,-210.000,-195.000,-202.500,-212.500
2.651,-213.000,-197.000,-204.000,-214.500
2.652,-217.000,-200.000,-207.000,-217.500
2.653,-220.000,-202.000,-209.500,-220.000
2.654,-222.500,-203.500,-211.500,-223.000
2.655,-225.000,-206.000,-214.500,-226.000
2.656,-229.000,-210.000,-219.000,-230.500
2.657,-234.500,-216.000,-225.500,-237.000
2.658,-241.000,-223.000,-233.000,-244.000
2.659,-247.500,-230.000,-240.000,-251.000
2.660,-252.000,-235.500,-245.000,-256.500
2.661,-253.500,-238.000,-247.500,-259.000
2.662,-253.500,-238.500,-248.000,-259.500
2.663,-252.500,-238.000,-247.500,-259.500
2.664,-252.500,-238.500,-248.500,-260.000
2.665,-253.500,-240.000,-250.000,-262.000
2.666,-255.500,-242.500,-253.000,-265.000
2.667,-257.000,-244.500,-255.000,-267.000
2.668,-256.500,-244.500,-255.000,-267.000
2.669,-255.000,-242.500,-253.000,-265.000
2.670,-252.500,-240.000,-250.000,-261.500
2.671,-250.500,-237.500,-247.500,-258.500
2.672,-249.500,-236.500,-245.500,-257.000
2.673,-249.500,-236.000,-245.000,-256.000
2.674,-250.000,-236.500,-245.500,-256.500
2.675,-250.500,-236.500,-245.000,-256.000
2.676,-249.000,-235.500,-243.500,-254.500
2.677,-246.500,-232.500,-240.000,-251.500
2.678,-242.500,-228.500,-236.500,-248.000
2.679,-239.000,-224.500,-233.000,-245.000
2.680,-236.500,-221.500,-230.000,-242.500
2.681,-234.000,-219.000,-227.500,-240.500
2.682,-232.000,-217.000,-225.500,-238.500
2.683,-230.500,-215.500,-223.500,-236.500
2.684,-229.500,-215.000,-223.000,-236.000
2.685,-230.500,-216.500,-224.000,-237.000
2.686,-234.000,-220.000,-228.000,-240.500
2.687,-239.500,-226.000,-234.000,-246.000
2.688,-246.500,-232.500,-240.500,-252.000
2.689,-252.500,-238.500,-246.500,-258.000
2.690,-257.500,-243.000,-251.000,-262.000
2.691,-259.500,-245.000,-252.500,-264.000
2.692,-258.000,-243.000,-251.500,-262.500
2.693,-253.500,-238.500,-247.000,-258.000
2.694,-246.500,-231.000,-240.500,-251.000
2.695,-238.500,-223.500,-232.500,-243.000
2.696,-232.000,-216.500,-225.500,-236.500
2.697,-228.500,-213.500,-222.000,-233.000
2.698,-229.000,-214.000,-222.000,-233.500
2.699,-233.000,-218.000,-225.500,-237.500
2.700,-239.000,-223.500,-231.500,-243.500
2.701,-244.500,-229.500,-237.000,-249.000
2.702,-248.500,-234.000,-241.500,-253.500
2.703,-252.000,-237.500,-245.000,-257.000
2.704,-255.000,-241.500,-248.000,-260.500
2.705,-259.000,-245.500,-252.000,-264.000
2.706,-262.500,-250.000,-255.500,-267.500
2.707,-265.500,-253.000,-258.000,-270.000
2.708,-266.500,-254.500,-259.000,-270.500
2.709,-268.000,-255.500,-260.000,-271.500
2.710,-271.000,-258.500,-263.500,-274.500
2.711,-277.000,-265.000,-270.000,-280.500
2.712,-286.000,-274.000,-279.500,-289.500
2.713,-296.000,-284.000,-289.500,-299.500
2.714,-303.500,-290.500,-296.500,-306.000
2.715,-304.000,-291.000,-296.500,-305.500
2.716,-295.500,-282.000,-287.500,-296.500
2.717,-278.000,-265.000,-269.500,-278.500
2.718,-255.000,-241.500,-246.000,-255.000
2.719,-228.500,-215.000,-220.000,-228.500
2.720,-202.000,-188.500,-193.500,-202.000
2.721,-176.000,-163.000,-167.500,-176.000
2.722,-150.500,-137.500,-142.000,-150.500
2.723,-124.500,-111.000,-115.000,-123.000
2.724,-95.000,-81.500,-84.500,-92.500
2.725,-60.000,-46.500,-48.000,-56.000
2.726,-18.500,-4.500,-5.000,-12.500
2.727,30.000,45.500,45.500,38.500
2.728,84.500,101.000,102.000,95.500
2.729,141.000,159.500,161.000,155.000
2.730,197.000,216.500,219.000,213.000
2.731,248.000,269.500,271.500,266.500
2.732,292.500,315.000,317.500,313.000
2.733,330.000,353.000,355.500,351.500
2.734,361.500,384.500,387.500,384.000
2.735,389.000,411.000,414.500,411.500
2.736,411.500,433.500,438.000,434.500
2.737,428.500,450.500,455.000,451.500
2.738,436.000,458.000,463.000,459.000
2.739,431.500,453.500,458.500,454.000
2.740,414.000,436.000,440.500,435.000
2.741,384.000,406.000,410.000,404.000
2.742,344.500,366.000,370.000,363.000
2.743,297.000,318.000,322.000,313.500
2.744,244.500,265.000,268.500,259.000
2.745,190.000,210.000,213.000,203.000
2.746,136.000,156.000,158.000,147.500
2.747,84.000,104.000,105.500,94.500
2.748,36.000,56.000,56.500,45.000
2.749,-6.500,14.000,13.500,2.000
2.750,-41.500,-21.000,-22.000,-33.500
2.751,-69.000,-48.000,-49.500,-61.000
2.752,-90.000,-69.500,-71.500,-82.500
2.753,-108.500,-87.500,-91.000,-101.000
2.754,-125.500,-105.000,-109.000,-119.000
2.755,-142.000,-122.500,-127.000,-136.500
2.756,-159.000,-139.500,-144.500,-154.500
2.757,-174.500,-155.000,-161.000,-170.500
2.758,-186.500,-167.500,-173.000,-183.000
2.759,-193.000,-175.000,-180.500,-190.500
2.760,-195.500,-178.000,-184.000,-194.000
2.761,-197.000,-180.500,-186.000,-196.500
2.762,-200.500,-185.000,-190.500,-201.500
2.763,-208.500,-193.500,-198.500,-210.000
2.764,-219.500,-205.000,-209.500,-221.000
2.765,-230.500,-216.500,-220.500,-232.000
2.766,-238.000,-224.000,-227.500,-239.500
2.767,-240.000,-226.000,-229.000,-241.000
2.768,-238.500,-224.000,-227.000,-238.500
2.769,-235.500,-221.000,-223.500,-235.000
2.770,-234.000,-218.500,-221.500,-233.000
2.771,-233.500,-217.500,-220.500,-232.000
2.772,-234.500,-218.000,-221.000,-232.000
2.773,-236.000,-219.000,-221.500,-233.000
2.774,-237.500,-220.500,-223.000,-234.000
2.775,-238.500,-222.000,-223.500,-235.000
2.776,-238.500,-221.500,-223.000,-234.500
2.777,-236.000,-219.000,-220.500,-232.500
2.778,-232.000,-215.500,-217.500,-229.000
2.779,-227.500,-211.000,-214.000,-226.000
2.780,-223.500,-207.500,-211.500,-223.500
2.781,-221.000,-205.500,-210.000,-222.500
2.782,-219.500,-204.500,-209.500,-222.000
2.783,-219.000,-204.000,-209.000,-222.000
2.784,-217.500,-203.000,-207.500,-221.000
2.785,-215.500,-201.000,-205.000,-218.500
2.786,-213.500,-199.000,-202.500,-216.000
2.787,-213.000,-198.000,-201.000,-215.000
2.788,-215.000,-199.500,-202.000,-216.000
2.789,-219.500,-203.000,-205.500,-219.000
2.790,-224.000,-207.500,-209.500,-223.000
2.791,-228.000,-210.500,-213.000,-225.500
2.792,-229.000,-211.000,-213.500,-226.000
2.793,-226.500,-208.500,-211.500,-223.500
2.794,-222.000,-204.000,-207.000,-219.000
2.795,-216.500,-199.000,-202.000,-213.500
2.796,-211.500,-194.500,-197.500,-209.000
2.797,-208.500,-191.500,-195.000,-206.500
2.798,-207.500,-191.500,-194.500,-206.000
2.799,-208.500,-193.000,-196.000,-207.500
2.800,-210.500,-195.500,-199.000,-210.500
2.801,-213.500,-199.500,-202.000,-214.000
2.802,-217.000,-203.000,-205.500,-217.500
2.803,-220.000,-206.000,-208.500,-220.500
2.804,-223.000,-209.500,-211.500,-223.000
2.805,-226.000,-212.500,-214.500,-226.000
2.806,-229.500,-216.000,-218.000,-229.500
2.807,-233.000,-220.000,-221.500,-233.500
2.808,-237.500,-224.000,-225.500,-237.500
2.809,-242.500,-228.500,-230.500,-242.000
2.810,-248.500,-233.500,-235.000,-246.500
2.811,-253.000,-237.000,-239.000,-249.500
2.812,-254.500,-237.500,-239.000,-249.500
2.813,-252.000,-234.500,-235.500,-245.500
2.814,-247.000,-229.000,-229.500,-240.000
2.815,-242.000,-224.000,-224.000,-234.500
2.816,-239.000,-221.000,-221.000,-231.500
2.817,-238.500,-221.500,-220.500,-231.500
2.818,-240.500,-224.000,-223.000,-233.500
2.819,-243.000,-227.000,-226.000,-237.000
2.820,-246.000,-230.500,-229.500,-240.000
2.821,-248.500,-234.000,-233.000,-243.500
2.822,-251.000,-237.000,-236.500,-246.500
2.823,-252.500,-239.000,-238.500,-248.500
2.824,-252.000,-238.500,-239.000,-249.000
2.825,-249.500,-235.500,-237.000,-247.000
2.826,-245.500,-231.000,-233.000,-243.500
2.827,-240.000,-225.500,-227.500,-239.000
2.828,-234.500,-219.500,-222.000,-233.500
2.829,-229.500,-214.500,-216.500,-228.000
2.830,-226.000,-211.000,-213.000,-224.500
2.831,-224.500,-209.500,-211.000,-223.000
2.832,-224.500,-209.500,-211.000,-222.500
2.833,-225.000,-209.500,-211.500,-222.500
2.834,-225.000,-209.500,-211.000,-222.000
2.835,-223.000,-207.500,-209.500,-220.000
2.836,-219.500,-204.000,-206.000,-216.000
2.837,-213.500,-198.500,-200.500,-210.500
2.838,-206.500,-192.500,-194.000,-204.000
2.839,-200.000,-186.500,-188.000,-198.000
2.840,-195.000,-182.000,-183.000,-194.000
2.841,-192.500,-180.000,-181.000,-192.000
2.842,-194.000,-181.500,-183.000,-194.000
2.843,-200.500,-188.000,-189.000,-200.500
2.844,-211.500,-199.000,-199.500,-211.500
2.845,-224.000,-211.000,-212.000,-224.000
2.846,-235.000,-222.000,-223.000,-235.000
2.847,-243.000,-229.500,-230.500,-242.500
2.848,-247.000,-233.500,-234.500,-247.000
2.849,-249.000,-235.000,-236.000,-248.000
2.850,-249.000,-234.000,-235.500,-247.000
2.851,-248.500,-233.000,-234.000,-245.000
2.852,-248.000,-231.500,-232.500,-243.000
2.853,-248.000,-231.000,-232.000,-242.000
2.854,-247.500,-230.000,-231.500,-241.000
2.855,-246.500,-228.500,-230.000,-239.000
2.856,-243.000,-225.500,-227.000,-236.000
2.857,-237.000,-220.500,-222.000,-231.000
2.858,-229.500,-214.000,-215.500,-224.000
2.859,-221.000,-206.000,-208.000,-216.500
2.860,-214.000,-199.500,-201.000,-209.500
2.861,-210.000,-196.000,-197.500,-206.000
2.862,-210.000,-196.500,-198.500,-207.000
2.863,-214.000,-200.500,-202.500,-211.000
2.864,-218.500,-205.500,-208.000,-216.500
2.865,-222.500,-210.000,-212.000,-220.500
2.866,-225.000,-212.500,-214.000,-222.500
2.867,-226.000,-213.500,-215.000,-223.500
2.868,-227.000,-214.000,-215.500,-223.500
2.869,-228.000,-214.500,-216.000,-224.000
2.870,-228.500,-214.000,-215.500,-223.000
2.871,-227.000,-212.000,-213.000,-220.500
2.872,-223.000,-207.500,-208.500,-215.500
2.873,-217.000,-201.000,-201.500,-208.500
2.874,-210.000,-193.500,-194.000,-200.500
2.875,-203.500,-187.000,-187.000,-194.000
2.876,-200.000,-183.500,-183.500,-190.000
2.877,-199.500,-183.000,-183.000,-189.500
2.878,-201.500,-185.500,-185.500,-192.000
2.879,-204.000,-188.500,-188.500,-195.500
2.880,-205.000,-190.500,-190.000,-197.500
2.881,-204.000,-190.500,-189.500,-197.000
2.882,-201.500,-188.000,-186.500,-194.500
2.883,-197.500,-184.500,-183.000,-191.500
2.884,-194.000,-181.500,-180.000,-188.500
2.885,-191.500,-179.500,-178.000,-187.000
2.886,-190.000,-177.500,-177.000,-186.000
2.887,-188.500,-175.500,-176.000,-184.500
2.888,-186.500,-173.000,-174.000,-182.500
2.889,-184.000,-170.000,-171.000,-179.000
2.890,-182.000,-167.500,-168.500,-176.000
2.891,-181.000,-166.000,-167.000,-174.000
2.892,-181.500,-165.500,-166.500,-173.500
2.893,-182.500,-165.500,-166.500,-173.000
2.894,-183.000,-165.500,-166.000,-173.000
