'Elapsed time','AECG1','AECG2','AECG3','AECG4'
'seconds','uV','uV','uV','uV'
0.000,0.500,-1.000,-5.000,-7.500
0.001,0.000,-1.000,-5.500,-8.000
0.002,0.000,-1.000,-6.000,-8.000
0.003,0.000,-1.500,-6.500,-8.000
0.004,0.000,-1.500,-6.500,-8.500
0.005,0.000,-2.000,-7.000,-8.500
0.006,0.000,-2.000,-7.000,-8.500
0.007,0.000,-2.500,-7.000,-8.500
0.008,0.000,-3.000,-6.500,-8.500
0.009,-0.500,-3.500,-6.000,-8.500
0.010,-0.500,-3.500,-6.000,-9.000
0.011,-0.500,-3.500,-5.500,-9.000
0.012,-0.500,-3.000,-5.000,-9.000
0.013,0.000,-2.500,-5.000,-8.500
0.014,0.500,-1.500,-5.000,-8.000
0.015,0.500,-0.500,-5.500,-7.500
0.016,1.000,0.000,-6.000,-7.000
0.017,1.000,1.000,-6.000,-7.000
0.018,1.500,2.000,-6.000,-6.500
0.019,1.500,2.500,-6.000,-6.500
0.020,2.000,3.000,-5.500,-6.500
0.021,2.000,3.500,-5.000,-6.500
0.022,2.000,3.500,-5.000,-6.500
0.023,2.000,3.500,-5.000,-6.500
0.024,2.000,3.000,-5.500,-6.500
0.025,1.500,3.000,-5.500,-7.000
0.026,1.500,3.000,-5.000,-7.500
0.027,2.000,3.000,-5.000,-7.500
0.028,2.000,3.500,-5.000,-8.000
0.029,2.500,3.000,-5.500,-8.000
0.030,2.000,3.000,-5.500,-8.000
0.031,2.000,2.000,-6.000,-7.500
0.032,2.000,1.500,-6.000,-7.500
0.033,1.500,1.000,-5.500,-7.000
0.034,1.500,0.500,-5.000,-6.500
0.035,2.000,0.500,-5.000,-6.000
0.036,2.000,0.500,-4.500,-6.000
0.037,2.500,0.000,-4.500,-6.000
0.038,2.500,0.000,-5.000,-6.000
0.039,3.000,-0.500,-5.000,-6.000
0.040,2.500,-0.500,-5.500,-6.500
0.041,2.500,-0.500,-6.000,-6.500
0.042,2.000,-0.500,-6.500,-7.000
0.043,2.000,-0.500,-6.500,-7.000
0.044,2.000,-0.500,-6.000,-6.500
0.045,2.000,-0.500,-5.500,-6.500
0.046,2.000,-1.000,-5.500,-6.500
0.047,2.000,-1.500,-5.500,-7.000
0.048,1.500,-2.000,-6.000,-7.000
0.049,1.000,-3.000,-6.500,-7.500
0.050,1.000,-3.000,-7.000,-8.000
0.051,1.000,-3.000,-7.000,-8.000
0.052,1.500,-2.500,-6.500,-7.500
0.053,2.000,-2.500,-6.000,-7.500
0.054,2.500,-2.000,-5.500,-7.000
0.055,3.000,-2.000,-5.500,-7.000
0.056,2.500,-2.500,-5.500,-7.500
0.057,2.500,-2.500,-5.500,-8.000
0.058,2.000,-3.000,-5.500,-8.000
0.059,2.000,-3.500,-5.000,-8.000
0.060,2.500,-3.500,-4.500,-7.500
0.061,2.500,-3.000,-4.500,-7.500
0.062,3.000,-3.000,-4.500,-7.500
0.063,3.000,-3.000,-5.500,-7.500
0.064,2.500,-3.000,-6.000,-7.500
0.065,2.000,-3.000,-6.500,-7.500
0.066,2.000,-3.500,-6.500,-7.500
0.067,2.000,-3.000,-6.000,-7.000
0.068,2.000,-3.000,-5.500,-6.500
0.069,2.500,-3.000,-5.500,-6.500
0.070,3.000,-3.500,-5.500,-6.500
0.071,2.500,-3.500,-6.000,-7.000
0.072,2.000,-4.500,-6.500,-7.000
0.073,2.000,-4.500,-6.500,-7.500
0.074,2.000,-4.000,-6.500,-7.000
0.075,2.500,-3.500,-6.000,-6.500
0.076,3.500,-2.000,-5.000,-6.000
0.077,4.500,-1.000,-4.000,-5.500
0.078,5.500,-0.500,-3.500,-5.000
0.079,6.000,-0.500,-2.500,-4.500
0.080,6.000,-0.500,-2.000,-4.500
0.081,5.500,-1.500,-2.000,-4.000
0.082,5.500,-2.000,-1.500,-4.000
0.083,5.500,-2.000,-1.000,-4.000
0.084,6.000,-2.500,-0.500,-4.000
0.085,6.500,-2.500,0.000,-4.000
0.086,7.500,-3.000,1.000,-3.500
0.087,8.000,-3.000,2.000,-3.000
0.088,8.500,-2.500,3.000,-2.000
0.089,9.000,-1.500,4.000,-1.500
0.090,9.500,-0.500,4.500,-0.500
0.091,9.500,1.000,5.000,0.500
0.092,9.500,2.500,6.000,1.500
0.093,9.500,3.500,6.500,3.000
0.094,9.000,4.000,7.500,4.500
0.095,8.500,4.000,8.000,5.500
0.096,7.000,4.000,8.000,6.500
0.097,5.500,3.500,7.500,7.500
0.098,3.000,3.000,6.500,8.000
0.099,0.500,2.500,6.000,9.000
0.100,-2.500,2.000,6.000,10.000
0.101,-5.000,1.500,5.500,11.500
0.102,-7.500,1.000,5.500,12.500
0.103,-10.000,0.500,5.000,13.000
0.104,-12.000,-0.500,4.500,13.000
0.105,-14.500,-2.000,3.500,13.000
0.106,-17.000,-3.000,2.500,12.500
0.107,-20.000,-4.500,1.500,12.000
0.108,-23.000,-6.000,0.000,11.000
0.109,-26.000,-8.000,-1.500,10.000
0.110,-28.500,-9.000,-3.000,9.500
0.111,-31.000,-10.000,-4.000,8.500
0.112,-32.500,-10.500,-5.500,8.000
0.113,-33.500,-10.500,-6.500,7.500
0.114,-34.000,-10.500,-7.000,7.000
0.115,-34.500,-11.000,-7.000,6.000
0.116,-35.000,-11.500,-7.000,5.500
0.117,-35.000,-12.000,-6.000,5.000
0.118,-35.000,-12.000,-5.500,5.000
0.119,-34.500,-12.000,-5.000,5.000
0.120,-33.500,-11.500,-4.500,4.500
0.121,-32.000,-10.500,-4.500,3.500
0.122,-30.000,-9.500,-5.500,2.000
0.123,-28.000,-9.000,-6.000,0.000
0.124,-26.000,-9.000,-7.000,-3.000
0.125,-23.500,-9.500,-7.500,-5.500
0.126,-21.000,-10.000,-8.500,-8.000
0.127,-18.500,-10.000,-9.500,-10.500
0.128,-15.500,-10.000,-10.000,-12.500
0.129,-13.500,-9.500,-11.000,-14.000
0.130,-11.500,-9.000,-12.000,-15.500
0.131,-10.500,-8.500,-12.000,-16.500
0.132,-9.500,-8.500,-12.500,-17.500
0.133,-8.500,-8.500,-12.500,-17.500
0.134,-7.500,-8.500,-12.500,-17.500
0.135,-6.500,-8.500,-12.500,-17.500
0.136,-6.000,-8.500,-12.500,-17.500
0.137,-5.500,-8.000,-13.000,-17.500
0.138,-5.000,-8.000,-13.000,-18.000
0.139,-4.500,-8.000,-13.500,-18.500
0.140,-4.000,-8.000,-13.500,-19.500
0.141,-3.500,-8.000,-14.000,-20.000
0.142,-3.500,-8.000,-14.000,-20.000
0.143,-3.000,-8.000,-14.000,-20.500
0.144,-2.500,-8.000,-14.000,-20.000
0.145,-2.500,-8.000,-13.500,-19.500
0.146,-2.000,-8.000,-13.000,-19.000
0.147,-1.500,-7.500,-12.000,-18.500
0.148,-1.500,-7.000,-11.500,-17.500
0.149,-1.500,-7.000,-11.000,-16.500
0.150,-1.500,-6.500,-10.500,-16.000
0.151,-2.000,-6.000,-10.000,-15.000
0.152,-2.500,-5.500,-9.500,-14.500
0.153,-2.500,-4.500,-9.000,-14.500
0.154,-2.000,-3.500,-8.000,-14.000
0.155,-2.000,-3.000,-7.500,-13.500
0.156,-1.500,-2.500,-6.500,-12.500
0.157,-1.500,-2.000,-6.000,-11.500
0.158,-1.500,-2.500,-5.500,-11.000
0.159,-1.500,-3.000,-5.000,-10.000
0.160,-1.000,-3.000,-4.500,-9.500
0.161,-0.500,-3.500,-4.000,-9.000
0.162,0.500,-3.000,-3.500,-8.000
0.163,1.000,-2.500,-3.500,-7.500
0.164,1.500,-1.500,-3.500,-7.000
0.165,1.500,-1.000,-3.500,-6.500
0.166,1.500,-0.500,-4.000,-6.500
0.167,1.500,0.000,-4.000,-6.500
0.168,1.500,0.000,-3.500,-7.000
0.169,1.500,0.000,-2.500,-7.000
0.170,1.500,0.000,-2.000,-7.000
0.171,1.500,0.000,-2.000,-7.000
0.172,1.000,-1.000,-2.500,-7.000
0.173,0.500,-2.000,-3.000,-8.000
0.174,-0.500,-3.500,-4.000,-8.500
0.175,-1.000,-5.000,-5.000,-9.500
0.176,-1.000,-6.000,-5.500,-10.000
0.177,-1.000,-6.500,-5.500,-10.000
0.178,-0.500,-6.000,-5.500,-10.000
0.179,-0.500,-5.000,-5.000,-9.500
0.180,-0.500,-4.500,-5.000,-9.000
0.181,-0.500,-4.500,-4.500,-9.000
0.182,-1.000,-4.500,-4.500,-9.000
0.183,-1.500,-5.500,-4.000,-9.000
0.184,-2.000,-6.000,-4.000,-9.000
0.185,-2.000,-6.000,-4.000,-9.500
0.186,-2.000,-6.000,-4.500,-9.500
0.187,-2.000,-6.000,-4.500,-9.500
0.188,-2.500,-5.500,-5.000,-9.500
0.189,-2.500,-5.500,-5.500,-9.500
0.190,-3.000,-5.500,-5.500,-9.500
0.191,-3.000,-5.500,-6.000,-9.500
0.192,-3.000,-5.000,-5.500,-9.000
0.193,-3.000,-5.000,-5.500,-8.500
0.194,-3.000,-4.000,-5.000,-8.500
0.195,-3.000,-4.000,-4.500,-8.500
0.196,-3.000,-3.500,-4.000,-8.500
0.197,-3.000,-3.500,-4.000,-9.000
0.198,-3.000,-3.000,-4.000,-9.000
0.199,-3.000,-3.000,-4.500,-9.000
0.200,-3.000,-2.500,-5.000,-9.000
0.201,-3.000,-1.500,-5.000,-8.500
0.202,-3.000,-0.500,-4.500,-8.000
0.203,-3.000,0.000,-4.000,-8.000
0.204,-3.000,0.500,-4.000,-8.000
0.205,-3.000,0.000,-4.000,-8.000
0.206,-3.000,-1.000,-4.500,-8.500
0.207,-3.000,-2.000,-5.500,-9.000
0.208,-3.000,-3.000,-6.000,-9.500
0.209,-3.000,-4.000,-6.000,-9.500
0.210,-4.000,-4.500,-6.000,-10.000
0.211,-4.500,-5.000,-6.000,-10.500
0.212,-5.000,-5.000,-6.000,-11.000
0.213,-5.000,-5.500,-6.000,-11.500
0.214,-5.000,-5.500,-6.000,-11.500
0.215,-4.500,-5.500,-6.000,-11.500
0.216,-4.000,-5.500,-5.500,-11.000
0.217,-4.000,-5.000,-5.000,-10.500
0.218,-4.000,-5.000,-4.500,-10.500
0.219,-4.000,-4.500,-4.000,-10.000
0.220,-4.000,-4.500,-4.000,-9.500
0.221,-4.000,-4.000,-3.500,-9.000
0.222,-3.500,-4.500,-3.500,-8.500
0.223,-3.500,-4.500,-3.500,-8.000
0.224,-3.500,-4.000,-3.000,-7.000
0.225,-3.000,-3.000,-2.500,-5.500
0.226,-2.500,-1.500,-1.000,-3.000
0.227,-1.000,0.500,1.500,0.000
0.228,1.000,3.000,4.000,2.500
0.229,2.500,4.500,6.000,5.000
0.230,4.000,5.500,7.000,6.500
0.231,4.500,5.000,7.000,6.500
0.232,4.000,4.000,6.000,6.000
0.233,3.000,3.000,4.000,4.500
0.234,1.500,1.500,2.500,3.000
0.235,0.500,0.000,1.000,1.500
0.236,-1.000,-1.500,0.000,0.000
0.237,-2.000,-3.500,-1.500,-2.000
0.238,-3.000,-5.500,-3.000,-4.500
0.239,-4.500,-7.500,-5.000,-7.500
0.240,-6.500,-9.500,-6.500,-10.500
0.241,-8.000,-11.500,-8.000,-13.500
0.242,-9.000,-12.500,-9.000,-15.500
0.243,-10.000,-13.500,-9.500,-16.500
0.244,-10.000,-13.500,-9.500,-16.500
0.245,-9.500,-13.500,-9.500,-16.000
0.246,-9.000,-13.000,-9.000,-15.500
0.247,-8.500,-12.000,-8.500,-14.500
0.248,-8.500,-11.500,-7.500,-13.500
0.249,-8.000,-10.500,-7.000,-12.500
0.250,-8.000,-10.000,-6.500,-12.000
0.251,-7.500,-9.500,-6.000,-11.500
0.252,-7.500,-9.000,-5.500,-10.500
0.253,-7.000,-8.500,-5.500,-10.000
0.254,-6.500,-7.500,-5.000,-9.000
0.255,-6.000,-7.000,-5.000,-8.500
0.256,-5.500,-6.500,-4.500,-8.000
0.257,-5.000,-6.000,-4.000,-7.500
0.258,-4.500,-5.500,-4.000,-7.500
0.259,-4.500,-5.500,-3.500,-7.500
0.260,-4.000,-6.000,-3.500,-7.500
0.261,-4.000,-6.000,-3.500,-7.500
0.262,-4.000,-6.500,-3.000,-7.500
0.263,-4.000,-7.000,-3.000,-7.500
0.264,-4.500,-7.500,-3.000,-7.500
0.265,-5.500,-8.500,-3.500,-8.000
0.266,-6.000,-9.000,-3.500,-8.500
0.267,-7.000,-9.500,-4.000,-9.000
0.268,-7.500,-10.000,-4.500,-9.000
0.269,-7.500,-10.000,-5.000,-9.500
0.270,-7.500,-10.000,-5.000,-9.500
0.271,-7.000,-10.000,-5.000,-9.000
0.272,-7.000,-10.000,-4.500,-9.000
0.273,-7.000,-10.500,-4.000,-9.000
0.274,-7.000,-10.500,-4.000,-9.000
0.275,-7.500,-11.000,-4.000,-9.000
0.276,-7.500,-11.000,-4.500,-9.000
0.277,-8.000,-11.000,-5.000,-9.000
0.278,-8.000,-11.000,-5.500,-8.500
0.279,-8.500,-11.500,-6.000,-8.500
0.280,-8.500,-11.500,-6.000,-8.500
0.281,-8.500,-11.500,-6.000,-8.000
0.282,-8.500,-11.500,-6.000,-7.500
0.283,-8.500,-11.500,-5.500,-7.500
0.284,-8.500,-11.000,-5.500,-7.000
0.285,-8.500,-11.000,-5.000,-7.000
0.286,-9.000,-11.000,-5.000,-7.500
0.287,-9.500,-10.500,-4.500,-7.500
0.288,-9.500,-10.000,-4.500,-7.500
0.289,-9.500,-9.000,-4.500,-7.500
0.290,-9.500,-8.000,-4.500,-7.500
0.291,-9.500,-7.500,-4.500,-7.500
0.292,-10.000,-7.500,-5.000,-7.500
0.293,-10.000,-7.500,-5.000,-7.500
0.294,-10.500,-7.500,-5.000,-7.500
0.295,-11.000,-8.000,-5.500,-7.500
0.296,-11.000,-8.000,-5.500,-7.000
0.297,-11.000,-7.500,-5.500,-7.000
0.298,-11.000,-7.500,-5.500,-6.500
0.299,-10.500,-8.000,-5.500,-6.500
0.300,-10.500,-8.500,-5.500,-6.500
0.301,-11.000,-9.000,-5.500,-6.500
0.302,-11.000,-9.000,-5.500,-6.500
0.303,-11.500,-9.500,-5.000,-6.500
0.304,-12.000,-10.000,-5.000,-6.000
0.305,-11.500,-11.000,-4.500,-5.500
0.306,-11.500,-12.500,-4.500,-5.500
0.307,-11.500,-14.000,-4.000,-5.000
0.308,-11.500,-15.500,-3.500,-5.000
0.309,-12.000,-17.000,-3.500,-5.500
0.310,-12.500,-17.500,-4.000,-5.500
0.311,-12.500,-17.500,-4.500,-5.500
0.312,-13.000,-16.500,-4.500,-5.500
0.313,-12.500,-16.000,-4.500,-5.000
0.314,-12.000,-15.500,-4.000,-5.000
0.315,-12.000,-15.000,-3.500,-4.500
0.316,-12.000,-15.500,-3.000,-4.000
0.317,-12.500,-16.000,-2.500,-4.000
0.318,-13.000,-16.500,-2.500,-4.000
0.319,-13.500,-16.500,-3.000,-4.000
0.320,-14.000,-16.500,-3.000,-4.500
0.321,-14.000,-16.000,-3.000,-4.500
0.322,-13.500,-16.000,-3.000,-4.000
0.323,-13.500,-15.500,-2.500,-4.000
0.324,-13.000,-16.000,-2.500,-4.000
0.325,-13.500,-16.500,-2.000,-4.000
0.326,-13.500,-17.000,-2.000,-4.000
0.327,-14.000,-17.500,-2.000,-4.500
0.328,-14.000,-18.000,-2.500,-4.500
0.329,-14.000,-18.000,-2.500,-4.500
0.330,-14.000,-18.500,-3.000,-4.500
0.331,-14.000,-19.000,-3.000,-4.500
0.332,-14.000,-19.500,-3.000,-4.500
0.333,-14.000,-19.500,-3.500,-5.000
0.334,-14.500,-19.500,-3.500,-5.500
0.335,-14.500,-19.000,-3.500,-5.500
0.336,-15.000,-19.000,-3.500,-6.000
0.337,-15.000,-19.000,-4.000,-5.500
0.338,-15.000,-19.000,-4.000,-5.500
0.339,-15.500,-19.500,-4.000,-5.000
0.340,-15.500,-19.500,-4.500,-5.000
0.341,-15.500,-19.500,-4.500,-4.500
0.342,-15.000,-19.000,-4.500,-4.000
0.343,-15.000,-18.000,-4.000,-4.000
0.344,-14.500,-17.000,-3.500,-4.000
0.345,-14.500,-16.500,-3.500,-3.500
0.346,-14.000,-16.500,-3.000,-3.500
0.347,-14.000,-17.000,-2.500,-3.500
0.348,-14.000,-17.500,-2.500,-4.000
0.349,-14.000,-18.000,-2.500,-4.000
0.350,-14.000,-18.000,-2.500,-4.000
0.351,-14.000,-17.500,-2.500,-4.000
0.352,-13.500,-16.500,-3.000,-4.000
0.353,-13.500,-15.500,-3.000,-3.500
0.354,-13.000,-14.000,-2.500,-3.500
0.355,-12.500,-13.000,-2.500,-3.000
0.356,-12.500,-12.500,-2.000,-3.500
0.357,-13.000,-12.000,-2.000,-4.000
0.358,-13.000,-12.500,-2.500,-4.500
0.359,-13.500,-13.500,-2.500,-5.000
0.360,-13.500,-14.500,-3.000,-5.000
0.361,-13.500,-15.000,-3.500,-5.500
0.362,-13.000,-15.500,-3.500,-5.500
0.363,-12.500,-15.000,-3.500,-6.000
0.364,-12.500,-14.500,-3.500,-6.000
0.365,-12.500,-14.000,-3.000,-6.000
0.366,-12.000,-14.000,-3.000,-6.000
0.367,-12.000,-13.500,-3.000,-5.500
0.368,-12.000,-13.500,-3.000,-5.500
0.369,-12.000,-13.500,-3.000,-5.500
0.370,-12.000,-13.000,-3.500,-5.500
0.371,-11.500,-13.000,-3.500,-6.000
0.372,-11.500,-12.500,-3.500,-6.000
0.373,-11.000,-12.000,-3.500,-6.000
0.374,-10.500,-12.000,-3.500,-6.000
0.375,-10.000,-12.000,-3.500,-6.000
0.376,-9.500,-12.000,-3.500,-6.000
0.377,-9.500,-11.500,-3.500,-6.000
0.378,-9.000,-11.500,-3.500,-6.000
0.379,-9.000,-12.000,-3.000,-6.500
0.380,-9.000,-12.000,-3.000,-6.500
0.381,-8.500,-12.000,-3.000,-7.000
0.382,-8.500,-12.000,-3.000,-7.000
0.383,-8.000,-11.500,-3.000,-7.000
0.384,-8.000,-11.000,-3.000,-7.500
0.385,-8.000,-10.500,-3.000,-7.500
0.386,-8.000,-10.000,-2.500,-8.000
0.387,-8.000,-9.500,-2.500,-8.500
0.388,-8.000,-9.500,-2.000,-8.500
0.389,-7.500,-10.000,-2.000,-8.000
0.390,-7.500,-10.000,-2.000,-8.000
0.391,-7.000,-10.500,-2.000,-8.000
0.392,-6.500,-10.500,-2.500,-8.000
0.393,-6.500,-10.000,-2.500,-8.000
0.394,-6.000,-10.000,-2.500,-8.500
0.395,-5.500,-10.000,-2.000,-8.500
0.396,-5.500,-9.500,-2.000,-8.000
0.397,-5.000,-9.500,-1.500,-8.000
0.398,-4.500,-9.500,-1.000,-8.000
0.399,-4.500,-9.500,-1.000,-8.000
0.400,-4.000,-9.500,-1.500,-8.500
0.401,-4.000,-9.500,-2.000,-9.000
0.402,-4.000,-9.500,-2.500,-9.000
0.403,-3.500,-9.500,-2.500,-9.500
0.404,-3.500,-10.000,-2.500,-9.500
0.405,-3.500,-10.000,-2.500,-9.500
0.406,-3.500,-10.500,-3.000,-10.000
0.407,-4.000,-11.500,-3.000,-10.500
0.408,-4.500,-12.000,-3.500,-11.000
0.409,-4.500,-13.000,-3.500,-11.500
0.410,-5.000,-13.500,-3.500,-11.500
0.411,-5.000,-13.500,-3.000,-11.500
0.412,-5.000,-13.500,-2.500,-11.000
0.413,-4.500,-13.500,-2.000,-10.500
0.414,-4.500,-13.000,-2.000,-10.500
0.415,-4.000,-13.000,-2.000,-10.500
0.416,-4.000,-13.000,-2.500,-10.500
0.417,-4.000,-13.000,-3.000,-11.000
0.418,-3.500,-13.000,-3.500,-11.000
0.419,-3.500,-13.500,-4.000,-11.000
0.420,-3.500,-14.000,-3.500,-11.000
0.421,-3.500,-14.500,-3.500,-11.000
0.422,-3.500,-15.000,-3.000,-11.000
0.423,-3.500,-15.000,-3.000,-11.000
0.424,-3.500,-15.000,-3.500,-10.500
0.425,-3.500,-14.500,-3.500,-10.500
0.426,-3.500,-14.000,-4.000,-10.500
0.427,-3.500,-14.000,-4.500,-10.500
0.428,-3.500,-14.000,-4.500,-10.500
0.429,-4.000,-14.000,-4.000,-10.000
0.430,-3.500,-14.000,-4.000,-9.500
0.431,-3.000,-13.500,-3.500,-9.000
0.432,-2.500,-12.500,-3.000,-8.500
0.433,-1.500,-12.000,-3.000,-8.500
0.434,-1.500,-11.500,-2.500,-8.500
0.435,-1.500,-11.500,-3.000,-9.000
0.436,-1.500,-12.000,-3.000,-9.500
0.437,-2.000,-12.000,-3.000,-10.500
0.438,-2.000,-12.000,-3.500,-10.500
0.439,-2.000,-12.500,-4.000,-11.000
0.440,-2.000,-12.500,-4.500,-11.000
0.441,-2.500,-13.000,-5.000,-11.000
0.442,-3.000,-14.000,-5.000,-11.000
0.443,-3.500,-15.000,-5.000,-11.500
0.444,-4.000,-16.000,-4.500,-11.500
0.445,-4.500,-16.500,-4.500,-11.500
0.446,-4.500,-16.500,-4.000,-11.500
0.447,-4.000,-16.500,-4.500,-11.500
0.448,-4.000,-16.000,-4.500,-11.500
0.449,-4.500,-16.000,-5.000,-11.500
0.450,-4.500,-15.500,-5.500,-12.000
0.451,-5.000,-15.500,-5.000,-11.500
0.452,-5.000,-15.000,-5.000,-11.500
0.453,-4.500,-14.500,-4.500,-11.500
0.454,-4.500,-14.500,-4.500,-11.500
0.455,-4.500,-14.500,-4.500,-11.500
0.456,-5.000,-14.500,-5.000,-12.000
0.457,-5.000,-14.500,-5.500,-12.500
0.458,-5.500,-14.500,-5.500,-12.500
0.459,-5.500,-14.500,-5.500,-12.500
0.460,-5.000,-14.500,-5.000,-12.500
0.461,-4.500,-14.500,-4.500,-12.500
0.462,-4.500,-14.500,-4.000,-12.500
0.463,-4.500,-15.000,-4.000,-13.000
0.464,-4.500,-15.000,-4.000,-13.000
0.465,-5.000,-15.000,-4.500,-13.000
0.466,-5.000,-15.000,-5.000,-13.000
0.467,-5.500,-15.500,-5.500,-13.000
0.468,-5.500,-16.000,-6.000,-13.500
0.469,-5.500,-16.500,-6.000,-14.000
0.470,-6.000,-17.000,-6.000,-14.000
0.471,-6.000,-17.000,-6.000,-14.500
0.472,-6.000,-17.000,-5.500,-14.000
0.473,-6.000,-17.000,-5.500,-14.000
0.474,-5.500,-17.000,-5.500,-13.500
0.475,-5.000,-16.500,-5.500,-13.000
0.476,-5.000,-16.500,-5.500,-13.000
0.477,-4.500,-16.500,-5.500,-13.000
0.478,-5.000,-16.500,-6.000,-13.000
0.479,-5.000,-16.500,-6.000,-13.500
0.480,-5.000,-16.500,-6.000,-13.500
0.481,-5.500,-17.000,-6.000,-13.000
0.482,-5.500,-17.000,-5.500,-13.000
0.483,-5.500,-17.500,-6.000,-13.000
0.484,-5.500,-18.000,-6.000,-13.000
0.485,-5.500,-18.500,-6.000,-13.000
0.486,-6.000,-18.500,-6.000,-13.000
0.487,-5.500,-18.000,-6.000,-13.000
0.488,-5.500,-17.500,-5.500,-13.000
0.489,-5.000,-17.000,-5.500,-13.000
0.490,-4.500,-16.500,-5.000,-13.000
0.491,-4.000,-16.000,-5.000,-12.500
0.492,-4.000,-15.500,-5.000,-12.500
0.493,-3.500,-15.500,-5.000,-12.500
0.494,-3.500,-15.500,-5.000,-12.500
0.495,-3.500,-15.500,-4.500,-12.000
0.496,-4.000,-15.500,-4.000,-11.500
0.497,-4.000,-15.500,-4.000,-11.000
0.498,-3.500,-14.500,-3.500,-10.500
0.499,-3.500,-14.000,-3.500,-10.500
0.500,-3.000,-14.000,-3.500,-11.000
0.501,-2.500,-14.000,-3.500,-11.500
0.502,-2.500,-14.000,-4.000,-12.000
0.503,-2.500,-15.000,-4.500,-12.000
0.504,-3.000,-15.500,-4.500,-11.500
0.505,-3.000,-16.000,-4.500,-11.500
0.506,-3.000,-16.500,-4.500,-11.000
0.507,-2.500,-16.500,-4.500,-11.000
0.508,-2.000,-16.500,-4.000,-11.500
0.509,-1.500,-16.000,-4.000,-11.500
0.510,-1.500,-16.000,-4.000,-11.500
0.511,-1.500,-16.000,-4.000,-11.500
0.512,-2.000,-16.500,-4.000,-11.000
0.513,-2.500,-17.000,-4.000,-10.500
0.514,-3.000,-17.000,-4.000,-10.500
0.515,-3.500,-17.500,-4.500,-10.500
0.516,-4.000,-17.500,-5.000,-11.000
0.517,-4.000,-17.500,-5.000,-11.000
0.518,-4.000,-16.500,-5.500,-11.000
0.519,-4.000,-15.500,-5.000,-10.500
0.520,-3.500,-14.000,-4.500,-9.500
0.521,-3.000,-13.000,-3.500,-9.000
0.522,-2.500,-12.500,-3.000,-9.000
0.523,-2.000,-12.000,-2.500,-9.000
0.524,-1.500,-12.500,-2.500,-9.000
0.525,-1.500,-12.500,-2.500,-9.500
0.526,-1.500,-13.000,-3.000,-9.000
0.527,-1.500,-13.000,-3.500,-9.000
0.528,-1.500,-12.500,-3.500,-8.500
0.529,-1.500,-12.500,-4.000,-8.000
0.530,-1.500,-12.500,-4.000,-8.000
0.531,-1.500,-13.000,-4.000,-8.000
0.532,-2.000,-13.500,-4.000,-8.500
0.533,-2.500,-15.000,-4.000,-9.500
0.534,-3.000,-16.000,-4.500,-10.000
0.535,-3.500,-16.500,-4.500,-10.500
0.536,-4.000,-17.000,-5.000,-11.000
0.537,-4.000,-17.000,-5.000,-11.000
0.538,-4.000,-17.000,-5.000,-10.500
0.539,-3.500,-16.500,-5.000,-10.500
0.540,-3.500,-17.000,-5.000,-10.500
0.541,-3.500,-17.000,-5.000,-10.500
0.542,-4.000,-17.500,-5.500,-10.500
0.543,-4.500,-17.000,-5.500,-10.500
0.544,-4.500,-16.500,-5.000,-10.000
0.545,-4.500,-16.000,-4.500,-9.500
0.546,-4.000,-15.500,-4.000,-9.000
0.547,-3.000,-15.000,-3.500,-9.000
0.548,-2.500,-15.000,-3.500,-9.000
0.549,-2.500,-16.000,-3.500,-9.000
0.550,-3.000,-16.500,-3.500,-9.500
0.551,-4.000,-17.500,-4.000,-10.000
0.552,-4.500,-18.000,-4.000,-10.500
0.553,-5.500,-18.500,-4.500,-11.000
0.554,-5.500,-18.500,-4.500,-11.000
0.555,-5.500,-18.500,-5.000,-11.500
0.556,-5.000,-18.500,-5.000,-11.500
0.557,-4.500,-18.500,-5.500,-11.000
0.558,-4.500,-18.500,-5.500,-11.000
0.559,-4.000,-18.500,-5.500,-11.000
0.560,-4.000,-19.000,-6.000,-11.000
0.561,-4.500,-19.000,-6.000,-11.000
0.562,-5.000,-19.000,-6.000,-11.500
0.563,-5.000,-18.500,-6.000,-11.500
0.564,-5.000,-18.500,-6.000,-11.500
0.565,-5.000,-18.000,-5.500,-11.500
0.566,-4.500,-18.000,-5.000,-12.000
0.567,-4.500,-18.500,-5.000,-12.500
0.568,-4.500,-19.000,-5.000,-13.000
0.569,-4.500,-19.500,-5.500,-13.500
0.570,-5.000,-20.500,-5.500,-13.500
0.571,-5.000,-21.000,-6.000,-13.000
0.572,-5.000,-20.500,-5.500,-12.500
0.573,-5.000,-20.000,-4.500,-12.000
0.574,-4.500,-19.000,-3.500,-11.000
0.575,-4.000,-18.000,-3.000,-10.500
0.576,-4.000,-17.500,-2.500,-10.500
0.577,-3.500,-17.500,-2.500,-10.500
0.578,-3.500,-17.500,-2.500,-10.500
0.579,-3.500,-18.000,-3.000,-10.500
0.580,-3.500,-18.000,-3.000,-10.500
0.581,-3.500,-18.000,-3.500,-10.500
0.582,-4.000,-18.000,-3.500,-11.000
0.583,-4.000,-18.500,-4.000,-11.500
0.584,-4.500,-19.000,-4.500,-12.000
0.585,-4.500,-20.000,-5.000,-12.500
0.586,-4.500,-20.500,-5.500,-13.000
0.587,-4.500,-20.500,-6.000,-13.000
0.588,-4.500,-20.000,-6.000,-13.000
0.589,-4.500,-19.000,-6.500,-13.000
0.590,-4.500,-18.000,-6.500,-13.000
0.591,-4.500,-17.000,-6.500,-13.000
0.592,-5.000,-16.000,-6.500,-12.500
0.593,-5.500,-15.500,-6.500,-12.500
0.594,-5.500,-15.500,-6.000,-12.500
0.595,-5.500,-16.000,-6.000,-12.500
0.596,-5.500,-16.500,-5.500,-12.500
0.597,-6.000,-17.000,-5.000,-13.000
0.598,-6.000,-17.500,-5.000,-12.500
0.599,-6.000,-17.500,-4.500,-12.500
0.600,-6.000,-17.000,-4.500,-12.500
0.601,-5.500,-16.500,-4.000,-12.000
0.602,-5.000,-16.500,-4.000,-12.000
0.603,-5.000,-17.000,-4.000,-12.000
0.604,-4.500,-17.000,-4.000,-11.500
0.605,-4.500,-17.500,-4.000,-11.500
0.606,-4.500,-17.500,-4.500,-11.000
0.607,-4.500,-17.500,-5.000,-10.500
0.608,-4.000,-17.500,-5.000,-10.500
0.609,-4.000,-17.500,-5.500,-10.500
0.610,-3.500,-18.000,-5.500,-10.500
0.611,-3.500,-18.500,-5.000,-11.000
0.612,-3.500,-19.000,-5.000,-11.000
0.613,-4.000,-19.500,-4.500,-11.500
0.614,-4.000,-19.500,-4.500,-11.000
0.615,-4.000,-19.000,-4.000,-11.000
0.616,-4.000,-19.000,-3.500,-10.500
0.617,-3.500,-18.500,-3.500,-10.500
0.618,-3.500,-18.000,-3.000,-10.500
0.619,-3.500,-18.500,-3.500,-10.500
0.620,-3.000,-18.500,-3.500,-11.000
0.621,-3.000,-18.500,-4.000,-11.500
0.622,-2.500,-19.000,-4.500,-11.500
0.623,-2.500,-19.500,-5.000,-12.000
0.624,-2.500,-20.000,-5.500,-12.000
0.625,-2.500,-20.500,-6.000,-12.000
0.626,-3.000,-21.000,-6.500,-12.500
0.627,-3.500,-21.500,-7.000,-12.500
0.628,-3.500,-21.500,-7.000,-13.000
0.629,-3.500,-21.500,-7.000,-13.000
0.630,-4.000,-21.000,-6.500,-13.000
0.631,-3.500,-20.500,-6.000,-13.000
0.632,-3.500,-20.000,-5.500,-13.000
0.633,-3.500,-20.000,-5.500,-13.000
0.634,-3.500,-19.500,-5.500,-13.000
0.635,-3.500,-19.500,-5.500,-13.000
0.636,-3.500,-20.000,-5.500,-13.000
0.637,-3.500,-20.000,-5.000,-13.000
0.638,-3.500,-21.000,-5.000,-12.500
0.639,-3.500,-21.500,-4.500,-12.500
0.640,-3.500,-22.500,-4.500,-12.500
0.641,-3.500,-23.000,-4.000,-12.500
0.642,-4.000,-23.000,-4.000,-12.500
0.643,-4.000,-23.000,-4.500,-12.500
0.644,-4.000,-23.000,-4.500,-12.500
0.645,-4.000,-23.000,-4.000,-12.500
0.646,-3.500,-23.000,-4.000,-12.500
0.647,-3.500,-23.000,-3.500,-12.500
0.648,-4.000,-23.500,-3.500,-12.500
0.649,-4.000,-23.500,-4.000,-13.000
0.650,-4.500,-23.500,-4.500,-13.000
0.651,-5.000,-23.000,-5.000,-12.500
0.652,-5.000,-22.500,-5.500,-12.500
0.653,-5.500,-22.000,-6.000,-12.500
0.654,-5.500,-22.000,-6.000,-12.500
0.655,-5.500,-21.500,-5.500,-13.000
0.656,-5.500,-21.500,-5.500,-13.500
0.657,-5.500,-22.000,-5.000,-14.000
0.658,-5.500,-22.000,-5.000,-14.000
0.659,-5.500,-22.000,-5.000,-14.000
0.660,-5.000,-22.500,-5.000,-13.500
0.661,-4.500,-22.000,-4.500,-13.000
0.662,-4.000,-21.500,-4.000,-12.500
0.663,-3.500,-21.000,-3.500,-11.500
0.664,-3.000,-20.500,-3.000,-10.500
0.665,-2.500,-20.000,-3.000,-9.500
0.666,-2.500,-20.000,-3.500,-8.500
0.667,-2.000,-19.500,-3.500,-8.000
0.668,-1.500,-19.000,-3.000,-7.000
0.669,-1.000,-17.500,-2.500,-5.500
0.670,0.500,-15.500,-0.500,-3.500
0.671,2.500,-13.000,1.000,-0.500
0.672,4.500,-11.000,3.000,2.000
0.673,5.500,-10.000,4.000,4.000
0.674,6.000,-10.000,4.500,5.000
0.675,6.000,-11.000,4.000,4.500
0.676,5.000,-12.500,3.000,3.000
0.677,3.500,-14.000,2.000,1.500
0.678,2.500,-15.500,1.000,-0.500
0.679,1.500,-16.000,-0.500,-2.000
0.680,0.500,-16.500,-1.500,-3.500
0.681,0.000,-17.000,-2.500,-5.500
0.682,-1.000,-18.500,-3.500,-8.000
0.683,-2.000,-20.500,-4.500,-11.000
0.684,-3.000,-23.000,-5.500,-14.000
0.685,-4.500,-25.500,-7.000,-17.000
0.686,-5.500,-27.000,-7.500,-18.500
0.687,-6.500,-27.500,-8.000,-19.000
0.688,-7.000,-27.000,-8.500,-19.000
0.689,-7.000,-26.000,-8.000,-18.000
0.690,-6.500,-25.000,-7.000,-17.000
0.691,-6.000,-24.500,-6.500,-15.500
0.692,-5.500,-24.000,-6.000,-14.500
0.693,-4.500,-23.500,-5.500,-13.500
0.694,-4.500,-22.500,-5.000,-13.000
0.695,-4.000,-22.000,-4.500,-12.000
0.696,-3.500,-21.000,-4.000,-11.500
0.697,-3.000,-20.500,-3.500,-10.500
0.698,-2.500,-20.000,-3.000,-10.000
0.699,-2.500,-19.500,-3.000,-9.500
0.700,-2.000,-19.000,-3.000,-9.500
0.701,-2.000,-18.500,-3.000,-9.000
0.702,-1.500,-17.500,-3.000,-9.000
0.703,-1.000,-16.500,-3.000,-8.500
0.704,-1.000,-15.500,-3.000,-8.500
0.705,-0.500,-15.000,-3.000,-8.000
0.706,-0.500,-15.500,-3.000,-8.000
0.707,-1.000,-16.000,-3.000,-8.000
0.708,-1.000,-16.500,-3.500,-8.500
0.709,-1.000,-17.500,-3.500,-9.000
0.710,-1.000,-18.000,-3.500,-9.000
0.711,-1.500,-19.000,-4.000,-9.500
0.712,-2.000,-20.000,-4.500,-9.500
0.713,-2.500,-21.000,-4.500,-9.500
0.714,-3.000,-21.500,-4.500,-9.500
0.715,-3.000,-22.000,-4.500,-9.500
0.716,-3.000,-22.000,-4.000,-10.000
0.717,-3.000,-22.000,-3.500,-10.000
0.718,-2.500,-22.000,-3.000,-10.000
0.719,-2.500,-21.500,-3.000,-10.000
0.720,-2.500,-21.500,-3.000,-9.500
0.721,-2.500,-21.500,-3.000,-9.500
0.722,-2.500,-21.500,-3.000,-9.500
0.723,-2.500,-21.500,-3.500,-10.000
0.724,-2.500,-21.500,-3.500,-10.500
0.725,-2.500,-21.500,-3.500,-11.000
0.726,-2.500,-21.500,-3.500,-11.000
0.727,-2.500,-21.500,-4.000,-11.000
0.728,-2.500,-21.500,-4.000,-10.500
0.729,-3.000,-21.500,-4.000,-10.500
0.730,-3.000,-21.500,-4.500,-10.500
0.731,-3.000,-22.000,-4.500,-10.500
0.732,-3.000,-22.000,-5.000,-11.000
0.733,-3.000,-22.500,-5.500,-11.000
0.734,-3.000,-22.500,-5.500,-11.000
0.735,-3.000,-23.000,-5.000,-10.500
0.736,-3.000,-22.500,-5.000,-10.500
0.737,-3.500,-22.000,-4.500,-10.500
0.738,-3.500,-21.500,-4.500,-10.500
0.739,-4.000,-21.000,-4.500,-10.500
0.740,-4.000,-20.000,-4.500,-10.500
0.741,-4.000,-19.500,-4.500,-10.500
0.742,-3.500,-19.000,-4.500,-10.000
0.743,-3.500,-18.500,-4.000,-10.000
0.744,-3.000,-18.500,-3.500,-10.000
0.745,-2.500,-18.000,-3.000,-9.500
0.746,-2.000,-18.000,-3.000,-9.500
0.747,-2.500,-18.500,-3.000,-9.000
0.748,-2.500,-18.500,-3.500,-9.000
0.749,-3.000,-19.000,-3.500,-9.000
0.750,-3.000,-19.500,-3.500,-9.000
0.751,-3.000,-20.000,-3.500,-9.000
0.752,-3.000,-20.500,-3.000,-9.500
0.753,-3.000,-21.000,-3.000,-9.000
0.754,-3.000,-21.500,-3.000,-9.000
0.755,-3.000,-21.500,-3.000,-9.000
0.756,-3.000,-21.500,-3.000,-8.500
0.757,-3.500,-21.500,-3.000,-8.500
0.758,-3.500,-21.500,-3.000,-8.500
0.759,-3.500,-21.000,-2.500,-8.500
0.760,-3.500,-20.500,-3.000,-8.500
0.761,-3.000,-20.500,-3.000,-8.500
0.762,-3.000,-20.000,-3.000,-8.500
0.763,-3.000,-19.500,-3.000,-8.000
0.764,-2.500,-19.000,-2.500,-7.000
0.765,-2.000,-19.000,-1.500,-6.500
0.766,-2.000,-19.000,-1.000,-5.500
0.767,-2.000,-19.000,-0.500,-5.500
0.768,-2.000,-19.500,-1.000,-5.500
0.769,-2.000,-19.500,-1.500,-5.500
0.770,-2.500,-19.500,-2.000,-6.000
0.771,-2.500,-19.500,-3.000,-6.000
0.772,-2.500,-19.000,-3.500,-6.000
0.773,-2.500,-18.500,-3.500,-6.000
0.774,-2.500,-18.500,-3.500,-6.000
0.775,-2.000,-18.500,-3.500,-6.000
0.776,-2.000,-19.000,-3.000,-6.000
0.777,-2.000,-19.000,-3.000,-5.500
0.778,-2.000,-19.000,-2.500,-5.500
0.779,-2.000,-19.000,-2.500,-5.500
0.780,-2.000,-18.500,-2.000,-5.000
0.781,-2.000,-17.500,-2.000,-4.500
0.782,-1.500,-16.500,-2.000,-4.000
0.783,-1.500,-15.500,-2.000,-4.000
0.784,-1.000,-14.500,-2.000,-3.500
0.785,-1.000,-13.500,-2.000,-3.500
0.786,-1.000,-12.500,-2.000,-3.500
0.787,-1.000,-11.500,-2.000,-3.000
0.788,-0.500,-10.500,-1.500,-2.500
0.789,0.500,-9.500,-1.000,-2.000
0.790,1.000,-9.000,-0.500,-1.500
0.791,2.000,-8.500,-0.500,-1.500
0.792,2.500,-8.500,-1.000,-1.500
0.793,2.500,-8.500,-1.000,-2.000
0.794,2.500,-8.500,-2.000,-2.500
0.795,2.000,-8.000,-2.500,-3.000
0.796,2.000,-8.000,-2.500,-3.500
0.797,1.500,-8.000,-3.000,-3.500
0.798,1.000,-8.500,-3.000,-3.500
0.799,0.500,-8.500,-3.500,-4.000
0.800,-0.500,-8.500,-4.000,-4.000
0.801,-1.000,-9.000,-4.500,-4.000
0.802,-1.500,-9.000,-4.500,-4.000
0.803,-1.500,-8.500,-4.500,-4.000
0.804,-1.000,-8.000,-3.500,-3.500
0.805,-0.500,-7.000,-2.500,-3.000
0.806,0.000,-6.500,-2.000,-2.500
0.807,0.500,-6.000,-1.000,-2.000
0.808,0.500,-6.000,-1.000,-2.000
0.809,0.000,-6.500,-1.500,-1.500
0.810,0.000,-7.000,-1.500,-2.000
0.811,-0.500,-7.500,-2.000,-2.000
0.812,-0.500,-7.500,-2.000,-2.000
0.813,-1.000,-7.000,-2.000,-2.000
0.814,-0.500,-6.500,-1.500,-2.000
0.815,-0.500,-6.000,-1.500,-2.000
0.816,0.000,-5.500,-1.500,-2.000
0.817,0.000,-5.500,-1.500,-2.000
0.818,0.000,-5.000,-1.000,-1.500
0.819,0.500,-4.500,-1.000,-1.000
0.820,0.500,-4.500,-0.500,-0.500
0.821,0.500,-3.500,0.500,0.000
0.822,1.000,-3.000,0.500,0.500
0.823,1.500,-2.500,0.500,0.500
0.824,2.000,-2.500,0.500,0.500
0.825,2.500,-2.500,0.500,0.500
0.826,2.500,-2.500,0.500,0.500
0.827,2.500,-2.500,1.000,1.000
0.828,2.000,-2.500,1.000,1.000
0.829,2.500,-2.500,1.500,1.500
0.830,2.500,-2.500,1.000,1.500
0.831,2.500,-2.500,0.500,1.000
0.832,3.000,-2.500,0.000,1.000
0.833,2.500,-2.500,-0.500,1.000
0.834,2.500,-2.000,-0.500,1.000
0.835,2.500,-1.500,-0.500,1.000
0.836,2.500,-1.000,0.500,1.000
0.837,3.000,-0.500,1.000,1.000
0.838,3.000,0.000,1.500,1.000
0.839,3.500,0.000,1.500,1.000
0.840,3.500,0.000,1.500,1.000
0.841,3.000,0.000,1.500,1.000
0.842,3.000,0.000,1.000,1.500
0.843,3.000,0.500,1.000,1.500
0.844,3.000,0.500,1.000,1.500
0.845,3.000,0.500,1.000,1.500
0.846,3.000,0.000,1.000,2.000
0.847,3.500,-1.000,1.000,2.000
0.848,3.500,-1.500,1.500,2.000
0.849,3.500,-1.500,1.500,2.000
0.850,3.500,-1.500,1.000,1.500
0.851,3.000,-1.500,1.000,1.500
0.852,3.000,-1.500,1.000,1.500
0.853,2.500,-2.000,0.500,1.500
0.854,2.500,-2.500,0.500,1.500
0.855,2.500,-3.000,0.000,2.000
0.856,3.000,-3.500,0.000,2.500
0.857,3.000,-3.500,0.000,3.000
0.858,3.000,-3.000,0.500,3.000
0.859,3.000,-2.500,1.000,3.000
0.860,3.000,-2.000,1.500,3.500
0.861,3.500,-1.500,1.500,3.000
0.862,3.500,-1.000,1.500,3.000
0.863,4.000,-1.000,1.500,3.000
0.864,4.500,-0.500,1.000,3.500
0.865,5.000,0.000,1.500,4.000
0.866,5.000,0.500,2.000,4.500
0.867,5.500,0.500,2.500,4.500
0.868,5.500,0.500,3.000,4.500
0.869,5.500,0.000,3.000,4.500
0.870,5.000,-1.000,2.500,4.500
0.871,4.000,-1.500,2.000,4.500
0.872,4.000,-1.500,2.000,4.500
0.873,3.500,-1.000,2.000,5.000
0.874,4.000,-0.500,2.500,5.500
0.875,4.500,0.500,3.000,6.000
0.876,5.500,1.500,3.000,6.000
0.877,6.000,1.500,3.000,6.500
0.878,6.000,1.500,2.500,6.500
0.879,6.000,1.500,3.000,7.000
0.880,6.500,1.500,3.500,7.500
0.881,6.500,2.000,4.500,8.000
0.882,7.000,2.000,5.000,8.500
0.883,7.500,2.500,5.500,8.500
0.884,8.000,3.000,6.000,9.000
0.885,8.500,3.000,6.000,9.000
0.886,9.000,4.000,6.500,9.500
0.887,10.000,5.500,7.000,10.000
0.888,11.000,7.000,8.000,11.000
0.889,12.500,9.000,9.500,12.000
0.890,14.000,10.500,10.500,13.000
0.891,15.000,11.500,11.000,14.000
0.892,15.500,11.500,11.000,15.000
0.893,15.000,11.000,11.000,15.500
0.894,15.000,10.500,11.500,16.500
0.895,14.500,10.500,12.000,17.500
0.896,13.500,10.000,12.500,18.500
0.897,13.000,10.500,13.000,19.500
0.898,12.000,10.500,13.500,21.000
0.899,11.000,10.500,14.000,22.500
0.900,9.500,10.500,14.000,23.500
0.901,7.500,10.500,14.000,24.500
0.902,5.500,10.000,14.500,25.500
0.903,3.000,10.000,14.500,26.000
0.904,1.000,9.500,14.500,27.000
0.905,-1.500,8.500,14.500,27.500
0.906,-4.000,8.000,14.000,28.000
0.907,-6.000,7.000,13.000,28.000
0.908,-9.000,6.000,12.000,28.500
0.909,-11.500,5.000,10.500,28.500
0.910,-14.500,4.500,9.000,28.000
0.911,-17.500,3.500,7.500,27.500
0.912,-20.000,2.500,5.500,27.000
0.913,-22.500,1.000,4.000,26.000
0.914,-24.500,-0.500,2.000,24.500
0.915,-26.000,-2.500,1.000,23.000
0.916,-27.000,-4.000,0.000,22.000
0.917,-28.000,-5.000,-0.500,21.500
0.918,-28.500,-5.500,0.000,21.500
0.919,-28.500,-5.500,0.500,22.000
0.920,-27.500,-5.000,1.500,22.500
0.921,-26.500,-4.000,2.000,22.000
0.922,-25.000,-3.500,2.500,21.500
0.923,-23.500,-3.500,2.500,20.500
0.924,-22.000,-3.000,2.000,19.000
0.925,-20.000,-3.500,1.000,17.500
0.926,-18.000,-3.500,0.500,16.000
0.927,-15.500,-3.500,-0.500,14.500
0.928,-12.500,-3.000,-1.500,12.500
0.929,-9.000,-3.000,-2.500,10.500
0.930,-6.000,-2.000,-3.500,8.500
0.931,-3.500,-1.500,-4.500,6.000
0.932,-1.500,-0.500,-5.000,4.500
0.933,-0.500,0.000,-5.500,3.000
0.934,0.000,0.500,-5.500,2.500
0.935,0.500,1.000,-5.500,2.500
0.936,1.000,1.000,-5.000,2.500
0.937,1.000,0.500,-5.000,2.000
0.938,1.500,0.500,-4.500,1.500
0.939,2.000,0.500,-4.500,1.000
0.940,3.000,0.500,-4.000,1.000
0.941,3.500,0.500,-3.500,1.500
0.942,4.000,0.500,-3.000,2.000
0.943,4.500,1.000,-2.500,2.500
0.944,4.500,1.500,-2.500,3.000
0.945,5.000,2.000,-2.000,3.000
0.946,5.000,2.500,-2.000,3.000
0.947,5.500,2.500,-2.000,3.500
0.948,5.500,3.000,-1.500,3.500
0.949,6.000,3.000,-1.500,4.500
0.950,6.000,3.000,-1.000,5.500
0.951,6.000,3.500,-0.500,6.500
0.952,6.000,4.000,0.000,7.000
0.953,6.500,4.500,1.000,7.500
0.954,7.000,5.500,1.500,8.000
0.955,7.500,6.000,2.000,8.500
0.956,7.500,7.000,2.500,9.500
0.957,7.500,7.500,3.000,10.500
0.958,7.000,8.000,3.500,12.000
0.959,7.000,8.500,4.000,13.500
0.960,7.500,9.000,5.000,14.500
0.961,7.500,9.500,6.000,15.500
0.962,8.000,9.000,6.500,16.000
0.963,8.000,8.500,7.000,16.500
0.964,8.500,8.500,7.000,16.500
0.965,9.000,8.500,7.000,17.500
0.966,10.000,9.500,7.500,18.000
0.967,11.000,10.000,7.500,18.500
0.968,12.000,11.000,8.000,19.000
0.969,13.000,12.000,8.500,19.000
0.970,13.500,12.000,9.000,19.000
0.971,13.500,12.000,9.000,19.000
0.972,13.000,11.500,9.000,19.000
0.973,12.500,11.000,8.500,18.500
0.974,12.000,10.500,8.500,18.500
0.975,11.000,10.000,8.000,18.000
0.976,10.500,9.500,8.000,18.000
0.977,9.500,9.500,8.000,18.000
0.978,9.500,9.500,8.500,18.500
0.979,9.000,9.500,8.500,18.500
0.980,9.500,10.000,9.000,19.000
0.981,9.500,11.000,9.000,19.500
0.982,10.000,12.000,9.500,20.000
0.983,11.000,13.000,10.000,21.000
0.984,11.000,13.500,10.000,21.500
0.985,11.500,14.000,10.500,21.500
0.986,11.000,14.000,10.500,21.000
0.987,10.500,13.000,10.000,20.500
0.988,10.000,12.000,9.000,19.500
0.989,9.000,11.000,8.500,19.000
0.990,8.500,10.500,8.000,19.000
0.991,8.500,10.000,7.500,19.000
0.992,8.500,9.500,8.000,19.500
0.993,9.000,9.000,8.000,19.500
0.994,9.500,8.000,8.500,19.500
0.995,9.500,7.500,8.500,19.500
0.996,10.000,6.500,9.000,19.500
0.997,10.000,6.000,9.000,19.500
0.998,9.500,6.000,8.500,19.500
0.999,9.500,6.000,8.500,19.500
1.000,9.500,6.500,8.500,20.000
1.001,9.500,6.500,8.500,20.000
1.002,9.500,6.500,8.500,20.500
1.003,9.500,6.500,8.500,21.000
1.004,9.500,7.000,8.500,21.000
1.005,10.000,7.500,8.500,21.000
1.006,10.000,8.000,8.000,21.000
1.007,10.000,8.500,7.500,20.500
1.008,9.500,8.500,6.500,20.500
1.009,9.000,8.500,6.000,20.500
1.010,8.500,8.500,5.500,20.500
1.011,8.000,8.500,5.500,20.500
1.012,7.500,9.000,6.000,20.500
1.013,7.000,9.000,6.500,20.500
1.014,7.000,9.500,6.500,20.500
1.015,7.500,10.000,6.500,20.500
1.016,8.500,10.500,7.000,20.500
1.017,9.000,10.500,7.000,20.500
1.018,9.000,11.000,7.000,20.500
1.019,9.500,11.000,7.500,21.000
1.020,9.000,10.500,7.500,21.000
1.021,8.500,10.500,7.500,21.000
1.022,8.500,10.000,7.000,21.000
1.023,8.000,10.000,7.000,21.000
1.024,8.000,10.000,6.500,21.000
1.025,8.500,10.500,6.500,21.500
1.026,8.500,11.000,7.000,22.000
1.027,9.000,11.000,7.500,22.500
1.028,9.000,11.000,8.000,22.500
1.029,9.000,10.500,8.000,22.500
1.030,8.500,10.500,8.000,22.000
1.031,8.000,10.500,7.500,22.000
1.032,7.500,11.000,7.000,22.500
1.033,7.500,12.000,7.000,22.500
1.034,8.000,12.500,7.000,23.000
1.035,8.500,12.500,7.000,23.500
1.036,9.500,12.500,7.500,24.000
1.037,10.000,12.000,8.000,24.000
1.038,10.000,12.000,8.000,24.000
1.039,9.500,12.000,8.000,24.000
1.040,9.500,12.500,8.000,24.000
1.041,9.500,13.000,8.000,24.000
1.042,10.000,13.000,8.500,24.000
1.043,10.000,13.000,9.000,24.500
1.044,10.000,12.500,9.000,24.500
1.045,9.500,12.000,9.000,24.500
1.046,9.000,11.500,9.000,24.500
1.047,8.000,11.500,8.500,24.500
1.048,7.500,12.000,8.500,25.000
1.049,8.000,12.500,9.000,25.000
1.050,8.500,13.000,9.500,25.500
1.051,9.500,13.500,10.000,26.000
1.052,10.000,13.500,10.000,26.000
1.053,10.000,13.500,10.000,26.000
1.054,10.000,13.000,9.500,26.000
1.055,9.500,12.500,9.000,26.000
1.056,9.500,13.000,8.500,26.000
1.057,9.500,13.500,8.500,26.000
1.058,9.500,14.500,8.500,26.000
1.059,9.500,15.000,8.500,25.500
1.060,9.000,15.000,8.000,25.000
1.061,8.000,14.500,8.000,24.500
1.062,7.000,14.000,7.500,24.000
1.063,6.500,13.500,7.500,24.000
1.064,6.500,13.000,8.000,24.000
1.065,6.500,13.500,8.500,24.500
1.066,6.500,13.500,8.500,24.500
1.067,6.500,13.500,8.500,24.500
1.068,6.000,13.500,8.500,24.500
1.069,5.500,13.000,8.000,24.500
1.070,5.500,13.000,8.000,24.500
1.071,5.500,12.500,8.000,25.000
1.072,6.500,13.000,8.500,25.000
1.073,7.500,13.500,9.000,25.500
1.074,8.000,14.000,9.500,25.500
1.075,8.500,14.000,9.500,25.500
1.076,8.000,13.500,10.000,25.500
1.077,7.500,13.000,10.000,25.500
1.078,7.000,13.000,10.000,26.000
1.079,7.000,13.500,10.500,26.500
1.080,7.000,14.000,11.000,27.000
1.081,8.000,14.000,11.500,27.000
1.082,8.500,14.000,12.000,27.000
1.083,8.500,13.500,12.000,27.000
1.084,8.000,13.000,11.500,26.500
1.085,7.000,12.500,11.000,26.500
1.086,6.000,12.500,10.500,26.000
1.087,5.000,12.500,10.000,25.500
1.088,4.500,13.000,10.000,25.000
1.089,4.500,13.500,10.000,25.000
1.090,4.500,13.500,10.000,25.000
1.091,5.000,13.500,10.000,25.000
1.092,5.000,14.000,10.500,25.500
1.093,5.000,14.000,10.500,25.500
1.094,5.000,14.500,10.000,26.000
1.095,5.000,15.000,10.000,26.000
1.096,4.500,15.500,9.500,25.500
1.097,4.500,15.500,9.000,24.500
1.098,4.000,15.000,8.500,24.000
1.099,4.000,14.500,8.500,24.000
1.100,3.500,13.500,9.000,24.000
1.101,3.500,13.500,9.500,25.000
1.102,3.500,13.000,10.500,26.000
1.103,3.500,13.500,12.000,27.000
1.104,3.500,14.500,13.000,28.500
1.105,4.000,15.000,13.500,29.000
1.106,4.500,15.000,14.000,29.500
1.107,5.000,15.000,14.000,30.500
1.108,5.000,15.000,14.000,31.500
1.109,5.500,15.000,15.000,33.500
1.110,6.500,16.000,16.500,36.000
1.111,7.500,17.500,18.500,39.000
1.112,9.000,19.500,20.000,41.500
1.113,10.000,21.500,21.000,43.000
1.114,10.500,22.000,20.500,43.500
1.115,10.500,21.500,19.500,43.000
1.116,9.500,20.500,18.000,42.000
1.117,8.000,18.500,16.500,40.500
1.118,6.500,17.000,15.500,39.000
1.119,5.500,15.500,14.500,37.000
1.120,5.000,14.000,13.500,35.000
1.121,4.000,13.000,11.500,32.500
1.122,2.500,11.000,9.500,29.500
1.123,0.500,9.000,7.500,25.500
1.124,-1.500,6.500,5.500,21.500
1.125,-3.500,4.500,3.500,18.000
1.126,-5.500,2.500,2.500,15.500
1.127,-6.500,1.500,2.000,14.500
1.128,-7.000,1.500,2.500,14.500
1.129,-7.000,2.000,3.500,15.000
1.130,-7.000,3.000,4.500,16.500
1.131,-6.500,4.000,5.000,17.500
1.132,-6.500,5.000,6.000,18.500
1.133,-6.000,5.500,6.500,20.000
1.134,-5.500,6.000,6.500,21.000
1.135,-5.000,6.000,7.000,22.000
1.136,-4.000,6.000,7.500,23.500
1.137,-3.000,7.000,7.500,24.500
1.138,-2.000,8.000,8.000,25.500
1.139,-1.500,9.500,8.500,25.500
1.140,-1.000,10.000,9.000,26.000
1.141,-1.000,10.500,9.500,26.000
1.142,-1.000,10.000,10.000,26.000
1.143,-1.500,9.500,10.000,26.500
1.144,-1.000,9.000,10.000,26.500
1.145,-1.000,8.500,10.000,27.000
1.146,-1.000,8.500,9.500,27.000
1.147,-0.500,8.500,9.000,26.500
1.148,-1.000,8.500,8.500,26.000
1.149,-1.500,8.000,8.500,25.500
1.150,-2.000,7.500,8.500,25.000
1.151,-2.500,6.500,8.500,24.500
1.152,-3.000,5.500,8.000,24.000
1.153,-3.000,5.000,7.500,24.000
1.154,-3.500,4.500,7.000,24.000
1.155,-3.500,4.500,7.000,24.000
1.156,-3.500,4.000,7.000,23.500
1.157,-4.000,3.500,7.000,23.000
1.158,-4.000,3.000,7.500,22.500
1.159,-4.500,2.500,7.500,22.500
1.160,-4.500,2.000,7.500,22.500
1.161,-4.500,2.000,7.500,22.500
1.162,-4.000,2.000,7.500,23.000
1.163,-3.500,2.500,7.000,23.000
1.164,-3.000,3.000,7.000,23.000
1.165,-2.500,3.500,7.000,23.000
1.166,-2.000,4.000,7.500,23.500
1.167,-2.000,4.000,7.500,23.500
1.168,-1.500,4.500,8.000,24.000
1.169,-1.000,5.000,8.000,23.500
1.170,-1.000,5.500,8.500,23.000
1.171,-0.500,5.500,8.500,22.500
1.172,-0.500,5.500,8.500,22.000
1.173,0.000,5.500,8.500,21.500
1.174,0.000,5.000,9.000,21.500
1.175,0.500,5.000,9.000,21.500
1.176,0.500,5.500,8.500,21.500
1.177,1.000,6.000,8.500,21.000
1.178,1.500,6.000,8.000,20.500
1.179,1.500,6.500,8.000,20.500
1.180,2.000,6.500,8.000,20.000
1.181,2.000,6.500,8.000,20.000
1.182,2.500,7.000,8.500,20.000
1.183,2.500,7.500,9.000,20.000
1.184,3.000,8.000,9.000,19.500
1.185,3.500,8.500,9.000,19.500
1.186,4.000,9.000,9.000,19.500
1.187,4.500,9.000,9.000,19.500
1.188,4.500,9.500,9.000,19.500
1.189,4.500,10.000,9.000,19.500
1.190,4.500,10.000,9.000,19.000
1.191,4.500,10.000,8.500,19.000
1.192,4.500,10.000,8.000,19.000
1.193,4.500,10.000,7.500,19.000
1.194,4.500,10.000,7.500,18.500
1.195,4.500,10.000,7.500,18.500
1.196,4.500,10.500,7.500,18.500
1.197,4.500,11.000,7.500,18.000
1.198,5.000,12.000,7.500,17.500
1.199,5.500,12.500,7.500,17.500
1.200,5.500,13.000,7.000,17.500
1.201,6.000,13.000,6.500,17.000
1.202,6.000,13.000,6.000,17.000
1.203,6.500,13.000,6.000,17.000
1.204,6.500,13.000,6.500,17.000
1.205,7.000,12.500,7.000,17.000
1.206,7.000,12.500,7.500,16.500
1.207,7.000,11.500,8.000,16.500
1.208,7.000,11.000,8.000,16.000
1.209,7.000,9.500,8.000,15.500
1.210,6.500,9.000,7.500,15.500
1.211,7.000,8.500,7.000,15.000
1.212,7.000,8.500,7.000,15.000
1.213,7.000,9.000,6.500,15.000
1.214,7.000,9.500,6.000,14.500
1.215,7.000,9.500,5.500,14.500
1.216,6.000,9.000,5.500,14.000
1.217,5.500,8.000,5.500,13.500
1.218,5.000,7.500,5.500,13.500
1.219,5.000,7.500,5.500,13.000
1.220,5.000,8.000,5.500,13.500
1.221,5.500,8.500,6.000,13.500
1.222,5.500,9.000,6.000,14.000
1.223,6.000,9.000,6.500,14.000
1.224,6.000,8.500,6.500,14.000
1.225,6.000,8.000,6.500,13.500
1.226,6.000,7.500,6.500,13.500
1.227,6.000,7.500,6.000,13.500
1.228,6.500,8.000,6.000,14.000
1.229,7.000,9.000,6.500,14.500
1.230,8.000,10.000,6.500,15.000
1.231,8.500,10.500,6.500,15.000
1.232,8.500,11.000,6.000,15.500
1.233,8.500,11.500,5.500,15.000
1.234,8.500,12.000,5.000,15.000
1.235,8.500,12.500,5.000,14.500
1.236,8.500,12.500,5.000,14.500
1.237,8.500,12.500,5.000,14.500
1.238,8.500,12.000,5.000,14.000
1.239,8.500,12.000,5.000,13.500
1.240,8.000,11.500,5.000,13.000
1.241,7.500,11.500,4.500,13.000
1.242,6.500,11.500,3.500,12.500
1.243,5.500,11.000,3.500,12.000
1.244,5.000,10.500,3.500,11.500
1.245,5.000,10.000,3.500,11.500
1.246,5.000,10.000,4.000,11.000
1.247,5.000,9.500,4.000,11.000
1.248,4.500,9.000,4.000,11.000
1.249,4.000,8.500,4.000,10.500
1.250,3.500,8.000,4.000,10.000
1.251,3.000,7.000,4.000,9.500
1.252,3.000,6.000,3.500,9.500
1.253,3.000,5.000,3.500,9.000
1.254,3.000,4.500,3.000,9.000
1.255,3.500,4.500,3.000,9.500
1.256,4.000,4.500,3.000,9.500
1.257,4.000,5.000,3.000,10.000
1.258,4.500,5.000,3.000,10.000
1.259,4.000,5.000,3.000,9.500
1.260,3.500,5.000,3.500,9.500
1.261,3.000,5.000,3.000,9.000
1.262,2.500,5.000,3.000,9.000
1.263,2.500,5.000,2.500,9.000
1.264,2.500,5.000,2.000,9.000
1.265,3.000,5.000,2.000,9.500
1.266,3.500,5.000,2.000,9.500
1.267,3.500,5.000,2.000,10.000
1.268,3.500,5.000,2.500,10.000
1.269,3.000,5.000,3.000,10.000
1.270,2.500,4.500,3.000,10.000
1.271,2.000,4.500,3.000,10.000
1.272,2.000,4.000,2.500,9.500
1.273,2.500,3.500,2.000,9.000
1.274,3.000,3.500,2.000,9.000
1.275,3.500,3.500,2.500,9.000
1.276,4.000,3.000,3.000,9.000
1.277,4.000,3.000,3.500,9.500
1.278,4.000,3.500,4.000,9.500
1.279,3.500,3.500,4.500,9.500
1.280,3.500,4.000,5.000,10.000
1.281,3.500,4.500,5.000,10.000
1.282,3.500,5.000,5.000,10.000
1.283,4.000,5.500,5.000,10.000
1.284,4.500,5.500,4.500,10.000
1.285,4.500,6.000,4.000,10.000
1.286,4.000,6.000,3.500,9.500
1.287,3.500,5.500,3.000,9.500
1.288,2.500,5.500,3.000,9.000
1.289,2.000,5.500,3.000,9.000
1.290,2.000,5.500,3.000,9.000
1.291,2.500,5.500,3.000,9.500
1.292,3.000,6.000,3.500,9.500
1.293,3.000,6.000,3.500,9.500
1.294,3.500,5.500,3.500,9.500
1.295,3.500,5.500,3.500,9.000
1.296,3.500,5.000,3.000,9.000
1.297,3.000,5.500,3.000,9.500
1.298,3.000,5.500,2.500,9.500
1.299,3.000,6.500,2.500,9.500
1.300,2.500,7.000,3.000,10.000
1.301,2.500,7.000,3.500,10.000
1.302,2.500,7.000,3.500,10.000
1.303,2.500,6.500,3.500,10.000
1.304,2.000,6.500,3.500,9.500
1.305,2.000,6.000,3.000,9.000
1.306,1.500,6.500,2.500,8.500
1.307,1.500,7.000,2.000,8.500
1.308,1.500,8.000,2.000,8.500
1.309,1.500,9.000,2.500,8.500
1.310,2.000,9.500,3.000,8.500
1.311,2.000,9.500,3.000,8.500
1.312,2.000,9.500,2.500,8.500
1.313,2.000,9.000,2.000,8.000
1.314,1.500,8.500,1.000,8.000
1.315,1.500,8.500,0.500,8.000
1.316,1.500,8.000,0.500,8.000
1.317,2.000,8.000,1.000,8.000
1.318,2.500,8.000,1.500,8.000
1.319,3.000,8.000,2.000,8.500
1.320,3.500,8.000,3.000,8.500
1.321,3.500,8.000,3.000,9.000
1.322,3.000,8.000,3.000,9.000
1.323,3.000,7.500,3.000,9.000
1.324,3.000,7.000,3.000,9.000
1.325,3.500,6.500,3.000,8.500
1.326,4.000,6.000,3.000,8.000
1.327,4.000,5.500,3.000,7.500
1.328,4.000,5.000,3.500,7.500
1.329,4.000,4.500,3.000,7.000
1.330,3.500,4.000,3.000,7.000
1.331,3.000,3.500,2.500,6.500
1.332,2.500,3.500,2.500,6.500
1.333,2.000,4.000,2.000,6.000
1.334,2.500,4.500,2.000,5.500
1.335,2.500,5.500,2.000,5.000
1.336,2.500,6.500,1.500,4.500
1.337,2.500,6.500,1.500,4.500
1.338,2.500,6.500,1.500,4.500
1.339,2.000,6.000,1.500,4.500
1.340,1.500,5.500,1.500,4.000
1.341,1.000,5.000,1.500,4.000
1.342,1.000,5.000,1.500,4.000
1.343,1.000,5.000,1.500,4.000
1.344,1.000,5.500,1.000,4.000
1.345,1.000,6.000,1.000,4.000
1.346,0.500,6.500,0.500,4.000
1.347,0.500,7.000,0.500,4.000
1.348,0.500,7.000,0.500,4.000
1.349,0.000,7.000,0.500,4.000
1.350,0.000,6.500,1.000,4.000
1.351,0.000,6.500,1.000,4.000
1.352,0.000,6.000,1.500,4.000
1.353,0.000,6.000,1.500,4.000
1.354,0.000,5.500,2.000,4.000
1.355,0.500,5.000,2.000,4.500
1.356,0.500,4.500,2.000,4.500
1.357,0.500,4.000,1.500,5.000
1.358,0.500,3.000,1.000,4.500
1.359,0.500,2.500,0.500,4.500
1.360,0.500,2.500,0.000,4.000
1.361,0.500,3.000,0.000,3.500
1.362,0.500,4.000,0.000,3.000
1.363,0.000,4.500,0.500,3.000
1.364,0.000,5.500,0.500,3.000
1.365,0.500,6.000,0.500,3.000
1.366,0.500,5.500,0.500,3.500
1.367,0.500,5.000,0.500,3.500
1.368,1.000,4.500,0.500,3.500
1.369,1.500,5.000,1.000,3.500
1.370,2.000,5.500,1.500,3.500
1.371,2.500,6.500,1.500,4.000
1.372,2.500,7.500,1.500,4.500
1.373,2.500,8.000,1.500,4.500
1.374,2.500,8.000,1.000,4.500
1.375,2.000,8.000,0.500,4.000
1.376,1.500,8.000,0.000,3.500
1.377,1.500,7.500,0.000,3.000
1.378,1.000,7.500,-0.500,2.500
1.379,1.000,7.000,-0.500,2.500
1.380,0.500,6.500,-0.500,2.000
1.381,0.000,5.500,-1.000,1.500
1.382,-0.500,5.000,-1.500,1.500
1.383,-1.000,4.500,-2.000,1.500
1.384,-1.500,4.500,-2.000,1.000
1.385,-1.000,5.000,-2.000,1.000
1.386,-1.000,5.000,-1.500,1.500
1.387,-0.500,5.500,-0.500,1.500
1.388,-0.500,6.000,0.000,1.500
1.389,-1.000,6.500,0.000,2.000
1.390,-1.000,6.500,0.000,2.000
1.391,-1.000,6.500,0.000,2.500
1.392,-1.000,6.500,-0.500,2.500
1.393,-1.000,6.500,-0.500,2.500
1.394,-1.000,6.000,-0.500,2.000
1.395,-1.500,6.500,0.000,2.000
1.396,-1.500,6.500,0.000,1.500
1.397,-1.500,6.500,0.000,1.500
1.398,-1.500,6.000,0.000,1.500
1.399,-1.000,6.000,0.000,2.000
1.400,-1.000,6.000,0.500,2.500
1.401,-0.500,6.000,1.000,3.000
1.402,-0.500,6.000,1.500,3.500
1.403,0.000,6.000,1.500,3.500
1.404,0.500,6.000,1.500,4.000
1.405,1.000,6.000,1.500,4.000
1.406,1.000,6.000,2.000,4.000
1.407,1.500,5.500,2.000,3.500
1.408,1.000,5.000,1.500,3.000
1.409,1.000,4.500,1.500,2.000
1.410,1.000,4.000,0.500,1.500
1.411,0.500,3.500,0.000,1.500
1.412,0.500,3.000,-0.500,2.000
1.413,0.500,3.000,0.000,2.500
1.414,0.500,3.000,0.500,3.500
1.415,1.000,4.000,1.500,4.000
1.416,1.500,4.500,2.000,4.000
1.417,2.000,5.000,2.000,4.000
1.418,2.500,4.500,1.500,4.000
1.419,2.000,4.000,1.000,3.500
1.420,1.500,3.000,0.500,3.500
1.421,1.000,2.000,0.500,3.500
1.422,0.000,1.500,0.500,3.000
1.423,-0.500,1.000,0.500,2.500
1.424,-1.000,0.500,0.000,2.000
1.425,-1.500,0.500,-1.000,1.000
1.426,-1.500,1.000,-2.000,1.000
1.427,-2.000,2.000,-2.500,0.500
1.428,-2.000,3.000,-2.500,0.500
1.429,-1.500,3.500,-2.000,0.500
1.430,-1.000,3.500,-1.000,0.500
1.431,-1.000,2.500,-0.500,0.500
1.432,-0.500,1.000,0.000,0.500
1.433,-0.500,-0.500,0.000,0.000
1.434,-1.000,-1.500,0.000,0.000
1.435,-1.000,-2.500,0.000,0.500
1.436,-1.500,-3.000,0.000,0.500
1.437,-2.000,-3.500,0.000,0.500
1.438,-2.500,-4.000,0.000,1.000
1.439,-2.500,-5.000,0.000,1.000
1.440,-2.000,-5.500,-0.500,1.000
1.441,-2.000,-6.000,-1.500,0.500
1.442,-1.500,-6.500,-2.000,0.500
1.443,-1.500,-6.500,-2.000,0.500
1.444,-1.500,-6.000,-2.000,0.500
1.445,-2.000,-6.500,-2.000,0.500
1.446,-2.000,-6.500,-1.500,0.000
1.447,-2.500,-6.500,-1.500,0.000
1.448,-2.000,-7.000,-1.500,-0.500
1.449,-2.000,-7.500,-1.000,-0.500
1.450,-2.000,-7.500,-1.000,-0.500
1.451,-2.000,-8.000,-1.000,-0.500
1.452,-2.000,-8.500,-1.500,-0.500
1.453,-2.000,-8.500,-1.500,-1.000
1.454,-2.000,-8.500,-2.000,-1.000
1.455,-2.000,-8.500,-2.500,-1.500
1.456,-2.000,-8.500,-2.500,-1.000
1.457,-2.000,-8.000,-2.000,-1.000
1.458,-2.000,-7.500,-1.500,-0.500
1.459,-2.000,-7.000,-1.000,-0.500
1.460,-1.500,-7.000,-1.000,0.000
1.461,-1.500,-7.000,-0.500,0.000
1.462,-1.500,-7.500,-0.500,0.000
1.463,-1.500,-8.000,-0.500,0.000
1.464,-1.500,-8.000,-0.500,0.000
1.465,-1.500,-8.000,-0.500,0.000
1.466,-1.500,-7.500,-0.500,0.000
1.467,-1.500,-7.500,-0.500,0.500
1.468,-1.000,-7.000,0.000,0.500
1.469,-1.000,-7.000,0.000,1.000
1.470,-1.000,-7.500,0.500,1.000
1.471,-1.000,-8.000,0.500,1.000
1.472,-1.000,-8.000,0.500,1.000
1.473,-1.000,-8.500,0.000,1.000
1.474,-1.000,-8.500,-0.500,1.000
1.475,-1.000,-8.000,0.000,1.500
1.476,-1.000,-8.000,0.000,1.500
1.477,-1.000,-8.000,1.000,2.000
1.478,-1.000,-8.000,1.000,2.500
1.479,-1.000,-7.500,1.000,2.500
1.480,-1.000,-7.500,1.000,2.500
1.481,-1.000,-7.500,0.500,2.500
1.482,-1.000,-7.500,0.000,2.000
1.483,-1.000,-7.000,-0.500,2.000
1.484,-1.500,-7.000,-0.500,1.500
1.485,-2.000,-7.000,-1.000,1.000
1.486,-2.500,-7.000,-1.500,0.500
1.487,-2.500,-7.500,-2.000,0.500
1.488,-3.000,-8.000,-2.500,0.500
1.489,-3.000,-8.000,-2.500,1.000
1.490,-3.000,-8.500,-2.000,1.000
1.491,-2.500,-8.500,-1.000,1.000
1.492,-2.500,-8.500,-0.500,1.500
1.493,-2.000,-8.500,0.500,1.500
1.494,-1.500,-8.000,1.000,2.000
1.495,-1.000,-7.500,1.500,2.500
1.496,-0.500,-6.500,1.000,2.500
1.497,-0.500,-5.000,1.000,3.000
1.498,-0.500,-4.000,0.500,3.000
1.499,-0.500,-3.000,0.000,3.000
1.500,-0.500,-2.000,0.000,3.500
1.501,-0.500,-2.000,0.000,3.500
1.502,-0.500,-2.000,0.000,4.000
1.503,-0.500,-2.500,0.000,4.000
1.504,-0.500,-3.500,0.500,4.000
1.505,-0.500,-4.500,0.500,3.500
1.506,-0.500,-5.500,0.500,3.500
1.507,0.000,-5.500,0.500,4.000
1.508,0.500,-5.500,1.000,4.500
1.509,1.000,-5.000,1.500,5.000
1.510,2.000,-4.500,2.000,5.500
1.511,2.000,-4.000,2.500,5.500
1.512,2.000,-4.000,2.500,5.000
1.513,2.000,-4.500,2.500,4.500
1.514,1.500,-5.500,1.500,4.000
1.515,1.000,-6.500,1.000,3.000
1.516,0.500,-7.000,0.500,3.000
1.517,0.000,-7.000,0.000,3.000
1.518,0.000,-6.500,-0.500,3.000
1.519,0.000,-6.000,-0.500,2.500
1.520,0.000,-5.500,-0.500,2.500
1.521,0.000,-5.500,-0.500,2.000
1.522,0.000,-5.500,-0.500,2.000
1.523,0.000,-5.500,0.000,2.500
1.524,0.500,-5.500,0.500,3.000
1.525,0.500,-5.500,1.000,3.000
1.526,0.000,-5.500,1.500,3.000
1.527,0.000,-6.000,1.000,2.500
1.528,0.000,-6.500,0.500,2.000
1.529,0.000,-7.000,0.000,2.000
1.530,0.000,-7.500,-0.500,2.000
1.531,0.000,-8.000,0.000,2.500
1.532,0.000,-8.000,0.500,2.500
1.533,-0.500,-8.000,1.000,3.000
1.534,-0.500,-8.000,1.000,3.000
1.535,-1.000,-8.000,1.000,2.500
1.536,-1.000,-8.000,1.000,2.500
1.537,-0.500,-7.500,1.000,3.000
1.538,0.500,-6.500,1.000,4.000
1.539,1.000,-5.000,1.500,5.500
1.540,1.500,-4.000,2.500,7.000
1.541,2.000,-3.500,3.000,8.000
1.542,2.000,-3.000,4.000,9.500
1.543,2.500,-2.000,5.500,11.000
1.544,3.500,-0.500,7.500,13.500
1.545,5.000,1.500,10.000,16.500
1.546,6.500,4.500,12.000,20.000
1.547,8.500,7.000,14.000,22.500
1.548,9.500,9.000,14.500,24.500
1.549,10.000,9.500,14.000,24.500
1.550,9.500,8.500,13.000,23.500
1.551,8.000,6.500,11.500,21.500
1.552,7.000,4.500,9.500,19.500
1.553,5.500,2.500,8.000,17.000
1.554,4.000,1.000,6.000,14.500
1.555,2.500,-1.000,4.000,12.000
1.556,0.500,-3.000,2.000,8.500
1.557,-2.000,-6.000,-1.000,4.000
1.558,-4.500,-9.500,-3.500,-0.500
1.559,-6.500,-12.000,-5.500,-4.500
1.560,-8.000,-14.000,-7.000,-8.000
1.561,-9.000,-15.000,-8.000,-9.500
1.562,-9.000,-15.000,-8.000,-10.000
1.563,-9.000,-14.000,-7.500,-9.500
1.564,-8.500,-13.000,-7.500,-9.000
1.565,-8.000,-12.000,-7.000,-8.500
1.566,-8.000,-11.000,-6.500,-8.000
1.567,-8.000,-10.500,-6.000,-8.000
1.568,-8.000,-9.500,-5.000,-7.500
1.569,-7.500,-8.500,-4.000,-6.000
1.570,-6.500,-7.500,-3.000,-4.500
1.571,-5.500,-6.500,-2.000,-3.000
1.572,-5.000,-6.000,-1.500,-1.000
1.573,-4.500,-6.000,-1.500,0.000
1.574,-4.500,-6.000,-1.500,0.000
1.575,-4.500,-6.500,-1.500,0.000
1.576,-5.000,-6.500,-1.500,0.000
1.577,-5.000,-6.000,-2.000,-0.500
1.578,-4.500,-6.000,-2.000,-0.500
1.579,-4.500,-6.000,-2.500,-1.000
1.580,-4.500,-6.500,-3.000,-1.000
1.581,-4.500,-7.000,-3.000,-1.000
1.582,-4.500,-7.000,-3.000,-1.000
1.583,-4.500,-7.000,-2.500,-0.500
1.584,-4.000,-7.000,-2.000,-0.500
1.585,-4.000,-6.500,-1.500,0.000
1.586,-4.000,-6.000,-1.000,0.000
1.587,-4.000,-6.000,-1.000,0.000
1.588,-4.000,-6.500,-0.500,0.000
1.589,-4.000,-7.500,-0.500,0.000
1.590,-3.500,-8.000,0.000,0.000
1.591,-3.500,-8.500,0.000,0.000
1.592,-3.000,-8.500,-0.500,-0.500
1.593,-3.500,-8.500,-1.000,-0.500
1.594,-4.000,-9.000,-1.500,-1.000
1.595,-4.500,-9.000,-2.000,-1.000
1.596,-5.000,-9.000,-1.500,-0.500
1.597,-5.500,-9.000,-1.000,-0.500
1.598,-5.000,-8.000,0.000,0.500
1.599,-4.500,-7.500,0.500,0.500
1.600,-3.500,-6.500,1.000,1.000
1.601,-2.500,-5.500,1.500,1.000
1.602,-1.500,-5.000,1.500,0.500
1.603,-1.000,-5.000,1.500,0.500
1.604,-0.500,-5.000,1.000,1.000
1.605,-0.500,-5.000,1.000,1.000
1.606,-1.000,-5.000,0.500,1.000
1.607,-1.000,-5.500,0.500,1.000
1.608,-1.500,-6.000,0.500,0.500
1.609,-1.500,-7.000,0.500,0.000
1.610,-2.000,-7.500,0.000,-0.500
1.611,-2.000,-8.500,0.500,-0.500
1.612,-2.500,-9.000,0.500,-1.000
1.613,-2.500,-9.000,0.500,-1.000
1.614,-2.500,-9.500,0.500,-1.000
1.615,-3.000,-9.500,0.500,-1.000
1.616,-3.000,-9.500,0.000,-1.000
1.617,-3.000,-9.500,-0.500,-1.000
1.618,-3.000,-9.500,-1.000,-1.000
1.619,-2.500,-9.000,-1.000,-1.000
1.620,-2.000,-8.500,-1.000,-1.000
1.621,-2.000,-8.000,-1.000,-1.000
1.622,-2.000,-7.500,-0.500,-1.000
1.623,-2.000,-7.000,-0.500,-1.000
1.624,-2.000,-6.500,-1.000,-1.500
1.625,-2.000,-6.500,-1.000,-1.500
1.626,-2.000,-6.000,-1.000,-1.500
1.627,-2.000,-6.000,-1.000,-1.500
1.628,-2.500,-6.000,-1.000,-1.500
1.629,-2.500,-6.500,-1.000,-1.500
1.630,-2.500,-6.500,-1.000,-1.500
1.631,-2.500,-7.000,-1.000,-1.500
1.632,-2.500,-7.000,-1.000,-2.000
1.633,-2.500,-7.000,-1.500,-2.500
1.634,-2.000,-6.500,-2.000,-2.500
1.635,-2.000,-6.000,-2.500,-2.500
1.636,-1.500,-5.500,-2.000,-2.000
1.637,-1.500,-5.000,-1.500,-1.500
1.638,-1.000,-4.500,-0.500,-1.000
1.639,-0.500,-4.500,0.000,-0.500
1.640,-0.500,-4.000,0.000,-0.500
1.641,-1.000,-4.500,-0.500,-1.000
1.642,-1.000,-4.500,-1.500,-1.500
1.643,-1.500,-5.000,-1.500,-1.500
1.644,-2.000,-5.000,-1.000,-1.500
1.645,-2.000,-5.500,0.000,-1.000
1.646,-1.500,-5.500,1.000,-0.500
1.647,-1.000,-5.000,1.500,0.000
1.648,-0.500,-4.500,1.500,0.000
1.649,0.000,-4.000,1.000,0.000
1.650,0.000,-4.000,0.000,-0.500
1.651,0.000,-4.000,0.000,-0.500
1.652,-0.500,-4.500,0.000,-1.000
1.653,-1.000,-5.000,1.000,-1.000
1.654,-1.000,-5.500,1.500,-1.000
1.655,-1.500,-5.500,1.500,-1.000
1.656,-1.500,-5.500,1.500,-1.000
1.657,-1.500,-4.500,1.500,-0.500
1.658,-1.000,-4.000,1.000,0.000
1.659,-1.000,-3.000,0.500,0.500
1.660,-1.500,-2.500,0.500,0.000
1.661,-1.500,-2.000,0.500,0.000
1.662,-2.000,-2.000,0.500,-0.500
1.663,-2.500,-1.500,0.000,-1.000
1.664,-3.000,-1.500,0.000,-1.000
1.665,-3.500,-1.500,0.500,-1.000
1.666,-3.500,-1.000,0.500,-0.500
1.667,-3.500,-1.500,1.500,-0.500
1.668,-2.500,-1.500,2.000,0.000
1.669,-1.500,-2.000,2.500,0.000
1.670,-0.500,-2.000,3.000,0.000
1.671,0.500,-2.000,3.500,0.500
1.672,1.000,-1.500,3.500,0.500
1.673,1.500,-1.500,4.000,1.000
1.674,2.000,-0.500,4.000,1.500
1.675,3.000,0.500,5.000,2.000
1.676,4.000,1.500,5.500,2.500
1.677,5.500,3.000,7.000,4.000
1.678,7.000,4.500,8.000,5.500
1.679,7.500,5.500,9.000,7.000
1.680,8.500,6.500,9.500,8.000
1.681,8.500,7.000,10.000,9.500
1.682,8.000,7.000,10.500,10.500
1.683,7.500,7.000,10.500,11.000
1.684,6.500,6.500,11.000,12.000
1.685,5.000,6.500,11.000,13.000
1.686,3.500,6.500,11.500,14.500
1.687,2.000,6.500,12.000,16.000
1.688,0.000,6.000,12.000,17.500
1.689,-2.500,5.500,12.000,18.500
1.690,-5.000,4.500,11.000,19.000
1.691,-7.500,3.500,10.500,19.500
1.692,-10.500,2.000,9.500,19.500
1.693,-13.000,1.500,8.500,19.500
1.694,-15.000,1.000,7.500,20.000
1.695,-17.000,0.000,7.000,20.500
1.696,-19.000,-1.000,6.500,20.500
1.697,-21.500,-2.000,6.000,20.500
1.698,-24.000,-3.500,5.000,20.500
1.699,-26.500,-4.500,4.000,20.000
1.700,-28.500,-5.500,3.500,19.500
1.701,-30.500,-7.000,2.500,19.000
1.702,-31.500,-8.000,1.500,18.000
1.703,-32.500,-9.000,1.000,17.500
1.704,-33.500,-10.500,0.500,16.500
1.705,-34.000,-11.500,-0.500,15.000
1.706,-34.500,-12.500,-1.000,14.000
1.707,-34.500,-13.000,-1.000,13.500
1.708,-34.500,-12.500,-1.000,13.000
1.709,-34.000,-12.000,-0.500,12.500
1.710,-33.000,-11.000,0.000,12.000
1.711,-31.500,-10.500,0.000,11.000
1.712,-29.000,-11.000,-0.500,9.000
1.713,-26.500,-11.500,-2.000,6.500
1.714,-24.000,-12.500,-3.000,3.500
1.715,-21.500,-13.000,-4.500,0.500
1.716,-19.500,-13.500,-5.500,-2.500
1.717,-17.000,-13.000,-6.000,-4.500
1.718,-15.000,-12.000,-6.000,-6.000
1.719,-13.000,-11.000,-5.500,-7.000
1.720,-11.000,-10.500,-5.000,-7.500
1.721,-9.500,-10.500,-4.500,-8.500
1.722,-8.500,-11.000,-4.500,-9.000
1.723,-8.000,-11.500,-5.000,-9.500
1.724,-7.500,-11.500,-5.000,-10.000
1.725,-7.500,-11.000,-5.000,-10.000
1.726,-7.000,-10.500,-5.000,-10.000
1.727,-6.000,-9.500,-5.000,-10.000
1.728,-5.500,-9.500,-6.000,-10.000
1.729,-4.500,-9.500,-6.500,-10.000
1.730,-4.500,-10.000,-8.000,-10.500
1.731,-4.500,-10.000,-8.500,-11.000
1.732,-4.500,-10.000,-9.000,-11.500
1.733,-4.500,-9.500,-8.500,-11.500
1.734,-4.500,-8.500,-8.000,-11.500
1.735,-4.500,-8.000,-7.500,-11.000
1.736,-4.000,-8.000,-7.000,-11.000
1.737,-4.000,-8.000,-7.000,-10.500
1.738,-4.000,-8.000,-6.500,-10.000
1.739,-4.000,-8.000,-6.000,-10.000
1.740,-3.500,-7.000,-5.500,-9.000
1.741,-3.500,-6.500,-4.000,-8.500
1.742,-3.000,-5.000,-3.000,-7.500
1.743,-3.000,-4.000,-2.000,-6.500
1.744,-3.000,-2.500,-1.500,-5.500
1.745,-2.500,-1.500,-1.000,-4.500
1.746,-2.000,-0.500,-1.000,-4.000
1.747,-2.000,0.500,-1.000,-3.500
1.748,-1.500,1.000,-0.500,-3.000
1.749,-1.500,2.000,-0.500,-2.500
1.750,-1.000,3.500,-0.500,-2.500
1.751,-1.500,4.500,0.000,-2.500
1.752,-1.500,5.500,0.000,-2.500
1.753,-2.000,6.000,0.000,-3.000
1.754,-2.000,6.000,0.500,-3.000
1.755,-2.000,6.000,1.000,-2.500
1.756,-1.500,5.500,1.000,-2.000
1.757,-1.000,6.000,1.500,-2.000
1.758,-1.000,6.500,1.500,-2.000
1.759,-0.500,6.500,1.500,-2.000
1.760,0.000,7.000,1.500,-2.000
1.761,0.000,6.500,1.000,-2.000
1.762,0.000,6.000,1.000,-2.000
1.763,0.000,6.000,1.000,-2.000
1.764,0.000,6.500,1.000,-1.500
1.765,-0.500,7.500,1.500,-1.000
1.766,-0.500,8.000,1.500,-1.000
1.767,-0.500,9.000,1.000,-1.500
1.768,-0.500,9.000,0.500,-1.500
1.769,-0.500,9.000,0.000,-1.000
1.770,0.000,8.500,0.000,-1.000
1.771,0.000,8.500,-0.500,-0.500
1.772,0.500,8.500,0.000,-0.500
1.773,0.500,8.500,0.500,-0.500
1.774,0.500,8.000,1.000,-0.500
1.775,0.000,8.000,1.000,-0.500
1.776,-0.500,7.000,1.500,-0.500
1.777,-0.500,7.000,1.000,-0.500
1.778,0.000,7.000,1.000,0.000
1.779,0.000,7.500,1.000,0.500
1.780,0.500,8.000,1.000,0.500
1.781,1.000,8.500,1.500,1.000
1.782,1.000,8.500,2.500,1.000
1.783,1.000,8.500,3.000,1.000
1.784,1.000,8.000,3.500,1.500
1.785,1.000,7.500,3.500,1.500
1.786,1.500,7.500,3.500,2.000
1.787,1.500,7.500,3.000,2.000
1.788,2.000,7.000,2.500,1.500
1.789,2.000,7.000,2.000,1.500
1.790,2.000,7.500,2.000,1.500
1.791,1.500,8.000,2.500,1.000
1.792,1.500,8.500,3.000,1.000
1.793,1.500,9.000,3.000,1.000
1.794,1.500,9.000,2.500,1.000
1.795,1.500,8.500,2.500,1.000
1.796,1.000,7.500,2.000,1.000
1.797,1.000,7.000,2.000,1.500
1.798,0.500,6.500,2.000,1.500
1.799,0.500,7.000,2.000,2.000
1.800,0.500,7.000,1.500,2.000
1.801,0.500,7.000,1.500,1.500
1.802,0.000,7.000,1.000,1.500
1.803,0.000,6.500,1.500,1.000
1.804,-0.500,6.000,1.500,1.000
1.805,-0.500,6.000,2.000,1.000
1.806,0.000,6.000,2.500,1.000
1.807,0.000,6.500,2.500,1.500
1.808,0.500,6.500,2.000,1.500
1.809,0.500,7.000,2.000,1.500
1.810,1.000,7.500,1.500,1.500
1.811,1.000,8.000,1.500,2.000
1.812,1.000,8.500,1.500,2.000
1.813,1.000,9.000,2.500,2.500
1.814,1.000,9.000,3.000,3.000
1.815,0.500,9.000,3.000,3.000
1.816,0.500,8.500,3.000,2.500
1.817,0.500,8.500,2.500,2.000
1.818,0.000,8.000,2.000,1.500
1.819,0.500,8.500,1.500,1.500
1.820,0.500,9.000,1.500,1.500
1.821,0.500,9.500,1.500,2.000
1.822,0.500,10.000,2.000,2.500
1.823,0.500,10.000,2.000,3.000
1.824,0.500,9.500,2.000,3.000
1.825,0.000,9.000,2.000,3.000
1.826,0.000,8.000,1.500,2.500
1.827,-0.500,8.000,1.500,2.500
1.828,-0.500,8.000,1.000,2.500
1.829,-0.500,9.000,1.500,3.000
1.830,0.000,9.500,1.500,3.000
1.831,0.500,10.000,2.000,3.500
1.832,0.500,10.500,2.500,4.000
1.833,1.000,10.500,3.000,4.000
1.834,1.000,11.000,3.000,4.000
1.835,1.500,11.000,3.000,4.000
1.836,1.500,11.500,3.500,4.000
1.837,1.500,11.500,3.500,4.000
1.838,1.500,10.500,3.500,4.000
1.839,1.500,9.000,3.500,4.000
1.840,1.000,7.000,3.500,4.500
1.841,0.500,5.500,3.000,4.500
1.842,-0.500,4.000,2.000,4.500
1.843,-0.500,4.000,1.500,4.500
1.844,-0.500,4.000,1.500,4.000
1.845,-0.500,4.500,2.000,3.500
1.846,0.000,5.000,2.500,3.500
1.847,0.500,4.500,3.500,4.000
1.848,0.500,3.500,4.000,4.000
1.849,0.500,2.500,4.000,4.500
1.850,0.000,2.500,4.500,4.500
1.851,-0.500,3.000,4.500,4.500
1.852,-0.500,4.500,4.500,4.000
1.853,0.000,5.500,4.000,4.000
1.854,0.000,7.000,4.000,4.000
1.855,0.000,7.500,3.000,4.000
1.856,-0.500,8.000,2.500,4.000
1.857,-1.000,8.000,1.500,3.500
1.858,-2.000,8.000,1.000,3.000
1.859,-2.500,8.500,1.000,2.000
1.860,-3.000,9.000,1.000,1.500
1.861,-3.000,9.500,1.000,1.500
1.862,-3.000,10.000,1.500,1.500
1.863,-2.500,10.500,2.000,2.000
1.864,-2.500,11.000,2.500,2.500
1.865,-2.500,11.000,3.500,3.000
1.866,-2.500,11.500,4.000,3.000
1.867,-2.500,11.500,4.500,3.000
1.868,-2.000,11.000,5.000,3.000
1.869,-2.000,10.500,4.500,3.500
1.870,-2.000,9.500,4.000,3.500
1.871,-2.500,9.000,3.500,3.000
1.872,-3.000,8.000,3.000,2.500
1.873,-3.000,8.000,3.000,2.000
1.874,-3.000,7.500,3.500,1.500
1.875,-2.500,7.500,4.000,2.000
1.876,-2.000,7.500,4.000,2.500
1.877,-2.000,7.000,4.000,3.000
1.878,-2.000,6.500,4.000,3.500
1.879,-2.000,6.000,4.000,3.500
1.880,-2.500,5.500,4.500,3.500
1.881,-3.000,5.000,4.500,3.000
1.882,-3.000,5.000,4.500,3.000
1.883,-2.500,5.000,5.000,3.500
1.884,-2.000,5.000,5.000,4.000
1.885,-2.000,5.500,4.500,4.500
1.886,-2.500,5.500,4.500,4.500
1.887,-3.500,4.500,4.500,4.000
1.888,-4.500,3.500,4.000,3.500
1.889,-5.500,1.500,4.000,2.500
1.890,-6.000,-0.500,4.000,2.000
1.891,-5.500,-1.500,4.000,2.000
1.892,-5.500,-2.500,3.500,2.500
1.893,-5.000,-2.500,3.000,3.000
1.894,-5.000,-2.000,2.500,3.000
1.895,-5.500,-1.000,2.500,2.500
1.896,-6.000,-0.500,2.500,2.500
1.897,-6.500,-0.500,2.500,2.000
1.898,-7.000,-1.000,3.000,2.500
1.899,-7.500,-1.500,3.000,3.000
1.900,-7.500,-1.500,3.000,3.500
1.901,-8.000,-1.500,3.000,4.000
1.902,-8.500,-1.000,2.500,4.000
1.903,-8.500,-0.500,2.500,4.000
1.904,-9.000,0.000,2.500,3.500
1.905,-9.000,0.000,3.000,3.000
1.906,-9.000,-0.500,3.000,3.000
1.907,-9.000,-0.500,3.500,2.500
1.908,-8.500,0.000,3.500,3.000
1.909,-8.500,1.000,3.500,3.000
1.910,-8.500,2.000,3.500,3.000
1.911,-9.000,2.500,3.500,3.000
1.912,-9.000,2.500,3.500,2.500
1.913,-9.500,2.000,3.500,3.000
1.914,-9.500,1.000,3.500,3.000
1.915,-9.500,0.000,3.500,3.500
1.916,-9.000,-0.500,3.500,4.000
1.917,-9.000,-1.500,3.500,4.000
1.918,-8.500,-3.000,3.500,3.500
1.919,-8.500,-4.500,3.000,3.000
1.920,-9.000,-6.500,3.000,2.500
1.921,-9.000,-8.000,3.500,2.500
1.922,-9.500,-9.000,3.500,3.000
1.923,-9.500,-9.500,3.500,3.500
1.924,-9.500,-9.500,3.000,3.500
1.925,-10.000,-9.500,3.000,3.500
1.926,-10.000,-9.000,3.000,3.500
1.927,-10.500,-9.500,2.500,3.500
1.928,-11.000,-9.500,3.000,3.500
1.929,-11.000,-9.500,3.000,4.000
1.930,-10.500,-9.500,3.500,4.500
1.931,-10.000,-9.500,4.000,5.000
1.932,-9.500,-9.500,4.000,5.000
1.933,-9.500,-9.500,4.000,5.000
1.934,-9.500,-9.500,4.000,4.500
1.935,-9.500,-10.000,3.500,4.500
1.936,-9.500,-11.000,3.000,4.000
1.937,-10.000,-11.500,3.000,3.500
1.938,-9.500,-12.000,3.000,3.500
1.939,-9.500,-12.000,3.000,3.500
1.940,-9.500,-12.500,3.000,3.500
1.941,-9.500,-12.500,3.000,3.500
1.942,-9.500,-12.000,2.500,3.500
1.943,-10.000,-12.000,2.000,3.500
1.944,-10.000,-12.000,1.500,3.500
1.945,-10.000,-12.000,2.000,3.500
1.946,-10.000,-12.000,2.500,3.500
1.947,-9.500,-12.000,3.000,3.500
1.948,-9.000,-12.000,3.500,3.500
1.949,-8.500,-12.500,4.000,3.500
1.950,-8.500,-12.500,3.500,3.000
1.951,-8.500,-12.500,3.500,3.000
1.952,-8.500,-12.000,3.000,2.500
1.953,-8.000,-11.000,3.500,3.000
1.954,-7.500,-10.500,3.500,3.000
1.955,-7.000,-10.500,4.000,3.000
1.956,-6.500,-10.500,4.000,3.000
1.957,-6.500,-10.500,4.000,2.500
1.958,-6.500,-10.500,3.500,1.500
1.959,-7.000,-9.500,3.000,1.000
1.960,-7.000,-8.000,2.500,0.500
1.961,-6.500,-6.000,2.000,0.000
1.962,-6.500,-4.000,1.500,-0.500
1.963,-6.500,-2.500,1.500,-0.500
1.964,-6.000,-1.500,1.500,-1.000
1.965,-6.000,-1.000,1.500,-1.000
1.966,-5.500,-1.000,2.000,-0.500
1.967,-5.000,-0.500,3.000,0.000
1.968,-4.000,0.500,4.000,1.000
1.969,-2.500,1.500,4.500,2.500
1.970,-0.500,2.500,5.500,4.000
1.971,1.500,3.500,7.000,6.000
1.972,3.000,4.000,8.000,7.500
1.973,4.500,4.000,9.500,8.500
1.974,5.500,4.000,11.000,10.500
1.975,7.000,4.000,12.500,12.500
1.976,8.000,5.000,14.000,15.500
1.977,10.000,6.500,15.500,18.500
1.978,12.000,9.000,17.500,22.000
1.979,13.500,10.500,18.500,24.500
1.980,14.500,11.500,19.000,26.000
1.981,15.000,11.500,18.500,25.500
1.982,14.500,11.000,17.500,24.500
1.983,14.000,10.000,16.500,22.500
1.984,12.500,9.000,15.000,20.500
1.985,11.500,8.500,13.500,18.500
1.986,10.500,7.500,11.500,16.000
1.987,9.500,5.500,9.500,12.500
1.988,7.500,2.500,7.000,8.000
1.989,5.000,-1.500,3.500,2.500
1.990,2.000,-5.500,0.500,-3.500
1.991,-0.500,-9.000,-2.500,-8.500
1.992,-2.500,-10.000,-4.500,-12.000
1.993,-3.500,-9.500,-5.500,-13.500
1.994,-4.000,-8.000,-5.500,-14.000
1.995,-4.000,-5.500,-5.000,-13.500
1.996,-3.500,-4.000,-4.500,-12.500
1.997,-3.500,-3.500,-3.000,-12.000
1.998,-3.000,-4.500,-2.000,-11.000
1.999,-3.000,-5.500,-1.500,-10.500
2.000,-2.000,-6.500,-0.500,-10.000
2.001,-1.500,-7.000,0.000,-9.500
2.002,-1.000,-7.000,0.500,-8.000
2.003,-0.500,-7.000,1.500,-6.500
2.004,-0.500,-7.500,2.000,-5.000
2.005,0.000,-8.000,2.500,-4.000
2.006,0.500,-8.500,3.000,-3.500
2.007,1.500,-8.000,2.500,-4.000
2.008,1.500,-7.000,2.000,-4.000
2.009,2.000,-6.000,1.500,-4.500
2.010,2.000,-5.000,1.500,-4.500
2.011,1.500,-4.500,1.500,-4.500
2.012,1.500,-5.000,2.000,-4.000
2.013,1.000,-6.500,2.500,-4.000
2.014,1.000,-7.500,3.000,-4.500
2.015,1.000,-9.000,2.500,-5.000
2.016,1.000,-9.500,2.000,-5.500
2.017,1.000,-9.500,1.500,-6.000
2.018,0.500,-9.500,1.000,-5.500
2.019,0.500,-9.500,1.000,-5.500
2.020,1.000,-9.500,1.500,-5.000
2.021,1.000,-9.500,2.000,-4.500
2.022,1.500,-10.000,2.000,-4.500
2.023,1.500,-10.500,1.500,-5.000
2.024,1.000,-11.000,1.500,-5.000
2.025,1.000,-11.500,1.000,-5.500
2.026,0.500,-11.500,0.500,-5.500
2.027,0.500,-11.500,0.500,-5.500
2.028,0.500,-11.500,1.000,-5.500
2.029,0.500,-11.000,1.000,-6.000
2.030,0.500,-11.000,0.500,-6.000
2.031,0.500,-11.500,0.500,-6.000
2.032,0.500,-11.500,0.000,-6.000
2.033,0.500,-12.000,0.000,-6.000
2.034,0.500,-12.000,0.000,-5.500
2.035,0.500,-11.500,0.500,-4.500
2.036,1.000,-11.000,1.000,-4.500
2.037,1.000,-10.500,1.000,-4.500
2.038,1.500,-10.000,1.500,-4.500
2.039,2.000,-10.500,2.000,-5.000
2.040,2.000,-11.000,2.000,-5.500
2.041,2.000,-11.500,2.000,-5.500
2.042,2.000,-12.000,2.000,-5.500
2.043,2.000,-12.000,2.000,-5.500
2.044,2.000,-12.000,2.000,-5.500
2.045,2.000,-12.000,2.000,-5.500
2.046,2.000,-12.000,1.500,-5.500
2.047,2.000,-12.000,1.000,-6.000
2.048,2.000,-12.500,1.000,-6.000
2.049,1.500,-12.500,0.500,-6.000
2.050,1.500,-12.500,0.500,-6.000
2.051,1.500,-12.500,0.500,-6.000
2.052,1.500,-12.500,0.500,-6.000
2.053,2.000,-11.500,0.500,-6.000
2.054,2.000,-10.500,0.000,-6.000
2.055,2.000,-8.000,-0.500,-6.000
2.056,1.500,-5.500,-0.500,-6.000
2.057,1.500,-3.000,-1.000,-5.500
2.058,1.500,-0.500,-1.000,-5.000
2.059,2.000,1.000,-0.500,-4.500
2.060,2.500,1.500,0.000,-4.000
2.061,3.500,1.000,0.500,-4.000
2.062,4.000,0.500,1.000,-4.000
2.063,4.000,0.000,1.000,-4.000
2.064,4.000,-0.500,1.000,-4.500
2.065,3.500,-1.000,0.500,-4.500
2.066,3.500,-1.000,0.000,-5.000
2.067,3.500,-1.500,-1.000,-5.000
2.068,3.000,-1.500,-1.500,-5.000
2.069,3.000,-1.500,-2.000,-5.500
2.070,2.500,-1.000,-2.500,-6.000
2.071,1.500,-1.000,-2.500,-6.500
2.072,1.000,-0.500,-2.000,-6.500
2.073,0.500,-0.500,-2.000,-6.500
2.074,1.000,0.000,-1.500,-6.500
2.075,1.500,0.500,-1.500,-7.000
2.076,1.500,0.500,-1.500,-7.000
2.077,1.500,1.000,-2.000,-7.500
2.078,1.000,1.000,-2.000,-8.000
2.079,0.500,0.500,-2.500,-7.500
2.080,0.000,0.000,-2.500,-7.500
2.081,-0.500,-0.500,-2.500,-7.000
2.082,0.000,0.000,-2.000,-7.000
2.083,0.000,0.000,-2.000,-7.000
2.084,0.500,0.500,-2.000,-7.000
2.085,0.500,0.500,-2.000,-7.500
2.086,1.000,0.000,-2.000,-8.000
2.087,0.500,-1.000,-2.000,-8.000
2.088,0.500,-1.500,-2.500,-8.500
2.089,0.500,-2.000,-2.500,-8.500
2.090,0.500,-2.000,-3.000,-9.000
2.091,0.000,-2.000,-3.000,-9.500
2.092,-0.500,-2.000,-3.000,-9.500
2.093,-0.500,-2.000,-3.000,-9.500
2.094,-0.500,-1.500,-3.000,-9.500
2.095,0.000,-1.500,-2.500,-9.000
2.096,0.500,-1.000,-3.000,-9.000
2.097,1.000,0.000,-3.500,-8.500
2.098,1.500,0.500,-4.000,-8.500
2.099,1.500,1.000,-4.000,-8.500
2.100,1.500,1.500,-3.500,-8.500
2.101,1.000,1.000,-3.000,-8.500
2.102,0.500,1.000,-2.000,-8.500
2.103,0.500,0.500,-1.000,-8.500
2.104,0.500,0.000,-0.500,-8.500
2.105,0.500,-0.500,-0.500,-8.500
2.106,1.000,-1.000,-0.500,-8.500
2.107,1.000,-2.000,-0.500,-8.000
2.108,1.500,-2.500,-0.500,-8.000
2.109,1.500,-3.000,0.000,-7.500
2.110,1.500,-3.500,0.000,-7.500
2.111,2.000,-3.500,0.000,-7.500
2.112,2.000,-3.000,-0.500,-7.500
2.113,1.500,-3.000,-1.000,-7.500
2.114,1.500,-3.500,-1.500,-7.500
2.115,1.000,-4.000,-2.500,-7.500
2.116,1.000,-4.000,-2.500,-7.500
2.117,1.000,-4.000,-2.500,-7.500
2.118,1.000,-3.000,-2.500,-7.000
2.119,1.500,-2.500,-2.500,-7.000
2.120,1.500,-1.500,-2.000,-7.000
2.121,1.500,-1.000,-2.000,-7.500
2.122,1.500,-1.000,-2.500,-8.000
2.123,1.500,-1.000,-2.500,-8.000
2.124,1.500,-1.000,-2.500,-8.000
2.125,2.000,-1.000,-2.500,-8.000
2.126,2.000,-0.500,-2.000,-7.000
2.127,2.500,0.500,-1.500,-7.000
2.128,2.500,1.000,-1.000,-6.500
2.129,2.000,1.000,-0.500,-6.500
2.130,2.000,1.500,-0.500,-7.000
2.131,1.500,1.500,-1.000,-7.000
2.132,1.500,1.500,-1.000,-7.500
2.133,1.500,1.000,-1.500,-7.000
2.134,1.500,1.000,-2.000,-7.000
2.135,1.500,1.000,-2.000,-7.000
2.136,1.500,0.500,-2.000,-7.500
2.137,1.500,0.000,-2.000,-7.500
2.138,1.000,-0.500,-2.500,-7.500
2.139,0.500,-1.000,-2.500,-8.000
2.140,-0.500,-1.500,-3.000,-8.000
2.141,-1.000,-1.500,-3.500,-8.000
2.142,-1.000,-1.500,-4.000,-8.500
2.143,-1.000,-1.500,-4.000,-8.500
2.144,-0.500,-1.000,-4.000,-8.500
2.145,-0.500,-0.500,-3.500,-9.000
2.146,-0.500,0.000,-3.000,-8.500
2.147,-0.500,0.500,-2.500,-8.500
2.148,-1.000,1.000,-2.500,-8.500
2.149,-1.000,1.000,-2.500,-9.000
2.150,-1.000,1.500,-2.500,-9.000
2.151,-1.000,2.000,-3.000,-9.000
2.152,-0.500,2.500,-3.000,-9.000
2.153,-0.500,2.500,-3.000,-8.500
2.154,-0.500,2.000,-2.500,-8.500
2.155,-0.500,1.500,-3.000,-8.500
2.156,-0.500,0.500,-3.000,-8.500
2.157,-0.500,0.000,-3.500,-9.000
2.158,0.000,-0.500,-4.000,-9.000
2.159,0.000,-0.500,-4.500,-9.000
2.160,0.000,0.000,-4.500,-9.000
2.161,0.000,1.000,-4.500,-9.000
2.162,0.000,1.500,-4.000,-9.000
2.163,0.000,2.000,-3.500,-8.500
2.164,0.000,2.000,-3.500,-9.000
2.165,-0.500,1.500,-3.500,-9.500
2.166,-1.000,1.000,-3.500,-9.500
2.167,-1.500,0.500,-3.500,-10.000
2.168,-2.000,0.500,-3.500,-10.000
2.169,-2.000,0.500,-3.500,-10.000
2.170,-2.000,0.500,-3.500,-9.500
2.171,-2.500,0.000,-3.500,-9.500
2.172,-2.500,-0.500,-4.000,-9.500
2.173,-3.000,-1.500,-4.500,-10.000
2.174,-3.500,-2.000,-5.000,-10.000
2.175,-4.000,-2.500,-5.500,-10.500
2.176,-4.000,-2.500,-6.000,-11.000
2.177,-4.000,-2.000,-6.000,-11.000
2.178,-4.000,-1.500,-6.000,-11.000
2.179,-4.000,-0.500,-6.000,-11.000
2.180,-4.000,0.000,-5.500,-10.500
2.181,-3.500,0.500,-5.500,-10.500
2.182,-3.500,1.000,-5.500,-10.000
2.183,-3.500,1.000,-5.000,-10.000
2.184,-3.500,1.000,-5.000,-10.000
2.185,-4.000,1.000,-5.000,-10.000
2.186,-4.000,1.000,-5.000,-10.000
2.187,-4.000,1.000,-5.000,-10.000
2.188,-3.500,1.000,-5.000,-10.000
2.189,-2.500,1.500,-4.500,-10.000
2.190,-2.000,2.000,-4.500,-10.000
2.191,-2.000,2.000,-4.500,-10.000
2.192,-2.500,1.000,-4.500,-10.000
2.193,-3.000,0.500,-5.000,-10.500
2.194,-3.500,-1.000,-5.500,-10.500
2.195,-4.000,-2.000,-6.500,-10.500
2.196,-4.000,-2.500,-7.000,-11.000
2.197,-4.000,-3.000,-7.000,-11.000
2.198,-3.500,-3.000,-7.000,-10.500
2.199,-3.000,-3.000,-6.500,-10.500
2.200,-3.000,-3.500,-6.000,-10.500
2.201,-3.000,-3.500,-5.500,-10.000
2.202,-3.000,-4.000,-5.000,-10.000
2.203,-3.000,-4.000,-5.000,-10.500
2.204,-3.000,-4.000,-5.500,-11.000
2.205,-3.000,-4.000,-6.000,-11.500
2.206,-3.000,-4.000,-6.000,-11.500
2.207,-3.000,-4.000,-6.500,-12.000
2.208,-3.500,-4.500,-6.500,-11.500
2.209,-3.500,-5.000,-6.500,-11.500
2.210,-3.500,-5.500,-6.500,-11.500
2.211,-3.500,-5.500,-6.500,-11.500
2.212,-3.500,-5.500,-6.500,-12.000
2.213,-3.500,-6.000,-6.500,-12.000
2.214,-3.500,-6.000,-6.000,-12.000
2.215,-3.500,-6.000,-6.000,-12.000
2.216,-3.500,-6.500,-5.500,-12.000
2.217,-4.000,-7.000,-5.500,-12.000
2.218,-4.000,-8.000,-5.500,-12.500
2.219,-4.500,-8.500,-6.000,-13.000
2.220,-4.500,-8.500,-6.500,-13.500
2.221,-4.500,-9.000,-6.500,-13.500
2.222,-4.500,-9.000,-6.000,-13.500
2.223,-4.500,-9.000,-5.500,-13.000
2.224,-4.500,-9.500,-5.000,-13.000
2.225,-5.000,-10.000,-5.000,-13.500
2.226,-4.500,-10.000,-5.000,-13.500
2.227,-4.500,-9.500,-5.500,-14.000
2.228,-4.500,-9.000,-6.000,-14.000
2.229,-4.000,-8.500,-6.000,-14.000
2.230,-4.000,-8.500,-6.000,-13.500
2.231,-4.000,-9.000,-6.000,-13.500
2.232,-4.000,-10.000,-5.500,-13.500
2.233,-4.500,-11.000,-5.000,-13.500
2.234,-4.500,-11.500,-5.000,-14.000
2.235,-4.500,-12.000,-4.500,-14.500
2.236,-4.500,-12.000,-4.500,-15.000
2.237,-4.500,-12.000,-5.000,-15.000
2.238,-5.000,-12.500,-5.000,-15.000
2.239,-5.000,-13.000,-5.500,-15.000
2.240,-5.000,-13.500,-6.000,-15.000
2.241,-5.500,-13.500,-6.000,-15.000
2.242,-5.000,-13.500,-6.000,-15.000
2.243,-5.000,-13.500,-6.000,-14.500
2.244,-4.500,-13.000,-5.500,-14.500
2.245,-4.000,-13.000,-5.000,-14.000
2.246,-3.500,-12.500,-5.000,-14.000
2.247,-3.000,-12.500,-4.500,-14.000
2.248,-3.000,-12.500,-4.500,-14.000
2.249,-2.500,-12.500,-4.500,-13.500
2.250,-2.000,-12.000,-4.500,-13.500
2.251,-2.000,-11.500,-4.500,-13.500
2.252,-1.500,-11.000,-5.000,-13.500
2.253,-1.500,-10.500,-5.000,-13.500
2.254,-1.500,-10.500,-5.000,-14.000
2.255,-1.500,-10.500,-5.500,-14.000
2.256,-2.000,-11.000,-6.000,-14.000
2.257,-2.500,-11.500,-6.500,-14.500
2.258,-3.500,-12.500,-7.000,-14.500
2.259,-4.000,-13.000,-7.000,-15.000
2.260,-4.500,-13.000,-7.000,-15.000
2.261,-4.500,-13.000,-7.000,-15.000
2.262,-4.000,-12.500,-6.500,-15.000
2.263,-3.500,-12.500,-5.500,-15.000
2.264,-3.000,-13.000,-5.000,-15.000
2.265,-3.000,-13.000,-5.000,-15.000
2.266,-3.000,-13.500,-4.500,-14.500
2.267,-3.000,-13.000,-4.500,-14.000
2.268,-3.000,-12.000,-4.500,-13.000
2.269,-2.500,-11.000,-4.000,-13.000
2.270,-2.500,-10.500,-4.000,-13.000
2.271,-2.500,-10.500,-4.500,-13.000
2.272,-3.000,-11.000,-5.000,-14.000
2.273,-4.000,-11.500,-5.500,-14.500
2.274,-4.500,-12.000,-5.500,-14.500
2.275,-4.500,-12.500,-5.500,-14.500
2.276,-4.500,-12.500,-5.000,-14.500
2.277,-4.500,-12.500,-4.500,-14.000
2.278,-4.500,-12.500,-4.000,-14.000
2.279,-4.500,-13.000,-4.000,-14.000
2.280,-5.000,-13.500,-4.000,-14.000
2.281,-5.000,-14.000,-4.000,-14.000
2.282,-5.000,-14.000,-4.000,-14.000
2.283,-4.500,-14.000,-4.000,-14.000
2.284,-4.500,-14.000,-4.000,-14.000
2.285,-4.500,-14.000,-4.000,-14.500
2.286,-4.500,-14.000,-4.500,-15.000
2.287,-5.000,-14.500,-4.500,-15.000
2.288,-5.500,-15.000,-5.000,-15.500
2.289,-6.000,-15.500,-5.000,-16.000
2.290,-6.000,-16.000,-5.500,-16.000
2.291,-6.000,-16.000,-5.500,-16.500
2.292,-5.500,-16.500,-6.000,-17.000
2.293,-6.000,-16.500,-6.000,-17.500
2.294,-6.000,-16.000,-6.500,-18.000
2.295,-6.500,-15.500,-6.500,-18.500
2.296,-6.500,-15.000,-7.000,-18.500
2.297,-6.000,-14.000,-7.000,-18.500
2.298,-6.000,-13.500,-7.000,-18.000
2.299,-5.500,-13.500,-7.000,-18.000
2.300,-5.500,-14.000,-7.000,-18.000
2.301,-5.500,-14.500,-6.500,-18.000
2.302,-5.500,-14.500,-6.500,-18.000
2.303,-6.000,-15.000,-6.500,-18.000
2.304,-6.000,-15.000,-6.500,-17.500
2.305,-6.000,-15.000,-6.500,-17.500
2.306,-5.500,-15.000,-6.000,-17.000
2.307,-5.500,-15.000,-6.000,-16.500
2.308,-5.500,-14.500,-6.500,-16.500
2.309,-6.000,-14.500,-6.500,-16.500
2.310,-6.500,-14.500,-7.000,-17.000
2.311,-6.500,-15.000,-7.000,-17.500
2.312,-7.000,-15.500,-7.000,-18.000
2.313,-7.000,-15.500,-7.000,-18.000
2.314,-6.500,-15.500,-7.000,-18.000
2.315,-6.500,-15.000,-7.000,-18.000
2.316,-6.000,-14.500,-7.500,-17.500
2.317,-6.000,-14.500,-7.500,-17.500
2.318,-6.000,-14.500,-7.500,-17.500
2.319,-6.500,-15.000,-7.500,-17.500
2.320,-6.500,-16.000,-7.000,-17.500
2.321,-7.000,-16.500,-6.500,-17.000
2.322,-6.500,-16.500,-6.000,-16.500
2.323,-6.500,-16.000,-6.500,-16.500
2.324,-6.500,-14.500,-6.500,-16.500
2.325,-7.000,-13.500,-7.000,-16.500
2.326,-7.000,-12.500,-7.500,-16.500
2.327,-7.500,-11.500,-7.500,-16.500
2.328,-7.500,-11.500,-7.500,-16.500
2.329,-7.500,-11.000,-7.500,-16.000
2.330,-7.000,-10.000,-6.500,-15.500
2.331,-6.000,-9.000,-6.000,-15.500
2.332,-5.000,-8.000,-5.000,-15.000
2.333,-4.500,-7.000,-4.500,-15.000
2.334,-4.500,-6.500,-4.500,-15.500
2.335,-4.500,-6.500,-5.000,-15.500
2.336,-4.500,-7.000,-6.000,-15.500
2.337,-5.000,-7.500,-6.500,-16.000
2.338,-5.000,-8.000,-6.500,-16.000
2.339,-5.000,-8.500,-6.500,-16.000
2.340,-5.000,-8.500,-6.000,-16.000
2.341,-5.000,-8.500,-6.000,-15.500
2.342,-5.500,-8.500,-6.000,-15.500
2.343,-6.000,-8.500,-6.000,-15.500
2.344,-6.500,-8.500,-6.000,-15.500
2.345,-6.500,-8.500,-6.000,-16.000
2.346,-6.000,-8.000,-6.000,-16.000
2.347,-6.000,-7.500,-5.500,-16.500
2.348,-5.500,-7.000,-5.500,-16.500
2.349,-5.000,-7.000,-5.500,-16.000
2.350,-5.500,-7.500,-6.000,-15.500
2.351,-6.000,-8.500,-6.500,-15.500
2.352,-6.500,-9.500,-6.500,-15.000
2.353,-6.500,-10.000,-6.500,-15.000
2.354,-6.500,-10.500,-6.500,-14.500
2.355,-6.500,-9.500,-6.000,-14.500
2.356,-6.000,-8.500,-5.500,-14.000
2.357,-5.500,-7.500,-5.500,-14.000
2.358,-5.500,-7.000,-6.000,-14.000
2.359,-6.000,-7.000,-6.500,-14.500
2.360,-6.500,-7.000,-7.000,-15.500
2.361,-7.000,-7.500,-7.500,-16.000
2.362,-7.500,-7.500,-8.000,-16.000
2.363,-7.000,-7.500,-7.500,-16.000
2.364,-7.000,-7.000,-7.500,-16.000
2.365,-6.500,-6.000,-7.000,-15.500
2.366,-6.500,-6.000,-6.500,-15.500
2.367,-7.000,-6.000,-6.500,-15.500
2.368,-7.500,-6.000,-7.000,-15.500
2.369,-7.500,-5.500,-7.000,-15.500
2.370,-8.000,-5.500,-7.000,-16.000
2.371,-7.500,-5.500,-7.500,-16.000
2.372,-7.500,-5.500,-7.500,-16.500
2.373,-7.500,-6.000,-8.000,-16.500
2.374,-8.000,-6.500,-8.000,-17.000
2.375,-8.500,-6.500,-8.500,-17.000
2.376,-9.000,-7.000,-8.500,-17.000
2.377,-9.500,-6.500,-8.000,-16.500
2.378,-9.500,-6.500,-7.500,-16.500
2.379,-9.000,-6.500,-7.000,-16.000
2.380,-9.000,-6.000,-6.500,-16.000
2.381,-8.500,-6.000,-6.500,-15.500
2.382,-8.500,-6.500,-6.500,-16.000
2.383,-9.000,-7.000,-7.000,-16.000
2.384,-9.500,-7.000,-8.000,-16.500
2.385,-9.500,-7.000,-8.500,-16.500
2.386,-9.000,-7.000,-8.500,-17.000
2.387,-8.500,-6.500,-8.500,-16.500
2.388,-8.000,-6.000,-8.500,-16.500
2.389,-8.000,-5.500,-8.500,-16.000
2.390,-8.000,-5.500,-8.500,-16.000
2.391,-8.500,-5.500,-9.000,-16.500
2.392,-9.500,-5.500,-10.000,-16.500
2.393,-10.000,-5.000,-10.000,-17.000
2.394,-10.000,-5.000,-9.500,-17.000
2.395,-9.500,-5.000,-9.000,-16.500
2.396,-9.000,-4.500,-8.000,-16.000
2.397,-8.000,-4.500,-7.000,-15.500
2.398,-7.500,-4.500,-6.000,-14.500
2.399,-7.000,-4.500,-5.500,-14.000
2.400,-6.500,-4.500,-5.000,-13.000
2.401,-6.000,-4.000,-4.500,-11.500
2.402,-5.000,-3.000,-3.500,-10.000
2.403,-3.500,-1.000,-2.500,-7.500
2.404,-1.500,1.000,-0.500,-5.000
2.405,0.500,3.000,1.500,-1.500
2.406,2.000,5.000,3.500,1.500
2.407,3.500,6.500,5.500,4.000
2.408,4.000,7.500,6.000,5.000
2.409,4.000,7.500,6.000,5.000
2.410,4.000,7.000,5.500,4.500
2.411,3.500,6.000,4.000,3.000
2.412,2.500,5.000,3.000,2.000
2.413,2.000,4.000,2.000,0.000
2.414,1.000,2.500,1.000,-2.000
2.415,-0.500,1.000,-1.000,-4.500
2.416,-2.000,-1.500,-3.500,-8.000
2.417,-4.000,-4.500,-6.500,-12.500
2.418,-6.000,-8.000,-9.500,-17.000
2.419,-7.500,-11.000,-12.500,-21.500
2.420,-9.500,-14.000,-14.500,-24.500
2.421,-10.500,-15.500,-15.500,-26.500
2.422,-11.000,-16.500,-15.500,-27.500
2.423,-11.500,-16.500,-14.500,-27.500
2.424,-11.500,-16.000,-14.000,-26.500
2.425,-11.500,-15.500,-13.000,-26.000
2.426,-11.000,-14.500,-12.500,-25.000
2.427,-11.000,-14.000,-12.000,-24.000
2.428,-10.500,-13.500,-11.500,-23.000
2.429,-10.500,-13.000,-11.000,-22.000
2.430,-10.500,-12.000,-10.000,-20.500
2.431,-10.000,-11.000,-9.000,-19.500
2.432,-10.000,-10.000,-8.500,-18.500
2.433,-9.500,-9.500,-8.000,-18.000
2.434,-9.500,-9.500,-7.500,-18.000
2.435,-9.500,-9.500,-8.000,-17.500
2.436,-9.500,-9.500,-8.000,-17.500
2.437,-9.500,-9.500,-8.500,-17.000
2.438,-9.000,-9.000,-8.500,-16.000
2.439,-8.500,-8.500,-8.500,-16.000
2.440,-8.500,-8.000,-8.500,-16.000
2.441,-8.500,-7.500,-8.000,-16.000
2.442,-8.500,-7.500,-8.500,-16.000
2.443,-9.000,-7.000,-8.500,-15.500
2.444,-9.000,-7.000,-8.500,-15.500
2.445,-8.500,-7.000,-8.500,-15.000
2.446,-8.500,-7.000,-9.000,-14.500
2.447,-8.500,-7.500,-9.000,-14.500
2.448,-9.000,-8.000,-9.000,-15.000
2.449,-9.000,-8.000,-9.000,-15.500
2.450,-9.000,-8.000,-8.500,-15.500
2.451,-9.000,-8.000,-8.500,-15.500
2.452,-8.500,-7.000,-8.500,-15.500
2.453,-8.000,-6.500,-8.500,-15.000
2.454,-7.500,-6.000,-8.500,-15.000
2.455,-7.500,-5.000,-8.500,-15.000
2.456,-8.000,-5.000,-8.000,-15.000
2.457,-7.500,-5.000,-7.500,-15.000
2.458,-7.500,-5.000,-7.500,-15.000
2.459,-7.000,-5.500,-7.500,-15.000
2.460,-7.500,-6.000,-8.000,-15.000
2.461,-8.000,-6.500,-8.500,-15.500
2.462,-8.500,-7.000,-9.500,-15.500
2.463,-9.500,-7.000,-10.500,-16.000
2.464,-9.500,-7.000,-10.500,-16.000
2.465,-9.500,-6.500,-10.500,-16.000
2.466,-9.000,-6.000,-10.000,-16.000
2.467,-8.000,-5.000,-10.000,-16.000
2.468,-7.500,-4.000,-9.500,-16.000
2.469,-7.500,-3.500,-9.000,-15.500
2.470,-7.500,-3.500,-8.500,-15.000
2.471,-8.000,-3.500,-7.500,-14.500
2.472,-8.000,-4.500,-7.000,-14.000
2.473,-7.500,-5.500,-6.000,-13.500
2.474,-7.500,-7.000,-5.500,-13.500
2.475,-6.500,-7.500,-5.000,-13.500
2.476,-6.000,-8.000,-5.000,-13.500
2.477,-5.500,-8.000,-5.000,-13.500
2.478,-4.500,-7.500,-5.000,-13.500
2.479,-4.000,-7.000,-4.500,-12.500
2.480,-3.000,-6.000,-4.000,-11.500
2.481,-1.500,-5.000,-2.500,-10.500
2.482,-0.500,-3.500,-1.500,-9.000
2.483,1.000,-2.000,0.000,-8.000
2.484,1.500,0.000,1.000,-7.000
2.485,2.000,1.000,2.500,-6.000
2.486,2.000,2.000,3.000,-5.000
2.487,2.000,2.500,4.000,-3.500
2.488,1.500,2.500,5.000,-2.500
2.489,1.000,2.500,5.500,-1.000
2.490,0.000,2.500,6.000,0.000
2.491,-1.000,3.000,6.000,0.500
2.492,-3.000,2.500,5.500,1.500
2.493,-5.000,2.500,5.000,2.000
2.494,-7.000,1.500,4.000,3.000
2.495,-9.000,0.000,3.500,3.500
2.496,-11.000,-1.000,3.000,4.500
2.497,-13.500,-2.500,3.000,5.000
2.498,-16.000,-3.500,3.000,5.500
2.499,-18.500,-5.000,2.500,5.500
2.500,-21.500,-6.000,2.000,5.500
2.501,-24.500,-7.000,1.500,5.500
2.502,-27.500,-8.000,0.000,5.000
2.503,-30.000,-8.500,-1.000,4.500
2.504,-32.000,-9.000,-2.500,4.000
2.505,-34.000,-9.000,-4.000,3.000
2.506,-35.500,-9.500,-5.500,2.000
2.507,-37.000,-10.000,-7.500,1.000
2.508,-38.000,-11.000,-8.500,0.000
2.509,-39.000,-11.500,-9.500,-0.500
2.510,-39.000,-12.000,-9.500,-0.500
2.511,-39.000,-12.000,-8.500,-0.500
2.512,-38.500,-11.500,-7.500,-1.000
2.513,-37.500,-10.500,-7.000,-1.000
2.514,-36.500,-10.500,-6.500,-1.500
2.515,-35.000,-10.000,-7.000,-2.500
2.516,-34.000,-10.500,-8.000,-4.000
2.517,-32.500,-11.500,-9.000,-5.500
2.518,-31.000,-12.000,-9.500,-7.500
2.519,-29.000,-12.500,-10.500,-9.500
2.520,-27.000,-12.500,-11.000,-12.000
2.521,-24.500,-12.000,-11.500,-14.500
2.522,-22.000,-11.500,-12.000,-17.000
2.523,-19.500,-11.500,-13.000,-19.000
2.524,-17.500,-12.000,-13.000,-20.500
2.525,-15.500,-12.000,-13.000,-21.500
2.526,-13.500,-12.000,-12.500,-22.000
2.527,-12.000,-11.500,-12.500,-22.500
2.528,-11.500,-10.500,-13.000,-22.500
2.529,-11.000,-10.000,-13.500,-23.000
2.530,-10.500,-9.500,-14.000,-23.500
2.531,-10.500,-9.000,-14.000,-23.500
2.532,-10.000,-8.500,-14.000,-23.500
2.533,-9.500,-8.000,-13.500,-23.000
2.534,-9.000,-7.500,-13.000,-22.000
2.535,-8.000,-6.500,-13.000,-21.500
2.536,-7.500,-6.000,-12.500,-21.000
2.537,-6.500,-5.000,-12.500,-20.500
2.538,-6.000,-4.000,-12.000,-20.000
2.539,-5.500,-3.500,-11.000,-19.500
2.540,-5.000,-3.000,-10.500,-19.500
2.541,-5.000,-3.000,-9.500,-19.000
2.542,-5.000,-3.000,-9.500,-18.000
2.543,-5.000,-3.000,-9.500,-18.000
2.544,-5.000,-3.500,-9.500,-17.500
2.545,-5.000,-4.000,-9.500,-17.000
2.546,-5.000,-4.000,-9.000,-16.500
2.547,-5.000,-4.000,-8.000,-16.000
2.548,-4.500,-3.500,-7.500,-15.000
2.549,-4.000,-3.000,-6.500,-14.000
2.550,-4.000,-3.000,-6.000,-13.000
2.551,-4.000,-2.500,-5.500,-12.500
2.552,-4.000,-2.000,-5.000,-12.000
2.553,-4.000,-1.500,-4.500,-11.500
2.554,-4.500,-0.500,-4.500,-11.000
2.555,-4.000,1.000,-4.500,-10.000
2.556,-4.000,2.000,-4.500,-9.500
2.557,-3.500,3.000,-4.500,-9.000
2.558,-3.500,3.500,-4.500,-9.000
2.559,-3.500,4.000,-4.000,-9.000
2.560,-3.500,4.000,-3.500,-8.500
2.561,-3.000,4.000,-3.000,-8.000
2.562,-2.500,4.500,-2.500,-7.500
2.563,-2.000,5.000,-2.000,-7.000
2.564,-1.500,5.500,-2.000,-6.500
2.565,-1.500,6.000,-2.000,-6.500
2.566,-1.500,6.500,-2.500,-7.000
2.567,-1.500,7.000,-2.500,-7.500
2.568,-1.500,7.000,-2.500,-7.500
2.569,-2.000,7.500,-2.500,-8.000
2.570,-2.000,7.000,-2.000,-8.000
2.571,-2.000,7.000,-2.000,-8.500
2.572,-2.000,6.500,-2.500,-9.000
2.573,-2.000,5.500,-2.500,-9.000
2.574,-2.000,5.500,-2.500,-8.500
2.575,-1.500,5.500,-2.000,-8.000
2.576,-1.000,5.500,-2.000,-7.000
2.577,-0.500,6.000,-1.500,-6.500
2.578,0.000,6.500,-1.000,-5.500
2.579,0.000,7.000,-1.000,-5.000
2.580,0.000,7.500,-0.500,-5.000
2.581,0.000,7.500,-0.500,-5.000
2.582,0.000,7.500,-0.500,-5.000
2.583,-0.500,7.500,-0.500,-5.000
2.584,-0.500,7.000,-0.500,-5.000
2.585,-1.000,7.000,-0.500,-5.000
2.586,-1.000,6.500,-0.500,-5.500
2.587,-1.500,6.500,-0.500,-5.500
2.588,-1.500,6.500,0.000,-5.500
2.589,-1.500,6.500,0.000,-5.500
2.590,-1.000,7.000,0.500,-5.000
2.591,-1.000,7.000,0.500,-5.000
2.592,-1.000,7.000,0.500,-5.000
2.593,-1.000,7.000,0.000,-5.000
2.594,-1.000,7.000,0.000,-5.000
2.595,-1.000,6.500,0.000,-5.500
2.596,-1.500,6.000,0.000,-5.000
2.597,-1.500,5.500,0.500,-5.000
2.598,-1.500,5.000,0.500,-4.500
2.599,-1.500,4.500,0.500,-4.500
2.600,-1.500,4.000,0.500,-4.000
2.601,-1.500,4.000,0.500,-4.000
2.602,-1.500,3.500,0.500,-4.000
2.603,-1.500,3.500,0.500,-4.000
2.604,-1.000,3.500,0.500,-4.000
2.605,-1.000,3.000,0.500,-3.500
2.606,-1.000,3.000,0.500,-3.500
2.607,-1.000,3.000,0.500,-3.500
2.608,-1.000,3.000,1.000,-3.500
2.609,-1.000,3.500,1.500,-3.000
2.610,-1.500,3.500,2.000,-3.000
2.611,-1.000,3.500,2.500,-2.000
2.612,-1.000,3.000,2.500,-1.500
2.613,-0.500,3.000,3.000,-1.000
2.614,-0.500,3.500,3.000,-1.000
2.615,0.000,4.000,2.500,-1.000
2.616,0.000,4.000,2.500,-1.000
2.617,0.000,4.500,2.500,-1.000
2.618,0.000,4.500,2.000,-1.000
2.619,0.000,4.500,2.000,-0.500
2.620,0.000,4.500,2.000,0.000
2.621,0.500,5.000,2.000,0.000
2.622,0.500,5.500,2.000,0.000
2.623,1.000,6.000,2.000,-0.500
2.624,1.000,6.500,2.000,-0.500
2.625,0.500,6.500,2.000,-0.500
2.626,0.000,6.000,2.500,-0.500
2.627,-0.500,5.500,2.500,-0.500
2.628,-0.500,5.000,3.000,-0.500
2.629,-0.500,4.500,3.000,-0.500
2.630,-0.500,4.500,3.000,-1.000
2.631,0.000,4.500,3.000,-1.000
2.632,0.000,4.500,3.000,-1.000
2.633,-0.500,4.000,3.500,-0.500
2.634,-0.500,4.000,3.500,0.000
2.635,-1.000,3.500,4.000,0.500
2.636,-1.000,3.000,4.000,1.000
2.637,-1.000,3.000,4.000,1.000
2.638,-0.500,2.500,3.500,1.000
2.639,-0.500,2.000,3.000,1.000
2.640,-0.500,2.000,2.500,1.000
2.641,0.000,2.500,2.500,1.500
2.642,0.000,3.000,2.500,2.000
2.643,0.500,4.000,3.500,2.500
2.644,0.500,5.000,4.000,2.500
2.645,1.000,5.500,4.500,2.500
2.646,1.000,5.500,5.000,2.500
2.647,1.000,5.500,5.000,2.000
2.648,1.000,5.500,5.000,2.000
2.649,1.000,5.000,5.000,2.000
2.650,1.000,5.000,5.000,2.000
2.651,1.000,4.500,5.000,2.500
2.652,1.000,4.500,5.000,3.000
2.653,1.000,4.000,5.000,3.000
2.654,1.000,4.000,4.500,3.500
2.655,0.500,4.500,4.500,3.500
2.656,0.500,4.500,4.000,3.000
2.657,0.000,5.000,4.000,3.000
2.658,0.000,5.500,4.000,3.000
2.659,0.000,6.000,4.000,3.000
2.660,0.500,6.000,4.000,3.500
2.661,0.500,6.000,4.500,4.500
2.662,1.000,5.500,4.500,4.500
2.663,1.000,4.500,5.000,5.000
2.664,1.000,4.000,5.000,4.500
2.665,1.000,4.000,5.000,4.500
2.666,1.500,4.500,5.500,4.000
2.667,1.500,5.000,5.500,4.000
2.668,1.500,5.500,5.500,4.000
2.669,1.500,6.000,5.500,4.000
2.670,1.000,6.500,5.000,4.000
2.671,0.500,6.500,4.500,3.500
2.672,0.000,6.000,3.500,3.000
2.673,-0.500,5.500,3.000,2.500
2.674,-1.000,5.500,2.500,2.500
2.675,-1.000,5.500,2.500,3.000
2.676,-0.500,5.500,2.500,3.500
2.677,-0.500,6.000,3.000,4.000
2.678,-0.500,6.000,3.500,4.000
2.679,-0.500,6.500,3.500,4.000
2.680,-0.500,7.000,3.500,4.000
2.681,-1.000,7.000,3.000,3.500
2.682,-1.500,7.500,3.000,3.000
2.683,-1.500,7.500,2.500,3.000
2.684,-2.000,7.500,3.000,3.500
2.685,-2.000,8.000,3.000,4.000
2.686,-2.000,8.000,3.500,4.500
2.687,-2.000,8.000,4.000,5.000
2.688,-2.500,8.000,4.500,5.000
2.689,-3.000,8.000,4.000,5.000
2.690,-3.500,7.500,4.000,5.000
2.691,-3.500,7.500,3.500,5.500
2.692,-3.500,7.500,3.500,5.500
2.693,-3.500,7.500,4.000,5.500
2.694,-3.500,7.500,4.000,5.500
2.695,-3.000,7.000,4.500,5.500
2.696,-3.500,6.500,4.500,5.000
2.697,-3.500,6.000,4.500,4.500
2.698,-4.500,5.500,4.000,4.500
2.699,-4.500,5.500,4.000,4.500
2.700,-5.000,6.500,4.000,4.500
2.701,-4.500,7.500,4.000,5.000
2.702,-4.500,8.000,4.000,5.500
2.703,-4.000,8.500,4.500,6.000
2.704,-4.000,8.500,4.500,6.500
2.705,-4.500,8.000,4.500,6.500
2.706,-4.500,7.500,4.500,7.000
2.707,-5.000,7.500,4.500,7.000
2.708,-5.500,8.000,4.000,7.000
2.709,-5.500,8.000,3.500,7.000
2.710,-5.500,8.500,3.000,6.500
2.711,-5.500,8.500,3.000,6.000
2.712,-5.500,8.500,3.000,5.500
2.713,-5.500,8.500,3.000,5.500
2.714,-6.000,8.000,2.500,5.000
2.715,-6.000,8.000,2.500,5.500
2.716,-6.500,8.000,2.500,5.500
2.717,-6.500,7.500,3.000,5.500
2.718,-6.000,7.500,3.500,5.500
2.719,-6.000,8.000,4.000,5.500
2.720,-5.500,8.000,4.000,5.500
2.721,-5.500,8.500,4.000,5.000
2.722,-5.500,9.000,4.000,5.000
2.723,-5.500,9.000,4.000,5.500
2.724,-6.000,9.000,4.000,5.500
2.725,-6.000,8.500,4.000,5.500
2.726,-6.500,8.000,4.000,5.500
2.727,-7.000,7.000,3.500,5.000
2.728,-8.000,6.000,3.000,4.500
2.729,-8.500,5.500,2.000,4.000
2.730,-9.500,5.000,1.000,3.500
2.731,-10.000,5.000,0.000,3.000
2.732,-10.500,5.000,-0.500,2.500
2.733,-10.500,5.000,-0.500,2.500
2.734,-10.000,5.000,0.000,2.500
2.735,-10.000,5.000,0.500,3.000
2.736,-9.500,6.000,0.500,3.500
2.737,-9.000,7.000,0.500,4.000
2.738,-8.500,8.500,1.000,4.500
2.739,-8.000,9.500,1.000,4.500
2.740,-7.500,10.500,1.000,5.000
2.741,-7.000,11.000,1.500,5.000
2.742,-6.500,11.000,2.000,5.500
2.743,-6.500,11.000,2.500,5.500
2.744,-6.500,10.500,2.500,6.000
2.745,-7.000,10.500,3.000,6.000
2.746,-7.000,10.500,3.000,6.500
2.747,-7.000,10.500,3.000,7.000
2.748,-6.500,11.000,3.500,7.000
2.749,-6.000,11.000,3.500,7.500
2.750,-5.500,11.000,3.500,7.000
2.751,-5.000,11.500,3.500,6.500
2.752,-5.000,11.500,3.500,6.000
2.753,-5.500,11.000,3.500,5.500
2.754,-5.500,10.500,3.000,5.000
2.755,-6.000,9.500,3.000,5.500
2.756,-6.000,9.000,3.500,5.500
2.757,-6.500,8.500,3.500,6.000
2.758,-6.500,8.000,4.000,6.000
2.759,-6.000,8.500,4.500,6.000
2.760,-5.500,9.000,4.500,6.000
2.761,-4.500,9.500,5.000,6.000
2.762,-4.000,10.500,5.500,6.000
2.763,-3.000,10.500,5.500,6.000
2.764,-2.500,10.500,5.500,6.000
2.765,-2.000,10.500,5.500,6.000
2.766,-2.000,10.000,5.500,5.500
2.767,-2.500,10.000,5.000,5.000
2.768,-3.000,10.000,4.500,5.000
2.769,-3.000,10.000,4.000,4.500
2.770,-3.500,10.500,4.000,4.000
2.771,-3.000,10.500,4.000,4.000
2.772,-2.500,10.500,4.500,4.500
2.773,-2.000,11.000,5.000,5.000
2.774,-1.000,11.500,5.500,5.000
2.775,-0.500,12.000,6.000,5.000
2.776,-0.500,12.500,6.000,5.000
2.777,-0.500,13.000,5.500,4.000
2.778,-1.000,13.000,5.500,3.500
2.779,-1.000,12.500,6.000,3.000
2.780,-0.500,12.000,6.000,2.500
2.781,0.500,12.000,6.000,2.500
2.782,1.000,12.500,6.500,2.500
2.783,2.000,13.000,6.500,3.000
2.784,2.500,14.000,7.000,3.500
2.785,3.500,15.000,7.500,4.000
2.786,4.000,16.000,7.500,4.000
2.787,4.500,16.500,8.000,4.500
2.788,4.500,17.000,8.000,4.000
2.789,5.000,16.500,8.000,3.500
2.790,4.500,16.000,7.000,3.000
2.791,4.500,15.000,6.500,2.500
2.792,4.000,14.000,6.000,2.500
2.793,4.000,13.000,6.000,2.500
2.794,4.000,13.000,6.500,3.000
2.795,4.500,13.000,7.500,3.500
2.796,5.500,13.000,8.000,4.000
2.797,6.500,13.500,8.500,4.000
2.798,7.000,13.500,8.500,4.000
2.799,7.500,13.500,8.000,3.500
2.800,8.000,13.500,7.500,3.000
2.801,7.500,13.000,7.500,3.000
2.802,7.500,13.500,7.500,3.000
2.803,7.500,13.500,8.000,3.500
2.804,8.000,14.000,8.000,4.500
2.805,8.500,14.500,8.500,5.000
2.806,8.500,14.500,8.500,5.000
2.807,8.500,14.000,8.000,5.000
2.808,8.500,13.500,7.500,4.000
2.809,8.000,13.000,7.500,3.500
2.810,7.500,12.500,7.000,3.000
2.811,7.500,12.000,7.000,2.500
2.812,7.500,11.500,7.000,2.000
2.813,7.500,11.000,7.000,2.000
2.814,7.000,10.500,7.000,2.000
2.815,6.500,10.000,6.500,1.500
2.816,6.000,9.000,6.000,1.000
2.817,5.500,8.000,5.500,1.000
2.818,5.000,7.500,5.500,1.000
2.819,5.000,7.500,5.500,1.000
2.820,5.000,8.000,6.000,1.500
2.821,6.000,9.000,6.500,2.000
2.822,7.000,10.500,7.000,2.500
2.823,8.000,11.500,8.000,4.000
2.824,9.000,12.500,9.000,5.500
2.825,10.500,13.000,10.000,7.000
2.826,11.000,14.000,11.500,9.000
2.827,12.000,15.500,13.000,11.500
2.828,13.000,17.000,15.000,14.000
2.829,14.500,19.000,16.500,16.500
2.830,16.500,21.500,18.000,19.500
2.831,18.500,23.500,19.500,22.000
2.832,20.000,24.500,20.500,24.000
2.833,21.000,25.000,21.000,24.500
2.834,21.000,24.500,21.000,25.000
2.835,20.500,23.500,20.000,24.000
2.836,19.500,22.500,19.000,22.500
2.837,18.500,21.000,18.000,21.000
2.838,17.500,19.500,16.000,19.000
2.839,16.500,17.500,14.000,16.500
2.840,14.500,15.000,11.000,13.000
2.841,12.000,11.500,8.500,9.000
2.842,9.000,8.000,5.000,4.000
2.843,6.500,4.500,2.500,-0.500
2.844,4.000,1.500,0.000,-4.500
2.845,2.500,-0.500,-1.500,-7.000
2.846,1.500,-1.500,-2.000,-8.500
2.847,1.500,-1.500,-2.000,-8.500
2.848,2.000,-1.000,-1.000,-7.500
2.849,2.000,-0.500,-0.500,-7.000
2.850,2.500,0.500,0.500,-6.000
2.851,3.000,2.000,1.000,-5.500
2.852,3.500,3.000,1.500,-5.000
2.853,4.000,4.500,2.500,-4.000
2.854,5.000,5.500,3.000,-3.000
2.855,5.500,6.500,3.500,-2.000
2.856,6.000,7.000,4.000,-1.000
2.857,6.500,8.000,4.500,-0.500
2.858,7.000,8.500,4.500,0.000
2.859,7.500,9.000,4.500,0.000
2.860,8.000,9.500,5.000,0.500
2.861,8.500,10.000,5.000,0.500
2.862,9.000,10.500,5.000,1.500
2.863,9.500,11.000,5.500,2.000
2.864,9.000,11.500,6.000,2.500
2.865,8.500,11.500,6.000,3.000
2.866,8.500,11.500,6.500,3.000
2.867,8.500,11.500,6.500,2.500
2.868,8.500,11.000,6.500,2.000
2.869,9.000,10.500,6.000,1.500
2.870,9.000,10.500,6.000,1.500
2.871,8.500,10.500,5.500,1.500
2.872,8.000,11.000,5.000,1.500
2.873,8.000,12.000,5.000,2.000
2.874,8.000,12.500,5.000,2.000
2.875,8.500,13.500,5.500,2.000
2.876,9.000,13.500,6.000,2.000
2.877,9.500,13.500,6.500,1.500
2.878,9.500,13.000,6.500,1.500
2.879,9.000,12.500,6.000,1.500
2.880,8.500,12.000,6.000,2.000
2.881,8.500,12.000,6.000,3.000
2.882,8.500,12.500,6.500,3.500
2.883,8.500,13.000,7.000,3.500
2.884,9.000,13.500,7.000,3.500
2.885,9.500,13.500,7.000,3.000
2.886,9.500,13.000,7.000,3.000
2.887,9.500,12.500,6.500,3.000
2.888,9.000,12.000,6.500,3.500
2.889,8.500,12.000,6.000,3.500
2.890,8.500,12.000,6.000,3.500
2.891,8.500,12.000,6.000,3.000
2.892,9.000,11.500,6.500,2.500
2.893,9.500,11.500,6.500,2.500
2.894,10.000,11.500,7.000,3.000
2.895,11.000,11.500,7.500,4.000
2.896,11.500,11.500,7.500,5.000
2.897,12.000,12.000,7.500,5.500
2.898,11.500,11.500,7.000,5.500
2.899,11.500,11.500,7.000,5.000
2.900,11.000,11.000,6.500,4.500
2.901,11.000,10.500,6.500,4.000
2.902,10.500,10.000,6.500,4.000
2.903,10.500,10.000,7.000,4.500
2.904,10.500,10.500,7.500,5.000
2.905,10.500,11.000,8.000,5.000
2.906,10.500,11.500,8.500,5.500
2.907,10.500,12.000,9.000,5.500
2.908,10.500,12.000,9.000,5.000
2.909,11.000,12.500,9.000,5.000
2.910,11.500,12.000,8.500,5.000
2.911,12.500,12.000,8.000,5.500
2.912,12.500,12.000,8.000,5.500
2.913,12.500,12.500,7.500,6.000
2.914,12.500,13.000,8.000,6.000
2.915,12.500,13.500,8.000,6.000
2.916,13.000,14.500,8.500,6.000
2.917,13.500,15.000,8.500,6.000
2.918,14.000,15.500,8.500,6.500
2.919,14.000,15.500,8.500,6.500
2.920,14.000,15.500,8.000,6.500
2.921,13.500,15.000,8.000,6.500
2.922,12.500,15.000,8.000,6.000
2.923,12.000,15.000,8.000,6.000
2.924,12.000,14.500,8.000,5.500
2.925,12.000,14.000,8.000,5.000
2.926,12.000,13.000,7.000,5.000
2.927,12.000,12.000,6.500,4.500
2.928,11.500,11.500,5.500,4.000
2.929,11.000,11.500,4.500,3.500
2.930,11.000,11.500,4.500,3.500
2.931,11.000,12.000,4.500,3.500
2.932,11.500,12.000,5.000,4.000
2.933,12.500,11.500,6.000,4.500
2.934,12.500,11.500,6.500,5.500
2.935,13.000,11.500,7.500,6.000
2.936,12.500,11.500,8.500,6.000
2.937,12.000,12.000,9.000,6.000
2.938,11.500,12.500,9.500,6.000
2.939,11.500,13.500,9.000,5.500
2.940,11.500,13.500,8.500,5.000
2.941,11.500,13.000,8.000,4.500
2.942,11.000,12.500,7.000,4.500
2.943,10.500,12.000,7.000,4.500
2.944,10.000,12.000,7.000,5.000
2.945,10.000,12.000,7.500,5.000
2.946,9.500,12.000,8.500,5.500
2.947,10.000,12.000,8.500,5.500
2.948,10.500,12.000,9.000,5.000
2.949,11.000,11.500,9.000,5.000
2.950,11.500,11.500,8.500,4.500
2.951,11.500,12.000,8.500,4.000
2.952,11.500,12.000,8.500,4.000
2.953,11.500,12.500,8.500,4.500
2.954,12.000,13.000,8.500,5.000
2.955,12.500,13.000,9.000,5.500
2.956,12.500,12.500,9.500,6.000
2.957,13.000,12.000,10.000,6.500
2.958,12.500,11.500,10.000,7.000
2.959,12.500,11.000,9.500,7.000
2.960,12.500,10.500,9.000,6.500
2.961,12.500,10.000,8.500,6.500
2.962,12.500,10.000,8.000,6.500
2.963,13.000,9.500,8.500,6.500
2.964,13.500,9.500,8.500,6.500
2.965,13.500,9.500,9.500,7.000
2.966,13.500,10.000,10.000,7.500
2.967,13.000,10.000,10.000,7.500
2.968,12.500,10.500,10.000,7.500
2.969,12.000,10.500,10.000,7.000
2.970,11.500,10.500,10.000,6.500
2.971,11.500,11.000,9.500,6.000
2.972,11.500,11.000,9.000,6.000
2.973,11.500,11.500,8.500,6.000
2.974,12.000,12.500,8.000,6.000
2.975,12.000,13.000,8.000,6.000
2.976,12.000,13.000,8.000,6.000
2.977,12.000,13.000,8.000,6.000
2.978,12.000,13.000,8.000,6.000
2.979,12.500,12.500,8.500,6.000
2.980,12.500,12.500,8.500,6.500
2.981,12.500,12.500,8.500,7.000
2.982,13.000,13.000,8.000,7.500
2.983,13.000,13.500,8.500,7.500
2.984,13.000,14.000,8.500,8.000
2.985,13.500,14.500,8.500,7.500
2.986,13.500,15.000,8.500,7.500
2.987,13.500,15.000,8.500,7.000
2.988,13.500,15.000,8.500,6.500
2.989,14.000,15.000,8.000,6.500
2.990,15.000,15.000,7.500,6.000
2.991,15.500,15.000,7.500,6.000
2.992,15.500,15.000,7.500,6.500
2.993,15.500,15.000,7.500,6.500
2.994,15.000,15.000,8.000,7.000
2.995,14.500,14.500,8.000,7.000
2.996,14.000,13.500,7.500,6.500
2.997,13.500,13.000,7.000,6.000
2.998,13.000,12.500,6.500,6.000
2.999,12.500,12.500,6.500,5.500
3.000,12.500,12.500,6.500,6.000
3.001,12.500,12.500,7.000,6.500
3.002,12.500,12.500,7.500,7.000
3.003,12.500,13.000,7.500,7.000
3.004,12.500,13.000,7.000,7.000
3.005,12.000,13.000,6.500,6.500
3.006,12.000,13.000,5.500,6.000
3.007,12.000,13.000,5.000,5.500
3.008,12.000,12.500,5.500,5.500
3.009,12.000,12.000,5.500,5.500
3.010,12.000,11.500,6.000,6.000
3.011,11.500,11.500,6.000,6.000
3.012,11.500,11.000,5.500,6.000
3.013,10.500,10.500,5.000,5.500
3.014,10.000,10.500,4.500,5.000
3.015,9.500,10.500,4.000,5.000
3.016,9.000,10.500,4.500,4.500
3.017,9.000,10.500,5.000,4.000
3.018,9.500,11.000,5.500,4.000
3.019,9.500,11.500,6.000,4.000
3.020,10.000,12.000,6.000,3.500
3.021,10.000,12.000,6.000,3.500
3.022,10.000,12.000,6.000,4.000
3.023,10.000,11.500,5.500,4.500
3.024,10.000,11.000,5.500,4.500
3.025,10.000,10.500,5.500,5.000
3.026,9.500,10.500,5.000,4.500
3.027,9.500,10.500,4.500,4.000
3.028,9.500,10.500,4.500,3.500
3.029,9.500,11.000,4.500,2.500
3.030,9.500,11.500,4.000,2.000
3.031,9.500,12.000,4.000,1.500
3.032,9.000,13.000,4.000,1.500
3.033,9.000,13.000,4.000,1.000
3.034,9.000,13.500,3.500,1.000
3.035,9.000,13.000,3.000,0.500
3.036,9.000,13.000,2.500,0.500
3.037,9.000,12.500,1.500,0.000
3.038,9.000,12.500,1.000,0.000
3.039,9.000,12.500,1.000,0.000
3.040,9.000,12.500,1.500,0.500
3.041,9.000,12.000,2.000,0.500
3.042,9.000,11.500,3.000,0.500
3.043,8.500,11.000,3.000,0.500
3.044,8.500,11.000,3.000,0.500
3.045,8.000,10.500,3.000,0.000
3.046,8.000,10.000,2.000,-0.500
3.047,8.000,10.000,1.500,-0.500
3.048,8.000,9.000,1.000,-0.500
3.049,7.500,8.000,1.000,-0.500
3.050,7.500,7.500,1.000,-0.500
3.051,7.000,6.500,1.500,-0.500
3.052,6.500,6.500,1.500,-0.500
3.053,6.500,6.500,2.000,-1.000
3.054,6.500,6.500,1.500,-1.500
3.055,6.500,6.500,1.000,-2.000
3.056,7.000,6.500,0.500,-2.000
3.057,7.500,6.000,0.500,-2.000
3.058,8.000,5.500,0.500,-1.500
3.059,8.000,5.500,1.000,-1.500
3.060,8.000,6.000,1.500,-1.500
3.061,8.000,6.500,1.500,-1.500
3.062,8.000,7.000,2.000,-2.000
3.063,8.000,7.000,2.000,-2.500
3.064,8.000,6.500,2.000,-3.000
3.065,8.000,5.500,2.000,-3.000
3.066,7.500,5.000,2.000,-3.000
3.067,7.000,4.500,1.500,-3.000
3.068,6.000,4.000,1.000,-3.500
3.069,5.500,4.000,0.500,-4.000
3.070,5.500,4.000,-0.500,-5.000
3.071,5.500,4.000,-1.500,-5.500
3.072,5.500,4.000,-2.000,-6.000
3.073,5.500,4.000,-2.000,-6.000
3.074,5.500,4.000,-2.000,-5.500
3.075,5.500,4.000,-1.500,-5.000
3.076,5.500,4.000,-1.500,-5.000
3.077,5.500,3.500,-2.000,-5.000
3.078,5.000,3.500,-2.500,-5.000
3.079,5.000,3.000,-3.000,-5.500
3.080,4.500,3.000,-3.500,-5.500
3.081,4.500,3.000,-4.000,-5.500
3.082,4.000,3.500,-4.000,-5.500
3.083,4.000,4.000,-4.500,-6.000
3.084,3.500,4.000,-4.500,-6.500
3.085,3.500,3.500,-4.500,-7.000
3.086,3.000,3.000,-4.500,-7.500
3.087,2.500,2.000,-4.500,-8.000
3.088,2.000,1.500,-5.000,-8.000
3.089,1.500,0.500,-5.000,-8.000
3.090,1.500,0.500,-5.500,-8.000
3.091,2.000,0.500,-5.500,-8.000
3.092,2.000,0.500,-6.000,-8.000
3.093,2.000,0.500,-6.000,-8.000
3.094,2.000,0.500,-6.000,-8.000
3.095,1.500,0.000,-6.000,-7.500
3.096,1.500,0.000,-5.500,-7.500
3.097,1.500,0.500,-5.000,-7.000
3.098,2.000,1.000,-4.500,-6.500
3.099,2.000,1.000,-4.000,-7.000
3.100,2.000,1.500,-4.000,-7.500
3.101,2.000,1.500,-4.500,-8.000
3.102,2.000,1.500,-5.000,-8.000
3.103,2.000,1.500,-5.500,-8.000
3.104,1.500,2.000,-5.500,-8.000
3.105,1.500,2.500,-5.500,-7.500
3.106,1.500,3.000,-5.000,-7.000
3.107,2.000,3.500,-5.000,-7.000
3.108,2.000,4.000,-5.000,-7.000
3.109,2.500,4.000,-5.500,-7.500
3.110,2.500,4.000,-6.000,-7.500
3.111,2.500,4.000,-6.000,-7.500
3.112,2.000,3.500,-6.000,-7.000
3.113,2.000,3.500,-5.500,-6.500
3.114,1.500,3.500,-5.000,-6.000
3.115,2.000,3.000,-4.500,-6.000
3.116,2.000,3.000,-4.000,-6.500
3.117,2.500,3.000,-3.500,-7.000
3.118,2.500,3.000,-3.500,-7.500
3.119,2.500,3.000,-3.500,-7.500
3.120,2.500,3.000,-4.000,-7.500
3.121,2.500,2.500,-4.000,-7.500
3.122,2.500,1.500,-4.500,-8.000
3.123,2.500,1.000,-4.000,-8.000
3.124,2.500,0.500,-4.000,-8.000
3.125,2.500,0.000,-3.500,-8.000
3.126,2.000,-0.500,-3.000,-7.500
3.127,2.000,-1.000,-2.500,-7.500
3.128,1.500,-1.500,-2.000,-7.500
3.129,1.500,-2.500,-2.000,-7.500
3.130,1.500,-3.000,-2.500,-8.000
3.131,1.500,-3.500,-2.500,-8.500
3.132,2.000,-3.500,-3.000,-8.500
3.133,2.000,-3.000,-3.000,-8.500
3.134,1.500,-2.500,-3.500,-8.500
3.135,1.000,-2.500,-4.500,-8.500
3.136,0.000,-3.000,-5.000,-9.000
3.137,-0.500,-3.000,-6.000,-9.500
3.138,-1.000,-3.500,-6.500,-10.000
3.139,-1.000,-4.000,-7.000,-10.000
3.140,-1.000,-4.000,-7.000,-10.000
3.141,-0.500,-4.000,-6.500,-10.000
3.142,0.500,-3.500,-6.000,-9.500
3.143,1.000,-2.500,-5.500,-9.000
3.144,1.500,-2.000,-5.000,-8.500
3.145,1.500,-1.500,-5.000,-8.500
3.146,1.000,-1.000,-5.500,-9.000
3.147,1.000,-0.500,-6.000,-9.500
3.148,0.000,-0.500,-6.000,-10.000
3.149,-0.500,0.000,-6.000,-9.500
3.150,-0.500,0.000,-5.000,-9.500
3.151,0.000,1.000,-4.500,-9.000
3.152,0.500,1.500,-4.000,-8.500
3.153,1.500,2.500,-4.000,-8.500
3.154,2.000,3.500,-4.500,-8.000
3.155,2.500,4.000,-4.500,-8.000
3.156,2.500,4.500,-4.500,-8.000
3.157,2.500,5.000,-4.500,-7.500
3.158,2.500,5.000,-3.500,-7.500
3.159,2.500,5.000,-3.000,-7.500
3.160,2.500,4.500,-3.000,-7.500
3.161,2.500,4.000,-3.000,-8.000
3.162,2.500,4.000,-4.000,-9.000
3.163,2.500,4.000,-4.500,-9.000
3.164,2.500,4.000,-5.000,-8.500
3.165,2.500,4.500,-5.000,-8.000
3.166,2.000,4.500,-4.500,-7.500
3.167,2.000,4.000,-4.500,-7.000
3.168,1.500,3.000,-4.500,-7.500
3.169,1.000,2.000,-5.500,-8.000
3.170,0.500,1.000,-6.000,-8.500
3.171,0.000,1.000,-6.500,-8.500
3.172,0.500,1.500,-6.500,-8.500
3.173,0.500,2.500,-6.000,-7.500
3.174,1.500,3.500,-5.000,-7.500
3.175,1.500,4.000,-4.500,-7.000
3.176,1.500,4.000,-4.000,-7.500
3.177,1.000,3.500,-4.000,-7.500
3.178,0.500,3.500,-4.000,-7.500
3.179,0.500,3.000,-4.000,-7.500
3.180,0.500,3.000,-4.000,-7.000
3.181,0.500,2.500,-4.000,-7.000
3.182,0.000,1.500,-4.500,-7.000
3.183,-0.500,0.500,-5.000,-7.500
3.184,-1.000,-0.500,-6.000,-7.500
3.185,-1.000,-1.000,-6.000,-7.500
3.186,-0.500,0.000,-5.500,-6.500
3.187,0.500,1.000,-5.000,-6.000
3.188,1.500,2.000,-4.500,-5.000
3.189,2.000,2.500,-4.000,-5.000
3.190,2.000,3.000,-4.000,-5.000
3.191,1.000,3.000,-4.000,-5.500
3.192,0.500,3.000,-4.500,-6.000
3.193,0.000,3.000,-5.000,-6.500
3.194,0.000,3.000,-5.000,-6.500
3.195,0.500,3.500,-5.000,-6.500
3.196,1.000,3.500,-5.000,-6.500
3.197,1.000,3.500,-5.000,-6.500
3.198,1.000,3.500,-5.000,-7.000
3.199,0.500,3.000,-5.000,-7.000
3.200,0.000,3.000,-5.000,-7.000
3.201,0.000,3.000,-5.000,-7.000
3.202,0.000,3.000,-5.000,-7.000
3.203,0.500,3.000,-5.000,-7.000
3.204,0.500,3.000,-5.000,-7.500
3.205,1.000,3.000,-5.000,-7.500
3.206,1.000,2.500,-5.000,-7.500
3.207,0.500,1.500,-5.000,-7.000
3.208,0.000,1.000,-5.500,-7.000
3.209,-0.500,0.500,-5.500,-6.500
3.210,-1.500,0.000,-5.500,-6.500
3.211,-1.500,-0.500,-5.500,-6.500
3.212,-1.500,-0.500,-5.000,-6.500
3.213,-1.500,-1.000,-5.000,-7.000
3.214,-1.500,-1.000,-5.500,-7.500
3.215,-2.000,-1.500,-5.500,-7.500
3.216,-2.000,-1.500,-6.000,-7.500
3.217,-2.000,-1.000,-6.000,-7.000
3.218,-2.000,0.000,-5.500,-6.500
3.219,-1.500,0.500,-5.000,-6.000
3.220,-0.500,1.000,-4.500,-6.000
3.221,0.500,1.500,-4.500,-6.000
3.222,1.000,1.500,-4.500,-5.500
3.223,1.500,1.000,-4.500,-5.500
3.224,1.500,1.000,-4.500,-5.000
3.225,1.500,0.500,-4.500,-5.000
3.226,1.500,0.500,-4.000,-5.000
3.227,1.500,0.500,-4.000,-5.000
3.228,1.500,1.000,-4.000,-5.000
3.229,1.500,0.500,-4.500,-5.000
3.230,1.500,0.500,-5.000,-5.000
3.231,2.000,0.500,-5.000,-5.000
3.232,2.000,0.500,-5.000,-5.000
3.233,1.500,0.500,-5.000,-4.500
3.234,1.500,0.500,-5.000,-4.500
3.235,1.500,0.500,-5.000,-5.000
3.236,1.500,1.000,-5.000,-5.000
3.237,2.000,1.000,-5.000,-5.000
3.238,2.000,1.500,-5.000,-5.000
3.239,2.500,2.000,-4.500,-5.000
3.240,3.000,2.500,-4.000,-4.500
3.241,3.000,3.000,-4.000,-4.500
3.242,3.000,3.500,-4.000,-4.000
3.243,3.000,4.000,-4.000,-3.500
3.244,3.000,4.500,-3.500,-3.000
3.245,3.000,5.000,-3.500,-2.000
3.246,3.000,5.500,-3.000,-1.000
3.247,4.000,6.500,-2.000,0.500
3.248,5.000,8.000,-0.500,2.000
3.249,6.500,9.500,1.500,4.500
3.250,8.500,12.000,4.000,8.000
3.251,10.500,15.000,7.000,12.000
3.252,13.000,18.000,9.500,16.000
3.253,15.000,20.500,12.000,19.000
3.254,16.000,22.500,13.500,21.000
3.255,16.500,23.500,14.500,21.500
3.256,16.500,23.000,14.500,20.500
3.257,15.500,22.000,14.000,19.000
3.258,14.500,20.500,13.000,16.500
3.259,13.000,19.000,11.500,14.000
3.260,12.000,17.500,9.500,11.000
3.261,10.500,15.000,7.000,8.000
3.262,8.500,12.000,4.000,4.000
3.263,6.000,8.000,0.500,-1.000
3.264,2.500,3.500,-3.500,-6.500
3.265,-0.500,-1.000,-7.000,-12.000
3.266,-3.500,-4.500,-9.500,-16.000
3.267,-6.000,-7.000,-11.500,-18.500
3.268,-6.500,-8.000,-12.000,-19.500
3.269,-6.500,-7.500,-11.500,-19.000
3.270,-6.000,-7.000,-11.000,-18.000
3.271,-5.500,-6.000,-10.000,-17.000
3.272,-5.000,-5.500,-9.500,-15.500
3.273,-5.000,-4.500,-9.000,-14.500
3.274,-4.500,-3.500,-8.000,-13.500
3.275,-3.500,-2.000,-6.500,-12.000
3.276,-2.000,0.000,-5.000,-10.500
3.277,-0.500,2.000,-3.000,-8.500
3.278,1.500,3.500,-2.000,-7.000
3.279,3.000,4.500,-1.000,-5.500
3.280,4.000,4.500,-1.000,-5.000
3.281,4.000,5.000,-1.000,-4.500
3.282,4.000,5.000,-1.000,-4.500
3.283,4.000,5.500,-1.000,-4.000
3.284,4.500,6.000,-0.500,-4.000
3.285,5.000,7.000,-0.500,-4.000
3.286,5.500,8.000,-0.500,-3.500
3.287,6.000,8.500,0.000,-3.500
3.288,6.500,9.000,0.500,-3.000
3.289,7.500,9.500,1.500,-2.500
3.290,8.000,10.000,3.000,-2.000
3.291,9.000,10.500,4.500,-1.000
3.292,9.500,10.500,6.000,0.000
3.293,10.500,11.500,6.500,0.500
3.294,11.000,12.000,7.000,1.500
3.295,11.500,13.000,7.500,2.000
3.296,11.500,13.500,7.500,3.000
3.297,11.000,14.000,8.000,4.500
3.298,10.000,14.500,8.500,5.500
3.299,9.500,14.500,9.000,7.000
3.300,8.500,14.500,9.500,8.500
3.301,7.500,14.000,9.500,9.500
3.302,6.500,13.500,9.500,11.000
3.303,4.500,13.000,9.000,11.500
3.304,2.000,12.000,8.500,12.500
3.305,-1.000,10.500,8.000,13.500
3.306,-3.500,9.500,7.000,14.000
3.307,-6.000,8.500,6.500,15.000
3.308,-8.000,7.500,6.500,15.500
3.309,-10.000,7.000,6.500,16.000
3.310,-11.500,6.500,6.000,16.500
3.311,-14.000,6.000,5.500,16.500
3.312,-16.500,5.000,4.500,16.500
3.313,-19.500,3.500,3.000,16.000
3.314,-22.500,2.000,1.000,15.000
3.315,-25.000,0.500,-0.500,14.500
3.316,-26.500,-0.500,-2.000,14.000
3.317,-28.000,-1.500,-3.000,13.000
3.318,-28.500,-2.000,-3.500,12.500
3.319,-28.500,-2.500,-3.500,11.500
3.320,-28.500,-2.500,-3.500,11.000
3.321,-28.500,-2.000,-3.000,11.000
3.322,-28.500,-2.000,-2.500,10.500
3.323,-28.000,-1.500,-2.000,10.500
3.324,-27.000,-1.500,-1.500,10.500
3.325,-25.500,-1.500,-2.000,9.500
3.326,-24.500,-2.000,-3.000,7.500
3.327,-23.000,-2.500,-4.500,5.000
3.328,-21.500,-2.500,-6.000,1.500
3.329,-20.000,-2.500,-7.500,-1.500
3.330,-17.500,-2.500,-8.500,-4.500
3.331,-15.000,-2.500,-9.000,-7.000
3.332,-12.000,-2.500,-9.500,-9.000
3.333,-10.000,-2.500,-10.000,-11.000
3.334,-8.000,-3.000,-11.000,-12.500
3.335,-7.000,-3.000,-11.500,-13.500
3.336,-6.000,-3.500,-12.000,-14.000
3.337,-5.500,-3.000,-12.500,-14.500
3.338,-4.500,-2.500,-12.000,-14.000
3.339,-4.000,-2.000,-11.500,-14.000
3.340,-3.000,-1.500,-11.000,-13.500
3.341,-2.500,-1.500,-10.500,-13.500
3.342,-2.000,-1.500,-10.500,-13.500
3.343,-2.000,-1.500,-11.000,-13.500
3.344,-1.500,-1.500,-11.000,-13.500
3.345,-1.500,-1.500,-11.500,-14.000
3.346,-1.500,-1.500,-11.500,-14.500
3.347,-1.000,-1.500,-11.500,-14.500
3.348,-1.000,-2.000,-11.500,-14.500
3.349,-1.000,-2.000,-11.500,-14.500
3.350,-1.000,-1.500,-11.000,-14.000
3.351,-0.500,-1.000,-10.500,-13.000
3.352,-0.500,-0.500,-9.500,-12.000
3.353,0.000,0.500,-8.500,-11.500
3.354,0.500,1.000,-7.500,-10.500
3.355,0.500,1.000,-6.500,-10.000
3.356,1.000,1.000,-6.000,-9.000
3.357,1.000,1.000,-5.500,-8.000
3.358,1.000,1.000,-5.000,-7.000
3.359,1.500,1.500,-4.500,-6.000
3.360,2.000,2.500,-4.000,-5.000
3.361,2.500,3.000,-3.500,-4.500
3.362,2.500,4.000,-3.000,-4.500
3.363,2.500,4.500,-3.000,-4.000
3.364,2.500,5.000,-3.000,-4.000
3.365,2.500,5.000,-2.500,-3.500
3.366,2.500,5.500,-2.000,-3.000
3.367,3.000,5.500,-1.500,-2.500
3.368,3.000,6.000,-1.000,-2.000
3.369,3.500,6.000,-0.500,-2.000
3.370,3.500,6.000,-0.500,-2.000
3.371,3.000,6.000,-0.500,-2.000
3.372,3.000,5.000,-1.000,-2.500
3.373,3.000,4.000,-1.000,-3.000
3.374,3.000,3.000,-1.500,-3.000
3.375,3.000,2.500,-1.500,-3.000
3.376,3.000,2.000,-1.500,-3.000
3.377,2.500,2.500,-1.500,-2.500
3.378,3.000,3.000,-1.000,-2.500
3.379,3.500,3.500,0.000,-2.000
3.380,4.000,4.500,1.000,-2.000
3.381,4.500,5.000,1.500,-1.500
3.382,4.500,5.000,2.000,-1.000
3.383,4.500,5.500,2.000,-0.500
3.384,4.500,6.000,2.000,-0.500
3.385,4.500,6.000,2.000,-0.500
3.386,4.500,6.500,1.500,-1.000
3.387,5.000,6.500,1.000,-1.000
3.388,5.000,7.000,1.000,-1.000
3.389,5.000,7.000,1.000,-1.000
3.390,4.500,7.500,1.500,-1.000
3.391,4.000,8.000,1.500,-0.500
3.392,3.000,8.500,1.500,-1.000
3.393,3.000,8.500,1.500,-1.500
3.394,3.000,9.000,1.000,-2.000
3.395,3.000,9.000,1.000,-2.000
3.396,3.500,9.000,1.000,-2.000
3.397,3.500,9.000,1.000,-1.500
3.398,4.000,9.000,1.500,-0.500
3.399,4.500,9.000,2.000,0.500
3.400,5.000,9.500,2.500,1.000
3.401,5.500,10.000,2.500,1.000
3.402,6.000,10.500,2.500,0.500
3.403,6.500,10.000,2.500,0.000
3.404,6.500,9.500,2.500,-0.500
3.405,6.500,8.500,2.500,-0.500
3.406,6.000,7.500,2.500,-0.500
3.407,6.000,7.000,2.000,0.000
3.408,5.000,7.000,1.500,0.000
3.409,4.500,7.000,1.000,-1.000
3.410,3.500,7.500,0.500,-1.500
3.411,3.000,7.000,0.500,-2.500
3.412,3.000,6.500,0.500,-3.000
3.413,3.000,6.000,0.500,-3.000
3.414,3.000,6.000,0.500,-2.500
3.415,3.000,6.500,0.500,-2.000
3.416,3.000,7.500,0.000,-1.500
3.417,3.500,8.500,0.500,-1.500
3.418,3.500,9.000,0.500,-1.500
3.419,3.500,9.000,1.000,-2.000
3.420,3.500,8.500,1.500,-1.500
3.421,3.500,7.500,2.000,-1.500
3.422,3.500,6.500,2.500,-1.000
3.423,3.000,6.000,2.500,-0.500
3.424,3.000,6.000,2.000,0.000
3.425,3.000,6.500,1.500,0.000
3.426,3.000,6.500,1.000,-0.500
3.427,3.000,6.500,1.000,-0.500
3.428,3.000,6.000,0.500,-1.500
3.429,2.000,5.500,0.500,-2.000
3.430,1.500,4.500,0.500,-2.000
3.431,1.000,3.500,1.000,-2.500
3.432,1.000,3.000,1.000,-2.000
3.433,1.000,2.500,1.000,-1.500
3.434,1.500,2.500,1.000,-1.000
3.435,1.500,3.000,1.000,-1.000
3.436,1.500,3.000,0.500,-0.500
3.437,1.500,3.500,0.500,-0.500
3.438,2.000,3.500,1.000,-0.500
3.439,2.500,3.000,1.000,-0.500
3.440,3.000,3.000,1.000,-0.500
3.441,3.000,3.500,1.500,0.500
3.442,3.000,4.500,2.000,1.000
3.443,3.000,6.000,2.500,1.500
3.444,3.000,7.000,3.000,1.500
3.445,3.000,8.000,3.500,1.500
3.446,3.000,8.000,3.500,1.500
3.447,3.000,7.500,3.000,1.000
3.448,3.000,6.000,2.500,1.000
3.449,2.500,4.500,2.000,0.500
3.450,2.000,4.000,1.500,0.000
3.451,1.500,3.500,1.500,-0.500
3.452,1.500,3.500,1.500,-1.000
3.453,1.000,3.500,1.000,-1.500
3.454,1.000,3.500,1.000,-1.500
3.455,1.000,3.500,1.000,-1.500
3.456,1.000,3.000,1.000,-1.500
3.457,1.000,2.500,1.000,-1.500
3.458,1.000,2.500,1.000,-1.000
3.459,1.000,2.500,1.500,-1.000
3.460,1.000,2.500,1.500,-1.000
3.461,0.500,2.500,1.000,-1.000
3.462,0.000,3.000,0.500,-1.000
3.463,-0.500,3.000,0.500,-1.500
3.464,-1.000,3.500,0.000,-1.500
3.465,-0.500,4.000,0.000,-1.500
3.466,-0.500,4.500,0.500,-1.000
3.467,0.000,5.000,1.000,-0.500
3.468,0.500,5.500,1.500,0.000
3.469,0.000,6.000,1.500,0.000
3.470,-0.500,6.000,2.000,0.000
3.471,-0.500,5.500,1.500,0.000
3.472,-0.500,5.500,1.500,0.000
3.473,-0.500,5.500,1.500,0.000
3.474,-0.500,5.500,1.500,0.500
3.475,-0.500,5.000,1.500,0.500
3.476,-0.500,5.000,2.000,0.500
3.477,-1.000,4.500,2.000,0.500
3.478,-1.000,4.500,2.000,0.500
3.479,-0.500,4.000,2.500,0.500
3.480,0.000,4.000,2.500,1.000
3.481,0.500,4.500,3.500,1.500
3.482,1.000,5.000,4.000,2.000
3.483,1.500,6.000,4.000,3.000
3.484,1.500,7.000,4.000,3.000
3.485,1.500,7.500,3.000,3.000
3.486,1.500,7.500,2.500,3.000
3.487,1.500,7.500,2.000,2.500
3.488,1.500,7.500,2.000,2.500
3.489,1.500,7.500,2.000,2.000
3.490,1.000,7.500,1.500,2.000
3.491,0.500,7.000,1.500,1.500
3.492,-0.500,6.500,0.500,1.000
3.493,-1.500,5.000,0.000,0.500
3.494,-2.500,3.500,0.000,0.500
3.495,-3.500,2.500,0.500,1.000
3.496,-3.500,2.000,1.500,1.500
3.497,-3.500,2.000,2.500,2.000
3.498,-3.000,3.000,2.500,2.500
3.499,-2.500,3.500,2.500,2.500
3.500,-2.000,4.000,2.000,2.000
3.501,-2.000,4.500,2.000,1.500
3.502,-2.000,5.000,2.000,2.000
3.503,-2.000,5.000,2.500,2.500
3.504,-2.000,5.500,3.000,3.000
3.505,-2.000,6.000,3.000,3.500
3.506,-2.000,6.000,2.000,3.500
3.507,-2.000,6.000,1.500,3.500
3.508,-2.000,5.500,1.000,3.000
3.509,-2.500,5.000,0.500,3.000
3.510,-3.000,4.500,1.000,3.000
3.511,-3.500,4.500,1.500,3.000
3.512,-4.000,4.500,1.500,3.000
3.513,-4.500,4.500,2.000,3.000
3.514,-5.000,4.500,2.000,3.000
3.515,-5.000,4.500,2.000,3.000
3.516,-5.000,4.000,2.000,3.000
3.517,-5.000,3.500,2.000,3.500
3.518,-5.000,3.500,2.000,4.000
3.519,-5.500,3.500,2.000,4.500
3.520,-6.000,4.000,2.500,5.000
3.521,-6.000,4.000,2.500,5.000
3.522,-6.000,4.500,3.000,5.500
3.523,-6.000,5.000,3.000,5.500
3.524,-5.500,5.000,3.000,6.000
3.525,-5.000,5.000,3.000,6.000
3.526,-5.000,5.000,3.000,6.000
3.527,-5.000,4.500,3.000,6.500
3.528,-5.500,4.000,3.500,6.500
3.529,-5.500,4.000,4.000,6.500
3.530,-5.500,4.000,4.500,7.000
3.531,-5.500,4.000,4.500,7.000
3.532,-5.000,4.000,4.500,7.000
3.533,-4.500,4.000,4.000,6.500
3.534,-4.500,4.000,3.500,6.500
3.535,-4.500,4.000,3.000,7.000
3.536,-5.000,4.500,3.000,7.000
3.537,-5.500,5.000,2.500,7.500
3.538,-6.000,5.500,3.000,8.000
3.539,-6.500,6.000,3.000,8.000
3.540,-6.000,6.000,3.500,7.500
3.541,-6.000,5.500,3.500,7.500
3.542,-6.000,5.000,4.000,7.500
3.543,-6.000,4.500,4.000,7.000
3.544,-6.000,4.000,4.000,7.500
3.545,-6.500,3.500,3.500,7.500
3.546,-7.000,3.000,3.000,7.000
3.547,-6.500,3.500,2.500,7.000
3.548,-6.500,3.500,2.000,6.500
3.549,-6.000,4.000,2.000,7.000
3.550,-6.000,4.500,2.000,7.000
3.551,-6.000,4.500,2.000,7.000
3.552,-6.500,4.000,2.500,7.000
3.553,-6.500,3.500,2.000,6.500
3.554,-7.000,3.000,1.500,6.000
3.555,-7.500,2.500,1.000,5.500
3.556,-7.500,2.500,0.500,5.000
3.557,-7.500,3.000,0.500,5.500
3.558,-7.500,3.000,0.500,5.500
3.559,-7.500,3.000,1.000,6.000
3.560,-7.500,2.500,1.500,6.000
3.561,-7.500,2.500,2.000,5.500
3.562,-8.000,2.000,2.000,5.000
3.563,-8.000,1.500,2.000,4.500
3.564,-8.000,1.500,2.000,4.500
3.565,-8.000,1.500,2.000,4.500
3.566,-8.000,1.500,2.000,5.000
3.567,-7.000,2.500,2.000,5.000
3.568,-6.000,3.000,2.500,5.500
3.569,-5.000,3.500,3.000,6.000
3.570,-4.000,4.000,3.000,6.000
3.571,-3.000,3.500,3.000,6.500
3.572,-3.000,3.000,2.500,6.500
3.573,-2.500,2.500,2.500,6.000
3.574,-2.500,2.000,2.000,6.000
3.575,-2.000,2.000,2.000,6.000
3.576,-2.000,2.000,2.500,6.000
3.577,-2.000,2.000,2.500,5.500
3.578,-2.500,1.500,2.500,5.500
3.579,-2.500,1.000,2.500,5.000
3.580,-2.500,0.500,2.500,4.500
3.581,-2.500,0.500,2.500,4.500
3.582,-2.000,0.500,2.000,4.000
3.583,-1.500,1.000,2.000,4.000
3.584,-1.500,1.000,2.000,4.000
3.585,-1.500,1.000,1.500,4.000
3.586,-1.500,0.500,1.000,4.000
3.587,-1.500,0.000,0.500,3.500
3.588,-1.500,0.000,0.500,3.500
3.589,-1.000,-0.500,0.000,3.500
3.590,-0.500,0.000,0.000,3.500
3.591,0.000,0.000,0.500,3.500
3.592,0.500,0.500,0.500,3.500
3.593,0.500,1.000,1.000,3.000
3.594,0.500,1.500,1.000,3.000
3.595,0.000,2.000,1.000,2.500
3.596,-0.500,2.500,1.000,2.500
3.597,-0.500,3.500,1.500,2.500
3.598,-0.500,5.000,1.500,3.000
3.599,0.500,5.500,2.000,3.000
3.600,1.000,6.500,2.000,3.000
3.601,2.000,6.500,2.500,3.000
3.602,2.500,6.000,2.500,2.500
3.603,2.500,5.500,2.500,2.500
3.604,3.000,5.000,2.000,2.500
3.605,3.000,5.000,2.000,2.500
3.606,2.500,5.500,2.000,3.000
3.607,2.500,6.500,2.000,3.000
3.608,3.000,7.000,2.500,2.500
3.609,3.000,7.000,2.500,2.500
3.610,3.500,6.500,2.500,2.000
3.611,4.000,6.500,2.500,2.000
3.612,4.000,6.000,2.500,2.000
3.613,4.000,6.000,2.000,2.500
3.614,4.000,5.500,2.000,2.500
3.615,3.500,5.000,2.000,2.500
3.616,3.500,4.500,2.000,2.500
3.617,4.000,3.500,2.000,2.000
3.618,4.000,3.000,2.500,2.000
3.619,4.500,2.500,3.000,2.500
3.620,4.500,3.000,3.000,2.500
3.621,4.500,3.500,3.000,2.500
3.622,5.000,4.000,3.000,2.500
3.623,5.000,5.000,3.000,2.500
3.624,5.000,5.500,3.000,2.500
3.625,5.000,5.500,3.000,2.500
3.626,5.000,6.000,3.000,3.000
3.627,5.000,6.000,2.500,3.000
3.628,5.500,6.500,2.500,3.000
3.629,5.500,6.500,2.000,2.500
3.630,6.000,7.000,2.000,2.500
3.631,6.500,7.000,2.000,2.500
3.632,7.000,7.500,2.500,2.500
3.633,6.500,8.000,3.000,3.000
3.634,6.500,8.000,3.500,3.500
3.635,6.000,7.500,4.000,3.500
3.636,6.000,7.000,4.000,3.500
3.637,6.000,6.000,3.500,3.000
3.638,6.000,5.500,3.000,3.000
3.639,5.500,5.000,3.000,3.500
3.640,5.500,5.500,2.500,3.500
3.641,5.500,5.500,2.500,4.000
3.642,5.500,6.000,2.500,4.000
3.643,5.500,6.000,3.000,4.000
3.644,6.000,5.500,3.000,4.000
3.645,6.000,5.500,3.500,4.000
