'Elapsed time','AECG1','AECG2','AECG3','AECG4'
'seconds','uV','uV','uV','uV'
0.000,764.000,897.000,947.000,771.500
0.001,762.500,896.000,945.500,770.000
0.002,761.500,895.500,944.500,769.500
0.003,761.000,895.500,944.000,769.000
0.004,761.500,895.500,944.000,769.500
0.005,762.000,896.000,944.500,770.000
0.006,762.500,897.000,945.500,771.000
0.007,764.000,898.000,947.000,772.500
0.008,765.500,899.500,948.500,774.500
0.009,767.000,901.500,950.500,776.500
0.010,769.000,903.000,953.000,779.000
0.011,771.500,905.000,955.500,781.000
0.012,773.500,907.000,958.500,783.500
0.013,775.500,908.500,960.000,785.500
0.014,776.500,909.000,961.500,786.500
0.015,777.000,909.000,961.500,786.500
0.016,776.500,908.000,960.500,786.000
0.017,775.000,906.500,958.500,784.500
0.018,773.000,905.000,956.500,782.500
0.019,771.000,903.500,954.000,780.500
0.020,769.000,902.000,952.000,778.500
0.021,768.000,901.500,950.500,777.000
0.022,767.000,901.000,949.500,776.500
0.023,766.500,901.500,949.500,776.500
0.024,767.000,901.500,949.500,776.500
0.025,767.500,902.000,950.500,777.500
0.026,768.000,902.500,951.500,778.500
0.027,769.000,903.500,953.000,780.000
0.028,770.500,904.500,954.500,781.500
0.029,772.000,906.000,956.000,783.500
0.030,774.000,908.000,958.500,785.500
0.031,776.000,910.000,961.000,788.000
0.032,778.000,911.500,963.500,790.500
0.033,780.000,913.000,965.500,792.000
0.034,781.000,914.000,967.000,793.500
0.035,781.500,914.000,967.000,793.500
0.036,781.000,913.000,966.500,793.000
0.037,779.500,912.000,964.500,791.500
0.038,777.500,910.000,962.000,789.000
0.039,775.000,908.500,959.500,787.000
0.040,773.000,907.000,957.000,785.000
0.041,771.500,906.000,955.500,783.500
0.042,770.500,905.500,954.500,783.000
0.043,770.000,905.500,954.500,783.000
0.044,770.500,905.500,955.000,783.500
0.045,771.000,906.500,956.000,784.000
0.046,772.000,907.500,957.000,785.500
0.047,773.000,908.500,958.000,786.500
0.048,774.500,909.500,959.500,788.000
0.049,776.000,910.500,961.000,789.500
0.050,777.500,912.000,963.000,791.500
0.051,779.500,913.500,965.500,793.500
0.052,781.500,915.500,967.500,795.500
0.053,783.500,916.500,969.500,797.500
0.054,784.500,917.500,970.500,798.500
0.055,784.500,917.000,970.500,798.500
0.056,783.500,916.500,969.000,797.500
0.057,782.000,914.500,967.000,795.500
0.058,779.500,912.500,964.500,793.000
0.059,777.000,910.500,962.000,790.500
0.060,775.000,908.500,959.500,788.000
0.061,773.000,907.500,957.500,786.000
0.062,772.000,907.000,957.000,785.000
0.063,771.500,906.500,956.500,785.000
0.064,771.500,907.000,957.000,785.000
0.065,772.000,907.500,957.500,785.500
0.066,773.000,908.000,958.500,786.500
0.067,773.500,909.000,959.500,788.000
0.068,775.000,910.000,961.000,789.000
0.069,776.500,911.500,963.000,791.000
0.070,778.500,913.000,965.000,793.000
0.071,780.500,915.000,967.500,796.000
0.072,783.000,917.000,970.000,798.500
0.073,785.000,918.500,971.500,800.500
0.074,786.500,919.000,972.500,801.500
0.075,786.500,919.000,972.500,801.500
0.076,786.000,918.500,971.500,800.000
0.077,785.000,917.000,969.000,798.000
0.078,783.000,915.500,967.000,796.000
0.079,780.500,913.500,964.500,793.500
0.080,778.500,912.000,962.000,791.500
0.081,777.000,911.000,960.500,789.500
0.082,776.000,910.500,959.500,789.000
0.083,776.000,910.500,959.000,789.000
0.084,776.000,911.000,959.500,789.000
0.085,776.500,911.500,960.000,789.500
0.086,777.000,912.500,960.500,790.500
0.087,778.000,913.500,962.000,791.500
0.088,779.500,914.500,963.500,793.000
0.089,781.000,916.000,965.000,794.500
0.090,783.000,917.500,967.000,796.000
0.091,785.500,919.000,969.500,798.000
0.092,787.500,920.500,972.000,800.500
0.093,789.500,922.000,973.500,802.000
0.094,790.500,922.500,974.500,803.000
0.095,791.000,922.000,974.500,803.000
0.096,790.500,921.500,973.000,802.000
0.097,788.500,920.000,971.500,800.000
0.098,786.500,918.000,969.000,797.500
0.099,784.000,916.000,966.000,795.000
0.100,781.500,914.000,963.500,792.500
0.101,780.000,913.000,961.500,790.500
0.102,779.000,912.500,960.500,790.000
0.103,779.000,912.000,960.000,789.500
0.104,779.000,912.500,960.000,790.000
0.105,780.000,913.000,960.500,790.500
0.106,780.500,913.500,961.500,791.500
0.107,781.500,914.500,962.500,792.500
0.108,783.000,915.500,963.500,794.000
0.109,785.000,917.000,965.500,795.500
0.110,786.500,918.000,967.500,797.500
0.111,789.000,920.000,970.000,799.500
0.112,791.000,921.500,972.500,802.000
0.113,793.000,923.000,974.500,804.000
0.114,794.000,924.000,975.500,805.000
0.115,794.500,924.000,975.500,805.000
0.116,793.500,923.000,974.500,804.000
0.117,792.000,921.000,972.500,801.500
0.118,790.000,919.000,970.000,799.000
0.119,787.500,916.500,967.000,796.500
0.120,785.000,915.000,964.500,794.000
0.121,783.500,913.500,963.000,792.500
0.122,783.000,913.000,962.000,792.000
0.123,782.500,913.000,962.000,792.000
0.124,783.000,914.000,962.500,792.500
0.125,784.000,915.000,963.500,793.500
0.126,785.500,916.500,965.000,795.000
0.127,787.000,918.000,966.500,797.000
0.128,789.000,919.500,968.500,798.500
0.129,791.000,921.500,971.000,800.500
0.130,793.500,923.500,973.500,803.000
0.131,796.500,926.000,976.500,805.500
0.132,799.000,928.000,979.000,808.000
0.133,801.500,930.000,981.500,810.500
0.134,803.000,931.000,983.000,811.500
0.135,803.500,931.000,983.000,812.000
0.136,803.000,930.500,982.500,811.000
0.137,801.500,929.500,980.500,809.500
0.138,799.500,927.500,978.500,807.500
0.139,797.000,926.000,976.000,805.000
0.140,795.000,925.000,973.500,803.500
0.141,793.500,924.000,972.000,802.000
0.142,792.500,923.500,971.500,801.500
0.143,792.500,923.500,971.000,801.500
0.144,792.500,924.000,971.500,802.000
0.145,793.500,924.500,972.000,803.000
0.146,794.500,925.500,973.000,804.000
0.147,795.500,927.000,974.500,805.500
0.148,796.500,928.000,976.500,807.000
0.149,798.000,929.500,978.500,809.000
0.150,800.000,931.000,981.000,811.000
0.151,802.000,933.000,983.500,813.500
0.152,804.500,934.500,986.000,816.000
0.153,806.500,936.000,988.000,817.500
0.154,807.500,937.000,989.500,818.500
0.155,807.500,937.000,989.500,818.500
0.156,807.000,936.500,988.500,817.500
0.157,805.500,935.000,986.000,816.000
0.158,803.000,933.000,983.500,814.000
0.159,801.000,931.000,981.000,811.500
0.160,798.500,929.500,978.500,809.500
0.161,797.500,928.500,977.000,808.000
0.162,796.500,928.000,976.000,807.500
0.163,796.000,928.000,976.000,807.500
0.164,796.500,928.500,976.500,808.500
0.165,797.000,929.500,977.500,809.000
0.166,798.000,930.500,978.500,810.500
0.167,799.500,931.500,980.000,812.000
0.168,801.000,933.000,982.000,813.500
0.169,803.000,935.000,984.000,815.500
0.170,805.000,937.000,986.500,818.000
0.171,807.500,939.000,989.000,820.500
0.172,810.000,940.500,991.000,823.000
0.173,812.000,942.000,993.000,825.000
0.174,813.000,942.500,994.500,826.000
0.175,813.500,942.500,994.500,826.500
0.176,813.000,942.000,994.000,826.000
0.177,811.500,940.500,992.500,824.500
0.178,809.500,938.500,990.000,822.500
0.179,807.000,936.500,987.500,820.000
0.180,805.000,935.000,985.000,818.500
0.181,803.500,934.000,983.500,817.500
0.182,803.000,934.000,983.000,817.000
0.183,802.500,934.000,983.000,817.000
0.184,803.000,934.500,983.500,818.000
0.185,804.000,935.500,984.500,819.000
0.186,805.500,936.500,986.000,820.500
0.187,807.000,938.000,987.500,822.000
0.188,809.000,939.500,989.000,824.000
0.189,811.000,941.000,991.000,826.500
0.190,813.000,943.000,993.500,828.500
0.191,815.500,945.000,996.000,831.000
0.192,818.000,946.500,998.500,833.500
0.193,820.000,948.000,1000.500,835.500
0.194,821.000,948.500,1001.500,836.500
0.195,821.000,948.500,1001.500,837.000
0.196,820.500,948.000,1000.500,836.000
0.197,819.000,946.500,999.000,835.000
0.198,817.000,945.000,996.500,833.000
0.199,814.500,943.000,993.500,830.500
0.200,812.000,941.000,991.000,828.500
0.201,810.500,940.000,989.500,827.000
0.202,809.500,939.500,988.500,826.000
0.203,809.500,939.500,988.500,826.000
0.204,810.000,940.000,989.000,826.500
0.205,811.000,941.000,990.000,827.500
0.206,812.000,942.500,991.500,829.000
0.207,813.500,944.000,993.500,830.500
0.208,815.500,945.500,995.500,832.500
0.209,817.500,947.500,997.500,834.500
0.210,820.000,949.500,1000.000,836.500
0.211,822.500,951.500,1003.000,839.000
0.212,825.000,953.000,1005.500,841.500
0.213,827.000,954.500,1007.000,843.500
0.214,828.000,955.500,1008.500,845.000
0.215,828.500,955.500,1008.500,845.000
0.216,828.000,954.500,1007.500,844.000
0.217,826.500,953.000,1006.000,842.500
0.218,824.000,951.500,1003.500,840.500
0.219,822.000,950.000,1001.000,838.500
0.220,820.000,948.500,999.500,836.500
0.221,819.000,947.500,998.000,835.500
0.222,818.500,947.500,997.500,835.000
0.223,818.500,947.500,997.500,835.000
0.224,819.500,948.500,998.000,836.000
0.225,820.500,949.500,999.500,837.500
0.226,822.000,951.000,1001.000,839.000
0.227,824.000,953.000,1002.500,840.500
0.228,826.000,955.000,1005.000,843.000
0.229,828.000,957.000,1007.000,845.000
0.230,830.500,959.000,1009.500,847.500
0.231,833.000,961.000,1012.500,850.500
0.232,835.000,963.000,1015.000,853.000
0.233,837.000,964.500,1017.000,855.000
0.234,838.000,965.500,1018.500,856.500
0.235,838.500,965.500,1019.000,856.500
0.236,838.000,965.000,1018.000,855.500
0.237,836.500,964.000,1016.500,854.000
0.238,834.500,962.500,1014.500,852.000
0.239,832.500,961.000,1012.000,849.500
0.240,831.000,960.000,1010.500,848.000
0.241,829.500,959.000,1009.000,847.000
0.242,829.000,959.000,1009.000,846.500
0.243,829.000,959.500,1009.000,846.500
0.244,829.500,960.000,1010.000,847.500
0.245,830.500,961.000,1011.000,848.500
0.246,831.500,962.500,1012.000,849.500
0.247,833.000,963.500,1013.500,851.000
0.248,834.500,965.500,1015.500,853.000
0.249,836.500,967.000,1017.500,854.500
0.250,839.000,969.000,1020.000,857.000
0.251,841.500,971.000,1022.500,859.500
0.252,844.000,973.000,1025.000,861.500
0.253,846.000,975.000,1027.000,863.500
0.254,847.500,976.000,1028.500,864.500
0.255,847.500,976.000,1028.500,865.000
0.256,846.500,975.500,1027.500,864.000
0.257,845.000,974.000,1026.000,862.500
0.258,843.000,972.500,1023.500,860.000
0.259,841.500,971.000,1021.000,858.000
0.260,839.500,969.500,1019.000,856.000
0.261,838.500,968.500,1017.500,855.000
0.262,838.000,968.500,1017.000,854.000
0.263,838.000,969.000,1017.000,854.500
0.264,838.500,969.500,1017.500,855.000
0.265,839.500,970.500,1018.500,856.500
0.266,840.500,972.000,1020.000,858.000
0.267,842.000,973.000,1021.500,859.500
0.268,844.000,975.000,1023.500,861.500
0.269,846.000,976.500,1026.000,864.000
0.270,848.000,979.000,1028.500,866.500
0.271,850.500,981.000,1031.500,869.000
0.272,853.500,983.500,1034.500,872.000
0.273,855.500,985.500,1036.500,874.000
0.274,857.000,986.500,1038.000,875.500
0.275,858.000,986.500,1038.500,876.000
0.276,857.500,985.500,1037.500,875.500
0.277,856.000,984.000,1036.000,874.000
0.278,854.000,982.500,1033.500,872.000
0.279,851.500,980.500,1031.000,869.500
0.280,849.500,979.000,1028.500,867.500
0.281,848.000,977.500,1027.000,866.000
0.282,847.500,977.000,1026.500,865.500
0.283,847.000,977.500,1026.500,865.500
0.284,847.500,978.000,1027.000,866.000
0.285,848.000,979.000,1028.000,867.000
0.286,849.000,980.000,1029.000,868.000
0.287,850.000,981.000,1030.500,869.500
0.288,851.500,982.500,1032.000,871.000
0.289,853.500,984.000,1034.000,873.000
0.290,855.500,985.500,1036.500,875.000
0.291,858.500,988.000,1039.000,877.500
0.292,861.000,990.000,1041.500,880.500
0.293,863.500,992.000,1044.000,882.500
0.294,865.000,993.000,1045.000,884.000
0.295,865.500,993.000,1045.500,884.000
0.296,865.000,992.500,1044.500,883.500
0.297,863.500,991.000,1042.500,882.000
0.298,861.500,989.500,1040.500,880.000
0.299,859.000,987.500,1038.000,877.500
0.300,857.500,986.500,1036.000,876.000
0.301,856.000,985.500,1035.000,874.500
0.302,856.000,985.500,1034.500,874.500
0.303,856.000,986.000,1035.000,874.500
0.304,857.000,987.000,1035.500,875.000
0.305,857.500,987.500,1036.500,876.000
0.306,859.000,989.000,1037.500,877.500
0.307,860.500,990.000,1039.000,879.000
0.308,862.000,992.000,1041.000,880.500
0.309,864.000,993.500,1043.500,883.000
0.310,866.500,995.500,1046.000,885.000
0.311,869.000,997.500,1048.500,888.000
0.312,871.000,999.500,1051.500,890.500
0.313,873.500,1001.000,1053.500,892.500
0.314,874.500,1002.000,1055.000,894.000
0.315,875.000,1002.000,1055.000,894.000
0.316,874.500,1001.500,1054.000,893.500
0.317,873.000,1000.000,1052.000,892.000
0.318,871.000,998.000,1050.000,890.000
0.319,869.000,996.500,1047.500,888.000
0.320,867.000,995.000,1045.500,886.500
0.321,866.000,994.000,1044.000,885.500
0.322,865.500,994.000,1043.500,885.000
0.323,865.500,994.000,1043.500,885.000
0.324,866.000,994.000,1044.000,885.500
0.325,866.500,995.000,1044.500,886.500
0.326,868.000,996.000,1045.500,887.500
0.327,869.500,997.000,1047.000,889.000
0.328,871.000,998.500,1049.000,890.500
0.329,873.000,1000.000,1051.000,892.500
0.330,875.000,1002.000,1053.500,894.500
0.331,877.500,1004.000,1056.000,897.000
0.332,880.000,1006.000,1058.500,899.500
0.333,882.500,1007.500,1061.000,902.000
0.334,883.500,1008.500,1062.500,903.000
0.335,883.500,1008.500,1063.000,903.500
0.336,883.000,1008.000,1062.000,902.500
0.337,881.500,1006.500,1060.500,901.000
0.338,879.500,1004.500,1058.000,898.500
0.339,877.000,1002.000,1055.500,896.000
0.340,874.500,1000.000,1053.500,893.500
0.341,873.000,998.500,1051.500,892.000
0.342,872.000,998.000,1050.500,891.000
0.343,871.500,997.500,1050.000,891.000
0.344,871.500,997.500,1050.000,891.000
0.345,871.500,997.500,1050.500,892.000
0.346,871.500,998.000,1051.000,892.500
0.347,872.000,998.500,1051.500,893.500
0.348,872.500,999.500,1052.500,895.000
0.349,873.000,1000.500,1053.500,896.500
0.350,874.500,1001.500,1055.500,898.000
0.351,876.000,1003.000,1057.500,900.500
0.352,877.500,1004.000,1059.500,902.500
0.353,879.000,1005.000,1061.000,904.000
0.354,880.000,1005.500,1062.000,905.000
0.355,879.500,1005.000,1061.500,905.000
0.356,878.000,1004.000,1060.500,904.000
0.357,876.000,1002.000,1058.000,901.500
0.358,873.500,1000.000,1055.000,899.000
0.359,870.500,998.000,1052.000,896.500
0.360,868.500,996.000,1049.500,894.000
0.361,867.500,995.000,1047.500,892.500
0.362,867.000,995.000,1047.000,891.500
0.363,867.500,995.500,1047.000,891.500
0.364,869.000,996.500,1048.000,891.500
0.365,870.500,998.000,1049.000,892.000
0.366,872.500,1000.000,1051.000,893.000
0.367,874.500,1002.000,1053.000,894.500
0.368,877.000,1004.000,1055.000,896.500
0.369,879.500,1006.000,1057.500,898.000
0.370,882.000,1008.000,1060.000,900.500
0.371,885.000,1010.500,1063.000,903.000
0.372,887.500,1013.000,1066.000,906.000
0.373,890.000,1015.000,1068.500,908.500
0.374,891.500,1016.000,1070.500,910.500
0.375,892.000,1017.000,1071.000,911.500
0.376,891.500,1016.500,1070.500,911.500
0.377,890.000,1016.000,1069.000,910.500
0.378,888.500,1014.500,1067.000,908.500
0.379,886.000,1012.500,1065.000,906.500
0.380,884.500,1011.500,1063.000,904.500
0.381,883.000,1010.500,1061.500,903.500
0.382,882.500,1010.500,1061.000,903.500
0.383,882.500,1011.000,1061.500,904.000
0.384,883.500,1012.000,1062.000,905.000
0.385,884.000,1013.500,1063.500,906.000
0.386,885.500,1015.000,1065.000,907.500
0.387,887.000,1017.000,1067.000,909.500
0.388,888.500,1018.500,1069.000,911.000
0.389,890.500,1020.000,1071.000,913.000
0.390,892.500,1022.000,1073.500,915.500
0.391,895.000,1024.000,1076.500,918.000
0.392,897.500,1026.000,1079.000,920.500
0.393,899.500,1028.000,1081.000,922.500
0.394,901.000,1029.000,1082.500,924.000
0.395,901.500,1029.500,1083.000,924.500
0.396,901.000,1029.000,1082.000,924.000
0.397,900.000,1028.000,1080.500,922.500
0.398,898.000,1026.500,1078.500,920.500
0.399,896.000,1025.000,1076.500,919.000
0.400,894.000,1023.500,1074.500,917.000
0.401,892.500,1023.000,1073.000,916.500
0.402,892.000,1022.500,1072.500,916.000
0.403,892.000,1023.000,1073.000,916.500
0.404,893.000,1024.000,1074.000,917.500
0.405,894.000,1025.000,1075.000,918.500
0.406,895.000,1026.500,1076.000,919.500
0.407,896.500,1028.000,1077.500,921.000
0.408,898.000,1029.500,1079.500,922.500
0.409,900.000,1031.500,1081.500,924.500
0.410,902.500,1033.500,1084.000,927.000
0.411,905.000,1035.500,1087.000,929.500
0.412,907.500,1037.500,1089.500,932.000
0.413,909.500,1039.000,1091.500,933.500
0.414,910.500,1040.000,1092.500,934.500
0.415,910.500,1040.000,1092.500,935.000
0.416,910.000,1039.000,1091.500,934.000
0.417,908.000,1037.500,1089.500,932.000
0.418,906.000,1035.500,1087.000,930.000
0.419,903.500,1033.500,1084.500,927.500
0.420,901.500,1032.000,1082.500,925.500
0.421,900.500,1031.000,1081.000,924.500
0.422,900.000,1030.500,1080.000,923.500
0.423,900.000,1030.500,1080.000,924.000
0.424,900.000,1031.000,1080.500,924.500
0.425,901.000,1032.000,1081.000,925.000
0.426,902.000,1033.000,1082.000,926.000
0.427,903.000,1034.000,1083.500,927.500
0.428,904.500,1035.500,1085.000,928.500
0.429,906.000,1036.500,1087.000,930.500
0.430,908.000,1038.000,1089.500,932.500
0.431,910.500,1040.000,1092.000,934.500
0.432,912.500,1042.000,1094.500,937.000
0.433,914.500,1043.500,1096.500,939.000
0.434,916.000,1044.500,1098.000,940.000
0.435,916.000,1044.500,1098.000,940.500
0.436,915.500,1043.500,1097.000,939.500
0.437,914.000,1042.000,1095.500,937.500
0.438,911.500,1040.500,1093.000,935.000
0.439,909.500,1038.500,1090.000,932.500
0.440,907.000,1037.000,1088.000,930.500
0.441,905.500,1036.000,1086.000,929.000
0.442,905.000,1036.000,1085.500,928.500
0.443,905.000,1036.000,1085.000,928.500
0.444,905.500,1036.500,1085.500,929.000
0.445,906.500,1037.500,1086.500,930.000
0.446,907.500,1039.000,1087.500,931.500
0.447,909.000,1040.500,1089.500,933.000
0.448,911.000,1042.000,1091.500,935.000
0.449,913.000,1044.000,1094.000,937.000
0.450,915.000,1046.000,1096.000,939.500
0.451,917.500,1048.000,1099.000,942.000
0.452,920.000,1050.000,1101.000,944.500
0.453,922.000,1051.500,1103.500,947.000
0.454,923.500,1052.500,1104.500,948.500
0.455,923.500,1052.500,1105.000,948.500
0.456,923.000,1052.000,1104.000,948.000
0.457,921.500,1051.000,1102.500,946.500
0.458,919.500,1049.500,1100.500,944.500
0.459,917.500,1048.000,1098.500,942.500
0.460,915.500,1047.000,1096.500,940.500
0.461,914.500,1046.000,1095.000,939.500
0.462,913.500,1046.000,1094.500,939.000
0.463,913.500,1046.500,1094.000,939.000
0.464,913.500,1047.000,1094.500,939.500
0.465,914.500,1047.500,1095.500,940.500
0.466,915.000,1048.500,1096.500,941.500
0.467,916.500,1050.000,1098.000,942.500
0.468,917.500,1051.000,1099.500,944.000
0.469,919.500,1052.500,1101.500,946.000
0.470,921.500,1054.500,1103.500,948.000
0.471,923.500,1056.500,1106.000,950.000
0.472,926.000,1058.000,1108.000,952.000
0.473,927.500,1059.500,1110.000,954.000
0.474,929.000,1060.500,1111.000,955.000
0.475,929.000,1060.500,1111.000,955.500
0.476,928.500,1059.500,1110.500,954.500
0.477,927.000,1058.000,1108.500,953.000
0.478,925.000,1056.500,1106.000,950.500
0.479,922.500,1054.000,1103.500,948.000
0.480,920.500,1052.500,1101.000,945.500
0.481,918.500,1051.000,1099.000,944.000
0.482,917.500,1050.000,1098.000,943.000
0.483,917.000,1049.500,1097.500,942.000
0.484,917.000,1050.000,1097.500,942.000
0.485,917.000,1050.000,1098.000,942.500
0.486,917.500,1050.500,1098.500,943.500
0.487,918.000,1051.000,1100.000,944.500
0.488,919.500,1052.000,1101.500,946.000
0.489,921.000,1053.500,1103.000,948.000
0.490,922.500,1055.000,1105.500,950.000
0.491,924.500,1056.500,1107.500,952.500
0.492,926.500,1058.000,1109.500,954.500
0.493,928.000,1059.000,1111.500,956.500
0.494,929.000,1059.500,1112.000,958.000
0.495,929.000,1059.000,1112.000,958.000
0.496,928.000,1058.000,1111.000,957.500
0.497,925.500,1056.500,1109.500,956.500
0.498,923.000,1054.500,1107.000,954.500
0.499,920.500,1052.500,1104.500,952.500
0.500,918.000,1051.000,1102.000,951.000
0.501,916.000,1049.500,1101.000,950.000
0.502,915.000,1049.500,1100.500,950.000
0.503,915.000,1050.000,1101.500,951.500
0.504,916.000,1051.500,1103.500,953.500
0.505,917.000,1053.500,1106.000,956.500
0.506,919.000,1056.000,1109.000,960.500
0.507,921.500,1059.000,1112.500,965.000
0.508,924.500,1062.000,1116.500,969.500
0.509,927.500,1065.500,1120.500,974.000
0.510,931.000,1068.500,1125.000,978.500
0.511,934.000,1072.000,1129.000,983.000
0.512,937.500,1074.500,1133.000,987.000
0.513,940.000,1077.000,1136.500,990.500
0.514,942.000,1078.500,1139.000,993.000
0.515,943.000,1079.500,1140.500,994.000
0.516,943.500,1080.000,1140.500,994.000
0.517,943.000,1079.500,1140.000,993.000
0.518,942.500,1079.000,1138.000,990.500
0.519,941.500,1078.000,1135.500,987.500
0.520,940.500,1077.000,1133.000,984.500
0.521,939.500,1076.000,1131.000,981.500
0.522,939.500,1075.500,1129.500,979.000
0.523,940.000,1075.500,1128.000,977.000
0.524,940.500,1075.500,1128.000,976.000
0.525,942.000,1076.500,1128.000,975.000
0.526,943.500,1077.500,1128.500,975.000
0.527,945.000,1078.500,1129.500,975.000
0.528,947.000,1080.000,1131.000,975.500
0.529,949.000,1081.500,1133.000,977.000
0.530,951.500,1083.500,1135.000,978.500
0.531,953.500,1085.000,1137.000,980.500
0.532,956.000,1086.500,1139.000,982.000
0.533,957.500,1087.000,1140.000,983.000
0.534,958.000,1087.000,1140.500,983.000
0.535,958.000,1086.500,1139.500,982.500
0.536,957.000,1085.000,1138.000,980.500
0.537,955.500,1082.500,1135.000,978.000
0.538,953.000,1080.500,1132.000,975.500
0.539,951.000,1078.500,1129.500,973.000
0.540,948.500,1076.500,1127.000,971.000
0.541,947.500,1075.500,1125.500,969.500
0.542,946.500,1075.500,1124.500,969.000
0.543,946.500,1075.500,1124.500,969.000
0.544,947.500,1076.000,1125.500,969.500
0.545,948.500,1077.000,1126.500,970.500
0.546,949.500,1078.500,1127.500,972.000
0.547,951.000,1079.500,1129.000,973.500
0.548,952.500,1081.000,1131.000,975.500
0.549,954.000,1082.500,1133.000,977.500
0.550,956.000,1084.500,1135.500,980.000
0.551,958.500,1086.500,1138.000,982.500
0.552,960.500,1088.500,1140.500,985.000
0.553,962.500,1089.500,1142.500,987.000
0.554,963.500,1090.500,1143.500,988.500
0.555,963.500,1090.500,1143.500,988.500
0.556,963.000,1090.000,1142.500,988.000
0.557,961.500,1088.500,1140.500,986.500
0.558,959.000,1087.000,1138.500,984.500
0.559,956.500,1085.000,1136.000,982.500
0.560,954.500,1083.500,1134.000,980.500
0.561,953.000,1082.500,1132.500,979.000
0.562,952.000,1082.500,1132.000,978.500
0.563,952.000,1082.500,1131.500,979.000
0.564,952.500,1083.000,1132.000,979.500
0.565,953.500,1084.000,1133.000,980.500
0.566,954.500,1085.500,1134.500,982.000
0.567,956.000,1086.500,1136.000,983.500
0.568,958.000,1088.000,1138.000,985.500
0.569,960.000,1090.000,1140.000,987.500
0.570,962.500,1092.000,1142.500,989.500
0.571,964.500,1093.500,1145.500,992.000
0.572,967.000,1095.500,1148.000,994.500
0.573,969.000,1097.000,1150.000,996.000
0.574,970.000,1097.500,1151.000,997.000
0.575,970.000,1097.500,1151.000,997.000
0.576,969.000,1096.500,1150.000,996.500
0.577,967.500,1095.000,1148.000,994.500
0.578,965.000,1092.500,1145.500,992.500
0.579,962.500,1090.500,1143.000,990.000
0.580,960.000,1089.000,1140.500,988.000
0.581,958.500,1088.000,1139.000,987.000
0.582,958.000,1088.000,1138.500,986.000
0.583,957.500,1088.000,1138.500,986.000
0.584,958.000,1089.000,1138.500,986.500
0.585,958.500,1090.000,1139.000,987.500
0.586,959.500,1091.000,1140.500,988.500
0.587,961.000,1092.500,1141.500,990.000
0.588,962.500,1094.000,1143.500,992.000
0.589,964.000,1095.500,1145.500,994.000
0.590,966.500,1097.000,1148.000,996.000
0.591,968.500,1099.000,1150.500,998.500
0.592,971.000,1101.000,1153.000,1001.000
0.593,973.000,1103.000,1155.500,1003.500
0.594,974.500,1103.500,1156.500,1004.500
0.595,975.000,1104.000,1157.000,1005.000
0.596,974.000,1103.000,1156.500,1004.500
0.597,972.500,1101.500,1154.500,1002.500
0.598,970.500,1100.000,1152.500,1000.500
0.599,968.000,1098.000,1150.000,998.500
0.600,965.500,1096.500,1147.500,996.500
0.601,964.000,1095.500,1146.500,995.500
0.602,963.500,1095.500,1145.500,995.000
0.603,963.500,1095.500,1145.500,995.000
0.604,964.000,1095.500,1146.000,996.000
0.605,965.000,1096.500,1147.000,997.000
0.606,966.000,1097.500,1148.500,998.000
0.607,967.500,1098.500,1150.000,999.500
0.608,969.500,1100.000,1152.000,1001.000
0.609,971.500,1102.000,1154.000,1002.500
0.610,973.500,1103.500,1156.500,1004.500
0.611,975.500,1105.500,1158.500,1007.000
0.612,977.500,1107.000,1161.000,1009.500
0.613,979.500,1108.500,1162.500,1011.000
0.614,980.000,1109.000,1163.500,1012.000
0.615,980.000,1109.000,1163.500,1012.500
0.616,979.500,1108.000,1162.500,1011.500
0.617,977.500,1106.500,1161.000,1009.500
0.618,975.500,1104.500,1158.500,1007.500
0.619,973.000,1102.500,1155.500,1005.000
0.620,971.000,1101.000,1153.000,1002.500
0.621,969.000,1099.500,1151.500,1001.000
0.622,968.000,1099.000,1150.500,1000.000
0.623,967.500,1098.500,1150.000,999.500
0.624,968.000,1099.000,1150.000,999.500
0.625,968.500,1099.500,1150.500,1000.000
0.626,969.000,1100.000,1151.500,1001.000
0.627,970.000,1101.000,1153.000,1002.500
0.628,971.500,1102.500,1154.500,1004.000
0.629,973.500,1103.500,1156.500,1005.500
0.630,975.500,1105.500,1159.000,1007.500
0.631,977.500,1107.000,1161.000,1009.500
0.632,979.500,1108.500,1163.500,1011.500
0.633,981.000,1110.000,1165.000,1013.500
0.634,982.000,1110.500,1166.000,1014.000
0.635,982.000,1110.000,1165.500,1014.000
0.636,981.000,1109.000,1164.500,1013.000
0.637,979.500,1107.000,1162.500,1011.000
0.638,977.000,1105.000,1160.000,1008.500
0.639,975.000,1103.000,1157.000,1006.000
0.640,973.000,1101.500,1154.500,1004.000
0.641,971.500,1100.500,1153.000,1003.000
0.642,970.500,1100.000,1152.000,1002.500
0.643,970.500,1100.000,1152.000,1002.500
0.644,970.500,1100.000,1152.500,1002.500
0.645,971.500,1101.000,1153.500,1003.500
0.646,972.500,1101.500,1154.500,1004.500
0.647,973.500,1102.500,1156.000,1005.500
0.648,975.000,1103.500,1157.500,1007.000
0.649,976.500,1104.500,1159.000,1008.500
0.650,978.500,1106.000,1161.000,1010.500
0.651,980.500,1107.500,1163.500,1013.000
0.652,982.500,1109.500,1166.000,1015.000
0.653,984.000,1110.500,1168.000,1017.000
0.654,985.000,1111.000,1169.000,1017.500
0.655,985.000,1111.000,1169.000,1017.500
0.656,984.000,1110.000,1168.000,1016.500
0.657,982.000,1108.500,1166.000,1014.500
0.658,980.000,1106.500,1163.000,1012.000
0.659,977.500,1104.500,1160.500,1009.500
0.660,975.000,1102.500,1157.500,1007.500
0.661,973.500,1101.500,1156.000,1006.000
0.662,972.500,1100.500,1155.000,1005.000
0.663,972.500,1100.500,1155.000,1004.500
0.664,972.500,1101.000,1155.000,1004.500
0.665,973.000,1101.500,1156.000,1005.500
0.666,974.000,1102.500,1157.000,1006.500
0.667,975.000,1103.500,1158.500,1007.500
0.668,976.500,1104.500,1160.500,1009.000
0.669,978.000,1106.000,1162.500,1011.000
0.670,980.500,1108.000,1165.000,1013.500
0.671,982.500,1110.000,1167.000,1016.000
0.672,985.000,1111.500,1169.500,1018.500
0.673,987.000,1113.000,1171.500,1020.500
0.674,988.000,1114.000,1173.000,1021.500
0.675,988.000,1114.000,1173.000,1021.500
0.676,987.500,1113.000,1172.000,1020.500
0.677,986.000,1111.500,1170.500,1019.000
0.678,983.500,1109.500,1168.000,1016.500
0.679,981.000,1107.500,1165.500,1014.500
0.680,979.000,1106.000,1163.000,1012.000
0.681,977.000,1104.500,1161.000,1010.500
0.682,976.000,1104.000,1160.000,1009.500
0.683,975.500,1103.500,1159.500,1009.500
0.684,975.500,1103.500,1159.500,1009.500
0.685,976.000,1104.000,1160.000,1010.500
0.686,976.500,1105.000,1161.000,1011.500
0.687,977.500,1105.500,1162.000,1012.500
0.688,979.000,1107.000,1163.500,1014.000
0.689,980.500,1108.000,1165.500,1015.500
0.690,982.000,1109.500,1167.500,1017.000
0.691,984.000,1111.000,1170.000,1019.500
0.692,986.500,1112.000,1172.000,1021.500
0.693,988.000,1113.500,1174.000,1023.000
0.694,989.500,1114.000,1175.000,1024.500
0.695,989.500,1114.000,1175.000,1024.500
0.696,989.000,1113.000,1174.000,1024.000
0.697,987.500,1112.000,1172.500,1022.000
0.698,985.500,1110.000,1170.000,1020.000
0.699,983.000,1108.000,1167.500,1018.000
0.700,981.000,1106.500,1165.000,1016.000
0.701,979.500,1105.000,1163.500,1014.500
0.702,979.000,1104.500,1163.000,1014.000
0.703,979.000,1104.500,1163.000,1014.000
0.704,979.500,1105.000,1163.500,1014.500
0.705,980.000,1106.000,1164.000,1015.000
0.706,981.000,1107.000,1165.000,1016.000
0.707,982.000,1108.000,1166.500,1017.500
0.708,983.500,1109.000,1168.000,1019.000
0.709,985.000,1110.500,1170.000,1020.500
0.710,987.000,1112.000,1172.500,1023.000
0.711,989.500,1114.000,1175.000,1025.500
0.712,991.500,1115.500,1177.500,1028.000
0.713,993.500,1117.000,1179.500,1030.000
0.714,995.000,1117.500,1180.500,1031.000
0.715,995.000,1117.500,1181.000,1031.000
0.716,994.000,1116.500,1180.000,1030.000
0.717,992.500,1115.000,1178.000,1028.000
0.718,990.000,1113.000,1175.000,1026.000
0.719,987.500,1111.000,1172.500,1023.500
0.720,985.500,1109.500,1170.000,1021.000
0.721,984.000,1108.000,1168.000,1019.500
0.722,983.000,1107.500,1167.000,1018.500
0.723,982.500,1107.000,1166.500,1018.000
0.724,982.500,1107.000,1166.500,1018.500
0.725,983.000,1107.500,1167.000,1019.000
0.726,983.500,1108.500,1168.000,1020.000
0.727,984.500,1109.500,1169.500,1021.000
0.728,986.000,1110.500,1171.000,1023.000
0.729,987.500,1112.000,1173.000,1024.500
0.730,989.500,1113.500,1175.000,1027.000
0.731,992.000,1115.500,1178.000,1029.000
0.732,994.000,1117.000,1180.500,1031.500
0.733,996.000,1118.500,1182.000,1033.000
0.734,997.000,1119.000,1183.000,1034.000
0.735,997.000,1119.000,1183.000,1034.000
0.736,996.500,1118.000,1182.000,1033.000
0.737,994.500,1116.500,1180.000,1031.500
0.738,992.500,1114.500,1177.500,1029.000
0.739,990.000,1112.500,1174.500,1026.500
0.740,988.000,1110.500,1172.500,1024.500
0.741,986.500,1109.500,1171.000,1023.000
0.742,986.000,1109.000,1170.000,1022.000
0.743,985.500,1109.000,1169.500,1022.000
0.744,986.000,1109.500,1170.000,1022.500
0.745,986.500,1110.000,1170.500,1023.000
0.746,987.000,1110.500,1171.500,1024.000
0.747,988.000,1111.000,1172.500,1025.000
0.748,989.000,1112.500,1174.000,1026.500
0.749,990.000,1113.500,1176.000,1028.000
0.750,992.000,1115.000,1178.000,1030.000
0.751,993.500,1117.000,1180.000,1032.000
0.752,995.500,1118.500,1182.000,1034.000
0.753,997.000,1119.500,1184.000,1035.500
0.754,998.000,1120.000,1184.500,1036.000
0.755,998.000,1119.500,1184.500,1036.000
0.756,997.000,1118.000,1183.000,1034.500
0.757,995.000,1116.500,1180.500,1032.500
0.758,992.500,1114.000,1178.000,1030.000
0.759,989.500,1111.500,1174.500,1027.000
0.760,987.000,1109.500,1172.000,1024.500
0.761,985.500,1108.500,1170.000,1023.000
0.762,984.500,1108.000,1169.000,1021.500
0.763,984.500,1108.000,1169.000,1021.500
0.764,985.000,1108.500,1169.500,1021.500
0.765,986.000,1109.500,1170.000,1022.000
0.766,987.500,1110.000,1171.000,1023.000
0.767,988.500,1111.000,1172.500,1024.000
0.768,990.000,1112.500,1173.500,1025.500
0.769,991.500,1114.000,1175.500,1027.000
0.770,993.500,1115.500,1177.500,1029.000
0.771,995.500,1117.000,1179.500,1031.500
0.772,997.500,1118.500,1182.000,1033.500
0.773,999.000,1119.500,1184.000,1035.000
0.774,999.500,1120.000,1184.500,1036.000
0.775,999.500,1119.500,1184.500,1035.500
0.776,997.500,1118.000,1182.500,1034.000
0.777,995.000,1115.500,1180.000,1031.500
0.778,991.500,1112.500,1176.500,1028.500
0.779,987.500,1109.500,1173.000,1025.500
0.780,984.000,1106.500,1169.500,1023.000
0.781,981.000,1104.500,1167.000,1020.500
0.782,978.500,1102.500,1165.000,1019.500
0.783,977.000,1101.500,1163.500,1018.500
0.784,976.000,1101.000,1163.000,1018.500
0.785,976.000,1101.000,1163.500,1019.000
0.786,976.000,1101.500,1163.500,1019.500
0.787,976.500,1102.000,1164.000,1020.500
0.788,977.500,1102.500,1165.000,1021.500
0.789,978.500,1103.500,1166.000,1023.000
0.790,980.000,1104.500,1167.500,1024.500
0.791,982.000,1106.000,1169.500,1026.000
0.792,984.000,1107.000,1171.000,1027.500
0.793,985.500,1108.000,1172.000,1028.500
0.794,986.500,1108.500,1172.500,1028.500
0.795,986.500,1108.000,1172.000,1027.500
0.796,985.500,1106.500,1171.000,1026.000
0.797,984.500,1105.500,1169.000,1023.500
0.798,983.000,1103.500,1166.500,1021.000
0.799,981.500,1102.500,1164.000,1018.500
0.800,980.000,1101.500,1162.000,1016.000
0.801,979.500,1101.000,1160.500,1014.500
0.802,979.000,1101.000,1160.000,1014.000
0.803,979.000,1101.500,1160.000,1013.500
0.804,979.500,1102.000,1160.000,1013.500
0.805,980.000,1102.500,1160.500,1014.000
0.806,980.500,1103.000,1161.000,1015.000
0.807,981.500,1103.500,1162.000,1016.000
0.808,982.500,1104.500,1163.500,1017.000
0.809,983.500,1105.000,1165.000,1018.500
0.810,985.500,1106.500,1167.000,1020.500
0.811,987.000,1108.000,1169.000,1023.000
0.812,989.000,1109.500,1171.000,1025.000
0.813,990.500,1110.500,1173.000,1026.500
0.814,991.500,1111.000,1173.500,1027.000
0.815,991.500,1110.500,1173.500,1026.500
0.816,990.500,1109.500,1172.500,1025.500
0.817,989.000,1108.000,1170.000,1023.500
0.818,986.500,1105.500,1167.000,1020.500
0.819,983.500,1103.000,1164.500,1018.000
0.820,981.500,1101.000,1161.500,1015.500
0.821,979.500,1099.500,1159.500,1013.500
0.822,978.500,1098.500,1158.500,1012.500
0.823,978.000,1098.500,1158.000,1012.000
0.824,978.500,1099.000,1158.000,1012.000
0.825,978.500,1099.500,1158.500,1012.500
0.826,979.500,1100.500,1159.000,1013.500
0.827,980.500,1101.500,1160.500,1014.500
0.828,981.500,1102.500,1161.500,1015.500
0.829,983.500,1103.500,1163.500,1017.000
0.830,985.000,1104.500,1165.000,1019.000
0.831,987.500,1106.000,1167.500,1021.000
0.832,989.500,1107.000,1169.500,1023.000
0.833,991.000,1108.000,1171.000,1024.500
0.834,991.500,1108.500,1171.500,1025.500
0.835,991.500,1108.500,1171.500,1025.500
0.836,990.000,1107.500,1170.500,1024.000
0.837,988.500,1106.500,1168.500,1022.000
0.838,986.500,1104.500,1166.000,1019.500
0.839,984.000,1102.000,1163.000,1017.000
0.840,982.000,1100.500,1161.000,1014.500
0.841,980.500,1099.000,1159.000,1012.500
0.842,979.500,1098.000,1158.000,1011.500
0.843,979.000,1098.000,1157.500,1011.000
0.844,979.000,1098.000,1157.500,1011.000
0.845,979.500,1098.500,1158.000,1011.500
0.846,980.000,1099.000,1159.000,1012.500
0.847,981.000,1100.000,1160.500,1014.000
0.848,982.000,1101.000,1162.000,1015.000
0.849,983.500,1102.500,1164.000,1017.000
0.850,985.000,1104.000,1166.000,1019.000
0.851,987.000,1105.500,1168.500,1021.000
0.852,989.000,1107.000,1170.500,1023.000
0.853,990.500,1108.000,1172.000,1025.000
0.854,991.500,1108.500,1172.500,1025.500
0.855,991.500,1108.000,1172.500,1025.500
0.856,990.500,1106.500,1171.500,1024.500
0.857,989.000,1104.500,1169.500,1022.500
0.858,987.000,1102.500,1166.500,1020.000
0.859,984.500,1100.000,1164.000,1017.500
0.860,982.000,1098.500,1161.500,1015.500
0.861,980.000,1097.000,1159.500,1014.000
0.862,979.000,1096.500,1158.500,1013.000
0.863,979.000,1096.500,1158.000,1012.500
0.864,979.500,1096.500,1158.000,1013.000
0.865,980.000,1097.000,1159.000,1013.000
0.866,981.000,1097.500,1160.000,1014.000
0.867,982.500,1098.500,1161.500,1014.500
0.868,983.500,1099.500,1163.000,1016.000
0.869,985.000,1100.500,1165.000,1017.500
0.870,986.500,1101.500,1167.500,1019.000
0.871,988.500,1103.000,1169.500,1021.000
0.872,990.500,1104.000,1171.500,1023.000
0.873,992.000,1105.000,1173.500,1024.500
0.874,993.000,1105.500,1174.000,1025.500
0.875,993.500,1105.500,1174.000,1025.500
0.876,992.500,1104.500,1172.500,1024.000
0.877,990.500,1102.500,1170.500,1022.000
0.878,988.500,1100.500,1168.000,1019.500
0.879,986.000,1098.500,1165.000,1017.500
0.880,984.000,1096.500,1162.500,1015.000
0.881,982.500,1095.500,1160.500,1013.500
0.882,981.500,1095.000,1159.500,1013.000
0.883,981.000,1095.000,1159.500,1013.000
0.884,981.500,1095.000,1159.500,1013.000
0.885,982.000,1095.500,1160.500,1013.500
0.886,982.500,1096.500,1161.500,1014.500
0.887,984.000,1097.500,1163.000,1016.000
0.888,985.000,1098.500,1164.500,1017.500
0.889,987.000,1100.000,1166.000,1019.500
0.890,988.500,1102.000,1168.000,1021.500
0.891,990.500,1103.500,1170.500,1023.500
0.892,992.500,1105.500,1172.500,1025.500
0.893,994.000,1106.500,1174.000,1027.000
0.894,994.500,1107.000,1175.000,1028.000
0.895,994.500,1107.000,1175.000,1027.500
0.896,993.500,1106.000,1173.500,1026.500
0.897,991.500,1104.000,1171.500,1024.500
0.898,989.000,1102.000,1169.000,1021.500
0.899,986.500,1100.000,1166.000,1019.000
0.900,983.500,1098.000,1163.500,1016.000
0.901,981.500,1096.500,1161.000,1014.000
0.902,980.500,1095.500,1159.500,1012.500
0.903,979.500,1095.000,1159.000,1012.000
0.904,979.500,1094.500,1158.500,1011.500
0.905,979.500,1095.000,1158.500,1012.000
0.906,980.500,1095.500,1159.500,1012.500
0.907,981.500,1096.000,1160.500,1013.500
0.908,982.500,1097.000,1162.000,1014.500
0.909,984.000,1098.000,1164.000,1016.000
0.910,985.500,1099.500,1166.000,1018.000
0.911,987.500,1101.000,1168.000,1020.000
0.912,989.000,1102.000,1170.000,1022.000
0.913,990.500,1103.000,1172.000,1023.500
0.914,991.500,1103.500,1172.500,1024.000
0.915,991.500,1103.000,1172.500,1023.500
0.916,990.500,1102.000,1171.000,1022.500
0.917,988.500,1100.000,1169.000,1020.500
0.918,986.000,1098.000,1166.000,1018.000
0.919,983.500,1096.000,1163.000,1015.000
0.920,981.000,1094.000,1160.500,1012.500
0.921,979.500,1093.000,1158.500,1011.000
0.922,978.500,1092.500,1157.500,1009.500
0.923,978.000,1092.500,1157.000,1009.000
0.924,978.000,1092.500,1157.000,1009.000
0.925,978.500,1093.000,1158.000,1009.500
0.926,979.000,1093.500,1159.000,1010.500
0.927,980.000,1094.000,1160.000,1011.500
0.928,981.000,1094.500,1161.000,1012.500
0.929,982.500,1095.500,1162.500,1014.000
0.930,984.000,1096.500,1164.500,1015.500
0.931,986.000,1098.000,1166.000,1017.500
0.932,988.000,1099.000,1167.500,1019.000
0.933,989.500,1100.000,1169.000,1020.500
0.934,990.000,1100.000,1169.500,1021.000
0.935,990.000,1099.500,1169.000,1020.000
0.936,988.500,1098.500,1167.000,1018.500
0.937,986.500,1096.500,1165.000,1016.000
0.938,983.500,1094.500,1162.000,1013.000
0.939,981.000,1092.000,1159.000,1010.500
0.940,978.500,1090.500,1156.500,1008.000
0.941,976.500,1089.000,1154.500,1006.500
0.942,976.000,1088.500,1154.000,1005.500
0.943,975.500,1088.000,1153.500,1005.000
0.944,975.500,1088.000,1153.500,1005.000
0.945,976.000,1088.500,1154.000,1005.500
0.946,976.500,1089.500,1154.500,1006.000
0.947,978.000,1090.500,1155.500,1007.500
0.948,979.000,1091.500,1157.000,1009.000
0.949,981.000,1093.000,1159.000,1010.500
0.950,983.000,1094.500,1161.000,1013.000
0.951,985.500,1096.000,1163.000,1015.000
0.952,987.500,1098.000,1165.000,1017.500
0.953,989.500,1099.000,1167.000,1019.000
0.954,990.500,1100.000,1168.000,1020.000
0.955,991.000,1099.500,1168.000,1020.000
0.956,990.000,1099.000,1167.500,1018.500
0.957,988.000,1097.000,1165.500,1016.500
0.958,985.500,1095.000,1162.500,1014.000
0.959,983.000,1093.000,1160.000,1011.500
0.960,980.500,1091.500,1157.000,1009.000
0.961,979.000,1090.500,1155.500,1007.500
0.962,978.000,1090.000,1154.500,1007.000
0.963,978.000,1089.500,1154.500,1007.000
0.964,978.000,1090.000,1154.500,1007.500
0.965,978.500,1090.500,1155.500,1008.000
0.966,979.500,1091.500,1156.000,1009.000
0.967,980.500,1092.500,1157.500,1010.000
0.968,981.500,1093.500,1158.500,1011.000
0.969,983.000,1095.000,1160.000,1012.500
0.970,984.500,1096.000,1162.000,1014.000
0.971,986.500,1097.500,1164.000,1016.000
0.972,988.000,1099.000,1166.000,1017.500
0.973,989.500,1100.000,1167.500,1019.000
0.974,990.000,1100.500,1168.000,1019.500
0.975,989.500,1100.000,1168.000,1019.500
0.976,988.500,1099.000,1167.000,1018.000
0.977,986.500,1097.500,1165.000,1016.000
0.978,984.000,1095.500,1162.000,1013.000
0.979,981.000,1093.000,1159.000,1010.500
0.980,978.500,1091.500,1156.500,1008.000
0.981,977.000,1090.000,1154.000,1006.000
0.982,975.500,1089.000,1152.500,1004.500
0.983,975.000,1088.500,1152.000,1004.000
0.984,975.000,1088.500,1152.000,1004.000
0.985,975.000,1089.000,1152.000,1004.500
0.986,975.500,1089.500,1153.000,1005.000
0.987,976.500,1090.500,1154.000,1006.000
0.988,977.500,1091.500,1155.500,1007.000
0.989,979.000,1093.000,1157.000,1008.500
0.990,980.500,1094.500,1159.000,1010.500
0.991,983.000,1096.500,1161.500,1012.500
0.992,985.000,1098.500,1163.500,1014.500
0.993,986.500,1099.500,1165.500,1016.000
0.994,987.500,1100.500,1166.500,1016.500
0.995,987.500,1100.000,1166.000,1016.000
0.996,986.000,1099.000,1164.500,1015.000
0.997,984.500,1097.000,1162.500,1012.500
0.998,982.000,1095.000,1159.500,1010.000
0.999,979.000,1093.000,1157.000,1007.000
1.000,977.000,1091.500,1154.500,1005.000
1.001,975.000,1090.000,1152.500,1003.000
1.002,974.000,1089.500,1151.500,1002.000
1.003,973.000,1089.000,1151.000,1001.500
1.004,973.000,1089.000,1150.500,1001.500
1.005,973.500,1089.500,1151.000,1001.500
1.006,974.000,1090.000,1151.500,1002.000
1.007,975.000,1090.500,1153.000,1003.000
1.008,976.500,1091.500,1154.000,1004.500
1.009,978.000,1093.000,1156.000,1006.000
1.010,980.000,1094.500,1158.000,1008.000
1.011,982.000,1096.500,1160.500,1010.000
1.012,984.000,1098.000,1162.500,1012.000
1.013,985.500,1099.000,1164.000,1013.500
1.014,986.000,1099.500,1164.500,1014.000
1.015,986.000,1099.000,1164.000,1013.500
1.016,984.500,1097.500,1162.500,1012.000
1.017,982.500,1096.000,1160.500,1009.500
1.018,980.000,1093.500,1157.500,1006.500
1.019,977.500,1091.500,1154.500,1004.000
1.020,975.000,1089.500,1152.000,1001.500
1.021,973.500,1088.000,1150.000,999.500
1.022,972.000,1087.500,1149.000,998.500
1.023,971.500,1087.000,1148.500,998.000
1.024,971.500,1087.000,1148.500,998.000
1.025,972.000,1087.000,1149.000,998.500
1.026,972.500,1087.500,1150.000,999.500
1.027,973.500,1088.500,1151.000,1000.500
1.028,975.000,1089.500,1152.500,1002.000
1.029,976.500,1091.000,1154.000,1003.500
1.030,978.000,1092.500,1156.000,1005.500
1.031,980.500,1094.000,1158.500,1007.500
1.032,982.000,1095.500,1160.500,1010.000
1.033,984.000,1097.000,1162.000,1011.500
1.034,984.500,1097.500,1163.000,1012.000
1.035,984.500,1097.000,1162.500,1011.500
1.036,983.000,1096.000,1161.500,1010.500
1.037,981.000,1094.500,1159.000,1008.000
1.038,978.500,1092.500,1156.000,1005.500
1.039,975.500,1090.000,1153.000,1002.500
1.040,973.000,1088.000,1150.500,1000.000
1.041,971.000,1086.500,1148.000,998.000
1.042,969.500,1085.500,1146.500,996.500
1.043,969.000,1085.000,1146.000,996.000
1.044,969.000,1084.500,1145.500,995.500
1.045,969.000,1085.000,1146.000,996.000
1.046,969.500,1085.500,1146.500,996.500
1.047,970.500,1086.000,1147.500,997.500
1.048,971.500,1087.000,1148.500,998.500
1.049,973.000,1088.500,1150.000,1000.000
1.050,974.500,1089.500,1152.000,1002.000
1.051,976.500,1091.000,1154.000,1003.500
1.052,978.000,1092.500,1156.000,1005.500
1.053,979.500,1093.500,1157.500,1007.000
1.054,980.000,1094.000,1158.500,1007.500
1.055,979.500,1093.500,1158.000,1007.500
1.056,978.500,1092.500,1156.500,1006.000
1.057,977.000,1090.500,1154.500,1004.000
1.058,974.500,1088.500,1151.500,1001.500
1.059,972.500,1086.500,1149.000,999.000
1.060,970.000,1084.500,1146.500,997.500
1.061,969.000,1083.500,1145.000,996.000
1.062,968.000,1083.500,1144.000,995.500
1.063,967.500,1083.500,1144.000,995.000
1.064,968.000,1083.500,1144.500,995.500
1.065,968.500,1084.500,1145.000,996.000
1.066,969.000,1085.000,1146.000,997.000
1.067,970.000,1086.000,1147.000,998.500
1.068,971.500,1087.000,1148.500,1000.000
1.069,973.000,1088.500,1150.500,1001.500
1.070,975.000,1089.500,1152.500,1003.500
1.071,977.000,1091.500,1155.000,1006.000
1.072,979.000,1092.500,1157.500,1008.000
1.073,980.500,1094.000,1159.000,1009.500
1.074,981.500,1094.500,1160.000,1010.500
1.075,981.500,1094.000,1160.000,1010.500
1.076,980.500,1093.000,1159.000,1009.000
1.077,978.500,1091.500,1156.500,1007.000
1.078,976.000,1089.500,1153.500,1004.500
1.079,973.500,1087.500,1151.000,1002.000
1.080,971.000,1085.500,1148.500,999.500
1.081,969.000,1084.000,1146.500,997.500
1.082,968.000,1083.000,1145.500,996.500
1.083,967.000,1082.500,1145.000,995.500
1.084,967.000,1082.000,1145.000,995.500
1.085,967.500,1082.500,1145.500,996.000
1.086,968.000,1083.000,1146.000,996.500
1.087,969.000,1083.500,1147.000,997.500
1.088,969.500,1084.500,1148.000,999.000
1.089,971.000,1085.500,1149.500,1000.500
1.090,972.500,1087.000,1151.500,1002.000
1.091,974.500,1088.500,1153.500,1004.500
1.092,977.000,1089.500,1156.000,1006.500
1.093,978.500,1090.500,1157.500,1008.000
1.094,979.500,1091.000,1158.500,1008.500
1.095,979.500,1091.000,1158.500,1008.000
1.096,978.000,1089.500,1157.000,1006.500
1.097,976.000,1087.500,1155.000,1004.000
1.098,973.500,1085.000,1152.000,1001.000
1.099,970.500,1083.000,1149.000,998.000
1.100,968.000,1080.500,1146.000,995.500
1.101,966.500,1079.000,1143.500,993.500
1.102,965.000,1078.000,1142.500,992.000
1.103,964.500,1078.000,1141.500,991.500
1.104,964.000,1077.500,1141.500,991.500
1.105,964.500,1078.000,1141.500,991.500
1.106,965.000,1078.500,1142.000,992.000
1.107,966.000,1079.000,1143.000,992.500
1.108,967.000,1080.000,1144.000,993.500
1.109,968.500,1081.000,1145.500,995.000
1.110,970.000,1082.000,1147.000,996.500
1.111,972.000,1083.500,1149.000,998.000
1.112,973.500,1084.500,1151.000,999.500
1.113,975.000,1085.500,1152.500,1001.000
1.114,975.500,1085.500,1153.500,1001.500
1.115,975.500,1085.000,1153.000,1001.000
1.116,974.500,1084.000,1152.000,1000.000
1.117,972.500,1082.000,1149.500,997.500
1.118,970.000,1080.000,1147.000,995.000
1.119,967.500,1078.000,1144.000,992.000
1.120,965.000,1076.000,1141.500,989.500
1.121,963.500,1074.500,1139.500,987.500
1.122,962.000,1074.000,1138.500,986.500
1.123,961.500,1073.500,1138.000,986.000
1.124,961.500,1073.500,1138.000,985.500
1.125,962.000,1074.000,1138.500,986.000
1.126,962.500,1075.000,1139.000,986.500
1.127,963.500,1076.000,1140.500,987.500
1.128,965.000,1077.000,1142.000,989.000
1.129,966.500,1078.500,1144.000,990.500
1.130,968.500,1080.000,1146.000,992.500
1.131,970.500,1081.500,1148.000,994.500
1.132,972.500,1083.000,1150.500,996.500
1.133,974.500,1084.000,1152.000,998.000
1.134,975.000,1084.500,1152.500,998.500
1.135,975.000,1084.000,1152.000,998.000
1.136,973.500,1082.500,1150.500,996.500
1.137,971.500,1080.500,1148.500,994.500
1.138,969.000,1078.000,1145.500,991.500
1.139,966.000,1075.500,1142.500,989.000
1.140,963.500,1073.500,1140.000,986.500
1.141,962.000,1072.000,1138.000,985.000
1.142,961.000,1071.500,1137.000,983.500
1.143,960.500,1071.000,1136.500,983.500
1.144,961.000,1071.500,1136.500,983.500
1.145,961.500,1072.000,1137.000,984.000
1.146,962.000,1072.500,1138.000,985.000
1.147,963.000,1073.500,1139.000,986.000
1.148,964.000,1075.000,1140.500,987.500
1.149,965.500,1076.000,1142.500,989.000
1.150,967.500,1077.500,1144.500,990.500
1.151,969.500,1079.000,1146.000,992.500
1.152,971.500,1080.500,1148.000,994.500
1.153,973.000,1081.500,1149.500,996.000
1.154,974.000,1081.500,1150.000,996.500
1.155,974.000,1081.000,1149.500,996.000
1.156,973.000,1080.000,1148.000,995.000
1.157,971.000,1078.000,1146.000,993.000
1.158,968.500,1076.000,1143.000,990.000
1.159,965.500,1073.500,1140.500,987.500
1.160,963.000,1071.500,1137.500,985.000
1.161,961.000,1069.500,1135.500,983.000
1.162,960.000,1069.000,1134.500,981.500
1.163,959.000,1068.500,1133.500,981.000
1.164,959.000,1068.500,1133.500,980.500
1.165,959.500,1069.000,1134.000,980.500
1.166,960.000,1069.500,1134.000,981.000
1.167,960.500,1070.000,1135.000,982.000
1.168,961.500,1070.500,1136.000,983.000
1.169,962.500,1072.000,1137.000,984.000
1.170,963.500,1073.000,1139.000,986.000
1.171,965.500,1074.500,1140.500,988.000
1.172,967.000,1075.500,1142.000,989.500
1.173,968.000,1076.000,1143.500,991.000
1.174,968.000,1075.500,1143.500,991.000
1.175,967.500,1074.500,1142.500,990.000
1.176,965.500,1072.500,1141.000,988.500
1.177,963.000,1070.000,1138.500,986.000
1.178,960.000,1067.500,1135.500,983.000
1.179,956.500,1065.000,1132.000,980.000
1.180,953.500,1063.000,1129.500,977.500
1.181,951.500,1061.500,1127.500,976.000
1.182,950.000,1060.500,1126.500,975.500
1.183,949.500,1060.000,1126.500,976.000
1.184,949.500,1060.500,1126.500,976.500
1.185,949.500,1061.000,1127.500,978.000
1.186,950.500,1062.000,1129.000,980.000
1.187,951.500,1063.500,1131.000,982.000
1.188,953.000,1065.000,1133.500,985.000
1.189,954.500,1067.500,1136.500,988.500
1.190,957.000,1070.000,1140.000,992.500
1.191,959.500,1072.500,1144.000,997.000
1.192,962.500,1075.500,1148.000,1002.000
1.193,965.500,1078.500,1152.000,1006.500
1.194,967.500,1081.000,1155.500,1010.000
1.195,969.000,1082.500,1157.500,1012.500
1.196,969.500,1083.500,1158.500,1014.000
1.197,969.000,1084.000,1158.000,1014.500
1.198,968.000,1084.000,1157.500,1014.500
1.199,967.000,1083.500,1156.500,1014.000
1.200,966.500,1083.000,1156.000,1013.500
1.201,966.000,1083.500,1156.000,1013.500
1.202,967.000,1084.500,1156.500,1014.000
1.203,968.000,1086.000,1157.500,1014.000
1.204,970.000,1087.500,1159.000,1014.500
1.205,971.500,1089.000,1159.500,1014.500
1.206,973.500,1090.500,1160.000,1014.000
1.207,975.000,1091.500,1160.500,1013.000
1.208,977.000,1092.000,1161.000,1012.500
1.209,978.500,1093.000,1161.500,1012.000
1.210,980.500,1094.000,1162.000,1011.500
1.211,982.500,1095.000,1163.500,1012.000
1.212,984.500,1096.000,1165.000,1012.500
1.213,986.000,1096.500,1166.000,1013.000
1.214,986.000,1096.500,1166.000,1013.000
1.215,985.500,1095.500,1165.000,1011.500
1.216,983.500,1093.500,1162.500,1009.500
1.217,980.500,1090.500,1159.500,1006.500
1.218,977.000,1087.500,1155.500,1002.500
1.219,973.500,1084.000,1151.500,998.500
1.220,970.500,1081.000,1147.500,994.500
1.221,968.000,1079.000,1144.500,991.500
1.222,966.500,1077.500,1142.500,989.000
1.223,965.500,1076.500,1141.000,987.500
1.224,965.500,1076.000,1140.500,987.000
1.225,965.500,1076.000,1140.500,986.500
1.226,966.000,1076.500,1141.000,986.500
1.227,967.000,1077.500,1142.000,987.500
1.228,968.500,1078.500,1143.500,988.500
1.229,970.500,1080.000,1145.500,990.000
1.230,973.000,1082.000,1147.500,992.000
1.231,976.000,1084.000,1150.500,994.000
1.232,978.500,1085.500,1153.000,996.000
1.233,980.500,1087.000,1155.000,997.500
1.234,982.000,1088.000,1156.000,998.500
1.235,982.000,1088.000,1156.000,998.500
1.236,981.000,1087.000,1155.000,997.500
1.237,979.000,1085.000,1153.000,996.000
1.238,976.000,1083.000,1150.000,993.500
1.239,973.000,1080.000,1147.000,991.000
1.240,970.000,1078.000,1144.000,988.500
1.241,967.500,1076.000,1142.000,987.000
1.242,966.000,1075.000,1141.000,986.000
1.243,965.000,1074.500,1140.500,986.000
1.244,965.000,1074.500,1140.500,986.500
1.245,965.500,1075.000,1141.000,987.000
1.246,966.000,1075.500,1142.000,988.000
1.247,967.000,1077.000,1143.500,989.000
1.248,968.000,1078.000,1145.000,990.500
1.249,969.500,1079.000,1146.500,992.000
1.250,971.500,1080.500,1148.500,994.000
1.251,973.500,1082.000,1150.500,996.500
1.252,975.500,1083.500,1152.500,998.500
1.253,977.000,1084.500,1154.000,1000.000
1.254,977.500,1084.500,1155.000,1001.000
1.255,977.500,1084.000,1154.500,1001.000
1.256,976.000,1083.000,1153.500,1000.000
1.257,974.000,1081.500,1151.500,998.000
1.258,971.500,1079.500,1149.000,995.500
1.259,969.000,1077.500,1146.000,992.500
1.260,967.000,1075.500,1143.500,990.500
1.261,965.500,1074.500,1142.000,989.000
1.262,964.500,1074.000,1141.000,988.000
1.263,964.000,1074.000,1140.500,988.000
1.264,964.500,1074.000,1141.000,988.000
1.265,965.000,1075.000,1141.500,988.500
1.266,965.500,1075.500,1142.000,989.500
1.267,966.500,1076.000,1143.000,990.500
1.268,968.000,1077.000,1144.500,992.000
1.269,969.500,1078.500,1146.000,993.500
1.270,971.000,1080.000,1148.000,995.500
1.271,973.500,1081.500,1150.500,998.000
1.272,975.500,1083.000,1153.000,999.500
1.273,977.000,1084.500,1154.500,1001.000
1.274,977.500,1085.000,1155.000,1001.500
1.275,977.500,1084.500,1154.500,1001.500
1.276,976.000,1083.500,1153.500,1000.000
1.277,974.000,1081.500,1151.000,998.000
1.278,971.500,1079.500,1148.000,995.500
1.279,969.000,1077.000,1145.000,992.500
1.280,966.500,1075.000,1142.500,990.000
1.281,965.000,1074.000,1140.500,988.500
1.282,963.500,1073.000,1139.500,987.000
1.283,963.000,1073.000,1139.000,986.500
1.284,963.000,1073.000,1139.000,986.500
1.285,963.500,1073.500,1139.500,987.000
1.286,964.000,1074.000,1140.000,987.500
1.287,965.000,1075.000,1141.500,988.500
1.288,966.000,1075.500,1142.500,990.000
1.289,967.000,1076.500,1144.000,991.500
1.290,968.500,1077.500,1145.500,993.000
1.291,970.000,1079.000,1147.000,994.500
1.292,971.500,1080.000,1149.000,996.500
1.293,973.000,1081.000,1150.500,997.500
1.294,973.500,1081.500,1151.000,998.000
1.295,973.000,1080.500,1150.500,997.500
1.296,971.500,1079.000,1149.000,996.000
1.297,969.000,1077.000,1146.500,993.500
1.298,966.500,1074.500,1143.500,990.500
1.299,963.500,1072.000,1140.000,987.500
1.300,960.500,1070.000,1137.000,985.000
1.301,958.500,1068.500,1135.000,982.500
1.302,956.500,1067.500,1133.500,981.000
1.303,955.500,1067.000,1132.500,980.000
1.304,955.000,1066.500,1132.000,979.500
1.305,955.000,1067.000,1132.500,979.500
1.306,955.500,1067.000,1133.000,979.500
1.307,956.000,1068.000,1133.500,980.500
1.308,957.000,1068.500,1134.500,981.500
1.309,958.500,1069.500,1136.000,982.500
1.310,960.000,1070.500,1137.500,984.500
1.311,961.500,1071.500,1139.500,986.000
1.312,963.000,1073.000,1141.000,987.500
1.313,964.000,1074.000,1142.500,988.500
1.314,964.500,1074.000,1143.000,989.000
1.315,964.000,1073.000,1142.500,988.000
1.316,962.500,1071.500,1140.500,986.000
1.317,960.000,1069.500,1138.000,983.500
1.318,957.000,1067.000,1135.000,980.500
1.319,954.000,1064.500,1131.500,977.500
1.320,951.000,1062.500,1128.500,975.000
1.321,949.000,1060.500,1126.500,973.000
1.322,947.500,1059.500,1125.000,972.000
1.323,947.000,1059.000,1124.500,971.000
1.324,947.000,1059.000,1124.000,971.000
1.325,947.000,1059.500,1124.500,971.000
1.326,947.500,1060.000,1125.000,971.500
1.327,948.500,1061.000,1126.000,972.500
1.328,949.500,1062.000,1127.500,973.500
1.329,951.000,1063.000,1129.000,975.000
1.330,952.500,1064.000,1130.500,977.000
1.331,954.000,1065.500,1132.500,978.500
1.332,955.500,1066.000,1134.500,980.500
1.333,956.500,1067.000,1136.000,981.500
1.334,957.000,1067.000,1136.500,982.000
1.335,956.500,1066.500,1136.000,981.500
1.336,955.500,1065.000,1134.500,980.000
1.337,953.000,1063.000,1132.000,977.500
1.338,950.500,1061.000,1129.000,975.000
1.339,947.500,1058.500,1126.000,972.000
1.340,945.000,1056.500,1123.500,970.000
1.341,943.500,1055.500,1121.500,968.500
1.342,942.500,1054.500,1120.500,967.500
1.343,942.000,1054.000,1120.000,967.000
1.344,941.500,1054.000,1119.500,967.000
1.345,941.500,1054.000,1120.000,967.500
1.346,941.500,1054.500,1120.500,967.500
1.347,942.000,1055.000,1121.000,968.500
1.348,943.000,1055.500,1122.500,969.500
1.349,944.000,1056.500,1124.000,970.500
1.350,946.000,1058.000,1125.500,972.500
1.351,947.500,1059.000,1127.500,974.000
1.352,949.500,1060.500,1129.500,976.000
1.353,950.500,1061.500,1130.500,977.500
1.354,951.000,1061.500,1131.500,978.000
1.355,950.500,1061.000,1131.000,978.000
1.356,949.500,1060.000,1129.500,976.500
1.357,947.500,1058.000,1127.500,974.500
1.358,944.500,1056.000,1124.500,972.000
1.359,942.000,1054.000,1122.000,969.500
1.360,939.500,1052.000,1119.500,967.500
1.361,938.000,1050.500,1117.500,965.500
1.362,936.500,1050.000,1116.500,965.000
1.363,936.000,1049.500,1116.000,964.500
1.364,936.000,1050.000,1116.500,964.500
1.365,936.500,1050.500,1117.000,965.000
1.366,937.000,1051.000,1118.000,966.000
1.367,938.000,1052.000,1119.000,967.000
1.368,939.500,1052.500,1120.500,968.000
1.369,941.000,1053.500,1122.000,970.000
1.370,942.500,1055.000,1124.000,972.000
1.371,944.500,1056.500,1126.500,974.000
1.372,946.500,1058.000,1129.000,976.000
1.373,948.000,1059.500,1130.500,978.000
1.374,949.000,1059.500,1131.500,978.500
1.375,948.500,1059.500,1131.000,978.000
1.376,947.500,1058.500,1130.000,977.000
1.377,945.500,1056.500,1127.500,974.500
1.378,943.000,1054.500,1125.000,972.000
1.379,940.000,1052.500,1122.000,969.000
1.380,938.000,1050.500,1119.500,967.000
1.381,936.000,1049.000,1118.000,965.000
1.382,935.000,1048.500,1117.000,964.500
1.383,934.500,1048.000,1116.500,964.000
1.384,934.500,1048.000,1116.500,964.000
1.385,934.500,1048.500,1117.000,964.500
1.386,935.000,1049.000,1117.500,965.500
1.387,936.000,1050.000,1118.500,966.500
1.388,937.000,1050.500,1120.000,968.000
1.389,938.500,1052.000,1122.000,969.500
1.390,940.000,1053.500,1124.000,971.500
1.391,942.000,1055.000,1126.500,974.000
1.392,943.500,1056.500,1128.500,976.000
1.393,945.000,1057.500,1130.500,978.000
1.394,945.500,1057.500,1131.000,978.500
1.395,945.000,1057.000,1130.500,978.500
1.396,944.000,1055.500,1129.000,977.000
1.397,942.000,1053.500,1127.000,974.500
1.398,939.500,1051.000,1124.000,972.000
1.399,936.500,1049.000,1121.000,969.000
1.400,934.000,1047.000,1118.500,966.500
1.401,932.000,1045.500,1116.500,964.500
1.402,930.500,1045.000,1115.000,963.000
1.403,929.500,1044.500,1114.500,962.500
1.404,929.500,1044.500,1114.500,962.500
1.405,929.500,1044.500,1114.500,963.000
1.406,930.000,1045.000,1115.500,964.000
1.407,930.500,1046.000,1116.500,965.000
1.408,931.500,1047.000,1117.500,966.000
1.409,933.000,1048.000,1119.000,967.500
1.410,934.500,1049.500,1121.000,969.500
1.411,936.500,1050.500,1123.500,971.500
1.412,938.500,1052.000,1125.500,973.000
1.413,940.000,1053.000,1127.000,974.500
1.414,941.000,1053.000,1127.500,975.000
1.415,941.000,1052.500,1127.500,974.500
1.416,940.000,1051.500,1126.000,973.500
1.417,938.000,1049.500,1123.500,971.000
1.418,935.000,1047.500,1120.500,968.500
1.419,932.000,1045.000,1117.500,965.500
1.420,929.500,1043.000,1114.500,963.000
1.421,927.000,1041.500,1112.500,961.000
1.422,925.500,1040.500,1111.000,960.000
1.423,924.500,1040.000,1110.500,959.000
1.424,924.000,1039.500,1110.000,959.000
1.425,924.000,1039.500,1110.000,959.000
1.426,924.500,1040.000,1110.500,959.500
1.427,925.000,1040.500,1111.000,960.000
1.428,925.500,1041.000,1112.500,961.000
1.429,927.000,1042.000,1114.000,962.500
1.430,928.500,1043.000,1116.000,964.500
1.431,930.000,1044.500,1118.000,966.500
1.432,932.000,1046.000,1120.500,968.500
1.433,933.000,1047.000,1122.000,970.000
1.434,934.000,1047.500,1122.500,970.000
1.435,933.500,1047.000,1122.000,969.500
1.436,932.000,1045.500,1120.000,967.500
1.437,929.500,1043.000,1117.500,965.000
1.438,926.000,1040.500,1114.000,961.500
1.439,923.000,1038.000,1110.500,958.500
1.440,920.000,1036.000,1107.500,955.500
1.441,917.500,1034.000,1105.500,953.500
1.442,916.000,1033.000,1104.000,952.000
1.443,915.000,1032.000,1103.000,951.000
1.444,914.500,1032.000,1102.500,950.500
1.445,914.000,1032.000,1102.500,950.000
1.446,914.500,1032.500,1102.500,950.000
1.447,915.000,1033.000,1103.000,950.500
1.448,915.500,1034.000,1104.000,951.500
1.449,917.000,1034.500,1105.000,952.500
1.450,918.000,1036.000,1107.000,954.000
1.451,919.500,1037.000,1109.000,956.000
1.452,921.500,1038.500,1111.000,957.500
1.453,923.000,1039.500,1112.500,959.000
1.454,923.500,1039.500,1113.000,959.500
1.455,923.000,1039.000,1112.500,958.500
1.456,921.500,1037.500,1110.500,956.500
1.457,919.500,1035.000,1107.500,954.000
1.458,916.500,1032.500,1104.000,951.000
1.459,913.500,1030.000,1100.500,947.500
1.460,911.000,1027.500,1097.500,944.500
1.461,909.000,1026.000,1095.500,942.500
1.462,907.500,1025.000,1094.000,941.000
1.463,906.500,1024.500,1093.000,940.500
1.464,906.000,1024.500,1093.000,940.000
1.465,906.000,1025.000,1093.000,940.000
1.466,906.500,1025.000,1094.000,940.500
1.467,907.000,1025.500,1094.500,941.000
1.468,908.000,1026.500,1095.500,942.000
1.469,909.000,1027.500,1097.000,943.000
1.470,910.500,1028.500,1099.000,944.500
1.471,912.500,1030.000,1101.000,946.000
1.472,914.500,1031.000,1103.000,948.000
1.473,916.000,1032.000,1104.500,949.000
1.474,916.500,1032.500,1105.500,949.500
1.475,916.500,1032.000,1105.000,949.000
1.476,915.500,1030.500,1103.500,947.500
1.477,913.000,1028.500,1101.500,945.000
1.478,910.500,1026.500,1098.500,942.000
1.479,907.500,1024.000,1095.000,939.000
1.480,905.000,1021.500,1092.000,936.000
1.481,903.000,1020.000,1090.000,934.000
1.482,902.000,1019.500,1088.500,932.500
1.483,901.500,1019.000,1088.000,932.000
1.484,901.500,1019.500,1087.500,932.000
1.485,901.500,1020.000,1088.000,932.000
1.486,902.500,1021.000,1088.500,933.000
1.487,903.500,1022.000,1089.500,934.000
1.488,904.500,1022.500,1091.000,935.000
1.489,905.500,1023.500,1092.500,936.000
1.490,907.000,1025.000,1094.500,937.500
1.491,909.000,1026.000,1096.500,939.500
1.492,911.000,1027.500,1098.500,941.000
1.493,913.000,1028.500,1100.000,942.500
1.494,913.500,1028.500,1100.500,943.000
1.495,913.000,1028.000,1100.000,942.500
1.496,911.500,1026.500,1098.500,941.000
1.497,909.500,1024.500,1096.000,938.500
1.498,906.500,1022.000,1093.000,935.000
1.499,903.500,1019.500,1089.500,932.000
1.500,901.000,1017.500,1087.000,929.500
1.501,899.000,1016.000,1084.500,927.500
1.502,897.500,1015.000,1083.000,926.500
1.503,897.000,1014.500,1082.500,925.500
1.504,897.000,1014.500,1082.000,925.500
1.505,897.000,1014.500,1082.500,925.500
1.506,897.500,1015.000,1083.000,926.000
1.507,898.500,1015.500,1084.500,927.000
1.508,899.500,1016.500,1085.500,927.500
1.509,900.500,1017.500,1087.000,929.000
1.510,902.000,1019.000,1088.500,930.000
1.511,904.000,1020.000,1090.500,932.000
1.512,905.500,1021.000,1092.000,934.000
1.513,907.000,1022.000,1093.500,935.000
1.514,907.500,1022.000,1094.000,935.500
1.515,907.000,1021.000,1093.000,935.000
1.516,905.500,1020.000,1091.500,933.000
1.517,903.500,1018.000,1089.000,930.500
1.518,900.500,1016.000,1086.000,927.500
1.519,898.000,1013.500,1082.500,924.500
1.520,895.000,1011.500,1080.000,921.500
1.521,893.000,1010.000,1077.500,919.500
1.522,891.500,1009.000,1076.000,918.000
1.523,890.500,1008.500,1075.500,917.500
1.524,890.000,1008.000,1075.000,917.000
1.525,890.000,1008.000,1075.000,917.000
1.526,890.500,1008.500,1075.500,917.500
1.527,891.000,1009.000,1076.000,918.000
1.528,891.500,1010.000,1077.000,919.000
1.529,893.000,1011.000,1078.500,920.500
1.530,894.500,1012.500,1080.500,922.500
1.531,896.500,1014.000,1082.500,924.500
1.532,898.000,1015.000,1084.500,926.000
1.533,899.500,1015.500,1086.000,927.500
1.534,899.500,1015.500,1086.000,928.000
1.535,899.000,1015.000,1085.500,927.000
1.536,897.500,1013.500,1083.500,925.500
1.537,895.000,1011.500,1081.000,922.500
1.538,892.000,1009.000,1078.000,919.500
1.539,889.000,1007.000,1074.500,916.000
1.540,886.000,1004.500,1071.500,913.000
1.541,884.000,1003.000,1069.000,911.000
1.542,882.500,1002.000,1067.000,909.500
1.543,881.500,1001.500,1066.000,909.000
1.544,881.500,1001.000,1065.500,908.500
1.545,881.500,1001.000,1065.500,908.500
1.546,882.000,1001.500,1066.000,909.000
1.547,882.500,1002.000,1066.500,909.500
1.548,883.500,1003.000,1067.500,910.500
1.549,885.000,1003.500,1069.000,911.500
1.550,886.500,1005.000,1070.500,913.000
1.551,888.500,1006.500,1072.500,915.000
1.552,890.000,1007.500,1074.500,916.500
1.553,891.500,1009.000,1076.000,918.000
1.554,892.000,1009.000,1076.500,918.500
1.555,891.500,1008.500,1076.000,918.000
1.556,890.500,1007.500,1075.000,916.500
1.557,888.500,1005.500,1072.500,914.500
1.558,885.500,1003.000,1070.000,911.500
1.559,883.000,1001.000,1067.000,909.000
1.560,881.000,999.500,1064.500,906.000
1.561,879.000,998.500,1062.500,904.500
1.562,878.000,998.000,1061.500,903.000
1.563,877.500,998.000,1061.000,902.500
1.564,877.000,998.500,1060.500,902.500
1.565,877.000,998.500,1061.000,903.000
1.566,878.000,999.000,1062.000,903.500
1.567,878.500,1000.000,1063.000,904.500
1.568,880.000,1001.000,1064.500,906.000
1.569,881.000,1002.000,1066.000,907.500
1.570,883.000,1003.500,1068.000,909.500
1.571,885.000,1005.500,1070.000,911.500
1.572,886.500,1007.000,1072.500,913.500
1.573,888.000,1008.000,1074.000,915.000
1.574,889.000,1008.500,1074.500,915.500
1.575,888.500,1008.000,1074.500,915.000
1.576,887.000,1006.500,1073.000,913.500
1.577,885.000,1004.500,1070.500,911.500
1.578,882.500,1002.500,1068.000,909.000
1.579,879.500,1000.500,1064.500,906.000
1.580,877.000,998.500,1062.000,903.500
1.581,875.000,997.000,1060.000,901.500
1.582,874.000,996.500,1058.500,900.000
1.583,873.500,996.500,1057.500,899.500
1.584,873.500,996.500,1057.500,899.500
1.585,873.500,997.000,1058.000,899.500
1.586,874.500,997.500,1058.500,900.000
1.587,875.000,998.000,1059.500,901.000
1.588,876.000,999.000,1061.000,902.500
1.589,877.500,1000.000,1062.500,904.000
1.590,879.000,1001.000,1064.000,905.500
1.591,880.500,1002.000,1066.000,907.000
1.592,882.000,1003.500,1068.000,909.000
1.593,883.500,1004.000,1069.500,910.000
1.594,884.000,1004.500,1070.000,910.500
1.595,883.500,1004.000,1069.500,910.000
1.596,882.500,1002.500,1068.000,908.500
1.597,880.500,1000.500,1065.500,906.500
1.598,878.000,998.500,1062.500,903.500
1.599,875.000,996.000,1060.000,901.000
1.600,872.500,994.500,1057.500,898.500
1.601,871.000,993.000,1055.500,897.000
1.602,869.500,992.500,1054.500,896.000
1.603,868.500,992.000,1054.000,896.000
1.604,868.500,992.500,1054.000,896.000
1.605,868.500,993.000,1054.000,896.500
1.606,869.500,993.500,1055.000,897.500
1.607,870.000,994.500,1056.000,898.500
1.608,871.000,995.500,1057.500,899.500
1.609,872.500,996.500,1059.000,901.000
1.610,874.500,998.000,1061.000,902.500
1.611,876.500,999.500,1063.000,904.500
1.612,878.500,1001.000,1065.000,906.500
1.613,880.000,1002.000,1066.500,908.000
1.614,880.500,1002.500,1067.000,908.500
1.615,880.000,1001.500,1066.500,908.000
1.616,878.500,1000.000,1065.000,906.500
1.617,876.500,998.500,1062.500,904.000
1.618,873.500,996.000,1059.500,901.500
1.619,871.000,994.000,1056.500,898.500
1.620,868.500,992.000,1054.000,896.000
1.621,866.500,990.500,1052.000,894.000
1.622,865.500,990.000,1050.500,893.000
1.623,865.000,989.500,1050.000,892.000
1.624,865.000,989.500,1050.000,891.500
1.625,865.000,989.500,1050.500,891.500
1.626,865.500,990.000,1051.500,892.000
1.627,866.500,991.000,1052.500,893.000
1.628,867.500,992.000,1053.500,894.000
1.629,869.500,993.500,1055.500,895.500
1.630,871.500,995.000,1057.500,897.500
1.631,873.500,996.500,1059.500,899.500
1.632,875.500,998.000,1062.000,901.500
1.633,877.500,999.000,1063.500,903.000
1.634,878.500,999.500,1064.500,903.500
1.635,878.000,999.500,1064.500,903.000
1.636,877.000,998.500,1063.000,902.000
1.637,875.000,997.000,1060.500,900.000
1.638,872.500,994.500,1057.500,897.000
1.639,870.000,992.500,1054.000,894.500
1.640,867.000,990.000,1051.500,892.000
1.641,865.000,988.500,1049.000,890.000
1.642,863.500,987.500,1047.500,888.500
1.643,862.500,987.000,1046.500,887.500
1.644,861.500,986.000,1046.000,887.000
1.645,860.500,985.500,1046.000,887.000
1.646,859.500,985.000,1046.000,887.500
1.647,859.500,985.000,1046.500,888.000
1.648,859.500,985.500,1047.000,889.000
1.649,860.000,986.000,1048.000,890.500
1.650,860.500,987.000,1049.500,892.000
1.651,862.000,988.000,1051.000,893.500
1.652,863.000,988.500,1052.500,895.000
1.653,863.500,989.000,1053.000,896.000
1.654,863.500,988.500,1053.000,895.500
1.655,862.500,987.500,1052.000,894.500
1.656,860.500,985.500,1050.000,892.500
1.657,858.000,983.000,1047.000,889.500
1.658,855.500,981.000,1043.500,886.500
1.659,853.000,978.500,1040.500,883.000
1.660,851.000,977.000,1037.500,880.000
1.661,849.500,976.000,1035.500,878.000
1.662,849.000,976.000,1034.500,876.500
1.663,849.000,976.000,1034.000,876.000
1.664,849.500,977.000,1034.500,876.000
1.665,850.500,977.500,1035.000,876.500
1.666,852.000,979.000,1036.000,877.000
1.667,853.000,980.500,1037.500,878.500
1.668,854.500,981.500,1039.000,879.500
1.669,856.500,983.000,1041.000,881.000
1.670,858.000,984.500,1043.000,883.000
1.671,859.500,986.000,1045.000,885.000
1.672,861.500,987.000,1047.000,887.000
1.673,862.500,988.000,1048.500,888.000
1.674,863.000,988.000,1049.000,889.000
1.675,862.000,987.000,1048.500,888.500
1.676,860.500,985.500,1047.000,887.000
1.677,858.000,983.500,1044.500,884.500
1.678,855.500,981.000,1041.500,881.500
1.679,852.500,978.500,1038.500,879.000
1.680,850.000,977.000,1035.500,876.500
1.681,848.000,975.500,1033.500,875.000
1.682,846.500,974.500,1032.000,874.000
1.683,846.000,974.500,1031.500,873.000
1.684,846.000,974.000,1031.000,872.500
1.685,846.000,974.500,1031.000,873.000
1.686,846.500,974.500,1031.500,873.000
1.687,847.000,975.000,1032.000,874.000
1.688,848.000,976.000,1033.000,875.000
1.689,849.500,977.000,1034.500,876.500
1.690,851.000,978.500,1036.000,878.000
1.691,852.500,979.500,1038.000,880.000
1.692,854.000,981.000,1040.000,882.000
1.693,855.000,981.500,1041.500,883.000
1.694,855.500,981.500,1041.500,883.500
1.695,854.500,980.500,1041.000,882.500
1.696,853.000,979.000,1039.000,881.000
1.697,850.500,976.500,1036.000,878.500
1.698,847.500,974.000,1032.500,875.500
1.699,844.500,972.000,1029.500,872.500
1.700,842.000,969.500,1027.000,870.000
1.701,840.500,968.000,1025.000,868.000
1.702,839.500,967.000,1023.500,867.000
1.703,839.000,966.500,1023.000,866.000
1.704,839.000,966.500,1023.000,866.000
1.705,839.500,967.000,1023.500,866.500
1.706,840.000,967.500,1024.500,867.000
1.707,841.000,968.000,1025.500,868.000
1.708,842.500,969.000,1027.000,869.500
1.709,843.500,970.500,1028.500,871.000
1.710,845.500,971.500,1030.500,872.500
1.711,847.500,973.500,1032.500,874.500
1.712,849.500,975.000,1034.500,876.500
1.713,851.000,976.000,1036.500,877.500
1.714,851.500,976.500,1037.000,878.000
1.715,851.500,976.000,1037.000,878.000
1.716,850.500,974.500,1035.500,876.500
1.717,849.000,973.000,1033.000,874.500
1.718,846.500,970.500,1030.500,872.000
1.719,844.000,968.500,1027.500,869.500
1.720,841.500,966.500,1025.500,867.000
1.721,839.500,965.500,1023.500,866.000
1.722,838.500,965.000,1022.500,865.000
1.723,838.500,964.500,1022.000,864.500
1.724,838.500,965.000,1022.500,865.000
1.725,839.000,965.500,1023.000,865.500
1.726,840.000,966.000,1024.000,866.000
1.727,840.500,967.000,1025.000,867.500
1.728,841.500,968.000,1026.000,868.500
1.729,843.000,969.000,1027.500,870.000
1.730,844.500,970.000,1029.500,872.000
1.731,846.500,971.500,1032.000,874.000
1.732,848.500,973.000,1034.000,876.000
1.733,850.000,973.500,1035.500,877.500
1.734,850.500,974.000,1036.000,878.000
1.735,850.500,973.500,1035.500,878.000
1.736,849.500,972.000,1034.000,876.500
1.737,847.000,970.500,1031.500,874.000
1.738,844.500,968.500,1028.500,871.500
1.739,842.000,966.000,1025.500,868.500
1.740,839.000,964.000,1023.000,866.000
1.741,837.000,962.500,1021.000,864.500
1.742,836.000,962.000,1020.000,863.000
1.743,835.000,961.500,1019.000,862.500
1.744,834.500,961.000,1019.000,862.500
1.745,834.500,961.500,1019.000,862.500
1.746,835.000,962.000,1019.500,863.000
1.747,836.000,962.500,1020.000,863.500
1.748,837.000,963.000,1021.000,864.500
1.749,838.500,964.500,1022.500,866.000
1.750,840.000,965.500,1024.500,867.500
1.751,841.500,966.500,1026.500,869.000
1.752,843.500,967.500,1028.500,870.500
1.753,844.500,968.000,1029.500,871.500
1.754,844.500,968.000,1030.000,872.000
1.755,844.500,967.500,1029.500,871.500
1.756,843.000,966.000,1028.000,870.500
1.757,841.000,964.000,1025.500,868.000
1.758,838.500,962.000,1022.500,865.500
1.759,835.500,960.000,1019.500,863.000
1.760,833.000,958.000,1016.500,860.500
1.761,831.500,957.000,1015.000,859.000
1.762,830.000,956.000,1013.500,858.000
1.763,829.500,956.000,1013.000,858.000
1.764,829.500,956.000,1013.000,858.000
1.765,829.500,956.000,1013.500,858.000
1.766,830.000,956.500,1014.000,858.500
1.767,830.500,957.000,1014.500,859.500
1.768,831.500,958.000,1015.500,860.000
1.769,832.500,959.000,1017.000,861.500
1.770,833.500,960.000,1018.500,863.000
1.771,835.500,961.500,1020.500,865.000
1.772,837.500,963.000,1022.500,866.500
1.773,839.000,964.000,1024.000,868.000
1.774,840.000,964.500,1024.500,868.500
1.775,839.500,964.000,1024.500,868.000
1.776,838.500,962.500,1023.000,866.500
1.777,836.500,961.000,1020.500,864.000
1.778,833.500,958.500,1017.500,861.500
1.779,831.000,956.500,1014.500,858.500
1.780,828.500,954.500,1012.000,856.000
1.781,827.000,953.500,1010.000,854.500
1.782,826.000,952.500,1009.000,853.500
1.783,825.500,952.500,1008.500,853.000
1.784,825.500,953.000,1009.000,853.000
1.785,826.000,953.500,1009.500,853.500
1.786,826.500,954.000,1010.000,854.500
1.787,827.500,954.500,1010.500,855.500
1.788,828.000,955.000,1011.500,856.500
1.789,829.500,956.000,1013.000,857.500
1.790,830.500,957.000,1014.500,859.000
1.791,832.500,958.500,1016.500,861.000
1.792,834.000,960.000,1018.500,862.500
1.793,835.500,960.500,1020.000,864.000
1.794,836.000,961.000,1020.500,864.500
1.795,835.500,960.500,1020.500,864.000
1.796,834.500,959.000,1019.000,862.500
1.797,832.500,957.500,1016.500,860.000
1.798,829.500,955.000,1013.500,857.500
1.799,827.000,953.000,1010.000,854.500
1.800,825.000,951.500,1007.500,852.000
1.801,823.000,950.000,1005.500,850.000
1.802,822.000,949.000,1004.500,849.000
1.803,821.500,948.500,1004.000,848.000
1.804,821.500,948.500,1004.000,847.500
1.805,821.500,949.000,1004.500,848.000
1.806,822.000,949.500,1005.500,848.500
1.807,823.000,950.500,1006.500,849.500
1.808,824.000,951.500,1008.000,850.500
1.809,825.000,953.000,1009.500,851.500
1.810,827.000,954.500,1011.500,853.500
1.811,829.000,956.000,1014.000,855.000
1.812,830.500,957.500,1016.000,857.000
1.813,832.000,958.500,1017.000,858.500
1.814,833.000,958.500,1018.000,859.000
1.815,832.500,958.500,1017.500,858.500
1.816,831.000,957.000,1016.000,857.000
1.817,829.000,955.500,1013.500,854.500
1.818,826.000,953.000,1010.500,852.000
1.819,823.500,950.500,1007.500,849.000
1.820,821.000,948.500,1004.500,846.000
1.821,819.000,947.000,1002.500,844.500
1.822,817.500,945.500,1001.000,843.000
1.823,816.500,945.000,1000.000,842.500
1.824,816.500,945.000,1000.000,842.000
1.825,816.500,945.000,1000.500,842.500
1.826,817.000,945.500,1001.000,843.000
1.827,818.000,946.500,1002.000,843.500
1.828,819.000,947.500,1003.000,844.500
1.829,820.500,948.500,1005.000,846.000
1.830,822.000,950.000,1006.500,847.500
1.831,824.000,952.000,1008.500,849.500
1.832,825.500,953.000,1010.500,851.000
1.833,827.000,954.000,1011.500,852.500
1.834,827.500,954.000,1012.500,853.500
1.835,827.000,953.500,1012.000,853.000
1.836,825.500,952.000,1010.500,851.500
1.837,823.000,950.000,1008.000,849.000
1.838,820.500,948.000,1005.000,846.000
1.839,817.500,945.500,1001.500,843.500
1.840,815.500,944.000,999.000,840.500
1.841,813.500,942.500,997.000,839.000
1.842,812.500,942.000,996.000,838.000
1.843,812.000,941.500,995.500,837.500
1.844,812.000,942.000,995.500,837.500
1.845,812.500,942.000,996.000,837.500
1.846,813.000,943.000,997.000,838.000
1.847,814.000,943.500,998.000,839.000
1.848,815.000,944.500,999.500,840.500
1.849,816.000,946.000,1001.000,842.000
1.850,818.000,947.000,1003.000,843.500
1.851,820.000,949.000,1005.000,845.500
1.852,822.000,950.500,1007.000,847.500
1.853,823.500,951.500,1008.500,848.500
1.854,824.000,951.500,1009.500,849.000
1.855,823.500,951.000,1009.000,848.000
1.856,822.500,949.500,1007.000,846.500
1.857,820.000,947.500,1004.500,844.000
1.858,817.000,945.000,1001.500,841.000
1.859,814.000,942.500,998.000,837.500
1.860,811.500,940.000,995.000,834.500
1.861,809.000,938.500,992.500,832.500
1.862,808.000,937.500,991.000,831.000
1.863,807.000,937.000,990.000,830.000
1.864,806.500,936.500,989.000,829.500
1.865,806.000,936.500,989.000,829.000
1.866,806.000,936.500,989.000,829.000
1.867,806.000,936.500,989.500,829.500
1.868,806.500,937.000,990.500,830.500
1.869,807.500,937.500,991.500,832.000
1.870,808.500,938.500,993.000,833.000
1.871,810.000,939.500,994.500,835.000
1.872,811.000,940.000,996.000,836.500
1.873,811.500,940.500,996.500,837.500
1.874,811.500,940.000,996.500,838.000
1.875,810.500,939.000,996.000,837.500
1.876,809.000,937.500,994.000,836.500
1.877,806.500,935.500,992.000,834.500
1.878,803.500,933.500,989.500,832.500
1.879,800.500,931.500,987.000,830.500
1.880,798.500,930.000,985.000,829.500
1.881,796.500,929.500,984.000,829.000
1.882,796.000,930.000,984.500,829.500
1.883,796.000,931.000,985.500,831.500
1.884,797.000,932.500,987.500,834.000
1.885,798.000,934.500,990.000,837.000
1.886,800.000,936.500,993.000,841.000
1.887,802.000,939.500,996.500,844.500
1.888,804.500,942.000,1000.000,848.500
1.889,807.500,945.500,1004.000,853.000
1.890,810.000,949.000,1008.000,857.000
1.891,813.500,952.000,1012.000,861.500
1.892,816.500,955.000,1015.500,865.500
1.893,819.000,958.000,1019.000,869.000
1.894,821.000,959.500,1021.500,871.500
1.895,822.000,961.000,1023.000,873.000
1.896,823.000,961.500,1023.000,873.500
1.897,823.000,961.500,1022.500,872.000
1.898,822.000,961.000,1020.500,870.000
1.899,820.500,959.500,1017.500,866.500
1.900,819.000,958.000,1014.500,863.000
1.901,817.500,956.500,1012.000,859.000
1.902,817.000,955.000,1010.000,855.500
1.903,817.000,954.500,1008.500,853.000
1.904,817.000,954.000,1007.500,851.000
1.905,818.000,954.500,1007.500,849.500
1.906,819.500,955.000,1008.000,848.500
1.907,821.000,956.000,1008.500,848.000
1.908,822.500,957.000,1009.000,848.000
1.909,824.000,957.500,1010.000,848.000
1.910,825.500,958.500,1011.000,848.500
1.911,826.500,959.000,1012.000,848.500
1.912,827.000,959.000,1012.500,848.500
1.913,827.500,959.000,1012.500,848.500
1.914,827.500,958.000,1011.500,847.000
1.915,826.000,956.000,1009.500,845.500
1.916,824.000,954.000,1006.500,842.500
1.917,820.500,951.000,1003.000,839.000
1.918,817.000,947.500,999.000,835.500
1.919,813.500,944.500,994.500,831.500
1.920,810.500,941.500,991.000,828.500
1.921,808.000,939.500,988.500,826.000
1.922,806.000,938.000,986.500,825.000
1.923,805.000,937.500,986.000,824.000
1.924,804.500,937.000,985.500,824.000
1.925,804.500,937.000,985.500,824.000
1.926,804.500,937.500,985.500,824.500
1.927,805.000,938.000,986.500,825.000
1.928,805.500,938.500,987.500,826.000
1.929,806.000,939.500,988.500,827.500
1.930,807.000,940.500,990.000,829.000
1.931,808.500,941.500,992.000,831.000
1.932,810.000,942.000,993.500,833.000
1.933,811.000,943.000,995.000,834.000
1.934,811.500,943.000,995.000,834.500
1.935,811.000,942.500,994.500,834.000
1.936,809.500,941.000,993.000,832.500
1.937,807.500,939.500,991.000,830.500
1.938,805.000,937.500,988.000,828.000
1.939,802.500,935.000,985.000,825.000
1.940,800.000,933.500,982.000,822.500
1.941,798.000,932.000,980.000,820.500
1.942,796.500,931.000,979.000,819.500
1.943,796.000,930.500,978.500,819.000
1.944,796.000,930.500,978.500,819.000
1.945,796.000,930.500,979.000,819.500
1.946,796.500,931.000,980.000,820.500
1.947,797.500,932.000,980.500,821.500
1.948,798.500,933.000,982.000,823.000
1.949,800.000,934.000,983.500,824.500
1.950,802.000,936.000,985.500,826.500
1.951,804.500,937.500,988.000,829.000
1.952,807.000,939.500,990.500,831.000
1.953,809.000,940.500,992.000,832.500
1.954,809.500,941.000,993.000,833.000
1.955,809.500,940.500,992.500,832.500
1.956,808.500,939.000,991.000,831.500
1.957,806.500,937.000,988.500,829.000
1.958,803.500,935.000,985.500,826.500
1.959,801.000,932.500,983.000,823.500
1.960,798.500,930.500,980.500,821.500
1.961,796.500,929.500,978.500,820.000
1.962,795.500,928.500,977.500,819.000
1.963,795.500,928.500,977.000,818.500
1.964,795.500,928.500,977.000,818.500
1.965,796.000,929.500,977.500,819.000
1.966,797.000,930.500,978.500,820.000
1.967,798.000,931.500,979.500,821.000
1.968,799.500,933.000,981.500,822.000
1.969,800.500,934.500,983.000,824.000
1.970,802.000,936.000,985.500,825.500
1.971,804.000,937.500,987.500,827.500
1.972,805.500,939.000,989.500,829.500
1.973,807.000,939.500,991.000,831.000
1.974,807.500,940.000,991.500,831.500
1.975,807.000,939.500,991.000,831.000
1.976,806.000,938.000,989.500,829.500
1.977,804.000,936.500,987.500,827.000
1.978,801.500,934.500,984.500,824.500
1.979,799.000,932.500,982.000,822.000
1.980,796.500,931.000,979.500,820.000
1.981,795.000,930.000,977.500,818.000
1.982,794.000,929.500,976.500,817.000
1.983,794.000,930.000,976.500,817.000
1.984,794.000,930.000,976.500,817.000
1.985,794.500,930.500,977.500,817.500
1.986,795.000,931.500,978.500,818.500
1.987,796.000,932.500,980.000,819.500
1.988,797.500,933.500,981.500,820.500
1.989,799.000,935.000,983.500,822.000
1.990,801.000,937.000,985.500,824.000
1.991,803.000,938.500,987.500,826.500
1.992,805.000,940.500,990.000,828.500
1.993,806.500,941.500,991.500,830.000
1.994,807.500,942.000,992.500,831.000
1.995,808.000,942.000,992.000,831.000
1.996,806.500,941.000,991.000,829.500
1.997,804.500,939.500,988.500,827.500
1.998,802.000,937.000,986.000,825.000
1.999,799.500,935.000,983.000,822.500
2.000,797.000,933.500,980.500,820.500
2.001,795.500,932.000,979.000,819.000
2.002,794.500,931.500,978.000,818.000
2.003,794.500,931.500,978.000,818.000
2.004,794.500,932.000,978.500,818.000
2.005,795.000,933.000,979.000,818.500
2.006,796.000,934.000,980.000,819.000
2.007,796.500,935.000,981.000,820.000
2.008,798.000,936.000,982.500,821.000
2.009,799.000,937.000,984.000,822.500
2.010,800.500,938.000,985.500,824.000
2.011,802.500,939.500,987.500,826.000
2.012,804.500,940.500,989.000,827.500
2.013,806.000,941.500,990.500,829.000
2.014,806.500,942.000,991.000,829.500
2.015,806.500,941.500,991.000,829.000
2.016,805.000,940.000,989.500,827.500
2.017,803.000,938.500,987.000,825.500
2.018,800.500,936.000,984.000,823.000
2.019,797.500,933.500,981.000,820.000
2.020,795.000,931.500,978.500,817.000
2.021,792.500,930.000,976.000,815.000
2.022,791.000,929.000,975.000,814.000
2.023,790.500,929.000,974.500,813.500
2.024,790.500,929.000,974.500,813.500
2.025,790.500,930.000,975.000,814.000
2.026,791.000,930.500,975.500,815.000
2.027,792.000,931.500,976.500,816.000
2.028,793.000,932.500,978.000,817.500
2.029,794.000,933.500,979.500,819.000
2.030,796.000,935.000,981.500,821.000
2.031,797.500,936.500,983.500,823.000
2.032,799.500,938.000,985.500,824.500
2.033,801.000,939.000,987.000,826.000
2.034,801.500,939.500,988.000,826.500
2.035,801.500,939.000,987.500,826.000
2.036,800.000,937.500,986.000,824.500
2.037,798.000,936.000,983.500,822.500
2.038,796.000,934.000,981.000,820.500
2.039,793.500,932.000,978.000,818.000
2.040,791.000,930.000,975.500,816.000
2.041,789.500,929.000,974.000,814.500
2.042,788.500,928.000,973.000,814.000
2.043,787.500,928.000,973.000,813.500
2.044,787.500,928.000,973.000,813.500
2.045,787.500,928.000,973.000,814.000
2.046,788.500,928.500,973.500,814.500
2.047,789.000,929.500,974.500,815.500
2.048,790.000,930.500,976.000,816.500
2.049,791.500,931.500,977.500,818.000
2.050,793.000,933.000,979.500,819.500
2.051,794.500,934.500,982.000,821.500
2.052,796.500,936.000,984.000,824.000
2.053,798.000,936.500,985.500,825.500
2.054,798.500,937.000,986.000,826.000
2.055,798.500,936.500,986.000,826.000
2.056,797.000,935.500,984.500,824.500
2.057,795.000,933.500,982.000,822.000
2.058,792.000,931.000,979.000,819.000
2.059,789.500,929.000,976.000,816.500
2.060,787.000,927.000,973.000,814.000
2.061,785.500,925.500,971.500,812.000
2.062,784.500,925.000,970.500,811.500
2.063,784.000,925.000,970.000,811.000
2.064,784.500,925.500,970.500,811.000
2.065,785.000,926.000,971.000,811.500
2.066,786.000,927.000,972.000,812.000
2.067,787.000,928.000,973.500,813.000
2.068,788.500,929.500,975.500,814.500
2.069,790.000,931.500,977.500,816.500
2.070,792.000,933.000,979.500,818.500
2.071,794.000,935.000,981.500,820.500
2.072,796.000,936.500,984.000,822.500
2.073,797.500,937.500,985.500,824.500
2.074,798.000,937.500,986.000,825.000
2.075,797.000,937.000,985.500,825.000
2.076,795.500,935.000,983.500,823.500
2.077,792.500,932.500,981.000,821.000
2.078,789.000,929.500,977.500,818.000
2.079,785.000,926.500,973.500,815.000
2.080,781.500,924.000,970.500,812.500
2.081,779.000,922.000,968.000,810.500
2.082,777.000,921.000,966.500,809.500
2.083,776.000,920.000,966.000,809.500
2.084,775.500,919.500,965.500,809.500
2.085,775.500,919.500,966.000,809.500
2.086,776.000,919.500,966.500,809.500
2.087,776.500,919.500,967.000,810.000
2.088,777.500,920.000,968.000,811.000
2.089,778.500,921.000,969.500,812.000
2.090,780.000,922.000,971.000,813.500
2.091,781.500,923.500,973.000,815.500
2.092,783.000,924.500,974.500,817.000
2.093,784.500,925.500,976.000,818.000
2.094,785.500,926.000,976.500,818.000
2.095,785.500,926.000,976.500,817.500
2.096,785.000,925.000,975.000,816.000
2.097,783.500,923.500,973.000,813.500
2.098,781.500,921.500,970.000,810.500
2.099,779.500,919.500,967.000,807.500
2.100,777.500,918.000,965.000,805.000
2.101,776.000,916.500,963.000,803.000
2.102,775.000,916.000,962.000,802.000
2.103,774.500,915.500,961.500,801.500
2.104,774.000,916.000,961.500,801.500
2.105,774.000,916.000,961.500,802.000
2.106,774.000,916.500,962.500,803.000
2.107,774.500,917.000,963.500,804.000
2.108,775.500,918.000,964.500,805.000
2.109,776.500,918.500,966.000,806.500
2.110,777.500,920.000,968.000,808.500
2.111,779.000,921.000,969.500,810.500
2.112,781.000,922.500,971.500,812.000
2.113,782.000,923.500,973.000,813.500
2.114,782.500,923.500,973.000,814.000
2.115,782.500,923.000,972.500,813.500
2.116,781.000,921.500,970.500,812.000
2.117,779.000,919.500,968.000,809.500
2.118,776.000,917.000,964.500,806.500
2.119,773.000,914.500,961.500,803.500
2.120,770.500,912.500,958.500,800.500
2.121,768.500,911.000,956.500,799.000
2.122,767.000,910.000,955.000,798.000
2.123,766.500,909.500,954.500,797.500
2.124,766.500,909.500,954.500,797.000
2.125,766.500,910.000,955.000,797.500
2.126,767.000,910.500,956.000,798.000
2.127,767.500,911.000,956.500,798.500
2.128,768.000,911.500,957.500,799.500
2.129,769.000,912.500,959.000,800.500
2.130,770.000,914.000,960.000,802.000
2.131,772.000,915.000,962.000,803.500
2.132,773.500,916.500,963.500,805.500
2.133,774.500,917.000,965.000,806.500
2.134,775.500,917.500,965.500,807.000
2.135,775.000,917.000,965.000,806.500
2.136,774.000,915.500,963.500,805.000
2.137,772.000,913.500,961.000,802.500
2.138,769.500,911.000,958.000,799.500
2.139,766.500,909.000,955.000,797.000
2.140,764.500,907.000,952.000,794.500
2.141,762.500,905.500,950.000,792.500
2.142,761.000,905.000,949.000,791.500
2.143,760.000,904.500,948.500,790.500
2.144,760.000,904.500,948.000,790.500
2.145,760.500,904.500,948.500,790.500
2.146,761.000,905.000,949.000,790.500
2.147,761.500,906.000,950.000,791.000
2.148,762.500,906.500,951.000,792.000
2.149,763.500,907.500,952.000,793.500
2.150,765.000,909.000,953.500,794.500
2.151,766.500,910.000,955.000,796.000
2.152,768.000,911.000,957.000,797.500
2.153,769.000,911.500,958.000,798.500
2.154,769.500,911.500,958.000,798.500
2.155,769.000,910.500,957.500,798.000
2.156,767.500,909.000,955.500,796.000
2.157,765.000,907.000,953.000,793.500
2.158,762.500,905.000,950.000,790.500
2.159,759.500,902.500,946.500,787.500
2.160,756.500,900.000,944.000,785.000
2.161,754.500,898.500,941.500,782.500
2.162,753.000,897.500,940.000,781.000
2.163,752.000,897.000,939.000,780.500
2.164,751.500,896.500,938.500,779.500
2.165,751.500,896.500,938.500,779.500
2.166,752.000,896.500,938.500,779.500
2.167,752.500,897.000,938.500,779.500
2.168,753.000,897.500,939.500,780.500
2.169,754.500,898.000,940.500,781.500
2.170,756.000,899.500,942.000,783.000
2.171,757.500,900.500,944.000,784.500
2.172,759.500,902.000,946.000,786.000
2.173,760.500,903.000,947.000,787.000
2.174,761.000,903.000,947.500,787.000
2.175,760.000,902.000,947.000,786.000
2.176,758.500,900.500,945.000,784.000
2.177,756.000,898.500,942.500,781.500
2.178,753.000,896.000,939.000,778.500
2.179,750.500,893.500,936.000,775.500
2.180,748.000,891.500,933.000,772.500
2.181,746.000,890.000,931.000,770.500
2.182,745.000,889.000,929.500,769.500
2.183,744.000,888.500,929.000,768.500
2.184,744.000,888.500,928.500,768.000
2.185,744.500,889.000,929.000,768.500
2.186,745.000,889.500,929.500,769.000
2.187,746.000,890.500,930.500,770.000
2.188,747.000,891.500,931.500,771.000
2.189,748.500,893.000,933.000,773.000
2.190,750.500,894.500,935.000,774.500
2.191,752.500,896.500,937.000,776.500
2.192,754.000,898.000,939.000,778.500
2.193,755.500,898.500,940.500,779.500
2.194,756.000,898.500,941.000,779.500
2.195,755.500,897.500,940.500,778.500
2.196,754.000,896.000,939.000,777.000
2.197,751.500,894.000,936.500,774.000
2.198,749.000,891.500,933.500,771.500
2.199,746.000,889.000,930.000,768.500
2.200,743.500,887.000,927.500,766.000
2.201,742.000,885.500,925.500,764.000
2.202,740.500,884.500,924.500,763.000
2.203,740.000,884.500,923.500,762.500
2.204,739.500,884.500,923.500,762.000
2.205,739.500,885.000,923.500,762.000
2.206,740.000,885.000,924.000,762.500
2.207,740.500,886.000,925.000,763.500
2.208,741.500,886.500,926.000,764.500
2.209,742.500,888.000,927.500,765.500
2.210,744.000,889.000,929.500,767.500
2.211,746.000,890.500,931.500,769.000
2.212,747.500,892.000,933.500,771.000
2.213,749.000,893.000,935.000,772.000
2.214,749.500,893.000,935.500,772.500
2.215,749.000,892.500,934.500,772.000
2.216,747.500,891.000,933.000,770.000
2.217,745.500,889.000,930.000,767.500
2.218,742.500,886.500,927.000,764.500
2.219,739.500,884.000,923.500,761.500
2.220,737.000,882.000,921.000,759.000
2.221,735.000,880.000,919.000,757.000
2.222,734.000,879.000,918.000,756.000
2.223,733.500,879.000,917.500,755.500
2.224,733.500,879.000,917.500,755.500
2.225,733.500,879.500,918.000,756.000
2.226,734.500,880.000,918.500,756.500
2.227,735.000,881.000,919.500,757.500
2.228,736.500,882.000,921.000,759.000
2.229,737.500,883.000,922.500,760.500
2.230,739.000,884.500,924.500,762.500
2.231,741.000,886.000,926.500,764.500
2.232,742.500,887.000,928.500,766.000
2.233,744.000,888.000,929.500,767.500
2.234,744.500,888.000,930.000,767.500
2.235,744.000,887.000,929.000,767.000
2.236,742.500,885.500,927.000,765.000
2.237,740.000,883.000,924.500,762.500
2.238,737.000,881.000,921.000,759.500
2.239,734.500,878.500,918.000,757.000
2.240,731.500,876.500,915.500,754.500
2.241,729.500,875.000,913.500,752.500
2.242,728.500,874.000,912.000,751.000
2.243,728.000,873.500,911.500,750.500
2.244,727.500,873.000,911.000,750.000
2.245,727.500,873.500,911.000,750.500
2.246,728.000,873.500,911.500,751.000
2.247,728.500,874.000,912.500,751.500
2.248,729.500,875.000,913.500,753.000
2.249,731.000,876.000,915.000,754.500
2.250,732.500,877.000,917.000,756.000
2.251,734.500,878.000,919.000,757.500
2.252,736.000,879.500,920.500,759.000
2.253,737.500,880.000,921.500,760.500
2.254,738.000,879.500,922.000,760.500
2.255,737.000,879.000,921.000,760.000
2.256,735.500,877.000,919.500,758.000
2.257,733.000,874.500,916.500,756.000
2.258,730.000,872.000,913.500,752.500
2.259,726.500,869.500,910.000,749.500
2.260,723.500,867.000,907.000,746.500
2.261,721.000,865.500,905.000,744.000
2.262,719.500,864.000,903.500,742.500
2.263,718.500,863.500,902.500,742.000
2.264,718.000,863.500,902.000,741.500
2.265,718.000,863.500,902.000,741.500
2.266,718.500,863.500,902.000,742.000
2.267,719.000,864.000,902.500,742.500
2.268,719.500,864.500,903.500,743.000
2.269,720.000,865.000,904.500,744.000
2.270,721.500,865.500,906.000,745.500
2.271,723.000,866.500,907.500,747.000
2.272,724.500,867.500,909.500,748.500
2.273,725.500,868.000,910.500,749.500
2.274,726.000,868.500,910.500,750.000
2.275,725.500,868.000,910.000,749.500
2.276,724.000,866.500,908.000,747.500
2.277,721.500,864.000,905.500,745.000
2.278,718.500,861.500,902.000,742.000
2.279,715.500,859.000,898.500,739.000
2.280,713.000,856.500,896.000,736.500
2.281,711.000,855.000,894.000,734.500
2.282,709.500,854.000,892.500,733.500
2.283,709.000,853.500,892.000,733.000
2.284,708.500,853.500,891.500,733.000
2.285,708.500,853.500,892.000,733.000
2.286,709.000,854.000,892.500,733.500
2.287,709.500,854.500,893.500,734.000
2.288,710.500,855.000,894.500,735.000
2.289,711.500,856.000,895.500,736.500
2.290,713.000,857.500,897.500,738.000
2.291,714.500,858.500,899.000,739.500
2.292,716.000,860.000,901.000,741.500
2.293,717.500,860.500,902.500,743.000
2.294,718.000,860.500,902.500,743.000
2.295,718.000,860.000,902.000,742.500
2.296,716.500,858.500,900.000,740.500
2.297,714.000,856.000,897.500,737.500
2.298,711.500,853.500,894.000,734.500
2.299,708.000,850.500,890.500,731.500
2.300,705.500,848.000,888.000,728.500
2.301,703.000,846.500,885.500,726.500
2.302,701.500,845.500,884.500,725.000
2.303,700.500,845.000,883.500,724.500
2.304,700.500,844.500,883.500,724.000
2.305,700.500,844.500,884.000,724.500
2.306,700.500,845.000,884.500,725.000
2.307,701.000,845.500,885.000,725.500
2.308,702.000,846.000,886.000,726.500
2.309,703.000,847.000,887.500,728.000
2.310,704.000,848.000,889.000,729.500
2.311,705.500,849.000,890.500,731.000
2.312,707.000,850.000,892.000,732.500
2.313,708.000,850.500,893.000,733.000
2.314,708.000,850.500,893.000,733.500
2.315,707.500,849.500,892.000,732.500
2.316,705.500,848.000,890.500,730.500
2.317,703.000,846.000,887.500,728.500
2.318,700.000,843.500,884.500,725.500
2.319,697.500,841.000,881.500,722.500
2.320,695.000,838.500,878.500,719.500
2.321,692.500,837.000,876.500,717.500
2.322,691.500,835.500,875.000,716.500
2.323,690.500,835.000,874.000,715.500
2.324,690.000,835.000,874.000,715.500
2.325,690.500,835.000,874.000,716.000
2.326,691.000,835.500,874.500,716.000
2.327,691.500,836.500,875.500,717.000
2.328,692.500,837.000,876.500,717.500
2.329,693.500,838.000,878.000,718.500
2.330,695.000,839.000,879.500,720.000
2.331,697.000,840.500,881.500,722.000
2.332,698.500,841.500,883.000,723.500
2.333,700.000,842.000,884.500,724.500
2.334,700.500,842.000,884.500,725.000
2.335,699.500,841.500,883.500,724.000
2.336,698.500,840.000,881.500,722.500
2.337,696.000,838.000,879.000,720.000
2.338,693.000,835.500,876.000,717.000
2.339,690.000,833.000,872.500,714.000
2.340,687.500,831.000,870.000,711.500
2.341,685.500,830.000,868.000,709.500
2.342,684.500,829.000,866.500,708.000
2.343,683.500,828.500,866.000,707.500
2.344,683.000,828.500,865.500,707.000
2.345,683.000,829.000,866.000,707.500
2.346,683.500,829.500,866.500,708.000
2.347,684.500,830.000,867.000,709.000
2.348,685.500,831.000,868.500,710.000
2.349,687.000,832.000,870.000,712.000
2.350,688.500,833.500,872.000,713.500
2.351,690.500,835.000,874.000,715.500
2.352,692.000,836.000,875.500,717.500
2.353,693.500,836.500,877.000,718.500
2.354,693.500,836.500,877.500,718.500
2.355,693.000,836.000,877.000,718.000
2.356,691.500,834.500,875.500,716.500
2.357,689.500,832.500,873.000,714.000
2.358,687.000,830.000,870.000,711.000
2.359,684.500,828.000,866.500,708.000
2.360,682.000,826.000,864.000,705.500
2.361,680.000,824.500,861.500,704.000
2.362,679.000,823.500,860.500,703.000
2.363,678.000,823.000,860.000,702.500
2.364,678.000,823.000,860.000,702.500
2.365,678.500,823.500,860.500,703.000
2.366,679.000,824.500,861.000,704.000
2.367,679.500,825.000,862.000,705.000
2.368,680.500,825.500,863.000,706.000
2.369,681.500,826.500,864.500,707.500
2.370,683.000,827.500,866.000,709.500
2.371,684.500,828.500,868.000,711.000
2.372,686.000,830.000,870.000,712.500
2.373,687.000,830.500,871.000,713.500
2.374,687.500,830.000,871.000,713.500
2.375,686.500,829.000,870.500,713.000
2.376,685.000,827.500,868.500,711.000
2.377,682.500,825.500,865.500,708.500
2.378,679.500,823.000,862.500,705.500
2.379,677.000,820.500,859.000,702.500
2.380,674.000,818.500,856.000,700.000
2.381,672.500,817.000,854.000,698.000
2.382,671.500,816.000,853.000,697.000
2.383,670.500,815.500,852.000,696.000
2.384,670.500,815.500,852.000,696.000
2.385,670.500,816.000,852.500,696.500
2.386,671.000,816.000,853.000,697.000
2.387,671.500,816.500,854.000,698.000
2.388,672.500,817.500,855.000,699.000
2.389,674.000,818.500,856.500,700.500
2.390,675.500,820.000,858.500,702.500
2.391,677.500,821.500,860.500,704.500
2.392,679.500,823.000,862.500,706.000
2.393,680.500,824.000,864.000,707.500
2.394,681.000,824.000,864.500,708.000
2.395,681.000,823.500,864.000,707.500
2.396,679.500,822.000,862.500,706.000
2.397,677.000,819.500,859.500,703.500
2.398,674.500,817.000,856.500,700.500
2.399,671.500,815.000,853.000,698.000
2.400,668.500,813.000,850.000,695.500
2.401,666.500,811.500,848.000,693.500
2.402,665.000,810.500,846.500,692.000
2.403,664.500,810.000,846.000,691.500
2.404,664.000,810.000,846.000,691.000
2.405,664.000,810.000,846.000,691.500
2.406,664.500,810.500,846.500,692.000
2.407,665.000,811.000,847.500,692.500
2.408,666.000,811.500,848.500,693.500
2.409,667.000,812.000,849.500,694.500
2.410,668.000,813.000,851.500,696.000
2.411,669.500,814.000,853.000,697.500
2.412,671.000,815.000,855.000,699.000
2.413,672.000,816.000,856.000,700.000
2.414,673.000,816.000,856.500,700.500
2.415,672.500,815.500,855.500,700.000
2.416,671.000,814.000,853.500,698.500
2.417,669.000,812.000,851.000,696.000
2.418,666.000,809.500,848.000,693.500
2.419,663.500,807.000,845.000,690.500
2.420,661.000,805.000,842.500,687.500
2.421,659.000,804.000,840.500,685.500
2.422,657.500,803.000,839.000,684.500
2.423,657.000,802.500,838.000,683.500
2.424,657.000,802.000,838.000,683.500
2.425,657.000,802.000,838.000,683.500
2.426,657.500,802.500,838.500,684.000
2.427,658.000,803.500,839.500,685.000
2.428,659.000,804.500,841.000,686.000
2.429,660.500,805.500,842.500,688.000
2.430,662.000,807.000,844.500,689.500
2.431,663.500,808.500,846.500,691.500
2.432,665.500,809.500,848.500,693.000
2.433,666.500,810.000,850.000,694.500
2.434,667.000,810.000,850.500,695.000
2.435,666.500,809.500,849.500,694.000
2.436,665.000,807.500,848.000,692.500
2.437,662.500,805.500,845.000,690.000
2.438,659.500,803.000,841.500,687.000
2.439,656.500,800.500,838.000,684.000
2.440,653.500,798.500,835.500,681.000
2.441,651.500,797.000,833.000,679.000
2.442,650.000,796.000,832.000,678.000
2.443,649.500,795.500,831.500,677.500
2.444,649.000,796.000,831.500,677.500
2.445,649.500,796.500,832.500,678.000
2.446,650.000,797.500,833.000,679.000
2.447,651.000,798.500,834.500,680.000
2.448,652.500,799.500,835.500,681.500
2.449,653.500,801.000,837.000,683.000
2.450,655.500,802.500,839.000,685.000
2.451,657.500,804.000,841.000,687.000
2.452,659.500,805.500,843.000,689.000
2.453,661.000,806.500,844.500,690.500
2.454,662.000,807.000,845.500,691.500
2.455,661.500,806.500,845.500,691.000
2.456,660.500,805.500,844.000,689.500
2.457,658.500,803.500,841.500,687.000
2.458,655.500,801.500,839.000,684.500
2.459,653.000,799.500,836.000,681.500
2.460,650.500,797.500,833.500,679.500
2.461,648.500,796.000,831.500,677.500
2.462,647.500,795.500,830.500,677.000
2.463,647.000,795.500,830.000,676.500
2.464,647.000,796.000,830.500,676.500
2.465,647.500,796.500,831.000,677.000
2.466,648.500,797.000,832.000,678.000
2.467,649.500,798.000,833.000,679.000
2.468,651.000,799.500,834.500,680.500
2.469,652.500,800.500,836.500,682.500
2.470,654.500,802.000,838.500,684.500
2.471,656.500,803.500,840.500,686.500
2.472,658.500,805.000,843.000,689.000
2.473,660.500,806.500,844.500,690.500
2.474,661.000,806.500,845.000,691.000
2.475,661.000,806.500,844.500,691.000
2.476,660.000,805.500,843.500,689.500
2.477,658.500,803.500,841.500,687.500
2.478,656.000,801.500,838.500,685.000
2.479,654.000,800.000,836.000,682.500
2.480,652.000,798.500,834.000,680.500
2.481,650.500,797.500,832.500,679.000
2.482,649.500,797.000,831.500,678.500
2.483,649.500,797.000,831.000,678.000
2.484,650.000,797.000,831.000,678.500
2.485,650.500,797.500,831.500,679.000
2.486,651.000,798.500,832.000,679.500
2.487,652.500,799.500,833.000,680.500
2.488,653.500,801.000,834.500,681.500
2.489,655.500,802.500,836.000,683.000
2.490,657.000,804.000,838.500,685.000
2.491,659.500,806.000,840.500,687.000
2.492,661.500,807.000,842.500,689.000
2.493,663.000,808.000,844.500,690.000
2.494,664.000,808.500,845.000,690.500
2.495,663.500,808.000,844.500,690.000
2.496,662.500,806.500,843.000,688.500
2.497,660.000,805.000,841.000,686.000
2.498,657.500,803.000,838.000,683.500
2.499,655.000,800.500,835.000,681.000
2.500,653.000,799.000,832.500,678.500
2.501,651.000,797.500,830.500,677.000
2.502,650.000,797.000,829.500,676.000
2.503,649.500,797.000,829.000,675.500
2.504,649.500,797.000,829.000,675.500
2.505,649.500,797.500,829.500,675.500
2.506,649.500,798.000,830.000,676.000
2.507,650.000,798.500,831.000,677.000
2.508,650.500,799.000,832.000,678.000
2.509,650.500,799.500,833.000,679.500
2.510,651.000,800.000,834.000,681.000
2.511,651.500,800.000,835.000,683.000
2.512,652.500,800.500,836.500,684.500
2.513,652.500,800.500,837.500,685.500
2.514,652.500,800.000,837.500,686.000
2.515,651.500,798.500,836.500,685.500
2.516,649.500,797.000,834.500,683.500
2.517,647.000,794.500,832.000,681.000
2.518,644.000,791.500,828.500,678.000
2.519,640.500,789.000,825.000,675.000
2.520,638.000,787.000,822.000,672.000
2.521,635.500,785.500,820.000,670.000
2.522,634.000,784.500,818.500,668.500
2.523,633.500,784.000,817.500,667.500
2.524,633.500,784.000,817.500,666.500
2.525,634.000,784.500,817.500,666.500
2.526,634.500,785.000,818.000,667.000
2.527,636.000,786.000,819.000,667.500
2.528,637.500,787.500,820.500,668.500
2.529,639.500,789.000,822.500,669.500
2.530,641.500,790.500,824.500,671.000
2.531,644.000,792.500,826.500,672.000
2.532,646.500,794.000,828.500,673.500
2.533,648.000,795.000,830.000,674.500
2.534,648.500,795.500,830.500,675.000
2.535,648.000,795.000,830.000,674.500
2.536,646.500,793.500,828.000,673.000
2.537,643.500,791.000,825.000,670.500
2.538,640.500,788.500,822.000,667.000
2.539,637.000,785.500,818.500,664.000
2.540,634.500,783.500,815.500,661.500
2.541,632.000,781.500,813.500,659.500
2.542,631.000,780.500,812.000,658.500
2.543,630.000,780.000,811.500,658.000
2.544,630.000,780.000,811.000,658.000
2.545,630.000,780.000,811.500,658.500
2.546,630.500,780.500,812.500,659.000
2.547,631.500,781.000,813.500,659.500
2.548,632.500,781.500,814.500,660.500
2.549,634.000,782.000,815.500,661.500
2.550,635.500,783.000,817.000,663.000
2.551,637.000,784.000,819.000,664.500
2.552,638.500,785.000,820.000,665.500
2.553,639.000,785.000,821.000,666.500
2.554,639.000,784.500,820.500,666.000
2.555,637.500,783.000,819.000,664.500
2.556,635.500,780.500,816.500,662.000
2.557,632.500,778.000,813.000,658.500
2.558,629.000,775.000,809.000,655.500
2.559,625.500,772.000,805.500,652.000
2.560,622.500,769.500,802.000,649.500
2.561,620.500,767.500,800.000,647.000
2.562,618.500,766.000,798.000,646.000
2.563,617.500,765.000,797.500,645.500
2.564,617.000,764.500,797.000,645.000
2.565,617.000,764.500,797.000,645.500
2.566,617.000,765.000,797.500,646.000
2.567,617.500,765.500,798.500,647.000
2.568,618.000,766.000,800.000,648.500
2.569,619.000,767.000,801.500,650.500
2.570,620.500,768.000,803.500,653.500
2.571,622.500,770.000,806.000,656.500
2.572,624.000,771.500,809.000,660.000
2.573,625.500,773.500,811.500,663.000
2.574,627.000,774.500,813.500,666.000
2.575,627.500,775.500,815.000,667.500
2.576,627.500,776.000,815.500,669.000
2.577,626.500,776.000,815.000,669.500
2.578,625.000,775.500,814.500,670.000
2.579,623.500,775.000,813.500,670.000
2.580,622.500,775.000,813.000,670.000
2.581,621.500,775.000,813.000,670.500
2.582,621.500,775.500,813.500,671.500
2.583,622.000,776.500,815.000,673.000
2.584,623.000,778.000,816.500,675.000
2.585,624.500,779.500,818.000,677.000
2.586,626.500,781.500,820.000,679.500
2.587,629.000,784.000,822.500,682.000
2.588,632.000,786.500,825.000,684.500
2.589,634.500,789.000,827.500,686.000
2.590,637.500,791.500,830.000,687.500
2.591,640.500,793.500,831.500,688.000
2.592,643.000,794.500,833.000,688.000
2.593,645.000,795.500,833.500,687.000
2.594,646.000,795.500,833.000,685.500
2.595,646.000,794.500,832.000,683.000
2.596,645.500,793.000,829.500,679.500
2.597,644.000,791.000,827.000,676.000
2.598,642.000,788.500,823.500,672.500
2.599,640.000,786.500,820.000,668.500
2.600,637.500,784.000,817.000,665.000
2.601,635.500,782.500,814.500,662.000
2.602,634.500,781.000,812.500,659.500
2.603,633.500,779.500,811.000,657.500
2.604,633.000,778.500,810.000,656.000
2.605,632.500,778.000,809.000,655.000
2.606,632.500,778.000,808.500,655.000
2.607,632.500,777.500,808.500,654.500
2.608,633.000,778.000,809.000,655.000
2.609,633.500,778.000,810.000,655.500
2.610,634.500,778.500,811.500,656.500
2.611,635.500,779.500,813.000,658.500
2.612,636.500,780.500,814.500,660.000
2.613,637.500,781.000,815.500,661.000
2.614,637.500,781.000,816.000,661.500
2.615,636.500,780.000,815.000,660.500
2.616,634.500,778.000,813.000,659.000
2.617,631.500,775.000,810.000,656.500
2.618,628.000,772.000,806.500,653.500
2.619,624.000,769.000,802.500,650.000
2.620,621.000,766.500,799.500,647.500
2.621,618.500,764.500,797.000,645.500
2.622,617.000,763.500,795.500,644.000
2.623,616.000,763.000,795.000,643.500
2.624,615.500,762.500,794.500,643.500
2.625,615.500,763.000,794.500,644.000
2.626,615.500,763.000,795.000,644.500
2.627,616.500,764.000,796.000,645.500
2.628,617.500,764.500,797.000,647.000
2.629,618.500,765.500,798.500,648.500
2.630,620.500,766.500,800.500,650.500
2.631,622.000,768.000,802.500,652.000
2.632,623.500,769.500,804.000,654.000
2.633,625.000,770.000,805.500,655.000
2.634,625.000,770.500,805.500,655.500
2.635,624.500,769.500,805.000,655.000
2.636,623.000,768.000,803.500,653.500
2.637,621.000,766.000,801.000,651.000
2.638,618.000,764.000,797.500,648.000
2.639,615.500,761.500,794.500,645.500
2.640,613.000,760.000,792.000,643.000
2.641,611.000,758.500,790.500,641.000
2.642,610.000,758.000,789.500,640.000
2.643,609.500,758.000,789.000,639.500
2.644,609.500,758.500,789.500,639.500
2.645,610.000,759.000,790.000,640.000
2.646,610.500,760.000,790.500,641.000
2.647,611.500,761.000,792.000,642.500
2.648,613.000,762.000,793.000,644.000
2.649,614.500,763.000,795.000,645.500
2.650,616.500,764.500,797.000,647.000
2.651,618.500,766.000,799.000,649.000
2.652,620.500,767.500,801.000,650.500
2.653,622.000,768.000,802.000,652.000
2.654,623.000,768.500,802.500,652.500
2.655,622.500,768.500,802.000,652.000
2.656,621.500,767.000,800.500,650.500
2.657,619.500,765.500,798.000,648.500
2.658,616.500,763.500,795.500,646.000
2.659,613.500,761.500,792.500,643.000
2.660,611.000,760.000,790.000,641.000
2.661,609.500,758.500,788.500,639.000
2.662,608.500,758.000,787.500,638.500
2.663,608.000,757.500,787.000,638.000
2.664,608.000,757.500,787.000,638.000
2.665,608.500,758.000,787.000,638.500
2.666,609.000,758.500,788.000,639.000
2.667,610.000,759.000,789.000,639.500
2.668,611.000,760.000,790.000,640.500
2.669,612.000,761.000,792.000,642.000
2.670,613.500,762.000,793.500,643.500
2.671,615.500,764.000,795.500,645.500
2.672,617.500,765.000,797.500,647.500
2.673,619.000,766.000,799.000,649.000
2.674,619.500,766.500,799.500,649.500
2.675,619.500,766.000,799.000,649.500
2.676,618.000,764.500,798.000,648.000
2.677,616.000,762.500,795.500,646.000
2.678,613.500,760.000,792.500,643.000
2.679,610.500,757.500,789.500,640.000
2.680,608.000,755.500,787.000,637.500
2.681,606.000,754.500,785.000,636.000
2.682,605.000,753.500,783.500,634.500
2.683,604.000,753.000,783.000,634.000
2.684,604.000,753.000,782.500,633.500
2.685,604.000,753.500,782.500,634.000
2.686,604.500,754.000,783.000,634.500
2.687,605.000,755.000,784.000,635.000
2.688,606.500,756.000,785.000,636.500
2.689,608.000,757.000,787.000,638.000
2.690,609.500,758.500,789.000,640.000
2.691,612.000,760.500,791.500,642.500
2.692,614.500,762.000,794.000,644.500
2.693,616.500,763.500,795.500,646.500
2.694,617.500,764.500,796.500,647.500
2.695,617.500,764.000,796.500,647.000
2.696,616.500,763.000,795.000,646.000
2.697,614.500,761.500,793.000,644.500
2.698,612.000,759.500,790.500,642.000
2.699,609.500,757.500,787.500,639.500
2.700,607.000,755.500,785.000,637.000
2.701,605.500,754.500,783.500,635.500
2.702,604.500,754.000,782.500,634.500
2.703,604.000,754.000,782.000,634.500
2.704,604.500,754.500,782.500,634.500
2.705,605.000,755.000,783.000,635.000
2.706,606.000,755.500,784.000,636.000
2.707,607.000,756.500,785.000,637.000
2.708,608.500,758.000,786.500,638.000
2.709,610.500,759.500,788.500,640.000
2.710,612.000,761.000,790.500,642.000
2.711,614.500,763.000,793.000,644.000
2.712,616.500,764.500,795.000,646.000
2.713,618.000,765.500,796.500,647.500
2.714,618.500,765.500,797.000,648.000
2.715,618.500,765.000,796.500,647.500
2.716,617.000,763.500,795.000,646.000
2.717,615.000,762.000,792.500,643.500
2.718,612.000,759.500,789.500,640.500
2.719,609.500,757.500,787.000,638.000
2.720,607.000,756.000,784.500,635.500
2.721,605.000,754.500,782.500,634.000
2.722,604.000,754.000,781.500,633.000
2.723,603.500,753.500,781.000,632.500
2.724,604.000,753.500,781.500,632.500
2.725,604.000,753.500,781.500,633.000
2.726,604.500,754.000,782.500,633.500
2.727,605.500,755.000,783.500,634.500
2.728,606.500,756.000,784.500,635.500
2.729,607.500,757.000,786.000,637.000
2.730,609.500,758.500,787.500,639.000
2.731,611.000,760.000,789.500,641.000
2.732,613.000,761.000,791.500,642.500
2.733,614.000,762.000,793.000,644.000
2.734,614.500,762.500,793.500,644.000
2.735,614.500,762.000,793.000,643.500
2.736,613.000,760.500,792.000,642.500
2.737,611.000,759.000,789.500,640.000
2.738,608.500,757.000,787.000,637.500
2.739,605.500,754.500,784.000,634.500
2.740,603.500,753.000,781.500,632.500
2.741,601.500,751.500,780.000,631.000
2.742,600.500,750.500,778.500,630.000
2.743,600.000,750.500,778.500,629.500
2.744,600.000,750.500,778.500,629.500
2.745,600.500,751.000,779.000,630.000
2.746,601.000,752.000,780.000,631.000
2.747,602.000,753.000,781.000,632.500
2.748,603.000,754.000,782.500,634.000
2.749,604.500,755.000,784.000,635.500
2.750,606.000,756.500,786.000,637.500
2.751,608.000,758.000,788.000,639.500
2.752,609.500,759.000,790.000,641.500
2.753,611.000,760.000,791.000,642.500
2.754,611.500,760.000,791.500,643.000
2.755,611.000,759.500,790.500,642.500
2.756,609.500,758.000,789.000,641.000
2.757,607.000,756.000,786.500,638.500
2.758,604.500,754.000,783.500,635.500
2.759,602.000,751.500,780.500,633.000
2.760,599.500,750.000,778.500,631.000
2.761,598.000,748.500,776.500,629.500
2.762,597.000,748.000,775.500,629.000
2.763,596.500,748.000,775.500,629.000
2.764,597.000,748.500,776.000,629.000
2.765,597.500,749.000,776.500,630.000
2.766,598.000,750.000,778.000,631.000
2.767,599.000,751.000,779.000,632.000
2.768,600.000,752.000,781.000,633.500
2.769,601.500,753.500,783.000,635.000
2.770,603.500,755.000,785.000,637.000
2.771,605.500,757.000,787.500,639.000
2.772,607.500,758.500,789.500,641.000
2.773,609.000,760.000,791.000,643.000
2.774,610.000,760.500,792.000,644.000
2.775,610.000,760.000,791.500,643.500
2.776,608.500,759.000,790.500,642.500
2.777,607.000,757.500,788.000,640.500
2.778,604.500,755.000,785.500,638.000
2.779,601.500,753.000,782.500,635.000
2.780,599.000,751.000,780.000,633.000
2.781,597.500,749.500,778.000,631.000
2.782,596.000,748.500,777.000,630.000
2.783,595.500,748.500,776.500,629.500
2.784,595.500,748.500,776.500,630.000
2.785,595.500,749.000,777.000,630.500
2.786,596.000,749.500,778.000,631.500
2.787,597.000,750.000,779.000,632.500
2.788,598.000,751.500,780.500,634.000
2.789,599.500,752.500,782.500,636.000
2.790,601.500,754.500,784.500,638.000
2.791,604.000,756.000,787.000,640.000
2.792,606.000,757.500,789.000,642.000
2.793,607.500,758.500,790.500,643.000
2.794,608.000,758.500,791.000,643.500
2.795,607.000,758.000,790.000,643.000
2.796,605.500,756.500,788.500,641.500
2.797,603.000,754.500,786.000,639.000
2.798,600.500,752.000,783.000,636.500
2.799,597.500,750.000,780.500,633.500
2.800,595.000,748.500,777.500,631.000
2.801,593.000,747.000,776.000,629.500
2.802,591.500,746.500,774.500,628.000
2.803,591.500,746.000,774.000,628.000
2.804,591.500,746.500,774.500,628.000
2.805,592.000,746.500,775.000,628.500
2.806,593.000,747.500,776.000,629.500
2.807,594.000,748.500,777.000,630.500
2.808,595.500,749.500,778.500,632.000
2.809,597.000,751.000,780.500,633.500
2.810,598.500,752.500,782.500,635.500
2.811,600.500,754.500,785.000,637.500
2.812,602.500,755.500,787.000,639.500
2.813,604.000,756.500,788.500,640.500
2.814,604.500,756.500,789.000,641.000
2.815,604.500,756.000,788.000,640.500
2.816,603.000,754.500,786.500,639.000
2.817,600.500,752.500,784.000,636.500
2.818,598.000,750.500,780.500,633.500
2.819,595.000,748.500,777.500,630.500
2.820,592.500,746.500,775.000,628.000
2.821,591.000,745.000,773.000,626.000
2.822,590.000,744.500,772.000,625.000
2.823,589.500,744.000,771.500,625.000
2.824,589.500,744.000,772.000,625.000
2.825,590.000,744.500,772.500,625.500
2.826,590.500,745.500,773.000,626.000
2.827,591.500,746.500,774.000,627.500
2.828,592.500,747.500,775.500,628.500
2.829,594.000,748.500,777.000,630.000
2.830,595.500,750.000,779.000,632.000
2.831,597.500,751.500,781.000,634.000
2.832,599.000,753.000,783.000,635.500
2.833,600.500,754.000,784.500,637.000
2.834,601.000,754.000,785.000,637.500
2.835,600.500,753.500,784.000,636.500
2.836,599.000,752.000,782.500,635.000
2.837,597.000,750.000,779.500,632.000
2.838,594.500,747.500,776.500,629.000
2.839,591.500,745.000,773.000,625.500
2.840,589.000,743.000,770.000,623.000
2.841,586.500,741.500,768.000,620.500
2.842,585.000,740.000,766.500,619.000
2.843,584.500,739.500,766.000,618.000
2.844,584.000,739.500,765.500,618.000
2.845,584.500,739.500,766.000,618.000
2.846,585.000,740.000,766.500,618.500
2.847,585.500,740.500,767.000,619.000
2.848,587.000,741.500,768.000,620.000
2.849,588.000,742.000,769.500,621.000
2.850,590.000,743.500,771.000,622.500
2.851,592.000,745.000,773.000,624.000
2.852,593.500,746.000,774.500,625.000
2.853,595.000,746.500,775.500,626.000
2.854,595.500,746.500,776.000,626.000
2.855,595.500,746.000,775.500,625.500
2.856,594.500,744.500,774.000,623.500
2.857,592.500,743.000,771.500,621.000
2.858,590.000,740.500,768.500,618.500
2.859,587.000,738.500,765.500,615.500
2.860,585.000,736.500,763.000,613.000
2.861,583.000,735.000,761.000,611.500
2.862,582.500,734.500,760.000,610.500
2.863,582.000,734.000,759.500,609.500
2.864,582.000,734.000,759.500,609.500
2.865,582.500,734.500,759.500,610.000
2.866,583.000,735.000,760.500,610.500
2.867,583.500,736.000,761.500,611.000
2.868,585.000,737.000,763.000,612.000
2.869,586.500,738.000,764.000,613.500
2.870,588.000,739.000,766.000,615.000
2.871,590.000,740.500,768.000,617.000
2.872,592.000,741.500,770.000,619.000
2.873,593.500,742.500,771.000,620.000
2.874,594.500,742.500,771.500,620.500
2.875,594.000,742.000,770.500,619.500
2.876,592.500,740.500,769.000,617.500
2.877,590.500,738.500,766.000,615.000
2.878,587.500,736.500,763.000,612.000
2.879,584.500,734.000,759.500,609.000
2.880,582.000,732.000,757.000,606.500
2.881,580.000,730.500,754.500,604.500
2.882,579.000,729.500,753.500,603.000
2.883,578.500,729.000,752.500,602.500
2.884,578.500,729.000,752.500,602.500
2.885,579.000,729.500,753.000,603.000
2.886,580.000,730.000,753.500,603.500
2.887,581.000,731.000,755.000,604.500
2.888,582.500,732.500,756.500,606.000
2.889,584.500,734.000,758.000,607.500
2.890,586.500,735.500,760.500,609.500
2.891,588.500,737.500,763.000,612.000
2.892,590.500,739.500,765.000,613.500
2.893,592.000,740.500,767.000,615.000
2.894,593.000,741.000,767.500,615.500
2.895,593.000,741.000,767.000,615.000
2.896,591.500,739.500,765.500,613.500
2.897,589.500,738.000,763.000,611.500
2.898,587.000,735.500,760.000,608.500
2.899,584.500,733.500,757.500,605.500
2.900,582.000,731.500,755.000,603.000
2.901,580.500,730.500,753.000,601.000
2.902,579.500,729.500,752.000,600.000
2.903,578.500,729.000,751.500,599.500
2.904,578.500,729.500,751.500,599.500
2.905,579.000,729.500,752.000,600.000
2.906,579.500,730.500,753.000,600.500
2.907,580.500,731.000,754.000,601.500
2.908,582.000,732.000,755.000,602.500
2.909,583.500,733.000,757.000,604.500
2.910,585.000,734.500,759.000,606.500
2.911,587.000,736.000,761.000,608.500
2.912,589.000,737.500,763.000,610.500
2.913,590.500,738.500,764.500,612.000
2.914,591.000,738.500,765.000,612.500
2.915,591.000,738.500,764.500,611.500
2.916,590.000,737.000,763.000,610.000
2.917,588.000,735.500,761.000,608.000
2.918,585.500,733.000,758.000,605.000
2.919,582.500,731.000,755.500,602.500
2.920,580.500,729.500,753.000,600.500
2.921,578.500,728.500,751.500,599.000
2.922,578.000,727.500,750.500,598.000
2.923,577.500,727.500,750.500,598.000
2.924,577.500,728.000,750.500,598.500
2.925,578.500,728.500,751.000,599.500
2.926,579.500,729.500,752.000,600.500
2.927,580.500,730.500,753.500,601.500
2.928,582.000,732.000,755.000,603.000
2.929,584.000,733.500,757.000,605.000
2.930,586.500,735.500,759.500,607.000
2.931,588.500,737.500,762.000,609.000
2.932,591.000,739.000,764.500,611.500
2.933,592.500,740.500,766.500,613.000
2.934,593.500,741.000,767.500,614.000
2.935,593.500,741.000,767.000,613.500
2.936,592.500,740.000,766.000,612.000
2.937,590.500,738.000,763.500,609.500
2.938,588.000,736.000,761.000,607.000
2.939,585.000,734.000,758.000,604.000
2.940,582.500,732.500,755.500,601.500
2.941,580.500,731.000,753.500,600.000
2.942,579.000,730.500,752.500,599.000
2.943,578.000,730.000,752.000,599.000
2.944,577.000,729.500,752.000,599.000
2.945,576.500,729.000,752.000,599.000
2.946,576.500,729.000,752.000,600.000
2.947,576.500,729.000,753.000,601.000
2.948,576.500,729.500,754.000,602.000
2.949,577.500,730.500,755.000,603.500
2.950,579.000,731.500,757.000,605.000
2.951,580.500,732.500,758.500,607.000
2.952,582.000,733.500,760.500,608.500
2.953,583.500,734.500,761.500,610.000
2.954,583.500,734.000,761.500,610.000
2.955,583.000,733.500,761.000,609.500
2.956,581.500,732.000,759.000,607.500
2.957,579.500,730.000,756.500,605.000
2.958,577.000,727.500,753.500,602.000
2.959,575.000,725.500,750.500,599.000
2.960,573.500,724.000,748.500,596.500
2.961,572.500,723.500,747.000,595.000
2.962,572.000,723.500,746.000,594.000
2.963,572.500,724.000,746.000,594.000
2.964,573.500,725.500,747.000,594.000
2.965,575.000,726.500,748.000,595.000
2.966,576.500,728.000,749.500,596.000
2.967,578.500,729.500,751.000,597.500
2.968,580.000,731.000,752.500,599.500
2.969,582.000,732.500,754.500,601.500
2.970,584.000,734.000,757.000,603.500
2.971,586.000,735.500,759.000,606.000
2.972,587.500,737.500,761.000,608.000
2.973,589.000,738.000,762.500,609.500
2.974,589.500,738.500,763.000,610.000
2.975,589.000,737.500,762.500,609.500
2.976,587.500,736.000,760.500,608.000
2.977,585.000,734.000,758.000,605.500
2.978,582.000,731.500,755.000,603.000
2.979,579.000,729.000,752.000,600.500
2.980,576.500,727.000,749.500,598.000
2.981,575.000,726.000,748.000,596.000
2.982,574.000,725.500,747.000,595.500
2.983,573.500,725.500,747.000,595.000
2.984,573.500,725.500,747.000,595.000
2.985,574.000,726.000,747.500,595.500
2.986,574.500,727.000,748.500,596.000
2.987,576.000,728.000,749.500,597.000
2.988,577.000,729.500,751.000,598.500
2.989,579.000,731.000,752.500,600.000
2.990,580.500,732.500,754.500,602.000
2.991,583.000,734.000,756.500,604.000
2.992,585.000,735.000,758.500,606.000
2.993,586.500,736.000,760.500,607.500
2.994,587.000,736.500,761.000,608.500
2.995,586.500,736.000,761.000,608.000
2.996,585.000,734.500,759.000,606.500
2.997,583.000,732.500,756.500,604.000
2.998,580.000,730.000,753.500,601.000
2.999,577.000,728.000,750.500,598.500
3.000,575.000,726.000,748.000,596.000
3.001,573.000,724.500,746.500,594.000
3.002,572.000,724.000,745.000,593.000
3.003,572.000,724.000,745.000,592.500
3.004,572.000,724.500,745.000,592.500
3.005,573.000,725.500,745.500,593.500
3.006,573.500,726.500,746.500,594.000
3.007,574.500,727.500,747.500,595.500
3.008,576.000,728.500,749.000,596.500
3.009,577.000,729.500,750.500,598.000
3.010,578.500,731.000,752.500,600.000
3.011,580.500,732.500,754.000,602.000
3.012,582.000,734.000,756.000,603.500
3.013,583.000,735.000,757.000,604.500
3.014,584.000,735.500,757.500,605.000
3.015,583.500,735.000,757.000,604.000
3.016,582.000,733.500,755.500,602.500
3.017,580.000,732.000,753.000,600.500
3.018,577.500,730.000,750.000,598.000
3.019,575.000,728.000,747.000,595.500
3.020,573.000,726.500,744.500,593.500
3.021,571.000,725.500,743.000,592.000
3.022,570.500,724.500,742.000,591.000
3.023,570.000,724.500,742.000,591.000
3.024,570.000,724.500,742.000,591.000
3.025,570.500,725.000,742.500,591.500
3.026,571.000,726.000,743.000,592.500
3.027,572.500,726.500,744.000,593.500
3.028,573.500,728.000,745.500,595.000
3.029,575.500,729.500,747.500,597.000
3.030,577.500,731.000,750.000,599.000
3.031,579.500,732.500,752.500,601.000
3.032,581.500,734.000,754.500,603.500
3.033,583.000,735.500,756.000,605.000
3.034,584.000,735.500,757.000,605.500
3.035,583.500,735.500,756.500,605.000
3.036,582.500,734.500,755.500,603.500
3.037,580.500,733.000,753.000,601.500
3.038,578.000,731.000,750.500,599.500
3.039,575.500,729.000,747.500,597.000
3.040,573.500,727.500,745.500,595.000
3.041,572.000,726.500,744.000,594.000
3.042,571.500,726.000,743.000,593.000
3.043,571.000,726.000,743.000,593.000
3.044,571.500,726.500,743.500,593.000
3.045,572.000,727.000,744.000,593.500
3.046,573.500,728.000,745.000,594.500
3.047,574.500,729.000,746.000,596.000
3.048,576.000,730.500,748.000,597.500
3.049,578.000,732.000,750.000,599.500
3.050,580.000,734.000,752.000,602.000
3.051,582.000,736.000,754.500,604.000
3.052,584.000,737.500,757.000,606.500
3.053,586.000,738.500,759.000,608.000
3.054,587.000,739.000,760.000,609.000
3.055,587.000,739.000,760.000,608.500
3.056,586.000,738.000,759.000,607.500
3.057,584.000,736.500,757.000,605.500
3.058,581.500,734.500,754.500,603.000
3.059,579.000,732.500,751.500,600.500
3.060,577.000,731.000,749.000,598.500
3.061,576.000,730.000,747.500,597.500
3.062,575.000,730.000,746.500,596.500
3.063,575.000,730.000,746.000,596.500
3.064,575.000,730.000,746.500,597.000
