'Elapsed time','AECG1','AECG2','AECG3','AECG4'
'seconds','uV','uV','uV','uV'
0.000,-1.500,13.500,-0.500,9.500
0.001,-1.500,14.000,-0.500,10.000
0.002,-1.500,14.500,-1.000,11.000
0.003,-1.500,15.500,-2.000,12.000
0.004,-1.500,16.500,-3.000,13.000
0.005,-1.500,18.000,-3.500,15.000
0.006,-1.500,19.500,-4.000,17.000
0.007,-1.500,21.500,-4.500,19.500
0.008,-1.500,24.000,-4.500,22.500
0.009,-1.500,27.000,-5.000,26.000
0.010,-1.500,30.000,-5.500,30.000
0.011,-1.500,33.500,-6.500,34.500
0.012,-1.500,37.500,-6.500,39.500
0.013,-1.500,42.000,-7.000,45.000
0.014,-1.500,46.500,-6.500,50.000
0.015,-1.500,51.000,-6.000,55.500
0.016,-1.500,56.000,-5.000,61.000
0.017,-1.500,60.500,-4.500,66.500
0.018,-1.500,65.000,-3.000,72.000
0.019,-1.500,69.000,-1.000,76.500
0.020,-1.500,72.500,0.500,80.500
0.021,-1.500,75.500,1.500,83.500
0.022,-1.500,78.500,1.500,87.000
0.023,-1.000,81.500,2.500,90.500
0.024,-1.000,84.500,4.500,94.500
0.025,-1.500,88.500,6.500,98.500
0.026,-1.500,92.000,8.000,102.000
0.027,-1.500,95.000,8.500,105.500
0.028,-1.500,97.500,8.000,108.000
0.029,-1.500,99.500,7.000,109.500
0.030,-1.500,100.500,5.500,110.500
0.031,-1.500,101.500,4.000,111.000
0.032,-1.500,101.500,2.000,110.500
0.033,-1.500,100.500,-0.500,109.500
0.034,-1.500,99.000,-3.000,107.000
0.035,-1.000,96.500,-4.500,103.500
0.036,-1.000,93.500,-4.500,99.500
0.037,-1.000,89.500,-2.500,95.000
0.038,-1.000,85.500,-1.000,90.000
0.039,-1.000,81.000,0.500,85.500
0.040,-1.000,77.000,0.500,81.000
0.041,-1.000,73.500,0.000,77.000
0.042,-1.000,70.000,-1.000,74.000
0.043,-1.000,67.000,-2.500,70.500
0.044,-1.000,64.500,-3.000,68.000
0.045,-1.500,62.000,-2.000,65.500
0.046,-1.500,59.500,-0.500,63.000
0.047,-1.500,57.000,1.500,60.000
0.048,-1.000,55.000,2.000,57.500
0.049,-1.000,52.500,1.500,55.000
0.050,-1.000,50.000,1.000,52.000
0.051,-1.000,47.500,1.000,49.500
0.052,-1.000,45.500,0.500,47.500
0.053,-1.000,43.000,-0.500,45.000
0.054,-1.000,41.000,-1.500,43.000
0.055,-1.000,39.500,-1.500,41.000
0.056,-1.000,38.000,-0.500,39.500
0.057,-1.000,36.500,1.000,38.000
0.058,-1.000,35.000,1.500,36.500
0.059,-1.000,34.000,1.000,35.000
0.060,-1.000,33.000,-1.000,34.000
0.061,-1.000,32.500,-4.000,33.500
0.062,-1.000,32.000,-6.500,33.500
0.063,-1.000,31.500,-7.500,34.000
0.064,-1.000,31.500,-7.000,34.000
0.065,-1.000,31.500,-6.000,34.000
0.066,-1.000,31.500,-5.000,34.000
0.067,-1.000,31.500,-5.000,34.000
0.068,-1.000,31.500,-5.000,34.000
0.069,-1.000,31.500,-4.500,34.000
0.070,-1.000,31.500,-3.000,34.000
0.071,-1.000,31.000,-1.500,34.000
0.072,-1.000,30.500,1.000,34.000
0.073,-1.500,30.000,3.500,34.000
0.074,-1.500,29.000,6.000,33.500
0.075,-1.500,28.500,7.000,33.500
0.076,-1.500,28.500,7.000,33.500
0.077,-1.500,28.500,6.000,33.500
0.078,-1.500,29.000,5.000,33.500
0.079,-1.500,29.000,3.500,34.000
0.080,-1.500,29.500,2.500,34.000
0.081,-1.500,30.000,1.500,35.000
0.082,-1.500,30.500,-0.500,35.500
0.083,-1.500,30.500,-2.500,36.500
0.084,-1.500,31.000,-4.000,37.000
0.085,-1.500,31.000,-4.000,37.500
0.086,-1.500,31.000,-3.000,38.000
0.087,-1.500,30.500,-2.500,38.500
0.088,-1.500,30.500,-2.500,38.000
0.089,-1.000,30.500,-2.500,38.000
0.090,-1.000,30.500,-2.000,37.500
0.091,-1.000,30.000,-1.500,37.500
0.092,-1.000,30.000,0.000,37.000
0.093,-1.000,29.500,1.500,37.000
0.094,-1.500,29.500,2.500,36.500
0.095,-1.500,29.500,2.500,36.000
0.096,-1.500,29.500,1.500,36.000
0.097,-1.500,29.500,-1.000,36.000
0.098,-1.500,29.000,-3.500,36.000
0.099,-1.500,29.000,-5.500,35.500
0.100,-1.500,28.500,-6.000,35.500
0.101,-1.500,28.000,-5.000,35.000
0.102,-1.500,28.000,-3.500,35.000
0.103,-1.500,27.500,-2.000,34.500
0.104,-1.500,26.500,-1.500,34.000
0.105,-1.500,26.000,-1.000,34.000
0.106,-1.500,25.500,-1.000,33.500
0.107,-1.500,25.000,-0.500,33.000
0.108,-1.500,24.500,1.000,33.000
0.109,-1.500,24.500,1.500,32.500
0.110,-1.000,25.000,1.500,32.500
0.111,-1.000,25.000,0.500,33.000
0.112,-1.000,25.500,-1.000,33.500
0.113,-1.000,26.000,-2.500,34.000
0.114,-1.000,26.500,-3.500,35.000
0.115,-1.500,27.000,-4.000,35.500
0.116,-1.500,27.500,-4.000,36.000
0.117,-1.500,27.500,-3.500,36.500
0.118,-1.500,27.500,-3.500,36.500
0.119,-1.500,27.000,-3.500,36.000
0.120,-1.500,27.000,-4.500,35.500
0.121,-1.000,27.000,-6.500,35.500
0.122,-1.000,27.000,-9.000,35.000
0.123,-1.000,27.000,-10.500,35.000
0.124,-1.000,27.000,-10.000,35.500
0.125,-1.000,27.000,-7.000,35.500
0.126,-1.000,27.000,-4.000,35.500
0.127,-1.000,27.000,-1.500,36.000
0.128,-1.000,27.000,1.000,36.000
0.129,-1.000,27.000,3.000,36.000
0.130,-1.000,27.000,4.500,36.500
0.131,-1.000,26.500,6.000,36.500
0.132,-1.500,26.500,7.500,36.500
0.133,-1.500,26.000,8.500,36.000
0.134,-1.500,26.000,7.500,36.000
0.135,-1.000,26.000,5.000,36.000
0.136,-1.000,26.000,2.000,36.500
0.137,-1.000,26.500,-0.500,37.000
0.138,-1.500,26.500,-2.500,37.500
0.139,-1.500,27.000,-3.000,38.000
0.140,-1.500,27.000,-3.500,38.500
0.141,-1.000,27.000,-3.000,39.000
0.142,-1.000,27.500,-2.000,39.500
0.143,-1.000,28.000,-0.500,40.000
0.144,-1.000,28.000,1.000,40.000
0.145,-1.000,28.000,2.500,40.000
0.146,-1.000,27.500,2.500,39.500
0.147,-1.000,26.500,1.000,39.000
0.148,-1.000,25.500,-1.000,38.000
0.149,-0.500,24.500,-3.500,36.000
0.150,-0.500,23.000,-4.500,33.500
0.151,-0.500,21.000,-4.000,30.500
0.152,-1.000,18.500,-2.000,27.000
0.153,-1.000,16.500,1.000,24.000
0.154,-1.000,14.500,3.500,21.500
0.155,-1.500,13.500,4.500,20.000
0.156,-1.500,13.500,4.000,19.500
0.157,-1.000,13.500,2.500,20.000
0.158,-1.000,14.000,0.000,21.000
0.159,-1.000,15.000,-2.000,22.000
0.160,-1.000,16.000,-3.500,23.500
0.161,-1.000,17.000,-4.500,25.000
0.162,-1.000,18.000,-4.500,26.500
0.163,-1.000,19.500,-5.500,28.000
0.164,-1.000,20.500,-7.000,29.000
0.165,-1.000,22.000,-8.500,30.000
0.166,-1.000,23.000,-9.000,31.500
0.167,-1.000,24.000,-8.500,32.500
0.168,-1.500,24.500,-7.000,33.000
0.169,-1.500,25.000,-5.500,34.000
0.170,-1.500,25.500,-4.500,34.500
0.171,-1.500,26.000,-3.000,35.000
0.172,-1.500,26.500,-1.500,35.500
0.173,-1.500,26.500,-0.500,36.000
0.174,-1.500,26.500,-1.000,36.000
0.175,-1.500,26.500,-2.000,36.000
0.176,-1.500,26.500,-3.500,35.500
0.177,-1.000,26.000,-5.000,35.500
0.178,-1.000,26.000,-5.000,35.000
0.179,-1.000,25.500,-4.500,34.500
0.180,-1.000,25.500,-4.000,34.500
0.181,-1.000,25.500,-2.500,34.500
0.182,-1.000,26.000,-1.500,34.500
0.183,-1.000,26.000,0.000,34.500
0.184,-1.000,26.000,2.500,34.500
0.185,-1.000,26.000,5.000,34.000
0.186,-1.000,26.000,6.500,34.000
0.187,-1.000,26.000,7.500,34.000
0.188,-1.000,26.000,7.000,34.000
0.189,-1.000,26.000,5.500,34.000
0.190,-1.000,26.000,4.000,34.000
0.191,-1.000,26.000,2.000,33.500
0.192,-1.000,26.000,0.500,33.500
0.193,-1.000,25.500,-0.500,33.000
0.194,-1.000,25.500,-0.500,33.000
0.195,-1.000,25.500,0.000,32.500
0.196,-1.500,25.500,-1.000,32.000
0.197,-1.500,25.000,-3.000,31.500
0.198,-1.500,25.000,-6.000,31.000
0.199,-1.500,24.500,-8.500,30.500
0.200,-1.000,24.500,-10.000,30.000
0.201,-1.000,24.500,-10.000,30.000
0.202,-1.000,24.000,-9.000,30.000
0.203,-1.000,24.000,-8.000,30.000
0.204,-1.000,24.500,-6.500,30.000
0.205,-1.000,24.500,-5.500,30.000
0.206,-1.000,24.500,-5.500,30.000
0.207,-1.000,24.500,-7.000,30.000
0.208,-1.000,25.000,-10.000,30.500
0.209,-1.000,25.000,-13.000,30.500
0.210,-1.000,25.000,-15.500,31.000
0.211,-1.000,25.500,-16.000,31.000
0.212,-1.000,25.500,-15.000,31.000
0.213,-1.000,26.000,-14.000,31.500
0.214,-1.000,26.500,-12.500,31.500
0.215,-1.000,26.500,-11.000,32.000
0.216,-1.500,27.000,-10.500,32.500
0.217,-1.500,27.500,-11.000,33.000
0.218,-1.500,27.500,-13.000,33.000
0.219,-1.500,28.000,-16.500,33.500
0.220,-1.500,27.500,-19.500,33.500
0.221,-1.500,27.500,-20.500,33.000
0.222,-1.500,27.500,-20.500,33.000
0.223,-1.000,27.500,-19.500,32.500
0.224,-1.000,28.000,-18.500,32.500
0.225,-1.000,28.000,-18.000,33.000
0.226,-1.000,28.500,-18.000,33.500
0.227,-1.000,29.000,-18.500,33.500
0.228,-1.500,29.500,-19.000,33.500
0.229,-1.500,29.500,-19.500,33.500
0.230,-1.500,29.500,-20.000,33.000
0.231,-1.500,29.000,-21.000,32.000
0.232,-1.500,28.000,-21.000,31.500
0.233,-1.500,27.000,-21.000,30.500
0.234,-1.500,26.500,-20.000,30.500
0.235,-1.500,26.000,-18.500,30.000
0.236,-1.500,26.000,-18.000,30.000
0.237,-1.500,25.500,-18.000,30.000
0.238,-1.500,25.500,-18.500,30.000
0.239,-1.500,26.000,-19.000,30.000
0.240,-1.500,26.000,-19.000,30.000
0.241,-1.500,26.000,-19.000,30.000
0.242,-1.500,26.500,-18.500,30.000
0.243,-1.500,26.500,-17.500,30.000
0.244,-1.500,26.500,-16.500,31.000
0.245,-1.500,26.500,-15.500,31.500
0.246,-1.500,26.500,-15.000,32.000
0.247,-1.500,26.500,-14.000,32.000
0.248,-1.500,26.000,-13.000,32.000
0.249,-1.500,26.000,-12.500,32.000
0.250,-1.500,26.000,-12.500,32.000
0.251,-1.500,26.000,-12.500,32.000
0.252,-1.500,26.000,-11.500,32.000
0.253,-1.000,26.000,-10.000,32.000
0.254,-1.000,26.000,-8.000,32.000
0.255,-0.500,26.000,-7.000,32.000
0.256,-0.500,26.000,-6.500,32.000
0.257,-0.500,26.000,-7.000,32.000
0.258,-1.000,26.000,-7.000,32.000
0.259,-1.000,26.000,-7.000,32.000
0.260,-1.000,26.000,-6.500,31.500
0.261,-1.500,25.500,-5.000,31.500
0.262,-1.500,25.500,-3.500,31.500
0.263,-1.000,26.000,-2.000,32.000
0.264,-1.000,26.500,-1.000,32.500
0.265,-1.000,26.500,-1.000,32.500
0.266,-1.000,27.000,-1.500,32.500
0.267,-1.000,27.000,-1.500,32.500
0.268,-0.500,27.000,-1.500,32.500
0.269,-0.500,27.000,-1.500,32.500
0.270,-0.500,27.000,-1.500,32.500
0.271,-0.500,26.500,-1.500,32.500
0.272,-0.500,26.500,-1.000,32.500
0.273,-0.500,26.500,0.500,33.000
0.274,-1.000,26.000,1.500,33.000
0.275,-1.000,26.000,1.500,33.000
0.276,-1.000,25.500,-0.500,33.500
0.277,-1.000,25.500,-3.500,33.500
0.278,-1.000,25.000,-7.000,33.500
0.279,-1.000,25.000,-9.500,33.500
0.280,-1.000,24.500,-9.500,33.000
0.281,-1.000,24.000,-8.000,33.000
0.282,-1.500,23.500,-4.500,32.500
0.283,-1.500,23.500,-2.000,32.500
0.284,-1.500,23.000,0.500,32.500
0.285,-1.500,23.000,1.500,32.500
0.286,-1.500,22.500,1.000,32.000
0.287,-1.500,22.000,-1.500,32.000
0.288,-1.500,21.500,-4.000,31.500
0.289,-1.500,21.000,-6.500,31.000
0.290,-1.500,20.500,-8.500,30.500
0.291,-1.500,19.500,-9.500,30.000
0.292,-1.000,18.500,-9.500,29.000
0.293,-1.000,17.500,-10.000,28.500
0.294,-1.000,16.500,-10.500,27.000
0.295,-1.000,15.500,-10.500,25.500
0.296,-1.000,14.000,-10.000,24.000
0.297,-1.000,13.000,-9.000,22.500
0.298,-1.000,11.500,-7.000,21.000
0.299,-1.000,10.000,-5.500,19.500
0.300,-1.500,8.500,-3.500,18.000
0.301,-1.500,6.500,-2.000,16.500
0.302,-1.500,5.000,-1.500,15.000
0.303,-1.000,3.500,-1.500,13.500
0.304,-1.000,2.000,-1.500,12.000
0.305,-1.000,0.500,-2.000,10.500
0.306,-1.000,-1.500,-2.500,8.500
0.307,-1.000,-3.000,-3.500,7.000
0.308,-1.000,-4.500,-3.500,5.000
0.309,-1.000,-6.000,-3.000,3.500
0.310,-1.000,-7.500,-1.500,2.000
0.311,-1.500,-9.000,0.500,1.000
0.312,-1.500,-10.500,3.000,0.000
0.313,-1.500,-12.000,5.500,-1.500
0.314,-1.500,-13.000,7.000,-2.500
0.315,-1.500,-14.000,8.000,-3.500
0.316,-1.500,-15.000,8.500,-4.000
0.317,-1.500,-16.000,8.000,-5.000
0.318,-1.500,-17.000,7.000,-5.500
0.319,-1.500,-18.000,5.500,-6.500
0.320,-1.500,-19.000,3.500,-7.500
0.321,-1.500,-19.500,1.000,-8.500
0.322,-1.500,-20.000,-2.500,-9.000
0.323,-1.500,-20.000,-5.000,-9.500
0.324,-1.000,-20.000,-7.000,-10.000
0.325,-1.000,-20.000,-7.000,-10.500
0.326,-1.000,-20.500,-5.500,-10.500
0.327,-1.000,-21.000,-4.000,-11.000
0.328,-1.000,-21.500,-3.000,-11.500
0.329,-1.000,-22.000,-2.500,-12.000
0.330,-1.000,-23.000,-2.500,-13.000
0.331,-1.000,-24.000,-2.500,-14.000
0.332,-1.000,-25.500,-2.000,-15.500
0.333,-1.000,-26.500,-1.500,-16.500
0.334,-1.000,-27.000,0.000,-17.500
0.335,-1.000,-27.500,1.500,-18.000
0.336,-1.000,-27.500,2.000,-18.500
0.337,-1.000,-27.500,1.000,-18.500
0.338,-1.000,-27.500,-1.000,-18.500
0.339,-1.000,-28.000,-2.500,-18.500
0.340,-0.500,-28.000,-3.500,-18.500
0.341,-1.000,-28.000,-3.000,-19.000
0.342,-1.000,-28.500,-3.000,-19.000
0.343,-1.000,-28.500,-3.500,-19.000
0.344,-1.500,-28.500,-4.000,-19.000
0.345,-1.500,-28.500,-4.500,-19.000
0.346,-1.000,-28.500,-4.000,-19.000
0.347,-1.000,-28.000,-3.000,-18.500
0.348,-1.000,-28.000,-2.000,-18.000
0.349,-1.000,-27.500,-1.500,-17.500
0.350,-1.000,-27.500,-1.500,-16.500
0.351,-1.500,-27.500,-2.500,-16.000
0.352,-1.500,-27.500,-4.000,-16.000
0.353,-1.500,-27.000,-5.500,-16.000
0.354,-1.500,-27.000,-7.500,-15.500
0.355,-1.500,-27.000,-9.000,-15.500
0.356,-1.500,-27.000,-9.500,-15.500
0.357,-1.500,-27.500,-10.000,-15.500
0.358,-1.500,-27.500,-10.500,-15.500
0.359,-1.000,-28.000,-10.500,-15.500
0.360,-1.000,-28.500,-10.000,-15.500
0.361,-1.500,-28.500,-10.000,-15.500
0.362,-1.500,-28.500,-11.000,-15.500
0.363,-1.500,-28.500,-12.000,-15.500
0.364,-1.500,-28.000,-12.000,-15.000
0.365,-1.500,-27.500,-11.500,-15.000
0.366,-1.500,-27.000,-10.500,-14.500
0.367,-1.500,-27.000,-9.500,-14.000
0.368,-1.500,-26.500,-9.000,-13.500
0.369,-1.500,-26.000,-9.000,-13.000
0.370,-1.500,-25.500,-10.000,-12.000
0.371,-1.000,-25.000,-11.000,-11.500
0.372,-1.000,-25.000,-12.000,-11.500
0.373,-1.000,-24.500,-13.000,-11.000
0.374,-1.000,-24.000,-13.000,-10.500
0.375,-1.000,-24.000,-14.000,-10.000
0.376,-1.000,-23.500,-14.500,-10.000
0.377,-1.000,-23.000,-15.500,-9.500
0.378,-1.000,-22.000,-15.500,-9.000
0.379,-1.000,-21.500,-14.500,-8.500
0.380,-1.500,-21.500,-12.500,-8.000
0.381,-1.500,-21.000,-11.000,-7.500
0.382,-1.500,-20.500,-10.000,-7.000
0.383,-1.500,-20.000,-10.000,-6.500
0.384,-1.500,-19.500,-10.500,-5.500
0.385,-1.500,-18.500,-10.500,-4.500
0.386,-1.500,-17.500,-10.000,-3.000
0.387,-1.500,-17.000,-8.500,-2.000
0.388,-1.500,-16.000,-6.500,-1.000
0.389,-1.000,-15.500,-4.500,-0.500
0.390,-1.000,-15.000,-3.000,-0.500
0.391,-1.000,-14.500,-2.000,-0.500
0.392,-1.000,-14.500,-2.000,0.000
0.393,-1.000,-14.000,-3.000,0.500
0.394,-1.000,-13.500,-4.000,0.500
0.395,-1.000,-13.500,-5.000,1.000
0.396,-1.000,-13.000,-6.000,1.500
0.397,-1.000,-12.500,-7.500,2.000
0.398,-1.000,-12.000,-8.500,2.000
0.399,-1.000,-12.000,-8.000,2.500
0.400,-1.000,-11.500,-6.000,3.000
0.401,-1.000,-11.500,-3.500,3.000
0.402,-1.000,-11.500,-0.500,3.500
0.403,-1.000,-11.500,3.000,3.500
0.404,-1.000,-11.500,5.500,3.500
0.405,-1.000,-11.500,6.500,3.500
0.406,-1.000,-11.500,6.000,3.500
0.407,-1.000,-11.500,4.500,3.500
0.408,-1.000,-11.000,2.500,3.500
0.409,-1.000,-11.000,0.500,4.000
0.410,-1.000,-10.500,-2.500,4.500
0.411,-1.000,-10.000,-6.000,5.000
0.412,-1.000,-9.500,-10.500,5.500
0.413,-1.500,-9.500,-15.000,6.000
0.414,-1.500,-9.500,-18.500,6.000
0.415,-1.000,-9.500,-20.500,6.000
0.416,-1.000,-9.500,-20.000,6.000
0.417,-1.000,-9.500,-19.000,6.000
0.418,-1.000,-9.500,-17.000,6.000
0.419,-1.000,-9.500,-14.500,6.500
0.420,-1.000,-9.500,-13.000,6.500
0.421,-1.500,-9.500,-12.000,7.000
0.422,-1.500,-10.000,-11.500,7.000
0.423,-1.500,-10.000,-12.500,7.000
0.424,-1.500,-10.500,-13.000,7.000
0.425,-1.500,-10.500,-13.500,7.000
0.426,-1.500,-11.000,-13.500,7.500
0.427,-1.500,-11.000,-12.000,7.500
0.428,-1.500,-11.000,-11.000,7.000
0.429,-1.500,-11.000,-10.500,7.000
0.430,-1.500,-11.000,-11.000,7.000
0.431,-1.500,-11.000,-10.500,7.000
0.432,-1.500,-11.500,-9.500,6.500
0.433,-1.500,-12.000,-7.500,6.500
0.434,-1.500,-12.500,-6.500,6.000
0.435,-1.500,-13.000,-7.000,5.500
0.436,-1.500,-13.500,-9.500,5.000
0.437,-1.500,-13.500,-13.000,4.500
0.438,-1.500,-14.000,-15.500,4.000
0.439,-1.500,-14.000,-17.000,3.500
0.440,-1.000,-14.500,-16.500,3.000
0.441,-1.000,-14.500,-14.000,3.000
0.442,-1.000,-15.000,-10.500,2.500
0.443,-1.000,-15.000,-7.000,2.500
0.444,-1.000,-15.000,-4.500,2.500
0.445,-1.000,-15.500,-4.500,2.500
0.446,-1.000,-16.000,-5.500,2.500
0.447,-1.000,-17.000,-7.500,2.000
0.448,-1.000,-17.500,-9.500,1.500
0.449,-1.000,-18.000,-10.500,1.000
0.450,-1.500,-18.500,-10.500,0.500
0.451,-1.000,-19.500,-10.500,0.000
0.452,-1.000,-20.000,-10.000,-1.000
0.453,-1.000,-20.500,-9.500,-1.500
0.454,-1.000,-21.000,-10.500,-2.000
0.455,-1.000,-21.500,-12.000,-2.500
0.456,-1.000,-22.000,-13.000,-2.500
0.457,-1.000,-22.500,-13.000,-3.000
0.458,-1.000,-23.000,-11.000,-4.000
0.459,-1.000,-23.500,-8.500,-4.500
0.460,-1.000,-24.000,-5.500,-5.500
0.461,-1.000,-25.000,-3.000,-6.000
0.462,-1.000,-25.500,-1.000,-6.500
0.463,-1.000,-25.500,0.500,-6.500
0.464,-1.000,-26.000,0.500,-6.500
0.465,-1.000,-26.500,-1.000,-7.000
0.466,-1.000,-26.500,-3.000,-7.500
0.467,-1.500,-27.000,-5.000,-7.500
0.468,-1.500,-27.000,-8.500,-8.000
0.469,-1.500,-27.500,-11.500,-8.000
0.470,-1.500,-28.000,-13.500,-8.000
0.471,-1.000,-28.500,-13.000,-8.500
0.472,-1.000,-29.000,-11.500,-9.000
0.473,-1.000,-29.500,-10.000,-9.500
0.474,-1.000,-30.000,-10.500,-10.000
0.475,-1.000,-30.500,-12.500,-11.000
0.476,-1.000,-31.000,-15.500,-11.500
0.477,-1.000,-31.500,-18.500,-12.500
0.478,-1.500,-32.500,-20.500,-13.000
0.479,-1.500,-33.500,-21.000,-14.000
0.480,-1.500,-34.000,-20.000,-14.500
0.481,-1.500,-34.500,-19.000,-15.000
0.482,-2.000,-34.500,-17.500,-15.500
0.483,-1.500,-35.000,-16.000,-15.500
0.484,-1.500,-35.500,-14.500,-16.000
0.485,-1.500,-36.500,-12.500,-17.000
0.486,-1.000,-37.500,-12.000,-17.500
0.487,-1.000,-38.500,-12.000,-19.000
0.488,-1.000,-39.500,-12.000,-20.000
0.489,-1.000,-40.000,-11.500,-20.500
0.490,-1.000,-40.500,-10.500,-21.000
0.491,-1.000,-41.000,-9.500,-21.000
0.492,-1.000,-41.000,-8.500,-21.000
0.493,-1.500,-40.500,-8.000,-20.500
0.494,-1.500,-40.000,-7.500,-20.000
0.495,-1.500,-39.000,-6.000,-18.500
0.496,-1.500,-38.000,-5.000,-17.000
0.497,-1.000,-37.000,-4.000,-15.500
0.498,-1.000,-36.000,-4.000,-14.000
0.499,-1.500,-35.000,-5.000,-13.000
0.500,-1.500,-34.500,-6.000,-13.000
0.501,-1.500,-35.000,-7.500,-13.500
0.502,-1.500,-35.500,-8.500,-14.500
0.503,-1.500,-36.500,-8.500,-16.000
0.504,-1.000,-37.500,-7.500,-17.500
0.505,-1.000,-39.500,-6.500,-20.000
0.506,-1.000,-42.000,-5.000,-23.000
0.507,-1.000,-45.000,-3.500,-26.500
0.508,-1.000,-48.000,-2.500,-29.500
0.509,-1.000,-50.000,-3.500,-32.000
0.510,-1.000,-51.500,-6.000,-34.000
0.511,-1.000,-52.500,-9.500,-35.000
0.512,-1.500,-53.000,-12.500,-35.000
0.513,-1.000,-52.500,-15.000,-35.000
0.514,-1.000,-52.000,-16.000,-34.500
0.515,-1.000,-51.000,-17.000,-33.000
0.516,-1.000,-50.000,-17.000,-31.500
0.517,-1.000,-49.000,-16.500,-30.000
0.518,-1.000,-48.000,-15.000,-28.500
0.519,-1.000,-47.000,-14.000,-27.000
0.520,-1.000,-46.000,-13.500,-26.000
0.521,-1.000,-45.500,-14.500,-25.000
0.522,-1.000,-45.500,-15.000,-24.500
0.523,-1.000,-45.000,-14.500,-24.000
0.524,-1.000,-44.500,-13.000,-23.500
0.525,-1.000,-44.000,-10.500,-23.000
0.526,-1.000,-43.500,-7.500,-22.500
0.527,-1.000,-43.500,-4.500,-22.000
0.528,-1.000,-43.000,-1.500,-21.000
0.529,-1.000,-42.500,0.500,-20.500
0.530,-1.000,-42.500,1.000,-20.500
0.531,-1.000,-42.500,0.500,-20.000
0.532,-1.000,-42.500,-0.500,-20.000
0.533,-1.500,-42.500,-1.500,-20.000
0.534,-1.500,-43.000,-2.000,-20.000
0.535,-1.500,-43.000,-2.500,-20.000
0.536,-1.500,-43.000,-3.000,-20.000
0.537,-1.500,-43.000,-3.000,-20.000
0.538,-1.000,-43.500,-3.000,-19.500
0.539,-1.000,-43.500,-3.500,-19.500
0.540,-1.000,-43.500,-5.500,-19.500
0.541,-1.000,-43.500,-8.500,-19.500
0.542,-1.500,-43.500,-11.000,-19.500
0.543,-1.500,-44.000,-12.500,-19.500
0.544,-1.500,-44.000,-12.500,-20.000
0.545,-1.500,-44.500,-11.000,-20.500
0.546,-1.500,-44.500,-10.000,-21.000
0.547,-1.500,-44.500,-8.500,-21.000
0.548,-1.500,-44.500,-6.000,-21.000
0.549,-1.500,-44.500,-3.000,-21.000
0.550,-1.500,-44.500,-0.500,-21.500
0.551,-1.500,-45.000,1.000,-21.500
0.552,-1.500,-45.500,1.500,-22.000
0.553,-1.500,-46.500,1.000,-22.500
0.554,-1.000,-47.500,0.000,-23.500
0.555,-1.000,-48.000,-1.000,-24.000
0.556,-1.000,-48.500,-1.500,-24.000
0.557,-1.000,-49.000,-1.500,-24.000
0.558,-1.500,-49.000,-1.000,-24.000
0.559,-1.500,-49.500,0.500,-24.500
0.560,-1.500,-49.500,1.500,-25.000
0.561,-1.000,-49.500,3.000,-25.000
0.562,-1.000,-49.500,4.500,-25.000
0.563,-1.000,-49.500,5.500,-24.500
0.564,-1.000,-49.000,6.500,-24.500
0.565,-1.000,-49.000,8.000,-24.500
0.566,-1.500,-49.500,8.500,-24.500
0.567,-1.500,-49.500,9.000,-24.500
0.568,-1.500,-49.500,9.000,-24.500
0.569,-1.500,-50.000,8.500,-25.000
0.570,-1.500,-50.000,7.000,-25.000
0.571,-1.500,-50.500,5.000,-25.500
0.572,-1.500,-51.500,2.500,-26.000
0.573,-1.500,-52.000,0.500,-26.500
0.574,-1.500,-52.500,-1.500,-27.000
0.575,-1.500,-53.000,-2.500,-27.500
0.576,-1.500,-53.500,-3.500,-27.500
0.577,-1.500,-54.500,-5.000,-28.000
0.578,-1.500,-55.000,-7.000,-28.500
0.579,-1.500,-56.000,-8.000,-29.000
0.580,-1.500,-56.500,-8.000,-29.500
0.581,-1.500,-57.000,-7.500,-30.000
0.582,-1.500,-57.000,-7.500,-30.000
0.583,-1.500,-57.000,-8.000,-29.500
0.584,-1.000,-57.000,-9.000,-29.500
0.585,-1.000,-57.500,-9.500,-29.500
0.586,-1.000,-57.500,-10.000,-30.000
0.587,-1.000,-58.000,-11.500,-30.000
0.588,-1.000,-58.000,-13.000,-30.500
0.589,-1.500,-58.000,-14.000,-30.500
0.590,-1.500,-58.000,-14.500,-30.500
0.591,-1.500,-58.000,-14.000,-30.000
0.592,-1.000,-58.000,-12.500,-30.000
0.593,-1.000,-58.000,-10.000,-30.000
0.594,-1.000,-58.000,-7.000,-30.500
0.595,-1.000,-58.000,-4.500,-31.000
0.596,-1.000,-58.500,-2.500,-31.500
0.597,-1.000,-59.000,-1.000,-32.000
0.598,-1.000,-59.000,0.000,-33.000
0.599,-1.000,-59.500,0.500,-33.500
0.600,-1.000,-59.500,0.500,-34.000
0.601,-1.500,-60.000,0.500,-34.000
0.602,-1.500,-60.000,1.000,-33.500
0.603,-1.000,-60.000,1.500,-33.000
0.604,-1.000,-60.000,2.500,-33.000
0.605,-1.000,-59.500,4.000,-33.000
0.606,-1.000,-59.500,4.500,-32.500
0.607,-1.000,-59.500,5.000,-32.500
0.608,-1.000,-59.000,5.500,-32.000
0.609,-1.000,-59.000,6.000,-31.500
0.610,-1.000,-58.500,7.500,-31.000
0.611,-1.000,-58.500,10.000,-30.500
0.612,-1.000,-58.500,13.000,-30.500
0.613,-1.000,-58.500,15.500,-30.500
0.614,-1.000,-58.500,17.000,-30.500
0.615,-1.000,-58.500,17.500,-30.500
0.616,-1.000,-58.000,16.500,-30.500
0.617,-1.000,-58.000,15.000,-30.000
0.618,-1.500,-57.500,13.500,-29.500
0.619,-1.500,-57.000,11.000,-29.000
0.620,-1.500,-57.000,7.500,-28.500
0.621,-1.500,-57.000,4.000,-28.500
0.622,-1.500,-57.500,1.000,-28.500
0.623,-1.500,-57.500,-0.500,-28.500
0.624,-1.500,-58.000,-1.000,-29.000
0.625,-1.500,-58.000,-0.500,-29.000
0.626,-1.500,-58.000,1.000,-29.500
0.627,-1.500,-58.000,2.000,-29.500
0.628,-1.000,-58.000,3.000,-29.500
0.629,-1.000,-58.000,4.000,-30.000
0.630,-1.000,-58.000,5.500,-30.000
0.631,-1.500,-58.000,6.500,-30.000
0.632,-1.500,-58.000,7.000,-30.500
0.633,-1.500,-58.000,6.500,-30.500
0.634,-1.500,-58.000,4.500,-31.000
0.635,-1.500,-58.000,2.000,-31.000
0.636,-1.500,-58.000,-1.000,-31.500
0.637,-1.500,-58.500,-3.000,-31.500
0.638,-1.000,-58.500,-3.500,-31.500
0.639,-1.000,-59.000,-3.000,-31.500
0.640,-1.000,-59.000,-1.000,-31.500
0.641,-1.000,-59.500,1.000,-31.500
0.642,-1.000,-60.000,2.500,-32.000
0.643,-1.000,-60.500,2.500,-32.500
0.644,-1.500,-60.500,2.000,-32.500
0.645,-1.500,-61.000,2.500,-33.000
0.646,-1.500,-61.000,3.500,-33.500
0.647,-1.500,-61.000,4.500,-33.500
0.648,-1.500,-61.500,5.000,-34.000
0.649,-1.500,-61.500,4.500,-34.500
0.650,-1.500,-61.500,2.500,-34.500
0.651,-1.500,-62.000,0.500,-34.000
0.652,-1.500,-61.500,-1.500,-34.000
0.653,-1.500,-62.000,-2.000,-33.500
0.654,-1.000,-62.000,-1.000,-33.500
0.655,-1.000,-62.000,1.000,-33.500
0.656,-1.000,-62.500,2.500,-34.000
0.657,-1.000,-62.500,3.000,-34.000
0.658,-1.000,-62.500,3.000,-34.500
0.659,-1.000,-63.000,4.000,-34.500
0.660,-1.500,-63.000,5.500,-35.000
0.661,-1.500,-63.500,6.500,-35.500
0.662,-1.500,-63.500,6.500,-36.000
0.663,-1.500,-64.000,6.000,-36.500
0.664,-1.000,-64.000,4.500,-36.500
0.665,-1.000,-64.000,3.500,-36.500
0.666,-1.000,-64.000,2.000,-36.500
0.667,-1.000,-64.000,1.000,-36.500
0.668,-1.000,-64.000,0.500,-36.500
0.669,-1.000,-64.000,0.500,-36.500
0.670,-1.500,-64.000,1.000,-36.500
0.671,-1.500,-64.000,1.000,-37.000
0.672,-1.500,-64.500,1.000,-37.000
0.673,-1.500,-65.000,0.000,-37.500
0.674,-1.500,-65.500,-1.000,-38.500
0.675,-1.500,-66.000,-1.500,-39.000
0.676,-1.500,-66.500,-1.000,-39.500
0.677,-1.500,-67.000,0.000,-40.000
0.678,-1.500,-67.500,1.000,-40.000
0.679,-1.500,-67.500,2.000,-40.500
0.680,-1.500,-68.000,3.000,-40.500
0.681,-1.500,-68.000,3.500,-40.500
0.682,-1.500,-68.000,3.500,-40.500
0.683,-1.500,-68.000,3.000,-40.000
0.684,-1.500,-68.000,2.000,-40.000
0.685,-1.500,-68.000,1.500,-40.000
0.686,-1.500,-68.000,2.000,-40.000
0.687,-1.000,-68.000,3.000,-40.000
0.688,-1.000,-68.000,4.000,-39.500
0.689,-1.000,-68.000,4.500,-39.500
0.690,-1.500,-68.000,4.500,-39.000
0.691,-1.500,-68.000,4.000,-38.500
0.692,-1.500,-68.000,3.500,-38.500
0.693,-1.500,-68.000,3.000,-38.500
0.694,-1.500,-68.000,3.000,-38.500
0.695,-1.500,-68.500,3.500,-39.000
0.696,-1.500,-68.500,4.000,-39.500
0.697,-1.500,-69.000,4.000,-40.000
0.698,-1.500,-69.500,3.000,-40.500
0.699,-1.500,-70.000,2.000,-41.000
0.700,-1.000,-70.500,1.000,-41.000
0.701,-1.000,-70.500,0.500,-41.000
0.702,-1.000,-70.000,0.500,-40.500
0.703,-1.000,-70.000,2.000,-40.500
0.704,-1.000,-69.500,4.000,-40.000
0.705,-1.000,-69.500,5.500,-40.000
0.706,-1.000,-69.500,6.000,-39.500
0.707,-1.500,-69.000,6.000,-39.500
0.708,-1.000,-69.000,6.500,-40.000
0.709,-1.000,-69.000,7.000,-40.000
0.710,-1.000,-69.000,7.500,-40.000
0.711,-1.000,-69.000,7.000,-40.000
0.712,-1.000,-69.000,7.000,-40.500
0.713,-1.000,-70.000,7.000,-41.000
0.714,-1.500,-70.500,7.000,-42.000
0.715,-1.000,-71.500,7.500,-43.000
0.716,-1.000,-72.500,7.500,-44.000
0.717,-1.000,-73.500,6.500,-45.500
0.718,-1.000,-75.000,5.500,-47.000
0.719,-1.000,-77.000,5.000,-49.000
0.720,-1.000,-78.500,5.000,-51.000
0.721,-1.000,-80.500,6.000,-53.000
0.722,-1.000,-82.000,7.000,-55.000
0.723,-1.500,-83.500,8.000,-56.500
0.724,-1.500,-85.000,8.500,-58.000
0.725,-1.500,-86.000,7.500,-59.500
0.726,-1.500,-86.500,5.000,-60.000
0.727,-1.500,-87.000,2.000,-60.000
0.728,-1.500,-86.500,-1.000,-59.500
0.729,-1.500,-86.000,-3.500,-59.000
0.730,-1.500,-86.000,-4.000,-58.500
0.731,-1.000,-85.500,-3.500,-57.500
0.732,-1.000,-85.000,-2.500,-56.500
0.733,-1.000,-84.000,-1.500,-55.500
0.734,-1.000,-82.500,-2.000,-53.500
0.735,-1.500,-81.000,-4.500,-51.000
0.736,-1.500,-78.500,-6.500,-48.000
0.737,-1.500,-76.000,-7.000,-45.000
0.738,-1.500,-72.500,-5.000,-41.500
0.739,-1.500,-69.000,-1.500,-37.500
0.740,-1.500,-65.000,2.000,-33.000
0.741,-1.500,-61.000,4.000,-28.000
0.742,-1.500,-56.000,5.000,-22.500
0.743,-1.500,-51.500,5.000,-17.000
0.744,-1.500,-46.000,4.500,-11.000
0.745,-1.500,-41.000,4.000,-5.000
0.746,-1.500,-36.500,3.000,0.500
0.747,-1.500,-32.500,3.500,5.000
0.748,-1.500,-29.000,4.000,9.000
0.749,-1.500,-26.000,5.000,12.500
0.750,-1.500,-23.500,5.500,15.500
0.751,-1.500,-21.000,6.000,18.500
0.752,-1.500,-18.500,6.500,21.500
0.753,-1.500,-15.500,6.500,24.500
0.754,-1.500,-12.500,6.500,27.500
0.755,-1.500,-10.000,5.500,30.000
0.756,-1.500,-7.500,4.000,32.000
0.757,-1.000,-5.500,2.000,33.500
0.758,-1.000,-4.500,0.500,34.000
0.759,-1.000,-4.000,-1.000,34.000
0.760,-1.000,-4.000,-2.000,33.500
0.761,-1.000,-4.000,-2.500,32.500
0.762,-1.000,-5.000,-2.500,31.000
0.763,-1.000,-6.500,-3.000,29.000
0.764,-1.000,-8.500,-4.000,26.000
0.765,-1.000,-11.000,-6.500,23.000
0.766,-1.000,-13.500,-9.500,19.500
0.767,-1.000,-16.000,-11.000,17.000
0.768,-1.000,-17.500,-11.000,15.000
0.769,-1.000,-18.500,-9.500,13.000
0.770,-1.000,-20.000,-8.500,11.500
0.771,-1.000,-21.000,-8.000,10.000
0.772,-1.000,-22.500,-8.500,9.000
0.773,-1.500,-24.000,-9.500,7.500
0.774,-1.500,-25.000,-10.000,6.000
0.775,-1.000,-26.500,-10.500,5.000
0.776,-1.000,-27.500,-12.000,3.500
0.777,-1.000,-29.000,-13.500,2.000
0.778,-1.000,-30.500,-15.000,0.500
0.779,-1.000,-32.000,-16.500,-1.500
0.780,-1.000,-33.500,-17.000,-3.500
0.781,-1.000,-35.000,-15.500,-5.000
0.782,-1.000,-36.000,-13.000,-6.500
0.783,-1.000,-37.000,-10.000,-7.500
0.784,-1.000,-38.000,-8.500,-8.500
0.785,-1.000,-39.000,-8.000,-9.500
0.786,-1.000,-40.000,-8.000,-10.500
0.787,-1.000,-40.500,-7.500,-11.000
0.788,-1.000,-41.000,-6.500,-12.000
0.789,-1.000,-41.500,-5.500,-12.000
0.790,-1.000,-41.500,-6.000,-12.500
0.791,-1.500,-41.500,-6.500,-12.000
0.792,-1.500,-41.500,-6.000,-12.000
0.793,-1.000,-41.500,-4.000,-11.500
0.794,-1.000,-41.000,-2.000,-11.500
0.795,-1.000,-41.000,-0.500,-11.500
0.796,-0.500,-40.500,-0.500,-11.500
0.797,-0.500,-40.500,-1.500,-11.500
0.798,-0.500,-40.500,-3.000,-11.500
0.799,-1.000,-40.500,-3.500,-11.500
0.800,-1.000,-40.500,-4.000,-11.500
0.801,-1.000,-40.500,-3.500,-11.500
0.802,-1.000,-40.500,-2.500,-11.500
0.803,-1.500,-41.000,-1.000,-11.500
0.804,-1.500,-40.500,1.000,-11.500
0.805,-1.500,-40.000,2.000,-11.000
0.806,-1.500,-40.000,2.500,-11.000
0.807,-1.000,-39.500,2.000,-10.500
0.808,-1.000,-39.000,1.000,-10.000
0.809,-1.000,-39.000,0.500,-9.000
0.810,-1.000,-38.500,0.500,-8.500
0.811,-1.000,-38.500,0.500,-8.000
0.812,-1.000,-38.500,1.000,-8.000
0.813,-1.000,-38.500,1.000,-8.000
0.814,-1.000,-38.500,1.000,-8.500
0.815,-1.000,-39.000,1.500,-8.500
0.816,-1.000,-38.500,2.000,-8.500
0.817,-1.000,-38.500,2.500,-8.500
0.818,-1.000,-38.000,2.500,-8.500
0.819,-1.000,-38.000,2.000,-8.500
0.820,-1.000,-38.000,0.500,-8.500
0.821,-1.000,-38.000,-2.000,-8.000
0.822,-1.000,-37.500,-3.500,-8.000
0.823,-1.000,-37.500,-6.000,-7.500
0.824,-1.500,-37.000,-8.000,-7.000
0.825,-1.500,-37.000,-10.500,-6.500
0.826,-1.500,-37.000,-12.000,-6.500
0.827,-1.500,-37.000,-12.500,-6.000
0.828,-1.500,-36.500,-12.500,-6.500
0.829,-1.500,-36.500,-12.500,-6.000
0.830,-1.500,-36.500,-12.000,-6.000
0.831,-1.500,-36.500,-12.000,-6.500
0.832,-1.000,-37.000,-11.000,-6.500
0.833,-1.000,-37.000,-10.500,-6.500
0.834,-1.000,-36.500,-10.000,-6.500
0.835,-1.000,-36.500,-10.500,-6.500
0.836,-1.000,-36.500,-11.000,-6.500
0.837,-1.500,-36.500,-12.000,-6.000
0.838,-1.500,-36.500,-13.000,-5.500
0.839,-1.500,-36.500,-13.500,-5.500
0.840,-1.500,-36.500,-12.500,-5.000
0.841,-1.500,-36.000,-10.000,-4.500
0.842,-1.500,-36.000,-7.000,-4.500
0.843,-1.500,-35.500,-5.500,-4.000
0.844,-1.500,-35.500,-5.500,-4.000
0.845,-1.500,-35.000,-7.000,-3.500
0.846,-1.000,-34.500,-9.500,-3.000
0.847,-1.500,-34.000,-12.000,-2.500
0.848,-1.500,-33.500,-13.500,-1.500
0.849,-1.500,-33.000,-13.000,-1.000
0.850,-1.500,-32.500,-11.500,-0.500
0.851,-1.500,-32.000,-10.000,0.000
0.852,-1.000,-31.500,-9.000,1.000
0.853,-1.000,-30.500,-9.000,2.000
0.854,-1.000,-30.500,-9.000,2.500
0.855,-1.000,-30.000,-9.000,3.000
0.856,-1.000,-30.500,-9.500,2.500
0.857,-1.000,-31.000,-11.000,2.000
0.858,-1.000,-31.500,-12.000,1.000
0.859,-1.000,-33.000,-13.000,-1.500
0.860,-1.000,-35.000,-13.500,-4.000
0.861,-1.000,-37.500,-14.000,-8.000
0.862,-1.000,-40.500,-14.000,-11.500
0.863,-1.000,-43.500,-14.000,-15.500
0.864,-1.000,-46.000,-13.500,-18.500
0.865,-0.500,-48.000,-11.500,-20.500
0.866,-0.500,-48.500,-9.000,-21.000
0.867,-0.500,-48.000,-6.500,-21.000
0.868,-0.500,-47.000,-5.000,-19.500
0.869,-0.500,-45.000,-4.000,-17.000
0.870,-0.500,-43.000,-4.500,-14.500
0.871,-0.500,-41.000,-5.000,-11.500
0.872,-1.000,-39.500,-5.500,-9.000
0.873,-1.000,-38.000,-5.500,-7.000
0.874,-1.000,-36.500,-5.000,-5.500
0.875,-1.000,-35.500,-5.000,-4.500
0.876,-1.000,-34.500,-5.000,-3.500
0.877,-1.000,-34.000,-5.000,-3.000
0.878,-1.000,-33.500,-5.500,-2.500
0.879,-1.000,-33.000,-5.500,-2.000
0.880,-1.000,-32.500,-5.000,-1.500
0.881,-1.500,-31.500,-4.500,-0.500
0.882,-1.500,-30.500,-4.500,0.500
0.883,-1.500,-30.000,-5.500,1.500
0.884,-1.000,-29.500,-7.000,1.500
0.885,-1.000,-29.500,-7.500,2.000
0.886,-1.000,-29.500,-7.500,1.500
0.887,-1.000,-29.500,-6.000,1.500
0.888,-1.000,-29.500,-4.500,1.500
0.889,-1.000,-29.500,-3.000,1.500
0.890,-1.000,-29.500,-1.000,1.500
0.891,-1.000,-29.500,0.500,1.500
0.892,-1.000,-29.500,1.000,1.500
0.893,-1.000,-29.500,0.500,1.500
0.894,-0.500,-29.500,-0.500,1.500
0.895,-0.500,-30.000,-2.000,1.500
0.896,-0.500,-30.000,-3.000,1.000
0.897,-0.500,-30.500,-3.500,0.500
0.898,-0.500,-31.500,-4.000,0.000
0.899,-0.500,-31.500,-4.500,-0.500
0.900,-0.500,-32.000,-5.000,-1.000
0.901,-0.500,-32.500,-5.500,-1.000
0.902,-0.500,-33.000,-7.000,-1.000
0.903,-1.000,-33.000,-9.500,-1.000
0.904,-1.000,-33.500,-11.500,-1.000
0.905,-1.000,-33.500,-12.500,-1.000
0.906,-1.000,-34.000,-12.500,-1.500
0.907,-1.000,-34.000,-11.500,-2.000
0.908,-1.000,-34.500,-10.000,-2.000
0.909,-1.000,-34.500,-9.000,-2.000
0.910,-1.000,-34.500,-8.000,-1.500
0.911,-1.000,-34.500,-7.000,-1.500
0.912,-1.000,-34.000,-5.500,-1.000
0.913,-1.000,-34.000,-4.000,-1.000
0.914,-1.000,-33.000,-3.000,-1.000
0.915,-1.000,-32.500,-2.000,-0.500
0.916,-1.000,-31.500,-1.500,0.500
0.917,-1.000,-30.500,-2.000,1.500
0.918,-1.000,-29.500,-4.000,3.000
0.919,-1.000,-29.000,-6.500,3.500
0.920,-1.000,-28.500,-9.000,4.500
0.921,-1.500,-28.000,-10.500,4.500
0.922,-1.500,-28.000,-11.500,4.500
0.923,-1.500,-28.500,-12.000,4.000
0.924,-1.500,-29.000,-12.000,3.500
0.925,-1.500,-29.000,-11.000,3.000
0.926,-1.500,-29.500,-10.500,3.000
0.927,-1.500,-29.500,-9.500,3.000
0.928,-1.500,-29.000,-9.000,3.000
0.929,-1.500,-29.000,-9.000,3.500
0.930,-1.500,-29.000,-8.000,4.000
0.931,-1.500,-28.500,-6.500,4.500
0.932,-1.500,-28.500,-5.500,5.000
0.933,-1.000,-28.000,-6.000,5.000
0.934,-1.000,-28.000,-8.500,5.500
0.935,-1.000,-27.500,-11.500,6.000
0.936,-1.500,-27.000,-13.500,6.000
0.937,-1.500,-27.000,-15.000,6.000
0.938,-1.000,-27.000,-16.000,6.000
0.939,-1.000,-27.000,-16.500,6.000
0.940,-1.000,-27.000,-16.500,6.000
0.941,-1.000,-27.000,-17.000,6.000
0.942,-1.000,-27.000,-17.500,6.500
0.943,-1.000,-27.000,-17.500,6.500
0.944,-1.000,-27.000,-17.000,7.000
0.945,-1.000,-26.500,-15.500,7.500
0.946,-1.000,-26.500,-14.500,8.000
0.947,-1.000,-26.000,-14.000,8.500
0.948,-1.000,-26.000,-13.000,9.000
0.949,-1.000,-26.000,-11.500,9.000
0.950,-1.000,-26.000,-10.000,8.500
0.951,-1.000,-26.000,-7.500,8.500
0.952,-1.000,-26.500,-6.000,8.000
0.953,-1.000,-26.500,-5.000,7.500
0.954,-1.000,-27.000,-5.000,7.500
0.955,-1.000,-27.000,-5.500,7.500
0.956,-1.000,-27.000,-6.500,7.500
0.957,-1.000,-27.000,-7.000,7.500
0.958,-1.000,-27.000,-6.500,7.500
0.959,-1.000,-27.000,-6.000,7.500
0.960,-1.000,-26.500,-4.500,7.500
0.961,-1.000,-26.000,-2.500,8.000
0.962,-1.000,-25.500,0.000,8.500
0.963,-1.000,-25.000,3.000,9.500
0.964,-1.000,-24.500,4.500,10.000
0.965,-1.500,-24.000,4.500,10.500
0.966,-1.500,-24.000,4.000,11.500
0.967,-1.500,-23.500,2.500,12.000
0.968,-1.500,-23.500,1.500,12.500
0.969,-1.000,-23.000,0.000,12.500
0.970,-1.000,-23.000,-0.500,13.000
0.971,-1.000,-22.500,0.000,13.500
0.972,-1.000,-22.000,0.000,13.500
0.973,-1.000,-22.000,0.000,14.000
0.974,-1.000,-22.000,-0.500,14.500
0.975,-1.000,-21.500,-1.500,14.500
0.976,-1.500,-21.500,-2.500,15.000
0.977,-1.500,-21.500,-3.000,16.000
0.978,-1.500,-21.000,-1.500,16.500
0.979,-1.500,-21.000,0.500,17.000
0.980,-1.500,-20.500,3.000,17.000
0.981,-1.500,-20.000,4.500,17.500
0.982,-1.000,-19.500,4.500,18.000
0.983,-1.000,-19.000,4.000,19.000
0.984,-1.000,-18.500,4.500,19.500
0.985,-1.500,-18.000,6.000,20.500
0.986,-1.500,-17.500,8.000,20.500
0.987,-1.500,-17.500,10.000,21.000
0.988,-1.500,-17.500,10.000,21.000
0.989,-1.500,-17.000,7.500,21.500
0.990,-1.500,-17.000,3.500,22.000
0.991,-1.000,-17.000,-0.500,22.500
0.992,-1.500,-16.500,-3.000,22.500
0.993,-1.500,-16.500,-4.500,22.500
0.994,-1.500,-17.000,-5.000,22.500
0.995,-1.500,-17.000,-4.000,22.500
0.996,-1.500,-17.000,-3.000,22.500
0.997,-1.500,-17.500,-2.500,22.500
0.998,-1.000,-17.000,-2.500,22.500
0.999,-1.000,-17.000,-2.500,22.500
1.000,-1.000,-16.500,-2.000,23.000
1.001,-1.000,-16.500,-2.000,23.000
1.002,-1.000,-16.000,-1.500,23.500
1.003,-1.000,-15.500,-1.000,24.000
1.004,-1.000,-15.000,-1.500,24.000
1.005,-1.500,-14.500,-2.000,25.000
1.006,-1.500,-14.000,-2.500,25.500
1.007,-1.500,-13.500,-2.000,26.000
1.008,-1.000,-13.500,-1.000,26.500
1.009,-1.000,-13.000,0.000,26.500
1.010,-1.000,-13.000,0.500,27.000
1.011,-1.000,-12.500,-0.500,27.000
1.012,-1.000,-12.000,-1.500,27.500
1.013,-0.500,-12.000,-1.500,27.500
1.014,-0.500,-11.500,-0.500,27.000
1.015,-0.500,-12.000,0.000,26.500
1.016,-0.500,-12.000,0.000,26.500
1.017,-0.500,-12.500,-0.500,26.000
1.018,-1.000,-12.500,-0.500,26.000
1.019,-1.000,-12.500,-0.500,26.000
1.020,-1.000,-12.500,-1.000,26.000
1.021,-1.000,-12.000,-1.000,26.500
1.022,-1.000,-12.000,-1.000,26.500
1.023,-1.000,-11.500,-0.500,26.500
1.024,-1.000,-12.000,-0.500,26.500
1.025,-1.000,-12.000,-1.000,26.000
1.026,-1.000,-12.500,-1.500,25.500
1.027,-1.000,-13.000,-2.000,25.500
1.028,-1.000,-13.000,-2.000,25.000
1.029,-1.000,-13.500,-2.000,25.000
1.030,-1.000,-13.500,-1.500,25.000
1.031,-1.000,-14.000,-1.500,24.500
1.032,-1.000,-14.000,-1.000,24.000
1.033,-1.000,-14.500,-0.500,23.500
1.034,-1.000,-14.500,0.500,23.500
1.035,-1.000,-14.500,0.500,23.500
1.036,-1.000,-14.500,-0.500,23.500
1.037,-1.000,-14.500,-2.000,23.500
1.038,-1.500,-14.500,-2.500,24.000
1.039,-1.500,-14.500,-2.500,23.500
1.040,-1.500,-14.500,-1.000,23.500
1.041,-1.500,-14.500,1.000,23.500
1.042,-1.500,-14.500,3.000,23.500
1.043,-1.500,-14.500,4.500,23.000
1.044,-1.500,-14.500,5.500,23.000
1.045,-1.500,-15.000,5.500,23.000
1.046,-1.500,-14.500,5.500,22.500
1.047,-1.500,-14.500,5.500,22.500
1.048,-1.500,-14.500,6.500,22.500
1.049,-1.500,-14.500,7.500,23.000
1.050,-1.500,-14.500,9.000,23.000
1.051,-1.500,-14.500,9.500,23.000
1.052,-1.500,-15.000,8.500,22.500
1.053,-1.500,-15.500,7.500,22.000
1.054,-1.500,-16.000,6.500,21.000
1.055,-1.500,-16.500,6.000,20.000
1.056,-1.500,-17.000,5.500,19.500
1.057,-1.500,-17.500,5.500,19.000
1.058,-1.500,-17.500,5.500,18.500
1.059,-1.500,-17.500,6.000,18.500
1.060,-1.500,-17.000,6.500,19.000
1.061,-1.500,-16.500,6.500,19.500
1.062,-1.500,-16.000,5.000,20.000
1.063,-1.000,-15.500,2.000,21.000
1.064,-1.000,-14.500,-1.500,21.500
1.065,-1.000,-14.000,-3.000,22.000
1.066,-1.000,-14.000,-3.500,22.000
1.067,-1.000,-13.500,-3.500,22.000
1.068,-1.000,-13.500,-3.000,22.000
1.069,-1.000,-14.000,-2.500,21.500
1.070,-1.000,-14.000,-1.000,21.000
1.071,-0.500,-14.500,-0.500,21.000
1.072,-0.500,-14.500,0.000,20.500
1.073,-0.500,-15.000,-0.500,20.500
1.074,-0.500,-15.500,-0.500,20.000
1.075,-1.000,-16.000,-1.000,19.500
1.076,-1.000,-16.500,-1.000,19.000
1.077,-1.000,-16.500,0.500,19.000
1.078,-1.000,-16.500,2.000,18.500
1.079,-1.000,-16.500,3.000,18.500
1.080,-1.000,-16.500,3.500,18.000
1.081,-1.000,-16.500,3.500,18.000
1.082,-1.000,-16.500,4.000,18.500
1.083,-1.000,-16.000,5.500,19.000
1.084,-1.500,-15.500,7.500,19.500
1.085,-1.500,-15.000,9.500,20.000
1.086,-1.500,-14.500,11.000,21.000
1.087,-1.500,-14.500,11.500,21.500
1.088,-1.500,-14.000,10.000,22.000
1.089,-1.500,-14.000,6.500,22.000
1.090,-1.500,-14.000,2.000,22.000
1.091,-2.000,-14.000,-2.000,22.500
1.092,-2.000,-14.500,-4.000,22.500
1.093,-2.000,-14.500,-4.000,22.500
1.094,-2.000,-14.500,-2.500,22.500
1.095,-1.500,-14.500,-1.500,22.000
1.096,-1.500,-14.500,-1.500,22.500
1.097,-1.500,-14.000,-3.000,22.500
1.098,-1.500,-14.000,-6.000,23.000
1.099,-1.500,-13.500,-8.500,23.000
1.100,-1.500,-13.500,-11.000,23.000
1.101,-1.500,-13.500,-12.500,23.000
1.102,-1.000,-13.500,-13.500,23.000
1.103,-1.000,-13.500,-14.000,23.500
1.104,-1.000,-13.500,-14.500,23.500
1.105,-1.500,-13.000,-15.000,24.000
1.106,-1.500,-13.000,-15.500,24.000
1.107,-1.500,-13.000,-16.000,23.500
1.108,-1.500,-13.000,-16.500,23.000
1.109,-1.500,-13.000,-16.500,22.500
1.110,-1.500,-13.000,-15.500,22.500
1.111,-1.500,-12.500,-14.000,22.500
1.112,-1.000,-12.000,-12.000,22.500
1.113,-1.000,-11.500,-9.500,23.000
1.114,-1.000,-11.000,-6.000,23.500
1.115,-1.000,-10.500,-2.500,23.500
1.116,-1.000,-10.000,1.000,23.500
1.117,-1.000,-10.000,2.000,24.000
1.118,-1.000,-10.000,1.500,24.000
1.119,-1.000,-10.000,0.500,24.000
1.120,-1.000,-9.500,-1.500,24.500
1.121,-1.000,-9.500,-3.500,25.000
1.122,-1.000,-9.500,-4.500,25.500
1.123,-1.000,-9.000,-5.000,26.000
1.124,-1.000,-8.500,-4.500,26.000
1.125,-1.000,-8.500,-4.000,26.000
1.126,-1.000,-8.500,-3.500,26.000
1.127,-1.000,-8.500,-3.000,26.000
1.128,-1.000,-8.500,-3.000,25.500
1.129,-1.000,-8.500,-3.000,25.500
1.130,-1.000,-8.000,-3.500,25.500
1.131,-1.500,-8.000,-4.500,26.000
1.132,-1.500,-7.500,-5.500,26.000
1.133,-1.000,-7.000,-6.000,26.500
1.134,-1.000,-6.500,-6.000,27.000
1.135,-1.000,-6.000,-6.500,27.000
1.136,-1.500,-6.000,-8.000,27.500
1.137,-1.500,-5.500,-10.000,28.000
1.138,-1.500,-5.000,-13.000,28.500
1.139,-1.500,-4.500,-14.500,29.000
1.140,-1.000,-4.000,-15.500,29.000
1.141,-1.000,-3.500,-15.500,29.500
1.142,-1.000,-3.000,-16.500,30.000
1.143,-1.500,-2.500,-17.000,30.500
1.144,-1.500,-2.000,-17.500,31.500
1.145,-1.500,-1.500,-18.000,32.000
1.146,-1.500,-1.000,-18.000,32.500
1.147,-1.000,-0.500,-17.500,33.000
1.148,-1.000,0.000,-16.000,33.000
1.149,-1.000,0.500,-14.000,32.500
1.150,-1.000,0.500,-12.500,32.000
1.151,-1.000,0.500,-10.500,32.000
1.152,-1.000,0.000,-9.000,31.500
1.153,-1.000,0.000,-7.500,31.000
1.154,-1.000,-0.500,-5.500,31.000
1.155,-1.000,-0.500,-5.000,31.000
1.156,-1.000,0.000,-6.000,31.500
1.157,-1.000,0.000,-7.500,31.500
1.158,-1.000,0.000,-7.500,32.000
1.159,-1.000,0.000,-6.500,32.000
1.160,-1.000,0.500,-4.000,32.500
1.161,-1.000,0.500,-2.000,33.000
1.162,-1.000,1.000,-1.000,33.000
1.163,-1.000,1.000,-1.000,33.000
1.164,-1.000,0.500,-1.500,33.000
1.165,-1.000,0.500,-2.500,32.000
1.166,-1.000,-0.500,-2.500,31.500
1.167,-1.000,-0.500,-1.500,30.500
1.168,-1.000,-1.000,-0.500,30.500
1.169,-1.000,-0.500,0.500,30.500
1.170,-1.000,-0.500,0.500,30.500
1.171,-1.000,0.000,-1.000,31.000
1.172,-1.500,0.500,-2.500,31.500
1.173,-1.500,1.000,-4.000,31.500
1.174,-1.500,1.500,-6.000,32.000
1.175,-1.500,2.000,-7.500,32.000
1.176,-1.000,2.500,-7.500,32.500
1.177,-1.000,3.000,-7.000,33.000
1.178,-1.000,3.000,-7.000,33.500
1.179,-1.000,3.000,-7.000,33.500
1.180,-1.000,3.000,-7.000,33.500
1.181,-1.500,2.500,-6.000,33.500
1.182,-1.500,2.500,-5.000,33.500
1.183,-1.500,3.000,-4.500,33.500
1.184,-1.500,3.000,-5.000,33.500
1.185,-1.500,3.500,-6.000,33.500
1.186,-1.500,3.500,-6.500,33.500
1.187,-1.500,3.500,-7.000,33.500
1.188,-1.500,3.500,-7.500,33.500
1.189,-1.500,3.500,-8.000,33.500
1.190,-1.500,3.500,-7.500,33.500
1.191,-1.000,4.000,-6.000,33.500
1.192,-1.000,4.000,-4.000,34.000
1.193,-1.000,4.000,-2.000,34.000
1.194,-1.000,4.000,-1.500,34.000
1.195,-1.000,3.500,-1.500,33.500
1.196,-1.000,3.500,-2.000,33.000
1.197,-1.000,3.000,-2.500,33.000
1.198,-1.000,2.500,-3.000,32.500
1.199,-1.000,2.500,-3.500,32.500
1.200,-1.000,2.000,-4.000,32.500
1.201,-1.000,2.000,-4.500,32.500
1.202,-1.000,2.000,-5.500,33.000
1.203,-1.000,2.500,-6.000,33.000
1.204,-1.000,2.500,-6.500,33.500
1.205,-1.000,3.500,-7.000,34.000
1.206,-1.000,4.000,-7.000,34.500
1.207,-1.000,4.000,-7.000,34.500
1.208,-1.000,4.500,-8.000,34.500
1.209,-1.000,5.000,-9.500,35.000
1.210,-1.000,5.500,-10.500,35.500
1.211,-1.000,5.500,-10.000,36.000
1.212,-0.500,5.500,-8.000,36.500
1.213,-0.500,5.000,-6.000,36.000
1.214,-0.500,4.500,-5.000,35.000
1.215,-0.500,3.000,-5.500,33.500
1.216,-1.000,1.500,-7.000,31.000
1.217,-1.000,-1.000,-9.000,28.000
1.218,-1.000,-4.500,-11.000,24.000
1.219,-1.000,-7.500,-13.000,19.500
1.220,-1.000,-10.000,-14.000,16.000
1.221,-1.500,-12.000,-15.000,13.500
1.222,-1.000,-13.000,-15.000,12.500
1.223,-1.000,-13.500,-14.000,12.000
1.224,-1.000,-13.000,-12.000,12.500
1.225,-1.500,-12.500,-11.000,13.500
1.226,-1.500,-11.500,-11.500,15.000
1.227,-1.500,-10.000,-13.500,17.000
1.228,-1.500,-8.000,-15.500,19.000
1.229,-1.500,-6.500,-16.500,21.000
1.230,-1.500,-4.500,-16.500,22.500
1.231,-1.500,-3.000,-17.000,24.500
1.232,-1.500,-1.500,-18.000,26.500
1.233,-1.500,0.500,-19.500,28.000
1.234,-1.500,1.500,-21.000,30.000
1.235,-1.500,3.000,-22.500,31.500
1.236,-1.500,3.500,-24.000,33.000
1.237,-1.500,4.000,-25.500,33.500
1.238,-1.000,4.000,-26.500,33.500
1.239,-1.000,4.000,-26.500,33.500
1.240,-1.000,4.000,-25.500,33.500
1.241,-1.000,4.000,-25.000,33.000
1.242,-1.000,4.000,-24.000,33.000
1.243,-1.000,4.000,-22.000,33.000
1.244,-1.000,4.000,-20.000,33.500
1.245,-1.000,4.500,-18.500,34.000
1.246,-1.000,5.500,-16.500,35.000
1.247,-0.500,6.000,-14.000,35.500
1.248,-0.500,7.000,-11.500,36.500
1.249,-0.500,8.000,-10.000,37.500
1.250,-1.000,9.000,-9.000,38.500
1.251,-1.000,9.500,-9.500,39.000
1.252,-1.000,10.500,-11.000,40.000
1.253,-1.000,10.500,-12.000,40.000
1.254,-1.000,11.000,-13.000,40.000
1.255,-1.000,11.000,-13.500,40.500
1.256,-1.000,11.000,-13.500,40.500
1.257,-1.000,11.000,-13.500,40.500
1.258,-1.000,11.500,-13.000,41.000
1.259,-1.000,11.500,-11.500,41.500
1.260,-1.000,12.000,-10.500,41.500
1.261,-1.000,12.000,-10.000,42.000
1.262,-1.000,12.500,-10.500,42.000
1.263,-1.000,12.500,-12.000,42.000
1.264,-1.000,12.000,-13.000,42.000
1.265,-1.000,12.500,-13.500,42.000
1.266,-1.500,12.500,-13.000,42.500
1.267,-1.500,12.500,-12.000,42.500
1.268,-1.500,12.500,-10.000,43.000
1.269,-1.500,13.000,-8.500,43.500
1.270,-1.500,13.000,-7.500,44.000
1.271,-1.500,12.500,-7.500,43.500
1.272,-1.500,12.500,-8.000,43.000
1.273,-1.500,12.000,-8.500,42.500
1.274,-1.500,11.500,-9.500,42.000
1.275,-1.500,11.500,-10.000,41.500
1.276,-1.500,11.500,-10.000,42.000
1.277,-1.500,11.500,-9.500,42.000
1.278,-1.500,11.500,-9.000,42.500
1.279,-1.500,12.000,-9.000,43.000
1.280,-1.500,12.500,-9.000,43.500
1.281,-1.500,12.500,-10.000,43.500
1.282,-1.500,13.000,-11.000,44.500
1.283,-1.500,13.500,-11.500,45.500
1.284,-1.000,14.500,-11.500,46.000
1.285,-1.000,15.000,-10.500,46.500
1.286,-1.000,15.000,-10.000,47.000
1.287,-1.000,15.000,-10.500,47.000
1.288,-0.500,15.000,-12.500,47.000
1.289,-1.000,15.000,-14.500,47.000
1.290,-1.000,14.500,-15.500,47.000
1.291,-0.500,14.500,-15.500,47.000
1.292,-0.500,14.500,-14.500,47.000
1.293,-0.500,14.500,-12.500,47.000
1.294,-0.500,14.500,-10.000,47.000
1.295,-1.000,14.500,-7.500,46.500
1.296,-1.000,14.500,-5.000,46.500
1.297,-1.000,14.000,-3.000,46.500
1.298,-1.000,14.000,-1.500,46.000
1.299,-1.000,14.000,-0.500,46.000
1.300,-1.000,14.000,-1.000,46.000
1.301,-0.500,14.500,-3.000,46.500
1.302,-0.500,14.500,-4.000,47.000
1.303,-0.500,15.500,-4.000,48.000
1.304,-0.500,16.000,-3.500,49.000
1.305,-1.000,16.500,-2.500,50.000
1.306,-1.000,17.500,-2.500,50.500
1.307,-1.000,18.000,-3.000,51.000
1.308,-1.000,18.000,-4.000,51.500
1.309,-1.000,18.500,-4.000,51.500
1.310,-1.000,18.500,-3.500,52.000
1.311,-1.000,19.000,-3.500,52.000
1.312,-1.000,19.000,-3.500,52.000
1.313,-1.000,18.500,-4.000,51.500
1.314,-1.000,18.000,-5.000,50.500
1.315,-1.000,17.000,-6.500,49.500
1.316,-1.000,16.500,-7.500,49.000
1.317,-1.000,16.500,-8.000,48.500
1.318,-1.000,16.500,-8.000,48.500
1.319,-1.000,16.500,-8.000,49.000
1.320,-1.500,17.000,-8.000,49.500
1.321,-1.500,17.500,-8.500,50.000
1.322,-1.500,18.000,-9.500,51.000
1.323,-1.500,18.500,-11.000,51.000
1.324,-1.500,18.500,-12.500,51.000
1.325,-1.000,18.500,-14.500,51.000
1.326,-1.000,18.500,-17.000,50.500
1.327,-1.000,18.500,-18.500,50.500
1.328,-1.000,19.000,-19.000,51.000
1.329,-1.000,19.000,-16.500,51.000
1.330,-1.000,19.000,-12.500,51.500
1.331,-1.000,19.500,-7.500,52.000
1.332,-1.000,19.500,-3.000,53.000
1.333,-1.000,20.000,0.000,53.500
1.334,-0.500,20.500,0.500,54.000
1.335,-0.500,21.000,-0.500,54.000
1.336,-1.000,21.000,-2.500,54.500
1.337,-1.000,21.500,-5.000,54.500
1.338,-1.000,21.500,-7.000,55.000
1.339,-1.000,21.500,-8.500,55.500
1.340,-1.000,21.500,-9.500,56.000
1.341,-1.000,22.000,-10.000,56.500
1.342,-1.000,22.000,-11.000,57.000
1.343,-1.000,22.500,-11.500,58.000
1.344,-1.000,23.500,-11.500,59.000
1.345,-1.000,24.500,-12.500,60.000
1.346,-1.000,25.500,-14.000,61.000
1.347,-1.000,26.000,-15.000,62.000
1.348,-1.500,27.000,-15.500,63.000
1.349,-1.500,27.500,-14.500,63.500
1.350,-1.500,27.500,-12.500,64.000
1.351,-1.500,28.000,-10.000,64.500
1.352,-1.500,28.500,-9.000,64.500
1.353,-1.500,28.500,-9.000,64.500
1.354,-1.500,28.500,-10.000,65.000
1.355,-1.500,28.500,-11.000,65.000
1.356,-1.000,28.500,-11.000,64.500
1.357,-1.500,28.500,-10.000,64.500
1.358,-1.500,28.000,-8.500,64.000
1.359,-1.500,27.500,-8.000,63.000
1.360,-1.500,27.500,-8.000,63.000
1.361,-1.500,28.000,-8.500,63.000
1.362,-1.500,28.000,-9.000,63.000
1.363,-1.500,28.500,-10.000,63.500
1.364,-1.500,29.000,-10.500,64.000
1.365,-1.500,29.500,-11.000,64.000
1.366,-1.000,30.000,-11.000,64.500
1.367,-1.000,30.500,-10.000,65.000
1.368,-1.000,31.000,-8.000,65.500
1.369,-1.500,31.500,-6.000,66.000
1.370,-1.500,32.000,-4.500,66.500
1.371,-1.500,32.000,-3.500,66.500
1.372,-1.500,32.000,-2.000,67.000
1.373,-1.500,32.000,-1.000,66.500
1.374,-1.000,31.500,-1.000,66.500
1.375,-1.000,31.500,-1.500,66.500
1.376,-1.000,31.000,-3.000,66.500
1.377,-1.000,31.000,-4.000,66.500
1.378,-1.000,31.000,-3.500,66.500
1.379,-1.000,31.000,-3.000,66.500
1.380,-1.000,31.500,-2.500,67.000
1.381,-1.000,31.500,-2.000,67.500
1.382,-1.000,32.000,-1.500,67.500
1.383,-1.500,32.000,-1.000,68.000
1.384,-2.000,32.000,0.000,67.500
1.385,-2.000,32.000,-0.500,67.000
1.386,-2.000,31.500,-2.000,67.000
1.387,-2.000,31.500,-3.500,67.000
1.388,-1.500,32.000,-5.000,67.000
1.389,-1.500,32.000,-6.000,67.500
1.390,-1.500,32.500,-6.000,68.000
1.391,-1.500,33.000,-5.500,68.500
1.392,-1.500,33.000,-4.500,69.000
1.393,-1.500,33.500,-4.000,69.000
1.394,-1.500,33.500,-3.500,69.500
1.395,-1.500,33.500,-3.000,69.000
1.396,-1.000,34.000,-3.500,69.000
1.397,-1.000,34.000,-4.000,69.000
1.398,-1.000,34.000,-4.500,68.500
1.399,-1.000,34.000,-4.000,68.500
1.400,-1.500,34.000,-3.500,68.500
1.401,-1.500,34.000,-3.000,68.500
1.402,-1.500,34.000,-1.500,69.000
1.403,-1.500,34.500,1.000,69.000
1.404,-1.500,34.500,3.500,69.500
1.405,-1.500,34.500,6.000,69.500
1.406,-1.500,34.500,7.500,69.500
1.407,-1.000,34.500,7.500,70.000
1.408,-1.000,35.000,7.000,70.000
1.409,-1.000,35.000,6.000,70.000
1.410,-1.000,35.000,5.500,70.000
1.411,-1.000,35.000,6.000,69.500
1.412,-1.000,35.000,6.000,69.500
1.413,-1.000,35.000,6.500,69.000
1.414,-1.000,35.500,6.500,69.000
1.415,-1.000,35.500,7.000,69.500
1.416,-1.000,35.500,6.500,69.500
1.417,-1.000,35.500,6.000,69.500
1.418,-1.000,35.500,5.000,69.500
1.419,-1.000,35.500,4.500,70.000
1.420,-1.000,35.500,4.000,70.000
1.421,-1.000,35.500,3.500,70.000
1.422,-1.000,36.000,3.000,70.500
1.423,-1.000,36.000,1.500,70.500
1.424,-1.500,36.500,0.000,71.000
1.425,-1.500,37.500,-1.000,72.000
1.426,-1.500,38.000,-1.500,72.500
1.427,-1.500,38.500,-1.000,73.500
1.428,-1.500,38.500,-0.500,73.500
1.429,-1.500,38.500,-0.500,73.500
1.430,-1.500,38.500,-0.500,73.500
1.431,-1.500,38.500,0.000,73.000
1.432,-1.500,38.000,1.000,72.000
1.433,-1.000,37.500,2.000,71.500
1.434,-1.000,36.500,4.000,70.500
1.435,-1.000,35.500,5.000,70.000
1.436,-1.000,34.500,5.500,69.000
1.437,-1.500,33.500,5.500,67.500
1.438,-1.500,32.000,5.000,66.000
1.439,-1.500,30.500,4.500,64.500
1.440,-1.500,28.500,4.000,62.500
1.441,-1.500,27.000,4.000,61.000
1.442,-1.500,25.000,4.000,58.500
1.443,-1.500,23.000,4.500,56.500
1.444,-1.500,21.000,5.000,54.500
1.445,-1.500,19.500,5.000,52.500
1.446,-1.500,18.000,5.000,51.000
1.447,-1.000,17.000,4.500,50.000
1.448,-1.000,16.000,4.000,49.500
1.449,-1.000,16.000,3.500,49.500
1.450,-1.000,16.000,4.000,49.500
1.451,-1.000,16.000,4.500,50.500
1.452,-1.000,16.500,4.000,51.000
1.453,-1.000,17.000,3.000,52.000
1.454,-1.000,17.500,1.500,53.000
1.455,-1.000,18.000,0.500,54.500
1.456,-1.000,18.500,2.000,55.000
1.457,-1.000,18.500,4.500,56.000
1.458,-1.000,18.500,7.000,56.500
1.459,-1.000,19.000,8.500,57.000
1.460,-1.000,19.500,8.000,59.000
1.461,-1.000,21.500,5.000,61.500
1.462,-1.500,23.500,1.000,65.000
1.463,-1.500,26.500,-3.000,69.000
1.464,-1.500,29.500,-5.000,73.000
1.465,-1.500,32.500,-5.500,77.000
1.466,-1.500,36.000,-4.500,81.000
1.467,-1.500,39.000,-3.500,84.000
1.468,-1.500,41.500,-3.000,87.000
1.469,-1.500,43.500,-2.000,90.000
1.470,-1.000,45.000,-1.500,92.000
1.471,-1.000,46.500,0.000,94.000
1.472,-1.000,48.000,1.000,95.500
1.473,-1.000,49.500,2.500,97.500
1.474,-1.000,51.500,3.000,99.500
1.475,-1.000,53.500,4.000,101.500
1.476,-1.000,55.500,4.000,103.500
1.477,-1.000,57.000,4.500,104.500
1.478,-1.000,58.000,5.500,105.000
1.479,-1.000,58.000,7.000,105.000
1.480,-1.000,58.000,8.000,104.500
1.481,-1.000,57.500,8.000,103.500
1.482,-1.000,56.500,7.500,102.500
1.483,-1.000,55.000,6.500,100.000
1.484,-1.000,53.000,5.000,97.500
1.485,-1.000,50.500,4.500,93.500
1.486,-1.500,47.000,4.500,89.500
1.487,-1.500,43.500,5.500,85.000
1.488,-1.500,39.500,6.000,80.500
1.489,-1.500,36.000,6.000,76.500
1.490,-1.000,33.000,6.000,73.000
1.491,-1.000,30.000,5.500,70.000
1.492,-1.000,27.000,4.500,67.000
1.493,-1.000,24.500,3.500,64.000
1.494,-1.000,22.000,2.000,61.500
1.495,-1.000,20.000,0.500,59.500
1.496,-1.500,18.000,-0.500,57.500
1.497,-1.500,16.000,-1.000,56.000
1.498,-1.500,14.000,0.000,54.000
1.499,-1.500,12.000,2.500,52.000
1.500,-1.500,10.000,4.500,49.500
1.501,-1.500,8.500,5.000,47.500
1.502,-1.500,7.000,3.500,45.500
1.503,-1.500,5.500,1.500,43.500
1.504,-1.500,4.500,-1.000,42.000
1.505,-1.500,3.500,-2.500,41.000
1.506,-1.500,3.000,-3.500,40.000
1.507,-1.500,2.000,-4.000,39.500
1.508,-1.500,1.000,-5.500,39.000
1.509,-1.500,0.000,-6.500,38.000
1.510,-1.500,-1.000,-7.000,37.000
1.511,-1.500,-2.000,-6.000,36.000
1.512,-1.500,-2.500,-3.500,34.500
1.513,-1.500,-3.500,-0.500,33.500
1.514,-1.500,-4.000,1.500,32.500
1.515,-1.500,-4.500,4.000,31.500
1.516,-1.000,-5.500,6.000,31.000
1.517,-1.000,-6.500,7.500,30.000
1.518,-1.000,-7.000,8.500,29.500
1.519,-1.000,-7.500,8.000,29.000
1.520,-1.000,-7.500,7.000,28.500
1.521,-1.000,-8.000,6.500,28.500
1.522,-1.000,-7.500,6.500,28.500
1.523,-1.000,-7.500,7.500,28.500
1.524,-1.000,-7.500,8.000,29.000
1.525,-1.000,-7.500,8.500,29.000
1.526,-1.000,-7.500,9.000,29.000
1.527,-1.000,-7.500,9.000,29.500
1.528,-1.000,-7.500,9.000,29.500
1.529,-1.000,-7.500,8.500,29.500
1.530,-1.500,-8.000,8.500,29.500
1.531,-1.500,-8.000,9.500,29.000
1.532,-1.500,-8.000,10.500,29.000
1.533,-1.500,-8.000,12.000,29.000
1.534,-1.500,-8.000,13.000,29.000
1.535,-1.500,-7.500,13.500,29.500
1.536,-1.500,-7.500,12.500,30.500
1.537,-1.500,-7.000,10.500,31.000
1.538,-1.500,-7.000,9.000,31.000
1.539,-1.500,-7.000,7.500,31.500
1.540,-1.500,-6.500,7.000,31.000
1.541,-1.500,-6.500,7.000,31.000
1.542,-1.500,-6.000,6.500,31.000
1.543,-1.500,-5.500,6.500,31.500
1.544,-1.500,-5.000,5.500,32.000
1.545,-1.500,-4.500,5.000,32.500
1.546,-1.500,-4.000,4.500,33.000
1.547,-1.500,-3.500,4.000,33.500
1.548,-1.500,-3.000,4.000,34.000
1.549,-1.500,-2.500,4.500,34.500
1.550,-1.500,-2.000,5.000,35.000
1.551,-1.500,-2.000,6.000,35.000
1.552,-1.000,-2.000,7.000,35.000
1.553,-1.000,-2.000,7.000,34.500
1.554,-1.000,-2.000,6.500,34.500
1.555,-1.000,-2.000,6.000,34.000
1.556,-1.000,-2.000,5.500,34.000
1.557,-1.000,-2.000,5.500,33.500
1.558,-1.000,-2.000,5.000,34.000
1.559,-1.000,-2.000,5.000,34.500
1.560,-1.000,-1.500,5.500,35.500
1.561,-1.000,-1.500,5.000,36.000
1.562,-1.000,-1.000,4.000,36.500
1.563,-1.000,-1.000,2.000,37.000
1.564,-1.000,-1.000,0.000,37.000
1.565,-1.000,-1.000,-2.000,37.000
1.566,-1.000,-1.000,-2.500,37.500
1.567,-0.500,-1.000,-3.000,37.500
1.568,-0.500,-1.000,-4.000,37.500
1.569,-0.500,-1.000,-6.000,38.000
1.570,-0.500,-1.500,-8.500,37.500
1.571,-1.000,-2.500,-11.000,36.500
1.572,-1.000,-4.000,-12.500,35.000
1.573,-1.000,-5.500,-13.500,32.000
1.574,-1.500,-8.000,-14.000,28.500
1.575,-1.500,-11.000,-14.000,24.500
1.576,-1.500,-14.000,-14.500,20.500
1.577,-1.500,-17.000,-15.000,17.000
1.578,-1.500,-19.000,-15.000,15.000
1.579,-1.500,-19.500,-14.500,14.000
1.580,-1.500,-19.500,-13.000,14.000
1.581,-1.500,-18.000,-10.500,16.000
1.582,-1.500,-15.500,-8.000,19.500
1.583,-1.500,-11.000,-6.500,24.500
1.584,-1.500,-6.000,-7.000,30.500
1.585,-1.500,0.000,-8.000,37.000
1.586,-1.500,5.500,-8.500,43.000
1.587,-1.500,10.500,-8.000,48.500
1.588,-1.500,14.500,-7.000,53.000
1.589,-1.500,17.500,-6.000,56.000
1.590,-1.500,20.000,-6.000,59.000
1.591,-1.500,22.500,-6.500,61.500
1.592,-1.500,24.000,-7.000,63.000
1.593,-1.500,26.000,-8.000,65.000
1.594,-1.500,27.000,-9.000,66.500
1.595,-1.500,28.500,-9.500,68.000
1.596,-1.500,30.000,-10.500,69.500
1.597,-1.500,31.000,-11.000,71.000
1.598,-1.500,32.500,-12.000,72.500
1.599,-1.500,33.500,-13.500,73.500
1.600,-1.500,35.000,-14.500,74.500
1.601,-1.500,36.000,-16.500,75.500
1.602,-1.000,37.000,-18.500,76.500
1.603,-1.000,38.000,-19.500,77.000
1.604,-1.000,38.500,-19.000,78.000
1.605,-1.000,39.000,-17.000,79.000
1.606,-0.500,39.500,-13.000,80.000
1.607,-0.500,40.500,-10.000,80.500
1.608,-0.500,41.000,-8.500,81.000
1.609,-0.500,41.500,-9.000,81.000
1.610,-0.500,41.500,-11.000,81.000
1.611,-0.500,41.500,-12.500,81.000
1.612,-1.000,41.500,-13.500,81.000
1.613,-1.000,41.000,-13.500,81.000
1.614,-1.000,41.000,-13.500,81.500
1.615,-1.000,40.500,-13.000,81.500
1.616,-1.000,40.500,-12.000,81.500
1.617,-1.000,40.500,-11.500,81.500
1.618,-1.000,41.000,-11.000,81.500
1.619,-1.000,41.500,-10.500,82.000
1.620,-1.000,42.000,-10.000,82.500
1.621,-1.000,42.500,-8.500,83.000
1.622,-1.000,42.500,-6.500,83.000
1.623,-1.000,43.000,-4.500,83.500
1.624,-1.000,43.000,-3.000,84.000
1.625,-1.000,43.500,-2.500,84.500
1.626,-1.500,44.000,-3.000,85.000
1.627,-1.500,45.000,-3.500,86.000
1.628,-1.500,45.500,-3.500,86.500
1.629,-1.500,45.500,-3.500,87.000
1.630,-1.500,46.000,-2.500,87.000
1.631,-1.000,46.000,-1.500,87.000
1.632,-1.000,46.000,-0.500,87.000
1.633,-1.000,46.000,0.500,87.500
1.634,-1.000,46.500,0.000,87.500
1.635,-1.000,46.500,-0.500,87.500
1.636,-1.000,46.500,-1.500,88.000
1.637,-1.000,46.500,-2.000,88.000
1.638,-1.500,46.500,-2.500,88.000
1.639,-1.500,46.500,-3.500,88.500
1.640,-1.500,46.500,-4.500,88.500
1.641,-2.000,47.000,-4.500,89.000
1.642,-1.500,47.500,-3.000,90.000
1.643,-1.500,48.500,-2.000,90.500
1.644,-1.500,49.000,-2.000,91.000
1.645,-1.000,49.000,-4.000,91.000
1.646,-1.000,49.500,-6.500,91.500
1.647,-1.000,49.500,-8.500,91.500
1.648,-1.000,49.500,-9.500,91.500
1.649,-1.000,49.500,-10.000,91.500
1.650,-1.000,49.500,-11.000,91.000
1.651,-1.000,49.500,-11.500,91.000
1.652,-1.000,49.000,-11.500,90.500
1.653,-1.000,48.500,-11.000,90.000
1.654,-1.000,48.500,-10.000,89.500
1.655,-1.000,48.000,-9.500,89.500
1.656,-1.000,48.500,-9.000,89.500
1.657,-1.000,48.500,-9.000,89.500
1.658,-1.000,49.000,-10.000,90.000
1.659,-1.000,49.500,-10.500,90.500
1.660,-1.000,50.000,-11.000,91.000
1.661,-1.000,50.500,-10.500,91.500
1.662,-1.000,51.000,-10.000,92.000
1.663,-1.000,51.500,-9.500,92.500
1.664,-1.000,52.000,-9.500,93.000
1.665,-1.000,52.000,-9.500,93.000
1.666,-1.000,52.000,-10.000,93.500
1.667,-1.500,52.000,-10.000,94.000
1.668,-1.500,52.500,-10.000,94.500
1.669,-1.500,53.000,-9.500,95.500
1.670,-1.500,53.500,-8.000,96.500
1.671,-1.500,53.500,-6.000,97.000
1.672,-1.500,53.500,-3.000,97.000
1.673,-1.500,53.500,0.000,96.500
1.674,-1.500,53.000,2.500,96.500
1.675,-1.500,53.000,3.500,96.500
1.676,-1.500,53.500,3.500,97.000
1.677,-1.500,53.500,2.500,97.500
1.678,-1.500,54.000,2.000,98.000
1.679,-1.500,54.000,1.500,98.000
1.680,-1.500,54.000,2.000,98.000
1.681,-1.500,54.000,2.500,98.000
1.682,-1.000,54.000,3.000,98.000
1.683,-1.000,53.500,3.000,97.500
1.684,-1.000,53.000,2.000,97.000
1.685,-1.500,52.500,0.500,96.500
1.686,-1.500,51.500,0.000,95.500
1.687,-1.500,50.500,1.000,94.500
1.688,-1.500,49.500,2.500,93.500
1.689,-1.500,49.000,3.500,93.000
1.690,-1.500,48.500,4.000,92.500
1.691,-1.500,48.000,4.000,92.500
1.692,-1.500,48.000,3.000,92.500
1.693,-1.000,48.000,2.500,92.500
1.694,-1.000,48.500,2.000,92.500
1.695,-1.000,48.500,3.000,93.000
1.696,-1.000,49.000,4.000,93.000
1.697,-1.000,49.500,5.000,93.500
1.698,-1.000,50.000,5.000,94.000
1.699,-1.000,50.500,4.500,94.500
1.700,-1.000,51.000,3.500,95.000
1.701,-1.000,51.000,2.000,95.500
1.702,-1.000,51.500,0.000,96.000
1.703,-1.000,51.500,-3.000,96.500
1.704,-1.000,52.000,-6.000,97.000
1.705,-1.000,52.000,-8.500,97.500
1.706,-1.000,52.500,-9.500,97.500
1.707,-1.000,52.500,-9.000,98.000
1.708,-1.000,53.000,-8.000,98.000
1.709,-1.000,53.000,-6.000,98.500
1.710,-1.000,53.000,-4.000,98.500
1.711,-1.000,53.000,-2.000,99.000
1.712,-1.000,53.000,0.000,99.000
1.713,-1.000,53.000,2.000,99.000
1.714,-1.000,52.500,3.500,99.000
1.715,-1.000,52.500,5.000,99.500
1.716,-1.000,53.000,5.500,100.500
1.717,-1.000,53.500,5.000,101.000
1.718,-1.000,54.000,3.500,101.500
1.719,-1.000,54.500,2.500,101.500
1.720,-1.000,54.500,1.500,101.500
1.721,-1.000,54.500,0.500,101.500
1.722,-1.000,55.000,-1.000,102.000
1.723,-1.500,55.000,-3.000,102.000
1.724,-1.500,55.500,-4.500,103.000
1.725,-1.500,55.500,-6.000,103.500
1.726,-1.500,56.000,-7.000,104.000
1.727,-1.500,56.000,-8.500,104.500
1.728,-1.500,56.500,-10.000,104.500
1.729,-1.500,56.000,-12.000,104.000
1.730,-1.500,56.000,-13.000,103.500
1.731,-1.500,55.500,-13.000,103.000
1.732,-1.500,55.500,-12.000,102.500
1.733,-1.500,55.000,-10.000,102.500
1.734,-1.500,55.000,-8.500,102.500
1.735,-1.500,54.500,-8.500,102.500
1.736,-1.500,54.000,-9.500,102.500
1.737,-1.500,53.500,-12.000,102.000
1.738,-1.500,53.000,-14.500,101.500
1.739,-1.500,52.500,-15.000,101.000
1.740,-1.500,52.500,-15.000,100.500
1.741,-1.500,52.000,-14.500,100.000
1.742,-1.500,52.000,-13.500,99.500
1.743,-1.500,51.500,-12.500,99.000
1.744,-1.500,51.500,-10.500,99.000
1.745,-1.000,51.500,-9.500,98.500
1.746,-1.000,51.500,-8.500,98.500
1.747,-1.000,52.000,-8.500,99.000
1.748,-1.000,52.500,-9.000,99.500
1.749,-1.000,53.000,-9.500,100.000
1.750,-1.000,53.500,-9.500,100.000
1.751,-1.000,54.000,-9.000,100.000
1.752,-1.000,54.000,-7.500,100.000
1.753,-1.000,53.500,-6.500,99.500
1.754,-1.000,53.500,-6.000,98.500
1.755,-1.000,53.000,-6.500,98.500
1.756,-1.000,52.500,-7.500,98.000
1.757,-1.000,52.500,-9.000,98.000
1.758,-1.000,52.500,-10.000,98.000
1.759,-1.000,52.500,-12.000,98.500
1.760,-1.500,53.000,-13.000,99.000
1.761,-1.500,53.000,-14.000,99.500
1.762,-1.500,53.000,-13.500,99.000
1.763,-1.500,52.500,-13.000,99.000
1.764,-1.500,51.500,-13.000,98.500
1.765,-1.500,51.000,-13.000,98.000
1.766,-1.500,50.500,-12.500,97.500
1.767,-1.500,50.000,-12.500,97.000
1.768,-1.500,49.500,-12.500,96.500
1.769,-1.500,49.500,-12.000,96.000
1.770,-1.500,49.000,-9.500,96.000
1.771,-1.500,49.000,-7.500,95.500
1.772,-1.500,48.500,-7.000,95.000
1.773,-1.500,47.500,-8.500,94.500
1.774,-1.500,47.000,-10.500,94.000
1.775,-1.500,46.500,-12.000,93.500
1.776,-1.500,46.000,-13.000,93.500
1.777,-1.500,45.500,-13.000,93.000
1.778,-1.500,45.500,-12.500,92.500
1.779,-1.500,45.000,-12.000,92.500
1.780,-1.500,45.000,-10.500,92.000
1.781,-1.500,45.000,-9.500,92.000
1.782,-1.000,45.500,-9.000,91.500
1.783,-1.000,45.500,-8.000,91.500
1.784,-1.000,45.500,-6.000,91.500
1.785,-1.000,45.500,-4.000,91.000
1.786,-1.000,45.000,-1.500,91.000
1.787,-1.000,45.000,1.500,91.000
1.788,-1.000,45.000,4.000,91.000
1.789,-1.000,45.000,5.000,91.000
1.790,-1.000,45.500,5.500,91.000
1.791,-1.000,45.500,5.000,91.000
1.792,-1.000,45.500,5.500,90.500
1.793,-1.000,45.500,6.500,90.500
1.794,-1.000,45.500,7.000,91.000
1.795,-1.000,45.500,7.000,91.000
1.796,-1.000,45.500,6.500,91.000
1.797,-1.000,46.000,5.500,91.500
1.798,-1.000,46.000,4.000,91.500
1.799,-1.000,46.500,2.500,92.000
1.800,-1.000,47.000,0.000,92.000
1.801,-1.000,47.000,-3.500,92.000
1.802,-1.000,47.000,-8.500,92.500
1.803,-1.500,47.500,-13.000,92.500
1.804,-1.500,47.500,-17.000,93.000
1.805,-1.500,47.500,-18.500,93.000
1.806,-1.500,48.000,-18.500,93.500
1.807,-1.000,48.000,-17.000,94.000
1.808,-1.000,48.500,-14.500,94.500
1.809,-1.000,48.500,-12.500,94.500
1.810,-1.000,49.000,-11.000,94.500
1.811,-1.500,49.000,-10.500,95.000
1.812,-1.500,49.000,-10.500,95.000
1.813,-1.500,49.000,-10.000,95.000
1.814,-1.500,49.000,-9.000,95.500
1.815,-1.500,49.000,-8.000,95.500
1.816,-1.000,49.000,-7.500,95.500
1.817,-1.000,49.000,-7.500,95.500
1.818,-1.000,49.000,-7.500,95.500
1.819,-1.000,48.500,-6.500,95.000
1.820,-1.000,48.500,-5.000,95.000
1.821,-1.000,48.000,-3.000,95.000
1.822,-1.000,48.000,-1.500,95.000
1.823,-1.000,48.000,0.500,95.500
1.824,-1.500,48.000,1.500,96.000
1.825,-1.500,48.000,1.500,95.500
1.826,-1.500,48.000,0.500,95.500
1.827,-1.500,47.500,-1.000,95.000
1.828,-1.500,47.500,-2.000,94.500
1.829,-1.000,47.500,-3.000,94.500
1.830,-1.000,47.500,-4.000,94.500
1.831,-1.000,48.000,-4.500,95.000
1.832,-1.000,48.000,-5.000,95.000
1.833,-1.000,48.000,-5.000,95.000
1.834,-1.000,48.000,-4.500,94.500
1.835,-1.500,47.500,-3.000,94.500
1.836,-1.500,47.000,-2.000,94.000
1.837,-1.500,46.500,-1.000,93.500
1.838,-1.500,46.500,-1.000,93.000
1.839,-1.500,46.500,-1.500,93.000
1.840,-1.500,46.500,-2.500,93.500
1.841,-1.500,46.500,-4.500,94.000
1.842,-1.500,46.500,-6.000,94.500
1.843,-1.500,47.000,-8.000,95.000
1.844,-2.000,47.000,-8.500,95.500
1.845,-2.000,47.000,-7.500,96.000
1.846,-2.000,47.000,-6.000,96.000
1.847,-2.000,47.500,-4.500,96.500
1.848,-2.000,48.000,-3.500,97.000
1.849,-1.500,48.500,-3.500,97.000
1.850,-1.500,48.500,-4.000,97.000
1.851,-1.500,49.000,-5.500,97.000
1.852,-1.500,48.500,-7.500,97.000
1.853,-1.000,48.500,-10.000,96.500
1.854,-1.000,48.500,-12.500,97.000
1.855,-1.000,48.500,-14.500,97.000
1.856,-1.000,49.000,-16.500,97.500
1.857,-1.000,49.000,-18.500,97.500
1.858,-1.000,49.000,-19.000,97.500
1.859,-1.000,49.000,-18.000,97.000
1.860,-1.000,49.000,-15.000,97.000
1.861,-1.000,49.000,-12.500,96.500
1.862,-1.000,49.000,-11.000,96.500
1.863,-1.000,49.000,-10.000,96.000
1.864,-1.000,48.500,-9.000,96.000
1.865,-1.000,48.500,-7.500,96.000
1.866,-1.000,48.500,-6.500,96.000
1.867,-1.000,48.500,-6.000,96.000
1.868,-1.000,48.000,-6.000,96.000
1.869,-1.000,48.000,-6.500,96.000
1.870,-1.000,48.000,-7.500,96.000
1.871,-1.000,48.000,-8.000,96.000
1.872,-1.000,48.000,-9.500,96.000
1.873,-1.500,48.000,-10.500,96.000
1.874,-1.500,48.000,-11.500,96.000
1.875,-1.500,48.000,-11.500,96.000
1.876,-1.500,48.000,-11.500,95.500
1.877,-1.500,48.000,-11.000,95.500
1.878,-1.500,47.500,-11.500,95.500
1.879,-1.500,47.500,-12.500,96.000
1.880,-1.500,47.500,-14.000,96.000
1.881,-1.500,48.000,-15.500,96.000
1.882,-1.500,48.000,-16.500,96.000
1.883,-1.500,48.000,-16.500,96.500
1.884,-1.500,48.500,-15.500,96.500
1.885,-1.500,48.500,-14.000,97.000
1.886,-1.500,49.000,-12.000,97.000
1.887,-1.500,49.500,-10.500,97.500
1.888,-1.500,49.500,-10.500,97.500
1.889,-1.500,49.500,-11.500,97.500
1.890,-1.500,50.000,-13.500,97.500
1.891,-1.500,50.000,-16.000,97.500
1.892,-1.500,50.500,-17.500,97.500
1.893,-1.500,50.500,-18.000,97.500
1.894,-1.500,50.500,-18.000,97.500
1.895,-1.500,50.500,-17.000,97.000
1.896,-1.000,50.000,-14.500,97.000
1.897,-1.000,50.500,-12.500,96.500
1.898,-1.000,50.500,-11.000,97.000
1.899,-1.000,50.500,-10.500,97.000
1.900,-1.000,50.500,-10.000,97.000
1.901,-1.000,50.500,-10.500,96.500
1.902,-1.000,50.500,-11.000,96.500
1.903,-1.000,50.500,-11.000,96.000
1.904,-1.000,50.000,-10.500,95.500
1.905,-0.500,49.500,-9.500,95.500
1.906,-0.500,49.500,-8.000,95.500
1.907,-0.500,49.000,-6.500,95.000
1.908,-0.500,48.500,-6.500,95.000
1.909,-0.500,48.500,-6.000,95.500
1.910,-0.500,48.500,-5.000,95.500
1.911,-1.000,48.500,-2.500,96.000
1.912,-1.000,49.000,0.500,96.500
1.913,-1.000,49.500,2.000,97.000
1.914,-1.000,50.000,2.500,97.500
1.915,-1.000,50.500,1.000,98.500
1.916,-0.500,51.000,-0.500,99.000
1.917,-0.500,51.500,-2.500,99.500
1.918,-0.500,52.000,-4.500,100.000
1.919,-1.000,52.500,-5.500,100.000
1.920,-1.000,53.000,-6.500,100.500
1.921,-1.500,53.000,-7.500,101.000
1.922,-1.500,53.500,-8.500,101.500
1.923,-2.000,53.500,-9.500,102.000
1.924,-2.000,54.000,-10.000,102.500
1.925,-2.000,54.000,-10.000,103.000
1.926,-2.000,54.000,-9.500,103.000
1.927,-2.000,54.000,-9.500,103.000
1.928,-1.500,53.500,-10.000,102.000
1.929,-1.500,52.500,-11.000,100.000
1.930,-1.500,50.500,-10.500,97.000
1.931,-1.500,47.500,-8.500,93.000
1.932,-1.500,44.500,-5.000,89.000
1.933,-1.000,41.500,-1.500,85.000
1.934,-1.500,39.000,2.000,81.500
1.935,-1.500,37.500,4.000,80.000
1.936,-1.500,37.000,4.500,79.500
1.937,-1.500,37.000,5.000,80.000
1.938,-1.500,37.500,5.500,81.000
1.939,-1.000,38.500,5.000,82.000
1.940,-1.000,39.500,3.500,83.500
1.941,-1.000,41.000,1.500,85.500
1.942,-1.000,42.000,-1.000,87.000
1.943,-1.000,43.000,-2.500,88.500
1.944,-1.000,44.000,-3.500,90.000
1.945,-1.500,45.000,-3.500,91.000
1.946,-1.500,46.000,-3.500,92.500
1.947,-1.000,47.000,-3.500,93.500
1.948,-1.000,47.500,-3.500,94.500
1.949,-1.000,48.500,-3.000,95.500
1.950,-0.500,48.500,-2.000,96.000
1.951,-0.500,48.500,-1.000,96.500
1.952,-0.500,48.500,-0.500,97.000
1.953,-1.000,48.500,-2.000,97.000
1.954,-1.000,48.500,-3.500,97.500
1.955,-1.000,49.000,-5.500,98.000
1.956,-1.000,49.000,-6.500,98.000
1.957,-1.500,49.000,-6.500,98.000
1.958,-1.500,49.000,-6.000,98.000
1.959,-1.500,49.000,-5.500,97.500
1.960,-1.000,48.500,-5.000,97.500
1.961,-1.000,48.500,-4.500,97.500
1.962,-1.000,48.500,-3.500,97.000
1.963,-1.000,48.500,-3.000,97.000
1.964,-1.000,48.000,-4.000,97.000
1.965,-1.000,48.000,-6.500,97.000
1.966,-1.500,48.000,-10.000,97.500
1.967,-1.500,48.000,-13.500,97.500
1.968,-1.500,48.500,-15.500,98.000
1.969,-1.500,48.500,-15.500,98.000
1.970,-1.500,48.500,-14.500,98.000
1.971,-1.500,48.500,-13.500,98.000
1.972,-1.500,48.500,-13.500,98.000
1.973,-1.500,49.000,-15.000,98.000
1.974,-1.500,49.000,-17.500,98.000
1.975,-1.500,49.000,-19.000,98.000
1.976,-1.500,48.500,-20.000,97.500
1.977,-1.000,48.500,-20.500,97.500
1.978,-1.000,48.500,-21.000,97.500
1.979,-1.500,48.500,-22.000,97.500
1.980,-1.500,48.500,-22.500,97.500
1.981,-1.500,48.500,-22.500,97.500
1.982,-1.500,48.500,-20.500,98.000
1.983,-1.500,48.500,-17.500,98.000
1.984,-1.500,48.500,-15.000,98.000
1.985,-1.500,48.500,-13.000,98.000
1.986,-1.500,48.500,-10.500,98.500
1.987,-1.500,48.500,-7.000,98.500
1.988,-1.000,48.500,-2.500,98.000
1.989,-1.000,48.000,2.000,98.000
1.990,-1.000,47.500,4.000,97.500
1.991,-1.000,47.000,4.000,96.500
1.992,-1.000,46.000,3.500,95.500
1.993,-1.000,45.000,3.000,94.500
1.994,-1.000,44.500,3.000,93.500
1.995,-1.000,44.000,3.500,93.000
1.996,-1.000,43.500,3.000,92.500
1.997,-1.000,43.500,2.000,92.500
1.998,-1.500,43.500,0.000,92.500
1.999,-1.500,43.500,-1.000,92.500
2.000,-1.500,43.500,-1.000,93.000
2.001,-1.500,43.500,1.000,93.000
2.002,-1.500,43.500,3.000,93.500
2.003,-1.500,43.500,5.000,93.500
2.004,-1.500,43.500,5.500,93.500
2.005,-1.000,44.000,4.500,94.000
2.006,-1.000,44.000,2.500,94.500
2.007,-1.000,44.500,0.000,95.000
2.008,-1.000,44.500,-2.500,95.000
2.009,-1.000,44.500,-4.000,95.500
2.010,-1.000,44.500,-5.000,95.000
2.011,-1.500,44.000,-5.000,95.000
2.012,-1.500,43.500,-6.000,94.500
2.013,-1.500,42.500,-6.500,94.500
2.014,-1.500,42.000,-6.500,94.500
2.015,-1.500,41.500,-6.500,94.500
2.016,-1.500,41.000,-6.000,94.500
2.017,-1.500,40.500,-5.500,94.000
2.018,-1.500,40.000,-5.000,93.000
2.019,-1.500,39.000,-5.500,92.500
2.020,-1.500,38.000,-7.000,92.000
2.021,-1.500,37.000,-8.000,91.500
2.022,-1.500,36.000,-9.000,91.500
2.023,-1.500,35.000,-10.000,91.500
2.024,-1.500,34.000,-10.000,91.000
2.025,-1.500,33.000,-9.500,91.000
2.026,-1.500,32.500,-9.000,91.000
2.027,-1.500,32.500,-9.500,91.500
2.028,-1.500,32.000,-10.500,91.500
2.029,-1.500,32.000,-11.500,92.000
2.030,-1.000,32.000,-12.500,92.500
2.031,-1.000,31.500,-13.000,92.500
2.032,-1.000,31.000,-13.500,92.500
2.033,-1.000,30.500,-14.500,92.000
2.034,-1.000,30.000,-15.500,92.000
2.035,-1.000,29.500,-16.500,91.500
2.036,-1.000,29.000,-16.500,91.000
2.037,-1.000,29.000,-16.500,91.000
2.038,-1.000,28.500,-15.500,91.000
2.039,-1.000,29.000,-15.000,91.500
2.040,-1.000,29.000,-13.500,91.500
2.041,-1.000,29.000,-12.000,92.000
2.042,-1.000,29.000,-10.500,92.000
2.043,-1.000,29.000,-8.500,92.500
2.044,-1.000,29.000,-7.000,92.500
2.045,-1.000,29.000,-5.500,92.500
2.046,-1.000,29.000,-3.500,92.500
2.047,-1.000,29.000,-2.000,92.500
2.048,-1.000,29.500,-1.000,92.500
2.049,-1.000,29.500,0.500,93.000
2.050,-1.000,30.000,1.500,93.500
2.051,-1.000,30.000,2.000,94.000
2.052,-1.000,30.500,1.500,94.500
2.053,-1.000,30.500,0.000,95.000
2.054,-1.500,31.000,-2.000,95.500
2.055,-1.500,31.000,-3.000,96.000
2.056,-1.500,31.500,-2.500,96.000
2.057,-1.500,31.000,-1.000,96.000
2.058,-1.500,31.000,1.000,96.000
2.059,-1.500,30.500,1.500,95.500
2.060,-1.500,30.000,2.500,95.500
2.061,-1.500,30.000,3.000,95.500
2.062,-2.000,30.000,3.000,95.500
2.063,-2.000,29.500,3.000,95.500
2.064,-1.500,29.000,2.500,95.000
2.065,-1.500,29.000,1.500,94.500
2.066,-1.500,28.500,0.000,94.000
2.067,-1.500,28.000,-1.500,93.500
2.068,-1.500,28.000,-3.500,93.000
2.069,-1.500,28.000,-5.000,93.000
2.070,-1.500,28.000,-6.500,93.000
2.071,-1.500,27.500,-7.500,93.000
2.072,-1.500,27.500,-8.000,93.000
2.073,-1.500,27.000,-8.500,92.500
2.074,-1.500,27.000,-10.000,92.000
2.075,-1.500,26.500,-11.000,92.000
2.076,-1.500,26.000,-11.500,91.500
2.077,-1.500,25.500,-10.500,91.000
2.078,-1.500,25.500,-8.500,91.000
2.079,-1.500,25.000,-6.500,91.000
2.080,-1.500,25.000,-4.500,91.000
2.081,-1.500,25.000,-3.000,91.000
2.082,-1.000,25.000,-1.500,91.000
2.083,-1.000,25.000,-1.000,91.000
2.084,-1.000,25.000,-1.000,90.500
2.085,-1.000,25.000,-2.000,90.500
2.086,-1.000,25.000,-3.500,90.500
2.087,-1.500,25.000,-5.000,90.500
2.088,-1.500,25.000,-5.500,90.500
2.089,-1.500,25.000,-5.000,90.500
2.090,-1.500,25.000,-3.500,90.500
2.091,-1.500,24.500,-3.000,90.500
2.092,-1.000,24.500,-4.000,90.500
2.093,-1.000,24.500,-5.500,90.500
2.094,-1.000,25.000,-8.000,90.500
2.095,-1.000,25.000,-11.000,91.000
2.096,-1.000,25.000,-13.500,91.000
2.097,-1.000,25.000,-15.500,91.500
2.098,-1.000,25.000,-16.500,91.500
2.099,-1.000,25.000,-16.500,92.000
2.100,-1.000,25.000,-16.000,92.000
2.101,-1.000,24.500,-15.500,92.000
2.102,-1.000,24.500,-15.000,92.000
2.103,-1.500,24.500,-14.500,92.000
2.104,-1.500,25.000,-14.000,92.000
2.105,-1.500,25.000,-13.000,92.000
2.106,-1.500,25.000,-12.000,92.000
2.107,-1.500,25.000,-11.000,92.000
2.108,-1.500,25.000,-11.000,92.000
2.109,-1.500,24.500,-11.500,91.500
2.110,-1.500,24.500,-12.500,91.000
2.111,-1.000,24.000,-14.000,91.000
2.112,-1.000,23.500,-15.500,91.000
2.113,-1.000,23.000,-17.500,90.500
2.114,-1.000,22.500,-19.000,90.500
2.115,-1.000,22.500,-19.000,90.000
2.116,-1.500,22.500,-18.000,89.500
2.117,-1.500,22.500,-16.500,89.500
2.118,-1.500,22.500,-14.500,89.000
2.119,-1.500,22.500,-13.000,89.000
2.120,-1.500,22.500,-12.000,88.500
2.121,-1.500,22.500,-12.000,88.500
2.122,-1.500,22.500,-12.000,88.500
2.123,-1.000,22.500,-12.000,88.500
2.124,-1.000,22.500,-11.500,89.000
2.125,-1.000,23.000,-11.000,89.000
2.126,-1.000,23.000,-11.000,89.000
2.127,-1.000,23.000,-11.000,89.000
2.128,-1.000,23.000,-11.000,89.500
2.129,-1.000,23.000,-11.000,89.500
2.130,-1.000,22.500,-10.500,89.500
2.131,-1.000,22.000,-9.000,89.000
2.132,-1.000,21.500,-8.500,89.000
2.133,-1.000,21.000,-9.000,88.500
2.134,-1.000,20.500,-10.500,87.500
2.135,-1.000,19.500,-12.000,86.500
2.136,-1.000,18.500,-13.000,85.500
2.137,-1.000,17.500,-12.500,84.000
2.138,-1.000,16.000,-11.500,83.000
2.139,-1.000,15.000,-10.000,81.500
2.140,-1.000,13.500,-9.500,80.000
2.141,-1.000,12.500,-9.000,78.500
2.142,-1.000,10.500,-8.500,77.000
2.143,-1.000,9.000,-9.000,75.000
2.144,-1.000,7.000,-10.500,72.500
2.145,-1.000,5.000,-13.000,70.500
2.146,-1.000,3.000,-15.500,68.000
2.147,-1.000,1.000,-17.500,66.000
2.148,-1.000,-0.500,-18.500,64.500
2.149,-1.000,-1.500,-18.000,64.000
2.150,-1.000,-2.000,-16.500,63.500
2.151,-1.000,-1.500,-13.500,64.000
2.152,-1.000,-1.500,-10.500,64.500
2.153,-1.000,-1.000,-8.500,65.000
2.154,-1.000,0.000,-8.000,66.000
2.155,-1.000,1.000,-8.500,66.500
2.156,-1.000,2.000,-10.000,68.000
2.157,-1.000,3.500,-11.500,69.500
2.158,-1.000,5.500,-12.500,71.500
2.159,-1.000,7.500,-13.000,74.500
2.160,-1.000,10.500,-14.500,78.000
2.161,-1.000,13.500,-16.500,82.000
2.162,-1.000,16.500,-18.500,86.000
2.163,-1.000,20.000,-19.500,90.000
2.164,-1.000,23.500,-19.500,94.000
2.165,-1.000,27.500,-18.500,99.000
2.166,-1.000,31.500,-18.500,103.500
2.167,-1.500,36.000,-18.000,109.000
2.168,-1.000,41.000,-18.000,114.000
2.169,-1.000,45.500,-18.500,119.000
2.170,-1.000,49.500,-19.000,123.500
2.171,-1.000,53.000,-20.000,127.500
2.172,-1.500,56.000,-21.000,131.000
2.173,-1.500,58.500,-22.000,134.500
2.174,-1.500,61.500,-22.500,137.500
2.175,-1.500,64.500,-22.500,141.000
2.176,-1.500,68.000,-22.000,144.500
2.177,-1.000,71.000,-22.000,147.500
2.178,-1.000,73.500,-22.000,150.500
2.179,-1.000,75.500,-21.500,152.500
2.180,-1.000,77.000,-21.500,154.000
2.181,-1.000,78.000,-21.500,154.500
2.182,-1.000,79.000,-21.500,155.000
2.183,-1.000,79.000,-21.500,155.000
2.184,-1.000,79.000,-21.500,154.000
2.185,-1.000,78.000,-21.500,152.500
2.186,-1.000,76.500,-21.000,150.000
2.187,-1.000,74.000,-21.000,147.000
2.188,-1.000,71.000,-20.000,143.500
2.189,-1.000,68.000,-18.500,140.000
2.190,-1.000,64.500,-17.000,136.000
2.191,-1.000,61.000,-16.000,131.500
2.192,-1.000,57.500,-16.500,128.000
2.193,-1.000,54.500,-17.000,124.000
2.194,-1.500,51.000,-17.000,121.000
2.195,-1.500,48.000,-17.500,118.000
2.196,-1.500,45.000,-17.500,115.000
2.197,-1.500,42.500,-18.000,112.000
2.198,-1.500,40.000,-19.000,109.000
2.199,-1.500,37.500,-19.500,106.000
2.200,-1.500,34.500,-20.500,103.500
2.201,-1.000,32.000,-21.500,100.500
2.202,-1.000,29.000,-22.500,97.500
2.203,-1.000,26.000,-23.000,94.500
2.204,-1.000,24.000,-22.000,92.500
2.205,-1.500,22.000,-20.500,90.000
2.206,-1.500,20.500,-19.000,88.500
2.207,-1.500,19.500,-17.500,87.500
2.208,-1.500,18.500,-15.500,86.500
2.209,-1.500,18.000,-14.000,85.500
2.210,-1.500,17.000,-13.500,85.000
2.211,-1.500,16.000,-14.500,84.500
2.212,-1.000,15.500,-16.000,83.500
2.213,-1.000,15.000,-17.500,83.000
2.214,-1.000,14.500,-19.000,82.500
2.215,-1.000,14.000,-20.500,81.500
2.216,-1.500,13.500,-22.000,81.000
2.217,-1.500,13.000,-23.000,80.000
2.218,-1.500,12.500,-23.000,79.000
2.219,-1.500,12.000,-22.000,78.500
2.220,-1.500,11.500,-20.000,78.000
2.221,-1.500,11.000,-17.500,78.000
2.222,-1.500,10.500,-16.000,77.500
2.223,-1.500,10.500,-16.500,77.000
2.224,-1.500,10.000,-19.000,77.000
2.225,-1.500,9.500,-21.500,76.500
2.226,-1.500,9.500,-22.500,76.500
2.227,-1.500,8.500,-21.500,76.000
2.228,-1.500,8.000,-19.500,76.000
2.229,-1.000,7.500,-17.000,75.500
2.230,-1.500,6.500,-14.500,75.000
2.231,-1.500,6.000,-12.500,74.500
2.232,-1.000,6.000,-11.500,74.000
2.233,-1.000,5.500,-10.500,73.500
2.234,-1.000,5.000,-10.500,73.000
2.235,-1.000,5.000,-10.500,72.500
2.236,-1.000,4.500,-11.000,72.500
2.237,-1.000,4.500,-12.500,72.500
2.238,-1.000,4.000,-15.000,72.000
2.239,-1.000,4.000,-17.000,72.000
2.240,-1.000,4.000,-17.500,71.500
2.241,-1.000,3.500,-17.000,71.500
2.242,-1.000,3.500,-16.000,71.000
2.243,-1.000,3.000,-15.500,71.000
2.244,-1.000,3.000,-15.000,70.500
2.245,-1.000,2.500,-14.000,70.000
2.246,-1.000,2.000,-13.500,69.500
2.247,-1.000,1.500,-12.500,68.500
2.248,-1.000,1.500,-11.000,68.000
2.249,-1.000,1.500,-10.000,68.000
2.250,-1.000,1.000,-9.500,67.500
2.251,-1.000,1.000,-10.000,67.500
2.252,-1.000,0.500,-11.000,67.500
2.253,-1.000,0.000,-13.000,67.500
2.254,-1.500,-0.500,-15.000,67.000
2.255,-1.500,-1.000,-16.500,66.500
2.256,-1.500,-1.500,-16.000,66.000
2.257,-1.500,-1.500,-14.000,66.000
2.258,-1.500,-2.000,-10.500,65.500
2.259,-1.500,-2.000,-7.000,65.000
2.260,-1.500,-2.000,-5.000,65.000
2.261,-1.500,-2.500,-3.500,65.000
2.262,-1.500,-2.500,-2.500,65.000
2.263,-1.500,-2.500,-1.500,65.500
2.264,-1.500,-2.500,-1.000,65.500
2.265,-1.500,-3.000,-1.000,65.000
2.266,-1.000,-3.500,-1.500,65.000
2.267,-1.500,-4.000,-2.500,64.500
2.268,-1.500,-4.500,-3.000,64.000
2.269,-1.500,-5.000,-3.000,63.500
2.270,-1.500,-5.500,-2.000,63.000
2.271,-1.500,-5.500,-1.000,63.000
2.272,-1.500,-5.500,-0.500,63.000
2.273,-1.500,-6.000,0.000,63.000
2.274,-1.500,-6.000,0.000,63.000
2.275,-1.500,-6.000,-1.000,63.500
2.276,-1.000,-5.500,-3.000,64.000
2.277,-1.000,-5.000,-5.500,64.500
2.278,-1.000,-4.500,-9.000,65.000
2.279,-1.000,-4.000,-12.000,66.000
2.280,-1.000,-3.500,-14.000,66.500
2.281,-1.000,-3.000,-16.000,67.000
2.282,-1.000,-3.000,-18.500,67.000
2.283,-1.500,-2.500,-20.500,67.000
2.284,-1.500,-2.500,-21.500,67.000
2.285,-1.500,-3.000,-22.000,66.000
2.286,-1.500,-4.000,-21.000,64.500
2.287,-1.500,-5.500,-20.000,62.000
2.288,-1.500,-8.000,-19.000,59.000
2.289,-1.500,-11.000,-18.000,55.000
2.290,-1.500,-14.000,-17.000,51.000
2.291,-1.500,-17.000,-16.000,47.000
2.292,-1.500,-19.000,-14.000,44.500
2.293,-1.500,-21.000,-13.000,43.000
2.294,-1.500,-21.500,-12.500,42.000
2.295,-1.000,-22.000,-13.500,42.500
2.296,-1.500,-21.500,-15.500,43.500
2.297,-1.500,-20.500,-18.000,44.500
2.298,-1.500,-19.000,-19.500,46.500
2.299,-1.500,-17.500,-21.000,48.500
2.300,-1.000,-16.000,-21.500,50.500
2.301,-1.000,-14.000,-22.000,53.000
2.302,-1.000,-12.500,-22.000,54.500
2.303,-1.000,-11.500,-21.500,56.000
2.304,-1.000,-11.000,-19.500,57.000
2.305,-1.000,-10.500,-17.000,57.500
2.306,-1.000,-10.000,-15.000,58.000
2.307,-1.000,-10.000,-13.500,58.500
2.308,-0.500,-9.500,-13.500,59.000
2.309,-0.500,-9.000,-14.500,59.500
2.310,-1.000,-8.500,-15.500,59.500
2.311,-1.000,-8.500,-15.500,60.000
2.312,-1.000,-8.500,-15.500,60.000
2.313,-1.000,-8.500,-15.500,60.000
2.314,-1.000,-8.500,-16.000,60.000
2.315,-1.000,-8.500,-17.500,60.500
2.316,-1.500,-8.000,-19.000,60.500
2.317,-1.000,-8.000,-20.000,61.000
2.318,-1.000,-8.000,-21.000,61.000
2.319,-1.000,-8.000,-21.000,61.000
2.320,-1.000,-8.500,-20.500,60.500
2.321,-1.500,-8.500,-19.500,60.500
2.322,-1.500,-8.500,-18.500,60.500
2.323,-2.000,-8.500,-17.000,60.500
2.324,-2.000,-8.500,-15.500,60.500
2.325,-1.500,-8.500,-14.500,60.500
2.326,-1.500,-8.500,-13.500,60.500
2.327,-1.500,-8.500,-13.000,60.500
2.328,-1.500,-9.000,-13.500,60.500
2.329,-1.000,-9.000,-14.000,60.000
2.330,-1.500,-9.500,-14.500,59.500
2.331,-1.500,-10.000,-15.000,59.000
2.332,-1.500,-10.500,-15.000,58.500
2.333,-2.000,-11.000,-15.000,58.500
2.334,-2.000,-10.500,-14.500,58.500
2.335,-2.000,-10.000,-14.500,59.000
2.336,-1.500,-8.000,-14.000,61.000
2.337,-1.500,-5.500,-14.500,63.500
2.338,-1.500,-2.500,-15.500,67.000
2.339,-1.500,1.000,-17.000,70.500
2.340,-1.500,4.000,-19.000,73.000
2.341,-1.500,6.500,-20.500,75.500
2.342,-1.500,8.500,-20.500,77.000
2.343,-1.500,10.000,-19.500,78.000
2.344,-1.500,11.000,-18.500,79.000
2.345,-1.500,12.000,-17.500,80.000
2.346,-1.500,13.000,-17.000,81.000
2.347,-1.000,14.000,-16.500,82.000
2.348,-1.000,14.500,-16.500,82.500
2.349,-1.500,15.500,-17.000,83.500
2.350,-1.500,16.000,-18.000,84.000
2.351,-1.500,16.500,-18.500,84.500
2.352,-1.500,17.000,-18.500,85.000
2.353,-1.500,17.000,-18.500,85.000
2.354,-1.500,17.500,-18.000,85.500
2.355,-1.500,17.500,-18.000,85.500
2.356,-1.500,17.500,-18.000,85.500
2.357,-1.500,18.000,-18.000,85.500
2.358,-1.000,18.000,-18.000,86.000
2.359,-1.000,18.500,-17.000,86.000
2.360,-1.000,18.500,-16.000,86.500
2.361,-1.000,18.500,-15.000,87.000
2.362,-1.000,19.000,-14.500,87.500
2.363,-1.000,19.000,-14.500,88.000
2.364,-1.000,19.500,-14.500,88.500
2.365,-1.000,20.000,-13.500,88.500
2.366,-1.000,20.500,-11.500,89.000
2.367,-1.000,21.000,-9.500,89.500
2.368,-1.000,21.000,-8.500,89.500
2.369,-1.000,21.500,-8.000,90.000
2.370,-1.000,22.000,-8.500,90.500
2.371,-1.000,22.500,-8.500,90.500
2.372,-1.000,22.500,-9.000,91.000
2.373,-1.000,23.000,-9.000,91.000
2.374,-1.000,23.000,-10.000,91.500
2.375,-1.000,23.500,-11.000,92.000
2.376,-1.000,24.000,-13.000,92.500
2.377,-1.000,24.000,-14.000,93.000
2.378,-1.000,24.500,-14.000,93.000
2.379,-1.000,24.500,-13.000,93.500
2.380,-1.000,24.500,-12.500,93.500
2.381,-1.500,24.500,-12.500,94.000
2.382,-1.500,24.500,-14.000,94.000
2.383,-1.500,25.000,-16.500,94.500
2.384,-1.500,25.000,-20.000,94.500
2.385,-1.500,25.500,-22.000,94.500
2.386,-1.500,25.500,-23.000,94.500
2.387,-1.000,26.000,-22.000,94.500
2.388,-1.000,26.500,-20.000,95.000
2.389,-1.000,27.000,-18.000,95.000
2.390,-1.000,27.500,-16.000,95.500
2.391,-1.000,27.500,-15.000,96.000
2.392,-1.000,27.500,-14.500,96.000
2.393,-1.000,27.500,-15.000,96.500
2.394,-1.000,28.000,-16.000,96.500
2.395,-1.000,28.000,-17.000,97.000
2.396,-1.000,28.500,-18.000,97.500
2.397,-1.500,29.000,-18.000,97.500
2.398,-1.500,29.000,-17.000,97.500
2.399,-1.500,29.000,-14.500,97.500
2.400,-1.500,29.000,-11.500,97.500
2.401,-1.500,29.000,-8.000,97.500
2.402,-1.500,29.000,-5.500,97.500
2.403,-1.500,29.000,-4.500,97.500
2.404,-1.500,29.500,-5.000,97.500
2.405,-1.000,29.500,-7.500,97.500
2.406,-1.000,29.500,-10.500,98.000
2.407,-1.000,29.500,-12.500,98.000
2.408,-1.000,29.500,-12.500,98.000
2.409,-1.000,29.500,-12.500,97.500
2.410,-1.000,29.500,-12.000,97.000
2.411,-0.500,29.000,-11.000,97.000
2.412,-0.500,29.500,-9.500,97.500
2.413,-0.500,29.500,-7.500,97.500
2.414,-0.500,30.000,-5.000,98.000
2.415,-0.500,30.000,-4.000,98.500
2.416,-0.500,30.000,-3.500,99.000
2.417,-1.000,30.500,-4.000,99.000
2.418,-1.000,30.500,-5.500,99.000
2.419,-1.000,30.500,-6.500,99.000
2.420,-1.500,30.000,-6.500,99.000
2.421,-1.000,30.000,-6.500,99.000
2.422,-1.000,30.500,-6.000,99.000
2.423,-1.000,30.500,-5.000,99.500
2.424,-1.000,31.000,-5.500,100.500
2.425,-1.000,31.500,-6.500,101.000
2.426,-1.000,31.500,-8.500,101.500
2.427,-1.500,31.500,-10.000,101.500
2.428,-1.500,31.500,-11.000,101.500
2.429,-1.500,31.500,-12.000,102.000
2.430,-1.500,32.000,-14.000,102.000
2.431,-1.500,32.000,-15.000,102.500
2.432,-1.500,32.500,-15.000,102.500
2.433,-1.500,32.500,-13.500,103.000
2.434,-1.500,33.000,-12.000,103.000
2.435,-1.500,33.000,-10.000,103.000
2.436,-1.500,33.000,-9.000,102.500
2.437,-1.500,32.500,-8.500,102.500
2.438,-1.500,32.500,-8.500,102.000
2.439,-1.500,32.000,-8.500,102.000
2.440,-1.500,31.500,-8.500,101.500
2.441,-1.000,31.500,-7.500,101.500
2.442,-1.000,31.500,-6.500,101.000
2.443,-1.000,31.500,-5.500,101.000
2.444,-1.500,32.000,-4.500,101.000
2.445,-1.500,32.000,-3.500,101.000
2.446,-1.500,32.000,-3.000,101.000
2.447,-1.500,31.500,-2.500,100.500
2.448,-1.500,31.500,-2.000,100.500
2.449,-1.500,31.500,-2.500,100.000
2.450,-1.500,31.000,-2.500,99.500
2.451,-1.500,30.500,-2.500,99.000
2.452,-1.500,30.000,-2.000,98.500
2.453,-1.000,29.000,-1.500,98.000
2.454,-1.000,28.500,-1.000,97.500
2.455,-1.000,28.000,-2.000,97.000
2.456,-1.000,27.500,-4.000,96.500
2.457,-1.000,27.000,-6.000,96.500
2.458,-1.000,26.500,-6.500,96.000
2.459,-1.000,26.500,-6.000,96.000
2.460,-1.000,26.500,-5.000,95.500
2.461,-1.000,26.000,-4.500,95.500
2.462,-1.000,26.000,-4.500,95.000
2.463,-1.000,25.500,-5.000,95.000
2.464,-1.500,25.500,-6.000,95.000
2.465,-1.500,25.500,-8.000,95.500
2.466,-1.500,25.500,-10.000,96.000
2.467,-1.500,25.500,-12.000,96.500
2.468,-1.000,26.000,-12.500,96.500
2.469,-1.000,26.000,-12.000,96.500
2.470,-1.500,26.000,-10.000,96.000
2.471,-1.500,26.000,-9.000,95.500
2.472,-1.500,25.500,-10.000,95.500
2.473,-1.500,25.000,-12.000,95.000
2.474,-1.500,24.500,-14.500,94.500
2.475,-1.500,24.500,-15.500,94.000
2.476,-1.500,24.000,-14.500,93.500
2.477,-1.000,24.000,-12.000,93.000
2.478,-1.000,23.500,-9.000,93.000
2.479,-1.000,23.500,-7.500,93.000
2.480,-1.500,23.500,-6.000,93.000
2.481,-1.500,23.500,-5.500,93.000
2.482,-1.500,23.500,-4.500,93.000
2.483,-1.500,23.000,-4.500,92.500
2.484,-1.500,23.000,-5.000,92.000
2.485,-1.500,22.500,-6.500,91.000
2.486,-1.500,22.000,-7.500,90.500
2.487,-1.500,21.500,-8.000,90.000
2.488,-1.500,21.500,-8.000,90.000
2.489,-1.500,21.500,-8.000,89.500
2.490,-1.500,21.500,-8.000,89.500
2.491,-1.500,21.000,-8.500,89.000
2.492,-1.000,20.500,-8.500,88.500
2.493,-1.000,20.000,-8.000,87.500
2.494,-1.000,19.500,-7.000,87.000
2.495,-0.500,19.500,-6.000,86.500
2.496,-1.000,19.000,-5.500,86.500
2.497,-1.000,19.000,-5.000,86.500
2.498,-1.000,19.000,-6.000,86.500
2.499,-1.000,19.000,-8.500,86.500
2.500,-1.000,19.000,-11.000,86.500
2.501,-1.000,19.000,-13.500,86.500
2.502,-1.000,19.000,-16.000,86.500
2.503,-1.000,19.000,-18.500,86.000
2.504,-1.000,19.500,-21.000,86.000
2.505,-0.500,19.500,-21.500,86.500
2.506,-0.500,19.500,-20.000,86.500
2.507,-0.500,19.500,-17.500,87.000
2.508,-1.000,19.500,-14.000,87.500
2.509,-1.000,20.000,-10.500,88.000
2.510,-1.000,20.000,-8.500,88.000
2.511,-1.000,20.000,-8.000,88.000
2.512,-1.500,20.000,-8.000,88.000
2.513,-1.500,19.500,-8.500,88.000
2.514,-1.500,19.500,-9.500,87.500
2.515,-1.500,19.500,-10.500,88.000
2.516,-1.500,19.500,-11.000,88.000
2.517,-1.500,20.000,-10.500,88.500
2.518,-1.500,20.000,-10.000,88.500
2.519,-1.500,20.000,-9.500,88.500
2.520,-1.500,20.000,-9.500,88.000
2.521,-1.500,20.000,-9.500,88.000
2.522,-1.500,20.000,-9.000,87.500
2.523,-1.500,20.000,-8.500,87.500
2.524,-1.500,20.000,-8.000,87.500
2.525,-2.000,20.000,-8.000,87.500
2.526,-2.000,19.500,-7.500,87.500
2.527,-2.000,19.500,-6.500,87.000
2.528,-2.000,19.000,-5.000,86.500
2.529,-2.000,19.000,-3.500,86.000
2.530,-1.500,18.500,-3.000,85.500
2.531,-1.500,18.000,-3.500,85.000
2.532,-1.500,18.000,-5.500,84.500
2.533,-1.500,17.500,-7.000,84.500
2.534,-1.500,17.000,-8.500,84.000
2.535,-1.500,17.000,-10.000,84.000
2.536,-1.500,17.000,-11.000,84.000
2.537,-1.500,17.000,-12.000,84.000
2.538,-1.000,17.000,-13.000,83.500
2.539,-1.000,17.500,-13.500,83.500
2.540,-1.000,17.500,-13.500,83.500
2.541,-1.000,17.000,-13.500,83.500
2.542,-1.000,17.000,-14.500,83.500
2.543,-1.000,17.000,-15.500,83.000
2.544,-1.000,17.000,-17.000,83.000
2.545,-1.000,17.000,-18.000,83.000
2.546,-1.000,17.000,-17.000,82.500
2.547,-1.000,17.000,-15.000,82.500
2.548,-1.000,17.000,-12.000,82.500
2.549,-1.000,17.000,-10.000,83.000
2.550,-1.000,17.000,-9.000,83.000
2.551,-1.000,17.000,-8.000,83.500
2.552,-1.000,17.000,-6.500,84.000
2.553,-1.000,17.000,-5.000,84.000
2.554,-1.000,17.000,-4.500,84.000
2.555,-1.500,17.000,-5.000,84.500
2.556,-1.500,16.500,-6.500,84.000
2.557,-1.500,16.000,-7.000,83.500
2.558,-1.500,16.000,-6.500,83.500
2.559,-1.500,16.000,-5.000,83.000
2.560,-1.500,16.000,-5.000,83.000
2.561,-1.500,16.000,-5.500,83.000
2.562,-1.500,16.000,-6.000,83.000
2.563,-1.500,16.000,-6.500,83.000
2.564,-1.500,16.000,-6.500,83.500
2.565,-1.500,16.000,-6.500,83.500
2.566,-1.500,16.000,-6.500,83.500
2.567,-1.500,16.000,-7.000,84.000
2.568,-1.500,16.000,-7.500,84.000
2.569,-1.500,16.500,-7.000,84.500
2.570,-1.500,17.000,-7.000,84.500
2.571,-1.500,17.500,-6.500,84.500
2.572,-1.500,17.500,-6.000,84.500
2.573,-1.500,17.500,-6.000,84.000
2.574,-1.000,17.500,-6.000,84.000
2.575,-1.000,17.500,-6.000,83.500
2.576,-1.000,17.000,-6.500,83.500
2.577,-1.000,17.000,-7.000,83.500
2.578,-1.000,16.500,-7.500,83.000
2.579,-1.500,16.000,-6.500,82.500
2.580,-1.500,15.500,-4.500,82.500
2.581,-1.000,15.500,-2.500,82.500
2.582,-1.000,15.000,-0.500,82.000
2.583,-1.000,15.000,0.500,82.000
2.584,-0.500,15.000,0.500,82.000
2.585,-0.500,15.500,0.500,82.000
2.586,-1.000,15.500,0.500,82.000
2.587,-1.000,16.000,0.500,82.500
2.588,-1.000,16.000,-0.500,82.500
2.589,-1.000,16.000,-1.000,82.500
2.590,-1.000,16.000,-1.500,82.500
2.591,-1.000,16.000,-2.000,82.500
2.592,-1.000,16.000,-2.000,82.000
2.593,-1.000,15.500,-3.000,82.000
2.594,-1.000,15.500,-4.000,82.000
2.595,-1.000,15.000,-5.500,82.000
2.596,-1.500,15.000,-6.500,82.500
2.597,-1.500,15.000,-7.000,82.500
2.598,-1.500,15.000,-6.500,82.500
2.599,-1.500,15.000,-5.500,82.500
2.600,-1.500,15.000,-4.500,82.500
2.601,-1.500,14.500,-3.500,82.500
2.602,-1.500,14.500,-2.500,82.500
2.603,-1.500,15.000,-2.000,82.500
2.604,-1.500,15.000,-3.000,83.000
2.605,-1.000,15.500,-5.000,83.500
2.606,-1.000,16.000,-8.000,83.500
2.607,-1.000,16.000,-10.000,83.500
2.608,-1.500,16.000,-11.000,83.500
2.609,-1.500,16.500,-10.500,84.000
2.610,-1.500,16.500,-10.500,84.000
2.611,-1.500,16.500,-10.500,84.000
2.612,-1.500,17.000,-11.500,84.000
2.613,-1.500,17.000,-12.500,83.500
2.614,-1.500,16.500,-12.500,83.000
2.615,-1.500,16.500,-11.500,82.000
2.616,-1.500,16.000,-9.000,82.000
2.617,-1.000,16.000,-6.000,81.500
2.618,-1.000,16.000,-4.000,81.500
2.619,-1.000,16.000,-2.000,81.000
2.620,-1.000,15.500,-0.500,81.000
2.621,-1.000,15.500,1.500,80.500
2.622,-0.500,15.500,3.000,80.500
2.623,-1.000,15.500,4.000,80.500
2.624,-1.000,16.000,4.500,80.500
2.625,-1.000,16.000,4.000,80.500
2.626,-1.000,16.500,3.500,81.000
2.627,-1.000,17.000,2.500,81.000
2.628,-1.000,17.500,1.500,81.500
2.629,-1.000,18.000,1.500,82.500
2.630,-1.000,19.000,0.500,83.500
2.631,-1.000,19.500,-1.000,84.000
2.632,-1.000,20.000,-2.500,84.500
2.633,-1.000,20.000,-3.000,85.000
2.634,-1.000,20.000,-3.000,85.000
2.635,-1.000,20.500,-2.500,85.000
2.636,-1.000,20.500,-2.000,85.000
2.637,-1.000,21.000,-1.500,85.000
2.638,-1.000,21.000,-2.000,85.500
2.639,-1.000,21.000,-3.500,85.500
2.640,-1.000,21.000,-6.000,85.500
2.641,-1.000,21.000,-7.500,85.500
2.642,-1.500,20.500,-8.000,85.000
2.643,-1.500,19.000,-7.000,84.000
2.644,-1.500,17.500,-6.000,81.500
2.645,-1.500,15.000,-5.000,78.500
2.646,-1.500,12.500,-4.500,75.000
2.647,-1.500,9.500,-4.000,71.500
2.648,-1.000,7.500,-5.000,68.500
2.649,-1.000,5.500,-6.000,66.500
2.650,-1.000,4.500,-6.500,65.500
2.651,-1.000,4.500,-5.500,65.000
2.652,-1.000,4.000,-3.500,64.500
2.653,-1.000,4.000,-1.000,64.500
2.654,-1.000,4.000,0.500,65.000
2.655,-1.000,4.000,1.000,66.000
2.656,-1.000,4.500,1.000,67.000
2.657,-1.000,5.500,0.000,68.000
2.658,-1.000,6.000,-1.000,69.500
2.659,-1.500,7.500,-2.000,71.000
2.660,-1.500,8.500,-3.500,72.500
2.661,-1.500,9.500,-5.500,73.500
2.662,-1.500,11.000,-7.000,75.000
2.663,-1.500,12.000,-7.500,76.500
2.664,-1.500,13.000,-6.500,77.500
2.665,-1.500,14.000,-5.000,78.500
2.666,-1.500,15.000,-4.500,79.500
2.667,-1.000,16.500,-5.000,80.500
2.668,-1.500,17.500,-7.000,81.500
2.669,-1.500,18.000,-9.000,82.000
2.670,-1.500,18.000,-10.500,82.000
2.671,-1.500,18.000,-10.500,81.500
2.672,-1.500,17.500,-10.500,81.000
2.673,-1.500,17.500,-10.500,80.500
2.674,-1.500,17.500,-9.500,80.500
2.675,-1.000,17.000,-9.000,80.500
2.676,-1.000,17.000,-9.000,80.500
2.677,-1.000,17.000,-9.000,80.000
2.678,-1.000,16.500,-9.000,80.000
2.679,-1.000,16.500,-8.000,79.500
2.680,-1.000,16.000,-6.500,79.000
2.681,-1.000,16.000,-4.500,79.000
2.682,-1.500,16.000,-3.500,79.000
2.683,-1.500,16.000,-3.000,79.000
2.684,-1.500,16.000,-3.500,79.500
2.685,-1.500,16.000,-4.500,79.500
2.686,-1.500,16.000,-5.500,79.500
2.687,-1.500,15.500,-6.000,79.000
2.688,-1.500,15.500,-5.500,78.500
2.689,-1.500,15.500,-4.500,78.500
2.690,-1.500,15.000,-2.500,78.000
2.691,-1.500,15.000,-1.000,78.000
2.692,-1.500,15.000,-0.500,78.000
2.693,-1.500,15.000,-1.500,78.000
2.694,-1.500,15.000,-3.000,78.000
2.695,-1.500,15.000,-4.000,78.000
2.696,-1.500,14.500,-4.500,78.000
2.697,-1.500,15.000,-4.500,78.000
2.698,-1.500,15.000,-4.500,78.000
2.699,-1.500,15.000,-4.000,78.500
2.700,-1.500,15.000,-4.000,78.500
2.701,-1.500,15.000,-5.000,78.500
2.702,-1.000,15.500,-6.500,78.500
2.703,-1.000,15.500,-7.500,78.500
2.704,-1.000,15.500,-7.500,78.500
2.705,-1.000,15.500,-7.000,78.000
2.706,-1.000,15.000,-5.500,78.000
2.707,-1.000,14.500,-3.500,77.500
2.708,-1.000,14.000,-2.000,77.000
2.709,-1.000,14.000,0.000,77.000
2.710,-1.000,13.500,1.000,76.500
2.711,-1.000,13.500,2.000,76.000
2.712,-1.000,13.000,2.500,76.000
2.713,-1.000,12.500,3.500,75.500
2.714,-1.000,12.000,3.500,75.000
2.715,-1.000,11.500,3.000,74.500
2.716,-1.000,11.500,0.500,74.000
2.717,-1.000,11.500,-3.500,73.500
2.718,-1.000,11.000,-8.500,73.000
2.719,-1.000,11.000,-12.500,73.000
2.720,-1.000,11.000,-15.500,73.000
2.721,-1.000,11.500,-16.500,73.500
2.722,-1.000,12.000,-16.000,73.500
2.723,-1.500,12.000,-15.500,74.000
2.724,-1.500,12.500,-14.500,74.500
2.725,-1.500,13.000,-14.000,75.000
2.726,-1.500,13.000,-13.500,75.000
2.727,-1.500,13.000,-12.500,75.000
2.728,-1.000,13.000,-11.000,75.000
2.729,-1.000,13.500,-9.000,74.500
2.730,-1.000,13.500,-7.000,74.500
2.731,-1.500,13.500,-5.500,74.500
2.732,-1.500,13.000,-5.000,74.500
2.733,-1.500,13.000,-5.500,74.500
2.734,-1.500,12.500,-7.500,74.000
2.735,-1.500,12.500,-10.000,74.000
2.736,-1.500,12.000,-13.000,73.500
2.737,-1.500,12.000,-14.500,73.500
2.738,-1.500,11.500,-15.000,73.000
2.739,-1.500,11.500,-14.500,72.500
2.740,-1.500,12.000,-14.000,72.500
2.741,-1.500,12.000,-12.500,72.000
2.742,-1.500,12.500,-11.500,72.500
2.743,-1.500,13.000,-10.500,72.500
2.744,-1.500,13.000,-10.000,73.000
2.745,-1.500,13.500,-10.000,73.500
2.746,-1.500,13.500,-10.000,74.000
2.747,-1.500,14.000,-10.000,74.500
2.748,-1.500,14.000,-10.500,75.000
2.749,-1.500,14.000,-10.500,75.000
2.750,-1.500,14.000,-10.500,75.000
2.751,-1.500,14.000,-10.000,75.000
2.752,-1.000,13.500,-9.000,74.500
2.753,-1.000,13.500,-8.000,74.500
2.754,-1.000,14.000,-7.000,74.500
2.755,-1.000,14.000,-6.500,74.500
2.756,-1.000,14.500,-6.000,74.500
2.757,-1.000,14.500,-6.000,74.500
2.758,-1.000,15.000,-5.000,74.500
2.759,-1.000,15.000,-4.000,74.000
2.760,-1.000,15.000,-3.000,74.000
2.761,-0.500,14.500,-2.500,73.500
2.762,-0.500,14.500,-2.000,73.500
2.763,-0.500,14.500,-1.500,73.500
2.764,-0.500,14.500,-1.000,73.500
2.765,-0.500,14.500,-1.000,73.500
2.766,-0.500,14.500,-1.500,73.500
2.767,-0.500,14.500,-1.500,74.000
2.768,-1.000,14.500,-1.000,74.000
2.769,-1.000,15.000,0.000,74.500
2.770,-1.000,15.000,1.000,74.500
2.771,-1.500,15.000,2.000,75.000
2.772,-1.500,15.000,2.000,75.000
2.773,-1.500,15.500,0.500,75.500
2.774,-1.500,15.500,-1.000,76.000
2.775,-1.500,15.500,-3.000,76.000
2.776,-1.500,15.500,-4.500,76.000
2.777,-1.500,15.000,-6.000,75.500
2.778,-1.500,15.000,-6.000,75.000
2.779,-1.500,14.500,-6.000,74.500
2.780,-1.500,14.000,-6.000,74.000
2.781,-1.500,13.500,-6.000,74.000
2.782,-1.000,13.500,-6.500,74.000
2.783,-1.000,13.500,-7.500,74.000
2.784,-1.000,13.500,-8.500,74.000
2.785,-1.000,14.000,-10.500,74.500
2.786,-1.000,14.000,-12.000,74.500
2.787,-1.500,14.000,-14.000,75.000
2.788,-1.500,14.500,-15.000,75.000
2.789,-1.500,14.500,-16.000,75.000
2.790,-1.500,14.500,-17.000,74.500
2.791,-1.000,14.000,-18.000,74.500
2.792,-1.000,14.000,-19.000,74.000
2.793,-1.000,14.500,-20.000,74.000
2.794,-1.000,14.500,-20.500,74.000
2.795,-1.000,14.500,-19.500,74.000
2.796,-1.000,14.500,-17.500,74.000
2.797,-1.500,14.500,-15.000,74.500
2.798,-1.500,14.500,-13.000,74.500
2.799,-1.500,14.500,-11.000,74.500
2.800,-1.500,14.500,-10.000,74.500
2.801,-1.000,14.500,-9.000,74.500
2.802,-1.000,14.500,-8.500,74.500
2.803,-1.000,14.500,-8.500,74.500
2.804,-1.000,15.000,-8.500,74.500
2.805,-1.000,15.000,-9.000,74.500
2.806,-1.000,15.000,-8.500,74.500
2.807,-1.000,15.000,-8.000,74.500
2.808,-1.000,15.000,-7.000,74.000
2.809,-1.000,14.500,-6.000,74.000
2.810,-1.000,14.500,-6.500,74.000
2.811,-1.000,14.500,-7.500,74.000
2.812,-1.000,14.500,-8.500,74.000
2.813,-1.000,14.000,-9.500,74.000
2.814,-1.000,14.000,-10.000,73.500
2.815,-1.000,14.000,-10.000,73.000
2.816,-1.500,14.000,-10.500,73.000
2.817,-1.000,14.000,-11.000,73.000
2.818,-1.000,14.000,-12.500,73.500
2.819,-1.000,14.500,-15.000,74.000
2.820,-1.000,14.500,-17.500,74.500
2.821,-1.000,15.000,-19.500,75.000
2.822,-1.500,15.000,-20.500,75.500
2.823,-1.500,15.000,-21.500,75.500
2.824,-1.500,15.000,-21.500,75.000
2.825,-1.500,15.000,-21.000,75.000
2.826,-1.500,14.500,-20.000,74.500
2.827,-1.500,14.500,-18.500,74.000
2.828,-1.500,14.500,-17.500,74.000
2.829,-1.500,15.000,-16.000,74.500
2.830,-1.500,15.000,-14.500,74.500
2.831,-1.500,15.000,-13.000,74.500
2.832,-1.500,15.000,-11.000,74.500
2.833,-1.500,14.500,-10.000,74.500
2.834,-1.500,14.500,-9.000,74.000
2.835,-1.500,14.000,-9.500,73.500
2.836,-1.500,14.000,-10.500,73.000
2.837,-1.500,13.500,-12.000,72.500
2.838,-1.500,13.000,-13.500,72.000
2.839,-1.000,13.000,-14.500,72.000
2.840,-1.000,12.500,-14.500,71.500
2.841,-1.000,12.500,-14.000,71.500
2.842,-1.000,12.000,-12.500,71.000
2.843,-1.000,11.500,-12.000,71.000
2.844,-1.000,11.500,-12.000,70.500
2.845,-1.000,11.500,-12.000,70.500
2.846,-1.000,11.000,-12.500,70.000
2.847,-1.000,11.000,-13.000,70.000
2.848,-1.000,11.000,-14.000,70.000
2.849,-1.000,10.500,-14.500,69.500
2.850,-1.000,10.500,-14.500,69.500
2.851,-1.000,10.000,-14.500,69.000
2.852,-1.000,9.500,-14.500,68.500
2.853,-1.000,8.500,-14.500,68.000
2.854,-1.000,7.500,-14.000,67.000
2.855,-1.000,6.500,-13.500,66.000
2.856,-1.000,5.000,-12.500,64.000
2.857,-1.000,3.500,-11.500,62.000
2.858,-1.000,1.500,-11.500,59.500
2.859,-1.000,-0.500,-12.500,57.000
2.860,-1.000,-3.000,-13.000,55.000
2.861,-1.500,-4.500,-12.500,53.000
2.862,-1.500,-6.000,-11.000,52.000
2.863,-1.500,-7.000,-9.500,51.000
2.864,-1.500,-7.500,-8.500,50.500
2.865,-1.500,-7.500,-8.500,50.000
2.866,-1.500,-7.500,-9.000,50.000
2.867,-1.500,-7.500,-10.000,50.000
2.868,-1.500,-7.500,-10.000,50.500
2.869,-1.500,-7.000,-10.500,51.000
2.870,-1.500,-6.500,-10.500,52.500
2.871,-1.500,-5.500,-11.500,53.500
2.872,-1.500,-4.500,-12.000,55.000
2.873,-1.500,-3.500,-12.500,57.000
2.874,-1.500,-1.500,-12.500,59.000
2.875,-1.500,0.500,-12.500,61.500
2.876,-1.500,3.000,-12.500,64.500
2.877,-1.000,6.500,-13.500,68.500
2.878,-1.000,10.000,-14.500,72.500
2.879,-1.500,13.500,-16.000,77.000
2.880,-1.500,18.000,-18.500,82.000
2.881,-1.500,22.000,-20.500,87.000
2.882,-1.500,27.000,-22.500,92.500
2.883,-1.500,31.500,-23.500,98.000
2.884,-1.500,36.000,-23.000,103.500
2.885,-1.500,40.500,-22.000,108.500
2.886,-1.500,44.500,-20.000,113.000
2.887,-1.500,48.500,-17.500,117.000
2.888,-1.500,52.500,-15.000,121.000
2.889,-1.000,56.000,-12.500,125.000
2.890,-1.000,59.500,-10.500,129.000
2.891,-1.000,63.500,-8.500,133.000
2.892,-1.000,67.500,-7.000,137.000
2.893,-1.000,71.500,-5.500,141.000
2.894,-1.000,74.500,-5.000,144.000
2.895,-1.000,77.000,-5.000,146.000
2.896,-1.000,78.500,-5.500,147.000
2.897,-0.500,79.000,-6.000,147.500
2.898,-0.500,79.500,-6.000,147.500
2.899,-0.500,79.500,-6.000,147.000
2.900,-0.500,78.500,-6.500,145.500
2.901,-0.500,77.000,-7.500,143.500
2.902,-0.500,74.500,-8.500,140.500
2.903,-1.000,72.000,-9.500,137.000
2.904,-1.000,69.000,-11.000,133.000
2.905,-1.500,66.000,-12.500,129.500
2.906,-1.500,63.000,-14.500,126.000
2.907,-2.000,59.500,-16.500,122.500
2.908,-2.000,56.500,-18.000,119.500
2.909,-2.000,53.500,-17.500,116.000
2.910,-1.500,50.000,-16.000,112.500
2.911,-1.500,47.000,-14.000,108.500
2.912,-1.500,43.500,-12.000,105.000
2.913,-1.000,40.500,-11.000,101.500
2.914,-1.000,38.000,-11.000,98.500
2.915,-1.000,35.500,-12.000,95.500
2.916,-1.000,33.000,-12.500,93.500
2.917,-1.000,30.500,-13.000,91.000
2.918,-1.000,28.000,-13.500,88.500
2.919,-1.000,26.000,-13.500,86.000
2.920,-1.000,24.000,-13.000,84.500
2.921,-1.000,22.500,-12.000,83.000
2.922,-1.000,21.500,-12.000,81.500
2.923,-1.000,20.500,-12.500,80.500
2.924,-1.000,19.500,-13.000,79.000
2.925,-1.000,18.500,-13.000,78.000
2.926,-1.000,18.000,-12.500,77.500
2.927,-1.000,18.000,-13.000,77.000
2.928,-1.000,17.500,-13.500,76.500
2.929,-1.000,17.000,-14.500,76.500
2.930,-1.000,17.000,-15.500,76.500
2.931,-1.000,16.500,-16.000,76.000
2.932,-1.000,16.500,-17.000,76.000
2.933,-1.000,16.000,-17.000,75.500
2.934,-1.000,15.500,-17.500,75.000
2.935,-1.500,15.000,-17.000,75.000
2.936,-1.500,15.000,-15.500,74.500
2.937,-1.500,15.000,-13.500,74.500
2.938,-1.500,15.000,-12.500,74.000
2.939,-1.000,15.000,-12.500,74.000
2.940,-1.000,15.000,-14.500,73.500
2.941,-1.000,15.000,-17.500,73.500
2.942,-1.000,15.000,-20.500,73.000
2.943,-1.000,15.000,-23.000,73.000
2.944,-1.000,15.000,-23.500,73.500
2.945,-0.500,15.000,-23.000,73.500
2.946,-0.500,15.000,-22.000,73.500
2.947,-1.000,15.000,-21.000,74.000
2.948,-1.000,15.500,-20.500,74.000
2.949,-1.000,15.500,-20.500,74.000
2.950,-1.000,15.500,-20.000,74.500
2.951,-1.000,16.000,-19.000,74.500
2.952,-1.000,16.000,-18.500,74.500
2.953,-1.000,16.000,-19.000,75.000
2.954,-1.000,16.000,-19.500,75.000
2.955,-1.000,15.500,-20.000,74.500
2.956,-1.500,15.000,-21.000,74.500
2.957,-1.500,15.000,-22.500,74.000
2.958,-1.500,14.500,-23.500,74.000
2.959,-1.500,14.500,-24.000,73.500
2.960,-1.000,14.000,-23.500,73.500
2.961,-1.000,14.000,-22.000,73.000
2.962,-1.000,13.500,-19.500,73.000
2.963,-1.000,13.500,-17.500,73.000
2.964,-1.000,13.500,-15.500,72.500
2.965,-1.000,13.500,-14.500,72.000
2.966,-1.000,13.000,-14.500,72.000
2.967,-1.500,13.000,-14.500,72.000
2.968,-1.500,13.000,-15.000,72.000
2.969,-1.500,13.000,-15.500,72.000
2.970,-1.500,13.000,-15.000,72.000
2.971,-1.500,13.000,-14.000,72.000
2.972,-1.000,13.000,-13.000,72.000
2.973,-1.000,13.500,-11.500,72.000
2.974,-1.000,13.500,-10.000,72.500
2.975,-1.000,14.000,-8.500,73.000
2.976,-1.000,14.000,-7.500,73.000
2.977,-1.000,14.500,-7.000,73.500
2.978,-1.000,14.500,-7.000,73.500
2.979,-1.000,15.000,-6.500,74.000
2.980,-1.000,15.500,-6.500,74.500
2.981,-1.000,16.500,-7.000,75.500
2.982,-1.000,17.500,-7.500,76.000
2.983,-1.500,18.500,-8.000,77.000
2.984,-1.500,19.000,-8.500,78.000
2.985,-1.500,20.000,-8.500,79.000
2.986,-1.000,20.500,-8.500,80.000
2.987,-1.000,21.000,-9.000,81.000
2.988,-1.000,21.500,-9.000,81.500
2.989,-0.500,22.000,-8.500,82.500
2.990,-1.000,22.500,-7.000,83.000
2.991,-1.000,23.000,-6.000,83.500
2.992,-1.000,23.500,-5.000,84.500
2.993,-1.500,23.500,-4.500,85.000
2.994,-1.500,24.000,-4.000,85.000
2.995,-1.000,24.000,-4.000,85.000
2.996,-1.000,23.500,-3.000,84.500
2.997,-1.000,23.000,-2.000,84.000
2.998,-1.000,22.000,-1.500,83.000
2.999,-1.000,20.500,-2.000,81.000
3.000,-1.000,19.000,-3.000,78.500
3.001,-1.000,17.000,-4.000,75.500
3.002,-1.000,14.000,-5.000,72.000
3.003,-1.000,11.500,-6.000,68.500
3.004,-1.000,9.000,-6.500,65.500
3.005,-1.000,7.500,-6.500,63.500
3.006,-1.000,7.000,-5.000,62.500
3.007,-1.000,7.000,-3.500,62.500
3.008,-1.000,7.500,-2.000,63.000
3.009,-1.000,8.500,-0.500,64.500
3.010,-1.000,9.500,0.500,65.500
3.011,-1.000,10.500,1.500,67.000
3.012,-1.000,11.000,2.500,68.000
3.013,-1.000,12.000,4.000,69.500
3.014,-1.000,13.500,5.000,71.000
3.015,-1.000,14.500,5.000,73.000
3.016,-1.000,16.000,3.500,74.500
3.017,-1.000,16.500,1.500,76.000
3.018,-1.000,17.500,-0.500,77.000
3.019,-1.500,18.000,-2.000,77.500
3.020,-1.500,18.500,-2.500,78.000
3.021,-1.500,19.000,-2.500,78.500
3.022,-1.500,19.500,-2.500,79.000
3.023,-1.500,20.000,-2.000,79.500
3.024,-1.500,20.500,-2.500,80.500
3.025,-1.000,21.000,-3.000,81.000
3.026,-1.000,21.500,-2.500,81.500
3.027,-1.000,22.000,-1.000,82.000
3.028,-1.000,22.500,0.000,82.500
3.029,-1.000,23.000,0.500,83.000
3.030,-1.000,23.000,1.000,83.000
3.031,-1.000,23.000,0.500,83.000
3.032,-1.000,23.000,0.000,83.000
3.033,-1.000,23.000,-0.500,83.000
3.034,-1.500,22.500,-1.500,82.500
3.035,-1.500,22.000,-3.000,82.500
3.036,-1.000,22.000,-5.500,82.500
3.037,-1.000,22.000,-8.500,82.500
3.038,-1.000,22.000,-11.000,83.000
3.039,-1.500,22.000,-13.000,83.000
3.040,-1.500,22.500,-14.500,83.500
3.041,-1.500,23.000,-15.000,84.000
3.042,-1.500,23.500,-15.500,84.000
3.043,-1.500,23.500,-16.500,84.000
3.044,-1.500,23.000,-17.500,83.500
3.045,-1.500,22.500,-18.000,83.000
3.046,-1.500,22.500,-17.000,83.000
3.047,-1.500,23.000,-15.000,83.500
3.048,-1.500,23.500,-12.500,84.000
3.049,-1.000,23.500,-10.500,84.500
3.050,-1.000,24.000,-9.500,84.500
3.051,-1.000,24.000,-9.000,84.500
3.052,-1.000,24.000,-9.500,84.000
3.053,-1.000,23.500,-10.000,84.000
3.054,-1.000,23.500,-10.000,83.500
3.055,-1.000,23.500,-10.500,83.500
3.056,-1.000,23.500,-10.500,83.500
3.057,-1.000,23.500,-10.500,83.000
3.058,-1.000,23.000,-11.500,83.000
3.059,-1.000,23.000,-11.500,83.000
3.060,-1.000,23.000,-11.500,83.000
3.061,-1.000,23.500,-10.500,83.000
3.062,-1.000,23.500,-9.000,83.500
3.063,-1.000,24.000,-8.500,83.500
3.064,-1.000,24.500,-8.000,84.000
3.065,-1.000,25.000,-8.000,84.500
3.066,-1.000,25.000,-8.000,84.500
3.067,-1.000,25.000,-8.000,85.000
3.068,-1.000,25.000,-9.000,85.000
3.069,-1.000,25.000,-10.500,84.500
3.070,-1.000,24.500,-12.000,84.500
3.071,-1.000,24.500,-12.500,84.500
3.072,-1.000,24.500,-12.500,84.000
3.073,-1.000,24.500,-11.500,84.000
3.074,-1.000,24.500,-11.000,84.500
3.075,-1.000,24.500,-11.000,84.500
3.076,-1.500,24.500,-12.000,85.000
3.077,-1.500,24.500,-13.000,85.000
3.078,-1.500,24.500,-13.000,85.500
3.079,-1.500,24.500,-12.000,85.500
3.080,-1.500,24.500,-10.500,86.000
3.081,-1.500,25.000,-8.500,86.000
3.082,-1.500,25.000,-8.500,86.500
3.083,-1.500,25.500,-9.000,86.500
3.084,-1.500,25.500,-10.000,86.500
3.085,-1.000,25.500,-11.000,86.500
3.086,-1.500,25.500,-11.500,86.500
3.087,-1.500,25.500,-12.000,86.500
3.088,-1.500,25.500,-12.500,87.000
3.089,-1.500,25.500,-13.000,87.000
3.090,-1.000,26.000,-13.000,87.000
3.091,-1.000,26.000,-12.500,86.500
3.092,-1.000,26.000,-11.000,86.000
3.093,-1.000,26.000,-10.500,86.000
3.094,-1.000,26.500,-9.500,86.000
3.095,-1.000,26.500,-9.000,86.000
3.096,-1.500,27.000,-8.000,86.000
3.097,-1.500,27.000,-6.500,86.000
3.098,-1.500,26.500,-5.500,85.500
3.099,-1.500,26.500,-5.000,85.000
3.100,-1.500,26.500,-6.000,85.000
3.101,-1.500,26.500,-7.500,85.000
3.102,-1.500,26.500,-9.500,85.000
3.103,-1.500,26.500,-10.500,85.500
3.104,-1.500,26.500,-11.000,85.500
3.105,-1.500,26.500,-10.500,85.500
3.106,-1.500,26.500,-9.000,86.000
3.107,-1.500,26.500,-7.500,86.000
3.108,-1.500,26.000,-6.500,85.500
3.109,-1.500,25.500,-6.000,85.500
3.110,-1.500,25.500,-7.000,85.500
3.111,-1.000,25.000,-9.000,85.500
3.112,-1.000,25.000,-10.500,85.500
3.113,-1.000,25.000,-12.000,85.500
3.114,-1.000,25.500,-12.500,85.500
3.115,-1.000,25.500,-12.500,85.500
3.116,-1.000,26.000,-12.000,86.000
3.117,-1.000,26.500,-10.500,86.500
3.118,-1.500,27.500,-9.000,87.500
3.119,-1.500,28.000,-7.000,88.000
3.120,-1.500,29.000,-6.000,88.500
3.121,-2.000,30.000,-6.500,89.000
3.122,-2.000,30.500,-8.500,90.000
3.123,-1.500,31.500,-12.000,91.000
3.124,-1.500,32.500,-16.000,92.000
3.125,-1.500,33.000,-18.000,92.500
3.126,-1.500,33.500,-18.500,92.500
3.127,-1.500,33.500,-17.500,92.500
3.128,-1.500,33.000,-16.000,92.000
3.129,-1.500,33.000,-15.000,92.000
3.130,-1.500,33.000,-14.500,92.000
3.131,-1.500,33.500,-14.000,92.000
3.132,-1.500,33.500,-14.000,92.500
3.133,-1.000,34.000,-13.500,92.500
3.134,-1.000,34.000,-12.500,92.000
3.135,-1.000,34.000,-11.000,92.000
3.136,-1.000,34.000,-10.500,92.000
3.137,-1.500,34.000,-10.500,92.000
3.138,-1.500,34.000,-11.000,92.500
3.139,-1.500,34.000,-12.500,92.500
3.140,-1.500,34.000,-14.000,92.500
3.141,-1.500,34.000,-15.000,92.500
3.142,-1.000,34.500,-16.000,93.000
3.143,-1.000,34.500,-16.500,93.500
3.144,-1.000,35.000,-16.000,93.500
3.145,-1.000,35.000,-15.000,94.000
3.146,-1.000,35.000,-13.500,94.500
3.147,-1.000,35.500,-11.500,94.500
3.148,-1.500,35.500,-9.500,95.000
3.149,-1.500,36.000,-8.000,95.000
3.150,-1.500,36.500,-6.500,95.500
3.151,-1.000,36.500,-5.500,96.000
3.152,-1.000,37.000,-5.500,96.000
3.153,-1.000,37.000,-5.500,96.000
3.154,-1.000,37.000,-6.000,96.000
3.155,-1.000,37.000,-6.000,96.000
3.156,-1.000,37.000,-5.000,96.000
3.157,-1.000,37.000,-4.000,96.000
3.158,-1.000,37.000,-2.500,96.000
3.159,-1.500,37.000,-2.500,95.500
3.160,-1.500,36.500,-3.000,95.500
3.161,-1.500,36.500,-4.500,95.000
3.162,-1.500,36.500,-6.500,95.000
3.163,-1.500,36.500,-7.500,95.000
3.164,-1.500,36.500,-8.500,95.000
3.165,-1.500,36.500,-8.500,95.500
3.166,-1.500,37.000,-8.500,95.500
3.167,-1.500,37.000,-9.000,95.500
3.168,-1.500,37.000,-9.000,95.000
3.169,-1.500,36.500,-9.000,95.000
3.170,-1.500,36.000,-8.000,94.500
3.171,-1.500,35.500,-7.000,94.000
3.172,-1.500,34.500,-6.000,93.500
3.173,-1.500,34.000,-5.000,92.500
3.174,-1.500,34.000,-4.000,92.000
3.175,-1.500,33.500,-3.500,91.500
3.176,-1.500,33.000,-3.000,91.000
3.177,-1.500,33.000,-2.500,90.500
3.178,-1.500,32.500,-2.000,90.500
3.179,-1.500,32.500,-1.000,90.000
3.180,-1.500,32.500,0.000,90.000
3.181,-1.500,32.500,1.500,90.000
3.182,-1.500,32.500,2.000,89.500
3.183,-1.500,32.500,1.500,89.500
3.184,-1.500,32.500,-1.500,89.500
3.185,-1.000,32.000,-5.500,89.500
3.186,-1.000,31.500,-9.500,89.000
3.187,-1.000,31.500,-13.000,88.500
3.188,-1.000,31.000,-14.500,88.000
3.189,-1.000,30.500,-15.000,87.000
3.190,-1.000,30.000,-14.500,86.500
3.191,-1.000,29.000,-13.000,85.500
3.192,-1.000,28.500,-11.000,85.000
3.193,-1.500,28.000,-8.500,84.500
3.194,-1.500,27.500,-6.000,84.000
3.195,-1.000,26.500,-4.500,83.000
3.196,-1.000,26.000,-4.500,82.000
3.197,-1.000,25.000,-5.000,81.500
3.198,-1.000,24.500,-6.000,80.500
3.199,-1.000,24.000,-7.000,80.000
3.200,-0.500,23.500,-7.000,80.000
3.201,-0.500,23.000,-7.000,79.500
3.202,-0.500,22.500,-6.500,79.500
3.203,-1.000,22.500,-5.000,79.500
3.204,-1.000,22.500,-3.500,79.500
3.205,-1.000,23.000,-2.500,79.500
3.206,-1.000,23.500,-2.500,80.000
3.207,-1.000,24.000,-3.500,80.500
3.208,-1.000,24.500,-5.000,81.000
3.209,-1.000,25.000,-7.000,82.000
3.210,-1.000,26.000,-9.000,82.500
3.211,-1.500,26.000,-11.000,82.500
3.212,-1.500,26.000,-12.000,83.000
3.213,-1.500,26.000,-13.000,83.000
3.214,-1.500,25.500,-13.500,83.000
3.215,-1.500,25.500,-14.000,83.000
3.216,-1.500,25.500,-15.000,83.000
3.217,-2.000,25.500,-16.000,83.500
3.218,-2.000,26.000,-17.500,83.500
3.219,-2.000,25.500,-18.500,83.500
3.220,-2.000,25.500,-18.000,83.500
3.221,-2.000,25.500,-16.500,83.500
3.222,-2.000,25.500,-14.000,83.500
3.223,-1.500,25.500,-12.000,83.500
3.224,-1.500,25.500,-11.000,84.000
3.225,-1.500,25.500,-11.000,84.000
3.226,-1.500,26.000,-11.500,84.500
3.227,-1.000,26.000,-12.000,84.500
3.228,-1.000,26.500,-13.000,85.000
3.229,-1.500,26.500,-14.500,85.000
3.230,-1.500,26.500,-16.000,84.500
3.231,-1.500,26.000,-17.000,84.500
3.232,-1.500,25.500,-17.500,84.000
3.233,-1.000,25.500,-17.000,83.500
3.234,-1.000,25.000,-16.000,83.500
3.235,-1.000,25.000,-14.500,84.000
3.236,-1.000,25.000,-12.000,84.000
3.237,-1.000,25.000,-10.500,84.000
3.238,-1.500,25.000,-10.000,83.500
3.239,-1.500,25.000,-11.500,83.500
3.240,-1.500,25.000,-13.500,83.500
3.241,-1.000,25.500,-15.500,83.500
3.242,-1.000,25.500,-17.000,84.000
3.243,-1.000,26.000,-17.500,84.000
3.244,-1.000,26.500,-18.000,84.500
3.245,-1.000,26.500,-17.500,84.500
3.246,-1.000,26.500,-16.000,84.500
3.247,-1.000,26.500,-13.500,84.500
3.248,-1.000,26.500,-10.500,85.000
3.249,-1.000,26.500,-8.500,85.000
3.250,-1.500,26.500,-7.000,85.000
3.251,-1.500,26.500,-7.000,85.500
3.252,-1.500,26.500,-7.000,85.500
3.253,-1.500,26.500,-7.500,85.500
3.254,-1.500,26.500,-7.500,85.500
3.255,-1.500,26.500,-7.500,85.000
3.256,-1.500,26.000,-7.000,84.500
3.257,-1.500,25.500,-6.000,84.000
3.258,-1.500,25.500,-5.500,83.500
3.259,-1.500,25.000,-4.500,83.000
3.260,-1.500,24.500,-3.000,83.000
3.261,-1.500,24.500,-2.000,82.500
3.262,-1.500,24.500,-0.500,83.000
3.263,-1.500,25.000,0.000,83.500
3.264,-1.500,25.000,0.000,83.500
3.265,-1.500,25.500,-1.000,84.000
3.266,-1.500,25.500,-1.500,84.000
3.267,-1.500,25.500,-1.500,84.000
3.268,-1.500,25.500,-0.500,84.000
3.269,-1.000,25.500,1.000,83.500
3.270,-1.000,25.500,1.000,83.500
3.271,-1.000,25.500,0.500,82.500
3.272,-1.000,25.500,-1.500,82.000
3.273,-1.000,25.500,-3.000,82.000
3.274,-1.000,25.500,-3.500,81.500
3.275,-0.500,25.500,-3.000,81.500
3.276,-1.000,25.500,-2.500,81.500
3.277,-1.000,26.000,-2.500,82.000
3.278,-1.000,26.000,-3.000,82.000
3.279,-1.500,26.000,-4.500,82.000
3.280,-1.500,25.500,-6.000,82.000
3.281,-1.500,25.500,-6.500,82.000
3.282,-1.500,25.500,-6.500,82.000
3.283,-1.500,25.500,-6.000,82.000
3.284,-1.000,25.500,-5.000,82.000
3.285,-1.000,25.500,-4.000,82.000
3.286,-1.000,25.500,-4.000,82.000
3.287,-1.000,25.500,-4.000,82.500
3.288,-1.000,26.000,-4.500,83.000
3.289,-1.000,26.000,-5.500,83.500
3.290,-1.000,26.500,-6.000,84.000
3.291,-1.000,26.500,-6.500,84.500
3.292,-1.500,26.500,-6.500,84.500
3.293,-1.500,26.500,-5.000,84.000
3.294,-1.500,26.500,-4.000,84.000
3.295,-1.500,27.000,-2.000,84.000
3.296,-1.500,27.000,-0.500,84.000
3.297,-1.500,27.500,1.000,84.000
3.298,-1.500,27.500,1.500,84.000
3.299,-1.500,27.500,0.500,83.500
3.300,-1.500,27.000,-2.000,83.000
3.301,-1.500,27.000,-5.000,82.500
3.302,-1.500,27.500,-7.500,82.500
3.303,-1.500,27.500,-8.500,82.500
3.304,-1.500,27.500,-8.000,82.500
3.305,-1.500,27.500,-7.000,82.000
3.306,-1.500,27.500,-5.500,81.500
3.307,-1.500,27.000,-5.000,81.500
3.308,-1.500,27.000,-5.500,81.000
3.309,-1.500,27.000,-6.500,81.000
3.310,-1.500,27.000,-7.000,81.000
3.311,-1.500,27.000,-6.500,81.500
3.312,-1.500,27.500,-5.500,81.500
3.313,-1.500,27.500,-3.500,81.500
3.314,-1.000,27.500,-2.500,81.500
3.315,-1.000,27.500,-1.500,81.500
3.316,-1.000,27.500,-1.500,81.500
3.317,-1.000,27.500,-1.500,81.500
3.318,-1.000,27.500,-1.500,81.500
3.319,-1.000,28.000,-2.500,81.500
3.320,-1.000,28.000,-3.500,81.500
3.321,-1.500,28.500,-3.500,81.500
3.322,-1.500,28.500,-3.000,82.000
3.323,-1.500,29.000,-3.000,82.500
3.324,-1.500,29.000,-3.500,82.500
3.325,-1.500,29.000,-3.500,82.500
3.326,-1.500,29.000,-3.000,82.500
3.327,-1.500,29.000,-1.500,83.000
3.328,-1.500,29.500,-0.500,83.000
3.329,-1.500,29.500,0.000,83.500
3.330,-1.000,30.000,-0.500,83.500
3.331,-1.000,30.000,-1.500,84.000
3.332,-1.000,30.000,-3.000,84.000
3.333,-1.000,30.000,-3.500,83.500
3.334,-1.000,29.500,-3.500,83.500
3.335,-1.000,30.000,-3.000,83.500
3.336,-1.000,30.000,-3.000,83.500
3.337,-1.000,30.500,-3.500,84.000
3.338,-1.000,31.000,-4.000,85.000
3.339,-1.000,32.000,-4.500,85.500
3.340,-1.000,32.500,-4.000,86.000
3.341,-1.000,33.000,-3.500,86.000
3.342,-1.000,33.500,-2.500,86.500
3.343,-1.500,34.000,-2.500,87.000
3.344,-1.500,34.500,-2.500,87.500
3.345,-1.500,35.000,-2.500,87.500
3.346,-1.500,35.000,-1.000,88.000
3.347,-1.500,35.500,1.000,88.500
3.348,-1.500,36.000,3.000,88.500
3.349,-1.500,36.000,3.000,88.500
3.350,-1.500,36.000,2.000,88.500
3.351,-1.500,36.000,0.000,88.000
3.352,-1.500,35.500,-2.000,87.500
3.353,-1.500,35.500,-4.000,87.000
3.354,-1.000,34.500,-5.000,85.500
3.355,-1.000,33.500,-5.000,84.000
3.356,-1.000,31.500,-5.000,81.000
3.357,-1.000,29.000,-4.000,77.500
3.358,-1.000,26.000,-3.500,73.500
3.359,-1.500,23.000,-3.000,69.500
3.360,-1.500,20.500,-3.000,66.500
3.361,-1.500,19.000,-2.500,64.500
3.362,-1.500,18.000,-2.000,64.000
3.363,-1.500,18.500,-2.000,64.500
3.364,-1.500,19.500,-2.500,66.000
3.365,-1.500,20.500,-3.500,67.500
3.366,-1.500,22.000,-4.500,69.500
3.367,-1.500,23.500,-5.500,71.500
3.368,-1.500,25.000,-5.500,73.500
3.369,-1.500,26.500,-5.000,75.500
3.370,-1.500,28.000,-3.500,77.500
3.371,-1.500,29.500,-2.000,79.500
3.372,-1.500,31.000,0.500,81.000
3.373,-1.500,31.500,3.500,81.500
3.374,-1.500,32.000,6.500,82.500
3.375,-1.500,32.500,8.500,83.000
3.376,-1.500,33.000,9.500,83.500
3.377,-1.500,33.500,9.500,84.000
3.378,-1.500,34.000,9.000,84.500
3.379,-1.500,34.500,8.000,85.000
3.380,-1.500,34.500,7.000,85.500
3.381,-1.500,34.500,5.500,86.000
3.382,-1.500,35.000,4.000,86.500
3.383,-1.500,35.000,2.500,87.000
3.384,-1.000,35.000,1.000,87.500
3.385,-1.000,35.000,0.000,87.500
3.386,-1.000,35.000,0.500,87.000
3.387,-1.000,34.500,1.500,86.500
3.388,-1.000,34.000,2.000,86.000
3.389,-1.000,34.000,2.000,85.500
3.390,-1.000,33.500,0.500,84.500
3.391,-1.000,33.500,-0.500,84.000
3.392,-1.000,33.500,-0.500,83.500
3.393,-1.000,33.000,1.500,83.500
3.394,-1.000,33.500,4.500,83.500
3.395,-1.000,33.500,8.000,84.000
3.396,-1.000,34.000,10.500,84.000
3.397,-1.000,34.500,11.000,84.500
3.398,-0.500,34.500,9.500,84.500
3.399,-0.500,35.000,6.500,84.500
3.400,-1.000,34.500,3.500,84.500
3.401,-1.000,34.500,0.000,84.500
3.402,-1.000,34.500,-2.000,84.500
3.403,-1.000,34.500,-3.000,84.500
3.404,-1.000,34.500,-3.000,85.000
3.405,-1.000,34.500,-2.500,85.000
3.406,-1.000,35.000,-2.000,85.500
3.407,-1.000,35.500,-1.000,86.000
3.408,-1.000,36.500,-0.500,86.500
3.409,-1.500,37.000,-0.500,87.500
3.410,-1.500,37.500,-0.500,88.000
3.411,-1.500,37.500,-0.500,88.000
3.412,-1.000,37.500,0.000,87.500
3.413,-1.000,37.500,1.000,87.500
3.414,-1.000,37.500,3.500,87.000
3.415,-1.500,37.500,6.000,86.500
3.416,-1.500,37.500,8.500,86.500
3.417,-1.500,37.500,10.000,86.500
3.418,-1.500,37.500,10.000,86.500
3.419,-1.500,37.500,8.000,86.500
3.420,-1.500,38.000,6.000,86.500
3.421,-1.500,37.500,4.500,86.500
3.422,-1.500,37.500,5.000,86.500
3.423,-1.500,37.000,7.500,86.500
3.424,-1.500,37.000,11.000,86.500
3.425,-1.500,36.500,13.000,86.500
3.426,-1.500,36.500,13.000,86.000
3.427,-1.500,36.500,11.500,86.000
3.428,-1.500,36.500,9.000,86.000
3.429,-1.500,36.500,6.000,86.000
3.430,-1.500,37.000,3.000,85.500
3.431,-1.500,37.000,1.000,85.500
3.432,-1.500,37.000,1.000,85.500
3.433,-1.000,37.000,2.500,85.500
3.434,-1.000,37.000,3.500,85.500
3.435,-1.000,37.000,4.500,85.500
3.436,-0.500,37.000,5.500,85.500
3.437,-0.500,37.000,7.000,85.500
3.438,-1.000,37.000,8.500,85.000
3.439,-1.000,36.500,9.500,84.500
3.440,-1.000,36.500,9.000,84.000
3.441,-1.000,36.000,8.500,83.500
3.442,-1.500,36.000,8.500,83.500
3.443,-1.000,36.000,9.000,83.000
3.444,-1.000,36.000,9.000,83.500
3.445,-1.000,36.000,8.000,83.500
3.446,-1.000,36.000,7.000,83.500
3.447,-1.000,36.500,6.500,83.500
3.448,-1.000,36.500,6.500,83.500
3.449,-1.000,37.000,6.500,84.000
3.450,-1.000,37.000,7.000,84.000
3.451,-1.500,37.000,8.000,84.000
3.452,-1.500,37.000,9.000,84.000
3.453,-1.500,36.500,10.000,84.000
3.454,-1.500,36.500,10.500,84.000
3.455,-1.500,36.500,10.500,84.000
3.456,-1.500,36.000,9.500,84.000
3.457,-1.500,36.000,8.500,84.000
3.458,-1.000,36.000,7.000,83.500
3.459,-1.000,36.000,5.500,83.000
3.460,-1.000,35.500,5.000,82.500
3.461,-1.000,35.500,4.500,82.000
3.462,-1.000,35.000,4.000,81.500
3.463,-1.000,35.000,4.000,81.500
3.464,-1.000,34.500,4.500,81.500
3.465,-0.500,34.500,5.500,81.000
3.466,-0.500,34.000,7.000,80.500
3.467,-1.000,33.500,8.000,80.000
3.468,-1.000,33.000,9.000,79.000
3.469,-1.000,32.000,9.000,78.500
3.470,-1.500,32.000,8.500,78.500
3.471,-1.500,31.500,7.500,78.000
3.472,-1.500,31.500,6.500,78.000
3.473,-2.000,31.500,5.000,78.000
3.474,-2.000,31.500,4.000,78.000
3.475,-2.000,31.500,3.000,78.000
3.476,-2.000,31.500,2.500,78.000
3.477,-2.000,32.000,3.000,78.000
3.478,-2.000,32.000,4.000,78.000
3.479,-1.500,32.500,6.500,78.500
3.480,-1.500,33.000,9.000,79.000
3.481,-1.500,34.000,12.500,80.000
3.482,-1.500,35.000,14.500,81.000
