'Elapsed time','AECG1','AECG2','AECG3','AECG4'
'seconds','uV','uV','uV','uV'
0.000,-4.500,75.500,139.000,-101.000
0.001,-5.000,75.500,139.500,-99.500
0.002,-5.000,76.000,140.500,-98.000
0.003,-5.000,77.000,141.500,-96.000
0.004,-5.000,77.500,142.500,-95.000
0.005,-5.000,78.000,143.000,-94.500
0.006,-5.500,77.500,143.000,-95.000
0.007,-6.500,76.500,142.000,-96.500
0.008,-7.500,75.500,140.500,-98.500
0.009,-8.500,74.000,139.000,-100.500
0.010,-9.500,73.000,137.000,-103.000
0.011,-10.500,71.500,135.500,-105.500
0.012,-11.000,70.000,134.000,-108.000
0.013,-12.000,69.000,132.500,-110.500
0.014,-12.500,68.000,131.500,-112.500
0.015,-13.500,67.000,130.000,-114.000
0.016,-14.500,65.500,129.000,-115.500
0.017,-15.500,64.500,128.000,-116.500
0.018,-16.000,64.000,128.000,-116.000
0.019,-16.000,64.500,128.500,-115.000
0.020,-16.000,65.000,129.000,-113.500
0.021,-16.500,65.000,129.000,-112.000
0.022,-17.000,65.500,129.500,-110.500
0.023,-16.500,66.500,130.500,-108.500
0.024,-16.000,68.000,132.000,-106.500
0.025,-15.500,68.500,133.000,-105.500
0.026,-16.000,68.500,133.000,-106.000
0.027,-17.000,67.000,132.000,-107.500
0.028,-18.500,65.000,130.000,-109.500
0.029,-20.000,63.500,128.500,-112.000
0.030,-20.500,62.000,127.000,-114.000
0.031,-21.500,61.000,125.500,-116.000
0.032,-22.000,60.000,124.000,-118.500
0.033,-23.000,58.500,122.000,-121.500
0.034,-24.500,56.500,119.500,-124.500
0.035,-27.000,53.500,116.500,-128.000
0.036,-30.000,50.500,113.500,-132.000
0.037,-33.000,47.500,110.000,-135.000
0.038,-35.500,45.500,107.500,-137.000
0.039,-37.000,44.500,106.500,-137.500
0.040,-36.000,45.500,107.500,-135.500
0.041,-33.500,49.000,111.000,-130.500
0.042,-28.500,54.500,117.000,-124.000
0.043,-21.500,62.000,124.500,-115.500
0.044,-13.500,70.500,134.000,-105.500
0.045,-4.500,80.500,144.000,-95.000
0.046,5.500,90.500,155.000,-84.000
0.047,15.500,101.000,165.500,-73.500
0.048,25.500,111.000,175.500,-63.500
0.049,34.500,120.500,185.000,-54.000
0.050,43.000,129.500,194.000,-45.000
0.051,53.500,140.000,204.000,-35.500
0.052,66.000,153.000,217.500,-22.500
0.053,82.500,169.500,234.500,-6.000
0.054,103.000,190.000,255.500,15.000
0.055,126.500,214.000,280.000,39.500
0.056,152.000,240.000,306.500,67.000
0.057,178.500,267.500,335.000,96.000
0.058,205.500,295.500,363.500,126.000
0.059,233.500,324.500,394.000,157.500
0.060,264.000,356.000,426.500,191.500
0.061,296.500,390.000,461.500,228.000
0.062,331.000,426.000,499.000,267.000
0.063,368.000,463.500,538.000,308.000
0.064,405.500,502.500,578.500,349.500
0.065,443.500,541.500,619.000,391.000
0.066,480.500,579.500,657.500,430.000
0.067,513.500,613.500,692.500,465.500
0.068,540.500,641.000,721.000,493.000
0.069,558.000,659.000,739.000,510.500
0.070,564.000,664.500,744.000,514.500
0.071,556.500,656.500,735.000,504.000
0.072,535.000,634.500,711.500,479.000
0.073,503.000,601.000,677.000,442.000
0.074,463.500,560.500,634.500,397.500
0.075,420.500,516.500,589.000,350.000
0.076,377.500,472.000,544.000,302.500
0.077,336.000,430.000,500.500,258.000
0.078,298.500,391.000,461.000,217.500
0.079,263.500,356.000,424.500,180.500
0.080,231.000,323.000,390.500,147.000
0.081,200.000,291.500,358.000,115.000
0.082,170.000,260.500,327.000,84.000
0.083,139.500,230.000,296.000,53.500
0.084,110.500,200.500,266.000,23.500
0.085,83.000,173.000,238.000,-4.500
0.086,58.500,148.500,213.000,-29.500
0.087,37.000,127.000,191.500,-51.500
0.088,18.500,108.000,172.500,-71.000
0.089,2.500,92.000,156.000,-88.000
0.090,-11.500,78.000,141.500,-103.500
0.091,-23.000,65.500,128.500,-117.000
0.092,-34.000,54.500,117.000,-129.500
0.093,-43.500,44.000,106.000,-141.000
0.094,-53.000,34.500,96.000,-151.500
0.095,-61.000,26.000,87.000,-161.000
0.096,-67.500,19.000,80.000,-168.500
0.097,-73.000,13.500,74.500,-173.500
0.098,-77.000,9.500,70.500,-177.000
0.099,-80.000,7.000,68.500,-178.000
0.100,-81.500,6.000,68.000,-177.500
0.101,-81.500,6.500,69.000,-175.500
0.102,-81.000,8.000,70.500,-173.000
0.103,-79.500,10.000,73.000,-169.500
0.104,-77.500,12.500,75.500,-166.000
0.105,-75.500,14.500,78.000,-163.000
0.106,-73.000,17.000,81.000,-160.000
0.107,-70.500,20.000,84.000,-157.000
0.108,-67.000,23.500,87.000,-154.000
0.109,-64.000,26.500,90.000,-152.000
0.110,-61.000,29.500,92.000,-150.000
0.111,-58.000,32.000,94.500,-148.500
0.112,-55.500,34.500,96.500,-147.500
0.113,-53.000,36.500,98.000,-146.500
0.114,-51.000,38.000,99.500,-145.500
0.115,-50.000,39.000,101.000,-144.500
0.116,-49.000,40.500,102.000,-143.000
0.117,-47.500,42.000,104.000,-141.000
0.118,-45.500,44.500,106.500,-138.000
0.119,-43.000,47.500,110.000,-133.500
0.120,-40.500,50.500,113.500,-129.000
0.121,-38.500,53.000,116.000,-125.000
0.122,-38.000,54.000,118.000,-122.000
0.123,-38.500,54.500,118.500,-120.500
0.124,-39.500,54.000,118.500,-120.000
0.125,-40.500,53.000,117.500,-120.500
0.126,-42.500,51.500,116.000,-121.500
0.127,-44.000,49.500,114.000,-124.000
0.128,-46.000,47.500,112.000,-127.000
0.129,-47.000,46.000,110.000,-129.500
0.130,-47.000,45.000,108.500,-131.500
0.131,-46.500,45.000,107.500,-133.000
0.132,-46.500,44.500,106.500,-134.500
0.133,-46.500,44.000,105.500,-136.500
0.134,-46.500,43.500,104.000,-138.500
0.135,-46.000,43.500,103.500,-139.500
0.136,-45.000,44.500,104.000,-139.000
0.137,-43.500,45.500,105.000,-138.000
0.138,-41.500,47.500,106.500,-136.500
0.139,-40.500,49.000,108.000,-134.000
0.140,-39.000,51.000,109.500,-131.000
0.141,-37.500,53.000,111.500,-128.000
0.142,-36.500,55.000,113.500,-125.000
0.143,-35.500,57.000,115.500,-122.500
0.144,-35.000,58.000,117.000,-120.500
0.145,-35.000,59.000,118.500,-119.500
0.146,-35.000,59.000,119.000,-119.000
0.147,-35.500,59.000,119.000,-119.000
0.148,-36.000,58.000,118.500,-120.000
0.149,-37.000,57.000,117.000,-121.500
0.150,-38.500,55.500,115.500,-123.500
0.151,-40.000,53.500,113.000,-126.500
0.152,-41.500,52.000,110.000,-129.000
0.153,-43.000,50.500,107.500,-132.000
0.154,-43.500,49.500,106.000,-133.500
0.155,-43.000,50.000,105.000,-134.000
0.156,-41.500,51.500,105.500,-132.500
0.157,-39.500,54.000,107.000,-130.000
0.158,-37.000,57.000,109.500,-126.500
0.159,-34.500,59.500,111.500,-122.500
0.160,-32.500,62.000,113.500,-119.000
0.161,-32.000,63.500,114.000,-116.000
0.162,-32.000,64.000,114.000,-114.500
0.163,-32.500,63.500,113.000,-114.000
0.164,-33.500,63.000,112.000,-114.000
0.165,-34.000,62.500,111.000,-114.500
0.166,-34.500,62.500,110.000,-114.500
0.167,-34.500,62.000,109.000,-115.000
0.168,-34.500,61.500,108.000,-115.500
0.169,-35.000,61.000,106.500,-117.000
0.170,-35.500,60.500,105.500,-118.500
0.171,-34.500,60.500,105.000,-119.000
0.172,-33.000,61.500,105.000,-119.000
0.173,-31.500,63.000,105.500,-119.000
0.174,-30.000,64.000,106.000,-119.000
0.175,-29.500,64.500,106.000,-119.000
0.176,-29.000,65.000,106.000,-118.500
0.177,-28.500,66.000,106.000,-118.000
0.178,-27.500,67.000,107.000,-116.000
0.179,-27.000,68.000,108.000,-114.000
0.180,-26.000,69.500,109.000,-111.500
0.181,-25.500,70.500,110.000,-109.000
0.182,-25.000,71.000,111.000,-107.000
0.183,-25.000,71.500,111.500,-105.000
0.184,-25.500,71.500,112.000,-104.000
0.185,-26.000,71.000,111.500,-104.000
0.186,-27.000,70.500,111.000,-104.500
0.187,-28.500,69.500,109.500,-105.500
0.188,-29.500,68.500,108.000,-107.000
0.189,-30.500,67.500,106.500,-109.000
0.190,-31.000,66.500,104.500,-111.500
0.191,-31.500,66.000,103.000,-113.500
0.192,-31.500,65.500,102.000,-115.000
0.193,-30.500,66.000,102.000,-115.500
0.194,-29.000,67.500,103.000,-115.000
0.195,-26.500,69.500,104.500,-113.500
0.196,-24.500,72.000,106.500,-111.500
0.197,-22.000,74.000,109.000,-109.000
0.198,-20.000,76.500,111.000,-106.000
0.199,-19.000,78.500,113.000,-103.500
0.200,-18.000,79.500,114.500,-101.000
0.201,-18.000,80.000,115.500,-99.000
0.202,-18.000,80.500,116.000,-97.500
0.203,-18.000,81.000,116.500,-96.500
0.204,-18.000,81.000,116.500,-95.500
0.205,-18.500,81.000,116.500,-95.500
0.206,-19.000,81.000,116.500,-95.500
0.207,-19.000,81.000,116.500,-96.000
0.208,-19.500,80.500,116.000,-97.000
0.209,-19.000,80.500,116.000,-97.500
0.210,-18.500,81.500,116.500,-98.000
0.211,-17.000,82.500,117.500,-98.000
0.212,-15.000,84.000,118.500,-98.000
0.213,-13.000,85.500,120.000,-97.000
0.214,-11.000,87.500,121.500,-96.500
0.215,-9.500,89.000,123.000,-95.500
0.216,-8.500,90.000,124.000,-94.000
0.217,-7.500,91.500,125.500,-92.500
0.218,-6.000,93.000,127.500,-90.000
0.219,-4.500,95.000,130.000,-87.000
0.220,-2.500,98.000,133.000,-83.000
0.221,-1.000,100.000,136.000,-80.000
0.222,0.500,102.000,138.000,-77.000
0.223,1.500,103.500,140.000,-74.500
0.224,2.500,104.500,141.500,-72.500
0.225,4.000,106.000,143.500,-70.500
0.226,5.000,107.000,145.000,-69.000
0.227,5.500,107.500,146.000,-68.000
0.228,6.000,108.000,146.500,-68.000
0.229,6.500,108.500,146.500,-68.500
0.230,7.500,108.500,147.000,-69.000
0.231,8.500,109.500,147.000,-69.500
0.232,9.000,110.000,147.500,-70.000
0.233,10.000,110.500,148.500,-70.500
0.234,11.000,111.500,149.000,-70.500
0.235,12.500,112.500,150.500,-69.500
0.236,14.000,114.500,152.500,-67.500
0.237,16.000,117.000,155.000,-64.500
0.238,18.500,120.000,158.000,-61.000
0.239,21.500,123.500,161.500,-56.500
0.240,24.000,126.500,165.000,-52.000
0.241,26.500,129.500,168.500,-47.500
0.242,28.500,132.500,171.500,-43.500
0.243,30.500,135.000,174.500,-40.000
0.244,32.500,137.500,176.500,-37.000
0.245,34.500,139.500,179.000,-34.500
0.246,36.000,142.000,181.500,-32.000
0.247,38.000,144.000,183.500,-30.500
0.248,39.500,146.000,185.500,-29.000
0.249,42.000,147.500,187.500,-27.500
0.250,44.000,149.500,189.500,-26.500
0.251,46.500,151.000,191.000,-25.500
0.252,48.500,153.000,192.500,-25.000
0.253,50.500,155.000,194.000,-24.000
0.254,53.000,157.000,196.000,-22.500
0.255,55.500,159.500,198.500,-20.500
0.256,58.000,162.500,201.000,-17.500
0.257,61.500,166.000,205.000,-13.500
0.258,65.500,170.500,209.500,-8.500
0.259,69.500,175.500,214.500,-2.000
0.260,74.500,181.000,220.500,5.000
0.261,79.500,186.500,226.500,12.000
0.262,83.000,191.500,231.500,18.000
0.263,86.000,195.000,235.500,22.500
0.264,88.500,197.500,239.000,26.000
0.265,90.500,200.500,241.500,29.000
0.266,93.000,203.000,244.500,32.000
0.267,95.500,205.500,247.500,35.000
0.268,97.500,208.000,249.500,37.000
0.269,100.000,210.000,251.500,38.500
0.270,102.000,212.000,253.500,39.500
0.271,104.500,214.500,256.000,41.000
0.272,108.000,217.500,258.500,43.000
0.273,112.000,221.500,262.000,46.000
0.274,116.000,225.500,266.000,49.500
0.275,120.000,229.000,269.500,52.500
0.276,123.000,232.500,273.000,56.000
0.277,126.000,235.500,276.500,59.500
0.278,129.000,238.500,280.000,63.500
0.279,131.500,242.000,283.500,68.500
0.280,134.500,245.500,287.500,73.500
0.281,137.000,249.000,291.000,78.500
0.282,139.500,252.000,294.500,83.000
0.283,142.000,255.000,297.500,86.500
0.284,145.000,258.000,300.500,90.500
0.285,148.000,261.000,304.000,94.000
0.286,151.000,264.000,307.000,97.000
0.287,154.000,267.000,310.000,99.500
0.288,156.000,268.500,311.500,101.000
0.289,157.500,269.500,312.500,101.500
0.290,158.000,270.000,312.500,101.000
0.291,158.000,270.000,312.500,100.000
0.292,158.500,270.500,312.500,99.500
0.293,159.500,271.000,312.500,99.000
0.294,161.000,272.500,314.000,99.500
0.295,163.000,274.000,315.500,101.000
0.296,165.000,276.000,317.500,102.500
0.297,167.000,278.000,319.500,104.500
0.298,168.500,280.000,321.000,107.000
0.299,170.000,282.000,323.000,109.500
0.300,171.000,283.500,325.000,112.500
0.301,172.000,285.000,326.500,115.500
0.302,172.500,286.500,328.000,118.000
0.303,173.500,287.500,329.000,120.000
0.304,174.000,288.500,330.500,122.000
0.305,175.000,290.000,332.000,124.000
0.306,177.500,292.500,334.500,126.500
0.307,180.000,295.000,337.000,129.000
0.308,182.500,297.500,338.500,130.500
0.309,183.000,298.000,339.000,130.500
0.310,182.500,297.000,337.500,128.500
0.311,181.500,296.000,336.000,125.500
0.312,180.500,294.500,334.000,122.500
0.313,179.000,292.500,331.500,119.000
0.314,177.500,290.500,329.000,115.500
0.315,175.000,287.500,326.000,112.000
0.316,172.000,285.000,322.500,108.500
0.317,169.500,282.500,320.000,106.500
0.318,167.500,280.500,317.500,104.500
0.319,165.000,278.000,315.500,103.500
0.320,162.000,275.500,313.500,102.000
0.321,159.000,273.000,311.000,100.500
0.322,156.000,270.500,309.000,99.000
0.323,153.500,268.000,306.500,97.500
0.324,150.500,265.000,304.000,95.000
0.325,147.000,261.500,301.000,92.000
0.326,143.000,258.000,297.000,88.000
0.327,139.000,253.500,292.500,83.000
0.328,134.500,249.500,288.000,77.500
0.329,130.500,245.000,283.000,71.500
0.330,126.000,240.500,277.500,65.000
0.331,121.500,235.500,272.000,58.500
0.332,117.000,230.500,266.500,51.500
0.333,113.000,225.500,261.500,45.500
0.334,109.500,222.000,257.500,41.000
0.335,107.000,219.500,254.500,37.000
0.336,104.500,217.000,252.000,34.000
0.337,101.500,214.000,248.500,31.000
0.338,98.000,210.500,245.000,27.500
0.339,94.000,206.500,240.500,24.500
0.340,89.500,202.500,236.500,21.500
0.341,85.000,198.500,233.000,18.500
0.342,80.500,194.500,229.000,15.000
0.343,76.000,190.500,224.500,11.500
0.344,71.500,186.500,220.500,8.000
0.345,67.000,182.500,216.500,4.000
0.346,63.000,178.500,212.500,-0.500
0.347,59.000,174.500,208.500,-5.000
0.348,55.500,171.000,204.500,-10.000
0.349,52.500,167.500,200.500,-14.500
0.350,49.000,164.000,196.500,-19.500
0.351,46.000,160.500,192.500,-24.500
0.352,42.500,157.000,188.500,-30.000
0.353,39.000,153.000,184.000,-35.000
0.354,35.000,149.000,179.500,-40.500
0.355,31.500,145.500,175.500,-44.500
0.356,28.500,142.500,172.500,-48.000
0.357,26.000,140.000,170.000,-50.000
0.358,23.500,138.500,168.500,-51.000
0.359,21.500,136.500,167.500,-52.000
0.360,19.000,135.000,166.000,-52.500
0.361,16.500,133.000,164.000,-54.000
0.362,13.000,130.500,161.500,-55.500
0.363,9.500,127.500,158.500,-58.000
0.364,6.000,124.500,155.500,-61.000
0.365,3.000,121.500,152.500,-64.000
0.366,0.000,119.000,149.500,-67.000
0.367,-2.000,117.000,147.000,-69.500
0.368,-4.000,115.000,145.000,-72.000
0.369,-5.500,113.500,143.000,-74.500
0.370,-6.500,112.000,141.500,-77.000
0.371,-7.000,111.500,140.500,-78.500
0.372,-6.500,111.500,140.500,-80.000
0.373,-5.500,112.000,141.000,-80.500
0.374,-4.000,113.000,141.500,-81.000
0.375,-3.500,113.000,141.500,-81.500
0.376,-4.500,112.500,141.000,-82.500
0.377,-6.000,111.000,139.500,-84.000
0.378,-8.000,109.500,137.500,-85.000
0.379,-10.500,107.500,136.000,-85.500
0.380,-12.500,106.500,135.000,-85.500
0.381,-14.000,105.500,134.500,-85.000
0.382,-14.500,105.000,134.500,-84.000
0.383,-14.000,106.000,135.500,-82.500
0.384,-12.500,107.500,137.500,-80.500
0.385,-11.000,109.000,138.500,-79.000
0.386,-11.000,109.500,139.000,-79.000
0.387,-11.500,108.500,138.000,-80.500
0.388,-13.000,107.000,136.500,-83.000
0.389,-15.000,105.500,134.500,-85.500
0.390,-16.000,104.500,133.000,-88.000
0.391,-17.000,103.000,131.500,-90.500
0.392,-18.000,101.500,130.000,-93.000
0.393,-19.000,100.500,128.500,-95.500
0.394,-20.000,99.000,127.000,-97.500
0.395,-20.500,98.500,126.000,-99.000
0.396,-21.500,97.500,125.500,-100.000
0.397,-22.000,97.500,125.000,-100.000
0.398,-22.000,97.500,125.000,-99.500
0.399,-22.000,98.000,125.500,-98.000
0.400,-22.000,98.500,126.500,-96.000
0.401,-22.000,99.000,127.500,-94.500
0.402,-21.500,99.500,128.000,-93.000
0.403,-21.500,100.000,129.000,-91.500
0.404,-20.500,101.000,130.500,-90.000
0.405,-19.500,102.500,132.000,-88.500
0.406,-18.500,103.500,133.000,-88.000
0.407,-18.500,103.500,133.000,-88.500
0.408,-19.000,102.500,132.000,-90.000
0.409,-20.500,101.000,130.500,-92.500
0.410,-21.500,100.000,129.000,-95.000
0.411,-21.500,99.000,127.500,-97.000
0.412,-22.000,98.500,126.500,-98.500
0.413,-22.000,98.000,125.500,-100.500
0.414,-22.000,97.500,125.000,-101.500
0.415,-21.500,97.500,124.500,-102.000
0.416,-21.000,98.500,125.000,-102.000
0.417,-20.000,99.000,126.000,-100.500
0.418,-19.500,100.000,127.500,-99.000
0.419,-19.000,100.500,128.500,-97.000
0.420,-18.500,101.500,129.500,-95.000
0.421,-18.000,103.000,131.000,-92.500
0.422,-17.000,104.500,132.500,-90.000
0.423,-16.500,106.000,134.000,-88.000
0.424,-16.000,107.000,135.500,-86.500
0.425,-16.000,107.500,136.000,-85.500
0.426,-16.500,107.500,136.000,-86.000
0.427,-17.500,106.000,135.000,-87.500
0.428,-19.000,104.500,133.500,-90.000
0.429,-20.500,103.500,131.500,-92.500
0.430,-21.500,102.000,130.000,-95.000
0.431,-22.500,101.000,128.500,-97.500
0.432,-23.500,100.000,126.500,-100.500
0.433,-24.500,98.500,124.500,-103.000
0.434,-25.000,98.000,123.500,-104.500
0.435,-24.500,98.000,123.500,-105.000
0.436,-23.000,99.500,124.500,-104.000
0.437,-21.000,101.500,126.500,-101.500
0.438,-19.500,103.000,128.500,-99.000
0.439,-18.500,104.500,129.500,-97.000
0.440,-18.500,105.000,130.500,-95.000
0.441,-19.000,106.000,131.000,-93.500
0.442,-19.000,106.000,131.500,-92.000
0.443,-19.000,106.500,132.000,-91.000
0.444,-19.500,107.000,132.000,-90.500
0.445,-19.500,107.000,132.500,-90.000
0.446,-20.000,107.000,132.500,-90.000
0.447,-20.000,106.500,133.000,-90.500
0.448,-20.500,106.000,132.500,-91.500
0.449,-21.000,105.000,131.500,-93.500
0.450,-22.500,103.500,130.000,-96.000
0.451,-23.500,102.000,128.500,-98.500
0.452,-24.000,101.500,127.500,-100.000
0.453,-23.500,101.500,127.500,-101.000
0.454,-23.000,102.000,127.500,-101.500
0.455,-22.000,103.000,128.000,-101.000
0.456,-21.000,104.500,129.000,-100.000
0.457,-20.000,105.500,130.000,-98.500
0.458,-19.500,106.500,131.000,-97.000
0.459,-19.500,107.000,131.000,-96.000
0.460,-20.000,107.000,131.500,-94.500
0.461,-20.500,107.000,131.500,-93.500
0.462,-20.500,107.000,132.500,-92.000
0.463,-20.500,108.000,133.500,-90.000
0.464,-19.500,109.000,134.500,-89.000
0.465,-19.500,109.500,135.000,-88.000
0.466,-19.500,109.500,135.000,-89.000
0.467,-21.000,108.500,133.500,-90.500
0.468,-22.500,106.500,131.500,-93.000
0.469,-24.000,105.000,129.500,-96.000
0.470,-24.500,104.000,128.500,-98.000
0.471,-23.500,105.000,128.500,-99.000
0.472,-22.000,106.500,129.500,-99.000
0.473,-21.500,107.000,130.000,-99.500
0.474,-21.500,107.000,129.500,-100.500
0.475,-22.000,107.000,128.500,-101.500
0.476,-22.000,107.000,128.500,-101.500
0.477,-21.000,108.000,129.500,-100.500
0.478,-20.000,109.500,131.000,-98.000
0.479,-19.000,111.000,133.000,-96.000
0.480,-18.000,112.500,134.500,-93.000
0.481,-16.500,114.500,136.500,-90.500
0.482,-14.500,117.000,139.500,-87.000
0.483,-12.500,119.500,142.000,-83.500
0.484,-11.000,121.000,144.000,-81.500
0.485,-11.000,121.000,144.500,-81.000
0.486,-12.500,119.500,143.000,-82.500
0.487,-14.500,117.500,141.000,-84.500
0.488,-15.500,116.000,139.500,-86.500
0.489,-15.500,115.500,139.000,-87.500
0.490,-14.500,116.500,139.500,-88.000
0.491,-13.000,118.000,140.000,-88.000
0.492,-12.500,118.500,140.000,-88.500
0.493,-12.000,118.500,139.500,-90.000
0.494,-12.500,118.000,139.000,-91.500
0.495,-13.000,117.500,138.000,-92.500
0.496,-13.500,117.500,137.500,-93.000
0.497,-14.000,117.000,137.500,-93.000
0.498,-14.500,117.000,137.000,-92.500
0.499,-15.000,117.000,137.000,-92.000
0.500,-15.500,117.000,137.000,-91.000
0.501,-16.000,117.000,137.000,-90.000
0.502,-15.500,117.500,138.000,-88.500
0.503,-15.000,118.500,139.000,-86.500
0.504,-14.500,119.500,140.000,-85.500
0.505,-14.500,119.500,140.000,-85.000
0.506,-15.500,118.500,139.500,-86.000
0.507,-17.000,117.500,138.000,-87.500
0.508,-18.500,116.000,136.000,-90.000
0.509,-19.500,114.000,134.000,-93.000
0.510,-21.000,113.000,132.000,-95.500
0.511,-21.500,112.000,131.000,-98.000
0.512,-22.000,111.500,130.000,-100.000
0.513,-22.500,110.500,129.000,-101.500
0.514,-23.000,110.000,128.000,-103.500
0.515,-23.500,109.500,127.500,-104.500
0.516,-23.500,109.500,127.500,-104.500
0.517,-22.500,110.500,128.000,-103.500
0.518,-21.500,112.000,129.500,-101.500
0.519,-20.500,113.500,131.000,-99.000
0.520,-19.500,115.000,133.000,-96.000
0.521,-18.500,116.500,135.000,-93.000
0.522,-18.000,118.000,136.500,-91.000
0.523,-18.000,118.000,137.000,-89.500
0.524,-19.000,118.000,137.000,-89.500
0.525,-20.000,117.000,136.500,-89.500
0.526,-21.000,116.500,136.000,-90.500
0.527,-22.000,115.000,134.500,-92.000
0.528,-23.000,113.500,133.000,-94.000
0.529,-24.500,112.000,131.500,-96.500
0.530,-25.500,110.500,130.000,-98.500
0.531,-26.500,109.000,129.000,-101.000
0.532,-27.000,108.000,127.500,-103.000
0.533,-27.500,107.500,126.500,-105.000
0.534,-28.000,106.500,125.000,-107.000
0.535,-28.000,106.000,124.500,-108.000
0.536,-28.500,106.000,124.000,-108.500
0.537,-28.000,106.000,124.000,-108.000
0.538,-27.500,107.000,124.500,-106.500
0.539,-26.500,108.000,126.000,-104.000
0.540,-25.000,110.000,128.000,-101.000
0.541,-23.500,112.000,130.500,-97.500
0.542,-22.000,114.500,133.000,-94.500
0.543,-20.500,116.000,135.000,-91.500
0.544,-20.000,117.500,136.500,-90.000
0.545,-19.500,118.000,137.000,-89.500
0.546,-20.000,117.500,136.500,-90.000
0.547,-20.500,117.000,136.000,-90.500
0.548,-20.500,117.000,136.000,-91.500
0.549,-21.000,116.500,135.000,-93.000
0.550,-21.500,115.500,134.500,-94.500
0.551,-22.000,115.000,133.500,-96.500
0.552,-22.500,114.000,132.500,-98.000
0.553,-23.000,113.500,132.000,-99.500
0.554,-23.000,113.500,131.500,-100.500
0.555,-22.500,114.000,131.500,-101.000
0.556,-22.000,115.000,132.000,-100.000
0.557,-21.000,116.000,133.500,-99.000
0.558,-19.500,117.500,135.000,-96.500
0.559,-18.000,119.500,137.000,-93.500
0.560,-16.000,121.500,139.500,-90.000
0.561,-15.000,123.500,141.500,-87.000
0.562,-15.000,124.000,142.500,-85.000
0.563,-16.500,123.500,142.000,-85.000
0.564,-18.500,121.500,140.500,-86.000
0.565,-20.500,119.500,139.000,-87.500
0.566,-22.500,118.000,137.500,-89.000
0.567,-23.000,117.000,137.000,-90.000
0.568,-24.000,116.000,136.000,-91.500
0.569,-24.500,115.500,134.500,-93.500
0.570,-25.000,114.500,132.500,-96.500
0.571,-26.000,113.000,130.500,-99.500
0.572,-27.000,111.000,127.500,-103.000
0.573,-28.500,109.000,125.000,-107.000
0.574,-30.500,107.000,122.000,-111.000
0.575,-32.500,104.500,119.500,-114.000
0.576,-33.500,103.500,118.000,-116.000
0.577,-32.500,104.000,118.500,-115.000
0.578,-30.000,107.000,121.000,-112.000
0.579,-27.000,110.500,125.000,-107.500
0.580,-24.000,114.000,128.500,-103.000
0.581,-22.000,116.500,131.000,-99.500
0.582,-21.500,118.000,132.500,-97.000
0.583,-21.000,118.500,133.500,-95.500
0.584,-20.500,119.000,134.500,-94.500
0.585,-19.500,120.000,136.000,-93.000
0.586,-18.500,121.000,137.000,-92.000
0.587,-18.000,122.000,138.000,-91.000
0.588,-17.000,122.500,138.500,-91.000
0.589,-17.000,123.000,138.500,-91.500
0.590,-17.000,122.500,138.000,-92.500
0.591,-17.000,122.500,138.000,-93.500
0.592,-17.000,122.500,137.500,-94.500
0.593,-16.500,123.000,138.000,-95.500
0.594,-16.000,123.500,138.500,-95.500
0.595,-14.500,124.500,140.000,-94.500
0.596,-12.500,126.500,142.000,-92.500
0.597,-10.500,128.500,144.000,-90.000
0.598,-9.000,130.500,146.000,-87.500
0.599,-7.500,132.500,148.000,-84.500
0.600,-6.000,134.500,150.500,-81.500
0.601,-4.500,136.500,152.500,-78.500
0.602,-2.500,138.500,155.000,-75.500
0.603,-0.500,141.000,157.500,-72.500
0.604,2.000,143.500,160.500,-69.500
0.605,5.000,146.500,163.500,-66.500
0.606,7.000,148.500,165.500,-64.500
0.607,7.500,149.000,166.000,-64.000
0.608,7.500,149.000,166.000,-64.500
0.609,6.500,148.000,165.000,-66.500
0.610,6.000,147.000,163.500,-68.000
0.611,5.500,146.000,162.500,-70.000
0.612,5.500,146.000,162.000,-71.500
0.613,6.500,146.500,162.000,-72.000
0.614,8.000,147.500,163.000,-71.500
0.615,10.000,149.500,164.500,-70.500
0.616,12.000,151.000,165.500,-68.500
0.617,13.500,152.500,167.000,-66.500
0.618,15.000,154.500,169.000,-64.000
0.619,17.000,156.500,171.500,-61.000
0.620,18.500,159.000,174.000,-57.500
0.621,20.000,161.000,176.500,-54.000
0.622,22.000,163.500,179.500,-50.500
0.623,24.000,166.500,182.500,-47.000
0.624,26.500,169.000,186.000,-43.500
0.625,29.000,172.000,189.000,-40.500
0.626,31.500,175.000,192.000,-37.500
0.627,34.500,178.000,195.000,-35.000
0.628,37.500,181.000,198.000,-32.500
0.629,40.500,184.000,200.500,-30.500
0.630,43.000,186.000,202.500,-29.500
0.631,44.500,187.000,203.000,-30.000
0.632,45.000,187.500,203.000,-31.000
0.633,45.000,187.000,202.000,-32.500
0.634,44.500,186.000,201.000,-34.500
0.635,43.000,184.500,199.500,-36.000
0.636,42.000,184.000,198.500,-37.000
0.637,41.500,184.000,199.000,-37.000
0.638,42.500,185.000,200.000,-35.000
0.639,43.500,186.500,202.000,-32.000
0.640,45.000,188.000,203.500,-29.000
0.641,45.500,189.000,204.500,-27.000
0.642,45.500,189.000,205.000,-25.500
0.643,45.500,189.500,206.000,-24.500
0.644,46.000,190.000,206.500,-23.000
0.645,46.000,190.500,207.500,-22.500
0.646,46.000,191.000,208.000,-22.000
0.647,45.500,190.500,207.500,-22.500
0.648,44.000,189.000,206.500,-24.500
0.649,42.000,187.000,204.000,-27.500
0.650,39.000,184.000,201.000,-31.000
0.651,36.500,181.500,198.000,-35.000
0.652,35.000,179.500,196.000,-38.000
0.653,34.000,178.000,194.500,-40.500
0.654,33.500,177.000,193.000,-42.500
0.655,33.000,176.000,192.000,-44.000
0.656,32.000,175.500,191.000,-45.000
0.657,31.500,175.000,190.500,-45.000
0.658,30.500,174.500,190.000,-45.000
0.659,29.500,173.500,189.500,-44.500
0.660,28.000,172.500,189.000,-44.500
0.661,25.000,170.500,187.500,-45.500
0.662,22.000,167.500,185.000,-47.000
0.663,19.000,165.000,182.500,-49.500
0.664,16.000,162.500,180.000,-51.500
0.665,13.000,159.500,178.000,-54.000
0.666,10.500,157.000,175.000,-57.000
0.667,7.500,154.000,172.500,-60.500
0.668,4.500,151.000,169.000,-65.000
0.669,1.500,147.500,165.500,-69.500
0.670,-2.000,144.000,161.500,-74.500
0.671,-4.500,141.000,158.000,-79.000
0.672,-7.000,138.000,155.000,-83.500
0.673,-9.500,135.000,152.000,-87.500
0.674,-11.500,133.000,150.000,-90.500
0.675,-13.000,131.500,148.000,-93.000
0.676,-13.500,131.000,147.000,-94.000
0.677,-14.000,131.000,147.500,-93.500
0.678,-13.500,132.000,148.000,-92.500
0.679,-13.000,133.000,149.000,-91.000
0.680,-13.000,133.000,149.500,-89.500
0.681,-13.500,133.000,149.500,-88.000
0.682,-15.000,132.500,149.000,-88.000
0.683,-16.500,131.500,148.000,-88.500
0.684,-18.500,130.000,147.000,-89.000
0.685,-20.000,129.000,145.500,-90.000
0.686,-21.000,128.000,144.500,-91.000
0.687,-22.000,127.500,144.000,-92.000
0.688,-22.500,126.500,142.500,-93.500
0.689,-23.500,125.000,141.000,-95.500
0.690,-25.000,123.000,138.500,-98.500
0.691,-27.000,120.500,135.500,-102.000
0.692,-28.000,119.000,133.000,-105.000
0.693,-29.000,118.000,131.500,-107.000
0.694,-29.000,117.500,131.000,-108.500
0.695,-29.000,118.000,131.000,-108.500
0.696,-28.500,118.500,131.500,-108.000
0.697,-28.000,119.500,132.500,-107.000
0.698,-27.500,120.000,133.500,-105.500
0.699,-27.000,121.000,135.000,-103.500
0.700,-26.500,122.000,136.000,-101.500
0.701,-25.500,123.000,138.000,-99.000
0.702,-24.500,124.500,140.000,-96.500
0.703,-24.000,125.500,141.000,-95.000
0.704,-24.500,125.500,141.000,-94.500
0.705,-25.500,125.000,141.000,-95.000
0.706,-26.000,124.500,140.500,-95.500
0.707,-26.000,124.500,141.000,-96.000
0.708,-25.500,124.500,141.000,-96.000
0.709,-25.500,124.500,141.000,-97.000
0.710,-26.000,124.000,140.000,-99.000
0.711,-27.500,122.000,138.000,-102.000
0.712,-29.500,119.500,135.000,-106.000
0.713,-32.000,117.000,132.000,-110.500
0.714,-34.500,114.000,128.500,-114.500
0.715,-37.000,111.000,125.000,-118.500
0.716,-40.000,108.000,122.000,-122.500
0.717,-42.500,105.000,119.000,-125.500
0.718,-44.500,102.500,116.500,-127.000
0.719,-46.000,101.000,115.500,-128.000
0.720,-46.000,101.500,116.000,-126.500
0.721,-44.000,103.000,118.000,-124.000
0.722,-40.500,107.000,122.000,-119.000
0.723,-35.500,113.000,128.000,-112.500
0.724,-28.500,120.500,135.500,-104.500
0.725,-20.000,129.500,145.000,-95.000
0.726,-10.000,139.500,155.500,-84.000
0.727,0.500,150.500,167.000,-72.500
0.728,12.000,162.000,179.000,-61.000
0.729,23.500,173.500,190.500,-49.500
0.730,34.000,184.500,201.500,-39.000
0.731,44.000,195.000,211.500,-29.000
0.732,54.500,205.500,222.500,-19.000
0.733,67.500,218.000,235.500,-6.500
0.734,83.000,234.000,252.000,10.000
0.735,103.000,254.000,273.000,31.000
0.736,126.000,278.000,297.500,56.500
0.737,152.000,305.000,325.500,85.500
0.738,179.500,334.000,355.000,116.500
0.739,207.500,363.000,385.000,148.000
0.740,236.000,392.500,416.500,181.000
0.741,266.000,424.500,449.000,216.000
0.742,299.500,458.500,484.500,253.000
0.743,335.000,495.500,522.500,292.500
0.744,372.000,533.500,562.500,333.000
0.745,409.500,572.500,602.000,373.500
0.746,446.500,610.500,641.000,413.000
0.747,482.000,646.500,678.500,450.500
0.748,514.000,679.500,712.000,484.000
0.749,540.500,706.500,739.000,510.500
0.750,558.000,724.500,757.000,527.500
0.751,564.000,730.000,762.500,531.500
0.752,556.500,722.000,754.000,521.000
0.753,535.500,700.000,731.000,496.000
0.754,502.000,665.500,695.500,458.500
0.755,460.500,622.500,651.500,412.000
0.756,415.000,576.000,603.000,362.000
0.757,370.500,530.500,556.000,313.500
0.758,329.000,488.000,512.000,269.000
0.759,292.000,450.000,473.500,230.000
0.760,259.500,416.500,439.000,195.500
0.761,229.500,386.000,408.000,165.000
0.762,201.000,357.500,378.500,135.500
0.763,173.500,329.000,349.500,106.500
0.764,145.000,300.000,320.000,76.500
0.765,116.500,271.000,290.500,47.000
0.766,89.500,243.500,262.500,18.500
0.767,65.000,218.500,237.000,-8.000
0.768,43.500,196.500,214.500,-30.500
0.769,25.500,177.500,195.000,-50.500
0.770,9.500,161.500,178.000,-68.500
0.771,-4.500,147.000,163.000,-84.500
0.772,-16.500,134.000,150.000,-99.000
0.773,-27.000,123.000,138.000,-111.500
0.774,-37.000,113.000,127.500,-123.000
0.775,-46.000,103.500,118.000,-133.000
0.776,-54.000,95.500,110.000,-141.500
0.777,-61.000,88.500,103.500,-148.000
0.778,-66.500,83.000,98.000,-152.500
0.779,-70.500,79.000,94.000,-155.500
0.780,-74.500,76.000,91.500,-157.500
0.781,-77.000,73.500,89.000,-158.500
0.782,-79.000,72.500,88.000,-158.500
0.783,-79.500,72.000,88.000,-157.500
0.784,-78.500,73.500,90.000,-155.500
0.785,-76.000,76.000,92.500,-152.500
0.786,-73.500,79.000,96.000,-149.500
0.787,-70.500,81.500,99.000,-146.500
0.788,-68.000,84.500,102.000,-144.500
0.789,-65.500,87.000,104.500,-142.500
0.790,-62.500,89.500,107.000,-141.000
0.791,-59.500,92.500,109.000,-139.500
0.792,-56.500,95.000,111.500,-138.000
0.793,-54.000,97.500,113.500,-137.000
0.794,-52.000,99.000,115.500,-136.000
0.795,-50.000,101.000,117.500,-134.500
0.796,-47.500,103.500,119.500,-132.000
0.797,-44.500,106.000,122.500,-129.000
0.798,-41.500,109.500,125.500,-125.000
0.799,-38.500,112.500,129.000,-120.500
0.800,-36.000,115.500,132.000,-116.000
0.801,-33.500,118.000,135.000,-112.000
0.802,-32.000,120.500,137.500,-109.000
0.803,-31.000,122.000,139.500,-107.000
0.804,-31.000,122.500,140.000,-106.000
0.805,-31.000,122.500,140.000,-106.000
0.806,-31.000,122.500,140.000,-106.500
0.807,-31.000,122.500,139.500,-107.000
0.808,-31.000,122.500,139.000,-108.000
0.809,-31.500,122.000,138.500,-109.500
0.810,-32.000,121.000,137.000,-111.000
0.811,-33.000,120.000,135.500,-113.500
0.812,-33.500,119.500,134.500,-115.500
0.813,-34.000,118.500,133.000,-117.500
0.814,-34.000,118.500,132.500,-118.500
0.815,-34.000,118.500,132.500,-119.000
0.816,-34.000,118.500,132.000,-119.000
0.817,-34.000,118.500,132.000,-119.000
0.818,-34.000,118.500,132.000,-118.000
0.819,-33.500,119.000,133.000,-116.000
0.820,-33.000,120.500,134.500,-113.500
0.821,-32.000,122.000,136.000,-111.000
0.822,-30.500,124.000,138.000,-108.000
0.823,-29.500,125.500,140.000,-106.000
0.824,-28.000,126.500,141.500,-104.000
0.825,-27.000,127.500,143.000,-103.000
0.826,-26.500,128.000,143.000,-103.000
0.827,-27.000,127.000,142.500,-104.000
0.828,-28.000,125.500,141.000,-106.000
0.829,-29.500,124.000,139.500,-108.500
0.830,-30.000,123.000,138.000,-111.000
0.831,-30.500,122.000,137.000,-113.000
0.832,-31.000,121.500,135.500,-115.000
0.833,-31.000,121.000,135.000,-116.500
0.834,-31.000,121.000,134.500,-117.500
0.835,-30.000,121.500,135.000,-117.500
0.836,-29.500,122.000,135.500,-117.000
0.837,-29.000,122.500,136.000,-116.000
0.838,-28.500,123.500,137.000,-114.000
0.839,-27.500,124.500,138.500,-112.000
0.840,-26.500,125.500,140.000,-109.500
0.841,-26.000,126.500,141.500,-107.500
0.842,-26.000,127.000,142.500,-106.000
0.843,-26.500,126.500,142.500,-105.500
0.844,-27.000,126.500,143.000,-105.000
0.845,-27.500,126.500,143.000,-105.000
0.846,-27.500,126.500,143.000,-105.500
0.847,-27.500,126.000,142.500,-106.000
0.848,-28.500,125.500,141.500,-107.500
0.849,-29.000,125.000,140.000,-109.500
0.850,-29.500,124.000,139.000,-111.000
0.851,-29.500,124.000,138.000,-113.000
0.852,-29.000,124.000,137.500,-114.000
0.853,-28.500,124.000,137.500,-115.000
0.854,-27.500,124.000,138.000,-115.000
0.855,-26.500,125.000,138.500,-114.500
0.856,-25.000,126.000,140.000,-113.000
0.857,-23.500,128.000,141.500,-111.000
0.858,-21.000,130.500,144.000,-108.000
0.859,-19.000,132.500,147.000,-104.000
0.860,-17.500,135.000,149.500,-100.500
0.861,-16.000,137.000,152.000,-97.500
0.862,-15.000,138.500,153.500,-95.000
0.863,-14.500,139.500,155.000,-93.000
0.864,-14.000,140.000,156.000,-91.500
0.865,-14.000,140.500,156.500,-91.000
0.866,-14.000,140.500,156.500,-91.500
0.867,-14.500,139.500,156.000,-92.500
0.868,-15.500,138.500,155.000,-94.000
0.869,-16.000,137.500,154.000,-96.000
0.870,-16.000,137.000,153.000,-97.500
0.871,-16.000,136.500,152.500,-99.000
0.872,-15.500,137.000,152.500,-100.000
0.873,-14.500,137.500,152.500,-100.500
0.874,-14.000,138.000,153.000,-100.500
0.875,-12.500,139.000,153.500,-100.500
0.876,-11.000,140.500,154.500,-99.000
0.877,-9.500,141.500,156.000,-97.500
0.878,-8.500,143.000,157.500,-95.500
0.879,-7.000,144.500,159.000,-93.000
0.880,-6.500,145.500,160.500,-90.500
0.881,-6.000,146.500,161.500,-88.500
0.882,-5.500,147.000,162.500,-87.000
0.883,-5.000,148.000,163.500,-85.500
0.884,-5.000,149.000,164.000,-84.500
0.885,-4.500,149.500,165.000,-84.000
0.886,-4.000,150.000,165.500,-83.500
0.887,-3.500,150.000,166.000,-83.500
0.888,-2.500,151.000,166.500,-83.000
0.889,-1.500,152.000,167.500,-83.000
0.890,0.000,152.500,168.000,-82.500
0.891,1.500,153.500,168.500,-83.000
0.892,2.000,154.000,168.500,-84.000
0.893,2.500,154.000,168.500,-85.000
0.894,3.000,154.000,168.500,-85.500
0.895,3.500,154.500,168.500,-85.500
0.896,5.000,156.000,170.000,-84.000
0.897,7.000,158.000,172.000,-82.000
0.898,9.500,160.500,175.000,-78.500
0.899,12.000,163.500,178.000,-74.500
0.900,14.000,165.500,180.500,-71.000
0.901,15.000,167.000,182.000,-68.000
0.902,15.500,168.000,183.500,-66.000
0.903,16.500,169.000,185.000,-64.000
0.904,17.000,170.500,186.500,-62.000
0.905,18.000,171.500,188.000,-60.500
0.906,18.500,172.500,189.000,-59.500
0.907,19.000,173.000,190.000,-59.000
0.908,20.000,174.000,190.500,-59.000
0.909,20.500,174.500,191.000,-59.000
0.910,21.500,174.500,191.000,-59.500
0.911,22.500,175.000,191.000,-60.500
0.912,23.000,175.000,191.000,-61.500
0.913,24.000,175.500,191.500,-62.000
0.914,25.500,176.500,192.500,-61.500
0.915,27.000,177.500,194.000,-61.000
0.916,28.500,179.000,195.500,-59.500
0.917,30.500,181.500,198.000,-56.500
0.918,33.000,184.500,201.000,-53.000
0.919,36.000,187.500,204.000,-48.500
0.920,38.500,190.500,207.500,-44.000
0.921,41.000,193.000,210.500,-40.000
0.922,43.000,196.000,213.000,-36.000
0.923,45.500,198.500,216.000,-32.500
0.924,47.500,201.000,218.500,-29.500
0.925,50.000,203.000,221.000,-26.500
0.926,52.000,205.500,223.000,-24.000
0.927,55.000,208.000,226.000,-21.500
0.928,58.000,211.000,229.000,-19.000
0.929,61.500,214.000,232.000,-16.500
0.930,65.000,217.000,235.000,-14.500
0.931,67.500,219.500,237.000,-13.500
0.932,70.000,221.500,239.000,-12.500
0.933,73.000,224.000,241.500,-11.000
0.934,75.500,226.500,243.500,-9.000
0.935,78.500,229.000,246.500,-6.500
0.936,81.500,232.000,249.500,-3.500
0.937,84.500,235.000,252.500,0.000
0.938,87.500,238.500,255.500,4.500
0.939,90.500,242.000,259.500,9.500
0.940,93.000,245.500,263.500,14.500
0.941,96.000,248.500,267.000,19.500
0.942,98.000,251.500,270.500,23.500
0.943,100.000,254.000,273.500,27.000
0.944,102.000,256.500,276.000,30.000
0.945,104.000,258.500,278.500,32.500
0.946,106.500,261.000,281.000,34.500
0.947,108.500,263.000,283.000,36.500
0.948,111.000,265.500,285.000,38.000
0.949,113.500,267.500,287.000,39.500
0.950,116.500,270.500,289.000,41.500
0.951,120.000,273.500,291.500,43.500
0.952,124.000,277.000,295.000,46.000
0.953,128.500,281.000,299.000,49.500
0.954,133.000,285.500,303.500,53.500
0.955,137.500,290.500,308.000,57.500
0.956,142.500,295.000,312.500,62.500
0.957,147.000,299.500,317.000,67.500
0.958,151.000,304.500,321.500,73.000
0.959,155.000,308.500,326.000,78.500
0.960,158.500,312.500,330.500,84.000
0.961,161.500,315.500,334.000,88.500
0.962,163.000,318.000,337.000,92.500
0.963,164.500,320.000,339.500,95.000
0.964,166.000,321.500,341.500,98.000
0.965,168.000,324.000,344.000,100.500
0.966,170.500,326.000,346.500,102.500
0.967,172.500,328.000,348.500,104.500
0.968,175.000,330.000,350.500,106.000
0.969,177.500,332.500,352.500,107.000
0.970,180.000,334.500,354.500,108.500
0.971,182.500,336.500,356.000,109.500
0.972,185.000,338.500,358.000,110.500
0.973,187.500,340.500,360.000,111.500
0.974,190.500,343.000,361.500,113.500
0.975,193.000,345.000,363.500,115.500
0.976,195.500,347.500,366.000,118.000
0.977,198.000,350.000,368.500,121.000
0.978,200.500,353.000,371.500,124.500
0.979,203.000,355.500,374.500,129.000
0.980,205.500,358.500,378.000,133.000
0.981,208.000,361.500,381.000,137.500
0.982,210.000,363.500,384.000,141.500
0.983,211.000,365.500,385.500,144.000
0.984,211.500,366.000,386.500,145.000
0.985,211.000,365.500,386.500,145.500
0.986,210.000,365.000,385.500,144.500
0.987,209.000,364.000,384.500,143.000
0.988,208.500,363.000,383.500,141.500
0.989,208.000,362.000,382.500,140.000
0.990,207.500,361.000,381.000,138.000
0.991,206.500,359.500,379.000,135.000
0.992,205.000,357.500,376.500,132.000
0.993,203.500,355.500,374.500,129.000
0.994,202.000,354.000,373.000,126.500
0.995,201.000,352.500,371.000,124.500
0.996,199.500,351.000,369.500,123.000
0.997,198.000,349.500,368.000,121.500
0.998,196.000,348.000,366.500,121.000
0.999,194.000,346.000,365.000,120.000
1.000,191.000,344.000,363.000,119.000
1.001,188.500,341.500,361.000,117.500
1.002,185.000,338.500,358.500,116.000
1.003,182.000,335.000,356.000,113.500
1.004,178.500,332.000,353.000,111.000
1.005,175.000,328.500,350.000,108.000
1.006,171.500,325.000,346.500,104.500
1.007,168.000,321.000,342.500,100.000
1.008,164.500,317.000,338.500,95.500
1.009,161.000,313.000,333.500,90.000
1.010,157.000,308.000,328.000,83.500
1.011,152.000,302.000,322.000,76.500
1.012,146.500,296.000,315.000,68.500
1.013,141.000,290.000,308.000,60.500
1.014,136.000,284.000,301.000,53.000
1.015,131.500,278.500,295.500,46.500
1.016,127.500,274.000,290.500,41.000
1.017,123.000,269.500,285.500,36.500
1.018,119.500,265.500,281.500,32.500
1.019,115.500,261.500,277.500,29.500
1.020,111.500,258.000,274.000,26.500
1.021,108.000,254.500,270.500,24.000
1.022,106.000,252.500,268.500,22.500
1.023,104.000,251.000,267.000,21.500
1.024,102.000,249.000,265.000,20.000
1.025,99.000,246.000,262.500,17.000
1.026,94.500,242.000,258.500,12.500
1.027,89.500,237.000,254.000,7.000
1.028,84.500,232.000,249.000,1.500
1.029,79.500,227.000,244.000,-4.500
1.030,75.000,222.000,239.000,-10.500
1.031,71.000,217.500,234.000,-16.000
1.032,67.500,213.500,230.000,-21.000
1.033,65.000,210.500,227.000,-25.000
1.034,63.000,208.000,224.500,-28.000
1.035,61.500,206.500,222.500,-30.000
1.036,60.000,204.500,221.000,-32.000
1.037,58.500,203.000,219.000,-33.000
1.038,56.500,201.500,217.500,-34.000
1.039,54.000,199.000,215.500,-35.000
1.040,51.000,197.000,213.500,-36.000
1.041,48.500,194.500,211.500,-37.500
1.042,45.500,192.500,210.000,-38.500
1.043,43.500,190.000,208.000,-40.500
1.044,42.000,188.500,206.500,-42.000
1.045,40.500,186.500,205.000,-43.500
1.046,38.500,185.000,203.500,-45.500
1.047,36.500,183.000,201.000,-48.500
1.048,34.500,180.500,198.500,-51.500
1.049,32.500,177.500,195.000,-55.500
1.050,30.500,175.000,192.000,-59.500
1.051,28.000,172.000,188.500,-63.500
1.052,26.000,169.500,185.000,-68.000
1.053,24.000,167.000,182.000,-71.500
1.054,22.500,165.000,180.000,-74.500
1.055,21.500,163.500,178.500,-76.000
1.056,20.500,163.000,177.500,-76.500
1.057,20.000,162.500,177.000,-76.500
1.058,20.000,162.000,177.000,-76.000
1.059,19.500,162.000,177.000,-75.000
1.060,18.500,161.000,177.000,-74.000
1.061,17.500,160.500,176.500,-73.500
1.062,16.000,159.000,175.500,-73.500
1.063,14.500,158.000,175.000,-74.000
1.064,13.500,156.500,174.000,-74.500
1.065,12.000,155.500,173.000,-75.500
1.066,11.000,154.500,171.500,-77.000
1.067,10.000,153.500,170.500,-78.500
1.068,9.500,152.500,170.000,-80.000
1.069,9.500,152.000,169.000,-81.000
1.070,10.000,152.000,168.500,-82.500
1.071,10.500,151.500,168.000,-84.000
1.072,11.000,151.500,167.500,-85.500
1.073,11.500,151.500,167.000,-86.500
1.074,12.000,151.000,166.500,-87.500
1.075,12.000,151.000,166.000,-88.000
1.076,12.000,150.500,166.000,-88.000
1.077,12.000,151.000,166.500,-87.000
1.078,12.500,151.500,167.500,-85.500
1.079,13.000,152.500,168.500,-83.500
1.080,13.500,154.000,170.000,-81.000
1.081,14.000,155.000,171.000,-78.500
1.082,14.500,155.500,172.000,-76.500
1.083,14.500,155.500,172.500,-75.500
1.084,14.000,155.500,172.500,-75.500
1.085,13.500,154.500,172.000,-75.500
1.086,13.500,154.000,171.500,-76.500
1.087,13.000,153.500,171.000,-77.500
1.088,12.500,152.500,170.000,-79.000
1.089,12.000,151.500,168.500,-81.000
1.090,12.000,151.000,167.500,-83.000
1.091,11.500,150.000,166.500,-85.000
1.092,11.500,149.500,165.500,-86.500
1.093,11.500,149.000,164.500,-88.500
1.094,11.500,148.500,164.000,-89.500
1.095,11.500,148.000,163.500,-90.500
1.096,11.000,147.500,163.000,-90.500
1.097,11.000,147.500,163.000,-90.000
1.098,11.000,147.500,163.500,-88.500
1.099,11.500,148.500,164.500,-86.500
1.100,12.000,149.000,165.000,-84.500
1.101,12.000,149.500,166.000,-83.000
1.102,12.000,149.500,166.000,-81.500
1.103,11.500,149.000,166.000,-81.000
1.104,11.500,149.500,166.500,-80.500
1.105,11.500,149.500,167.000,-80.000
1.106,12.500,150.000,168.000,-79.500
1.107,13.000,150.000,168.000,-79.500
1.108,13.000,150.000,168.500,-80.000
1.109,13.000,150.000,168.000,-81.000
1.110,12.500,149.000,167.000,-83.000
1.111,12.000,148.000,165.500,-85.000
1.112,11.500,147.000,164.500,-87.000
1.113,11.500,147.000,164.500,-88.000
1.114,12.500,147.500,164.500,-88.000
1.115,13.500,148.500,165.500,-87.500
1.116,14.500,149.000,166.500,-87.000
1.117,14.500,149.500,167.000,-86.000
1.118,14.500,149.500,167.000,-85.500
1.119,14.500,149.500,167.500,-84.500
1.120,14.000,150.000,167.500,-83.000
1.121,14.000,150.000,168.000,-81.500
1.122,14.500,150.500,169.000,-80.000
1.123,14.500,151.000,169.500,-79.000
1.124,14.500,151.000,170.000,-78.500
1.125,15.000,151.000,170.500,-78.000
1.126,15.000,150.500,170.500,-78.500
1.127,14.500,150.000,170.000,-79.500
1.128,14.500,149.500,169.500,-80.500
1.129,14.000,149.000,168.500,-82.000
1.130,13.500,148.000,167.500,-84.000
1.131,13.000,147.000,166.000,-86.500
1.132,12.000,146.000,164.500,-88.500
1.133,11.500,145.000,163.000,-90.500
1.134,11.500,144.500,162.500,-92.000
1.135,11.500,144.500,162.500,-92.000
1.136,12.500,145.500,163.500,-91.000
1.137,13.500,147.000,165.000,-89.000
1.138,14.500,149.000,167.000,-86.500
1.139,16.000,150.500,169.000,-84.000
1.140,17.000,152.500,171.500,-80.500
1.141,18.000,154.000,173.500,-77.500
1.142,19.000,155.000,175.000,-75.500
1.143,19.000,155.000,175.000,-74.500
1.144,18.000,154.000,174.500,-74.500
1.145,17.500,153.500,174.000,-75.500
1.146,17.000,153.000,173.500,-76.000
1.147,17.000,152.500,173.000,-77.000
1.148,17.000,152.500,173.000,-77.500
1.149,17.000,152.500,172.500,-79.000
1.150,17.000,152.000,171.500,-80.500
1.151,17.000,151.500,170.500,-82.500
1.152,16.500,151.000,169.000,-84.000
1.153,16.000,150.500,168.000,-86.000
1.154,16.000,150.000,167.500,-87.000
1.155,16.500,150.000,167.500,-87.000
1.156,17.000,151.000,168.500,-86.000
1.157,18.000,152.000,170.000,-84.000
1.158,19.500,153.500,171.500,-81.500
1.159,20.000,155.000,173.000,-79.000
1.160,20.500,155.500,174.500,-77.000
1.161,21.000,156.000,175.500,-75.000
1.162,21.000,157.000,176.500,-73.500
1.163,21.500,157.500,177.500,-72.000
1.164,22.000,158.500,178.500,-70.500
1.165,22.500,159.000,179.000,-70.500
1.166,22.500,158.500,178.500,-70.500
1.167,21.500,157.500,177.500,-72.000
1.168,21.000,156.500,176.000,-73.500
1.169,20.000,155.000,174.000,-76.000
1.170,19.000,153.500,172.500,-78.000
1.171,18.500,152.000,170.500,-80.500
1.172,18.000,151.500,169.500,-82.500
1.173,18.500,151.000,168.500,-84.000
1.174,19.000,151.000,168.500,-85.000
1.175,19.500,151.500,168.500,-85.000
1.176,20.000,152.000,169.000,-84.000
1.177,20.500,153.000,170.000,-82.500
1.178,21.000,153.500,170.500,-81.000
1.179,21.000,154.000,171.000,-79.000
1.180,20.500,153.500,171.500,-78.000
1.181,19.500,153.000,171.000,-77.500
1.182,18.500,152.000,170.000,-77.000
1.183,17.500,151.500,170.000,-77.000
1.184,17.500,151.000,170.000,-76.500
1.185,17.500,151.500,170.500,-76.000
1.186,18.000,152.000,171.000,-76.000
1.187,18.500,152.000,171.000,-76.000
1.188,18.500,152.000,171.000,-76.500
1.189,18.500,151.500,170.500,-78.000
1.190,18.500,151.000,169.500,-79.500
1.191,18.500,150.500,168.500,-81.000
1.192,18.000,149.500,167.500,-83.000
1.193,18.000,149.000,167.000,-84.000
1.194,18.000,148.500,166.000,-85.000
1.195,18.000,148.000,166.000,-85.500
1.196,18.000,148.500,166.000,-85.000
1.197,19.000,149.000,167.000,-84.000
1.198,20.000,150.000,168.500,-81.500
1.199,21.000,151.500,170.000,-79.000
1.200,21.500,152.500,171.500,-77.000
1.201,22.000,153.000,172.500,-75.000
1.202,22.000,153.500,173.000,-73.500
1.203,22.000,154.000,173.500,-72.500
1.204,22.000,154.000,173.500,-72.000
1.205,22.000,153.500,173.000,-72.500
1.206,22.000,153.500,172.500,-73.000
1.207,22.000,153.000,172.000,-74.000
1.208,21.500,152.000,170.500,-75.500
1.209,21.000,150.500,169.000,-78.000
1.210,19.500,149.000,167.500,-80.500
1.211,18.500,147.500,165.500,-83.000
1.212,17.500,146.000,164.000,-85.500
1.213,17.000,145.000,163.000,-87.000
1.214,17.000,145.000,162.000,-88.000
1.215,17.000,145.000,162.000,-88.500
1.216,17.000,145.000,162.000,-88.000
1.217,17.500,145.500,163.000,-86.500
1.218,19.000,147.000,164.500,-84.500
1.219,20.000,148.500,166.000,-81.500
1.220,21.500,150.000,168.000,-78.500
1.221,22.000,151.000,169.000,-76.500
1.222,22.000,151.000,169.500,-75.000
1.223,21.500,150.500,169.500,-75.000
1.224,20.500,150.000,169.000,-75.000
1.225,19.500,149.000,168.000,-75.500
1.226,19.500,148.500,167.500,-76.000
1.227,19.500,148.000,167.000,-76.500
1.228,19.500,148.000,166.500,-77.500
1.229,20.000,148.000,166.000,-78.000
1.230,20.500,148.000,165.500,-79.500
1.231,21.000,148.000,165.000,-80.500
1.232,21.500,148.000,164.500,-82.000
1.233,21.500,147.500,164.000,-83.500
1.234,22.000,147.000,164.000,-84.500
1.235,22.000,147.000,163.500,-85.000
1.236,22.000,147.000,163.500,-85.000
1.237,21.500,147.000,164.000,-84.500
1.238,21.500,147.000,164.000,-83.500
1.239,21.500,147.500,165.000,-81.500
1.240,22.000,148.000,166.000,-79.500
1.241,22.500,149.000,167.500,-77.500
1.242,23.000,150.500,169.000,-75.000
1.243,24.000,151.000,170.500,-73.500
1.244,24.500,151.500,171.000,-72.500
1.245,24.000,151.500,171.000,-73.000
1.246,23.000,150.000,170.000,-74.500
1.247,21.500,148.500,168.500,-76.500
1.248,20.500,147.500,166.500,-78.500
1.249,19.500,146.500,165.500,-80.500
1.250,19.500,146.000,164.000,-82.500
1.251,19.500,145.000,163.000,-84.000
1.252,19.500,144.500,162.000,-85.500
1.253,20.000,144.500,162.000,-86.500
1.254,21.000,144.500,162.000,-87.000
1.255,21.500,145.000,162.500,-87.000
1.256,22.000,145.500,163.000,-86.500
1.257,23.000,146.000,163.500,-85.500
1.258,23.500,147.000,164.500,-83.500
1.259,24.500,148.000,166.500,-81.000
1.260,25.500,149.500,168.000,-78.000
1.261,26.000,151.000,169.500,-75.500
1.262,26.500,152.000,171.000,-73.500
1.263,27.500,152.500,172.000,-71.500
1.264,28.500,154.000,173.500,-69.500
1.265,30.500,156.000,175.500,-67.500
1.266,33.000,158.000,178.000,-65.000
1.267,35.500,160.500,180.000,-63.000
1.268,38.000,162.500,181.500,-62.000
1.269,40.000,164.000,183.000,-61.500
1.270,41.500,165.000,183.500,-61.500
1.271,42.500,165.500,184.000,-62.000
1.272,43.000,165.500,184.000,-62.500
1.273,44.000,166.000,184.000,-63.000
1.274,45.000,166.500,184.500,-62.500
1.275,46.500,167.500,185.500,-62.000
1.276,48.000,168.500,186.500,-60.500
1.277,49.000,170.000,188.000,-58.500
1.278,50.500,171.500,189.500,-56.000
1.279,52.000,173.000,191.500,-53.000
1.280,53.500,175.500,194.000,-49.500
1.281,55.000,177.500,196.500,-46.500
1.282,56.500,179.500,199.000,-43.000
1.283,58.500,181.500,201.500,-40.500
1.284,60.500,183.000,204.000,-38.000
1.285,62.000,185.000,206.000,-36.000
1.286,63.500,186.000,207.000,-35.000
1.287,64.500,186.500,207.500,-35.000
1.288,65.000,186.500,208.000,-35.000
1.289,66.000,187.000,208.000,-35.500
1.290,67.000,187.500,208.500,-36.000
1.291,68.500,188.500,209.000,-36.000
1.292,70.000,189.500,210.000,-36.000
1.293,72.000,191.000,211.500,-35.500
1.294,74.000,193.000,213.500,-34.000
1.295,77.000,196.000,216.000,-31.500
1.296,79.500,199.000,219.000,-28.500
1.297,82.500,201.500,222.000,-25.000
1.298,84.500,204.000,225.000,-21.500
1.299,86.000,206.000,227.000,-18.500
1.300,86.500,207.000,228.000,-16.000
1.301,86.000,207.000,228.500,-14.500
1.302,85.000,206.500,228.000,-13.500
1.303,84.000,205.500,227.500,-13.500
1.304,83.500,205.000,227.000,-13.500
1.305,83.500,205.500,227.500,-13.000
1.306,84.500,206.500,228.500,-12.500
1.307,86.000,207.500,230.000,-11.500
1.308,87.500,209.000,231.000,-11.500
1.309,88.500,209.500,231.000,-11.500
1.310,89.000,209.500,230.500,-12.500
1.311,89.000,209.500,229.500,-14.000
1.312,89.000,209.000,228.500,-15.500
1.313,89.000,208.500,228.000,-16.500
1.314,89.000,208.000,227.500,-17.500
1.315,88.500,207.500,227.500,-18.000
1.316,88.000,207.000,227.000,-18.500
1.317,87.000,206.000,226.500,-18.500
1.318,86.000,205.500,226.000,-18.000
1.319,85.500,205.000,225.500,-17.000
1.320,84.500,204.500,225.500,-16.000
1.321,83.500,204.000,225.000,-15.500
1.322,82.500,203.500,224.500,-15.500
1.323,81.000,202.000,223.500,-16.000
1.324,79.000,200.000,222.000,-17.500
1.325,77.000,198.000,220.000,-19.500
1.326,75.000,196.000,217.500,-22.000
1.327,72.500,193.000,214.500,-25.000
1.328,69.500,189.500,211.000,-29.500
1.329,66.000,185.500,207.000,-34.000
1.330,62.500,181.500,203.000,-39.000
1.331,59.000,178.000,199.500,-43.500
1.332,56.500,174.500,196.000,-48.000
1.333,54.000,171.500,193.000,-52.000
1.334,51.000,168.000,189.500,-56.000
1.335,48.000,164.500,186.000,-59.500
1.336,45.500,162.000,183.000,-62.000
1.337,43.500,160.000,181.000,-63.500
1.338,42.000,158.500,180.000,-63.500
1.339,40.500,158.000,179.500,-63.000
1.340,39.500,157.000,179.000,-62.500
1.341,37.500,155.500,178.000,-62.500
1.342,35.500,154.000,177.000,-63.000
1.343,34.000,152.500,176.000,-64.000
1.344,32.000,150.500,174.500,-65.500
1.345,30.000,148.500,172.000,-67.500
1.346,27.500,145.500,169.500,-70.500
1.347,25.000,143.000,166.500,-73.500
1.348,23.000,140.000,164.000,-77.000
1.349,21.000,137.500,161.000,-80.000
1.350,19.500,135.500,159.000,-83.500
1.351,18.500,134.000,157.000,-86.500
1.352,18.000,132.500,155.500,-88.500
1.353,17.500,131.500,154.500,-90.000
1.354,17.500,131.500,154.000,-91.000
1.355,18.000,131.000,154.000,-91.000
1.356,18.500,131.500,154.500,-90.500
1.357,19.500,132.000,155.000,-89.500
1.358,20.000,133.000,156.500,-87.500
1.359,20.500,134.000,157.500,-85.500
1.360,20.500,134.500,158.500,-84.000
1.361,20.000,134.500,159.000,-82.500
1.362,19.500,134.000,159.500,-82.000
1.363,18.500,133.500,159.000,-81.500
1.364,18.000,133.000,158.500,-82.000
1.365,17.000,133.000,158.000,-82.500
1.366,16.500,132.500,157.000,-83.000
1.367,16.000,131.500,156.000,-84.500
1.368,15.000,130.500,154.500,-86.000
1.369,14.000,129.000,153.000,-88.000
1.370,13.500,128.000,151.500,-90.000
1.371,13.500,127.000,150.500,-91.500
1.372,13.500,126.500,150.000,-93.000
1.373,13.500,126.500,149.500,-94.000
1.374,13.500,126.000,149.000,-95.000
1.375,13.500,126.000,148.500,-95.500
1.376,13.500,125.500,148.000,-95.500
1.377,13.500,125.500,148.000,-95.500
1.378,13.500,125.500,148.500,-94.000
1.379,13.500,126.000,148.500,-93.000
1.380,13.500,126.000,149.000,-91.500
1.381,13.000,125.500,148.500,-91.000
1.382,12.000,124.500,148.000,-91.000
1.383,10.500,123.000,147.000,-92.000
1.384,7.500,120.500,144.500,-94.500
1.385,4.000,117.000,141.000,-98.500
1.386,0.500,113.000,137.000,-103.000
1.387,-2.500,110.000,133.000,-107.000
1.388,-4.000,107.500,130.500,-110.000
1.389,-4.000,107.500,130.000,-111.000
1.390,-1.000,109.500,132.000,-109.500
1.391,4.000,114.500,136.500,-106.000
1.392,11.500,121.500,143.500,-99.500
1.393,21.000,130.500,152.500,-91.000
1.394,31.500,141.000,163.500,-80.000
1.395,43.000,152.500,175.000,-68.000
1.396,54.500,164.500,187.500,-55.000
1.397,66.000,176.500,200.500,-41.500
1.398,77.000,188.000,213.000,-28.000
1.399,88.000,200.000,225.500,-14.000
1.400,100.000,212.500,239.000,1.000
1.401,114.000,227.000,255.000,18.000
1.402,131.000,245.000,273.500,38.000
1.403,151.500,266.000,295.500,61.500
1.404,174.500,289.500,320.500,87.000
1.405,199.000,315.000,346.500,114.500
1.406,224.500,341.000,373.500,142.000
1.407,250.500,367.500,401.000,170.000
1.408,278.000,395.500,430.000,199.500
1.409,308.500,426.500,462.000,231.000
1.410,342.500,460.500,497.000,266.500
1.411,379.500,498.000,535.500,305.000
1.412,418.500,537.500,576.000,345.000
1.413,458.000,577.500,617.000,386.000
1.414,497.000,617.000,657.500,427.000
1.415,534.500,655.000,696.500,467.000
1.416,568.000,689.500,731.500,502.500
1.417,594.500,716.500,759.000,531.500
1.418,610.500,733.500,776.500,549.000
1.419,614.000,737.500,780.500,553.500
1.420,602.500,726.500,769.500,542.500
1.421,578.000,702.000,744.500,517.500
1.422,543.500,667.000,708.500,481.000
1.423,502.500,625.000,665.500,437.000
1.424,459.500,581.000,620.500,390.500
1.425,417.000,537.000,574.500,343.500
1.426,375.500,494.000,530.500,298.000
1.427,336.000,453.500,488.000,254.000
1.428,298.500,414.500,448.000,212.000
1.429,262.500,377.000,409.500,172.000
1.430,228.000,341.000,372.500,133.500
1.431,195.000,306.000,336.500,96.500
1.432,163.000,273.000,302.500,61.500
1.433,133.500,242.000,271.000,29.000
1.434,106.500,214.500,243.000,0.000
1.435,83.500,191.000,219.000,-24.000
1.436,64.500,171.500,199.000,-43.500
1.437,48.500,155.500,183.000,-59.500
1.438,34.500,141.500,169.000,-72.500
1.439,22.000,129.500,157.000,-84.000
1.440,11.000,118.500,146.000,-93.500
1.441,0.500,108.500,136.000,-102.000
1.442,-9.500,99.000,127.000,-110.500
1.443,-18.500,89.500,118.000,-118.500
1.444,-27.000,81.500,109.500,-126.500
1.445,-34.000,74.500,103.000,-133.000
1.446,-39.500,69.000,97.500,-138.500
1.447,-43.500,65.000,93.500,-143.000
1.448,-46.000,62.000,91.000,-146.000
1.449,-47.000,60.500,89.500,-148.000
1.450,-47.500,60.000,88.500,-149.500
1.451,-47.000,60.000,88.000,-150.000
1.452,-45.500,61.000,88.500,-149.500
1.453,-44.000,62.500,89.500,-149.000
1.454,-41.500,64.000,91.000,-147.500
1.455,-39.000,66.500,93.000,-145.500
1.456,-36.000,69.000,95.500,-142.500
1.457,-32.500,72.500,99.000,-138.500
1.458,-28.500,76.500,102.500,-134.000
1.459,-25.000,80.500,106.500,-129.000
1.460,-21.000,84.500,111.000,-124.000
1.461,-18.000,88.000,114.500,-119.000
1.462,-15.000,91.000,118.500,-115.000
1.463,-12.000,94.000,121.500,-112.000
1.464,-10.000,96.000,124.000,-109.500
1.465,-8.000,98.000,126.000,-108.000
1.466,-6.500,99.500,127.500,-106.500
1.467,-5.000,100.500,128.000,-106.000
1.468,-4.000,101.000,128.500,-106.000
1.469,-3.500,101.000,129.000,-106.500
1.470,-3.000,101.500,129.000,-107.500
1.471,-2.500,101.500,129.000,-108.000
1.472,-2.500,102.000,129.000,-108.500
1.473,-2.000,102.000,129.500,-109.000
1.474,-1.500,102.500,129.500,-109.000
1.475,-1.000,103.000,130.500,-108.500
1.476,0.000,104.000,131.500,-107.000
1.477,1.000,105.500,133.000,-105.500
1.478,1.500,106.500,134.500,-103.000
1.479,2.000,107.500,136.000,-100.500
1.480,2.500,108.500,137.000,-98.500
1.481,2.500,108.500,137.500,-96.500
1.482,2.500,108.500,138.000,-95.000
1.483,2.000,108.500,138.500,-94.000
1.484,2.000,109.000,138.500,-93.500
1.485,2.500,109.000,139.000,-93.000
1.486,2.000,109.500,139.500,-93.000
1.487,2.000,109.000,139.000,-93.500
1.488,1.500,109.000,138.500,-94.500
1.489,1.500,108.500,138.000,-96.000
1.490,2.000,108.000,137.500,-97.000
1.491,2.500,108.000,137.000,-98.500
1.492,3.000,108.500,136.500,-99.500
1.493,4.000,108.500,136.500,-100.500
1.494,4.000,108.500,136.500,-101.000
1.495,4.000,108.500,136.000,-101.500
1.496,3.500,108.000,135.500,-101.500
1.497,3.000,107.500,135.500,-101.000
1.498,3.500,108.500,136.500,-99.000
1.499,5.000,110.000,138.500,-96.000
1.500,6.500,112.000,141.000,-92.000
1.501,8.000,114.500,144.000,-88.500
1.502,9.500,116.500,146.000,-85.500
1.503,10.000,117.500,147.000,-83.500
1.504,9.500,117.500,147.000,-83.500
1.505,8.500,116.500,146.000,-84.000
1.506,7.500,115.000,144.500,-85.500
1.507,6.500,114.000,143.500,-86.500
1.508,6.000,113.000,142.500,-88.000
1.509,5.500,112.000,141.000,-90.000
1.510,5.000,111.000,140.000,-91.500
1.511,5.000,111.000,139.000,-93.000
1.512,5.500,111.000,139.000,-94.500
1.513,6.000,111.000,139.000,-95.500
1.514,7.000,111.500,139.500,-95.500
1.515,8.500,112.500,140.500,-94.500
1.516,9.500,114.000,141.500,-93.000
1.517,11.000,115.500,143.000,-91.000
1.518,11.500,116.500,144.000,-89.000
1.519,12.000,117.000,144.500,-87.000
1.520,12.000,117.500,145.500,-85.000
1.521,12.000,118.000,146.000,-83.000
1.522,12.000,118.000,146.500,-81.500
1.523,12.000,118.500,146.500,-80.500
1.524,12.500,119.000,147.000,-79.500
1.525,13.500,120.000,147.500,-78.000
1.526,14.000,121.000,148.000,-77.500
1.527,14.500,121.500,148.500,-77.000
1.528,15.000,121.500,149.000,-77.500
1.529,15.000,121.500,148.500,-78.000
1.530,15.500,121.000,148.500,-79.500
1.531,16.000,121.000,148.000,-80.500
1.532,16.500,121.500,148.000,-81.000
1.533,17.500,122.000,148.000,-81.500
1.534,18.000,122.500,148.500,-81.500
1.535,19.000,123.500,149.000,-81.000
1.536,20.000,124.500,150.000,-80.000
1.537,21.000,125.500,151.500,-78.000
1.538,22.000,127.000,153.000,-75.000
1.539,23.000,128.500,155.000,-72.000
1.540,24.000,130.000,156.500,-69.000
1.541,25.000,131.500,158.500,-66.000
1.542,26.000,133.000,160.000,-63.500
1.543,26.500,134.000,161.500,-62.000
1.544,27.000,134.500,162.000,-61.000
1.545,27.000,134.500,162.500,-60.500
1.546,27.000,134.500,162.500,-61.000
1.547,27.000,134.000,162.500,-61.500
1.548,27.000,133.500,161.500,-62.500
1.549,27.500,133.500,161.000,-64.000
1.550,28.000,133.500,160.500,-64.500
1.551,28.500,134.000,160.500,-65.500
1.552,29.000,134.000,160.000,-66.500
1.553,29.000,134.000,159.500,-67.500
1.554,29.500,134.500,159.500,-67.500
1.555,30.000,135.000,159.500,-67.500
1.556,30.500,136.000,160.500,-66.000
1.557,32.000,137.500,162.500,-63.500
1.558,34.000,139.500,165.000,-60.000
1.559,36.000,142.000,167.500,-56.500
1.560,38.000,144.000,170.500,-52.500
1.561,39.500,146.000,172.500,-49.500
1.562,40.500,147.500,174.500,-47.000
1.563,41.500,149.000,176.000,-45.000
1.564,42.000,150.000,177.500,-43.500
1.565,42.500,151.000,178.500,-42.000
1.566,43.000,151.500,179.000,-41.500
1.567,43.000,151.500,179.000,-41.500
1.568,43.500,151.500,179.000,-42.000
1.569,44.000,152.000,179.000,-42.500
1.570,45.000,152.500,179.500,-43.000
1.571,46.000,153.000,179.500,-43.500
1.572,47.500,154.000,180.000,-43.500
1.573,48.500,154.500,180.500,-44.000
1.574,50.000,155.500,181.500,-43.500
1.575,51.500,157.500,183.000,-42.000
1.576,53.500,159.500,185.000,-39.500
1.577,56.000,162.000,187.500,-36.000
1.578,58.000,165.000,190.500,-32.000
1.579,60.500,168.000,193.500,-27.000
1.580,63.000,170.500,196.500,-23.000
1.581,64.500,173.000,199.500,-19.000
1.582,66.000,175.000,202.000,-16.000
1.583,67.500,176.500,204.000,-13.500
1.584,68.500,178.000,205.500,-11.500
1.585,70.000,179.000,206.500,-10.500
1.586,70.500,179.500,207.500,-9.500
1.587,71.500,180.500,208.500,-9.000
1.588,73.000,182.000,209.500,-8.500
1.589,75.500,184.000,211.500,-7.500
1.590,78.500,186.500,214.000,-6.000
1.591,81.500,189.000,216.000,-4.000
1.592,83.500,191.500,218.000,-2.500
1.593,85.000,192.500,219.000,-2.000
1.594,86.000,193.500,219.500,-1.500
1.595,87.500,194.500,220.500,0.000
1.596,89.500,197.000,223.500,3.000
1.597,93.000,200.500,227.500,7.000
1.598,96.500,204.500,232.000,12.500
1.599,100.500,209.000,236.500,18.000
1.600,104.000,213.000,241.000,23.500
1.601,107.000,216.500,245.500,29.000
1.602,110.000,220.500,249.000,34.000
1.603,113.000,224.000,253.000,38.500
1.604,116.000,227.000,257.000,42.500
1.605,119.000,230.500,260.500,46.000
1.606,122.000,233.500,263.500,49.000
1.607,124.500,236.000,266.500,51.500
1.608,127.000,238.000,268.500,53.500
1.609,129.500,240.500,270.500,55.000
1.610,132.500,243.000,272.500,56.500
1.611,135.000,245.000,274.500,58.000
1.612,137.500,247.500,277.000,59.500
1.613,140.500,250.000,279.000,61.500
1.614,144.000,253.500,282.000,64.000
1.615,147.500,257.000,285.000,68.000
1.616,151.500,261.000,289.500,73.000
1.617,156.000,266.000,293.500,78.500
1.618,160.000,270.500,298.500,84.000
1.619,163.500,274.500,303.000,90.000
1.620,167.500,278.500,307.500,96.000
1.621,170.500,282.500,311.500,101.000
1.622,173.500,286.000,315.500,106.000
1.623,176.000,289.000,319.000,110.000
1.624,179.000,292.000,322.000,113.500
1.625,181.500,295.000,325.000,116.500
1.626,184.000,297.500,328.000,119.000
1.627,186.000,299.500,330.000,121.000
1.628,188.000,302.000,331.500,122.500
1.629,190.500,304.000,333.500,124.000
1.630,193.000,306.500,335.500,125.500
1.631,195.500,309.000,337.500,126.500
1.632,197.500,310.500,338.500,127.000
1.633,199.000,312.000,339.000,128.000
1.634,201.000,313.000,340.000,129.000
1.635,203.000,315.000,342.000,131.000
1.636,205.500,318.000,345.000,134.500
1.637,208.500,321.000,348.500,138.500
1.638,211.500,324.500,352.500,144.000
1.639,215.000,328.500,357.000,149.000
1.640,218.000,332.000,361.000,154.500
1.641,221.000,335.000,364.500,159.000
1.642,223.000,338.000,367.500,163.000
1.643,225.000,340.000,370.000,166.000
1.644,227.000,342.000,372.500,168.500
1.645,229.000,344.000,375.000,171.000
1.646,231.500,346.500,377.500,173.000
1.647,234.500,349.500,380.500,175.500
1.648,238.000,352.500,384.000,178.500
1.649,241.500,355.500,386.500,180.500
1.650,242.500,356.000,387.000,180.000
1.651,240.500,353.500,384.000,176.000
1.652,235.500,348.000,378.000,170.000
1.653,230.500,342.500,372.500,163.500
1.654,227.500,339.500,369.000,160.000
1.655,227.500,339.000,368.500,160.000
1.656,229.000,341.000,370.500,162.000
1.657,231.500,343.500,373.500,165.500
1.658,234.000,346.000,376.000,169.000
1.659,235.000,347.500,377.500,172.000
1.660,235.000,347.500,378.000,173.500
1.661,234.000,347.000,377.500,174.000
1.662,231.500,345.000,375.500,173.000
1.663,228.500,342.000,373.000,170.500
1.664,224.500,338.500,369.500,167.000
1.665,221.000,335.000,365.500,163.500
1.666,217.500,331.500,362.000,159.500
1.667,214.500,328.000,358.500,155.500
1.668,211.500,324.500,354.500,151.000
1.669,208.000,321.000,350.000,146.000
1.670,204.500,317.000,345.000,140.500
1.671,201.000,313.500,340.500,135.000
1.672,197.500,309.500,336.000,130.000
1.673,193.500,305.000,332.000,124.500
1.674,190.500,301.000,327.500,120.000
1.675,187.000,297.500,324.000,116.000
1.676,183.500,293.500,320.000,112.500
1.677,179.500,290.000,316.500,109.500
1.678,176.000,286.500,313.000,107.000
1.679,171.500,283.000,309.000,104.500
1.680,167.500,279.000,305.500,101.500
1.681,163.000,275.000,301.500,99.000
1.682,159.000,271.000,298.000,96.000
1.683,155.000,267.500,294.500,92.500
1.684,151.000,263.500,291.000,89.000
1.685,147.500,259.500,287.500,85.000
1.686,144.000,256.000,284.000,81.000
1.687,140.000,251.500,279.000,76.000
1.688,135.500,246.500,274.000,70.000
1.689,131.000,241.500,268.000,63.500
1.690,126.000,236.000,262.000,57.000
1.691,121.500,231.000,256.500,51.000
1.692,117.000,226.500,251.000,45.000
1.693,113.000,222.000,246.500,39.500
1.694,109.500,218.000,242.000,34.500
1.695,106.000,214.000,238.000,30.500
1.696,102.500,211.000,234.500,27.500
1.697,99.500,208.000,231.500,25.000
1.698,96.500,205.000,229.000,23.000
1.699,93.500,202.500,226.000,21.500
1.700,90.500,200.000,223.500,20.000
1.701,87.500,197.000,221.000,18.000
1.702,84.500,194.500,218.500,16.000
1.703,81.500,192.000,216.000,14.000
1.704,79.000,189.000,213.500,11.500
1.705,76.000,186.500,211.000,8.500
1.706,73.000,183.500,208.000,5.500
1.707,70.000,180.000,204.500,1.500
1.708,67.000,177.000,201.000,-2.500
1.709,64.500,173.500,197.500,-6.500
1.710,62.000,170.500,194.000,-10.500
1.711,60.000,168.000,191.000,-14.500
1.712,58.000,166.000,188.000,-18.500
1.713,56.500,163.500,185.500,-21.500
1.714,55.000,162.000,183.500,-24.000
1.715,53.500,160.500,182.000,-25.500
1.716,52.500,159.500,181.000,-26.500
1.717,51.500,158.500,180.500,-26.500
1.718,51.000,157.500,180.000,-26.000
1.719,50.000,157.000,180.000,-25.000
1.720,48.500,156.000,179.500,-24.500
1.721,47.500,155.500,179.000,-24.000
1.722,46.000,154.500,178.500,-24.500
1.723,44.500,153.500,178.000,-25.000
1.724,43.000,152.000,177.000,-26.000
1.725,41.000,150.000,175.500,-27.500
1.726,39.500,148.500,174.000,-29.500
1.727,37.500,146.500,172.000,-32.000
1.728,36.000,144.500,170.000,-34.500
1.729,34.500,143.000,167.500,-37.000
1.730,33.000,141.000,165.500,-40.000
1.731,32.000,139.500,163.500,-42.500
1.732,31.500,138.500,162.000,-45.000
1.733,31.500,137.500,160.500,-46.500
1.734,31.000,137.000,160.000,-48.000
1.735,31.000,137.000,159.500,-48.500
1.736,31.000,136.500,159.000,-48.000
1.737,30.500,137.000,159.500,-47.000
1.738,30.500,137.000,160.000,-45.500
1.739,30.500,137.500,161.000,-43.500
1.740,30.000,137.500,161.500,-42.000
1.741,29.500,137.500,162.000,-40.500
1.742,29.500,137.500,162.500,-39.000
1.743,29.000,137.500,162.500,-38.500
1.744,28.000,137.500,162.000,-38.500
1.745,27.500,137.000,161.500,-39.000
1.746,26.500,136.000,160.500,-40.500
1.747,25.500,135.000,159.000,-42.000
1.748,25.000,133.500,157.500,-44.000
1.749,24.500,132.500,156.000,-46.000
1.750,24.500,132.000,154.500,-47.500
1.751,24.500,131.000,153.500,-49.500
1.752,25.000,131.000,153.000,-51.000
1.753,25.000,130.500,152.000,-52.500
1.754,25.000,130.000,151.500,-53.000
1.755,25.500,130.500,151.500,-53.500
1.756,25.500,130.500,151.500,-53.000
1.757,26.000,131.000,152.500,-51.500
1.758,26.000,132.000,153.000,-50.000
1.759,26.000,132.500,154.000,-48.000
1.760,25.500,132.500,155.000,-46.000
1.761,25.000,132.500,155.000,-45.000
1.762,24.500,132.500,155.500,-44.000
1.763,24.500,132.500,156.000,-43.000
1.764,24.500,133.000,157.000,-42.500
1.765,25.000,133.000,157.500,-42.000
1.766,25.000,133.000,157.500,-42.000
1.767,25.000,132.000,156.500,-43.000
1.768,24.000,131.000,155.000,-44.500
1.769,23.000,129.500,153.500,-47.000
1.770,22.500,128.500,152.000,-49.000
1.771,22.500,127.500,150.500,-51.000
1.772,22.500,126.500,149.500,-52.500
1.773,22.000,126.000,149.000,-54.000
1.774,22.000,125.500,148.500,-55.000
1.775,22.500,125.500,148.500,-55.000
1.776,23.000,126.000,149.000,-54.500
1.777,23.000,126.500,149.500,-53.500
1.778,23.500,127.000,150.000,-52.000
1.779,24.000,128.000,150.500,-50.000
1.780,24.000,128.500,151.500,-48.000
1.781,24.500,129.500,152.500,-46.000
1.782,24.500,130.000,153.500,-44.000
1.783,24.500,130.000,154.500,-43.000
1.784,24.500,130.000,155.000,-42.500
1.785,24.000,129.500,154.500,-43.000
1.786,23.500,129.000,154.000,-44.000
1.787,22.500,128.000,153.000,-45.500
1.788,22.000,127.000,152.000,-47.000
1.789,22.000,126.500,151.000,-48.500
1.790,22.000,126.000,150.000,-50.000
1.791,21.500,125.500,149.500,-51.500
1.792,21.500,125.000,149.000,-53.000
1.793,22.000,125.000,148.500,-54.500
1.794,22.000,124.500,148.000,-55.000
1.795,22.500,125.000,148.500,-54.500
1.796,23.000,125.500,149.000,-53.500
1.797,23.500,126.000,150.000,-52.000
1.798,24.500,127.000,151.000,-50.000
1.799,25.000,128.000,152.000,-47.500
1.800,25.000,129.000,153.500,-45.500
1.801,25.000,129.500,154.500,-43.500
1.802,25.000,130.000,155.000,-42.000
1.803,25.000,130.000,155.500,-41.500
1.804,24.500,130.000,155.500,-41.000
1.805,24.500,130.000,155.000,-41.500
1.806,24.000,129.500,154.500,-42.000
1.807,23.500,129.000,154.000,-43.000
1.808,23.000,128.500,153.000,-44.500
1.809,23.000,127.500,152.500,-46.000
1.810,22.500,127.000,151.500,-47.500
1.811,22.500,126.500,150.500,-49.000
1.812,22.500,126.000,150.000,-50.500
1.813,22.500,125.500,149.500,-51.500
1.814,22.500,125.500,149.500,-52.000
1.815,23.000,125.500,149.500,-52.000
1.816,23.500,126.000,150.000,-51.000
1.817,24.000,126.500,151.000,-49.500
1.818,24.500,127.500,152.000,-47.500
1.819,25.000,128.000,153.500,-45.000
1.820,25.500,129.000,154.500,-43.000
1.821,26.000,129.500,155.500,-41.000
1.822,26.000,130.000,156.000,-40.000
1.823,25.500,130.000,156.000,-39.000
1.824,25.000,130.000,156.000,-39.000
1.825,25.000,129.500,156.000,-39.000
1.826,25.000,129.500,156.000,-39.500
1.827,25.500,129.500,155.500,-39.500
1.828,25.500,129.500,155.500,-40.500
1.829,25.500,129.000,154.500,-41.500
1.830,25.000,128.000,153.000,-44.000
1.831,24.000,126.500,151.500,-46.500
1.832,23.000,125.000,150.000,-48.500
1.833,22.500,124.500,149.000,-50.000
1.834,22.500,124.000,148.500,-51.000
1.835,22.500,124.000,148.500,-51.000
1.836,23.000,124.500,149.000,-50.000
1.837,24.000,125.000,150.000,-48.500
1.838,24.500,126.000,151.000,-46.500
1.839,25.500,127.000,152.500,-44.000
1.840,25.500,127.500,153.000,-42.000
1.841,25.500,128.000,154.000,-40.000
1.842,26.000,128.000,154.000,-39.000
1.843,26.000,128.000,154.500,-38.000
1.844,26.000,128.000,154.500,-37.500
1.845,25.500,127.500,154.500,-37.500
1.846,25.000,127.000,154.000,-38.000
1.847,24.500,126.500,153.500,-39.000
1.848,24.500,126.000,152.500,-40.500
1.849,24.000,125.000,151.500,-42.000
1.850,24.000,124.000,150.000,-44.000
1.851,24.000,123.500,149.000,-45.500
1.852,24.000,123.000,148.500,-47.000
1.853,24.000,123.000,148.500,-48.000
1.854,24.500,123.000,148.500,-48.500
1.855,25.500,123.500,149.000,-48.000
1.856,26.000,124.000,149.500,-47.000
1.857,26.500,125.000,150.000,-45.500
1.858,27.000,125.500,150.500,-44.000
1.859,27.000,126.000,151.500,-41.500
1.860,27.000,126.500,152.000,-39.500
1.861,27.000,127.000,153.000,-37.500
1.862,27.000,127.000,153.500,-36.500
1.863,27.000,127.000,153.500,-36.000
1.864,26.500,126.500,153.500,-36.000
1.865,26.500,126.000,153.000,-36.500
1.866,26.000,125.000,152.500,-37.000
1.867,25.500,124.500,151.500,-38.000
1.868,25.500,124.000,150.500,-39.500
1.869,25.000,123.000,149.500,-41.500
1.870,24.500,122.000,148.000,-43.500
1.871,23.500,121.000,146.500,-46.000
1.872,23.000,119.500,145.000,-48.000
1.873,23.000,119.000,144.000,-50.000
1.874,23.000,118.500,143.500,-50.500
1.875,23.500,119.000,144.000,-50.500
1.876,24.000,119.500,144.500,-49.000
1.877,24.500,120.000,146.000,-47.500
1.878,25.000,121.000,147.000,-45.500
1.879,25.500,121.500,148.000,-43.000
1.880,25.000,122.000,149.000,-41.000
1.881,25.000,122.000,149.500,-39.500
1.882,24.500,122.000,149.500,-38.500
1.883,24.000,121.500,149.500,-37.500
1.884,23.500,121.000,149.500,-37.500
1.885,22.500,120.000,149.000,-38.500
1.886,21.500,119.000,148.000,-39.500
1.887,20.500,117.500,147.000,-41.000
1.888,19.000,116.000,145.000,-43.000
1.889,18.000,114.500,143.500,-45.500
1.890,16.500,112.500,141.000,-48.500
1.891,15.500,111.000,139.000,-51.500
1.892,14.500,109.000,136.500,-55.000
1.893,13.500,107.500,134.500,-57.500
1.894,13.500,107.000,133.000,-59.000
1.895,14.000,106.500,132.500,-59.500
1.896,15.000,107.500,133.000,-58.500
1.897,16.000,108.500,134.000,-56.500
1.898,17.000,110.000,135.500,-54.500
1.899,18.000,111.000,136.500,-52.500
1.900,18.500,111.500,137.000,-50.500
1.901,18.500,112.000,138.000,-49.500
1.902,19.000,112.500,138.500,-48.000
1.903,20.000,113.500,139.500,-47.000
1.904,20.500,114.500,141.000,-45.500
1.905,21.000,115.000,142.000,-45.000
1.906,21.500,115.500,142.500,-45.000
1.907,21.500,115.500,142.500,-45.500
1.908,21.500,115.000,142.500,-46.500
1.909,21.000,114.000,141.500,-48.500
1.910,20.500,113.000,140.500,-50.000
1.911,20.500,112.500,140.000,-51.500
1.912,20.500,112.000,140.000,-52.500
1.913,20.500,111.500,140.000,-53.000
1.914,21.000,111.500,140.000,-53.000
1.915,21.500,112.000,140.500,-52.500
1.916,22.000,112.500,141.500,-51.500
1.917,22.500,113.000,142.500,-50.000
1.918,23.000,114.000,143.500,-48.000
1.919,23.500,114.500,144.500,-46.000
1.920,23.500,115.500,145.000,-44.000
1.921,23.500,115.500,145.500,-42.500
1.922,23.500,115.500,145.500,-42.000
1.923,23.000,115.000,145.500,-41.500
1.924,22.500,114.500,145.000,-41.500
1.925,22.000,114.000,144.500,-42.000
1.926,21.500,113.000,144.000,-42.500
1.927,21.000,112.500,143.000,-43.500
1.928,20.500,111.500,142.000,-45.000
1.929,20.000,111.000,141.000,-47.000
1.930,20.000,110.000,140.000,-49.000
1.931,19.500,109.500,138.500,-51.000
1.932,19.000,108.500,137.500,-53.000
1.933,18.500,107.500,136.500,-54.500
1.934,18.000,107.500,136.000,-55.500
1.935,18.500,107.500,136.000,-55.500
1.936,19.500,108.500,137.000,-54.500
1.937,20.500,110.000,138.500,-52.000
1.938,22.500,112.000,141.000,-49.000
1.939,24.500,114.500,143.500,-45.000
1.940,26.500,116.500,146.000,-41.500
1.941,28.000,118.500,148.000,-38.500
1.942,28.000,119.000,148.500,-37.000
1.943,27.500,118.500,148.500,-36.500
1.944,27.000,118.500,148.000,-36.500
1.945,27.000,118.000,148.000,-37.000
1.946,27.000,118.500,148.500,-36.500
1.947,28.000,119.000,149.500,-36.000
1.948,29.500,120.500,150.500,-35.500
1.949,31.500,122.000,151.500,-34.500
1.950,34.000,124.000,153.000,-33.500
1.951,37.000,126.000,154.500,-32.500
1.952,39.500,128.000,156.000,-32.000
1.953,41.500,129.500,158.000,-31.000
1.954,43.500,131.500,159.500,-29.500
1.955,45.000,133.000,160.500,-28.000
1.956,46.500,134.000,162.000,-26.500
1.957,47.500,135.500,163.500,-24.000
1.958,48.500,137.000,165.500,-21.500
1.959,49.500,138.000,167.500,-18.500
1.960,50.500,139.500,169.000,-16.000
1.961,51.000,140.000,170.500,-13.500
1.962,51.500,141.000,171.500,-12.000
1.963,52.000,141.500,172.500,-10.500
1.964,52.500,142.000,173.000,-9.500
1.965,53.000,142.500,174.000,-9.000
1.966,53.500,143.000,174.500,-8.500
1.967,54.000,143.500,174.500,-8.500
1.968,55.000,144.000,175.000,-8.500
1.969,56.000,144.500,175.000,-9.000
1.970,57.000,145.000,175.000,-9.500
1.971,58.000,146.000,175.000,-9.500
1.972,59.500,147.000,175.500,-9.500
1.973,61.000,148.000,176.500,-9.500
1.974,63.000,149.500,177.500,-8.500
1.975,65.000,151.000,179.500,-6.500
1.976,67.000,153.000,182.000,-4.000
1.977,69.500,156.000,185.000,-0.500
1.978,72.500,159.000,188.500,4.500
1.979,75.000,162.500,192.000,9.500
1.980,77.500,165.500,195.000,13.500
1.981,79.000,167.500,198.000,17.000
1.982,80.500,169.500,200.000,19.500
1.983,81.000,170.500,201.000,21.500
1.984,81.000,170.500,201.500,22.000
1.985,80.000,170.000,201.000,21.000
1.986,78.500,168.000,199.500,19.500
1.987,77.500,166.500,197.500,17.000
1.988,76.500,165.500,196.500,15.500
1.989,77.500,165.500,196.500,14.500
1.990,78.500,166.000,197.000,14.500
1.991,80.000,167.000,197.500,14.500
1.992,80.500,167.000,197.000,13.500
1.993,80.500,166.500,196.500,12.500
1.994,79.500,166.000,195.500,11.000
1.995,79.000,165.500,194.500,10.500
1.996,78.500,165.500,194.500,10.500
1.997,79.000,166.000,195.000,12.000
1.998,79.500,167.000,196.500,14.500
1.999,80.000,168.000,197.500,16.500
2.000,80.000,168.000,198.000,18.000
2.001,79.000,167.500,197.500,19.000
2.002,77.500,166.000,196.500,18.500
2.003,76.000,164.500,195.500,17.500
2.004,74.500,163.500,194.500,16.500
2.005,73.000,162.000,193.000,15.000
2.006,71.500,160.000,191.500,13.000
2.007,69.500,158.000,189.500,10.500
2.008,68.000,156.000,187.500,8.000
2.009,66.500,154.000,185.500,5.000
2.010,64.500,151.500,183.000,1.500
2.011,63.000,149.000,180.000,-2.500
2.012,60.500,146.000,176.500,-6.500
2.013,58.000,142.500,173.000,-10.500
2.014,55.000,139.500,169.500,-14.000
2.015,52.000,136.500,166.500,-17.000
2.016,49.500,134.000,163.500,-19.500
2.017,47.000,131.500,161.500,-21.000
2.018,45.000,129.500,160.000,-21.500
2.019,43.000,128.000,159.000,-22.000
2.020,41.500,126.500,158.000,-22.000
2.021,39.000,124.500,156.000,-23.000
2.022,36.000,121.500,153.500,-25.000
2.023,33.000,118.000,150.500,-27.500
2.024,29.500,115.000,147.500,-30.500
2.025,27.000,112.500,144.500,-33.000
2.026,25.000,110.500,142.500,-35.000
2.027,23.500,108.500,141.000,-37.500
2.028,22.500,107.000,139.500,-39.500
2.029,21.500,105.500,137.500,-41.500
2.030,20.500,104.000,136.000,-44.000
2.031,19.000,102.000,134.000,-47.000
2.032,17.500,100.000,131.500,-50.000
2.033,16.000,98.000,129.500,-52.500
2.034,15.000,96.500,128.500,-54.000
2.035,14.500,96.000,127.500,-55.000
2.036,14.000,95.500,127.500,-54.500
2.037,14.000,96.000,127.500,-54.000
2.038,13.500,96.000,128.000,-53.000
2.039,13.500,96.000,128.500,-51.500
2.040,13.500,96.500,129.000,-50.000
2.041,13.000,96.000,129.000,-49.000
2.042,12.500,96.000,128.500,-48.500
2.043,12.000,95.500,128.500,-48.000
2.044,11.500,95.000,128.000,-48.000
2.045,11.000,95.000,127.500,-48.500
2.046,10.500,94.000,126.500,-49.500
2.047,9.500,93.000,125.500,-51.000
2.048,9.000,92.000,124.500,-52.500
2.049,8.000,90.500,123.500,-54.500
2.050,7.500,89.500,122.500,-56.500
2.051,7.500,89.000,121.500,-58.000
2.052,7.500,88.500,121.000,-60.000
2.053,7.500,88.000,120.000,-61.000
2.054,7.500,88.000,119.500,-62.000
2.055,7.500,87.500,119.000,-62.500
2.056,7.500,88.000,119.500,-62.000
2.057,7.500,88.000,120.000,-60.500
2.058,8.000,89.000,120.500,-59.000
2.059,8.000,89.500,121.500,-57.000
2.060,8.000,90.000,122.500,-55.500
2.061,7.000,90.500,123.000,-54.500
2.062,6.000,89.500,122.500,-54.500
2.063,4.500,88.000,121.500,-55.000
2.064,2.500,86.000,120.000,-57.000
2.065,0.500,83.500,117.500,-59.500
2.066,-2.000,81.000,115.000,-62.500
2.067,-5.000,77.500,111.500,-66.500
2.068,-7.500,74.500,108.000,-70.500
2.069,-10.000,71.000,104.000,-75.000
2.070,-12.500,68.000,100.500,-79.500
2.071,-13.500,66.000,98.000,-82.500
2.072,-13.000,66.000,97.500,-84.000
2.073,-10.000,68.500,99.500,-82.000
2.074,-4.500,73.500,104.500,-77.500
2.075,3.500,80.500,112.000,-69.500
2.076,12.500,90.000,121.000,-59.500
2.077,22.500,100.500,132.000,-47.500
2.078,33.500,112.000,144.000,-34.000
2.079,44.500,123.500,156.500,-20.500
2.080,55.000,134.500,168.500,-7.000
2.081,65.000,145.000,180.000,5.500
2.082,74.500,155.500,191.000,17.500
2.083,85.000,166.500,202.500,30.000
2.084,97.000,179.000,216.000,43.500
2.085,111.000,194.000,231.500,59.000
2.086,128.000,211.500,249.500,77.500
2.087,148.000,231.500,270.500,98.500
2.088,170.000,254.000,293.500,121.500
2.089,193.500,277.500,317.500,145.500
2.090,217.500,302.000,342.500,170.500
2.091,243.000,328.000,368.500,196.500
2.092,271.000,356.000,396.500,225.000
2.093,302.000,387.000,428.000,257.000
2.094,336.000,421.000,463.000,292.500
2.095,373.000,458.000,501.500,331.500
2.096,411.500,497.500,542.000,373.000
2.097,451.000,537.500,583.000,416.000
2.098,489.000,577.000,623.500,458.000
2.099,524.000,613.000,661.000,497.000
2.100,553.500,643.500,692.500,529.500
2.101,574.000,665.000,714.500,552.500
2.102,583.500,675.000,725.000,563.500
2.103,580.000,671.500,722.000,560.000
2.104,563.000,654.500,704.000,541.000
2.105,533.500,624.500,673.500,509.500
2.106,495.500,586.000,634.000,468.000
2.107,454.000,543.000,589.500,422.000
2.108,411.000,499.000,544.000,375.000
2.109,370.000,456.000,499.500,328.500
2.110,331.500,415.500,458.000,285.000
2.111,295.500,378.000,419.000,244.000
2.112,261.500,342.000,382.000,205.000
2.113,228.000,307.500,346.500,168.000
2.114,195.500,274.000,311.500,132.500
2.115,163.500,241.500,278.000,98.000
2.116,133.000,210.000,246.500,66.000
2.117,105.000,182.000,218.000,38.000
2.118,81.000,158.000,193.500,14.500
2.119,61.000,138.000,174.000,-4.000
2.120,44.000,121.500,157.500,-19.500
2.121,29.500,107.000,143.500,-33.000
2.122,16.500,94.000,130.500,-45.000
2.123,4.500,82.000,118.500,-56.500
2.124,-6.500,71.500,108.000,-67.000
2.125,-16.000,61.500,98.000,-76.500
2.126,-25.000,52.500,88.500,-86.000
2.127,-32.500,44.000,80.000,-94.500
2.128,-39.500,36.500,72.500,-102.500
2.129,-45.000,30.500,66.000,-109.000
2.130,-49.000,26.500,61.500,-114.500
2.131,-51.000,23.500,58.500,-118.500
2.132,-52.000,22.000,56.500,-121.000
2.133,-52.000,22.000,56.000,-122.000
2.134,-51.000,22.500,57.000,-121.500
2.135,-49.000,24.500,59.000,-119.500
2.136,-46.000,27.000,62.500,-116.000
2.137,-42.500,30.500,66.500,-111.000
2.138,-39.000,34.500,70.500,-106.000
2.139,-35.500,38.500,75.000,-100.500
2.140,-32.000,42.500,79.000,-95.000
2.141,-28.500,46.500,83.500,-89.500
2.142,-25.500,50.000,87.000,-85.000
2.143,-23.000,53.000,90.500,-81.500
2.144,-20.500,55.500,93.000,-78.500
2.145,-19.000,57.000,95.000,-76.500
2.146,-17.500,58.500,96.000,-75.500
2.147,-16.500,59.000,97.000,-75.000
2.148,-16.000,59.500,97.500,-75.500
2.149,-15.000,59.500,97.000,-76.500
2.150,-14.500,60.000,97.000,-77.500
2.151,-13.500,60.500,97.000,-78.500
2.152,-12.500,61.000,97.000,-79.000
2.153,-12.000,61.000,97.000,-79.500
2.154,-11.500,61.500,97.000,-80.000
2.155,-11.000,61.500,97.000,-80.000
2.156,-11.000,61.500,97.000,-79.500
2.157,-11.500,61.500,97.000,-78.500
2.158,-11.500,62.000,97.500,-77.000
2.159,-11.500,62.000,98.500,-75.500
2.160,-11.500,62.500,99.500,-73.500
2.161,-11.500,62.500,100.000,-72.000
2.162,-11.500,63.000,100.500,-71.000
2.163,-11.500,63.000,101.000,-70.000
2.164,-11.500,63.000,101.500,-69.500
2.165,-11.500,63.000,101.500,-69.500
2.166,-12.000,62.500,101.000,-70.000
2.167,-12.000,62.000,100.500,-71.000
2.168,-12.500,61.000,100.000,-72.500
2.169,-12.500,60.500,99.500,-74.000
2.170,-13.000,60.000,99.000,-75.500
2.171,-12.500,60.000,98.500,-76.500
2.172,-12.000,60.000,98.500,-77.000
2.173,-10.500,61.000,99.000,-77.000
2.174,-9.000,62.000,100.000,-76.000
2.175,-8.000,63.500,101.000,-75.000
2.176,-6.500,64.500,102.000,-73.000
2.177,-5.500,66.000,103.000,-71.000
2.178,-5.000,67.500,104.500,-69.000
2.179,-4.000,68.500,106.000,-66.500
2.180,-3.000,69.500,107.500,-64.000
2.181,-3.000,70.000,108.500,-62.000
2.182,-3.000,70.500,109.500,-61.000
2.183,-3.000,70.500,109.500,-60.500
2.184,-3.500,70.000,109.000,-60.500
2.185,-4.500,69.500,108.500,-61.000
2.186,-5.000,68.000,107.500,-62.500
2.187,-6.000,67.000,106.500,-64.500
2.188,-6.500,65.500,105.500,-66.000
2.189,-7.000,65.000,105.000,-67.500
2.190,-6.500,64.500,104.500,-69.000
2.191,-6.500,64.500,104.000,-70.000
2.192,-6.000,64.500,103.500,-71.000
2.193,-5.500,64.500,103.500,-71.500
2.194,-5.000,65.000,103.500,-71.500
2.195,-4.000,66.000,104.500,-70.500
2.196,-2.500,67.500,106.000,-68.000
2.197,-1.000,69.500,108.000,-65.500
2.198,0.500,71.000,110.000,-63.000
2.199,1.500,72.000,111.000,-60.500
2.200,1.500,72.500,112.000,-59.000
2.201,1.000,72.500,112.500,-58.000
2.202,0.000,72.000,112.000,-57.500
2.203,-1.000,71.000,111.500,-58.000
2.204,-2.500,70.000,110.500,-59.000
2.205,-3.500,69.500,110.000,-59.500
2.206,-3.500,69.000,109.000,-60.500
2.207,-4.000,68.500,109.000,-61.500
2.208,-3.500,68.000,108.500,-62.500
2.209,-3.500,67.500,107.500,-63.500
2.210,-3.500,67.000,107.000,-65.500
2.211,-3.000,67.000,106.500,-67.000
2.212,-2.500,66.500,106.000,-68.500
2.213,-2.500,66.500,105.500,-69.000
2.214,-2.000,67.000,105.500,-69.500
2.215,-1.500,67.500,106.000,-68.500
2.216,-0.500,68.500,107.500,-67.000
2.217,1.000,70.000,109.500,-64.500
2.218,2.000,71.500,111.500,-61.500
2.219,3.500,73.000,114.000,-58.500
2.220,4.000,74.000,115.500,-55.500
2.221,4.500,74.500,117.000,-53.500
2.222,4.500,74.500,117.500,-52.500
2.223,4.000,74.500,118.000,-52.000
2.224,4.000,74.500,118.000,-51.500
2.225,4.500,75.000,118.500,-51.000
2.226,5.000,75.500,119.000,-51.500
2.227,6.000,76.000,119.000,-51.500
2.228,6.500,76.500,119.000,-52.000
2.229,7.500,76.500,119.000,-53.000
2.230,8.000,76.500,118.500,-54.500
2.231,8.000,76.500,118.000,-55.500
2.232,9.000,77.000,117.500,-56.500
2.233,9.500,77.000,118.000,-56.500
2.234,10.500,78.000,119.000,-56.000
2.235,12.000,79.000,120.000,-55.000
2.236,13.000,80.500,121.500,-53.000
2.237,14.500,82.000,123.500,-50.500
2.238,16.000,83.500,125.500,-47.500
2.239,17.500,85.500,127.500,-44.000
2.240,18.500,87.000,129.500,-41.000
2.241,20.000,88.500,131.500,-38.500
2.242,21.000,89.500,133.000,-36.000
2.243,22.000,91.000,135.000,-34.000
2.244,23.000,92.000,136.000,-33.000
2.245,24.000,93.000,136.500,-32.500
2.246,24.500,93.000,136.500,-32.500
2.247,24.000,92.500,136.000,-33.500
2.248,24.000,92.000,135.000,-35.000
2.249,24.500,92.000,134.500,-36.000
2.250,25.000,92.000,134.500,-36.500
2.251,26.500,93.000,135.000,-36.500
2.252,28.000,94.000,135.500,-36.500
2.253,29.500,95.000,136.500,-36.000
2.254,31.500,96.500,137.500,-35.000
2.255,33.000,98.000,139.000,-33.500
2.256,35.000,99.500,141.500,-31.000
2.257,37.000,101.500,143.500,-28.000
2.258,39.000,104.000,146.500,-25.000
2.259,41.000,106.500,149.500,-21.000
2.260,43.000,109.000,152.500,-17.000
2.261,45.000,111.500,155.500,-13.000
2.262,46.500,114.000,158.500,-9.500
2.263,48.500,116.500,161.500,-6.500
2.264,50.500,119.000,164.000,-3.500
2.265,53.000,121.500,166.500,-1.000
2.266,55.000,123.500,169.000,1.500
2.267,57.500,125.500,171.000,2.500
2.268,58.500,126.500,172.000,3.000
2.269,59.500,126.500,172.000,2.000
2.270,60.000,126.500,172.000,1.000
2.271,61.000,127.000,171.500,0.500
2.272,62.000,127.500,172.000,0.000
2.273,63.000,128.500,172.500,0.500
2.274,65.000,130.000,174.000,1.500
2.275,67.000,132.500,176.500,4.000
2.276,70.000,135.500,179.500,7.000
2.277,73.000,138.500,183.000,11.500
2.278,76.000,142.000,186.500,16.000
2.279,78.500,145.000,190.500,21.000
2.280,81.000,147.500,193.500,25.500
2.281,83.000,150.000,196.500,29.500
2.282,85.500,152.500,200.000,33.000
2.283,87.500,155.000,203.000,36.500
2.284,90.000,157.500,205.500,39.500
2.285,92.000,159.500,208.000,42.000
2.286,93.500,161.500,210.000,44.000
2.287,95.500,163.000,211.500,45.000
2.288,97.000,164.500,213.000,46.000
2.289,99.500,166.000,214.500,47.000
2.290,102.000,168.000,216.000,48.000
2.291,104.500,170.000,217.500,48.500
2.292,106.500,171.500,219.000,49.500
2.293,109.000,173.500,221.000,51.000
2.294,112.000,176.000,223.500,53.000
2.295,115.500,179.500,227.000,56.500
2.296,119.500,183.500,231.500,61.500
2.297,124.500,189.000,237.000,68.000
2.298,129.500,194.500,243.000,75.000
2.299,134.500,200.000,249.000,82.000
2.300,139.000,205.000,254.500,88.500
2.301,142.500,209.000,259.000,94.000
2.302,145.000,212.500,262.500,98.000
2.303,147.500,215.000,265.500,101.500
2.304,150.000,218.000,268.000,104.500
2.305,153.000,221.000,271.000,107.500
2.306,156.500,224.000,273.500,110.500
2.307,159.500,227.000,276.000,113.000
2.308,162.500,229.500,278.500,114.500
2.309,165.000,232.000,280.500,116.000
2.310,167.500,233.500,282.000,117.000
2.311,170.000,235.500,283.500,117.500
2.312,172.500,237.000,285.500,118.500
2.313,174.500,239.000,287.500,120.000
2.314,177.000,241.500,290.000,122.500
2.315,179.500,244.000,292.500,125.000
2.316,182.500,246.500,295.500,128.500
2.317,184.500,249.500,299.000,132.500
2.318,187.000,252.000,302.000,137.000
2.319,188.500,254.500,305.000,141.000
2.320,190.000,256.500,307.000,144.500
2.321,191.500,258.500,309.500,148.000
2.322,192.500,260.000,311.000,150.500
2.323,194.000,262.000,313.000,153.000
2.324,195.500,263.500,315.000,155.000
2.325,197.000,265.500,317.000,157.000
2.326,198.000,266.000,318.000,158.000
2.327,198.500,266.500,318.500,158.000
2.328,199.000,266.500,318.500,157.500
2.329,199.500,266.500,318.500,156.500
2.330,201.000,266.500,318.500,156.000
2.331,203.000,267.000,319.000,155.500
2.332,204.000,267.500,319.000,154.500
2.333,205.000,267.500,318.500,153.500
2.334,205.500,267.500,318.000,153.000
2.335,205.500,267.500,318.000,152.500
2.336,206.000,268.000,318.500,153.500
2.337,207.500,269.500,319.500,155.000
2.338,208.500,271.000,321.000,158.000
2.339,210.000,273.000,322.500,160.500
2.340,211.000,274.000,324.000,163.000
2.341,211.500,275.000,325.000,164.500
2.342,212.000,275.500,325.500,166.000
2.343,212.000,276.000,325.500,166.500
2.344,211.500,275.500,325.500,166.500
2.345,211.000,274.500,324.500,165.000
2.346,209.000,272.500,323.000,163.000
2.347,206.500,270.000,320.000,159.500
2.348,203.500,266.500,316.500,155.500
2.349,200.000,263.000,313.000,151.000
2.350,196.500,259.500,309.000,146.000
2.351,193.500,256.000,305.500,141.500
2.352,191.000,253.000,302.000,137.500
2.353,188.500,250.000,299.000,134.000
2.354,186.000,247.500,296.000,131.000
2.355,184.000,245.000,294.000,128.500
2.356,182.000,243.000,292.000,126.500
2.357,179.500,240.500,290.000,125.000
2.358,176.000,237.500,287.000,122.500
2.359,172.000,233.500,283.500,120.000
2.360,168.000,229.500,280.000,117.500
2.361,163.500,225.500,276.500,114.500
2.362,159.500,221.500,273.000,111.000
2.363,156.000,218.000,269.500,108.000
2.364,152.000,214.000,265.500,104.000
2.365,148.500,210.000,261.500,99.500
2.366,144.500,205.500,256.500,94.500
2.367,140.000,200.500,251.500,89.000
2.368,135.500,195.500,246.000,83.000
2.369,131.000,190.500,240.500,76.500
2.370,127.000,185.500,235.000,70.000
2.371,122.500,180.500,229.500,64.000
2.372,118.500,176.000,224.000,57.500
2.373,115.000,172.000,219.000,52.500
2.374,111.500,168.000,214.500,48.000
2.375,108.000,164.500,210.500,44.000
2.376,105.000,161.500,207.000,41.000
2.377,101.500,158.000,204.000,38.500
2.378,98.000,155.000,200.500,36.000
2.379,94.500,151.500,197.500,33.500
2.380,90.500,148.000,194.500,31.500
2.381,86.500,144.500,191.500,28.500
2.382,82.500,141.000,188.000,25.500
2.383,78.500,137.500,185.000,22.500
2.384,75.000,134.500,181.500,19.500
2.385,72.000,131.000,178.500,16.000
2.386,68.500,127.500,175.000,12.000
2.387,65.000,123.000,171.000,7.000
2.388,61.000,118.500,166.500,2.000
2.389,57.500,114.000,162.000,-3.500
2.390,53.500,110.000,157.500,-9.000
2.391,50.500,106.500,153.000,-14.000
2.392,47.500,103.000,149.500,-18.500
2.393,45.000,100.000,146.000,-22.500
2.394,43.000,97.000,143.500,-26.000
2.395,41.500,95.000,141.500,-28.000
2.396,40.000,94.000,140.500,-28.500
2.397,39.500,93.500,140.000,-28.500
2.398,38.500,93.000,139.500,-27.500
2.399,37.000,92.000,138.500,-27.500
2.400,35.000,90.000,137.500,-28.000
2.401,32.500,88.000,135.500,-29.000
2.402,31.000,86.000,134.000,-30.000
2.403,29.500,85.000,133.000,-31.000
2.404,28.500,84.000,132.000,-32.500
2.405,27.500,83.000,131.000,-34.000
2.406,26.500,82.000,130.000,-35.500
2.407,25.000,80.500,128.500,-37.500
2.408,24.000,79.000,126.500,-40.000
2.409,22.500,77.500,124.500,-43.000
2.410,21.500,76.000,122.500,-45.500
2.411,21.000,74.500,120.500,-48.000
2.412,20.500,73.500,119.000,-50.000
2.413,20.000,72.500,118.000,-51.500
2.414,20.000,72.000,117.000,-52.500
2.415,19.500,71.500,117.000,-52.500
2.416,19.500,71.500,117.000,-52.000
2.417,19.500,71.500,117.500,-51.500
2.418,19.000,71.500,117.500,-50.500
2.419,18.000,71.000,118.000,-49.500
2.420,17.500,71.000,118.000,-49.000
2.421,16.500,70.500,118.000,-48.500
2.422,16.000,69.500,118.000,-48.500
2.423,15.000,69.000,118.000,-48.500
2.424,14.500,68.000,117.500,-49.000
2.425,13.500,67.000,116.500,-49.500
2.426,13.000,66.000,116.000,-51.000
2.427,12.500,65.500,115.000,-52.000
2.428,12.500,64.500,114.500,-53.500
2.429,12.000,64.000,113.500,-55.000
2.430,12.000,63.500,113.000,-56.500
2.431,12.500,63.000,112.500,-58.000
2.432,12.500,63.000,112.000,-59.500
2.433,13.000,63.000,111.500,-60.000
2.434,13.500,63.000,111.500,-60.500
2.435,13.500,63.500,111.500,-60.500
2.436,13.500,63.500,112.000,-60.000
2.437,13.500,63.500,112.500,-59.000
2.438,13.500,64.000,113.000,-57.500
2.439,13.000,64.000,113.500,-56.500
2.440,12.500,64.000,114.000,-55.500
2.441,12.000,64.000,114.000,-54.000
2.442,12.500,64.500,115.000,-53.000
2.443,13.500,65.000,116.000,-51.500
2.444,14.000,66.000,116.500,-50.500
2.445,14.000,66.000,117.000,-50.500
2.446,14.000,65.500,116.500,-51.500
2.447,13.000,64.500,115.500,-53.000
2.448,11.500,63.000,113.500,-55.500
2.449,10.500,62.000,112.000,-57.500
2.450,10.000,61.000,110.500,-59.500
2.451,9.500,60.000,109.500,-61.500
2.452,9.500,59.500,108.500,-63.000
2.453,10.000,59.500,108.000,-64.000
2.454,10.000,59.500,108.000,-64.500
2.455,10.500,60.000,108.000,-64.000
2.456,11.000,60.500,109.000,-63.000
2.457,12.000,61.500,110.000,-61.000
2.458,13.000,62.500,111.000,-59.000
2.459,13.500,63.000,112.000,-57.000
2.460,14.000,64.000,113.500,-55.000
2.461,14.000,64.500,114.500,-53.000
2.462,14.000,64.500,115.000,-52.000
2.463,13.500,64.500,115.500,-52.000
2.464,13.000,64.000,115.500,-52.000
2.465,13.000,64.000,115.500,-52.000
2.466,13.500,64.500,115.500,-53.000
2.467,13.500,64.000,115.000,-54.000
2.468,13.000,63.500,114.000,-55.500
2.469,12.000,62.000,112.000,-58.000
2.470,10.500,59.500,109.500,-61.500
2.471,9.000,57.500,107.000,-64.500
2.472,7.500,56.000,105.500,-67.000
2.473,7.000,55.500,104.500,-68.500
2.474,8.000,56.000,105.000,-68.000
2.475,9.000,57.500,106.500,-66.500
2.476,11.000,59.500,109.000,-64.000
2.477,13.000,62.000,111.500,-61.000
2.478,14.500,63.500,114.000,-58.000
2.479,15.500,65.000,115.500,-55.500
2.480,15.500,66.000,116.500,-53.000
2.481,15.500,66.500,117.500,-51.000
2.482,16.000,67.000,118.500,-50.000
2.483,16.000,67.500,119.000,-49.000
2.484,15.500,67.500,119.000,-48.500
2.485,15.500,67.500,119.000,-48.500
2.486,15.000,67.000,118.500,-49.500
2.487,14.500,66.000,117.500,-51.000
2.488,14.500,65.000,116.500,-53.000
2.489,14.000,64.000,115.000,-55.000
2.490,13.500,63.000,113.500,-57.500
2.491,13.000,62.000,112.000,-59.500
2.492,13.000,61.500,111.500,-61.500
2.493,13.000,61.500,111.000,-62.500
2.494,13.500,62.000,111.500,-62.500
2.495,14.000,62.500,112.000,-62.000
2.496,14.500,63.000,112.500,-61.000
2.497,14.500,63.500,113.500,-59.500
2.498,14.500,64.000,114.000,-57.500
2.499,14.500,64.000,114.500,-56.000
2.500,14.500,64.500,115.500,-54.000
2.501,14.500,65.000,116.500,-52.500
2.502,14.500,65.500,117.000,-51.000
2.503,14.500,65.500,117.000,-50.500
2.504,14.000,65.000,117.000,-51.000
2.505,13.500,64.500,116.500,-51.500
2.506,13.500,64.000,116.000,-53.000
2.507,13.000,63.500,115.500,-54.000
2.508,13.000,63.500,115.000,-55.000
2.509,13.000,63.000,114.500,-56.500
2.510,13.000,62.500,113.500,-58.000
2.511,13.000,62.000,113.000,-59.500
2.512,13.500,61.500,112.500,-60.500
2.513,14.000,62.000,112.500,-61.000
2.514,14.500,62.000,112.500,-61.000
2.515,14.500,62.000,113.000,-60.500
2.516,14.500,62.000,113.000,-60.500
2.517,14.000,62.000,113.000,-59.500
2.518,14.000,62.000,113.500,-58.500
2.519,14.000,62.500,114.500,-56.500
2.520,14.500,63.500,115.500,-55.000
2.521,15.000,64.500,117.000,-53.000
2.522,16.000,65.000,117.500,-51.000
2.523,16.500,66.000,118.500,-50.000
2.524,16.500,66.000,118.000,-49.500
2.525,15.500,65.000,117.000,-50.000
2.526,14.500,63.500,115.500,-52.000
2.527,13.000,62.000,114.000,-54.000
2.528,12.000,60.500,113.000,-56.000
2.529,11.500,59.500,111.500,-58.000
2.530,10.500,58.500,110.000,-60.000
2.531,10.000,57.000,109.000,-62.000
2.532,9.500,56.500,107.500,-64.000
2.533,9.500,56.000,107.000,-65.000
2.534,10.500,56.500,107.500,-64.500
2.535,11.500,57.500,108.500,-63.500
2.536,13.000,59.000,110.000,-62.000
2.537,14.000,60.000,111.000,-60.000
2.538,14.500,61.000,112.000,-58.000
2.539,14.500,61.500,113.000,-56.500
2.540,14.500,62.000,114.000,-54.500
2.541,14.500,62.000,114.500,-53.500
2.542,14.500,62.000,115.000,-52.500
2.543,14.500,62.000,115.500,-52.000
2.544,13.500,61.000,115.000,-52.000
2.545,12.500,60.000,114.000,-53.000
2.546,11.000,58.500,113.000,-54.500
2.547,10.000,57.000,111.000,-56.500
2.548,8.500,55.500,109.500,-59.000
2.549,8.000,54.000,108.000,-61.500
2.550,7.500,53.000,106.500,-63.500
2.551,8.000,52.500,105.500,-65.500
2.552,8.000,52.500,105.000,-67.000
2.553,8.500,52.500,105.000,-67.500
2.554,9.000,53.000,105.000,-67.500
2.555,9.500,53.000,105.000,-67.000
2.556,10.000,53.500,105.500,-66.000
2.557,10.500,54.000,107.000,-64.500
2.558,11.500,55.000,108.500,-62.000
2.559,12.500,56.500,110.000,-59.000
2.560,13.500,57.500,111.500,-56.500
2.561,14.000,58.500,112.500,-54.500
2.562,14.000,58.500,113.000,-53.500
2.563,13.500,58.500,113.000,-53.000
2.564,13.000,58.000,113.000,-53.000
2.565,12.500,58.000,112.500,-53.500
2.566,12.000,57.500,112.000,-54.500
2.567,11.000,56.500,111.000,-56.000
2.568,10.000,55.000,109.500,-58.500
2.569,8.500,53.000,107.500,-61.500
2.570,8.000,52.000,106.000,-63.500
2.571,8.500,52.000,105.500,-65.000
2.572,9.500,52.500,105.500,-65.500
2.573,10.000,53.000,106.000,-65.500
2.574,10.500,53.000,106.000,-66.000
2.575,10.500,53.000,106.000,-66.000
2.576,10.500,53.500,106.500,-65.000
2.577,11.000,54.500,107.500,-63.000
2.578,12.500,55.500,109.000,-60.500
2.579,13.500,57.000,111.000,-57.500
2.580,14.000,58.000,112.000,-55.500
2.581,13.500,58.000,112.500,-54.500
2.582,12.500,57.000,111.500,-54.500
2.583,11.000,56.000,111.000,-55.000
2.584,10.500,55.000,110.500,-55.500
2.585,10.000,54.500,110.500,-56.000
2.586,9.500,53.500,110.000,-57.000
2.587,9.500,53.000,109.500,-58.500
2.588,9.500,53.000,109.000,-59.500
2.589,10.000,53.000,108.500,-60.500
2.590,10.500,53.000,108.500,-61.500
2.591,10.500,53.000,108.000,-63.000
2.592,10.500,52.500,107.000,-64.500
2.593,10.000,51.500,106.000,-66.000
2.594,9.500,51.500,105.500,-66.500
2.595,10.000,51.500,106.000,-66.000
2.596,11.500,53.000,107.000,-64.500
2.597,13.500,55.000,109.500,-61.000
2.598,15.500,57.500,112.000,-57.500
2.599,17.000,59.500,114.500,-54.000
2.600,17.000,60.500,115.500,-51.500
2.601,16.500,60.000,115.500,-51.000
2.602,15.000,59.000,114.500,-51.500
2.603,13.000,57.000,113.500,-53.000
2.604,11.500,55.500,112.000,-54.500
2.605,10.000,54.000,110.500,-56.000
2.606,8.500,52.500,109.000,-58.000
2.607,7.500,51.500,108.000,-60.000
2.608,7.000,50.500,106.500,-61.500
2.609,7.000,49.500,105.500,-63.500
2.610,6.500,49.000,104.500,-65.000
2.611,6.500,48.500,103.500,-67.000
2.612,7.000,48.500,103.500,-67.500
2.613,8.500,49.500,104.500,-67.000
2.614,11.000,51.500,106.500,-65.000
2.615,13.500,54.500,109.500,-62.000
2.616,16.500,57.500,112.000,-58.500
2.617,18.000,59.500,114.500,-55.500
2.618,19.000,61.000,115.500,-53.000
2.619,18.500,61.000,116.000,-52.000
2.620,17.500,60.500,116.000,-51.000
2.621,17.000,60.000,116.500,-50.500
2.622,17.500,61.000,117.500,-49.000
2.623,19.500,62.500,119.500,-46.500
2.624,21.000,64.500,121.500,-44.500
2.625,23.000,66.500,123.500,-42.500
2.626,25.000,68.500,125.000,-41.000
2.627,26.500,69.500,126.000,-40.000
2.628,27.500,71.000,127.000,-40.000
2.629,28.500,71.500,127.000,-40.000
2.630,29.500,72.000,127.500,-40.500
2.631,30.500,72.500,128.000,-41.000
2.632,32.000,73.500,129.000,-41.000
2.633,34.000,75.000,130.500,-40.000
2.634,36.000,76.500,132.000,-39.000
2.635,37.500,77.500,133.000,-37.500
2.636,38.000,78.500,134.000,-36.500
2.637,39.000,79.500,135.000,-35.000
2.638,40.000,81.000,137.000,-32.000
2.639,41.500,83.000,139.500,-28.500
2.640,43.500,85.500,142.000,-25.000
2.641,45.500,87.500,145.000,-22.000
2.642,47.000,89.500,147.000,-19.500
2.643,48.000,91.000,149.000,-17.500
2.644,48.500,92.000,150.000,-16.500
2.645,49.000,92.500,150.500,-16.000
2.646,49.000,92.500,150.500,-16.000
2.647,49.000,92.500,150.500,-16.500
2.648,50.000,93.500,151.000,-16.500
2.649,52.000,95.000,152.000,-16.000
2.650,54.000,96.500,153.500,-15.000
2.651,56.000,98.000,154.500,-15.000
2.652,58.000,99.500,155.500,-14.500
2.653,59.500,101.000,156.500,-14.000
2.654,61.500,103.000,158.000,-12.500
2.655,63.500,105.000,160.500,-10.000
2.656,65.500,107.500,163.000,-7.000
2.657,67.500,109.500,165.000,-4.500
2.658,68.000,110.500,166.500,-1.500
2.659,68.500,111.000,168.000,0.500
2.660,68.500,111.500,169.000,2.500
2.661,69.000,112.000,170.000,4.500
2.662,69.500,113.000,171.500,6.500
2.663,70.500,114.500,173.500,9.000
2.664,71.500,116.000,175.500,10.500
2.665,72.500,117.000,176.500,11.500
2.666,72.500,117.000,176.500,11.000
2.667,72.000,116.500,175.500,9.500
2.668,71.000,115.000,174.000,7.000
2.669,70.000,113.500,172.500,4.500
2.670,68.500,112.000,170.500,2.000
2.671,67.500,110.500,168.500,-1.000
2.672,66.000,108.500,166.500,-3.500
2.673,65.000,107.500,165.500,-5.500
2.674,64.500,107.000,164.500,-6.000
2.675,65.000,107.000,165.500,-5.500
2.676,66.500,109.000,167.500,-3.000
2.677,69.500,112.000,170.500,1.000
2.678,72.000,115.000,173.500,5.000
2.679,73.500,116.500,175.500,8.000
2.680,73.000,117.000,176.000,9.500
2.681,71.500,116.000,175.500,9.000
2.682,70.000,114.500,174.500,8.500
2.683,69.000,113.500,174.000,8.000
2.684,68.500,113.000,173.500,7.500
2.685,67.000,111.500,171.500,5.500
2.686,64.000,109.000,168.500,2.500
2.687,60.000,105.000,164.500,-2.500
2.688,55.500,100.000,159.500,-8.000
2.689,51.000,95.000,154.000,-14.000
2.690,46.500,90.500,149.000,-20.000
2.691,43.000,86.000,144.500,-26.000
2.692,39.500,82.500,141.000,-30.500
2.693,37.500,80.000,138.000,-34.500
2.694,35.500,77.500,135.500,-37.000
2.695,34.000,76.000,134.000,-38.500
2.696,32.500,74.500,132.500,-39.500
2.697,31.000,73.500,131.500,-40.000
2.698,29.500,72.500,130.500,-39.500
2.699,28.500,71.500,130.000,-39.000
2.700,27.000,71.000,129.500,-38.500
2.701,25.500,70.000,129.000,-38.500
2.702,23.500,68.000,127.500,-39.500
2.703,21.000,65.500,125.000,-41.500
2.704,18.000,62.500,122.500,-44.500
2.705,15.500,59.500,119.500,-47.500
2.706,13.000,57.000,117.000,-50.500
2.707,10.500,54.500,114.000,-53.500
2.708,8.500,52.000,111.500,-57.000
2.709,7.000,49.500,109.000,-60.500
2.710,6.000,48.000,106.500,-63.500
2.711,4.500,46.000,104.500,-66.500
2.712,4.000,45.000,103.000,-69.000
2.713,3.000,44.000,102.000,-71.000
2.714,3.000,43.500,101.500,-71.500
2.715,2.500,43.500,101.000,-71.500
2.716,2.500,43.500,101.000,-71.000
2.717,2.500,44.000,101.500,-70.000
2.718,3.000,44.500,102.500,-68.000
2.719,3.500,45.500,103.500,-65.500
2.720,4.000,46.500,105.000,-63.500
2.721,4.500,47.000,106.000,-62.000
2.722,4.500,48.000,107.000,-60.500
2.723,5.000,48.500,108.000,-59.500
2.724,5.000,49.000,108.500,-59.000
2.725,5.500,49.000,109.000,-58.500
2.726,5.000,49.000,108.500,-59.500
2.727,4.000,48.000,107.000,-61.000
2.728,3.000,46.500,105.500,-63.500
2.729,2.000,45.500,104.500,-65.500
2.730,2.000,44.500,103.500,-67.500
2.731,2.500,44.500,103.000,-69.000
2.732,2.500,44.000,102.500,-71.000
2.733,2.000,43.500,101.500,-72.500
2.734,1.500,42.500,100.500,-74.000
2.735,0.500,41.500,99.500,-75.000
2.736,-1.000,40.500,98.500,-75.500
2.737,-2.500,39.500,98.000,-75.500
2.738,-3.500,39.000,97.500,-75.000
2.739,-5.000,38.500,97.000,-74.000
2.740,-6.000,37.500,97.000,-73.500
2.741,-7.500,36.500,96.000,-73.500
2.742,-9.500,34.500,94.500,-74.500
2.743,-12.000,32.000,92.000,-76.500
2.744,-15.000,29.000,89.000,-79.500
2.745,-18.000,25.500,85.500,-83.500
2.746,-21.000,22.000,82.000,-87.500
2.747,-23.500,19.500,78.500,-91.000
2.748,-25.000,17.500,76.500,-94.000
2.749,-24.500,17.500,76.000,-95.500
2.750,-22.000,19.500,77.500,-95.000
2.751,-17.000,23.500,82.000,-91.500
2.752,-10.000,30.000,88.500,-86.000
2.753,-1.000,38.500,97.000,-78.000
2.754,8.500,48.000,107.000,-68.000
2.755,19.000,59.000,118.000,-56.500
2.756,29.500,70.500,129.500,-44.000
2.757,40.500,82.500,142.000,-30.000
2.758,51.000,94.500,154.500,-16.500
2.759,61.000,105.500,166.500,-3.000
2.760,71.500,117.000,178.500,11.000
2.761,83.000,129.500,192.500,25.500
2.762,98.000,145.500,209.000,43.000
2.763,116.500,164.500,229.500,64.000
2.764,138.000,186.500,252.500,88.000
2.765,162.000,211.000,278.000,114.000
2.766,187.000,236.500,304.500,140.500
2.767,212.500,262.500,331.000,167.500
2.768,238.500,288.500,358.000,194.000
2.769,266.000,316.500,386.500,222.000
2.770,296.000,346.500,417.000,252.500
2.771,328.500,379.000,450.000,285.500
2.772,363.500,414.000,485.500,321.000
2.773,400.000,451.000,523.500,358.500
2.774,437.500,489.000,562.000,398.000
2.775,474.500,527.000,600.500,437.500
2.776,509.500,563.000,637.000,475.000
2.777,539.500,594.000,668.500,507.500
2.778,561.500,616.000,691.000,531.000
2.779,571.000,626.500,701.500,542.000
2.780,567.000,622.500,697.500,538.000
2.781,548.000,603.500,678.500,518.500
2.782,517.500,572.000,646.500,485.500
2.783,479.000,533.000,606.500,444.000
2.784,437.000,490.000,562.500,398.500
2.785,394.500,446.000,517.500,352.000
2.786,353.500,404.000,474.000,306.500
2.787,315.000,364.000,433.000,264.000
2.788,279.000,327.500,395.000,225.000
2.789,246.000,293.000,359.000,188.000
2.790,214.000,260.000,325.000,152.000
2.791,182.500,227.500,291.500,117.000
2.792,152.000,195.500,259.000,83.000
2.793,122.000,164.500,227.500,50.500
2.794,94.000,136.000,198.500,20.500
2.795,69.500,110.500,173.000,-5.000
2.796,48.500,89.500,152.000,-25.500
2.797,31.500,72.500,135.000,-41.500
2.798,17.000,58.000,121.000,-54.500
2.799,4.000,45.500,108.500,-65.500
2.800,-8.500,34.000,97.000,-76.000
2.801,-19.500,23.000,86.500,-86.000
2.802,-29.500,13.500,77.000,-95.500
2.803,-38.500,4.500,68.500,-104.000
2.804,-46.500,-3.500,60.500,-112.500
2.805,-54.000,-11.000,53.000,-120.000
2.806,-60.000,-17.500,45.500,-127.500
2.807,-65.500,-23.500,39.500,-134.500
2.808,-70.000,-28.500,34.000,-140.000
2.809,-73.000,-31.500,30.500,-144.500
2.810,-74.000,-33.000,29.000,-147.000
2.811,-73.000,-32.500,29.000,-147.500
2.812,-71.000,-31.000,31.000,-146.500
2.813,-68.500,-28.000,34.000,-144.000
2.814,-65.000,-25.000,37.500,-140.500
2.815,-61.500,-21.000,41.500,-136.000
2.816,-58.000,-17.000,46.000,-131.500
2.817,-54.000,-13.000,50.500,-126.000
2.818,-50.000,-8.500,55.500,-120.000
2.819,-46.000,-4.000,60.000,-114.000
2.820,-42.500,0.500,64.500,-108.500
2.821,-39.500,4.000,68.500,-103.500
2.822,-37.500,6.500,71.000,-100.000
2.823,-36.000,8.000,73.000,-98.000
2.824,-36.000,8.500,73.500,-97.000
2.825,-36.000,8.500,74.000,-97.000
2.826,-36.000,8.500,73.500,-97.500
2.827,-35.500,8.500,74.000,-98.000
2.828,-34.500,9.500,74.500,-98.000
2.829,-33.000,10.500,75.000,-98.000
2.830,-31.000,11.500,75.500,-98.500
2.831,-29.500,12.000,76.500,-99.000
2.832,-28.500,12.500,76.500,-99.500
2.833,-28.000,12.500,77.000,-100.000
2.834,-27.500,13.000,77.000,-100.500
2.835,-27.500,13.500,77.500,-100.000
2.836,-27.000,14.000,78.000,-99.000
2.837,-27.000,15.000,79.000,-97.500
2.838,-26.500,15.500,80.000,-95.500
2.839,-27.000,15.500,80.500,-94.000
2.840,-27.500,15.500,81.000,-92.500
2.841,-28.000,15.500,81.000,-92.000
2.842,-29.000,15.000,81.000,-91.500
2.843,-30.000,14.500,80.500,-92.000
2.844,-31.000,14.000,80.500,-92.500
2.845,-31.000,13.500,80.500,-92.500
2.846,-31.000,14.000,81.000,-93.000
2.847,-30.000,15.000,81.500,-93.000
2.848,-28.500,15.500,82.000,-93.000
2.849,-27.500,16.500,82.500,-93.500
2.850,-27.000,16.000,82.000,-95.000
2.851,-27.000,15.500,81.000,-96.500
2.852,-27.000,15.500,80.500,-98.000
2.853,-26.500,15.500,80.500,-98.500
2.854,-25.500,16.000,81.000,-98.000
2.855,-24.500,17.000,82.000,-96.500
2.856,-23.500,18.000,83.500,-94.500
2.857,-23.000,19.000,84.500,-93.000
2.858,-23.500,19.000,85.500,-91.500
2.859,-24.000,18.500,85.500,-90.000
2.860,-25.000,18.500,85.500,-89.000
2.861,-25.500,18.500,85.500,-88.000
2.862,-25.500,18.500,86.000,-87.000
2.863,-25.000,19.000,87.000,-86.500
2.864,-25.000,19.500,87.000,-86.000
2.865,-25.000,19.500,87.500,-86.000
2.866,-25.000,19.500,87.000,-86.500
2.867,-25.000,19.500,87.000,-87.500
2.868,-25.000,19.500,86.500,-88.500
2.869,-24.500,19.500,86.500,-89.500
2.870,-24.000,19.500,86.000,-91.000
2.871,-23.500,19.500,86.000,-91.500
2.872,-23.000,19.500,86.000,-92.500
2.873,-23.000,19.500,86.000,-93.000
2.874,-23.500,19.500,85.500,-93.500
2.875,-24.000,19.000,85.500,-93.500
2.876,-24.000,19.000,85.500,-93.000
2.877,-24.000,19.000,86.000,-92.000
2.878,-24.000,20.000,87.000,-90.000
2.879,-23.000,20.500,88.500,-87.500
2.880,-22.500,21.500,89.500,-85.000
2.881,-21.500,22.500,91.000,-83.000
2.882,-21.500,23.000,91.500,-82.000
2.883,-21.500,23.000,92.000,-81.500
2.884,-22.000,22.500,91.500,-82.000
2.885,-22.500,22.000,91.000,-83.000
2.886,-23.500,21.000,90.500,-84.000
2.887,-23.500,21.000,90.000,-84.500
2.888,-22.500,21.000,90.000,-85.000
2.889,-22.000,21.500,90.500,-85.500
2.890,-21.000,22.000,90.500,-86.000
2.891,-20.500,22.000,90.000,-86.500
2.892,-20.000,22.500,90.000,-87.500
2.893,-19.000,23.000,90.500,-87.500
2.894,-18.000,24.000,91.500,-86.500
2.895,-16.500,26.000,93.000,-84.500
2.896,-14.500,27.500,94.500,-82.000
2.897,-13.500,29.000,96.000,-79.500
2.898,-12.500,30.500,97.500,-77.500
2.899,-12.500,30.500,98.000,-76.000
2.900,-13.000,31.000,99.000,-75.000
2.901,-13.500,30.500,99.000,-74.000
2.902,-13.500,30.500,99.500,-73.500
2.903,-14.000,31.000,100.000,-72.500
2.904,-13.500,31.000,100.500,-72.000
2.905,-13.000,32.000,101.500,-71.000
2.906,-12.500,32.500,102.000,-71.000
2.907,-12.000,32.500,102.500,-71.000
2.908,-12.000,32.500,102.500,-72.000
2.909,-11.500,32.000,102.000,-73.000
2.910,-11.500,31.500,101.500,-74.500
2.911,-11.500,31.000,100.500,-76.000
2.912,-11.500,31.000,100.000,-77.500
2.913,-10.500,31.500,100.500,-77.500
2.914,-9.500,32.500,101.000,-77.000
2.915,-8.000,34.000,102.000,-75.500
2.916,-7.000,35.000,103.500,-73.500
2.917,-6.000,36.500,105.000,-71.000
2.918,-5.000,38.000,107.500,-68.000
2.919,-4.000,40.000,109.500,-65.000
2.920,-3.500,41.000,111.000,-62.500
2.921,-3.000,42.000,112.500,-60.500
2.922,-3.000,42.000,113.000,-59.500
2.923,-3.000,42.500,114.000,-59.000
2.924,-2.000,43.000,114.500,-58.500
2.925,-1.500,43.500,115.500,-58.000
2.926,0.000,44.500,116.500,-57.500
2.927,1.500,46.000,117.500,-57.000
2.928,3.000,47.500,118.500,-56.500
2.929,4.500,48.500,119.500,-56.500
2.930,5.500,49.500,120.000,-56.500
2.931,6.000,50.000,120.500,-57.000
2.932,7.000,50.500,120.500,-57.500
2.933,8.000,51.000,121.500,-57.000
2.934,9.000,52.000,122.500,-56.000
2.935,10.500,53.000,123.500,-54.500
2.936,11.500,54.500,125.500,-52.000
2.937,13.000,56.500,127.500,-49.500
2.938,15.000,58.500,130.000,-46.000
2.939,16.500,61.000,133.000,-42.000
2.940,19.000,63.500,136.000,-38.000
2.941,21.000,66.500,139.000,-34.500
2.942,22.500,68.500,141.500,-31.500
2.943,23.500,70.000,143.500,-30.000
2.944,24.500,70.500,144.000,-29.000
2.945,24.500,71.000,145.000,-28.500
2.946,25.500,71.500,145.500,-28.500
2.947,26.000,72.000,146.000,-28.500
2.948,27.500,73.000,147.000,-28.000
2.949,29.000,74.500,148.000,-28.000
2.950,30.500,75.500,149.000,-27.500
2.951,32.500,77.500,150.000,-27.000
2.952,35.000,79.500,152.000,-25.500
2.953,38.000,82.000,154.500,-23.500
2.954,40.500,85.000,157.500,-21.000
2.955,43.500,88.000,160.500,-17.500
2.956,46.000,91.000,164.000,-14.000
2.957,49.000,94.000,167.500,-9.500
2.958,52.000,97.500,171.000,-4.500
2.959,55.000,101.000,175.000,0.500
2.960,57.500,104.500,178.500,5.500
2.961,59.500,107.000,181.000,9.000
2.962,61.000,109.000,183.500,12.000
2.963,62.500,111.000,185.500,14.500
2.964,63.500,112.500,187.500,16.500
2.965,65.500,114.500,190.000,18.000
2.966,67.500,117.000,192.000,20.000
2.967,70.000,119.500,194.500,22.000
2.968,73.000,122.000,197.500,24.000
2.969,75.500,124.500,200.000,25.500
2.970,78.500,127.000,202.000,27.500
2.971,81.500,130.000,204.500,29.000
2.972,84.500,132.500,207.500,31.000
2.973,88.000,136.000,211.000,34.000
2.974,92.000,139.500,214.500,37.500
2.975,96.000,143.500,218.500,41.500
2.976,100.000,148.000,223.500,47.000
2.977,104.500,153.000,229.000,53.000
2.978,109.500,158.500,235.000,60.000
2.979,114.500,164.500,241.000,67.000
2.980,118.500,169.000,246.500,73.500
2.981,121.500,173.000,251.000,78.500
2.982,123.000,175.000,253.500,81.500
2.983,124.000,176.000,255.500,83.500
2.984,124.500,177.000,256.500,84.500
2.985,126.000,178.500,258.000,86.000
2.986,127.500,180.000,259.500,87.500
2.987,129.500,182.000,261.500,89.000
2.988,131.500,184.500,263.500,90.500
2.989,134.500,186.500,265.500,91.500
2.990,137.000,189.500,268.000,93.000
2.991,140.000,192.000,270.500,94.500
2.992,142.500,194.500,272.500,96.000
2.993,145.000,196.500,274.500,98.000
2.994,147.000,198.500,276.500,100.000
2.995,149.500,201.000,279.000,102.500
2.996,152.000,204.000,281.500,106.000
2.997,155.000,207.000,284.500,110.000
2.998,157.000,210.000,287.500,114.000
2.999,159.500,213.000,290.000,118.000
3.000,161.000,215.000,292.500,121.500
3.001,162.500,217.000,295.000,124.500
3.002,164.000,219.000,297.500,127.500
3.003,165.500,221.000,299.500,130.000
3.004,167.500,223.000,301.500,132.000
3.005,168.500,224.000,303.000,133.500
3.006,169.000,225.000,303.500,133.500
3.007,169.500,225.000,303.500,133.000
3.008,169.500,225.000,303.000,132.500
3.009,170.000,224.500,303.000,131.500
3.010,170.500,224.500,303.000,131.000
3.011,171.000,225.000,303.000,130.500
3.012,171.500,225.500,303.000,130.000
3.013,172.500,226.500,304.000,130.500
3.014,173.500,227.500,304.500,131.500
3.015,175.000,228.500,306.000,133.000
3.016,176.000,230.000,307.500,135.000
3.017,177.000,231.500,308.500,137.000
3.018,177.500,232.500,309.500,139.500
3.019,177.500,232.500,310.000,141.000
3.020,176.500,232.500,310.500,142.000
3.021,175.500,232.000,310.000,142.000
3.022,175.000,231.500,309.000,142.000
3.023,174.000,230.500,308.000,141.000
3.024,173.000,229.500,307.000,139.500
3.025,171.500,228.000,304.500,137.500
3.026,169.000,225.000,301.500,134.000
3.027,165.500,221.000,297.500,129.500
3.028,161.000,217.000,293.000,124.000
3.029,157.000,212.000,288.000,118.500
3.030,153.000,207.500,283.500,112.500
3.031,149.500,203.500,279.000,107.500
3.032,145.500,199.000,275.000,102.000
3.033,142.000,195.500,271.000,97.500
3.034,138.500,191.500,267.000,93.500
3.035,135.000,188.500,263.500,90.000
3.036,131.500,185.500,260.500,87.500
3.037,128.500,183.000,258.000,85.500
3.038,125.500,180.000,255.500,84.000
3.039,122.000,177.000,252.500,81.500
3.040,118.000,173.000,248.500,79.000
3.041,113.500,169.000,244.500,75.500
3.042,108.500,164.500,240.000,71.000
3.043,104.000,159.500,235.500,66.500
3.044,99.000,155.000,230.500,61.500
3.045,94.500,150.500,225.500,57.000
3.046,90.500,146.500,221.000,52.000
3.047,87.000,142.500,217.000,47.000
3.048,83.500,138.500,212.500,41.500
3.049,79.500,134.000,207.500,35.500
3.050,75.000,129.000,202.500,29.000
3.051,70.500,124.000,197.000,22.500
3.052,66.000,119.500,192.000,16.500
3.053,61.500,114.500,187.500,11.500
3.054,57.500,110.500,183.000,7.000
3.055,54.000,107.000,180.000,3.500
3.056,51.500,104.500,177.500,1.500
3.057,49.000,102.500,175.500,0.500
3.058,47.000,100.500,174.000,-0.500
3.059,44.500,98.500,171.500,-1.500
3.060,41.000,96.000,169.000,-3.000
3.061,38.000,93.000,165.500,-5.500
3.062,34.500,90.000,162.500,-8.000
3.063,31.000,87.000,160.000,-11.000
3.064,28.000,84.000,157.000,-14.500
3.065,24.500,80.500,154.000,-18.500
3.066,20.500,76.500,150.000,-23.000
3.067,17.000,73.000,146.000,-27.500
3.068,13.500,69.000,142.500,-32.000
3.069,10.500,66.000,138.500,-36.500
3.070,8.000,63.000,135.000,-41.000
3.071,5.500,60.000,131.500,-45.000
3.072,3.000,57.000,128.500,-49.000
3.073,0.500,54.000,125.000,-53.000
3.074,-1.500,51.500,123.000,-55.500
3.075,-3.000,50.500,122.000,-57.000
3.076,-4.000,50.000,122.000,-57.000
3.077,-5.000,49.500,122.000,-56.500
3.078,-6.000,49.500,122.000,-55.500
3.079,-7.500,48.500,121.500,-55.000
3.080,-8.500,47.500,121.000,-55.000
3.081,-10.000,47.000,120.000,-55.000
3.082,-11.500,46.000,119.000,-55.500
3.083,-12.500,44.500,118.000,-56.500
3.084,-14.000,43.500,117.000,-58.000
3.085,-15.500,42.000,115.500,-60.000
3.086,-17.000,40.500,113.500,-62.000
3.087,-19.000,38.500,111.500,-65.000
3.088,-20.500,36.500,109.000,-68.500
3.089,-22.000,34.500,106.500,-71.500
3.090,-23.500,33.000,104.000,-74.500
3.091,-24.500,31.500,102.000,-77.000
3.092,-25.500,30.000,100.000,-79.500
3.093,-27.000,28.500,98.500,-81.500
3.094,-28.000,27.000,97.500,-83.000
3.095,-29.500,26.000,96.500,-83.500
3.096,-30.000,25.500,96.500,-83.000
3.097,-30.500,25.500,96.500,-82.000
3.098,-30.500,25.500,97.500,-80.500
3.099,-30.500,26.000,98.500,-78.500
3.100,-30.500,27.000,99.500,-76.500
3.101,-30.000,28.000,101.000,-74.500
3.102,-29.500,28.500,102.000,-73.500
3.103,-29.500,28.500,102.000,-73.000
3.104,-31.000,27.000,101.000,-74.500
3.105,-33.000,25.000,99.000,-77.000
3.106,-34.500,23.000,97.500,-79.500
3.107,-35.500,22.000,96.000,-81.000
3.108,-35.500,21.500,95.500,-82.500
3.109,-35.000,21.500,95.000,-84.000
3.110,-35.500,20.500,93.500,-86.000
3.111,-36.000,20.000,92.000,-88.000
3.112,-36.000,19.000,91.000,-90.000
3.113,-36.500,18.500,90.500,-90.500
3.114,-36.500,18.500,90.000,-91.000
3.115,-36.500,18.500,90.000,-90.500
3.116,-37.000,18.500,90.500,-89.500
3.117,-37.000,19.000,91.000,-88.000
3.118,-37.000,19.500,91.500,-86.500
3.119,-37.500,19.500,92.000,-85.000
3.120,-38.000,19.500,92.000,-84.000
3.121,-39.000,19.000,92.000,-83.500
3.122,-39.500,18.500,92.000,-83.000
3.123,-40.000,18.000,92.000,-82.500
3.124,-41.000,17.500,92.000,-83.000
3.125,-42.000,16.500,91.000,-83.500
3.126,-43.000,15.500,90.000,-85.000
3.127,-44.000,14.000,88.500,-87.000
3.128,-44.500,13.000,87.000,-89.000
3.129,-45.000,12.000,85.500,-91.000
3.130,-45.500,11.000,84.500,-93.000
3.131,-46.000,10.500,83.500,-95.000
3.132,-46.000,10.000,83.000,-96.500
3.133,-46.000,10.000,82.500,-97.500
3.134,-46.000,10.500,83.000,-97.500
3.135,-45.500,11.000,84.000,-96.500
3.136,-45.000,12.500,85.500,-94.500
3.137,-44.000,14.000,87.000,-91.500
3.138,-43.000,15.500,89.000,-89.000
3.139,-42.000,16.500,90.500,-86.000
3.140,-41.500,17.500,91.500,-84.000
3.141,-41.000,18.000,92.500,-82.500
3.142,-41.000,18.500,93.000,-82.000
3.143,-41.500,18.000,93.000,-82.000
3.144,-42.000,17.500,93.000,-82.500
3.145,-43.000,17.000,92.000,-83.500
3.146,-44.500,16.000,90.500,-85.000
3.147,-45.500,14.500,89.000,-87.000
3.148,-47.500,12.500,86.500,-90.000
3.149,-49.000,11.000,84.500,-92.500
3.150,-49.500,10.000,83.000,-95.000
3.151,-50.000,9.500,82.000,-97.000
3.152,-50.000,9.500,81.000,-98.000
3.153,-49.500,9.500,81.000,-98.500
3.154,-49.000,10.000,81.500,-98.500
3.155,-48.000,11.000,82.500,-97.500
3.156,-47.500,12.000,83.500,-96.000
3.157,-47.500,13.000,84.500,-94.000
3.158,-47.500,13.000,85.500,-92.000
3.159,-48.000,13.500,86.000,-90.500
3.160,-48.000,14.000,87.000,-88.500
3.161,-48.000,14.500,87.500,-87.000
3.162,-47.500,15.000,88.500,-86.000
3.163,-47.500,15.500,89.500,-85.000
3.164,-46.500,16.500,90.500,-84.000
3.165,-46.000,17.000,91.000,-84.000
3.166,-46.000,17.000,91.000,-84.500
3.167,-45.500,17.000,90.500,-85.500
3.168,-46.000,16.500,90.000,-87.000
3.169,-46.500,16.000,89.000,-88.500
3.170,-47.000,15.000,88.000,-90.500
3.171,-48.000,14.000,86.500,-92.500
3.172,-48.500,13.000,85.500,-94.000
3.173,-49.000,12.500,85.000,-95.500
3.174,-49.500,12.000,84.500,-96.000
3.175,-50.000,12.000,84.000,-96.000
3.176,-50.000,12.000,84.000,-95.500
3.177,-50.000,12.500,84.000,-94.000
3.178,-50.000,13.000,85.000,-92.000
3.179,-49.500,14.000,86.500,-90.000
3.180,-49.000,15.500,88.000,-87.000
3.181,-48.000,17.000,90.000,-84.500
3.182,-46.500,18.500,91.500,-82.500
3.183,-46.000,19.500,92.500,-81.500
3.184,-46.500,19.000,92.000,-81.500
3.185,-47.000,18.000,91.500,-83.000
3.186,-48.000,17.000,90.000,-84.500
3.187,-48.500,16.000,89.500,-86.000
3.188,-49.000,15.500,88.500,-88.000
3.189,-49.500,14.500,87.500,-89.500
3.190,-49.500,14.500,87.000,-91.000
3.191,-49.500,14.500,87.000,-92.000
3.192,-49.000,14.500,87.000,-92.500
3.193,-48.500,15.000,87.500,-92.500
3.194,-47.500,15.500,88.500,-91.500
3.195,-46.500,17.000,89.500,-90.000
3.196,-45.500,18.500,91.000,-87.500
3.197,-44.500,20.000,92.500,-85.000
3.198,-44.000,21.500,94.000,-82.500
3.199,-44.000,22.000,95.000,-81.000
3.200,-44.500,22.500,95.500,-79.500
3.201,-45.000,22.000,95.500,-79.000
3.202,-45.500,21.500,96.000,-78.500
3.203,-46.000,21.500,96.000,-78.000
3.204,-46.000,21.500,96.500,-77.500
3.205,-46.500,21.000,96.000,-78.000
3.206,-47.500,20.000,95.000,-79.500
3.207,-48.500,18.500,94.000,-81.500
3.208,-50.000,17.000,92.000,-84.000
3.209,-51.500,15.000,90.000,-86.500
3.210,-53.000,13.000,88.000,-89.500
3.211,-54.500,11.500,85.500,-92.000
3.212,-55.500,10.000,84.000,-94.500
3.213,-56.500,9.000,82.000,-96.500
3.214,-57.500,7.500,80.500,-98.500
3.215,-58.500,6.500,79.000,-100.000
3.216,-59.000,5.500,78.000,-100.500
3.217,-59.500,5.000,78.000,-100.000
3.218,-60.000,5.000,78.000,-99.000
3.219,-60.500,5.000,78.000,-97.500
3.220,-61.000,5.000,78.000,-96.500
3.221,-61.000,5.500,78.000,-95.500
3.222,-61.000,6.000,79.000,-94.500
3.223,-60.000,7.000,79.500,-93.500
3.224,-59.500,7.500,80.500,-93.000
3.225,-59.000,8.000,81.000,-93.000
3.226,-58.500,8.500,81.500,-93.500
3.227,-57.500,9.000,82.000,-93.500
3.228,-56.500,10.000,82.500,-93.500
3.229,-56.000,10.500,82.500,-94.000
3.230,-55.500,10.500,82.000,-95.500
3.231,-56.000,10.000,81.500,-97.000
3.232,-56.500,9.000,80.500,-98.000
3.233,-57.000,8.000,80.000,-99.000
3.234,-57.500,8.000,80.000,-99.000
3.235,-57.500,8.000,80.500,-98.000
3.236,-57.500,9.000,81.500,-96.500
3.237,-57.500,9.500,82.500,-95.000
3.238,-57.500,9.500,83.500,-93.000
3.239,-58.000,10.000,84.000,-91.500
3.240,-59.000,9.500,84.000,-90.500
3.241,-60.000,9.000,83.500,-90.500
3.242,-61.000,8.500,83.500,-90.000
3.243,-62.000,8.000,83.000,-90.000
3.244,-62.500,8.000,83.000,-90.000
3.245,-63.000,7.000,82.500,-91.000
3.246,-64.000,6.000,81.500,-92.500
3.247,-65.000,5.000,80.500,-94.500
3.248,-65.500,4.000,79.500,-96.000
3.249,-65.500,4.000,79.000,-97.500
