'Elapsed time','AECG1','AECG2','AECG3','AECG4'
'seconds','uV','uV','uV','uV'
0.000,2.500,196.500,418.000,377.000
0.001,2.000,196.000,418.000,377.000
0.002,2.000,196.000,419.000,378.500
0.003,1.500,196.000,419.000,378.500
0.004,1.500,196.000,420.000,380.000
0.005,1.500,196.000,419.500,380.000
0.006,2.000,196.000,420.500,381.500
0.007,2.000,195.000,420.000,381.500
0.008,2.000,195.000,420.500,383.000
0.009,2.000,194.000,420.000,383.000
0.010,2.500,194.000,420.000,384.500
0.011,2.000,193.000,418.500,384.000
0.012,2.000,193.000,418.500,384.500
0.013,1.000,192.000,417.500,383.000
0.014,0.000,191.500,418.000,383.000
0.015,-0.500,191.000,417.000,381.500
0.016,-1.500,191.000,417.000,381.500
0.017,-1.500,190.500,416.500,380.500
0.018,-2.000,190.500,417.000,381.000
0.019,-1.500,190.500,416.500,380.500
0.020,-1.500,191.000,417.000,381.000
0.021,-1.000,190.500,417.000,380.500
0.022,-1.000,190.500,418.500,381.000
0.023,-0.500,189.500,419.000,381.000
0.024,-0.500,189.000,421.000,382.000
0.025,-0.500,188.500,421.500,382.000
0.026,-0.500,188.000,423.500,383.000
0.027,-0.500,187.000,424.000,383.000
0.028,-0.500,187.000,425.500,383.500
0.029,-1.000,186.500,425.500,383.500
0.030,-1.000,187.000,427.000,384.000
0.031,-1.000,187.000,427.000,384.000
0.032,-1.000,187.000,428.000,385.000
0.033,-1.000,186.500,427.500,385.000
0.034,-0.500,187.000,428.500,386.000
0.035,0.000,186.500,428.500,385.500
0.036,0.000,186.000,429.500,386.500
0.037,0.000,185.000,430.000,386.500
0.038,0.000,185.000,431.000,387.000
0.039,-0.500,185.000,431.500,387.000
0.040,-1.000,185.500,433.000,387.500
0.041,-1.500,185.500,433.500,387.500
0.042,-2.500,186.000,435.000,388.500
0.043,-3.000,186.000,435.000,388.500
0.044,-4.000,186.500,436.000,389.500
0.045,-4.000,186.000,436.000,389.500
0.046,-4.000,186.000,436.500,390.000
0.047,-3.500,185.500,436.000,390.000
0.048,-3.500,185.500,436.500,391.000
0.049,-3.000,185.000,436.000,391.000
0.050,-3.500,185.000,437.000,392.000
0.051,-3.500,185.000,437.000,392.500
0.052,-4.000,185.500,438.500,393.500
0.053,-4.500,186.000,439.500,393.500
0.054,-5.000,186.500,441.500,394.500
0.055,-5.000,186.500,442.500,394.000
0.056,-5.500,187.000,443.500,394.500
0.057,-5.500,187.000,443.500,393.500
0.058,-6.500,187.000,444.000,393.500
0.059,-7.000,186.500,443.000,392.500
0.060,-8.000,186.500,443.000,393.000
0.061,-8.500,186.000,442.000,392.500
0.062,-9.500,186.000,442.000,393.500
0.063,-10.500,185.000,441.000,393.500
0.064,-11.500,184.500,441.500,394.500
0.065,-12.000,184.000,441.000,394.500
0.066,-13.000,184.000,441.500,395.500
0.067,-13.500,183.000,441.000,395.500
0.068,-14.000,183.000,442.000,396.500
0.069,-14.500,182.500,442.000,396.000
0.070,-15.500,183.000,443.000,397.000
0.071,-16.000,182.500,443.000,396.500
0.072,-16.500,183.000,444.000,397.500
0.073,-17.000,182.500,444.500,397.500
0.074,-18.000,183.500,445.500,398.000
0.075,-18.500,183.500,446.000,397.500
0.076,-19.000,184.500,447.500,398.500
0.077,-19.500,185.500,448.000,398.000
0.078,-20.000,186.500,449.500,399.000
0.079,-20.500,187.500,450.500,399.000
0.080,-21.500,188.500,452.000,400.000
0.081,-22.000,189.000,453.000,400.000
0.082,-23.000,190.000,454.500,401.000
0.083,-24.000,189.500,455.000,401.000
0.084,-25.000,189.500,456.500,402.000
0.085,-25.500,189.000,457.000,402.000
0.086,-26.500,189.000,458.000,403.500
0.087,-27.000,188.000,458.000,403.500
0.088,-28.000,188.000,459.000,404.500
0.089,-28.500,187.500,459.000,404.500
0.090,-29.000,187.500,460.000,406.000
0.091,-29.500,187.000,459.500,406.000
0.092,-30.500,187.500,460.500,407.000
0.093,-31.500,187.000,460.500,406.500
0.094,-32.500,187.000,461.000,407.500
0.095,-33.000,186.500,461.000,407.000
0.096,-34.500,186.500,462.000,408.000
0.097,-35.000,186.000,462.500,407.500
0.098,-36.000,186.500,464.000,408.500
0.099,-37.000,186.500,464.000,408.000
0.100,-38.000,187.500,465.500,409.500
0.101,-39.000,187.500,465.500,409.500
0.102,-40.000,188.000,467.000,411.000
0.103,-40.500,188.000,467.500,411.500
0.104,-41.500,188.500,469.000,413.000
0.105,-42.000,188.000,469.000,413.500
0.106,-43.500,188.500,470.500,415.000
0.107,-44.500,188.000,470.000,415.000
0.108,-46.500,188.500,471.000,416.500
0.109,-47.500,188.000,471.000,416.500
0.110,-49.500,188.500,472.500,418.000
0.111,-50.500,188.500,472.500,418.000
0.112,-52.000,189.500,474.500,419.000
0.113,-53.000,189.500,475.000,418.500
0.114,-54.500,190.500,476.500,419.500
0.115,-55.500,190.500,476.500,419.500
0.116,-57.000,191.000,477.500,420.500
0.117,-58.000,191.000,477.000,420.500
0.118,-59.000,191.500,478.000,422.000
0.119,-60.000,191.500,477.500,422.500
0.120,-61.500,192.500,478.000,424.000
0.121,-62.500,193.000,477.500,424.000
0.122,-63.500,194.000,478.500,425.500
0.123,-64.500,195.000,478.500,425.500
0.124,-66.000,196.000,479.500,427.000
0.125,-67.000,196.500,479.000,427.000
0.126,-68.500,197.500,480.000,428.500
0.127,-70.000,198.000,479.500,428.500
0.128,-71.500,198.500,480.000,430.000
0.129,-73.000,198.000,480.000,430.000
0.130,-74.500,198.500,480.500,431.000
0.131,-76.000,198.500,480.000,431.000
0.132,-77.500,198.500,481.000,432.000
0.133,-79.000,198.000,480.500,431.500
0.134,-81.500,197.500,480.500,432.000
0.135,-83.000,196.500,479.500,431.000
0.136,-85.500,196.000,479.000,431.500
0.137,-87.000,194.500,477.000,430.500
0.138,-88.500,194.500,477.000,431.000
0.139,-89.500,193.500,476.000,430.500
0.140,-91.000,194.000,477.000,431.500
0.141,-91.500,194.500,477.000,432.000
0.142,-93.000,195.500,478.500,434.000
0.143,-94.000,196.000,479.500,436.000
0.144,-95.500,197.500,482.000,439.500
0.145,-96.500,198.500,484.000,442.000
0.146,-98.000,200.500,487.500,446.500
0.147,-99.000,202.500,490.500,449.500
0.148,-100.500,205.500,494.500,453.500
0.149,-101.500,208.000,496.500,456.000
0.150,-103.000,210.000,499.500,458.000
0.151,-104.500,211.000,500.500,458.000
0.152,-107.000,211.500,501.500,458.000
0.153,-109.000,210.500,500.000,456.000
0.154,-111.000,210.000,498.500,454.000
0.155,-112.500,208.500,495.500,450.000
0.156,-114.500,207.500,493.000,447.000
0.157,-115.000,206.500,489.500,443.500
0.158,-116.000,205.500,487.500,441.500
0.159,-117.000,204.500,484.500,439.000
0.160,-118.000,204.000,484.000,439.000
0.161,-119.000,203.500,483.000,439.000
0.162,-120.500,204.000,484.000,441.000
0.163,-121.000,204.500,484.000,442.500
0.164,-122.500,206.000,485.500,445.500
0.165,-123.000,207.000,486.000,447.000
0.166,-124.500,208.500,488.000,449.000
0.167,-125.500,209.000,489.000,450.000
0.168,-128.000,210.500,490.500,451.500
0.169,-129.500,210.500,491.000,451.500
0.170,-132.000,211.000,492.000,452.000
0.171,-134.000,211.000,492.000,452.000
0.172,-137.000,211.000,493.000,452.500
0.173,-139.000,211.000,492.500,452.500
0.174,-141.500,211.500,494.000,453.500
0.175,-143.000,211.500,494.000,453.500
0.176,-145.000,212.000,495.500,454.500
0.177,-146.500,212.000,495.500,454.500
0.178,-149.000,213.000,496.500,455.500
0.179,-150.500,213.000,496.500,455.500
0.180,-153.000,213.500,497.500,456.500
0.181,-154.500,213.500,497.500,456.500
0.182,-156.000,214.500,498.500,458.000
0.183,-157.500,215.000,498.000,458.500
0.184,-159.000,216.000,499.000,460.000
0.185,-160.000,216.500,499.000,460.500
0.186,-161.500,218.000,500.000,462.000
0.187,-162.500,218.500,500.000,462.500
0.188,-164.000,219.000,501.500,464.000
0.189,-165.000,219.000,501.500,464.500
0.190,-166.500,219.500,503.000,466.000
0.191,-168.000,219.500,503.000,466.500
0.192,-170.500,219.500,504.000,468.000
0.193,-172.500,219.000,504.000,468.000
0.194,-175.500,219.500,505.500,469.000
0.195,-178.000,219.500,505.500,468.500
0.196,-181.000,220.000,506.500,469.500
0.197,-183.000,219.500,506.000,469.000
0.198,-185.500,220.000,507.500,470.500
0.199,-187.000,219.500,507.500,470.500
0.200,-189.000,220.000,508.500,472.000
0.201,-190.000,220.500,509.000,472.500
0.202,-191.500,221.500,510.500,474.500
0.203,-192.000,222.000,511.500,476.000
0.204,-193.000,223.500,514.500,478.500
0.205,-193.500,224.500,516.000,479.500
0.206,-194.500,226.000,518.500,482.000
0.207,-195.000,226.500,519.500,483.500
0.208,-196.000,227.500,522.000,485.500
0.209,-196.500,227.500,522.500,486.500
0.210,-197.500,228.500,524.500,489.000
0.211,-198.000,229.000,525.000,489.500
0.212,-199.000,229.500,526.500,492.000
0.213,-199.500,229.500,527.000,492.500
0.214,-201.000,230.500,528.000,494.500
0.215,-201.500,230.000,528.000,495.000
0.216,-202.500,230.500,528.500,496.000
0.217,-203.500,230.000,528.000,496.000
0.218,-204.500,230.500,528.500,497.000
0.219,-205.500,230.000,527.500,497.000
0.220,-207.000,230.000,528.500,498.000
0.221,-207.500,229.500,528.000,498.000
0.222,-209.000,230.000,529.000,499.500
0.223,-209.500,229.500,529.000,500.500
0.224,-210.500,230.000,530.000,502.500
0.225,-210.500,229.500,530.000,503.000
0.226,-211.000,230.000,531.500,505.000
0.227,-211.000,230.000,531.500,506.000
0.228,-211.500,231.000,533.000,507.500
0.229,-211.500,231.500,533.000,508.500
0.230,-212.000,232.500,535.000,510.000
0.231,-211.500,233.000,535.000,510.500
0.232,-212.500,234.000,537.000,512.000
0.233,-212.500,234.500,537.000,512.000
0.234,-213.500,236.000,539.000,513.000
0.235,-213.500,236.000,539.000,512.500
0.236,-214.000,236.500,540.000,513.000
0.237,-214.000,236.000,539.500,512.000
0.238,-215.000,236.000,540.000,512.500
0.239,-215.000,235.500,539.000,511.000
0.240,-215.500,235.500,539.500,511.500
0.241,-215.500,234.500,539.000,510.500
0.242,-216.500,235.000,539.500,510.500
0.243,-216.500,234.500,538.500,510.000
0.244,-217.000,235.000,539.500,510.500
0.245,-217.500,234.500,538.500,510.000
0.246,-218.000,235.000,539.000,511.000
0.247,-218.000,235.000,537.500,511.000
0.248,-218.500,235.500,538.000,512.000
0.249,-218.000,235.000,536.500,511.500
0.250,-218.500,235.000,537.000,512.000
0.251,-218.500,234.000,535.500,511.000
0.252,-219.000,233.500,535.500,511.500
0.253,-219.000,232.500,534.000,510.000
0.254,-220.000,232.000,534.000,510.000
0.255,-220.000,231.000,532.000,509.000
0.256,-220.500,231.000,531.500,509.000
0.257,-220.500,230.500,530.000,508.500
0.258,-221.000,230.500,529.500,509.000
0.259,-221.000,229.500,528.500,508.500
0.260,-221.000,229.000,528.500,509.500
0.261,-220.500,228.500,527.500,509.000
0.262,-221.000,228.500,527.500,510.000
0.263,-220.500,227.500,526.500,509.000
0.264,-221.500,227.500,526.500,509.500
0.265,-221.500,226.500,525.000,509.000
0.266,-222.500,226.000,524.500,509.000
0.267,-223.000,224.500,522.500,508.000
0.268,-224.500,224.000,521.500,508.000
0.269,-225.000,222.000,519.500,507.000
0.270,-226.000,221.500,519.000,507.500
0.271,-226.500,220.000,517.000,506.500
0.272,-227.500,219.500,517.000,506.500
0.273,-227.000,219.000,515.500,506.000
0.274,-227.500,219.000,515.000,506.500
0.275,-227.000,218.500,513.500,505.500
0.276,-227.000,218.500,513.500,506.000
0.277,-227.000,218.000,512.500,505.000
0.278,-227.000,218.500,512.500,505.500
0.279,-226.500,217.500,511.500,504.500
0.280,-227.000,217.500,512.000,505.000
0.281,-226.500,216.500,511.000,504.500
0.282,-227.000,216.000,511.000,505.000
0.283,-227.000,215.000,510.000,504.000
0.284,-227.500,214.500,510.500,504.000
0.285,-228.000,213.500,509.500,502.500
0.286,-229.000,213.000,510.500,503.000
0.287,-229.500,212.500,510.000,502.000
0.288,-230.500,212.500,511.000,502.500
0.289,-230.500,212.000,511.500,502.000
0.290,-231.000,212.500,513.000,503.000
0.291,-231.000,212.000,513.000,503.000
0.292,-231.500,212.500,515.000,504.500
0.293,-231.000,212.000,515.000,504.500
0.294,-232.000,212.500,517.000,505.500
0.295,-232.000,212.500,517.000,505.000
0.296,-232.500,213.500,519.000,506.000
0.297,-232.500,213.500,519.000,505.500
0.298,-233.500,214.500,520.500,506.500
0.299,-234.000,215.000,520.500,506.500
0.300,-235.000,215.500,522.000,507.500
0.301,-235.000,215.500,521.500,507.500
0.302,-235.000,216.500,522.500,509.000
0.303,-234.500,217.000,522.000,509.500
0.304,-234.500,218.000,523.000,511.000
0.305,-233.500,218.000,523.000,511.000
0.306,-233.500,219.000,524.000,512.500
0.307,-233.000,219.000,524.000,512.500
0.308,-233.500,220.000,525.000,514.000
0.309,-233.000,220.500,525.500,514.000
0.310,-233.500,221.500,527.000,515.500
0.311,-233.000,222.500,527.500,516.000
0.312,-233.500,224.000,529.000,517.500
0.313,-233.000,225.000,529.500,518.000
0.314,-233.000,226.500,531.000,519.500
0.315,-232.500,227.000,531.500,520.000
0.316,-232.500,228.000,533.000,521.500
0.317,-232.000,228.500,533.000,521.500
0.318,-232.000,229.500,534.500,523.000
0.319,-231.000,230.500,534.000,523.000
0.320,-230.500,231.500,535.000,524.500
0.321,-229.500,232.000,534.500,525.000
0.322,-228.500,233.500,535.500,526.500
0.323,-227.500,234.000,535.000,526.500
0.324,-226.500,235.500,536.500,528.500
0.325,-225.500,236.000,536.500,529.500
0.326,-225.000,238.000,538.500,532.000
0.327,-224.000,239.000,539.000,533.000
0.328,-223.500,241.000,540.500,535.500
0.329,-222.500,242.500,541.500,536.500
0.330,-222.500,244.500,543.500,539.000
0.331,-222.000,245.500,544.000,540.500
0.332,-222.000,247.000,546.000,542.500
0.333,-221.000,247.500,546.500,543.500
0.334,-220.500,249.000,548.000,545.500
0.335,-219.000,250.000,548.500,545.500
0.336,-218.500,251.000,550.500,547.000
0.337,-217.500,251.500,550.500,547.000
0.338,-217.000,253.000,552.500,548.500
0.339,-216.000,253.500,552.500,549.000
0.340,-215.500,255.000,554.500,550.500
0.341,-214.500,255.500,554.500,551.000
0.342,-214.500,257.000,556.000,553.000
0.343,-214.000,258.000,556.500,553.500
0.344,-214.500,260.000,558.500,555.500
0.345,-215.000,261.500,559.500,555.500
0.346,-216.000,263.000,561.500,557.500
0.347,-216.500,264.000,562.500,558.000
0.348,-217.500,266.000,564.500,559.500
0.349,-218.000,267.000,565.500,560.000
0.350,-219.000,268.500,567.500,562.000
0.351,-219.500,269.500,568.000,563.000
0.352,-220.500,271.000,570.000,564.500
0.353,-221.000,271.500,570.500,565.000
0.354,-222.500,273.000,572.500,566.500
0.355,-222.500,273.000,573.000,566.500
0.356,-223.500,274.500,575.000,568.000
0.357,-223.500,275.000,575.500,568.000
0.358,-224.000,276.000,577.000,569.500
0.359,-223.000,276.500,577.500,569.000
0.360,-223.000,277.000,579.500,570.000
0.361,-222.000,277.000,579.500,569.000
0.362,-221.500,278.000,581.500,569.500
0.363,-220.000,278.000,581.500,568.500
0.364,-219.500,279.000,583.000,569.500
0.365,-218.500,279.000,583.000,569.000
0.366,-218.000,280.000,584.000,569.500
0.367,-217.000,280.000,584.000,569.000
0.368,-217.000,280.500,585.000,570.000
0.369,-216.500,280.000,585.000,570.000
0.370,-216.500,281.000,586.500,571.500
0.371,-216.500,281.500,586.500,571.500
0.372,-217.000,282.500,588.500,573.000
0.373,-216.500,283.000,589.000,573.000
0.374,-217.500,284.000,591.000,574.000
0.375,-217.500,284.500,591.000,573.000
0.376,-218.000,285.500,592.500,573.500
0.377,-217.500,285.500,592.000,572.000
0.378,-218.000,286.000,593.000,572.000
0.379,-217.500,285.500,592.000,571.000
0.380,-217.500,286.000,592.500,571.500
0.381,-217.000,285.500,591.500,570.500
0.382,-217.000,286.500,592.000,571.500
0.383,-216.000,286.500,591.500,571.000
0.384,-216.000,287.500,592.500,572.500
0.385,-215.500,287.500,592.500,572.500
0.386,-215.000,288.500,593.500,573.500
0.387,-214.500,288.500,593.500,573.500
0.388,-214.500,289.500,595.000,575.000
0.389,-214.000,289.500,595.000,574.500
0.390,-214.500,290.500,596.500,576.000
0.391,-214.500,291.000,596.500,576.500
0.392,-216.000,292.000,598.000,578.000
0.393,-216.500,292.000,598.000,578.000
0.394,-218.000,293.000,599.000,579.000
0.395,-218.500,293.500,599.000,578.500
0.396,-220.500,294.500,600.000,579.000
0.397,-221.000,294.500,599.500,578.000
0.398,-222.500,295.500,601.000,578.500
0.399,-223.500,296.000,601.000,578.000
0.400,-225.000,297.000,602.500,579.000
0.401,-226.000,297.000,602.500,578.500
0.402,-228.000,297.500,604.000,579.500
0.403,-229.000,297.500,604.000,579.500
0.404,-231.000,298.000,605.500,581.000
0.405,-231.500,298.000,606.000,581.000
0.406,-233.000,299.000,608.000,582.500
0.407,-233.500,299.000,608.500,582.500
0.408,-234.500,300.000,610.500,584.000
0.409,-234.500,300.500,610.500,583.500
0.410,-235.500,301.500,612.000,585.000
0.411,-236.000,302.000,612.000,584.500
0.412,-237.000,303.000,613.500,586.000
0.413,-238.000,303.500,613.500,585.500
0.414,-240.000,304.500,615.500,587.000
0.415,-241.500,305.000,615.500,586.500
0.416,-243.500,306.500,617.500,587.500
0.417,-245.000,307.000,617.500,587.000
0.418,-247.500,308.500,619.000,588.000
0.419,-249.500,309.500,618.500,587.500
0.420,-251.500,311.000,619.500,588.000
0.421,-253.000,311.500,619.000,587.500
0.422,-255.000,313.000,620.500,588.500
0.423,-256.500,313.500,620.500,588.500
0.424,-258.500,315.000,622.000,589.500
0.425,-259.500,315.500,622.500,589.000
0.426,-261.000,317.500,624.500,590.500
0.427,-262.000,318.500,625.500,590.500
0.428,-263.500,320.500,628.500,591.500
0.429,-264.000,321.500,629.500,591.500
0.430,-265.000,323.500,632.000,593.000
0.431,-265.500,324.000,633.000,593.500
0.432,-267.000,325.500,635.000,594.500
0.433,-267.500,326.000,635.500,594.000
0.434,-269.000,327.000,637.000,595.000
0.435,-270.000,327.000,637.000,594.000
0.436,-272.000,327.500,638.500,594.500
0.437,-273.000,327.500,638.500,593.000
0.438,-274.500,328.500,639.500,593.000
0.439,-274.500,329.000,639.500,591.500
0.440,-275.500,330.500,641.000,592.000
0.441,-275.500,331.000,640.500,590.500
0.442,-276.500,332.500,642.000,591.000
0.443,-276.500,333.500,641.500,590.000
0.444,-277.500,335.000,643.000,590.500
0.445,-277.500,335.500,643.000,590.000
0.446,-279.000,337.000,644.000,590.500
0.447,-279.000,337.500,643.500,590.000
0.448,-280.000,339.000,644.500,590.500
0.449,-280.000,339.000,643.500,589.500
0.450,-281.000,340.000,644.000,589.500
0.451,-281.000,340.000,643.000,588.000
0.452,-282.000,340.500,644.000,588.000
0.453,-282.500,340.500,643.500,587.000
0.454,-283.500,341.000,645.000,587.500
0.455,-283.500,341.000,645.000,586.500
0.456,-284.000,342.500,646.500,587.500
0.457,-283.500,342.500,647.000,587.500
0.458,-283.500,344.000,648.500,588.500
0.459,-283.000,344.000,648.500,588.000
0.460,-283.500,345.000,650.000,589.000
0.461,-282.500,345.000,650.000,589.000
0.462,-282.500,346.000,651.500,590.000
0.463,-281.500,346.000,651.000,589.500
0.464,-281.500,347.000,652.500,590.000
0.465,-280.500,347.000,652.000,590.000
0.466,-280.500,348.000,653.500,591.000
0.467,-279.500,348.000,653.500,591.000
0.468,-279.500,349.500,655.000,592.500
0.469,-278.500,349.500,655.000,592.000
0.470,-278.500,351.000,656.000,593.500
0.471,-277.000,351.500,656.000,593.000
0.472,-276.000,353.000,657.000,594.000
0.473,-274.500,353.000,656.500,593.500
0.474,-273.500,354.500,657.500,594.500
0.475,-272.000,354.500,657.000,594.000
0.476,-271.500,355.500,659.000,595.000
0.477,-270.000,356.000,659.000,595.000
0.478,-269.500,357.000,661.000,596.000
0.479,-268.500,357.500,661.000,596.000
0.480,-268.000,358.500,663.000,597.000
0.481,-266.500,359.000,663.000,596.500
0.482,-265.500,360.000,665.000,597.500
0.483,-263.500,360.000,665.500,597.000
0.484,-262.500,361.000,667.000,598.000
0.485,-260.000,361.000,667.500,597.500
0.486,-258.500,362.000,669.000,599.000
0.487,-256.000,362.500,669.000,599.000
0.488,-254.000,364.000,670.500,600.500
0.489,-251.000,364.500,670.000,600.500
0.490,-249.500,366.000,671.000,602.000
0.491,-247.000,366.000,670.500,602.000
0.492,-245.500,367.500,671.500,603.500
0.493,-243.000,367.500,670.500,603.500
0.494,-241.500,368.000,671.000,605.000
0.495,-239.500,367.500,670.000,604.500
0.496,-238.000,368.000,670.500,605.000
0.497,-235.500,368.000,669.500,604.500
0.498,-234.000,368.500,670.000,605.000
0.499,-232.000,368.500,669.000,604.000
0.500,-230.500,369.500,669.500,605.000
0.501,-229.000,369.000,669.000,604.500
0.502,-228.500,370.000,670.000,605.500
0.503,-227.000,370.000,669.500,605.000
0.504,-227.000,371.000,670.000,606.000
0.505,-226.500,370.500,669.000,605.000
0.506,-226.500,371.000,669.500,606.000
0.507,-226.000,370.500,668.500,605.000
0.508,-225.500,371.500,668.500,605.500
0.509,-225.000,371.500,667.000,604.500
0.510,-225.000,372.500,667.500,605.000
0.511,-224.500,372.500,666.500,604.000
0.512,-224.500,374.000,667.500,604.500
0.513,-223.500,374.500,667.000,603.500
0.514,-223.500,376.000,668.500,604.000
0.515,-222.500,376.500,668.000,602.500
0.516,-222.000,377.500,669.000,602.000
0.517,-220.500,377.000,668.000,600.000
0.518,-219.500,378.000,668.500,599.000
0.519,-218.000,377.500,667.000,596.500
0.520,-216.500,378.000,667.500,595.500
0.521,-214.000,378.000,666.500,593.500
0.522,-212.500,379.000,667.500,593.000
0.523,-210.000,379.000,667.000,591.500
0.524,-208.000,379.500,668.000,591.500
0.525,-205.500,379.000,667.500,590.500
0.526,-204.000,379.500,668.500,590.500
0.527,-202.000,378.500,667.500,589.500
0.528,-201.000,378.000,668.000,589.500
0.529,-199.500,376.500,667.000,588.000
0.530,-199.000,375.500,667.500,588.000
0.531,-198.000,373.500,666.500,586.500
0.532,-197.500,373.500,667.500,587.000
0.533,-196.000,373.000,667.000,586.000
0.534,-195.500,374.000,668.500,586.500
0.535,-194.500,374.000,668.500,586.000
0.536,-194.500,375.000,670.500,587.000
0.537,-194.500,375.000,670.500,586.500
0.538,-195.000,376.000,672.500,588.000
0.539,-195.000,377.000,673.500,588.500
0.540,-195.000,379.500,677.000,591.000
0.541,-194.000,382.000,679.000,592.500
0.542,-193.500,385.000,683.000,595.000
0.543,-192.000,387.000,684.500,595.500
0.544,-191.500,389.500,686.500,596.500
0.545,-190.500,390.000,686.000,595.000
0.546,-190.000,391.000,686.000,594.000
0.547,-189.000,390.000,683.500,590.000
0.548,-188.500,389.500,682.000,587.000
0.549,-187.000,387.500,678.000,582.000
0.550,-186.000,387.000,676.000,578.500
0.551,-184.500,385.500,672.500,574.000
0.552,-183.500,385.000,671.500,571.500
0.553,-182.000,384.000,669.000,569.000
0.554,-181.500,384.500,668.500,568.500
0.555,-180.000,384.000,667.500,567.000
0.556,-179.000,385.500,668.500,567.500
0.557,-177.000,386.000,668.000,566.500
0.558,-175.500,387.500,669.500,567.500
0.559,-174.000,388.500,669.500,567.000
0.560,-173.000,390.000,671.000,567.500
0.561,-171.500,390.500,670.500,567.000
0.562,-171.000,391.500,671.500,568.500
0.563,-170.000,391.500,671.000,568.500
0.564,-169.000,393.000,672.000,570.000
0.565,-167.500,393.000,671.000,570.000
0.566,-165.500,394.000,671.500,571.000
0.567,-162.000,393.500,670.500,570.500
0.568,-158.500,394.000,671.000,571.000
0.569,-154.500,393.000,669.500,570.000
0.570,-150.500,393.500,669.000,570.500
0.571,-147.000,393.000,667.500,569.500
0.572,-144.500,394.000,667.500,570.500
0.573,-142.500,393.500,666.000,570.500
0.574,-142.000,395.000,666.000,572.000
0.575,-141.500,395.000,665.000,572.500
0.576,-142.000,396.500,665.000,574.000
0.577,-143.000,397.000,664.000,574.000
0.578,-144.500,398.500,664.500,576.000
0.579,-146.000,399.000,664.000,576.000
0.580,-148.000,401.000,665.500,577.500
0.581,-150.000,402.000,665.500,578.000
0.582,-152.000,404.000,667.000,579.500
0.583,-153.500,405.000,667.000,580.000
0.584,-156.000,407.000,668.500,582.000
0.585,-157.500,407.500,668.500,582.500
0.586,-160.000,409.000,670.000,584.500
0.587,-161.500,409.500,670.000,584.500
0.588,-164.000,411.500,671.000,586.000
0.589,-165.500,412.000,671.000,586.000
0.590,-167.500,414.000,672.000,587.000
0.591,-168.500,414.500,671.000,586.500
0.592,-170.500,416.500,672.000,587.000
0.593,-171.500,417.000,670.500,586.500
0.594,-173.000,418.000,671.000,586.500
0.595,-174.000,418.000,669.000,585.000
0.596,-175.500,419.000,669.000,585.000
0.597,-176.500,419.000,667.500,583.500
0.598,-178.000,420.500,668.000,583.500
0.599,-179.000,421.000,667.000,582.000
0.600,-180.500,422.500,667.500,582.500
0.601,-181.000,423.000,666.500,581.500
0.602,-181.500,425.000,667.000,582.000
0.603,-181.500,425.500,666.000,581.000
0.604,-181.500,427.000,666.000,581.000
0.605,-181.000,427.000,664.000,579.500
0.606,-181.000,428.500,664.000,579.500
0.607,-180.500,428.500,662.000,578.000
0.608,-180.500,430.000,661.500,578.000
0.609,-180.000,431.000,660.000,577.000
0.610,-180.000,433.000,659.500,577.000
0.611,-180.000,434.000,658.000,575.500
0.612,-180.500,436.500,657.500,575.000
0.613,-180.500,437.500,655.500,573.500
0.614,-181.000,440.000,655.000,573.000
0.615,-180.500,441.500,653.000,571.000
0.616,-180.500,443.500,652.500,570.500
0.617,-180.000,444.000,650.500,568.500
0.618,-179.500,446.000,650.000,568.500
0.619,-178.500,446.500,648.000,567.500
0.620,-178.000,447.500,648.000,568.000
0.621,-176.500,448.000,647.000,567.500
0.622,-176.000,449.000,647.500,568.500
0.623,-174.500,449.500,646.500,568.500
0.624,-173.500,450.500,647.000,569.500
0.625,-172.000,450.000,645.500,569.500
0.626,-171.000,451.000,645.000,570.000
0.627,-169.000,451.000,642.500,569.500
0.628,-167.000,451.500,641.000,570.000
0.629,-164.000,450.500,638.000,568.500
0.630,-162.000,451.000,636.000,568.500
0.631,-159.000,450.000,633.000,567.000
0.632,-157.000,450.500,630.500,566.500
0.633,-155.000,450.000,626.500,564.000
0.634,-154.000,450.000,624.000,562.000
0.635,-153.000,448.500,619.500,559.000
0.636,-153.000,448.500,615.500,556.500
0.637,-153.000,447.000,610.000,552.500
0.638,-153.500,446.000,605.500,549.500
0.639,-154.000,444.000,598.500,544.000
0.640,-155.500,442.000,592.500,539.500
0.641,-156.000,439.000,584.500,533.500
0.642,-157.500,436.500,576.500,527.500
0.643,-158.500,432.000,566.500,520.000
0.644,-160.500,429.000,557.500,513.500
0.645,-161.500,425.000,547.000,505.500
0.646,-163.000,422.000,538.500,499.500
0.647,-164.000,418.500,529.000,492.500
0.648,-165.000,416.000,522.000,487.000
0.649,-165.500,413.000,514.000,481.000
0.650,-166.000,412.000,508.500,476.500
0.651,-165.500,410.000,502.000,470.500
0.652,-166.000,409.500,498.000,466.500
0.653,-166.000,409.000,493.500,462.000
0.654,-166.000,410.500,492.500,460.500
0.655,-165.500,411.500,491.500,458.500
0.656,-165.000,415.000,494.500,459.500
0.657,-164.000,418.500,498.000,460.000
0.658,-163.500,424.500,505.000,463.000
0.659,-162.000,429.500,511.000,464.500
0.660,-161.500,436.000,520.000,468.000
0.661,-160.000,442.000,527.500,470.500
0.662,-159.500,448.500,537.000,474.000
0.663,-158.000,454.000,544.500,476.500
0.664,-157.000,460.000,553.000,481.000
0.665,-156.000,464.500,559.500,484.000
0.666,-156.000,469.500,567.000,488.500
0.667,-155.500,473.000,572.000,491.000
0.668,-156.500,476.500,577.500,495.000
0.669,-157.000,478.000,581.000,497.000
0.670,-159.000,480.500,584.500,500.000
0.671,-161.000,481.000,586.000,501.500
0.672,-164.000,482.500,587.500,503.500
0.673,-166.000,482.000,587.500,504.500
0.674,-169.000,483.000,589.000,506.500
0.675,-171.500,482.000,588.500,507.000
0.676,-174.500,482.500,589.000,508.500
0.677,-177.000,481.000,588.000,508.500
0.678,-180.000,481.000,588.000,509.000
0.679,-182.500,479.000,586.500,508.000
0.680,-185.000,478.000,585.500,508.000
0.681,-187.000,475.500,583.500,506.500
0.682,-190.000,475.000,582.000,506.000
0.683,-192.000,473.000,579.500,504.500
0.684,-194.000,472.000,578.000,505.000
0.685,-195.500,470.000,575.500,504.000
0.686,-197.000,469.500,574.000,505.000
0.687,-197.500,468.000,571.500,504.500
0.688,-198.500,467.500,571.000,505.500
0.689,-198.000,466.500,569.500,505.500
0.690,-197.500,466.500,570.000,507.500
0.691,-196.000,466.000,569.500,508.000
0.692,-194.500,467.000,571.000,510.500
0.693,-191.500,467.000,571.500,512.000
0.694,-188.500,468.500,574.000,515.000
0.695,-184.500,469.000,575.500,516.500
0.696,-181.500,471.000,578.000,519.000
0.697,-178.000,471.500,578.500,519.500
0.698,-176.000,473.000,580.500,521.000
0.699,-174.500,472.500,580.000,521.000
0.700,-175.000,473.500,580.500,521.500
0.701,-176.000,472.500,579.000,520.000
0.702,-179.000,472.500,578.500,519.500
0.703,-182.000,470.500,576.000,517.500
0.704,-185.500,470.000,574.500,516.500
0.705,-188.500,468.500,571.500,514.000
0.706,-192.000,468.000,570.000,513.000
0.707,-194.000,466.000,567.500,511.000
0.708,-196.500,466.000,566.500,510.500
0.709,-198.000,464.500,565.000,509.000
0.710,-199.500,464.500,564.500,509.000
0.711,-200.500,463.500,563.500,508.000
0.712,-201.000,463.500,564.000,508.000
0.713,-201.000,463.000,563.000,506.500
0.714,-201.000,463.500,564.000,506.500
0.715,-200.000,463.000,563.500,505.000
0.716,-199.500,463.500,564.500,505.500
0.717,-198.000,463.000,563.500,504.000
0.718,-197.500,464.000,564.000,504.000
0.719,-196.000,463.500,562.500,503.000
0.720,-195.500,464.000,562.500,503.000
0.721,-194.500,464.000,561.500,502.000
0.722,-194.000,465.000,562.000,502.000
0.723,-193.000,465.500,561.500,501.500
0.724,-192.500,467.000,562.500,502.000
0.725,-191.000,467.500,562.000,501.500
0.726,-190.500,468.500,563.000,502.500
0.727,-189.500,468.000,562.000,501.500
0.728,-189.500,468.500,562.500,502.000
0.729,-189.000,467.500,561.500,500.500
0.730,-190.500,467.500,561.500,500.000
0.731,-191.500,466.000,560.000,498.500
0.732,-194.000,465.500,560.000,497.500
0.733,-196.000,463.500,558.500,495.500
0.734,-198.500,463.000,558.500,495.000
0.735,-200.500,461.500,556.500,493.000
0.736,-203.000,460.500,556.000,492.500
0.737,-205.000,459.000,553.500,491.000
0.738,-207.500,458.500,552.500,490.500
0.739,-209.500,457.000,550.500,489.000
0.740,-211.500,456.500,549.500,489.000
0.741,-213.000,455.000,548.000,488.000
0.742,-215.000,455.000,547.500,488.000
0.743,-216.000,453.500,546.500,487.000
0.744,-217.000,454.000,547.000,487.500
0.745,-217.500,453.000,546.500,487.000
0.746,-218.000,453.500,547.500,488.000
0.747,-217.500,453.500,547.000,488.000
0.748,-217.500,454.500,548.000,489.500
0.749,-217.000,455.000,547.500,489.500
0.750,-217.500,456.500,548.000,490.500
0.751,-217.000,457.000,547.000,490.500
0.752,-218.000,458.500,547.500,491.500
0.753,-218.000,459.000,546.000,491.500
0.754,-218.500,460.500,546.500,492.000
0.755,-218.500,460.500,545.500,491.500
0.756,-219.000,462.000,545.500,492.500
0.757,-219.000,462.000,544.500,492.000
0.758,-219.500,463.500,545.000,493.000
0.759,-219.000,463.000,544.500,493.000
0.760,-219.000,464.000,545.000,493.500
0.761,-218.000,463.500,544.000,493.000
0.762,-217.500,464.000,544.500,493.500
0.763,-216.500,463.500,543.500,493.000
0.764,-215.500,464.000,544.000,493.500
0.765,-213.500,464.000,543.500,492.500
0.766,-213.000,465.500,544.000,493.500
0.767,-211.500,466.000,543.000,493.500
0.768,-211.000,467.500,543.000,494.500
0.769,-209.500,468.000,541.500,494.500
0.770,-209.000,469.500,541.500,495.000
0.771,-208.000,469.500,539.500,494.000
0.772,-207.500,470.500,539.500,494.500
0.773,-206.500,471.000,538.000,494.000
0.774,-205.500,472.500,538.500,495.000
0.775,-204.000,473.000,537.000,495.000
0.776,-203.000,474.500,537.000,496.500
0.777,-201.500,475.000,536.000,496.500
0.778,-200.000,477.000,536.000,498.000
0.779,-197.500,478.000,535.000,497.500
0.780,-196.000,479.500,535.000,498.000
0.781,-193.500,480.500,534.000,497.500
0.782,-192.000,482.000,535.000,498.000
0.783,-189.500,482.500,534.500,497.500
0.784,-188.000,484.500,535.500,498.000
0.785,-185.500,485.000,535.000,497.500
0.786,-183.500,486.500,536.000,497.500
0.787,-181.000,486.500,535.500,496.500
0.788,-179.000,488.000,536.500,497.000
0.789,-176.000,488.000,536.000,495.500
0.790,-174.000,488.500,536.500,495.500
0.791,-171.500,488.000,535.500,493.500
0.792,-169.500,488.500,536.000,493.000
0.793,-167.000,488.000,534.500,491.000
0.794,-164.000,489.000,534.500,490.500
0.795,-160.000,489.000,533.000,489.000
0.796,-156.500,490.500,533.000,489.000
0.797,-151.500,490.500,532.000,488.000
0.798,-147.000,492.000,532.000,488.500
0.799,-142.000,492.000,531.000,487.500
0.800,-138.000,493.000,530.500,487.500
0.801,-133.500,492.000,529.000,486.000
0.802,-129.500,492.000,528.000,485.500
0.803,-126.000,490.500,526.000,483.000
0.804,-123.000,490.500,524.500,482.000
0.805,-120.000,489.000,522.000,479.500
0.806,-118.000,488.500,521.000,478.500
0.807,-116.500,486.500,518.000,476.500
0.808,-115.500,485.500,516.500,475.500
0.809,-114.000,482.500,513.500,473.500
0.810,-114.000,481.000,511.500,473.000
0.811,-113.500,478.000,508.500,471.000
0.812,-113.500,476.000,506.500,470.000
0.813,-113.000,473.000,503.500,467.500
0.814,-113.500,471.000,501.500,466.000
0.815,-114.000,468.500,498.000,463.000
0.816,-114.500,467.000,496.000,461.000
0.817,-115.000,464.500,492.500,458.000
0.818,-115.500,463.000,490.500,456.500
0.819,-115.500,460.500,487.500,453.500
0.820,-116.000,459.000,485.500,452.000
0.821,-115.500,456.000,482.500,449.500
0.822,-115.000,454.500,481.000,448.500
0.823,-114.000,452.000,478.500,446.500
0.824,-113.000,450.500,477.000,445.500
0.825,-111.500,448.000,475.000,444.000
0.826,-110.000,447.000,474.000,443.500
0.827,-108.000,445.000,472.000,441.500
0.828,-106.500,444.000,471.000,441.000
0.829,-104.500,442.000,468.500,438.500
0.830,-103.000,441.000,467.000,437.000
0.831,-100.500,438.500,464.500,434.500
0.832,-98.000,437.500,462.500,433.000
0.833,-94.500,435.000,459.500,430.000
0.834,-91.000,434.000,458.000,428.000
0.835,-86.000,431.500,455.500,424.500
0.836,-81.500,430.500,454.000,422.500
0.837,-75.500,428.000,451.500,419.000
0.838,-70.000,426.500,450.000,417.000
0.839,-64.500,424.500,448.000,414.500
0.840,-59.500,424.000,447.500,413.000
0.841,-54.500,422.500,446.000,411.500
0.842,-50.500,422.500,446.500,411.500
0.843,-47.000,422.000,445.500,410.500
0.844,-44.000,422.500,446.500,411.000
0.845,-41.500,422.000,446.000,411.000
0.846,-39.500,422.500,447.000,412.000
0.847,-37.500,422.000,446.500,411.500
0.848,-36.000,422.500,447.500,412.500
0.849,-34.000,421.500,447.000,412.500
0.850,-32.500,422.000,447.500,413.000
0.851,-30.000,421.000,446.500,412.000
0.852,-28.500,421.000,446.000,412.500
0.853,-26.000,420.000,444.500,411.000
0.854,-24.500,420.000,444.000,411.000
0.855,-22.500,418.500,442.000,409.000
0.856,-21.000,418.500,441.500,408.500
0.857,-19.000,417.000,440.000,406.500
0.858,-18.000,416.500,440.000,406.000
0.859,-17.000,414.500,439.000,404.000
0.860,-16.000,414.000,439.000,404.000
0.861,-15.500,412.500,437.500,402.500
0.862,-15.500,411.500,438.000,403.000
0.863,-15.500,410.000,437.000,402.000
0.864,-15.500,409.000,437.000,402.000
0.865,-15.000,407.500,436.000,401.500
0.866,-14.500,407.000,436.000,401.500
0.867,-13.500,406.000,435.000,401.000
0.868,-12.500,406.000,435.500,401.000
0.869,-11.000,405.000,434.500,400.500
0.870,-9.500,405.500,435.000,400.500
0.871,-7.500,404.500,434.000,400.000
0.872,-5.000,404.500,433.500,400.000
0.873,-2.500,403.000,432.000,399.000
0.874,0.000,402.000,431.500,398.500
0.875,2.500,400.000,429.500,396.500
0.876,5.000,398.500,428.000,395.500
0.877,7.500,395.500,426.000,393.000
0.878,11.000,394.000,424.500,391.500
0.879,15.000,391.500,422.500,389.000
0.880,19.500,390.000,421.500,387.500
0.881,24.000,388.000,419.500,385.000
0.882,29.500,386.500,418.500,384.000
0.883,34.500,384.000,416.500,382.500
0.884,40.000,383.000,416.000,382.000
0.885,44.500,380.500,415.000,381.000
0.886,49.000,379.500,415.000,381.000
0.887,53.000,377.500,414.500,380.000
0.888,57.000,377.000,415.000,380.500
0.889,60.500,375.000,414.500,380.000
0.890,64.500,374.500,415.000,380.500
0.891,68.000,373.000,415.000,380.000
0.892,71.500,372.500,416.000,380.500
0.893,75.000,371.000,416.000,380.000
0.894,79.500,370.500,417.000,380.500
0.895,83.000,368.500,416.500,379.500
0.896,87.500,367.500,417.500,380.000
0.897,91.000,365.000,416.500,379.000
0.898,95.500,363.500,416.500,379.000
0.899,99.500,361.000,415.000,377.500
0.900,104.500,359.500,414.500,377.000
0.901,109.000,357.500,413.500,375.500
0.902,114.000,356.000,413.000,375.000
0.903,119.000,353.000,412.000,373.500
0.904,124.500,351.500,412.000,373.000
0.905,129.000,348.500,411.000,371.500
0.906,134.000,346.500,411.000,371.000
0.907,138.000,344.000,410.000,369.500
0.908,142.500,342.500,410.000,370.000
0.909,146.500,340.500,409.500,369.500
0.910,151.500,340.000,410.500,370.000
0.911,156.000,338.500,410.000,369.500
0.912,161.500,338.500,410.500,370.500
0.913,167.500,337.500,410.000,370.500
0.914,174.500,338.000,411.000,371.500
0.915,181.500,338.500,411.000,372.000
0.916,190.000,340.000,413.000,373.500
0.917,198.500,340.500,414.000,374.000
0.918,208.000,342.000,416.000,376.000
0.919,217.000,342.500,416.500,376.500
0.920,225.500,343.000,418.000,378.000
0.921,232.500,342.000,418.000,378.500
0.922,239.500,341.500,418.500,379.500
0.923,244.500,340.000,417.500,379.500
0.924,249.500,339.500,418.000,380.500
0.925,253.500,338.000,417.000,380.500
0.926,257.500,337.500,418.000,381.500
0.927,260.500,336.500,417.500,381.000
0.928,263.500,336.500,418.500,382.000
0.929,266.000,335.000,418.500,382.000
0.930,268.500,335.000,420.000,383.500
0.931,270.000,334.000,420.500,384.000
0.932,271.500,334.500,422.500,386.000
0.933,272.500,335.000,423.500,387.500
0.934,274.500,336.000,426.000,389.500
0.935,276.000,336.500,427.500,390.500
0.936,277.500,337.500,429.000,391.500
0.937,279.000,337.000,428.000,390.500
0.938,281.000,336.500,427.500,389.000
0.939,282.500,334.000,424.500,385.500
0.940,285.000,331.500,422.000,381.500
0.941,287.500,328.000,417.500,376.500
0.942,291.000,325.000,413.500,372.000
0.943,294.000,321.000,408.500,366.500
0.944,298.000,318.000,405.500,362.500
0.945,301.000,314.500,402.000,358.500
0.946,304.000,312.500,400.000,357.000
0.947,306.000,309.500,398.000,355.000
0.948,308.500,308.000,398.000,355.000
0.949,310.000,306.000,397.000,354.500
0.950,312.500,305.000,397.000,355.000
0.951,313.500,303.000,396.000,354.000
0.952,315.500,301.500,395.500,353.500
0.953,316.500,299.000,393.000,351.500
0.954,318.000,297.000,391.500,349.500
0.955,318.500,294.000,388.500,346.500
0.956,320.500,291.500,386.500,344.500
0.957,321.500,288.500,383.500,341.500
0.958,324.000,287.000,381.500,340.000
0.959,326.500,284.500,379.000,338.000
0.960,330.000,283.000,377.000,336.500
0.961,332.500,280.500,374.000,334.500
0.962,335.500,279.000,372.000,333.000
0.963,337.500,276.500,369.000,331.000
0.964,340.500,275.000,367.000,330.000
0.965,342.000,272.500,364.000,328.000
0.966,344.500,271.000,362.000,326.500
0.967,345.500,269.000,359.000,324.500
0.968,348.000,267.500,356.500,323.500
0.969,349.500,265.500,353.500,321.500
0.970,352.000,264.500,352.000,320.500
0.971,353.500,262.500,349.500,319.000
0.972,356.000,261.500,348.000,319.000
0.973,357.000,260.000,345.000,317.500
0.974,359.000,259.000,343.500,317.000
0.975,360.500,257.500,340.500,315.500
0.976,363.000,256.500,339.000,314.500
0.977,364.500,255.000,336.500,312.500
0.978,367.500,254.500,335.500,311.500
0.979,369.500,253.000,333.500,310.000
0.980,372.500,253.000,332.500,309.500
0.981,375.000,251.500,330.500,308.000
0.982,378.000,251.000,329.500,307.500
0.983,380.500,249.500,327.000,306.500
0.984,384.000,249.000,326.000,306.500
0.985,387.000,247.500,324.000,305.500
0.986,390.500,247.000,323.000,305.500
0.987,392.500,245.500,322.000,305.000
0.988,395.500,245.500,321.500,305.500
0.989,397.500,244.500,320.500,305.000
0.990,400.500,244.500,321.000,306.000
0.991,402.500,244.000,320.000,306.500
0.992,405.500,245.000,320.500,307.500
0.993,407.500,245.000,319.500,307.500
0.994,410.500,246.000,320.000,308.500
0.995,412.000,246.500,320.000,308.500
0.996,415.000,248.000,320.500,309.500
0.997,416.500,248.500,320.500,309.500
0.998,419.000,250.000,321.500,310.000
0.999,420.000,250.000,321.500,310.000
1.000,422.000,251.000,322.000,311.000
1.001,423.500,251.500,322.000,311.000
1.002,425.500,252.500,323.500,312.000
1.003,427.500,253.500,324.000,313.000
1.004,430.500,255.000,325.500,314.500
1.005,433.000,256.500,326.000,315.500
1.006,437.000,258.500,328.000,317.500
1.007,440.500,260.000,328.500,318.500
1.008,444.500,262.500,330.000,320.500
1.009,446.500,264.000,330.500,321.500
1.010,448.500,266.000,331.500,323.000
1.011,448.000,266.000,331.500,323.000
1.012,446.500,266.500,331.000,323.500
1.013,442.500,265.000,329.500,322.500
1.014,437.500,264.500,328.000,321.500
1.015,430.500,262.500,325.000,319.500
1.016,423.500,261.000,323.000,317.500
1.017,415.000,259.000,320.000,315.000
1.018,407.000,257.500,318.500,313.000
1.019,398.000,255.500,316.000,310.000
1.020,389.500,254.000,315.000,308.500
1.021,380.500,252.000,313.500,306.500
1.022,372.000,250.500,312.500,305.000
1.023,363.500,248.500,311.000,303.000
1.024,356.000,248.000,310.500,302.500
1.025,348.000,246.500,309.000,301.000
1.026,341.500,246.000,308.500,301.000
1.027,335.000,245.000,307.500,300.000
1.028,330.500,244.000,307.500,300.000
1.029,326.000,243.000,307.000,299.500
1.030,323.000,242.000,307.000,299.000
1.031,320.500,240.500,306.000,298.000
1.032,319.500,239.500,306.000,297.500
1.033,318.000,238.000,305.000,296.000
1.034,318.000,237.000,306.000,295.000
1.035,317.000,235.500,306.000,293.500
1.036,317.000,234.500,307.000,292.500
1.037,315.500,233.000,307.000,291.000
1.038,315.000,232.000,308.500,290.000
1.039,313.500,231.000,309.500,288.500
1.040,313.500,230.500,311.000,288.000
1.041,312.500,230.000,311.500,287.000
1.042,312.500,230.000,313.500,287.000
1.043,312.000,230.000,314.500,286.000
1.044,312.500,230.500,316.500,286.000
1.045,312.500,230.500,317.500,285.000
1.046,313.000,230.500,319.000,285.000
1.047,312.500,230.000,319.500,284.000
1.048,313.000,230.000,320.500,284.000
1.049,312.500,229.000,320.500,283.000
1.050,313.500,228.500,321.000,283.000
1.051,313.000,227.000,320.500,282.500
1.052,314.000,226.000,321.000,282.500
1.053,313.500,224.500,320.500,281.500
1.054,314.000,223.500,320.500,281.000
1.055,314.000,222.500,320.000,280.000
1.056,314.500,222.000,321.000,279.500
1.057,315.000,220.500,320.500,278.500
1.058,316.000,220.000,321.500,278.000
1.059,316.500,218.500,321.500,277.000
1.060,318.000,218.000,322.000,276.500
1.061,319.000,216.500,321.500,275.500
1.062,320.500,215.000,321.500,275.000
1.063,321.000,213.000,320.500,274.000
1.064,322.500,212.000,320.500,273.500
1.065,323.000,209.500,320.000,272.500
1.066,324.500,208.000,320.000,272.000
1.067,325.000,205.500,319.500,271.000
1.068,326.500,204.500,320.000,270.500
1.069,327.000,203.000,320.000,270.000
1.070,328.000,202.500,321.500,270.000
1.071,328.000,201.500,321.500,269.500
1.072,328.500,201.500,322.500,270.000
1.073,328.500,200.500,321.500,270.000
1.074,329.000,200.500,321.500,270.000
1.075,329.000,200.000,320.500,269.500
1.076,330.500,200.000,320.500,269.500
1.077,331.000,199.500,319.500,268.500
1.078,333.500,199.500,320.000,268.500
1.079,335.000,199.000,319.500,267.000
1.080,337.500,199.500,319.500,266.500
1.081,339.500,198.500,318.500,265.500
1.082,342.000,198.500,318.000,265.000
1.083,344.000,197.000,316.500,264.000
1.084,346.000,197.000,316.000,263.500
1.085,347.000,196.000,314.500,263.000
1.086,348.500,196.000,314.000,263.000
1.087,349.000,195.000,312.500,262.500
1.088,351.000,195.000,312.500,263.000
1.089,351.500,194.500,311.500,262.500
1.090,353.000,194.500,311.500,263.500
1.091,354.000,193.500,311.000,263.000
1.092,355.500,193.500,311.000,263.500
1.093,356.500,193.000,309.500,263.500
1.094,358.500,192.500,309.000,264.000
1.095,359.500,191.500,307.500,264.000
1.096,362.000,191.500,306.500,264.000
1.097,363.000,190.500,305.000,263.500
1.098,364.500,190.000,304.500,263.500
1.099,365.000,189.000,303.500,262.500
1.100,366.500,188.500,304.000,262.500
1.101,367.000,187.500,303.500,262.000
1.102,368.500,187.500,304.500,263.000
1.103,369.000,186.500,304.500,263.000
1.104,371.000,186.500,305.000,264.500
1.105,372.000,186.000,304.500,265.000
1.106,374.000,186.500,304.500,266.500
1.107,375.000,186.500,304.000,267.000
1.108,377.000,187.000,304.500,268.000
1.109,378.000,187.000,304.000,268.500
1.110,380.000,188.000,304.500,269.500
1.111,381.500,188.000,304.000,270.000
1.112,383.500,188.500,304.500,270.500
1.113,385.000,188.000,303.500,270.000
1.114,387.500,188.000,304.000,270.000
1.115,389.000,187.000,303.000,269.500
1.116,391.500,187.000,303.000,269.500
1.117,393.500,186.500,302.500,268.500
1.118,395.500,186.500,302.000,268.000
1.119,396.500,186.000,301.000,267.000
1.120,398.500,186.000,300.500,266.500
1.121,399.000,185.500,300.000,265.500
1.122,401.500,186.000,300.000,265.500
1.123,402.500,186.500,300.000,265.500
1.124,405.000,187.000,300.500,267.000
1.125,406.000,187.000,300.500,267.500
1.126,408.000,187.500,301.000,269.000
1.127,408.500,187.000,300.000,269.000
1.128,409.500,186.500,300.000,270.000
1.129,409.000,184.500,299.000,269.500
1.130,409.500,183.500,298.500,269.500
1.131,409.500,182.000,297.500,269.000
1.132,410.500,182.000,297.000,269.000
1.133,410.500,181.500,296.500,268.000
1.134,411.000,181.500,296.500,268.000
1.135,410.500,181.500,296.000,267.000
1.136,411.000,182.000,296.500,266.500
1.137,410.000,181.500,296.500,265.500
1.138,410.500,182.000,297.000,265.500
1.139,409.500,182.000,296.000,265.000
1.140,410.000,182.000,296.000,265.000
1.141,409.500,181.000,295.000,264.000
1.142,410.000,181.000,295.000,264.500
1.143,409.500,180.500,294.000,263.500
1.144,410.000,180.500,293.500,264.000
1.145,410.000,180.000,292.500,263.500
1.146,410.500,179.500,292.500,263.500
1.147,410.500,178.500,292.000,263.000
1.148,411.000,178.500,292.000,263.500
1.149,411.000,177.500,291.000,263.500
1.150,412.000,177.500,291.500,264.000
1.151,412.000,177.000,290.500,264.000
1.152,413.500,177.000,291.000,264.500
1.153,414.500,176.500,290.000,264.000
1.154,416.500,176.500,290.500,264.000
1.155,417.500,176.000,290.000,263.000
1.156,419.500,176.500,290.000,263.000
1.157,420.500,176.000,289.500,262.000
1.158,422.000,176.500,290.000,262.000
1.159,422.000,176.000,289.500,261.000
1.160,423.500,177.000,289.500,261.000
1.161,423.500,177.000,289.000,260.000
1.162,424.000,178.000,289.000,260.000
1.163,424.000,178.500,288.500,259.500
1.164,425.000,179.500,289.000,259.500
1.165,424.500,180.000,288.500,259.000
1.166,425.500,181.000,288.500,259.000
1.167,425.000,181.500,287.500,258.000
1.168,426.000,182.500,288.000,258.500
1.169,426.000,183.000,288.000,258.500
1.170,427.000,184.000,288.500,259.500
1.171,427.500,184.000,288.000,260.000
1.172,428.500,185.000,288.500,261.000
1.173,429.000,185.000,288.500,261.500
1.174,430.000,185.500,289.000,263.000
1.175,429.500,185.000,288.000,263.000
1.176,430.000,185.500,288.000,263.500
1.177,429.500,185.500,287.000,263.000
1.178,430.000,186.500,287.000,263.000
1.179,429.000,186.500,285.500,261.500
1.180,429.500,186.500,285.000,260.500
1.181,428.500,186.000,284.000,258.500
1.182,429.000,186.000,283.500,257.500
1.183,428.000,185.000,282.500,256.000
1.184,428.500,184.500,282.000,255.500
1.185,427.000,183.500,281.000,254.500
1.186,427.000,183.000,280.500,254.500
1.187,425.500,181.500,278.500,254.000
1.188,425.500,181.000,277.500,254.500
1.189,425.000,180.000,276.000,254.000
1.190,425.500,180.000,275.000,254.000
1.191,425.500,179.500,273.500,253.500
1.192,426.500,179.500,273.000,254.000
1.193,426.500,179.500,272.500,254.000
1.194,427.000,180.500,273.000,254.000
1.195,426.500,180.500,272.500,253.500
1.196,427.000,181.000,272.500,254.000
1.197,426.500,181.000,272.000,253.500
1.198,426.500,181.500,271.500,253.500
1.199,425.500,181.000,270.500,252.500
1.200,425.500,181.000,270.500,252.500
1.201,425.000,180.500,270.000,252.000
1.202,425.000,180.500,270.000,252.000
1.203,424.500,180.000,269.000,251.000
1.204,425.000,180.000,268.500,251.500
1.205,424.500,179.500,267.000,250.500
1.206,425.000,179.000,267.000,250.500
1.207,425.000,178.000,265.500,249.500
1.208,426.500,177.500,265.500,249.500
1.209,426.500,176.500,265.500,249.000
1.210,428.000,176.500,266.000,249.500
1.211,428.500,176.000,266.500,249.000
1.212,430.000,176.500,267.000,249.500
1.213,430.000,176.500,267.000,249.000
1.214,431.000,177.000,268.000,249.000
1.215,430.000,176.500,267.500,248.500
1.216,430.000,176.500,268.000,248.500
1.217,428.500,175.500,267.000,247.000
1.218,428.000,175.000,267.000,246.500
1.219,426.500,173.500,266.000,245.000
1.220,425.500,173.000,265.500,244.500
1.221,424.000,171.500,264.500,242.500
1.222,424.000,171.500,264.500,242.000
1.223,423.000,171.000,264.000,241.500
1.224,423.500,171.500,264.500,241.500
1.225,423.500,171.500,264.000,241.500
1.226,424.000,172.500,265.000,242.500
1.227,424.000,173.500,265.000,243.000
1.228,425.000,175.000,266.000,244.000
1.229,424.500,175.500,266.500,244.500
1.230,426.000,177.000,268.000,245.000
1.231,426.000,177.000,268.500,244.500
1.232,428.000,177.500,269.500,245.000
1.233,428.500,177.500,270.000,244.000
1.234,430.500,178.000,270.500,243.500
1.235,431.500,177.500,270.500,242.500
1.236,433.500,178.000,271.000,242.000
1.237,434.000,178.000,271.000,241.000
1.238,436.000,178.500,271.500,241.000
1.239,437.000,178.000,271.000,240.500
1.240,439.500,178.500,271.000,241.000
1.241,440.500,178.000,270.500,241.000
1.242,442.500,178.500,270.000,241.500
1.243,443.500,178.500,269.000,241.500
1.244,445.000,179.500,269.000,242.000
1.245,445.500,179.000,268.500,242.000
1.246,446.500,179.500,268.500,242.000
1.247,446.000,179.000,268.000,241.500
1.248,446.500,179.000,269.000,241.500
1.249,445.500,178.500,269.000,241.500
1.250,446.000,178.500,270.000,242.000
1.251,445.000,178.000,270.000,242.000
1.252,445.500,179.000,271.500,242.500
1.253,444.500,179.500,272.000,243.000
1.254,445.000,180.500,273.000,244.500
1.255,444.000,181.500,273.500,245.000
1.256,443.500,183.000,275.000,246.000
1.257,442.000,184.000,276.000,246.500
1.258,441.500,185.500,277.000,248.000
1.259,440.000,186.500,277.500,248.500
1.260,440.000,188.000,278.500,249.500
1.261,438.500,188.500,279.000,250.000
1.262,439.000,190.000,279.500,251.500
1.263,438.500,191.000,279.500,251.500
1.264,439.500,192.000,280.000,252.500
1.265,439.000,192.000,279.500,252.500
1.266,439.500,192.500,279.500,253.500
1.267,439.000,192.500,279.000,253.500
1.268,439.500,193.000,279.500,254.000
1.269,439.500,193.000,279.000,254.000
1.270,440.500,194.000,279.500,254.500
1.271,440.500,194.000,279.500,254.000
1.272,442.000,194.500,279.500,254.000
1.273,441.500,194.500,278.500,252.500
1.274,442.000,195.000,278.000,251.500
1.275,441.500,194.500,276.500,250.000
1.276,441.500,194.500,276.000,249.000
1.277,441.000,194.000,275.000,248.000
1.278,441.500,194.000,275.000,247.500
1.279,441.500,194.000,275.000,247.000
1.280,442.500,194.000,275.500,247.000
1.281,442.500,194.000,276.000,246.500
1.282,443.500,194.500,277.000,247.000
1.283,443.000,195.000,277.000,247.000
1.284,444.000,196.000,278.500,247.500
1.285,444.000,196.000,278.500,247.500
1.286,445.500,197.000,279.500,248.000
1.287,445.500,197.000,279.000,247.500
1.288,447.000,197.500,279.500,247.000
1.289,447.000,197.000,279.000,246.000
1.290,448.000,196.500,279.000,244.500
1.291,448.000,195.000,278.000,242.500
1.292,448.500,194.000,277.500,240.500
1.293,448.000,192.500,276.500,238.000
1.294,448.000,191.000,275.500,236.000
1.295,447.000,189.000,274.000,233.000
1.296,447.000,188.000,273.000,231.000
1.297,445.000,186.000,271.000,228.500
1.298,444.000,184.500,269.500,227.000
1.299,442.000,182.500,267.000,224.000
1.300,440.500,181.000,265.000,222.000
1.301,438.000,178.500,262.000,219.500
1.302,436.500,176.500,259.500,217.500
1.303,434.000,173.500,256.500,215.000
1.304,433.000,171.000,254.500,213.000
1.305,431.000,168.000,251.500,211.000
1.306,430.500,165.500,250.000,209.500
1.307,429.500,162.500,247.500,208.000
1.308,429.500,161.000,246.000,207.000
1.309,428.500,159.000,244.500,205.500
1.310,429.000,158.000,243.500,204.500
1.311,428.500,157.000,242.500,203.500
1.312,429.000,156.500,242.000,203.000
1.313,428.500,155.000,241.000,202.000
1.314,428.500,154.000,240.500,201.000
1.315,427.000,152.000,239.000,199.500
1.316,426.500,151.000,238.000,198.500
1.317,424.500,149.000,236.500,196.500
1.318,424.000,148.500,236.000,195.500
1.319,422.000,147.500,235.500,194.500
1.320,421.500,147.500,236.000,194.500
1.321,420.000,147.500,236.500,194.000
1.322,420.000,148.000,237.500,194.500
1.323,419.000,147.500,238.000,195.000
1.324,419.000,148.000,239.000,196.500
1.325,418.500,148.500,240.000,198.000
1.326,419.500,149.500,242.000,200.000
1.327,419.500,150.500,243.500,202.000
1.328,421.000,152.500,246.500,204.500
1.329,421.500,155.000,248.500,206.000
1.330,423.000,157.500,252.000,208.500
1.331,424.000,159.500,254.500,210.000
1.332,426.000,162.000,257.000,212.000
1.333,426.500,163.000,258.500,212.000
1.334,428.500,164.000,259.500,212.500
1.335,429.500,164.000,259.000,211.000
1.336,431.500,163.500,258.000,209.500
1.337,432.000,161.500,255.000,207.000
1.338,434.000,160.000,252.000,204.500
1.339,434.500,157.500,248.500,201.500
1.340,435.500,155.000,245.500,199.500
1.341,435.500,152.500,242.000,197.000
1.342,436.500,150.500,239.500,195.500
1.343,436.500,148.000,236.500,193.500
1.344,438.000,146.500,234.500,192.500
1.345,438.000,144.500,231.500,190.500
1.346,439.500,143.500,229.000,189.500
1.347,439.500,141.500,226.000,187.500
1.348,441.000,140.000,223.500,185.500
1.349,441.000,137.500,219.000,182.500
1.350,442.000,135.000,214.500,179.000
1.351,442.500,131.000,208.500,173.500
1.352,444.000,127.000,202.000,167.500
1.353,445.000,122.500,194.000,160.500
1.354,447.000,118.000,186.000,153.000
1.355,448.500,113.500,177.500,145.000
1.356,451.500,110.000,170.500,138.000
1.357,453.000,107.000,163.500,131.000
1.358,456.000,105.500,158.000,125.000
1.359,458.000,104.000,153.000,119.500
1.360,461.000,103.000,149.500,115.500
1.361,463.500,102.000,146.000,112.000
1.362,466.500,101.500,144.000,109.500
1.363,469.000,101.000,142.500,107.000
1.364,471.500,101.000,142.500,106.000
1.365,472.500,101.500,144.000,105.500
1.366,474.000,103.500,148.000,107.000
1.367,473.500,106.000,153.000,109.000
1.368,473.500,110.000,159.500,112.000
1.369,471.000,114.000,166.500,114.500
1.370,468.500,118.500,174.000,117.500
1.371,463.500,122.000,180.500,119.000
1.372,459.000,126.000,186.500,120.000
1.373,453.000,128.500,191.500,120.500
1.374,447.500,130.500,196.500,121.500
1.375,440.500,132.000,200.000,121.500
1.376,435.000,133.000,204.000,122.500
1.377,428.000,133.000,206.500,122.500
1.378,422.500,133.500,209.500,123.000
1.379,415.500,133.000,211.000,122.000
1.380,409.500,132.500,212.500,121.500
1.381,402.000,131.500,213.000,120.500
1.382,395.500,131.000,214.000,120.000
1.383,388.500,130.000,214.000,119.500
1.384,382.000,129.000,214.000,119.000
1.385,374.500,127.500,213.000,118.500
1.386,368.500,126.000,212.500,118.500
1.387,361.000,124.500,211.000,117.500
1.388,355.000,123.000,209.500,116.000
1.389,347.500,121.000,207.000,114.000
1.390,341.500,119.000,205.000,112.000
1.391,335.000,117.000,203.000,109.500
1.392,330.000,116.000,201.500,107.000
1.393,324.500,114.000,199.500,104.500
1.394,320.000,113.000,198.000,103.000
1.395,315.500,111.000,196.000,101.000
1.396,312.000,110.000,194.500,99.500
1.397,307.500,108.000,193.000,97.500
1.398,304.500,106.500,191.500,96.000
1.399,301.000,105.000,190.000,94.500
1.400,299.000,104.000,189.500,93.500
1.401,296.000,103.000,188.500,92.500
1.402,294.500,102.000,188.500,92.500
1.403,292.500,101.000,188.000,91.500
1.404,291.000,100.000,188.000,91.500
1.405,289.500,98.500,187.500,90.500
1.406,288.500,97.000,187.500,89.500
1.407,287.500,95.500,186.500,88.500
1.408,287.000,95.000,186.000,88.000
1.409,286.500,93.500,185.000,87.500
1.410,286.500,93.000,184.500,87.000
1.411,286.500,92.000,183.000,86.500
1.412,287.500,92.000,182.500,86.000
1.413,288.000,91.000,181.000,85.000
1.414,290.000,90.500,180.500,84.000
1.415,291.000,90.000,180.000,82.500
1.416,292.500,90.500,180.000,81.500
1.417,293.500,90.500,179.500,80.000
1.418,295.500,91.500,179.500,78.500
1.419,296.000,92.000,179.000,76.500
1.420,297.500,93.000,179.500,74.500
1.421,298.500,93.500,179.000,73.000
1.422,300.000,94.500,179.000,71.500
1.423,300.500,95.000,179.000,70.500
1.424,301.500,96.500,179.000,69.500
1.425,302.000,97.500,179.000,69.000
1.426,303.000,99.000,179.500,68.500
1.427,303.500,100.000,179.500,67.500
1.428,304.500,101.500,180.500,67.000
1.429,305.000,102.500,180.500,65.500
1.430,307.000,104.000,181.000,64.500
1.431,308.000,105.000,181.000,63.000
1.432,310.000,106.000,181.500,62.500
1.433,311.000,107.000,181.500,61.500
1.434,313.000,108.000,181.500,61.000
1.435,313.500,108.500,181.500,60.000
1.436,314.500,109.500,181.500,59.500
1.437,315.000,110.000,181.500,58.500
1.438,316.500,111.500,181.500,57.500
1.439,317.000,112.000,180.500,56.000
1.440,318.000,113.000,180.500,54.500
1.441,318.500,113.500,179.500,52.500
1.442,320.000,114.000,179.000,50.500
1.443,320.000,114.000,177.500,48.000
1.444,321.000,114.500,177.000,46.000
1.445,320.500,114.000,176.000,43.500
1.446,321.000,113.500,175.500,41.500
1.447,320.500,113.000,174.500,39.500
1.448,320.500,113.500,174.500,38.000
1.449,319.500,113.000,173.500,36.000
1.450,319.500,113.500,173.500,35.000
1.451,318.500,113.000,172.500,33.000
1.452,318.500,113.000,172.000,31.000
1.453,317.500,112.500,171.000,29.000
1.454,317.000,112.000,170.500,27.000
1.455,315.500,111.500,169.500,24.500
1.456,315.000,111.500,169.000,22.500
1.457,314.500,111.500,167.500,20.000
1.458,314.500,111.500,167.000,17.500
1.459,314.000,111.500,165.500,15.500
1.460,315.000,112.000,165.000,14.000
1.461,315.000,112.000,164.000,12.500
1.462,316.000,112.500,164.000,11.500
1.463,316.000,112.000,163.500,10.500
1.464,317.000,112.500,164.000,10.000
1.465,317.500,112.000,164.000,9.500
1.466,318.000,112.000,165.000,9.000
1.467,318.000,111.500,165.000,8.500
1.468,318.000,111.000,165.500,8.500
1.469,317.000,109.500,165.000,7.500
1.470,316.500,109.000,165.000,7.000
1.471,315.000,108.000,164.500,6.000
1.472,314.000,107.500,164.000,5.000
1.473,313.000,106.500,163.000,3.500
1.474,312.500,106.000,162.500,2.500
1.475,311.500,105.500,161.000,0.500
1.476,311.500,105.000,160.500,-1.000
1.477,310.000,104.500,159.500,-2.500
1.478,308.000,104.500,159.500,-4.000
1.479,302.500,105.000,160.000,-4.500
1.480,294.500,107.500,162.500,-3.000
1.481,282.500,111.000,165.500,0.000
1.482,269.000,115.500,170.000,4.000
1.483,254.000,120.000,173.500,8.000
1.484,240.000,124.500,177.500,12.500
1.485,228.000,128.000,179.500,15.500
1.486,219.000,131.000,181.500,18.000
1.487,212.500,133.000,182.000,19.500
1.488,209.000,135.000,182.500,20.500
1.489,206.500,136.000,182.500,20.500
1.490,205.000,137.500,183.000,21.000
1.491,203.500,138.000,183.500,21.000
1.492,203.000,139.000,184.000,21.500
1.493,202.000,139.000,184.000,21.000
1.494,202.000,140.000,185.000,20.000
1.495,201.000,140.000,185.000,19.000
1.496,201.000,140.500,185.000,17.500
1.497,200.500,140.000,184.500,15.500
1.498,201.000,140.500,184.000,14.000
1.499,201.000,139.500,183.000,12.000
1.500,202.000,139.000,181.500,10.000
1.501,202.500,137.500,179.500,7.500
1.502,203.500,136.000,178.000,5.500
1.503,204.500,134.000,176.000,3.500
1.504,206.000,133.000,174.500,1.500
1.505,207.500,131.500,173.000,-0.500
1.506,210.000,130.500,171.500,-2.500
1.507,211.500,129.500,170.000,-4.000
1.508,214.500,129.000,168.500,-6.000
1.509,216.500,128.000,167.000,-7.500
1.510,219.500,128.000,166.000,-9.500
1.511,221.500,127.000,164.500,-11.000
1.512,224.000,126.500,163.500,-13.000
1.513,226.000,126.000,162.000,-14.500
1.514,228.000,125.500,161.500,-16.000
1.515,229.500,125.000,160.000,-17.500
1.516,231.000,125.000,159.000,-19.000
1.517,231.500,124.500,157.500,-20.000
1.518,233.000,124.500,156.500,-21.000
1.519,233.500,124.000,155.000,-21.500
1.520,235.000,123.500,154.000,-23.000
1.521,235.500,123.000,153.000,-23.500
1.522,237.000,123.000,152.500,-24.500
1.523,237.500,122.000,152.000,-24.500
1.524,239.000,122.000,152.000,-25.000
1.525,240.000,121.500,152.000,-25.500
1.526,241.500,122.000,152.000,-26.000
1.527,242.500,121.500,151.000,-26.500
1.528,244.000,121.500,150.500,-27.500
1.529,245.000,121.500,149.500,-28.500
1.530,246.500,121.500,149.000,-29.500
1.531,247.000,121.500,147.500,-30.500
1.532,248.000,121.500,147.000,-31.000
1.533,248.500,121.000,146.000,-31.500
1.534,249.000,121.000,145.500,-32.500
1.535,248.500,120.500,144.500,-33.500
1.536,248.000,120.500,143.500,-35.000
1.537,247.000,120.000,142.500,-36.500
1.538,246.500,120.000,141.000,-38.000
1.539,245.000,119.500,139.000,-40.000
1.540,244.000,119.500,137.500,-42.000
1.541,242.500,118.500,135.000,-43.500
1.542,242.500,118.500,133.500,-45.500
1.543,241.500,117.500,132.000,-46.500
1.544,241.500,117.500,131.000,-48.000
1.545,241.000,116.500,130.000,-48.500
1.546,241.000,116.000,129.000,-49.000
1.547,240.000,115.000,127.500,-49.000
1.548,239.500,114.500,126.500,-49.500
1.549,238.500,113.500,125.000,-49.500
1.550,239.000,112.500,123.500,-50.000
1.551,238.500,111.000,122.000,-49.500
1.552,239.000,110.000,121.000,-49.500
1.553,238.500,108.500,119.500,-49.000
1.554,238.000,107.000,119.000,-49.000
1.555,237.000,105.500,118.000,-48.500
1.556,236.000,104.500,117.500,-48.500
1.557,234.500,103.000,116.500,-48.000
1.558,233.500,103.000,116.500,-48.500
1.559,232.500,102.000,115.500,-48.500
1.560,232.000,102.000,115.000,-49.000
1.561,231.500,101.500,113.500,-49.000
1.562,232.000,101.500,112.500,-49.500
1.563,232.500,100.500,110.500,-50.000
1.564,233.500,100.500,109.500,-50.500
1.565,234.000,100.000,107.500,-50.500
1.566,235.500,100.000,106.000,-51.000
1.567,237.000,99.500,104.500,-51.000
1.568,239.000,99.500,104.000,-51.500
1.569,239.500,99.500,102.500,-52.000
1.570,241.000,99.500,102.000,-52.500
1.571,241.000,99.500,101.000,-53.000
1.572,241.500,99.500,100.500,-54.500
1.573,241.000,99.500,99.000,-55.500
1.574,241.500,100.000,97.500,-57.500
1.575,241.000,99.500,95.000,-59.500
1.576,241.500,99.500,93.500,-62.000
1.577,241.500,99.000,91.500,-63.500
1.578,242.500,99.000,90.500,-65.500
1.579,243.000,98.500,89.500,-66.500
1.580,243.500,98.500,89.500,-67.500
1.581,243.500,98.000,89.500,-67.500
1.582,244.000,98.500,90.000,-67.500
1.583,243.500,98.000,90.000,-66.500
1.584,244.000,98.500,90.500,-64.000
1.585,243.000,98.000,90.500,-59.000
1.586,243.000,97.500,91.000,-52.000
1.587,242.000,97.000,91.500,-42.000
1.588,241.500,97.000,92.000,-31.000
1.589,240.500,96.500,92.500,-19.500
1.590,240.500,97.000,93.500,-9.500
1.591,239.500,97.000,94.000,-2.000
1.592,239.500,97.000,94.500,3.500
1.593,239.000,97.000,94.500,6.000
1.594,239.500,97.000,95.000,7.500
1.595,239.000,96.500,95.000,7.500
1.596,239.500,96.000,95.000,7.000
1.597,239.500,95.500,94.000,6.000
1.598,241.000,94.500,93.500,5.000
1.599,241.500,93.500,92.500,3.500
1.600,243.000,92.500,92.000,2.500
1.601,243.500,91.500,91.000,1.500
1.602,244.500,91.000,91.000,1.000
1.603,244.500,90.500,90.500,1.000
1.604,244.500,90.500,90.500,2.000
1.605,243.500,90.500,91.000,3.500
1.606,243.000,91.000,92.000,5.500
1.607,242.000,91.500,92.500,8.000
1.608,242.500,92.000,93.500,11.000
1.609,242.500,92.500,94.000,13.500
1.610,243.500,93.500,95.000,16.500
1.611,244.000,94.000,95.500,19.000
1.612,245.000,95.000,96.000,22.000
1.613,245.000,95.500,96.000,24.500
1.614,245.500,96.000,96.000,27.500
1.615,245.000,96.000,95.500,30.000
1.616,245.500,96.500,95.000,33.000
1.617,245.000,96.500,94.000,36.000
1.618,246.000,97.500,94.000,39.000
1.619,246.000,98.000,93.500,42.000
1.620,247.000,99.000,93.500,45.500
1.621,247.000,99.500,93.000,49.000
1.622,248.000,100.500,93.500,52.000
1.623,248.000,101.000,94.000,55.000
1.624,249.000,102.000,94.500,58.000
1.625,249.000,102.000,95.000,60.500
1.626,249.500,102.000,95.500,63.500
1.627,249.000,101.500,96.000,66.500
1.628,249.500,101.500,96.500,69.000
1.629,249.500,100.500,96.000,71.500
1.630,250.500,100.000,96.000,74.000
1.631,251.000,99.500,95.500,76.500
1.632,252.500,99.000,95.000,79.500
1.633,253.500,99.000,94.500,82.000
1.634,255.500,99.500,95.000,85.000
1.635,256.500,99.500,95.000,87.500
1.636,258.000,100.500,95.500,91.000
1.637,259.000,100.500,95.500,93.500
1.638,260.000,101.000,96.000,96.000
1.639,260.500,100.500,96.000,98.000
1.640,261.000,101.000,96.500,100.000
1.641,261.000,100.500,96.500,101.500
1.642,261.500,100.500,97.000,103.000
1.643,261.500,100.500,97.000,104.500
1.644,262.000,101.000,98.000,106.000
1.645,262.000,101.000,98.000,107.500
1.646,262.500,101.500,99.000,109.000
1.647,262.000,101.500,99.000,110.000
1.648,262.500,102.000,100.000,111.500
1.649,262.500,101.500,100.500,112.500
1.650,263.000,102.000,101.500,114.000
1.651,263.000,101.500,101.500,115.000
1.652,264.000,101.500,102.000,116.000
1.653,264.000,101.500,102.000,117.000
1.654,264.500,102.500,102.500,118.500
1.655,264.500,103.000,102.500,119.500
1.656,265.000,104.000,103.000,121.500
1.657,264.500,104.500,103.000,123.500
1.658,265.000,105.500,103.000,125.500
1.659,264.500,105.500,103.000,127.500
1.660,265.000,106.000,103.000,129.500
1.661,265.000,106.000,103.000,131.000
1.662,266.000,106.500,103.500,133.000
1.663,266.500,106.500,104.000,134.500
1.664,268.000,107.000,105.000,136.500
1.665,268.500,107.000,105.500,138.000
1.666,270.000,107.000,106.500,140.000
1.667,270.000,106.000,107.000,141.000
1.668,271.000,106.000,108.000,142.000
1.669,270.500,105.000,108.500,142.500
1.670,271.000,105.000,108.500,143.500
1.671,271.000,104.000,108.000,143.500
1.672,271.500,104.000,108.000,144.000
1.673,271.500,103.500,107.000,143.500
1.674,272.500,103.500,107.000,143.500
1.675,273.000,102.500,106.000,142.500
1.676,274.000,102.500,105.500,142.500
1.677,274.500,102.000,104.500,142.500
1.678,276.000,102.000,104.000,143.000
1.679,276.500,102.000,103.500,143.500
1.680,277.500,102.500,103.000,144.500
1.681,277.000,103.000,103.000,145.000
1.682,277.500,104.000,103.000,146.500
1.683,276.500,104.500,103.500,147.000
1.684,276.000,106.000,104.500,148.000
1.685,274.000,106.500,105.000,148.500
1.686,273.000,108.000,106.000,149.500
1.687,270.500,109.000,106.500,150.000
1.688,268.500,110.000,106.500,151.000
1.689,265.500,110.000,105.500,151.000
1.690,264.000,110.000,105.000,151.500
1.691,262.000,109.500,104.000,151.500
1.692,261.500,109.000,103.500,151.500
1.693,260.500,107.500,102.000,151.000
1.694,261.500,107.000,101.500,150.500
1.695,262.000,105.500,100.000,149.000
1.696,263.000,105.000,99.500,148.000
1.697,263.500,104.500,98.500,147.000
1.698,264.500,104.000,98.000,146.500
1.699,264.000,104.000,98.000,146.000
1.700,264.500,104.500,98.500,146.000
1.701,263.500,104.500,98.500,146.000
1.702,263.500,105.500,99.000,146.500
1.703,263.000,106.000,99.500,147.000
1.704,263.000,107.000,100.000,147.500
1.705,262.500,107.000,99.500,148.000
1.706,263.000,107.000,99.500,149.000
1.707,262.000,106.500,98.500,149.000
1.708,262.000,105.500,98.000,150.000
1.709,261.000,104.000,97.000,150.000
1.710,260.500,103.000,96.000,150.500
1.711,259.000,101.500,95.500,150.500
1.712,258.500,101.000,95.500,151.500
1.713,256.500,101.000,96.500,152.500
1.714,254.500,102.000,98.500,155.000
1.715,251.000,104.000,101.000,157.500
1.716,246.500,106.500,105.000,161.000
1.717,240.500,109.000,109.000,164.500
1.718,234.500,112.000,114.000,168.500
1.719,228.000,114.500,118.500,172.000
1.720,223.000,118.000,123.500,175.500
1.721,218.500,121.000,128.000,178.500
1.722,215.000,124.000,132.500,181.000
1.723,212.000,126.500,135.000,182.000
1.724,210.000,129.000,137.000,183.500
1.725,207.000,129.500,137.000,183.000
1.726,205.000,130.000,136.000,182.500
1.727,202.500,129.500,133.000,180.000
1.728,201.500,128.500,130.000,177.500
1.729,200.000,126.500,126.000,173.500
1.730,199.500,125.000,122.500,170.000
1.731,198.500,123.000,119.000,166.500
1.732,198.500,122.000,116.500,164.000
1.733,197.500,121.000,114.000,162.500
1.734,197.500,121.000,113.000,162.000
1.735,196.500,121.000,112.500,161.500
1.736,196.500,122.000,112.500,162.000
1.737,195.500,122.500,112.500,161.500
1.738,195.500,123.500,113.000,161.500
1.739,194.500,124.000,112.500,161.000
1.740,194.500,124.500,112.500,160.500
1.741,193.500,124.500,112.000,160.000
1.742,193.500,124.500,112.000,160.000
1.743,193.000,124.000,111.500,160.000
1.744,193.000,124.000,111.000,161.000
1.745,191.500,123.500,110.500,161.000
1.746,191.000,123.500,110.000,161.500
1.747,189.000,123.000,109.500,161.500
1.748,188.000,123.500,109.000,162.000
1.749,186.000,123.000,108.000,162.500
1.750,184.500,123.000,108.000,163.000
1.751,182.500,122.500,107.500,163.000
1.752,181.000,122.500,107.500,163.500
1.753,179.000,121.500,107.500,163.500
1.754,177.500,121.500,108.000,163.500
1.755,175.500,121.000,107.500,163.000
1.756,175.000,121.000,107.500,163.000
1.757,174.500,120.000,107.000,162.500
1.758,175.500,120.000,107.000,163.000
1.759,176.000,119.000,106.000,163.000
1.760,177.500,119.000,106.000,163.000
1.761,178.500,118.000,105.000,163.000
1.762,180.000,117.500,104.500,163.000
1.763,181.000,117.000,103.500,162.500
1.764,182.500,116.500,103.500,162.000
1.765,183.500,116.000,103.000,161.000
1.766,185.000,116.000,102.500,160.500
1.767,186.000,115.500,102.000,159.000
1.768,187.000,115.000,101.500,158.000
1.769,187.500,113.500,100.500,157.000
1.770,187.500,112.500,100.000,156.500
1.771,187.000,111.000,99.000,155.500
1.772,187.000,110.000,98.500,155.500
1.773,187.000,109.500,98.000,154.500
1.774,187.500,109.500,98.000,154.000
1.775,187.500,109.000,97.000,153.000
1.776,188.500,109.500,96.500,152.000
1.777,189.000,109.000,95.000,150.000
1.778,191.000,108.500,93.500,148.000
1.779,192.500,107.500,91.500,146.000
1.780,194.500,106.000,90.500,144.000
1.781,196.500,104.500,89.000,142.000
1.782,199.000,103.000,87.500,140.000
1.783,200.500,101.000,86.000,138.000
1.784,203.000,99.500,85.000,137.000
1.785,205.000,98.000,83.500,135.500
1.786,207.500,97.500,83.000,135.000
1.787,209.500,97.000,82.500,134.500
1.788,212.500,97.000,82.500,135.000
1.789,214.500,97.000,82.000,134.500
1.790,217.500,97.000,81.500,134.500
1.791,220.000,96.500,80.500,133.500
1.792,223.000,96.500,80.000,132.500
1.793,225.500,96.000,78.500,130.500
1.794,228.500,96.000,77.000,129.000
1.795,230.500,95.500,76.000,127.000
1.796,233.500,95.500,75.000,125.000
1.797,235.500,95.000,74.000,122.500
1.798,238.000,95.000,74.000,121.000
1.799,239.000,94.500,73.500,119.000
1.800,240.500,94.500,73.500,117.500
1.801,241.000,94.000,73.000,116.000
1.802,242.000,94.500,73.000,115.000
1.803,242.500,94.000,72.500,114.000
1.804,244.000,94.500,72.500,113.500
1.805,244.500,94.500,72.000,112.000
1.806,246.000,95.000,71.500,111.000
1.807,247.000,95.000,70.500,109.500
1.808,248.000,95.000,69.500,108.500
1.809,248.500,94.500,67.500,106.500
1.810,249.500,94.500,66.000,105.500
1.811,250.000,93.500,64.500,104.000
1.812,250.500,93.000,63.000,103.000
1.813,250.500,92.000,61.000,101.500
1.814,251.500,91.000,59.500,99.500
1.815,251.500,89.000,58.000,96.500
1.816,252.500,88.000,57.000,93.500
1.817,252.000,86.000,55.500,89.000
1.818,252.000,84.500,55.000,85.000
1.819,251.500,83.000,54.500,80.000
1.820,252.000,82.000,54.000,76.000
1.821,251.500,80.500,53.500,71.000
1.822,252.000,79.500,53.000,67.000
1.823,251.500,78.000,52.000,62.000
1.824,252.500,77.000,51.500,58.000
1.825,252.500,76.000,50.500,54.000
1.826,253.000,75.000,50.000,50.500
1.827,253.000,74.000,49.500,47.500
1.828,254.000,74.000,49.500,45.000
1.829,253.500,73.500,49.500,42.000
1.830,254.500,73.500,49.500,39.500
1.831,254.500,73.500,49.500,36.500
1.832,255.500,73.500,50.000,33.500
1.833,255.500,73.000,50.000,30.000
1.834,256.500,72.500,50.500,27.000
1.835,257.000,71.500,50.000,24.000
1.836,258.500,71.000,50.000,21.500
1.837,259.000,70.500,49.000,18.500
1.838,260.000,70.500,48.000,15.500
1.839,260.000,70.500,46.500,12.500
1.840,261.500,70.500,45.500,10.000
1.841,261.500,70.000,44.000,7.500
1.842,262.500,69.500,43.500,5.000
1.843,262.500,69.000,43.000,2.500
1.844,263.500,69.000,43.500,1.000
1.845,263.500,68.500,43.500,0.000
1.846,264.500,68.000,43.500,-0.500
1.847,264.500,67.500,43.500,-0.500
1.848,265.500,67.500,43.500,0.000
1.849,266.000,67.000,43.000,0.500
1.850,267.000,67.000,43.000,1.000
1.851,267.500,66.000,42.000,1.500
1.852,268.500,65.000,42.000,2.000
1.853,269.000,64.000,41.000,2.500
1.854,270.000,63.500,40.500,3.000
1.855,270.000,63.000,39.500,3.000
1.856,271.000,62.500,39.000,4.000
1.857,271.000,62.000,38.500,4.000
1.858,272.000,62.500,38.500,5.000
1.859,272.500,62.000,38.000,5.500
1.860,273.500,62.500,38.000,7.000
1.861,273.500,62.500,37.500,8.000
1.862,274.500,62.500,37.500,9.000
1.863,274.500,62.500,37.500,10.000
1.864,275.000,62.500,37.500,11.500
1.865,274.500,62.500,37.000,13.000
1.866,274.000,62.500,37.500,14.500
1.867,272.500,62.000,38.000,16.500
1.868,271.000,62.000,38.500,18.500
1.869,268.500,61.000,38.500,20.500
1.870,267.000,60.000,39.000,22.500
1.871,264.500,59.000,38.500,24.000
1.872,264.000,58.000,38.500,25.000
1.873,262.500,56.500,38.000,25.000
1.874,262.500,55.500,37.000,25.500
1.875,262.000,54.500,36.000,25.500
1.876,263.000,54.500,35.000,26.000
1.877,263.000,54.000,33.500,26.000
1.878,264.500,54.000,32.500,26.500
1.879,265.500,54.000,31.500,26.500
1.880,266.500,54.000,30.000,27.000
1.881,267.000,53.500,28.500,27.000
1.882,268.000,53.500,27.500,27.500
1.883,268.000,52.500,26.000,28.000
1.884,269.000,51.500,25.000,29.000
1.885,269.000,50.000,24.000,29.500
1.886,269.500,49.500,24.000,30.500
1.887,269.000,49.000,23.500,31.500
1.888,269.500,49.000,24.000,33.000
1.889,269.500,49.000,24.500,34.000
1.890,270.000,50.000,25.500,35.500
1.891,270.000,50.500,26.000,36.500
1.892,270.500,51.500,27.000,37.500
1.893,270.500,52.000,27.000,38.000
1.894,271.000,53.000,27.000,39.000
1.895,270.500,54.000,27.000,39.000
1.896,271.000,55.000,27.000,39.500
1.897,270.500,56.000,26.500,39.500
1.898,271.000,56.500,26.000,40.000
1.899,270.000,57.000,25.000,40.000
1.900,270.500,57.500,25.000,40.000
1.901,270.000,57.000,24.500,39.500
1.902,270.500,57.500,24.000,39.500
1.903,270.000,57.000,23.500,39.500
1.904,271.000,57.500,23.000,39.500
1.905,271.000,57.500,23.000,39.500
1.906,272.000,58.000,23.000,40.000
1.907,272.000,58.000,22.500,40.000
1.908,272.500,58.000,22.500,40.500
1.909,272.500,57.500,22.000,41.000
1.910,273.000,57.000,22.000,41.000
1.911,273.000,56.000,21.000,41.000
1.912,274.000,55.500,20.500,41.000
1.913,273.500,54.500,19.500,40.500
1.914,274.000,53.500,18.500,40.000
1.915,273.500,52.500,17.000,39.500
1.916,273.000,52.000,16.000,39.500
1.917,271.500,51.500,14.500,39.500
1.918,271.000,51.000,13.500,39.500
1.919,269.500,50.500,13.000,39.000
1.920,269.000,51.000,12.500,38.500
1.921,268.000,51.000,12.500,38.500
1.922,267.500,51.500,12.500,38.500
1.923,266.500,52.000,13.000,38.500
1.924,266.500,53.000,13.500,39.000
1.925,266.000,53.000,13.500,39.500
1.926,266.000,53.500,13.500,40.000
1.927,265.500,53.500,13.000,40.500
1.928,266.000,53.500,13.000,41.000
1.929,266.000,54.000,13.000,41.500
1.930,267.500,54.500,13.500,42.500
1.931,268.000,55.000,13.500,43.500
1.932,269.000,55.500,14.500,45.000
1.933,269.000,56.000,15.500,45.500
1.934,269.500,57.000,16.500,46.500
1.935,269.500,57.000,17.000,46.500
1.936,269.500,57.000,17.500,46.000
1.937,269.000,56.500,17.000,45.000
1.938,269.000,56.000,16.500,44.000
1.939,268.500,54.500,15.500,42.500
1.940,268.500,53.500,15.000,41.500
1.941,268.500,52.500,14.500,40.500
1.942,269.000,52.000,14.500,40.000
1.943,269.000,51.500,15.000,39.000
1.944,269.500,51.500,15.500,39.000
1.945,269.500,52.000,16.000,38.500
1.946,270.500,52.500,16.500,38.500
1.947,271.000,52.500,16.500,38.000
1.948,272.500,53.000,16.000,38.500
1.949,273.500,52.500,15.500,38.000
1.950,275.500,52.500,14.500,38.000
1.951,276.500,52.000,13.500,37.500
1.952,278.000,51.500,13.000,37.000
1.953,278.500,51.000,12.000,36.500
1.954,279.000,51.000,12.000,37.000
1.955,278.500,51.000,12.000,37.000
1.956,278.500,51.000,12.000,37.500
1.957,277.500,50.500,12.000,37.500
1.958,277.000,50.500,12.500,38.500
1.959,275.500,50.500,12.500,39.000
1.960,275.000,51.500,13.000,40.000
1.961,274.000,52.000,13.500,40.500
1.962,273.500,52.500,14.500,42.000
1.963,272.000,53.000,15.000,42.500
1.964,271.500,54.500,16.000,43.500
1.965,270.500,55.500,16.500,44.500
1.966,271.000,56.500,17.500,45.500
1.967,270.500,57.000,17.500,46.000
1.968,271.000,57.500,18.000,46.500
1.969,271.000,58.000,17.500,46.500
1.970,272.000,58.500,18.000,47.000
1.971,272.000,58.000,18.000,46.500
1.972,272.500,58.000,18.500,46.500
1.973,272.000,57.500,18.500,46.000
1.974,272.000,57.500,19.000,46.000
1.975,271.000,57.000,19.000,46.000
1.976,271.000,57.000,20.000,46.000
1.977,270.500,56.500,20.500,46.000
1.978,271.000,57.000,21.500,47.000
1.979,271.000,57.000,22.500,47.500
1.980,271.500,57.500,24.000,48.500
1.981,271.000,58.000,25.500,49.000
1.982,271.000,58.500,27.000,50.000
1.983,270.500,59.000,29.000,50.000
1.984,270.500,59.500,30.500,51.000
1.985,270.500,59.500,32.000,51.000
1.986,271.000,60.000,33.000,51.500
1.987,271.500,59.500,33.000,51.000
1.988,272.500,60.000,33.500,50.500
1.989,273.000,59.500,33.000,50.000
1.990,274.500,59.500,32.500,49.500
1.991,275.000,59.500,32.000,49.000
1.992,276.500,60.000,31.500,49.000
1.993,277.500,60.000,31.500,49.000
1.994,279.000,60.500,31.500,49.500
1.995,280.000,60.500,31.000,49.500
1.996,281.500,60.500,31.000,50.000
1.997,281.500,60.000,30.500,49.500
1.998,282.500,60.000,30.500,49.500
1.999,282.000,60.000,30.500,49.500
2.000,282.000,60.500,30.500,49.500
2.001,281.000,60.500,31.000,49.500
2.002,281.000,61.000,31.500,50.000
2.003,280.500,61.000,32.500,50.000
2.004,281.000,61.000,34.000,50.500
2.005,280.500,61.000,35.000,51.000
2.006,280.500,61.000,36.500,51.500
2.007,280.000,60.500,37.500,52.000
2.008,280.000,60.500,38.500,52.000
2.009,279.000,60.000,38.500,52.000
2.010,279.500,60.500,38.500,52.000
2.011,279.000,60.000,38.500,51.500
2.012,279.500,60.500,39.000,51.500
2.013,279.500,60.500,39.000,50.500
2.014,280.500,60.500,39.500,50.000
2.015,281.000,60.500,39.000,49.000
2.016,282.500,61.000,39.000,48.500
2.017,284.000,61.000,38.000,47.500
2.018,286.000,61.000,36.500,47.000
2.019,287.000,61.000,35.000,46.000
2.020,289.000,61.000,33.000,45.500
2.021,289.500,60.500,31.000,45.000
2.022,290.500,60.000,29.500,44.500
2.023,290.500,59.000,27.500,43.500
2.024,290.500,58.000,25.500,42.500
2.025,289.500,56.500,24.000,41.000
2.026,289.500,55.500,23.000,40.000
2.027,288.000,54.500,21.500,38.500
2.028,288.000,54.500,21.000,37.500
2.029,287.000,54.500,20.000,36.500
2.030,287.000,55.000,19.500,36.000
2.031,286.500,55.000,19.000,35.500
2.032,287.000,55.000,18.000,35.000
2.033,286.500,55.000,17.000,34.500
2.034,287.000,55.000,16.000,34.500
2.035,287.500,55.000,15.500,34.000
2.036,288.500,55.000,16.000,34.000
2.037,288.500,54.500,16.500,33.500
2.038,289.500,54.500,18.000,33.500
2.039,290.000,54.000,19.500,33.000
2.040,290.500,53.500,21.000,33.000
2.041,290.500,52.500,21.500,33.000
2.042,291.000,52.000,22.500,33.000
2.043,291.000,51.500,22.500,32.500
2.044,292.000,51.000,22.000,32.500
2.045,292.000,50.500,21.500,32.000
2.046,292.500,50.500,21.000,31.500
2.047,291.500,50.000,20.000,31.000
2.048,291.500,50.000,19.500,31.000
2.049,290.000,49.500,18.500,30.500
2.050,289.000,49.500,18.000,30.500
2.051,287.500,49.500,17.500,30.000
2.052,287.000,49.500,17.500,30.500
2.053,285.500,49.500,17.500,31.000
2.054,285.500,50.000,18.000,32.000
2.055,284.500,50.000,18.500,33.500
2.056,285.000,50.500,19.000,35.500
2.057,284.500,50.500,19.500,38.000
2.058,285.500,51.000,19.500,40.000
2.059,285.500,51.000,19.500,42.000
2.060,287.000,51.000,19.000,43.500
2.061,287.500,50.500,18.000,44.000
2.062,289.500,49.000,17.000,44.500
2.063,290.000,47.000,15.000,43.500
2.064,291.500,45.000,12.500,42.500
2.065,292.000,42.500,9.000,40.500
2.066,293.000,39.500,5.000,38.500
2.067,293.000,36.000,1.000,36.000
2.068,293.000,33.000,-4.000,33.000
2.069,292.000,29.500,-8.500,30.000
2.070,292.000,26.000,-13.000,27.000
2.071,291.000,22.000,-18.000,23.500
2.072,290.500,18.500,-24.000,19.500
2.073,289.000,14.500,-30.000,14.500
2.074,288.500,10.000,-37.500,9.000
2.075,287.000,5.000,-45.000,2.500
2.076,286.500,0.500,-53.500,-4.500
2.077,285.000,-4.500,-61.500,-12.000
2.078,284.500,-9.000,-69.500,-20.000
2.079,283.500,-13.000,-76.500,-27.000
2.080,283.500,-16.500,-83.000,-33.500
2.081,282.500,-19.000,-88.500,-39.000
2.082,283.000,-21.500,-93.500,-44.000
2.083,282.500,-23.000,-97.500,-47.500
2.084,282.500,-24.000,-100.500,-51.000
2.085,282.500,-24.000,-102.500,-53.000
2.086,283.500,-24.000,-102.500,-54.000
2.087,284.000,-22.500,-101.000,-53.500
2.088,285.500,-20.000,-97.500,-51.500
2.089,286.500,-16.500,-92.000,-48.000
2.090,288.500,-12.000,-84.500,-44.000
2.091,290.000,-6.000,-75.500,-39.500
2.092,292.500,0.500,-65.500,-34.500
2.093,293.500,7.000,-55.500,-29.500
2.094,296.000,13.500,-46.000,-25.000
2.095,297.000,19.500,-36.500,-20.500
2.096,299.500,25.500,-27.500,-16.000
2.097,300.500,30.000,-19.500,-11.500
2.098,302.000,33.500,-13.000,-7.500
2.099,302.500,36.000,-7.000,-3.500
2.100,303.500,38.000,-3.000,0.500
2.101,303.500,39.000,0.500,3.500
2.102,304.500,39.500,3.500,6.500
2.103,304.500,40.000,5.500,9.000
2.104,306.000,41.000,8.000,12.500
2.105,306.500,41.500,10.500,15.500
2.106,308.500,42.500,13.000,19.500
2.107,309.500,43.000,15.500,23.000
2.108,310.500,44.000,18.000,27.500
2.109,310.500,44.000,19.500,31.000
2.110,311.000,45.000,21.500,35.000
2.111,311.000,45.500,23.500,38.500
2.112,311.500,47.500,25.500,42.000
2.113,311.000,49.000,27.500,44.500
2.114,311.500,51.500,29.000,46.500
2.115,310.500,53.000,30.000,48.000
2.116,310.500,54.500,30.500,48.000
2.117,309.000,54.500,29.500,47.000
2.118,308.500,53.500,27.000,45.000
2.119,306.500,51.500,23.500,42.000
2.120,306.000,48.500,19.000,38.000
2.121,305.000,44.500,13.500,33.500
2.122,305.000,40.500,8.000,29.000
2.123,304.000,36.500,3.000,25.500
2.124,304.500,33.500,-1.000,23.000
2.125,304.500,30.500,-3.000,21.500
2.126,305.000,29.000,-4.000,21.500
2.127,305.000,28.000,-3.500,22.500
2.128,306.500,28.000,-2.500,24.000
2.129,306.500,28.500,-1.000,25.500
2.130,308.000,30.000,1.000,27.000
2.131,308.000,31.000,2.500,27.500
2.132,308.500,32.500,3.500,28.500
2.133,308.000,33.500,4.000,29.000
2.134,308.000,34.500,4.500,29.500
2.135,307.500,34.500,4.500,29.500
2.136,307.500,34.000,4.500,29.500
2.137,307.500,33.500,4.500,29.500
2.138,308.000,33.000,4.500,30.000
2.139,307.500,32.500,4.500,29.500
2.140,307.500,32.500,4.500,29.500
2.141,305.500,32.000,4.500,29.000
2.142,304.000,32.500,5.000,29.500
2.143,301.000,33.000,4.500,29.500
2.144,298.000,34.500,5.000,30.000
2.145,294.000,35.500,5.000,30.000
2.146,291.000,36.500,5.500,31.000
2.147,287.000,37.500,6.000,31.500
2.148,284.500,39.000,7.500,32.000
2.149,280.500,40.000,8.500,32.500
2.150,277.500,41.000,10.500,33.000
2.151,273.500,42.500,12.000,33.500
2.152,269.500,44.000,13.500,34.500
2.153,264.500,46.000,14.500,35.000
2.154,259.500,48.000,16.000,36.500
2.155,253.500,49.500,17.500,37.500
2.156,248.500,51.500,18.500,39.500
2.157,243.000,53.500,19.500,41.500
2.158,238.500,55.500,21.000,43.500
2.159,234.000,57.000,22.000,45.500
2.160,231.000,58.500,23.500,47.500
2.161,227.500,60.000,24.500,49.500
2.162,226.000,61.500,25.500,51.000
2.163,224.500,62.000,26.000,52.000
2.164,224.500,63.000,27.000,53.000
2.165,223.500,63.500,27.000,53.500
2.166,224.000,64.000,27.000,54.000
2.167,223.500,64.000,26.500,53.500
2.168,223.500,64.000,26.000,53.500
2.169,222.500,64.000,25.000,53.500
2.170,222.500,64.500,24.500,53.500
2.171,221.000,64.000,23.500,53.000
2.172,220.500,64.000,22.500,53.000
2.173,219.000,63.000,21.500,52.500
2.174,218.000,62.500,20.500,52.000
2.175,216.500,61.500,19.000,51.000
2.176,215.500,61.000,18.500,50.500
2.177,214.500,60.000,18.000,49.500
2.178,214.000,60.000,18.500,49.500
2.179,213.500,60.000,19.500,49.000
2.180,213.500,60.000,21.000,48.500
2.181,213.000,60.500,22.500,48.000
2.182,212.500,61.000,24.000,48.500
2.183,211.500,61.000,25.500,48.000
2.184,211.000,61.000,26.500,48.500
2.185,209.500,60.500,27.000,49.000
2.186,209.000,60.500,27.500,49.500
2.187,208.500,60.000,27.500,50.000
2.188,208.500,60.000,28.000,51.500
2.189,209.000,59.500,28.500,52.500
2.190,210.000,60.000,29.000,54.000
2.191,211.000,60.500,30.000,55.000
2.192,213.000,61.000,31.000,56.500
2.193,214.000,61.000,32.000,58.000
2.194,215.500,61.500,33.500,59.000
2.195,216.500,61.500,34.500,59.500
2.196,217.500,61.500,36.000,60.000
2.197,217.500,61.000,37.000,60.000
2.198,217.500,60.500,38.000,59.500
2.199,216.500,59.500,38.500,58.500
2.200,216.000,59.000,39.000,58.000
2.201,214.500,58.500,39.000,57.500
2.202,213.500,58.500,39.000,57.500
2.203,212.000,58.000,39.000,57.000
2.204,211.000,58.500,39.500,57.500
2.205,209.500,58.500,39.500,58.000
2.206,209.000,59.500,40.000,58.500
2.207,208.000,60.000,40.500,58.500
2.208,208.000,60.500,41.000,59.000
2.209,207.000,61.000,41.500,59.000
2.210,206.500,61.500,42.500,59.500
2.211,205.500,61.500,42.500,59.000
2.212,205.500,61.500,42.500,59.000
2.213,205.000,61.000,42.000,58.500
2.214,205.500,60.500,41.500,58.000
2.215,205.500,60.500,40.000,57.000
2.216,207.000,60.500,39.500,56.000
2.217,207.500,61.000,38.500,55.500
2.218,209.500,61.500,38.500,55.500
2.219,210.500,62.500,38.500,55.000
2.220,212.000,63.500,38.500,55.500
2.221,213.000,64.000,38.500,56.000
2.222,215.000,65.000,39.000,56.500
2.223,216.500,65.500,39.000,56.500
2.224,219.000,66.500,39.500,57.000
2.225,220.500,67.000,39.000,57.000
2.226,223.000,68.000,39.000,57.500
2.227,224.500,68.500,39.000,57.500
2.228,226.500,69.000,39.000,58.000
2.229,227.000,69.500,39.000,58.000
2.230,228.500,69.500,39.500,58.500
2.231,228.500,69.500,39.500,59.000
2.232,229.500,69.500,40.000,60.000
2.233,230.000,69.500,40.500,60.500
2.234,231.000,69.000,40.500,61.000
2.235,231.500,68.500,40.500,61.500
2.236,233.000,68.000,40.000,61.500
2.237,234.500,67.500,39.500,61.500
2.238,236.500,67.500,39.500,61.500
2.239,238.000,67.000,39.500,61.000
2.240,240.500,66.500,40.000,61.000
2.241,242.500,66.000,40.500,60.500
2.242,244.500,65.000,41.000,60.500
2.243,246.000,64.000,41.500,60.000
2.244,247.500,63.000,42.000,60.000
2.245,248.500,61.500,42.500,59.500
2.246,250.500,60.500,43.000,59.500
2.247,251.500,59.000,43.000,59.000
2.248,253.500,59.000,43.500,59.000
2.249,255.000,58.500,43.500,59.000
2.250,257.000,59.000,43.500,59.500
2.251,258.500,59.000,43.500,59.500
2.252,261.000,60.000,44.500,60.000
2.253,263.000,60.500,45.000,60.000
2.254,267.000,61.500,46.000,61.000
2.255,271.500,62.000,47.500,61.500
2.256,279.000,63.500,50.000,63.000
2.257,287.500,65.000,53.000,65.000
2.258,298.500,67.500,56.500,67.500
2.259,310.500,69.500,60.000,70.500
2.260,324.500,73.000,63.500,74.500
2.261,338.000,76.000,67.000,78.000
2.262,352.500,79.000,70.500,82.500
2.263,365.500,82.000,73.500,86.000
2.264,378.000,85.000,76.500,89.500
2.265,389.000,88.000,79.000,92.000
2.266,399.500,90.500,82.000,95.000
2.267,408.000,92.500,84.000,96.500
2.268,416.000,94.500,86.000,97.500
2.269,422.000,96.000,87.000,97.500
2.270,427.500,97.000,88.000,97.500
2.271,431.000,97.000,88.500,96.000
2.272,435.000,96.500,88.500,95.000
2.273,437.000,95.500,88.000,93.000
2.274,440.000,95.000,87.500,91.500
2.275,442.000,94.000,86.500,90.000
2.276,444.000,93.000,85.500,88.500
2.277,445.000,92.000,84.000,87.000
2.278,446.500,91.500,83.000,86.500
2.279,446.500,90.500,82.000,85.000
2.280,447.000,89.500,81.500,84.000
2.281,446.000,88.500,80.500,83.000
2.282,445.000,87.000,79.500,82.000
2.283,443.000,85.000,78.500,80.500
2.284,441.000,83.500,78.000,79.500
2.285,438.000,81.000,76.500,78.500
2.286,435.000,79.000,76.000,77.500
2.287,431.000,76.500,74.500,76.000
2.288,428.000,75.000,73.500,75.500
2.289,424.500,73.000,72.500,74.500
2.290,422.000,72.000,71.500,73.500
2.291,419.500,71.000,70.500,72.500
2.292,418.000,70.000,70.000,71.500
2.293,416.000,68.500,68.500,70.000
2.294,415.500,67.500,67.000,68.500
2.295,413.500,65.500,65.500,66.500
2.296,413.000,64.000,64.000,65.000
2.297,412.000,63.000,63.000,63.500
2.298,412.500,62.500,62.500,63.000
2.299,412.500,62.000,62.500,62.500
2.300,414.000,62.500,64.000,62.500
2.301,414.000,63.000,65.500,62.500
2.302,415.500,63.500,67.500,62.500
2.303,415.000,64.000,69.000,62.500
2.304,416.000,64.500,70.000,62.500
2.305,416.000,64.000,70.500,62.000
2.306,416.500,64.000,70.500,62.000
2.307,415.500,63.500,69.000,61.000
2.308,415.500,62.500,67.500,60.000
2.309,414.500,60.500,65.000,58.500
2.310,414.500,59.000,63.000,57.000
2.311,413.000,57.000,61.000,54.500
2.312,412.500,55.000,59.000,53.000
2.313,411.500,53.000,57.500,50.500
2.314,412.000,51.500,56.000,49.000
2.315,411.500,50.500,55.000,47.000
2.316,412.000,50.000,54.000,45.500
2.317,412.000,49.500,53.000,44.000
2.318,413.000,49.500,53.000,43.000
2.319,412.000,49.500,52.000,41.500
2.320,412.000,50.000,52.000,41.000
2.321,410.500,50.000,51.000,40.000
2.322,410.500,50.000,51.000,39.500
2.323,409.000,49.500,51.000,39.000
2.324,409.000,49.000,51.000,39.500
2.325,408.000,48.500,50.500,39.500
2.326,408.000,47.500,50.500,39.500
2.327,407.500,46.000,50.000,39.500
2.328,408.000,45.000,49.500,40.500
2.329,407.000,43.500,49.000,41.000
2.330,407.500,42.500,49.000,41.500
2.331,406.500,41.000,48.500,42.000
2.332,406.500,40.500,49.000,42.500
2.333,405.500,39.500,49.500,42.500
2.334,405.000,38.500,50.500,42.500
2.335,404.000,37.500,50.500,42.000
2.336,403.500,36.500,51.000,41.500
2.337,402.500,35.500,51.000,40.500
2.338,402.500,34.500,50.500,40.000
2.339,401.000,34.000,50.000,39.500
2.340,401.000,33.500,50.000,39.500
2.341,400.000,33.500,50.000,39.500
2.342,400.000,34.000,50.500,40.500
2.343,399.000,34.000,51.000,41.500
2.344,398.500,34.500,51.500,42.500
2.345,397.000,34.500,51.500,43.500
2.346,397.000,35.000,52.000,45.000
2.347,395.500,35.000,51.500,45.500
2.348,395.000,35.000,51.000,46.500
2.349,393.500,34.500,50.000,46.500
2.350,393.000,35.000,49.500,47.000
2.351,391.500,35.500,49.000,47.500
2.352,391.500,36.500,49.000,48.000
2.353,390.500,37.500,49.500,48.500
2.354,390.000,38.500,50.000,49.500
2.355,388.500,39.500,51.000,50.500
2.356,388.000,41.000,52.000,51.500
2.357,386.500,42.000,53.000,52.000
2.358,385.500,43.000,54.500,53.000
2.359,383.500,43.500,55.500,53.500
2.360,382.500,44.500,56.500,54.000
2.361,381.000,45.000,57.500,54.000
2.362,380.500,45.500,58.000,54.000
2.363,378.500,45.500,58.000,53.500
2.364,378.000,46.000,58.500,53.000
2.365,376.000,45.500,58.000,52.000
2.366,375.000,46.000,58.000,51.500
2.367,372.500,46.000,57.500,50.000
2.368,371.000,46.000,57.500,49.500
2.369,368.500,46.000,57.500,49.000
2.370,367.000,46.500,58.000,49.000
2.371,365.000,46.000,58.500,48.500
2.372,364.000,46.500,59.000,48.000
2.373,362.000,46.000,59.500,47.000
2.374,361.500,46.500,60.000,46.500
2.375,360.000,46.000,60.000,45.500
2.376,360.000,46.000,60.000,45.000
2.377,358.500,46.000,59.500,44.000
2.378,358.500,46.500,59.500,43.500
2.379,357.000,46.500,59.500,42.500
2.380,356.500,47.000,60.000,42.500
2.381,355.000,47.000,60.000,42.000
2.382,354.500,47.000,60.500,41.500
2.383,353.000,47.000,60.500,40.500
2.384,352.500,47.500,60.500,39.500
2.385,351.500,47.500,60.000,38.500
2.386,352.000,47.500,59.000,38.000
2.387,351.500,47.000,58.000,37.000
2.388,352.500,47.000,56.500,36.000
2.389,352.000,46.500,55.000,35.000
2.390,352.500,46.500,53.500,34.500
2.391,352.500,46.000,51.500,34.000
2.392,353.500,46.000,50.000,33.500
2.393,353.500,45.500,48.500,32.500
2.394,354.500,45.000,48.000,32.500
2.395,354.500,44.500,47.000,32.500
2.396,355.000,44.000,46.500,32.500
2.397,354.500,43.000,45.500,32.000
2.398,354.500,42.000,45.000,31.500
2.399,353.500,41.500,44.500,31.000
2.400,353.000,41.000,44.500,31.000
2.401,352.000,40.000,44.500,31.000
2.402,351.500,40.000,44.500,31.000
2.403,350.500,39.500,44.500,30.500
2.404,350.000,39.000,45.000,30.500
2.405,348.500,38.500,45.000,30.000
2.406,348.000,38.000,45.000,30.000
2.407,346.000,37.000,44.500,30.000
2.408,345.500,36.500,45.000,30.500
2.409,343.500,36.000,45.000,30.500
2.410,342.500,35.500,45.000,31.500
2.411,341.000,35.000,45.000,32.000
2.412,340.000,35.000,45.000,32.500
2.413,338.500,34.500,44.500,32.500
2.414,337.500,34.500,44.000,32.500
2.415,336.000,34.500,43.500,31.500
2.416,335.500,34.500,42.500,31.000
2.417,334.000,34.000,41.500,30.500
2.418,334.000,34.500,41.000,30.000
2.419,333.500,34.500,40.000,29.500
2.420,333.500,35.000,39.500,29.500
2.421,332.500,35.000,39.000,29.500
2.422,332.500,35.500,38.500,29.000
2.423,331.500,35.000,37.500,28.500
2.424,331.500,35.000,37.000,28.000
2.425,330.000,34.500,36.000,27.000
2.426,329.500,33.500,35.500,26.500
2.427,328.000,32.500,34.500,26.000
2.428,327.500,31.500,34.000,25.500
2.429,325.500,30.500,33.000,25.500
2.430,324.000,30.000,32.500,25.500
2.431,321.500,29.000,32.000,25.000
2.432,320.000,29.000,31.500,25.000
2.433,317.500,29.000,30.000,24.000
2.434,316.000,29.500,29.000,23.500
2.435,314.000,29.500,27.500,22.500
2.436,313.000,29.500,26.500,22.000
2.437,311.000,29.500,25.000,21.000
2.438,310.500,29.500,24.000,21.000
2.439,309.000,29.000,23.500,21.000
2.440,309.000,29.500,23.500,21.500
2.441,308.000,29.500,23.500,22.000
2.442,308.000,29.500,24.500,22.500
2.443,307.000,29.500,25.000,23.000
2.444,307.500,30.000,26.000,23.500
2.445,307.500,30.000,26.500,23.500
2.446,308.000,30.500,27.000,23.500
2.447,307.000,30.500,27.500,23.500
2.448,307.000,30.500,28.000,23.500
2.449,306.000,30.500,28.500,23.000
2.450,305.500,30.500,29.000,22.500
2.451,304.500,30.500,29.500,22.000
2.452,304.000,31.000,30.000,21.500
2.453,303.000,31.500,30.000,21.000
2.454,302.500,32.000,30.500,20.500
2.455,301.500,32.500,30.000,19.500
2.456,302.000,33.000,30.000,19.000
2.457,301.000,32.500,29.000,18.000
2.458,301.000,32.500,28.500,17.500
2.459,300.000,32.000,28.000,17.000
2.460,300.000,32.000,28.000,16.500
2.461,299.500,32.000,28.000,16.000
2.462,299.500,32.000,28.500,16.000
2.463,299.500,32.500,29.000,16.000
2.464,301.000,33.000,30.000,16.000
2.465,301.500,33.000,30.500,16.000
2.466,303.000,33.500,31.500,16.000
2.467,304.000,34.000,32.000,15.500
2.468,305.500,34.000,32.500,15.500
2.469,305.500,34.000,32.500,14.500
2.470,306.500,34.000,33.000,14.500
2.471,306.000,33.500,32.500,14.000
2.472,307.000,33.000,32.000,14.000
2.473,306.500,32.000,31.500,13.500
2.474,306.500,31.500,31.000,13.000
2.475,305.500,30.500,30.000,12.500
2.476,305.000,29.500,29.500,12.000
2.477,304.000,28.500,29.000,11.500
2.478,304.000,28.000,28.500,11.000
2.479,303.000,27.500,28.000,11.000
2.480,303.000,28.000,27.500,11.000
2.481,302.500,28.000,26.500,11.000
2.482,302.500,28.000,25.500,11.000
2.483,301.500,27.500,24.000,11.500
2.484,302.000,27.000,23.000,12.000
2.485,301.500,25.500,21.500,12.000
2.486,301.500,24.000,20.500,13.000
2.487,301.000,22.500,19.500,13.000
2.488,301.000,21.500,18.500,13.500
2.489,300.000,20.000,18.000,14.000
2.490,299.500,19.500,17.500,14.000
2.491,298.000,18.500,16.500,14.000
2.492,297.000,17.500,16.500,14.500
2.493,295.000,17.000,16.000,14.000
2.494,295.000,16.500,16.000,14.000
2.495,294.500,16.000,15.500,13.500
2.496,295.000,16.000,15.500,13.500
2.497,294.500,16.000,15.500,13.000
2.498,295.500,16.000,15.500,13.000
2.499,295.000,16.000,15.000,13.000
2.500,296.000,16.500,15.500,13.500
2.501,295.500,17.000,15.500,14.000
2.502,296.000,18.000,16.500,15.500
2.503,295.500,19.500,17.500,17.500
2.504,296.500,21.500,20.000,19.500
2.505,296.500,24.000,22.000,21.500
2.506,297.000,26.000,24.000,23.500
2.507,296.500,27.500,24.500,24.500
2.508,296.500,28.500,25.000,25.000
2.509,295.500,28.500,24.000,24.000
2.510,295.000,28.000,22.500,22.000
2.511,293.500,27.000,20.000,19.000
2.512,293.500,25.500,17.000,15.500
2.513,293.000,24.000,14.000,11.500
2.514,293.500,22.000,11.000,8.000
2.515,293.000,20.000,8.500,4.500
2.516,293.000,18.000,7.500,2.500
2.517,292.500,16.000,7.000,1.500
2.518,293.000,15.500,7.500,1.000
2.519,293.000,15.500,8.500,1.000
2.520,293.500,16.000,10.000,2.000
2.521,293.500,17.000,11.500,2.500
2.522,294.500,18.500,13.000,3.000
2.523,294.000,19.500,13.500,3.500
2.524,294.000,20.500,14.500,4.500
2.525,292.500,21.000,14.500,5.000
2.526,292.500,21.500,14.000,5.500
2.527,291.500,22.000,13.500,6.000
2.528,291.500,23.000,13.000,7.000
2.529,290.500,23.500,12.500,7.500
2.530,290.000,24.000,12.500,8.500
2.531,289.000,24.000,12.500,9.000
2.532,288.500,24.500,13.500,9.500
2.533,286.500,24.500,14.000,9.500
2.534,285.500,25.000,15.000,9.500
2.535,284.000,24.500,16.000,9.500
2.536,283.500,25.000,16.500,9.000
2.537,282.500,24.500,17.000,8.500
2.538,283.000,24.500,18.000,8.500
2.539,282.500,24.000,18.000,7.500
2.540,283.000,24.000,18.000,7.000
2.541,283.000,23.500,17.500,6.000
2.542,284.000,23.000,17.000,5.500
2.543,284.000,22.500,16.500,4.500
2.544,284.500,22.500,16.000,4.000
2.545,284.500,21.500,15.500,3.000
2.546,285.500,21.000,15.000,3.000
2.547,285.000,20.500,15.000,2.500
2.548,285.500,20.500,15.000,3.000
2.549,284.500,20.000,15.000,3.500
2.550,284.500,20.000,15.500,4.000
2.551,283.000,20.000,16.000,5.000
2.552,282.500,20.500,16.500,5.500
2.553,280.500,20.500,16.000,6.000
2.554,279.500,21.000,16.000,6.500
2.555,278.000,21.000,15.500,6.500
2.556,277.000,21.500,15.000,6.500
2.557,275.500,21.000,14.000,6.500
2.558,275.000,21.000,13.500,6.500
2.559,273.500,21.000,13.000,6.000
2.560,273.000,20.500,12.500,6.000
2.561,272.000,20.000,11.500,6.000
2.562,271.500,20.000,11.000,6.000
2.563,271.000,20.000,10.500,6.000
2.564,271.500,20.000,10.000,6.000
2.565,271.500,19.500,9.500,6.000
2.566,273.000,19.000,9.000,6.000
2.567,273.500,18.500,8.500,6.000
2.568,274.500,18.500,8.500,6.000
2.569,274.500,18.500,8.500,6.000
2.570,275.000,18.500,8.500,6.500
2.571,274.000,18.500,8.500,6.500
2.572,274.000,18.500,8.500,6.500
2.573,273.000,18.000,9.000,6.000
2.574,272.500,18.000,9.500,5.500
2.575,271.500,17.500,9.500,5.000
2.576,271.000,17.000,10.000,4.500
2.577,270.000,16.500,9.500,4.000
2.578,270.000,16.000,9.500,3.000
2.579,269.000,15.500,9.000,2.500
2.580,269.500,15.500,8.500,2.000
2.581,269.000,15.500,8.000,1.500
2.582,269.500,15.000,8.000,1.500
2.583,269.500,14.500,7.500,1.000
2.584,270.500,14.500,7.000,1.500
2.585,271.000,14.000,6.500,1.500
2.586,272.500,14.000,6.000,1.500
2.587,273.500,13.000,5.000,1.000
2.588,274.500,12.500,4.500,1.000
2.589,275.000,11.500,3.500,0.500
2.590,276.000,11.000,3.000,0.500
2.591,276.000,10.500,2.500,0.000
2.592,276.000,10.000,2.500,0.500
2.593,274.500,9.000,2.500,0.500
2.594,273.500,8.500,3.500,0.500
2.595,271.500,8.000,4.000,0.500
2.596,270.500,8.000,4.500,1.000
2.597,269.000,7.500,5.000,0.500
2.598,268.000,7.500,5.500,0.500
2.599,266.500,7.000,5.500,0.000
2.600,266.000,7.000,6.000,0.000
2.601,265.500,6.500,5.500,0.000
2.602,266.000,6.500,5.500,-0.500
2.603,266.000,6.000,5.000,-1.000
2.604,267.000,6.000,5.000,-1.000
2.605,267.000,5.000,4.500,-1.000
2.606,268.000,5.000,4.500,-1.000
2.607,267.500,4.500,4.500,-1.000
2.608,267.500,4.500,4.500,-0.500
2.609,267.000,4.500,4.500,-0.500
2.610,266.500,5.000,5.000,0.000
2.611,265.500,5.000,5.000,0.500
2.612,265.500,5.000,5.000,1.000
2.613,264.500,5.000,5.000,2.000
2.614,264.500,5.500,5.500,2.500
2.615,263.500,5.500,5.500,3.000
2.616,263.500,6.000,6.000,3.500
2.617,263.000,6.000,6.000,4.000
2.618,263.500,6.500,6.500,4.000
2.619,262.500,7.000,7.000,4.000
2.620,262.500,7.000,7.500,4.500
2.621,261.500,7.000,7.500,4.500
2.622,261.000,7.500,8.500,6.000
2.623,259.500,8.000,9.000,7.000
2.624,259.000,8.500,10.000,9.000
2.625,258.000,9.000,11.000,10.500
2.626,258.000,10.000,12.000,12.000
2.627,257.500,10.500,12.500,13.500
2.628,258.000,11.000,12.500,14.500
2.629,258.500,11.000,12.500,14.500
2.630,259.500,11.000,12.000,14.000
2.631,260.000,11.000,11.500,13.500
2.632,261.000,10.500,10.500,13.000
2.633,261.000,10.000,9.500,12.500
2.634,261.500,9.500,8.500,12.000
2.635,261.500,9.000,7.500,12.000
2.636,262.000,8.500,7.000,12.000
2.637,262.000,7.500,6.500,12.500
2.638,262.500,7.000,7.000,13.000
2.639,262.500,6.000,7.000,13.000
2.640,263.000,6.000,7.500,14.000
2.641,263.000,5.500,7.500,14.000
2.642,263.500,5.000,8.500,15.000
2.643,263.500,4.500,9.000,15.000
2.644,264.000,4.500,9.500,16.000
2.645,263.500,4.500,9.500,16.000
2.646,264.000,4.500,9.500,17.000
2.647,263.000,4.000,9.500,17.000
2.648,263.000,4.000,9.500,18.000
2.649,261.500,4.000,9.500,18.500
2.650,260.500,4.500,9.500,19.500
2.651,258.500,4.500,9.500,20.000
2.652,257.500,5.500,10.500,21.500
2.653,256.500,6.500,11.000,22.500
2.654,256.500,8.000,12.000,23.500
2.655,256.000,9.000,13.000,24.500
2.656,256.500,10.000,14.000,25.500
2.657,256.500,11.000,14.500,26.000
2.658,257.000,11.500,15.500,26.500
2.659,257.000,12.000,15.500,26.000
2.660,257.500,12.500,16.000,26.000
2.661,257.500,13.000,16.000,25.500
2.662,258.500,13.000,16.000,25.000
2.663,258.000,13.000,15.000,24.000
2.664,258.500,13.500,14.000,23.000
2.665,257.500,13.000,12.000,21.500
2.666,257.500,13.000,10.500,20.000
2.667,256.500,13.000,9.000,18.500
2.668,256.500,13.500,8.500,17.500
2.669,256.000,14.000,8.000,17.000
2.670,256.500,15.000,8.000,16.500
2.671,256.000,16.000,8.000,16.500
2.672,256.500,17.000,8.500,16.500
2.673,256.000,18.000,9.000,16.000
2.674,256.500,18.500,10.000,15.500
2.675,255.500,19.000,10.500,15.000
2.676,255.000,20.000,11.500,15.000
2.677,254.000,20.500,12.000,14.500
2.678,253.000,21.500,13.000,15.000
2.679,251.500,21.500,13.500,14.500
2.680,251.000,22.000,14.500,14.000
2.681,250.000,22.500,14.500,13.000
2.682,249.500,23.000,15.000,12.500
2.683,248.500,23.000,15.500,12.000
2.684,248.500,23.500,16.000,11.500
2.685,248.000,24.000,16.500,11.000
2.686,248.000,24.500,17.500,11.500
2.687,247.500,25.000,18.500,11.500
2.688,248.000,25.500,19.500,12.500
2.689,248.000,26.000,20.500,13.000
2.690,249.000,27.000,21.500,14.500
2.691,249.000,28.000,22.000,15.000
2.692,250.500,28.500,22.500,16.000
2.693,250.500,29.000,22.500,16.000
2.694,251.500,30.000,23.000,16.500
2.695,251.000,30.500,23.500,16.500
2.696,251.500,31.000,24.500,16.500
2.697,250.500,31.500,25.500,16.000
2.698,250.500,32.000,26.500,16.000
2.699,249.500,32.000,27.500,16.000
2.700,249.000,32.500,28.500,16.000
2.701,248.500,33.000,29.500,16.500
2.702,248.500,33.500,30.500,17.000
2.703,248.500,33.500,31.500,17.500
2.704,249.500,34.500,33.000,18.500
2.705,249.500,34.500,34.500,19.500
2.706,250.500,35.000,36.000,21.000
2.707,250.500,35.000,37.000,21.500
2.708,251.000,35.500,37.500,22.000
2.709,251.000,35.000,37.500,22.000
2.710,251.000,34.500,38.000,22.000
2.711,250.500,34.000,37.500,21.500
2.712,250.500,33.500,38.000,21.500
2.713,249.500,33.000,37.500,21.000
2.714,250.000,32.500,38.000,21.000
2.715,249.500,32.500,38.000,21.000
2.716,249.500,32.500,38.500,21.500
2.717,249.000,32.000,38.500,22.000
2.718,249.500,32.500,38.500,22.500
2.719,249.000,33.000,38.500,22.500
2.720,249.000,34.000,39.000,22.500
2.721,248.000,34.500,39.500,22.500
2.722,248.000,35.500,40.000,23.000
2.723,247.500,36.000,40.500,23.500
2.724,247.500,37.000,41.500,24.000
2.725,247.000,38.000,42.500,24.500
2.726,247.500,39.000,44.000,26.000
2.727,247.500,40.000,45.000,26.500
2.728,248.500,41.000,46.500,27.500
2.729,249.000,41.000,47.500,28.000
2.730,250.000,41.500,49.000,28.000
2.731,250.000,41.000,49.500,28.000
2.732,250.000,41.000,50.500,28.000
2.733,249.000,40.500,51.000,27.000
2.734,249.000,40.000,51.000,26.500
2.735,248.000,39.500,51.000,25.500
2.736,248.000,39.500,51.000,25.000
2.737,247.000,38.500,51.000,24.000
2.738,247.000,38.500,51.500,23.500
2.739,246.500,37.500,52.000,22.500
2.740,247.000,37.500,53.000,22.500
2.741,246.000,36.500,53.500,22.500
2.742,246.000,36.000,54.500,23.500
2.743,245.000,35.000,55.000,24.000
2.744,245.000,34.500,55.500,24.500
2.745,244.000,33.500,55.500,25.000
2.746,244.000,33.500,56.000,25.500
2.747,243.500,33.000,56.500,26.000
2.748,243.500,33.500,57.500,26.500
2.749,243.500,34.000,58.500,27.000
2.750,243.500,35.000,59.500,28.000
2.751,243.000,36.000,60.500,28.500
2.752,243.000,37.000,62.000,29.500
2.753,242.500,37.500,62.500,29.500
2.754,243.000,38.500,64.000,29.500
2.755,242.500,38.500,64.500,29.500
2.756,242.500,39.000,66.000,29.500
2.757,242.000,39.500,67.000,29.000
2.758,242.500,40.000,68.000,29.000
2.759,242.000,40.000,69.000,29.000
2.760,242.000,40.500,70.500,29.500
2.761,241.000,40.500,71.000,29.500
2.762,241.000,41.000,72.000,30.000
2.763,240.000,41.500,72.500,30.000
2.764,239.500,42.000,73.000,30.500
2.765,238.000,42.000,73.000,30.500
2.766,237.500,42.500,73.000,31.000
2.767,235.500,42.500,73.000,30.500
2.768,234.500,43.000,73.000,31.000
2.769,232.500,43.500,73.500,31.000
2.770,231.000,44.000,74.500,32.000
2.771,229.500,44.000,75.500,33.000
2.772,229.000,45.000,77.500,34.500
2.773,228.000,45.500,80.000,36.500
2.774,228.000,46.500,83.000,39.000
2.775,227.500,47.000,85.500,41.500
2.776,228.000,47.500,88.500,44.000
2.777,227.500,47.500,90.500,46.500
2.778,227.500,48.000,92.000,48.500
2.779,227.500,48.500,92.500,50.500
2.780,228.000,48.500,92.500,52.000
2.781,228.000,48.500,92.000,53.000
2.782,228.500,48.500,91.500,54.000
2.783,228.500,47.500,90.500,54.500
2.784,229.000,47.000,90.000,55.000
2.785,229.000,45.500,89.000,55.000
2.786,230.000,44.500,88.000,55.000
2.787,230.000,43.500,86.500,54.000
2.788,230.500,42.000,84.500,53.000
2.789,230.000,40.500,81.500,51.000
2.790,230.000,38.500,78.000,48.500
2.791,228.500,36.000,73.500,45.000
2.792,228.000,33.500,68.000,41.000
2.793,226.000,30.000,61.000,36.000
2.794,225.000,27.000,54.000,31.000
2.795,223.000,23.000,46.000,24.500
2.796,222.000,20.000,38.000,18.000
2.797,220.000,16.000,29.500,11.000
2.798,219.000,13.000,21.500,4.500
2.799,217.000,10.000,14.000,-1.500
2.800,216.000,7.500,8.000,-6.500
2.801,215.000,5.500,2.500,-10.500
2.802,214.500,4.000,-1.500,-14.000
2.803,213.000,2.500,-4.500,-17.000
2.804,212.500,1.000,-6.500,-20.000
2.805,211.500,-0.500,-8.000,-22.000
2.806,211.000,-1.000,-9.000,-24.000
2.807,210.000,0.000,-8.000,-24.000
2.808,210.000,2.000,-5.500,-23.000
2.809,210.000,5.500,-0.500,-20.000
2.810,210.500,11.000,6.500,-16.000
2.811,211.000,17.000,15.000,-10.500
2.812,212.000,24.500,25.000,-5.500
2.813,212.500,31.500,35.000,0.000
2.814,214.000,38.500,45.500,5.000
2.815,215.000,45.000,55.000,9.000
2.816,216.000,50.500,64.000,13.500
2.817,216.500,55.500,72.000,17.500
2.818,217.500,60.000,80.000,22.000
2.819,218.000,63.500,87.000,26.000
2.820,218.500,67.500,93.000,30.500
2.821,218.500,70.000,97.500,33.500
2.822,219.500,72.500,102.000,37.000
2.823,219.500,74.500,105.500,39.500
2.824,221.000,76.000,109.000,42.000
2.825,221.500,77.000,112.500,44.500
2.826,223.000,78.000,116.500,47.500
2.827,223.500,79.000,120.500,50.000
2.828,224.500,79.500,124.000,52.500
2.829,224.500,79.500,127.000,54.500
2.830,225.000,79.500,129.500,56.500
2.831,224.000,79.000,131.500,57.500
2.832,223.500,78.500,133.000,58.000
2.833,222.500,77.500,133.500,58.500
2.834,222.000,77.000,133.500,58.500
2.835,220.500,76.500,133.500,58.500
2.836,220.000,76.500,133.500,59.000
2.837,218.500,76.000,133.000,59.000
2.838,218.000,76.500,133.500,59.000
2.839,217.000,77.000,133.500,59.500
2.840,216.500,77.500,133.500,60.000
2.841,216.000,77.500,133.500,61.000
2.842,217.000,78.000,133.500,62.000
2.843,217.500,77.500,132.500,62.500
2.844,219.000,77.000,132.000,63.500
2.845,220.000,76.000,131.500,64.000
2.846,221.500,75.500,131.000,65.000
2.847,222.500,75.000,130.500,66.000
2.848,224.000,75.500,131.000,67.500
2.849,224.500,75.500,131.500,69.000
2.850,226.000,76.500,133.000,70.500
2.851,226.500,77.000,134.000,72.000
2.852,227.000,77.500,135.500,73.000
2.853,227.000,77.500,136.500,74.000
2.854,227.500,77.500,137.500,74.500
2.855,227.000,77.000,137.500,74.000
2.856,227.000,77.000,138.500,74.000
2.857,226.000,76.000,138.000,73.500
2.858,225.500,75.500,138.000,73.000
2.859,224.000,74.000,136.500,72.000
2.860,223.000,73.500,136.000,71.500
2.861,221.000,72.500,134.500,71.000
2.862,220.000,72.000,133.500,71.500
2.863,218.500,71.500,132.500,71.500
2.864,218.000,72.000,132.500,72.500
2.865,216.500,72.000,132.500,73.000
2.866,216.000,73.000,133.000,74.000
2.867,215.000,74.000,133.000,74.000
2.868,214.000,75.000,133.500,74.500
2.869,212.500,75.500,134.000,74.000
2.870,211.500,76.000,134.500,74.500
2.871,210.000,76.000,135.000,74.000
2.872,209.500,76.000,136.000,74.000
2.873,208.500,76.000,136.500,74.000
2.874,208.000,77.000,137.500,74.000
2.875,207.500,77.000,138.500,73.500
2.876,207.500,78.000,139.500,73.500
2.877,206.500,78.500,140.000,73.500
2.878,206.500,79.000,141.000,74.000
2.879,205.500,79.500,141.000,74.000
2.880,205.000,80.000,141.500,75.000
2.881,204.000,80.000,141.000,75.500
2.882,203.500,80.500,141.000,77.000
2.883,202.000,80.500,140.000,77.500
2.884,201.500,80.500,140.000,79.000
2.885,200.000,80.500,139.500,80.000
2.886,199.500,81.000,140.000,81.500
2.887,199.000,81.000,140.000,82.500
2.888,198.500,81.500,141.500,84.000
2.889,197.500,81.000,142.000,84.500
2.890,196.500,81.000,143.500,85.500
2.891,194.000,81.000,145.000,87.000
2.892,192.500,82.000,147.500,89.000
2.893,190.500,83.500,150.500,91.000
2.894,189.500,86.500,154.500,94.000
2.895,188.500,90.000,158.000,96.500
2.896,189.000,93.500,162.000,98.500
2.897,188.500,96.000,165.000,100.000
2.898,188.500,97.500,167.000,100.500
2.899,188.000,97.500,167.000,99.500
2.900,188.500,97.000,166.000,98.500
2.901,188.000,95.500,163.000,96.000
2.902,188.500,94.000,160.000,93.000
2.903,188.500,91.500,156.000,89.000
2.904,188.500,90.000,153.000,85.500
2.905,187.500,88.000,149.500,82.000
2.906,187.500,86.500,148.000,79.500
2.907,187.000,85.000,147.000,78.000
2.908,186.500,84.500,147.500,78.000
2.909,186.000,84.000,148.500,78.000
2.910,187.000,84.500,150.000,79.500
2.911,188.000,85.000,151.000,80.500
2.912,189.500,86.000,152.000,81.500
2.913,190.500,86.500,152.500,81.500
2.914,192.000,87.000,152.500,82.000
2.915,192.500,87.500,152.000,82.000
2.916,193.500,88.000,152.000,82.000
2.917,193.000,88.000,151.000,82.000
2.918,192.500,88.500,151.000,82.000
2.919,191.500,88.500,150.500,82.000
2.920,191.000,89.000,151.000,82.000
2.921,190.500,89.000,150.500,81.500
2.922,190.500,89.500,150.500,81.500
2.923,190.000,89.500,150.500,81.500
2.924,190.500,90.000,150.500,82.000
2.925,191.000,89.500,150.500,82.500
2.926,192.000,89.500,151.000,83.000
2.927,192.500,88.500,151.000,83.500
2.928,194.000,88.500,151.500,84.500
2.929,194.500,87.500,151.500,84.500
2.930,195.500,87.000,151.500,85.000
2.931,195.500,86.000,151.000,85.000
2.932,196.000,86.000,151.500,85.000
2.933,195.500,86.000,151.000,85.000
2.934,195.500,87.000,152.000,85.000
2.935,195.000,87.500,152.000,85.000
2.936,195.000,89.000,152.500,85.500
2.937,194.500,90.000,152.500,86.000
2.938,194.500,91.000,153.000,86.500
2.939,193.500,92.000,152.500,87.000
2.940,193.500,93.500,153.000,88.000
2.941,192.500,94.500,152.500,88.000
2.942,192.500,96.500,153.500,89.000
2.943,192.000,97.500,154.000,89.000
2.944,192.000,99.500,155.000,89.500
2.945,191.500,100.000,155.000,89.500
2.946,191.500,101.000,156.000,90.000
2.947,191.000,101.000,156.000,90.500
2.948,191.000,101.000,157.000,91.000
2.949,190.000,100.500,157.000,91.000
2.950,190.000,100.500,157.500,91.500
2.951,189.500,100.500,157.500,91.500
2.952,189.000,101.000,158.000,92.000
2.953,188.000,101.500,158.000,92.000
2.954,187.500,102.500,158.500,92.500
2.955,186.500,103.000,158.500,93.000
2.956,186.000,104.000,158.500,93.500
2.957,185.000,104.500,158.000,94.000
2.958,185.000,105.500,158.000,94.500
2.959,184.000,105.500,157.000,94.000
2.960,184.000,106.000,157.000,94.500
2.961,183.000,105.500,156.000,94.000
2.962,183.000,105.500,156.000,94.000
2.963,182.500,105.000,155.500,93.500
2.964,182.000,105.000,155.500,93.500
2.965,181.000,104.500,155.000,93.000
2.966,180.500,104.500,155.000,93.000
2.967,179.500,104.500,154.500,93.000
2.968,179.000,104.500,154.500,93.000
2.969,178.000,104.500,153.500,93.000
2.970,177.500,105.500,154.000,94.000
2.971,176.500,105.500,153.500,94.000
2.972,176.000,106.500,154.000,95.000
2.973,174.500,106.500,154.000,95.000
2.974,174.000,107.500,155.000,96.000
2.975,173.000,107.500,155.500,96.000
2.976,172.500,108.000,156.500,96.500
2.977,172.000,108.500,156.500,96.500
2.978,172.000,109.000,157.000,97.000
2.979,171.500,109.000,157.000,96.500
2.980,172.000,109.000,157.500,97.000
2.981,172.000,109.000,157.000,96.500
2.982,172.500,109.000,157.500,97.000
2.983,172.500,108.500,157.000,97.000
2.984,173.000,108.000,157.500,97.500
2.985,173.000,107.500,157.500,97.500
2.986,173.000,107.000,158.000,97.500
2.987,172.500,106.000,158.500,97.500
2.988,172.500,106.500,159.000,98.000
2.989,171.500,106.500,159.500,98.000
2.990,171.000,107.500,161.000,99.000
2.991,170.000,108.000,161.500,100.000
2.992,169.000,109.000,163.000,101.500
2.993,167.500,109.500,163.500,103.500
2.994,166.500,110.000,164.500,105.500
2.995,165.500,110.000,164.000,107.500
2.996,165.500,110.000,164.500,109.500
2.997,164.500,109.500,164.000,110.000
2.998,165.000,109.500,164.000,110.500
2.999,164.500,109.000,163.500,110.000
3.000,165.000,109.500,164.000,110.000
3.001,165.000,109.000,164.000,109.000
3.002,165.500,109.500,165.500,108.000
3.003,165.500,109.500,166.000,107.000
3.004,166.000,110.000,166.500,106.500
3.005,165.500,110.000,167.000,106.000
3.006,165.500,110.000,167.500,106.000
3.007,164.500,109.500,167.500,105.500
3.008,163.500,109.000,168.000,105.500
3.009,162.000,108.000,168.000,105.000
3.010,161.000,107.500,168.000,105.000
3.011,159.000,106.500,167.500,104.500
3.012,158.000,106.000,167.000,103.500
3.013,157.000,105.500,166.000,102.500
3.014,156.500,105.500,165.500,102.500
3.015,155.500,105.000,165.500,102.000
3.016,156.000,105.000,166.500,102.500
3.017,155.500,105.500,167.500,103.000
3.018,156.000,106.000,169.500,103.500
3.019,156.000,106.500,171.000,104.000
3.020,156.000,107.000,172.500,105.500
3.021,155.500,107.500,173.500,106.000
3.022,155.500,108.000,174.500,107.500
3.023,154.500,108.000,174.500,108.500
3.024,154.000,108.500,175.500,109.500
3.025,152.500,109.000,175.500,110.500
3.026,152.000,110.000,176.500,111.500
3.027,150.500,110.500,177.000,112.000
3.028,150.000,111.500,178.000,113.000
3.029,149.500,111.500,178.000,112.500
3.030,149.000,112.000,178.500,113.000
3.031,148.500,112.000,178.000,112.500
3.032,148.500,112.500,178.500,112.500
3.033,148.500,112.500,178.500,112.500
3.034,148.500,113.000,179.500,112.500
3.035,148.000,113.500,179.500,112.500
3.036,148.000,114.000,180.000,113.000
3.037,147.000,114.500,180.000,113.000
3.038,146.500,115.000,180.000,114.000
3.039,146.000,115.000,179.500,114.500
3.040,146.000,115.500,180.000,115.500
3.041,145.500,116.000,179.500,116.000
3.042,146.000,117.000,179.500,117.000
3.043,145.500,117.500,179.500,117.000
3.044,145.500,118.000,179.500,118.000
3.045,145.000,118.500,179.500,118.000
3.046,144.500,119.000,180.000,119.000
3.047,143.500,119.000,180.500,119.500
3.048,143.000,119.000,182.000,120.500
3.049,142.000,119.000,182.500,121.500
3.050,141.000,119.500,184.000,123.500
3.051,140.000,119.500,185.000,124.500
3.052,139.000,120.500,186.000,126.500
3.053,138.000,121.500,186.000,127.500
3.054,137.500,123.000,186.500,128.500
3.055,136.500,124.000,186.500,129.500
3.056,136.500,125.500,187.000,130.500
3.057,136.500,126.500,187.000,131.000
3.058,137.500,128.000,188.000,131.500
3.059,138.000,129.000,188.500,132.000
3.060,139.000,130.000,189.500,133.000
3.061,139.500,131.000,190.000,133.500
3.062,140.000,132.000,191.000,134.500
3.063,140.000,132.500,191.500,134.500
3.064,139.500,133.500,192.500,135.500
3.065,138.500,134.000,193.000,136.000
3.066,138.000,134.500,194.000,137.500
3.067,136.500,135.000,194.000,138.000
3.068,135.500,135.500,195.000,139.500
3.069,135.000,135.000,195.000,140.500
3.070,135.000,135.000,196.000,142.000
3.071,135.000,134.500,196.000,143.000
3.072,135.500,135.000,197.000,144.500
3.073,136.000,134.500,197.500,145.500
3.074,137.500,135.000,199.000,147.000
3.075,138.000,135.000,200.000,148.000
3.076,138.500,136.000,201.500,148.500
3.077,139.000,136.000,202.000,148.500
3.078,139.500,137.000,203.000,149.000
3.079,139.500,137.500,203.000,149.000
3.080,139.500,138.500,203.000,149.500
3.081,139.500,138.500,202.500,149.500
3.082,140.000,139.500,202.500,150.000
3.083,139.500,140.000,202.000,150.000
3.084,140.000,141.500,202.500,150.500
3.085,140.000,142.000,202.500,150.500
3.086,140.500,142.500,203.000,151.500
3.087,140.500,143.000,202.500,151.500
3.088,141.000,143.500,203.000,152.500
3.089,141.000,143.500,203.000,152.500
3.090,141.500,144.000,204.000,153.500
3.091,141.000,144.000,204.000,153.500
3.092,141.000,144.500,204.500,154.000
3.093,140.500,145.000,204.500,154.500
3.094,140.500,146.000,205.000,155.000
3.095,139.500,146.500,204.500,155.500
3.096,139.000,147.000,205.000,156.500
3.097,137.500,147.500,204.500,157.000
3.098,137.000,148.000,204.500,158.000
3.099,136.000,148.000,204.500,158.000
3.100,135.500,148.000,204.500,159.000
3.101,135.000,147.500,204.500,159.500
3.102,135.000,147.500,205.500,161.000
3.103,134.500,147.500,206.000,161.500
3.104,134.000,147.500,207.000,162.500
3.105,133.000,147.500,207.500,163.000
3.106,131.500,147.500,208.500,163.500
3.107,129.000,147.500,209.000,163.500
3.108,126.500,148.000,210.500,164.500
3.109,124.000,148.500,211.000,165.000
3.110,122.500,149.000,213.000,166.000
3.111,121.000,149.500,214.000,166.500
3.112,120.500,150.000,215.000,167.000
3.113,119.500,150.000,215.500,167.000
3.114,119.500,150.500,216.500,167.000
3.115,119.500,150.000,216.500,166.500
3.116,120.000,150.500,217.000,167.000
3.117,120.000,150.000,217.000,166.500
3.118,120.500,150.000,217.500,166.500
3.119,120.000,149.500,217.000,165.500
3.120,120.500,149.000,217.500,166.000
3.121,120.000,148.000,217.500,165.500
3.122,120.000,148.000,218.000,166.500
3.123,119.000,148.000,218.000,166.500
3.124,119.000,148.500,219.000,167.500
3.125,118.500,149.000,219.000,167.500
3.126,118.500,150.000,219.500,168.500
3.127,118.000,151.000,220.000,169.000
3.128,118.000,152.500,221.000,170.000
3.129,117.500,154.000,221.500,170.500
3.130,118.000,155.500,223.000,171.500
3.131,117.500,156.500,223.000,172.000
3.132,117.500,157.500,223.500,173.000
3.133,116.500,158.000,223.000,172.500
3.134,116.500,158.500,223.000,172.500
3.135,115.500,158.500,222.000,172.000
3.136,114.500,159.000,222.000,172.000
3.137,113.500,159.000,221.500,172.000
3.138,112.500,160.000,222.000,172.500
3.139,111.500,160.500,221.500,172.500
3.140,110.500,161.500,221.500,173.000
3.141,109.000,161.500,220.500,172.500
3.142,108.000,161.000,219.500,172.500
3.143,107.000,160.000,218.000,171.500
3.144,107.000,159.500,217.500,171.500
3.145,106.000,158.500,217.000,171.500
3.146,106.000,158.000,217.500,172.000
3.147,105.500,158.000,218.500,172.500
3.148,106.000,159.000,220.500,174.000
3.149,106.000,159.500,222.500,175.000
3.150,107.000,161.500,225.000,177.500
3.151,107.500,162.500,227.000,179.000
3.152,109.000,164.500,229.500,181.500
3.153,109.500,165.500,231.000,183.000
3.154,111.000,167.000,232.500,185.000
3.155,111.000,167.000,233.000,185.500
3.156,111.500,168.000,233.500,186.000
3.157,111.000,168.000,233.000,185.500
3.158,110.500,168.000,233.000,185.000
3.159,109.000,168.000,232.000,184.000
3.160,107.500,168.000,231.500,183.000
3.161,106.000,167.000,230.500,181.500
3.162,105.000,167.000,230.000,180.500
3.163,103.500,166.500,228.500,180.000
3.164,103.000,166.500,228.500,180.000
3.165,102.500,166.500,227.500,180.500
3.166,102.500,167.000,228.000,181.500
3.167,102.000,167.500,228.000,182.000
3.168,102.000,169.000,229.000,183.500
3.169,101.500,169.500,229.000,184.000
3.170,101.500,170.000,230.000,185.000
3.171,100.500,170.000,230.000,186.000
3.172,100.000,171.000,231.000,187.500
3.173,98.500,171.000,230.500,188.500
3.174,98.000,172.000,231.500,190.000
3.175,96.500,172.000,231.500,191.000
3.176,95.500,173.000,232.500,192.500
3.177,94.500,173.500,232.500,193.000
3.178,94.500,174.500,233.000,194.000
3.179,94.000,175.500,232.500,194.500
3.180,94.000,176.500,233.500,195.500
3.181,93.000,177.500,234.000,196.500
3.182,93.000,179.000,235.000,197.500
3.183,92.500,180.000,235.500,198.000
3.184,92.500,181.500,236.500,199.000
3.185,92.000,182.000,236.500,199.000
3.186,92.000,183.000,237.500,199.500
3.187,92.000,183.000,238.000,199.500
3.188,92.500,183.000,239.000,200.000
3.189,92.500,183.000,239.500,200.500
3.190,93.500,183.500,241.000,202.000
3.191,94.000,183.500,242.500,202.500
3.192,95.000,185.000,244.500,204.500
3.193,95.500,185.500,245.500,205.500
3.194,96.000,187.000,247.500,206.500
3.195,96.000,187.500,248.000,207.000
3.196,96.000,188.500,249.500,208.000
3.197,95.000,188.500,249.500,208.000
3.198,93.500,189.000,250.500,209.000
3.199,92.000,189.000,251.000,209.000
3.200,90.500,189.000,251.500,209.500
3.201,88.500,188.500,251.500,209.000
3.202,87.500,188.000,252.000,209.500
3.203,86.000,187.000,252.000,209.000
3.204,85.500,187.000,252.500,209.500
3.205,84.500,186.000,252.500,209.000
3.206,84.500,186.500,253.000,209.500
3.207,84.000,186.000,253.000,209.000
3.208,84.500,187.000,254.000,209.500
3.209,84.500,187.500,254.000,209.000
3.210,85.500,188.500,255.500,210.000
3.211,86.000,189.000,256.000,210.000
3.212,86.500,190.000,257.000,210.500
3.213,87.000,190.000,257.500,210.500
3.214,87.000,191.000,258.000,211.000
3.215,87.000,190.500,258.000,210.000
3.216,87.000,190.500,258.000,209.500
3.217,86.000,190.000,257.500,208.500
3.218,85.500,190.500,258.000,208.000
3.219,84.500,190.500,257.500,207.000
3.220,84.000,191.500,258.500,207.000
3.221,83.500,192.000,258.000,206.500
3.222,83.500,193.500,258.500,207.000
3.223,83.000,194.000,258.000,207.000
3.224,83.500,194.500,258.500,208.000
3.225,84.000,194.500,258.000,207.500
3.226,84.500,194.500,258.500,208.000
3.227,84.500,194.000,258.500,208.000
3.228,84.500,194.500,259.000,208.500
3.229,84.500,194.000,259.500,208.000
3.230,84.500,195.000,261.000,208.500
3.231,84.000,195.000,261.500,208.500
3.232,83.500,196.000,263.000,209.500
3.233,83.000,196.500,263.000,209.500
3.234,82.500,197.500,264.000,210.000
3.235,82.000,197.500,263.500,210.000
3.236,82.000,198.500,264.000,211.000
3.237,82.000,198.500,263.500,211.000
3.238,82.500,199.000,264.000,212.000
3.239,82.500,199.000,264.000,212.000
3.240,83.500,200.000,264.500,213.500
3.241,83.500,200.000,264.500,214.000
3.242,84.000,201.000,265.000,215.500
3.243,84.000,201.500,265.500,216.500
3.244,83.500,202.500,266.500,218.000
3.245,83.000,203.000,267.000,218.500
3.246,82.500,203.500,268.500,219.000
3.247,81.500,203.000,269.000,219.000
