'Elapsed time','AECG1','AECG2','AECG3','AECG4'
'seconds','uV','uV','uV','uV'
0.000,85.500,22.000,41.000,6.000
0.001,88.000,24.500,43.000,8.000
0.002,89.500,26.000,45.000,9.000
0.003,90.000,27.000,45.500,10.000
0.004,90.500,27.000,45.500,10.000
0.005,89.500,26.500,45.000,9.500
0.006,88.500,25.500,44.000,8.500
0.007,87.500,24.000,42.500,7.500
0.008,86.000,22.500,41.000,6.500
0.009,84.500,21.000,39.500,5.500
0.010,83.500,19.500,38.500,5.000
0.011,82.500,18.500,37.500,4.500
0.012,82.000,18.000,37.000,4.000
0.013,81.500,18.000,36.500,4.000
0.014,81.500,18.000,36.500,3.500
0.015,81.500,18.000,36.500,3.500
0.016,81.500,18.000,36.500,3.500
0.017,82.000,18.500,36.500,3.500
0.018,81.500,18.500,36.500,3.500
0.019,81.500,18.500,36.500,4.000
0.020,81.500,19.000,37.000,4.000
0.021,81.500,19.000,37.000,4.000
0.022,81.500,19.500,37.500,4.000
0.023,81.500,19.500,37.500,4.500
0.024,81.500,20.000,38.000,4.500
0.025,81.500,20.000,38.000,4.500
0.026,81.000,20.000,37.500,4.500
0.027,81.000,19.500,37.500,4.500
0.028,81.000,19.500,37.500,4.500
0.029,80.500,19.000,37.000,4.000
0.030,80.500,18.500,36.500,3.000
0.031,80.000,18.500,36.000,2.500
0.032,80.000,18.000,35.500,2.000
0.033,79.500,17.500,35.500,1.500
0.034,79.500,17.000,35.000,1.500
0.035,79.500,17.000,34.500,1.000
0.036,79.500,17.000,34.000,1.000
0.037,80.000,17.000,34.000,1.000
0.038,80.000,17.000,34.000,1.000
0.039,80.000,17.000,34.000,1.000
0.040,80.000,17.000,34.000,1.000
0.041,80.000,17.000,34.000,1.000
0.042,80.000,17.000,34.500,1.000
0.043,80.500,17.000,34.500,1.000
0.044,80.500,17.500,34.500,0.500
0.045,80.500,17.500,34.500,0.500
0.046,80.500,17.000,34.000,0.000
0.047,80.500,17.000,34.000,-0.500
0.048,80.000,16.500,33.500,-1.000
0.049,80.000,16.000,33.000,-1.500
0.050,79.500,15.500,32.500,-2.000
0.051,79.500,15.000,32.000,-2.500
0.052,79.000,14.500,31.500,-3.500
0.053,78.500,14.500,31.000,-4.000
0.054,78.500,14.000,30.500,-4.500
0.055,78.000,14.000,30.000,-5.000
0.056,78.000,14.000,29.500,-5.500
0.057,78.000,14.000,29.500,-6.000
0.058,78.000,14.000,30.000,-6.000
0.059,78.000,14.000,30.000,-6.000
0.060,78.000,14.000,30.500,-6.000
0.061,78.000,14.500,30.500,-5.500
0.062,78.500,14.500,30.500,-5.500
0.063,78.500,14.500,30.500,-5.500
0.064,78.000,15.000,30.500,-5.500
0.065,78.000,15.000,30.500,-5.500
0.066,78.000,15.000,30.000,-5.000
0.067,78.000,14.500,30.000,-5.000
0.068,78.000,14.500,30.000,-5.500
0.069,77.500,14.000,29.500,-6.000
0.070,77.500,13.500,29.500,-6.000
0.071,77.000,13.000,29.000,-6.500
0.072,76.500,13.000,28.500,-7.000
0.073,76.500,12.500,28.500,-7.500
0.074,76.500,12.000,28.000,-7.500
0.075,76.500,12.000,28.000,-7.500
0.076,76.500,12.000,28.000,-7.500
0.077,76.500,12.500,28.500,-7.500
0.078,76.500,13.000,28.500,-7.500
0.079,76.500,13.500,29.000,-7.000
0.080,76.500,13.500,29.500,-7.000
0.081,76.500,14.000,29.500,-6.500
0.082,76.500,14.000,30.000,-6.500
0.083,77.000,14.000,30.000,-6.500
0.084,77.000,13.500,30.000,-6.500
0.085,77.000,13.500,30.000,-7.000
0.086,77.000,13.500,29.500,-7.000
0.087,77.000,13.000,29.500,-7.000
0.088,77.000,13.000,29.500,-7.500
0.089,76.500,13.000,29.000,-7.500
0.090,76.000,12.500,29.000,-8.000
0.091,76.000,12.500,28.500,-8.500
0.092,75.500,12.000,28.500,-8.500
0.093,75.500,12.000,28.000,-9.000
0.094,75.500,11.500,27.500,-9.000
0.095,76.000,11.500,27.000,-9.000
0.096,76.000,11.500,27.000,-9.000
0.097,76.000,11.500,27.000,-8.500
0.098,76.000,11.500,27.000,-8.500
0.099,76.000,12.000,27.000,-8.500
0.100,76.000,12.000,27.000,-8.500
0.101,76.000,12.000,27.000,-9.000
0.102,76.000,12.500,27.500,-8.500
0.103,76.000,13.000,28.000,-8.500
0.104,76.000,13.000,28.000,-9.000
0.105,76.000,13.500,28.000,-9.000
0.106,76.000,13.000,28.000,-9.500
0.107,76.000,13.000,27.500,-9.500
0.108,76.000,13.000,27.500,-10.000
0.109,76.000,12.500,27.000,-10.000
0.110,76.000,12.500,27.000,-10.500
0.111,76.000,12.000,26.500,-10.500
0.112,76.000,11.500,26.000,-11.000
0.113,76.000,11.000,25.500,-11.000
0.114,75.500,10.500,25.000,-11.000
0.115,75.500,10.500,25.000,-11.000
0.116,75.500,10.500,25.000,-10.500
0.117,76.000,10.500,25.000,-10.500
0.118,76.000,11.000,25.000,-10.000
0.119,76.000,11.500,25.500,-9.500
0.120,76.500,12.500,26.000,-9.000
0.121,76.500,12.500,26.500,-9.000
0.122,76.500,13.000,26.500,-9.000
0.123,76.000,13.000,26.500,-9.000
0.124,76.000,13.500,26.500,-9.000
0.125,76.000,13.500,26.500,-9.000
0.126,76.000,13.500,27.000,-9.000
0.127,76.000,13.500,26.500,-9.000
0.128,76.000,13.500,26.500,-9.500
0.129,76.000,13.000,26.500,-9.500
0.130,76.000,13.000,26.000,-9.500
0.131,76.000,12.500,26.000,-9.500
0.132,76.000,12.000,25.500,-9.500
0.133,76.000,11.000,25.000,-9.500
0.134,76.500,10.500,25.000,-9.500
0.135,76.500,10.500,25.000,-9.500
0.136,76.500,10.500,25.000,-9.500
0.137,76.500,10.500,25.500,-9.500
0.138,76.500,10.500,25.500,-9.000
0.139,76.500,11.000,26.000,-9.000
0.140,76.500,12.000,26.500,-8.500
0.141,76.500,12.500,27.000,-8.000
0.142,77.000,13.500,28.000,-7.500
0.143,77.000,14.500,28.500,-7.000
0.144,77.000,15.500,29.000,-6.500
0.145,77.000,16.000,29.500,-6.500
0.146,77.500,16.500,30.000,-6.000
0.147,77.500,17.000,30.000,-6.000
0.148,78.000,17.000,30.000,-6.000
0.149,78.500,17.000,30.000,-6.000
0.150,78.500,17.000,30.000,-6.500
0.151,79.000,17.000,30.000,-6.500
0.152,79.000,17.000,29.500,-6.500
0.153,79.000,17.000,29.500,-7.000
0.154,78.500,17.000,29.000,-7.000
0.155,78.500,16.500,29.000,-7.500
0.156,78.000,16.500,28.500,-7.500
0.157,77.500,16.500,28.500,-8.000
0.158,77.500,16.500,28.500,-8.000
0.159,77.500,17.000,28.500,-8.000
0.160,77.500,17.000,28.500,-8.000
0.161,77.500,17.000,29.000,-8.000
0.162,78.000,17.500,29.000,-7.500
0.163,78.000,18.000,29.500,-7.000
0.164,78.000,18.500,30.000,-6.500
0.165,78.000,19.000,30.000,-6.000
0.166,78.000,19.000,30.000,-5.500
0.167,78.000,19.000,30.000,-5.500
0.168,78.000,19.000,29.500,-5.500
0.169,77.500,18.500,29.500,-6.000
0.170,77.500,18.000,29.000,-6.000
0.171,77.000,18.000,29.000,-6.500
0.172,77.000,17.500,28.500,-6.500
0.173,77.000,17.500,28.500,-6.500
0.174,76.500,17.500,28.500,-7.000
0.175,76.500,17.500,28.000,-7.000
0.176,77.000,17.500,28.000,-7.500
0.177,77.000,17.500,28.000,-7.500
0.178,77.500,18.000,28.000,-7.000
0.179,77.500,18.500,28.000,-7.000
0.180,77.500,18.500,28.500,-6.500
0.181,77.500,19.000,29.000,-6.500
0.182,77.500,19.000,29.000,-6.500
0.183,77.000,19.000,29.000,-6.500
0.184,77.000,19.500,29.000,-6.500
0.185,77.000,19.500,29.000,-6.500
0.186,77.000,19.500,29.000,-6.500
0.187,76.500,19.000,29.000,-6.500
0.188,76.500,18.500,28.500,-6.500
0.189,76.000,18.500,28.500,-7.000
0.190,75.500,18.000,28.000,-7.000
0.191,75.500,18.000,27.500,-7.500
0.192,75.000,17.500,27.000,-7.500
0.193,75.000,17.000,27.000,-8.000
0.194,75.000,17.000,26.500,-8.000
0.195,75.000,16.500,26.500,-8.500
0.196,75.000,16.500,26.500,-8.000
0.197,74.500,16.500,26.000,-8.000
0.198,75.000,16.500,26.500,-8.000
0.199,75.000,17.000,27.000,-7.500
0.200,75.000,17.000,27.500,-7.500
0.201,75.500,17.500,27.500,-7.000
0.202,75.500,17.500,28.000,-6.500
0.203,75.500,17.500,28.000,-6.500
0.204,75.500,17.500,28.000,-6.500
0.205,76.000,18.000,28.000,-6.500
0.206,76.000,18.000,28.000,-6.500
0.207,76.000,18.000,28.000,-6.500
0.208,76.000,17.500,28.000,-6.500
0.209,75.500,17.000,28.000,-6.500
0.210,75.500,17.000,28.000,-6.500
0.211,75.500,16.500,27.500,-6.500
0.212,75.500,16.500,27.500,-6.500
0.213,75.500,16.500,27.000,-6.500
0.214,75.500,16.500,27.000,-6.500
0.215,75.500,16.500,27.000,-6.500
0.216,75.500,16.500,27.000,-6.500
0.217,75.500,16.500,27.000,-6.500
0.218,75.500,16.500,27.500,-6.000
0.219,75.500,16.500,27.500,-6.000
0.220,76.000,17.000,27.500,-5.500
0.221,76.000,17.000,27.500,-5.500
0.222,76.000,17.500,27.500,-5.000
0.223,76.000,17.500,28.000,-5.000
0.224,76.000,18.000,28.000,-5.000
0.225,76.000,18.000,28.000,-5.000
0.226,76.000,17.500,28.000,-5.000
0.227,75.500,17.500,28.000,-5.000
0.228,75.000,17.000,27.500,-5.000
0.229,74.500,16.000,27.000,-5.500
0.230,74.000,15.500,26.500,-6.000
0.231,74.000,15.000,26.000,-6.500
0.232,73.500,14.500,25.500,-7.000
0.233,73.000,14.000,25.500,-7.000
0.234,73.000,14.000,25.000,-7.000
0.235,73.000,14.500,25.000,-7.000
0.236,73.000,14.500,25.000,-7.000
0.237,73.500,15.000,25.000,-6.500
0.238,73.500,15.000,25.500,-6.500
0.239,73.500,15.500,26.000,-6.000
0.240,73.500,15.500,26.000,-6.000
0.241,74.000,16.000,26.500,-6.000
0.242,74.000,16.000,26.500,-5.500
0.243,74.500,16.500,27.000,-5.500
0.244,75.000,16.500,27.000,-5.000
0.245,75.000,16.500,27.500,-5.000
0.246,75.500,16.500,27.000,-4.500
0.247,75.500,16.500,27.000,-4.500
0.248,75.000,16.000,26.500,-4.500
0.249,75.000,16.000,26.000,-4.500
0.250,75.000,15.500,26.000,-4.500
0.251,75.000,15.500,25.500,-4.500
0.252,75.500,15.000,25.000,-4.500
0.253,75.500,15.000,25.000,-4.500
0.254,76.000,15.000,25.000,-4.500
0.255,76.000,15.000,25.500,-4.500
0.256,76.000,15.000,25.500,-4.500
0.257,76.000,15.000,26.000,-4.000
0.258,76.500,15.000,26.000,-4.000
0.259,76.500,15.500,26.000,-3.500
0.260,76.500,16.000,26.500,-3.000
0.261,76.500,16.000,26.500,-3.000
0.262,77.000,16.500,27.000,-2.500
0.263,77.000,17.000,27.000,-2.000
0.264,77.000,17.000,27.000,-2.000
0.265,77.000,16.500,27.000,-2.000
0.266,76.500,16.500,26.500,-2.000
0.267,76.500,16.000,26.500,-2.500
0.268,76.500,15.500,26.000,-2.500
0.269,76.500,15.000,26.000,-3.000
0.270,76.500,14.500,25.500,-3.500
0.271,76.500,14.500,25.000,-3.500
0.272,76.500,14.000,25.000,-3.500
0.273,76.500,14.000,24.500,-4.000
0.274,76.000,13.500,24.500,-4.000
0.275,76.000,13.500,24.500,-4.000
0.276,76.000,13.500,24.000,-4.000
0.277,76.500,14.000,24.000,-4.000
0.278,76.500,14.500,24.500,-3.500
0.279,77.000,14.500,24.500,-3.500
0.280,77.000,15.000,25.000,-3.000
0.281,77.500,15.000,25.500,-3.000
0.282,77.500,15.500,26.000,-3.000
0.283,77.500,15.500,26.000,-2.500
0.284,77.500,15.500,26.000,-2.500
0.285,77.500,16.000,26.000,-2.500
0.286,78.000,15.500,26.000,-2.500
0.287,78.000,15.500,25.500,-2.500
0.288,78.000,15.500,25.000,-2.500
0.289,77.500,15.000,24.500,-3.000
0.290,77.500,14.500,24.500,-3.500
0.291,77.500,14.500,24.000,-3.500
0.292,77.500,14.000,23.500,-4.000
0.293,77.000,14.000,23.000,-4.500
0.294,77.000,13.500,23.000,-4.500
0.295,77.000,13.500,23.000,-5.000
0.296,77.000,13.000,23.000,-5.000
0.297,77.000,13.000,23.000,-5.000
0.298,77.500,13.000,23.500,-4.500
0.299,77.500,13.000,23.500,-4.500
0.300,77.500,13.000,23.500,-4.500
0.301,77.500,13.500,23.500,-4.000
0.302,77.500,13.500,23.500,-4.000
0.303,78.000,13.500,23.500,-4.000
0.304,77.500,13.500,23.500,-4.000
0.305,77.500,13.000,23.500,-4.000
0.306,77.500,13.000,23.500,-4.500
0.307,77.500,12.500,23.500,-4.500
0.308,77.500,12.500,23.500,-4.500
0.309,77.500,12.000,23.000,-5.000
0.310,77.500,12.000,23.000,-5.000
0.311,77.500,12.000,22.500,-5.000
0.312,77.500,11.500,22.500,-5.000
0.313,77.500,12.000,22.000,-5.500
0.314,77.500,12.000,22.000,-5.500
0.315,78.000,12.000,22.000,-5.500
0.316,78.500,12.000,22.000,-5.000
0.317,79.000,12.500,22.500,-5.000
0.318,79.500,12.500,23.000,-4.500
0.319,80.000,13.000,23.500,-4.500
0.320,80.500,13.500,24.000,-4.000
0.321,80.500,13.500,24.500,-3.500
0.322,80.500,14.000,25.000,-3.500
0.323,81.000,14.500,25.500,-3.000
0.324,81.000,14.500,25.500,-3.000
0.325,81.000,14.500,26.000,-2.500
0.326,81.000,15.000,26.000,-2.500
0.327,81.000,15.000,26.000,-2.500
0.328,81.000,15.000,26.000,-2.500
0.329,81.000,14.500,26.000,-2.000
0.330,81.000,14.500,26.000,-2.000
0.331,81.500,14.500,26.500,-2.000
0.332,81.500,14.500,26.500,-1.500
0.333,82.000,15.000,26.500,-1.500
0.334,82.000,15.000,27.000,-1.500
0.335,82.500,15.000,27.000,-1.000
0.336,83.000,15.500,27.500,-1.000
0.337,83.500,16.000,28.000,-0.500
0.338,83.500,16.000,28.000,0.000
0.339,84.000,16.000,28.000,0.000
0.340,84.000,16.000,28.500,0.500
0.341,84.000,16.000,28.000,0.000
0.342,83.500,15.500,28.000,0.000
0.343,83.000,14.500,27.500,-0.500
0.344,82.000,13.500,26.500,-1.000
0.345,80.500,12.000,25.500,-1.500
0.346,78.500,10.000,23.500,-3.000
0.347,76.000,7.500,21.500,-4.500
0.348,73.500,4.500,19.000,-6.000
0.349,71.000,2.000,17.000,-7.500
0.350,69.000,0.000,15.500,-8.500
0.351,68.000,-1.500,14.500,-9.000
0.352,67.500,-1.500,14.500,-9.000
0.353,68.000,-1.000,15.000,-8.500
0.354,69.000,0.500,16.000,-8.000
0.355,70.500,2.500,17.500,-7.000
0.356,73.000,5.000,19.500,-5.500
0.357,76.000,8.000,22.000,-3.500
0.358,79.000,11.500,25.000,-1.500
0.359,82.500,15.500,28.500,1.000
0.360,86.000,19.000,31.500,3.000
0.361,88.500,22.000,34.000,5.000
0.362,90.500,24.000,35.500,6.500
0.363,92.000,25.500,37.000,7.500
0.364,92.500,26.500,37.500,8.000
0.365,92.000,26.000,37.500,7.500
0.366,91.500,25.000,36.500,7.000
0.367,90.500,23.500,35.000,6.000
0.368,89.000,22.000,33.500,5.000
0.369,87.500,20.000,32.000,4.000
0.370,86.000,18.500,31.000,2.500
0.371,85.000,17.000,30.000,1.500
0.372,84.000,16.000,29.000,0.500
0.373,83.500,15.000,28.500,-0.500
0.374,83.000,14.000,27.500,-1.000
0.375,83.000,14.000,27.500,-1.500
0.376,82.500,13.500,27.000,-1.500
0.377,83.000,13.500,27.000,-1.500
0.378,83.000,13.500,27.500,-1.000
0.379,83.000,13.500,28.000,-1.000
0.380,83.500,14.000,28.500,-0.500
0.381,83.500,14.500,29.000,-0.500
0.382,83.500,14.500,29.500,-0.500
0.383,84.000,14.500,29.500,0.000
0.384,84.000,15.000,30.000,0.000
0.385,84.000,15.000,30.000,0.000
0.386,84.000,15.000,30.000,0.000
0.387,84.000,15.000,30.000,0.000
0.388,83.500,14.500,30.000,0.000
0.389,83.500,14.500,29.500,0.000
0.390,83.000,14.000,29.000,-0.500
0.391,82.500,13.500,29.000,-1.000
0.392,82.500,13.500,28.500,-1.500
0.393,82.000,13.000,28.000,-2.000
0.394,82.000,13.000,28.000,-2.000
0.395,81.500,13.000,28.000,-2.500
0.396,81.500,12.500,28.000,-2.500
0.397,81.500,12.500,28.000,-3.000
0.398,81.500,12.500,27.500,-3.000
0.399,81.500,12.500,28.000,-2.500
0.400,82.000,12.500,28.000,-2.500
0.401,82.000,13.000,28.500,-2.500
0.402,82.000,13.000,28.500,-2.000
0.403,82.000,13.000,29.000,-2.000
0.404,82.000,13.000,29.000,-2.000
0.405,81.500,13.000,29.000,-2.000
0.406,81.500,12.500,29.000,-1.500
0.407,81.000,12.500,29.000,-2.000
0.408,80.500,12.000,28.500,-2.000
0.409,80.000,11.500,28.000,-2.000
0.410,80.000,11.000,28.000,-2.500
0.411,79.500,10.500,27.500,-2.500
0.412,79.500,10.000,27.500,-3.000
0.413,79.000,10.000,27.000,-3.500
0.414,79.000,9.500,26.500,-3.500
0.415,78.500,9.000,26.500,-4.000
0.416,78.500,9.000,26.000,-4.000
0.417,78.500,8.500,26.000,-4.500
0.418,78.500,8.500,26.000,-4.500
0.419,79.000,8.500,26.000,-4.500
0.420,79.000,8.500,26.000,-4.000
0.421,79.000,9.000,26.500,-4.000
0.422,79.000,9.000,27.000,-3.500
0.423,79.000,9.000,27.000,-3.500
0.424,78.500,9.000,27.500,-3.500
0.425,78.500,9.000,27.500,-3.000
0.426,78.000,8.500,27.500,-3.000
0.427,78.000,8.500,27.500,-3.000
0.428,77.500,8.000,27.000,-3.000
0.429,77.500,7.500,27.000,-3.500
0.430,77.500,7.000,26.500,-3.500
0.431,77.000,7.000,26.500,-4.000
0.432,77.000,7.000,26.000,-4.000
0.433,76.500,6.500,26.000,-4.500
0.434,76.500,6.000,25.500,-5.000
0.435,76.500,6.000,25.500,-5.000
0.436,76.000,5.500,25.500,-5.500
0.437,76.000,5.500,25.500,-5.500
0.438,76.000,6.000,25.500,-5.500
0.439,76.000,6.000,25.500,-5.500
0.440,76.000,6.000,25.500,-5.500
0.441,75.500,5.500,25.500,-6.000
0.442,75.500,5.000,25.000,-6.500
0.443,74.500,4.500,24.000,-7.500
0.444,74.000,3.500,23.000,-8.500
0.445,73.500,2.500,22.000,-9.500
0.446,72.000,1.500,20.500,-10.500
0.447,71.000,-0.500,19.000,-12.000
0.448,69.500,-2.000,17.500,-13.500
0.449,68.000,-4.000,16.000,-14.500
0.450,66.000,-5.500,14.500,-16.000
0.451,64.500,-7.500,13.000,-17.000
0.452,63.000,-9.000,11.500,-18.000
0.453,61.500,-10.500,10.500,-19.000
0.454,60.000,-12.500,9.000,-19.500
0.455,58.500,-14.000,8.000,-20.500
0.456,57.000,-15.000,7.000,-21.000
0.457,55.500,-16.500,6.000,-21.000
0.458,54.500,-17.000,6.000,-21.000
0.459,53.500,-17.500,5.500,-20.500
0.460,53.000,-18.000,6.000,-19.500
0.461,52.500,-18.000,7.000,-18.000
0.462,52.500,-18.000,8.000,-16.500
0.463,52.000,-17.500,9.000,-14.500
0.464,52.000,-17.500,10.000,-12.500
0.465,51.500,-17.000,10.500,-11.000
0.466,50.500,-17.500,11.000,-9.500
0.467,50.000,-17.500,12.000,-8.500
0.468,50.000,-17.500,12.500,-7.500
0.469,49.500,-17.000,13.000,-6.500
0.470,49.500,-16.500,14.000,-6.000
0.471,50.000,-16.000,15.000,-5.500
0.472,50.500,-15.000,16.000,-5.000
0.473,51.500,-14.000,17.000,-4.500
0.474,53.000,-12.500,18.500,-3.000
0.475,55.500,-10.000,20.500,-1.500
0.476,58.500,-7.500,23.500,0.500
0.477,62.000,-4.000,26.500,2.500
0.478,65.500,-0.500,29.500,5.000
0.479,69.500,3.000,32.500,6.500
0.480,73.000,6.000,35.000,8.500
0.481,77.000,9.500,38.000,10.000
0.482,81.500,13.500,41.500,11.500
0.483,86.000,17.500,45.000,13.000
0.484,90.500,21.500,48.500,15.000
0.485,94.000,25.000,51.500,16.500
0.486,97.000,27.500,53.500,17.500
0.487,99.000,29.500,54.500,18.000
0.488,99.500,30.000,55.000,17.500
0.489,99.500,30.000,54.500,17.000
0.490,98.500,29.000,53.000,15.500
0.491,97.000,27.500,51.500,14.000
0.492,95.500,25.500,49.500,12.000
0.493,93.500,23.500,47.000,10.000
0.494,91.500,21.500,44.500,8.000
0.495,89.500,19.000,42.000,6.000
0.496,87.500,16.500,39.500,4.000
0.497,85.500,14.500,37.500,2.000
0.498,84.000,13.000,36.000,0.500
0.499,82.500,11.500,34.500,-1.500
0.500,81.000,10.000,33.000,-2.500
0.501,80.000,9.000,32.000,-3.500
0.502,79.500,8.500,31.000,-4.500
0.503,78.500,7.500,30.000,-5.500
0.504,77.500,7.000,29.500,-6.500
0.505,77.000,6.500,29.000,-7.000
0.506,76.000,6.000,28.500,-7.500
0.507,75.500,6.000,28.000,-8.000
0.508,75.500,5.500,27.500,-8.500
0.509,75.000,5.500,27.000,-8.500
0.510,75.000,5.000,26.500,-9.000
0.511,74.500,5.000,26.000,-9.500
0.512,74.500,4.500,25.500,-9.500
0.513,74.500,4.500,25.500,-10.000
0.514,74.000,4.500,25.000,-10.000
0.515,74.000,4.500,25.000,-10.000
0.516,74.000,4.500,25.000,-10.000
0.517,73.500,4.500,25.000,-10.000
0.518,73.500,4.500,25.000,-10.000
0.519,73.500,5.000,25.500,-9.500
0.520,73.500,5.000,25.500,-9.500
0.521,73.500,5.500,26.000,-9.000
0.522,73.500,6.000,26.000,-9.000
0.523,74.000,6.000,26.000,-9.000
0.524,74.000,6.000,26.000,-9.000
0.525,73.500,6.000,26.000,-9.500
0.526,73.500,6.000,25.500,-9.500
0.527,73.000,5.500,25.500,-10.000
0.528,72.500,5.000,25.000,-10.500
0.529,71.500,4.500,24.500,-11.000
0.530,71.000,4.000,24.500,-11.500
0.531,71.000,3.500,24.000,-12.000
0.532,70.500,3.000,23.500,-12.500
0.533,70.500,2.500,23.000,-12.500
0.534,70.000,2.000,23.000,-13.000
0.535,70.000,1.500,22.500,-13.000
0.536,70.000,1.500,22.500,-13.500
0.537,70.500,1.500,22.500,-13.500
0.538,70.500,2.000,22.500,-13.000
0.539,70.500,2.000,23.000,-13.000
0.540,70.500,2.500,23.000,-13.000
0.541,70.500,3.000,23.500,-12.500
0.542,70.000,3.000,23.500,-12.500
0.543,70.000,3.000,23.500,-12.500
0.544,70.000,3.500,24.000,-12.000
0.545,70.000,3.500,24.000,-12.000
0.546,70.000,3.500,24.500,-11.500
0.547,70.000,4.000,24.500,-11.000
0.548,70.000,4.000,24.500,-11.000
0.549,70.000,3.500,24.500,-11.000
0.550,70.000,3.500,24.000,-11.500
0.551,69.500,3.000,24.000,-11.500
0.552,69.500,2.500,23.500,-12.000
0.553,69.500,2.500,23.000,-12.000
0.554,69.500,2.500,23.000,-12.000
0.555,70.000,3.000,23.000,-12.000
0.556,70.000,3.000,23.000,-12.000
0.557,70.500,3.500,23.000,-11.500
0.558,70.500,4.000,23.500,-11.500
0.559,70.500,4.500,24.000,-11.500
0.560,71.000,5.000,24.500,-11.000
0.561,71.000,5.500,24.500,-10.500
0.562,71.500,6.000,25.000,-10.500
0.563,72.000,6.500,25.000,-10.000
0.564,72.500,7.000,25.500,-9.500
0.565,72.500,7.500,25.500,-9.000
0.566,72.500,7.500,25.500,-9.000
0.567,72.500,7.500,26.000,-8.500
0.568,72.500,7.000,25.500,-8.500
0.569,72.000,7.000,25.500,-9.000
0.570,72.000,6.500,25.000,-9.500
0.571,71.500,6.000,25.000,-9.500
0.572,71.500,6.000,24.500,-9.500
0.573,71.500,6.000,24.500,-9.500
0.574,71.500,6.000,24.500,-9.500
0.575,71.000,6.500,24.500,-9.500
0.576,71.500,7.000,25.000,-9.500
0.577,71.500,7.000,25.500,-9.000
0.578,72.000,7.500,25.500,-9.000
0.579,72.500,8.000,26.000,-8.500
0.580,73.000,8.000,26.500,-8.000
0.581,73.000,8.500,27.000,-7.500
0.582,73.000,9.000,27.000,-7.000
0.583,73.000,9.000,27.500,-7.000
0.584,73.000,9.000,27.500,-7.000
0.585,73.000,9.500,27.500,-7.000
0.586,73.000,9.500,27.500,-7.000
0.587,73.000,9.500,27.500,-6.500
0.588,73.000,9.500,28.000,-6.500
0.589,73.000,9.000,27.500,-7.000
0.590,72.500,9.000,27.500,-7.000
0.591,72.500,8.500,27.500,-7.500
0.592,72.500,8.500,27.000,-7.500
0.593,72.000,8.000,27.000,-7.500
0.594,72.000,8.000,26.500,-7.500
0.595,72.000,7.500,26.500,-7.500
0.596,71.500,7.500,26.500,-7.500
0.597,71.500,7.500,26.500,-7.500
0.598,71.500,8.000,26.500,-7.000
0.599,71.500,8.000,26.500,-6.500
0.600,72.000,8.500,27.000,-6.000
0.601,72.500,9.000,27.000,-6.000
0.602,72.500,9.000,27.500,-5.500
0.603,73.000,9.000,27.500,-6.000
0.604,73.000,9.500,28.000,-6.000
0.605,73.000,9.500,28.000,-6.000
0.606,73.000,9.500,28.000,-6.500
0.607,72.500,9.000,27.500,-7.000
0.608,72.000,8.500,27.000,-7.000
0.609,71.500,8.000,26.500,-7.500
0.610,71.000,7.500,26.000,-8.000
0.611,70.500,7.500,25.500,-8.000
0.612,70.000,7.000,25.000,-8.000
0.613,70.000,6.500,24.500,-8.000
0.614,69.500,6.500,24.500,-8.000
0.615,69.500,6.500,24.500,-8.000
0.616,70.000,6.500,24.000,-8.000
0.617,70.000,6.500,24.500,-8.000
0.618,70.500,7.000,24.500,-7.500
0.619,71.000,7.500,24.500,-7.000
0.620,71.500,8.000,25.000,-6.500
0.621,72.000,8.500,25.500,-6.000
0.622,72.000,9.000,25.500,-6.000
0.623,72.000,9.000,25.500,-5.500
0.624,72.000,9.000,25.500,-5.500
0.625,72.000,8.500,25.500,-5.500
0.626,71.500,8.500,25.000,-5.500
0.627,71.000,8.000,25.000,-5.500
0.628,71.000,8.000,24.500,-6.000
0.629,70.500,8.000,24.000,-6.000
0.630,70.500,7.500,24.000,-6.500
0.631,70.000,7.000,23.500,-6.500
0.632,70.000,7.000,23.500,-6.500
0.633,70.000,6.500,23.000,-7.000
0.634,70.000,6.000,23.000,-7.000
0.635,70.000,6.000,23.000,-7.000
0.636,70.000,6.500,23.000,-7.000
0.637,70.500,6.500,23.000,-7.000
0.638,70.500,7.000,23.500,-7.000
0.639,71.000,7.500,24.000,-6.500
0.640,71.000,7.500,24.000,-6.500
0.641,71.500,8.000,24.500,-6.000
0.642,71.500,8.500,25.000,-6.000
0.643,72.000,8.500,25.000,-5.500
0.644,72.000,9.000,25.000,-5.500
0.645,72.000,8.500,25.500,-5.000
0.646,72.000,8.500,25.500,-5.000
0.647,72.000,8.000,25.500,-5.000
0.648,71.500,7.500,25.000,-5.000
0.649,71.500,7.500,25.000,-5.500
0.650,71.000,7.000,24.500,-6.000
0.651,70.500,6.500,24.500,-6.000
0.652,70.000,6.000,24.500,-6.000
0.653,70.000,6.000,24.000,-6.500
0.654,70.000,6.000,24.000,-6.500
0.655,70.000,6.000,24.000,-6.000
0.656,70.500,6.000,24.000,-6.000
0.657,70.500,6.000,24.000,-6.000
0.658,71.000,6.000,24.500,-5.500
0.659,71.000,6.500,25.000,-5.000
0.660,71.000,6.500,25.000,-4.500
0.661,71.000,6.500,25.500,-4.500
0.662,71.000,6.500,25.500,-4.000
0.663,71.000,6.500,26.000,-3.500
0.664,71.000,6.500,26.000,-3.500
0.665,71.000,6.500,26.000,-3.000
0.666,71.500,6.500,26.000,-3.000
0.667,71.500,6.500,26.500,-2.500
0.668,71.500,6.500,26.500,-3.000
0.669,71.500,6.500,26.000,-3.000
0.670,71.000,6.000,26.000,-3.000
0.671,71.000,6.000,25.500,-3.500
0.672,70.500,5.500,25.500,-3.500
0.673,70.500,5.500,25.500,-3.500
0.674,70.500,5.500,25.500,-3.500
0.675,70.500,5.500,25.500,-3.500
0.676,70.500,5.500,25.500,-3.500
0.677,71.000,5.500,26.000,-3.000
0.678,71.000,6.000,26.500,-2.500
0.679,71.500,6.500,27.500,-2.000
0.680,71.500,7.000,28.000,-1.500
0.681,72.000,7.500,28.500,-1.000
0.682,72.000,8.000,29.000,-0.500
0.683,72.500,8.000,29.500,0.000
0.684,72.500,8.500,30.000,0.500
0.685,72.500,8.500,30.500,1.000
0.686,72.500,9.000,30.500,1.000
0.687,73.000,9.000,31.000,1.500
0.688,73.000,8.500,31.000,1.500
0.689,73.000,8.500,31.000,1.500
0.690,73.000,8.500,31.000,1.500
0.691,73.000,8.500,31.000,1.500
0.692,73.000,8.500,31.500,2.000
0.693,73.000,8.500,31.500,2.000
0.694,73.000,8.500,31.500,2.500
0.695,73.500,8.500,31.500,2.500
0.696,73.500,9.000,32.000,2.500
0.697,74.000,9.000,32.000,2.500
0.698,74.000,9.500,32.500,3.000
0.699,74.500,10.000,33.000,3.000
0.700,74.500,10.000,33.500,3.500
0.701,74.500,10.000,33.500,3.500
0.702,74.500,9.500,33.000,3.500
0.703,74.000,9.000,32.500,3.000
0.704,73.000,8.000,32.000,2.500
0.705,72.000,6.500,30.500,2.000
0.706,70.000,4.500,29.000,0.500
0.707,68.000,1.500,27.000,-1.000
0.708,65.500,-1.500,24.500,-3.000
0.709,63.000,-4.000,22.500,-4.500
0.710,61.000,-6.500,20.500,-6.000
0.711,60.000,-8.000,19.000,-7.000
0.712,59.000,-9.000,18.500,-7.500
0.713,59.000,-9.000,18.000,-7.500
0.714,60.000,-8.000,18.500,-7.000
0.715,61.000,-6.500,20.000,-6.500
0.716,63.000,-4.500,21.500,-5.000
0.717,65.500,-2.000,24.000,-3.500
0.718,68.500,1.500,27.000,-1.000
0.719,71.500,5.000,30.000,1.500
0.720,75.000,8.500,33.500,3.500
0.721,77.500,11.500,36.000,5.500
0.722,79.500,14.000,38.500,7.000
0.723,81.000,16.000,40.000,7.500
0.724,82.000,17.000,40.500,8.000
0.725,82.500,17.500,40.500,8.000
0.726,82.000,17.000,40.000,7.500
0.727,81.000,15.500,38.500,6.500
0.728,79.500,13.500,37.000,5.000
0.729,77.500,11.000,35.000,4.000
0.730,76.000,9.000,33.500,2.500
0.731,75.000,7.500,32.000,1.000
0.732,74.000,6.000,31.000,0.000
0.733,73.000,5.000,30.000,-1.000
0.734,72.500,4.000,29.500,-1.500
0.735,72.500,3.500,29.500,-2.000
0.736,72.500,3.500,29.500,-2.500
0.737,72.500,3.500,29.500,-2.500
0.738,73.000,3.500,30.000,-2.000
0.739,73.500,4.000,30.500,-2.000
0.740,73.500,4.000,30.500,-1.500
0.741,73.500,4.000,31.000,-1.000
0.742,73.500,4.500,31.500,-1.000
0.743,73.500,4.500,31.500,-1.000
0.744,73.500,5.000,31.500,-0.500
0.745,74.000,5.000,32.000,-0.500
0.746,74.000,5.000,32.000,-0.500
0.747,74.000,5.000,32.000,-0.500
0.748,74.000,5.000,31.500,-0.500
0.749,74.000,5.000,31.500,-1.000
0.750,74.500,5.000,31.500,-1.000
0.751,74.500,4.500,31.000,-1.500
0.752,74.500,4.500,30.500,-1.500
0.753,74.500,4.500,30.500,-2.000
0.754,74.500,4.500,30.500,-2.000
0.755,74.500,4.500,30.500,-2.000
0.756,74.500,5.000,30.500,-1.500
0.757,75.000,5.000,31.000,-1.000
0.758,75.000,5.500,31.000,-0.500
0.759,75.500,5.500,31.500,-0.500
0.760,76.000,6.000,31.500,0.000
0.761,76.500,7.000,32.000,0.500
0.762,77.000,7.500,32.500,1.000
0.763,77.000,7.500,33.000,1.500
0.764,77.500,8.000,33.500,2.000
0.765,77.500,8.000,34.000,2.000
0.766,77.000,8.000,34.000,2.500
0.767,77.000,8.000,34.000,2.500
0.768,77.000,8.000,34.000,2.000
0.769,77.000,8.000,34.000,2.000
0.770,77.000,7.500,34.000,2.000
0.771,77.500,7.500,34.000,1.500
0.772,77.500,7.500,34.000,1.500
0.773,77.500,7.500,34.000,2.000
0.774,77.500,7.500,34.500,2.000
0.775,77.500,8.000,34.500,2.000
0.776,77.500,8.000,35.000,2.000
0.777,78.000,8.500,35.000,2.500
0.778,78.000,9.000,35.500,2.500
0.779,78.500,9.500,36.000,3.000
0.780,79.000,10.000,36.500,3.500
0.781,79.500,10.500,37.500,4.500
0.782,80.500,11.000,38.000,5.000
0.783,81.000,11.500,38.500,5.500
0.784,81.500,12.000,39.000,6.000
0.785,81.500,12.500,39.000,6.500
0.786,81.500,12.500,39.000,6.500
0.787,81.500,12.000,39.000,6.500
0.788,81.000,12.000,39.000,6.000
0.789,81.000,12.000,38.500,6.000
0.790,80.500,11.500,38.500,6.000
0.791,81.000,11.500,38.500,6.500
0.792,81.000,12.000,38.500,6.500
0.793,81.000,12.000,38.500,6.500
0.794,81.500,12.000,38.500,7.000
0.795,81.500,12.500,38.500,7.500
0.796,82.000,12.500,38.500,7.500
0.797,82.000,12.500,39.000,8.000
0.798,82.000,13.000,39.000,8.500
0.799,82.500,13.500,39.500,9.000
0.800,82.500,14.500,40.000,9.500
0.801,83.000,15.000,41.000,10.500
0.802,83.500,15.500,41.500,11.000
0.803,83.500,16.000,42.000,11.000
0.804,83.500,16.500,42.500,11.500
0.805,84.000,16.500,42.500,11.500
0.806,84.000,16.500,43.000,11.500
0.807,84.000,17.000,43.000,11.500
0.808,84.000,17.000,43.000,11.500
0.809,83.500,17.000,42.500,11.500
0.810,83.500,17.000,42.500,11.000
0.811,83.500,16.500,42.000,11.000
0.812,83.500,16.500,42.000,11.000
0.813,84.000,16.500,41.500,10.500
0.814,84.000,16.500,41.500,10.500
0.815,84.000,16.500,41.500,10.500
0.816,84.000,16.500,41.500,10.500
0.817,84.000,17.000,41.500,11.000
0.818,84.000,17.000,42.000,11.000
0.819,84.000,17.000,42.000,11.500
0.820,84.500,17.500,42.500,11.500
0.821,84.500,18.000,42.500,12.000
0.822,84.500,18.500,43.000,12.500
0.823,84.500,18.500,43.000,12.500
0.824,84.500,19.000,43.500,13.000
0.825,84.500,19.000,43.500,13.000
0.826,84.500,19.000,43.500,13.000
0.827,84.500,19.000,44.000,13.000
0.828,84.500,19.000,43.500,13.000
0.829,85.000,19.000,43.500,13.000
0.830,85.000,19.000,43.500,13.000
0.831,85.000,19.000,43.000,12.500
0.832,85.000,19.000,43.000,12.500
0.833,85.500,19.000,42.500,12.500
0.834,85.500,19.000,42.500,12.500
0.835,86.000,19.500,42.500,12.500
0.836,86.500,19.500,43.000,12.500
0.837,86.500,20.000,43.000,13.000
0.838,87.000,20.500,43.000,13.000
0.839,87.000,20.500,43.000,13.500
0.840,87.500,20.500,43.500,13.500
0.841,87.500,21.000,43.500,14.000
0.842,88.000,21.000,43.500,14.000
0.843,88.500,21.500,43.500,14.500
0.844,88.500,21.500,43.500,14.500
0.845,88.500,21.500,44.000,15.000
0.846,88.500,21.500,44.000,15.000
0.847,88.500,21.500,44.000,15.000
0.848,88.000,21.000,43.500,15.000
0.849,88.000,21.000,43.500,14.500
0.850,87.500,20.500,43.000,14.500
0.851,87.000,20.500,43.000,14.500
0.852,87.000,20.000,42.500,14.000
0.853,87.000,20.000,42.500,14.000
0.854,87.000,20.000,42.000,14.000
0.855,87.000,20.000,42.000,14.000
0.856,87.000,20.000,42.000,14.000
0.857,87.500,20.000,42.000,14.500
0.858,87.500,20.000,42.500,14.500
0.859,88.000,20.000,43.000,15.000
0.860,88.500,20.500,43.000,15.500
0.861,88.500,20.500,43.500,16.000
0.862,89.000,21.000,44.000,16.000
0.863,89.000,21.000,44.500,16.500
0.864,89.000,21.500,45.000,17.000
0.865,89.500,22.000,45.000,17.000
0.866,89.500,22.000,45.500,17.000
0.867,89.500,22.000,45.500,17.000
0.868,89.500,21.500,45.500,16.500
0.869,89.000,21.500,45.000,16.000
0.870,89.000,21.000,45.000,16.000
0.871,89.000,20.500,44.500,15.500
0.872,88.500,20.500,44.500,15.500
0.873,88.500,20.000,44.000,15.500
0.874,88.500,20.000,44.000,15.000
0.875,88.500,20.000,44.000,15.000
0.876,88.500,20.000,44.000,15.000
0.877,88.500,20.000,44.000,15.000
0.878,88.500,20.500,44.500,15.000
0.879,89.000,20.500,44.500,15.500
0.880,89.000,21.000,45.000,15.500
0.881,89.500,21.500,45.000,16.000
0.882,89.500,22.000,45.500,16.000
0.883,90.000,22.500,46.000,16.500
0.884,90.500,23.000,46.500,17.000
0.885,90.500,23.000,47.000,17.500
0.886,90.500,23.000,47.000,17.500
0.887,90.500,23.000,47.000,17.500
0.888,90.500,22.500,47.000,17.500
0.889,90.500,22.000,47.000,17.000
0.890,90.000,22.000,46.500,17.000
0.891,90.000,21.500,46.500,16.500
0.892,90.000,21.000,46.000,16.500
0.893,90.000,21.000,46.000,16.500
0.894,90.000,20.500,45.500,16.000
0.895,90.000,20.500,45.500,16.000
0.896,90.500,20.500,45.000,16.000
0.897,90.500,20.500,45.000,16.000
0.898,90.500,21.000,45.500,16.000
0.899,90.500,21.000,45.500,16.000
0.900,91.000,21.000,45.500,16.500
0.901,91.000,21.500,46.000,17.000
0.902,91.000,21.500,46.000,17.500
0.903,91.500,21.500,46.500,17.500
0.904,91.500,21.500,46.500,18.000
0.905,91.500,21.500,46.500,17.500
0.906,91.000,21.500,46.500,17.500
0.907,91.000,21.500,46.000,17.000
0.908,91.000,21.500,46.000,17.000
0.909,91.000,22.000,45.500,17.000
0.910,91.000,22.000,45.000,17.000
0.911,91.000,22.000,45.000,17.000
0.912,91.000,22.000,44.500,17.000
0.913,91.500,22.500,44.500,17.000
0.914,91.500,22.500,44.500,17.000
0.915,91.500,22.500,44.500,17.000
0.916,92.000,22.500,44.500,17.000
0.917,92.000,22.500,45.000,17.000
0.918,92.000,23.000,45.000,17.000
0.919,92.000,23.000,45.000,17.500
0.920,92.000,23.000,45.500,17.500
0.921,92.000,23.500,45.500,18.000
0.922,92.500,23.500,45.500,18.000
0.923,92.500,23.500,46.000,18.500
0.924,92.500,23.500,46.000,18.500
0.925,92.500,23.500,46.000,18.500
0.926,92.500,23.500,46.000,18.000
0.927,92.500,23.000,45.500,18.000
0.928,92.500,22.500,45.500,18.000
0.929,92.000,22.500,45.000,17.500
0.930,92.000,22.500,45.000,17.000
0.931,91.500,22.000,44.500,17.000
0.932,91.000,22.000,44.000,16.500
0.933,91.000,21.500,43.500,16.500
0.934,91.000,21.500,43.500,16.000
0.935,90.500,21.000,43.000,16.000
0.936,91.000,21.000,43.000,16.000
0.937,91.000,21.500,43.000,16.000
0.938,91.000,21.500,43.000,16.500
0.939,91.500,21.500,43.500,16.500
0.940,91.500,22.000,44.000,17.000
0.941,92.000,22.500,44.500,17.500
0.942,92.000,23.000,45.000,18.000
0.943,92.000,23.000,45.500,18.500
0.944,92.500,23.000,46.000,18.500
0.945,92.000,23.000,46.000,18.500
0.946,92.000,23.000,46.000,18.500
0.947,92.000,22.500,46.500,18.500
0.948,91.500,22.000,46.000,18.500
0.949,91.000,22.000,46.000,18.500
0.950,91.000,21.500,45.500,18.500
0.951,90.500,21.000,45.500,18.500
0.952,90.500,21.000,45.500,18.000
0.953,90.000,20.500,45.000,18.000
0.954,90.000,20.500,45.000,18.000
0.955,90.000,20.500,44.500,17.500
0.956,90.000,20.000,44.500,17.500
0.957,90.000,20.000,44.000,17.500
0.958,90.000,20.000,43.500,17.000
0.959,90.000,20.000,43.500,17.500
0.960,90.500,20.500,44.000,18.000
0.961,90.500,20.500,44.500,18.500
0.962,91.000,20.500,44.500,19.000
0.963,91.000,20.500,45.000,19.500
0.964,91.000,20.500,45.000,19.500
0.965,90.500,20.500,45.000,19.500
0.966,90.500,20.500,45.000,19.500
0.967,90.000,20.000,44.500,19.000
0.968,89.500,19.500,44.500,18.500
0.969,89.000,19.000,44.000,18.000
0.970,88.500,18.000,43.500,17.500
0.971,88.000,17.500,43.000,16.500
0.972,87.500,17.000,42.500,16.000
0.973,87.500,16.500,42.000,15.500
0.974,87.000,16.500,41.500,15.500
0.975,87.000,16.000,41.000,15.000
0.976,87.000,15.500,41.000,14.500
0.977,87.000,15.500,41.000,14.500
0.978,87.000,15.500,41.000,14.500
0.979,87.000,16.000,41.000,15.000
0.980,87.000,16.000,41.000,15.500
0.981,87.500,16.000,41.000,15.500
0.982,87.500,16.000,41.000,15.500
0.983,87.500,16.000,41.500,15.500
0.984,87.500,16.000,41.500,16.000
0.985,87.500,15.500,41.500,16.000
0.986,87.000,15.500,41.500,16.000
0.987,87.000,15.500,42.000,15.500
0.988,87.000,15.500,42.000,15.500
0.989,86.500,15.000,42.000,15.000
0.990,86.500,15.000,41.500,15.000
0.991,86.500,15.000,41.500,14.500
0.992,86.500,14.500,41.500,14.500
0.993,86.500,14.500,41.500,14.500
0.994,87.000,14.500,41.000,14.500
0.995,87.000,14.500,41.000,14.500
0.996,87.000,14.500,41.500,14.500
0.997,87.500,15.000,41.500,15.000
0.998,88.000,15.000,42.000,15.000
0.999,88.500,15.500,42.500,15.500
1.000,88.500,16.000,42.500,15.500
1.001,89.000,16.000,43.000,15.500
1.002,89.000,16.500,43.500,15.500
1.003,89.000,16.500,43.500,16.000
1.004,89.000,16.500,44.000,16.000
1.005,88.500,16.000,44.000,16.000
1.006,88.500,16.000,43.500,16.000
1.007,88.000,16.000,43.500,16.000
1.008,88.000,15.500,43.500,16.000
1.009,88.000,15.500,43.000,15.500
1.010,87.500,15.000,42.500,15.500
1.011,87.500,14.500,42.500,15.000
1.012,87.000,14.500,42.500,14.500
1.013,86.500,14.000,42.000,14.000
1.014,86.500,14.000,42.000,14.000
1.015,86.000,14.000,42.000,14.000
1.016,86.000,14.000,42.000,13.500
1.017,86.000,14.000,42.000,14.000
1.018,86.500,14.000,42.000,14.000
1.019,86.500,14.000,42.500,14.000
1.020,87.000,14.500,42.500,14.500
1.021,87.000,14.500,43.000,14.500
1.022,87.000,15.000,43.000,14.500
1.023,87.000,15.000,43.500,15.000
1.024,87.000,15.000,43.500,15.000
1.025,86.500,15.000,43.000,15.000
1.026,86.500,15.000,43.000,15.000
1.027,86.500,14.500,43.000,15.000
1.028,86.500,14.500,42.500,15.000
1.029,86.500,14.000,42.500,14.500
1.030,86.500,13.500,42.500,14.500
1.031,86.000,13.000,42.000,14.500
1.032,85.500,12.500,41.500,14.000
1.033,85.000,12.000,41.000,14.000
1.034,84.500,11.500,40.500,13.500
1.035,84.500,11.000,40.000,13.000
1.036,84.000,10.500,39.500,13.000
1.037,84.000,10.000,39.500,13.500
1.038,84.000,10.000,39.500,13.500
1.039,84.000,10.000,40.000,14.000
1.040,84.000,10.000,40.000,14.000
1.041,84.000,10.000,40.500,14.000
1.042,84.000,10.000,40.500,14.000
1.043,84.000,10.000,41.000,14.000
1.044,84.000,10.000,41.000,14.000
1.045,84.000,10.000,40.500,14.000
1.046,84.000,10.000,40.500,14.000
1.047,84.000,9.500,40.000,13.500
1.048,83.500,9.000,39.500,13.000
1.049,83.000,8.500,39.000,12.500
1.050,82.500,8.500,38.500,12.000
1.051,82.000,8.000,38.000,12.000
1.052,82.000,7.500,37.500,11.500
1.053,81.500,7.000,37.500,11.000
1.054,81.000,6.500,37.000,11.000
1.055,81.000,6.500,37.000,11.000
1.056,81.500,6.000,37.000,11.500
1.057,81.500,6.500,37.000,11.500
1.058,82.000,7.000,37.500,12.000
1.059,82.000,7.000,37.500,12.500
1.060,82.500,7.000,38.000,12.500
1.061,82.000,7.000,38.000,12.500
1.062,82.000,7.000,37.500,12.500
1.063,81.500,6.500,37.000,12.000
1.064,80.500,5.500,36.500,11.500
1.065,79.000,4.000,35.000,10.500
1.066,77.500,2.500,33.500,9.500
1.067,75.500,-0.500,31.500,8.000
1.068,73.000,-3.500,29.000,6.000
1.069,70.000,-6.500,26.500,4.000
1.070,67.500,-9.000,24.000,2.500
1.071,65.500,-11.500,22.500,1.000
1.072,64.500,-12.500,21.500,0.000
1.073,64.000,-13.000,21.500,-0.500
1.074,64.500,-12.500,21.500,0.000
1.075,65.500,-11.500,23.000,0.500
1.076,67.000,-9.500,24.500,1.500
1.077,69.000,-7.500,26.500,3.000
1.078,71.500,-4.500,29.000,5.000
1.079,74.000,-1.000,32.000,7.000
1.080,77.500,2.500,35.000,9.500
1.081,80.500,6.000,38.000,12.000
1.082,83.500,9.000,41.000,14.000
1.083,85.500,11.500,43.000,15.500
1.084,87.500,13.500,45.000,17.000
1.085,88.000,14.500,46.000,17.500
1.086,88.000,14.500,46.000,17.500
1.087,87.500,13.500,45.000,16.500
1.088,86.000,12.000,43.500,15.500
1.089,84.500,10.000,42.000,14.000
1.090,83.000,8.000,40.000,13.000
1.091,81.500,6.500,38.500,12.000
1.092,80.000,4.500,37.000,11.000
1.093,79.500,3.500,36.000,10.000
1.094,78.500,2.500,35.500,9.500
1.095,78.500,2.000,35.000,8.500
1.096,78.500,2.000,34.500,8.000
1.097,78.500,2.000,35.000,8.000
1.098,79.000,2.500,35.000,8.000
1.099,79.500,3.000,35.500,8.500
1.100,79.500,3.500,36.000,9.000
1.101,79.500,4.000,36.500,9.000
1.102,79.500,4.000,37.000,9.500
1.103,79.500,4.500,37.000,10.000
1.104,79.500,5.000,37.500,10.000
1.105,80.000,5.000,38.000,10.500
1.106,80.000,5.000,38.000,10.500
1.107,79.500,5.000,38.000,10.500
1.108,79.500,5.000,37.500,10.000
1.109,79.500,5.000,37.500,10.000
1.110,79.500,4.500,37.500,10.000
1.111,79.500,4.500,37.500,10.000
1.112,79.500,4.500,37.000,10.000
1.113,79.500,4.500,37.000,10.500
1.114,79.500,4.500,36.500,10.500
1.115,79.000,4.500,36.500,10.500
1.116,79.000,4.500,36.500,10.500
1.117,79.000,4.500,36.500,10.500
1.118,79.000,4.500,36.500,11.000
1.119,79.500,4.500,37.000,11.000
1.120,79.500,5.000,37.500,11.500
1.121,80.000,5.500,37.500,11.500
1.122,80.000,6.000,38.000,12.000
1.123,80.500,6.000,38.000,12.000
1.124,80.500,6.500,38.500,12.500
1.125,80.500,6.500,38.500,12.500
1.126,80.500,6.500,38.500,12.500
1.127,80.000,6.000,38.500,12.500
1.128,80.000,6.000,38.000,12.000
1.129,79.500,6.000,37.500,11.500
1.130,79.500,5.500,37.000,10.500
1.131,79.000,5.500,36.500,10.000
1.132,79.000,5.000,36.000,9.500
1.133,79.000,5.000,36.000,9.000
1.134,79.500,5.500,35.500,9.000
1.135,79.500,5.500,36.000,9.000
1.136,80.000,5.500,36.000,8.500
1.137,80.000,5.500,36.000,9.000
1.138,80.500,5.500,36.500,9.000
1.139,80.500,6.000,36.500,9.500
1.140,81.000,6.500,37.000,10.000
1.141,81.000,7.000,37.500,10.500
1.142,81.500,7.500,38.000,10.500
1.143,81.500,8.000,38.000,11.000
1.144,81.500,8.000,38.500,11.000
1.145,81.500,8.500,38.500,11.000
1.146,81.000,8.500,39.000,10.500
1.147,81.000,8.500,39.000,10.500
1.148,80.500,8.500,39.000,10.000
1.149,80.500,8.000,39.000,10.000
1.150,80.500,8.000,38.500,9.500
1.151,80.000,8.000,38.500,9.500
1.152,80.000,8.000,38.500,9.000
1.153,80.500,8.000,38.500,8.500
1.154,80.500,7.500,38.500,8.500
1.155,81.000,7.500,38.500,8.500
1.156,81.000,8.000,38.500,8.500
1.157,81.500,8.000,38.500,8.500
1.158,81.500,8.500,39.000,9.000
1.159,82.000,9.000,39.500,9.500
1.160,82.000,9.000,40.000,10.000
1.161,82.500,9.500,40.500,10.000
1.162,82.500,10.000,40.500,10.500
1.163,82.500,10.000,41.000,10.500
1.164,82.500,10.000,41.000,10.500
1.165,82.500,10.500,41.500,11.000
1.166,82.500,10.500,41.500,11.000
1.167,82.500,10.500,41.500,11.000
1.168,82.500,10.500,41.500,11.000
1.169,82.500,10.500,41.500,11.000
1.170,82.000,10.500,41.000,11.000
1.171,82.000,10.000,41.000,11.000
1.172,82.000,10.000,40.500,11.000
1.173,81.500,10.000,40.500,11.000
1.174,82.000,10.000,40.500,11.000
1.175,82.000,10.000,40.500,11.000
1.176,82.500,10.000,41.000,11.000
1.177,82.500,10.000,41.500,11.500
1.178,83.000,10.500,42.000,12.000
1.179,83.500,11.000,42.000,12.500
1.180,83.500,11.000,42.500,13.000
1.181,84.000,11.500,43.000,13.000
1.182,84.000,12.000,43.000,13.500
1.183,84.000,12.500,43.500,13.500
1.184,84.000,13.000,43.500,14.000
1.185,84.000,13.000,43.500,14.000
1.186,84.000,12.500,43.500,14.000
1.187,83.500,12.500,43.000,14.000
1.188,83.500,12.000,43.000,13.500
1.189,83.500,12.000,42.500,13.500
1.190,83.000,11.500,42.000,13.000
1.191,83.000,11.500,41.500,13.000
1.192,83.000,11.000,41.500,12.500
1.193,83.000,11.000,41.000,12.500
1.194,83.000,10.500,41.000,12.500
1.195,82.500,10.500,41.000,12.500
1.196,82.500,10.500,41.000,12.500
1.197,82.500,10.500,41.000,12.500
1.198,82.500,11.000,41.500,13.000
1.199,82.500,11.000,41.500,13.000
1.200,83.000,11.000,42.000,13.500
1.201,83.500,11.000,42.500,13.500
1.202,83.500,11.000,42.500,14.000
1.203,83.500,11.000,42.500,14.000
1.204,83.500,11.000,42.500,14.000
1.205,83.500,11.000,42.500,14.000
1.206,83.000,11.000,42.000,13.500
1.207,82.500,10.500,41.500,13.000
1.208,81.500,9.500,40.500,12.000
1.209,81.000,8.500,39.500,11.000
1.210,80.000,7.000,38.000,10.000
1.211,78.500,6.000,37.000,8.500
1.212,77.500,4.500,35.000,7.000
1.213,76.000,3.000,33.500,5.500
1.214,75.000,1.500,32.000,4.000
1.215,73.500,0.000,30.000,2.500
1.216,72.500,-1.500,28.500,1.000
1.217,71.000,-3.000,27.500,-0.500
1.218,70.000,-4.000,26.500,-1.500
1.219,69.000,-5.000,25.500,-2.500
1.220,68.000,-6.000,24.500,-3.000
1.221,66.500,-7.000,24.000,-3.500
1.222,65.500,-8.000,23.000,-4.000
1.223,64.000,-9.000,22.500,-4.000
1.224,62.500,-10.000,22.000,-4.000
1.225,61.000,-11.000,22.000,-4.000
1.226,59.500,-11.500,21.500,-3.500
1.227,58.500,-12.500,21.500,-2.500
1.228,57.500,-12.500,22.000,-2.000
1.229,56.500,-12.500,22.000,-0.500
1.230,56.000,-12.500,23.000,1.000
1.231,56.000,-12.000,23.500,2.000
1.232,55.500,-12.000,24.500,3.500
1.233,55.500,-11.500,25.500,5.000
1.234,55.500,-11.000,26.500,6.500
1.235,55.500,-10.500,27.500,8.000
1.236,55.500,-9.500,28.500,9.500
1.237,56.000,-9.000,29.500,11.000
1.238,56.500,-8.500,30.500,12.500
1.239,57.000,-7.500,32.000,14.000
1.240,58.500,-6.000,33.500,15.500
1.241,60.000,-4.000,35.500,17.500
1.242,62.000,-1.500,38.000,19.500
1.243,65.000,1.500,40.500,22.000
1.244,68.500,5.000,44.000,24.500
1.245,72.000,9.000,47.500,27.000
1.246,75.500,12.500,50.500,29.000
1.247,79.000,16.000,53.000,31.000
1.248,82.000,18.500,56.000,32.500
1.249,86.000,21.500,58.000,33.500
1.250,89.500,25.000,61.000,35.000
1.251,94.000,28.000,63.500,36.500
1.252,97.500,31.500,66.500,37.500
1.253,101.000,34.500,68.500,38.500
1.254,103.000,36.500,69.500,39.000
1.255,104.500,37.500,70.000,39.000
1.256,104.500,38.000,70.000,38.500
1.257,104.500,37.500,69.500,38.000
1.258,104.000,37.000,69.000,37.000
1.259,103.000,35.500,67.500,35.500
1.260,101.500,34.000,66.000,34.000
1.261,99.500,32.500,64.500,32.500
1.262,97.500,30.500,62.000,30.500
1.263,95.000,28.000,60.000,28.500
1.264,92.500,25.500,57.500,26.500
1.265,90.500,23.500,55.000,24.500
1.266,88.000,21.000,53.000,22.500
1.267,86.500,19.000,51.000,21.000
1.268,84.500,17.500,49.000,19.500
1.269,83.500,15.500,47.500,18.000
1.270,82.000,14.500,46.000,17.000
1.271,81.000,13.000,45.000,16.000
1.272,80.500,12.000,44.000,15.500
1.273,79.500,11.000,43.000,15.000
1.274,79.000,10.500,42.500,14.500
1.275,78.500,10.000,42.000,14.000
1.276,78.500,10.000,42.000,14.000
1.277,78.500,10.500,42.000,14.000
1.278,79.000,11.000,42.500,14.000
1.279,79.500,11.000,42.500,14.500
1.280,79.500,11.500,43.000,14.500
1.281,79.500,12.000,43.000,15.000
1.282,80.000,12.500,43.500,15.000
1.283,80.000,12.500,43.500,15.500
1.284,79.500,12.500,43.500,15.500
1.285,79.500,12.500,43.500,15.500
1.286,79.500,12.500,43.500,15.500
1.287,79.500,12.500,43.500,15.000
1.288,79.500,12.000,43.500,15.000
1.289,79.500,12.000,43.000,14.500
1.290,79.500,12.000,42.500,14.500
1.291,79.500,11.500,42.500,14.000
1.292,79.500,11.500,42.000,14.000
1.293,80.000,11.500,42.000,14.000
1.294,80.000,11.500,42.000,13.500
1.295,80.000,12.000,42.000,13.500
1.296,80.500,12.000,42.000,13.500
1.297,80.500,12.000,42.000,13.500
1.298,80.500,12.500,42.500,13.500
1.299,81.000,12.500,42.500,13.500
1.300,81.500,13.000,43.000,14.000
1.301,81.500,13.500,43.500,14.500
1.302,81.500,13.500,44.000,15.000
1.303,82.000,14.000,44.000,15.000
1.304,82.000,14.000,44.000,15.000
1.305,82.000,14.500,44.500,15.500
1.306,82.000,14.500,44.500,15.500
1.307,81.500,14.500,44.500,15.500
1.308,81.500,14.000,44.500,15.500
1.309,81.000,14.000,44.500,15.500
1.310,81.000,13.500,44.000,15.500
1.311,80.500,13.500,43.500,15.500
1.312,80.500,13.500,43.500,15.500
1.313,80.500,13.500,43.500,15.500
1.314,81.000,13.500,43.500,15.500
1.315,81.000,13.500,43.500,16.000
1.316,81.000,14.000,44.000,16.000
1.317,81.500,14.500,44.000,16.000
1.318,81.500,14.500,44.000,16.500
1.319,82.000,15.000,44.500,16.500
1.320,82.000,15.000,44.500,17.000
1.321,82.500,15.500,45.000,17.500
1.322,82.500,15.500,45.500,17.500
1.323,82.500,16.000,45.500,18.000
1.324,82.500,16.000,45.500,18.000
1.325,82.500,16.000,45.500,17.500
1.326,82.000,15.500,45.500,17.500
1.327,81.500,15.000,45.500,17.000
1.328,81.000,15.000,45.000,16.500
1.329,80.500,14.500,44.500,16.000
1.330,80.000,14.000,44.000,15.500
1.331,80.000,13.500,43.500,15.000
1.332,79.500,13.000,43.000,14.500
1.333,79.500,13.000,43.000,14.000
1.334,79.500,13.000,42.500,14.000
1.335,79.000,13.000,42.500,14.000
1.336,79.000,13.000,42.500,14.000
1.337,79.000,13.000,42.500,14.000
1.338,79.000,13.000,43.000,14.000
1.339,79.000,13.000,43.000,14.000
1.340,79.000,13.000,43.000,14.000
1.341,79.000,13.500,43.500,14.500
1.342,79.000,13.500,43.500,15.000
1.343,79.500,13.500,43.500,15.000
1.344,79.500,14.000,44.000,15.500
1.345,79.500,14.000,44.000,15.500
1.346,79.500,14.000,44.500,15.500
1.347,79.500,14.000,44.500,15.500
1.348,79.500,14.000,44.500,15.000
1.349,79.000,14.000,44.500,15.000
1.350,79.000,13.500,44.000,14.500
1.351,78.500,13.500,44.000,14.000
1.352,78.500,13.000,43.500,14.000
1.353,78.500,13.000,43.500,13.500
1.354,78.500,13.000,43.000,13.500
1.355,78.500,13.000,43.000,13.000
1.356,78.500,13.000,43.000,13.000
1.357,78.500,13.500,43.000,13.000
1.358,78.500,13.500,43.000,13.000
1.359,79.000,14.000,43.000,13.000
1.360,79.000,14.000,43.500,13.000
1.361,79.000,14.000,43.500,13.000
1.362,79.000,14.000,44.000,13.500
1.363,79.000,14.500,44.000,13.500
1.364,79.000,14.500,44.500,14.000
1.365,79.500,15.000,44.500,14.000
1.366,79.500,15.500,45.000,14.500
1.367,79.500,15.500,45.000,14.500
1.368,79.500,15.500,45.000,14.000
1.369,79.500,15.000,44.500,13.500
1.370,79.000,15.000,44.500,13.000
1.371,79.000,14.500,44.000,12.500
1.372,78.500,14.500,43.500,12.000
1.373,78.000,14.000,43.500,11.500
1.374,78.000,14.000,43.000,11.000
1.375,77.500,13.500,42.500,11.000
1.376,77.500,13.500,42.500,10.500
1.377,78.000,13.500,42.500,11.000
1.378,78.000,13.500,42.500,11.000
1.379,78.000,14.000,42.500,11.500
1.380,78.500,14.500,43.000,11.500
1.381,78.500,14.500,43.000,12.000
1.382,78.500,15.000,43.000,12.000
1.383,78.500,15.000,43.500,12.000
1.384,78.500,14.500,43.500,12.000
1.385,78.500,14.500,43.500,11.500
1.386,78.500,14.500,43.500,11.500
1.387,78.000,14.000,43.500,11.500
1.388,77.500,14.000,43.000,11.500
1.389,77.500,14.000,43.000,11.500
1.390,77.000,13.500,43.000,11.500
1.391,77.000,13.500,43.000,11.500
1.392,76.500,13.500,42.500,11.500
1.393,76.500,13.000,42.500,11.500
1.394,76.500,13.000,42.500,11.500
1.395,76.000,12.500,42.000,11.000
1.396,76.000,12.500,42.000,11.000
1.397,75.500,12.500,42.000,11.000
1.398,75.500,12.500,42.000,11.000
1.399,76.000,12.500,42.000,11.000
1.400,75.500,12.500,41.500,11.500
1.401,75.500,13.000,42.000,11.500
1.402,75.500,13.000,42.000,12.000
1.403,75.500,13.000,42.000,12.000
1.404,75.500,12.500,42.000,12.000
1.405,75.500,12.500,42.000,12.500
1.406,75.000,13.000,42.000,12.000
1.407,75.000,13.000,42.000,12.000
1.408,74.500,12.500,41.500,12.000
1.409,74.500,12.500,41.500,12.000
1.410,74.000,12.000,41.000,11.500
1.411,74.000,11.500,41.000,11.500
1.412,73.500,11.500,41.000,11.500
1.413,73.500,11.000,41.000,11.500
1.414,74.000,11.500,40.500,11.000
1.415,74.000,11.500,40.500,11.000
1.416,74.000,12.000,40.500,11.500
1.417,74.500,12.000,41.000,11.500
1.418,74.500,12.500,41.000,12.000
1.419,74.500,13.000,41.500,12.000
1.420,75.000,13.000,41.500,12.500
1.421,75.000,13.000,42.000,12.500
1.422,74.500,13.000,42.000,12.500
1.423,74.000,12.500,42.000,12.500
1.424,73.500,11.500,42.000,12.000
1.425,72.500,10.500,41.000,11.500
1.426,71.000,9.000,40.000,10.500
1.427,69.000,7.000,38.500,9.500
1.428,66.500,5.000,36.500,8.000
1.429,64.000,2.500,34.000,6.000
1.430,61.500,0.000,32.000,4.500
1.431,59.500,-2.000,30.000,3.500
1.432,58.000,-4.000,29.000,3.000
1.433,57.500,-4.500,28.500,3.000
1.434,58.000,-4.500,28.500,3.000
1.435,58.500,-3.500,29.500,3.500
1.436,60.000,-2.000,31.000,4.500
1.437,62.000,0.000,33.000,6.000
1.438,64.000,3.000,36.000,8.000
1.439,66.500,6.000,39.000,10.500
1.440,69.500,9.500,42.500,13.000
1.441,73.000,13.500,46.000,16.000
1.442,76.000,17.000,49.000,18.500
1.443,78.500,20.000,51.500,20.500
1.444,80.500,22.500,53.500,22.000
1.445,82.000,24.000,54.500,23.000
1.446,82.500,25.000,55.000,23.000
1.447,82.000,24.500,54.500,23.000
1.448,81.000,23.500,53.500,22.000
1.449,79.500,22.000,52.000,21.000
1.450,78.000,20.000,50.500,19.500
1.451,76.500,18.000,48.500,18.500
1.452,75.000,16.500,47.500,17.500
1.453,74.000,15.000,46.500,17.000
1.454,73.500,14.500,46.000,16.500
1.455,73.500,14.000,45.500,16.500
1.456,73.500,14.000,46.000,16.500
1.457,73.500,14.500,46.000,17.000
1.458,73.500,14.500,46.500,17.000
1.459,74.000,15.000,47.000,17.500
1.460,74.500,15.500,47.500,18.000
1.461,75.000,16.000,48.000,18.500
1.462,75.000,16.500,48.500,19.000
1.463,75.500,17.000,49.000,19.500
1.464,75.500,17.500,49.500,20.000
1.465,76.000,18.000,50.000,20.000
1.466,76.000,18.000,50.000,20.000
1.467,75.500,18.000,50.000,20.500
1.468,75.500,18.000,50.000,20.500
1.469,75.000,18.000,50.000,20.000
1.470,74.500,18.000,49.500,20.000
1.471,74.000,17.500,49.500,20.000
1.472,74.000,17.500,49.000,20.000
1.473,74.000,17.500,49.000,20.000
1.474,74.000,17.500,48.500,20.000
1.475,74.000,17.000,48.500,20.000
1.476,74.000,17.000,48.500,20.000
1.477,74.500,17.000,48.500,20.000
1.478,74.500,17.000,48.500,19.500
1.479,75.000,17.000,48.500,19.500
1.480,75.000,17.000,48.500,19.500
1.481,74.500,17.000,48.000,19.000
1.482,74.500,16.500,48.000,18.500
1.483,74.000,16.500,48.000,18.500
1.484,74.000,16.500,48.000,18.500
1.485,73.500,16.500,48.000,18.000
1.486,73.500,16.500,48.000,18.000
1.487,73.000,16.500,48.000,17.500
1.488,73.000,16.000,47.500,17.500
1.489,72.500,15.500,47.000,17.000
1.490,72.000,15.000,46.500,16.500
1.491,72.000,14.500,46.000,16.000
1.492,71.500,14.000,45.500,15.500
1.493,71.000,14.000,45.000,15.000
1.494,71.000,13.500,44.500,14.500
1.495,70.500,13.500,44.000,14.000
1.496,70.500,13.000,44.000,14.000
1.497,70.000,13.500,43.500,13.500
1.498,70.000,13.500,43.500,13.500
1.499,70.500,14.000,43.500,13.500
1.500,70.500,14.000,44.000,13.500
1.501,70.500,14.000,44.000,13.500
1.502,70.500,14.500,44.000,13.500
1.503,70.500,14.500,44.000,13.500
1.504,71.000,14.500,44.000,13.500
1.505,71.000,14.000,43.500,13.500
1.506,71.000,14.000,43.000,13.000
1.507,70.500,13.500,42.500,13.000
1.508,70.500,13.500,42.500,12.500
1.509,70.000,13.500,42.000,12.000
1.510,69.500,13.000,41.500,11.500
1.511,69.000,12.500,41.000,11.000
1.512,69.000,12.500,41.000,10.500
1.513,69.000,12.500,40.500,10.000
1.514,68.500,12.500,40.500,9.500
1.515,68.500,12.500,40.500,9.000
1.516,69.000,13.000,40.500,9.000
1.517,69.500,13.000,40.500,9.000
1.518,69.500,13.500,41.000,8.500
1.519,70.000,14.000,41.000,9.000
1.520,70.500,14.000,41.500,9.000
1.521,71.000,14.500,42.000,9.000
1.522,71.000,14.500,42.000,9.000
1.523,71.000,15.000,42.500,9.000
1.524,71.000,15.000,43.000,9.000
1.525,71.000,15.000,43.000,9.500
1.526,71.000,15.500,43.500,9.500
1.527,71.000,15.500,43.500,9.500
1.528,71.000,15.500,43.000,9.500
1.529,71.000,15.000,43.000,9.500
1.530,70.500,15.000,42.500,9.000
1.531,70.500,14.500,42.000,8.500
1.532,70.500,14.500,42.000,8.000
1.533,70.500,14.500,42.000,8.000
1.534,70.500,14.500,41.500,7.500
1.535,70.500,14.500,41.500,7.000
1.536,70.500,14.500,42.000,7.000
1.537,71.000,14.500,42.000,6.500
1.538,71.000,14.500,42.500,6.500
1.539,71.500,15.000,43.000,7.000
1.540,72.500,15.500,43.500,7.500
1.541,73.000,16.000,44.000,7.500
1.542,73.500,16.500,44.500,8.000
1.543,74.000,17.000,44.500,8.000
1.544,74.000,17.000,44.500,8.000
1.545,74.000,17.000,44.500,8.500
1.546,74.000,17.000,44.000,8.500
1.547,73.500,17.000,44.000,8.500
1.548,73.500,17.000,43.500,8.000
1.549,73.000,16.500,43.000,8.000
1.550,73.000,16.500,43.000,8.000
1.551,73.000,16.500,42.500,7.500
1.552,72.500,16.000,42.000,7.000
1.553,72.500,16.000,41.500,7.000
1.554,72.000,15.500,41.500,6.500
1.555,72.000,15.500,41.000,6.500
1.556,72.000,15.500,41.000,6.500
1.557,71.500,15.500,41.000,6.500
1.558,72.000,15.500,41.500,6.500
1.559,72.000,15.500,41.500,6.500
1.560,72.000,16.000,41.000,6.500
1.561,72.000,16.000,41.500,6.500
1.562,72.000,16.500,41.500,6.500
1.563,72.500,16.500,42.000,6.500
1.564,72.500,17.000,42.000,7.000
1.565,72.500,17.500,42.500,7.000
1.566,72.500,17.500,42.500,7.000
1.567,72.500,17.500,42.500,7.000
1.568,72.000,17.500,42.500,7.000
1.569,72.000,17.000,42.500,7.000
1.570,72.000,17.000,42.000,7.000
1.571,72.000,17.000,42.000,7.000
1.572,72.000,17.000,42.000,7.000
1.573,72.000,17.000,42.000,7.000
1.574,72.000,17.000,42.500,7.000
1.575,72.500,17.000,42.500,7.500
1.576,72.500,17.500,42.500,7.500
1.577,73.000,17.500,42.500,7.500
1.578,73.000,17.500,42.500,7.500
1.579,73.000,18.000,42.500,7.500
1.580,73.500,18.500,43.000,7.500
1.581,73.500,18.500,43.000,8.000
1.582,73.000,19.000,43.500,8.500
1.583,73.000,19.000,44.000,8.500
1.584,73.000,19.000,44.000,8.500
1.585,73.000,19.000,44.000,8.500
1.586,72.500,19.000,44.000,8.500
1.587,72.500,19.000,43.500,8.000
1.588,72.000,18.500,43.000,7.500
1.589,72.000,18.000,43.000,7.500
1.590,72.000,17.500,42.500,7.000
1.591,71.500,17.000,42.000,6.500
1.592,71.500,17.000,41.500,6.000
1.593,71.500,16.500,41.500,6.000
1.594,71.500,16.500,41.000,6.000
1.595,71.500,16.500,41.000,5.500
1.596,71.500,17.000,41.000,5.500
1.597,72.000,17.000,41.000,5.500
1.598,72.000,17.000,41.000,5.500
1.599,72.000,17.000,41.500,5.500
1.600,72.000,17.000,41.500,5.500
1.601,71.500,17.000,41.500,5.500
1.602,71.500,17.500,42.000,5.500
1.603,72.000,17.500,42.000,5.500
1.604,72.000,18.000,42.000,5.500
1.605,72.000,18.000,42.000,5.500
1.606,72.000,18.000,42.000,5.500
1.607,72.000,18.000,42.000,5.000
1.608,72.000,18.000,41.500,5.000
1.609,72.000,17.500,41.500,4.500
1.610,71.500,17.500,41.000,4.000
1.611,71.500,17.000,41.000,4.000
1.612,71.500,17.000,40.500,3.500
1.613,71.000,16.500,40.000,3.000
1.614,71.000,16.500,39.500,3.000
1.615,71.500,16.000,39.500,2.500
1.616,71.500,16.000,39.500,2.500
1.617,71.500,16.000,39.500,2.500
1.618,72.000,16.000,39.500,2.500
1.619,72.000,16.500,39.500,2.500
1.620,72.500,16.500,40.000,2.500
1.621,73.000,17.000,40.000,2.500
1.622,73.000,17.000,40.500,3.000
1.623,73.000,17.500,40.500,3.000
1.624,73.500,17.500,40.500,3.000
1.625,73.500,17.500,40.500,3.000
1.626,73.500,17.500,40.500,3.000
1.627,73.000,17.500,40.000,2.500
1.628,73.000,17.000,40.000,2.000
1.629,72.500,17.000,40.000,1.500
1.630,72.500,16.500,39.500,1.000
1.631,72.000,16.500,39.500,0.500
1.632,72.000,16.000,39.500,0.000
1.633,72.000,16.000,39.000,-0.500
1.634,72.500,15.500,39.000,-0.500
1.635,72.500,15.500,38.500,-1.000
1.636,72.500,15.500,38.500,-1.000
1.637,73.000,15.500,38.500,-1.500
1.638,73.000,16.000,38.500,-1.500
1.639,73.500,16.500,39.000,-1.000
1.640,74.000,16.500,39.500,-0.500
1.641,74.500,17.000,40.000,0.000
1.642,74.500,17.500,40.500,0.500
1.643,74.500,17.500,40.500,0.500
1.644,74.500,18.000,40.500,1.000
1.645,74.500,18.000,40.500,1.000
1.646,74.500,18.000,41.000,0.500
1.647,74.500,18.000,41.000,0.500
1.648,74.500,18.000,41.000,0.500
1.649,74.500,18.000,41.000,0.000
1.650,74.500,17.500,41.000,-0.500
1.651,74.500,17.500,41.000,-1.000
1.652,74.500,17.500,40.500,-1.500
1.653,74.500,17.500,40.500,-2.000
1.654,74.500,17.000,40.000,-2.500
1.655,74.500,17.000,40.000,-3.000
1.656,75.000,17.000,40.000,-3.000
1.657,75.000,17.000,40.000,-3.500
1.658,75.500,17.000,40.500,-3.500
1.659,76.000,17.500,40.500,-3.500
1.660,76.000,17.500,41.000,-4.000
1.661,76.500,17.500,41.000,-4.000
1.662,76.500,17.500,41.500,-4.500
1.663,76.500,18.000,41.500,-5.000
1.664,76.500,18.000,42.000,-5.000
1.665,76.500,18.500,42.000,-5.500
1.666,76.000,18.500,42.000,-6.000
1.667,76.000,18.500,42.000,-6.500
1.668,75.500,18.000,42.000,-6.500
1.669,75.500,17.500,42.000,-7.000
1.670,75.000,17.500,41.500,-7.500
1.671,75.000,17.000,41.000,-8.000
1.672,74.500,16.500,40.500,-8.500
1.673,74.500,16.500,40.500,-9.000
1.674,74.500,16.000,40.000,-9.500
1.675,74.500,16.000,40.000,-10.000
1.676,74.500,16.000,40.500,-10.000
1.677,74.500,16.000,40.500,-10.000
1.678,75.000,16.000,40.500,-10.000
1.679,75.000,16.000,41.000,-10.000
1.680,75.000,16.500,41.000,-10.500
1.681,75.000,16.500,41.000,-10.500
1.682,74.500,16.500,41.500,-11.000
1.683,74.500,16.000,41.500,-11.000
1.684,74.500,16.000,41.500,-11.000
1.685,75.000,16.000,41.500,-11.000
1.686,75.000,15.500,41.000,-11.000
1.687,74.500,15.500,40.500,-11.500
1.688,74.500,15.000,40.500,-12.000
1.689,74.000,15.000,40.000,-12.500
1.690,73.500,14.500,40.000,-13.000
1.691,73.500,14.500,39.500,-13.500
1.692,73.000,14.000,39.500,-14.000
1.693,73.000,14.000,39.000,-14.500
1.694,73.000,14.000,39.000,-15.000
1.695,73.000,14.000,39.000,-15.500
1.696,73.000,14.000,39.000,-15.500
1.697,73.000,14.500,39.500,-15.500
1.698,73.500,15.000,39.500,-15.500
1.699,73.500,15.500,40.000,-15.500
1.700,74.000,16.000,40.500,-15.500
1.701,74.000,16.000,41.000,-15.500
1.702,74.000,16.500,41.000,-15.500
1.703,74.000,16.500,41.500,-15.500
1.704,74.000,16.500,41.500,-15.500
1.705,73.500,16.500,41.500,-15.500
1.706,73.000,16.000,41.000,-15.500
1.707,73.000,16.000,41.000,-15.500
1.708,72.500,15.500,40.500,-16.000
1.709,72.500,15.500,40.500,-16.500
1.710,72.500,15.500,40.000,-16.500
1.711,72.500,15.000,39.500,-17.000
1.712,72.500,15.000,39.500,-17.500
1.713,72.000,15.000,39.000,-18.000
1.714,72.000,15.000,39.000,-18.000
1.715,72.000,15.000,39.000,-18.500
1.716,72.000,15.000,39.000,-18.500
1.717,72.500,15.000,39.000,-18.500
1.718,72.500,15.000,39.000,-18.500
1.719,73.000,15.500,39.500,-18.500
1.720,73.500,16.000,40.000,-18.500
1.721,73.500,16.000,40.000,-18.500
1.722,74.000,16.500,40.500,-18.000
1.723,74.000,17.000,41.000,-18.000
1.724,74.000,17.500,41.000,-17.500
1.725,74.000,17.500,41.000,-17.500
1.726,74.000,17.500,41.000,-17.500
1.727,73.500,17.500,41.000,-18.000
1.728,73.500,17.500,40.500,-18.500
1.729,73.000,17.500,40.500,-19.000
1.730,72.500,17.500,40.000,-19.500
1.731,72.500,17.000,40.000,-20.000
1.732,72.500,17.000,39.500,-20.000
1.733,72.500,16.500,39.500,-20.500
1.734,72.500,16.500,39.500,-20.500
1.735,72.500,16.500,39.500,-20.500
1.736,72.500,16.500,39.500,-20.500
1.737,73.000,17.000,40.000,-20.500
1.738,73.500,18.000,40.500,-20.000
1.739,73.500,18.500,41.000,-20.000
1.740,74.000,19.500,41.500,-20.000
1.741,74.000,20.000,42.000,-20.000
1.742,74.500,20.000,42.500,-19.500
1.743,74.500,20.500,42.500,-19.000
1.744,74.500,20.500,43.000,-19.000
1.745,74.500,20.500,43.500,-18.500
1.746,74.500,20.500,44.000,-18.000
1.747,75.000,21.000,44.000,-17.500
1.748,75.000,21.000,44.000,-17.500
1.749,75.000,21.000,44.000,-17.500
1.750,75.000,21.000,44.000,-18.000
1.751,75.000,20.500,43.500,-18.000
1.752,75.500,20.500,43.500,-18.500
1.753,75.000,20.000,43.500,-19.000
1.754,75.000,20.000,43.500,-19.000
1.755,75.000,20.000,43.500,-19.500
1.756,75.000,20.000,43.500,-19.500
1.757,75.000,20.000,43.500,-19.500
1.758,75.000,20.500,43.500,-19.000
1.759,75.000,20.500,43.500,-19.000
1.760,75.000,21.000,44.000,-18.500
1.761,75.500,21.500,44.000,-18.500
1.762,75.500,21.500,44.500,-18.500
1.763,76.000,22.000,45.000,-18.500
1.764,76.000,22.000,45.500,-18.000
1.765,76.000,22.500,45.500,-18.000
1.766,76.000,22.500,46.000,-18.000
1.767,75.500,22.500,46.000,-18.000
1.768,75.500,22.000,45.500,-18.500
1.769,75.000,22.000,45.500,-19.000
1.770,75.000,21.500,45.000,-19.500
1.771,75.000,21.500,45.000,-20.000
1.772,74.500,21.500,44.500,-20.000
1.773,74.500,21.000,44.500,-20.500
1.774,74.500,21.000,44.000,-21.000
1.775,75.000,21.500,44.000,-21.000
1.776,75.000,21.500,44.000,-20.500
1.777,75.500,22.000,44.000,-20.500
1.778,75.500,22.500,44.500,-20.000
1.779,75.500,23.000,44.500,-20.000
1.780,75.500,23.000,45.000,-19.500
1.781,75.500,23.000,45.000,-19.000
1.782,75.500,23.000,45.000,-19.000
1.783,74.500,22.500,44.500,-19.500
1.784,73.500,21.500,44.000,-20.000
1.785,72.500,20.500,43.500,-20.500
1.786,71.000,18.500,42.000,-22.000
1.787,69.000,16.500,40.000,-23.500
1.788,67.000,14.000,37.500,-25.000
1.789,64.500,11.000,35.000,-27.500
1.790,62.000,8.000,32.500,-29.500
1.791,59.500,6.000,30.500,-31.000
1.792,58.000,4.000,28.500,-32.500
1.793,57.000,3.000,28.000,-33.500
1.794,56.500,2.500,28.000,-33.500
1.795,57.000,3.000,28.500,-33.000
1.796,58.500,4.000,29.500,-32.000
1.797,60.000,6.500,31.500,-30.500
1.798,62.500,9.000,34.000,-29.000
1.799,65.500,12.500,37.000,-26.500
1.800,68.500,16.000,40.500,-24.000
1.801,71.500,20.000,44.000,-21.500
1.802,74.500,23.500,47.000,-19.500
1.803,76.500,26.000,50.000,-17.500
1.804,78.500,28.000,51.500,-16.000
1.805,79.500,29.500,53.000,-15.500
1.806,80.000,30.000,53.000,-15.000
1.807,79.500,29.500,52.500,-15.500
1.808,78.500,28.000,51.500,-16.500
1.809,77.000,26.500,50.000,-18.000
1.810,75.000,24.500,48.000,-19.000
1.811,73.500,23.000,46.500,-20.500
1.812,72.000,21.500,45.000,-21.500
1.813,71.000,20.000,43.500,-22.500
1.814,70.000,19.500,42.500,-23.000
1.815,69.500,19.000,42.000,-23.500
1.816,69.500,18.500,42.000,-24.000
1.817,69.000,18.500,42.000,-24.000
1.818,69.500,18.500,42.000,-24.000
1.819,69.500,19.000,42.500,-24.000
1.820,69.500,19.500,43.000,-24.000
1.821,69.500,20.000,43.500,-23.500
1.822,69.500,20.000,43.500,-23.500
1.823,69.500,19.500,43.500,-23.500
1.824,69.500,19.500,43.500,-23.500
1.825,69.000,19.500,43.500,-23.500
1.826,69.000,19.500,43.500,-23.500
1.827,68.500,19.000,43.500,-24.000
1.828,68.500,19.000,43.500,-24.500
1.829,68.000,19.000,43.000,-24.500
1.830,68.000,19.000,43.000,-25.000
1.831,68.000,18.500,43.000,-25.500
1.832,68.000,18.500,42.500,-26.000
1.833,68.000,18.500,42.500,-26.500
1.834,68.000,18.000,42.000,-27.000
1.835,68.000,18.000,42.000,-27.000
1.836,68.000,18.000,42.000,-27.000
1.837,68.000,18.000,42.000,-27.000
1.838,68.000,18.000,42.000,-27.000
1.839,68.000,18.500,42.500,-26.500
1.840,68.000,18.500,42.500,-26.500
1.841,68.000,18.500,43.000,-26.500
1.842,68.500,19.000,43.500,-26.000
1.843,68.500,19.000,43.500,-26.000
1.844,68.500,19.000,44.000,-26.000
1.845,68.500,19.000,44.000,-26.000
1.846,68.500,18.500,43.500,-26.000
1.847,68.500,18.500,43.500,-26.500
1.848,68.000,18.500,43.000,-26.500
1.849,68.000,18.500,42.500,-27.000
1.850,68.000,18.000,42.000,-27.500
1.851,67.500,17.500,42.000,-27.500
1.852,67.500,17.000,41.500,-28.000
1.853,67.500,17.000,41.000,-28.500
1.854,67.500,16.500,41.000,-28.500
1.855,67.500,16.500,41.000,-29.000
1.856,67.500,16.000,41.000,-29.000
1.857,67.500,16.500,41.000,-28.500
1.858,67.500,16.500,41.500,-28.500
1.859,68.000,17.000,42.000,-28.000
1.860,68.500,17.500,42.500,-28.000
1.861,68.500,18.000,43.000,-27.500
1.862,68.500,18.000,43.000,-27.500
1.863,68.500,18.000,43.500,-27.000
1.864,69.000,18.000,43.500,-27.000
1.865,69.000,18.000,44.000,-26.500
1.866,69.500,18.000,44.000,-26.500
1.867,69.500,18.000,43.500,-26.500
1.868,69.500,18.000,43.500,-27.000
1.869,69.000,17.500,43.000,-27.000
1.870,69.000,17.000,42.500,-27.500
1.871,68.500,17.000,42.500,-27.500
1.872,68.500,17.000,42.500,-27.500
1.873,69.000,17.000,42.500,-27.500
1.874,69.500,17.000,43.000,-27.000
1.875,70.000,17.500,43.000,-27.000
1.876,70.000,17.500,43.500,-26.500
1.877,70.500,18.000,43.500,-26.500
1.878,71.000,18.500,44.000,-26.000
1.879,71.000,19.000,44.500,-25.500
1.880,71.500,19.500,45.000,-25.000
1.881,71.500,19.500,45.500,-24.500
1.882,71.500,20.000,46.000,-24.000
1.883,71.500,20.000,46.000,-23.500
1.884,71.500,20.000,46.000,-23.000
1.885,71.500,20.000,46.500,-23.000
1.886,71.500,20.000,46.500,-23.000
1.887,71.000,19.500,46.000,-23.000
1.888,71.000,19.500,46.000,-23.500
1.889,71.000,19.000,45.500,-23.500
1.890,71.000,19.000,45.500,-24.000
1.891,71.000,18.500,45.500,-24.500
1.892,71.000,18.500,45.000,-24.500
1.893,71.000,18.500,45.000,-24.500
1.894,71.500,18.500,45.000,-24.500
1.895,71.500,18.500,45.500,-24.000
1.896,72.000,18.500,45.500,-24.000
1.897,72.000,19.000,45.500,-23.500
1.898,72.000,19.000,46.000,-23.000
1.899,72.500,19.000,46.000,-23.000
1.900,72.500,19.000,46.000,-22.500
1.901,72.500,19.000,46.500,-22.500
1.902,72.500,19.000,46.000,-22.500
1.903,72.000,19.000,46.000,-22.000
1.904,72.000,19.000,46.000,-22.000
1.905,71.500,18.500,46.000,-22.500
1.906,71.000,18.500,45.500,-22.500
1.907,71.000,18.500,45.000,-23.000
1.908,70.500,18.500,44.500,-23.500
1.909,70.500,18.000,44.500,-24.000
1.910,70.000,18.000,44.000,-24.500
1.911,70.000,17.500,43.500,-25.000
1.912,70.000,17.500,43.500,-25.500
1.913,70.000,17.000,43.000,-26.000
1.914,69.500,16.500,42.500,-26.500
1.915,69.500,16.500,42.500,-26.500
1.916,69.500,16.500,42.500,-26.500
1.917,69.500,16.500,42.500,-26.500
1.918,70.000,16.500,42.500,-26.500
1.919,70.000,17.000,43.000,-26.500
1.920,70.500,17.500,43.000,-26.000
1.921,70.500,18.000,43.500,-26.000
1.922,71.000,18.500,43.500,-26.000
1.923,71.000,18.500,44.000,-25.500
1.924,71.500,19.000,44.500,-25.500
1.925,71.500,19.000,44.500,-25.000
1.926,71.500,19.000,44.500,-25.000
1.927,71.500,19.000,44.500,-25.000
1.928,71.000,19.000,44.500,-25.000
1.929,71.000,19.000,44.500,-25.000
1.930,71.500,19.000,44.000,-25.000
1.931,71.500,19.500,44.000,-25.000
1.932,71.500,19.500,44.500,-25.000
1.933,71.500,19.500,44.500,-25.500
1.934,71.500,19.500,44.500,-25.500
1.935,71.500,19.500,45.000,-25.000
1.936,71.500,19.500,45.000,-25.000
1.937,71.500,19.500,45.500,-24.500
1.938,72.000,20.000,46.000,-24.500
1.939,72.500,20.000,46.500,-24.000
1.940,72.500,20.500,47.000,-23.500
1.941,73.000,20.500,47.500,-23.000
1.942,73.000,21.000,47.500,-23.000
1.943,73.500,21.000,48.000,-22.500
1.944,73.500,21.500,48.000,-22.500
1.945,73.500,21.500,48.000,-22.000
1.946,73.500,21.500,48.000,-22.000
1.947,74.000,21.500,48.000,-22.000
1.948,73.500,21.500,48.000,-22.500
1.949,73.500,21.000,48.000,-22.500
1.950,73.500,21.000,47.500,-23.000
1.951,73.500,20.500,47.500,-23.500
1.952,73.500,20.500,47.000,-24.000
1.953,73.500,20.000,46.500,-24.500
1.954,73.000,20.000,46.500,-25.000
1.955,73.000,20.000,46.000,-25.000
1.956,73.000,20.000,46.000,-25.000
1.957,73.000,20.000,46.000,-25.000
1.958,73.000,20.000,46.500,-25.000
1.959,73.500,20.000,46.500,-24.500
1.960,73.500,20.500,47.000,-24.500
1.961,74.000,21.000,47.500,-24.000
1.962,74.500,21.000,47.500,-24.000
1.963,74.500,21.500,47.500,-24.000
1.964,74.500,21.500,47.500,-24.500
1.965,75.000,21.500,47.500,-24.500
1.966,75.000,21.500,47.500,-24.500
1.967,75.000,21.500,47.500,-24.500
1.968,74.500,21.500,47.500,-24.500
1.969,74.500,21.000,47.500,-25.000
1.970,74.000,21.000,47.000,-25.000
1.971,74.000,20.500,46.500,-25.500
1.972,74.000,20.500,46.500,-26.000
1.973,74.000,20.500,46.500,-26.500
1.974,74.000,21.000,46.000,-26.500
1.975,74.500,21.000,46.000,-27.000
1.976,74.500,21.000,46.500,-27.000
1.977,74.500,21.000,46.500,-27.000
1.978,74.500,21.500,46.500,-27.000
1.979,75.000,21.500,46.500,-27.000
1.980,75.500,22.000,47.000,-26.500
1.981,75.500,22.000,47.000,-26.500
1.982,75.500,22.500,47.000,-26.500
1.983,75.500,22.500,47.000,-26.500
1.984,75.500,22.500,47.000,-27.000
1.985,75.000,22.500,47.000,-27.000
1.986,74.500,22.000,46.500,-27.500
1.987,74.000,21.500,45.500,-28.500
1.988,73.000,20.000,44.500,-29.500
1.989,72.000,19.000,43.500,-31.000
1.990,70.500,17.500,42.000,-32.000
1.991,69.000,16.000,40.500,-34.000
1.992,68.000,14.000,38.500,-35.500
1.993,66.500,12.500,37.000,-37.000
1.994,65.000,11.000,35.500,-38.500
1.995,64.000,9.500,34.000,-40.000
1.996,63.000,8.000,32.500,-41.000
1.997,62.000,7.000,31.500,-41.500
1.998,61.000,6.500,30.500,-42.500
1.999,60.000,5.500,29.500,-43.000
2.000,59.000,5.000,29.000,-43.000
2.001,58.000,4.000,28.500,-43.000
2.002,57.000,3.500,28.000,-43.500
2.003,56.000,3.000,28.000,-43.000
2.004,55.000,3.000,28.000,-43.000
2.005,54.500,3.000,28.000,-42.000
2.006,54.500,3.000,28.500,-41.000
2.007,54.000,3.000,29.000,-40.000
2.008,54.000,3.000,29.500,-38.500
2.009,53.500,3.000,30.000,-37.000
2.010,53.000,3.500,31.000,-35.500
2.011,53.000,3.500,31.500,-34.000
2.012,52.000,3.500,32.500,-33.000
2.013,51.500,3.000,33.000,-32.000
2.014,51.000,3.000,33.000,-31.000
2.015,50.500,3.000,33.500,-30.500
2.016,50.500,3.000,33.500,-30.000
2.017,50.500,3.000,33.500,-29.500
2.018,50.500,3.000,34.000,-29.000
2.019,51.000,4.000,35.000,-28.500
2.020,52.000,5.000,36.000,-27.500
2.021,53.500,6.500,37.500,-26.500
2.022,55.500,8.500,39.000,-25.500
2.023,57.500,10.500,41.000,-24.500
2.024,60.000,13.000,43.000,-23.000
2.025,62.500,15.500,44.500,-22.500
2.026,65.000,17.500,46.000,-21.500
2.027,68.000,19.500,48.000,-21.000
2.028,71.000,22.000,50.000,-20.500
2.029,74.000,24.500,52.000,-19.000
2.030,77.000,27.000,54.000,-18.000
2.031,80.000,29.500,56.000,-17.000
2.032,82.500,31.500,57.500,-16.000
2.033,84.000,33.000,58.500,-15.000
2.034,85.500,34.000,59.500,-14.500
2.035,86.500,35.500,60.500,-14.000
2.036,87.500,36.000,60.500,-14.000
2.037,88.000,36.500,61.000,-13.500
2.038,88.000,36.000,60.500,-14.000
2.039,87.500,35.500,60.500,-14.500
2.040,87.000,35.000,59.500,-15.000
2.041,85.500,33.500,58.500,-16.000
2.042,84.000,32.000,57.000,-17.000
2.043,82.500,30.500,55.500,-18.500
2.044,80.500,29.000,54.000,-20.000
2.045,79.000,27.000,52.000,-21.000
2.046,77.500,25.500,50.500,-22.500
2.047,76.500,24.000,49.000,-24.000
2.048,75.000,23.000,48.000,-25.000
2.049,74.000,21.500,46.500,-26.000
2.050,73.000,20.500,45.500,-27.000
2.051,72.000,19.000,44.000,-28.000
2.052,71.000,18.000,43.000,-29.000
2.053,70.500,17.500,42.000,-30.000
2.054,70.000,17.000,41.500,-30.500
2.055,69.500,16.500,41.000,-31.000
2.056,69.500,16.000,40.500,-31.500
2.057,69.000,16.000,40.500,-31.500
2.058,69.000,16.000,40.500,-31.500
2.059,69.500,16.000,40.500,-31.500
2.060,69.500,16.000,40.500,-31.500
2.061,69.500,16.000,40.500,-31.500
2.062,69.500,16.500,41.000,-31.500
2.063,69.500,16.500,41.000,-31.500
2.064,69.500,17.000,41.000,-31.500
2.065,69.500,17.000,41.000,-31.500
2.066,69.000,17.500,41.000,-31.500
2.067,69.000,17.500,41.000,-31.500
2.068,69.000,17.500,40.500,-31.500
2.069,69.000,17.000,40.500,-32.000
2.070,69.000,16.500,40.500,-32.000
2.071,68.500,16.500,40.500,-32.000
2.072,69.000,16.000,40.500,-32.500
2.073,69.000,16.000,40.500,-33.000
2.074,68.500,16.000,40.000,-33.500
2.075,68.500,15.500,40.000,-34.000
2.076,68.500,15.500,39.500,-34.500
2.077,68.500,15.000,39.500,-35.000
2.078,68.500,15.500,39.000,-35.000
2.079,69.000,15.500,39.500,-34.500
2.080,69.000,15.500,39.500,-34.500
2.081,69.000,16.000,39.500,-34.000
2.082,69.000,16.000,39.500,-34.000
2.083,69.000,16.000,39.500,-34.000
2.084,69.000,16.000,39.500,-34.500
2.085,68.500,16.000,39.500,-34.500
2.086,68.500,16.000,39.500,-35.000
2.087,68.500,16.000,39.500,-35.000
2.088,68.000,15.500,39.000,-35.500
2.089,67.500,15.500,39.000,-36.000
2.090,67.500,15.000,38.500,-36.000
2.091,67.000,14.500,38.000,-36.500
2.092,66.500,13.500,37.500,-37.000
2.093,66.000,13.000,37.000,-37.500
2.094,66.000,12.500,36.500,-38.000
2.095,65.500,12.000,36.500,-38.500
2.096,65.500,12.000,36.000,-39.000
2.097,65.000,12.000,36.000,-39.000
2.098,65.000,12.000,36.000,-39.000
2.099,65.000,12.000,36.500,-38.500
2.100,65.000,12.500,37.000,-38.000
2.101,65.500,12.500,37.500,-37.500
2.102,65.500,13.000,38.000,-37.500
2.103,65.000,13.000,38.000,-37.000
2.104,65.000,13.000,38.000,-37.000
2.105,64.500,12.500,38.000,-37.500
2.106,64.500,12.500,37.500,-38.000
2.107,63.500,11.500,37.000,-38.500
2.108,63.500,11.000,36.500,-38.500
2.109,63.000,10.500,36.000,-39.000
2.110,62.500,10.000,36.000,-39.500
2.111,62.000,9.500,35.500,-40.000
2.112,62.000,9.000,35.000,-40.000
2.113,62.000,9.000,34.500,-40.500
2.114,61.500,8.500,34.500,-40.500
2.115,61.500,8.500,34.500,-40.500
2.116,61.500,9.000,34.500,-40.500
2.117,61.500,9.000,35.000,-40.500
2.118,61.500,9.000,35.000,-40.500
2.119,62.000,9.500,35.500,-40.500
2.120,62.000,9.500,35.500,-40.500
2.121,62.000,9.500,36.000,-40.500
2.122,62.000,9.500,36.000,-40.500
2.123,62.000,9.500,36.000,-40.500
2.124,61.500,9.500,36.000,-40.500
2.125,61.500,9.500,36.000,-40.500
2.126,61.000,9.500,36.000,-41.000
2.127,60.500,9.500,35.500,-41.000
2.128,60.000,9.000,35.000,-41.500
2.129,59.000,8.500,34.500,-42.000
2.130,58.500,8.000,34.000,-42.500
2.131,58.000,7.500,33.500,-43.000
2.132,58.000,7.500,33.000,-43.500
2.133,58.000,7.500,32.500,-44.000
2.134,58.000,7.500,32.500,-44.000
2.135,58.000,7.500,33.000,-44.500
2.136,58.500,8.000,33.000,-44.500
2.137,58.500,8.500,33.500,-44.000
2.138,59.000,8.500,33.500,-44.000
2.139,59.500,9.000,34.000,-44.000
2.140,59.500,9.500,34.000,-44.000
2.141,59.000,10.000,34.000,-43.500
2.142,59.000,9.500,34.000,-44.000
2.143,58.000,9.000,33.000,-44.000
2.144,57.000,8.000,32.500,-44.500
2.145,55.500,6.500,31.000,-45.000
2.146,54.000,4.500,29.500,-46.000
2.147,52.000,2.500,27.500,-47.500
2.148,49.500,-0.500,25.000,-49.500
2.149,47.000,-3.500,22.500,-51.500
2.150,44.500,-6.000,20.000,-53.500
2.151,42.500,-8.500,18.000,-55.500
2.152,41.000,-9.500,17.000,-56.500
2.153,40.500,-10.000,16.000,-56.500
2.154,41.000,-10.000,16.500,-56.500
2.155,41.500,-9.000,17.000,-56.000
2.156,43.000,-7.000,18.500,-54.500
2.157,45.000,-4.500,21.000,-53.000
2.158,48.000,-1.500,23.500,-51.000
2.159,51.000,2.000,26.500,-48.500
2.160,54.000,6.000,30.000,-45.500
2.161,57.500,9.500,33.500,-43.000
2.162,60.500,13.000,36.000,-40.500
2.163,62.500,15.000,38.500,-39.000
2.164,64.000,17.000,40.000,-37.500
2.165,65.000,18.000,41.000,-37.000
2.166,65.000,18.000,41.000,-36.500
2.167,64.500,17.000,40.000,-37.000
2.168,63.000,15.500,39.000,-38.000
2.169,61.500,13.500,37.500,-39.000
2.170,60.000,11.500,35.500,-40.500
2.171,58.500,10.000,34.500,-41.500
2.172,57.500,9.000,33.000,-42.500
2.173,56.500,7.500,32.000,-43.000
2.174,56.000,7.000,31.500,-43.500
2.175,56.000,6.500,31.000,-44.000
2.176,56.000,6.500,31.000,-44.000
2.177,56.000,6.500,31.000,-44.000
2.178,56.000,7.000,31.000,-43.500
2.179,56.500,7.000,31.500,-43.500
2.180,57.000,7.500,32.000,-43.000
2.181,57.000,8.000,32.500,-43.000
2.182,57.500,8.000,32.500,-43.000
2.183,57.500,8.500,33.000,-42.500
2.184,57.500,8.500,33.000,-42.500
2.185,57.500,8.500,33.000,-42.500
2.186,57.000,8.500,33.000,-42.500
2.187,57.000,8.500,33.000,-42.500
2.188,56.500,8.000,32.500,-42.500
2.189,56.500,7.500,32.000,-42.500
2.190,56.000,7.500,31.500,-43.000
2.191,55.500,7.000,31.500,-43.000
2.192,55.000,6.500,31.000,-43.500
2.193,55.000,6.000,31.000,-43.500
2.194,54.500,6.000,30.500,-43.500
2.195,54.500,6.000,30.500,-43.500
2.196,55.000,6.500,30.500,-43.500
2.197,55.000,6.500,30.500,-43.500
2.198,55.000,6.500,30.500,-43.500
2.199,55.000,7.000,31.000,-43.000
2.200,55.000,7.000,31.000,-43.000
2.201,55.000,7.000,31.500,-42.500
2.202,55.000,7.000,31.500,-42.500
2.203,55.000,7.000,31.500,-42.000
2.204,55.000,7.500,31.500,-41.500
2.205,55.000,7.500,32.000,-41.000
2.206,55.000,7.500,32.000,-40.500
2.207,55.000,8.000,32.500,-40.500
2.208,55.000,8.000,32.500,-40.000
2.209,55.000,8.000,32.500,-40.000
2.210,54.500,8.000,32.500,-40.500
2.211,54.500,7.500,32.000,-41.000
2.212,54.000,7.500,31.500,-41.000
2.213,54.000,7.000,31.000,-41.000
2.214,54.000,7.000,30.500,-41.500
2.215,53.500,6.500,30.000,-42.000
2.216,53.000,6.000,29.500,-42.500
2.217,53.000,5.500,29.000,-43.000
2.218,52.500,5.000,28.000,-43.500
2.219,52.000,4.500,27.500,-44.000
2.220,51.000,4.000,27.000,-44.000
2.221,50.500,3.500,26.500,-44.500
2.222,50.000,2.500,26.000,-44.500
2.223,49.000,2.000,25.500,-45.000
2.224,48.000,1.500,25.000,-45.000
2.225,47.500,1.000,24.500,-45.000
2.226,47.000,0.000,24.000,-45.500
2.227,46.500,-0.500,24.000,-45.500
2.228,46.500,-0.500,23.500,-45.500
2.229,46.500,-0.500,23.500,-45.000
2.230,46.500,0.000,24.000,-45.000
2.231,47.500,1.000,24.500,-44.500
2.232,48.000,2.000,25.500,-44.000
2.233,49.000,2.500,26.000,-43.500
2.234,50.000,3.500,27.000,-43.000
2.235,51.000,5.000,28.000,-42.000
2.236,52.000,6.000,29.000,-41.000
2.237,53.000,7.000,30.000,-40.000
2.238,53.500,8.000,31.000,-39.000
2.239,54.500,9.000,31.500,-38.000
2.240,55.000,10.000,32.500,-37.500
2.241,55.500,10.500,33.000,-37.000
2.242,56.000,11.000,33.500,-36.500
2.243,56.500,11.500,34.000,-36.000
2.244,56.500,11.500,34.000,-36.000
2.245,56.500,11.500,34.000,-35.500
2.246,56.000,11.000,34.000,-35.500
2.247,55.500,11.000,33.500,-35.500
2.248,55.500,10.500,33.000,-36.000
2.249,55.000,10.000,32.500,-36.000
2.250,55.000,9.500,32.000,-36.500
2.251,54.500,9.000,32.000,-36.500
2.252,54.000,8.500,31.500,-37.000
2.253,53.500,8.000,31.000,-37.500
2.254,53.500,8.000,30.500,-38.000
2.255,53.000,8.000,30.500,-38.000
2.256,52.500,7.500,30.000,-38.500
2.257,52.500,7.500,30.000,-38.500
2.258,52.500,8.000,30.500,-38.000
2.259,52.500,8.000,30.500,-38.000
2.260,52.500,8.000,30.500,-37.500
2.261,52.000,8.000,30.500,-37.500
2.262,51.500,7.500,30.500,-37.500
2.263,51.000,7.500,30.500,-37.500
2.264,50.500,7.500,30.000,-37.500
2.265,50.000,7.000,30.000,-38.000
2.266,49.500,7.000,29.500,-38.500
2.267,49.000,6.500,29.000,-38.500
2.268,48.500,6.000,28.500,-39.000
2.269,48.000,6.000,28.500,-39.500
2.270,47.500,5.500,28.000,-39.500
2.271,47.500,5.500,27.500,-40.000
2.272,47.500,5.500,27.500,-40.000
2.273,47.500,5.000,27.000,-40.500
2.274,47.500,5.000,27.000,-40.500
2.275,47.500,5.000,27.000,-41.000
2.276,47.000,4.500,27.000,-41.500
2.277,47.000,4.500,27.000,-42.000
2.278,47.000,4.500,27.500,-42.000
2.279,47.500,4.500,28.000,-42.000
2.280,47.500,5.000,28.000,-42.000
2.281,47.500,5.000,28.000,-42.000
2.282,47.500,5.000,27.500,-42.500
2.283,47.000,4.500,27.000,-42.500
2.284,46.500,4.000,26.500,-43.000
2.285,46.000,3.500,26.500,-43.500
2.286,45.500,2.500,26.000,-44.000
2.287,45.000,2.000,26.000,-44.500
2.288,44.500,1.000,25.500,-45.000
2.289,44.000,0.500,25.000,-45.500
2.290,43.500,-0.500,24.500,-46.000
2.291,43.500,-0.500,24.000,-46.500
2.292,43.500,-1.000,23.500,-47.000
2.293,43.000,-1.500,23.000,-47.500
2.294,43.000,-1.500,22.500,-47.500
2.295,43.000,-1.500,22.000,-48.000
2.296,43.000,-1.500,22.000,-48.000
2.297,43.000,-1.500,22.000,-48.000
2.298,43.000,-1.500,21.500,-48.500
2.299,43.000,-1.000,21.500,-48.500
2.300,43.000,-1.000,21.500,-48.500
2.301,43.000,-1.000,21.500,-48.500
2.302,43.000,-1.000,21.500,-48.500
2.303,43.000,-1.000,21.500,-49.000
2.304,43.000,-1.000,21.500,-49.000
2.305,43.000,-1.000,22.000,-49.000
2.306,43.000,-1.000,22.000,-49.000
2.307,43.000,-1.000,21.500,-49.000
2.308,43.000,-1.500,21.500,-49.000
2.309,43.000,-2.000,21.000,-49.000
2.310,43.000,-2.000,20.500,-49.500
2.311,43.000,-2.500,20.500,-49.500
2.312,43.000,-3.000,20.500,-49.500
2.313,43.000,-3.000,20.000,-49.500
2.314,43.000,-3.000,20.000,-49.500
2.315,43.000,-2.500,20.000,-49.500
2.316,43.000,-2.500,20.000,-50.000
2.317,43.500,-2.500,20.000,-49.500
2.318,43.500,-2.000,20.500,-49.500
2.319,44.000,-2.000,20.500,-49.500
2.320,44.000,-1.500,20.500,-49.500
2.321,44.500,-1.500,20.500,-49.500
2.322,44.500,-1.500,20.500,-49.500
2.323,44.500,-1.000,20.500,-49.500
2.324,44.500,-1.000,20.000,-49.500
2.325,44.500,-1.000,20.000,-49.500
2.326,44.500,-1.000,19.500,-50.000
2.327,44.500,-1.000,19.500,-50.000
2.328,44.500,-1.500,19.500,-50.000
2.329,44.500,-1.500,19.000,-50.500
2.330,44.500,-1.500,19.000,-50.500
2.331,44.500,-1.500,18.500,-51.000
2.332,44.500,-2.000,18.500,-51.000
2.333,44.500,-2.000,18.000,-51.000
2.334,44.500,-2.500,18.000,-51.500
2.335,44.500,-2.500,18.000,-51.500
2.336,44.500,-2.500,18.000,-51.500
2.337,44.500,-2.000,18.000,-51.500
2.338,45.000,-1.500,18.000,-51.000
2.339,45.500,-1.000,18.500,-51.000
2.340,46.000,-0.500,19.000,-50.500
2.341,46.500,0.000,19.000,-50.500
2.342,46.500,0.500,19.500,-50.000
2.343,47.000,0.500,19.500,-50.000
2.344,47.000,1.000,19.500,-50.000
2.345,46.500,1.000,20.000,-50.000
2.346,46.500,1.000,20.000,-50.000
2.347,46.500,1.000,19.500,-50.000
2.348,46.000,0.500,19.500,-50.000
2.349,45.500,0.000,19.000,-50.000
2.350,45.500,-0.500,18.500,-50.500
2.351,45.000,-1.000,18.000,-50.500
2.352,45.000,-1.000,17.500,-51.000
2.353,44.500,-1.500,17.500,-51.500
2.354,44.500,-1.500,17.000,-51.500
2.355,44.500,-1.500,17.000,-51.500
2.356,44.000,-2.000,16.500,-51.500
2.357,44.000,-2.000,16.500,-51.500
2.358,44.000,-2.000,16.500,-51.500
2.359,44.000,-1.500,16.500,-51.500
2.360,44.000,-1.500,17.000,-51.000
2.361,44.000,-1.000,17.500,-51.000
2.362,44.500,0.000,17.500,-50.500
2.363,44.500,0.500,18.000,-50.500
2.364,45.000,1.000,18.500,-50.500
2.365,45.500,1.000,18.500,-50.000
2.366,45.500,1.000,18.500,-50.000
2.367,45.000,1.000,18.000,-50.000
2.368,44.500,0.500,17.500,-50.500
2.369,44.000,0.500,17.000,-51.000
2.370,43.500,-0.500,16.500,-51.000
2.371,43.000,-0.500,16.500,-51.500
2.372,42.500,-1.000,16.000,-52.000
2.373,42.000,-1.500,15.500,-52.500
2.374,42.000,-1.500,15.500,-53.000
2.375,41.500,-2.000,15.000,-53.000
2.376,41.500,-2.000,15.000,-53.500
2.377,41.000,-2.000,15.000,-53.500
2.378,41.000,-2.000,15.000,-53.500
2.379,41.000,-2.000,14.500,-53.500
2.380,41.000,-2.000,14.500,-53.500
2.381,41.000,-1.500,15.000,-53.000
2.382,41.000,-1.500,15.000,-53.000
2.383,41.000,-1.500,15.000,-53.000
2.384,41.000,-1.500,15.000,-53.000
2.385,40.500,-1.000,15.000,-53.500
2.386,40.500,-1.000,15.000,-53.500
2.387,40.500,-1.500,14.500,-54.000
2.388,40.000,-1.500,14.500,-54.000
2.389,40.000,-1.500,14.500,-54.500
2.390,39.500,-2.000,14.000,-55.000
2.391,39.500,-2.500,13.500,-55.500
2.392,39.000,-2.500,13.000,-55.500
2.393,39.000,-2.500,12.500,-56.000
2.394,39.000,-2.500,12.000,-56.000
2.395,39.000,-2.500,11.500,-56.500
2.396,38.500,-2.500,11.000,-57.000
2.397,38.500,-3.000,11.000,-57.000
2.398,38.500,-3.000,11.000,-57.500
2.399,38.500,-3.000,11.000,-58.000
2.400,38.000,-3.500,11.000,-58.000
2.401,38.000,-3.500,10.500,-58.000
2.402,38.000,-4.000,10.500,-58.500
2.403,37.500,-4.000,10.500,-58.500
2.404,37.500,-4.000,10.000,-58.000
2.405,37.500,-4.000,10.000,-58.000
2.406,37.500,-4.500,10.000,-58.000
2.407,37.000,-4.500,10.000,-58.000
2.408,37.000,-5.000,10.000,-58.000
2.409,37.000,-5.000,10.000,-58.000
2.410,36.500,-5.500,9.500,-58.500
2.411,36.000,-6.000,9.000,-58.500
2.412,36.000,-6.000,8.500,-59.000
2.413,35.500,-6.500,8.000,-59.500
2.414,35.000,-7.000,8.000,-60.000
2.415,35.000,-7.000,7.500,-60.000
2.416,35.000,-7.500,7.500,-60.000
2.417,35.000,-7.500,7.000,-60.000
2.418,35.000,-7.500,7.000,-60.000
2.419,35.000,-7.500,7.000,-60.000
2.420,35.000,-7.500,7.000,-60.000
2.421,35.000,-7.000,7.500,-60.500
2.422,35.000,-7.000,7.500,-60.500
2.423,35.000,-7.000,7.500,-60.500
2.424,35.500,-6.500,8.000,-60.500
2.425,35.500,-6.500,8.000,-60.500
2.426,35.500,-6.500,7.500,-60.500
2.427,35.000,-7.000,7.000,-61.000
2.428,34.500,-7.500,6.500,-61.500
2.429,34.500,-8.000,6.000,-62.000
2.430,34.000,-8.500,5.500,-62.500
2.431,33.500,-9.500,4.500,-63.000
2.432,33.000,-10.000,4.500,-63.500
2.433,32.500,-10.500,4.000,-64.000
2.434,32.500,-10.500,4.000,-64.500
2.435,32.500,-10.500,4.000,-64.500
2.436,32.500,-10.500,4.000,-64.500
2.437,32.500,-10.500,4.000,-64.500
2.438,32.500,-10.500,4.000,-64.500
2.439,32.500,-10.500,4.000,-64.000
2.440,32.500,-10.500,4.000,-64.000
2.441,32.500,-11.000,4.000,-64.000
2.442,32.500,-11.000,4.000,-64.000
2.443,32.500,-11.000,4.000,-64.000
2.444,32.500,-11.500,3.500,-64.000
2.445,32.500,-11.500,3.500,-64.000
2.446,32.500,-12.000,3.000,-64.000
2.447,32.000,-12.500,3.000,-64.000
2.448,31.500,-13.000,2.500,-64.500
2.449,31.500,-13.500,2.000,-65.000
2.450,31.000,-13.500,2.000,-65.500
2.451,31.000,-13.500,1.500,-65.500
2.452,31.000,-14.000,1.000,-66.000
2.453,30.500,-14.000,1.000,-66.500
2.454,30.500,-14.500,0.500,-66.500
2.455,30.000,-14.500,0.500,-67.000
2.456,30.000,-14.500,0.000,-67.000
2.457,30.000,-14.500,0.000,-67.000
2.458,30.500,-14.500,0.500,-66.500
2.459,31.000,-14.500,0.500,-66.500
2.460,31.000,-14.500,0.500,-66.500
2.461,31.000,-14.500,0.500,-66.500
2.462,31.000,-14.500,0.500,-66.500
2.463,31.000,-15.000,0.500,-66.500
2.464,31.000,-15.000,0.500,-66.500
2.465,30.500,-15.000,0.000,-66.500
2.466,30.500,-15.500,-0.500,-66.500
2.467,30.500,-15.500,-0.500,-66.500
2.468,30.000,-15.500,-1.000,-66.500
2.469,29.500,-16.000,-1.500,-67.000
2.470,29.500,-16.000,-2.000,-67.500
2.471,29.000,-16.500,-2.500,-68.000
2.472,29.000,-17.000,-3.000,-68.500
2.473,29.000,-17.500,-3.500,-68.500
2.474,28.500,-18.000,-4.000,-69.000
2.475,28.500,-18.000,-4.500,-69.500
2.476,28.500,-18.000,-4.500,-69.500
2.477,28.000,-18.500,-4.500,-69.500
2.478,28.500,-18.500,-4.500,-69.000
2.479,28.500,-18.500,-4.500,-69.000
2.480,28.500,-18.500,-4.000,-69.000
2.481,28.500,-18.000,-4.000,-68.500
2.482,28.500,-18.000,-4.000,-68.500
2.483,28.500,-17.500,-4.000,-68.000
2.484,28.000,-17.500,-4.000,-68.000
2.485,27.500,-17.500,-4.000,-68.000
2.486,27.000,-18.000,-4.000,-68.500
2.487,26.500,-18.500,-4.500,-68.500
2.488,26.000,-19.000,-5.000,-69.000
2.489,25.500,-19.500,-5.000,-69.500
2.490,25.500,-19.500,-5.500,-70.000
2.491,25.500,-20.000,-5.500,-70.500
2.492,25.500,-20.000,-6.000,-70.500
2.493,25.500,-20.000,-6.000,-71.000
2.494,25.500,-20.000,-6.000,-71.000
2.495,25.500,-20.500,-6.000,-71.500
2.496,25.500,-20.500,-6.000,-71.500
2.497,25.500,-20.500,-6.500,-71.500
2.498,25.500,-20.500,-6.500,-71.500
2.499,25.500,-20.500,-6.500,-71.500
2.500,25.500,-21.000,-6.500,-71.500
2.501,25.000,-21.500,-7.000,-72.000
2.502,24.500,-22.500,-7.500,-72.500
2.503,23.500,-23.500,-8.500,-73.000
2.504,22.000,-25.000,-9.500,-74.000
2.505,20.500,-27.000,-11.000,-75.500
2.506,18.000,-29.500,-13.000,-77.000
2.507,15.000,-32.500,-15.500,-79.000
2.508,12.500,-35.500,-18.000,-81.000
2.509,10.000,-38.000,-20.500,-82.500
2.510,8.500,-40.000,-22.000,-83.500
2.511,7.500,-41.000,-23.000,-84.500
2.512,7.500,-41.000,-23.000,-84.500
2.513,7.500,-40.500,-22.500,-84.500
2.514,8.500,-39.000,-21.500,-84.000
2.515,10.000,-37.000,-19.500,-83.000
2.516,12.500,-34.500,-17.500,-81.500
2.517,15.500,-31.500,-14.500,-79.500
2.518,18.500,-28.000,-11.000,-77.000
2.519,22.000,-24.500,-8.000,-74.500
2.520,25.000,-21.000,-5.000,-72.500
2.521,27.500,-18.000,-2.500,-70.500
2.522,29.500,-15.500,-0.500,-69.000
2.523,30.500,-14.000,0.500,-68.500
2.524,31.000,-13.500,1.000,-68.000
2.525,30.500,-14.000,0.500,-68.500
2.526,29.500,-15.000,-0.500,-69.500
2.527,28.000,-16.500,-2.000,-71.000
2.528,26.500,-18.500,-3.500,-72.000
2.529,25.000,-20.500,-5.000,-73.500
2.530,23.500,-22.000,-6.500,-75.000
2.531,22.000,-23.500,-8.000,-76.000
2.532,21.000,-25.000,-9.000,-77.000
2.533,20.000,-26.000,-9.500,-77.500
2.534,19.500,-26.500,-10.500,-78.000
2.535,19.000,-27.000,-10.500,-78.500
2.536,19.000,-27.000,-10.500,-78.500
2.537,19.000,-27.000,-10.500,-78.500
2.538,19.000,-26.500,-10.500,-78.500
2.539,19.500,-26.500,-10.000,-78.500
2.540,19.500,-26.500,-9.500,-78.000
2.541,19.500,-26.000,-9.500,-77.500
2.542,19.500,-26.000,-9.000,-77.000
2.543,19.500,-26.000,-9.000,-77.000
2.544,19.500,-25.500,-8.500,-77.000
2.545,19.000,-25.500,-9.000,-77.000
2.546,19.000,-26.000,-9.000,-77.500
2.547,18.500,-26.000,-9.000,-77.500
2.548,18.500,-26.000,-9.500,-78.000
2.549,18.000,-26.500,-10.000,-78.500
2.550,17.500,-27.000,-10.500,-79.000
2.551,17.000,-27.500,-10.500,-79.500
2.552,16.500,-28.000,-11.000,-80.000
2.553,16.000,-28.500,-11.500,-80.500
2.554,15.500,-29.000,-12.000,-81.000
2.555,15.000,-29.500,-12.500,-81.000
2.556,15.000,-30.000,-13.000,-81.000
2.557,14.500,-30.500,-13.000,-81.000
2.558,14.500,-30.500,-13.000,-81.000
2.559,14.500,-30.000,-13.000,-81.000
2.560,14.500,-30.000,-13.000,-81.000
2.561,14.500,-30.000,-13.000,-81.000
2.562,14.000,-30.000,-13.000,-81.000
2.563,14.000,-30.000,-13.000,-81.000
2.564,13.500,-30.500,-13.500,-81.000
2.565,13.000,-30.500,-13.500,-81.500
2.566,12.500,-31.000,-14.000,-82.000
2.567,12.000,-31.500,-14.500,-82.000
2.568,11.500,-32.000,-14.500,-82.500
2.569,11.000,-32.500,-15.000,-83.000
2.570,10.000,-33.500,-15.500,-83.500
2.571,10.000,-34.000,-16.000,-84.000
2.572,9.500,-34.000,-16.500,-84.500
2.573,9.500,-34.500,-16.500,-84.500
2.574,9.500,-34.500,-17.000,-85.000
2.575,9.000,-34.500,-17.000,-85.000
2.576,9.000,-34.500,-17.000,-85.000
2.577,9.000,-35.000,-17.000,-85.000
2.578,8.500,-35.000,-17.000,-85.000
2.579,8.500,-35.000,-17.000,-85.000
2.580,8.000,-35.000,-17.000,-85.000
2.581,8.000,-35.000,-17.000,-84.500
2.582,8.000,-34.500,-16.500,-84.500
2.583,8.500,-34.500,-16.500,-84.500
2.584,8.500,-34.000,-16.500,-84.500
2.585,9.000,-34.000,-16.500,-84.500
2.586,9.000,-34.000,-16.500,-84.500
2.587,9.000,-34.000,-17.000,-84.000
2.588,9.000,-34.500,-17.000,-84.000
2.589,8.500,-34.500,-17.000,-84.500
2.590,8.500,-35.000,-17.000,-84.500
2.591,8.500,-35.000,-17.000,-85.000
2.592,8.000,-35.000,-17.000,-85.000
2.593,8.000,-35.500,-17.500,-85.500
2.594,7.500,-35.500,-17.500,-85.500
2.595,7.500,-35.500,-17.500,-85.500
2.596,7.500,-35.500,-17.500,-85.500
2.597,7.000,-35.000,-17.500,-85.000
2.598,7.000,-35.000,-17.500,-85.000
2.599,7.500,-34.500,-17.500,-84.500
2.600,7.500,-34.500,-17.000,-84.000
2.601,8.000,-34.000,-16.500,-83.500
2.602,8.500,-33.500,-16.000,-83.000
2.603,8.500,-33.500,-15.500,-82.500
2.604,9.000,-33.000,-15.000,-82.000
2.605,8.500,-33.000,-15.000,-82.000
2.606,8.500,-33.000,-15.000,-82.000
2.607,8.000,-33.000,-15.000,-81.500
2.608,7.500,-33.000,-15.000,-81.500
2.609,7.500,-33.500,-15.000,-81.500
2.610,7.000,-33.500,-15.000,-82.000
2.611,7.000,-34.000,-15.000,-82.000
2.612,7.000,-34.500,-15.500,-82.500
2.613,6.500,-34.500,-16.000,-83.000
2.614,6.500,-35.000,-16.500,-83.000
2.615,6.500,-35.500,-16.500,-83.000
2.616,6.500,-35.500,-16.500,-83.000
2.617,6.500,-36.000,-17.000,-83.500
2.618,6.500,-36.000,-17.000,-83.500
2.619,6.500,-36.000,-17.000,-83.500
2.620,6.500,-36.000,-17.000,-83.500
2.621,6.500,-36.000,-17.000,-83.500
2.622,6.500,-36.000,-17.000,-84.000
2.623,6.500,-36.000,-17.000,-84.000
2.624,6.500,-36.000,-17.000,-84.000
2.625,6.500,-36.000,-16.500,-84.000
2.626,6.000,-36.000,-17.000,-84.000
2.627,6.000,-36.500,-17.000,-84.500
2.628,5.500,-36.500,-17.500,-84.500
2.629,5.500,-37.000,-18.000,-85.000
2.630,5.000,-37.500,-18.500,-85.000
2.631,4.500,-38.000,-19.000,-85.500
2.632,4.500,-38.500,-19.500,-85.500
2.633,4.500,-39.000,-20.000,-86.000
2.634,4.500,-39.500,-20.500,-86.500
2.635,4.500,-39.500,-20.500,-86.500
2.636,4.000,-40.000,-21.000,-87.000
2.637,4.000,-39.500,-21.000,-87.000
2.638,4.500,-39.500,-21.000,-87.000
2.639,4.500,-39.500,-20.500,-86.500
2.640,4.500,-39.000,-20.500,-86.500
2.641,5.000,-39.000,-20.000,-86.000
2.642,5.000,-39.000,-20.000,-85.500
2.643,5.000,-39.000,-19.500,-85.000
2.644,4.500,-39.500,-19.500,-85.000
2.645,4.000,-39.500,-19.500,-85.000
2.646,4.000,-39.500,-20.000,-85.000
2.647,3.500,-40.000,-20.000,-85.000
2.648,3.000,-40.000,-20.500,-85.000
2.649,3.000,-40.500,-20.500,-85.500
2.650,2.500,-41.000,-21.000,-85.500
2.651,2.500,-41.500,-21.500,-85.500
2.652,2.000,-42.000,-22.000,-86.000
2.653,2.000,-42.500,-22.000,-86.000
2.654,2.000,-42.500,-22.500,-86.000
2.655,1.500,-42.500,-22.500,-86.000
2.656,1.500,-42.500,-22.500,-86.000
2.657,1.500,-42.500,-22.000,-86.000
2.658,1.500,-42.000,-22.000,-85.500
2.659,1.500,-42.000,-22.000,-85.500
2.660,1.500,-42.000,-22.000,-85.500
2.661,1.500,-42.500,-22.000,-85.500
2.662,1.500,-42.500,-22.000,-85.500
2.663,1.000,-42.500,-22.000,-85.500
2.664,0.500,-42.500,-22.000,-85.500
2.665,0.000,-42.500,-22.000,-85.500
2.666,-0.500,-43.000,-22.500,-85.500
2.667,-0.500,-43.500,-22.500,-85.500
2.668,-1.000,-44.000,-22.500,-86.000
2.669,-1.000,-44.500,-22.500,-86.000
2.670,-1.500,-44.500,-23.000,-86.500
2.671,-2.000,-45.000,-23.500,-87.000
2.672,-2.000,-45.000,-23.500,-87.500
2.673,-2.500,-45.500,-24.000,-87.500
2.674,-2.500,-45.500,-24.000,-88.000
2.675,-2.500,-46.000,-24.500,-88.000
2.676,-3.000,-46.000,-24.500,-88.000
2.677,-3.000,-46.000,-24.000,-88.000
2.678,-3.000,-45.500,-24.000,-88.000
2.679,-2.500,-45.500,-23.500,-88.000
2.680,-2.500,-45.500,-23.500,-88.000
2.681,-2.500,-45.000,-23.000,-88.000
2.682,-2.500,-45.000,-22.500,-88.000
2.683,-2.500,-45.000,-22.000,-87.500
2.684,-2.500,-44.500,-22.000,-87.500
2.685,-3.000,-44.500,-21.500,-87.500
2.686,-3.000,-45.000,-21.500,-87.500
2.687,-3.500,-45.000,-22.000,-87.500
2.688,-4.000,-45.500,-22.000,-88.000
2.689,-4.000,-46.000,-22.500,-88.500
2.690,-4.500,-46.500,-23.000,-89.000
2.691,-5.000,-47.000,-23.500,-89.500
2.692,-5.500,-47.500,-24.000,-90.000
2.693,-6.000,-47.500,-25.000,-90.500
2.694,-6.500,-48.000,-25.500,-91.000
2.695,-6.500,-48.500,-26.500,-91.500
2.696,-7.000,-49.500,-27.000,-92.500
2.697,-7.000,-50.000,-27.500,-93.000
2.698,-7.500,-50.500,-28.500,-94.000
2.699,-8.000,-51.000,-29.000,-94.500
2.700,-8.500,-51.500,-30.000,-95.500
2.701,-9.500,-52.500,-30.500,-96.500
2.702,-10.500,-53.500,-31.500,-97.500
2.703,-11.500,-54.500,-33.000,-98.500
2.704,-13.000,-55.500,-34.000,-100.000
2.705,-14.000,-57.000,-35.500,-101.000
2.706,-15.000,-58.000,-36.500,-102.000
2.707,-16.000,-59.500,-38.000,-103.000
2.708,-17.500,-60.500,-39.000,-104.500
2.709,-19.000,-62.000,-40.500,-105.500
2.710,-20.500,-63.500,-42.000,-106.500
2.711,-22.500,-65.000,-43.500,-107.500
2.712,-23.500,-66.000,-44.500,-108.000
2.713,-25.000,-66.500,-45.000,-108.000
2.714,-26.000,-67.000,-45.500,-108.000
2.715,-26.500,-67.000,-45.500,-107.500
2.716,-27.500,-67.000,-45.000,-107.000
2.717,-28.000,-67.000,-44.500,-105.500
2.718,-28.500,-66.500,-43.500,-104.000
2.719,-28.500,-66.000,-42.500,-102.500
2.720,-28.500,-65.500,-41.500,-100.500
2.721,-29.000,-65.000,-40.000,-99.000
2.722,-29.000,-64.500,-39.000,-97.500
2.723,-29.000,-64.500,-38.500,-96.000
2.724,-29.500,-64.500,-37.500,-95.000
2.725,-29.500,-64.500,-37.500,-94.000
2.726,-30.000,-65.000,-37.500,-93.500
2.727,-31.000,-65.000,-37.500,-93.500
2.728,-31.500,-65.500,-38.000,-93.500
2.729,-31.500,-65.500,-38.000,-93.000
2.730,-31.500,-65.500,-38.000,-93.000
2.731,-30.500,-64.500,-37.500,-93.000
2.732,-29.500,-63.500,-36.500,-93.000
2.733,-28.000,-62.500,-35.500,-93.000
2.734,-26.000,-61.000,-34.500,-92.500
2.735,-23.500,-59.000,-33.500,-92.500
2.736,-21.000,-57.000,-32.500,-92.000
2.737,-18.000,-54.500,-30.500,-91.500
2.738,-14.500,-51.500,-28.000,-90.000
2.739,-10.000,-47.500,-25.000,-88.500
2.740,-5.500,-43.500,-21.500,-86.500
2.741,-1.500,-39.500,-18.500,-84.500
2.742,2.500,-36.500,-15.500,-82.500
2.743,5.000,-33.500,-13.500,-81.500
2.744,7.000,-32.000,-12.000,-80.500
2.745,8.500,-30.500,-11.000,-79.500
2.746,9.000,-29.500,-10.000,-79.000
2.747,9.500,-29.000,-10.000,-79.000
2.748,9.000,-29.000,-10.000,-79.000
2.749,8.500,-30.000,-11.000,-80.000
2.750,7.500,-31.000,-12.000,-81.000
2.751,6.000,-32.500,-14.000,-82.500
2.752,4.500,-34.500,-15.500,-84.000
2.753,2.500,-36.000,-17.500,-86.000
2.754,1.000,-38.000,-19.500,-87.500
2.755,-1.000,-40.000,-21.500,-89.500
2.756,-2.500,-42.000,-23.500,-91.000
2.757,-4.000,-43.000,-25.000,-92.500
2.758,-5.000,-44.500,-26.000,-93.500
2.759,-5.500,-45.000,-27.000,-94.500
2.760,-6.000,-45.500,-28.000,-95.000
2.761,-6.500,-46.000,-28.500,-95.000
2.762,-7.000,-46.500,-29.000,-95.500
2.763,-7.500,-47.500,-29.500,-96.000
2.764,-8.000,-48.000,-30.000,-96.000
2.765,-9.000,-48.500,-30.500,-96.500
2.766,-9.500,-49.000,-31.000,-97.000
2.767,-9.500,-49.500,-31.500,-97.500
2.768,-10.000,-49.500,-31.500,-98.000
2.769,-10.500,-50.000,-32.000,-98.000
2.770,-10.500,-50.500,-32.500,-98.500
2.771,-11.000,-50.500,-32.500,-98.500
2.772,-11.000,-51.000,-33.000,-99.000
2.773,-11.000,-51.000,-33.500,-99.500
2.774,-11.000,-51.000,-33.500,-99.500
2.775,-11.500,-51.500,-34.000,-100.000
2.776,-11.000,-51.500,-34.000,-100.000
2.777,-11.000,-51.500,-34.000,-100.000
2.778,-11.000,-51.500,-34.000,-100.000
2.779,-11.000,-51.500,-34.000,-100.000
2.780,-11.000,-51.500,-34.000,-100.000
2.781,-11.000,-51.500,-34.000,-100.000
2.782,-11.000,-51.500,-34.000,-100.000
2.783,-11.500,-51.500,-34.000,-100.000
2.784,-11.500,-51.500,-33.500,-100.000
2.785,-12.000,-52.000,-34.000,-100.500
2.786,-12.000,-52.500,-34.000,-100.500
2.787,-12.500,-52.500,-34.000,-101.000
2.788,-13.000,-53.000,-34.500,-101.500
2.789,-13.500,-53.500,-35.000,-101.500
2.790,-13.500,-54.000,-35.000,-102.000
2.791,-14.000,-54.500,-35.500,-102.000
2.792,-14.000,-54.500,-36.000,-102.000
2.793,-14.000,-54.500,-36.000,-102.000
2.794,-14.000,-54.500,-36.500,-102.000
2.795,-14.000,-54.500,-36.500,-102.000
2.796,-14.000,-54.000,-36.500,-102.000
2.797,-13.500,-54.000,-36.000,-102.000
2.798,-13.500,-53.500,-35.500,-101.500
2.799,-13.500,-53.000,-35.500,-101.500
2.800,-13.500,-53.000,-35.000,-101.500
2.801,-13.000,-53.000,-35.000,-101.500
2.802,-13.500,-53.000,-35.000,-101.500
2.803,-13.500,-53.000,-35.500,-101.500
2.804,-13.000,-52.500,-35.500,-101.500
2.805,-13.000,-52.500,-35.500,-101.500
2.806,-13.000,-52.000,-35.500,-101.500
2.807,-13.000,-52.000,-35.500,-101.500
2.808,-13.000,-52.000,-36.000,-102.000
2.809,-13.500,-52.500,-36.500,-102.500
2.810,-14.000,-53.000,-37.000,-103.000
2.811,-14.000,-53.500,-37.500,-103.000
2.812,-14.500,-54.000,-37.500,-103.500
2.813,-14.500,-54.000,-38.000,-103.500
2.814,-14.500,-54.000,-38.000,-103.500
2.815,-14.500,-54.000,-38.000,-103.500
2.816,-14.500,-54.000,-38.500,-103.500
2.817,-15.000,-54.000,-38.500,-103.500
2.818,-15.000,-54.000,-38.500,-103.500
2.819,-15.000,-54.000,-38.500,-103.500
2.820,-15.000,-54.000,-38.000,-103.500
2.821,-15.000,-54.000,-38.000,-103.500
2.822,-15.000,-54.000,-37.500,-103.500
2.823,-15.000,-54.000,-37.500,-103.500
2.824,-15.000,-54.000,-37.000,-103.500
2.825,-15.000,-54.500,-37.000,-103.500
2.826,-15.500,-54.500,-37.000,-103.500
2.827,-15.500,-54.500,-37.000,-103.500
2.828,-16.000,-55.000,-37.500,-103.500
2.829,-16.000,-55.000,-38.000,-103.500
2.830,-16.000,-55.000,-38.500,-103.500
2.831,-16.500,-55.500,-38.500,-104.000
2.832,-16.500,-55.500,-39.000,-104.000
2.833,-16.500,-56.000,-39.000,-104.500
2.834,-16.500,-56.000,-39.000,-104.500
2.835,-16.500,-56.000,-39.000,-105.000
2.836,-16.500,-56.000,-39.500,-105.000
2.837,-16.500,-55.500,-39.500,-105.000
2.838,-16.500,-55.500,-39.500,-105.000
2.839,-16.000,-55.000,-39.500,-105.000
2.840,-16.000,-55.000,-39.000,-105.000
2.841,-15.500,-54.500,-39.000,-105.000
2.842,-15.500,-54.000,-39.000,-104.500
2.843,-15.500,-53.500,-38.500,-104.500
2.844,-15.500,-53.000,-38.500,-104.000
2.845,-15.500,-52.500,-38.500,-104.000
2.846,-15.500,-52.500,-38.500,-104.000
2.847,-15.500,-53.000,-38.500,-104.000
2.848,-16.000,-53.000,-39.000,-104.000
2.849,-16.000,-53.500,-39.000,-104.000
2.850,-16.000,-54.000,-39.500,-104.500
2.851,-16.000,-54.500,-39.500,-104.500
2.852,-16.500,-54.500,-40.000,-105.000
2.853,-16.500,-54.500,-40.000,-105.000
2.854,-16.000,-54.500,-40.000,-105.000
2.855,-15.500,-54.500,-39.500,-105.000
2.856,-15.500,-54.000,-39.500,-105.000
2.857,-15.000,-53.500,-39.000,-105.000
2.858,-14.500,-53.000,-39.000,-104.500
2.859,-14.500,-53.000,-38.500,-104.500
2.860,-14.000,-52.500,-38.500,-104.000
2.861,-14.000,-52.500,-38.500,-104.000
2.862,-14.500,-53.000,-38.500,-103.500
2.863,-15.000,-53.500,-39.000,-104.000
2.864,-16.000,-54.500,-40.000,-104.000
2.865,-17.500,-55.500,-41.000,-104.500
2.866,-19.500,-57.500,-43.000,-106.000
2.867,-22.000,-60.000,-45.000,-107.500
2.868,-25.000,-63.500,-47.500,-109.500
2.869,-28.000,-66.500,-50.000,-111.500
2.870,-30.500,-69.000,-52.000,-113.500
2.871,-32.500,-71.000,-53.500,-114.500
2.872,-33.500,-72.500,-54.500,-115.500
2.873,-34.000,-73.000,-55.000,-115.500
2.874,-33.500,-72.500,-55.000,-115.500
2.875,-32.500,-71.500,-54.000,-115.000
2.876,-31.000,-70.000,-52.500,-113.500
2.877,-28.500,-67.500,-50.000,-112.000
2.878,-25.500,-64.000,-47.500,-109.500
2.879,-22.000,-60.500,-44.000,-107.000
2.880,-18.500,-56.500,-40.500,-104.500
2.881,-15.000,-53.000,-37.500,-102.000
2.882,-12.000,-49.500,-34.500,-100.000
2.883,-10.000,-47.000,-32.500,-98.500
2.884,-8.500,-45.000,-31.500,-98.000
2.885,-8.000,-44.500,-30.500,-97.500
2.886,-8.000,-44.500,-31.000,-97.500
2.887,-9.000,-45.500,-31.500,-98.000
2.888,-10.500,-47.000,-33.000,-99.000
2.889,-12.500,-49.000,-34.500,-100.500
2.890,-14.000,-51.000,-36.500,-102.000
2.891,-16.000,-53.000,-38.000,-103.000
2.892,-17.500,-54.500,-39.500,-104.000
2.893,-18.500,-56.000,-40.000,-104.500
2.894,-19.500,-56.500,-40.500,-105.000
2.895,-20.000,-57.500,-41.000,-105.500
2.896,-20.000,-58.000,-41.000,-105.500
2.897,-20.500,-58.000,-41.000,-105.500
2.898,-20.500,-58.000,-41.000,-105.500
2.899,-20.500,-58.000,-41.000,-105.500
2.900,-20.500,-58.000,-41.000,-106.000
2.901,-20.500,-57.500,-41.000,-105.500
2.902,-20.000,-57.500,-41.000,-105.500
2.903,-20.500,-57.000,-40.500,-105.500
2.904,-20.500,-57.000,-40.500,-105.000
2.905,-20.500,-57.000,-40.500,-105.000
2.906,-20.500,-57.000,-41.000,-105.000
2.907,-21.000,-57.000,-41.000,-105.500
2.908,-21.000,-57.500,-41.000,-106.000
2.909,-21.500,-57.500,-41.500,-106.000
2.910,-22.000,-58.000,-41.500,-106.500
2.911,-22.500,-58.500,-42.000,-106.500
2.912,-23.000,-58.500,-42.000,-107.000
2.913,-23.000,-59.000,-42.000,-107.000
2.914,-23.000,-59.000,-42.500,-107.000
2.915,-23.000,-59.500,-42.500,-107.000
2.916,-23.000,-59.500,-42.500,-107.000
2.917,-23.000,-59.500,-42.500,-106.500
2.918,-22.500,-59.000,-42.000,-106.000
2.919,-22.500,-59.000,-41.500,-105.500
2.920,-22.500,-59.000,-41.500,-105.500
2.921,-22.500,-58.500,-41.000,-105.000
2.922,-22.500,-58.500,-40.500,-105.000
2.923,-22.500,-58.500,-40.000,-104.500
2.924,-22.500,-58.000,-40.000,-104.500
2.925,-22.500,-58.000,-40.000,-104.500
2.926,-22.500,-58.500,-40.000,-104.500
2.927,-22.500,-58.500,-40.000,-104.500
2.928,-23.000,-59.000,-40.000,-104.500
2.929,-23.000,-59.000,-40.000,-104.500
2.930,-23.000,-59.500,-40.000,-104.500
2.931,-23.000,-59.500,-40.000,-104.500
2.932,-23.500,-60.000,-40.000,-104.000
2.933,-23.500,-60.000,-40.000,-104.000
2.934,-23.500,-60.000,-40.000,-103.500
2.935,-23.000,-59.500,-40.000,-103.500
2.936,-23.000,-59.500,-40.000,-103.000
2.937,-22.500,-59.500,-40.000,-103.000
2.938,-22.000,-59.000,-40.000,-102.500
2.939,-22.000,-59.000,-39.500,-102.500
2.940,-21.500,-58.500,-39.500,-102.000
2.941,-21.500,-58.000,-39.000,-101.500
2.942,-21.000,-58.000,-38.500,-101.000
2.943,-20.500,-57.500,-38.000,-101.000
2.944,-20.500,-57.500,-38.000,-100.500
2.945,-20.500,-57.500,-37.500,-100.500
2.946,-20.500,-57.000,-37.500,-100.500
2.947,-20.500,-57.500,-37.500,-100.500
2.948,-21.000,-57.500,-37.500,-100.500
2.949,-21.000,-57.500,-37.500,-100.500
2.950,-21.500,-57.500,-37.500,-101.000
2.951,-22.000,-58.000,-38.000,-101.000
2.952,-22.000,-58.000,-38.000,-101.500
2.953,-22.500,-58.000,-38.000,-101.500
2.954,-22.500,-58.000,-38.500,-101.500
2.955,-22.500,-58.500,-38.500,-101.500
2.956,-22.500,-58.500,-39.000,-102.000
2.957,-22.000,-58.500,-38.500,-101.500
2.958,-22.000,-58.000,-38.500,-101.500
2.959,-21.500,-57.500,-38.000,-101.000
2.960,-21.500,-57.000,-37.500,-100.500
2.961,-21.500,-56.500,-37.000,-100.000
2.962,-21.000,-56.000,-37.000,-100.000
2.963,-21.000,-55.500,-36.500,-100.000
2.964,-20.500,-55.500,-36.500,-100.000
2.965,-20.500,-55.500,-36.000,-99.500
2.966,-20.500,-55.500,-36.000,-99.500
2.967,-20.500,-55.500,-36.000,-99.500
2.968,-20.500,-55.500,-36.000,-100.000
2.969,-20.500,-56.000,-36.000,-100.000
2.970,-21.000,-56.500,-36.500,-100.500
2.971,-21.000,-57.000,-36.500,-101.000
2.972,-21.500,-57.500,-37.000,-101.500
2.973,-22.000,-58.000,-37.500,-102.000
2.974,-22.000,-58.000,-38.000,-102.500
2.975,-22.500,-58.500,-38.500,-102.500
2.976,-22.500,-59.000,-38.500,-103.000
2.977,-23.000,-59.000,-38.500,-103.000
2.978,-23.000,-59.500,-39.000,-103.000
2.979,-23.000,-59.000,-39.000,-103.000
2.980,-23.000,-59.000,-39.000,-103.000
2.981,-23.000,-59.000,-39.000,-103.000
2.982,-23.500,-58.500,-39.000,-102.500
2.983,-23.500,-58.500,-39.000,-102.500
2.984,-24.000,-58.500,-39.500,-102.500
2.985,-24.500,-58.500,-39.500,-102.500
2.986,-25.000,-58.500,-39.500,-102.500
2.987,-25.000,-59.000,-40.000,-103.000
2.988,-25.500,-59.500,-40.500,-103.500
2.989,-26.000,-60.000,-41.000,-104.000
2.990,-26.500,-60.500,-41.500,-104.500
2.991,-27.000,-61.000,-42.000,-104.500
2.992,-27.000,-61.500,-42.500,-105.000
2.993,-27.500,-62.000,-43.000,-105.000
2.994,-27.500,-62.000,-43.000,-105.500
2.995,-28.000,-62.000,-43.500,-105.500
2.996,-28.000,-62.500,-44.000,-105.500
2.997,-28.000,-62.500,-44.000,-105.000
2.998,-28.000,-62.500,-44.000,-105.000
2.999,-28.000,-62.500,-44.000,-105.500
3.000,-28.000,-62.500,-44.000,-105.500
3.001,-28.000,-62.500,-44.000,-105.500
3.002,-28.000,-62.500,-44.000,-105.500
3.003,-28.000,-62.000,-43.500,-105.500
3.004,-28.000,-62.000,-43.500,-105.500
3.005,-28.000,-62.000,-43.500,-105.500
3.006,-28.000,-62.500,-43.500,-105.500
3.007,-28.000,-62.500,-43.500,-106.000
3.008,-28.500,-62.500,-44.000,-106.500
3.009,-28.500,-63.000,-44.000,-106.500
3.010,-28.500,-63.500,-44.500,-107.000
3.011,-29.000,-64.000,-45.000,-107.500
3.012,-29.000,-64.000,-45.500,-108.000
3.013,-29.000,-64.500,-46.000,-108.000
3.014,-29.000,-64.500,-46.000,-108.500
3.015,-29.000,-64.500,-46.500,-109.000
3.016,-29.000,-64.000,-46.500,-109.000
3.017,-28.500,-64.000,-46.000,-108.500
3.018,-28.500,-63.500,-45.500,-108.500
3.019,-28.000,-63.000,-45.000,-108.000
3.020,-28.000,-62.500,-44.500,-107.500
3.021,-27.500,-62.000,-44.000,-107.000
3.022,-27.500,-62.000,-44.000,-107.000
3.023,-27.500,-61.500,-43.500,-106.500
3.024,-27.500,-61.500,-43.500,-106.500
3.025,-27.500,-61.000,-43.000,-106.500
3.026,-27.000,-61.000,-43.000,-106.000
3.027,-27.500,-61.000,-43.000,-106.000
3.028,-27.500,-61.000,-43.000,-106.000
3.029,-27.500,-61.000,-43.000,-106.000
3.030,-28.000,-61.000,-43.500,-106.000
3.031,-28.000,-61.500,-43.500,-106.000
3.032,-28.000,-61.500,-44.000,-106.500
3.033,-28.000,-61.500,-44.000,-106.500
3.034,-28.000,-61.500,-43.500,-106.500
3.035,-28.000,-61.500,-43.500,-106.000
3.036,-27.500,-61.000,-43.000,-105.500
3.037,-27.000,-60.500,-43.000,-105.000
3.038,-26.500,-60.000,-42.500,-104.500
3.039,-26.000,-59.500,-42.000,-104.000
3.040,-26.000,-59.000,-41.500,-103.500
3.041,-25.500,-58.500,-41.000,-103.000
3.042,-25.500,-58.000,-41.000,-103.000
3.043,-25.500,-57.500,-40.500,-103.000
3.044,-25.000,-57.500,-40.500,-103.000
3.045,-25.000,-57.000,-40.000,-103.000
3.046,-25.000,-57.000,-40.000,-103.000
3.047,-25.000,-57.000,-40.000,-103.000
3.048,-25.000,-57.000,-40.000,-103.000
3.049,-25.000,-57.500,-40.000,-103.000
3.050,-25.000,-57.500,-40.000,-103.000
3.051,-24.500,-57.500,-40.500,-103.000
3.052,-24.500,-57.500,-40.500,-103.000
3.053,-24.500,-57.500,-41.000,-103.500
3.054,-24.500,-57.500,-41.000,-103.500
3.055,-24.500,-57.500,-41.000,-103.500
3.056,-24.000,-57.500,-41.000,-103.500
3.057,-24.000,-57.000,-40.500,-103.500
3.058,-23.500,-56.500,-40.000,-103.000
3.059,-23.500,-56.000,-39.500,-102.500
3.060,-23.000,-55.500,-39.500,-102.000
3.061,-23.000,-55.500,-39.000,-102.000
3.062,-22.500,-55.500,-38.500,-101.500
3.063,-22.500,-55.000,-38.500,-101.500
3.064,-22.500,-55.000,-38.000,-101.500
3.065,-22.500,-55.000,-38.000,-101.500
3.066,-22.500,-55.500,-38.000,-101.500
3.067,-23.000,-55.500,-38.500,-101.500
3.068,-23.000,-56.000,-38.500,-101.500
3.069,-23.500,-56.000,-39.000,-101.500
3.070,-23.500,-56.000,-39.000,-101.500
3.071,-23.500,-56.000,-39.000,-102.000
3.072,-23.500,-56.000,-39.500,-102.000
3.073,-23.500,-56.000,-39.000,-102.000
3.074,-23.500,-56.000,-39.000,-102.000
3.075,-23.500,-56.000,-39.000,-102.000
3.076,-23.500,-56.000,-39.000,-102.000
3.077,-23.000,-56.000,-39.000,-101.500
3.078,-23.000,-55.500,-38.500,-101.500
3.079,-23.000,-55.000,-38.500,-101.000
3.080,-22.500,-54.500,-38.000,-100.500
3.081,-22.500,-54.500,-37.500,-100.500
3.082,-22.500,-54.000,-37.000,-100.500
3.083,-22.500,-54.000,-37.000,-100.500
3.084,-22.500,-53.500,-37.000,-100.500
3.085,-23.000,-53.500,-37.000,-100.500
3.086,-23.000,-53.500,-37.000,-100.500
3.087,-23.500,-54.000,-37.000,-100.500
3.088,-23.500,-54.000,-37.500,-100.500
3.089,-24.000,-54.500,-37.500,-101.000
3.090,-24.000,-55.000,-38.000,-101.500
3.091,-24.500,-55.500,-38.000,-101.500
3.092,-24.500,-56.000,-38.000,-101.500
3.093,-24.500,-56.500,-38.500,-101.500
3.094,-24.500,-56.500,-38.500,-101.500
3.095,-24.500,-56.500,-38.500,-101.500
3.096,-24.500,-56.500,-38.500,-101.500
3.097,-24.500,-56.500,-38.500,-101.500
3.098,-24.000,-56.000,-38.500,-101.000
3.099,-24.000,-55.500,-38.000,-101.000
3.100,-24.000,-55.000,-37.500,-100.500
3.101,-23.500,-54.500,-37.000,-100.000
3.102,-24.000,-54.500,-37.000,-100.000
3.103,-24.000,-54.000,-36.500,-99.500
3.104,-24.000,-54.000,-36.500,-99.500
3.105,-24.000,-54.500,-36.500,-99.500
3.106,-24.000,-54.500,-36.500,-99.000
3.107,-24.000,-54.500,-36.500,-99.000
3.108,-24.000,-55.000,-36.500,-99.000
3.109,-24.500,-55.000,-37.000,-99.500
3.110,-24.500,-55.500,-37.000,-100.000
3.111,-24.500,-56.000,-37.500,-100.000
3.112,-24.500,-56.500,-38.000,-100.500
3.113,-25.000,-57.000,-38.500,-101.000
3.114,-25.000,-57.000,-39.000,-101.500
3.115,-25.500,-57.500,-39.000,-101.500
3.116,-25.500,-57.500,-39.500,-101.500
3.117,-25.000,-57.500,-39.500,-101.500
3.118,-25.000,-57.000,-39.000,-101.500
3.119,-25.000,-57.000,-39.000,-101.500
3.120,-24.500,-56.500,-38.500,-101.000
3.121,-24.500,-56.500,-38.000,-101.000
3.122,-24.500,-56.000,-38.000,-100.500
3.123,-24.500,-56.000,-38.000,-100.500
3.124,-24.500,-56.000,-38.000,-100.000
3.125,-25.000,-56.000,-38.000,-100.000
3.126,-25.000,-56.000,-37.500,-100.500
3.127,-25.500,-56.500,-38.000,-100.500
3.128,-25.500,-56.500,-38.000,-100.500
3.129,-26.000,-57.000,-38.000,-101.000
3.130,-26.000,-57.500,-38.500,-101.500
3.131,-26.500,-58.000,-39.000,-102.000
3.132,-27.000,-58.500,-39.500,-102.500
3.133,-27.500,-59.000,-40.000,-102.500
3.134,-28.000,-59.500,-40.500,-103.000
3.135,-28.500,-60.000,-41.000,-103.500
3.136,-28.500,-60.000,-41.000,-104.000
3.137,-28.500,-60.000,-41.000,-104.000
3.138,-28.500,-60.000,-41.000,-103.500
3.139,-28.500,-60.000,-41.000,-103.500
3.140,-28.000,-59.500,-41.000,-103.000
3.141,-28.000,-59.500,-40.500,-103.000
3.142,-28.000,-59.500,-40.500,-103.000
3.143,-28.000,-59.000,-40.500,-103.000
3.144,-28.000,-59.000,-40.000,-103.000
3.145,-28.000,-59.000,-40.000,-103.000
3.146,-28.000,-59.500,-40.500,-103.500
3.147,-28.500,-59.500,-40.500,-103.500
3.148,-28.500,-60.000,-41.000,-104.000
3.149,-28.500,-60.000,-41.000,-104.000
3.150,-28.500,-60.000,-41.500,-104.500
3.151,-29.000,-60.500,-41.500,-104.500
3.152,-29.000,-60.500,-42.000,-104.500
3.153,-29.000,-60.500,-42.000,-104.500
3.154,-29.000,-60.500,-42.000,-104.500
3.155,-29.000,-61.000,-42.000,-105.000
3.156,-29.000,-61.000,-42.000,-105.000
3.157,-29.000,-61.000,-42.000,-105.000
3.158,-29.000,-61.000,-42.000,-105.500
3.159,-29.000,-60.500,-42.000,-105.500
3.160,-29.000,-60.000,-41.500,-105.000
3.161,-28.500,-59.500,-41.000,-105.000
3.162,-28.500,-59.500,-41.000,-104.500
3.163,-28.000,-59.000,-40.500,-104.000
3.164,-28.000,-59.000,-40.500,-104.000
3.165,-28.000,-59.000,-40.500,-103.500
3.166,-28.000,-59.000,-40.500,-103.500
3.167,-28.000,-59.000,-40.500,-103.500
3.168,-28.000,-59.000,-40.500,-103.500
3.169,-28.500,-59.500,-41.000,-104.000
3.170,-29.000,-59.500,-41.500,-104.500
3.171,-29.500,-60.000,-42.000,-104.500
3.172,-29.500,-60.000,-42.000,-105.000
3.173,-29.500,-60.500,-42.500,-105.000
3.174,-29.500,-60.500,-42.500,-105.000
3.175,-29.500,-60.500,-42.500,-105.000
3.176,-29.500,-60.500,-42.500,-105.000
3.177,-29.000,-60.500,-42.500,-104.500
3.178,-29.000,-60.500,-42.500,-104.500
3.179,-29.000,-60.500,-42.500,-104.000
3.180,-28.500,-60.000,-42.500,-104.000
3.181,-28.500,-60.000,-42.000,-104.000
3.182,-28.000,-60.000,-42.000,-104.000
3.183,-28.000,-59.500,-42.000,-104.000
3.184,-28.000,-59.500,-42.000,-104.000
3.185,-28.500,-59.500,-42.000,-104.000
3.186,-28.500,-59.500,-42.000,-104.000
3.187,-28.500,-59.500,-42.500,-104.000
3.188,-29.000,-60.000,-43.000,-104.500
3.189,-29.000,-60.500,-43.000,-105.000
3.190,-29.000,-61.000,-43.500,-105.000
3.191,-29.500,-61.000,-44.000,-105.500
3.192,-29.500,-61.500,-44.500,-106.000
3.193,-30.000,-62.000,-44.500,-106.000
3.194,-30.000,-62.000,-45.000,-106.500
3.195,-30.500,-62.500,-45.000,-106.500
3.196,-30.500,-62.500,-45.500,-107.000
3.197,-31.000,-62.500,-45.500,-107.000
3.198,-31.000,-62.000,-45.000,-107.000
3.199,-31.000,-62.000,-45.000,-106.500
3.200,-30.500,-61.500,-44.500,-106.000
3.201,-30.000,-61.000,-44.000,-105.500
3.202,-30.000,-60.500,-44.000,-105.000
3.203,-29.500,-60.000,-43.500,-105.000
3.204,-29.000,-60.000,-43.500,-105.000
3.205,-29.000,-59.500,-43.500,-104.500
3.206,-29.000,-59.500,-43.500,-104.500
3.207,-29.000,-59.500,-43.500,-104.500
3.208,-29.000,-59.500,-43.500,-104.500
3.209,-29.000,-60.000,-43.500,-104.500
3.210,-29.500,-60.000,-44.000,-104.500
3.211,-29.500,-60.000,-44.000,-104.500
3.212,-29.000,-60.500,-44.000,-104.500
3.213,-29.000,-60.000,-44.000,-104.500
3.214,-28.500,-60.000,-44.000,-104.500
3.215,-28.000,-59.500,-43.500,-105.000
3.216,-27.500,-59.000,-43.500,-105.000
3.217,-27.000,-58.500,-43.000,-105.000
3.218,-26.500,-58.000,-42.500,-104.500
3.219,-26.000,-58.000,-42.500,-104.500
3.220,-26.500,-58.000,-42.500,-104.500
3.221,-27.000,-58.500,-42.500,-105.000
3.222,-28.000,-60.000,-43.500,-105.500
3.223,-29.000,-61.500,-44.500,-106.000
3.224,-31.000,-63.000,-46.000,-107.000
3.225,-33.000,-66.000,-48.000,-108.500
3.226,-36.000,-69.000,-51.000,-110.500
3.227,-40.000,-72.500,-54.000,-112.500
3.228,-43.500,-76.000,-57.500,-114.500
3.229,-46.500,-79.500,-60.000,-116.500
3.230,-49.000,-82.000,-62.000,-117.500
3.231,-50.500,-83.500,-63.500,-118.500
3.232,-51.000,-84.000,-64.000,-119.000
3.233,-50.500,-84.000,-64.000,-118.500
3.234,-49.500,-82.500,-62.500,-118.000
3.235,-47.000,-80.000,-61.000,-116.500
3.236,-44.000,-77.000,-58.000,-114.500
3.237,-40.000,-72.500,-55.000,-112.500
3.238,-36.000,-68.000,-51.000,-110.000
3.239,-31.500,-63.000,-47.000,-107.500
3.240,-27.000,-59.000,-43.500,-105.000
3.241,-23.500,-55.000,-40.000,-103.000
3.242,-21.000,-52.000,-37.500,-101.500
3.243,-19.000,-50.500,-36.000,-100.500
3.244,-18.500,-50.000,-35.500,-100.000
3.245,-19.000,-50.000,-36.000,-100.500
3.246,-20.000,-51.500,-37.500,-101.500
3.247,-21.500,-53.500,-39.000,-102.500
3.248,-23.500,-55.500,-41.000,-103.500
3.249,-25.500,-57.500,-42.500,-105.000
3.250,-27.500,-59.000,-44.500,-106.500
3.251,-28.500,-61.000,-46.000,-107.500
3.252,-29.500,-62.000,-47.000,-108.000
3.253,-30.500,-63.000,-48.000,-108.500
3.254,-31.000,-63.500,-48.500,-109.000
3.255,-31.500,-64.000,-49.000,-109.500
3.256,-31.500,-64.000,-49.000,-109.500
3.257,-31.500,-64.000,-49.000,-109.500
3.258,-31.000,-64.000,-49.000,-109.500
3.259,-31.000,-63.500,-48.500,-109.000
3.260,-30.500,-63.000,-48.000,-109.000
3.261,-30.500,-63.000,-48.000,-108.500
3.262,-30.500,-63.000,-48.000,-109.000
3.263,-30.500,-63.000,-48.000,-109.000
3.264,-31.000,-63.000,-48.000,-109.000
3.265,-31.000,-63.000,-48.000,-109.000
3.266,-31.000,-63.000,-48.000,-109.000
3.267,-31.000,-63.000,-48.000,-109.000
3.268,-31.000,-63.000,-48.500,-109.500
3.269,-30.500,-63.000,-48.500,-109.500
3.270,-30.500,-63.500,-49.000,-109.500
3.271,-31.000,-63.500,-49.500,-110.000
3.272,-31.000,-63.500,-49.500,-110.500
3.273,-31.000,-63.500,-50.000,-110.500
3.274,-31.000,-63.500,-49.500,-110.500
3.275,-31.000,-63.500,-49.500,-110.000
3.276,-31.000,-63.000,-49.000,-110.000
3.277,-31.000,-62.500,-49.000,-109.500
3.278,-30.500,-62.000,-48.500,-109.500
3.279,-30.500,-62.000,-47.500,-109.000
3.280,-30.000,-61.500,-47.500,-108.500
3.281,-29.500,-61.500,-47.000,-108.500
3.282,-29.500,-61.000,-47.000,-108.000
3.283,-29.500,-61.000,-46.500,-108.000
3.284,-29.500,-61.000,-46.500,-107.500
3.285,-30.000,-61.000,-46.000,-107.500
3.286,-30.000,-61.000,-46.000,-107.000
3.287,-30.000,-61.000,-46.000,-107.000
3.288,-30.000,-61.000,-46.000,-107.000
3.289,-30.000,-61.000,-46.500,-107.000
3.290,-30.500,-61.500,-46.500,-107.000
3.291,-30.500,-61.500,-47.000,-107.000
3.292,-31.000,-62.000,-47.000,-107.500
3.293,-31.500,-62.500,-47.500,-108.000
3.294,-31.500,-63.000,-47.500,-108.000
3.295,-31.500,-63.000,-48.000,-108.500
3.296,-31.500,-63.000,-47.500,-108.500
3.297,-31.000,-62.500,-47.500,-108.500
3.298,-31.000,-62.500,-47.500,-108.500
3.299,-31.000,-62.000,-47.000,-108.000
3.300,-31.000,-62.000,-47.000,-108.000
3.301,-31.000,-61.500,-47.000,-108.000
3.302,-31.000,-61.500,-47.000,-108.000
3.303,-31.000,-61.500,-47.000,-108.000
3.304,-31.000,-62.000,-47.500,-108.000
3.305,-31.500,-62.500,-47.500,-108.500
3.306,-32.000,-63.000,-48.000,-109.000
3.307,-32.000,-63.000,-48.500,-109.500
3.308,-32.500,-63.500,-49.000,-110.500
3.309,-33.500,-64.000,-50.000,-111.000
3.310,-34.000,-64.500,-50.500,-112.000
3.311,-34.000,-65.000,-51.000,-113.000
3.312,-34.500,-65.500,-51.000,-113.500
3.313,-34.500,-66.000,-51.500,-113.500
3.314,-34.500,-66.500,-51.500,-114.000
3.315,-34.500,-66.500,-52.000,-114.000
3.316,-34.500,-66.500,-52.000,-114.500
3.317,-34.500,-66.500,-52.500,-114.500
3.318,-34.500,-66.500,-52.500,-114.500
3.319,-34.500,-66.500,-52.500,-114.500
3.320,-34.000,-66.500,-52.500,-114.500
3.321,-34.000,-66.000,-52.500,-114.000
3.322,-34.000,-66.000,-52.500,-114.000
3.323,-34.000,-66.000,-52.500,-114.000
3.324,-34.000,-66.000,-52.500,-114.500
3.325,-34.000,-66.000,-52.500,-114.500
3.326,-34.500,-66.000,-52.500,-114.500
3.327,-35.000,-66.500,-52.500,-115.000
3.328,-35.000,-67.000,-52.500,-115.500
3.329,-35.500,-67.500,-53.000,-116.000
3.330,-36.000,-68.000,-53.500,-116.500
3.331,-36.000,-68.000,-54.000,-117.000
3.332,-36.000,-68.500,-54.500,-117.000
3.333,-36.000,-69.000,-55.000,-117.500
3.334,-36.000,-69.000,-55.000,-118.000
3.335,-35.500,-69.000,-55.000,-118.000
3.336,-35.500,-69.000,-55.000,-118.000
3.337,-35.500,-69.000,-55.000,-117.500
3.338,-35.500,-69.000,-55.000,-117.000
3.339,-35.500,-69.000,-55.000,-116.500
3.340,-35.500,-69.000,-54.500,-116.500
3.341,-35.000,-68.500,-54.500,-116.000
3.342,-35.000,-68.500,-54.500,-116.000
3.343,-35.000,-68.000,-54.000,-116.000
3.344,-35.000,-68.000,-54.000,-115.500
3.345,-35.000,-68.000,-53.500,-115.500
3.346,-35.500,-68.000,-53.500,-115.500
3.347,-35.500,-68.000,-53.500,-115.500
3.348,-35.500,-68.000,-53.500,-115.500
3.349,-35.500,-68.500,-54.000,-116.000
3.350,-35.500,-68.500,-54.000,-116.000
3.351,-35.500,-69.000,-54.500,-116.500
3.352,-35.500,-69.000,-54.500,-116.500
3.353,-35.000,-69.000,-54.500,-116.500
3.354,-35.500,-69.500,-55.000,-117.000
3.355,-35.500,-69.500,-55.000,-117.000
3.356,-35.500,-69.500,-55.500,-117.500
3.357,-35.500,-69.500,-55.500,-117.500
3.358,-35.000,-69.000,-55.500,-117.500
3.359,-35.000,-69.000,-55.500,-117.000
3.360,-34.500,-68.500,-55.500,-117.000
3.361,-34.000,-68.500,-55.000,-117.000
3.362,-34.000,-68.000,-55.000,-117.000
3.363,-34.000,-68.000,-55.000,-117.000
3.364,-33.500,-68.000,-55.000,-116.500
3.365,-33.500,-68.000,-55.000,-116.500
3.366,-33.500,-68.000,-55.000,-116.500
3.367,-33.500,-68.000,-55.500,-116.500
3.368,-33.500,-68.000,-55.500,-116.500
3.369,-33.500,-68.500,-56.000,-117.000
3.370,-34.000,-68.500,-56.000,-117.000
3.371,-34.000,-69.000,-56.500,-117.500
3.372,-34.500,-69.000,-56.500,-117.500
3.373,-34.500,-69.000,-56.500,-118.000
3.374,-34.500,-69.500,-56.500,-118.000
3.375,-34.500,-69.500,-57.000,-118.000
3.376,-34.500,-69.500,-57.000,-118.000
3.377,-34.500,-69.500,-57.000,-118.000
3.378,-34.500,-69.500,-57.000,-118.000
3.379,-34.000,-70.000,-57.500,-118.000
3.380,-34.000,-70.000,-57.500,-118.000
3.381,-34.000,-70.000,-57.500,-118.500
3.382,-34.000,-70.500,-58.000,-118.500
3.383,-34.000,-71.000,-58.500,-119.000
3.384,-34.500,-71.500,-59.000,-120.000
3.385,-35.000,-72.000,-60.000,-120.500
3.386,-36.000,-73.500,-61.500,-122.000
3.387,-37.500,-74.500,-63.000,-123.500
3.388,-39.000,-76.500,-64.500,-125.000
3.389,-40.500,-78.000,-66.500,-126.500
3.390,-42.000,-80.000,-68.000,-128.000
3.391,-43.500,-81.500,-70.000,-129.500
3.392,-45.000,-82.500,-71.500,-130.500
3.393,-46.500,-84.000,-73.000,-131.500
3.394,-47.500,-85.500,-74.000,-132.500
3.395,-49.000,-86.500,-75.500,-133.500
3.396,-50.500,-88.000,-76.500,-134.000
3.397,-52.000,-89.500,-77.500,-134.000
3.398,-53.500,-90.500,-78.500,-134.500
3.399,-54.500,-91.000,-79.000,-134.000
3.400,-55.500,-91.500,-78.500,-133.500
3.401,-56.000,-91.500,-78.000,-132.500
3.402,-56.500,-91.500,-77.500,-131.500
3.403,-57.000,-91.500,-76.500,-130.000
3.404,-57.000,-91.000,-75.500,-128.500
3.405,-57.000,-90.500,-74.500,-127.000
3.406,-57.500,-90.000,-73.000,-125.500
3.407,-58.000,-89.500,-72.500,-123.500
3.408,-58.500,-89.500,-71.500,-122.500
3.409,-59.000,-89.500,-71.000,-121.500
3.410,-60.000,-89.500,-70.500,-120.500
3.411,-60.500,-89.500,-70.500,-119.500
