'Elapsed time','AECG1','AECG2','AECG3','AECG4'
'seconds','uV','uV','uV','uV'
0.000,-114.500,-6.500,91.500,-110.500
0.001,-110.500,-11.500,91.500,-107.500
0.002,-107.500,-16.000,91.000,-104.000
0.003,-105.500,-20.000,90.500,-100.000
0.004,-104.500,-23.000,90.500,-97.000
0.005,-105.500,-25.000,90.000,-94.500
0.006,-107.000,-25.500,90.000,-93.000
0.007,-109.500,-24.500,90.500,-93.000
0.008,-112.500,-22.000,90.500,-94.000
0.009,-115.500,-18.000,91.500,-96.000
0.010,-119.000,-14.000,92.000,-99.000
0.011,-122.500,-10.000,93.000,-103.000
0.012,-126.000,-6.000,94.000,-107.500
0.013,-129.000,-3.000,95.000,-111.500
0.014,-131.000,-0.500,96.000,-115.000
0.015,-132.000,1.500,97.000,-118.000
0.016,-132.000,2.000,97.500,-119.500
0.017,-130.500,1.500,98.000,-120.000
0.018,-127.500,-0.500,98.000,-119.500
0.019,-124.000,-3.000,97.500,-117.500
0.020,-120.000,-7.000,96.500,-114.500
0.021,-115.500,-11.500,95.000,-110.500
0.022,-112.000,-16.000,93.500,-106.500
0.023,-109.500,-19.500,92.500,-102.500
0.024,-107.500,-22.500,91.000,-99.000
0.025,-107.500,-24.000,90.000,-97.000
0.026,-108.000,-24.500,89.000,-96.000
0.027,-110.000,-24.000,88.500,-96.000
0.028,-112.000,-22.000,88.000,-97.000
0.029,-114.500,-19.000,88.500,-99.500
0.030,-117.500,-15.500,89.000,-102.500
0.031,-120.000,-11.500,89.500,-106.000
0.032,-122.000,-8.000,90.500,-109.500
0.033,-123.000,-5.000,91.500,-113.000
0.034,-123.500,-3.000,92.000,-116.000
0.035,-122.500,-2.000,92.500,-118.500
0.036,-120.500,-1.500,92.500,-120.000
0.037,-118.000,-2.000,92.500,-120.500
0.038,-115.000,-3.500,92.500,-120.000
0.039,-111.500,-6.500,92.000,-118.000
0.040,-108.000,-10.500,91.000,-115.000
0.041,-104.500,-14.500,89.500,-111.000
0.042,-101.500,-19.500,88.000,-106.500
0.043,-99.000,-23.500,86.500,-102.500
0.044,-98.000,-26.500,85.000,-98.500
0.045,-97.500,-28.500,83.500,-95.500
0.046,-98.500,-29.000,83.000,-94.000
0.047,-99.500,-28.500,82.500,-94.000
0.048,-101.500,-26.500,82.500,-95.500
0.049,-104.000,-23.000,83.000,-98.500
0.050,-106.500,-19.500,83.500,-103.000
0.051,-109.000,-15.000,85.000,-109.000
0.052,-111.000,-11.000,86.000,-116.000
0.053,-113.000,-7.500,86.500,-123.000
0.054,-114.000,-5.000,87.500,-129.000
0.055,-114.000,-4.000,87.500,-133.000
0.056,-113.000,-3.500,88.000,-134.500
0.057,-111.000,-4.500,87.500,-133.000
0.058,-108.000,-6.500,87.000,-129.000
0.059,-104.000,-10.000,86.500,-123.000
0.060,-99.500,-14.000,85.500,-116.000
0.061,-95.000,-18.000,84.500,-109.000
0.062,-91.500,-22.500,83.500,-103.500
0.063,-89.500,-26.000,82.500,-99.000
0.064,-88.500,-29.500,81.500,-95.500
0.065,-89.500,-31.500,80.500,-93.500
0.066,-92.000,-32.000,79.500,-93.000
0.067,-96.000,-31.500,79.000,-93.500
0.068,-100.500,-30.000,79.000,-95.000
0.069,-105.500,-26.500,80.000,-98.000
0.070,-110.000,-23.000,81.000,-101.000
0.071,-113.500,-18.500,82.000,-105.000
0.072,-115.500,-14.500,83.000,-109.500
0.073,-117.000,-11.000,84.000,-113.500
0.074,-117.000,-8.500,84.500,-117.000
0.075,-117.500,-7.000,85.000,-120.000
0.076,-117.000,-6.500,85.000,-122.000
0.077,-116.000,-7.000,84.500,-122.500
0.078,-114.000,-9.000,84.000,-121.500
0.079,-111.500,-12.000,83.000,-119.500
0.080,-108.000,-16.000,81.500,-116.000
0.081,-104.500,-20.500,80.000,-112.000
0.082,-101.000,-24.500,78.500,-108.000
0.083,-98.500,-28.500,77.000,-104.000
0.084,-97.000,-31.000,76.000,-100.500
0.085,-96.500,-32.500,75.000,-97.500
0.086,-97.500,-33.000,74.500,-95.500
0.087,-99.000,-31.500,74.500,-94.500
0.088,-101.000,-29.000,75.000,-94.500
0.089,-103.500,-25.500,76.500,-96.000
0.090,-106.500,-21.500,77.500,-98.500
0.091,-109.500,-17.000,79.000,-102.000
0.092,-112.500,-12.500,80.500,-106.500
0.093,-115.000,-8.500,81.500,-110.500
0.094,-117.000,-5.500,82.500,-114.500
0.095,-118.000,-3.500,83.500,-117.500
0.096,-118.000,-3.000,84.000,-120.000
0.097,-117.000,-3.500,84.500,-121.000
0.098,-115.500,-5.500,84.000,-120.500
0.099,-113.000,-9.000,83.500,-119.000
0.100,-109.500,-13.000,82.500,-116.000
0.101,-105.500,-18.000,81.000,-112.000
0.102,-101.000,-23.000,79.000,-107.500
0.103,-97.000,-27.000,77.500,-103.500
0.104,-94.500,-30.500,75.500,-100.000
0.105,-93.000,-32.500,74.000,-97.500
0.106,-93.000,-33.500,72.500,-96.000
0.107,-94.500,-33.500,71.500,-95.500
0.108,-96.500,-32.000,71.000,-96.500
0.109,-99.000,-29.500,71.000,-98.500
0.110,-102.000,-26.000,71.500,-102.000
0.111,-105.000,-22.000,72.500,-106.000
0.112,-108.000,-18.000,73.500,-110.500
0.113,-110.500,-14.500,75.000,-114.500
0.114,-112.500,-11.500,76.500,-118.000
0.115,-113.000,-9.000,78.000,-121.000
0.116,-113.000,-8.000,78.500,-122.500
0.117,-112.500,-8.500,79.000,-123.000
0.118,-110.500,-10.500,79.000,-122.500
0.119,-108.000,-14.000,78.000,-121.000
0.120,-105.500,-18.000,77.000,-118.500
0.121,-103.000,-23.000,75.500,-115.500
0.122,-100.500,-28.500,74.000,-111.500
0.123,-99.000,-33.000,72.000,-107.000
0.124,-98.500,-36.500,70.500,-103.500
0.125,-98.500,-38.500,69.000,-100.500
0.126,-100.000,-39.000,68.000,-99.500
0.127,-101.500,-38.500,67.500,-99.500
0.128,-104.000,-37.000,67.500,-101.500
0.129,-107.000,-34.000,68.000,-104.000
0.130,-110.000,-30.500,69.500,-108.000
0.131,-113.000,-26.500,71.000,-112.000
0.132,-116.000,-22.000,73.000,-116.000
0.133,-118.500,-18.000,75.000,-119.500
0.134,-120.500,-15.000,77.000,-123.000
0.135,-121.500,-13.000,78.500,-125.000
0.136,-121.500,-12.000,79.000,-126.500
0.137,-120.000,-12.500,79.000,-127.000
0.138,-118.000,-15.000,78.500,-126.500
0.139,-114.500,-18.000,77.500,-124.500
0.140,-110.500,-22.500,76.000,-121.500
0.141,-106.500,-27.500,74.500,-117.500
0.142,-102.500,-32.500,73.500,-113.500
0.143,-99.500,-36.500,72.000,-109.500
0.144,-97.500,-39.500,71.000,-106.000
0.145,-96.500,-41.000,70.000,-103.500
0.146,-97.000,-41.500,69.500,-102.500
0.147,-98.000,-40.500,69.500,-102.500
0.148,-100.000,-38.500,69.500,-103.500
0.149,-102.000,-35.500,70.000,-105.500
0.150,-104.500,-32.000,71.000,-108.500
0.151,-106.500,-27.500,72.500,-112.000
0.152,-109.000,-23.500,74.000,-116.000
0.153,-111.000,-19.500,75.500,-119.000
0.154,-113.000,-17.000,77.000,-122.000
0.155,-114.500,-15.000,78.500,-124.500
0.156,-114.500,-14.500,79.500,-126.000
0.157,-114.000,-15.500,80.000,-126.500
0.158,-111.500,-18.000,80.000,-126.000
0.159,-107.500,-21.000,79.500,-123.500
0.160,-103.000,-25.500,79.000,-120.500
0.161,-98.000,-30.000,78.000,-116.500
0.162,-93.500,-34.000,77.000,-112.000
0.163,-90.500,-38.000,76.000,-108.000
0.164,-89.000,-41.000,75.000,-104.500
0.165,-89.500,-42.500,74.000,-102.000
0.166,-91.500,-42.500,74.000,-100.500
0.167,-94.500,-42.000,74.000,-101.000
0.168,-98.500,-40.000,74.500,-102.500
0.169,-102.500,-37.500,75.500,-106.000
0.170,-106.500,-34.000,76.500,-109.500
0.171,-111.000,-30.000,77.500,-114.000
0.172,-115.000,-26.500,79.000,-118.000
0.173,-118.000,-23.000,80.000,-122.000
0.174,-119.500,-20.500,81.000,-126.000
0.175,-120.000,-19.000,81.500,-128.500
0.176,-118.500,-18.500,82.000,-131.000
0.177,-116.000,-19.000,81.500,-132.000
0.178,-112.000,-21.000,81.000,-132.500
0.179,-108.000,-24.500,80.000,-132.000
0.180,-103.000,-28.500,79.000,-131.000
0.181,-99.000,-33.000,78.000,-129.500
0.182,-95.000,-37.500,77.000,-127.000
0.183,-92.500,-41.000,75.500,-123.500
0.184,-91.000,-44.000,74.500,-118.500
0.185,-90.500,-46.000,73.500,-113.000
0.186,-92.000,-46.500,72.500,-107.500
0.187,-94.000,-46.000,72.500,-102.500
0.188,-96.000,-43.500,73.000,-100.000
0.189,-98.500,-40.500,74.000,-99.500
0.190,-100.500,-36.500,75.500,-101.500
0.191,-102.500,-32.000,77.000,-104.500
0.192,-103.500,-28.000,78.500,-108.500
0.193,-104.500,-24.000,80.000,-113.000
0.194,-105.500,-21.000,81.500,-116.500
0.195,-106.000,-18.500,82.500,-119.500
0.196,-106.000,-17.500,83.000,-121.500
0.197,-105.500,-17.500,83.000,-122.500
0.198,-103.500,-19.000,82.500,-122.000
0.199,-100.000,-22.000,81.500,-120.500
0.200,-95.000,-26.000,80.500,-117.500
0.201,-90.000,-30.500,78.500,-113.500
0.202,-85.000,-35.000,76.500,-109.000
0.203,-81.000,-39.500,74.500,-104.500
0.204,-78.500,-42.500,72.500,-100.500
0.205,-77.000,-44.500,71.000,-97.500
0.206,-76.500,-46.000,69.500,-95.500
0.207,-77.500,-46.000,68.500,-94.500
0.208,-79.000,-45.000,67.500,-94.500
0.209,-81.000,-43.500,67.500,-95.500
0.210,-83.000,-41.000,67.500,-96.500
0.211,-85.000,-38.500,68.000,-97.500
0.212,-86.500,-36.000,68.500,-98.500
0.213,-87.500,-34.000,69.500,-99.000
0.214,-87.500,-32.500,70.000,-99.000
0.215,-87.000,-32.000,70.000,-97.500
0.216,-85.500,-33.000,69.500,-94.500
0.217,-82.000,-35.000,68.500,-90.000
0.218,-77.500,-38.500,66.500,-83.500
0.219,-72.000,-44.000,64.500,-76.000
0.220,-66.000,-50.500,62.000,-68.000
0.221,-60.500,-58.500,59.000,-58.500
0.222,-55.000,-66.500,55.500,-49.500
0.223,-51.000,-75.000,52.500,-40.000
0.224,-48.000,-82.000,50.000,-31.500
0.225,-46.500,-87.500,47.500,-24.500
0.226,-46.000,-91.500,46.500,-18.500
0.227,-47.500,-93.000,45.500,-15.000
0.228,-49.500,-93.000,45.000,-13.000
0.229,-53.000,-91.000,45.500,-12.000
0.230,-56.500,-88.500,46.500,-12.500
0.231,-60.500,-84.500,48.000,-14.000
0.232,-64.500,-81.000,50.500,-15.500
0.233,-68.000,-77.000,53.000,-17.500
0.234,-71.500,-73.500,55.500,-19.500
0.235,-74.000,-70.000,58.500,-22.000
0.236,-76.000,-67.500,61.000,-25.000
0.237,-77.500,-65.500,63.500,-28.500
0.238,-78.500,-64.000,66.000,-33.000
0.239,-79.000,-62.000,68.500,-38.500
0.240,-79.500,-60.000,71.500,-44.500
0.241,-80.500,-57.500,74.500,-52.000
0.242,-82.000,-54.500,78.000,-59.500
0.243,-84.500,-51.500,81.000,-67.500
0.244,-87.500,-48.000,83.500,-74.500
0.245,-91.500,-44.500,86.000,-81.000
0.246,-95.500,-41.000,87.500,-86.500
0.247,-100.500,-37.000,88.500,-91.500
0.248,-105.000,-32.500,89.500,-96.000
0.249,-109.000,-28.000,90.500,-100.500
0.250,-113.000,-23.000,91.500,-104.500
0.251,-116.000,-18.000,92.500,-109.000
0.252,-119.000,-13.000,93.500,-113.500
0.253,-121.000,-9.500,94.500,-117.500
0.254,-122.500,-6.500,95.000,-121.000
0.255,-123.000,-5.000,95.500,-123.500
0.256,-122.500,-4.500,95.000,-125.000
0.257,-121.000,-5.000,94.500,-125.500
0.258,-118.000,-7.000,93.000,-124.000
0.259,-114.000,-11.000,91.500,-121.500
0.260,-109.000,-15.500,88.500,-118.500
0.261,-104.000,-21.000,86.000,-114.000
0.262,-99.500,-27.000,83.000,-110.000
0.263,-96.000,-32.500,80.000,-106.000
0.264,-94.000,-37.000,77.000,-102.500
0.265,-93.000,-40.000,74.500,-99.500
0.266,-94.000,-42.000,73.000,-98.000
0.267,-95.500,-42.500,71.500,-97.000
0.268,-97.500,-41.500,71.000,-98.000
0.269,-100.500,-39.500,71.000,-100.000
0.270,-103.500,-36.500,71.000,-103.500
0.271,-107.000,-33.000,72.000,-108.000
0.272,-110.000,-29.500,73.000,-112.500
0.273,-112.500,-26.500,74.000,-117.000
0.274,-114.000,-23.500,75.000,-121.000
0.275,-114.500,-22.000,76.000,-124.000
0.276,-113.500,-21.500,76.500,-125.000
0.277,-111.500,-22.000,77.000,-125.500
0.278,-108.000,-24.000,77.000,-124.000
0.279,-104.000,-27.500,76.000,-121.500
0.280,-100.000,-31.500,75.000,-118.500
0.281,-96.000,-36.000,73.500,-114.500
0.282,-93.000,-41.000,72.000,-110.500
0.283,-91.000,-45.000,70.000,-106.500
0.284,-89.500,-48.500,68.000,-103.000
0.285,-90.000,-50.500,66.500,-100.500
0.286,-91.000,-51.000,65.000,-99.000
0.287,-93.000,-50.500,64.500,-98.500
0.288,-96.000,-48.500,64.500,-99.500
0.289,-99.500,-46.000,64.500,-101.500
0.290,-102.500,-42.500,65.500,-105.000
0.291,-106.000,-38.500,66.500,-109.000
0.292,-109.000,-34.500,67.500,-113.500
0.293,-111.000,-31.000,68.500,-118.000
0.294,-112.500,-28.000,69.500,-121.500
0.295,-113.000,-26.000,70.500,-124.500
0.296,-113.000,-25.500,70.500,-126.500
0.297,-111.500,-26.000,70.500,-127.000
0.298,-109.000,-28.500,70.500,-126.000
0.299,-105.500,-32.500,69.500,-123.500
0.300,-101.000,-37.000,68.500,-120.000
0.301,-96.000,-41.500,67.000,-116.000
0.302,-92.000,-46.000,66.000,-111.500
0.303,-88.500,-49.000,65.000,-107.000
0.304,-86.500,-51.500,64.500,-104.000
0.305,-86.000,-52.500,64.000,-102.000
0.306,-87.500,-52.500,63.500,-102.000
0.307,-89.500,-51.500,63.500,-104.000
0.308,-92.500,-50.000,63.500,-107.500
0.309,-96.000,-47.500,64.000,-112.000
0.310,-99.500,-44.000,64.500,-116.000
0.311,-102.500,-40.000,65.000,-119.500
0.312,-104.500,-36.000,66.000,-121.500
0.313,-106.000,-32.000,67.000,-122.500
0.314,-106.500,-29.000,68.000,-122.500
0.315,-107.000,-27.000,68.500,-122.500
0.316,-106.500,-27.000,69.000,-122.000
0.317,-105.500,-28.000,69.000,-122.000
0.318,-103.000,-30.500,68.500,-121.500
0.319,-100.000,-34.500,67.500,-120.000
0.320,-96.500,-39.000,66.000,-117.500
0.321,-92.500,-43.500,64.500,-114.000
0.322,-89.000,-48.000,62.500,-111.000
0.323,-86.000,-52.000,60.500,-107.500
0.324,-84.000,-55.000,58.500,-104.500
0.325,-84.000,-57.000,57.000,-102.500
0.326,-86.000,-57.500,55.500,-101.500
0.327,-89.000,-57.000,54.500,-101.500
0.328,-93.000,-55.500,54.500,-102.500
0.329,-98.000,-52.500,54.500,-105.000
0.330,-102.500,-49.000,55.500,-108.000
0.331,-107.000,-45.000,56.500,-112.000
0.332,-110.500,-41.000,57.500,-116.000
0.333,-113.000,-37.000,58.500,-120.000
0.334,-114.500,-34.000,59.500,-123.500
0.335,-114.500,-32.000,60.500,-126.500
0.336,-113.500,-31.000,61.000,-128.500
0.337,-111.000,-31.000,61.500,-129.500
0.338,-108.000,-32.500,61.000,-129.000
0.339,-103.500,-35.000,60.500,-127.000
0.340,-98.500,-38.000,60.000,-124.000
0.341,-93.500,-42.000,59.000,-120.000
0.342,-88.500,-46.000,58.000,-115.000
0.343,-85.000,-49.500,56.500,-110.500
0.344,-83.000,-52.000,55.500,-106.000
0.345,-83.000,-53.500,54.500,-102.500
0.346,-84.000,-53.500,54.000,-99.500
0.347,-86.500,-52.500,53.500,-98.000
0.348,-89.500,-49.500,53.500,-98.000
0.349,-93.500,-46.000,54.500,-99.000
0.350,-97.500,-42.000,55.000,-101.000
0.351,-102.000,-38.500,56.500,-104.500
0.352,-106.000,-35.000,57.500,-108.000
0.353,-109.000,-32.000,58.500,-111.500
0.354,-111.500,-29.000,59.000,-115.500
0.355,-112.500,-26.500,59.500,-118.500
0.356,-112.500,-25.500,59.500,-120.500
0.357,-111.000,-26.000,59.500,-121.000
0.358,-108.500,-28.000,58.500,-120.500
0.359,-105.500,-32.500,57.500,-118.500
0.360,-102.000,-37.500,55.500,-115.000
0.361,-99.000,-43.000,53.500,-110.500
0.362,-96.500,-48.000,51.500,-106.000
0.363,-95.500,-52.000,50.000,-101.000
0.364,-95.000,-55.000,49.000,-96.500
0.365,-96.000,-56.500,48.000,-93.000
0.366,-98.000,-57.000,47.000,-91.000
0.367,-100.000,-56.000,46.500,-90.500
0.368,-102.500,-54.000,47.000,-91.500
0.369,-105.500,-51.000,47.500,-94.000
0.370,-108.500,-47.000,48.000,-97.500
0.371,-111.500,-43.000,49.500,-102.500
0.372,-114.500,-38.500,51.000,-107.500
0.373,-117.000,-34.500,52.000,-112.500
0.374,-118.500,-31.500,53.500,-116.500
0.375,-120.000,-29.000,54.500,-119.500
0.376,-120.500,-28.500,55.500,-121.500
0.377,-120.000,-28.500,56.000,-121.500
0.378,-118.500,-30.500,55.500,-120.000
0.379,-115.500,-33.500,55.000,-117.000
0.380,-111.500,-37.500,53.500,-112.500
0.381,-107.500,-42.500,52.000,-107.500
0.382,-103.500,-47.000,50.000,-102.500
0.383,-100.500,-52.000,48.000,-97.500
0.384,-98.500,-55.500,46.000,-93.500
0.385,-98.500,-58.500,44.500,-91.000
0.386,-99.500,-59.500,43.000,-89.500
0.387,-101.500,-59.500,42.500,-89.000
0.388,-104.000,-57.500,42.500,-90.500
0.389,-106.500,-55.000,43.000,-93.000
0.390,-109.000,-51.500,44.000,-97.000
0.391,-111.000,-47.000,45.000,-102.000
0.392,-112.500,-43.000,46.000,-107.000
0.393,-113.500,-39.500,47.000,-111.000
0.394,-113.500,-36.000,48.000,-115.000
0.395,-113.500,-34.000,48.500,-117.000
0.396,-112.500,-32.500,49.000,-118.500
0.397,-110.500,-33.000,49.000,-118.500
0.398,-108.000,-35.000,49.000,-117.500
0.399,-104.500,-38.500,48.000,-115.000
0.400,-100.500,-43.000,47.000,-111.500
0.401,-96.000,-48.500,45.500,-107.000
0.402,-91.500,-53.000,44.000,-102.500
0.403,-87.500,-57.000,42.500,-98.500
0.404,-85.000,-60.000,41.000,-95.000
0.405,-83.500,-61.500,40.000,-92.500
0.406,-83.500,-61.500,39.000,-91.500
0.407,-85.500,-60.500,39.000,-91.500
0.408,-88.000,-58.500,39.000,-93.500
0.409,-91.500,-55.500,40.000,-96.000
0.410,-94.500,-51.500,41.000,-99.500
0.411,-98.000,-47.500,42.500,-103.000
0.412,-100.500,-43.500,44.000,-106.000
0.413,-102.500,-40.500,45.500,-109.000
0.414,-103.500,-37.500,46.500,-111.500
0.415,-104.000,-35.500,47.500,-113.500
0.416,-103.500,-35.000,47.500,-114.500
0.417,-102.000,-36.000,47.500,-114.500
0.418,-99.500,-38.000,47.000,-113.000
0.419,-96.000,-42.000,46.500,-110.500
0.420,-92.000,-46.500,45.500,-107.000
0.421,-88.000,-51.500,44.500,-103.000
0.422,-84.500,-56.000,43.000,-98.500
0.423,-82.500,-60.000,41.000,-95.000
0.424,-81.500,-63.000,39.500,-92.000
0.425,-81.500,-64.500,38.000,-91.000
0.426,-83.000,-64.500,36.500,-91.500
0.427,-85.000,-63.500,35.500,-93.500
0.428,-87.500,-61.500,35.000,-96.500
0.429,-90.000,-59.000,35.000,-99.000
0.430,-92.500,-56.000,35.500,-101.000
0.431,-95.000,-52.500,36.500,-102.000
0.432,-97.000,-49.000,37.500,-103.000
0.433,-98.500,-46.000,38.500,-103.500
0.434,-100.000,-43.500,39.500,-104.500
0.435,-100.500,-42.000,40.000,-106.000
0.436,-100.500,-42.000,40.500,-108.000
0.437,-99.500,-43.500,40.000,-109.000
0.438,-97.500,-47.000,39.500,-109.000
0.439,-94.000,-51.000,38.000,-107.500
0.440,-90.000,-56.000,36.500,-104.500
0.441,-85.500,-61.500,34.500,-100.000
0.442,-81.500,-66.500,32.500,-95.500
0.443,-78.000,-70.500,30.500,-90.500
0.444,-75.500,-73.500,28.000,-86.500
0.445,-74.000,-75.500,26.000,-83.000
0.446,-73.000,-76.500,24.000,-80.500
0.447,-73.000,-75.500,22.500,-79.000
0.448,-74.000,-73.500,21.500,-78.500
0.449,-75.500,-70.500,20.500,-79.000
0.450,-77.000,-67.000,20.000,-80.500
0.451,-79.000,-63.500,20.000,-83.000
0.452,-81.000,-59.500,20.000,-86.000
0.453,-82.500,-55.500,20.500,-89.500
0.454,-84.500,-52.500,21.500,-92.500
0.455,-86.000,-49.500,22.500,-95.500
0.456,-86.500,-48.000,23.500,-97.000
0.457,-86.500,-47.500,25.000,-98.000
0.458,-85.500,-48.500,25.500,-98.000
0.459,-83.000,-51.000,26.500,-97.000
0.460,-80.500,-55.000,26.500,-95.000
0.461,-77.500,-59.000,26.000,-93.000
0.462,-75.000,-63.500,25.500,-90.500
0.463,-74.000,-67.500,24.500,-88.000
0.464,-73.500,-71.000,23.500,-86.000
0.465,-74.500,-73.500,22.000,-85.000
0.466,-76.500,-75.000,21.500,-84.000
0.467,-79.500,-75.000,20.500,-84.000
0.468,-82.500,-73.500,20.500,-85.000
0.469,-86.500,-71.000,20.500,-87.000
0.470,-90.000,-67.000,21.000,-89.500
0.471,-94.000,-62.500,22.000,-93.500
0.472,-97.000,-58.000,23.000,-97.500
0.473,-99.500,-53.500,24.000,-101.500
0.474,-100.500,-50.000,25.500,-105.000
0.475,-100.000,-47.000,26.000,-108.500
0.476,-98.500,-45.500,26.500,-111.000
0.477,-96.000,-45.000,26.500,-112.000
0.478,-92.500,-47.000,25.500,-112.000
0.479,-88.500,-50.500,24.500,-110.500
0.480,-84.000,-56.000,22.500,-107.500
0.481,-80.000,-63.000,20.000,-103.500
0.482,-77.000,-69.500,17.500,-99.000
0.483,-74.500,-75.000,15.000,-95.000
0.484,-73.500,-79.000,13.000,-91.000
0.485,-73.500,-81.000,11.000,-88.500
0.486,-74.000,-82.000,9.500,-87.500
0.487,-75.500,-81.000,9.000,-88.000
0.488,-77.500,-79.500,8.500,-90.000
0.489,-80.000,-76.500,8.500,-93.000
0.490,-82.500,-72.500,9.000,-97.000
0.491,-85.000,-68.000,9.500,-102.000
0.492,-87.500,-63.000,10.500,-106.500
0.493,-90.000,-59.000,12.000,-111.000
0.494,-91.500,-55.000,13.500,-115.000
0.495,-92.000,-52.500,15.000,-118.000
0.496,-91.500,-51.000,16.000,-120.000
0.497,-90.000,-50.500,17.000,-120.500
0.498,-87.000,-51.500,17.500,-120.000
0.499,-82.500,-53.500,17.000,-117.500
0.500,-78.000,-57.000,16.500,-114.500
0.501,-73.500,-60.500,15.500,-110.500
0.502,-70.500,-64.500,14.000,-106.000
0.503,-68.000,-68.000,12.500,-101.500
0.504,-67.500,-71.000,11.500,-97.500
0.505,-68.500,-72.500,10.500,-94.500
0.506,-70.500,-72.500,10.500,-92.500
0.507,-73.000,-71.000,10.500,-92.000
0.508,-76.000,-68.000,11.000,-92.500
0.509,-79.000,-64.000,12.000,-94.000
0.510,-82.000,-59.500,13.500,-96.000
0.511,-84.500,-55.000,15.500,-99.500
0.512,-87.000,-50.000,17.000,-103.000
0.513,-89.000,-45.500,18.500,-106.500
0.514,-90.500,-41.500,20.000,-110.000
0.515,-91.000,-39.000,21.000,-113.000
0.516,-90.500,-38.500,21.500,-115.000
0.517,-89.000,-39.000,21.500,-116.500
0.518,-86.000,-41.000,20.500,-116.500
0.519,-82.500,-44.000,19.500,-115.000
0.520,-77.500,-48.000,18.500,-113.000
0.521,-73.000,-52.000,17.000,-109.500
0.522,-69.000,-56.000,15.500,-106.000
0.523,-65.500,-59.500,14.000,-102.000
0.524,-63.500,-61.500,12.500,-99.000
0.525,-62.500,-63.000,11.500,-96.500
0.526,-63.500,-62.500,11.000,-94.500
0.527,-65.500,-61.500,11.500,-94.000
0.528,-68.500,-58.500,12.000,-94.500
0.529,-72.000,-55.000,13.000,-96.000
0.530,-76.000,-50.500,14.500,-99.000
0.531,-79.500,-46.000,16.000,-102.500
0.532,-83.000,-41.500,17.500,-106.000
0.533,-85.500,-38.000,18.500,-109.500
0.534,-87.500,-36.000,20.000,-113.000
0.535,-88.500,-35.000,20.500,-115.500
0.536,-88.000,-34.500,21.000,-117.500
0.537,-86.500,-35.500,21.000,-118.500
0.538,-84.000,-37.000,20.500,-118.000
0.539,-79.500,-39.500,19.500,-116.500
0.540,-75.000,-42.500,18.500,-113.500
0.541,-70.500,-46.000,17.500,-110.500
0.542,-66.500,-50.000,16.000,-107.500
0.543,-63.500,-53.500,14.000,-105.500
0.544,-62.000,-57.000,12.500,-104.000
0.545,-62.000,-59.000,10.500,-102.500
0.546,-63.500,-60.000,9.500,-101.500
0.547,-66.000,-59.500,9.000,-99.500
0.548,-68.500,-58.000,9.000,-97.000
0.549,-71.500,-55.000,10.000,-95.000
0.550,-74.500,-51.000,11.000,-93.500
0.551,-77.000,-47.000,12.500,-93.500
0.552,-79.000,-42.500,14.500,-95.500
0.553,-80.500,-38.000,16.500,-99.000
0.554,-81.500,-35.000,18.000,-102.500
0.555,-81.000,-32.500,19.000,-106.000
0.556,-80.500,-31.500,19.500,-108.500
0.557,-78.500,-32.000,19.000,-110.000
0.558,-76.000,-34.000,18.000,-110.000
0.559,-72.500,-37.500,16.000,-108.000
0.560,-69.000,-41.500,14.000,-105.000
0.561,-65.500,-46.000,12.000,-101.500
0.562,-63.000,-51.000,10.000,-97.500
0.563,-61.000,-55.000,8.500,-93.500
0.564,-60.000,-58.500,7.000,-90.500
0.565,-60.500,-60.500,5.500,-88.000
0.566,-62.000,-61.000,4.500,-87.000
0.567,-65.000,-61.000,4.000,-87.500
0.568,-68.500,-59.500,4.000,-89.000
0.569,-73.000,-56.500,4.000,-92.500
0.570,-77.500,-53.000,4.500,-96.500
0.571,-82.000,-49.000,5.500,-101.500
0.572,-85.500,-45.000,6.500,-106.500
0.573,-89.000,-41.500,7.500,-111.000
0.574,-91.000,-39.000,8.500,-114.500
0.575,-92.500,-37.000,9.000,-117.000
0.576,-93.000,-36.000,9.000,-118.000
0.577,-92.500,-36.500,9.000,-118.500
0.578,-90.500,-38.000,8.000,-117.500
0.579,-87.500,-41.500,7.000,-115.500
0.580,-83.500,-45.500,5.000,-113.000
0.581,-79.000,-50.500,2.500,-110.000
0.582,-74.500,-56.000,-0.500,-106.500
0.583,-71.000,-60.500,-3.000,-103.500
0.584,-68.500,-64.000,-5.000,-100.500
0.585,-67.500,-66.500,-7.000,-98.500
0.586,-68.500,-67.500,-8.500,-97.500
0.587,-70.500,-66.500,-9.000,-97.000
0.588,-73.500,-64.500,-8.500,-97.500
0.589,-77.000,-61.000,-7.500,-99.000
0.590,-80.500,-57.000,-6.000,-101.500
0.591,-84.000,-52.500,-4.000,-105.000
0.592,-86.500,-48.000,-2.000,-108.500
0.593,-89.000,-44.000,-0.500,-112.000
0.594,-90.500,-41.000,1.500,-115.000
0.595,-91.000,-39.500,2.500,-117.500
0.596,-91.000,-39.000,3.000,-119.000
0.597,-90.000,-40.500,3.000,-120.000
0.598,-88.500,-43.000,2.500,-119.000
0.599,-85.500,-46.500,1.500,-117.000
0.600,-82.500,-51.000,0.500,-113.500
0.601,-80.000,-56.000,-1.000,-110.000
0.602,-78.000,-61.000,-2.500,-106.000
0.603,-76.500,-65.000,-3.500,-102.000
0.604,-76.500,-68.000,-5.000,-99.000
0.605,-77.500,-70.500,-6.000,-96.500
0.606,-79.500,-71.500,-7.000,-95.500
0.607,-82.500,-71.500,-8.000,-95.500
0.608,-86.000,-69.500,-8.500,-97.000
0.609,-89.500,-66.500,-8.500,-99.500
0.610,-93.000,-62.500,-8.500,-103.000
0.611,-96.000,-58.000,-8.000,-106.500
0.612,-98.500,-53.000,-7.000,-110.000
0.613,-100.500,-49.000,-6.000,-113.000
0.614,-102.000,-45.000,-5.000,-115.000
0.615,-102.500,-42.000,-4.000,-117.000
0.616,-102.500,-40.500,-3.500,-118.000
0.617,-101.000,-40.500,-3.500,-118.000
0.618,-98.000,-42.500,-4.000,-117.500
0.619,-94.500,-46.000,-5.000,-116.000
0.620,-90.000,-51.000,-6.500,-113.000
0.621,-86.000,-57.000,-8.500,-109.000
0.622,-82.500,-63.000,-11.000,-105.000
0.623,-80.000,-68.000,-13.000,-101.000
0.624,-78.500,-72.000,-14.500,-97.500
0.625,-78.500,-73.500,-16.000,-94.500
0.626,-79.000,-73.500,-16.500,-93.000
0.627,-80.500,-72.000,-17.000,-92.500
0.628,-82.000,-69.500,-17.000,-93.500
0.629,-83.500,-65.500,-16.000,-95.500
0.630,-85.500,-61.500,-15.000,-98.500
0.631,-87.500,-57.000,-13.500,-101.500
0.632,-89.500,-52.500,-11.500,-105.000
0.633,-91.000,-48.500,-9.500,-108.500
0.634,-91.500,-45.500,-8.000,-111.500
0.635,-92.000,-43.500,-6.500,-113.500
0.636,-91.000,-43.000,-6.000,-115.000
0.637,-89.500,-44.000,-5.500,-115.500
0.638,-86.500,-46.500,-6.000,-114.500
0.639,-83.000,-50.000,-6.500,-112.500
0.640,-78.500,-54.000,-7.500,-109.000
0.641,-74.500,-58.500,-9.000,-105.000
0.642,-70.500,-63.500,-10.000,-100.500
0.643,-67.000,-68.000,-11.500,-95.500
0.644,-65.000,-72.000,-13.000,-91.500
0.645,-64.500,-74.500,-14.000,-88.500
0.646,-65.500,-75.500,-14.500,-87.000
0.647,-67.500,-75.500,-15.500,-86.500
0.648,-70.000,-74.000,-15.500,-88.000
0.649,-74.000,-71.000,-15.500,-90.000
0.650,-78.500,-68.000,-15.500,-93.000
0.651,-83.000,-64.000,-14.500,-97.000
0.652,-87.500,-59.500,-13.500,-101.000
0.653,-91.000,-55.500,-12.000,-104.500
0.654,-93.500,-51.500,-11.000,-108.000
0.655,-95.000,-48.500,-9.500,-110.500
0.656,-95.500,-47.000,-8.500,-112.500
0.657,-94.500,-46.500,-8.500,-114.000
0.658,-93.000,-47.500,-8.500,-115.000
0.659,-89.500,-50.000,-9.000,-115.500
0.660,-86.000,-54.000,-10.000,-115.000
0.661,-81.500,-58.500,-11.000,-113.000
0.662,-78.000,-63.500,-13.000,-109.000
0.663,-75.000,-68.000,-15.000,-104.000
0.664,-73.500,-72.000,-17.000,-98.000
0.665,-73.500,-74.500,-18.500,-92.500
0.666,-75.000,-75.500,-20.000,-88.500
0.667,-77.000,-75.000,-21.000,-86.500
0.668,-79.500,-74.000,-21.500,-86.500
0.669,-82.500,-71.500,-21.500,-89.000
0.670,-85.500,-68.000,-21.000,-92.500
0.671,-89.000,-64.000,-20.000,-97.000
0.672,-92.000,-60.000,-18.500,-101.500
0.673,-94.500,-56.000,-17.000,-106.500
0.674,-96.500,-52.500,-16.000,-111.000
0.675,-97.000,-50.000,-15.000,-114.500
0.676,-97.000,-48.500,-14.500,-117.000
0.677,-95.000,-49.000,-14.500,-117.500
0.678,-92.000,-50.500,-14.500,-116.500
0.679,-87.500,-53.500,-15.000,-114.500
0.680,-83.000,-58.000,-16.000,-111.000
0.681,-79.000,-62.000,-17.000,-106.500
0.682,-75.500,-66.500,-18.000,-102.000
0.683,-73.000,-70.000,-19.500,-98.000
0.684,-72.000,-73.000,-20.500,-94.000
0.685,-72.000,-74.500,-21.000,-90.500
0.686,-73.500,-75.000,-21.500,-88.000
0.687,-76.000,-74.000,-22.000,-87.000
0.688,-79.000,-71.500,-21.500,-87.000
0.689,-82.500,-68.500,-20.500,-88.000
0.690,-86.500,-64.000,-19.500,-90.500
0.691,-90.500,-59.500,-17.500,-93.500
0.692,-94.000,-55.000,-16.000,-97.500
0.693,-97.000,-50.500,-14.500,-101.000
0.694,-99.000,-47.500,-13.500,-104.500
0.695,-100.000,-45.500,-13.000,-107.000
0.696,-100.000,-44.500,-13.000,-109.000
0.697,-99.000,-45.000,-12.500,-109.500
0.698,-97.000,-47.000,-13.000,-108.500
0.699,-94.500,-50.500,-13.500,-106.500
0.700,-91.000,-54.500,-14.500,-104.000
0.701,-87.500,-59.500,-16.000,-100.000
0.702,-84.000,-64.000,-17.500,-96.500
0.703,-81.000,-68.000,-19.500,-92.500
0.704,-79.500,-71.000,-21.500,-88.500
0.705,-79.000,-72.500,-23.000,-86.000
0.706,-80.500,-73.000,-24.000,-84.500
0.707,-83.000,-72.000,-24.500,-83.500
0.708,-86.500,-69.500,-24.000,-84.500
0.709,-90.000,-66.500,-23.000,-86.000
0.710,-93.500,-62.000,-22.000,-88.500
0.711,-97.000,-57.500,-20.000,-91.500
0.712,-100.000,-53.000,-18.500,-95.500
0.713,-102.500,-49.000,-16.500,-99.000
0.714,-104.500,-45.500,-15.000,-102.000
0.715,-105.500,-43.500,-14.000,-104.500
0.716,-106.500,-42.500,-13.000,-106.500
0.717,-106.000,-43.500,-12.500,-107.500
0.718,-105.000,-46.000,-13.000,-107.500
0.719,-102.000,-50.500,-13.500,-106.000
0.720,-98.500,-55.000,-15.000,-103.500
0.721,-94.000,-60.000,-16.000,-100.000
0.722,-90.000,-64.000,-17.500,-96.000
0.723,-86.500,-67.500,-18.500,-92.000
0.724,-84.000,-70.500,-19.000,-88.000
0.725,-83.500,-72.000,-20.000,-85.500
0.726,-83.500,-72.500,-20.500,-83.500
0.727,-84.500,-71.500,-20.500,-83.000
0.728,-87.000,-69.500,-20.500,-83.500
0.729,-89.500,-66.500,-19.500,-85.000
0.730,-93.500,-62.000,-18.500,-88.000
0.731,-97.000,-57.500,-17.000,-91.500
0.732,-101.000,-53.000,-15.500,-95.000
0.733,-104.500,-49.000,-14.000,-99.000
0.734,-107.000,-46.000,-12.500,-102.500
0.735,-108.500,-45.000,-11.500,-105.000
0.736,-109.000,-45.000,-11.000,-106.500
0.737,-108.500,-46.000,-11.000,-107.000
0.738,-106.000,-48.500,-11.500,-106.000
0.739,-103.000,-51.500,-13.000,-103.500
0.740,-99.000,-55.000,-14.500,-100.000
0.741,-95.000,-59.000,-16.000,-96.000
0.742,-91.500,-63.500,-18.000,-91.500
0.743,-89.000,-67.500,-20.000,-87.500
0.744,-88.000,-71.000,-22.000,-83.500
0.745,-88.000,-72.500,-23.500,-80.500
0.746,-89.000,-73.000,-24.500,-78.500
0.747,-91.000,-72.500,-25.000,-77.500
0.748,-93.000,-70.500,-25.000,-78.000
0.749,-96.000,-68.000,-24.500,-80.000
0.750,-99.000,-64.000,-23.500,-83.000
0.751,-103.000,-60.000,-22.500,-86.500
0.752,-106.500,-56.000,-21.500,-90.500
0.753,-110.000,-52.500,-20.000,-94.500
0.754,-113.000,-49.500,-19.500,-98.500
0.755,-114.500,-47.500,-19.000,-102.000
0.756,-115.500,-46.000,-19.000,-104.500
0.757,-115.500,-46.500,-20.000,-105.500
0.758,-114.000,-48.500,-20.500,-105.000
0.759,-111.000,-51.500,-22.000,-103.000
0.760,-107.500,-56.000,-23.500,-99.500
0.761,-103.000,-61.000,-24.500,-95.500
0.762,-98.500,-66.000,-26.000,-90.000
0.763,-95.000,-70.500,-27.500,-85.000
0.764,-92.000,-74.000,-28.500,-80.500
0.765,-91.000,-76.000,-29.000,-76.500
0.766,-91.500,-76.500,-29.000,-74.500
0.767,-93.000,-75.500,-28.500,-73.500
0.768,-95.500,-73.000,-27.500,-74.500
0.769,-98.000,-69.500,-26.000,-77.000
0.770,-100.500,-65.000,-24.000,-81.500
0.771,-103.000,-60.000,-22.500,-87.500
0.772,-105.000,-55.000,-20.500,-94.500
0.773,-106.500,-50.000,-18.500,-101.500
0.774,-107.000,-46.500,-17.000,-108.000
0.775,-107.000,-43.500,-15.500,-112.000
0.776,-106.000,-42.500,-14.500,-113.500
0.777,-104.500,-43.000,-14.000,-112.500
0.778,-101.500,-44.500,-13.500,-108.500
0.779,-97.500,-47.500,-14.000,-102.500
0.780,-92.500,-51.500,-15.000,-95.500
0.781,-87.000,-55.500,-16.000,-89.000
0.782,-82.500,-59.500,-17.500,-83.500
0.783,-79.000,-63.500,-19.000,-78.500
0.784,-76.500,-66.500,-20.500,-75.000
0.785,-76.000,-68.500,-22.000,-72.500
0.786,-77.500,-69.000,-23.000,-70.500
0.787,-80.000,-68.000,-23.000,-69.500
0.788,-83.000,-65.500,-22.500,-70.000
0.789,-87.000,-62.000,-21.500,-72.500
0.790,-91.000,-57.000,-20.000,-76.000
0.791,-94.500,-52.500,-18.500,-80.000
0.792,-97.500,-47.500,-17.000,-85.000
0.793,-99.000,-44.000,-16.000,-89.500
0.794,-100.000,-41.000,-15.000,-93.000
0.795,-100.000,-39.500,-14.500,-96.000
0.796,-99.500,-39.000,-14.500,-98.000
0.797,-98.000,-40.000,-15.000,-98.500
0.798,-95.500,-41.500,-15.500,-97.500
0.799,-91.500,-44.500,-17.000,-95.500
0.800,-87.000,-48.000,-18.500,-93.000
0.801,-82.000,-51.500,-20.500,-89.500
0.802,-77.500,-55.500,-22.500,-86.000
0.803,-75.000,-59.500,-24.500,-82.500
0.804,-73.500,-63.000,-26.500,-79.500
0.805,-74.000,-66.000,-28.000,-76.500
0.806,-76.000,-68.000,-29.500,-75.000
0.807,-79.000,-68.500,-30.000,-74.500
0.808,-82.000,-67.000,-30.500,-75.500
0.809,-85.500,-63.500,-30.500,-78.000
0.810,-89.000,-59.500,-29.500,-81.000
0.811,-91.500,-55.000,-28.500,-85.500
0.812,-94.000,-50.500,-27.000,-90.000
0.813,-95.500,-46.000,-25.500,-94.500
0.814,-96.500,-43.000,-24.500,-99.000
0.815,-97.000,-40.500,-23.500,-103.000
0.816,-97.000,-39.500,-23.000,-105.500
0.817,-96.500,-39.500,-23.000,-106.000
0.818,-95.000,-41.000,-23.000,-105.000
0.819,-93.000,-43.500,-23.500,-102.500
0.820,-90.000,-47.500,-24.500,-99.000
0.821,-87.500,-51.500,-26.000,-94.500
0.822,-85.500,-55.500,-27.500,-90.500
0.823,-83.500,-59.500,-29.500,-86.500
0.824,-83.000,-63.000,-31.000,-83.000
0.825,-83.000,-65.000,-32.500,-80.500
0.826,-85.000,-66.000,-33.500,-79.000
0.827,-88.000,-66.000,-34.000,-78.500
0.828,-91.500,-64.000,-34.000,-79.000
0.829,-95.500,-61.000,-33.000,-80.500
0.830,-99.500,-57.000,-32.000,-83.500
0.831,-103.000,-53.000,-31.000,-88.000
0.832,-106.000,-48.500,-29.500,-93.000
0.833,-108.500,-44.000,-28.000,-98.000
0.834,-110.000,-41.000,-27.000,-102.500
0.835,-110.500,-39.000,-26.500,-106.500
0.836,-109.500,-39.000,-26.500,-109.000
0.837,-108.000,-40.000,-27.000,-110.000
0.838,-105.500,-42.500,-27.500,-110.000
0.839,-102.500,-45.500,-28.500,-108.000
0.840,-99.000,-49.500,-29.500,-105.000
0.841,-95.500,-53.500,-31.000,-100.500
0.842,-92.000,-57.500,-32.000,-95.500
0.843,-88.500,-61.000,-33.500,-90.000
0.844,-86.000,-63.500,-35.000,-85.500
0.845,-84.500,-65.000,-36.500,-82.500
0.846,-84.500,-65.000,-37.500,-80.000
0.847,-86.000,-63.500,-37.500,-79.500
0.848,-89.000,-61.500,-37.500,-80.000
0.849,-93.000,-58.000,-36.500,-81.500
0.850,-97.500,-54.500,-35.500,-84.000
0.851,-101.500,-50.500,-34.000,-87.000
0.852,-104.500,-46.500,-32.500,-90.000
0.853,-107.000,-42.500,-30.500,-93.500
0.854,-108.000,-39.500,-29.500,-96.500
0.855,-109.000,-37.000,-28.500,-99.000
0.856,-108.500,-36.500,-28.500,-100.500
0.857,-107.000,-37.000,-28.500,-101.000
0.858,-104.000,-39.000,-29.500,-100.500
0.859,-100.000,-42.000,-30.500,-98.000
0.860,-95.000,-46.000,-32.000,-95.000
0.861,-90.500,-50.000,-33.500,-90.500
0.862,-86.000,-54.500,-35.500,-86.000
0.863,-82.500,-58.500,-38.000,-82.000
0.864,-80.500,-62.500,-40.500,-78.500
0.865,-79.500,-66.000,-43.000,-75.500
0.866,-79.500,-68.000,-45.500,-73.500
0.867,-80.500,-69.500,-47.000,-72.500
0.868,-81.500,-69.500,-48.000,-72.000
0.869,-83.500,-68.500,-48.500,-72.000
0.870,-85.500,-66.500,-48.000,-72.500
0.871,-87.000,-63.500,-48.000,-73.000
0.872,-88.500,-60.500,-48.000,-74.500
0.873,-89.000,-58.000,-48.000,-75.500
0.874,-88.500,-56.500,-48.500,-76.000
0.875,-86.500,-57.000,-49.000,-76.000
0.876,-84.000,-58.500,-50.500,-75.000
0.877,-81.000,-62.000,-52.000,-73.500
0.878,-76.500,-66.500,-53.500,-70.500
0.879,-71.500,-72.500,-55.500,-66.500
0.880,-66.500,-79.500,-58.000,-60.500
0.881,-61.000,-86.500,-60.000,-52.500
0.882,-56.000,-93.500,-62.500,-42.500
0.883,-52.500,-100.000,-64.500,-31.000
0.884,-51.000,-105.500,-66.500,-19.500
0.885,-51.000,-110.000,-68.500,-8.500
0.886,-52.500,-112.500,-70.500,0.000
0.887,-54.500,-114.000,-71.500,6.000
0.888,-57.500,-114.000,-72.000,8.500
0.889,-61.000,-112.000,-72.000,9.000
0.890,-64.500,-109.500,-71.000,7.500
0.891,-68.000,-105.500,-70.000,5.000
0.892,-71.000,-101.000,-68.500,2.000
0.893,-73.500,-96.500,-67.000,-1.500
0.894,-74.500,-92.000,-65.500,-5.000
0.895,-75.000,-88.000,-64.000,-9.000
0.896,-75.500,-84.000,-62.500,-13.000
0.897,-75.500,-80.000,-60.500,-18.000
0.898,-75.500,-76.500,-57.500,-24.000
0.899,-75.500,-73.500,-55.000,-30.500
0.900,-76.000,-71.000,-51.500,-37.500
0.901,-76.500,-68.500,-48.500,-44.000
0.902,-77.000,-67.000,-46.000,-50.500
0.903,-78.000,-65.500,-44.000,-56.500
0.904,-80.000,-64.500,-43.000,-61.000
0.905,-82.500,-63.500,-42.000,-64.500
0.906,-85.500,-61.500,-41.000,-67.500
0.907,-89.500,-59.500,-40.500,-70.500
0.908,-93.500,-57.000,-39.500,-74.000
0.909,-98.500,-53.500,-38.500,-78.500
0.910,-103.000,-49.500,-37.000,-83.500
0.911,-108.000,-45.000,-35.500,-89.500
0.912,-111.500,-40.500,-34.000,-95.000
0.913,-114.000,-36.500,-33.000,-100.000
0.914,-115.000,-33.000,-32.000,-104.000
0.915,-114.500,-31.000,-31.500,-106.500
0.916,-112.500,-30.500,-31.500,-108.000
0.917,-109.500,-31.500,-32.500,-107.500
0.918,-106.000,-34.000,-34.500,-106.000
0.919,-101.500,-38.000,-36.000,-103.000
0.920,-96.500,-43.000,-38.500,-99.000
0.921,-92.000,-48.500,-40.500,-94.500
0.922,-88.000,-53.500,-42.500,-89.500
0.923,-85.000,-58.000,-44.500,-85.000
0.924,-83.000,-62.000,-46.000,-81.000
0.925,-82.500,-64.000,-47.500,-77.500
0.926,-83.500,-65.000,-48.500,-75.500
0.927,-85.500,-65.000,-49.000,-74.500
0.928,-88.000,-64.000,-49.000,-75.000
0.929,-91.500,-61.500,-49.000,-76.500
0.930,-94.500,-58.000,-48.000,-79.500
0.931,-97.500,-53.500,-47.000,-83.500
0.932,-99.500,-49.500,-45.500,-88.500
0.933,-101.000,-45.000,-44.500,-93.500
0.934,-101.500,-42.000,-43.500,-98.000
0.935,-100.500,-39.500,-42.500,-102.000
0.936,-99.000,-38.500,-42.500,-105.000
0.937,-97.000,-39.000,-42.500,-106.000
0.938,-93.500,-41.500,-43.000,-106.000
0.939,-89.500,-45.500,-44.500,-104.000
0.940,-84.500,-50.000,-45.500,-101.000
0.941,-80.000,-55.000,-47.000,-96.500
0.942,-76.500,-59.500,-48.500,-91.000
0.943,-73.500,-63.500,-49.500,-86.000
0.944,-72.500,-66.000,-51.000,-81.500
0.945,-72.500,-68.000,-52.000,-78.500
0.946,-74.000,-69.000,-52.500,-76.500
0.947,-75.500,-68.000,-53.000,-76.000
0.948,-78.000,-66.000,-52.500,-77.000
0.949,-81.000,-63.000,-52.000,-79.000
0.950,-84.000,-58.500,-50.500,-81.500
0.951,-87.000,-53.500,-49.000,-85.000
0.952,-90.000,-48.500,-47.500,-88.500
0.953,-92.500,-44.000,-46.000,-92.500
0.954,-94.500,-40.500,-45.000,-95.000
0.955,-96.000,-38.000,-44.500,-97.500
0.956,-96.500,-37.000,-44.000,-98.000
0.957,-95.500,-37.000,-44.000,-97.500
0.958,-93.000,-38.500,-44.500,-96.000
0.959,-89.000,-41.500,-45.000,-93.500
0.960,-84.500,-45.500,-46.500,-90.000
0.961,-79.500,-50.000,-48.000,-86.500
0.962,-75.000,-55.000,-50.000,-83.000
0.963,-71.000,-59.500,-52.000,-79.000
0.964,-69.000,-63.000,-54.000,-76.000
0.965,-68.000,-65.500,-55.500,-73.500
0.966,-69.000,-67.000,-56.500,-72.500
0.967,-71.500,-66.500,-57.000,-72.500
0.968,-74.500,-64.500,-56.500,-74.000
0.969,-78.000,-61.500,-55.500,-76.500
0.970,-81.500,-57.500,-54.500,-79.500
0.971,-85.000,-53.000,-53.000,-83.500
0.972,-87.500,-49.000,-51.500,-87.000
0.973,-89.000,-45.500,-50.500,-90.500
0.974,-89.500,-43.000,-49.500,-93.500
0.975,-89.500,-41.500,-49.000,-96.000
0.976,-88.000,-40.500,-48.500,-97.500
0.977,-86.000,-41.000,-49.000,-98.500
0.978,-83.500,-42.500,-49.500,-99.500
0.979,-80.000,-45.000,-50.500,-99.500
0.980,-76.000,-49.000,-52.000,-99.000
0.981,-72.500,-54.000,-54.000,-98.000
0.982,-69.500,-59.000,-56.500,-96.500
0.983,-67.000,-64.000,-58.500,-93.500
0.984,-66.000,-68.000,-60.000,-90.000
0.985,-66.000,-70.500,-61.500,-85.500
0.986,-67.000,-71.000,-62.500,-80.500
0.987,-69.000,-70.000,-62.500,-76.000
0.988,-71.500,-67.500,-62.500,-73.000
0.989,-74.500,-63.500,-61.500,-72.500
0.990,-77.500,-59.000,-60.000,-74.000
0.991,-80.000,-54.000,-58.500,-78.000
0.992,-82.500,-49.000,-57.000,-83.000
0.993,-84.000,-44.500,-55.500,-88.000
0.994,-85.000,-40.500,-54.500,-93.000
0.995,-85.000,-38.500,-53.500,-96.500
0.996,-84.000,-37.500,-53.500,-99.000
0.997,-82.500,-37.500,-53.500,-100.500
0.998,-79.500,-39.000,-53.500,-100.500
0.999,-76.000,-42.000,-54.500,-99.000
1.000,-72.000,-46.000,-55.000,-96.500
1.001,-67.500,-51.000,-56.000,-93.500
1.002,-64.000,-56.500,-57.500,-89.500
1.003,-61.500,-62.000,-59.000,-85.500
1.004,-60.000,-66.500,-60.500,-81.500
1.005,-60.000,-69.000,-62.000,-78.500
1.006,-61.000,-70.500,-63.500,-76.500
1.007,-63.500,-70.000,-64.000,-76.000
1.008,-66.000,-68.500,-65.000,-77.500
1.009,-69.000,-65.500,-65.000,-79.500
1.010,-72.500,-62.000,-65.000,-83.000
1.011,-75.500,-58.000,-64.500,-87.000
1.012,-79.000,-54.000,-63.500,-91.000
1.013,-81.500,-50.000,-63.000,-95.000
1.014,-84.000,-46.500,-62.000,-98.500
1.015,-85.500,-44.500,-61.000,-101.500
1.016,-86.000,-43.000,-60.500,-103.500
1.017,-85.500,-43.000,-60.000,-104.000
1.018,-83.500,-44.000,-60.000,-102.500
1.019,-79.500,-46.000,-60.000,-99.500
1.020,-74.500,-49.500,-61.000,-95.500
1.021,-69.500,-53.500,-62.000,-91.500
1.022,-65.500,-58.000,-63.000,-86.500
1.023,-62.000,-62.000,-64.500,-82.500
1.024,-60.500,-65.000,-65.500,-78.500
1.025,-60.500,-66.500,-66.500,-75.500
1.026,-62.000,-67.000,-67.500,-73.500
1.027,-64.500,-66.000,-68.000,-73.000
1.028,-68.000,-64.000,-68.000,-74.000
1.029,-72.000,-61.000,-68.000,-76.000
1.030,-76.000,-57.500,-67.500,-79.000
1.031,-79.500,-53.500,-66.500,-83.000
1.032,-82.000,-50.000,-65.500,-87.500
1.033,-84.500,-46.000,-64.500,-91.500
1.034,-86.000,-43.000,-63.500,-95.000
1.035,-87.000,-40.500,-62.500,-98.000
1.036,-87.000,-39.500,-62.000,-99.000
1.037,-86.500,-40.000,-61.500,-99.000
1.038,-85.000,-42.000,-61.500,-97.500
1.039,-82.500,-45.000,-62.000,-95.500
1.040,-79.500,-49.000,-63.000,-92.000
1.041,-76.000,-54.000,-64.500,-88.500
1.042,-73.000,-58.500,-66.000,-84.500
1.043,-70.500,-63.000,-67.500,-81.000
1.044,-69.500,-66.000,-69.000,-77.500
1.045,-70.000,-68.500,-70.000,-74.500
1.046,-71.500,-69.000,-70.500,-73.000
1.047,-73.500,-68.000,-71.000,-72.000
1.048,-76.000,-66.000,-70.500,-72.500
1.049,-79.000,-62.500,-69.500,-73.500
1.050,-82.500,-58.000,-68.000,-75.500
1.051,-85.500,-53.500,-66.000,-78.000
1.052,-89.000,-49.000,-64.000,-81.500
1.053,-91.500,-45.000,-62.000,-85.000
1.054,-93.500,-41.500,-60.000,-89.000
1.055,-94.500,-38.500,-58.500,-92.000
1.056,-94.500,-37.000,-57.000,-94.000
1.057,-93.500,-37.000,-56.500,-95.000
1.058,-91.500,-38.500,-56.000,-94.000
1.059,-88.500,-41.500,-56.500,-92.000
1.060,-85.000,-45.000,-57.500,-89.000
1.061,-82.000,-49.000,-58.500,-85.000
1.062,-79.500,-52.500,-60.500,-81.000
1.063,-78.000,-56.000,-62.000,-76.500
1.064,-77.500,-58.500,-64.000,-72.500
1.065,-78.500,-61.500,-65.500,-69.500
1.066,-80.000,-63.500,-66.500,-67.500
1.067,-82.000,-64.500,-67.500,-66.500
1.068,-84.500,-64.000,-68.000,-67.000
1.069,-86.500,-62.500,-67.500,-69.000
1.070,-89.000,-59.000,-67.000,-72.500
1.071,-91.500,-55.000,-66.000,-76.000
1.072,-93.500,-50.500,-64.500,-80.000
1.073,-95.000,-46.500,-63.000,-84.000
1.074,-96.000,-43.500,-61.500,-87.500
1.075,-96.000,-41.000,-60.000,-90.000
1.076,-95.500,-40.000,-58.500,-92.000
1.077,-94.500,-40.500,-58.000,-93.000
1.078,-92.000,-42.000,-57.500,-92.500
1.079,-88.500,-45.000,-58.000,-91.000
1.080,-85.000,-49.000,-59.000,-88.500
1.081,-81.500,-53.500,-60.000,-86.000
1.082,-78.500,-58.000,-61.500,-83.000
1.083,-76.500,-62.500,-63.000,-80.000
1.084,-75.500,-65.500,-64.000,-77.000
1.085,-75.500,-68.000,-65.000,-73.500
1.086,-76.500,-69.000,-65.500,-69.500
1.087,-79.000,-68.500,-66.000,-65.500
1.088,-82.000,-66.500,-66.500,-62.500
1.089,-85.500,-63.500,-66.500,-61.000
1.090,-89.000,-60.000,-66.000,-61.000
1.091,-93.000,-56.000,-65.500,-63.000
1.092,-96.500,-52.000,-64.500,-66.500
1.093,-99.000,-48.500,-63.500,-71.000
1.094,-101.000,-46.000,-62.000,-75.000
1.095,-102.000,-44.000,-61.000,-78.000
1.096,-101.500,-43.000,-60.000,-80.000
1.097,-100.000,-43.500,-59.500,-81.000
1.098,-97.500,-45.500,-60.000,-80.500
1.099,-94.000,-49.000,-61.000,-79.000
1.100,-90.500,-54.000,-62.500,-76.500
1.101,-87.000,-60.000,-64.500,-73.000
1.102,-84.000,-66.000,-67.000,-69.500
1.103,-82.000,-71.000,-69.500,-66.500
1.104,-81.000,-74.000,-71.500,-63.500
1.105,-81.000,-76.000,-73.500,-62.000
1.106,-81.500,-76.000,-75.000,-61.000
1.107,-82.500,-75.000,-75.500,-61.000
1.108,-84.000,-73.000,-76.000,-62.000
1.109,-85.500,-69.500,-75.500,-64.000
1.110,-87.500,-66.000,-74.500,-67.000
1.111,-90.000,-61.500,-73.500,-70.500
1.112,-91.500,-57.500,-72.000,-74.000
1.113,-93.000,-53.000,-70.000,-78.500
1.114,-93.500,-50.000,-69.000,-82.000
1.115,-93.500,-47.500,-68.000,-85.000
1.116,-92.500,-46.500,-67.500,-87.000
1.117,-90.500,-47.500,-67.500,-87.500
1.118,-87.000,-49.500,-68.000,-86.500
1.119,-82.500,-53.000,-68.500,-84.000
1.120,-78.000,-57.000,-69.500,-80.500
1.121,-73.000,-61.500,-70.500,-76.000
1.122,-69.500,-65.500,-71.500,-71.000
1.123,-66.500,-69.500,-72.500,-66.500
1.124,-65.500,-72.000,-73.500,-62.000
1.125,-65.000,-73.500,-74.500,-59.000
1.126,-66.000,-73.500,-75.000,-57.000
1.127,-67.500,-72.500,-75.500,-56.500
1.128,-69.500,-70.500,-75.500,-57.500
1.129,-71.500,-67.500,-75.000,-59.500
1.130,-73.500,-63.500,-73.500,-62.500
1.131,-76.000,-59.000,-72.000,-66.500
1.132,-78.000,-55.000,-70.500,-70.500
1.133,-79.500,-51.000,-68.000,-74.500
1.134,-80.500,-47.500,-66.000,-78.500
1.135,-80.500,-44.000,-63.500,-81.500
1.136,-79.500,-42.000,-62.000,-83.500
1.137,-78.000,-41.000,-60.500,-84.500
1.138,-76.000,-41.500,-60.500,-84.500
1.139,-73.000,-44.000,-61.000,-83.000
1.140,-69.500,-48.500,-62.500,-81.000
1.141,-66.000,-53.500,-64.500,-78.000
1.142,-62.500,-58.500,-66.500,-74.500
1.143,-59.500,-63.000,-68.000,-71.000
1.144,-58.000,-66.500,-69.500,-68.000
1.145,-58.000,-68.000,-70.000,-66.000
1.146,-59.000,-68.000,-71.000,-64.500
1.147,-61.000,-66.500,-71.000,-65.000
1.148,-64.000,-64.000,-70.500,-66.500
1.149,-67.000,-60.000,-69.500,-69.000
1.150,-70.500,-56.000,-68.000,-73.000
1.151,-74.500,-51.000,-66.000,-77.500
1.152,-78.000,-46.500,-64.000,-82.000
1.153,-81.000,-42.500,-62.500,-87.000
1.154,-83.500,-39.500,-61.000,-91.000
1.155,-84.500,-37.500,-60.500,-94.500
1.156,-84.500,-36.500,-60.000,-97.000
1.157,-83.000,-36.500,-60.500,-98.500
1.158,-80.500,-38.000,-61.000,-98.500
1.159,-77.500,-40.000,-62.000,-97.000
1.160,-74.000,-42.500,-63.000,-94.000
1.161,-71.000,-46.000,-64.000,-90.500
1.162,-68.500,-49.500,-65.000,-86.500
1.163,-67.000,-53.500,-66.500,-83.000
1.164,-65.500,-57.500,-68.500,-79.500
1.165,-65.000,-60.500,-70.000,-77.500
1.166,-64.500,-61.500,-71.500,-76.500
1.167,-65.500,-61.000,-72.000,-76.500
1.168,-67.000,-59.000,-72.000,-78.000
1.169,-69.000,-55.000,-71.500,-81.000
1.170,-71.500,-51.000,-70.500,-84.000
1.171,-74.000,-46.500,-69.000,-88.000
1.172,-76.500,-42.500,-67.000,-92.000
1.173,-78.500,-38.500,-65.000,-96.000
1.174,-79.500,-35.000,-63.000,-100.000
1.175,-80.000,-32.500,-61.500,-103.000
1.176,-79.500,-30.500,-60.000,-106.000
1.177,-78.000,-30.500,-59.000,-108.500
1.178,-75.500,-31.500,-58.000,-109.500
1.179,-72.000,-34.500,-57.500,-109.000
1.180,-67.500,-38.000,-58.000,-106.500
1.181,-63.500,-42.000,-58.500,-102.000
1.182,-59.500,-46.000,-59.000,-96.500
1.183,-57.000,-49.000,-60.000,-89.500
1.184,-55.500,-51.500,-60.500,-82.500
1.185,-56.000,-52.500,-61.500,-76.500
1.186,-57.500,-53.000,-62.500,-72.500
1.187,-59.500,-52.500,-63.000,-70.500
1.188,-62.000,-51.500,-63.500,-70.500
1.189,-64.500,-49.500,-63.500,-72.500
1.190,-67.000,-47.000,-63.000,-75.500
1.191,-70.000,-43.500,-62.000,-79.000
1.192,-73.000,-39.500,-60.500,-82.500
1.193,-75.500,-36.000,-59.500,-86.500
1.194,-77.500,-33.000,-58.000,-90.500
1.195,-79.000,-30.500,-56.500,-93.500
1.196,-79.000,-28.500,-55.500,-95.500
1.197,-78.000,-28.500,-54.500,-96.500
1.198,-76.000,-29.500,-54.500,-96.500
1.199,-73.000,-32.000,-54.500,-94.500
1.200,-69.500,-35.500,-55.500,-91.500
1.201,-65.500,-40.000,-56.500,-87.500
1.202,-62.000,-44.500,-58.000,-83.500
1.203,-59.500,-49.000,-60.000,-79.000
1.204,-58.000,-52.000,-62.000,-75.500
1.205,-58.000,-54.000,-64.000,-73.000
1.206,-59.000,-54.500,-66.000,-71.000
1.207,-62.000,-54.000,-67.000,-70.500
1.208,-66.000,-52.000,-67.500,-71.500
1.209,-70.500,-49.000,-67.000,-73.500
1.210,-75.500,-45.000,-66.500,-77.000
1.211,-80.000,-41.000,-65.000,-81.000
1.212,-84.000,-37.000,-63.500,-85.000
1.213,-87.500,-33.500,-61.500,-89.500
1.214,-89.500,-30.500,-60.000,-92.500
1.215,-90.500,-28.500,-59.000,-95.500
1.216,-91.000,-27.500,-58.000,-96.500
1.217,-90.000,-28.000,-57.500,-97.000
1.218,-87.500,-30.000,-57.500,-95.500
1.219,-84.000,-33.000,-58.000,-93.000
1.220,-80.000,-37.000,-59.000,-90.000
1.221,-75.500,-41.000,-60.500,-86.000
1.222,-71.500,-45.500,-62.500,-82.000
1.223,-68.500,-50.000,-64.000,-77.500
1.224,-66.500,-53.000,-66.000,-74.000
1.225,-66.000,-55.000,-67.500,-71.000
1.226,-67.000,-56.000,-68.500,-69.500
1.227,-68.500,-55.500,-69.500,-69.000
1.228,-70.500,-54.000,-69.500,-70.500
1.229,-73.500,-51.500,-69.000,-72.500
1.230,-76.500,-48.000,-68.500,-76.000
1.231,-79.000,-43.500,-67.500,-80.000
1.232,-81.000,-39.500,-66.500,-84.500
1.233,-82.500,-35.500,-65.500,-88.500
1.234,-83.500,-32.000,-64.000,-92.500
1.235,-83.500,-30.000,-63.500,-95.500
1.236,-83.500,-28.500,-62.500,-97.500
1.237,-82.500,-28.000,-61.500,-98.500
1.238,-81.000,-29.000,-61.000,-98.000
1.239,-78.500,-31.500,-61.000,-96.000
1.240,-75.500,-35.000,-61.500,-92.500
1.241,-72.500,-40.000,-62.500,-88.500
1.242,-70.500,-45.500,-64.000,-84.500
1.243,-69.000,-50.000,-66.000,-80.500
1.244,-69.500,-54.000,-68.000,-77.000
1.245,-71.000,-56.500,-69.500,-74.500
1.246,-74.000,-57.500,-71.000,-73.500
1.247,-78.000,-57.000,-72.500,-73.500
1.248,-82.500,-55.500,-73.000,-74.500
1.249,-87.500,-52.000,-72.500,-77.000
1.250,-93.000,-48.000,-72.000,-80.000
1.251,-98.000,-43.500,-70.500,-84.000
1.252,-102.500,-39.000,-69.000,-88.000
1.253,-105.500,-34.500,-67.000,-91.500
1.254,-107.500,-30.500,-65.000,-95.000
1.255,-108.500,-27.500,-64.000,-98.000
1.256,-107.500,-25.500,-63.000,-100.500
1.257,-105.500,-25.500,-62.500,-101.500
1.258,-102.000,-27.000,-62.500,-101.500
1.259,-97.500,-30.500,-63.000,-99.500
1.260,-93.000,-35.000,-63.500,-96.500
1.261,-88.000,-39.500,-64.500,-93.000
1.262,-83.500,-44.500,-65.500,-89.000
1.263,-80.000,-48.000,-67.000,-84.500
1.264,-77.500,-51.000,-68.000,-81.000
1.265,-76.500,-53.000,-68.500,-78.500
1.266,-77.000,-53.500,-69.500,-77.000
1.267,-78.500,-53.000,-70.000,-76.500
1.268,-81.000,-51.000,-70.000,-78.000
1.269,-83.500,-48.000,-70.000,-81.000
1.270,-87.000,-44.000,-69.500,-85.000
1.271,-90.000,-39.500,-68.500,-89.500
1.272,-92.500,-35.000,-67.000,-94.000
1.273,-95.000,-31.000,-65.000,-98.500
1.274,-97.000,-27.500,-63.000,-102.000
1.275,-98.000,-25.500,-61.500,-105.000
1.276,-97.500,-24.500,-60.500,-106.500
1.277,-96.500,-25.000,-60.000,-107.000
1.278,-94.500,-27.000,-60.000,-106.000
1.279,-91.000,-29.500,-60.500,-104.000
1.280,-87.000,-33.000,-61.500,-100.500
1.281,-83.000,-36.500,-63.000,-96.500
1.282,-79.000,-40.500,-64.500,-92.000
1.283,-76.000,-44.500,-66.000,-88.500
1.284,-74.500,-47.500,-67.000,-85.500
1.285,-75.000,-49.500,-68.000,-84.000
1.286,-76.500,-50.500,-68.500,-84.000
1.287,-79.000,-50.000,-68.500,-85.000
1.288,-82.500,-48.000,-68.000,-86.500
1.289,-86.000,-44.500,-67.500,-88.500
1.290,-89.500,-40.000,-66.000,-90.000
1.291,-93.000,-34.500,-64.500,-91.000
1.292,-95.500,-29.000,-62.500,-91.000
1.293,-97.000,-24.000,-61.000,-91.000
1.294,-97.500,-20.500,-59.500,-91.000
1.295,-97.500,-18.500,-58.500,-91.500
1.296,-96.000,-18.000,-57.500,-92.500
1.297,-93.500,-19.000,-57.500,-93.000
1.298,-90.500,-21.500,-58.000,-93.000
1.299,-86.000,-25.000,-59.000,-91.500
1.300,-81.500,-29.000,-60.500,-88.500
1.301,-77.000,-34.000,-61.500,-84.500
1.302,-73.500,-38.500,-63.000,-80.000
1.303,-70.500,-42.500,-64.000,-75.000
1.304,-69.000,-45.500,-65.500,-71.000
1.305,-69.000,-47.500,-66.500,-68.000
1.306,-69.500,-48.000,-67.000,-66.000
1.307,-71.500,-47.000,-67.000,-65.000
1.308,-73.500,-45.000,-67.000,-66.000
1.309,-76.500,-42.000,-66.500,-68.000
1.310,-79.500,-38.000,-65.500,-71.000
1.311,-82.500,-34.000,-65.000,-74.500
1.312,-85.000,-30.000,-63.500,-79.500
1.313,-87.000,-26.000,-62.500,-84.500
1.314,-88.500,-22.500,-61.000,-89.000
1.315,-89.000,-19.500,-59.500,-93.000
1.316,-88.500,-18.000,-58.500,-96.000
1.317,-87.500,-17.500,-57.500,-97.500
1.318,-85.000,-18.500,-57.500,-97.500
1.319,-81.500,-21.500,-58.000,-96.000
1.320,-77.000,-25.500,-59.000,-93.000
1.321,-72.500,-30.500,-60.500,-89.500
1.322,-68.500,-35.000,-62.500,-85.500
1.323,-65.000,-39.500,-64.000,-82.000
1.324,-63.000,-43.000,-65.500,-78.500
1.325,-62.000,-45.000,-67.000,-76.000
1.326,-63.000,-46.000,-67.500,-74.500
1.327,-65.000,-45.000,-67.500,-74.500
1.328,-68.000,-43.000,-67.000,-75.000
1.329,-72.500,-40.000,-66.000,-76.500
1.330,-77.000,-36.000,-64.500,-78.500
1.331,-81.500,-32.500,-63.000,-82.000
1.332,-85.000,-28.500,-62.000,-85.500
1.333,-87.500,-25.500,-61.000,-89.000
1.334,-89.500,-23.000,-60.000,-92.500
1.335,-90.000,-21.500,-59.500,-94.500
1.336,-90.000,-21.500,-60.000,-96.000
1.337,-88.500,-22.000,-61.000,-95.500
1.338,-85.500,-23.500,-62.500,-94.500
1.339,-82.000,-26.000,-64.500,-91.500
1.340,-78.000,-29.000,-66.500,-88.000
1.341,-73.500,-33.000,-69.000,-83.500
1.342,-70.000,-37.500,-71.500,-78.500
1.343,-67.500,-41.500,-73.500,-73.500
1.344,-66.000,-45.000,-75.500,-69.500
1.345,-66.000,-47.000,-77.000,-66.000
1.346,-68.000,-48.000,-77.500,-64.000
1.347,-71.000,-47.500,-77.500,-63.500
1.348,-75.000,-45.500,-77.000,-64.000
1.349,-79.000,-43.000,-76.000,-66.000
1.350,-83.500,-40.000,-74.500,-69.000
1.351,-87.500,-36.000,-72.000,-73.000
1.352,-91.000,-32.000,-69.500,-77.000
1.353,-93.500,-28.000,-67.000,-81.000
1.354,-95.500,-24.500,-64.500,-84.500
1.355,-96.500,-22.000,-62.000,-87.500
1.356,-96.000,-20.500,-60.000,-90.000
1.357,-94.500,-21.000,-59.000,-91.000
1.358,-92.000,-22.000,-58.500,-90.500
1.359,-88.000,-25.000,-58.500,-89.000
1.360,-84.000,-28.500,-59.000,-86.000
1.361,-79.500,-32.500,-60.000,-82.000
1.362,-75.500,-37.000,-61.500,-78.000
1.363,-72.500,-40.500,-63.000,-74.000
1.364,-71.000,-43.500,-64.500,-70.500
1.365,-71.000,-45.500,-66.000,-68.000
1.366,-72.000,-46.500,-67.000,-66.000
1.367,-75.000,-46.000,-67.500,-65.500
1.368,-78.500,-44.000,-67.000,-66.000
1.369,-83.000,-41.000,-66.000,-68.000
1.370,-87.500,-36.500,-64.500,-71.000
1.371,-92.000,-31.500,-62.500,-75.000
1.372,-95.500,-26.500,-60.500,-79.500
1.373,-98.000,-22.000,-59.000,-83.500
1.374,-99.000,-19.000,-57.500,-87.500
1.375,-99.000,-17.000,-56.500,-91.000
1.376,-98.500,-16.500,-56.000,-93.000
1.377,-97.000,-17.000,-56.000,-94.000
1.378,-94.500,-19.000,-56.000,-93.500
1.379,-91.000,-22.000,-57.000,-91.500
1.380,-87.000,-26.000,-57.500,-88.500
1.381,-82.500,-31.000,-59.000,-84.500
1.382,-78.500,-36.000,-60.500,-80.500
1.383,-75.500,-40.500,-62.000,-77.500
1.384,-74.000,-44.000,-63.500,-75.500
1.385,-74.000,-46.500,-65.000,-75.000
1.386,-75.500,-48.000,-66.000,-75.000
1.387,-78.000,-48.000,-66.500,-76.000
1.388,-81.500,-46.500,-67.000,-76.500
1.389,-85.000,-44.500,-67.000,-77.000
1.390,-88.500,-40.500,-66.000,-77.500
1.391,-91.500,-36.000,-65.000,-77.500
1.392,-94.500,-31.000,-63.500,-78.000
1.393,-96.500,-26.000,-62.000,-79.500
1.394,-98.500,-22.000,-60.500,-82.000
1.395,-100.000,-19.000,-59.500,-85.000
1.396,-100.500,-18.000,-59.500,-87.500
1.397,-100.000,-18.500,-59.500,-89.500
1.398,-98.000,-21.000,-60.500,-89.500
1.399,-94.500,-25.000,-61.500,-88.000
1.400,-90.000,-30.000,-62.500,-85.500
1.401,-85.000,-34.500,-63.500,-81.500
1.402,-80.000,-38.500,-65.000,-77.000
1.403,-76.000,-41.500,-65.500,-72.500
1.404,-73.500,-44.000,-66.500,-68.000
1.405,-72.500,-45.500,-67.500,-64.000
1.406,-73.500,-46.500,-68.500,-61.500
1.407,-75.500,-46.500,-69.000,-60.000
1.408,-78.500,-44.500,-69.000,-60.500
1.409,-82.000,-41.000,-68.000,-62.000
1.410,-86.000,-36.500,-66.500,-65.500
1.411,-90.000,-31.500,-64.500,-69.500
1.412,-93.500,-26.500,-62.500,-74.000
1.413,-96.500,-22.000,-60.500,-78.500
1.414,-99.000,-18.500,-58.500,-83.000
1.415,-100.500,-16.000,-57.000,-86.000
1.416,-101.500,-15.000,-56.000,-88.000
1.417,-102.000,-15.000,-55.500,-88.000
1.418,-101.000,-16.500,-55.000,-86.500
1.419,-99.000,-19.500,-55.500,-83.500
1.420,-95.500,-23.500,-56.000,-79.500
1.421,-92.000,-28.000,-57.000,-75.000
1.422,-88.500,-32.500,-58.500,-70.000
1.423,-86.000,-36.500,-60.000,-65.500
1.424,-85.000,-39.500,-61.500,-62.000
1.425,-85.000,-41.500,-62.500,-59.000
1.426,-86.500,-43.000,-63.500,-57.000
1.427,-89.000,-44.000,-64.000,-56.500
1.428,-92.000,-43.500,-64.500,-57.000
1.429,-95.000,-42.000,-64.500,-58.500
1.430,-99.000,-39.500,-64.500,-61.500
1.431,-102.500,-35.500,-63.500,-65.500
1.432,-106.000,-31.500,-62.500,-70.000
1.433,-109.000,-27.000,-61.500,-74.000
1.434,-111.000,-23.000,-60.000,-78.000
1.435,-112.000,-20.000,-58.500,-81.000
1.436,-112.000,-18.000,-57.500,-83.500
1.437,-110.500,-17.500,-56.500,-84.500
1.438,-107.500,-18.000,-56.500,-84.500
1.439,-103.500,-20.000,-56.000,-83.500
1.440,-99.000,-23.500,-56.500,-81.000
1.441,-94.500,-27.500,-57.500,-77.500
1.442,-90.000,-31.500,-58.500,-73.500
1.443,-87.000,-35.500,-59.500,-69.500
1.444,-85.000,-39.500,-61.000,-65.500
1.445,-84.000,-42.000,-62.500,-63.000
1.446,-84.500,-43.500,-63.500,-61.000
1.447,-85.500,-43.500,-64.500,-60.000
1.448,-87.000,-41.500,-64.500,-60.500
1.449,-89.000,-38.500,-64.000,-62.500
1.450,-91.500,-34.000,-63.000,-65.000
1.451,-94.000,-28.500,-61.000,-68.000
1.452,-96.500,-23.500,-59.500,-72.000
1.453,-98.500,-18.500,-57.500,-75.500
1.454,-100.000,-14.500,-56.000,-78.500
1.455,-100.500,-11.000,-54.500,-81.000
1.456,-100.500,-9.500,-53.000,-82.000
1.457,-99.000,-9.000,-52.500,-81.500
1.458,-96.000,-9.500,-52.500,-80.000
1.459,-92.000,-12.000,-52.500,-77.500
1.460,-87.500,-15.000,-53.500,-74.000
1.461,-82.500,-19.000,-54.500,-70.000
1.462,-78.500,-24.000,-56.500,-66.000
1.463,-76.000,-29.500,-58.500,-62.500
1.464,-75.000,-34.500,-60.500,-59.500
1.465,-75.000,-38.000,-62.000,-57.500
1.466,-76.500,-40.000,-63.500,-56.000
1.467,-78.500,-40.000,-64.500,-56.000
1.468,-81.500,-38.500,-65.000,-57.000
1.469,-84.500,-35.500,-65.000,-59.000
1.470,-87.500,-31.500,-64.500,-62.500
1.471,-90.000,-26.500,-63.500,-66.500
1.472,-92.500,-21.500,-62.000,-70.500
1.473,-94.500,-17.000,-60.500,-74.500
1.474,-96.000,-13.500,-59.000,-78.000
1.475,-96.500,-11.000,-57.500,-81.000
1.476,-96.000,-10.000,-56.500,-83.000
1.477,-95.000,-10.500,-56.000,-83.500
1.478,-93.000,-13.000,-56.500,-83.000
1.479,-90.000,-16.500,-57.500,-81.500
1.480,-87.000,-21.500,-59.000,-79.000
1.481,-83.500,-27.500,-61.000,-76.000
1.482,-80.500,-33.000,-63.000,-73.000
1.483,-78.000,-37.000,-64.500,-70.500
1.484,-76.000,-39.500,-66.000,-68.500
1.485,-75.500,-40.500,-67.000,-67.000
1.486,-76.500,-40.500,-67.000,-65.000
1.487,-78.000,-39.000,-67.000,-63.500
1.488,-81.000,-36.500,-66.500,-61.500
1.489,-84.000,-33.500,-65.000,-59.500
1.490,-86.500,-29.500,-63.500,-59.000
1.491,-89.000,-25.500,-62.000,-60.000
1.492,-91.000,-21.000,-60.000,-62.500
1.493,-92.000,-17.500,-58.500,-66.500
1.494,-92.500,-14.500,-57.000,-71.500
1.495,-92.500,-12.500,-56.000,-75.500
1.496,-92.500,-12.000,-55.500,-78.500
1.497,-91.500,-13.000,-55.000,-80.000
1.498,-89.500,-15.000,-55.500,-80.000
1.499,-87.000,-18.500,-56.000,-79.000
1.500,-84.000,-22.000,-57.000,-76.500
1.501,-81.000,-26.500,-58.500,-73.000
1.502,-78.500,-30.500,-60.000,-70.000
1.503,-76.500,-34.500,-62.000,-66.500
1.504,-75.500,-38.500,-63.500,-63.000
1.505,-76.000,-41.000,-65.000,-61.000
1.506,-78.000,-42.500,-66.500,-59.500
1.507,-81.000,-42.000,-67.000,-60.000
1.508,-84.500,-40.500,-67.500,-61.500
1.509,-88.500,-37.000,-67.000,-65.000
1.510,-92.000,-32.500,-65.500,-68.500
1.511,-94.500,-27.500,-64.000,-72.500
1.512,-96.500,-22.500,-62.000,-76.500
1.513,-97.000,-18.000,-59.500,-80.000
1.514,-97.000,-14.500,-57.500,-82.500
1.515,-96.500,-12.000,-56.000,-84.500
1.516,-95.000,-11.000,-55.000,-86.000
1.517,-93.000,-11.500,-54.500,-86.500
1.518,-89.500,-13.000,-55.000,-86.500
1.519,-85.000,-16.000,-55.500,-85.500
1.520,-80.000,-20.000,-56.500,-83.500
1.521,-75.000,-24.500,-58.000,-81.000
1.522,-70.000,-29.500,-59.500,-77.500
1.523,-66.000,-34.000,-61.500,-74.000
1.524,-63.500,-38.500,-63.000,-70.500
1.525,-62.000,-41.000,-64.500,-68.000
1.526,-62.000,-42.500,-65.500,-66.500
1.527,-63.000,-42.500,-66.000,-66.000
1.528,-65.500,-40.500,-66.000,-66.500
1.529,-68.500,-37.500,-65.000,-69.000
1.530,-72.000,-33.500,-63.500,-72.000
1.531,-75.500,-28.500,-62.000,-76.000
1.532,-79.500,-24.000,-60.000,-79.500
1.533,-82.500,-19.000,-58.000,-83.000
1.534,-85.000,-15.000,-55.500,-86.000
1.535,-86.500,-12.000,-54.000,-88.000
1.536,-86.500,-10.000,-52.500,-89.000
1.537,-85.500,-9.500,-51.500,-89.000
1.538,-83.000,-10.500,-51.000,-88.000
1.539,-80.000,-13.500,-51.500,-86.000
1.540,-76.000,-17.500,-52.500,-83.500
1.541,-72.500,-22.000,-54.000,-80.000
1.542,-69.000,-26.500,-55.500,-76.500
1.543,-66.500,-30.500,-57.500,-73.000
1.544,-65.000,-34.000,-58.500,-69.500
1.545,-64.500,-36.000,-59.500,-67.000
1.546,-65.500,-36.500,-60.000,-65.000
1.547,-67.500,-36.000,-60.500,-64.000
1.548,-70.500,-33.500,-60.000,-64.000
1.549,-73.500,-30.000,-59.500,-65.500
1.550,-77.000,-25.500,-58.500,-67.500
1.551,-80.500,-21.000,-57.500,-71.000
1.552,-84.000,-17.000,-56.500,-75.000
1.553,-87.500,-13.500,-55.500,-79.000
1.554,-90.000,-11.500,-55.000,-82.500
1.555,-92.000,-11.000,-54.500,-85.500
1.556,-93.000,-11.500,-55.000,-87.000
1.557,-92.500,-12.500,-55.000,-88.000
1.558,-90.500,-14.000,-56.000,-87.500
1.559,-87.000,-17.000,-57.000,-86.000
1.560,-82.500,-20.500,-58.500,-83.500
1.561,-78.000,-25.000,-60.500,-80.000
1.562,-74.500,-29.500,-62.500,-76.000
1.563,-72.000,-34.500,-64.500,-71.500
1.564,-71.000,-38.000,-66.500,-67.500
1.565,-71.500,-40.500,-68.500,-64.000
1.566,-72.500,-42.000,-70.000,-61.000
1.567,-74.000,-42.000,-71.000,-58.500
1.568,-75.500,-40.500,-71.500,-57.500
1.569,-77.000,-39.000,-71.500,-57.000
1.570,-78.500,-36.500,-71.000,-57.000
1.571,-79.500,-34.000,-70.000,-58.000
1.572,-80.500,-31.000,-69.000,-59.000
1.573,-80.500,-28.500,-68.500,-59.500
1.574,-80.000,-27.000,-68.500,-59.500
1.575,-78.500,-26.000,-69.500,-58.500
1.576,-76.000,-27.500,-70.500,-56.500
1.577,-73.000,-31.000,-72.000,-52.500
1.578,-69.000,-37.000,-74.500,-47.000
1.579,-63.500,-44.500,-76.500,-40.000
1.580,-58.000,-53.500,-79.000,-32.000
1.581,-52.000,-61.500,-81.500,-23.000
1.582,-46.500,-68.000,-84.000,-14.000
1.583,-42.500,-73.500,-86.000,-6.000
1.584,-39.500,-77.500,-88.000,1.500
1.585,-39.000,-80.500,-90.000,6.500
1.586,-39.500,-82.500,-91.500,9.000
1.587,-41.000,-83.000,-92.500,10.000
1.588,-43.500,-82.000,-92.500,9.500
1.589,-47.000,-80.000,-92.000,8.500
1.590,-50.000,-77.000,-90.500,7.000
1.591,-53.500,-74.000,-88.500,6.500
1.592,-56.500,-70.500,-86.000,6.500
1.593,-59.500,-66.500,-83.500,6.000
1.594,-62.000,-62.000,-80.500,5.500
1.595,-64.500,-57.000,-77.000,2.500
1.596,-67.000,-52.000,-73.000,-3.000
1.597,-69.500,-46.500,-69.000,-10.000
1.598,-71.500,-42.000,-65.000,-19.000
1.599,-73.500,-38.000,-61.000,-28.500
1.600,-74.500,-35.000,-57.500,-37.000
1.601,-75.500,-33.500,-54.500,-44.000
1.602,-76.500,-32.500,-53.000,-49.000
1.603,-77.000,-33.000,-52.500,-53.000
1.604,-78.500,-33.000,-52.500,-55.500
1.605,-80.000,-33.500,-53.000,-57.500
1.606,-82.500,-33.000,-54.000,-59.500
1.607,-85.500,-32.500,-55.000,-62.000
1.608,-88.500,-31.000,-56.000,-65.000
1.609,-92.500,-28.500,-56.500,-69.000
1.610,-96.500,-25.500,-57.000,-74.000
1.611,-100.500,-22.000,-57.000,-79.500
1.612,-104.000,-18.000,-57.000,-85.000
1.613,-107.000,-14.500,-56.500,-90.500
1.614,-109.500,-11.000,-56.000,-95.000
1.615,-110.500,-8.000,-55.500,-98.500
1.616,-110.500,-7.000,-55.500,-101.000
1.617,-109.000,-6.500,-56.000,-102.000
1.618,-107.000,-8.000,-56.500,-101.000
1.619,-104.000,-10.500,-57.500,-98.500
1.620,-100.500,-14.500,-59.000,-94.000
1.621,-97.000,-19.000,-60.500,-88.500
1.622,-94.500,-24.500,-62.500,-83.000
1.623,-92.500,-29.500,-64.000,-78.000
1.624,-92.000,-33.500,-65.500,-73.500
1.625,-92.500,-36.500,-67.500,-70.500
1.626,-93.500,-38.000,-68.500,-68.000
1.627,-95.500,-37.500,-69.500,-67.000
1.628,-97.500,-36.000,-70.000,-67.500
1.629,-99.500,-32.500,-69.500,-69.500
1.630,-101.500,-28.000,-69.000,-73.000
1.631,-103.500,-23.500,-68.500,-77.000
1.632,-105.000,-18.500,-67.500,-82.000
1.633,-106.000,-14.500,-66.000,-86.500
1.634,-106.000,-11.000,-65.000,-91.000
1.635,-106.500,-8.500,-64.000,-94.500
1.636,-106.000,-7.000,-63.000,-97.000
1.637,-105.000,-7.000,-62.000,-98.000
1.638,-103.000,-8.500,-61.000,-97.000
1.639,-100.500,-11.000,-61.000,-95.000
1.640,-97.000,-14.500,-61.000,-91.500
1.641,-93.000,-19.000,-62.000,-87.500
1.642,-89.000,-24.000,-63.500,-83.000
1.643,-86.000,-29.000,-65.000,-78.500
1.644,-84.000,-33.000,-67.000,-75.000
1.645,-83.000,-36.500,-69.000,-71.500
1.646,-83.000,-38.000,-70.500,-69.500
1.647,-84.500,-38.000,-71.500,-68.500
1.648,-86.500,-36.000,-71.500,-69.000
1.649,-89.500,-32.500,-71.500,-71.000
1.650,-93.000,-27.500,-70.500,-73.500
1.651,-96.000,-23.000,-69.000,-77.500
1.652,-99.000,-18.000,-68.000,-81.500
1.653,-101.500,-14.500,-66.500,-86.000
1.654,-103.500,-12.000,-65.500,-90.500
1.655,-104.500,-10.500,-64.500,-93.500
1.656,-104.000,-10.500,-63.500,-96.000
1.657,-103.000,-11.500,-63.000,-96.500
1.658,-101.000,-13.500,-63.000,-96.000
1.659,-98.500,-16.000,-63.000,-94.000
1.660,-95.000,-19.500,-63.500,-91.000
1.661,-91.500,-23.000,-64.000,-87.500
1.662,-88.500,-27.000,-65.000,-83.000
1.663,-86.000,-30.000,-66.000,-78.500
1.664,-84.000,-33.000,-67.000,-74.500
1.665,-83.500,-34.500,-68.000,-71.500
1.666,-84.000,-35.000,-69.000,-69.500
1.667,-85.000,-34.500,-70.000,-69.000
1.668,-87.000,-32.500,-70.000,-69.500
1.669,-89.500,-29.000,-69.500,-71.500
1.670,-93.000,-25.000,-68.000,-74.500
1.671,-96.000,-20.500,-66.500,-78.500
1.672,-99.500,-16.000,-64.500,-82.500
1.673,-101.500,-12.000,-62.500,-86.500
1.674,-103.000,-9.000,-60.500,-90.000
1.675,-103.000,-7.000,-59.000,-93.000
1.676,-102.500,-6.500,-58.000,-94.500
1.677,-101.000,-7.500,-57.000,-95.000
1.678,-99.000,-10.000,-57.000,-94.500
1.679,-96.000,-14.000,-58.000,-92.000
1.680,-93.000,-18.500,-59.500,-89.000
1.681,-90.000,-23.500,-61.000,-85.000
1.682,-87.000,-28.000,-63.000,-80.500
1.683,-84.500,-32.000,-64.500,-76.000
1.684,-83.500,-35.000,-66.000,-71.500
1.685,-83.500,-36.500,-66.500,-68.500
1.686,-85.500,-36.500,-67.000,-66.500
1.687,-88.500,-35.500,-67.000,-66.000
1.688,-92.000,-33.500,-66.500,-67.000
1.689,-95.500,-30.500,-66.000,-69.500
1.690,-98.500,-27.000,-65.000,-73.500
1.691,-101.500,-23.000,-63.500,-79.000
1.692,-104.500,-19.000,-62.500,-85.000
1.693,-106.500,-15.500,-61.000,-91.000
1.694,-108.500,-13.000,-59.500,-95.000
1.695,-110.000,-11.000,-58.500,-97.500
1.696,-110.500,-10.000,-58.000,-97.500
1.697,-110.500,-10.000,-57.500,-95.500
1.698,-109.500,-11.000,-57.500,-91.500
1.699,-108.000,-13.500,-57.500,-86.500
1.700,-105.500,-17.000,-58.000,-81.500
1.701,-102.500,-20.500,-59.000,-77.000
1.702,-99.500,-24.500,-60.000,-73.000
1.703,-97.500,-28.000,-61.500,-69.500
1.704,-96.000,-31.500,-62.500,-67.000
1.705,-96.000,-34.500,-64.000,-64.500
1.706,-97.500,-36.000,-64.500,-62.500
1.707,-100.500,-37.000,-64.500,-61.000
1.708,-104.500,-36.000,-64.500,-61.000
1.709,-108.500,-33.500,-63.500,-62.500
1.710,-112.000,-29.500,-62.000,-65.500
1.711,-115.500,-25.000,-61.000,-69.500
1.712,-118.500,-20.500,-59.500,-74.500
1.713,-120.500,-16.500,-57.500,-79.000
1.714,-122.500,-13.000,-56.000,-83.000
1.715,-123.500,-10.500,-54.500,-86.500
1.716,-123.500,-8.500,-53.500,-89.000
1.717,-122.500,-8.500,-52.500,-89.500
1.718,-119.500,-10.000,-52.000,-89.000
1.719,-115.500,-12.500,-52.000,-87.000
1.720,-110.000,-16.500,-52.500,-84.000
1.721,-104.500,-21.000,-54.000,-79.500
1.722,-99.500,-26.000,-56.000,-74.500
1.723,-96.500,-31.000,-57.500,-70.000
1.724,-95.000,-35.000,-59.500,-66.500
1.725,-95.000,-37.500,-60.500,-63.500
1.726,-96.000,-39.000,-61.500,-62.000
1.727,-97.500,-38.500,-62.000,-61.500
1.728,-99.500,-36.500,-62.000,-62.500
1.729,-101.000,-33.500,-61.500,-65.000
1.730,-103.000,-29.500,-60.000,-68.000
1.731,-104.500,-24.500,-58.500,-71.500
1.732,-106.000,-19.500,-56.500,-75.500
1.733,-107.500,-15.000,-54.500,-80.000
1.734,-108.000,-11.000,-53.000,-83.500
1.735,-107.500,-7.500,-51.500,-86.000
1.736,-107.000,-6.000,-51.000,-87.500
1.737,-105.000,-5.500,-51.000,-88.000
1.738,-102.500,-7.500,-51.000,-86.000
1.739,-99.000,-11.500,-51.500,-83.000
1.740,-95.500,-16.500,-52.500,-78.500
1.741,-91.500,-22.500,-54.000,-73.500
1.742,-88.500,-28.500,-55.000,-68.500
1.743,-85.500,-33.500,-56.500,-64.000
1.744,-84.000,-37.000,-58.000,-60.500
1.745,-83.500,-38.500,-59.000,-57.500
1.746,-84.000,-38.000,-59.500,-56.000
1.747,-86.000,-36.000,-59.500,-55.000
1.748,-88.500,-33.000,-59.500,-55.500
1.749,-91.500,-29.000,-58.500,-57.000
1.750,-95.000,-24.500,-57.500,-59.500
1.751,-98.000,-20.000,-55.500,-63.000
1.752,-101.000,-15.500,-54.000,-67.000
1.753,-103.500,-12.000,-52.000,-71.500
1.754,-105.000,-9.500,-50.500,-75.500
1.755,-106.000,-8.000,-49.500,-79.000
1.756,-106.500,-7.500,-48.500,-82.000
1.757,-105.500,-8.500,-48.000,-84.000
1.758,-103.500,-10.500,-48.000,-84.000
1.759,-100.000,-14.000,-48.500,-83.000
1.760,-96.500,-18.500,-49.000,-80.000
1.761,-93.000,-23.500,-50.500,-76.500
1.762,-89.500,-28.500,-52.000,-72.500
1.763,-86.500,-33.000,-54.000,-68.500
1.764,-85.000,-37.000,-55.000,-65.000
1.765,-84.500,-39.000,-56.000,-62.500
1.766,-86.000,-39.500,-57.000,-60.500
1.767,-88.500,-39.000,-57.000,-60.000
1.768,-92.000,-37.000,-56.500,-60.000
1.769,-95.000,-34.000,-55.500,-61.500
1.770,-98.500,-30.500,-54.500,-63.500
1.771,-101.000,-26.000,-53.500,-66.500
1.772,-103.500,-22.000,-52.000,-70.000
1.773,-105.000,-17.500,-50.500,-73.000
1.774,-106.000,-13.500,-49.000,-76.000
1.775,-106.500,-10.500,-48.000,-78.000
1.776,-106.500,-9.000,-48.000,-79.000
1.777,-105.500,-9.000,-48.500,-78.500
1.778,-103.000,-11.000,-49.500,-77.000
1.779,-99.000,-14.000,-51.000,-73.500
1.780,-94.500,-18.500,-53.500,-69.000
1.781,-89.000,-24.000,-56.000,-64.000
1.782,-84.000,-29.500,-58.500,-59.000
1.783,-80.000,-34.500,-61.500,-54.000
1.784,-77.500,-38.500,-64.000,-50.500
1.785,-76.000,-41.500,-66.000,-48.000
1.786,-76.000,-43.000,-67.500,-46.500
1.787,-77.500,-43.000,-67.500,-47.000
1.788,-79.500,-41.500,-67.000,-48.000
1.789,-83.000,-38.500,-65.500,-50.500
1.790,-87.000,-34.500,-63.000,-54.000
1.791,-91.500,-30.000,-60.000,-58.000
1.792,-95.500,-25.000,-57.000,-63.000
1.793,-99.500,-21.000,-54.000,-68.000
1.794,-102.500,-17.500,-51.000,-73.500
1.795,-104.500,-15.000,-48.500,-79.000
1.796,-106.000,-13.500,-46.500,-83.000
1.797,-106.000,-13.500,-45.000,-85.500
1.798,-104.500,-15.000,-44.500,-85.000
1.799,-101.500,-17.500,-44.500,-81.500
1.800,-98.000,-21.000,-45.500,-75.000
1.801,-94.000,-25.000,-46.500,-67.000
1.802,-90.000,-29.500,-48.500,-58.500
1.803,-86.500,-34.000,-50.500,-51.000
1.804,-84.000,-37.500,-52.500,-45.500
1.805,-83.000,-40.500,-54.500,-42.500
1.806,-83.000,-42.000,-56.000,-41.000
1.807,-84.000,-42.000,-57.000,-41.500
1.808,-86.000,-40.500,-57.000,-43.000
1.809,-88.000,-37.500,-56.500,-45.500
1.810,-90.500,-33.500,-55.500,-49.000
1.811,-93.500,-29.000,-54.000,-52.500
1.812,-95.500,-24.500,-52.000,-57.000
1.813,-98.000,-20.000,-50.500,-61.000
1.814,-99.500,-16.500,-49.000,-64.500
1.815,-100.000,-14.500,-48.000,-67.000
1.816,-99.500,-13.500,-47.500,-68.500
1.817,-98.500,-13.500,-47.500,-69.000
1.818,-96.000,-15.000,-48.000,-68.000
1.819,-93.000,-18.000,-48.500,-65.500
1.820,-89.500,-21.500,-49.500,-62.500
1.821,-85.500,-26.000,-51.000,-58.500
1.822,-82.000,-30.000,-52.500,-54.500
1.823,-79.500,-34.500,-54.000,-50.500
1.824,-78.000,-38.000,-55.500,-47.000
1.825,-78.000,-41.000,-57.000,-44.500
1.826,-79.000,-44.000,-59.000,-42.500
1.827,-81.500,-46.000,-60.000,-42.000
1.828,-84.500,-47.000,-61.000,-42.000
1.829,-88.000,-46.500,-61.000,-43.500
1.830,-91.500,-44.500,-60.500,-46.500
1.831,-94.500,-41.000,-60.000,-50.500
1.832,-97.000,-37.000,-59.000,-55.500
1.833,-99.000,-33.000,-58.000,-60.500
1.834,-100.000,-29.500,-56.500,-65.500
1.835,-100.000,-26.500,-55.500,-69.500
1.836,-99.500,-24.500,-54.500,-72.500
1.837,-97.500,-24.000,-54.000,-74.000
1.838,-94.000,-25.000,-53.500,-74.000
1.839,-89.500,-27.500,-53.500,-72.500
1.840,-84.500,-31.500,-54.000,-70.000
1.841,-80.000,-35.500,-55.500,-66.500
1.842,-75.500,-40.500,-57.000,-63.000
1.843,-73.000,-44.500,-58.500,-59.500
1.844,-72.000,-48.500,-60.000,-56.500
1.845,-72.000,-51.000,-61.500,-54.500
1.846,-73.500,-52.000,-62.000,-53.500
1.847,-76.000,-51.500,-62.500,-53.000
1.848,-79.000,-49.500,-62.500,-54.000
1.849,-82.500,-46.500,-61.500,-56.000
1.850,-86.000,-42.500,-60.500,-59.000
1.851,-89.500,-38.000,-58.500,-62.500
1.852,-93.000,-33.500,-56.500,-67.000
1.853,-95.500,-28.500,-54.500,-72.000
1.854,-97.500,-24.500,-53.000,-77.000
1.855,-98.000,-21.000,-51.500,-81.500
1.856,-97.500,-19.000,-50.000,-85.500
1.857,-96.000,-19.000,-49.500,-87.500
1.858,-93.000,-20.000,-49.500,-87.500
1.859,-89.000,-23.000,-49.500,-86.000
1.860,-84.500,-26.500,-50.000,-83.000
1.861,-80.500,-31.000,-51.000,-79.500
1.862,-77.000,-35.500,-52.500,-75.500
1.863,-74.500,-39.500,-54.000,-71.000
1.864,-72.500,-42.500,-55.500,-67.500
1.865,-71.500,-44.000,-57.000,-64.500
1.866,-71.500,-44.500,-58.000,-62.500
1.867,-72.500,-43.500,-59.000,-62.000
1.868,-74.500,-41.500,-59.000,-63.000
1.869,-77.500,-38.000,-58.500,-65.000
1.870,-81.000,-34.000,-57.500,-68.500
1.871,-84.500,-30.000,-56.500,-73.000
1.872,-88.500,-25.500,-54.500,-77.500
1.873,-92.500,-21.500,-53.000,-82.500
1.874,-96.000,-18.500,-51.500,-87.000
1.875,-98.500,-16.500,-50.000,-91.000
1.876,-100.000,-15.000,-49.500,-93.500
1.877,-100.000,-14.500,-49.000,-94.500
1.878,-98.500,-15.500,-48.500,-94.000
1.879,-95.500,-17.500,-49.000,-92.000
1.880,-91.500,-20.500,-49.000,-88.500
1.881,-87.500,-25.000,-50.000,-83.500
1.882,-83.500,-29.000,-51.000,-78.000
1.883,-80.500,-33.500,-52.000,-73.000
1.884,-79.500,-36.500,-53.000,-68.500
1.885,-79.500,-38.500,-54.000,-65.000
1.886,-81.000,-39.500,-54.500,-63.000
1.887,-83.500,-39.000,-55.000,-63.000
1.888,-86.000,-37.000,-55.000,-65.000
1.889,-89.500,-34.000,-54.500,-69.000
1.890,-92.500,-30.000,-53.500,-74.500
1.891,-95.500,-25.500,-52.000,-81.000
1.892,-98.000,-20.500,-50.500,-87.500
1.893,-100.000,-16.000,-49.000,-93.000
1.894,-101.500,-12.500,-47.500,-96.500
1.895,-102.000,-9.500,-46.500,-97.500
1.896,-101.500,-8.000,-46.000,-96.500
1.897,-100.000,-8.000,-46.000,-93.500
1.898,-97.500,-9.500,-46.000,-90.000
1.899,-94.500,-12.500,-47.000,-86.000
1.900,-91.000,-16.500,-48.000,-82.500
1.901,-88.000,-21.500,-49.500,-79.000
1.902,-85.000,-26.500,-51.000,-76.000
1.903,-83.000,-31.500,-52.500,-72.500
1.904,-82.000,-35.000,-54.000,-70.000
1.905,-82.000,-37.500,-56.000,-67.500
1.906,-83.000,-38.500,-57.500,-66.000
1.907,-85.000,-38.000,-58.500,-65.000
1.908,-87.500,-36.000,-59.000,-66.000
1.909,-90.500,-32.500,-58.500,-67.500
1.910,-93.000,-28.000,-57.500,-70.500
1.911,-95.500,-23.000,-55.500,-74.000
1.912,-97.000,-18.500,-53.000,-78.000
1.913,-98.500,-14.000,-50.500,-82.500
1.914,-99.500,-10.500,-48.500,-87.000
1.915,-99.500,-7.500,-47.000,-90.500
1.916,-99.500,-6.000,-46.000,-93.000
1.917,-98.500,-5.500,-45.000,-94.000
1.918,-96.500,-7.000,-45.000,-94.000
1.919,-93.000,-10.500,-45.500,-92.000
1.920,-89.000,-14.500,-46.500,-89.000
1.921,-84.000,-19.500,-48.000,-85.000
1.922,-79.500,-24.500,-49.000,-80.500
1.923,-75.500,-28.500,-50.500,-76.000
1.924,-73.000,-31.500,-52.500,-72.000
1.925,-72.000,-33.500,-53.500,-69.000
1.926,-72.500,-34.500,-55.000,-67.000
1.927,-74.500,-35.000,-56.000,-66.500
1.928,-78.000,-34.500,-56.000,-66.500
1.929,-82.000,-33.500,-56.000,-68.000
1.930,-87.000,-30.500,-55.500,-71.000
1.931,-91.500,-27.000,-54.000,-75.000
1.932,-96.000,-22.000,-52.500,-79.000
1.933,-100.000,-17.500,-50.500,-83.500
1.934,-104.000,-13.500,-48.500,-87.500
1.935,-107.000,-10.500,-46.500,-91.000
1.936,-108.500,-8.500,-45.000,-93.500
1.937,-109.500,-8.000,-44.000,-94.500
1.938,-109.000,-9.000,-43.500,-94.500
1.939,-107.000,-11.500,-44.000,-93.000
1.940,-104.000,-15.500,-45.000,-91.000
1.941,-100.500,-19.500,-46.000,-87.500
1.942,-97.000,-23.500,-47.500,-83.500
1.943,-94.500,-27.500,-49.000,-79.500
1.944,-93.000,-30.500,-50.500,-76.000
1.945,-92.500,-32.500,-52.000,-73.000
1.946,-93.000,-33.500,-53.000,-71.000
1.947,-93.500,-33.000,-53.500,-70.500
1.948,-94.000,-31.500,-53.500,-70.500
1.949,-95.000,-29.000,-53.500,-72.000
1.950,-95.500,-25.500,-52.500,-74.500
1.951,-96.000,-22.000,-51.500,-78.000
1.952,-96.500,-18.000,-50.000,-81.500
1.953,-96.500,-14.000,-48.500,-85.500
1.954,-97.000,-10.500,-47.000,-88.500
1.955,-97.500,-7.500,-45.500,-91.000
1.956,-97.500,-5.500,-44.500,-92.500
1.957,-97.500,-5.000,-44.000,-92.500
1.958,-97.000,-5.500,-43.500,-91.500
1.959,-95.000,-8.000,-44.000,-89.500
1.960,-92.500,-11.500,-44.500,-87.000
1.961,-89.500,-16.000,-45.500,-83.500
1.962,-86.500,-20.500,-46.500,-80.000
1.963,-83.500,-24.500,-48.000,-76.500
1.964,-82.000,-28.000,-49.000,-74.000
1.965,-82.000,-30.000,-50.000,-72.500
1.966,-83.000,-31.000,-50.500,-72.000
1.967,-85.500,-30.500,-51.000,-72.000
1.968,-89.000,-29.000,-50.500,-73.000
1.969,-93.000,-26.000,-49.500,-75.000
1.970,-97.000,-22.000,-48.000,-77.000
1.971,-101.500,-17.000,-46.500,-80.000
1.972,-105.500,-12.500,-44.500,-83.000
1.973,-109.000,-8.000,-42.500,-86.500
1.974,-111.500,-4.500,-41.000,-89.500
1.975,-113.000,-2.500,-39.500,-92.500
1.976,-113.500,-1.000,-38.500,-95.000
1.977,-113.000,-1.500,-38.000,-96.500
1.978,-111.500,-3.000,-38.000,-96.500
1.979,-108.500,-6.000,-39.000,-95.000
1.980,-105.500,-10.500,-40.000,-92.000
1.981,-102.500,-15.500,-41.500,-88.000
1.982,-99.500,-20.500,-43.000,-83.000
1.983,-97.500,-24.500,-44.500,-78.500
1.984,-96.500,-28.000,-46.000,-74.000
1.985,-97.000,-29.500,-47.000,-71.000
1.986,-98.500,-30.000,-48.000,-69.000
1.987,-100.500,-29.000,-48.500,-68.000
1.988,-103.500,-27.500,-48.500,-69.000
1.989,-106.500,-25.000,-47.500,-70.500
1.990,-110.000,-21.500,-47.000,-73.500
1.991,-113.500,-17.500,-45.500,-77.000
1.992,-116.500,-13.500,-44.500,-81.500
1.993,-117.500,-9.500,-43.000,-86.500
1.994,-118.000,-6.000,-42.000,-91.500
1.995,-117.000,-3.000,-41.000,-96.500
1.996,-115.500,-1.500,-40.000,-100.000
1.997,-113.500,-1.500,-39.500,-102.500
1.998,-111.000,-3.500,-39.500,-102.500
1.999,-107.500,-6.500,-39.500,-99.500
2.000,-104.000,-10.500,-40.500,-94.000
2.001,-99.500,-15.500,-41.500,-87.000
2.002,-95.500,-20.000,-43.000,-79.500
2.003,-92.000,-24.500,-44.500,-72.500
2.004,-90.000,-27.500,-46.000,-68.000
2.005,-89.000,-29.000,-47.500,-65.500
2.006,-89.500,-29.500,-49.000,-65.000
2.007,-90.500,-28.500,-49.500,-66.000
2.008,-93.000,-26.500,-50.000,-68.500
2.009,-95.500,-23.500,-50.000,-71.000
2.010,-98.000,-19.500,-49.000,-74.500
2.011,-100.000,-16.000,-48.000,-78.000
2.012,-102.000,-12.000,-46.500,-82.000
2.013,-103.500,-8.500,-45.000,-86.000
2.014,-104.000,-5.500,-43.500,-89.500
2.015,-104.000,-3.000,-42.000,-92.500
2.016,-103.000,-2.000,-40.500,-94.000
2.017,-101.000,-3.000,-40.000,-95.000
2.018,-98.000,-5.000,-40.500,-94.500
2.019,-94.000,-8.500,-41.000,-92.500
2.020,-90.000,-12.500,-42.000,-90.000
2.021,-85.500,-17.000,-43.500,-86.000
2.022,-82.000,-21.500,-45.000,-82.000
2.023,-79.000,-25.000,-46.500,-77.500
2.024,-77.500,-28.000,-48.000,-73.500
2.025,-77.000,-30.000,-49.000,-70.000
2.026,-77.500,-30.000,-50.500,-68.000
2.027,-79.500,-29.000,-51.000,-67.000
2.028,-81.500,-27.000,-51.500,-67.500
2.029,-84.500,-23.500,-51.500,-69.500
2.030,-87.000,-19.000,-50.500,-72.000
2.031,-89.500,-14.500,-49.500,-76.000
2.032,-92.000,-10.500,-48.000,-79.500
2.033,-94.000,-6.500,-46.000,-83.500
2.034,-95.500,-3.000,-44.000,-86.500
2.035,-95.500,0.000,-42.000,-89.000
2.036,-94.500,1.500,-40.500,-91.000
2.037,-92.500,2.000,-39.500,-92.000
2.038,-89.500,1.000,-39.000,-92.000
2.039,-85.500,-1.500,-39.500,-91.000
2.040,-81.500,-5.500,-40.500,-89.000
2.041,-78.000,-10.500,-42.500,-86.500
2.042,-75.000,-15.000,-44.000,-83.500
2.043,-73.000,-19.500,-46.000,-80.000
2.044,-72.500,-23.500,-48.000,-77.000
2.045,-73.000,-26.000,-49.500,-75.000
2.046,-74.500,-27.500,-50.500,-73.500
2.047,-77.000,-27.000,-51.000,-73.000
2.048,-80.500,-25.000,-50.500,-73.500
2.049,-84.000,-21.500,-50.000,-75.500
2.050,-88.000,-17.000,-48.500,-78.000
2.051,-92.000,-12.500,-46.500,-81.000
2.052,-95.500,-8.000,-44.500,-84.500
2.053,-98.000,-4.000,-42.500,-88.000
2.054,-100.000,-1.000,-40.500,-91.500
2.055,-101.000,1.500,-39.000,-94.500
2.056,-101.500,2.000,-37.500,-96.500
2.057,-100.000,2.000,-37.000,-97.500
2.058,-98.000,0.500,-36.500,-97.000
2.059,-94.500,-2.000,-37.000,-95.000
2.060,-90.000,-6.000,-38.000,-92.000
2.061,-85.500,-10.500,-39.000,-87.500
2.062,-81.500,-15.000,-40.500,-83.000
2.063,-78.000,-19.000,-41.500,-78.500
2.064,-76.000,-22.500,-42.500,-74.500
2.065,-75.500,-24.500,-43.500,-71.500
2.066,-76.500,-25.000,-44.000,-69.500
2.067,-78.500,-24.500,-44.000,-69.000
2.068,-82.000,-22.500,-44.000,-69.000
2.069,-86.000,-19.500,-43.500,-70.500
2.070,-90.500,-15.500,-42.500,-73.000
2.071,-95.000,-11.000,-41.000,-77.000
2.072,-99.500,-6.000,-39.500,-81.500
2.073,-103.500,-1.000,-38.000,-86.000
2.074,-107.000,3.000,-36.500,-90.500
2.075,-110.000,5.000,-35.500,-94.000
2.076,-111.500,5.000,-34.500,-96.000
2.077,-112.000,3.000,-34.500,-96.500
2.078,-111.000,-0.500,-35.000,-95.500
2.079,-109.000,-5.000,-35.500,-93.500
2.080,-106.000,-10.000,-37.000,-90.000
2.081,-102.000,-15.000,-38.500,-85.500
2.082,-98.000,-20.000,-40.500,-81.000
2.083,-94.500,-24.000,-42.000,-77.000
2.084,-92.000,-27.000,-43.500,-73.500
2.085,-91.000,-28.000,-44.500,-71.000
2.086,-91.000,-28.000,-45.000,-70.000
2.087,-92.500,-26.500,-45.000,-70.000
2.088,-95.000,-24.000,-44.500,-71.000
2.089,-98.000,-21.000,-44.000,-73.500
2.090,-101.500,-17.500,-43.000,-77.500
2.091,-104.500,-13.500,-41.500,-83.000
2.092,-108.000,-10.000,-39.500,-89.500
2.093,-111.000,-6.500,-38.000,-96.500
2.094,-113.500,-3.500,-36.500,-102.500
2.095,-114.500,-1.000,-35.000,-106.500
2.096,-115.000,1.000,-34.500,-108.500
2.097,-114.000,2.000,-33.500,-107.000
2.098,-111.500,1.000,-33.000,-103.000
2.099,-107.500,-1.000,-33.000,-97.000
2.100,-103.000,-4.500,-33.500,-90.000
2.101,-99.000,-9.000,-34.000,-84.000
2.102,-95.000,-14.000,-35.000,-79.000
2.103,-92.500,-19.000,-36.000,-75.500
2.104,-91.500,-23.000,-37.500,-73.000
2.105,-91.500,-26.000,-38.500,-71.000
2.106,-93.000,-27.500,-39.500,-70.000
2.107,-96.000,-27.000,-40.500,-69.500
2.108,-99.000,-25.000,-40.500,-70.500
2.109,-101.500,-21.500,-40.500,-72.500
2.110,-104.500,-17.000,-39.500,-75.500
2.111,-106.500,-12.500,-38.500,-79.500
2.112,-108.000,-8.500,-37.000,-83.500
2.113,-109.000,-5.000,-35.500,-87.500
2.114,-109.500,-2.500,-34.000,-91.000
2.115,-109.500,-0.500,-33.000,-94.000
2.116,-109.500,0.500,-32.000,-96.000
2.117,-109.000,0.500,-31.500,-97.500
2.118,-108.000,-1.000,-31.500,-97.500
2.119,-105.500,-4.000,-31.500,-96.000
2.120,-102.000,-8.000,-32.500,-93.500
2.121,-98.000,-13.000,-34.000,-90.000
2.122,-94.500,-18.000,-35.500,-86.500
2.123,-91.000,-22.500,-37.000,-83.000
2.124,-89.000,-26.000,-39.000,-80.000
2.125,-88.000,-28.500,-41.000,-78.000
2.126,-89.000,-29.500,-42.500,-77.000
2.127,-91.000,-29.000,-43.500,-77.500
2.128,-93.500,-27.000,-43.500,-79.000
2.129,-96.000,-24.000,-43.000,-81.500
2.130,-99.500,-20.000,-42.000,-85.000
2.131,-102.500,-16.000,-40.500,-89.500
2.132,-106.000,-11.000,-39.000,-94.000
2.133,-108.500,-7.000,-37.000,-98.000
2.134,-110.000,-4.000,-35.500,-102.000
2.135,-110.500,-1.500,-34.500,-105.000
2.136,-110.000,-1.000,-34.000,-107.000
2.137,-108.500,-1.500,-34.000,-107.500
2.138,-106.000,-3.000,-34.000,-106.500
2.139,-102.500,-5.500,-35.000,-104.500
2.140,-98.500,-9.000,-36.000,-101.500
2.141,-94.500,-13.500,-37.000,-97.500
2.142,-90.500,-18.000,-39.000,-94.000
2.143,-87.500,-22.000,-40.500,-90.000
2.144,-85.000,-26.000,-42.000,-87.500
2.145,-84.500,-28.500,-43.500,-85.000
2.146,-85.000,-29.500,-44.500,-84.000
2.147,-86.500,-29.000,-45.000,-84.000
2.148,-88.500,-27.000,-45.000,-85.000
2.149,-90.500,-24.500,-44.500,-87.000
2.150,-92.500,-20.500,-43.000,-90.500
2.151,-95.000,-16.500,-42.000,-94.500
2.152,-97.000,-12.500,-40.500,-98.500
2.153,-99.500,-9.000,-38.500,-103.000
2.154,-101.000,-5.500,-37.000,-107.000
2.155,-101.500,-3.000,-36.000,-110.500
2.156,-102.000,-1.000,-35.000,-112.500
2.157,-102.000,-0.500,-34.000,-114.000
2.158,-101.500,-1.000,-34.000,-114.000
2.159,-99.500,-3.500,-34.500,-112.000
2.160,-97.000,-7.500,-35.500,-109.500
2.161,-94.000,-13.500,-37.000,-105.000
2.162,-90.500,-19.500,-38.500,-100.500
2.163,-87.500,-25.500,-40.500,-96.000
2.164,-86.000,-30.000,-42.500,-91.500
2.165,-85.500,-32.500,-44.000,-88.500
2.166,-85.500,-33.500,-44.500,-86.000
2.167,-86.500,-32.000,-45.000,-85.500
2.168,-88.500,-30.000,-45.000,-86.000
2.169,-90.000,-26.500,-44.000,-87.000
2.170,-92.500,-22.000,-42.500,-89.500
2.171,-95.000,-17.000,-41.000,-92.500
2.172,-97.500,-12.000,-39.000,-96.000
2.173,-99.500,-6.500,-37.000,-99.500
2.174,-101.000,-2.000,-35.500,-103.000
2.175,-101.500,1.500,-34.000,-105.500
2.176,-101.000,3.500,-33.000,-107.000
2.177,-100.000,3.500,-32.500,-107.500
2.178,-97.500,1.500,-32.500,-106.500
2.179,-94.000,-2.000,-33.000,-104.500
2.180,-90.000,-7.000,-33.500,-101.000
2.181,-85.500,-11.500,-34.500,-97.000
2.182,-81.500,-16.500,-35.500,-93.000
2.183,-78.000,-21.000,-37.000,-89.500
2.184,-76.000,-24.000,-38.500,-86.000
2.185,-75.000,-26.000,-40.000,-83.500
2.186,-76.000,-27.000,-41.500,-81.500
2.187,-78.000,-26.000,-42.000,-80.000
2.188,-81.000,-24.000,-43.000,-80.000
2.189,-84.000,-21.000,-42.500,-81.500
2.190,-87.500,-17.500,-42.000,-84.000
2.191,-91.000,-13.000,-41.000,-87.500
2.192,-94.500,-9.000,-39.000,-92.000
2.193,-97.500,-5.000,-37.500,-97.500
2.194,-99.500,-1.500,-36.000,-103.500
2.195,-101.000,1.000,-34.500,-109.000
2.196,-101.000,2.000,-33.500,-114.000
2.197,-100.500,1.500,-33.000,-117.500
2.198,-98.500,-0.500,-33.500,-118.500
2.199,-96.000,-4.000,-34.000,-116.000
2.200,-93.000,-8.000,-35.000,-111.500
2.201,-90.000,-13.000,-36.000,-104.500
2.202,-87.500,-17.500,-37.500,-96.500
2.203,-85.500,-22.000,-38.500,-89.000
2.204,-85.000,-25.000,-39.000,-83.500
2.205,-85.500,-27.000,-40.000,-80.500
2.206,-87.000,-28.000,-40.500,-79.500
2.207,-89.000,-28.500,-40.500,-79.500
2.208,-92.000,-28.000,-40.500,-81.000
2.209,-95.500,-27.500,-40.000,-83.500
2.210,-99.000,-25.500,-39.500,-86.500
2.211,-103.000,-21.500,-38.000,-90.000
2.212,-106.500,-16.500,-36.500,-94.000
2.213,-109.000,-10.500,-35.000,-98.000
2.214,-111.000,-6.000,-33.500,-101.500
2.215,-111.500,-2.500,-32.500,-104.000
2.216,-111.000,-1.000,-32.500,-105.000
2.217,-109.000,-1.000,-33.000,-105.000
2.218,-105.500,-2.000,-33.500,-103.500
2.219,-101.000,-4.500,-34.500,-100.500
2.220,-95.500,-7.500,-36.000,-97.000
2.221,-89.500,-11.000,-38.000,-92.000
2.222,-84.000,-15.500,-40.500,-87.500
2.223,-79.500,-20.000,-43.500,-83.000
2.224,-76.500,-23.500,-46.000,-79.500
2.225,-75.500,-26.000,-47.500,-77.500
2.226,-76.500,-27.000,-48.500,-77.000
2.227,-79.000,-26.500,-48.500,-77.500
2.228,-82.000,-24.500,-48.000,-79.000
2.229,-85.500,-21.500,-46.500,-82.000
2.230,-89.500,-17.000,-44.000,-86.000
2.231,-93.500,-12.500,-41.500,-90.500
2.232,-97.000,-7.500,-38.500,-96.000
2.233,-100.500,-3.000,-35.500,-101.000
2.234,-103.000,1.500,-32.500,-106.000
2.235,-105.000,4.500,-30.000,-109.500
2.236,-105.500,6.000,-28.500,-112.000
2.237,-105.000,5.500,-28.500,-113.000
2.238,-102.500,3.500,-29.000,-112.000
2.239,-98.500,-0.500,-30.500,-110.000
2.240,-93.500,-5.500,-32.500,-107.000
2.241,-88.000,-11.500,-35.500,-103.500
2.242,-83.000,-17.000,-38.000,-100.000
2.243,-79.000,-22.000,-40.500,-96.500
2.244,-76.500,-26.000,-43.000,-94.000
2.245,-75.500,-28.500,-45.000,-92.000
2.246,-76.500,-29.500,-46.500,-91.000
2.247,-78.500,-29.500,-47.500,-91.500
2.248,-81.000,-28.500,-48.000,-93.000
2.249,-83.500,-26.500,-48.000,-95.000
2.250,-86.500,-24.000,-47.000,-98.000
2.251,-89.500,-20.500,-46.000,-102.000
2.252,-92.000,-16.500,-44.500,-107.000
2.253,-94.000,-12.000,-43.000,-112.000
2.254,-95.500,-8.000,-41.500,-116.500
2.255,-96.000,-5.000,-40.500,-120.000
2.256,-95.500,-3.000,-39.500,-122.500
2.257,-94.000,-2.500,-39.000,-123.500
2.258,-92.000,-3.500,-39.000,-123.000
2.259,-88.500,-6.000,-39.000,-120.500
2.260,-84.500,-9.000,-39.500,-117.000
2.261,-80.500,-13.000,-40.500,-112.500
2.262,-77.000,-17.500,-41.000,-107.500
2.263,-74.500,-21.500,-42.000,-103.000
2.264,-72.500,-25.000,-43.000,-98.500
2.265,-72.500,-28.000,-43.500,-95.000
2.266,-73.000,-29.500,-44.500,-92.000
2.267,-74.500,-29.500,-44.500,-90.500
2.268,-76.500,-27.500,-44.500,-90.000
2.269,-79.000,-24.000,-44.000,-91.000
2.270,-82.000,-19.500,-43.000,-93.000
2.271,-85.500,-15.000,-41.500,-96.000
2.272,-89.000,-10.000,-39.500,-99.500
2.273,-92.500,-6.000,-38.000,-103.000
2.274,-95.500,-3.000,-36.500,-106.000
2.275,-97.000,-0.500,-35.000,-109.000
2.276,-97.000,0.500,-34.500,-111.000
2.277,-96.000,0.500,-34.000,-112.500
2.278,-93.500,-0.500,-34.000,-112.500
2.279,-90.000,-3.500,-34.000,-111.000
2.280,-86.000,-7.000,-35.000,-108.000
2.281,-81.500,-11.000,-36.000,-104.500
2.282,-77.500,-15.500,-37.000,-100.500
2.283,-74.500,-19.500,-38.500,-96.000
2.284,-72.000,-22.500,-40.000,-92.000
2.285,-71.000,-24.000,-41.000,-88.000
2.286,-71.500,-24.500,-42.000,-85.000
2.287,-73.000,-23.500,-42.000,-83.500
2.288,-75.000,-21.500,-42.000,-82.500
2.289,-77.500,-19.500,-41.500,-83.500
2.290,-79.500,-17.500,-41.500,-85.000
2.291,-82.000,-16.000,-41.000,-88.000
2.292,-83.500,-14.500,-41.000,-91.500
2.293,-84.500,-13.500,-40.500,-95.000
2.294,-84.000,-12.000,-40.000,-98.500
2.295,-83.000,-11.500,-39.500,-100.000
2.296,-81.000,-11.500,-40.000,-99.000
2.297,-78.500,-13.500,-40.500,-95.500
2.298,-75.500,-17.500,-42.000,-88.500
2.299,-71.500,-23.000,-44.000,-78.500
2.300,-67.000,-30.000,-46.500,-67.000
2.301,-62.000,-37.500,-49.500,-55.500
2.302,-57.000,-45.000,-52.500,-45.000
2.303,-52.000,-52.000,-55.000,-35.500
2.304,-48.500,-57.000,-58.000,-27.500
2.305,-46.000,-60.500,-60.000,-21.000
2.306,-45.500,-62.000,-61.500,-16.000
2.307,-47.000,-62.500,-62.500,-12.000
2.308,-49.500,-62.000,-63.500,-9.500
2.309,-53.500,-60.500,-63.500,-9.000
2.310,-57.500,-58.500,-63.000,-9.500
2.311,-62.000,-56.000,-62.500,-11.000
2.312,-65.500,-53.000,-61.000,-13.000
2.313,-68.500,-50.500,-59.500,-16.000
2.314,-70.500,-47.500,-58.000,-18.500
2.315,-71.500,-45.000,-56.000,-21.500
2.316,-72.000,-43.500,-54.000,-24.000
2.317,-72.000,-42.000,-52.000,-27.000
2.318,-72.000,-41.500,-50.500,-30.000
2.319,-71.500,-41.500,-48.000,-33.000
2.320,-71.500,-41.000,-46.000,-36.500
2.321,-71.500,-40.500,-43.000,-40.500
2.322,-72.000,-39.000,-40.000,-45.000
2.323,-73.500,-36.500,-37.000,-50.000
2.324,-75.500,-33.000,-34.000,-55.500
2.325,-78.500,-29.500,-32.000,-60.500
2.326,-82.000,-25.500,-30.500,-65.500
2.327,-86.000,-21.500,-29.500,-70.000
2.328,-90.000,-17.500,-29.000,-75.000
2.329,-94.000,-13.500,-28.500,-80.000
2.330,-98.000,-9.500,-28.000,-85.500
2.331,-101.500,-6.000,-27.500,-90.500
2.332,-104.000,-2.000,-26.500,-96.000
2.333,-106.000,1.500,-26.000,-101.000
2.334,-107.000,4.000,-25.500,-106.000
2.335,-107.000,6.500,-25.000,-110.500
2.336,-106.500,7.500,-25.000,-113.500
2.337,-105.000,7.500,-25.000,-115.500
2.338,-103.000,5.500,-25.500,-115.500
2.339,-99.500,2.500,-26.500,-113.500
2.340,-95.500,-2.000,-28.000,-110.000
2.341,-92.000,-6.500,-29.500,-105.500
2.342,-88.500,-11.500,-31.500,-100.500
2.343,-86.500,-15.500,-33.000,-96.000
2.344,-86.000,-19.500,-34.500,-92.000
2.345,-86.000,-22.000,-36.000,-89.000
2.346,-87.500,-23.500,-37.500,-87.000
2.347,-89.000,-24.000,-38.500,-86.000
2.348,-91.000,-22.500,-39.500,-86.000
2.349,-93.000,-20.000,-39.500,-87.000
2.350,-95.500,-16.500,-39.000,-89.000
2.351,-98.000,-12.500,-38.000,-92.000
2.352,-100.500,-8.500,-36.500,-95.500
2.353,-102.500,-4.500,-34.500,-99.000
2.354,-104.000,-1.500,-33.000,-102.500
2.355,-105.000,1.000,-31.000,-105.500
2.356,-105.500,2.500,-29.500,-108.000
2.357,-105.000,2.500,-28.500,-109.000
2.358,-103.500,1.000,-28.500,-109.500
2.359,-101.500,-2.000,-28.500,-108.000
2.360,-98.000,-6.000,-29.000,-105.500
2.361,-94.500,-10.000,-29.500,-102.000
2.362,-91.000,-14.500,-30.500,-97.500
2.363,-88.000,-18.000,-31.000,-93.500
2.364,-86.500,-21.000,-32.000,-89.500
2.365,-86.500,-23.000,-33.000,-86.500
2.366,-87.000,-24.000,-34.000,-84.500
2.367,-89.000,-25.000,-35.000,-83.500
2.368,-92.000,-25.000,-35.500,-84.500
2.369,-95.500,-24.500,-36.000,-86.500
2.370,-99.500,-23.000,-35.500,-89.500
2.371,-103.500,-20.500,-35.000,-93.500
2.372,-107.500,-18.000,-34.000,-98.000
2.373,-111.000,-14.500,-32.500,-102.500
2.374,-113.500,-11.500,-31.500,-107.000
2.375,-115.000,-9.000,-30.500,-110.500
2.376,-115.500,-7.500,-30.000,-113.500
2.377,-114.500,-7.000,-29.500,-115.000
2.378,-112.500,-8.000,-29.500,-115.500
2.379,-110.000,-11.000,-30.000,-114.500
2.380,-106.500,-15.000,-31.000,-112.000
2.381,-102.500,-19.500,-32.000,-108.500
2.382,-99.000,-24.000,-33.500,-104.000
2.383,-96.000,-28.000,-35.000,-100.000
2.384,-94.000,-31.000,-36.000,-96.500
2.385,-93.500,-33.000,-37.000,-93.500
2.386,-94.500,-34.000,-38.000,-91.500
2.387,-96.000,-34.500,-38.500,-90.500
2.388,-98.000,-33.000,-38.500,-90.000
2.389,-100.000,-31.000,-38.000,-91.000
2.390,-102.500,-27.500,-37.000,-93.000
2.391,-105.000,-23.000,-35.000,-95.500
2.392,-107.500,-18.500,-33.500,-98.500
2.393,-109.000,-13.500,-31.500,-102.000
2.394,-109.500,-10.000,-29.500,-105.500
2.395,-109.000,-7.000,-28.500,-108.000
2.396,-107.500,-5.500,-27.000,-109.500
2.397,-105.500,-5.500,-26.500,-110.500
2.398,-102.500,-7.000,-26.000,-110.500
2.399,-99.000,-10.000,-26.000,-109.500
2.400,-94.500,-14.500,-26.500,-108.500
2.401,-90.000,-19.000,-27.500,-107.500
2.402,-86.000,-23.500,-28.500,-106.000
2.403,-83.000,-27.000,-29.500,-104.000
2.404,-81.500,-30.000,-31.000,-101.500
2.405,-81.500,-31.500,-32.000,-98.500
2.406,-83.000,-32.000,-33.000,-94.500
2.407,-85.000,-32.000,-33.500,-90.500
2.408,-88.000,-30.500,-33.500,-87.000
2.409,-91.000,-28.500,-33.000,-85.000
2.410,-95.000,-25.500,-32.000,-85.500
2.411,-98.500,-22.500,-30.000,-87.500
2.412,-102.500,-18.500,-28.500,-91.500
2.413,-105.500,-15.000,-26.500,-95.500
2.414,-107.500,-11.500,-24.500,-99.500
2.415,-108.500,-9.000,-23.000,-102.500
2.416,-109.000,-7.500,-22.000,-104.500
2.417,-108.500,-6.500,-21.000,-105.000
2.418,-107.000,-7.000,-20.500,-104.500
2.419,-105.000,-9.000,-20.500,-103.000
2.420,-102.000,-12.000,-21.000,-100.000
2.421,-98.500,-15.500,-21.500,-96.000
2.422,-96.000,-20.000,-22.000,-91.500
2.423,-93.500,-24.500,-23.500,-87.000
2.424,-92.000,-28.000,-24.500,-82.500
2.425,-91.500,-30.000,-25.500,-79.000
2.426,-92.500,-31.000,-26.500,-76.500
2.427,-94.000,-30.500,-27.000,-75.000
2.428,-97.000,-28.500,-27.000,-75.500
2.429,-100.500,-26.000,-26.000,-77.000
2.430,-104.500,-22.500,-25.000,-80.500
2.431,-109.000,-18.000,-23.000,-84.500
2.432,-113.000,-13.500,-21.000,-89.500
2.433,-116.500,-9.000,-19.000,-94.500
2.434,-118.500,-5.500,-17.000,-99.000
2.435,-120.000,-2.500,-16.000,-102.500
2.436,-119.500,-1.500,-15.000,-105.000
2.437,-117.500,-1.500,-15.000,-106.500
2.438,-114.500,-3.000,-15.000,-106.500
2.439,-110.000,-5.500,-16.000,-104.500
2.440,-105.000,-9.500,-17.000,-102.000
2.441,-99.500,-14.000,-18.500,-98.000
2.442,-94.000,-19.000,-20.000,-94.000
2.443,-90.000,-23.000,-21.500,-90.000
2.444,-87.000,-26.500,-23.000,-87.000
2.445,-86.000,-29.000,-24.000,-84.500
2.446,-86.000,-29.500,-25.000,-83.000
2.447,-87.500,-29.500,-25.500,-82.500
2.448,-90.000,-28.000,-26.000,-83.000
2.449,-92.500,-25.500,-25.500,-84.500
2.450,-95.500,-22.000,-25.000,-87.000
2.451,-98.000,-18.000,-23.500,-90.000
2.452,-101.000,-13.500,-22.000,-93.000
2.453,-103.500,-9.000,-20.500,-96.000
2.454,-106.000,-5.000,-19.000,-99.000
2.455,-107.500,-2.000,-18.000,-101.500
2.456,-108.000,-0.500,-17.000,-103.500
2.457,-107.000,0.000,-16.000,-104.000
2.458,-104.500,-1.000,-16.000,-104.000
2.459,-100.500,-3.500,-16.000,-102.500
2.460,-96.000,-7.000,-17.000,-100.000
2.461,-91.000,-12.000,-18.000,-97.000
2.462,-87.000,-17.000,-19.500,-93.000
2.463,-84.000,-21.500,-21.500,-89.000
2.464,-82.500,-25.500,-23.500,-85.500
2.465,-82.500,-28.000,-25.000,-83.000
2.466,-83.500,-29.500,-26.500,-81.500
2.467,-86.000,-29.500,-27.000,-82.000
2.468,-89.500,-28.000,-27.500,-83.500
2.469,-93.000,-25.500,-26.500,-86.000
2.470,-96.500,-22.500,-25.500,-90.000
2.471,-100.000,-18.500,-24.000,-94.000
2.472,-103.000,-14.000,-22.000,-98.000
2.473,-105.000,-10.000,-20.500,-102.500
2.474,-106.500,-6.000,-19.000,-106.000
2.475,-108.000,-3.500,-18.500,-108.500
2.476,-108.500,-3.000,-18.000,-110.000
2.477,-108.000,-3.500,-18.000,-110.500
2.478,-107.000,-6.000,-19.000,-109.000
2.479,-105.000,-9.500,-19.500,-106.500
2.480,-102.500,-14.000,-20.500,-103.000
2.481,-100.000,-19.000,-22.000,-99.000
2.482,-97.500,-24.000,-23.000,-94.500
2.483,-95.500,-28.500,-24.000,-90.000
2.484,-94.500,-32.000,-25.500,-86.000
2.485,-95.000,-34.500,-26.500,-83.000
2.486,-96.500,-35.500,-27.000,-81.000
2.487,-99.500,-34.500,-27.500,-80.000
2.488,-102.500,-32.000,-27.000,-80.000
2.489,-106.500,-28.500,-26.000,-81.500
2.490,-110.000,-24.000,-25.000,-84.000
2.491,-113.000,-19.500,-23.500,-87.000
2.492,-116.000,-16.000,-22.000,-91.000
2.493,-118.000,-13.000,-21.000,-95.000
2.494,-120.000,-10.500,-20.000,-99.000
2.495,-121.000,-9.000,-19.500,-102.500
2.496,-121.500,-8.500,-19.500,-105.000
2.497,-121.000,-8.500,-19.500,-106.000
2.498,-119.000,-10.000,-20.000,-105.500
2.499,-116.500,-12.500,-21.000,-103.500
2.500,-113.000,-16.500,-22.000,-100.000
2.501,-109.500,-20.500,-23.000,-95.500
2.502,-106.000,-25.000,-25.000,-90.500
2.503,-103.000,-29.000,-26.500,-85.000
2.504,-101.500,-32.500,-28.500,-80.500
2.505,-101.000,-35.000,-30.500,-77.000
2.506,-102.000,-36.000,-32.000,-74.000
2.507,-104.000,-36.500,-33.000,-73.000
2.508,-106.500,-35.500,-33.500,-73.000
2.509,-109.500,-33.500,-33.500,-74.000
2.510,-112.500,-31.000,-33.000,-76.500
2.511,-115.500,-27.500,-31.500,-79.500
2.512,-118.000,-23.000,-30.000,-83.500
2.513,-119.500,-18.500,-28.500,-87.500
2.514,-120.500,-14.000,-26.500,-91.000
2.515,-120.500,-10.000,-25.000,-93.500
2.516,-120.000,-8.000,-24.000,-95.000
2.517,-118.500,-7.500,-23.500,-95.000
2.518,-116.000,-9.000,-23.500,-94.000
2.519,-112.500,-12.000,-24.000,-92.000
2.520,-108.500,-16.000,-25.500,-89.000
2.521,-105.000,-20.500,-26.500,-85.000
2.522,-101.500,-25.500,-28.000,-81.000
2.523,-99.500,-30.000,-29.500,-76.500
2.524,-99.000,-33.500,-31.000,-72.000
2.525,-99.500,-36.000,-32.000,-68.000
2.526,-101.000,-36.500,-32.500,-65.500
2.527,-103.500,-36.500,-32.500,-64.500
2.528,-106.500,-34.500,-32.500,-64.500
2.529,-109.500,-32.000,-32.000,-66.000
2.530,-112.500,-28.000,-31.000,-68.500
2.531,-115.000,-24.000,-29.500,-72.000
2.532,-117.500,-19.000,-28.000,-76.000
2.533,-119.000,-14.500,-26.000,-80.000
2.534,-120.000,-11.000,-24.500,-84.000
2.535,-120.500,-8.500,-23.000,-86.500
2.536,-120.000,-7.000,-22.000,-89.000
2.537,-118.000,-7.500,-21.500,-89.500
2.538,-115.500,-9.500,-21.500,-89.000
2.539,-112.000,-13.000,-22.000,-87.500
2.540,-108.500,-17.500,-23.000,-84.000
2.541,-105.000,-22.000,-24.000,-80.000
2.542,-101.500,-26.000,-25.500,-75.500
2.543,-99.000,-29.000,-27.000,-71.000
2.544,-97.500,-32.000,-28.500,-66.500
2.545,-97.000,-35.000,-30.000,-63.000
2.546,-97.500,-37.500,-31.500,-60.500
2.547,-99.000,-38.500,-33.000,-59.500
2.548,-101.000,-38.000,-34.000,-60.500
2.549,-103.000,-36.000,-34.000,-62.500
2.550,-104.500,-32.000,-33.000,-66.000
2.551,-106.000,-27.000,-31.500,-70.000
2.552,-107.000,-21.500,-30.000,-74.000
2.553,-107.500,-16.500,-28.000,-79.000
2.554,-108.000,-12.500,-26.500,-83.000
2.555,-107.500,-9.500,-26.000,-87.000
2.556,-107.000,-8.000,-25.500,-90.000
2.557,-106.000,-8.000,-26.000,-91.500
2.558,-104.000,-9.500,-26.500,-92.000
2.559,-101.500,-12.500,-27.000,-91.500
2.560,-98.500,-17.000,-28.000,-90.000
2.561,-95.000,-22.500,-29.000,-88.000
2.562,-92.000,-27.500,-30.500,-86.500
2.563,-89.500,-31.500,-31.500,-84.500
2.564,-87.500,-34.500,-33.000,-83.000
2.565,-86.500,-36.500,-34.500,-81.000
2.566,-86.500,-37.000,-35.500,-79.000
2.567,-87.500,-37.500,-36.500,-76.500
2.568,-89.500,-36.500,-36.500,-74.000
2.569,-92.000,-35.000,-36.500,-72.500
2.570,-95.000,-32.500,-36.000,-73.000
2.571,-97.500,-28.500,-35.000,-75.000
2.572,-100.000,-24.000,-33.500,-78.500
2.573,-102.500,-19.500,-31.500,-83.500
2.574,-104.500,-15.000,-29.500,-88.000
2.575,-106.500,-11.500,-28.000,-92.000
2.576,-108.000,-9.000,-26.500,-95.000
2.577,-108.500,-7.500,-25.500,-96.500
2.578,-107.500,-8.000,-25.000,-96.500
2.579,-105.500,-9.500,-25.000,-95.000
2.580,-102.500,-12.500,-25.000,-92.500
2.581,-99.500,-16.000,-26.000,-88.500
2.582,-96.500,-20.000,-27.000,-85.000
2.583,-95.000,-23.500,-28.000,-81.000
2.584,-94.000,-26.000,-29.000,-77.500
2.585,-94.500,-28.000,-30.000,-75.000
2.586,-95.500,-28.000,-31.000,-74.000
2.587,-97.000,-27.500,-31.500,-74.000
2.588,-99.000,-25.500,-32.000,-75.000
2.589,-101.500,-23.500,-32.000,-78.000
2.590,-103.500,-20.500,-32.000,-82.000
2.591,-106.000,-17.000,-31.000,-86.500
2.592,-108.500,-13.500,-30.000,-91.500
2.593,-110.000,-10.000,-28.500,-97.000
2.594,-111.500,-7.500,-27.000,-101.500
2.595,-112.000,-5.000,-25.500,-105.500
2.596,-111.000,-4.000,-25.000,-108.500
2.597,-109.000,-4.500,-25.000,-110.000
2.598,-106.000,-6.000,-25.500,-110.000
2.599,-102.500,-8.500,-26.500,-109.000
2.600,-98.000,-12.000,-28.000,-106.000
2.601,-94.000,-16.500,-29.500,-102.000
2.602,-90.000,-20.500,-31.000,-97.000
2.603,-87.000,-24.500,-32.000,-91.500
2.604,-85.000,-28.000,-33.500,-87.000
2.605,-83.500,-30.500,-34.500,-83.500
2.606,-84.000,-32.000,-35.500,-81.500
2.607,-85.500,-32.500,-36.000,-81.000
2.608,-88.000,-31.500,-36.000,-82.500
2.609,-91.500,-28.500,-35.000,-85.000
2.610,-95.500,-25.000,-33.500,-89.000
2.611,-99.500,-20.500,-32.000,-93.000
2.612,-104.000,-16.000,-30.000,-97.500
2.613,-107.500,-11.500,-28.000,-101.500
2.614,-110.000,-8.000,-26.500,-105.500
2.615,-111.500,-5.000,-25.000,-108.500
2.616,-112.500,-3.500,-24.500,-110.500
2.617,-112.000,-3.500,-24.000,-111.500
2.618,-110.500,-5.000,-24.000,-111.500
2.619,-108.500,-8.000,-24.000,-110.500
2.620,-105.500,-12.000,-25.000,-108.500
2.621,-102.000,-16.000,-26.500,-105.000
2.622,-98.000,-20.500,-28.000,-101.500
2.623,-94.500,-24.500,-29.500,-97.000
2.624,-92.000,-27.500,-31.000,-93.500
2.625,-90.500,-28.500,-32.000,-90.000
2.626,-90.500,-28.500,-32.500,-87.500
2.627,-91.500,-27.500,-33.000,-86.500
2.628,-94.000,-25.500,-32.500,-86.500
2.629,-97.000,-23.000,-32.000,-87.500
2.630,-101.000,-20.500,-31.500,-90.000
2.631,-105.000,-18.000,-30.000,-93.000
2.632,-109.000,-15.000,-28.500,-97.000
2.633,-112.500,-12.500,-26.500,-101.000
2.634,-115.000,-9.500,-24.500,-105.000
2.635,-116.000,-6.000,-23.000,-107.500
2.636,-115.500,-3.500,-21.500,-109.500
2.637,-114.500,-2.500,-21.000,-110.500
2.638,-112.500,-3.500,-20.500,-110.000
2.639,-110.000,-6.000,-20.500,-108.500
2.640,-107.000,-10.500,-21.500,-106.000
2.641,-104.500,-16.500,-23.000,-102.500
2.642,-101.500,-22.000,-24.500,-99.000
2.643,-99.000,-27.000,-26.500,-95.500
2.644,-97.500,-30.500,-28.500,-92.500
2.645,-97.000,-32.500,-29.500,-89.500
2.646,-98.000,-33.500,-30.500,-87.000
2.647,-99.500,-33.000,-31.500,-85.500
2.648,-102.000,-31.000,-32.000,-84.500
2.649,-105.000,-28.000,-32.000,-84.500
2.650,-108.000,-23.500,-32.000,-85.500
2.651,-111.000,-18.500,-31.500,-87.500
2.652,-113.500,-13.500,-31.000,-89.500
2.653,-115.000,-9.000,-30.000,-92.000
2.654,-115.500,-5.500,-29.500,-94.000
2.655,-115.000,-3.000,-28.500,-95.500
2.656,-113.000,-2.000,-28.500,-96.500
2.657,-110.500,-2.500,-28.500,-96.500
2.658,-108.000,-4.000,-29.000,-96.500
2.659,-104.500,-7.000,-30.000,-95.000
2.660,-101.500,-11.000,-31.000,-93.500
2.661,-99.000,-15.500,-32.000,-91.000
2.662,-97.500,-20.500,-33.000,-88.000
2.663,-97.000,-25.500,-34.500,-85.500
2.664,-97.000,-29.500,-35.500,-83.000
2.665,-98.500,-32.000,-36.000,-81.500
2.666,-101.000,-33.000,-36.000,-80.500
2.667,-104.000,-32.000,-35.500,-80.500
2.668,-107.500,-29.500,-34.000,-81.500
2.669,-112.000,-26.000,-32.500,-84.000
2.670,-116.500,-22.000,-30.500,-87.000
2.671,-121.000,-17.500,-28.500,-91.000
2.672,-124.500,-13.000,-26.500,-95.500
2.673,-127.000,-9.000,-25.000,-99.500
2.674,-128.500,-5.500,-23.500,-103.500
2.675,-128.500,-3.000,-22.000,-106.500
2.676,-127.500,-1.000,-21.000,-108.000
2.677,-125.000,-1.000,-21.000,-108.500
2.678,-121.500,-3.000,-21.500,-108.000
2.679,-117.500,-6.000,-22.500,-106.500
2.680,-113.000,-10.500,-24.000,-103.500
2.681,-108.500,-15.000,-25.500,-100.000
2.682,-104.000,-20.000,-27.500,-96.000
2.683,-100.000,-24.500,-28.500,-92.000
2.684,-97.000,-28.000,-30.000,-88.000
2.685,-95.000,-30.500,-31.000,-84.500
2.686,-94.500,-31.000,-31.500,-82.000
2.687,-95.000,-29.500,-31.500,-80.000
2.688,-96.500,-27.500,-31.000,-79.500
2.689,-99.000,-24.000,-30.000,-80.500
2.690,-101.500,-20.000,-29.000,-83.000
2.691,-105.000,-16.000,-27.500,-86.000
2.692,-108.000,-12.000,-25.500,-89.500
2.693,-110.500,-8.000,-24.000,-93.500
2.694,-113.000,-5.000,-22.000,-97.000
2.695,-114.000,-2.500,-20.000,-100.500
2.696,-114.500,-1.000,-19.000,-102.500
2.697,-113.500,-1.000,-18.000,-103.500
2.698,-111.000,-2.500,-18.000,-103.000
2.699,-107.500,-5.000,-18.500,-101.500
2.700,-103.500,-9.000,-19.500,-98.500
2.701,-99.500,-14.000,-21.000,-95.000
2.702,-95.500,-19.000,-23.000,-91.000
2.703,-92.500,-23.500,-25.000,-87.000
2.704,-90.500,-27.000,-27.000,-83.500
2.705,-90.000,-29.500,-28.000,-81.000
2.706,-90.500,-30.500,-29.000,-79.500
2.707,-92.000,-30.000,-29.500,-79.500
2.708,-94.500,-28.500,-29.500,-80.000
2.709,-97.500,-25.500,-29.000,-82.000
2.710,-101.000,-22.000,-28.000,-85.000
2.711,-104.000,-17.500,-27.000,-88.500
2.712,-106.500,-13.000,-25.500,-93.000
2.713,-108.500,-9.000,-24.500,-97.000
2.714,-110.000,-5.500,-23.000,-101.000
2.715,-110.500,-3.500,-22.000,-104.500
2.716,-110.000,-2.500,-21.500,-107.000
2.717,-108.500,-2.500,-21.500,-108.500
2.718,-106.000,-4.000,-22.000,-109.000
2.719,-102.000,-7.000,-23.000,-107.500
2.720,-97.500,-11.500,-24.000,-105.000
2.721,-92.500,-17.000,-25.500,-101.500
2.722,-88.500,-23.500,-27.500,-97.000
2.723,-85.500,-30.000,-29.000,-92.000
2.724,-84.000,-35.000,-30.500,-87.500
2.725,-84.000,-38.500,-31.500,-83.500
2.726,-85.500,-40.500,-32.500,-81.000
2.727,-88.000,-40.000,-33.000,-79.500
2.728,-90.500,-38.000,-32.500,-79.500
2.729,-94.000,-34.500,-31.500,-80.500
2.730,-97.000,-30.000,-30.000,-83.000
2.731,-100.000,-25.500,-28.000,-87.000
2.732,-103.000,-20.500,-26.000,-91.000
2.733,-105.500,-16.000,-23.500,-95.000
2.734,-107.500,-12.000,-22.000,-99.000
2.735,-108.500,-9.000,-20.500,-102.500
2.736,-109.000,-7.500,-20.000,-104.500
2.737,-108.500,-6.500,-19.500,-106.000
2.738,-107.500,-7.000,-20.000,-105.500
2.739,-105.000,-9.000,-20.500,-103.500
2.740,-102.000,-12.000,-21.500,-100.500
2.741,-98.500,-15.000,-22.000,-97.000
2.742,-95.000,-18.500,-23.500,-92.500
2.743,-92.000,-22.000,-24.500,-88.500
2.744,-90.000,-25.000,-25.500,-85.000
2.745,-89.000,-28.000,-27.000,-82.500
2.746,-89.000,-30.500,-28.500,-81.500
2.747,-89.500,-32.000,-30.000,-82.500
2.748,-91.000,-31.500,-30.500,-85.000
2.749,-92.500,-30.000,-30.500,-87.500
2.750,-95.000,-26.500,-29.500,-90.000
2.751,-98.000,-22.500,-28.000,-92.000
2.752,-100.500,-17.500,-26.000,-92.500
2.753,-103.500,-12.500,-24.000,-92.500
2.754,-105.500,-8.000,-22.000,-92.000
2.755,-107.000,-5.000,-21.000,-91.500
2.756,-107.500,-3.000,-20.000,-92.000
2.757,-107.000,-2.500,-20.000,-92.500
2.758,-105.500,-4.000,-20.000,-93.000
2.759,-102.500,-6.500,-20.500,-92.500
2.760,-99.000,-10.500,-21.500,-90.500
2.761,-95.000,-14.500,-22.500,-88.000
2.762,-91.000,-19.000,-23.500,-84.500
2.763,-87.500,-23.500,-24.500,-81.000
2.764,-85.500,-26.500,-26.000,-78.000
2.765,-85.000,-29.000,-27.000,-76.000
2.766,-86.000,-30.000,-28.000,-75.000
2.767,-88.000,-29.500,-29.000,-74.500
2.768,-91.000,-28.000,-29.000,-75.500
2.769,-94.000,-25.500,-28.500,-77.500
2.770,-97.500,-22.000,-27.500,-80.500
2.771,-100.500,-18.000,-26.000,-84.000
2.772,-103.000,-13.500,-24.500,-88.000
2.773,-105.500,-9.000,-22.500,-92.000
2.774,-107.000,-5.000,-20.500,-95.500
2.775,-108.000,-2.000,-18.500,-98.500
2.776,-107.500,0.000,-17.000,-100.500
2.777,-106.500,1.000,-16.000,-102.000
2.778,-104.500,0.500,-15.500,-101.500
2.779,-101.500,-1.000,-15.500,-100.000
2.780,-98.000,-4.000,-15.500,-96.500
2.781,-95.000,-8.000,-16.000,-92.500
2.782,-92.000,-12.500,-17.000,-88.000
2.783,-89.500,-17.500,-17.500,-83.000
2.784,-88.500,-21.500,-18.500,-78.000
2.785,-88.500,-24.000,-19.000,-74.500
2.786,-89.500,-25.000,-19.500,-72.000
2.787,-91.000,-24.500,-19.500,-70.500
2.788,-93.000,-22.000,-19.500,-71.000
2.789,-95.500,-18.500,-19.000,-73.000
2.790,-97.500,-14.500,-18.500,-76.000
2.791,-99.000,-10.500,-17.500,-79.500
2.792,-101.000,-6.000,-16.500,-84.000
2.793,-102.000,-1.500,-15.000,-88.000
2.794,-103.000,2.500,-13.500,-91.500
2.795,-103.500,6.000,-12.000,-94.000
2.796,-103.500,8.500,-11.000,-95.500
2.797,-103.000,9.500,-10.000,-96.000
2.798,-101.500,9.500,-9.500,-95.000
2.799,-99.000,7.500,-9.000,-92.500
2.800,-95.500,4.500,-9.500,-89.000
2.801,-92.000,1.000,-10.000,-85.000
2.802,-88.500,-3.000,-10.500,-81.000
2.803,-85.500,-6.500,-12.000,-77.000
2.804,-83.500,-10.000,-13.000,-73.500
2.805,-83.000,-13.000,-14.500,-71.000
2.806,-83.500,-14.500,-15.500,-69.000
2.807,-86.000,-15.000,-16.000,-68.500
2.808,-88.500,-14.000,-16.500,-69.000
2.809,-92.000,-11.500,-16.000,-70.500
2.810,-95.500,-8.000,-14.500,-73.500
2.811,-99.000,-4.000,-13.500,-77.500
2.812,-102.000,0.000,-12.000,-81.500
2.813,-104.000,4.000,-10.500,-85.500
2.814,-105.500,7.500,-9.500,-89.000
2.815,-106.500,9.500,-8.500,-92.000
2.816,-106.000,11.000,-7.500,-93.500
2.817,-105.500,11.000,-7.500,-94.000
2.818,-104.000,10.000,-7.500,-93.500
2.819,-102.000,7.500,-8.000,-91.500
2.820,-100.000,4.000,-8.500,-88.500
2.821,-97.500,0.500,-9.000,-85.000
2.822,-95.500,-3.500,-10.000,-80.500
2.823,-93.500,-7.000,-11.000,-76.500
2.824,-92.500,-10.500,-12.000,-72.500
2.825,-92.500,-12.500,-12.500,-69.500
2.826,-93.500,-13.500,-13.000,-67.500
2.827,-95.000,-12.500,-12.500,-66.500
2.828,-97.000,-10.000,-11.500,-67.000
2.829,-99.000,-6.500,-10.000,-68.500
2.830,-101.500,-2.000,-8.000,-70.500
2.831,-104.000,3.500,-6.000,-73.500
2.832,-106.500,8.000,-4.000,-77.500
2.833,-108.500,12.500,-2.000,-81.500
2.834,-110.000,15.500,-0.500,-85.000
2.835,-110.000,18.000,1.000,-88.500
2.836,-109.000,19.500,2.000,-91.000
2.837,-107.000,20.000,2.500,-92.500
2.838,-104.000,19.500,3.000,-92.500
2.839,-100.000,17.500,3.000,-91.000
2.840,-95.000,15.000,2.500,-88.500
2.841,-90.500,11.000,1.500,-84.500
2.842,-86.000,6.500,0.000,-80.000
2.843,-82.500,2.000,-1.500,-75.500
2.844,-80.000,-2.000,-3.000,-71.500
2.845,-79.500,-5.000,-4.000,-68.500
2.846,-80.000,-6.500,-5.500,-66.500
2.847,-81.500,-6.500,-6.000,-66.500
2.848,-84.000,-5.000,-6.500,-67.500
2.849,-87.500,-2.000,-6.500,-70.000
2.850,-91.000,1.500,-5.500,-73.500
2.851,-95.000,6.000,-4.500,-78.000
2.852,-99.000,10.500,-2.500,-82.500
2.853,-102.000,14.500,-1.000,-87.000
2.854,-104.500,18.000,0.500,-91.500
2.855,-105.500,20.500,1.500,-95.000
2.856,-105.000,21.500,2.000,-97.500
2.857,-103.500,21.500,2.500,-98.500
2.858,-101.000,20.000,3.000,-98.500
2.859,-97.000,17.500,3.000,-96.500
2.860,-92.500,13.500,2.500,-93.000
2.861,-87.500,9.500,2.000,-88.500
2.862,-83.000,4.500,1.000,-84.000
2.863,-79.500,-0.500,0.000,-79.500
2.864,-77.000,-4.500,-1.000,-75.500
2.865,-75.500,-7.500,-2.000,-72.500
2.866,-75.500,-9.500,-3.000,-71.000
2.867,-76.500,-10.000,-3.500,-70.500
2.868,-78.000,-9.000,-4.000,-71.000
2.869,-80.000,-7.000,-3.500,-72.500
2.870,-82.500,-4.000,-3.000,-75.500
2.871,-85.500,0.000,-2.500,-79.000
2.872,-88.500,4.000,-1.000,-83.000
2.873,-91.000,8.000,0.000,-87.500
2.874,-93.500,11.500,1.500,-91.500
2.875,-95.000,14.000,2.500,-95.000
2.876,-96.000,15.500,3.500,-97.500
2.877,-96.500,15.500,4.000,-99.000
2.878,-96.000,14.000,4.500,-99.000
2.879,-94.500,11.000,4.000,-97.500
2.880,-92.500,6.500,3.500,-95.000
2.881,-90.000,1.500,3.000,-91.500
2.882,-88.000,-3.000,2.500,-88.000
2.883,-86.000,-7.000,1.500,-84.000
2.884,-84.500,-10.000,1.000,-80.000
2.885,-84.500,-12.000,0.500,-77.500
2.886,-85.500,-12.500,0.500,-75.500
2.887,-87.500,-11.500,1.000,-74.500
2.888,-90.500,-9.500,1.500,-75.000
2.889,-94.000,-6.500,2.500,-76.500
2.890,-97.500,-2.500,3.500,-79.000
2.891,-101.500,2.000,5.000,-82.500
2.892,-105.000,7.000,6.500,-86.000
2.893,-108.500,11.500,8.000,-89.500
2.894,-110.500,15.000,9.000,-93.000
2.895,-112.000,17.000,10.500,-95.500
2.896,-112.000,18.000,11.500,-97.000
2.897,-111.500,18.000,12.000,-97.500
2.898,-109.500,17.000,12.500,-96.500
2.899,-106.500,15.000,12.500,-94.500
2.900,-103.000,11.500,12.000,-91.000
2.901,-99.500,7.500,11.500,-87.000
2.902,-96.000,3.000,10.000,-82.000
2.903,-93.000,-2.000,9.000,-77.500
2.904,-90.500,-7.000,7.500,-73.000
2.905,-89.500,-11.000,6.000,-69.500
2.906,-89.000,-13.500,5.000,-67.000
2.907,-90.000,-13.500,4.500,-65.500
2.908,-92.500,-12.000,5.000,-65.500
2.909,-95.000,-8.500,6.500,-67.000
2.910,-98.500,-3.500,8.000,-69.000
2.911,-102.000,2.000,10.000,-72.000
2.912,-105.500,6.500,11.500,-75.500
2.913,-108.500,11.000,13.500,-79.500
2.914,-111.000,15.000,14.500,-83.500
2.915,-113.000,17.500,15.500,-87.000
2.916,-113.500,19.000,16.000,-89.500
2.917,-113.000,19.000,16.000,-91.500
2.918,-111.000,17.500,15.500,-92.000
2.919,-107.500,14.000,14.500,-91.500
2.920,-103.000,10.000,13.500,-90.000
2.921,-98.000,5.000,12.000,-88.500
2.922,-93.500,-0.500,10.500,-87.000
2.923,-89.500,-5.000,8.500,-85.500
2.924,-86.500,-9.000,7.500,-85.000
2.925,-84.500,-11.500,6.000,-84.000
2.926,-84.500,-12.500,5.500,-83.000
2.927,-85.500,-12.500,4.500,-81.500
2.928,-87.500,-11.500,4.500,-79.500
2.929,-90.000,-9.500,5.000,-77.500
2.930,-92.500,-6.500,5.500,-76.500
2.931,-96.000,-2.500,6.500,-77.500
2.932,-99.000,1.500,8.000,-80.500
2.933,-102.000,5.500,9.500,-84.500
2.934,-104.000,9.000,10.500,-90.000
2.935,-105.500,12.000,11.500,-94.500
2.936,-105.500,13.500,12.000,-98.500
2.937,-104.500,13.500,12.500,-100.500
2.938,-102.000,12.000,12.500,-101.500
2.939,-99.000,9.500,12.000,-100.500
2.940,-95.000,6.000,11.000,-98.000
2.941,-90.500,1.500,10.000,-94.000
2.942,-86.500,-3.500,9.000,-90.000
2.943,-83.000,-8.000,7.500,-85.500
2.944,-81.000,-11.500,6.500,-81.500
2.945,-80.500,-14.500,5.500,-78.500
2.946,-81.000,-16.000,4.500,-76.500
2.947,-82.500,-15.500,4.000,-75.000
2.948,-85.000,-13.500,4.000,-75.000
2.949,-87.500,-10.000,4.500,-76.500
2.950,-89.500,-6.000,5.500,-79.000
2.951,-92.000,-1.000,7.000,-82.500
2.952,-94.500,4.500,8.500,-87.000
2.953,-96.500,9.000,10.500,-91.500
2.954,-98.000,12.000,12.000,-96.000
2.955,-98.500,14.500,13.000,-99.500
2.956,-99.000,15.500,14.000,-102.000
2.957,-98.000,15.500,14.500,-103.500
2.958,-96.500,13.500,14.000,-104.000
2.959,-94.000,11.000,13.500,-103.000
2.960,-91.500,6.500,12.500,-100.500
2.961,-88.500,2.000,11.500,-97.500
2.962,-86.000,-3.500,10.000,-93.500
2.963,-84.000,-8.000,8.500,-90.000
2.964,-83.500,-12.000,7.000,-87.000
2.965,-84.500,-15.000,6.000,-84.500
2.966,-86.000,-16.000,5.000,-83.500
2.967,-88.500,-16.000,4.500,-83.000
2.968,-91.500,-15.000,4.500,-83.000
2.969,-94.500,-13.000,4.500,-84.500
2.970,-97.500,-10.000,5.000,-87.000
2.971,-100.000,-6.500,6.500,-90.000
2.972,-102.000,-2.500,8.000,-93.500
2.973,-103.000,1.500,10.000,-97.000
2.974,-104.000,5.000,11.500,-100.500
2.975,-104.000,8.000,13.500,-103.500
2.976,-103.500,10.000,14.500,-106.000
2.977,-102.000,10.500,15.000,-107.500
2.978,-100.000,9.500,15.000,-107.500
2.979,-97.000,7.500,14.500,-106.500
2.980,-93.000,4.000,13.500,-104.500
2.981,-89.500,0.000,12.000,-102.000
2.982,-86.000,-4.000,10.500,-98.500
2.983,-84.000,-8.000,9.000,-95.000
2.984,-83.000,-11.000,7.500,-91.500
2.985,-83.000,-13.500,6.500,-89.000
2.986,-84.500,-14.500,5.500,-87.000
2.987,-87.000,-14.500,5.000,-86.000
2.988,-90.000,-13.500,5.000,-86.500
2.989,-93.000,-11.000,5.500,-88.000
2.990,-96.500,-7.500,6.500,-90.500
2.991,-100.000,-3.500,7.500,-94.000
2.992,-103.000,1.000,9.000,-97.500
2.993,-105.500,5.000,10.000,-101.500
2.994,-107.500,8.000,11.500,-105.500
2.995,-108.000,9.500,12.000,-108.500
2.996,-107.500,10.500,12.500,-110.500
2.997,-105.000,10.000,13.000,-111.500
2.998,-101.000,8.000,12.500,-110.500
2.999,-95.500,4.500,11.500,-108.000
3.000,-88.500,0.500,10.000,-103.500
3.001,-81.000,-4.500,8.500,-98.000
3.002,-73.500,-9.500,6.500,-91.500
3.003,-67.500,-14.000,5.000,-84.000
3.004,-62.500,-18.000,3.500,-77.000
3.005,-59.500,-21.000,2.000,-70.000
3.006,-57.500,-23.500,0.500,-64.500
3.007,-57.000,-25.000,-0.500,-60.000
3.008,-57.000,-26.000,-1.500,-57.000
3.009,-57.500,-26.000,-2.500,-55.500
3.010,-58.500,-25.500,-3.500,-55.000
3.011,-59.500,-24.500,-4.000,-55.000
3.012,-60.500,-23.500,-4.000,-55.500
3.013,-61.000,-22.000,-4.000,-56.000
3.014,-61.500,-21.500,-4.500,-55.500
3.015,-61.500,-21.000,-4.500,-54.000
3.016,-61.000,-22.000,-4.500,-51.500
3.017,-59.500,-24.500,-5.000,-47.500
3.018,-57.500,-28.000,-5.500,-42.500
3.019,-54.500,-33.000,-6.500,-36.500
3.020,-51.000,-38.500,-8.000,-29.500
3.021,-47.500,-44.500,-10.000,-22.000
3.022,-45.000,-50.500,-12.000,-15.000
3.023,-43.500,-55.500,-14.000,-9.000
3.024,-43.000,-59.500,-15.500,-3.500
3.025,-44.000,-62.000,-16.500,1.000
3.026,-46.500,-62.500,-17.000,3.500
3.027,-49.500,-61.500,-16.000,4.000
3.028,-53.500,-59.000,-14.500,2.500
3.029,-58.500,-54.500,-12.000,-1.500
3.030,-65.000,-48.500,-8.500,-7.500
3.031,-72.000,-40.500,-3.500,-16.500
3.032,-79.500,-31.500,2.000,-27.000
3.033,-88.000,-21.500,8.500,-39.500
3.034,-95.500,-11.500,15.000,-52.500
3.035,-103.000,-1.500,21.500,-65.000
3.036,-108.000,7.000,27.000,-76.000
3.037,-111.500,13.000,31.500,-85.000
3.038,-112.000,16.500,34.500,-91.000
3.039,-111.000,17.500,36.000,-93.500
3.040,-108.000,15.500,36.000,-94.000
3.041,-104.500,12.500,35.500,-92.500
3.042,-100.500,8.500,34.000,-90.000
3.043,-97.000,4.500,33.000,-87.000
3.044,-94.000,1.000,31.500,-84.000
3.045,-91.500,-1.500,30.500,-81.500
3.046,-90.500,-3.000,29.500,-79.500
3.047,-90.000,-4.000,28.500,-79.500
3.048,-90.500,-3.500,27.500,-80.500
3.049,-91.000,-2.000,27.000,-82.500
3.050,-92.000,0.000,27.000,-86.000
3.051,-93.500,3.500,27.000,-89.500
3.052,-94.500,7.000,27.500,-94.000
3.053,-96.500,11.000,28.000,-98.000
3.054,-97.500,15.000,29.000,-101.000
3.055,-98.500,18.000,30.000,-104.000
3.056,-98.500,19.500,30.500,-106.000
3.057,-98.000,20.500,31.000,-107.000
3.058,-96.500,19.500,31.500,-107.000
3.059,-94.000,17.000,31.000,-105.500
3.060,-91.000,13.000,30.500,-102.500
3.061,-88.000,7.500,29.500,-99.000
3.062,-84.500,1.000,28.000,-94.500
3.063,-82.500,-5.000,26.000,-90.000
3.064,-81.500,-9.500,24.000,-86.500
3.065,-82.000,-12.000,22.500,-83.500
3.066,-83.500,-13.000,21.500,-82.000
3.067,-86.000,-12.000,21.000,-81.500
3.068,-89.000,-9.500,21.000,-82.000
3.069,-91.500,-6.500,21.500,-84.000
3.070,-94.000,-2.500,22.500,-87.500
3.071,-96.500,2.000,24.000,-91.500
3.072,-98.500,6.000,25.500,-96.000
3.073,-100.500,10.000,27.500,-100.500
3.074,-102.500,13.500,29.000,-104.500
3.075,-104.000,16.000,30.500,-108.000
3.076,-105.000,17.000,32.000,-110.500
3.077,-105.000,17.000,32.500,-111.500
3.078,-103.500,15.500,33.000,-110.500
3.079,-100.500,13.000,32.500,-108.500
3.080,-96.500,8.500,31.500,-105.500
3.081,-92.000,3.500,30.000,-101.000
3.082,-88.000,-2.000,28.500,-96.500
3.083,-84.500,-6.500,26.500,-92.000
3.084,-82.000,-10.500,25.000,-88.000
3.085,-81.000,-13.000,23.500,-84.500
3.086,-80.500,-14.000,22.000,-82.500
3.087,-81.000,-13.500,21.000,-81.000
3.088,-82.500,-12.000,20.000,-80.500
3.089,-84.000,-9.000,19.500,-81.500
3.090,-86.500,-5.500,19.500,-84.000
3.091,-88.500,-0.500,20.500,-86.500
3.092,-90.500,5.000,21.000,-90.000
3.093,-92.000,10.000,22.500,-93.000
3.094,-93.000,14.000,24.000,-96.500
3.095,-93.500,17.500,25.000,-98.500
3.096,-93.000,19.000,26.500,-100.500
3.097,-92.500,18.500,27.500,-101.000
3.098,-90.500,17.000,28.500,-100.500
3.099,-88.000,14.000,28.500,-99.500
3.100,-85.000,10.000,28.500,-97.500
3.101,-82.000,5.500,28.000,-95.000
3.102,-80.000,1.000,27.500,-93.000
3.103,-79.000,-3.500,27.000,-92.000
3.104,-78.500,-6.500,27.000,-91.000
3.105,-79.500,-9.000,26.500,-90.500
3.106,-81.000,-10.000,26.500,-90.000
3.107,-83.000,-10.000,26.500,-89.500
3.108,-85.500,-8.500,26.500,-88.000
3.109,-87.500,-6.000,27.000,-87.000
3.110,-89.500,-2.500,27.500,-86.000
3.111,-91.000,1.000,28.500,-86.500
3.112,-92.500,5.000,29.500,-89.000
3.113,-93.500,9.000,31.000,-93.000
3.114,-94.000,12.000,32.000,-97.500
3.115,-94.500,14.500,33.000,-102.500
3.116,-94.500,16.000,33.500,-106.000
3.117,-94.000,16.000,34.000,-108.500
3.118,-93.000,15.000,34.000,-109.000
3.119,-90.500,12.500,34.000,-108.000
3.120,-87.500,9.000,33.500,-105.500
3.121,-83.500,5.000,33.000,-102.000
3.122,-79.000,0.500,32.000,-97.500
3.123,-75.000,-4.000,31.000,-93.000
3.124,-72.000,-7.500,30.000,-89.000
3.125,-69.500,-10.500,29.000,-85.500
3.126,-69.000,-12.000,28.000,-83.000
3.127,-69.500,-12.000,27.500,-82.000
3.128,-71.500,-10.500,27.500,-82.500
3.129,-74.500,-7.500,28.000,-84.500
3.130,-78.500,-3.000,29.500,-87.500
3.131,-82.500,2.000,31.000,-91.000
3.132,-86.500,7.000,33.000,-95.000
3.133,-90.500,12.500,35.000,-98.500
3.134,-93.000,16.500,37.000,-101.500
3.135,-95.000,20.500,39.000,-104.000
3.136,-96.000,23.000,40.500,-105.500
3.137,-95.500,24.500,41.500,-106.500
3.138,-94.500,24.000,41.500,-106.000
3.139,-92.500,21.500,41.500,-104.000
3.140,-89.500,17.500,40.500,-101.000
3.141,-86.000,11.500,39.000,-97.000
3.142,-83.000,5.500,37.500,-93.000
3.143,-80.500,-0.500,36.000,-88.500
3.144,-78.500,-5.000,35.000,-85.000
3.145,-78.000,-7.500,33.500,-82.500
3.146,-78.500,-8.500,33.000,-81.000
3.147,-79.500,-8.500,32.000,-81.000
3.148,-81.500,-7.500,31.500,-82.500
3.149,-84.000,-5.500,32.000,-84.500
3.150,-86.500,-3.000,32.500,-88.000
3.151,-89.500,0.500,33.500,-92.000
3.152,-92.000,4.500,35.000,-96.500
3.153,-95.000,8.500,36.500,-101.000
3.154,-97.000,12.500,38.000,-105.000
3.155,-98.000,15.500,39.000,-108.500
3.156,-98.500,17.500,39.500,-111.000
3.157,-98.000,18.000,40.000,-112.500
3.158,-96.500,18.000,40.000,-112.500
3.159,-94.500,16.000,39.500,-111.000
