'Elapsed time','AECG1','AECG2','AECG3','AECG4'
'seconds','uV','uV','uV','uV'
0.000,-112.000,-69.000,-243.000,-194.000
0.001,-112.500,-70.000,-244.000,-195.000
0.002,-112.000,-70.000,-244.000,-195.000
0.003,-110.500,-69.000,-242.500,-193.500
0.004,-108.500,-67.000,-240.500,-191.000
0.005,-106.000,-64.500,-237.500,-188.000
0.006,-103.000,-61.500,-234.000,-184.500
0.007,-100.000,-58.000,-230.500,-180.500
0.008,-97.000,-54.500,-226.000,-176.500
0.009,-94.000,-50.500,-221.500,-171.500
0.010,-90.500,-46.000,-217.000,-166.500
0.011,-87.500,-42.500,-213.000,-162.000
0.012,-85.500,-40.000,-209.500,-158.500
0.013,-85.000,-39.000,-208.000,-157.000
0.014,-85.500,-39.500,-208.500,-158.000
0.015,-87.500,-42.000,-211.000,-160.500
0.016,-90.500,-45.500,-215.500,-165.000
0.017,-94.500,-50.000,-220.500,-170.500
0.018,-97.500,-54.000,-225.500,-175.500
0.019,-100.500,-57.500,-229.500,-179.500
0.020,-102.000,-59.500,-232.000,-182.500
0.021,-102.500,-60.500,-233.500,-184.000
0.022,-102.500,-61.000,-234.000,-184.000
0.023,-102.000,-60.500,-233.500,-184.000
0.024,-101.000,-59.500,-233.000,-183.000
0.025,-100.000,-58.500,-231.500,-181.500
0.026,-98.500,-56.500,-229.500,-179.500
0.027,-96.500,-54.500,-227.000,-176.500
0.028,-94.500,-52.000,-223.500,-173.000
0.029,-92.000,-48.500,-220.000,-169.000
0.030,-89.000,-45.000,-215.500,-164.000
0.031,-86.000,-41.500,-211.000,-159.500
0.032,-84.000,-39.000,-207.500,-156.000
0.033,-83.000,-38.000,-206.000,-154.500
0.034,-83.500,-38.500,-206.500,-155.000
0.035,-85.500,-41.000,-208.500,-157.500
0.036,-88.000,-44.000,-212.500,-161.500
0.037,-91.000,-47.500,-217.500,-166.500
0.038,-94.000,-51.000,-221.500,-171.000
0.039,-96.000,-53.500,-225.000,-174.500
0.040,-96.500,-55.000,-227.000,-177.000
0.041,-96.000,-55.500,-227.500,-177.500
0.042,-94.500,-54.000,-226.500,-176.500
0.043,-92.500,-52.000,-224.000,-174.500
0.044,-89.500,-49.500,-221.500,-171.500
0.045,-86.500,-46.000,-218.000,-168.000
0.046,-83.500,-43.000,-215.000,-164.500
0.047,-80.500,-39.500,-211.000,-161.000
0.048,-77.500,-36.000,-207.000,-156.500
0.049,-74.000,-32.500,-203.000,-152.000
0.050,-71.000,-28.500,-198.500,-147.000
0.051,-68.000,-25.000,-194.000,-142.500
0.052,-66.500,-22.500,-191.000,-139.000
0.053,-65.500,-21.000,-189.000,-137.000
0.054,-66.000,-21.500,-189.500,-137.500
0.055,-67.500,-23.500,-191.500,-139.500
0.056,-69.500,-26.500,-195.000,-143.000
0.057,-72.500,-30.500,-199.500,-147.500
0.058,-75.500,-34.500,-204.000,-152.500
0.059,-77.500,-37.500,-207.500,-156.000
0.060,-78.500,-39.500,-210.000,-158.500
0.061,-78.500,-40.000,-211.000,-159.500
0.062,-77.500,-39.500,-211.000,-159.500
0.063,-76.500,-38.500,-210.000,-158.500
0.064,-75.000,-37.000,-208.500,-157.000
0.065,-73.500,-35.000,-206.500,-155.000
0.066,-72.000,-32.500,-204.500,-152.500
0.067,-69.500,-30.000,-201.500,-149.500
0.068,-67.000,-26.500,-198.000,-145.500
0.069,-63.500,-23.000,-193.000,-141.000
0.070,-60.000,-18.500,-188.000,-135.500
0.071,-56.500,-14.000,-182.500,-130.500
0.072,-54.000,-11.000,-178.500,-126.500
0.073,-52.500,-9.000,-176.000,-124.000
0.074,-52.500,-8.500,-175.500,-124.000
0.075,-54.000,-10.500,-177.500,-126.000
0.076,-56.500,-13.500,-181.500,-129.500
0.077,-59.500,-17.500,-186.500,-134.500
0.078,-62.500,-21.500,-191.000,-139.500
0.079,-65.000,-25.000,-195.500,-143.500
0.080,-66.500,-27.500,-198.000,-146.500
0.081,-67.500,-28.500,-199.500,-148.000
0.082,-67.500,-28.500,-200.000,-148.500
0.083,-67.000,-28.000,-199.500,-148.000
0.084,-66.000,-26.500,-198.000,-147.000
0.085,-65.000,-25.000,-196.500,-145.000
0.086,-63.500,-23.000,-194.500,-143.000
0.087,-61.500,-21.000,-192.000,-140.500
0.088,-59.500,-18.500,-189.000,-137.000
0.089,-57.500,-15.500,-185.000,-133.000
0.090,-54.500,-12.000,-180.500,-128.500
0.091,-52.000,-9.000,-176.500,-124.000
0.092,-49.500,-6.000,-173.000,-120.500
0.093,-48.500,-4.500,-171.000,-118.500
0.094,-49.000,-5.000,-171.000,-118.500
0.095,-50.500,-7.000,-173.500,-121.000
0.096,-53.500,-10.000,-177.000,-125.000
0.097,-56.500,-14.500,-182.000,-130.000
0.098,-60.000,-18.500,-187.000,-135.000
0.099,-62.000,-21.500,-191.000,-139.000
0.100,-63.500,-23.500,-194.000,-141.000
0.101,-63.500,-24.000,-195.000,-142.000
0.102,-63.500,-24.000,-195.500,-142.500
0.103,-63.000,-24.000,-195.000,-142.000
0.104,-62.000,-23.000,-194.500,-141.000
0.105,-61.000,-22.000,-193.000,-139.500
0.106,-60.000,-20.500,-191.000,-138.000
0.107,-58.500,-18.500,-188.500,-135.500
0.108,-56.000,-16.000,-185.500,-132.000
0.109,-53.500,-12.500,-181.500,-128.000
0.110,-50.500,-9.000,-176.500,-123.000
0.111,-47.500,-5.000,-172.000,-118.500
0.112,-45.500,-2.500,-169.000,-115.000
0.113,-45.000,-1.000,-167.500,-113.500
0.114,-45.500,-1.500,-168.000,-114.500
0.115,-48.000,-4.000,-171.000,-117.500
0.116,-51.500,-7.500,-175.500,-122.500
0.117,-55.000,-12.500,-181.000,-128.000
0.118,-59.000,-16.500,-186.000,-134.000
0.119,-62.000,-20.500,-190.500,-138.500
0.120,-63.500,-22.500,-193.500,-141.500
0.121,-65.000,-24.000,-195.000,-143.000
0.122,-65.000,-24.500,-195.500,-143.500
0.123,-65.000,-24.500,-195.000,-143.000
0.124,-65.000,-24.500,-194.500,-142.500
0.125,-64.000,-23.500,-193.500,-141.500
0.126,-63.000,-22.500,-192.000,-140.000
0.127,-62.000,-21.000,-190.000,-138.000
0.128,-60.000,-18.500,-187.500,-135.000
0.129,-57.500,-16.000,-184.500,-131.500
0.130,-55.000,-12.500,-180.500,-127.500
0.131,-53.000,-9.500,-177.000,-124.000
0.132,-51.500,-7.500,-174.000,-121.000
0.133,-51.500,-6.500,-173.000,-120.500
0.134,-52.000,-7.500,-174.000,-121.500
0.135,-54.000,-10.000,-176.500,-124.000
0.136,-57.000,-13.500,-181.000,-128.500
0.137,-60.500,-17.500,-186.000,-133.500
0.138,-63.500,-22.000,-191.000,-138.500
0.139,-66.000,-25.000,-194.500,-142.000
0.140,-67.000,-26.500,-197.000,-144.500
0.141,-67.500,-27.000,-198.000,-145.500
0.142,-66.500,-27.000,-198.000,-145.500
0.143,-65.500,-25.500,-197.500,-144.000
0.144,-63.500,-24.000,-195.500,-142.500
0.145,-61.500,-21.500,-193.500,-140.000
0.146,-59.500,-19.000,-191.000,-137.000
0.147,-57.000,-16.500,-187.500,-134.000
0.148,-54.500,-13.500,-184.000,-130.000
0.149,-51.500,-10.000,-179.500,-126.000
0.150,-48.500,-6.000,-175.000,-121.000
0.151,-45.500,-2.500,-171.000,-116.500
0.152,-43.500,0.000,-167.500,-113.000
0.153,-43.000,1.500,-166.000,-111.000
0.154,-43.000,1.000,-166.000,-111.500
0.155,-45.000,-1.000,-168.000,-114.000
0.156,-47.500,-4.000,-171.500,-118.000
0.157,-50.500,-8.000,-176.500,-123.000
0.158,-53.500,-12.000,-181.000,-128.500
0.159,-56.000,-15.000,-185.000,-133.000
0.160,-57.000,-17.500,-188.000,-135.500
0.161,-57.500,-18.500,-189.500,-137.000
0.162,-57.500,-18.500,-189.500,-137.500
0.163,-56.500,-18.000,-189.000,-136.500
0.164,-55.000,-16.500,-187.500,-135.000
0.165,-53.000,-14.000,-185.500,-132.500
0.166,-50.500,-11.500,-182.500,-129.500
0.167,-48.000,-8.500,-179.000,-126.000
0.168,-45.000,-5.000,-175.000,-121.500
0.169,-41.500,-1.000,-170.500,-117.000
0.170,-38.500,3.000,-165.500,-112.000
0.171,-36.000,6.500,-161.500,-108.000
0.172,-34.000,9.000,-158.500,-105.000
0.173,-34.000,9.500,-157.500,-104.000
0.174,-35.500,8.500,-158.500,-105.500
0.175,-38.000,5.500,-162.000,-109.000
0.176,-42.000,1.000,-166.500,-114.000
0.177,-46.000,-3.500,-172.500,-120.000
0.178,-49.500,-8.500,-178.000,-126.000
0.179,-52.500,-12.500,-182.500,-130.500
0.180,-54.500,-15.000,-185.500,-133.500
0.181,-55.500,-16.000,-187.000,-135.000
0.182,-55.500,-16.500,-187.500,-135.500
0.183,-55.500,-16.000,-187.500,-135.500
0.184,-55.000,-15.500,-187.000,-135.000
0.185,-54.500,-14.500,-186.000,-134.000
0.186,-53.500,-13.500,-184.500,-133.000
0.187,-52.500,-12.500,-183.000,-131.000
0.188,-51.500,-11.000,-180.500,-128.500
0.189,-50.500,-9.000,-178.000,-125.500
0.190,-49.000,-7.000,-175.000,-122.500
0.191,-48.000,-5.000,-172.000,-119.500
0.192,-48.000,-3.500,-170.500,-117.500
0.193,-49.000,-4.000,-170.500,-118.000
0.194,-51.000,-6.500,-173.000,-120.500
0.195,-55.000,-10.500,-177.500,-126.000
0.196,-60.500,-16.500,-184.500,-133.000
0.197,-66.000,-23.000,-191.500,-141.500
0.198,-71.000,-29.500,-199.000,-149.000
0.199,-75.000,-34.500,-204.500,-155.000
0.200,-77.500,-37.500,-208.500,-159.000
0.201,-79.000,-39.500,-210.500,-161.000
0.202,-78.500,-39.500,-211.000,-161.000
0.203,-78.000,-39.000,-210.000,-160.000
0.204,-76.500,-38.000,-208.000,-158.000
0.205,-75.000,-36.000,-206.000,-155.000
0.206,-73.500,-34.000,-203.500,-152.000
0.207,-71.500,-31.500,-200.500,-148.500
0.208,-69.500,-29.000,-197.000,-144.500
0.209,-67.500,-25.500,-193.000,-140.000
0.210,-65.500,-22.500,-188.500,-135.000
0.211,-63.500,-19.500,-184.500,-130.500
0.212,-63.000,-17.500,-182.000,-127.500
0.213,-63.000,-17.000,-181.000,-126.000
0.214,-64.500,-18.500,-182.000,-126.500
0.215,-67.500,-21.500,-185.000,-129.000
0.216,-71.000,-26.000,-189.500,-133.000
0.217,-74.500,-30.500,-194.500,-137.500
0.218,-77.500,-34.500,-199.000,-142.000
0.219,-80.000,-37.500,-202.500,-145.000
0.220,-80.500,-38.500,-204.000,-145.500
0.221,-79.500,-37.500,-203.000,-144.500
0.222,-77.000,-35.000,-200.000,-141.000
0.223,-73.000,-31.000,-195.500,-136.500
0.224,-68.500,-26.000,-190.000,-130.500
0.225,-63.500,-21.000,-184.500,-124.500
0.226,-58.500,-15.500,-178.500,-118.500
0.227,-54.000,-10.500,-173.000,-112.500
0.228,-49.500,-5.500,-167.000,-106.000
0.229,-44.500,0.000,-161.000,-99.500
0.230,-40.000,5.500,-154.500,-93.000
0.231,-36.000,10.500,-148.500,-87.000
0.232,-32.500,14.500,-143.500,-82.500
0.233,-30.000,17.500,-140.000,-79.500
0.234,-28.500,19.000,-138.500,-78.500
0.235,-28.500,19.000,-139.000,-79.500
0.236,-29.000,17.500,-141.500,-82.500
0.237,-30.500,15.000,-144.500,-87.500
0.238,-32.000,12.500,-148.500,-92.500
0.239,-33.000,10.000,-152.500,-97.500
0.240,-34.500,7.500,-155.500,-102.000
0.241,-35.000,6.000,-158.500,-105.500
0.242,-36.000,4.500,-160.500,-108.500
0.243,-36.500,3.000,-162.500,-111.000
0.244,-37.000,2.000,-163.500,-113.000
0.245,-38.000,0.500,-165.000,-115.000
0.246,-38.500,0.000,-165.500,-115.500
0.247,-39.000,-0.500,-165.500,-115.500
0.248,-38.500,0.500,-164.500,-114.500
0.249,-38.000,2.000,-163.000,-112.500
0.250,-36.500,4.000,-160.500,-109.500
0.251,-36.000,5.500,-158.000,-107.000
0.252,-36.000,6.500,-156.500,-106.000
0.253,-37.000,5.500,-157.000,-106.500
0.254,-39.500,3.000,-159.000,-108.500
0.255,-43.500,-1.500,-163.500,-113.000
0.256,-47.500,-6.500,-169.000,-119.000
0.257,-52.500,-12.000,-175.500,-125.500
0.258,-56.500,-17.500,-181.500,-132.000
0.259,-60.000,-22.000,-186.500,-137.000
0.260,-62.500,-25.000,-190.500,-140.500
0.261,-64.000,-27.500,-193.000,-143.000
0.262,-65.000,-28.500,-194.500,-144.500
0.263,-65.500,-29.500,-195.000,-145.000
0.264,-66.000,-29.500,-195.000,-145.000
0.265,-65.500,-29.500,-195.000,-144.000
0.266,-65.000,-28.500,-194.000,-143.000
0.267,-63.500,-27.000,-192.000,-141.000
0.268,-61.500,-24.500,-189.500,-138.000
0.269,-59.500,-21.500,-186.000,-134.500
0.270,-57.000,-18.500,-182.000,-130.500
0.271,-55.000,-15.500,-178.000,-126.500
0.272,-53.500,-13.500,-175.500,-124.000
0.273,-54.000,-13.500,-175.000,-123.500
0.274,-56.000,-15.000,-176.500,-125.000
0.275,-59.000,-18.000,-180.000,-128.500
0.276,-62.500,-22.500,-185.000,-134.000
0.277,-67.000,-27.500,-191.000,-140.000
0.278,-71.500,-33.000,-197.000,-146.000
0.279,-75.000,-37.000,-202.000,-151.500
0.280,-77.000,-40.000,-205.500,-155.000
0.281,-78.500,-42.000,-207.500,-157.500
0.282,-79.000,-43.000,-208.500,-158.500
0.283,-79.000,-43.000,-209.000,-159.000
0.284,-79.000,-43.000,-208.500,-158.500
0.285,-78.000,-42.500,-207.500,-158.000
0.286,-77.500,-41.500,-206.000,-156.500
0.287,-76.000,-40.000,-204.500,-154.500
0.288,-74.500,-38.000,-201.500,-152.000
0.289,-72.500,-35.500,-198.000,-148.500
0.290,-70.000,-32.000,-194.000,-144.000
0.291,-68.000,-29.500,-190.500,-140.500
0.292,-67.000,-27.500,-188.000,-138.000
0.293,-67.000,-27.000,-187.500,-137.000
0.294,-68.500,-28.500,-189.000,-138.500
0.295,-71.000,-31.500,-192.000,-142.000
0.296,-74.500,-35.500,-196.500,-147.000
0.297,-78.500,-40.500,-202.000,-152.500
0.298,-81.500,-45.000,-207.000,-158.000
0.299,-84.500,-48.500,-211.000,-162.000
0.300,-86.000,-51.000,-214.000,-165.500
0.301,-87.000,-52.000,-216.000,-167.000
0.302,-87.000,-52.500,-216.500,-167.500
0.303,-86.500,-52.000,-216.500,-167.500
0.304,-86.500,-51.500,-216.000,-167.000
0.305,-86.000,-51.000,-215.000,-166.500
0.306,-85.500,-50.500,-214.000,-165.000
0.307,-85.000,-49.500,-212.500,-163.500
0.308,-84.000,-48.000,-211.000,-161.500
0.309,-83.000,-46.500,-208.500,-159.000
0.310,-81.500,-44.000,-205.500,-156.000
0.311,-80.000,-42.000,-202.500,-153.000
0.312,-79.500,-41.000,-200.500,-151.000
0.313,-79.500,-41.000,-200.000,-151.000
0.314,-81.000,-42.500,-201.500,-152.000
0.315,-83.500,-45.000,-204.500,-155.500
0.316,-87.000,-49.000,-209.000,-160.500
0.317,-90.500,-54.000,-214.500,-166.000
0.318,-94.000,-58.500,-219.500,-171.000
0.319,-97.000,-62.000,-224.000,-175.500
0.320,-99.000,-65.000,-227.500,-179.000
0.321,-100.000,-67.000,-229.500,-181.000
0.322,-100.500,-68.000,-231.000,-182.000
0.323,-101.000,-68.500,-231.500,-182.500
0.324,-100.500,-68.500,-231.500,-182.500
0.325,-100.000,-68.000,-230.500,-181.500
0.326,-99.500,-67.000,-229.000,-180.000
0.327,-98.500,-65.500,-227.000,-178.000
0.328,-97.000,-63.500,-224.500,-175.000
0.329,-95.000,-61.000,-221.500,-172.000
0.330,-93.000,-58.500,-218.000,-168.500
0.331,-91.500,-56.000,-215.000,-165.000
0.332,-90.500,-54.500,-212.500,-162.500
0.333,-91.000,-54.500,-212.500,-162.000
0.334,-93.000,-56.500,-214.000,-164.000
0.335,-96.500,-60.000,-217.500,-168.000
0.336,-100.500,-64.500,-223.000,-173.500
0.337,-105.500,-70.000,-229.000,-180.000
0.338,-110.000,-75.500,-235.500,-186.500
0.339,-114.000,-80.500,-241.000,-192.500
0.340,-117.000,-84.000,-245.500,-196.500
0.341,-119.000,-86.500,-248.500,-199.500
0.342,-120.000,-88.000,-250.000,-201.500
0.343,-121.000,-88.500,-251.000,-202.000
0.344,-122.000,-89.500,-251.500,-202.500
0.345,-122.500,-89.500,-251.500,-202.500
0.346,-122.500,-89.500,-251.000,-202.000
0.347,-122.500,-89.000,-250.000,-201.000
0.348,-122.000,-88.000,-248.500,-199.500
0.349,-121.500,-86.500,-246.500,-197.000
0.350,-120.000,-85.000,-243.500,-194.000
0.351,-119.000,-83.000,-241.500,-191.500
0.352,-119.000,-82.500,-240.000,-190.000
0.353,-119.500,-83.000,-240.000,-190.000
0.354,-122.000,-85.000,-242.000,-191.500
0.355,-125.500,-89.000,-246.000,-195.500
0.356,-130.000,-94.500,-251.500,-201.000
0.357,-134.500,-100.000,-257.500,-207.500
0.358,-139.000,-105.500,-264.000,-214.000
0.359,-143.000,-110.000,-269.000,-219.500
0.360,-145.500,-113.000,-273.000,-223.500
0.361,-147.000,-115.000,-275.000,-226.000
0.362,-147.500,-116.000,-276.000,-227.000
0.363,-147.500,-116.000,-276.000,-227.000
0.364,-147.000,-115.500,-275.500,-226.500
0.365,-146.000,-114.500,-274.500,-225.000
0.366,-145.000,-113.500,-273.000,-223.500
0.367,-143.500,-112.000,-271.000,-221.500
0.368,-142.000,-110.000,-268.500,-218.500
0.369,-140.500,-107.500,-265.500,-215.500
0.370,-138.500,-105.000,-262.000,-212.000
0.371,-137.500,-103.000,-259.000,-208.500
0.372,-137.000,-102.000,-257.500,-207.000
0.373,-138.000,-102.500,-258.000,-207.000
0.374,-140.000,-104.500,-260.000,-209.000
0.375,-143.500,-108.000,-263.500,-212.500
0.376,-148.000,-112.500,-268.500,-218.000
0.377,-152.000,-117.500,-274.500,-224.000
0.378,-156.500,-122.500,-280.500,-230.000
0.379,-160.000,-127.000,-285.500,-235.000
0.380,-162.500,-130.000,-289.000,-239.000
0.381,-164.000,-132.000,-291.500,-241.500
0.382,-165.000,-133.500,-293.000,-243.000
0.383,-165.500,-134.500,-294.000,-244.000
0.384,-166.000,-135.000,-294.500,-244.000
0.385,-166.000,-135.000,-294.500,-244.000
0.386,-165.500,-134.500,-293.500,-243.000
0.387,-165.000,-133.500,-292.500,-241.500
0.388,-164.000,-131.500,-290.000,-239.000
0.389,-162.500,-129.500,-287.000,-236.000
0.390,-161.000,-127.000,-284.000,-232.500
0.391,-159.500,-124.500,-280.500,-229.500
0.392,-159.000,-123.500,-278.500,-227.500
0.393,-159.500,-123.500,-278.000,-226.500
0.394,-161.000,-125.000,-279.500,-228.000
0.395,-164.000,-128.500,-283.000,-231.500
0.396,-168.000,-133.000,-288.000,-236.500
0.397,-172.000,-138.000,-293.500,-242.500
0.398,-175.500,-142.500,-299.000,-248.000
0.399,-178.500,-146.000,-303.500,-252.000
0.400,-180.000,-148.500,-306.000,-255.000
0.401,-181.000,-149.500,-307.500,-256.500
0.402,-181.000,-149.500,-308.000,-256.500
0.403,-180.500,-149.000,-307.500,-256.500
0.404,-179.500,-148.000,-306.000,-255.500
0.405,-178.500,-146.500,-304.500,-254.000
0.406,-177.000,-144.500,-302.500,-252.000
0.407,-175.000,-142.500,-300.000,-249.000
0.408,-172.500,-140.000,-296.500,-245.500
0.409,-170.000,-136.500,-292.500,-241.500
0.410,-167.000,-133.500,-288.500,-237.000
0.411,-164.500,-130.000,-284.500,-233.000
0.412,-162.500,-127.500,-281.000,-229.500
0.413,-161.500,-126.500,-279.500,-228.000
0.414,-162.000,-127.000,-280.000,-228.500
0.415,-163.500,-129.000,-282.000,-230.500
0.416,-166.000,-132.000,-286.000,-234.500
0.417,-169.000,-136.000,-290.000,-239.000
0.418,-172.000,-140.000,-294.500,-243.500
0.419,-174.000,-142.500,-298.000,-247.000
0.420,-175.000,-144.500,-300.000,-249.500
0.421,-174.500,-145.000,-300.500,-250.000
0.422,-174.000,-144.500,-300.500,-249.500
0.423,-173.000,-143.500,-299.500,-248.500
0.424,-171.500,-142.000,-298.000,-247.000
0.425,-170.000,-140.500,-296.000,-245.000
0.426,-168.000,-138.000,-293.500,-242.500
0.427,-165.500,-135.500,-290.500,-239.000
0.428,-162.500,-132.000,-286.500,-235.000
0.429,-159.000,-127.500,-281.500,-230.000
0.430,-155.500,-123.000,-276.000,-224.500
0.431,-151.500,-118.500,-270.500,-218.500
0.432,-148.500,-114.500,-265.500,-214.000
0.433,-146.500,-112.000,-262.500,-210.500
0.434,-145.500,-111.000,-261.500,-210.000
0.435,-146.000,-111.500,-262.500,-211.000
0.436,-148.000,-114.000,-265.500,-214.500
0.437,-150.500,-117.000,-269.500,-218.500
0.438,-153.000,-121.000,-274.000,-223.500
0.439,-155.000,-124.000,-277.500,-227.500
0.440,-156.500,-125.500,-280.000,-230.000
0.441,-156.500,-126.500,-281.000,-231.000
0.442,-156.000,-126.500,-280.500,-231.000
0.443,-155.000,-125.500,-279.500,-230.000
0.444,-153.500,-124.000,-278.000,-228.500
0.445,-152.000,-122.000,-276.000,-226.000
0.446,-149.500,-119.500,-273.000,-223.000
0.447,-147.000,-117.000,-270.500,-219.500
0.448,-144.500,-113.500,-267.000,-216.000
0.449,-141.500,-110.000,-263.000,-211.500
0.450,-138.000,-106.000,-258.500,-206.500
0.451,-135.000,-102.500,-254.000,-202.000
0.452,-132.500,-99.500,-250.500,-198.500
0.453,-131.000,-97.500,-248.500,-196.000
0.454,-131.000,-97.500,-248.000,-196.000
0.455,-132.000,-99.000,-250.000,-198.000
0.456,-134.000,-101.500,-253.000,-201.000
0.457,-137.000,-105.500,-257.000,-205.500
0.458,-139.500,-109.000,-261.500,-210.000
0.459,-141.500,-112.000,-265.000,-213.500
0.460,-142.500,-113.500,-267.000,-216.000
0.461,-143.000,-114.500,-268.000,-217.000
0.462,-142.500,-114.500,-268.000,-217.000
0.463,-141.500,-113.500,-267.500,-216.000
0.464,-140.000,-112.000,-266.000,-214.500
0.465,-138.500,-110.500,-264.000,-212.500
0.466,-136.500,-108.500,-261.500,-210.000
0.467,-134.000,-106.000,-259.000,-207.000
0.468,-132.000,-103.500,-256.000,-203.500
0.469,-129.500,-100.500,-252.000,-200.000
0.470,-127.000,-97.500,-248.500,-196.000
0.471,-125.000,-95.000,-244.500,-192.000
0.472,-123.500,-93.000,-242.000,-189.000
0.473,-123.500,-92.500,-241.000,-188.000
0.474,-124.500,-93.500,-241.500,-189.000
0.475,-127.000,-96.000,-244.000,-192.000
0.476,-130.500,-100.500,-248.500,-197.000
0.477,-134.500,-105.000,-254.000,-202.500
0.478,-138.500,-110.000,-259.500,-208.000
0.479,-141.500,-114.000,-264.000,-213.000
0.480,-143.000,-116.500,-267.500,-216.000
0.481,-144.000,-118.000,-269.500,-218.000
0.482,-144.000,-118.500,-270.000,-218.500
0.483,-143.500,-118.000,-270.000,-218.500
0.484,-142.500,-117.500,-269.000,-217.500
0.485,-141.500,-116.000,-267.500,-216.000
0.486,-140.000,-114.500,-265.500,-214.000
0.487,-138.000,-112.000,-263.000,-211.500
0.488,-136.000,-109.000,-259.500,-208.500
0.489,-133.500,-106.000,-255.500,-204.500
0.490,-130.500,-102.500,-251.500,-200.000
0.491,-127.500,-99.000,-247.000,-195.500
0.492,-125.500,-97.000,-244.000,-192.000
0.493,-125.000,-96.000,-242.500,-190.500
0.494,-125.500,-96.500,-243.000,-191.000
0.495,-127.000,-98.500,-245.000,-193.500
0.496,-130.000,-101.500,-249.000,-197.500
0.497,-133.000,-105.500,-253.000,-202.500
0.498,-136.000,-109.500,-257.500,-207.000
0.499,-138.500,-112.500,-261.500,-211.000
0.500,-139.500,-114.000,-264.000,-213.500
0.501,-140.000,-115.000,-265.000,-214.500
0.502,-139.000,-115.000,-265.000,-214.500
0.503,-138.000,-114.000,-264.000,-213.500
0.504,-137.000,-112.500,-262.500,-212.000
0.505,-135.000,-111.000,-260.500,-210.000
0.506,-133.000,-108.500,-258.000,-207.000
0.507,-130.500,-105.500,-254.500,-203.500
0.508,-127.500,-102.000,-250.500,-199.500
0.509,-124.500,-98.500,-246.000,-195.000
0.510,-121.000,-94.000,-241.000,-190.000
0.511,-118.000,-90.500,-236.500,-185.500
0.512,-116.000,-88.000,-233.500,-182.500
0.513,-115.500,-87.000,-232.000,-181.500
0.514,-117.000,-88.500,-233.000,-183.000
0.515,-119.500,-91.000,-236.500,-186.500
0.516,-123.000,-95.000,-241.000,-191.500
0.517,-127.000,-100.000,-246.500,-197.000
0.518,-131.000,-105.000,-252.500,-203.000
0.519,-134.000,-109.500,-257.500,-208.000
0.520,-136.000,-112.000,-261.000,-211.500
0.521,-137.000,-114.000,-263.000,-213.500
0.522,-137.500,-114.500,-263.500,-214.500
0.523,-137.000,-114.000,-263.500,-214.000
0.524,-136.000,-113.500,-262.500,-213.000
0.525,-134.500,-112.000,-261.000,-211.500
0.526,-133.000,-111.000,-259.000,-209.500
0.527,-131.500,-109.000,-256.500,-207.000
0.528,-129.500,-107.000,-253.500,-204.000
0.529,-127.500,-104.500,-250.000,-200.500
0.530,-125.500,-101.500,-246.500,-196.500
0.531,-124.000,-99.000,-243.500,-193.000
0.532,-123.000,-97.500,-241.000,-191.000
0.533,-123.000,-97.500,-240.500,-190.000
0.534,-124.000,-99.000,-241.500,-191.500
0.535,-127.000,-102.000,-245.000,-195.000
0.536,-130.500,-106.500,-250.000,-200.500
0.537,-135.000,-112.000,-255.500,-206.500
0.538,-139.000,-117.000,-261.500,-212.500
0.539,-142.500,-121.500,-266.500,-217.500
0.540,-145.000,-124.500,-270.000,-221.500
0.541,-146.000,-126.500,-272.500,-223.500
0.542,-146.000,-127.000,-273.000,-224.500
0.543,-145.500,-126.500,-273.000,-224.000
0.544,-144.500,-125.500,-272.000,-223.000
0.545,-143.000,-124.500,-270.500,-221.500
0.546,-141.500,-123.000,-268.500,-219.500
0.547,-140.000,-121.000,-266.000,-217.000
0.548,-137.500,-118.500,-263.000,-213.500
0.549,-135.000,-115.000,-259.000,-209.500
0.550,-132.000,-111.500,-254.000,-204.500
0.551,-129.000,-107.500,-249.500,-199.500
0.552,-126.500,-104.000,-245.500,-195.500
0.553,-124.500,-102.000,-242.500,-193.000
0.554,-124.000,-102.000,-242.000,-193.000
0.555,-125.500,-103.500,-243.500,-194.500
0.556,-128.000,-106.500,-247.500,-198.500
0.557,-131.500,-111.000,-252.500,-204.000
0.558,-135.000,-116.000,-258.000,-210.000
0.559,-138.500,-120.500,-263.000,-215.500
0.560,-141.500,-124.500,-267.500,-220.000
0.561,-143.500,-127.000,-270.500,-223.000
0.562,-144.500,-129.000,-272.000,-225.000
0.563,-145.000,-130.000,-273.500,-226.500
0.564,-145.500,-131.000,-274.000,-227.500
0.565,-145.500,-131.500,-274.500,-228.000
0.566,-145.500,-131.500,-274.500,-228.000
0.567,-144.500,-130.500,-273.500,-227.000
0.568,-143.000,-129.000,-271.500,-225.000
0.569,-141.000,-126.000,-268.000,-221.500
0.570,-138.000,-122.500,-264.000,-217.000
0.571,-135.000,-118.500,-259.000,-212.000
0.572,-132.500,-115.500,-254.500,-207.500
0.573,-131.500,-113.500,-252.000,-204.500
0.574,-131.500,-113.000,-251.000,-203.500
0.575,-132.500,-114.500,-252.000,-204.500
0.576,-135.000,-117.000,-255.000,-207.500
0.577,-137.500,-120.500,-259.500,-211.500
0.578,-140.500,-124.000,-263.500,-215.500
0.579,-143.000,-127.000,-267.500,-219.500
0.580,-144.500,-129.000,-270.000,-222.000
0.581,-145.000,-130.000,-271.500,-223.500
0.582,-145.000,-130.500,-272.000,-224.000
0.583,-144.500,-130.000,-272.000,-223.500
0.584,-143.000,-129.000,-270.500,-222.000
0.585,-141.000,-127.500,-268.500,-220.000
0.586,-139.000,-125.500,-266.000,-217.500
0.587,-136.500,-123.000,-262.500,-214.500
0.588,-133.500,-119.500,-259.000,-210.500
0.589,-130.500,-115.500,-254.500,-206.000
0.590,-127.500,-112.000,-250.000,-201.500
0.591,-124.500,-108.500,-246.000,-197.500
0.592,-123.000,-106.000,-243.000,-194.500
0.593,-122.000,-105.000,-241.500,-193.000
0.594,-123.000,-105.500,-242.500,-194.000
0.595,-125.500,-108.500,-245.500,-197.000
0.596,-129.000,-113.000,-250.500,-202.000
0.597,-133.500,-118.000,-256.500,-208.000
0.598,-137.500,-123.500,-262.500,-214.500
0.599,-141.500,-128.500,-268.000,-220.000
0.600,-144.000,-131.500,-272.000,-224.500
0.601,-146.000,-133.500,-274.500,-227.000
0.602,-146.500,-134.500,-276.000,-228.000
0.603,-147.000,-135.000,-276.500,-228.500
0.604,-146.500,-134.500,-276.500,-228.500
0.605,-146.000,-134.000,-275.500,-227.500
0.606,-145.500,-133.500,-274.500,-226.000
0.607,-144.500,-132.500,-273.000,-224.500
0.608,-143.500,-130.500,-270.500,-222.000
0.609,-142.000,-128.500,-267.500,-218.500
0.610,-140.000,-126.000,-264.000,-215.000
0.611,-138.000,-123.500,-261.000,-212.000
0.612,-137.000,-121.500,-258.500,-209.500
0.613,-137.000,-121.500,-257.500,-208.500
0.614,-138.500,-123.000,-259.000,-210.000
0.615,-141.500,-126.000,-262.000,-213.500
0.616,-145.000,-130.500,-267.000,-218.500
0.617,-149.500,-136.000,-273.000,-224.500
0.618,-153.500,-141.000,-279.000,-230.500
0.619,-157.000,-145.500,-284.000,-236.500
0.620,-160.000,-149.000,-288.500,-240.500
0.621,-161.500,-151.000,-291.000,-243.500
0.622,-162.500,-152.000,-292.500,-244.500
0.623,-162.500,-152.500,-293.000,-245.000
0.624,-163.000,-152.500,-293.000,-245.000
0.625,-162.500,-152.500,-292.500,-244.000
0.626,-162.000,-151.500,-291.500,-243.000
0.627,-161.000,-151.000,-290.000,-241.500
0.628,-160.000,-149.500,-288.500,-239.500
0.629,-159.000,-148.000,-286.000,-236.500
0.630,-157.500,-146.000,-283.500,-233.500
0.631,-156.500,-144.000,-280.500,-230.500
0.632,-156.000,-143.000,-279.000,-228.500
0.633,-156.500,-143.000,-278.500,-228.000
0.634,-158.000,-144.500,-279.500,-229.500
0.635,-161.000,-147.500,-283.000,-233.000
0.636,-165.000,-152.000,-288.000,-238.000
0.637,-169.500,-157.500,-294.000,-244.500
0.638,-174.000,-162.500,-300.000,-250.500
0.639,-177.500,-167.000,-305.500,-256.000
0.640,-180.000,-170.500,-309.500,-259.500
0.641,-181.500,-172.000,-311.500,-262.000
0.642,-182.000,-173.000,-312.500,-263.000
0.643,-182.000,-173.500,-313.000,-263.000
0.644,-182.000,-173.000,-312.500,-263.000
0.645,-181.000,-172.500,-312.000,-262.000
0.646,-180.500,-171.000,-310.500,-260.500
0.647,-179.500,-169.500,-309.000,-259.000
0.648,-178.000,-168.000,-306.500,-256.500
0.649,-176.500,-166.000,-303.500,-253.500
0.650,-175.000,-163.500,-300.500,-250.000
0.651,-173.500,-161.500,-297.500,-246.500
0.652,-173.000,-160.000,-295.500,-244.500
0.653,-173.500,-160.500,-295.000,-244.000
0.654,-175.000,-162.000,-296.500,-246.000
0.655,-178.500,-165.500,-300.000,-249.500
0.656,-182.500,-170.000,-305.500,-255.000
0.657,-186.500,-175.000,-311.000,-261.000
0.658,-190.500,-180.000,-316.500,-266.500
0.659,-193.500,-183.500,-321.000,-271.500
0.660,-194.500,-186.000,-323.500,-274.500
0.661,-195.000,-187.000,-324.500,-275.500
0.662,-194.500,-186.500,-324.500,-275.500
0.663,-193.000,-185.500,-323.500,-275.000
0.664,-191.500,-184.000,-321.500,-273.000
0.665,-189.000,-181.500,-319.500,-270.500
0.666,-186.500,-179.000,-316.000,-267.500
0.667,-183.000,-175.000,-312.500,-263.000
0.668,-179.500,-171.000,-308.000,-258.500
0.669,-175.500,-166.500,-303.000,-253.000
0.670,-171.500,-161.500,-297.500,-247.500
0.671,-168.500,-157.500,-292.500,-242.500
0.672,-166.000,-154.500,-288.500,-239.000
0.673,-165.000,-152.500,-286.500,-237.000
0.674,-165.000,-152.500,-286.500,-237.000
0.675,-166.500,-154.500,-288.500,-239.000
0.676,-169.000,-157.500,-292.000,-243.000
0.677,-172.000,-161.000,-296.500,-248.000
0.678,-175.000,-165.000,-301.000,-253.000
0.679,-177.000,-168.000,-305.000,-257.000
0.680,-178.000,-170.000,-307.500,-259.500
0.681,-178.500,-171.000,-308.500,-260.500
0.682,-178.000,-171.000,-308.500,-260.500
0.683,-177.500,-170.500,-308.000,-260.000
0.684,-176.500,-169.500,-307.000,-259.000
0.685,-175.500,-168.500,-305.500,-257.500
0.686,-174.500,-167.000,-304.000,-256.000
0.687,-173.000,-165.000,-302.000,-253.500
0.688,-171.500,-163.000,-299.000,-251.000
0.689,-169.500,-160.500,-296.000,-247.500
0.690,-167.500,-157.500,-292.500,-243.500
0.691,-166.000,-155.500,-289.500,-240.500
0.692,-165.000,-154.000,-287.500,-238.500
0.693,-166.000,-154.500,-287.500,-238.000
0.694,-168.500,-156.500,-289.500,-240.500
0.695,-172.000,-160.500,-293.500,-244.500
0.696,-176.500,-166.000,-299.000,-250.500
0.697,-181.500,-172.000,-305.500,-257.000
0.698,-186.500,-177.500,-312.500,-263.500
0.699,-191.000,-183.000,-318.000,-269.500
0.700,-194.000,-186.500,-322.500,-274.000
0.701,-196.000,-189.500,-325.500,-277.000
0.702,-198.000,-191.500,-328.000,-279.500
0.703,-199.000,-193.000,-329.500,-280.500
0.704,-200.000,-193.500,-330.000,-281.500
0.705,-200.500,-193.500,-330.000,-281.500
0.706,-200.500,-193.000,-329.000,-280.500
0.707,-199.500,-192.000,-327.500,-279.000
0.708,-198.500,-190.000,-325.500,-277.000
0.709,-196.500,-187.000,-322.000,-273.500
0.710,-194.000,-183.500,-318.500,-269.000
0.711,-191.500,-180.500,-314.500,-265.500
0.712,-190.500,-178.500,-312.000,-262.500
0.713,-190.000,-178.000,-311.000,-261.500
0.714,-191.500,-179.500,-312.000,-262.500
0.715,-194.000,-182.500,-315.000,-265.500
0.716,-198.000,-187.000,-319.500,-271.000
0.717,-202.500,-192.000,-325.500,-277.000
0.718,-207.000,-197.500,-331.500,-283.500
0.719,-211.000,-202.500,-337.000,-289.000
0.720,-214.000,-206.000,-341.000,-293.000
0.721,-216.000,-208.500,-344.000,-296.000
0.722,-217.500,-210.500,-346.500,-298.000
0.723,-219.000,-211.500,-347.500,-299.000
0.724,-220.000,-212.000,-348.500,-299.500
0.725,-220.500,-212.000,-348.500,-300.000
0.726,-220.500,-212.000,-348.500,-300.000
0.727,-220.500,-211.500,-347.500,-299.000
0.728,-220.000,-210.500,-346.000,-297.500
0.729,-219.500,-209.000,-343.500,-295.500
0.730,-218.000,-207.000,-341.000,-292.500
0.731,-217.000,-205.000,-338.000,-290.000
0.732,-217.000,-204.500,-336.500,-288.500
0.733,-218.500,-205.000,-337.000,-288.500
0.734,-221.000,-207.000,-339.500,-291.000
0.735,-225.000,-211.500,-343.500,-295.500
0.736,-230.000,-217.000,-350.000,-301.500
0.737,-235.500,-223.000,-356.500,-308.500
0.738,-240.500,-229.000,-363.500,-316.000
0.739,-245.000,-234.500,-370.000,-322.000
0.740,-248.500,-239.000,-375.000,-327.500
0.741,-251.500,-242.500,-378.500,-331.000
0.742,-253.500,-244.500,-381.000,-333.500
0.743,-255.000,-246.000,-382.500,-335.500
0.744,-255.500,-246.500,-383.500,-336.000
0.745,-256.000,-247.000,-383.500,-336.000
0.746,-256.000,-246.500,-383.000,-335.500
0.747,-255.500,-245.000,-381.500,-334.000
0.748,-254.000,-243.000,-379.500,-331.500
0.749,-252.500,-241.000,-376.500,-328.500
0.750,-250.500,-238.000,-373.000,-325.000
0.751,-249.500,-236.000,-370.500,-322.000
0.752,-249.000,-235.000,-368.500,-320.000
0.753,-250.000,-235.500,-368.000,-319.500
0.754,-252.000,-237.000,-369.500,-321.000
0.755,-254.500,-240.000,-372.500,-324.500
0.756,-258.000,-244.000,-377.000,-329.000
0.757,-261.500,-248.500,-382.000,-334.500
0.758,-265.000,-253.000,-387.500,-339.500
0.759,-268.000,-257.000,-392.000,-344.500
0.760,-270.000,-259.500,-395.000,-347.500
0.761,-271.000,-260.500,-396.500,-349.000
0.762,-271.000,-261.000,-397.000,-349.500
0.763,-270.500,-260.500,-397.000,-349.000
0.764,-269.500,-260.000,-396.500,-348.500
0.765,-268.500,-259.000,-395.000,-347.500
0.766,-268.000,-258.000,-394.000,-346.000
0.767,-267.000,-257.000,-392.000,-344.500
0.768,-266.000,-255.500,-390.000,-342.500
0.769,-264.500,-253.500,-387.500,-339.500
0.770,-263.000,-251.000,-384.000,-336.000
0.771,-261.000,-248.000,-380.500,-332.500
0.772,-259.500,-246.000,-377.500,-329.500
0.773,-259.500,-245.500,-376.500,-328.500
0.774,-260.000,-246.000,-377.000,-329.000
0.775,-262.500,-248.500,-379.500,-332.000
0.776,-265.000,-252.000,-383.500,-336.000
0.777,-268.500,-256.000,-388.500,-341.500
0.778,-271.500,-260.000,-393.500,-346.500
0.779,-274.500,-263.500,-397.500,-351.000
0.780,-276.000,-265.500,-400.500,-353.500
0.781,-276.500,-267.000,-402.000,-355.500
0.782,-276.500,-267.500,-402.500,-356.000
0.783,-275.500,-267.000,-402.000,-355.500
0.784,-274.500,-266.500,-400.500,-354.000
0.785,-273.000,-265.000,-398.500,-352.000
0.786,-271.500,-263.000,-396.000,-349.500
0.787,-269.000,-260.500,-393.000,-346.000
0.788,-266.500,-257.000,-389.500,-342.500
0.789,-264.000,-253.500,-386.000,-338.000
0.790,-261.000,-249.500,-381.500,-333.500
0.791,-258.500,-246.500,-377.500,-329.500
0.792,-257.000,-244.000,-374.500,-326.500
0.793,-256.500,-243.000,-373.500,-325.500
0.794,-257.500,-244.000,-374.000,-326.500
0.795,-259.500,-246.500,-377.000,-329.000
0.796,-262.500,-250.500,-381.500,-333.500
0.797,-266.500,-255.000,-386.500,-339.000
0.798,-270.000,-259.500,-391.500,-345.000
0.799,-272.500,-263.000,-396.000,-349.500
0.800,-274.500,-266.000,-399.000,-353.000
0.801,-276.000,-267.500,-401.000,-355.000
0.802,-276.000,-268.000,-401.500,-355.500
0.803,-276.000,-268.000,-401.500,-355.000
0.804,-275.000,-267.500,-400.500,-354.000
0.805,-273.500,-266.000,-399.000,-352.000
0.806,-272.500,-264.500,-397.000,-350.000
0.807,-270.500,-262.500,-395.000,-348.000
0.808,-269.000,-260.500,-392.500,-345.000
0.809,-267.000,-258.000,-389.500,-342.000
0.810,-265.000,-255.000,-386.000,-338.500
0.811,-263.000,-252.500,-382.500,-334.500
0.812,-262.000,-250.500,-380.000,-332.000
0.813,-262.000,-250.000,-379.000,-331.000
0.814,-263.000,-251.500,-380.000,-332.000
0.815,-265.500,-254.500,-383.000,-335.500
0.816,-269.000,-258.500,-388.000,-340.000
0.817,-273.000,-263.500,-393.500,-346.500
0.818,-277.000,-268.500,-399.000,-352.500
0.819,-280.500,-273.000,-404.000,-358.000
0.820,-283.000,-276.000,-408.000,-362.000
0.821,-284.500,-278.000,-410.500,-365.000
0.822,-285.500,-279.500,-412.000,-366.500
0.823,-286.000,-280.000,-412.500,-367.000
0.824,-285.500,-280.000,-412.000,-366.500
0.825,-284.500,-279.000,-411.000,-365.500
0.826,-283.500,-277.500,-409.500,-364.000
0.827,-282.000,-276.000,-407.000,-361.500
0.828,-280.000,-274.000,-404.500,-359.000
0.829,-278.500,-271.500,-401.500,-355.500
0.830,-276.500,-269.000,-398.000,-352.000
0.831,-275.000,-266.500,-395.000,-348.500
0.832,-274.500,-265.000,-392.500,-346.000
0.833,-275.000,-265.000,-392.000,-345.000
0.834,-276.500,-266.500,-393.000,-346.000
0.835,-279.000,-269.500,-396.000,-349.000
0.836,-282.500,-273.500,-400.500,-353.500
0.837,-286.000,-278.000,-405.500,-359.000
0.838,-289.000,-282.000,-411.000,-365.000
0.839,-291.500,-285.500,-415.000,-369.000
0.840,-293.000,-287.500,-417.500,-372.000
0.841,-293.000,-288.500,-418.500,-373.500
0.842,-293.000,-288.500,-419.000,-373.500
0.843,-292.000,-287.500,-418.000,-372.500
0.844,-291.000,-286.000,-416.500,-371.500
0.845,-289.500,-284.500,-415.000,-369.500
0.846,-288.000,-282.500,-413.000,-367.000
0.847,-286.000,-280.500,-410.500,-364.500
0.848,-284.500,-278.500,-407.500,-361.500
0.849,-282.000,-276.000,-404.500,-358.000
0.850,-280.000,-273.000,-401.000,-354.000
0.851,-277.500,-270.000,-397.000,-350.000
0.852,-276.500,-267.500,-394.500,-347.000
0.853,-276.000,-266.500,-393.500,-346.000
0.854,-277.000,-267.500,-394.500,-346.500
0.855,-279.500,-270.000,-397.000,-349.500
0.856,-283.000,-274.000,-401.500,-354.000
0.857,-286.500,-278.500,-406.500,-359.500
0.858,-290.500,-283.000,-412.000,-365.000
0.859,-293.500,-287.000,-416.500,-369.500
0.860,-295.000,-289.500,-419.500,-373.000
0.861,-296.000,-291.000,-421.000,-374.500
0.862,-296.000,-291.500,-421.500,-375.000
0.863,-295.500,-291.000,-421.000,-374.500
0.864,-294.500,-290.000,-420.000,-373.500
0.865,-293.000,-288.500,-418.000,-371.500
0.866,-291.000,-286.000,-416.000,-369.500
0.867,-288.500,-283.500,-413.000,-366.500
0.868,-286.000,-281.000,-410.000,-363.000
0.869,-284.000,-277.500,-406.500,-359.500
0.870,-281.500,-274.500,-402.500,-355.000
0.871,-279.500,-272.000,-399.000,-351.000
0.872,-278.500,-270.500,-396.500,-348.500
0.873,-278.500,-270.000,-395.500,-347.500
0.874,-280.000,-271.000,-396.500,-349.000
0.875,-282.500,-274.000,-399.500,-352.000
0.876,-286.000,-278.000,-404.000,-357.000
0.877,-289.500,-283.000,-410.000,-363.000
0.878,-293.500,-287.500,-415.500,-368.500
0.879,-296.500,-291.500,-420.000,-373.500
0.880,-298.500,-294.000,-423.500,-377.000
0.881,-299.000,-295.500,-425.000,-378.500
0.882,-299.000,-296.000,-425.500,-379.500
0.883,-298.500,-295.500,-425.000,-379.000
0.884,-297.500,-294.500,-424.000,-378.000
0.885,-296.500,-293.000,-422.500,-376.500
0.886,-295.500,-291.500,-421.000,-374.500
0.887,-294.000,-289.500,-418.500,-372.000
0.888,-292.500,-287.500,-416.000,-369.000
0.889,-290.500,-285.000,-413.000,-365.500
0.890,-288.500,-282.500,-409.500,-362.000
0.891,-287.000,-280.000,-406.000,-358.500
0.892,-286.000,-278.000,-403.500,-356.000
0.893,-286.000,-277.500,-402.500,-355.000
0.894,-287.000,-279.000,-403.500,-356.000
0.895,-289.500,-281.500,-406.500,-359.500
0.896,-293.000,-286.000,-411.000,-364.000
0.897,-297.000,-290.500,-416.500,-369.500
0.898,-300.500,-295.500,-422.000,-375.500
0.899,-304.000,-299.500,-427.000,-380.000
0.900,-306.000,-301.500,-430.000,-383.000
0.901,-306.500,-302.500,-431.500,-384.500
0.902,-306.000,-302.500,-431.500,-384.500
0.903,-305.500,-301.500,-431.000,-384.000
0.904,-304.000,-300.500,-430.000,-383.000
0.905,-303.000,-299.000,-428.000,-381.000
0.906,-301.500,-296.500,-426.000,-379.000
0.907,-299.000,-294.000,-423.000,-376.000
0.908,-296.500,-290.500,-419.500,-372.000
0.909,-293.000,-286.500,-414.500,-367.500
0.910,-289.500,-282.000,-409.500,-362.000
0.911,-286.000,-278.000,-404.500,-357.000
0.912,-284.000,-275.000,-400.500,-353.000
0.913,-282.500,-273.000,-398.500,-351.000
0.914,-283.000,-273.500,-398.500,-351.000
0.915,-284.000,-275.000,-400.500,-353.000
0.916,-286.500,-278.000,-404.000,-356.500
0.917,-289.500,-281.500,-408.000,-361.000
0.918,-292.000,-285.000,-412.500,-365.500
0.919,-294.500,-288.000,-416.500,-369.000
0.920,-295.500,-290.000,-419.000,-372.000
0.921,-296.500,-291.000,-420.500,-373.500
0.922,-296.500,-291.500,-421.500,-374.000
0.923,-296.500,-291.500,-421.500,-374.500
0.924,-295.500,-291.000,-421.000,-374.000
0.925,-294.500,-290.000,-419.500,-372.500
0.926,-293.000,-288.500,-418.000,-370.500
0.927,-291.000,-286.000,-415.500,-368.500
0.928,-288.500,-283.500,-412.500,-365.500
0.929,-286.000,-281.000,-409.500,-362.500
0.930,-284.000,-278.000,-406.000,-359.500
0.931,-281.500,-275.000,-402.500,-356.000
0.932,-280.000,-273.000,-400.000,-353.500
0.933,-279.000,-272.000,-398.500,-352.500
0.934,-279.000,-271.500,-398.500,-352.500
0.935,-279.500,-272.500,-399.500,-354.000
0.936,-280.500,-274.000,-401.500,-356.000
0.937,-282.500,-276.500,-404.000,-359.000
0.938,-283.500,-278.500,-407.000,-362.000
0.939,-284.500,-279.500,-409.000,-364.000
0.940,-284.000,-279.500,-409.500,-364.000
0.941,-282.500,-278.000,-408.500,-363.000
0.942,-280.000,-275.500,-406.000,-360.500
0.943,-277.000,-272.500,-402.500,-357.000
0.944,-273.500,-269.000,-399.000,-353.000
0.945,-270.000,-265.000,-395.000,-349.000
0.946,-266.500,-261.000,-390.500,-344.500
0.947,-263.000,-257.500,-386.000,-339.500
0.948,-259.500,-253.000,-381.500,-335.000
0.949,-255.500,-249.000,-376.500,-329.500
0.950,-252.000,-244.500,-371.000,-324.000
0.951,-248.000,-240.000,-365.500,-319.000
0.952,-245.000,-236.500,-361.500,-314.500
0.953,-243.500,-234.500,-359.000,-312.000
0.954,-243.000,-234.000,-358.500,-312.000
0.955,-244.500,-235.500,-360.500,-314.000
0.956,-247.000,-238.500,-364.000,-318.000
0.957,-250.000,-242.500,-369.000,-323.000
0.958,-253.500,-246.500,-374.000,-328.500
0.959,-256.000,-250.000,-378.000,-332.500
0.960,-257.500,-252.500,-381.000,-335.500
0.961,-258.000,-253.500,-382.500,-337.000
0.962,-257.500,-253.500,-382.500,-337.000
0.963,-256.500,-253.000,-382.000,-336.500
0.964,-255.500,-252.000,-381.000,-335.500
0.965,-254.500,-251.000,-379.500,-334.000
0.966,-253.000,-249.500,-378.000,-332.500
0.967,-251.500,-247.500,-376.000,-330.500
0.968,-250.000,-245.500,-373.000,-327.500
0.969,-248.000,-242.500,-370.000,-324.000
0.970,-245.500,-239.500,-366.000,-320.000
0.971,-243.500,-236.500,-362.500,-316.500
0.972,-241.500,-234.500,-359.500,-313.500
0.973,-241.000,-233.500,-358.000,-312.000
0.974,-242.000,-234.000,-358.500,-312.500
0.975,-244.000,-236.000,-360.500,-315.000
0.976,-247.000,-239.500,-364.500,-319.000
0.977,-250.500,-243.500,-369.500,-324.500
0.978,-254.000,-248.000,-374.500,-329.500
0.979,-257.000,-252.000,-379.000,-334.500
0.980,-259.000,-254.500,-382.000,-337.500
0.981,-260.000,-256.500,-384.000,-339.500
0.982,-260.500,-257.000,-385.000,-340.500
0.983,-260.500,-257.000,-385.000,-340.500
0.984,-260.000,-256.500,-384.000,-340.000
0.985,-259.000,-256.000,-383.000,-339.000
0.986,-258.000,-254.500,-381.500,-337.500
0.987,-257.000,-252.500,-379.500,-335.500
0.988,-255.000,-250.500,-376.500,-332.500
0.989,-252.500,-247.500,-373.000,-329.000
0.990,-250.000,-244.000,-369.000,-324.500
0.991,-247.500,-241.000,-365.000,-320.500
0.992,-246.000,-239.000,-362.500,-318.000
0.993,-246.000,-238.500,-361.500,-317.000
0.994,-247.500,-239.500,-362.500,-318.000
0.995,-250.000,-242.500,-365.500,-321.000
0.996,-253.500,-246.500,-370.500,-326.000
0.997,-257.500,-251.000,-376.000,-331.500
0.998,-261.000,-255.500,-381.000,-337.500
0.999,-264.000,-259.500,-385.500,-342.000
1.000,-266.000,-262.500,-389.000,-345.500
1.001,-267.000,-263.500,-390.500,-347.500
1.002,-267.000,-264.000,-391.000,-348.000
1.003,-266.000,-263.500,-390.500,-347.500
1.004,-265.500,-262.500,-389.500,-346.000
1.005,-264.000,-261.500,-388.000,-344.500
1.006,-263.000,-260.000,-386.500,-342.500
1.007,-261.500,-258.000,-384.000,-340.000
1.008,-259.500,-255.500,-381.000,-337.000
1.009,-257.000,-252.500,-377.000,-333.000
1.010,-254.000,-248.500,-372.500,-328.000
1.011,-251.500,-244.500,-368.000,-323.000
1.012,-249.500,-242.000,-364.000,-319.000
1.013,-249.000,-240.500,-362.500,-316.500
1.014,-250.000,-241.000,-362.500,-316.500
1.015,-252.000,-243.500,-365.000,-318.500
1.016,-256.000,-247.500,-369.500,-322.500
1.017,-260.000,-253.000,-374.500,-327.500
1.018,-264.500,-258.000,-380.000,-332.500
1.019,-267.500,-262.000,-384.000,-336.500
1.020,-269.500,-264.500,-387.000,-338.500
1.021,-270.000,-265.000,-387.500,-339.000
1.022,-269.500,-264.500,-387.000,-337.500
1.023,-268.500,-263.500,-385.500,-335.500
1.024,-267.000,-261.000,-383.000,-332.500
1.025,-264.500,-258.500,-380.000,-329.000
1.026,-261.000,-254.500,-375.500,-324.000
1.027,-257.000,-250.000,-370.500,-318.500
1.028,-252.000,-244.500,-364.000,-311.500
1.029,-246.500,-238.000,-356.500,-303.500
1.030,-241.000,-231.500,-349.000,-295.500
1.031,-236.000,-225.500,-342.000,-288.000
1.032,-232.000,-221.000,-336.500,-282.500
1.033,-230.500,-218.500,-333.500,-279.000
1.034,-230.000,-218.000,-332.500,-278.500
1.035,-231.500,-220.000,-334.500,-280.500
1.036,-234.500,-223.000,-338.000,-284.500
1.037,-237.500,-227.000,-343.000,-290.000
1.038,-240.000,-230.500,-348.000,-295.500
1.039,-242.000,-233.500,-352.000,-300.500
1.040,-242.500,-235.500,-355.000,-304.500
1.041,-242.000,-236.000,-356.500,-307.000
1.042,-241.000,-235.500,-357.000,-308.500
1.043,-239.500,-234.500,-357.000,-309.500
1.044,-238.500,-233.500,-356.500,-310.000
1.045,-237.500,-233.000,-356.000,-311.000
1.046,-237.000,-232.500,-356.000,-311.000
1.047,-236.500,-232.000,-355.500,-311.500
1.048,-235.500,-231.000,-354.500,-310.500
1.049,-235.000,-230.000,-353.000,-309.000
1.050,-233.500,-228.000,-350.500,-307.000
1.051,-232.500,-226.000,-348.000,-304.500
1.052,-232.000,-225.000,-346.500,-302.500
1.053,-233.000,-225.500,-346.500,-302.000
1.054,-235.000,-227.500,-348.000,-304.000
1.055,-238.500,-231.500,-352.500,-308.000
1.056,-243.500,-237.000,-358.500,-314.500
1.057,-249.000,-243.500,-365.500,-321.500
1.058,-254.500,-250.000,-372.500,-329.000
1.059,-259.500,-256.000,-379.000,-335.500
1.060,-263.500,-261.000,-384.500,-341.500
1.061,-266.500,-264.500,-389.000,-345.500
1.062,-269.500,-267.500,-392.000,-348.500
1.063,-271.000,-269.500,-394.000,-350.500
1.064,-272.500,-271.000,-395.500,-351.500
1.065,-273.500,-272.000,-396.000,-352.000
1.066,-274.000,-272.500,-396.000,-351.500
1.067,-273.500,-271.500,-395.000,-350.500
1.068,-272.000,-270.000,-392.500,-348.500
1.069,-270.000,-267.500,-389.500,-345.500
1.070,-267.500,-264.500,-385.500,-341.500
1.071,-265.000,-261.000,-381.000,-337.000
1.072,-263.000,-258.500,-378.000,-334.000
1.073,-262.000,-257.500,-376.000,-332.000
1.074,-262.000,-257.500,-376.500,-332.000
1.075,-264.000,-259.500,-378.500,-334.500
1.076,-266.500,-263.000,-382.000,-338.000
1.077,-270.000,-267.000,-386.500,-343.000
1.078,-273.000,-271.000,-391.500,-348.000
1.079,-275.500,-274.000,-395.500,-352.500
1.080,-277.000,-276.500,-398.500,-355.500
1.081,-277.500,-277.500,-400.000,-357.000
1.082,-277.500,-277.500,-400.000,-357.000
1.083,-276.000,-276.500,-399.000,-355.500
1.084,-274.500,-274.500,-397.500,-354.000
1.085,-272.500,-272.500,-395.000,-351.000
1.086,-270.500,-270.000,-392.000,-348.000
1.087,-268.000,-267.500,-389.000,-344.500
1.088,-265.500,-264.500,-385.500,-341.000
1.089,-263.000,-261.500,-381.500,-337.000
1.090,-260.500,-258.000,-377.500,-333.000
1.091,-258.000,-254.500,-373.000,-328.500
1.092,-256.000,-252.000,-369.500,-325.500
1.093,-255.500,-251.000,-368.000,-324.000
1.094,-256.000,-251.000,-368.500,-324.000
1.095,-257.500,-253.500,-370.500,-326.500
1.096,-260.500,-257.000,-375.000,-331.000
1.097,-264.000,-261.000,-380.000,-336.000
1.098,-267.000,-265.500,-385.000,-341.500
1.099,-270.000,-269.500,-389.500,-346.500
1.100,-272.000,-272.000,-392.500,-349.500
1.101,-273.000,-274.000,-394.500,-351.500
1.102,-273.500,-275.000,-395.500,-352.500
1.103,-273.500,-275.000,-395.500,-353.000
1.104,-273.000,-275.000,-395.500,-352.500
1.105,-272.500,-274.000,-394.500,-351.500
1.106,-271.500,-272.500,-393.000,-350.000
1.107,-270.000,-271.000,-391.500,-347.500
1.108,-269.000,-269.000,-389.000,-345.000
1.109,-267.000,-266.000,-385.500,-341.500
1.110,-264.500,-263.000,-381.500,-337.000
1.111,-262.500,-259.500,-377.500,-333.000
1.112,-261.000,-257.000,-374.500,-329.500
1.113,-260.500,-256.000,-373.000,-328.500
1.114,-261.500,-257.000,-373.500,-329.000
1.115,-264.000,-259.500,-376.000,-332.000
1.116,-267.500,-263.500,-380.500,-337.000
1.117,-271.000,-268.000,-386.000,-342.500
1.118,-274.500,-273.000,-391.500,-348.000
1.119,-277.500,-276.500,-396.000,-352.500
1.120,-279.000,-278.500,-399.000,-355.000
1.121,-279.000,-279.500,-400.000,-356.000
1.122,-278.500,-279.000,-399.500,-356.000
1.123,-277.000,-278.000,-398.500,-354.500
1.124,-275.500,-276.500,-397.000,-353.000
1.125,-273.500,-274.500,-394.500,-350.500
1.126,-271.000,-272.000,-392.000,-348.000
1.127,-269.000,-269.500,-388.500,-345.000
1.128,-266.500,-266.500,-385.000,-341.500
1.129,-264.000,-263.500,-381.500,-337.500
1.130,-261.500,-259.500,-377.000,-333.000
1.131,-259.000,-256.500,-373.500,-329.000
1.132,-257.500,-254.000,-370.500,-326.000
1.133,-257.500,-253.000,-369.500,-325.000
1.134,-258.500,-254.500,-371.000,-326.500
1.135,-261.500,-257.500,-374.000,-330.000
1.136,-265.500,-262.000,-379.000,-335.000
1.137,-270.000,-267.500,-385.000,-341.500
1.138,-274.500,-273.000,-391.500,-347.500
1.139,-278.000,-277.500,-396.500,-353.000
1.140,-280.500,-281.000,-400.000,-356.500
1.141,-282.000,-282.500,-402.000,-358.500
1.142,-282.500,-283.500,-403.000,-359.500
1.143,-282.500,-283.500,-403.500,-360.000
1.144,-282.500,-283.500,-403.500,-360.000
1.145,-282.000,-283.000,-402.500,-359.500
1.146,-282.000,-282.500,-401.500,-358.500
1.147,-281.500,-281.500,-400.500,-357.000
1.148,-280.500,-280.500,-398.500,-355.000
1.149,-280.000,-279.000,-396.500,-352.500
1.150,-278.500,-277.000,-394.000,-350.000
1.151,-278.000,-275.000,-391.500,-347.500
1.152,-277.500,-274.000,-390.000,-345.500
1.153,-278.000,-274.500,-389.500,-345.500
1.154,-280.000,-276.000,-391.500,-347.500
1.155,-283.000,-279.500,-395.000,-351.000
1.156,-287.500,-284.000,-400.000,-356.500
1.157,-292.000,-289.500,-406.000,-363.000
1.158,-296.500,-295.000,-412.500,-369.000
1.159,-300.000,-299.500,-417.500,-374.500
1.160,-303.000,-302.500,-421.500,-378.500
1.161,-304.500,-304.500,-424.000,-380.500
1.162,-305.000,-305.500,-425.000,-381.500
1.163,-304.500,-306.000,-425.000,-381.500
1.164,-303.500,-305.500,-424.500,-381.000
1.165,-302.500,-304.000,-423.000,-379.500
1.166,-301.000,-302.000,-421.000,-377.000
1.167,-299.500,-300.000,-418.500,-374.500
1.168,-297.500,-297.000,-415.500,-371.500
1.169,-294.500,-294.000,-412.000,-367.500
1.170,-291.500,-290.000,-407.000,-362.500
1.171,-288.500,-286.000,-402.500,-357.500
1.172,-286.000,-282.500,-398.500,-353.500
1.173,-284.500,-280.500,-396.000,-351.000
1.174,-284.000,-280.500,-395.500,-350.500
1.175,-285.500,-282.000,-397.000,-352.000
1.176,-287.500,-285.000,-400.500,-356.000
1.177,-290.500,-288.500,-405.000,-360.500
1.178,-293.500,-292.500,-409.500,-365.000
1.179,-295.500,-295.500,-413.500,-369.000
1.180,-296.500,-297.000,-415.500,-371.000
1.181,-296.000,-297.000,-416.000,-371.500
1.182,-295.000,-296.500,-415.500,-371.000
1.183,-293.500,-295.000,-414.000,-369.500
1.184,-291.500,-293.000,-412.500,-367.500
1.185,-289.500,-291.000,-410.000,-365.000
1.186,-287.500,-289.000,-407.500,-362.500
1.187,-286.000,-286.500,-405.000,-360.000
1.188,-284.000,-284.500,-402.500,-357.500
1.189,-281.500,-281.500,-399.500,-354.000
1.190,-279.500,-278.500,-396.000,-350.000
1.191,-277.500,-276.000,-392.500,-346.000
1.192,-276.000,-274.000,-390.000,-343.500
1.193,-275.500,-273.500,-388.500,-342.000
1.194,-276.500,-274.000,-389.000,-342.500
1.195,-278.500,-276.000,-391.000,-344.500
1.196,-281.000,-279.500,-395.000,-348.500
1.197,-284.500,-284.000,-400.000,-353.500
1.198,-288.000,-288.000,-405.000,-359.000
1.199,-290.500,-292.000,-409.500,-363.500
1.200,-292.000,-294.500,-412.500,-366.500
1.201,-293.000,-295.500,-414.000,-368.000
1.202,-292.500,-295.500,-414.000,-368.000
1.203,-291.500,-294.500,-413.000,-366.500
1.204,-289.500,-292.500,-411.000,-365.000
1.205,-287.500,-290.500,-408.500,-362.500
1.206,-285.000,-287.500,-405.500,-359.500
1.207,-282.500,-284.500,-402.500,-356.000
1.208,-279.500,-281.500,-398.500,-352.000
1.209,-276.500,-277.500,-394.000,-347.500
1.210,-273.000,-273.000,-389.000,-342.000
1.211,-270.000,-269.000,-384.000,-337.000
1.212,-267.500,-266.000,-380.000,-333.000
1.213,-266.500,-264.500,-377.500,-330.500
1.214,-266.500,-264.500,-377.000,-330.500
1.215,-268.000,-266.000,-379.000,-332.500
1.216,-271.000,-269.000,-382.500,-336.500
1.217,-274.000,-273.000,-387.000,-341.500
1.218,-277.000,-277.500,-392.000,-346.500
1.219,-279.500,-280.500,-396.000,-351.000
1.220,-281.000,-283.000,-398.500,-353.500
1.221,-281.500,-283.500,-400.000,-354.500
1.222,-281.000,-283.500,-400.000,-354.500
1.223,-280.500,-282.500,-399.000,-353.500
1.224,-279.000,-281.000,-397.500,-352.000
1.225,-277.500,-279.500,-395.000,-349.500
1.226,-275.500,-277.000,-392.500,-346.500
1.227,-273.000,-274.500,-389.500,-343.000
1.228,-270.000,-271.500,-385.500,-339.000
1.229,-267.000,-267.500,-381.500,-334.500
1.230,-264.000,-264.000,-377.000,-330.000
1.231,-261.500,-260.500,-372.500,-325.500
1.232,-259.500,-258.000,-369.500,-322.500
1.233,-259.000,-257.000,-367.500,-320.500
1.234,-260.000,-257.500,-368.000,-321.000
1.235,-262.000,-259.500,-370.500,-323.500
1.236,-264.500,-263.000,-374.500,-327.500
1.237,-268.000,-267.500,-379.500,-332.500
1.238,-271.000,-271.500,-384.000,-337.500
1.239,-274.000,-275.500,-388.500,-342.000
1.240,-275.500,-277.500,-391.500,-345.000
1.241,-276.000,-278.500,-393.000,-346.500
1.242,-275.500,-278.500,-393.000,-346.500
1.243,-275.000,-278.000,-392.500,-346.000
1.244,-273.500,-276.500,-391.500,-345.000
1.245,-272.000,-275.000,-390.000,-343.000
1.246,-270.500,-273.000,-388.000,-341.000
1.247,-269.000,-271.500,-385.500,-339.000
1.248,-267.500,-269.500,-383.000,-336.000
1.249,-265.500,-267.000,-379.500,-332.500
1.250,-263.500,-264.500,-376.000,-329.000
1.251,-262.000,-262.000,-372.500,-325.000
1.252,-260.500,-260.000,-370.000,-322.000
1.253,-260.000,-259.500,-369.000,-321.000
1.254,-261.500,-260.000,-369.500,-321.500
1.255,-264.000,-262.500,-372.500,-324.500
1.256,-267.500,-266.500,-376.500,-329.000
1.257,-271.500,-271.500,-382.000,-335.000
1.258,-276.000,-277.000,-388.000,-341.500
1.259,-280.000,-281.500,-393.500,-347.000
1.260,-283.000,-285.500,-398.000,-351.500
1.261,-285.000,-288.000,-401.000,-354.500
1.262,-286.500,-289.500,-403.000,-356.000
1.263,-287.500,-290.500,-403.500,-357.000
1.264,-287.500,-291.000,-403.500,-356.500
1.265,-287.500,-290.500,-403.000,-356.000
1.266,-286.500,-289.500,-401.500,-354.500
1.267,-285.500,-288.000,-399.500,-352.500
1.268,-284.000,-286.000,-397.000,-349.500
1.269,-282.000,-283.000,-393.000,-345.500
1.270,-279.500,-279.500,-389.000,-341.500
1.271,-277.000,-276.500,-385.000,-337.500
1.272,-275.500,-274.000,-382.000,-334.500
1.273,-274.500,-273.000,-380.500,-333.000
1.274,-275.500,-273.500,-381.000,-333.500
1.275,-277.500,-276.000,-383.500,-336.000
1.276,-280.000,-279.500,-387.500,-340.500
1.277,-283.500,-283.500,-392.500,-346.000
1.278,-287.000,-288.000,-397.500,-351.500
1.279,-290.000,-291.500,-401.500,-356.000
1.280,-292.000,-294.000,-404.500,-359.000
1.281,-292.500,-295.000,-406.000,-360.500
1.282,-292.500,-295.500,-406.500,-361.000
1.283,-292.500,-295.000,-406.000,-361.000
1.284,-292.000,-294.000,-405.000,-360.000
1.285,-291.000,-293.000,-403.500,-358.500
1.286,-290.000,-291.500,-402.000,-357.000
1.287,-288.500,-290.000,-400.000,-354.500
1.288,-287.000,-288.000,-397.500,-352.500
1.289,-285.500,-286.000,-395.000,-349.500
1.290,-283.500,-283.500,-392.000,-346.000
1.291,-281.500,-281.000,-389.000,-343.000
1.292,-280.000,-279.500,-386.500,-341.000
1.293,-280.000,-279.500,-386.500,-341.000
1.294,-281.500,-281.000,-388.500,-343.000
1.295,-284.500,-284.500,-392.000,-347.000
1.296,-288.000,-288.500,-397.000,-352.500
1.297,-292.000,-293.500,-402.500,-359.000
1.298,-295.500,-298.000,-407.500,-364.500
1.299,-298.000,-301.500,-411.500,-369.000
1.300,-299.500,-303.500,-414.000,-371.000
1.301,-299.500,-304.000,-415.000,-371.500
1.302,-298.500,-303.500,-414.000,-370.500
1.303,-297.000,-302.000,-412.500,-368.000
1.304,-294.500,-299.500,-410.000,-365.000
1.305,-292.000,-296.500,-406.500,-362.000
1.306,-289.500,-293.500,-403.000,-358.000
1.307,-286.500,-290.000,-399.500,-354.000
1.308,-283.000,-286.000,-395.000,-349.500
1.309,-279.500,-281.500,-389.500,-344.000
1.310,-275.500,-277.000,-384.000,-338.500
1.311,-272.500,-272.500,-379.000,-333.000
1.312,-270.000,-269.500,-375.000,-329.500
1.313,-269.000,-268.000,-373.000,-327.500
1.314,-270.000,-269.000,-373.500,-328.500
1.315,-272.500,-272.000,-376.500,-331.500
1.316,-276.000,-276.000,-381.000,-336.500
1.317,-280.500,-281.500,-387.000,-343.000
1.318,-284.500,-286.500,-393.000,-349.000
1.319,-288.000,-291.000,-398.000,-354.500
1.320,-290.500,-294.000,-401.500,-358.000
1.321,-291.500,-295.500,-403.500,-360.500
1.322,-291.500,-295.500,-404.000,-361.000
1.323,-290.500,-295.000,-404.000,-361.000
1.324,-289.500,-294.500,-403.000,-360.000
1.325,-288.500,-293.000,-401.500,-358.000
1.326,-286.500,-291.000,-399.000,-355.500
1.327,-284.500,-289.000,-396.500,-353.000
1.328,-282.500,-286.000,-393.500,-349.500
1.329,-280.000,-283.000,-390.000,-345.500
1.330,-277.500,-280.000,-386.000,-341.500
1.331,-275.500,-277.000,-382.500,-338.000
1.332,-274.500,-275.500,-380.000,-335.500
1.333,-275.000,-275.000,-379.500,-335.000
1.334,-276.500,-276.500,-381.000,-336.500
1.335,-279.000,-279.500,-384.000,-340.000
1.336,-283.000,-284.000,-388.500,-345.000
1.337,-287.500,-289.000,-394.000,-351.000
1.338,-291.500,-294.000,-400.000,-357.000
1.339,-295.000,-298.500,-405.000,-362.000
1.340,-297.500,-302.000,-409.000,-366.000
1.341,-299.000,-304.500,-411.500,-368.500
1.342,-299.500,-305.500,-412.500,-369.500
1.343,-299.500,-305.500,-412.500,-369.500
1.344,-299.500,-305.500,-412.000,-369.000
1.345,-298.500,-304.000,-411.000,-368.000
1.346,-297.000,-302.500,-409.000,-366.000
1.347,-295.500,-300.000,-406.500,-363.500
1.348,-293.500,-297.500,-403.500,-360.500
1.349,-291.000,-294.500,-399.500,-356.500
1.350,-288.500,-291.000,-395.500,-352.000
1.351,-286.000,-288.000,-391.500,-348.000
1.352,-284.500,-286.000,-388.500,-345.000
1.353,-284.000,-285.000,-387.500,-343.500
1.354,-285.000,-286.000,-388.000,-344.500
1.355,-287.000,-288.500,-391.000,-347.500
1.356,-290.500,-292.500,-395.000,-352.000
1.357,-294.000,-297.000,-400.500,-357.000
1.358,-297.500,-301.500,-405.500,-362.500
1.359,-300.000,-305.000,-410.000,-367.000
1.360,-302.000,-307.500,-413.000,-370.500
1.361,-302.500,-309.000,-414.500,-372.000
1.362,-303.000,-309.500,-415.000,-373.000
1.363,-302.500,-309.000,-415.000,-373.000
1.364,-301.500,-308.000,-414.000,-372.000
1.365,-300.500,-307.000,-413.000,-371.000
1.366,-299.000,-305.500,-411.000,-369.000
1.367,-297.500,-304.000,-409.000,-366.500
1.368,-295.500,-301.500,-406.000,-364.000
1.369,-293.000,-298.500,-402.500,-360.000
1.370,-290.000,-295.000,-398.000,-356.000
1.371,-288.000,-292.000,-394.000,-352.000
1.372,-286.000,-290.000,-391.000,-348.500
1.373,-285.500,-289.000,-390.000,-347.000
1.374,-286.500,-290.000,-390.500,-348.000
1.375,-289.000,-292.500,-393.000,-350.500
1.376,-292.000,-296.500,-397.500,-355.000
1.377,-296.000,-301.500,-403.000,-361.000
1.378,-300.000,-306.000,-408.500,-366.500
1.379,-303.000,-310.000,-413.000,-371.500
1.380,-305.000,-312.500,-416.500,-374.500
1.381,-305.500,-314.000,-418.000,-376.500
1.382,-305.500,-314.000,-418.500,-377.000
1.383,-305.000,-313.500,-418.000,-376.500
1.384,-304.500,-312.500,-417.000,-376.000
1.385,-303.500,-311.500,-416.000,-374.500
1.386,-303.000,-310.500,-414.500,-373.000
1.387,-301.500,-309.000,-412.500,-371.500
1.388,-300.500,-307.500,-410.500,-369.000
1.389,-299.000,-305.500,-408.000,-366.500
1.390,-298.000,-303.500,-405.500,-363.500
1.391,-297.000,-301.500,-402.500,-361.000
1.392,-297.000,-300.000,-401.000,-359.000
1.393,-298.500,-300.500,-401.000,-359.000
1.394,-301.000,-303.000,-403.000,-361.500
1.395,-304.500,-306.500,-407.000,-366.000
1.396,-309.500,-312.000,-413.000,-372.000
1.397,-315.000,-318.500,-420.000,-379.500
1.398,-320.500,-325.000,-427.500,-387.000
1.399,-325.000,-331.000,-434.000,-393.500
1.400,-329.000,-335.500,-439.000,-398.500
1.401,-331.500,-338.500,-442.500,-402.000
1.402,-333.000,-340.500,-445.000,-404.000
1.403,-333.500,-341.500,-446.000,-405.000
1.404,-334.000,-341.500,-446.000,-405.500
1.405,-334.000,-341.500,-445.500,-405.000
1.406,-333.000,-340.500,-445.000,-404.000
1.407,-332.500,-339.500,-443.500,-402.500
1.408,-331.500,-338.000,-442.000,-400.500
1.409,-330.500,-336.500,-440.000,-398.000
1.410,-329.000,-334.000,-437.000,-395.000
1.411,-328.000,-332.000,-434.500,-392.500
1.412,-328.000,-331.000,-432.500,-390.500
1.413,-329.500,-331.500,-432.500,-391.000
1.414,-332.500,-334.000,-435.000,-393.500
1.415,-337.000,-339.000,-440.000,-398.000
1.416,-342.500,-345.000,-446.500,-405.000
1.417,-348.500,-352.500,-454.500,-412.500
1.418,-355.000,-359.500,-462.000,-421.000
1.419,-360.000,-366.000,-469.000,-428.000
1.420,-364.000,-371.000,-474.500,-433.000
1.421,-367.000,-374.000,-478.000,-437.000
1.422,-369.000,-376.000,-480.500,-439.000
1.423,-370.500,-377.500,-482.000,-440.500
1.424,-371.500,-378.500,-482.500,-441.000
1.425,-372.000,-379.000,-483.000,-441.500
1.426,-372.500,-379.500,-482.500,-441.000
1.427,-372.000,-379.000,-482.000,-440.000
1.428,-371.500,-377.500,-480.000,-438.500
1.429,-370.500,-375.500,-477.500,-436.000
1.430,-369.000,-373.500,-475.000,-432.500
1.431,-367.500,-371.500,-472.000,-429.500
1.432,-367.000,-370.000,-470.000,-427.000
1.433,-368.000,-370.000,-470.000,-427.000
1.434,-370.000,-372.000,-472.000,-428.500
1.435,-373.500,-376.000,-476.000,-432.500
1.436,-377.500,-380.500,-481.000,-438.500
1.437,-382.500,-386.500,-487.500,-445.000
1.438,-387.500,-392.000,-494.000,-452.000
1.439,-391.500,-397.000,-500.000,-458.000
1.440,-395.000,-401.000,-504.500,-462.500
1.441,-397.000,-403.000,-507.500,-465.500
1.442,-398.000,-404.500,-509.000,-467.000
1.443,-398.500,-405.000,-509.500,-467.500
1.444,-399.000,-405.000,-510.000,-467.500
1.445,-398.500,-404.500,-509.500,-466.500
1.446,-398.000,-403.500,-508.500,-465.000
1.447,-397.000,-402.000,-507.000,-463.500
1.448,-396.000,-400.500,-505.000,-461.000
1.449,-394.500,-399.000,-502.000,-458.500
1.450,-393.500,-397.000,-499.000,-455.000
1.451,-392.500,-395.000,-496.500,-452.500
1.452,-392.000,-394.000,-495.000,-450.500
1.453,-393.000,-394.500,-495.000,-450.500
1.454,-395.500,-396.500,-496.500,-452.500
1.455,-399.000,-400.500,-500.500,-456.500
1.456,-403.500,-405.500,-506.000,-462.500
1.457,-409.000,-411.500,-512.000,-469.000
1.458,-413.500,-417.500,-518.500,-476.000
1.459,-418.000,-422.500,-524.500,-482.000
1.460,-421.000,-426.000,-528.500,-486.500
1.461,-422.500,-428.000,-531.500,-489.500
1.462,-423.500,-429.500,-533.000,-491.000
1.463,-424.000,-430.500,-533.500,-492.000
1.464,-424.000,-430.500,-534.000,-492.000
1.465,-424.500,-431.000,-534.000,-492.000
1.466,-424.500,-431.000,-533.500,-491.500
1.467,-424.500,-431.000,-533.000,-491.000
1.468,-424.500,-430.500,-532.000,-490.000
1.469,-424.500,-429.500,-531.000,-488.000
1.470,-424.000,-428.000,-528.500,-485.500
1.471,-423.500,-426.500,-526.500,-483.000
1.472,-423.500,-426.000,-525.000,-481.500
1.473,-425.000,-426.500,-525.500,-482.000
1.474,-428.000,-429.000,-527.500,-484.500
1.475,-432.000,-433.500,-531.500,-489.000
1.476,-436.500,-438.500,-537.500,-495.000
1.477,-441.500,-444.000,-544.000,-501.500
1.478,-446.500,-449.500,-550.500,-508.500
1.479,-450.500,-454.500,-556.500,-514.500
1.480,-454.000,-458.000,-561.000,-519.000
1.481,-456.500,-460.500,-564.000,-522.500
1.482,-457.500,-462.500,-566.000,-524.000
1.483,-458.500,-463.500,-567.000,-525.000
1.484,-458.500,-463.500,-567.000,-525.000
1.485,-458.500,-463.000,-566.500,-524.500
1.486,-457.500,-462.000,-565.500,-523.000
1.487,-456.000,-460.000,-563.500,-520.500
1.488,-454.000,-457.500,-560.500,-517.500
1.489,-451.500,-454.500,-556.500,-514.000
1.490,-449.000,-451.000,-552.500,-509.500
1.491,-446.500,-448.000,-548.500,-505.500
1.492,-445.000,-446.000,-545.500,-502.500
1.493,-444.500,-445.500,-544.500,-501.500
1.494,-446.000,-447.000,-545.500,-502.500
1.495,-449.000,-450.000,-549.000,-506.000
1.496,-453.500,-454.500,-554.000,-511.500
1.497,-458.500,-460.000,-560.500,-518.000
1.498,-463.000,-466.000,-566.500,-525.000
1.499,-467.500,-470.500,-572.000,-531.000
1.500,-470.500,-474.500,-576.500,-535.500
1.501,-472.000,-476.500,-579.000,-538.000
1.502,-473.000,-478.000,-580.500,-539.500
1.503,-473.000,-478.000,-581.000,-539.500
1.504,-472.000,-477.000,-580.500,-539.000
1.505,-471.000,-476.000,-579.000,-537.500
1.506,-469.500,-474.000,-577.000,-535.500
1.507,-468.000,-472.000,-575.000,-533.000
1.508,-466.000,-469.500,-572.000,-530.000
1.509,-463.500,-466.500,-568.000,-526.000
1.510,-461.500,-463.000,-564.000,-522.000
1.511,-459.000,-460.000,-560.500,-518.500
1.512,-458.000,-458.000,-557.500,-515.500
1.513,-457.500,-457.000,-556.000,-514.000
1.514,-458.500,-457.500,-556.500,-514.500
1.515,-460.500,-460.000,-559.000,-517.500
1.516,-464.000,-463.500,-563.500,-522.000
1.517,-468.000,-468.500,-569.000,-527.500
1.518,-471.500,-473.000,-574.500,-533.000
1.519,-474.500,-477.000,-579.000,-538.000
1.520,-476.000,-479.500,-582.500,-541.000
1.521,-477.000,-480.500,-584.000,-542.500
1.522,-476.500,-480.500,-584.000,-543.000
1.523,-476.000,-480.000,-583.500,-542.500
1.524,-475.000,-479.000,-582.500,-542.000
1.525,-474.500,-478.000,-581.500,-540.500
1.526,-473.500,-477.000,-580.000,-539.500
1.527,-473.000,-475.500,-578.500,-537.500
1.528,-472.000,-474.000,-576.500,-535.000
1.529,-470.500,-472.000,-573.500,-532.000
1.530,-469.000,-469.500,-570.500,-529.000
1.531,-467.000,-467.000,-567.500,-525.500
1.532,-466.000,-465.500,-565.500,-523.000
1.533,-466.000,-465.000,-565.000,-522.500
1.534,-467.500,-466.500,-566.500,-523.500
1.535,-470.500,-469.500,-569.500,-527.000
1.536,-474.500,-474.000,-574.500,-532.000
1.537,-479.000,-479.000,-580.500,-538.000
1.538,-483.000,-484.500,-586.000,-544.500
1.539,-486.500,-489.000,-591.500,-550.000
1.540,-489.000,-492.000,-595.000,-554.000
1.541,-490.000,-494.000,-597.500,-556.000
1.542,-490.500,-494.500,-598.500,-557.000
1.543,-490.000,-494.500,-598.500,-557.000
1.544,-489.000,-494.000,-598.000,-556.500
1.545,-488.000,-493.000,-597.000,-555.000
1.546,-487.000,-492.000,-595.500,-553.500
1.547,-486.000,-490.500,-594.000,-552.000
1.548,-485.000,-488.500,-591.500,-549.500
1.549,-483.000,-486.500,-588.500,-546.500
1.550,-481.000,-483.500,-585.000,-543.000
1.551,-478.500,-480.500,-581.500,-539.000
1.552,-477.000,-478.500,-578.500,-536.000
1.553,-476.500,-477.500,-577.000,-534.500
1.554,-477.000,-477.500,-577.000,-534.500
1.555,-479.000,-479.500,-579.000,-537.000
1.556,-482.500,-483.000,-583.000,-541.500
1.557,-486.500,-487.500,-588.000,-546.500
1.558,-490.500,-492.000,-594.000,-552.500
1.559,-494.000,-496.500,-599.500,-558.000
1.560,-497.000,-500.500,-603.500,-562.500
1.561,-499.000,-503.000,-606.500,-565.000
1.562,-500.000,-504.500,-608.500,-567.000
1.563,-501.000,-505.000,-609.500,-568.000
1.564,-501.500,-505.500,-610.000,-568.500
1.565,-502.000,-506.000,-610.000,-568.500
1.566,-502.000,-506.000,-609.500,-567.500
1.567,-501.500,-505.500,-608.500,-566.500
1.568,-501.000,-504.500,-607.000,-565.000
1.569,-500.000,-503.000,-604.500,-562.500
1.570,-498.500,-500.500,-602.000,-559.000
1.571,-497.000,-498.000,-598.500,-556.000
1.572,-496.500,-496.500,-596.000,-553.500
1.573,-496.500,-496.000,-595.000,-552.500
1.574,-497.500,-497.000,-596.000,-553.500
1.575,-500.000,-500.000,-598.500,-557.000
1.576,-503.500,-504.000,-603.500,-561.500
1.577,-508.000,-509.000,-609.000,-567.500
1.578,-512.000,-514.500,-615.000,-573.500
1.579,-515.500,-518.500,-620.000,-578.500
1.580,-517.500,-521.000,-623.000,-581.500
1.581,-518.000,-522.000,-624.500,-583.000
1.582,-517.500,-522.000,-625.000,-583.000
1.583,-516.500,-521.000,-624.000,-582.000
1.584,-515.000,-519.500,-622.500,-580.500
1.585,-513.500,-518.000,-620.500,-579.000
1.586,-511.500,-515.500,-618.500,-576.500
1.587,-509.500,-513.000,-615.500,-573.500
1.588,-507.000,-510.500,-612.000,-570.500
1.589,-504.500,-507.000,-608.000,-566.000
1.590,-501.000,-502.500,-603.500,-561.000
1.591,-498.000,-498.500,-598.500,-556.000
1.592,-495.000,-495.000,-594.500,-552.000
1.593,-494.000,-493.500,-592.000,-549.500
1.594,-494.000,-493.500,-591.500,-549.000
1.595,-496.000,-495.500,-593.500,-551.000
1.596,-499.000,-499.000,-598.000,-555.500
1.597,-503.000,-504.000,-603.000,-561.000
1.598,-507.000,-509.000,-609.000,-567.000
1.599,-510.500,-513.500,-614.000,-572.000
1.600,-513.000,-516.500,-618.000,-576.000
1.601,-514.000,-518.500,-620.500,-578.500
1.602,-514.500,-519.000,-621.500,-579.000
1.603,-514.500,-519.500,-622.000,-579.500
1.604,-514.500,-519.000,-622.000,-579.000
1.605,-514.000,-519.000,-621.500,-578.500
1.606,-513.500,-518.000,-620.500,-577.000
1.607,-513.000,-516.500,-619.000,-575.500
1.608,-511.500,-515.000,-616.500,-573.000
1.609,-509.500,-512.500,-613.500,-570.000
1.610,-507.500,-509.500,-609.500,-566.000
1.611,-505.000,-506.500,-605.500,-562.000
1.612,-503.500,-504.000,-602.500,-559.000
1.613,-503.000,-503.500,-601.000,-557.500
1.614,-503.500,-504.000,-601.500,-558.000
1.615,-505.500,-506.500,-604.000,-560.500
1.616,-508.500,-510.000,-608.000,-565.000
1.617,-512.000,-514.500,-613.000,-570.500
1.618,-515.500,-519.000,-618.500,-576.000
1.619,-518.500,-523.000,-623.000,-580.500
1.620,-520.500,-525.500,-626.000,-584.000
1.621,-521.500,-527.000,-628.000,-586.500
1.622,-522.000,-527.500,-629.000,-587.000
1.623,-521.500,-527.500,-628.500,-587.000
1.624,-521.000,-526.500,-628.000,-586.500
1.625,-520.000,-525.500,-627.000,-585.000
1.626,-519.000,-524.000,-625.000,-583.500
1.627,-518.000,-522.500,-623.000,-581.000
1.628,-516.000,-520.000,-620.500,-578.500
1.629,-514.000,-517.500,-617.500,-575.000
1.630,-511.500,-514.500,-614.000,-571.000
1.631,-509.500,-511.500,-610.000,-567.000
1.632,-507.500,-509.500,-607.000,-563.500
1.633,-507.000,-508.000,-605.500,-562.000
1.634,-508.000,-508.500,-606.000,-562.000
1.635,-510.000,-511.000,-608.500,-564.500
1.636,-514.000,-515.500,-613.000,-569.500
1.637,-518.000,-520.500,-619.000,-575.500
1.638,-522.500,-526.000,-625.500,-582.000
1.639,-526.500,-531.000,-631.000,-587.500
1.640,-529.000,-534.500,-635.000,-592.000
1.641,-531.000,-536.500,-637.500,-594.500
1.642,-531.500,-537.500,-638.500,-596.000
1.643,-531.500,-537.500,-638.500,-596.000
1.644,-531.000,-536.500,-638.000,-595.000
1.645,-530.500,-535.500,-637.000,-593.500
1.646,-529.500,-534.000,-635.500,-592.000
1.647,-528.000,-532.500,-633.500,-590.000
1.648,-527.000,-530.500,-631.500,-587.500
1.649,-525.500,-528.500,-628.500,-585.000
1.650,-523.500,-526.000,-625.500,-581.500
1.651,-521.500,-523.500,-622.500,-578.500
1.652,-520.500,-522.000,-620.500,-576.500
1.653,-521.000,-521.500,-620.000,-576.000
1.654,-522.500,-523.000,-621.500,-577.500
1.655,-525.500,-526.500,-625.000,-581.500
1.656,-530.000,-531.500,-630.500,-587.500
1.657,-535.000,-537.000,-637.500,-595.000
1.658,-540.000,-543.500,-644.500,-602.500
1.659,-544.500,-549.000,-651.000,-609.500
1.660,-548.000,-553.500,-656.000,-614.500
1.661,-550.500,-556.500,-659.500,-618.500
1.662,-551.500,-558.000,-661.500,-620.000
1.663,-552.000,-558.500,-662.000,-620.500
1.664,-551.500,-558.000,-662.000,-620.000
1.665,-551.000,-557.000,-660.500,-618.500
1.666,-549.500,-555.500,-659.000,-616.000
1.667,-548.000,-554.000,-656.500,-613.500
1.668,-546.500,-551.500,-653.500,-610.000
1.669,-544.000,-548.500,-649.500,-606.000
1.670,-541.500,-545.000,-645.000,-601.500
1.671,-539.000,-541.000,-640.500,-596.500
1.672,-537.000,-538.000,-637.000,-592.500
1.673,-536.000,-536.500,-634.500,-590.500
1.674,-536.500,-536.500,-634.500,-590.500
1.675,-538.000,-538.000,-636.000,-592.500
1.676,-541.500,-541.500,-639.500,-596.500
1.677,-545.000,-546.000,-644.500,-601.500
1.678,-549.000,-551.000,-650.000,-607.500
1.679,-552.500,-555.500,-655.500,-613.000
1.680,-555.500,-558.500,-659.500,-617.000
1.681,-557.000,-561.000,-662.500,-620.000
1.682,-558.000,-562.000,-664.000,-621.500
1.683,-558.500,-562.500,-665.000,-622.000
1.684,-558.500,-562.000,-665.000,-622.000
1.685,-557.500,-561.500,-664.500,-621.500
1.686,-557.000,-560.000,-663.000,-620.000
1.687,-555.500,-558.500,-661.000,-618.000
1.688,-554.000,-556.500,-658.500,-615.500
1.689,-552.000,-554.000,-655.500,-612.500
1.690,-550.000,-551.000,-652.000,-608.500
1.691,-548.000,-548.000,-648.500,-605.000
1.692,-546.500,-546.000,-645.500,-602.000
1.693,-546.500,-545.000,-644.000,-600.500
1.694,-547.500,-545.500,-644.500,-601.000
1.695,-549.500,-547.500,-647.000,-603.500
1.696,-552.500,-551.000,-651.000,-608.000
1.697,-556.500,-555.500,-656.000,-613.000
1.698,-560.000,-559.500,-661.500,-618.500
1.699,-563.500,-563.500,-666.000,-623.500
1.700,-565.500,-566.000,-669.500,-627.000
1.701,-566.500,-567.000,-671.000,-629.000
1.702,-566.500,-567.500,-672.000,-629.500
1.703,-566.000,-567.000,-671.500,-629.500
1.704,-565.500,-566.500,-671.000,-628.500
1.705,-565.000,-566.000,-670.000,-627.500
1.706,-564.000,-564.500,-669.000,-626.500
1.707,-563.500,-563.500,-667.500,-624.500
1.708,-562.500,-561.500,-665.000,-622.500
1.709,-561.000,-559.500,-662.500,-620.000
1.710,-559.500,-557.000,-659.500,-616.500
1.711,-558.000,-554.500,-656.500,-613.000
1.712,-556.500,-552.500,-653.500,-610.000
1.713,-556.000,-551.500,-652.000,-608.500
1.714,-557.000,-552.000,-652.500,-608.500
1.715,-559.000,-554.000,-655.000,-611.000
1.716,-562.500,-557.500,-659.000,-615.500
1.717,-566.000,-562.000,-664.500,-620.500
1.718,-569.500,-566.500,-669.500,-626.000
1.719,-573.000,-570.000,-674.500,-631.000
1.720,-575.000,-573.000,-678.000,-634.500
1.721,-576.500,-574.500,-680.000,-637.000
1.722,-576.500,-575.000,-681.000,-638.000
1.723,-576.000,-575.000,-681.500,-638.000
1.724,-575.500,-574.000,-680.500,-637.500
1.725,-574.000,-572.500,-679.500,-636.000
1.726,-572.500,-570.500,-677.500,-634.000
1.727,-570.500,-568.000,-674.500,-631.000
1.728,-568.000,-565.000,-671.000,-627.500
1.729,-565.000,-561.000,-667.000,-623.500
1.730,-562.000,-556.500,-662.000,-618.500
1.731,-558.500,-552.000,-657.000,-613.500
1.732,-555.500,-548.500,-652.500,-609.000
1.733,-553.500,-545.500,-649.500,-605.500
1.734,-553.000,-544.500,-648.000,-605.000
1.735,-554.000,-545.500,-649.000,-606.000
1.736,-556.000,-548.000,-652.000,-609.500
1.737,-558.500,-551.500,-656.500,-614.000
1.738,-561.500,-555.000,-661.500,-619.500
1.739,-564.000,-558.500,-665.500,-624.000
1.740,-566.000,-561.500,-669.000,-627.000
1.741,-566.500,-563.000,-671.000,-629.000
1.742,-566.500,-563.000,-671.500,-629.000
1.743,-566.000,-563.000,-671.000,-628.500
1.744,-565.000,-561.500,-670.000,-627.500
1.745,-563.500,-560.000,-668.000,-626.000
1.746,-562.000,-558.000,-666.000,-623.500
1.747,-560.500,-555.500,-663.500,-621.000
1.748,-558.500,-552.500,-660.500,-617.500
1.749,-556.000,-549.500,-656.500,-613.500
1.750,-553.000,-545.500,-652.000,-609.000
1.751,-550.000,-542.000,-647.500,-604.500
1.752,-547.500,-538.500,-643.500,-600.500
1.753,-546.000,-537.000,-641.500,-598.500
1.754,-546.500,-537.000,-641.000,-598.000
1.755,-548.000,-538.500,-643.000,-600.000
1.756,-551.000,-542.000,-646.500,-604.000
1.757,-554.500,-546.000,-651.000,-609.000
1.758,-558.000,-550.500,-656.500,-614.000
1.759,-561.000,-554.000,-661.000,-619.000
1.760,-563.500,-556.500,-664.500,-622.500
1.761,-564.500,-557.500,-666.500,-624.500
1.762,-564.500,-558.000,-667.500,-625.000
1.763,-564.000,-557.000,-667.000,-624.500
1.764,-563.500,-556.000,-666.000,-623.000
1.765,-562.000,-554.500,-664.500,-621.500
1.766,-560.500,-552.500,-662.500,-619.000
1.767,-559.000,-550.500,-660.000,-616.500
1.768,-557.000,-548.000,-657.000,-613.500
1.769,-554.500,-544.500,-653.500,-609.500
1.770,-551.500,-541.000,-649.000,-605.000
1.771,-548.500,-537.500,-644.500,-600.500
1.772,-546.000,-534.500,-641.000,-597.000
1.773,-545.000,-532.500,-639.000,-594.500
1.774,-545.500,-533.000,-639.000,-594.500
1.775,-547.500,-535.000,-641.000,-597.000
1.776,-550.000,-538.500,-645.000,-601.000
1.777,-553.500,-543.000,-650.000,-606.000
1.778,-557.000,-547.500,-655.000,-611.500
1.779,-560.000,-551.500,-660.000,-616.500
1.780,-562.000,-554.000,-663.500,-620.000
1.781,-563.000,-555.500,-665.500,-622.000
1.782,-563.000,-556.000,-666.000,-623.000
1.783,-562.000,-555.500,-666.000,-622.500
1.784,-561.000,-554.500,-665.000,-621.500
1.785,-559.500,-553.000,-663.500,-620.000
1.786,-558.000,-551.000,-661.000,-617.500
1.787,-556.000,-548.500,-658.500,-615.000
1.788,-553.500,-546.000,-655.000,-611.500
1.789,-551.000,-543.000,-651.000,-607.500
1.790,-548.500,-539.500,-646.500,-603.000
1.791,-545.500,-536.000,-642.000,-598.000
1.792,-544.000,-533.000,-638.500,-594.500
1.793,-543.500,-532.000,-636.500,-592.500
1.794,-544.000,-532.500,-636.500,-592.500
1.795,-546.500,-534.500,-639.000,-594.500
1.796,-550.000,-538.500,-643.500,-599.000
1.797,-554.500,-544.000,-649.000,-604.500
1.798,-559.000,-549.500,-655.000,-611.000
1.799,-563.500,-554.500,-660.500,-616.500
1.800,-567.500,-558.500,-665.000,-620.500
1.801,-570.000,-561.000,-668.500,-623.000
1.802,-571.500,-562.500,-670.000,-624.500
1.803,-572.500,-563.000,-671.000,-624.500
1.804,-573.000,-563.000,-670.500,-623.500
1.805,-572.500,-562.000,-669.500,-622.000
1.806,-571.500,-560.500,-667.500,-619.000
1.807,-570.000,-558.500,-664.500,-615.500
1.808,-568.000,-555.500,-660.500,-611.000
1.809,-565.000,-551.500,-655.500,-605.500
1.810,-561.000,-546.500,-649.500,-599.000
1.811,-556.500,-541.000,-643.000,-591.500
1.812,-552.000,-536.000,-636.500,-585.000
1.813,-548.000,-531.000,-631.000,-579.000
1.814,-545.500,-528.000,-627.500,-575.000
1.815,-544.000,-527.000,-626.000,-573.500
1.816,-544.000,-527.000,-626.500,-574.000
1.817,-545.000,-529.000,-628.500,-576.000
1.818,-546.500,-531.000,-631.500,-579.000
1.819,-547.500,-533.000,-634.000,-582.000
1.820,-548.000,-534.000,-635.500,-583.500
1.821,-547.000,-533.500,-635.000,-584.000
1.822,-545.000,-531.500,-634.000,-583.000
1.823,-542.500,-529.000,-632.000,-581.500
1.824,-539.500,-526.500,-629.000,-579.500
1.825,-536.000,-523.000,-626.500,-577.500
1.826,-532.500,-519.500,-623.500,-575.500
1.827,-529.000,-516.000,-620.000,-573.000
1.828,-525.000,-512.500,-616.500,-570.500
1.829,-521.500,-509.000,-613.000,-567.500
1.830,-518.500,-505.500,-609.500,-565.000
1.831,-516.000,-502.500,-606.500,-562.500
1.832,-514.500,-500.500,-604.500,-561.000
1.833,-514.500,-500.500,-604.000,-561.000
1.834,-516.000,-502.000,-605.500,-563.500
1.835,-519.500,-505.500,-609.500,-568.000
1.836,-524.500,-511.000,-615.500,-574.500
1.837,-530.000,-517.500,-623.000,-582.000
1.838,-536.000,-524.000,-630.500,-589.500
1.839,-541.000,-530.000,-637.000,-596.500
1.840,-545.000,-534.500,-642.500,-602.000
1.841,-548.000,-538.000,-646.500,-605.500
1.842,-550.500,-540.500,-649.000,-608.000
1.843,-552.000,-542.500,-651.000,-610.000
1.844,-553.500,-544.000,-652.500,-611.000
1.845,-554.500,-545.000,-653.500,-611.500
1.846,-555.000,-546.000,-653.500,-612.000
1.847,-555.500,-546.000,-653.500,-611.500
1.848,-555.500,-546.000,-652.500,-610.500
1.849,-555.000,-545.000,-651.000,-609.000
1.850,-554.000,-543.000,-648.500,-606.000
1.851,-552.500,-541.000,-645.500,-602.500
1.852,-552.000,-539.500,-643.000,-600.000
1.853,-552.000,-539.000,-641.500,-598.500
1.854,-553.000,-539.500,-642.000,-599.000
1.855,-555.000,-542.000,-644.000,-601.500
1.856,-558.000,-545.500,-648.000,-606.000
1.857,-562.000,-550.000,-653.500,-612.000
1.858,-566.000,-554.500,-659.000,-617.500
1.859,-569.500,-558.500,-664.000,-623.000
1.860,-571.500,-561.500,-668.000,-626.500
1.861,-572.500,-562.500,-670.000,-628.500
1.862,-572.000,-562.500,-670.500,-629.000
1.863,-571.000,-561.500,-670.000,-628.000
1.864,-569.500,-560.000,-668.000,-626.500
1.865,-567.500,-558.000,-666.000,-624.000
1.866,-565.500,-555.500,-663.500,-621.500
1.867,-563.500,-553.000,-660.500,-618.500
1.868,-561.000,-550.000,-657.000,-615.000
1.869,-558.000,-546.500,-653.000,-611.000
1.870,-555.000,-543.000,-648.500,-606.500
1.871,-552.500,-539.000,-644.000,-601.500
1.872,-550.000,-536.000,-640.000,-597.500
1.873,-548.500,-534.000,-637.500,-595.000
1.874,-548.500,-533.500,-637.000,-594.500
1.875,-550.000,-535.000,-638.500,-596.000
1.876,-552.500,-537.500,-641.500,-599.500
1.877,-555.500,-541.500,-646.500,-604.000
1.878,-558.500,-545.500,-651.000,-609.000
1.879,-561.000,-548.500,-655.500,-613.000
1.880,-562.500,-551.000,-658.500,-616.000
1.881,-563.000,-551.500,-660.000,-617.500
1.882,-562.500,-551.500,-660.000,-617.500
1.883,-561.500,-550.500,-658.500,-616.500
1.884,-559.500,-548.500,-656.500,-614.500
1.885,-557.500,-546.500,-654.000,-612.000
1.886,-554.500,-543.500,-651.000,-609.000
1.887,-551.500,-540.500,-647.500,-605.000
1.888,-548.500,-537.000,-643.500,-601.000
1.889,-545.500,-533.000,-639.500,-596.500
1.890,-542.000,-529.000,-635.000,-591.500
1.891,-539.000,-525.500,-630.500,-587.000
1.892,-537.000,-522.500,-627.000,-583.000
1.893,-535.500,-521.000,-625.500,-581.000
1.894,-536.500,-521.000,-625.500,-581.000
1.895,-538.000,-523.000,-627.500,-583.500
1.896,-541.000,-526.500,-631.500,-587.500
1.897,-545.000,-531.000,-636.500,-592.500
1.898,-548.500,-535.500,-641.500,-598.000
1.899,-551.500,-539.500,-646.500,-603.000
1.900,-554.000,-542.000,-650.000,-606.500
1.901,-555.000,-543.500,-652.000,-608.500
1.902,-555.500,-544.000,-652.500,-609.000
1.903,-555.000,-543.500,-652.500,-609.000
1.904,-554.000,-542.500,-651.500,-607.500
1.905,-552.500,-541.000,-650.000,-606.000
1.906,-551.000,-539.000,-647.500,-603.500
1.907,-548.500,-536.000,-644.500,-601.000
1.908,-546.000,-533.000,-641.000,-597.500
1.909,-542.500,-529.000,-636.500,-593.000
1.910,-539.000,-525.000,-631.500,-588.000
1.911,-535.000,-520.500,-626.500,-582.500
1.912,-532.000,-516.500,-621.500,-577.500
1.913,-529.500,-513.500,-618.500,-574.500
1.914,-529.000,-512.500,-617.000,-573.000
1.915,-529.500,-513.500,-618.000,-574.000
1.916,-531.500,-515.500,-621.000,-577.000
1.917,-534.000,-519.000,-625.000,-581.000
1.918,-537.000,-523.000,-630.000,-586.000
1.919,-540.000,-526.500,-634.500,-590.500
1.920,-541.500,-529.000,-637.500,-593.500
1.921,-542.000,-530.000,-639.000,-595.000
1.922,-541.500,-530.000,-639.500,-595.500
1.923,-540.500,-529.000,-639.000,-595.000
1.924,-539.000,-528.000,-637.500,-593.500
1.925,-537.000,-526.000,-635.500,-591.500
1.926,-535.000,-523.500,-633.000,-589.000
1.927,-533.000,-520.500,-630.000,-586.000
1.928,-530.500,-517.500,-626.500,-582.000
1.929,-527.500,-514.000,-622.500,-578.000
1.930,-524.500,-510.500,-618.000,-573.000
1.931,-521.000,-506.500,-613.000,-568.000
1.932,-518.500,-503.000,-609.000,-563.500
1.933,-517.000,-501.000,-606.000,-561.000
1.934,-517.000,-500.500,-605.500,-560.500
1.935,-518.000,-501.500,-606.500,-562.000
1.936,-520.500,-504.000,-609.500,-565.500
1.937,-523.500,-507.500,-614.000,-570.000
1.938,-526.500,-511.500,-618.500,-574.500
1.939,-529.000,-515.000,-623.000,-579.000
1.940,-530.000,-517.000,-625.500,-582.000
1.941,-530.500,-518.000,-627.000,-583.000
1.942,-529.500,-517.500,-627.000,-583.000
1.943,-528.500,-516.500,-626.000,-582.500
1.944,-526.500,-514.500,-624.000,-580.500
1.945,-524.500,-512.500,-621.500,-578.000
1.946,-522.500,-509.500,-618.500,-575.000
1.947,-519.500,-506.500,-615.000,-571.500
1.948,-516.500,-502.500,-611.000,-567.000
1.949,-512.500,-498.500,-606.000,-561.500
1.950,-508.500,-493.500,-601.000,-555.500
1.951,-504.500,-488.500,-595.000,-550.000
1.952,-501.000,-484.500,-590.000,-545.000
1.953,-499.000,-481.500,-586.500,-541.500
1.954,-498.000,-480.000,-585.000,-540.000
1.955,-498.500,-480.000,-585.500,-540.500
1.956,-499.500,-481.500,-587.500,-542.500
1.957,-502.000,-484.500,-590.500,-546.000
1.958,-504.000,-487.500,-594.500,-550.000
1.959,-506.000,-490.000,-598.000,-553.000
1.960,-506.500,-492.000,-600.500,-555.500
1.961,-506.000,-492.500,-601.000,-556.000
1.962,-505.000,-492.000,-600.500,-555.500
1.963,-503.500,-490.000,-599.000,-554.000
1.964,-501.000,-488.000,-596.500,-551.500
1.965,-498.500,-485.000,-594.000,-548.500
1.966,-496.000,-482.000,-590.500,-545.000
1.967,-493.500,-478.500,-587.000,-541.500
1.968,-490.500,-475.000,-583.000,-537.000
1.969,-487.500,-471.000,-579.000,-532.500
1.970,-484.500,-467.000,-574.500,-527.500
1.971,-482.000,-463.500,-570.000,-523.000
1.972,-480.000,-461.000,-567.000,-519.500
1.973,-479.500,-459.500,-565.000,-518.000
1.974,-480.000,-460.500,-565.500,-518.500
1.975,-482.500,-463.000,-568.500,-521.000
1.976,-486.000,-467.000,-572.500,-525.500
1.977,-490.000,-471.500,-578.000,-531.500
1.978,-494.000,-476.500,-584.000,-537.000
1.979,-498.000,-481.000,-589.000,-542.500
1.980,-500.500,-484.500,-592.500,-546.000
1.981,-501.500,-486.000,-594.500,-548.000
1.982,-502.000,-486.500,-595.500,-548.500
1.983,-501.500,-486.500,-595.000,-548.000
1.984,-500.500,-485.000,-593.500,-546.500
1.985,-499.000,-483.500,-592.000,-544.500
1.986,-497.000,-481.000,-589.500,-542.500
1.987,-495.000,-478.500,-587.000,-539.500
1.988,-492.500,-475.500,-583.500,-536.000
1.989,-489.500,-472.000,-579.500,-531.500
1.990,-486.000,-467.500,-574.500,-526.500
1.991,-482.500,-463.000,-569.000,-521.000
1.992,-479.500,-459.500,-564.500,-516.500
1.993,-477.500,-457.000,-561.500,-513.500
1.994,-476.500,-456.000,-560.500,-512.000
1.995,-477.500,-456.500,-561.500,-513.000
1.996,-479.500,-459.000,-564.500,-516.000
1.997,-482.000,-462.000,-568.500,-520.500
1.998,-484.500,-466.000,-573.000,-525.000
1.999,-487.000,-469.000,-576.500,-529.000
2.000,-488.000,-471.000,-579.000,-531.500
2.001,-488.000,-472.000,-580.500,-533.000
2.002,-487.500,-471.500,-580.000,-533.000
2.003,-486.000,-470.000,-579.000,-532.000
2.004,-484.500,-468.500,-577.500,-530.000
2.005,-482.500,-466.500,-575.000,-528.000
2.006,-480.000,-464.000,-572.500,-525.000
2.007,-477.500,-461.500,-569.500,-521.500
2.008,-474.500,-458.000,-565.500,-517.500
2.009,-471.500,-454.000,-560.500,-512.500
2.010,-467.500,-449.500,-555.000,-506.500
2.011,-463.500,-444.500,-549.500,-500.500
2.012,-460.000,-440.000,-544.500,-495.500
2.013,-457.500,-436.500,-541.500,-491.500
2.014,-456.500,-435.500,-540.000,-490.000
2.015,-457.000,-436.500,-540.500,-491.000
2.016,-459.000,-439.000,-543.500,-494.000
2.017,-462.000,-442.500,-547.500,-498.500
2.018,-464.500,-446.000,-552.000,-503.500
2.019,-467.000,-449.500,-556.500,-508.000
2.020,-469.000,-451.500,-559.500,-511.500
2.021,-469.500,-453.000,-562.000,-514.000
2.022,-470.000,-454.000,-563.000,-515.500
2.023,-470.000,-454.500,-563.500,-516.000
2.024,-469.500,-454.500,-564.000,-516.500
2.025,-469.000,-454.000,-563.500,-516.500
2.026,-468.500,-453.500,-563.000,-516.000
2.027,-467.500,-452.000,-561.000,-514.500
2.028,-466.000,-450.500,-559.000,-511.500
2.029,-464.000,-447.500,-555.000,-508.000
2.030,-461.500,-444.000,-550.500,-503.000
2.031,-459.000,-440.000,-545.500,-497.500
2.032,-456.500,-436.500,-541.500,-492.500
2.033,-455.500,-434.500,-538.500,-489.500
2.034,-455.500,-433.500,-537.500,-488.000
2.035,-456.500,-435.000,-538.500,-489.000
2.036,-459.000,-437.500,-541.500,-491.500
2.037,-462.000,-441.000,-546.000,-496.000
2.038,-465.000,-445.000,-551.000,-500.500
2.039,-468.000,-448.500,-555.000,-505.000
2.040,-470.000,-450.500,-558.500,-508.000
2.041,-471.000,-452.000,-560.000,-510.000
2.042,-471.000,-452.500,-560.500,-511.000
2.043,-470.500,-452.000,-560.000,-510.500
2.044,-469.500,-451.000,-559.000,-510.000
2.045,-468.000,-449.500,-557.500,-508.500
2.046,-466.500,-448.000,-556.000,-507.000
2.047,-465.000,-446.000,-554.000,-504.500
2.048,-463.000,-444.000,-551.500,-502.000
2.049,-460.000,-440.500,-548.000,-498.000
2.050,-457.500,-437.500,-544.000,-494.000
2.051,-454.500,-434.000,-539.500,-489.500
2.052,-452.500,-431.000,-536.500,-486.000
2.053,-451.500,-430.000,-534.500,-484.000
2.054,-452.000,-430.500,-535.000,-484.000
2.055,-454.000,-432.500,-537.000,-486.500
2.056,-457.500,-436.500,-541.000,-491.000
2.057,-461.500,-441.000,-546.500,-496.500
2.058,-466.000,-446.000,-552.500,-502.500
2.059,-469.500,-450.500,-557.500,-507.500
2.060,-472.500,-454.000,-561.500,-512.000
2.061,-474.000,-456.000,-564.000,-514.500
2.062,-474.500,-456.500,-565.500,-515.500
2.063,-474.000,-456.500,-565.000,-515.000
2.064,-472.500,-455.000,-564.000,-514.000
2.065,-471.000,-453.500,-562.500,-512.000
2.066,-469.000,-451.000,-560.000,-509.500
2.067,-466.500,-448.500,-557.000,-506.000
2.068,-464.000,-445.000,-553.000,-502.000
2.069,-461.000,-441.500,-549.000,-498.000
2.070,-458.000,-438.000,-544.500,-493.000
2.071,-455.500,-434.000,-540.000,-488.500
2.072,-453.000,-431.000,-536.500,-484.500
2.073,-452.000,-429.000,-534.500,-482.500
2.074,-452.500,-429.500,-534.500,-482.500
2.075,-454.500,-431.000,-536.500,-484.500
2.076,-457.500,-434.500,-540.500,-488.500
2.077,-461.000,-439.000,-545.500,-494.000
2.078,-464.500,-443.500,-551.000,-499.500
2.079,-467.500,-447.500,-555.500,-504.000
2.080,-469.000,-450.500,-559.000,-507.500
2.081,-470.000,-452.000,-561.000,-510.000
2.082,-470.000,-452.000,-561.500,-510.500
2.083,-469.500,-452.000,-561.500,-510.000
2.084,-468.500,-451.000,-560.500,-509.000
2.085,-467.500,-449.500,-559.000,-507.500
2.086,-466.500,-448.000,-557.500,-505.500
2.087,-465.500,-446.500,-555.500,-503.500
2.088,-464.000,-445.000,-553.000,-501.000
2.089,-462.500,-442.500,-550.000,-498.000
2.090,-461.000,-440.000,-547.000,-494.500
2.091,-459.000,-437.500,-543.500,-491.000
2.092,-458.000,-435.500,-541.000,-488.500
2.093,-458.000,-435.000,-540.000,-487.500
2.094,-459.500,-436.000,-541.000,-488.500
2.095,-462.000,-438.500,-543.500,-491.500
2.096,-465.500,-443.000,-548.500,-496.500
2.097,-470.000,-447.500,-554.000,-502.000
2.098,-474.000,-453.000,-560.000,-508.000
2.099,-477.500,-457.000,-565.000,-513.500
2.100,-480.000,-460.500,-568.500,-517.000
2.101,-481.000,-462.000,-570.500,-519.500
2.102,-481.500,-462.500,-571.500,-520.000
2.103,-481.000,-462.000,-571.000,-520.000
2.104,-480.000,-461.000,-570.500,-519.500
2.105,-479.000,-460.000,-569.500,-518.500
2.106,-478.000,-459.000,-568.500,-517.000
2.107,-477.000,-458.000,-567.000,-515.500
2.108,-476.000,-456.500,-565.000,-513.000
2.109,-474.500,-455.000,-562.500,-510.500
2.110,-473.000,-452.500,-559.500,-507.000
2.111,-471.500,-450.500,-556.500,-503.500
2.112,-470.500,-448.500,-554.000,-500.500
2.113,-470.000,-447.500,-552.500,-499.500
2.114,-471.000,-448.500,-553.000,-500.000
2.115,-473.000,-450.500,-555.000,-502.000
2.116,-476.500,-453.500,-559.000,-506.500
2.117,-480.000,-458.000,-564.000,-512.000
2.118,-484.000,-462.500,-569.500,-517.500
2.119,-487.000,-466.500,-574.500,-523.000
2.120,-489.000,-469.500,-578.500,-527.000
2.121,-490.000,-471.000,-580.500,-529.000
2.122,-490.000,-471.000,-581.000,-529.500
2.123,-489.500,-471.000,-580.500,-529.500
2.124,-488.500,-470.000,-580.000,-528.500
2.125,-487.500,-469.000,-579.000,-527.500
2.126,-486.500,-467.500,-578.000,-526.000
2.127,-485.000,-466.000,-576.000,-524.000
2.128,-484.000,-464.000,-574.000,-521.500
2.129,-482.000,-461.500,-570.500,-518.500
2.130,-479.500,-458.500,-567.000,-514.000
2.131,-477.000,-455.500,-563.000,-510.000
2.132,-475.500,-452.500,-559.500,-506.500
2.133,-474.500,-451.500,-557.500,-504.500
2.134,-475.500,-451.500,-557.500,-504.500
2.135,-477.000,-453.500,-560.000,-507.000
2.136,-480.000,-457.000,-563.500,-510.500
2.137,-483.500,-461.500,-568.500,-515.500
2.138,-487.500,-466.000,-574.000,-521.000
2.139,-490.500,-470.000,-579.000,-526.000
2.140,-493.000,-473.500,-582.500,-530.000
2.141,-494.500,-475.000,-585.000,-532.500
2.142,-495.000,-476.000,-585.500,-533.500
2.143,-495.000,-475.500,-585.500,-533.500
2.144,-494.000,-475.000,-585.000,-533.000
2.145,-493.000,-474.000,-584.000,-532.000
2.146,-491.500,-472.500,-582.000,-530.500
2.147,-490.000,-470.500,-580.000,-528.000
2.148,-488.000,-468.000,-577.000,-525.000
2.149,-485.500,-465.000,-573.500,-521.500
2.150,-482.500,-461.500,-569.500,-516.500
2.151,-480.000,-457.500,-565.000,-512.000
2.152,-477.500,-454.500,-561.000,-508.000
2.153,-476.500,-452.500,-558.500,-505.500
2.154,-476.500,-452.000,-558.500,-505.000
2.155,-478.500,-454.000,-560.000,-507.500
2.156,-481.500,-457.500,-564.000,-511.500
2.157,-485.000,-462.000,-569.000,-516.500
2.158,-489.000,-466.500,-574.500,-522.500
2.159,-492.000,-470.500,-579.500,-527.500
2.160,-494.500,-473.500,-583.000,-531.500
2.161,-495.500,-475.500,-585.500,-534.000
2.162,-496.000,-476.000,-586.000,-535.000
2.163,-495.500,-475.500,-586.000,-534.500
2.164,-494.500,-474.500,-585.000,-533.500
2.165,-493.000,-473.500,-584.000,-532.000
2.166,-492.000,-471.500,-582.500,-530.000
2.167,-490.500,-469.500,-580.000,-528.000
2.168,-488.500,-467.000,-577.500,-525.000
2.169,-486.500,-464.000,-574.000,-521.500
2.170,-484.000,-460.500,-570.500,-517.500
2.171,-481.500,-457.000,-566.000,-513.500
2.172,-479.500,-454.500,-562.500,-509.500
2.173,-478.500,-453.000,-560.500,-507.500
2.174,-479.000,-453.500,-560.500,-507.500
2.175,-481.000,-455.500,-562.500,-509.500
2.176,-484.000,-459.000,-566.500,-514.000
2.177,-488.000,-463.500,-571.500,-519.000
2.178,-492.000,-468.500,-577.500,-525.000
2.179,-495.500,-472.500,-582.500,-530.500
2.180,-498.000,-476.000,-586.500,-534.500
2.181,-499.500,-478.000,-589.000,-537.000
2.182,-500.500,-479.000,-590.000,-538.500
2.183,-500.500,-479.000,-590.500,-538.500
2.184,-500.000,-478.000,-590.000,-537.500
2.185,-498.500,-476.500,-588.500,-536.000
2.186,-497.000,-475.000,-586.500,-533.500
2.187,-495.000,-472.500,-584.000,-530.500
2.188,-492.500,-469.500,-580.500,-527.500
2.189,-490.000,-466.500,-577.000,-523.500
2.190,-487.500,-463.000,-572.500,-519.000
2.191,-485.000,-459.500,-568.500,-514.500
2.192,-483.000,-456.500,-565.000,-510.500
2.193,-482.500,-454.500,-562.500,-508.500
2.194,-482.500,-454.500,-562.500,-508.000
2.195,-484.500,-456.500,-564.500,-510.000
2.196,-487.000,-459.500,-568.000,-513.500
2.197,-490.500,-463.500,-573.000,-518.500
2.198,-494.000,-468.000,-578.000,-524.000
2.199,-497.000,-472.000,-583.000,-529.500
2.200,-499.000,-474.500,-586.500,-533.000
2.201,-500.000,-476.000,-588.500,-535.000
2.202,-500.000,-476.500,-589.000,-536.000
2.203,-499.500,-476.000,-589.000,-535.500
2.204,-498.500,-474.500,-588.000,-534.500
2.205,-496.500,-473.000,-586.500,-533.000
2.206,-494.500,-470.500,-584.000,-530.000
2.207,-491.500,-467.500,-580.500,-526.500
2.208,-488.000,-463.500,-576.500,-522.000
2.209,-484.500,-459.500,-571.500,-517.500
2.210,-480.500,-455.000,-566.500,-512.000
2.211,-477.000,-450.500,-561.000,-506.500
2.212,-474.000,-446.500,-556.500,-501.500
2.213,-472.500,-444.500,-554.000,-499.000
2.214,-473.000,-444.000,-553.500,-498.500
2.215,-474.000,-445.000,-554.500,-500.000
2.216,-476.500,-448.000,-558.000,-503.000
2.217,-479.500,-451.500,-562.000,-507.500
2.218,-482.000,-455.000,-566.500,-512.000
2.219,-484.000,-458.000,-570.000,-516.000
2.220,-485.500,-460.000,-573.000,-518.500
2.221,-485.500,-461.000,-574.000,-519.500
2.222,-485.500,-460.500,-574.500,-519.500
2.223,-484.500,-459.500,-573.500,-518.500
2.224,-483.500,-458.500,-572.500,-517.000
2.225,-482.000,-457.000,-571.000,-515.500
2.226,-481.000,-455.500,-569.500,-513.500
2.227,-479.500,-454.000,-567.500,-511.500
2.228,-478.000,-452.000,-565.000,-509.000
2.229,-476.000,-449.000,-562.000,-505.500
2.230,-473.500,-446.000,-558.000,-502.000
2.231,-471.000,-443.000,-554.500,-498.000
2.232,-469.500,-440.500,-551.000,-495.000
2.233,-469.000,-439.500,-549.500,-493.500
2.234,-470.000,-440.000,-550.000,-494.000
2.235,-473.000,-443.000,-552.500,-496.500
2.236,-476.500,-447.000,-557.000,-501.500
2.237,-481.500,-452.500,-563.000,-507.500
2.238,-486.000,-458.000,-569.500,-514.000
2.239,-490.000,-462.500,-575.500,-520.000
2.240,-493.500,-466.500,-580.000,-525.000
2.241,-496.000,-469.000,-583.000,-528.000
2.242,-497.000,-470.500,-584.500,-529.500
2.243,-497.500,-470.500,-585.000,-530.000
2.244,-497.500,-470.500,-585.000,-530.000
2.245,-496.500,-469.500,-584.000,-529.000
2.246,-495.500,-468.000,-582.000,-527.000
2.247,-493.500,-465.500,-579.000,-524.000
2.248,-491.000,-462.500,-576.000,-521.000
2.249,-488.500,-459.500,-572.000,-517.000
2.250,-485.500,-455.500,-567.500,-512.500
2.251,-482.500,-452.000,-563.000,-508.000
2.252,-480.500,-449.000,-559.000,-504.500
2.253,-479.500,-447.500,-557.000,-502.500
2.254,-480.000,-447.500,-557.000,-502.500
2.255,-482.000,-449.500,-559.500,-504.500
2.256,-485.000,-453.000,-563.500,-508.500
2.257,-488.500,-457.500,-568.500,-514.000
2.258,-492.500,-462.500,-574.000,-519.500
2.259,-496.000,-466.500,-579.000,-525.000
2.260,-498.500,-469.500,-582.500,-528.500
2.261,-499.500,-471.500,-584.500,-531.000
2.262,-500.000,-472.000,-585.500,-531.500
2.263,-499.500,-471.500,-585.500,-531.500
2.264,-498.500,-471.000,-585.000,-530.500
2.265,-497.500,-469.500,-583.500,-529.000
2.266,-496.500,-468.000,-582.000,-527.500
2.267,-495.000,-466.500,-580.000,-525.000
2.268,-493.000,-464.000,-577.000,-522.000
2.269,-491.000,-461.000,-573.500,-518.500
2.270,-488.000,-457.500,-569.500,-514.000
2.271,-485.000,-454.000,-565.000,-509.500
2.272,-483.000,-450.500,-561.000,-505.500
2.273,-481.500,-449.000,-558.500,-503.000
2.274,-481.500,-448.500,-558.500,-503.000
2.275,-483.000,-450.000,-560.000,-505.000
2.276,-485.500,-453.000,-563.500,-508.500
2.277,-489.000,-456.500,-568.000,-513.500
2.278,-492.500,-461.000,-573.500,-518.500
2.279,-495.500,-465.000,-578.500,-523.500
2.280,-497.500,-468.000,-582.000,-527.500
2.281,-499.000,-469.500,-584.500,-529.500
2.282,-499.000,-470.000,-585.500,-530.500
2.283,-499.000,-470.000,-585.500,-530.500
2.284,-499.000,-469.500,-585.000,-530.000
2.285,-498.000,-468.500,-584.500,-529.000
2.286,-497.500,-467.500,-583.000,-527.500
2.287,-496.000,-465.500,-581.000,-525.500
2.288,-494.500,-463.500,-578.500,-523.000
2.289,-492.500,-461.000,-575.500,-519.500
2.290,-490.500,-457.500,-572.000,-515.500
2.291,-488.000,-454.500,-568.000,-511.500
2.292,-486.000,-451.500,-564.500,-508.000
2.293,-485.000,-450.000,-562.500,-506.000
2.294,-485.500,-450.500,-562.500,-506.000
2.295,-487.500,-452.500,-564.500,-508.000
2.296,-490.500,-456.000,-568.500,-512.500
2.297,-494.500,-460.500,-574.000,-518.000
2.298,-498.500,-465.500,-580.000,-524.000
2.299,-502.000,-470.000,-585.000,-529.000
2.300,-504.500,-473.000,-589.000,-533.000
2.301,-506.000,-475.000,-591.500,-535.500
2.302,-506.500,-475.500,-592.500,-536.500
2.303,-506.500,-475.500,-593.000,-536.500
2.304,-506.000,-474.500,-592.500,-536.000
2.305,-505.000,-473.500,-591.000,-535.000
2.306,-504.000,-472.500,-589.500,-533.500
2.307,-503.000,-470.500,-587.500,-532.000
2.308,-501.500,-468.500,-585.500,-529.500
2.309,-500.500,-466.500,-583.000,-527.000
2.310,-499.000,-464.000,-580.000,-523.500
2.311,-497.500,-461.500,-577.000,-520.000
2.312,-496.000,-459.500,-574.000,-517.500
2.313,-496.000,-459.000,-573.000,-516.000
2.314,-497.000,-459.500,-573.000,-516.000
2.315,-499.000,-461.500,-575.000,-518.000
2.316,-502.000,-464.500,-578.500,-522.000
2.317,-505.500,-468.500,-583.500,-527.500
2.318,-509.500,-473.500,-589.500,-533.000
2.319,-513.000,-478.000,-594.500,-538.500
2.320,-516.000,-481.500,-599.000,-543.000
2.321,-518.000,-483.500,-601.500,-546.000
2.322,-519.000,-485.000,-603.500,-547.500
2.323,-519.000,-485.000,-603.500,-547.500
2.324,-518.500,-484.500,-603.500,-547.000
2.325,-518.000,-483.500,-602.500,-545.500
2.326,-517.000,-482.000,-601.000,-544.000
2.327,-515.500,-480.500,-598.500,-542.000
2.328,-514.000,-478.000,-596.000,-539.500
2.329,-512.000,-475.500,-593.000,-536.000
2.330,-509.500,-472.000,-589.000,-532.000
2.331,-507.000,-468.500,-585.000,-527.500
2.332,-504.500,-465.500,-581.000,-524.000
2.333,-503.000,-463.500,-578.500,-521.500
2.334,-502.500,-462.500,-577.500,-520.500
2.335,-503.500,-463.500,-578.500,-522.000
2.336,-505.500,-466.000,-581.500,-525.000
2.337,-508.500,-470.000,-586.000,-529.500
2.338,-511.500,-474.000,-590.500,-534.500
2.339,-514.000,-477.500,-595.000,-539.000
2.340,-515.500,-480.000,-598.000,-542.500
2.341,-516.500,-481.000,-599.500,-544.000
2.342,-516.500,-481.500,-600.000,-544.500
2.343,-515.500,-481.000,-599.500,-544.500
2.344,-515.000,-480.000,-599.000,-543.500
2.345,-513.500,-478.500,-597.500,-542.000
2.346,-512.000,-477.000,-595.500,-540.000
2.347,-510.000,-474.500,-593.000,-537.000
2.348,-507.500,-471.500,-589.500,-533.500
2.349,-505.000,-468.000,-585.500,-529.500
2.350,-502.000,-464.500,-581.000,-525.000
2.351,-499.000,-460.500,-576.500,-520.000
2.352,-496.500,-457.000,-572.500,-516.000
2.353,-495.000,-455.000,-569.500,-513.000
2.354,-494.500,-454.500,-568.500,-512.000
2.355,-495.500,-455.500,-569.500,-513.000
2.356,-497.500,-457.500,-572.000,-516.000
2.357,-500.000,-461.000,-576.000,-520.000
2.358,-502.500,-464.000,-581.000,-524.500
2.359,-505.000,-467.000,-585.000,-528.500
2.360,-506.000,-469.000,-587.500,-531.500
2.361,-506.500,-470.000,-589.000,-533.000
2.362,-506.000,-470.000,-589.000,-533.000
2.363,-505.000,-469.500,-587.500,-532.500
2.364,-503.000,-468.000,-586.000,-531.000
2.365,-501.000,-466.000,-584.000,-529.000
2.366,-499.000,-463.500,-581.500,-526.500
2.367,-496.500,-461.000,-579.000,-523.500
2.368,-494.000,-458.500,-575.500,-519.500
2.369,-491.000,-455.000,-571.500,-515.500
2.370,-488.000,-451.500,-567.000,-511.000
2.371,-485.000,-447.000,-562.000,-506.000
2.372,-482.500,-443.500,-558.000,-502.000
2.373,-481.000,-441.500,-555.500,-499.000
2.374,-481.000,-441.000,-554.500,-498.500
2.375,-482.000,-442.500,-556.000,-500.000
2.376,-484.500,-445.500,-559.000,-503.500
2.377,-488.000,-449.500,-564.000,-508.500
2.378,-492.000,-454.000,-569.500,-514.500
2.379,-495.000,-458.500,-574.500,-520.000
2.380,-498.000,-462.000,-578.500,-524.500
2.381,-499.500,-464.000,-581.000,-527.500
2.382,-500.500,-465.000,-582.500,-529.000
2.383,-501.000,-466.000,-583.500,-530.000
2.384,-501.500,-466.000,-584.000,-530.500
2.385,-502.000,-466.500,-584.500,-531.000
2.386,-502.500,-467.000,-584.500,-531.000
2.387,-502.500,-467.000,-584.500,-531.000
2.388,-502.500,-466.500,-584.000,-530.500
2.389,-501.500,-465.500,-582.500,-529.000
2.390,-500.500,-463.500,-580.000,-526.500
2.391,-499.000,-461.500,-577.500,-523.500
2.392,-497.500,-459.500,-574.500,-520.500
2.393,-497.000,-458.000,-573.000,-518.500
2.394,-498.000,-458.500,-573.000,-518.500
2.395,-500.000,-460.500,-574.500,-520.000
2.396,-503.000,-463.500,-578.000,-523.000
2.397,-506.500,-467.500,-582.500,-527.500
2.398,-510.500,-472.000,-587.500,-532.500
2.399,-513.500,-475.500,-592.000,-537.000
2.400,-515.500,-478.000,-595.000,-540.000
2.401,-516.500,-479.500,-596.500,-541.500
2.402,-516.500,-479.500,-597.000,-542.000
2.403,-515.500,-478.500,-596.500,-541.000
2.404,-514.500,-477.500,-595.000,-539.500
2.405,-513.000,-476.000,-593.500,-537.500
2.406,-511.500,-474.000,-591.000,-535.500
2.407,-510.000,-471.500,-589.000,-533.000
2.408,-507.500,-469.000,-586.000,-530.000
2.409,-505.500,-466.500,-582.500,-526.500
2.410,-502.500,-463.000,-578.500,-522.500
2.411,-500.000,-460.000,-575.000,-518.500
2.412,-498.000,-457.000,-571.500,-515.000
2.413,-497.500,-455.500,-569.500,-513.000
2.414,-497.500,-455.500,-569.500,-513.000
2.415,-499.000,-457.000,-571.000,-515.000
2.416,-501.500,-460.000,-574.500,-518.500
2.417,-504.500,-464.000,-579.000,-523.500
2.418,-507.500,-468.000,-583.500,-528.500
2.419,-510.000,-471.500,-588.000,-533.000
2.420,-512.000,-474.000,-591.000,-536.000
2.421,-512.500,-475.000,-592.500,-537.500
2.422,-512.000,-475.000,-592.500,-537.500
2.423,-510.500,-473.500,-591.500,-536.500
2.424,-509.000,-472.000,-590.000,-535.000
2.425,-506.500,-469.500,-587.500,-532.500
2.426,-504.500,-467.000,-584.500,-529.500
2.427,-501.500,-464.000,-581.000,-525.500
2.428,-499.000,-460.500,-577.500,-521.500
2.429,-495.500,-456.500,-573.000,-517.000
2.430,-492.000,-452.000,-568.000,-512.000
2.431,-488.500,-447.500,-563.000,-507.000
2.432,-486.000,-444.000,-558.500,-502.500
2.433,-484.500,-441.500,-556.000,-499.500
2.434,-484.000,-441.000,-555.000,-498.500
2.435,-484.500,-441.500,-555.500,-499.000
2.436,-486.500,-443.500,-558.000,-502.000
2.437,-488.500,-447.000,-562.000,-506.000
2.438,-491.000,-450.000,-566.000,-510.500
2.439,-493.000,-453.000,-569.500,-514.000
2.440,-494.000,-455.000,-571.500,-516.500
2.441,-494.000,-455.500,-573.000,-518.000
2.442,-493.500,-455.500,-573.000,-518.000
2.443,-492.000,-454.000,-571.500,-517.000
2.444,-490.500,-452.000,-570.000,-515.000
2.445,-488.000,-450.000,-568.000,-512.500
2.446,-486.000,-447.500,-565.500,-510.000
2.447,-483.500,-445.000,-562.500,-506.500
2.448,-481.000,-442.000,-559.000,-503.500
2.449,-478.500,-439.000,-555.000,-499.500
2.450,-475.500,-435.000,-550.500,-495.000
2.451,-472.500,-431.000,-546.000,-490.000
2.452,-470.000,-428.000,-542.000,-486.000
2.453,-469.000,-425.500,-539.500,-483.500
2.454,-469.000,-425.500,-539.500,-483.000
2.455,-470.500,-426.500,-541.000,-484.500
2.456,-473.000,-429.500,-544.500,-488.000
2.457,-476.500,-433.500,-549.000,-492.500
2.458,-480.000,-438.000,-554.000,-497.500
2.459,-483.000,-441.500,-558.500,-502.000
2.460,-485.000,-444.500,-562.000,-505.500
2.461,-486.000,-446.000,-563.500,-507.500
2.462,-486.500,-446.500,-564.500,-508.500
2.463,-486.500,-446.500,-564.500,-508.500
2.464,-486.000,-446.000,-564.500,-508.000
2.465,-485.500,-445.500,-563.500,-507.500
2.466,-485.000,-445.000,-562.500,-506.000
2.467,-484.000,-443.500,-560.500,-504.500
2.468,-482.500,-441.500,-558.000,-502.000
2.469,-480.000,-438.500,-554.500,-498.000
2.470,-477.000,-435.000,-550.000,-493.500
2.471,-474.000,-431.000,-545.500,-488.500
2.472,-471.500,-428.000,-541.500,-484.500
2.473,-470.000,-425.500,-538.500,-481.500
2.474,-470.500,-425.000,-538.000,-481.000
2.475,-472.000,-426.500,-539.500,-482.500
2.476,-475.000,-429.500,-543.000,-486.500
2.477,-478.500,-433.500,-548.000,-491.500
2.478,-482.000,-438.000,-553.000,-497.000
2.479,-485.000,-441.500,-558.000,-502.000
2.480,-487.000,-444.500,-561.500,-505.500
2.481,-488.000,-446.000,-563.500,-507.500
2.482,-488.000,-446.500,-564.500,-508.500
2.483,-487.500,-445.500,-564.000,-508.000
2.484,-486.500,-444.500,-563.000,-507.000
2.485,-485.500,-443.500,-561.500,-505.500
2.486,-484.000,-442.000,-560.000,-503.500
2.487,-482.500,-440.000,-557.500,-501.000
2.488,-480.500,-437.500,-554.500,-497.500
2.489,-478.000,-434.000,-550.500,-493.500
2.490,-475.000,-430.500,-546.000,-489.000
2.491,-471.500,-426.000,-541.000,-484.000
2.492,-468.500,-422.500,-537.000,-479.500
2.493,-467.000,-420.000,-534.000,-476.500
2.494,-466.500,-419.500,-533.000,-475.500
2.495,-468.000,-420.500,-534.000,-477.000
2.496,-470.000,-423.500,-537.000,-480.000
2.497,-473.500,-427.000,-541.500,-485.000
2.498,-477.000,-431.500,-546.500,-490.000
2.499,-480.500,-435.000,-551.500,-495.500
2.500,-482.500,-438.000,-555.500,-499.000
2.501,-483.500,-440.000,-557.500,-501.500
2.502,-483.500,-440.000,-558.500,-502.000
2.503,-482.500,-439.500,-558.000,-501.500
2.504,-481.000,-438.000,-556.500,-500.000
2.505,-479.000,-436.000,-554.500,-498.000
2.506,-477.000,-433.500,-551.500,-495.000
2.507,-474.000,-430.500,-547.500,-491.500
2.508,-471.000,-426.500,-543.500,-487.000
2.509,-467.500,-422.500,-539.000,-482.000
2.510,-463.500,-417.500,-534.000,-476.500
2.511,-459.500,-413.000,-528.500,-471.000
2.512,-456.000,-408.500,-524.000,-466.000
2.513,-454.000,-405.500,-520.500,-463.000
2.514,-453.500,-404.500,-519.000,-461.500
2.515,-454.000,-405.500,-520.000,-463.000
2.516,-456.500,-408.000,-523.000,-466.000
2.517,-459.000,-411.500,-527.500,-470.500
2.518,-462.500,-415.500,-532.000,-475.500
2.519,-465.500,-419.000,-536.500,-480.000
2.520,-467.000,-422.000,-540.000,-483.500
2.521,-468.000,-423.000,-542.000,-485.500
2.522,-468.000,-423.500,-542.500,-486.000
2.523,-468.000,-423.500,-542.500,-486.000
2.524,-467.000,-422.500,-541.500,-485.500
2.525,-466.000,-421.500,-540.500,-484.000
2.526,-465.000,-419.500,-538.500,-482.500
2.527,-463.000,-417.500,-536.500,-480.000
2.528,-460.500,-414.500,-533.000,-477.000
2.529,-458.000,-411.000,-529.500,-473.000
2.530,-455.000,-407.000,-524.500,-468.500
2.531,-452.000,-403.500,-520.000,-464.000
2.532,-449.500,-400.000,-516.000,-460.000
2.533,-448.500,-398.000,-513.500,-457.500
2.534,-448.500,-397.500,-513.000,-457.000
2.535,-449.500,-399.000,-514.500,-458.500
2.536,-452.000,-401.500,-518.000,-462.000
2.537,-455.000,-405.500,-523.000,-467.000
2.538,-458.000,-409.500,-527.500,-472.000
2.539,-461.000,-413.000,-532.000,-476.500
2.540,-462.500,-415.500,-535.000,-479.500
2.541,-463.500,-416.500,-536.500,-481.000
2.542,-463.000,-416.500,-536.500,-481.000
2.543,-462.000,-415.000,-536.000,-480.000
2.544,-460.500,-413.500,-534.500,-478.000
2.545,-458.500,-411.500,-532.500,-476.000
2.546,-456.500,-409.500,-530.000,-473.500
2.547,-454.000,-406.500,-527.000,-470.500
2.548,-451.500,-403.500,-523.500,-467.000
2.549,-448.500,-400.000,-519.500,-463.000
2.550,-445.500,-395.500,-515.000,-458.000
2.551,-442.000,-391.500,-510.500,-453.000
2.552,-439.500,-388.000,-506.000,-448.500
2.553,-437.000,-385.000,-502.500,-445.500
2.554,-436.500,-384.000,-501.500,-444.000
2.555,-437.000,-384.500,-502.000,-445.000
2.556,-438.500,-386.500,-504.500,-447.500
2.557,-440.500,-389.500,-508.000,-451.000
2.558,-442.500,-392.500,-511.500,-455.000
2.559,-444.500,-395.000,-515.000,-458.500
2.560,-445.500,-396.500,-517.500,-461.000
2.561,-445.500,-397.000,-518.000,-462.000
2.562,-444.500,-396.500,-518.000,-461.500
2.563,-443.000,-395.000,-516.500,-460.500
2.564,-441.000,-393.500,-515.000,-458.500
2.565,-439.500,-391.500,-513.500,-457.000
2.566,-437.500,-389.500,-511.000,-454.500
2.567,-435.500,-387.000,-508.500,-452.000
2.568,-433.000,-384.000,-505.500,-448.500
2.569,-430.500,-381.000,-502.000,-444.500
2.570,-427.500,-377.000,-497.500,-440.000
2.571,-425.000,-373.500,-493.000,-435.500
2.572,-423.000,-370.000,-489.500,-431.500
2.573,-422.000,-368.500,-487.000,-429.000
2.574,-422.000,-368.500,-487.000,-429.000
2.575,-424.000,-370.000,-488.500,-431.000
2.576,-426.500,-373.500,-492.500,-434.500
2.577,-430.500,-378.000,-497.500,-440.000
2.578,-434.500,-383.000,-503.000,-446.000
2.579,-438.000,-387.000,-508.500,-451.000
2.580,-440.500,-390.500,-512.500,-455.000
2.581,-442.000,-392.500,-514.500,-457.500
2.582,-442.000,-393.000,-515.500,-458.000
2.583,-441.500,-393.000,-515.500,-458.000
2.584,-441.000,-392.000,-514.500,-457.000
2.585,-440.000,-391.000,-513.000,-455.500
2.586,-439.000,-390.000,-511.500,-453.500
2.587,-437.500,-388.000,-509.500,-451.000
2.588,-435.500,-385.500,-506.500,-448.000
2.589,-433.500,-382.500,-503.000,-444.000
2.590,-430.500,-379.000,-498.500,-439.000
2.591,-428.000,-375.000,-493.500,-434.000
2.592,-425.500,-372.000,-489.500,-429.000
2.593,-424.500,-370.500,-487.000,-426.500
2.594,-425.500,-370.500,-486.500,-426.000
2.595,-427.500,-372.500,-488.000,-427.500
2.596,-430.500,-376.000,-491.500,-430.500
2.597,-434.000,-379.500,-495.500,-434.500
2.598,-437.000,-383.500,-500.000,-438.500
2.599,-439.500,-386.500,-503.500,-441.500
2.600,-440.500,-388.000,-505.000,-443.000
2.601,-440.500,-387.500,-505.500,-443.000
2.602,-439.000,-386.000,-504.000,-441.000
2.603,-436.000,-383.500,-501.000,-437.500
2.604,-432.500,-379.500,-496.500,-433.000
2.605,-428.500,-375.000,-491.500,-427.500
2.606,-423.500,-370.000,-486.000,-421.500
2.607,-419.000,-365.000,-480.000,-415.500
2.608,-414.500,-359.500,-474.500,-409.000
2.609,-410.000,-354.500,-468.000,-402.500
2.610,-405.500,-349.000,-462.000,-396.000
2.611,-401.000,-343.500,-455.500,-390.000
2.612,-397.500,-339.000,-450.500,-384.500
2.613,-395.000,-336.000,-446.500,-381.000
2.614,-393.500,-334.000,-445.000,-380.000
2.615,-393.500,-334.500,-446.000,-381.000
2.616,-395.000,-336.500,-448.500,-384.500
2.617,-396.500,-339.000,-452.500,-389.000
2.618,-398.500,-342.500,-457.000,-394.500
2.619,-400.500,-346.000,-461.500,-400.000
2.620,-402.000,-348.500,-465.500,-405.000
2.621,-403.000,-350.500,-468.500,-409.500
2.622,-404.000,-352.000,-471.000,-412.500
2.623,-404.500,-353.000,-473.000,-415.500
2.624,-405.000,-354.000,-474.500,-417.500
2.625,-406.000,-355.500,-475.500,-419.500
2.626,-406.500,-356.500,-476.500,-421.000
2.627,-407.000,-357.500,-477.500,-422.000
2.628,-407.500,-357.500,-477.000,-422.000
2.629,-407.000,-357.500,-476.000,-421.000
2.630,-406.500,-356.000,-474.500,-419.000
2.631,-406.000,-354.500,-472.000,-416.500
2.632,-405.500,-353.000,-470.000,-414.500
2.633,-406.000,-353.000,-469.500,-413.500
2.634,-408.000,-354.500,-470.500,-415.000
2.635,-411.500,-358.000,-474.000,-418.500
2.636,-416.500,-363.500,-479.500,-424.000
2.637,-421.500,-369.500,-486.500,-431.000
2.638,-427.000,-376.000,-494.000,-438.000
2.639,-432.000,-381.500,-500.500,-444.500
2.640,-436.000,-386.500,-506.000,-450.000
2.641,-439.000,-389.500,-510.000,-454.000
2.642,-440.500,-391.500,-512.500,-456.500
2.643,-441.500,-392.500,-513.500,-457.500
2.644,-441.500,-392.500,-513.500,-457.500
2.645,-440.500,-391.500,-512.500,-456.500
2.646,-439.000,-390.000,-510.500,-455.000
2.647,-437.500,-388.000,-508.000,-452.500
2.648,-435.000,-385.500,-505.000,-449.000
2.649,-432.500,-382.000,-501.000,-445.500
2.650,-429.500,-378.500,-496.500,-441.000
2.651,-426.500,-375.000,-492.000,-436.500
2.652,-424.500,-372.000,-488.000,-432.500
2.653,-423.500,-370.000,-486.000,-430.000
2.654,-423.500,-370.000,-485.500,-430.000
2.655,-425.500,-371.500,-487.500,-431.500
2.656,-428.000,-375.000,-491.000,-435.500
2.657,-431.500,-379.000,-496.000,-440.500
2.658,-435.000,-383.500,-501.500,-446.000
2.659,-438.000,-387.500,-506.000,-451.000
2.660,-440.500,-390.500,-510.000,-455.000
2.661,-441.500,-392.000,-512.000,-457.000
2.662,-442.000,-392.500,-513.000,-458.000
2.663,-441.000,-392.500,-512.500,-458.000
2.664,-440.000,-391.500,-511.500,-457.000
2.665,-438.500,-390.500,-510.000,-455.000
2.666,-437.000,-388.500,-508.000,-452.500
2.667,-435.000,-386.500,-505.500,-450.000
2.668,-433.000,-383.500,-502.500,-446.500
2.669,-431.000,-380.500,-499.000,-443.000
2.670,-428.000,-376.500,-494.500,-438.500
2.671,-425.000,-372.500,-490.000,-433.500
2.672,-422.500,-369.500,-486.000,-429.500
2.673,-421.000,-367.000,-483.000,-427.000
2.674,-421.000,-367.000,-482.500,-427.000
2.675,-422.500,-368.500,-484.000,-428.500
2.676,-425.000,-371.500,-487.500,-432.500
2.677,-428.500,-375.500,-492.500,-437.500
2.678,-432.000,-380.000,-497.500,-443.000
2.679,-435.000,-384.000,-502.500,-448.000
2.680,-437.500,-387.000,-506.500,-451.500
2.681,-438.500,-388.500,-508.500,-453.500
2.682,-438.500,-388.500,-509.000,-454.500
2.683,-438.000,-388.000,-509.000,-453.500
2.684,-436.500,-387.000,-508.000,-452.000
2.685,-435.000,-385.500,-506.000,-450.500
2.686,-433.000,-383.500,-504.000,-448.000
2.687,-431.000,-381.000,-501.000,-445.500
2.688,-428.000,-378.000,-497.500,-442.000
2.689,-425.000,-374.500,-493.500,-438.000
2.690,-422.000,-371.000,-489.500,-433.000
2.691,-419.000,-367.000,-484.500,-428.000
2.692,-416.000,-363.000,-480.500,-423.500
2.693,-414.500,-360.500,-477.500,-420.500
2.694,-414.000,-359.500,-476.000,-419.000
2.695,-414.500,-360.500,-477.000,-420.000
2.696,-416.500,-362.500,-479.500,-423.000
2.697,-419.500,-366.000,-483.500,-427.000
2.698,-422.500,-370.000,-488.000,-432.000
2.699,-424.500,-373.000,-492.000,-436.000
2.700,-426.000,-375.000,-495.000,-439.000
2.701,-426.000,-376.000,-496.000,-440.500
2.702,-425.500,-375.500,-496.000,-440.500
2.703,-424.000,-374.500,-495.000,-439.000
2.704,-422.500,-373.000,-493.500,-437.500
2.705,-421.000,-371.000,-491.500,-435.500
2.706,-419.000,-369.500,-489.500,-433.500
2.707,-417.000,-367.000,-487.000,-430.500
2.708,-415.000,-364.500,-484.000,-427.500
2.709,-412.500,-361.500,-480.500,-424.000
2.710,-410.000,-358.000,-476.500,-419.500
2.711,-407.500,-354.500,-472.000,-415.500
2.712,-405.000,-351.500,-468.500,-411.500
2.713,-404.000,-349.500,-465.500,-409.500
2.714,-404.000,-349.000,-465.000,-409.000
2.715,-405.500,-350.500,-466.500,-410.500
2.716,-407.500,-353.500,-470.000,-414.500
2.717,-410.500,-357.500,-474.500,-419.000
2.718,-414.000,-361.500,-479.500,-424.500
2.719,-417.000,-365.500,-484.500,-429.500
2.720,-419.500,-368.000,-488.000,-433.000
2.721,-420.500,-370.000,-490.500,-435.500
2.722,-421.500,-371.000,-492.000,-437.000
2.723,-421.000,-371.000,-492.000,-437.000
2.724,-420.500,-370.500,-491.500,-436.500
2.725,-420.000,-369.500,-490.500,-435.000
2.726,-419.000,-368.000,-489.500,-433.500
2.727,-418.000,-366.500,-487.500,-431.500
2.728,-416.500,-364.500,-485.000,-429.000
2.729,-415.000,-362.000,-482.000,-426.000
2.730,-412.500,-359.000,-478.500,-422.500
2.731,-410.500,-355.500,-474.500,-418.500
2.732,-409.000,-353.000,-471.500,-415.000
2.733,-408.000,-351.500,-469.500,-413.000
2.734,-409.000,-351.500,-469.500,-413.000
2.735,-411.000,-353.000,-471.500,-415.000
2.736,-413.500,-356.500,-475.000,-419.000
2.737,-417.000,-360.000,-479.500,-423.500
2.738,-420.500,-364.500,-484.500,-429.000
2.739,-423.500,-368.000,-489.000,-433.500
2.740,-425.500,-370.500,-492.500,-437.000
2.741,-427.000,-372.000,-494.500,-439.000
2.742,-427.000,-372.500,-495.000,-440.000
2.743,-426.500,-372.000,-495.000,-440.000
2.744,-426.000,-371.500,-494.000,-439.500
2.745,-425.000,-370.000,-493.000,-438.500
2.746,-424.000,-369.000,-491.500,-437.000
2.747,-422.500,-367.000,-489.500,-435.000
2.748,-420.500,-365.000,-487.000,-432.500
2.749,-418.500,-362.500,-484.000,-429.500
2.750,-416.000,-359.500,-481.000,-426.000
2.751,-413.500,-357.000,-477.500,-422.500
2.752,-411.500,-354.500,-474.000,-419.500
2.753,-411.000,-353.500,-472.500,-417.500
2.754,-411.000,-353.000,-472.000,-417.500
2.755,-412.000,-354.500,-473.000,-419.000
2.756,-414.000,-356.500,-475.500,-422.000
2.757,-416.000,-359.000,-479.000,-425.500
2.758,-418.500,-362.500,-483.000,-429.000
2.759,-420.500,-365.000,-486.500,-432.500
2.760,-422.000,-367.000,-489.000,-435.000
2.761,-422.500,-368.000,-490.000,-435.500
2.762,-421.500,-367.000,-489.500,-435.000
2.763,-420.000,-365.500,-487.500,-433.000
2.764,-417.500,-362.500,-485.000,-430.000
2.765,-415.000,-359.500,-481.500,-426.500
2.766,-411.500,-356.000,-477.500,-422.500
2.767,-408.000,-352.000,-473.000,-418.000
2.768,-404.000,-347.500,-468.500,-413.000
2.769,-400.000,-343.000,-463.000,-407.500
2.770,-396.000,-338.000,-457.500,-401.500
2.771,-392.000,-333.500,-452.000,-396.000
2.772,-389.000,-329.000,-447.000,-391.500
2.773,-386.500,-326.500,-444.000,-388.000
2.774,-385.500,-325.000,-442.500,-386.500
2.775,-386.000,-325.500,-443.000,-387.500
2.776,-388.000,-327.500,-445.500,-389.500
2.777,-390.500,-330.500,-449.000,-393.500
2.778,-393.000,-333.500,-453.500,-398.000
2.779,-395.000,-336.500,-457.000,-402.000
2.780,-396.500,-338.500,-460.000,-405.000
2.781,-397.000,-339.500,-461.500,-407.000
2.782,-396.500,-339.500,-462.000,-407.500
2.783,-395.500,-338.500,-461.500,-407.000
2.784,-394.000,-337.000,-460.500,-405.500
2.785,-392.500,-335.500,-458.500,-403.500
2.786,-390.500,-333.500,-456.000,-401.000
2.787,-388.000,-331.000,-453.500,-398.500
2.788,-386.000,-328.000,-450.500,-395.000
2.789,-383.500,-325.500,-447.000,-391.500
2.790,-381.000,-322.000,-443.000,-387.500
2.791,-379.000,-319.000,-439.000,-383.000
2.792,-377.500,-316.500,-436.000,-380.000
2.793,-377.000,-315.000,-434.000,-378.000
2.794,-377.500,-315.500,-434.000,-377.500
2.795,-379.500,-317.500,-436.000,-380.000
2.796,-382.500,-321.000,-440.000,-384.000
2.797,-386.000,-325.500,-445.000,-389.000
2.798,-390.000,-330.500,-450.500,-395.000
2.799,-393.500,-335.000,-456.000,-400.500
2.800,-396.000,-338.500,-460.000,-405.000
2.801,-397.500,-340.500,-463.000,-407.500
2.802,-398.000,-342.000,-464.500,-408.500
2.803,-398.000,-342.000,-465.000,-409.000
2.804,-397.500,-341.500,-464.500,-408.500
2.805,-397.000,-341.000,-463.500,-407.500
2.806,-395.500,-339.500,-462.000,-406.500
2.807,-394.500,-338.000,-460.500,-404.500
2.808,-393.000,-336.000,-458.000,-402.000
2.809,-391.500,-333.500,-455.000,-399.000
2.810,-389.000,-331.000,-451.500,-395.000
2.811,-387.000,-327.500,-447.500,-391.000
2.812,-385.000,-325.000,-444.000,-387.000
2.813,-384.000,-323.000,-441.500,-384.500
2.814,-384.500,-323.500,-441.500,-384.000
2.815,-386.500,-325.500,-443.500,-386.000
2.816,-390.000,-329.500,-448.000,-390.500
2.817,-394.500,-335.000,-453.500,-396.500
2.818,-399.000,-341.000,-460.000,-403.500
2.819,-403.500,-346.000,-466.000,-409.500
2.820,-407.000,-350.500,-470.500,-414.500
2.821,-409.000,-353.000,-473.500,-418.000
2.822,-410.000,-354.500,-475.500,-419.500
2.823,-410.000,-355.000,-476.000,-420.000
2.824,-410.000,-354.500,-476.000,-420.000
2.825,-409.500,-354.000,-475.000,-419.000
2.826,-408.000,-353.000,-474.000,-417.500
2.827,-406.500,-351.500,-472.000,-415.500
2.828,-404.500,-349.000,-469.000,-413.000
2.829,-402.000,-346.000,-465.000,-409.000
2.830,-399.000,-342.500,-461.000,-404.500
2.831,-396.000,-339.000,-456.000,-400.000
2.832,-393.500,-335.500,-452.000,-395.500
2.833,-392.000,-333.500,-449.500,-393.000
2.834,-392.000,-333.000,-448.500,-392.000
2.835,-393.000,-334.500,-450.000,-393.500
2.836,-395.500,-337.500,-453.500,-397.000
2.837,-399.000,-342.000,-458.500,-402.000
2.838,-402.500,-347.000,-464.500,-408.000
2.839,-406.500,-351.500,-470.000,-413.500
2.840,-409.000,-355.500,-474.500,-418.000
2.841,-411.000,-358.000,-477.500,-421.000
2.842,-412.000,-359.000,-479.000,-423.000
2.843,-412.000,-359.500,-479.000,-423.500
2.844,-411.500,-358.500,-478.500,-423.000
2.845,-410.500,-357.500,-477.000,-421.500
2.846,-409.000,-355.500,-475.000,-419.500
2.847,-407.000,-353.000,-472.500,-416.500
2.848,-404.500,-350.500,-469.000,-413.000
2.849,-401.500,-347.500,-465.500,-409.000
2.850,-398.500,-344.000,-461.000,-404.500
2.851,-395.500,-340.000,-456.500,-400.000
2.852,-393.500,-337.000,-452.500,-396.000
2.853,-392.000,-335.000,-449.500,-393.500
2.854,-392.000,-335.000,-449.000,-392.500
2.855,-393.500,-336.000,-450.000,-394.000
2.856,-396.000,-339.000,-453.000,-397.500
2.857,-399.500,-343.000,-457.500,-402.000
2.858,-403.500,-347.500,-463.000,-407.500
2.859,-407.000,-352.000,-468.500,-413.000
2.860,-410.000,-355.500,-472.500,-417.000
2.861,-411.500,-357.500,-475.500,-420.000
2.862,-412.000,-358.500,-477.000,-421.500
2.863,-412.000,-358.500,-477.000,-421.500
2.864,-411.000,-358.000,-476.500,-421.000
2.865,-410.000,-357.000,-475.500,-419.500
2.866,-409.000,-355.500,-474.000,-418.000
2.867,-407.500,-354.000,-472.500,-416.000
2.868,-406.000,-352.000,-470.000,-413.500
2.869,-404.000,-349.500,-467.500,-410.500
2.870,-402.000,-347.000,-464.000,-407.000
2.871,-399.500,-344.000,-460.000,-403.000
2.872,-397.500,-341.000,-456.500,-399.500
2.873,-396.500,-339.500,-454.000,-397.500
