'Elapsed time','AECG1','AECG2','AECG3','AECG4'
'seconds','uV','uV','uV','uV'
0.000,205.000,207.500,227.000,173.000
0.001,204.500,207.500,226.500,173.000
0.002,205.000,208.000,227.000,173.500
0.003,204.500,208.000,227.500,174.000
0.004,204.500,209.000,228.500,175.000
0.005,204.000,209.000,229.000,175.000
0.006,204.500,209.500,230.000,176.000
0.007,204.000,209.000,230.000,176.000
0.008,203.500,209.500,231.000,176.500
0.009,202.500,209.500,231.000,176.500
0.010,202.500,210.000,232.000,177.000
0.011,202.000,210.500,232.000,177.000
0.012,202.500,211.500,233.000,177.500
0.013,202.000,212.000,233.000,177.000
0.014,202.500,213.000,234.000,177.000
0.015,202.500,213.500,234.000,176.500
0.016,203.500,214.500,235.000,177.000
0.017,203.500,214.500,235.000,176.500
0.018,204.000,215.500,235.500,177.000
0.019,204.000,215.500,235.500,176.500
0.020,205.000,216.500,236.000,177.000
0.021,205.000,216.000,235.500,176.500
0.022,205.500,216.500,235.500,177.000
0.023,205.500,216.000,235.000,177.000
0.024,206.000,216.000,235.000,177.500
0.025,205.500,215.500,234.000,177.000
0.026,205.500,215.500,234.000,177.500
0.027,204.500,215.000,233.000,177.000
0.028,204.500,215.500,233.000,177.000
0.029,204.000,215.000,232.000,176.000
0.030,204.500,215.000,231.500,176.000
0.031,204.000,214.000,231.000,175.000
0.032,204.500,214.000,230.500,174.500
0.033,204.500,213.500,229.500,174.000
0.034,205.000,213.000,229.500,173.500
0.035,205.000,212.000,228.500,173.000
0.036,205.500,211.500,229.000,173.000
0.037,205.500,210.500,228.500,172.500
0.038,206.000,210.500,229.000,173.000
0.039,205.500,210.000,229.500,172.500
0.040,206.000,209.500,230.500,173.000
0.041,205.500,208.500,231.000,173.000
0.042,206.000,208.500,232.000,174.000
0.043,205.500,208.000,232.000,174.000
0.044,205.500,208.000,233.000,174.500
0.045,205.000,207.000,233.000,174.500
0.046,205.500,207.000,234.000,175.000
0.047,205.000,206.500,233.500,175.000
0.048,205.000,206.500,234.000,175.500
0.049,204.500,205.500,233.000,175.000
0.050,204.500,205.500,233.000,175.000
0.051,204.000,204.500,232.500,174.500
0.052,204.000,204.500,232.500,174.500
0.053,203.500,203.500,232.000,174.000
0.054,204.000,204.000,232.500,174.000
0.055,203.500,203.500,232.000,173.500
0.056,204.000,204.500,232.500,174.000
0.057,204.000,204.500,232.500,173.500
0.058,205.000,205.500,233.500,174.000
0.059,205.000,205.500,233.500,174.000
0.060,206.000,206.500,234.000,174.500
0.061,206.500,206.500,234.000,174.500
0.062,207.500,207.000,235.000,175.500
0.063,208.000,207.500,235.000,175.500
0.064,209.000,208.000,235.500,176.500
0.065,209.000,208.500,235.500,177.000
0.066,209.500,209.000,236.000,177.500
0.067,209.500,209.500,235.500,178.000
0.068,209.500,210.000,235.500,178.500
0.069,209.500,210.000,235.000,178.000
0.070,209.500,210.500,235.000,178.000
0.071,209.500,210.000,234.000,177.000
0.072,209.500,210.500,233.500,177.000
0.073,209.500,210.000,232.500,176.500
0.074,209.500,210.000,232.500,176.500
0.075,209.000,209.000,232.000,176.000
0.076,209.000,209.000,232.000,176.500
0.077,208.000,208.500,231.000,176.000
0.078,208.000,208.500,231.000,176.500
0.079,207.000,207.500,230.000,176.000
0.080,206.500,208.000,230.500,176.000
0.081,205.500,207.500,230.000,176.000
0.082,205.500,208.000,230.500,176.500
0.083,205.000,208.000,230.000,176.500
0.084,205.000,209.000,231.000,177.000
0.085,205.000,209.500,230.500,177.000
0.086,205.000,210.500,231.000,177.500
0.087,205.000,210.500,230.500,177.500
0.088,205.500,211.000,231.000,177.500
0.089,205.500,211.000,230.000,177.000
0.090,206.000,211.000,230.000,177.000
0.091,206.000,210.500,229.000,176.500
0.092,207.000,211.000,228.500,176.500
0.093,207.000,211.000,227.500,176.000
0.094,208.500,211.500,227.500,176.500
0.095,209.000,211.500,227.000,176.000
0.096,210.000,211.500,227.000,176.500
0.097,210.000,210.500,226.500,176.000
0.098,210.500,210.500,226.500,176.500
0.099,210.500,209.500,226.500,176.000
0.100,211.000,209.500,227.000,176.500
0.101,211.000,208.500,227.500,176.500
0.102,211.500,209.000,228.500,177.000
0.103,211.000,208.500,228.500,176.500
0.104,211.500,208.500,229.500,177.000
0.105,211.000,208.000,229.500,176.500
0.106,211.000,208.000,230.000,177.000
0.107,210.500,207.000,229.000,176.500
0.108,210.500,206.500,229.000,176.500
0.109,210.000,205.500,227.500,176.000
0.110,209.500,205.500,227.000,175.500
0.111,209.000,204.500,225.500,174.500
0.112,209.000,204.000,225.000,174.500
0.113,208.500,203.000,224.500,173.500
0.114,208.500,203.000,224.500,173.500
0.115,208.000,202.500,224.500,173.500
0.116,208.500,202.500,225.500,174.000
0.117,208.500,202.500,225.500,174.000
0.118,209.500,203.000,226.500,174.500
0.119,209.500,203.000,226.500,174.500
0.120,210.500,203.500,227.000,175.000
0.121,210.500,203.500,227.500,175.000
0.122,211.500,204.500,228.000,175.500
0.123,211.500,204.500,228.000,176.000
0.124,212.000,205.000,229.000,176.500
0.125,211.500,204.500,228.500,176.500
0.126,211.500,205.000,229.000,177.000
0.127,211.000,204.500,228.500,176.500
0.128,211.000,205.000,229.000,177.000
0.129,210.000,204.500,228.500,176.500
0.130,210.000,204.500,228.500,176.000
0.131,209.500,204.000,227.500,175.500
0.132,209.500,204.000,227.500,175.000
0.133,209.500,203.000,226.500,174.500
0.134,210.000,203.500,226.500,174.500
0.135,210.000,203.000,226.000,174.000
0.136,210.000,203.000,226.000,174.000
0.137,209.500,202.500,226.000,173.500
0.138,210.000,202.500,226.000,173.500
0.139,209.500,202.000,225.500,173.000
0.140,210.000,202.000,226.000,173.500
0.141,209.500,201.000,225.500,173.000
0.142,210.000,201.000,226.000,173.500
0.143,210.000,200.500,225.500,173.500
0.144,210.500,201.000,226.000,174.000
0.145,210.000,201.000,226.000,173.500
0.146,210.000,201.000,226.500,174.000
0.147,209.500,200.500,226.000,173.500
0.148,210.000,201.000,226.000,173.000
0.149,210.000,200.500,225.000,172.500
0.150,210.500,200.500,225.000,172.000
0.151,211.000,199.500,224.000,171.500
0.152,211.500,199.500,223.500,171.000
0.153,211.500,199.000,222.500,170.500
0.154,212.500,198.500,222.500,170.500
0.155,212.000,197.500,222.000,170.000
0.156,212.500,197.000,222.000,170.000
0.157,211.500,196.000,221.500,169.500
0.158,211.500,196.000,222.000,170.000
0.159,211.000,195.500,221.500,169.500
0.160,211.000,195.500,222.500,170.000
0.161,210.500,195.500,222.500,170.000
0.162,210.500,195.500,223.500,170.500
0.163,210.000,195.000,223.500,170.500
0.164,210.000,195.000,224.000,171.000
0.165,210.000,194.500,223.500,170.500
0.166,210.500,194.500,224.000,171.000
0.167,210.000,193.500,223.500,171.000
0.168,210.500,193.000,224.000,171.500
0.169,210.500,192.500,223.500,171.000
0.170,211.000,192.000,224.000,171.000
0.171,210.500,191.000,223.000,170.500
0.172,210.500,191.000,223.000,170.000
0.173,209.500,190.000,222.000,169.500
0.174,209.500,189.500,221.500,169.000
0.175,209.000,189.000,220.500,168.500
0.176,209.500,188.500,220.000,168.000
0.177,209.000,188.000,219.000,167.500
0.178,209.000,188.000,218.500,167.500
0.179,208.500,188.000,218.000,167.000
0.180,209.000,188.500,218.500,167.000
0.181,208.500,188.500,218.000,167.000
0.182,209.000,189.500,218.500,167.000
0.183,209.000,189.500,218.500,167.000
0.184,209.500,190.500,219.500,167.000
0.185,209.500,190.500,220.000,167.000
0.186,210.000,191.000,221.000,167.500
0.187,210.000,191.000,221.000,167.500
0.188,211.000,191.500,222.000,168.000
0.189,211.000,191.500,222.000,168.000
0.190,212.000,191.500,222.500,168.000
0.191,212.500,191.500,222.500,167.500
0.192,213.000,191.500,223.000,167.500
0.193,212.500,191.500,223.000,167.500
0.194,213.000,192.000,223.500,168.000
0.195,212.500,191.500,223.000,167.500
0.196,212.500,192.000,223.000,168.000
0.197,212.000,191.500,222.000,167.500
0.198,212.500,191.000,221.500,168.000
0.199,212.500,190.000,220.500,167.500
0.200,213.500,189.500,220.000,167.500
0.201,213.500,188.000,219.500,167.000
0.202,213.500,187.500,220.000,167.000
0.203,213.000,186.500,219.500,167.000
0.204,213.000,186.500,220.500,167.000
0.205,212.500,186.000,220.500,167.000
0.206,212.500,186.500,221.500,167.500
0.207,212.500,186.000,221.500,167.500
0.208,213.000,186.500,222.000,167.500
0.209,213.000,186.500,221.500,167.500
0.210,213.500,186.500,221.500,167.500
0.211,213.500,186.000,221.000,166.500
0.212,214.000,186.500,220.500,166.500
0.213,213.500,186.000,220.000,165.500
0.214,213.500,186.000,220.000,165.500
0.215,213.000,186.000,219.500,164.500
0.216,213.000,186.500,220.000,164.500
0.217,212.000,186.500,220.000,164.000
0.218,212.000,187.000,220.500,164.000
0.219,211.000,186.500,220.000,164.000
0.220,211.000,187.000,220.500,164.000
0.221,210.000,186.500,220.500,164.000
0.222,210.000,187.000,221.000,164.500
0.223,209.500,187.000,220.500,164.500
0.224,209.500,187.500,221.000,165.000
0.225,209.000,187.500,220.500,165.000
0.226,209.000,188.000,221.000,165.500
0.227,208.000,187.500,220.500,165.000
0.228,208.000,188.000,220.500,165.000
0.229,207.000,188.000,219.500,164.500
0.230,206.500,188.500,219.500,164.500
0.231,205.500,188.000,218.500,163.500
0.232,205.500,188.000,218.500,163.000
0.233,205.000,187.500,218.000,162.500
0.234,205.500,187.500,218.000,163.000
0.235,205.000,187.000,217.000,162.500
0.236,206.000,187.000,217.000,163.000
0.237,206.500,187.000,216.500,163.000
0.238,207.500,187.000,217.000,163.500
0.239,207.500,187.000,217.000,164.000
0.240,208.500,187.500,217.500,164.500
0.241,209.000,187.500,217.000,165.000
0.242,210.000,188.000,217.500,165.500
0.243,210.000,188.000,217.000,165.000
0.244,210.000,188.500,217.000,165.500
0.245,209.500,188.000,217.000,165.500
0.246,210.000,188.000,217.000,166.000
0.247,209.500,188.000,217.000,165.500
0.248,209.500,188.000,217.500,166.000
0.249,209.000,188.000,217.500,165.500
0.250,209.000,188.000,218.000,166.000
0.251,208.500,187.500,218.000,166.000
0.252,209.000,188.000,218.500,167.000
0.253,208.000,187.500,218.000,167.000
0.254,208.000,187.500,218.000,167.500
0.255,207.500,186.500,217.500,167.000
0.256,207.500,186.500,217.500,167.500
0.257,207.000,185.500,217.000,167.500
0.258,207.500,185.500,217.000,167.500
0.259,207.000,185.000,216.500,167.500
0.260,208.000,185.000,216.500,167.500
0.261,207.500,184.500,216.000,167.500
0.262,208.000,185.000,216.000,167.500
0.263,208.000,184.500,215.500,167.000
0.264,208.500,184.500,215.500,167.000
0.265,208.500,184.000,215.000,166.500
0.266,209.000,184.000,215.000,166.500
0.267,209.000,183.000,214.000,166.000
0.268,209.500,183.000,213.500,165.500
0.269,209.500,182.000,212.500,164.000
0.270,210.000,181.500,212.000,163.500
0.271,209.500,180.500,210.500,162.500
0.272,210.000,180.000,210.000,162.000
0.273,210.000,179.000,209.000,161.000
0.274,210.000,178.500,209.000,161.000
0.275,209.500,177.500,208.000,160.000
0.276,210.000,177.500,208.500,160.500
0.277,209.000,176.500,208.000,160.000
0.278,209.500,176.500,208.000,160.500
0.279,209.000,176.000,208.000,160.500
0.280,210.000,176.000,208.500,161.500
0.281,210.000,176.000,208.500,161.500
0.282,211.000,176.500,209.000,162.000
0.283,211.500,176.000,208.500,161.500
0.284,212.000,176.500,209.000,161.000
0.285,212.000,176.000,209.000,160.000
0.286,212.500,176.500,209.000,159.500
0.287,212.500,176.000,208.500,157.500
0.288,212.500,176.000,208.500,156.500
0.289,212.000,175.500,208.000,154.500
0.290,212.500,176.000,207.500,153.500
0.291,212.000,175.500,206.500,151.500
0.292,212.500,175.000,206.000,150.500
0.293,212.000,174.000,205.000,149.500
0.294,212.500,174.000,204.500,149.000
0.295,212.000,173.000,203.500,148.500
0.296,212.000,173.000,203.500,148.500
0.297,211.500,172.000,202.500,148.500
0.298,211.500,172.000,203.000,149.000
0.299,210.500,171.500,202.500,148.500
0.300,211.000,172.000,203.000,149.000
0.301,210.500,171.500,202.500,149.000
0.302,211.000,171.500,203.000,149.500
0.303,210.500,171.000,203.000,149.500
0.304,211.000,171.000,203.500,150.500
0.305,211.000,171.000,203.500,150.500
0.306,211.500,171.500,204.500,151.000
0.307,211.500,171.500,204.500,150.500
0.308,212.000,172.000,205.500,150.500
0.309,211.500,172.000,206.000,150.000
0.310,212.000,172.500,206.500,150.500
0.311,211.500,172.500,206.500,150.000
0.312,212.500,173.000,207.000,150.000
0.313,212.500,173.000,207.000,150.000
0.314,213.500,173.500,207.500,150.500
0.315,213.500,173.000,207.000,150.500
0.316,213.500,173.500,207.500,151.000
0.317,213.000,173.000,207.500,151.000
0.318,213.500,173.000,208.000,151.500
0.319,213.000,173.000,208.000,151.500
0.320,213.500,173.500,209.000,152.000
0.321,213.000,173.500,209.500,152.500
0.322,213.500,174.000,210.500,153.500
0.323,213.000,174.000,211.000,154.000
0.324,213.000,174.500,212.500,154.500
0.325,212.500,175.000,213.000,155.000
0.326,212.500,175.500,214.000,155.500
0.327,212.500,175.000,214.000,155.500
0.328,213.000,175.500,215.000,156.000
0.329,213.000,175.000,215.500,155.500
0.330,213.500,175.500,216.000,156.000
0.331,213.000,175.000,216.000,156.000
0.332,213.500,175.000,216.500,156.000
0.333,213.000,174.000,216.500,155.500
0.334,213.500,174.000,216.500,155.500
0.335,213.000,173.000,216.000,155.500
0.336,213.000,173.000,216.500,155.500
0.337,213.000,172.500,216.500,155.500
0.338,213.000,173.000,217.000,155.500
0.339,213.000,172.000,217.000,155.000
0.340,213.000,172.000,217.500,155.500
0.341,212.500,171.500,217.500,155.000
0.342,213.000,172.000,218.000,155.500
0.343,212.500,172.000,217.500,155.000
0.344,212.500,172.500,218.000,156.000
0.345,212.500,172.500,218.000,156.000
0.346,213.000,173.000,219.000,157.000
0.347,213.500,173.000,219.000,157.500
0.348,214.000,173.500,219.500,158.000
0.349,214.000,173.000,219.000,158.000
0.350,215.000,173.500,219.000,158.000
0.351,214.500,173.500,218.500,157.500
0.352,215.000,173.500,218.500,157.500
0.353,214.500,173.500,217.500,157.000
0.354,215.000,173.500,217.500,157.500
0.355,214.500,173.000,217.000,157.000
0.356,214.500,173.000,217.000,157.000
0.357,213.500,172.500,217.000,157.000
0.358,213.500,172.500,217.000,157.000
0.359,212.500,171.500,216.500,157.000
0.360,212.500,171.500,217.000,157.000
0.361,212.000,171.000,217.000,157.000
0.362,212.500,171.000,218.000,157.500
0.363,212.000,170.500,218.500,158.000
0.364,212.000,171.000,219.500,158.500
0.365,211.000,170.500,220.000,159.000
0.366,211.500,170.500,220.500,159.500
0.367,211.000,170.000,220.500,159.500
0.368,211.000,170.000,220.500,160.000
0.369,211.000,169.500,220.000,159.500
0.370,211.500,169.500,219.500,159.500
0.371,211.500,169.000,218.500,159.000
0.372,212.000,169.500,218.000,159.000
0.373,212.000,169.000,217.000,158.500
0.374,212.500,169.000,216.500,158.500
0.375,212.000,168.500,215.500,158.000
0.376,212.500,169.000,215.500,158.000
0.377,212.000,168.500,215.500,157.500
0.378,212.000,169.500,216.500,158.000
0.379,212.000,170.000,217.000,158.500
0.380,212.500,171.000,218.500,159.500
0.381,212.000,172.000,219.500,160.500
0.382,212.500,173.000,221.500,162.500
0.383,212.000,174.000,223.000,163.500
0.384,213.000,176.000,225.000,165.500
0.385,213.000,177.000,226.500,167.000
0.386,213.500,179.000,228.500,169.000
0.387,213.500,180.500,229.500,170.000
0.388,214.000,182.000,231.000,171.500
0.389,213.000,183.000,231.500,172.000
0.390,213.000,184.000,232.500,173.000
0.391,212.500,184.000,232.000,173.500
0.392,212.500,184.000,232.500,174.500
0.393,211.500,183.000,231.500,174.500
0.394,212.000,182.500,231.000,175.000
0.395,211.500,181.500,230.000,175.000
0.396,212.000,180.000,229.000,176.000
0.397,211.500,178.000,227.000,176.000
0.398,211.500,176.500,225.000,177.000
0.399,211.000,174.000,223.000,177.000
0.400,211.000,172.500,221.000,178.000
0.401,210.500,170.000,219.000,178.500
0.402,211.000,168.500,217.500,179.000
0.403,211.000,166.000,215.000,179.000
0.404,212.000,164.000,212.500,178.500
0.405,212.500,160.500,209.000,177.500
0.406,214.000,157.000,205.000,176.000
0.407,215.000,152.500,199.500,173.500
0.408,217.000,148.000,194.000,171.500
0.409,218.500,142.500,188.000,169.000
0.410,220.500,137.500,182.000,167.000
0.411,221.500,132.000,175.500,165.000
0.412,223.000,126.500,168.500,162.500
0.413,224.500,120.000,160.000,159.000
0.414,227.000,113.000,151.000,154.500
0.415,229.000,104.500,139.000,147.500
0.416,232.000,95.000,126.000,139.000
0.417,234.500,84.500,110.500,129.000
0.418,237.500,74.000,96.000,118.000
0.419,240.000,63.500,81.000,107.000
0.420,242.500,55.000,69.000,97.500
0.421,244.000,48.000,59.000,89.000
0.422,246.000,43.500,53.000,83.000
0.423,246.500,40.500,49.000,78.500
0.424,247.000,40.500,48.000,76.000
0.425,247.000,42.000,49.000,74.000
0.426,246.500,45.000,52.000,73.000
0.427,245.500,48.500,56.000,72.500
0.428,244.500,54.000,62.000,73.000
0.429,242.500,59.500,68.000,73.500
0.430,241.000,66.000,76.000,74.000
0.431,238.500,72.500,83.500,74.500
0.432,236.500,80.000,92.000,76.000
0.433,234.000,87.500,100.000,78.000
0.434,232.000,95.500,110.000,81.500
0.435,229.000,103.000,120.000,85.500
0.436,227.000,112.000,131.500,91.500
0.437,223.500,120.000,142.500,97.500
0.438,221.000,129.000,154.500,104.000
0.439,217.500,137.000,165.500,110.000
0.440,215.000,145.000,176.500,115.500
0.441,211.500,152.500,185.500,119.500
0.442,209.500,159.500,194.500,123.500
0.443,207.000,165.500,201.000,126.500
0.444,206.000,171.000,207.500,129.000
0.445,204.000,175.000,212.000,131.000
0.446,203.500,179.000,216.500,133.500
0.447,202.500,181.500,220.000,136.000
0.448,202.500,184.000,223.500,139.000
0.449,202.000,185.500,226.500,141.500
0.450,201.500,187.000,229.000,145.000
0.451,201.000,187.500,230.500,147.500
0.452,201.000,187.500,231.500,150.000
0.453,200.500,187.000,232.000,152.000
0.454,200.500,186.500,232.500,154.500
0.455,200.500,185.500,232.000,156.000
0.456,201.500,185.500,232.500,158.500
0.457,202.000,184.500,232.500,160.500
0.458,203.500,185.000,233.500,163.000
0.459,204.000,184.500,234.000,165.000
0.460,204.500,184.500,234.500,167.000
0.461,204.500,184.000,235.000,168.000
0.462,205.000,184.500,236.000,170.000
0.463,204.500,184.000,236.500,170.500
0.464,204.500,185.000,238.000,172.000
0.465,204.000,185.000,239.000,172.500
0.466,204.000,185.500,240.000,173.500
0.467,203.500,185.500,240.500,173.500
0.468,204.000,186.000,241.000,174.500
0.469,203.500,185.000,240.500,174.500
0.470,203.500,185.000,241.000,175.000
0.471,203.000,184.500,240.500,174.500
0.472,203.000,184.500,241.000,175.000
0.473,202.500,184.500,241.000,175.000
0.474,203.000,184.500,242.000,175.500
0.475,202.500,184.500,242.000,175.000
0.476,203.000,185.000,242.500,175.000
0.477,203.000,184.500,242.500,174.500
0.478,203.000,185.000,243.000,175.000
0.479,203.000,184.500,243.000,174.500
0.480,203.000,185.000,243.000,175.000
0.481,203.000,184.500,243.000,175.500
0.482,203.500,184.500,243.500,176.000
0.483,203.000,184.000,243.000,176.500
0.484,203.500,184.000,243.500,177.000
0.485,203.000,183.500,243.000,177.500
0.486,203.500,183.500,243.000,178.000
0.487,203.000,183.000,242.500,177.500
0.488,203.500,183.500,243.000,178.000
0.489,203.500,183.000,242.500,178.000
0.490,204.000,183.000,243.000,178.500
0.491,204.000,182.000,242.000,178.500
0.492,204.500,182.500,242.000,178.500
0.493,204.000,182.000,241.500,178.000
0.494,204.500,182.000,241.500,178.000
0.495,204.000,181.500,241.000,177.500
0.496,204.000,181.500,241.000,178.000
0.497,203.500,181.000,241.000,178.000
0.498,203.500,181.000,241.500,178.500
0.499,203.000,180.500,241.500,178.500
0.500,203.000,180.500,242.000,179.000
0.501,202.500,180.000,242.000,179.500
0.502,203.000,180.000,242.500,180.000
0.503,202.500,179.500,242.000,180.000
0.504,203.000,180.000,242.500,180.500
0.505,202.500,179.500,242.500,180.500
0.506,203.000,180.000,243.000,181.000
0.507,202.500,180.000,243.000,181.000
0.508,203.000,181.000,244.000,181.500
0.509,202.500,181.000,243.500,181.500
0.510,202.500,182.000,244.000,182.000
0.511,202.000,182.000,243.500,181.500
0.512,202.000,182.000,243.500,181.500
0.513,201.500,182.000,242.500,181.000
0.514,201.500,182.000,242.500,181.000
0.515,201.000,182.000,241.000,180.000
0.516,201.000,182.500,241.000,180.000
0.517,200.500,182.500,240.000,179.500
0.518,200.500,183.500,240.000,180.000
0.519,200.000,183.500,239.500,179.500
0.520,200.000,184.500,239.500,179.500
0.521,199.500,185.000,239.500,179.000
0.522,200.000,185.500,240.000,179.000
0.523,199.500,186.000,240.000,178.500
0.524,200.500,186.500,240.500,179.000
0.525,200.500,186.500,240.500,179.000
0.526,201.500,187.500,241.000,179.500
0.527,201.500,187.500,240.500,179.500
0.528,202.000,188.000,241.000,180.000
0.529,202.000,188.000,240.500,180.000
0.530,202.500,188.000,240.500,180.500
0.531,202.000,187.500,240.000,180.500
0.532,202.000,187.500,240.500,181.000
0.533,201.500,187.000,240.500,180.500
0.534,202.000,187.000,240.500,181.000
0.535,201.500,186.000,240.000,180.500
0.536,202.000,186.000,240.000,181.000
0.537,201.500,185.500,239.500,180.500
0.538,202.000,185.000,239.000,180.500
0.539,202.000,184.500,238.000,180.000
0.540,202.500,184.000,238.000,180.500
0.541,202.500,183.500,237.000,180.000
0.542,203.000,183.500,237.500,180.500
0.543,203.000,182.500,237.000,180.500
0.544,204.000,183.000,238.000,181.000
0.545,204.000,182.500,238.000,181.500
0.546,204.500,183.000,238.500,182.000
0.547,204.500,183.000,239.000,182.500
0.548,205.000,184.000,239.500,183.500
0.549,204.500,184.500,239.500,183.500
0.550,205.500,185.500,240.000,184.500
0.551,205.500,186.000,239.500,184.000
0.552,206.000,187.000,239.500,184.000
0.553,206.000,187.000,239.000,183.500
0.554,206.500,187.500,239.000,184.000
0.555,206.500,187.500,238.500,183.500
0.556,207.000,188.000,238.500,184.000
0.557,206.500,188.000,238.000,184.000
0.558,207.000,188.500,238.500,184.500
0.559,206.500,189.000,238.000,184.500
0.560,206.500,189.500,238.500,185.500
0.561,206.000,189.500,238.500,185.500
0.562,206.000,190.000,239.000,186.000
0.563,205.000,190.000,238.500,186.000
0.564,205.000,190.500,239.000,186.500
0.565,204.500,190.000,239.000,186.500
0.566,204.500,189.500,239.500,187.500
0.567,203.500,188.500,239.000,187.500
0.568,204.000,188.000,239.000,188.000
0.569,203.500,187.000,238.500,188.000
0.570,204.500,186.500,238.500,188.000
0.571,204.500,185.000,237.000,187.500
0.572,205.500,184.500,236.500,187.500
0.573,205.500,183.000,235.500,186.500
0.574,206.000,182.000,235.500,186.500
0.575,206.000,180.500,235.000,186.000
0.576,206.500,180.000,235.500,186.000
0.577,206.000,178.500,235.500,186.000
0.578,206.500,178.500,236.000,186.500
0.579,206.000,177.500,236.500,186.500
0.580,207.000,177.500,237.500,187.000
0.581,207.000,177.000,237.500,187.000
0.582,207.500,177.500,238.500,188.000
0.583,207.500,177.000,238.500,188.000
0.584,208.000,176.500,239.000,188.500
0.585,207.500,176.000,239.000,188.500
0.586,208.000,175.500,239.500,189.000
0.587,207.500,175.000,239.500,189.500
0.588,207.500,175.000,240.500,190.000
0.589,207.500,174.500,240.000,190.000
0.590,208.000,174.500,240.500,191.000
0.591,208.000,174.000,240.000,191.000
0.592,208.500,174.000,239.500,191.000
0.593,208.000,173.500,238.500,190.500
0.594,208.500,173.500,237.500,190.500
0.595,208.000,173.000,236.000,190.000
0.596,208.500,173.000,235.500,189.500
0.597,208.000,172.500,234.500,189.000
0.598,208.500,172.500,234.000,188.500
0.599,208.500,172.000,232.500,187.500
0.600,209.000,172.500,232.500,187.500
0.601,209.000,172.500,231.500,187.000
0.602,209.500,173.500,231.500,187.500
0.603,209.500,173.500,230.500,187.500
0.604,210.000,174.000,230.500,188.000
0.605,209.500,174.000,230.000,188.000
0.606,210.000,174.500,230.000,188.500
0.607,210.000,174.000,229.500,188.500
0.608,211.000,174.500,229.000,189.000
0.609,211.000,174.500,228.000,188.500
0.610,212.000,174.500,227.500,188.500
0.611,212.000,174.000,226.500,188.000
0.612,212.500,174.000,226.000,188.000
0.613,212.000,173.500,225.000,187.000
0.614,212.500,173.500,224.500,187.000
0.615,212.000,173.000,223.000,186.500
0.616,212.500,173.000,222.500,186.000
0.617,212.000,172.500,221.500,185.500
0.618,212.500,172.500,220.500,185.000
0.619,212.000,172.500,219.500,184.500
0.620,212.500,172.500,219.500,184.000
0.621,212.500,172.500,218.500,183.500
0.622,213.500,173.000,218.500,183.500
0.623,213.500,172.500,217.500,183.000
0.624,213.500,173.000,217.500,182.500
0.625,213.000,172.500,216.500,181.500
0.626,213.000,172.500,216.000,181.500
0.627,212.500,172.000,215.000,180.500
0.628,212.500,172.000,214.000,180.000
0.629,212.500,171.500,213.000,179.000
0.630,213.000,171.500,212.000,179.000
0.631,213.000,170.500,211.000,178.000
0.632,213.500,170.500,210.000,177.500
0.633,213.000,170.000,209.000,176.500
0.634,213.500,170.000,208.000,176.000
0.635,213.000,170.000,207.000,175.000
0.636,213.000,170.000,206.500,174.500
0.637,213.000,170.000,205.500,173.500
0.638,213.500,170.500,205.000,173.000
0.639,213.000,170.500,204.500,172.000
0.640,213.500,171.000,204.500,172.000
0.641,213.000,171.000,203.500,171.000
0.642,213.500,171.000,203.500,171.000
0.643,212.500,170.000,202.500,170.500
0.644,212.500,170.000,203.000,170.500
0.645,212.000,169.500,203.000,170.000
0.646,212.000,169.500,203.500,170.000
0.647,211.500,169.000,203.500,170.000
0.648,212.000,169.000,203.500,170.000
0.649,212.000,168.000,203.000,170.000
0.650,212.500,167.500,203.000,170.000
0.651,212.500,166.500,202.500,169.000
0.652,213.000,166.000,202.500,169.000
0.653,212.500,165.000,201.500,168.000
0.654,213.500,164.500,201.500,168.000
0.655,213.500,163.500,201.000,167.000
0.656,214.000,163.000,201.000,167.500
0.657,213.500,162.000,200.000,167.000
0.658,214.500,161.500,200.000,167.500
0.659,214.500,161.000,199.000,167.500
0.660,215.000,161.000,199.000,168.000
0.661,215.000,160.500,198.500,167.500
0.662,215.500,160.500,198.500,168.000
0.663,215.000,160.000,198.500,167.500
0.664,215.000,160.000,199.000,167.500
0.665,214.500,159.500,199.000,167.500
0.666,214.500,160.000,200.000,167.500
0.667,213.500,159.500,200.500,167.500
0.668,214.000,160.000,201.500,168.000
0.669,213.500,159.500,201.500,168.000
0.670,214.000,160.000,202.500,168.500
0.671,213.500,159.500,202.000,168.000
0.672,214.000,159.500,202.000,168.000
0.673,214.000,159.000,201.000,167.500
0.674,214.000,159.000,201.000,167.000
0.675,213.500,158.500,200.000,166.000
0.676,213.500,159.000,200.000,166.000
0.677,213.000,158.500,199.500,165.000
0.678,212.500,158.500,200.000,165.500
0.679,212.000,158.500,200.000,165.500
0.680,212.000,159.000,200.500,166.000
0.681,211.500,159.000,200.000,166.000
0.682,212.000,159.500,201.000,166.500
0.683,211.500,159.500,201.000,167.000
0.684,211.500,160.000,202.000,167.500
0.685,211.000,160.000,202.000,168.000
0.686,211.000,160.000,203.000,169.000
0.687,210.500,160.000,203.500,169.500
0.688,210.500,160.000,205.000,171.000
0.689,209.500,160.000,205.500,171.500
0.690,209.000,160.500,206.000,172.500
0.691,208.000,160.000,206.500,173.000
0.692,208.000,160.500,207.000,174.000
0.693,207.000,160.500,207.500,174.000
0.694,207.500,161.000,208.500,175.000
0.695,207.000,161.500,209.500,175.500
0.696,207.500,162.500,211.000,176.500
0.697,207.000,163.000,211.500,177.500
0.698,207.500,164.000,213.000,178.500
0.699,207.500,164.500,213.500,179.500
0.700,208.000,165.500,214.500,180.500
0.701,208.000,166.000,215.000,181.000
0.702,208.500,167.500,216.000,182.500
0.703,209.000,168.000,216.500,183.000
0.704,209.500,169.000,217.500,184.000
0.705,209.000,169.500,218.000,185.000
0.706,209.500,170.500,219.500,186.000
0.707,209.000,170.500,220.000,186.000
0.708,209.500,171.500,221.000,187.000
0.709,209.000,171.500,221.500,187.000
0.710,209.500,172.500,223.000,188.000
0.711,209.000,172.500,223.500,188.000
0.712,210.000,173.500,224.500,188.500
0.713,210.000,174.500,225.000,188.000
0.714,210.500,175.500,226.500,188.500
0.715,210.500,176.500,227.000,188.500
0.716,211.000,177.500,228.000,189.000
0.717,210.500,177.500,228.500,189.000
0.718,210.500,178.500,229.000,189.500
0.719,210.000,179.000,229.000,189.500
0.720,210.000,179.500,230.000,190.500
0.721,209.500,179.500,230.000,190.500
0.722,209.500,180.500,230.500,191.000
0.723,209.500,180.500,230.500,190.500
0.724,210.000,181.000,231.500,191.000
0.725,210.000,181.000,231.500,191.000
0.726,210.500,182.000,232.500,191.500
0.727,210.500,182.000,233.000,191.500
0.728,211.000,183.000,233.500,192.000
0.729,210.500,183.500,233.500,191.500
0.730,211.000,184.500,234.000,192.000
0.731,210.500,185.000,233.500,191.500
0.732,210.500,186.000,234.000,191.500
0.733,210.000,186.500,233.500,191.000
0.734,210.000,187.000,233.000,190.500
0.735,209.500,187.000,232.000,189.500
0.736,210.000,187.000,232.000,189.000
0.737,210.000,186.500,231.000,188.500
0.738,210.500,186.500,231.500,188.500
0.739,210.000,185.500,231.000,188.000
0.740,210.500,185.500,231.500,188.500
0.741,210.000,185.000,231.000,189.000
0.742,210.000,185.500,232.000,190.000
0.743,209.500,185.500,232.000,190.000
0.744,209.500,186.000,232.500,191.000
0.745,209.000,185.500,232.500,191.000
0.746,209.000,186.000,233.000,191.500
0.747,208.000,186.000,233.500,191.500
0.748,208.500,186.000,234.500,192.000
0.749,208.000,185.000,234.500,191.500
0.750,208.000,185.000,235.500,192.000
0.751,207.500,184.000,235.500,192.000
0.752,208.000,184.000,236.000,192.500
0.753,207.500,183.500,235.500,192.500
0.754,208.000,183.500,236.000,192.500
0.755,207.500,182.500,235.500,192.000
0.756,208.000,182.000,235.500,192.500
0.757,207.500,181.000,235.000,192.000
0.758,208.000,180.500,235.500,192.000
0.759,207.500,179.500,235.000,191.500
0.760,208.000,179.000,235.500,192.000
0.761,208.000,178.000,235.500,191.500
0.762,209.000,177.500,236.000,191.500
0.763,209.000,176.500,235.500,191.500
0.764,209.500,176.000,236.000,191.500
0.765,209.000,175.000,236.000,191.500
0.766,209.500,174.500,236.500,192.000
0.767,209.000,173.500,236.000,192.000
0.768,209.000,173.500,236.500,193.000
0.769,208.500,172.500,236.000,192.500
0.770,208.000,172.000,236.500,193.000
0.771,207.500,171.500,236.000,192.500
0.772,207.000,171.000,236.000,192.500
0.773,206.000,170.500,235.000,191.500
0.774,206.000,170.500,234.500,191.000
0.775,205.000,170.000,233.500,190.500
0.776,205.000,170.500,233.000,190.500
0.777,204.500,170.000,232.000,190.000
0.778,204.500,171.000,232.000,190.000
0.779,204.000,171.000,231.000,190.000
0.780,204.000,172.000,231.000,190.000
0.781,203.500,172.500,230.500,190.000
0.782,204.000,173.500,231.000,190.000
0.783,203.500,173.500,231.000,189.500
0.784,203.500,174.500,231.500,190.000
0.785,203.000,175.000,231.500,189.500
0.786,203.500,176.500,232.000,189.500
0.787,203.000,177.000,232.000,189.500
0.788,203.500,178.500,233.000,189.500
0.789,203.000,179.500,232.500,189.500
0.790,204.000,181.000,233.000,190.000
0.791,204.000,182.000,232.500,189.500
0.792,205.000,183.000,232.500,190.000
0.793,205.000,184.000,231.500,189.500
0.794,205.500,185.000,231.500,190.000
0.795,205.000,185.500,231.000,189.500
0.796,205.500,187.000,231.000,189.500
0.797,204.500,187.500,230.500,188.500
0.798,204.500,188.500,230.500,188.500
0.799,204.000,189.000,230.000,188.000
0.800,204.000,190.500,230.000,187.500
0.801,203.500,191.000,229.500,187.000
0.802,204.000,192.000,230.000,187.000
0.803,204.000,192.500,230.000,186.500
0.804,204.500,193.500,230.500,187.000
0.805,204.500,194.000,230.500,187.000
0.806,205.000,195.500,231.500,187.500
0.807,205.000,196.000,231.500,187.500
0.808,205.500,196.500,232.000,188.500
0.809,205.000,196.500,231.500,188.500
0.810,205.000,197.000,231.500,189.000
0.811,204.500,197.000,231.000,188.500
0.812,205.000,197.500,231.000,189.000
0.813,205.000,197.000,230.500,189.000
0.814,205.500,197.500,231.000,189.000
0.815,205.500,197.000,230.500,188.500
0.816,206.000,197.000,230.500,188.000
0.817,205.500,196.500,230.000,187.000
0.818,206.000,196.500,230.000,187.000
0.819,205.500,195.500,229.000,186.000
0.820,205.500,195.500,229.000,186.000
0.821,204.500,195.000,228.500,185.500
0.822,204.500,195.500,228.500,185.500
0.823,203.500,195.000,228.000,185.000
0.824,203.500,195.000,228.500,185.000
0.825,203.000,194.500,228.000,184.500
0.826,203.500,194.500,228.000,185.000
0.827,203.000,194.000,228.000,185.000
0.828,203.500,194.500,228.500,186.000
0.829,203.500,194.500,229.000,186.500
0.830,204.500,195.000,230.500,188.000
0.831,204.500,195.500,231.500,188.500
0.832,205.000,196.500,233.500,190.000
0.833,205.000,197.000,235.000,190.500
0.834,205.500,198.000,237.000,192.000
0.835,205.500,198.500,238.500,192.500
0.836,206.000,200.000,240.500,193.500
0.837,206.000,200.500,241.000,194.000
0.838,206.500,201.000,242.500,195.000
0.839,206.500,201.000,242.500,195.500
0.840,207.500,202.000,243.500,196.000
0.841,208.000,202.000,243.500,196.000
0.842,209.000,202.000,244.000,196.500
0.843,209.000,201.500,243.500,196.500
0.844,210.000,201.500,243.500,196.500
0.845,210.000,200.500,242.500,196.000
0.846,210.000,200.000,241.500,195.500
0.847,209.500,198.000,240.000,194.500
0.848,209.000,197.000,238.500,194.000
0.849,208.000,195.000,236.500,192.500
0.850,207.500,193.500,235.500,192.000
0.851,206.500,191.000,233.500,190.500
0.852,206.500,190.000,233.000,190.500
0.853,206.000,188.000,232.000,190.000
0.854,206.500,187.500,232.000,190.000
0.855,206.500,186.500,231.000,189.000
0.856,207.000,186.500,231.000,189.000
0.857,207.000,186.000,230.500,188.500
0.858,207.500,186.500,231.000,189.000
0.859,207.500,186.000,231.000,188.500
0.860,208.000,186.000,231.500,189.000
0.861,208.000,185.000,231.000,189.000
0.862,208.500,185.000,231.500,189.500
0.863,208.000,184.500,231.000,190.000
0.864,208.500,185.000,232.000,191.000
0.865,208.500,184.500,232.000,191.500
0.866,209.000,185.000,233.000,192.500
0.867,209.000,185.000,233.000,193.000
0.868,209.000,185.500,233.500,194.000
0.869,208.500,185.500,233.000,194.000
0.870,209.000,185.500,233.500,194.000
0.871,208.000,185.000,233.500,193.500
0.872,208.000,185.000,233.500,194.000
0.873,207.500,184.500,233.000,194.000
0.874,207.500,184.500,233.500,194.500
0.875,207.000,184.000,233.500,194.500
0.876,207.500,184.500,233.500,195.000
0.877,207.000,184.000,233.000,194.500
0.878,207.500,184.500,233.500,195.000
0.879,207.000,184.500,233.000,195.000
0.880,207.500,184.500,233.000,195.500
0.881,207.500,184.000,232.500,195.500
0.882,208.000,184.000,232.500,196.500
0.883,207.500,183.500,232.500,196.500
0.884,208.000,184.000,232.500,197.000
0.885,207.500,183.500,232.000,197.000
0.886,208.500,184.000,232.000,197.500
0.887,208.500,184.500,231.500,197.000
0.888,209.000,185.500,231.500,197.500
0.889,209.000,185.500,231.000,197.500
0.890,209.500,186.500,231.000,198.000
0.891,209.000,187.000,230.000,197.500
0.892,209.000,187.500,230.000,198.000
0.893,208.000,187.500,229.000,197.500
0.894,208.000,188.500,229.000,198.000
0.895,207.500,188.500,228.000,198.000
0.896,207.500,189.500,228.000,198.000
0.897,207.500,189.500,227.000,197.500
0.898,207.500,190.500,227.000,197.500
0.899,207.000,190.500,226.500,197.000
0.900,207.000,192.000,226.500,197.000
0.901,206.500,192.500,225.500,196.500
0.902,206.500,193.500,226.000,196.500
0.903,206.000,193.500,225.500,196.500
0.904,206.000,194.500,225.500,196.500
0.905,205.500,194.500,225.000,196.000
0.906,205.500,195.000,225.000,196.500
0.907,205.000,195.000,224.000,196.000
0.908,205.500,195.500,224.500,196.000
0.909,204.500,195.500,224.000,195.000
0.910,204.500,196.500,224.000,195.000
0.911,204.000,196.000,223.500,194.000
0.912,204.000,196.500,223.500,194.000
0.913,204.000,196.500,222.500,193.000
0.914,204.000,197.000,222.500,193.000
0.915,204.000,196.500,222.000,192.000
0.916,204.500,197.000,222.000,192.500
0.917,204.500,196.500,221.500,192.000
0.918,205.000,197.500,222.000,192.000
0.919,204.500,197.500,221.500,192.000
0.920,204.500,197.500,222.500,192.000
0.921,204.000,197.500,222.500,192.000
0.922,204.000,197.500,223.000,192.500
0.923,203.500,197.500,223.000,192.000
0.924,203.500,198.000,224.000,192.500
0.925,203.000,198.000,224.000,192.500
0.926,203.000,198.500,224.500,192.500
0.927,202.500,198.000,224.500,192.000
0.928,203.000,198.500,225.500,192.000
0.929,202.500,198.000,225.000,191.500
0.930,202.500,198.500,225.500,191.500
0.931,202.500,198.000,225.500,191.000
0.932,202.500,198.500,226.000,191.000
0.933,202.500,198.000,226.000,191.000
0.934,203.000,198.000,226.500,191.500
0.935,203.000,197.500,226.500,191.000
0.936,203.500,197.500,227.000,191.000
0.937,203.500,197.000,226.500,190.500
0.938,204.000,197.000,227.000,190.500
0.939,204.000,196.000,226.500,189.500
0.940,204.500,196.000,227.000,189.000
0.941,204.000,195.500,227.000,188.500
0.942,204.500,195.500,227.500,188.500
0.943,204.000,194.500,227.000,188.000
0.944,204.000,194.000,227.500,188.500
0.945,203.500,193.500,227.500,188.500
0.946,203.500,193.000,228.000,189.000
0.947,203.500,192.500,228.000,189.000
0.948,204.000,192.500,229.000,189.500
0.949,204.000,192.000,229.000,189.000
0.950,204.500,192.000,229.500,189.500
0.951,204.500,191.000,229.500,189.500
0.952,205.000,191.000,230.000,189.500
0.953,205.000,190.000,229.500,189.000
0.954,205.500,190.000,229.500,189.000
0.955,205.500,189.000,229.000,188.500
0.956,206.000,188.500,229.500,188.500
0.957,206.000,187.500,229.000,188.000
0.958,206.500,187.000,229.000,188.000
0.959,206.500,186.500,228.500,187.500
0.960,207.000,186.000,228.500,188.000
0.961,207.000,185.500,228.000,187.500
0.962,207.000,185.000,228.000,188.000
0.963,206.000,184.500,227.000,187.500
0.964,206.000,184.500,227.000,188.000
0.965,205.000,184.000,226.500,188.000
0.966,204.500,184.000,226.500,188.000
0.967,203.500,183.500,226.500,188.000
0.968,203.500,183.500,227.000,188.000
0.969,203.000,183.500,226.500,188.000
0.970,203.000,183.500,227.000,188.500
0.971,203.000,183.500,227.000,188.000
0.972,203.500,183.500,227.000,188.500
0.973,203.500,183.500,226.500,188.000
0.974,204.000,184.000,226.500,188.000
0.975,204.500,184.000,226.000,188.000
0.976,205.500,185.000,226.500,188.500
0.977,205.500,185.500,226.000,188.500
0.978,206.500,186.500,226.000,189.000
0.979,206.500,187.000,225.500,189.500
0.980,207.500,188.500,226.000,190.000
0.981,207.000,189.000,225.500,190.000
0.982,207.500,190.000,225.500,190.500
0.983,207.000,190.500,225.000,190.500
0.984,207.000,191.500,225.500,191.000
0.985,206.500,192.500,225.000,190.500
0.986,206.500,194.000,225.000,191.000
0.987,205.500,194.500,224.500,191.000
0.988,206.000,196.000,224.000,191.000
0.989,205.500,196.500,223.000,190.500
0.990,206.000,197.500,223.000,191.000
0.991,206.000,197.500,222.500,190.000
0.992,206.500,198.500,222.500,190.000
0.993,206.500,198.500,222.000,189.500
0.994,207.500,199.500,222.000,189.500
0.995,207.500,199.500,221.500,189.500
0.996,208.000,200.000,221.500,189.500
0.997,207.500,200.000,221.000,189.500
0.998,208.500,200.500,221.500,190.000
0.999,208.500,200.500,221.000,190.000
1.000,209.000,201.500,222.000,190.500
1.001,209.000,201.500,222.000,190.500
1.002,209.000,202.500,223.000,191.500
1.003,208.500,202.500,223.500,191.500
1.004,209.000,202.500,224.500,192.000
1.005,209.000,202.000,224.500,191.500
1.006,209.500,202.500,225.500,192.000
1.007,209.000,202.000,225.000,192.000
1.008,209.500,202.000,225.500,192.500
1.009,209.500,201.500,225.500,192.000
1.010,209.500,202.000,225.500,192.500
1.011,209.500,201.500,225.000,192.000
1.012,210.000,201.500,225.000,192.000
1.013,210.000,201.000,224.500,191.500
1.014,210.500,200.500,224.500,191.500
1.015,210.000,200.000,224.500,190.500
1.016,210.000,199.500,225.000,191.000
1.017,209.500,199.000,224.500,190.500
1.018,210.000,199.000,225.500,190.500
1.019,209.500,198.500,225.500,190.500
1.020,209.500,198.500,226.000,190.500
1.021,209.000,198.000,226.000,190.500
1.022,209.500,198.000,226.000,191.000
1.023,209.500,197.500,225.500,191.000
1.024,210.000,197.500,226.000,191.500
1.025,209.500,196.500,226.000,191.500
1.026,210.500,196.500,226.500,192.000
1.027,210.500,196.000,226.000,192.000
1.028,211.000,195.500,226.500,192.500
1.029,211.000,194.500,226.000,192.000
1.030,211.500,194.500,226.500,192.000
1.031,211.000,193.500,226.000,191.000
1.032,211.500,193.500,226.000,191.000
1.033,211.000,192.500,225.500,190.500
1.034,211.000,193.000,226.000,190.500
1.035,210.500,192.500,225.500,190.000
1.036,210.000,193.000,225.500,190.000
1.037,209.500,192.500,225.000,190.000
1.038,209.500,193.000,225.000,190.000
1.039,209.000,193.000,224.500,190.000
1.040,209.500,193.500,225.000,190.500
1.041,209.500,193.000,225.000,191.000
1.042,210.000,194.000,226.000,192.000
1.043,210.000,194.000,226.500,192.500
1.044,210.500,194.500,227.500,193.500
1.045,210.000,194.500,227.500,193.500
1.046,210.500,195.000,228.500,194.500
1.047,210.000,195.000,229.000,194.500
1.048,210.500,195.000,229.500,195.000
1.049,210.000,194.500,229.500,195.000
1.050,210.000,194.500,230.000,195.500
1.051,209.000,193.500,229.500,195.500
1.052,209.000,193.500,229.500,195.500
1.053,208.500,193.000,228.500,195.500
1.054,208.500,193.000,228.000,195.500
1.055,208.000,192.500,227.000,194.500
1.056,208.500,193.000,227.000,194.500
1.057,208.500,192.500,226.000,193.500
1.058,209.000,192.500,226.000,193.500
1.059,209.000,191.500,225.500,193.000
1.060,209.000,191.500,225.500,193.000
1.061,208.500,190.500,225.000,192.500
1.062,209.000,190.500,225.000,192.500
1.063,209.000,189.500,224.000,192.000
1.064,209.500,189.500,224.000,192.000
1.065,209.000,189.000,223.500,192.000
1.066,209.500,189.000,223.500,192.000
1.067,209.000,188.000,222.500,192.000
1.068,209.500,187.500,222.500,192.000
1.069,208.500,186.500,222.000,192.000
1.070,208.500,186.500,222.000,192.000
1.071,208.000,185.500,221.000,192.000
1.072,207.500,185.500,221.000,192.000
1.073,207.000,184.500,220.500,191.500
1.074,207.000,184.500,221.000,191.500
1.075,206.500,184.000,220.500,190.500
1.076,207.000,184.500,220.000,190.000
1.077,206.500,184.000,219.000,188.500
1.078,207.000,183.500,218.500,188.000
1.079,207.000,183.000,217.000,186.500
1.080,208.000,182.500,216.500,185.500
1.081,208.000,182.000,215.000,184.000
1.082,209.000,182.000,215.000,183.000
1.083,209.000,181.500,214.000,182.000
1.084,209.000,181.500,214.500,182.000
1.085,208.500,181.500,214.500,182.000
1.086,208.500,182.000,215.500,182.500
1.087,208.000,182.500,216.000,183.000
1.088,208.500,183.500,217.000,183.500
1.089,208.000,183.500,217.500,183.500
1.090,208.500,184.500,218.500,184.500
1.091,208.500,184.500,218.500,184.000
1.092,208.500,185.500,219.000,184.500
1.093,208.500,186.000,218.500,183.500
1.094,209.000,186.500,219.000,183.500
1.095,209.000,186.500,219.000,183.000
1.096,209.500,187.500,220.000,183.000
1.097,210.000,187.500,220.000,182.500
1.098,210.500,187.500,220.500,182.500
1.099,210.500,187.000,220.000,181.500
1.100,211.000,187.500,220.500,181.500
1.101,210.500,187.000,220.500,180.500
1.102,210.500,187.000,221.000,180.500
1.103,210.000,187.000,221.000,180.000
1.104,210.000,187.500,222.000,180.000
1.105,209.500,187.500,222.000,179.500
1.106,209.500,188.000,222.500,180.000
1.107,208.500,188.500,222.500,179.500
1.108,208.500,189.500,223.500,180.000
1.109,207.500,190.000,223.500,179.500
1.110,207.500,190.500,224.000,180.000
1.111,206.500,190.000,224.000,180.000
1.112,206.500,190.500,224.500,180.000
1.113,206.000,190.000,224.500,179.000
1.114,206.000,190.000,225.000,179.500
1.115,206.000,189.500,225.000,179.000
1.116,206.000,190.000,225.500,179.500
1.117,206.000,189.500,225.000,179.500
1.118,206.000,190.000,226.000,180.500
1.119,205.500,189.500,226.000,181.000
1.120,206.000,190.000,227.000,182.000
1.121,205.000,190.000,227.000,182.000
1.122,205.000,190.500,228.500,183.000
1.123,204.500,190.000,228.500,183.000
1.124,204.500,190.500,229.500,183.500
1.125,204.000,190.000,229.500,183.000
1.126,204.500,190.000,230.000,183.000
1.127,204.000,189.500,230.000,183.000
1.128,204.500,189.500,230.000,183.000
1.129,204.500,189.000,230.000,183.000
1.130,205.000,189.000,230.500,183.000
1.131,204.500,188.500,230.000,183.000
1.132,205.000,188.500,230.500,183.000
1.133,205.000,188.000,230.000,182.500
1.134,205.500,188.000,230.500,182.500
1.135,205.500,187.000,229.500,182.000
1.136,206.000,187.000,229.500,181.500
1.137,205.500,186.500,228.500,180.500
1.138,206.000,186.500,228.000,180.000
1.139,206.000,186.000,227.000,179.500
1.140,206.000,186.000,227.000,179.500
1.141,206.000,185.500,226.500,179.000
1.142,206.500,185.500,227.000,179.000
1.143,206.000,185.000,226.500,179.000
1.144,206.500,185.500,227.000,179.500
1.145,206.000,185.000,227.000,179.500
1.146,206.500,185.500,227.500,180.000
1.147,206.000,185.500,227.000,179.500
1.148,206.500,186.500,227.500,180.000
1.149,206.000,186.500,227.000,179.500
1.150,206.500,186.500,227.000,180.000
1.151,206.500,186.000,226.500,179.500
1.152,207.000,186.500,226.500,180.000
1.153,207.000,186.000,226.500,179.500
1.154,207.500,186.500,227.000,180.000
1.155,207.500,186.000,226.500,179.500
1.156,207.500,186.000,227.000,180.000
1.157,207.000,185.000,226.500,179.500
1.158,207.500,184.500,226.500,179.500
1.159,207.000,183.500,225.500,178.500
1.160,207.500,183.000,225.000,178.500
1.161,207.500,182.500,224.000,178.000
1.162,208.000,182.500,224.500,178.500
1.163,207.500,182.000,224.500,179.000
1.164,207.500,183.000,225.500,180.000
1.165,207.000,183.000,226.000,180.500
1.166,207.000,184.000,227.500,181.500
1.167,206.500,184.500,228.000,181.500
1.168,207.000,185.000,228.500,182.500
1.169,207.000,185.000,228.500,182.000
1.170,207.500,185.000,228.500,182.500
1.171,207.000,184.500,228.000,181.500
1.172,207.500,184.500,228.000,181.500
1.173,207.500,184.000,227.000,181.000
1.174,208.000,184.500,227.000,181.000
1.175,208.000,184.000,226.500,180.500
1.176,208.500,185.000,227.000,180.500
1.177,208.000,185.000,226.500,180.500
1.178,208.500,186.000,227.000,181.000
1.179,208.000,186.000,227.000,181.000
1.180,208.000,187.000,228.000,182.000
1.181,207.500,187.000,228.000,182.000
1.182,208.000,188.000,229.000,183.000
1.183,208.000,188.000,229.000,183.500
1.184,208.500,188.500,230.000,185.000
1.185,209.000,189.000,230.500,185.500
1.186,209.500,190.000,231.500,187.000
1.187,209.500,190.000,232.000,188.500
1.188,210.000,190.500,232.500,190.500
1.189,209.500,190.500,232.500,192.000
1.190,210.000,191.000,233.500,194.000
1.191,209.500,191.000,233.500,195.500
1.192,209.500,191.000,233.500,197.000
1.193,209.500,190.000,232.500,197.500
1.194,210.500,189.000,231.500,198.500
1.195,211.000,187.500,229.500,198.500
1.196,212.500,186.000,228.000,198.500
1.197,213.000,183.500,225.000,198.000
1.198,214.500,181.500,222.500,197.500
1.199,215.000,178.000,219.000,196.000
1.200,216.500,175.000,215.000,194.500
1.201,217.000,171.000,210.000,192.000
1.202,218.500,167.500,205.000,190.000
1.203,219.000,162.500,199.000,187.500
1.204,220.500,158.500,194.000,186.000
1.205,221.000,153.500,188.000,183.500
1.206,223.000,148.500,182.000,181.500
1.207,224.000,142.500,175.000,178.500
1.208,226.500,136.000,166.500,174.500
1.209,228.000,128.000,156.000,168.000
1.210,231.000,120.000,144.000,160.500
1.211,233.500,110.500,130.000,150.500
1.212,237.000,101.000,116.000,140.000
1.213,239.500,91.000,101.500,129.000
1.214,242.000,83.000,89.000,119.000
1.215,244.000,76.000,78.500,110.000
1.216,246.000,71.000,71.000,103.500
1.217,246.500,67.500,65.500,98.000
1.218,247.500,66.500,63.500,94.500
1.219,247.500,67.000,63.000,91.000
1.220,247.500,69.000,65.000,89.500
1.221,247.000,72.000,67.500,87.500
1.222,246.500,77.000,72.500,87.000
1.223,245.000,82.500,78.000,87.000
1.224,243.500,89.000,85.500,87.500
1.225,241.500,95.000,92.500,88.500
1.226,240.500,102.000,101.000,90.000
1.227,238.500,109.000,109.000,92.000
1.228,237.000,116.000,118.500,96.000
1.229,234.500,123.000,128.500,100.500
1.230,232.500,131.000,139.500,106.500
1.231,230.000,139.000,150.500,112.500
1.232,227.500,147.500,162.000,119.000
1.233,224.500,155.000,173.000,125.500
1.234,222.000,163.000,184.000,131.500
1.235,219.000,170.500,194.000,136.500
1.236,217.500,177.500,203.000,141.500
1.237,215.000,183.000,211.000,145.000
1.238,214.000,188.000,218.000,149.000
1.239,212.000,191.500,223.500,152.000
1.240,211.000,195.500,228.500,155.000
1.241,209.500,197.500,233.000,158.000
1.242,208.500,200.000,237.500,162.000
1.243,207.000,201.000,240.500,165.500
1.244,206.500,202.500,244.000,169.500
1.245,205.500,202.500,246.000,172.500
1.246,205.000,203.000,248.000,175.500
1.247,204.500,202.000,248.500,178.000
1.248,205.000,201.500,249.500,180.500
1.249,205.000,200.500,249.500,182.500
1.250,205.500,200.000,250.000,184.500
1.251,205.500,198.500,249.500,186.000
1.252,206.000,198.000,249.500,187.500
1.253,206.000,196.500,249.000,188.500
1.254,206.500,196.000,249.500,189.500
1.255,206.000,195.000,249.000,190.000
1.256,206.500,195.000,249.500,191.000
1.257,206.000,194.500,249.500,191.000
1.258,206.000,194.500,250.000,192.000
1.259,205.500,194.500,250.000,192.000
1.260,205.500,195.000,250.500,193.000
1.261,205.000,195.000,250.500,193.000
1.262,205.000,196.000,251.000,194.000
1.263,204.500,196.000,251.000,194.000
1.264,205.000,196.500,251.500,194.500
1.265,205.000,196.500,251.500,194.000
1.266,205.500,197.000,251.500,194.500
1.267,205.000,197.500,251.500,194.500
1.268,205.000,198.500,252.000,195.000
1.269,204.500,199.000,252.000,194.500
1.270,204.500,200.000,252.500,195.000
1.271,204.000,200.000,252.000,195.000
1.272,204.000,200.500,252.000,195.000
1.273,203.000,199.500,251.500,194.500
1.274,203.000,199.500,251.000,194.000
1.275,202.500,199.000,250.000,193.500
1.276,203.000,199.000,249.000,193.000
1.277,202.500,198.500,248.000,192.500
1.278,203.000,199.000,247.500,192.500
1.279,202.500,199.500,247.000,192.000
1.280,203.000,200.500,247.500,192.500
1.281,203.000,201.000,247.500,193.000
1.282,204.000,202.500,249.500,194.500
1.283,204.000,203.500,251.000,195.500
1.284,204.500,205.000,253.000,197.500
1.285,204.000,206.000,254.500,199.000
1.286,204.500,207.500,256.500,200.500
1.287,204.000,208.000,257.500,201.000
1.288,204.500,209.000,259.000,201.500
1.289,204.000,209.000,259.000,201.500
1.290,204.000,209.000,259.000,201.500
1.291,204.000,208.500,258.000,200.500
1.292,204.000,208.000,257.500,199.500
1.293,203.500,207.000,256.000,198.000
1.294,203.500,207.000,255.000,197.000
1.295,203.000,206.000,253.000,195.500
1.296,203.000,205.500,252.000,194.500
1.297,202.500,204.000,250.500,193.000
1.298,202.500,203.500,249.000,192.000
1.299,202.500,202.500,247.000,190.500
1.300,203.000,202.500,246.000,189.500
1.301,203.000,201.500,245.000,188.500
1.302,204.000,201.500,245.000,188.500
1.303,204.000,201.000,244.500,187.500
1.304,205.000,202.000,245.000,188.000
1.305,205.000,202.000,245.000,187.500
1.306,205.500,203.000,246.000,187.500
1.307,205.500,203.000,245.500,187.000
1.308,205.500,203.500,246.000,186.500
1.309,205.000,203.000,245.000,185.000
1.310,205.000,203.500,245.000,184.500
1.311,204.500,203.000,244.500,183.000
1.312,204.500,203.000,244.500,182.000
1.313,204.000,202.500,244.000,180.500
1.314,204.500,202.500,244.000,179.500
1.315,204.000,202.000,243.500,177.500
1.316,204.500,202.500,244.000,176.500
1.317,204.000,202.000,243.500,175.000
1.318,204.500,202.500,244.000,174.000
1.319,204.000,202.000,243.500,173.000
1.320,204.500,202.500,243.500,172.500
1.321,204.000,202.000,243.500,171.500
1.322,205.000,202.500,244.000,171.000
1.323,205.000,202.000,243.500,170.000
1.324,206.000,202.000,244.000,170.000
1.325,206.000,201.500,244.000,169.000
1.326,206.500,201.500,244.000,169.000
1.327,206.500,200.500,243.500,168.000
1.328,206.500,200.500,243.500,167.500
1.329,206.000,200.000,243.000,167.000
1.330,206.500,200.000,243.000,166.500
1.331,206.000,200.000,242.500,166.000
1.332,206.500,200.500,243.000,165.500
1.333,206.000,200.000,242.500,164.000
1.334,206.500,200.500,242.500,163.500
1.335,206.500,200.500,242.000,162.500
1.336,207.000,201.000,242.000,162.000
1.337,207.500,201.000,241.000,161.500
1.338,208.000,202.000,241.500,161.000
1.339,208.000,202.500,240.500,160.500
1.340,209.000,204.000,241.000,160.500
1.341,209.000,204.500,240.500,160.000
1.342,209.500,206.000,241.000,160.500
1.343,209.500,206.000,240.500,160.000
1.344,210.000,207.000,240.500,160.000
1.345,209.500,207.000,240.000,159.500
1.346,210.000,208.000,240.500,159.500
1.347,209.500,207.500,240.000,159.000
1.348,209.500,208.000,240.500,159.000
1.349,209.000,208.000,240.000,158.500
1.350,209.500,209.000,240.000,158.000
1.351,209.000,209.000,239.500,157.500
1.352,209.000,210.000,239.500,157.500
1.353,208.500,210.500,238.500,156.500
1.354,209.000,211.000,238.500,156.500
1.355,209.000,211.000,237.500,156.000
1.356,209.000,211.500,237.500,155.500
1.357,208.500,211.000,237.000,155.000
1.358,209.000,211.000,237.500,155.000
1.359,208.500,210.500,237.000,154.500
1.360,209.000,210.500,237.500,154.500
1.361,208.500,210.000,237.000,154.500
1.362,208.500,210.000,237.500,155.000
1.363,208.000,210.000,237.500,155.500
1.364,208.000,210.500,237.500,156.500
1.365,207.500,210.000,237.000,157.000
1.366,208.000,210.500,237.500,158.500
1.367,207.500,210.000,237.000,159.000
1.368,208.000,210.000,237.500,160.000
1.369,208.000,209.500,237.500,160.000
1.370,209.000,209.500,238.000,160.500
1.371,208.500,209.000,238.000,160.500
1.372,209.000,208.500,238.500,161.000
1.373,209.000,207.500,238.000,161.000
1.374,209.000,207.500,238.500,161.500
1.375,208.500,206.500,238.000,161.500
1.376,209.000,206.500,238.000,162.000
1.377,208.500,205.500,237.500,162.500
1.378,209.000,205.500,238.000,164.000
1.379,208.500,205.000,238.000,165.000
1.380,209.000,205.000,239.000,166.500
1.381,208.500,205.000,239.000,167.500
1.382,209.000,205.000,240.000,169.000
1.383,208.500,205.000,240.000,170.000
1.384,209.000,205.500,240.500,171.500
1.385,208.500,205.000,240.000,172.500
1.386,209.000,205.500,240.500,173.500
1.387,208.500,205.000,240.000,174.500
1.388,208.500,205.000,240.000,176.000
1.389,208.000,204.000,239.500,176.500
1.390,208.500,203.500,240.000,178.000
1.391,208.000,202.500,239.500,178.500
1.392,208.000,201.500,239.500,179.500
1.393,207.500,200.500,238.500,180.000
1.394,207.500,200.000,238.500,181.000
1.395,207.000,198.500,237.500,181.500
1.396,207.500,198.000,237.500,182.500
1.397,207.000,197.000,237.000,183.500
1.398,208.000,196.500,237.000,185.000
1.399,208.000,195.500,236.500,186.000
1.400,209.000,195.000,237.000,187.500
1.401,209.000,193.500,236.000,188.500
1.402,209.500,193.000,236.000,189.500
1.403,209.000,192.000,235.000,190.000
1.404,208.500,191.500,235.000,191.500
1.405,207.500,190.500,234.000,192.000
1.406,207.000,190.000,233.500,193.500
1.407,206.000,189.000,233.000,195.000
1.408,206.000,189.000,232.500,196.500
1.409,205.000,188.000,232.000,197.500
1.410,205.500,187.500,231.500,199.500
1.411,205.500,186.500,231.000,200.500
1.412,206.000,186.500,230.500,201.500
1.413,206.500,185.500,229.500,202.000
1.414,207.500,185.500,229.000,203.000
1.415,208.000,185.000,228.000,203.500
1.416,209.000,185.500,227.500,204.000
1.417,209.500,185.000,226.500,204.000
1.418,210.000,185.500,226.500,204.500
1.419,210.000,185.500,225.000,204.500
1.420,210.500,185.500,224.500,205.000
1.421,210.000,185.000,223.500,205.000
1.422,210.000,185.500,222.500,205.500
1.423,209.000,185.000,221.000,205.500
1.424,209.000,185.500,220.500,205.500
1.425,208.500,185.500,219.500,205.500
1.426,209.000,186.500,219.000,206.000
1.427,208.500,187.000,218.500,206.000
1.428,209.000,188.000,218.500,206.500
1.429,208.500,188.000,218.000,206.000
1.430,209.000,189.000,218.000,206.000
1.431,209.000,189.500,217.000,205.500
1.432,209.500,190.000,216.500,205.000
1.433,209.500,190.000,215.500,204.000
1.434,209.500,190.500,215.000,203.500
1.435,209.000,190.500,214.000,203.000
1.436,209.500,191.000,213.500,202.500
1.437,209.000,190.500,212.500,202.000
1.438,209.000,191.000,212.000,202.000
1.439,208.500,190.500,211.500,201.000
1.440,208.500,191.500,211.500,201.000
1.441,208.000,191.500,211.000,200.500
1.442,208.000,192.000,211.500,200.500
1.443,208.000,192.000,211.000,200.000
1.444,208.500,193.000,211.000,199.500
1.445,208.500,193.000,210.500,199.000
1.446,209.000,193.000,211.000,198.500
1.447,209.000,192.500,210.500,198.000
1.448,209.500,192.500,211.000,197.500
1.449,210.000,192.000,211.000,197.000
1.450,210.500,191.500,211.500,197.000
1.451,210.500,190.500,211.500,196.500
1.452,211.500,190.500,212.000,196.500
1.453,211.000,189.500,212.000,196.000
1.454,211.500,189.500,212.000,196.000
1.455,211.000,189.000,211.500,195.000
1.456,211.500,189.000,212.000,195.000
1.457,211.000,188.500,211.000,194.000
1.458,211.000,188.500,211.000,194.000
1.459,211.000,187.500,210.500,193.000
1.460,211.500,187.500,211.000,192.500
1.461,211.500,187.000,210.500,191.500
1.462,212.000,187.000,211.000,191.000
1.463,211.500,187.000,211.000,190.500
1.464,212.000,187.000,211.500,190.500
1.465,211.500,186.500,211.500,189.500
1.466,211.500,186.500,212.500,189.500
1.467,211.000,186.000,212.500,189.000
1.468,211.500,186.000,213.500,189.000
1.469,211.000,185.500,214.000,188.500
1.470,211.500,185.500,215.000,188.500
1.471,211.000,185.000,215.000,188.500
1.472,211.500,185.500,215.500,188.500
1.473,211.000,185.000,215.500,188.500
1.474,211.500,185.000,215.500,188.500
1.475,211.500,184.500,215.000,188.500
1.476,212.000,185.000,215.500,189.000
1.477,211.500,184.500,215.500,188.500
1.478,212.000,185.000,216.500,189.000
1.479,212.000,185.000,216.500,189.000
1.480,212.000,185.500,217.500,190.000
1.481,211.000,185.500,218.000,190.000
1.482,211.000,185.500,218.500,190.500
1.483,210.000,185.500,219.000,190.500
1.484,210.000,185.500,219.500,191.500
1.485,209.000,185.500,220.000,192.000
1.486,209.000,186.000,221.000,193.000
1.487,208.500,186.000,221.500,193.000
1.488,209.000,187.000,223.000,194.000
1.489,208.500,187.000,223.500,194.000
1.490,209.000,187.500,225.000,194.500
1.491,209.000,187.500,226.000,194.500
1.492,209.500,188.500,227.500,195.000
1.493,209.500,188.000,228.000,195.000
1.494,210.500,188.500,228.500,195.500
1.495,210.000,188.500,228.500,195.000
1.496,210.500,189.000,229.000,195.500
1.497,210.000,189.000,228.500,195.000
1.498,210.500,189.500,229.500,195.000
1.499,210.000,189.500,229.500,195.000
1.500,210.500,190.500,230.000,195.500
1.501,210.000,190.500,230.500,195.000
1.502,210.500,191.500,231.000,195.500
1.503,210.500,191.500,231.000,195.000
1.504,210.500,192.000,232.000,195.500
1.505,210.000,192.000,232.000,195.000
1.506,210.500,193.000,233.000,195.500
1.507,210.000,192.500,233.000,195.000
1.508,210.500,193.000,233.500,195.500
1.509,210.000,193.000,233.500,195.000
1.510,210.500,194.000,234.000,194.500
1.511,210.500,194.500,234.000,194.000
1.512,211.000,195.500,235.000,193.500
1.513,210.500,195.500,235.500,193.000
1.514,211.000,196.500,236.000,192.500
1.515,211.000,197.000,236.000,192.000
1.516,211.500,197.500,237.000,192.000
1.517,211.000,197.500,237.000,191.000
1.518,211.500,198.500,237.500,191.000
1.519,211.000,198.500,237.000,190.500
1.520,211.000,199.000,237.500,190.500
1.521,210.500,199.000,237.500,190.000
1.522,210.500,199.500,237.500,190.000
1.523,210.000,199.500,237.500,189.500
1.524,210.000,200.000,238.000,189.500
1.525,209.000,200.000,237.500,189.000
1.526,209.000,200.500,238.500,189.000
1.527,208.500,200.500,238.500,188.500
1.528,208.000,201.500,239.000,188.500
1.529,207.500,201.000,239.000,188.000
1.530,207.500,201.500,239.500,188.000
1.531,206.500,201.500,239.500,187.500
1.532,207.000,202.000,240.000,187.500
1.533,206.500,201.500,240.000,187.000
1.534,207.500,202.000,240.500,187.000
1.535,207.500,202.000,240.000,186.500
1.536,208.500,202.500,240.500,187.000
1.537,209.000,202.500,240.500,186.500
1.538,210.000,203.500,241.000,186.500
1.539,210.500,203.000,240.500,186.000
1.540,211.500,203.500,241.000,186.500
1.541,212.000,203.000,241.000,186.000
1.542,212.500,203.000,241.500,186.000
1.543,212.000,202.000,241.000,186.000
1.544,212.000,202.000,241.500,186.000
1.545,211.000,201.000,241.500,186.000
1.546,211.000,201.000,241.500,186.000
1.547,210.500,200.500,241.500,185.500
1.548,211.000,200.500,242.000,186.000
1.549,210.500,200.000,242.000,185.500
1.550,211.500,200.000,242.500,185.500
1.551,211.000,199.500,242.500,185.000
1.552,211.500,199.500,242.500,185.000
1.553,211.500,198.500,242.000,184.500
1.554,211.500,199.000,242.000,184.500
1.555,211.500,198.500,241.500,184.000
1.556,211.500,199.000,241.500,184.500
1.557,211.000,198.500,241.000,184.000
1.558,211.500,198.500,241.500,184.000
1.559,211.000,197.500,241.000,183.000
1.560,211.000,197.500,242.000,183.000
1.561,210.500,197.000,241.500,182.500
1.562,210.500,197.500,242.000,182.500
1.563,210.000,197.000,242.000,182.000
1.564,210.000,197.500,242.000,182.500
1.565,209.500,197.500,241.500,182.500
1.566,210.000,198.000,242.000,183.000
1.567,210.000,198.000,242.000,183.000
1.568,210.500,199.000,242.500,183.500
1.569,210.500,199.000,242.500,184.000
1.570,211.000,200.000,243.000,184.500
1.571,211.000,200.000,242.500,184.500
1.572,211.500,201.000,243.000,185.000
1.573,211.000,201.000,242.500,185.000
1.574,211.000,201.500,242.500,185.500
1.575,211.000,201.500,241.500,185.500
1.576,211.500,202.500,242.000,185.500
1.577,211.500,202.500,241.000,185.500
1.578,212.000,203.000,241.500,186.500
1.579,211.500,203.000,241.000,187.000
1.580,212.000,204.000,241.000,188.000
1.581,211.500,204.000,240.500,188.000
1.582,212.000,204.500,241.000,189.000
1.583,211.000,204.000,241.000,189.500
1.584,211.000,204.500,241.500,190.000
1.585,210.500,204.500,241.500,190.000
1.586,210.500,204.500,242.000,190.500
1.587,210.500,204.500,242.000,191.000
1.588,210.500,205.000,242.500,192.000
1.589,210.500,205.000,242.500,192.000
1.590,210.500,205.500,242.500,192.500
1.591,210.500,205.000,242.000,192.500
1.592,211.000,205.000,242.000,193.500
1.593,211.000,204.500,241.500,194.000
1.594,211.500,205.000,241.500,194.500
1.595,211.500,204.500,241.000,195.000
1.596,212.500,205.000,241.000,196.000
1.597,212.000,205.000,240.500,196.500
1.598,212.500,205.500,241.000,197.500
1.599,212.000,205.500,240.500,197.500
1.600,212.500,206.000,241.000,198.500
1.601,212.000,205.500,240.500,198.500
1.602,212.500,206.000,241.500,199.500
1.603,212.000,205.500,241.000,200.000
1.604,212.500,206.000,241.500,201.000
1.605,212.500,205.500,241.000,201.000
1.606,212.500,205.500,241.500,202.000
1.607,212.000,205.000,240.500,202.000
1.608,212.500,205.000,240.000,202.500
1.609,212.000,204.500,239.000,202.000
1.610,212.000,204.500,239.000,202.500
1.611,212.000,203.500,238.500,202.000
1.612,212.000,203.500,238.500,202.500
1.613,212.000,203.000,237.500,202.500
1.614,212.500,203.000,238.000,203.500
1.615,212.000,202.500,237.500,203.000
1.616,212.500,202.500,237.500,203.500
1.617,212.000,202.000,236.500,203.000
1.618,212.500,202.000,236.500,203.500
1.619,212.000,201.500,236.000,203.000
1.620,212.000,202.000,236.500,203.500
1.621,211.000,201.500,236.000,203.500
1.622,211.000,201.500,237.000,204.000
1.623,210.000,201.000,237.000,204.500
1.624,210.500,201.500,237.500,205.500
1.625,210.000,201.000,237.500,205.500
1.626,210.500,201.000,238.500,206.500
1.627,210.000,200.500,238.000,207.000
1.628,210.500,200.500,238.500,207.500
1.629,210.000,200.000,238.500,207.500
1.630,210.500,200.500,239.000,208.000
1.631,210.500,200.000,239.000,207.500
1.632,210.500,200.000,239.000,207.500
1.633,210.500,199.500,238.500,206.500
1.634,210.500,199.500,238.500,206.500
1.635,210.000,199.000,238.000,206.000
1.636,210.000,199.500,238.500,206.000
1.637,209.500,199.000,238.000,206.000
1.638,209.500,199.000,238.000,206.000
1.639,209.000,198.500,237.500,205.500
1.640,209.000,198.000,238.000,206.000
1.641,208.000,197.000,237.500,205.500
1.642,208.000,196.500,237.500,205.500
1.643,207.500,196.000,237.000,205.500
1.644,208.000,196.000,237.500,206.000
1.645,207.500,195.500,237.500,206.000
1.646,208.000,195.500,238.000,206.500
1.647,208.000,195.000,238.000,206.000
1.648,209.000,195.000,238.500,206.500
1.649,209.000,195.000,238.500,206.500
1.650,210.000,195.000,239.000,206.500
1.651,209.500,194.500,238.500,205.500
1.652,210.000,194.500,238.500,205.500
1.653,209.000,193.500,237.500,204.500
1.654,208.500,192.500,237.500,204.500
1.655,207.500,191.500,236.500,204.000
1.656,207.000,190.500,236.500,204.000
1.657,206.000,189.000,236.000,203.500
1.658,206.000,188.500,236.000,203.500
1.659,205.500,187.000,235.500,203.500
1.660,206.000,186.500,236.000,204.000
1.661,205.500,185.500,235.500,204.000
1.662,206.000,185.000,236.500,205.000
1.663,205.500,184.500,236.500,205.500
1.664,206.000,184.000,237.500,206.000
1.665,205.500,183.500,237.500,206.000
1.666,206.000,183.500,238.500,207.000
1.667,205.500,183.000,238.500,207.000
1.668,206.000,183.500,239.500,207.500
1.669,206.000,183.000,239.000,207.000
1.670,206.000,183.000,239.000,207.500
1.671,205.000,182.000,238.000,207.500
1.672,205.000,182.000,238.000,208.000
1.673,204.500,181.000,237.000,207.500
1.674,204.500,181.000,237.000,208.000
1.675,204.000,180.000,236.000,208.000
1.676,204.500,180.000,236.000,208.500
1.677,204.000,179.000,235.500,208.500
1.678,204.500,179.000,235.500,209.000
1.679,204.500,178.000,234.500,208.500
1.680,205.500,178.000,235.000,209.000
1.681,205.000,177.500,234.500,209.000
1.682,205.500,177.500,235.000,209.500
1.683,205.000,177.500,235.000,209.500
1.684,205.000,177.500,235.000,210.000
1.685,204.500,177.500,234.500,210.000
1.686,204.500,178.000,235.000,210.500
1.687,204.000,178.000,235.000,210.500
1.688,204.000,178.500,235.000,211.000
1.689,203.500,178.500,235.000,211.000
1.690,204.000,179.000,235.000,211.500
1.691,203.500,179.000,234.500,211.000
1.692,204.000,180.000,235.000,211.500
1.693,204.000,180.000,234.000,211.000
1.694,204.500,181.000,234.500,212.000
1.695,204.000,181.000,234.000,212.000
1.696,204.500,182.000,234.500,213.000
1.697,204.500,182.000,234.000,213.000
1.698,205.000,183.000,234.500,213.500
1.699,205.000,183.500,234.500,213.500
1.700,206.000,184.000,234.500,214.500
1.701,205.500,184.000,234.000,214.000
1.702,206.000,184.500,234.500,214.500
1.703,206.000,184.000,234.000,214.500
1.704,206.000,184.000,234.000,215.000
1.705,205.000,183.500,234.000,214.500
1.706,205.000,183.500,234.500,215.000
1.707,204.000,183.500,234.500,215.000
1.708,204.500,184.000,235.000,215.500
1.709,204.000,183.500,235.000,215.000
1.710,204.000,184.000,235.000,215.000
1.711,203.500,184.000,234.500,214.500
1.712,204.000,184.000,235.000,214.000
1.713,203.500,184.000,234.000,213.000
1.714,203.500,184.000,234.000,212.500
1.715,202.500,183.500,233.500,211.500
1.716,202.500,184.000,234.000,211.500
1.717,202.000,183.500,233.500,210.500
1.718,202.000,184.000,234.000,210.500
1.719,201.500,184.000,234.000,210.000
1.720,202.000,184.500,234.500,210.500
1.721,201.500,184.500,234.500,210.000
1.722,202.000,185.000,235.000,210.500
1.723,201.500,184.500,234.500,210.000
1.724,202.000,184.500,235.000,210.000
1.725,201.500,184.000,234.500,209.500
1.726,201.500,184.000,234.500,209.000
1.727,200.500,183.500,234.000,208.000
1.728,201.000,183.500,234.500,208.000
1.729,200.500,183.000,234.000,207.500
1.730,200.500,183.500,235.000,207.500
1.731,200.000,183.500,235.000,207.500
1.732,200.500,184.500,236.000,208.000
1.733,200.500,185.000,236.500,208.000
1.734,201.500,187.000,238.000,209.000
1.735,201.500,188.000,239.500,209.500
1.736,202.500,190.000,241.000,210.500
1.737,202.500,191.500,242.000,210.500
1.738,203.000,193.000,243.500,211.500
1.739,203.000,193.500,244.000,211.000
1.740,204.000,194.000,244.500,211.000
1.741,204.000,194.000,244.000,210.500
1.742,204.500,194.000,244.500,210.500
1.743,204.500,193.000,244.000,209.500
1.744,205.000,193.000,244.000,209.000
1.745,205.000,192.500,243.000,208.500
1.746,205.000,192.000,242.500,208.000
1.747,204.500,191.500,241.500,207.000
1.748,205.000,191.000,241.000,206.500
1.749,204.500,190.000,239.500,205.000
1.750,205.000,189.000,238.000,204.000
1.751,204.500,187.500,236.500,202.500
1.752,205.000,187.000,235.000,201.500
1.753,204.500,186.000,233.000,200.000
1.754,205.000,185.500,232.000,199.000
1.755,205.000,185.000,230.500,198.000
1.756,205.000,184.500,230.000,197.500
1.757,204.500,184.000,229.000,196.500
1.758,204.500,183.500,229.000,196.500
1.759,204.000,182.500,228.500,196.000
1.760,203.500,182.500,228.000,196.000
1.761,203.000,181.500,227.500,195.500
1.762,203.000,181.000,227.000,195.500
1.763,202.500,180.000,226.000,194.500
1.764,203.000,180.000,226.000,194.500
1.765,203.000,179.000,225.500,193.500
1.766,203.500,179.500,226.000,193.500
1.767,203.000,179.000,225.500,193.500
1.768,203.500,179.500,226.500,194.000
1.769,203.500,179.000,226.500,194.500
1.770,204.000,179.500,227.000,195.000
1.771,204.000,179.000,227.000,195.000
1.772,204.000,179.000,227.000,195.500
1.773,204.000,178.000,226.500,195.000
1.774,204.000,177.500,226.500,194.500
1.775,203.500,176.500,225.500,193.500
1.776,204.000,176.500,225.000,193.500
1.777,203.500,175.500,224.500,193.000
1.778,204.000,176.000,224.500,193.500
1.779,203.500,176.000,224.500,193.000
1.780,204.000,176.500,224.500,193.500
1.781,203.500,176.500,224.500,193.500
1.782,204.500,177.500,225.000,194.000
1.783,204.500,177.500,225.000,194.000
1.784,205.000,178.000,225.500,194.500
1.785,205.000,178.000,225.500,194.500
1.786,206.000,178.500,226.500,195.500
1.787,206.500,178.500,227.000,195.500
1.788,207.000,179.000,227.500,196.500
1.789,207.000,178.500,227.500,197.000
1.790,207.500,179.000,228.000,197.500
1.791,207.500,178.500,227.500,197.500
1.792,207.500,178.500,227.500,198.500
1.793,207.000,178.000,227.000,198.500
1.794,207.000,178.000,227.500,199.000
1.795,206.500,177.500,226.500,198.500
1.796,207.000,177.500,226.500,198.500
1.797,207.000,177.000,226.000,198.000
1.798,207.500,177.000,225.500,198.000
1.799,207.500,176.000,225.000,197.000
1.800,208.500,176.000,225.000,196.500
1.801,208.500,175.500,224.500,196.000
1.802,209.500,176.000,224.500,196.000
1.803,209.500,176.000,224.500,196.000
1.804,210.000,176.500,225.000,196.000
1.805,209.500,177.000,225.000,196.000
1.806,210.000,178.000,225.500,197.000
1.807,209.500,178.000,226.000,197.000
1.808,209.500,179.000,226.500,198.000
1.809,209.000,179.000,226.500,198.000
1.810,209.500,179.500,227.500,198.500
1.811,209.000,179.000,227.500,198.500
1.812,209.000,179.500,228.000,199.000
1.813,208.500,179.500,227.500,199.000
1.814,209.000,180.000,227.500,199.000
1.815,208.500,179.500,226.500,198.500
1.816,208.500,179.500,226.500,198.500
1.817,208.000,179.000,225.500,197.500
1.818,207.500,179.000,225.500,197.500
1.819,206.500,178.000,225.000,196.500
1.820,206.500,178.000,225.000,196.500
1.821,205.500,177.500,225.000,195.500
1.822,205.000,178.000,225.500,195.500
1.823,203.500,177.500,225.500,195.000
1.824,203.000,178.000,226.000,195.500
1.825,202.000,177.500,226.000,195.500
1.826,202.000,178.000,226.500,196.000
1.827,201.500,178.000,226.500,195.500
1.828,201.500,178.500,227.000,195.500
1.829,201.500,179.000,226.500,195.500
1.830,202.000,179.500,227.000,195.500
1.831,201.500,180.000,227.000,195.500
1.832,202.500,181.000,227.500,196.000
1.833,202.500,181.500,227.500,196.000
1.834,203.500,182.500,228.000,196.500
1.835,203.500,183.000,227.500,196.000
1.836,204.000,184.000,228.000,196.500
1.837,204.000,184.000,227.500,196.000
1.838,204.500,185.000,227.500,196.500
1.839,204.000,185.500,227.000,196.000
1.840,204.500,186.000,227.000,196.000
1.841,204.000,186.000,226.500,195.500
1.842,204.500,186.500,227.000,196.000
1.843,204.000,186.500,227.000,195.500
1.844,204.500,186.500,227.500,196.000
1.845,204.000,185.500,227.000,195.500
1.846,204.000,185.500,227.500,196.000
1.847,203.500,185.000,227.000,196.000
1.848,204.000,185.000,227.500,196.500
1.849,203.500,185.000,227.500,196.000
1.850,204.000,185.500,228.000,196.500
1.851,204.000,185.500,228.000,196.000
1.852,204.500,186.000,228.500,196.000
1.853,204.500,186.000,228.500,195.500
1.854,205.000,186.000,228.500,195.000
1.855,204.500,185.500,228.000,194.500
1.856,205.000,185.500,227.500,194.000
1.857,204.500,185.000,226.500,193.000
1.858,204.500,185.000,226.500,192.500
1.859,204.000,185.000,226.000,192.000
1.860,204.000,185.000,225.500,192.000
1.861,203.000,185.000,225.000,191.500
1.862,203.000,185.500,225.000,192.000
1.863,202.500,185.000,225.000,191.500
1.864,203.000,185.500,225.500,192.000
1.865,202.500,185.500,225.000,192.000
1.866,203.000,185.500,226.000,192.500
1.867,203.000,185.500,226.000,192.500
1.868,203.500,186.000,227.000,193.500
1.869,203.500,186.500,227.500,194.000
1.870,204.500,187.000,228.500,195.000
1.871,204.500,187.500,228.500,195.500
1.872,205.000,188.000,229.500,196.000
1.873,205.000,188.000,229.500,196.000
1.874,205.500,188.500,230.000,196.000
1.875,205.500,188.000,229.500,195.500
1.876,206.000,188.000,229.500,195.500
1.877,206.000,187.500,229.000,194.500
1.878,206.500,187.500,229.500,195.000
1.879,206.500,187.000,229.000,194.500
1.880,207.000,187.500,229.500,195.000
1.881,206.500,187.000,229.500,195.000
1.882,206.500,187.500,230.500,196.000
1.883,206.000,187.500,230.500,196.500
1.884,206.500,188.000,231.500,197.500
1.885,206.500,187.500,231.000,197.500
1.886,206.500,188.000,231.500,198.500
1.887,206.000,188.000,231.000,198.000
1.888,206.500,188.000,231.500,198.500
1.889,206.000,187.500,230.500,198.500
1.890,206.500,188.000,230.500,199.000
1.891,206.000,187.500,230.000,198.500
1.892,206.500,188.000,230.000,199.000
1.893,206.500,188.000,229.500,198.500
1.894,207.000,189.000,230.000,199.000
1.895,207.000,189.000,229.500,198.500
1.896,207.500,189.000,229.500,198.000
1.897,207.000,189.000,228.500,197.500
1.898,207.000,189.000,228.500,197.000
1.899,206.500,188.000,228.000,196.500
1.900,207.000,188.000,228.000,196.500
1.901,207.000,187.500,227.500,196.000
1.902,207.000,187.500,228.000,196.000
1.903,206.500,186.500,227.500,195.000
1.904,207.000,187.000,227.500,195.000
1.905,206.500,186.500,227.000,194.500
1.906,206.500,187.000,227.500,194.500
1.907,206.000,186.500,227.000,194.000
1.908,206.000,186.500,227.000,194.000
1.909,205.500,186.000,226.500,193.500
1.910,206.000,186.000,226.500,194.000
1.911,205.500,185.000,226.000,193.500
1.912,206.000,185.000,225.500,193.500
1.913,206.000,184.500,225.000,192.500
1.914,206.500,184.500,225.000,192.500
1.915,206.500,184.500,224.000,191.500
1.916,207.000,184.500,224.500,191.500
1.917,206.500,184.500,224.000,190.500
1.918,207.000,185.000,224.000,190.000
1.919,207.000,185.000,223.500,189.000
1.920,208.000,185.500,223.500,188.500
1.921,208.500,185.500,222.500,187.000
1.922,209.500,186.000,222.500,186.500
1.923,209.500,185.500,221.500,185.000
1.924,210.000,185.500,221.500,184.000
1.925,209.500,185.000,220.500,182.500
1.926,210.000,185.000,220.000,182.000
1.927,209.500,184.500,219.500,180.500
1.928,209.500,184.500,219.500,179.500
1.929,209.000,184.500,219.000,178.500
1.930,209.000,185.000,219.500,178.500
1.931,208.500,185.500,219.500,178.500
1.932,209.000,186.500,220.500,179.000
1.933,208.500,186.500,220.500,178.500
1.934,209.000,187.500,221.000,179.000
1.935,208.500,187.500,220.500,178.500
1.936,208.500,188.000,221.000,178.500
1.937,208.000,187.500,221.000,178.000
1.938,208.000,188.000,221.500,178.500
1.939,207.500,187.500,221.000,178.000
1.940,208.000,187.500,221.500,178.500
1.941,207.500,187.500,221.000,178.000
1.942,207.500,188.000,221.000,178.000
1.943,206.500,188.000,221.000,177.000
1.944,206.500,188.500,221.500,177.000
1.945,206.000,188.500,221.500,176.500
1.946,206.000,189.000,222.000,176.500
1.947,206.000,188.500,221.500,176.000
1.948,206.000,189.000,222.000,176.000
1.949,206.000,188.500,221.500,175.500
1.950,206.000,189.000,222.000,175.500
1.951,205.500,188.500,221.500,175.000
1.952,206.000,188.500,221.500,175.500
1.953,205.500,188.000,221.500,175.000
1.954,205.500,188.500,222.000,175.500
1.955,205.000,188.000,221.500,175.000
1.956,205.000,188.000,222.000,175.500
1.957,204.500,188.000,222.000,175.500
1.958,204.500,188.000,223.000,176.000
1.959,204.500,188.000,223.000,175.500
1.960,204.500,188.000,223.500,176.000
1.961,204.000,188.000,223.500,176.000
1.962,204.000,188.500,224.500,177.000
1.963,203.500,189.000,225.000,177.000
1.964,203.500,190.000,225.500,178.000
1.965,203.000,190.000,225.500,178.500
1.966,203.000,191.000,226.500,179.000
1.967,202.500,191.000,227.000,179.000
1.968,202.500,192.000,227.500,179.500
1.969,202.500,192.000,227.500,179.000
1.970,203.000,192.500,228.000,179.500
1.971,202.500,192.500,227.500,179.000
1.972,203.000,193.000,227.500,179.000
1.973,203.000,193.000,227.000,178.500
1.974,203.000,193.500,227.000,178.500
1.975,202.500,193.500,226.500,178.000
1.976,203.000,194.000,227.000,177.500
1.977,202.500,194.500,226.500,177.000
1.978,203.000,195.000,226.500,177.000
1.979,202.500,195.000,226.000,176.000
1.980,203.000,195.500,226.000,176.000
1.981,202.500,195.500,225.500,175.500
1.982,202.500,196.000,225.500,176.000
1.983,202.000,196.000,225.000,175.500
1.984,202.500,196.000,225.500,175.500
1.985,202.000,196.000,225.500,175.500
1.986,202.000,196.500,225.500,175.500
1.987,202.000,196.500,225.000,175.000
1.988,202.000,197.000,225.500,175.500
1.989,201.500,197.000,225.000,175.000
1.990,202.000,197.500,225.000,175.000
1.991,201.500,197.500,224.000,175.000
1.992,202.000,198.000,224.000,175.000
1.993,202.000,197.500,223.000,175.000
1.994,202.500,198.000,223.000,175.000
1.995,202.000,198.000,222.500,174.500
1.996,203.000,199.000,223.000,174.500
1.997,203.000,199.500,223.000,174.000
1.998,204.000,200.500,223.500,174.500
1.999,204.000,200.500,224.000,174.500
2.000,205.000,201.500,225.000,175.000
2.001,205.500,201.500,225.000,175.000
2.002,206.000,202.500,225.500,175.500
2.003,206.000,202.500,225.500,175.500
2.004,206.000,203.000,226.000,176.000
2.005,205.500,203.000,225.500,176.000
2.006,206.000,204.000,226.000,176.500
2.007,205.500,203.500,225.500,176.000
2.008,206.000,204.000,226.000,176.500
2.009,206.000,204.000,225.500,176.500
2.010,206.500,204.000,226.000,176.500
2.011,206.000,203.500,225.500,176.000
2.012,206.500,203.500,225.500,176.000
2.013,206.500,203.000,225.000,175.500
2.014,206.500,203.000,225.500,175.500
2.015,206.000,202.500,224.500,175.000
2.016,206.000,202.500,225.000,175.000
2.017,205.500,202.000,224.500,174.500
2.018,205.500,202.500,224.500,174.500
2.019,204.500,202.000,224.000,174.000
2.020,204.500,202.000,224.000,174.000
2.021,203.500,202.000,224.000,174.000
2.022,204.000,202.000,224.500,174.500
2.023,203.500,202.000,225.000,175.000
2.024,204.000,202.000,225.500,176.000
2.025,203.500,202.000,226.000,176.500
2.026,204.500,202.000,227.000,177.500
2.027,204.500,201.500,227.500,178.000
2.028,205.000,201.500,228.500,179.000
2.029,205.000,201.000,229.000,180.000
2.030,205.500,200.500,230.000,181.500
2.031,205.000,200.000,230.000,183.000
2.032,205.500,199.500,230.500,184.500
2.033,205.500,198.500,230.000,185.500
2.034,206.000,198.000,230.000,187.000
2.035,206.000,197.000,228.500,187.500
2.036,206.500,196.000,227.500,188.500
2.037,206.500,194.000,225.000,189.000
2.038,207.000,192.500,223.500,189.500
2.039,207.000,190.500,221.000,189.000
2.040,207.500,188.500,218.500,189.000
2.041,207.500,185.500,215.000,188.000
2.042,208.000,183.000,212.000,187.000
2.043,208.500,179.500,207.500,185.500
2.044,209.500,176.000,203.500,183.500
2.045,210.500,171.500,198.500,181.500
2.046,212.500,168.000,194.000,180.000
2.047,213.500,163.500,188.500,178.000
2.048,216.000,159.500,183.500,176.500
2.049,217.500,154.000,176.500,174.000
2.050,220.000,149.000,169.000,171.000
2.051,222.000,142.000,159.500,165.500
2.052,224.500,134.500,148.500,159.000
2.053,227.000,125.000,135.000,149.500
2.054,230.500,115.500,121.000,139.000
2.055,233.000,105.000,106.500,128.000
2.056,236.000,96.500,94.000,117.500
2.057,238.000,88.500,82.500,108.000
2.058,240.500,83.000,74.000,100.500
2.059,242.000,79.000,68.000,94.000
2.060,243.000,77.500,65.000,90.000
2.061,243.500,77.500,63.500,86.500
2.062,243.500,79.000,64.500,84.000
2.063,243.000,81.500,66.500,82.000
2.064,242.000,86.000,71.000,81.500
2.065,240.500,90.500,76.000,81.000
2.066,239.000,96.500,83.000,81.500
2.067,236.500,103.000,90.000,82.000
2.068,235.000,110.000,98.000,83.500
2.069,233.000,117.000,105.500,85.000
2.070,231.000,125.000,114.000,88.000
2.071,229.000,132.000,122.500,91.000
2.072,227.000,140.500,132.500,95.500
2.073,224.500,148.000,142.500,100.000
2.074,222.500,157.000,153.500,106.000
2.075,219.500,165.000,164.500,112.000
2.076,217.000,174.000,176.500,118.500
2.077,214.000,182.000,187.000,124.000
2.078,211.500,190.000,197.500,129.000
2.079,209.000,196.500,206.500,133.000
2.080,208.000,203.000,214.500,137.000
2.081,206.000,207.500,220.500,140.000
2.082,205.000,212.000,226.000,143.500
2.083,203.500,215.000,230.500,146.000
2.084,203.000,217.500,234.500,149.000
2.085,202.500,218.500,238.000,152.000
2.086,202.500,220.000,241.000,155.500
2.087,202.000,220.500,243.500,159.000
2.088,202.500,221.500,245.500,162.500
2.089,203.000,221.000,247.000,165.500
2.090,204.000,221.500,248.500,168.500
2.091,204.000,220.500,249.000,170.500
2.092,205.000,220.500,249.500,173.000
2.093,205.000,219.000,249.500,174.500
2.094,205.500,218.000,250.000,176.000
2.095,205.000,216.500,249.500,177.000
2.096,205.000,216.000,249.500,178.500
2.097,204.500,215.000,249.000,179.000
2.098,204.500,215.000,249.000,180.000
2.099,204.000,214.000,248.500,180.500
2.100,204.500,214.500,249.000,181.500
2.101,204.500,214.000,248.500,182.500
2.102,205.000,214.000,249.500,183.500
2.103,204.500,213.500,249.500,184.500
2.104,205.000,213.500,250.000,185.500
2.105,205.000,212.500,249.500,186.000
2.106,205.000,212.000,250.000,186.500
2.107,204.500,211.500,250.000,187.000
2.108,204.500,211.500,250.500,187.500
2.109,204.000,211.000,250.500,188.000
2.110,204.000,211.500,250.500,189.000
2.111,204.000,211.500,250.000,189.000
2.112,204.000,212.000,250.000,190.000
2.113,204.000,211.500,249.500,190.000
2.114,204.500,211.500,249.500,190.000
2.115,204.500,210.500,248.500,190.000
2.116,205.000,210.500,248.500,190.000
2.117,205.000,210.000,248.000,190.000
2.118,205.000,210.000,248.000,190.500
2.119,204.500,209.000,247.500,190.500
2.120,204.500,209.000,248.000,191.000
2.121,203.500,208.500,247.500,191.500
2.122,204.000,208.500,248.500,192.500
2.123,203.500,208.000,249.000,193.000
2.124,204.000,208.500,249.500,194.000
2.125,204.000,208.000,249.500,194.500
2.126,205.000,208.500,250.500,196.000
2.127,205.000,208.500,250.500,196.500
2.128,205.500,209.000,251.000,197.500
2.129,205.000,208.500,250.500,197.500
2.130,205.500,209.000,250.500,198.000
2.131,205.000,208.500,249.500,197.500
2.132,205.000,208.500,249.500,198.000
2.133,205.000,208.000,248.500,197.500
2.134,205.000,208.000,248.500,197.500
2.135,204.500,208.000,247.500,196.500
2.136,205.000,208.500,247.500,197.000
2.137,204.500,209.000,247.000,196.500
2.138,204.500,209.500,247.000,196.500
2.139,203.500,209.500,246.500,196.000
2.140,203.500,210.500,246.500,196.500
2.141,203.000,210.500,246.000,196.000
2.142,203.000,211.000,246.500,196.500
2.143,202.500,210.500,246.000,196.500
2.144,203.000,211.500,246.500,197.000
2.145,203.000,211.500,246.500,196.500
2.146,203.500,212.500,246.500,197.000
2.147,203.500,212.500,246.000,196.500
2.148,203.500,213.500,246.500,197.000
2.149,202.500,213.500,245.500,196.500
2.150,203.000,214.000,245.500,196.500
2.151,202.500,213.500,245.000,195.500
2.152,202.500,214.000,245.000,195.000
2.153,202.500,213.500,244.500,193.500
2.154,203.000,214.000,244.500,193.000
2.155,203.000,213.500,244.000,191.500
2.156,203.500,213.500,244.000,191.000
2.157,203.500,213.500,243.500,190.000
2.158,204.000,214.000,244.000,189.500
2.159,203.500,214.000,244.000,189.000
2.160,204.000,214.500,244.500,189.000
2.161,203.500,214.500,245.000,188.500
2.162,203.500,215.000,245.500,188.500
2.163,203.000,215.000,245.500,187.500
2.164,203.500,216.000,246.000,187.500
2.165,203.500,215.500,245.500,187.000
2.166,204.000,216.000,245.500,187.000
2.167,204.500,216.000,244.500,186.000
2.168,205.500,216.000,245.000,186.000
2.169,205.500,215.500,244.000,185.500
2.170,206.500,215.500,244.000,186.000
2.171,206.500,215.000,243.000,185.500
2.172,207.000,214.500,243.000,185.500
2.173,206.500,213.500,242.500,185.000
2.174,206.500,213.500,242.000,185.000
2.175,206.000,213.000,241.000,184.000
2.176,206.000,213.000,241.000,184.000
2.177,205.500,213.000,240.500,184.000
2.178,205.500,214.000,241.000,184.500
2.179,205.500,214.500,241.000,184.500
2.180,206.000,216.000,242.000,186.000
2.181,206.000,217.000,243.000,187.000
2.182,206.500,219.000,245.000,189.000
2.183,207.000,220.000,246.500,191.000
2.184,208.000,222.000,249.000,193.000
2.185,208.000,223.500,250.500,194.500
2.186,209.000,225.500,252.500,196.500
2.187,209.500,226.500,253.500,197.500
2.188,210.000,227.500,255.000,198.000
2.189,209.500,228.000,255.000,198.000
2.190,210.000,228.500,255.500,198.500
2.191,209.500,228.000,254.500,198.000
2.192,209.500,227.500,254.000,197.500
2.193,208.500,226.500,252.500,196.500
2.194,208.500,226.000,251.500,196.000
2.195,208.000,224.500,249.500,195.000
2.196,208.000,223.500,249.000,194.000
2.197,207.000,221.500,247.500,193.000
2.198,207.500,221.000,246.500,192.000
2.199,207.000,219.500,244.500,191.000
2.200,207.000,219.000,244.000,191.000
2.201,206.500,217.500,242.500,190.500
2.202,206.500,217.000,241.500,190.500
2.203,206.000,216.000,240.500,190.500
2.204,206.000,215.500,240.500,191.000
2.205,205.500,215.000,240.000,191.000
2.206,205.500,215.000,240.500,191.500
2.207,205.000,214.000,240.500,192.000
2.208,205.500,214.000,241.000,192.500
2.209,205.500,213.500,241.000,192.500
2.210,206.000,213.500,241.500,193.500
2.211,206.000,212.500,241.000,193.000
2.212,206.500,212.000,241.500,193.500
2.213,206.500,211.000,241.000,193.500
2.214,207.000,210.500,241.500,194.000
2.215,207.000,209.500,241.000,193.500
2.216,207.500,209.000,241.500,194.000
2.217,207.500,208.000,241.000,194.000
2.218,208.000,208.000,241.000,194.000
2.219,207.500,207.000,240.000,194.000
2.220,207.500,207.500,240.500,194.500
2.221,206.500,207.000,240.000,195.000
2.222,206.500,207.500,240.500,195.500
2.223,205.500,207.000,240.500,196.000
2.224,205.500,207.000,241.000,197.000
2.225,205.000,206.500,240.500,197.000
2.226,205.000,206.000,241.000,197.500
2.227,204.500,205.000,240.500,197.500
2.228,205.000,205.000,240.500,198.000
2.229,205.000,204.000,239.500,197.500
2.230,205.500,204.000,239.500,198.500
2.231,205.500,203.000,239.000,198.500
2.232,205.500,203.000,239.000,199.000
2.233,205.000,202.500,238.000,198.500
2.234,205.500,203.000,237.500,198.500
2.235,205.500,202.500,236.500,197.500
2.236,206.000,202.500,236.000,197.500
2.237,206.000,201.500,234.500,196.500
2.238,206.500,201.000,234.000,197.000
2.239,206.500,200.000,233.000,196.500
2.240,207.000,199.500,232.500,197.500
2.241,207.000,198.500,232.000,197.500
2.242,207.500,198.500,232.000,198.500
2.243,207.500,197.500,231.500,198.500
2.244,208.500,198.000,231.500,199.500
2.245,208.500,197.500,230.500,200.000
2.246,209.000,198.000,230.500,200.500
2.247,209.000,197.500,230.000,200.500
2.248,209.500,198.000,230.000,201.000
2.249,209.000,197.500,229.000,200.500
2.250,209.500,198.000,228.500,201.000
2.251,209.500,197.500,227.500,200.500
2.252,210.000,197.500,227.000,200.000
2.253,210.000,196.500,226.000,199.500
2.254,210.500,196.500,225.500,199.500
2.255,210.000,195.500,224.000,199.000
2.256,210.500,195.000,224.000,199.000
2.257,210.000,194.000,223.000,198.500
2.258,211.000,193.500,222.500,198.500
2.259,211.000,192.500,221.500,198.000
2.260,212.000,192.500,221.000,198.000
2.261,212.000,191.500,220.000,197.000
2.262,213.000,192.000,220.000,197.000
2.263,213.000,191.500,219.000,196.500
2.264,213.500,191.500,218.500,196.500
2.265,213.000,191.000,218.000,195.500
2.266,213.500,191.000,218.000,195.500
2.267,213.000,191.000,217.500,195.000
2.268,213.500,191.000,218.000,195.000
2.269,213.000,191.000,217.500,194.000
2.270,213.500,191.000,218.000,194.000
2.271,213.000,191.000,217.500,193.500
2.272,213.500,191.000,217.000,193.000
2.273,213.000,190.500,216.000,192.000
2.274,213.500,190.500,215.500,191.500
2.275,213.000,190.000,214.500,190.500
2.276,213.500,189.500,214.500,190.500
2.277,213.000,189.000,214.000,190.000
2.278,213.000,189.000,214.000,190.000
2.279,213.000,188.500,213.500,189.500
2.280,213.500,188.500,213.500,189.500
2.281,213.000,188.000,213.500,188.500
2.282,213.500,188.000,213.500,188.500
2.283,213.500,187.500,213.500,188.000
2.284,213.500,188.000,213.500,188.000
2.285,213.000,187.500,213.500,187.500
2.286,213.500,187.500,214.000,188.000
2.287,213.500,187.000,213.500,187.500
2.288,214.000,187.000,214.000,188.000
2.289,214.000,186.500,213.500,187.500
2.290,214.500,186.500,214.000,187.500
2.291,214.500,186.000,213.000,187.000
2.292,215.000,186.000,213.500,187.000
2.293,215.000,185.000,213.000,186.500
2.294,215.500,185.000,213.500,186.500
2.295,215.000,184.500,213.000,186.000
2.296,215.500,184.000,213.000,185.500
2.297,215.500,183.000,212.000,184.500
2.298,216.000,183.000,212.000,184.000
2.299,215.500,182.000,211.500,183.000
2.300,215.500,182.000,211.500,183.000
2.301,214.500,181.500,211.000,182.000
2.302,214.500,182.000,211.500,182.000
2.303,213.500,182.000,211.500,182.000
2.304,213.500,182.500,212.000,182.500
2.305,213.000,182.500,211.500,182.500
2.306,213.000,182.500,212.000,183.000
2.307,213.000,182.000,211.500,182.500
2.308,213.500,182.500,212.000,183.000
2.309,213.500,182.000,211.500,183.000
2.310,214.000,182.000,212.000,183.000
2.311,214.000,181.000,211.500,182.500
2.312,214.500,181.000,212.000,183.000
2.313,214.500,180.500,211.500,182.500
2.314,215.000,180.500,212.500,182.500
2.315,215.000,180.000,212.500,182.000
2.316,215.500,180.000,213.000,182.000
2.317,215.500,179.500,212.500,181.500
2.318,216.000,179.500,213.000,181.500
2.319,216.000,179.000,213.000,181.500
2.320,216.500,179.500,213.500,182.000
2.321,216.000,179.000,214.000,182.000
2.322,216.500,179.500,215.000,183.000
2.323,216.000,179.500,215.500,183.500
2.324,216.000,179.500,216.500,184.500
2.325,215.500,179.000,217.000,185.000
2.326,215.500,179.500,218.000,186.000
2.327,214.500,179.000,218.000,186.000
2.328,215.000,178.500,219.000,186.500
2.329,214.500,178.000,219.000,186.500
2.330,215.000,178.000,220.000,187.000
2.331,214.500,178.000,220.500,187.000
2.332,214.500,178.500,221.500,188.000
2.333,213.500,178.500,221.500,188.000
2.334,213.500,179.500,222.500,189.000
2.335,213.000,179.000,222.500,189.000
2.336,213.000,179.500,223.000,190.000
2.337,212.500,178.500,222.500,190.000
2.338,213.000,178.500,223.000,190.500
2.339,213.000,178.000,223.000,190.500
2.340,213.500,178.000,223.500,191.500
2.341,213.000,177.000,223.500,191.500
2.342,213.000,177.500,224.500,192.500
2.343,212.500,177.500,225.000,193.000
2.344,212.000,178.000,226.000,194.000
2.345,211.500,178.500,226.500,194.000
2.346,211.500,179.500,228.000,195.000
2.347,210.500,179.500,228.000,195.500
2.348,210.500,180.500,229.000,196.000
2.349,210.000,181.000,229.500,196.000
2.350,210.000,181.500,230.500,197.000
2.351,209.500,181.000,230.500,197.000
2.352,210.000,181.500,231.500,197.000
2.353,209.500,181.500,231.500,196.500
2.354,209.000,182.000,232.000,196.500
2.355,208.000,182.000,231.500,196.000
2.356,207.500,182.500,232.000,196.000
2.357,206.500,182.000,231.500,195.500
2.358,206.000,182.500,231.500,196.000
2.359,205.500,182.500,231.000,195.500
2.360,205.000,182.500,231.500,196.000
2.361,204.500,181.500,231.000,196.000
2.362,204.000,181.500,231.500,197.000
2.363,203.500,181.000,231.000,197.000
2.364,203.500,181.500,231.500,197.500
2.365,202.500,181.000,231.500,197.500
2.366,202.500,181.500,232.000,198.000
2.367,202.000,181.500,232.500,198.000
2.368,202.000,182.000,233.000,198.000
2.369,201.500,182.000,233.000,198.000
2.370,202.000,182.500,233.500,198.000
2.371,201.500,182.500,233.500,198.000
2.372,202.000,182.500,234.000,198.500
2.373,201.500,182.000,233.500,198.000
2.374,202.000,182.500,234.000,198.000
2.375,202.000,181.500,233.500,197.500
2.376,203.000,181.500,234.000,197.500
2.377,203.000,181.000,234.000,197.000
2.378,203.500,181.000,234.000,197.000
2.379,203.000,180.500,233.500,196.500
2.380,203.500,181.000,234.000,197.000
2.381,203.500,181.000,234.000,196.500
2.382,204.000,181.500,234.500,197.000
2.383,203.500,181.500,234.500,197.000
2.384,204.000,182.000,235.500,197.500
2.385,203.500,182.500,235.500,197.500
2.386,204.000,183.000,236.500,198.000
2.387,203.500,183.500,236.000,197.500
2.388,203.500,184.000,237.000,198.000
2.389,203.500,184.500,237.000,197.500
2.390,203.500,185.000,237.500,198.000
2.391,203.000,185.000,237.000,197.500
2.392,203.500,185.000,237.500,197.500
2.393,203.000,184.500,237.500,197.000
2.394,203.000,184.500,237.500,197.500
2.395,202.500,184.000,237.000,197.000
2.396,202.500,184.000,237.000,197.000
2.397,202.000,184.000,237.000,196.500
2.398,202.500,184.000,237.500,197.000
2.399,202.500,184.000,237.000,196.500
2.400,203.000,184.500,237.500,197.000
2.401,202.500,184.500,237.500,197.000
2.402,203.000,185.000,238.000,197.000
2.403,202.500,185.000,237.500,197.000
2.404,202.500,186.000,237.500,197.500
2.405,202.000,186.000,237.500,197.000
2.406,202.000,187.000,238.000,197.500
2.407,201.500,187.000,237.500,197.000
2.408,202.000,188.000,238.000,197.500
2.409,201.500,188.000,238.000,197.000
2.410,202.000,189.000,238.500,197.000
2.411,201.500,189.000,238.000,196.500
2.412,202.000,189.500,238.500,196.500
2.413,201.500,189.500,238.000,196.000
2.414,201.500,190.000,238.500,196.000
2.415,201.000,190.000,238.500,195.500
2.416,201.000,190.500,238.500,195.500
2.417,200.500,190.500,237.500,195.000
2.418,201.000,191.000,237.500,195.000
2.419,201.000,191.000,237.000,194.000
2.420,201.500,191.500,237.500,194.000
2.421,201.500,191.500,237.000,193.500
2.422,201.500,192.500,237.500,193.500
2.423,201.000,192.500,237.000,193.000
2.424,201.500,193.500,237.500,193.000
2.425,201.000,193.500,237.500,193.000
2.426,201.500,194.500,238.500,193.500
2.427,201.000,195.000,238.500,193.500
2.428,201.500,196.000,239.500,194.500
2.429,201.500,196.000,239.500,194.500
2.430,202.500,197.000,240.000,195.000
2.431,202.000,197.000,239.500,194.500
2.432,202.500,198.000,239.000,194.500
2.433,202.500,198.000,238.000,193.500
2.434,202.500,198.000,237.000,193.000
2.435,202.000,197.500,235.500,191.500
2.436,202.000,197.500,235.000,191.000
2.437,201.500,197.000,233.500,189.500
2.438,202.000,197.500,233.000,189.500
2.439,201.000,197.000,232.000,188.500
2.440,201.000,198.000,232.500,188.500
2.441,200.500,198.000,232.500,188.000
2.442,200.500,199.000,233.500,188.500
2.443,200.500,199.500,234.000,188.000
2.444,201.000,200.500,235.000,188.500
2.445,201.500,201.000,235.500,188.500
2.446,202.000,202.000,236.000,189.000
2.447,202.500,202.000,236.000,189.000
2.448,203.500,203.000,237.000,190.000
2.449,204.000,203.500,237.000,190.000
2.450,204.500,204.000,237.500,191.000
2.451,204.500,204.500,237.500,191.000
2.452,205.000,205.000,238.000,191.000
2.453,204.500,205.000,237.500,191.000
2.454,204.500,205.500,238.000,191.000
2.455,204.000,205.500,237.500,191.000
2.456,204.500,206.000,238.000,191.000
2.457,204.000,206.000,237.500,191.000
2.458,204.500,206.500,238.500,191.000
2.459,204.500,206.000,238.500,191.000
2.460,205.000,206.500,239.500,191.500
2.461,204.500,206.000,239.500,191.500
2.462,205.000,206.500,240.500,192.500
2.463,204.500,206.000,240.500,192.500
2.464,204.500,205.500,241.000,193.000
2.465,203.500,204.500,240.500,192.500
2.466,203.500,204.000,241.000,193.000
2.467,203.000,202.500,240.000,192.500
2.468,203.000,202.000,240.000,192.500
2.469,202.500,200.500,239.500,192.000
2.470,202.500,200.000,239.500,192.000
2.471,202.000,198.500,238.500,191.500
2.472,202.500,198.500,239.000,191.500
2.473,202.000,197.500,238.500,191.000
2.474,202.500,197.500,238.500,191.000
2.475,202.500,197.000,237.500,190.500
2.476,203.000,196.500,237.000,190.000
2.477,202.500,195.500,235.500,189.000
2.478,203.000,195.000,235.000,188.500
2.479,202.500,194.000,234.000,187.500
2.480,202.500,193.500,234.000,187.500
2.481,202.000,193.000,233.500,187.000
2.482,202.500,193.000,234.000,187.500
2.483,202.500,192.500,234.000,187.500
2.484,202.500,192.500,235.000,188.000
2.485,202.000,192.000,235.000,188.000
2.486,202.000,192.000,235.500,189.000
2.487,201.500,191.500,235.000,189.000
2.488,202.000,191.500,235.500,189.000
2.489,201.500,190.500,235.000,188.500
2.490,202.500,190.500,235.000,188.500
2.491,202.500,189.500,234.000,188.000
2.492,203.500,189.500,234.000,188.000
2.493,203.500,188.500,233.000,187.500
2.494,203.500,188.000,233.000,188.000
2.495,203.000,187.000,232.500,187.500
2.496,203.500,187.000,232.500,187.500
2.497,203.000,186.500,231.500,187.000
2.498,203.000,187.000,232.000,187.000
2.499,202.500,186.500,231.500,187.000
2.500,202.500,187.000,232.000,187.500
2.501,202.500,186.500,231.500,187.500
2.502,203.000,187.000,232.500,188.000
2.503,202.500,187.000,232.500,188.500
2.504,202.500,187.500,233.500,189.000
2.505,202.000,187.500,233.500,189.500
2.506,202.500,188.000,234.000,190.000
2.507,202.000,188.000,234.000,189.500
2.508,202.500,188.500,235.000,190.000
2.509,202.000,188.500,234.500,190.000
2.510,202.500,189.000,235.000,191.000
2.511,202.000,189.000,235.000,191.000
2.512,202.500,189.500,235.500,191.500
2.513,202.000,189.000,235.000,191.000
2.514,202.500,189.500,235.000,191.000
2.515,202.000,188.500,234.000,190.500
2.516,202.000,188.500,233.500,190.000
2.517,201.500,188.000,232.000,189.500
2.518,202.000,188.000,232.000,189.500
2.519,201.500,187.000,231.000,189.500
2.520,201.500,187.000,230.500,189.500
2.521,201.000,186.500,230.000,189.500
2.522,201.000,186.500,230.000,189.500
2.523,200.500,186.000,230.000,189.500
2.524,200.500,186.500,230.500,190.500
2.525,200.500,186.000,230.000,190.500
2.526,201.000,187.000,231.000,191.500
2.527,200.500,187.000,231.000,192.000
2.528,201.500,187.500,231.500,192.500
2.529,201.500,187.500,231.500,193.000
2.530,202.500,188.000,232.000,193.500
2.531,202.500,188.000,231.500,193.000
2.532,203.000,188.000,231.500,193.000
2.533,202.500,187.500,231.000,192.000
2.534,203.000,187.500,231.000,192.000
2.535,203.000,186.500,230.500,191.000
2.536,203.000,186.000,231.000,190.500
2.537,203.000,185.000,230.500,190.000
2.538,204.000,184.500,231.000,190.000
2.539,204.000,184.000,230.500,189.500
2.540,204.500,184.000,231.000,190.000
2.541,204.000,183.500,231.000,190.000
2.542,204.500,184.000,232.000,190.500
2.543,204.000,184.000,232.000,190.500
2.544,204.000,184.500,233.000,191.000
2.545,204.000,184.500,233.000,191.500
2.546,204.500,185.500,234.000,192.000
2.547,204.500,185.500,233.500,192.000
2.548,205.000,185.500,234.000,192.500
2.549,205.000,185.000,233.500,192.000
2.550,205.500,185.000,233.500,192.000
2.551,205.500,184.000,232.500,191.500
2.552,206.000,184.000,232.500,191.500
2.553,206.000,183.000,232.000,191.000
2.554,206.500,183.500,232.500,191.500
2.555,206.000,183.000,232.500,191.000
2.556,206.500,183.500,233.000,191.500
2.557,206.000,183.500,232.500,191.500
2.558,206.500,184.000,233.000,191.500
2.559,206.000,184.000,232.500,191.500
2.560,206.000,184.500,232.500,191.500
2.561,205.000,184.500,232.000,191.500
2.562,205.000,185.000,232.500,192.000
2.563,204.500,184.500,232.000,191.500
2.564,204.500,184.500,232.500,191.500
2.565,204.000,184.500,232.500,191.000
2.566,204.500,184.500,233.500,191.500
2.567,204.500,184.500,233.500,191.000
2.568,205.500,185.000,234.000,191.500
2.569,206.000,185.000,234.000,191.000
2.570,206.500,186.000,234.500,191.000
2.571,207.000,186.000,234.500,190.500
2.572,207.500,187.000,235.000,191.000
2.573,207.500,187.000,234.500,191.000
2.574,208.500,187.500,234.500,191.500
2.575,208.500,187.500,233.500,191.000
2.576,209.000,188.000,233.500,191.000
2.577,208.500,187.500,232.500,190.000
2.578,208.500,187.500,232.500,190.000
2.579,208.000,187.000,231.500,189.000
2.580,208.000,187.000,231.500,189.000
2.581,207.500,187.000,231.000,188.500
2.582,207.500,187.000,231.000,188.500
2.583,207.500,187.000,230.000,188.000
2.584,207.500,187.000,229.500,188.000
2.585,207.500,186.500,229.000,187.500
2.586,207.500,186.500,229.000,188.000
2.587,207.500,186.000,228.500,187.500
2.588,207.500,186.000,228.500,188.000
2.589,207.500,185.500,228.500,187.500
2.590,208.000,185.500,228.500,187.500
2.591,208.000,185.000,228.000,187.000
2.592,208.500,185.000,228.000,186.500
2.593,208.500,184.500,227.000,185.500
2.594,209.500,184.500,227.000,185.500
2.595,209.500,184.000,226.000,184.500
2.596,210.000,184.500,226.500,184.500
2.597,209.500,184.500,226.000,183.500
2.598,210.000,185.000,226.500,184.000
2.599,210.000,185.000,226.000,183.500
2.600,210.500,185.500,226.500,184.000
2.601,210.500,186.000,226.500,183.500
2.602,211.000,186.500,227.000,183.500
2.603,211.000,186.500,226.500,183.000
2.604,211.000,187.000,226.500,183.500
2.605,210.500,186.500,226.000,183.000
2.606,211.000,187.000,226.500,183.000
2.607,210.500,186.500,226.000,183.000
2.608,211.000,186.000,226.000,183.500
2.609,210.500,185.500,225.500,183.000
2.610,211.000,185.500,226.000,183.500
2.611,211.000,185.500,225.500,183.500
2.612,211.500,185.500,226.000,183.500
2.613,211.000,185.500,225.500,183.000
2.614,211.500,186.000,225.500,183.000
2.615,211.000,186.000,225.500,182.500
2.616,211.000,187.000,226.000,183.000
2.617,211.000,187.000,226.000,183.000
2.618,211.000,187.500,226.500,183.000
2.619,211.000,187.000,226.000,183.000
2.620,211.000,187.500,226.000,183.000
2.621,210.500,187.000,225.500,182.500
2.622,210.500,187.000,225.500,183.000
2.623,210.000,186.500,225.000,182.500
2.624,210.000,186.500,225.000,182.500
2.625,209.000,186.500,225.000,182.000
2.626,209.000,186.500,225.500,182.500
2.627,208.500,186.500,225.500,182.000
2.628,208.500,187.000,226.000,182.500
2.629,208.000,187.500,226.000,182.500
2.630,208.500,188.500,227.000,183.500
2.631,208.000,189.000,228.000,184.000
2.632,208.000,190.500,229.500,185.500
2.633,207.500,191.500,230.500,186.500
2.634,208.000,193.500,232.500,188.000
2.635,208.000,195.000,233.500,189.000
2.636,208.500,197.000,235.500,190.500
2.637,208.500,198.000,236.500,191.000
2.638,209.500,199.500,237.500,192.500
2.639,209.500,200.000,238.000,192.500
2.640,210.500,201.000,239.000,193.500
2.641,211.000,201.000,239.000,193.500
2.642,211.500,201.000,240.000,193.500
2.643,211.500,201.000,239.500,193.000
2.644,212.000,201.000,240.000,193.000
2.645,211.500,200.000,239.000,192.000
2.646,211.500,199.500,238.000,191.500
2.647,211.000,198.500,236.500,190.000
2.648,211.500,197.500,235.500,189.000
2.649,211.000,195.500,233.500,187.500
2.650,211.000,194.500,232.000,186.500
2.651,210.500,193.000,230.000,185.000
2.652,211.000,192.500,229.000,184.500
2.653,210.500,191.500,227.000,183.000
2.654,210.500,191.500,226.000,182.500
2.655,209.500,191.500,224.500,181.500
2.656,210.000,192.000,224.500,181.500
2.657,209.500,192.000,223.500,181.000
2.658,210.000,192.500,224.000,181.000
2.659,209.500,192.500,224.000,181.000
2.660,209.500,193.500,224.500,181.500
2.661,209.500,193.500,224.500,181.000
2.662,210.000,194.000,224.500,181.500
2.663,210.000,194.000,224.000,181.500
2.664,211.000,195.000,224.500,182.000
2.665,211.000,195.000,224.500,182.000
2.666,211.500,195.500,225.000,182.500
2.667,211.000,195.000,225.000,182.500
2.668,211.000,195.500,225.500,183.000
2.669,210.000,195.500,225.000,183.000
2.670,210.000,196.500,225.500,183.000
2.671,209.000,196.000,225.000,182.500
2.672,209.500,196.500,225.000,182.500
2.673,209.000,196.000,224.000,182.000
2.674,209.000,196.500,224.000,182.000
2.675,209.000,196.000,223.000,181.500
2.676,209.000,196.500,223.500,182.000
2.677,208.500,196.500,223.000,181.500
2.678,209.000,197.000,223.500,181.500
2.679,209.000,197.000,223.500,181.500
2.680,209.500,197.500,224.000,181.500
2.681,209.500,197.000,223.500,181.500
2.682,210.000,197.000,224.000,181.500
2.683,209.500,196.500,223.500,181.500
2.684,209.500,197.000,224.000,182.000
2.685,209.000,196.500,224.000,182.000
2.686,208.500,197.000,224.500,182.500
2.687,207.500,197.000,224.000,182.500
2.688,207.500,197.000,225.000,183.000
2.689,207.000,196.500,225.000,183.000
2.690,207.000,197.000,225.500,183.500
2.691,206.000,196.000,225.500,183.000
2.692,206.500,196.000,226.000,183.500
2.693,206.000,195.000,225.500,183.000
2.694,207.000,195.000,226.000,183.000
2.695,207.000,194.500,225.500,182.500
2.696,208.000,194.500,225.500,182.500
2.697,208.000,194.500,225.500,182.000
2.698,209.000,195.500,226.000,182.500
2.699,208.500,195.500,226.000,182.500
2.700,209.000,196.500,227.000,183.500
2.701,208.500,196.500,227.500,183.500
2.702,208.500,197.500,228.000,184.000
2.703,208.000,197.500,228.000,183.500
2.704,208.000,198.000,228.000,184.000
2.705,208.000,198.000,227.500,184.000
2.706,208.500,198.500,227.500,184.500
2.707,208.500,198.500,227.000,184.000
2.708,209.000,199.000,227.000,184.500
2.709,209.000,199.000,227.000,184.500
2.710,209.500,199.500,227.500,185.500
2.711,209.000,199.500,227.500,185.500
2.712,209.500,200.500,228.000,186.000
2.713,209.000,200.500,227.500,185.500
2.714,209.000,201.000,228.000,186.000
2.715,208.500,201.000,227.500,185.500
2.716,208.500,201.500,227.500,185.500
2.717,207.500,201.500,226.500,184.500
2.718,207.500,202.000,226.500,185.000
2.719,207.000,202.000,226.500,184.500
2.720,207.500,203.000,227.000,185.000
2.721,207.000,203.000,227.000,185.000
2.722,207.500,204.500,228.000,186.000
2.723,207.000,205.000,228.000,186.000
2.724,208.000,206.000,229.000,187.000
2.725,208.000,206.000,229.500,187.000
2.726,208.500,207.000,230.000,187.500
2.727,208.000,206.500,230.000,187.500
2.728,208.500,206.500,230.500,188.000
2.729,208.500,206.000,230.000,188.000
2.730,209.500,205.500,229.500,188.500
2.731,209.500,204.000,228.000,188.000
2.732,210.000,203.500,227.000,188.000
2.733,210.000,202.500,225.500,187.500
2.734,210.500,202.000,225.000,187.500
2.735,210.500,201.000,224.000,187.000
2.736,210.500,201.000,224.000,187.000
2.737,210.000,200.500,223.500,186.500
2.738,210.500,200.500,223.500,187.000
2.739,210.000,199.500,223.000,186.000
2.740,210.000,199.500,223.000,186.000
2.741,210.000,198.500,222.000,185.500
2.742,210.500,198.500,221.500,185.500
2.743,210.000,197.500,220.500,185.000
2.744,210.500,198.000,220.500,185.500
2.745,210.500,197.500,219.500,185.000
2.746,211.000,198.000,220.000,185.000
2.747,210.500,197.500,219.500,185.000
2.748,210.500,198.000,220.000,185.500
2.749,210.000,198.000,219.500,185.500
2.750,210.000,198.500,220.500,186.000
2.751,209.000,198.500,220.500,186.000
2.752,209.500,199.000,221.000,186.000
2.753,209.000,199.000,221.000,185.500
2.754,209.000,199.500,221.500,185.000
2.755,208.000,199.000,220.500,183.500
2.756,208.000,199.500,220.000,182.500
2.757,207.500,198.500,219.000,180.500
2.758,208.000,198.500,218.000,179.500
2.759,207.500,197.500,216.500,177.500
2.760,208.000,197.000,216.000,176.500
2.761,208.000,196.000,214.500,175.500
2.762,208.500,195.500,214.500,175.000
2.763,208.000,195.000,214.000,174.000
2.764,208.500,195.000,215.000,174.500
2.765,208.000,194.500,215.000,174.000
2.766,208.500,195.000,216.500,175.000
2.767,207.500,195.500,217.000,175.000
2.768,207.500,196.500,218.500,176.000
2.769,207.000,196.500,219.500,176.500
2.770,207.000,197.500,220.500,177.000
2.771,206.500,198.000,220.500,177.500
2.772,207.000,199.000,221.000,178.000
2.773,207.000,199.500,221.000,178.000
2.774,207.500,200.500,221.500,178.500
2.775,207.500,200.500,221.000,178.500
2.776,207.500,201.000,221.000,178.500
2.777,207.000,201.000,220.000,178.000
2.778,207.500,201.500,220.000,177.500
2.779,207.000,201.500,219.000,177.000
2.780,207.500,202.000,219.000,176.500
2.781,207.000,202.000,218.500,176.000
2.782,207.500,202.500,219.000,176.000
2.783,207.000,202.000,218.500,175.500
2.784,207.000,202.500,219.000,175.500
2.785,206.500,202.000,218.500,175.000
2.786,206.500,202.000,219.500,175.000
2.787,206.000,201.500,219.500,175.000
2.788,206.500,202.000,220.000,175.500
2.789,206.000,202.000,220.000,175.500
2.790,206.000,203.000,221.000,176.500
2.791,206.000,203.000,221.000,177.000
2.792,206.500,204.000,222.000,178.000
2.793,206.500,204.500,222.500,178.500
2.794,207.000,205.500,223.500,179.500
2.795,207.000,206.000,224.000,180.000
2.796,207.500,206.500,225.000,180.500
2.797,207.000,207.000,225.500,180.000
2.798,207.000,207.500,226.500,180.500
2.799,206.000,208.000,226.500,180.000
2.800,205.500,209.000,227.000,180.000
2.801,204.000,209.000,227.000,180.000
2.802,204.000,210.000,227.000,180.000
2.803,203.000,210.000,226.500,180.000
2.804,203.500,210.500,227.000,180.500
2.805,203.500,210.500,227.000,180.000
2.806,204.000,211.000,227.000,180.500
2.807,203.500,210.500,226.500,180.500
2.808,204.000,211.000,226.500,181.000
2.809,204.000,210.500,226.000,180.500
2.810,204.500,211.000,226.000,180.500
2.811,204.000,211.000,225.500,180.500
2.812,204.000,211.000,226.000,180.500
2.813,204.000,210.500,225.500,180.500
2.814,204.000,210.500,225.500,180.500
2.815,203.500,210.000,224.500,180.000
2.816,204.000,210.000,224.500,180.000
2.817,203.500,209.500,224.000,179.500
2.818,204.000,209.500,224.000,179.500
2.819,203.500,209.000,223.500,179.000
2.820,204.000,209.000,224.000,179.500
2.821,204.000,209.000,223.500,179.000
2.822,204.500,209.500,224.000,179.500
2.823,204.500,209.000,223.500,179.500
2.824,204.500,209.500,224.500,180.000
2.825,204.000,209.000,224.500,180.000
2.826,204.000,209.500,225.000,180.500
2.827,203.500,209.000,224.500,180.500
2.828,203.500,209.000,225.000,181.000
2.829,203.000,208.500,224.500,181.000
2.830,203.500,208.500,224.500,181.000
2.831,203.000,208.000,224.000,180.000
2.832,203.000,208.000,223.500,180.000
2.833,202.500,207.500,222.500,179.000
2.834,202.500,208.000,222.000,179.000
2.835,202.500,207.500,221.000,178.000
2.836,203.000,207.500,221.000,178.000
2.837,203.000,207.000,220.500,177.500
2.838,204.000,207.500,221.000,177.500
2.839,204.500,207.500,221.000,177.500
2.840,205.500,208.500,222.500,177.500
2.841,206.000,209.000,223.000,177.500
2.842,207.000,210.500,224.500,178.500
2.843,207.000,211.000,225.000,178.500
2.844,207.500,212.000,226.000,179.500
2.845,207.500,212.000,226.500,179.500
2.846,207.500,212.500,227.000,180.000
2.847,207.000,212.500,226.500,180.000
2.848,207.000,212.500,227.000,180.500
2.849,206.500,211.500,226.500,180.500
2.850,206.500,211.500,226.500,181.000
2.851,206.500,210.500,226.000,181.000
2.852,207.000,210.500,226.000,181.000
2.853,206.500,210.000,225.500,180.500
2.854,207.000,210.000,225.500,180.500
2.855,206.500,209.500,225.000,180.000
2.856,207.000,209.000,225.000,180.000
2.857,207.000,208.500,224.500,179.500
2.858,207.500,208.000,224.500,179.500
2.859,207.500,207.500,224.000,179.500
2.860,208.000,207.500,224.000,180.000
2.861,208.000,207.000,223.500,180.000
2.862,208.500,207.500,224.000,181.000
2.863,208.500,207.500,224.000,181.000
2.864,209.000,208.000,225.000,182.500
2.865,208.500,208.500,225.500,183.500
2.866,209.000,209.500,226.500,185.500
2.867,208.500,209.500,227.000,187.000
2.868,208.500,209.500,228.000,189.500
2.869,208.500,209.000,228.000,191.000
2.870,209.500,208.500,228.000,193.000
2.871,209.500,207.000,226.500,194.000
2.872,210.500,206.000,225.000,195.000
2.873,210.500,203.500,222.500,195.000
2.874,211.000,201.500,220.500,195.000
2.875,211.000,199.000,217.000,194.000
2.876,212.000,196.500,213.500,193.000
2.877,212.000,193.000,209.500,191.000
2.878,213.500,189.500,205.000,189.500
2.879,214.500,185.000,199.500,186.500
2.880,216.500,181.000,194.500,184.500
2.881,217.500,176.500,188.500,181.500
2.882,219.500,172.000,183.500,179.500
2.883,220.500,167.000,177.000,177.500
2.884,223.000,162.000,171.000,175.500
2.885,224.500,156.000,163.000,172.000
2.886,227.000,149.000,154.000,167.000
2.887,229.500,140.500,142.500,160.000
2.888,232.500,131.500,129.500,152.000
2.889,235.000,121.000,114.500,141.500
2.890,238.500,110.500,99.500,131.000
2.891,240.500,100.500,85.000,120.000
2.892,243.500,92.500,73.000,111.000
2.893,244.500,85.500,63.000,103.500
2.894,246.000,81.500,57.000,98.500
2.895,246.500,79.000,53.500,94.500
2.896,246.500,79.000,53.500,92.500
2.897,246.000,79.500,55.000,90.500
2.898,245.000,82.500,58.500,90.000
2.899,243.500,86.000,62.500,89.500
2.900,242.000,91.500,68.500,90.000
2.901,240.000,97.500,74.500,90.500
2.902,239.000,104.500,82.500,91.500
2.903,236.500,112.000,90.000,92.500
2.904,235.000,120.000,99.000,95.000
2.905,233.000,127.500,108.000,97.500
2.906,231.000,136.000,118.500,101.500
2.907,228.000,144.500,129.000,106.000
2.908,226.000,154.000,141.000,112.000
2.909,223.000,163.500,153.000,118.000
2.910,221.000,173.500,165.500,124.500
2.911,218.000,183.500,177.500,130.500
2.912,215.500,193.500,189.000,136.000
2.913,213.000,201.500,199.000,140.000
2.914,211.000,209.000,208.000,143.500
2.915,209.000,214.500,215.000,146.000
2.916,208.000,219.000,220.500,148.000
2.917,207.000,222.000,224.000,149.000
2.918,206.500,225.000,227.500,150.500
2.919,206.000,226.500,230.000,151.500
2.920,206.000,228.500,233.000,154.000
2.921,205.000,229.500,235.000,156.500
2.922,205.000,231.000,237.500,160.000
2.923,204.500,231.500,239.000,162.500
2.924,204.500,232.000,240.500,165.500
2.925,204.000,231.000,241.000,167.500
2.926,204.500,230.500,241.500,169.500
2.927,204.500,229.500,241.000,170.500
2.928,205.500,228.500,241.500,172.500
2.929,206.000,227.500,241.000,173.500
2.930,207.000,226.500,241.000,175.000
2.931,207.000,225.500,241.000,175.500
2.932,207.500,225.000,241.000,177.000
2.933,207.000,224.000,240.500,178.000
2.934,207.000,223.500,241.000,179.000
2.935,206.500,222.500,240.000,179.000
2.936,206.500,222.000,240.000,179.500
2.937,206.000,221.000,239.500,179.000
2.938,206.500,221.000,239.500,179.500
2.939,206.500,220.500,239.000,179.500
2.940,206.500,221.000,239.000,180.000
2.941,206.500,220.500,238.500,180.000
2.942,206.500,221.000,239.000,180.500
2.943,206.500,221.000,239.000,181.000
2.944,206.500,221.000,239.500,181.500
2.945,206.500,220.500,239.000,181.000
2.946,207.000,221.000,239.000,181.500
2.947,206.500,220.000,238.500,181.000
2.948,207.000,220.000,238.500,181.000
2.949,207.000,219.500,237.500,180.500
2.950,207.000,219.500,238.000,181.000
2.951,207.000,219.000,237.500,181.000
2.952,207.500,219.500,238.000,181.500
2.953,207.500,219.000,238.000,181.000
2.954,208.500,219.500,238.500,181.500
2.955,208.500,219.000,238.500,181.500
2.956,209.000,219.500,239.000,181.500
2.957,209.000,219.000,238.500,180.500
2.958,209.500,219.000,238.500,180.500
2.959,209.000,218.500,238.000,180.000
2.960,209.500,218.500,238.000,180.000
2.961,209.500,217.500,238.000,180.000
2.962,210.000,218.000,238.500,180.500
2.963,209.500,217.500,238.000,180.500
2.964,209.500,217.500,238.500,181.500
2.965,208.500,217.000,238.500,181.500
2.966,208.000,217.500,238.500,182.000
2.967,206.500,217.000,238.000,181.500
2.968,206.500,217.000,238.000,182.000
2.969,205.500,216.500,237.500,182.000
2.970,205.500,216.500,237.500,182.000
2.971,205.000,216.000,237.000,181.500
2.972,205.000,216.000,237.000,182.000
2.973,204.500,215.500,236.000,181.500
2.974,205.000,215.500,236.000,181.500
2.975,205.000,215.000,235.000,181.000
2.976,205.500,215.000,234.500,181.000
2.977,205.500,214.000,233.500,180.500
2.978,206.000,214.500,233.000,180.500
2.979,205.500,214.000,232.000,180.500
2.980,206.000,214.000,232.000,180.500
2.981,205.500,214.000,231.500,180.500
2.982,206.000,214.000,232.000,181.000
2.983,206.000,214.000,231.500,180.500
2.984,206.500,214.000,232.000,181.000
2.985,206.500,213.000,232.000,181.000
2.986,207.000,213.000,232.500,181.000
2.987,206.500,212.000,232.000,180.500
2.988,207.000,212.000,232.500,180.500
2.989,207.000,211.000,232.500,180.000
2.990,207.000,211.000,232.500,180.000
2.991,207.000,210.000,232.000,179.500
2.992,207.000,209.500,231.500,180.000
2.993,207.000,208.500,230.500,179.500
2.994,207.500,208.000,230.500,179.500
2.995,207.000,207.000,229.500,179.000
2.996,207.500,207.000,229.500,179.000
2.997,207.500,206.000,229.000,178.500
2.998,207.500,206.000,229.000,178.500
2.999,207.000,205.000,229.000,178.000
3.000,207.000,205.500,229.500,178.000
3.001,206.500,205.000,229.000,177.500
3.002,206.000,205.000,229.000,178.000
3.003,204.500,204.500,228.500,177.500
3.004,204.500,204.500,228.500,177.500
3.005,203.500,203.500,228.000,177.000
3.006,203.500,203.000,228.000,177.000
3.007,202.500,202.000,227.000,176.500
3.008,202.500,202.000,227.000,177.000
3.009,202.000,201.500,226.500,177.000
3.010,202.500,202.000,227.000,178.000
3.011,201.500,202.000,226.500,178.000
3.012,201.500,202.500,227.000,178.500
3.013,201.000,202.500,226.500,178.500
3.014,201.500,203.500,226.500,178.500
3.015,201.000,203.500,226.000,178.000
3.016,201.500,204.000,225.500,178.000
3.017,201.500,204.000,224.000,177.500
3.018,202.000,204.500,224.000,177.000
3.019,201.500,204.000,223.000,176.500
3.020,202.000,204.500,223.500,176.500
3.021,201.500,204.500,223.000,176.500
3.022,202.000,205.000,223.500,176.500
3.023,202.000,205.000,223.500,176.500
3.024,202.500,206.000,224.000,177.500
3.025,202.500,206.000,224.000,177.500
3.026,203.000,207.000,224.000,178.000
3.027,203.500,206.500,223.500,178.000
3.028,204.000,207.000,224.000,178.000
3.029,204.000,206.500,223.000,178.000
3.030,204.500,206.500,223.000,178.000
3.031,204.500,206.000,222.500,178.000
3.032,205.000,206.000,223.000,178.500
3.033,204.500,205.500,222.500,178.000
3.034,204.500,206.000,223.500,178.500
3.035,203.500,206.000,223.500,178.500
3.036,203.500,206.500,224.000,178.500
3.037,203.000,206.000,224.000,178.000
3.038,203.000,206.500,224.500,178.500
3.039,202.500,206.000,224.500,178.000
3.040,203.000,206.500,225.000,178.500
3.041,203.000,206.000,224.500,178.500
3.042,203.500,206.000,225.500,179.000
3.043,203.000,206.000,225.500,179.500
3.044,203.500,206.000,226.000,180.500
3.045,203.000,205.500,226.000,180.500
3.046,203.000,205.500,227.000,181.500
3.047,203.000,204.500,227.000,181.500
3.048,203.000,204.000,227.500,182.000
3.049,202.500,202.500,227.500,182.000
3.050,203.000,201.500,228.000,182.500
3.051,202.500,200.000,227.500,182.500
3.052,202.500,198.500,227.500,182.500
3.053,202.500,196.500,227.000,182.000
3.054,203.000,195.500,226.500,182.500
3.055,203.000,194.000,225.500,181.500
3.056,204.000,194.000,225.500,181.500
3.057,204.500,193.000,224.500,181.000
3.058,205.000,193.000,224.000,180.500
3.059,205.000,192.500,223.000,179.500
3.060,205.500,192.500,222.500,179.500
3.061,205.000,192.000,221.500,178.500
3.062,205.000,192.000,221.000,179.000
3.063,204.500,191.500,220.000,179.000
3.064,205.000,192.000,220.000,179.500
3.065,204.500,191.500,219.500,179.500
3.066,205.500,191.500,219.500,180.000
3.067,205.500,191.000,218.500,180.000
3.068,206.000,191.000,218.500,180.000
3.069,205.500,190.500,217.500,179.500
3.070,206.000,190.500,217.500,180.000
3.071,205.500,189.500,216.500,179.500
3.072,205.500,189.500,216.000,180.000
3.073,205.000,188.500,215.500,180.000
3.074,205.500,188.000,215.500,180.500
3.075,205.500,187.000,214.500,180.000
3.076,206.000,187.000,214.500,180.000
3.077,205.500,186.000,214.000,179.500
3.078,206.000,186.500,214.500,179.500
3.079,205.500,186.500,214.000,179.500
3.080,206.000,187.000,215.000,180.000
3.081,205.500,187.500,215.000,180.000
3.082,205.500,189.000,216.500,181.000
3.083,205.500,190.000,217.000,182.000
3.084,206.500,191.500,218.500,183.000
3.085,206.500,193.000,219.000,184.000
3.086,207.000,194.500,220.000,185.000
3.087,207.000,195.500,220.000,186.000
3.088,208.000,197.000,221.000,187.000
3.089,208.000,197.500,221.000,187.000
3.090,208.500,198.500,221.500,187.500
3.091,208.000,198.500,221.000,186.500
3.092,208.500,198.500,220.500,186.500
3.093,208.000,198.000,219.500,185.000
3.094,209.000,198.000,218.500,184.500
3.095,209.000,197.000,217.000,183.000
3.096,210.000,196.500,215.500,181.500
3.097,210.000,195.000,213.000,179.500
3.098,210.000,193.500,211.000,178.500
3.099,209.500,191.500,208.500,176.500
3.100,209.500,190.500,207.000,175.000
3.101,208.000,188.500,205.000,173.500
3.102,207.500,188.000,204.000,172.500
3.103,206.500,186.500,203.000,171.500
3.104,206.500,186.000,203.000,171.500
3.105,206.000,185.000,202.500,171.000
3.106,206.000,185.000,202.500,171.000
3.107,206.000,184.000,202.000,170.500
3.108,206.500,183.500,202.000,171.000
3.109,207.000,182.500,201.500,170.500
3.110,208.000,182.500,201.500,170.000
3.111,208.000,181.500,200.500,169.500
3.112,209.000,181.500,200.500,169.000
3.113,209.500,180.500,200.000,168.500
3.114,210.000,180.500,199.500,168.500
3.115,210.000,180.000,198.500,168.000
3.116,211.000,180.000,198.500,168.000
3.117,211.000,179.500,198.000,167.500
3.118,211.500,179.500,198.500,167.500
3.119,211.000,178.500,198.500,167.500
3.120,211.500,178.500,198.500,167.500
3.121,211.000,177.500,198.000,167.500
3.122,211.500,177.000,198.500,167.500
3.123,211.000,176.000,197.500,167.500
3.124,211.000,175.000,197.000,167.500
3.125,210.500,173.500,196.000,166.500
3.126,211.000,172.500,195.500,166.500
3.127,211.000,171.500,194.500,166.000
3.128,211.500,171.500,195.000,166.500
3.129,211.000,171.000,195.000,166.000
3.130,211.500,171.500,196.000,166.000
3.131,211.000,171.500,196.000,166.000
3.132,211.500,172.000,197.000,166.000
3.133,211.000,171.500,196.500,165.500
3.134,211.500,171.500,196.500,165.500
3.135,211.500,171.000,195.500,164.500
3.136,212.000,170.500,195.000,164.500
3.137,212.000,169.500,194.000,163.500
3.138,212.500,169.000,193.000,163.000
3.139,212.500,168.500,192.000,162.500
3.140,213.000,168.000,191.500,162.000
3.141,212.500,167.500,191.000,161.500
3.142,212.500,167.500,191.000,161.500
3.143,212.000,167.500,190.500,161.500
3.144,212.000,168.000,191.500,161.500
3.145,211.000,168.500,191.500,161.500
3.146,211.000,169.000,193.000,162.500
3.147,210.500,169.500,193.500,163.000
3.148,211.000,171.000,195.000,164.000
3.149,210.500,171.500,196.000,164.500
3.150,211.000,172.000,197.000,165.000
3.151,211.000,172.000,197.000,165.000
3.152,211.000,172.000,197.500,165.000
3.153,211.000,171.000,196.500,164.500
3.154,211.500,170.000,195.500,164.000
3.155,211.000,168.500,193.500,162.500
3.156,211.500,167.500,193.000,162.000
3.157,211.000,166.000,192.000,161.500
3.158,211.500,166.000,192.500,162.000
3.159,211.000,166.000,193.000,162.500
