'Elapsed time','AECG1','AECG2','AECG3','AECG4'
'seconds','uV','uV','uV','uV'
0.000,56.000,140.500,85.000,85.500
0.001,55.000,140.000,85.500,86.500
0.002,52.500,138.000,84.500,86.000
0.003,49.500,135.500,82.500,84.000
0.004,47.000,133.000,80.000,81.500
0.005,45.000,130.500,77.500,79.000
0.006,43.500,128.500,74.500,76.500
0.007,42.000,126.500,72.000,73.500
0.008,41.000,124.500,69.000,70.000
0.009,40.000,122.000,66.000,66.500
0.010,39.500,120.500,64.000,64.000
0.011,39.500,119.500,62.500,61.500
0.012,40.000,119.000,62.000,60.500
0.013,41.000,119.000,62.000,60.500
0.014,41.500,119.000,63.000,61.000
0.015,42.500,120.000,64.500,63.000
0.016,44.000,121.500,67.000,65.500
0.017,45.000,123.500,70.000,69.500
0.018,46.500,125.000,73.000,73.000
0.019,47.000,127.000,76.000,77.000
0.020,47.500,128.500,79.000,80.000
0.021,48.500,129.500,81.000,83.000
0.022,49.000,130.500,82.500,85.000
0.023,49.000,130.500,83.000,86.000
0.024,48.500,130.000,82.500,86.000
0.025,48.000,129.500,81.500,85.000
0.026,47.000,128.000,79.500,82.500
0.027,46.000,126.000,77.000,79.500
0.028,45.000,124.000,74.500,76.000
0.029,44.500,122.500,71.500,72.500
0.030,44.000,120.500,69.000,69.000
0.031,43.000,118.500,66.500,65.500
0.032,42.000,116.500,64.500,62.500
0.033,40.500,114.000,62.500,60.000
0.034,39.500,112.000,61.000,58.000
0.035,38.000,110.500,60.500,57.000
0.036,37.000,109.500,60.500,57.500
0.037,36.500,109.500,62.000,59.500
0.038,37.000,110.500,64.000,62.000
0.039,37.500,112.000,67.000,65.500
0.040,38.500,113.500,69.500,69.500
0.041,39.500,115.000,72.000,72.500
0.042,40.000,116.000,73.500,74.500
0.043,40.000,116.000,74.000,76.000
0.044,40.000,115.500,74.000,76.500
0.045,39.500,115.000,73.000,76.000
0.046,39.000,114.000,71.500,74.000
0.047,38.000,112.000,69.500,71.500
0.048,36.500,110.000,66.500,68.000
0.049,35.500,108.000,64.000,64.500
0.050,35.000,106.500,62.000,61.500
0.051,34.500,105.000,60.500,59.000
0.052,34.000,104.000,59.000,56.500
0.053,33.500,102.500,58.000,55.000
0.054,33.000,101.500,57.500,54.500
0.055,33.000,101.000,57.500,54.500
0.056,33.000,101.000,59.000,56.000
0.057,34.000,102.000,61.000,58.000
0.058,34.500,103.000,63.000,61.000
0.059,35.000,104.000,65.500,64.000
0.060,35.000,104.500,67.000,66.500
0.061,34.500,105.000,68.500,68.500
0.062,34.500,105.500,69.500,69.500
0.063,34.500,105.500,70.000,70.500
0.064,34.500,106.000,70.500,70.500
0.065,34.500,106.000,70.500,70.000
0.066,35.000,106.000,69.500,68.500
0.067,34.500,105.000,68.000,66.500
0.068,34.500,104.000,66.500,64.000
0.069,34.000,102.500,64.500,61.000
0.070,34.500,101.500,62.500,59.000
0.071,35.000,101.000,61.500,57.000
0.072,35.500,100.000,60.500,55.500
0.073,36.000,99.500,59.500,54.000
0.074,36.500,99.000,60.000,54.000
0.075,38.000,100.000,61.500,55.500
0.076,39.500,101.500,64.000,58.500
0.077,40.500,103.500,67.000,62.000
0.078,41.000,104.500,69.500,65.000
0.079,40.500,105.000,71.500,67.500
0.080,39.000,104.500,72.000,69.000
0.081,38.000,104.000,72.500,70.000
0.082,36.500,103.000,72.500,70.000
0.083,36.000,102.500,72.000,70.000
0.084,35.500,102.000,71.000,69.500
0.085,35.000,101.000,70.500,68.500
0.086,34.500,100.500,69.000,67.000
0.087,34.000,100.000,67.500,65.000
0.088,34.500,99.500,66.500,63.500
0.089,35.500,99.500,65.500,62.000
0.090,36.500,99.500,65.000,60.500
0.091,37.000,99.500,64.500,59.500
0.092,37.500,99.000,64.000,58.500
0.093,37.500,98.500,63.500,57.000
0.094,37.500,98.000,63.000,56.500
0.095,38.000,97.500,63.500,57.000
0.096,38.000,98.000,64.500,58.000
0.097,38.000,98.000,65.500,59.500
0.098,38.000,98.000,66.500,61.000
0.099,37.000,97.500,67.000,62.500
0.100,36.500,97.500,68.000,63.500
0.101,35.500,97.500,68.500,65.000
0.102,34.500,97.500,69.000,66.000
0.103,34.000,97.000,69.500,67.000
0.104,34.000,97.000,70.000,67.500
0.105,34.000,97.500,70.500,67.500
0.106,34.500,97.500,70.500,67.500
0.107,34.500,97.500,70.500,66.500
0.108,34.000,96.500,69.000,64.500
0.109,33.500,95.000,66.500,61.500
0.110,32.000,93.000,64.000,58.000
0.111,31.000,91.500,62.000,55.000
0.112,30.500,90.000,60.500,53.000
0.113,31.000,89.000,59.500,52.000
0.114,31.500,89.000,60.000,52.000
0.115,32.000,89.000,60.500,52.500
0.116,33.000,90.000,62.000,54.500
0.117,33.500,90.500,64.000,56.500
0.118,33.500,91.000,65.500,58.500
0.119,33.500,91.000,66.500,60.000
0.120,33.000,91.000,67.000,61.500
0.121,33.000,91.000,67.500,62.500
0.122,33.500,91.000,68.000,63.500
0.123,34.500,91.500,68.000,64.000
0.124,35.000,92.000,68.500,63.500
0.125,36.000,92.500,68.000,63.000
0.126,36.500,92.500,68.000,62.500
0.127,37.000,92.500,67.500,61.500
0.128,38.000,92.500,67.000,60.500
0.129,39.000,93.000,67.000,59.500
0.130,40.000,93.000,66.500,59.000
0.131,41.500,93.500,67.000,58.500
0.132,42.500,94.000,67.000,58.500
0.133,44.000,94.500,68.000,58.500
0.134,44.500,95.000,68.500,59.000
0.135,45.000,95.500,70.000,60.500
0.136,45.500,96.500,72.000,62.500
0.137,46.000,98.000,74.000,65.500
0.138,46.000,99.000,76.500,69.000
0.139,46.500,100.500,79.000,72.000
0.140,46.000,101.000,81.000,74.500
0.141,45.500,101.500,82.500,76.500
0.142,45.000,101.500,83.000,77.500
0.143,44.000,101.000,82.500,77.500
0.144,43.000,100.000,82.000,76.500
0.145,42.000,98.500,80.000,74.500
0.146,40.500,96.500,77.500,71.000
0.147,38.500,94.000,74.000,67.000
0.148,36.000,90.500,70.000,62.500
0.149,34.000,87.500,66.500,58.000
0.150,32.500,85.000,63.000,54.000
0.151,32.000,83.000,60.500,51.000
0.152,32.000,82.000,59.000,49.000
0.153,31.500,80.500,58.000,47.500
0.154,31.500,80.000,58.000,47.000
0.155,32.000,80.000,58.500,48.000
0.156,33.000,81.000,60.500,50.000
0.157,34.000,83.000,63.000,53.000
0.158,35.500,85.000,66.000,57.000
0.159,37.500,87.500,70.000,61.500
0.160,39.000,90.000,74.000,66.000
0.161,41.000,92.500,77.500,70.000
0.162,43.000,95.000,81.000,73.000
0.163,44.500,97.000,83.000,75.500
0.164,44.500,97.000,83.500,76.000
0.165,44.000,96.000,82.000,74.500
0.166,42.000,94.000,79.500,72.000
0.167,40.500,91.500,76.000,68.500
0.168,39.500,89.500,73.000,64.500
0.169,38.000,87.000,70.000,60.500
0.170,37.500,85.000,67.500,57.000
0.171,37.000,83.500,65.500,54.000
0.172,37.000,82.500,64.000,52.000
0.173,37.500,82.000,63.500,51.000
0.174,38.500,82.000,64.000,51.000
0.175,39.500,82.500,65.000,51.500
0.176,40.000,83.000,66.000,53.500
0.177,40.500,83.500,68.000,55.500
0.178,40.500,84.500,70.000,58.500
0.179,40.500,85.500,72.000,62.000
0.180,41.000,86.500,74.000,65.000
0.181,41.000,87.500,76.000,67.500
0.182,41.000,88.500,77.500,70.000
0.183,41.000,89.000,78.500,71.000
0.184,41.000,89.500,79.000,72.000
0.185,41.000,89.000,79.000,71.500
0.186,40.500,88.000,77.500,70.000
0.187,40.000,87.000,76.000,67.500
0.188,40.000,85.500,74.000,65.000
0.189,39.500,84.000,71.500,62.000
0.190,38.500,82.500,69.000,59.000
0.191,37.500,80.500,66.000,55.500
0.192,36.500,78.500,64.000,52.500
0.193,36.000,77.000,62.500,50.500
0.194,36.000,76.500,62.500,49.500
0.195,36.500,76.500,63.000,50.000
0.196,37.000,77.000,65.000,51.500
0.197,38.500,78.500,67.000,54.500
0.198,39.500,80.000,69.500,57.500
0.199,40.000,81.500,72.000,61.000
0.200,40.500,82.500,74.000,64.000
0.201,40.000,83.000,75.500,66.000
0.202,39.500,83.500,76.500,67.500
0.203,39.500,83.500,77.000,68.500
0.204,39.500,84.000,77.000,68.500
0.205,39.500,83.500,77.000,68.000
0.206,39.500,83.500,76.000,66.500
0.207,40.000,83.000,75.000,65.000
0.208,41.000,83.500,74.000,64.000
0.209,42.500,84.000,74.000,63.000
0.210,44.500,85.000,73.500,62.000
0.211,46.000,85.500,73.500,61.000
0.212,47.500,85.500,73.000,60.500
0.213,48.500,85.500,73.500,60.000
0.214,49.000,86.000,74.500,60.500
0.215,49.500,86.500,76.000,61.500
0.216,50.000,87.000,78.000,63.500
0.217,50.500,88.000,80.500,66.000
0.218,50.500,89.000,83.000,69.000
0.219,50.500,90.000,85.000,72.000
0.220,50.500,90.500,86.500,75.000
0.221,50.000,91.000,87.500,76.500
0.222,50.000,91.000,88.000,78.000
0.223,50.000,91.500,88.500,78.500
0.224,50.000,92.000,89.000,79.000
0.225,50.500,92.500,89.000,79.000
0.226,51.000,92.500,89.000,78.500
0.227,52.000,93.000,88.500,78.000
0.228,53.500,93.500,88.500,77.000
0.229,55.500,94.000,88.500,76.500
0.230,57.000,94.500,88.500,75.500
0.231,58.500,95.000,88.000,74.500
0.232,59.500,95.000,88.000,73.500
0.233,60.500,95.500,88.500,73.000
0.234,61.500,95.500,89.000,73.000
0.235,62.500,96.000,90.000,74.000
0.236,63.000,97.000,91.000,75.500
0.237,63.500,98.000,93.000,78.000
0.238,65.000,99.500,96.000,81.500
0.239,66.500,102.000,99.500,86.000
0.240,68.500,105.000,103.500,91.000
0.241,70.000,107.500,107.000,95.000
0.242,71.500,109.500,109.000,98.000
0.243,71.500,110.000,110.000,99.000
0.244,71.000,109.500,110.000,99.000
0.245,70.500,108.500,108.500,98.000
0.246,69.500,107.000,107.000,96.000
0.247,69.000,106.000,105.000,94.000
0.248,68.500,105.000,103.500,91.500
0.249,68.500,104.500,102.000,89.500
0.250,69.000,104.000,101.000,87.500
0.251,70.000,104.000,100.000,86.000
0.252,71.000,104.000,100.000,85.000
0.253,72.500,104.500,100.500,85.000
0.254,74.000,105.000,102.000,85.500
0.255,75.000,105.500,103.000,87.000
0.256,75.000,106.000,104.500,88.500
0.257,75.000,106.000,105.500,90.500
0.258,75.000,106.500,106.500,92.500
0.259,74.500,107.000,108.000,95.000
0.260,74.500,107.500,109.500,97.500
0.261,75.000,108.500,111.500,100.000
0.262,76.000,110.000,113.000,102.000
0.263,76.500,110.500,114.000,103.000
0.264,76.500,110.500,114.000,103.000
0.265,76.000,110.000,112.500,101.500
0.266,74.500,108.000,110.000,99.000
0.267,72.500,105.500,106.500,95.000
0.268,70.500,102.500,103.000,90.500
0.269,69.000,99.500,99.500,86.000
0.270,68.000,97.500,96.500,82.500
0.271,67.500,96.000,94.500,79.500
0.272,67.500,95.000,93.000,77.500
0.273,68.000,95.000,93.000,76.500
0.274,69.000,95.000,93.500,76.500
0.275,70.000,95.500,94.500,77.500
0.276,70.500,96.000,96.000,79.500
0.277,71.000,96.500,98.000,81.500
0.278,70.500,97.000,99.500,83.500
0.279,70.000,97.000,100.500,85.500
0.280,69.500,97.000,101.500,87.000
0.281,68.500,96.500,101.500,88.000
0.282,67.500,96.000,101.500,88.500
0.283,66.000,94.500,100.500,88.000
0.284,64.000,93.000,98.500,86.500
0.285,62.500,91.000,96.500,85.000
0.286,61.000,89.500,95.000,83.000
0.287,60.000,88.500,93.000,80.500
0.288,60.500,88.000,91.500,78.500
0.289,61.000,87.500,90.500,77.000
0.290,61.500,87.000,89.500,74.500
0.291,61.500,86.500,88.000,72.000
0.292,60.500,84.500,86.000,69.000
0.293,58.500,81.500,83.500,65.500
0.294,56.000,78.000,80.500,62.000
0.295,53.000,75.000,77.500,59.000
0.296,51.000,73.000,76.000,58.000
0.297,50.000,72.000,76.000,58.500
0.298,49.000,72.000,77.000,60.000
0.299,48.500,72.000,78.000,62.500
0.300,48.000,72.500,79.000,64.500
0.301,47.500,73.000,80.500,66.000
0.302,47.000,73.000,81.000,67.000
0.303,46.000,73.000,81.000,67.000
0.304,45.000,71.500,80.000,66.000
0.305,43.000,69.500,77.500,64.000
0.306,40.000,66.500,74.000,60.500
0.307,37.000,62.500,69.500,56.000
0.308,34.500,59.000,65.500,51.500
0.309,33.500,56.500,62.000,47.500
0.310,33.500,55.500,60.000,45.000
0.311,34.500,55.500,59.000,43.500
0.312,36.000,56.000,59.500,42.500
0.313,37.000,56.500,60.000,42.500
0.314,38.500,57.500,61.500,43.000
0.315,39.500,58.500,63.500,44.500
0.316,41.000,60.000,65.500,47.000
0.317,41.500,61.000,68.000,49.500
0.318,41.500,61.500,69.500,51.500
0.319,40.500,61.500,70.500,53.500
0.320,39.000,60.500,70.500,54.500
0.321,37.000,59.500,70.000,54.500
0.322,35.000,58.000,69.000,54.500
0.323,33.000,56.500,68.000,53.500
0.324,31.500,55.000,66.500,52.500
0.325,30.500,53.500,65.000,51.000
0.326,29.500,52.500,63.500,49.000
0.327,29.500,51.500,61.500,46.500
0.328,29.000,50.500,60.000,44.000
0.329,29.500,50.000,58.500,42.000
0.330,30.500,50.000,58.000,40.000
0.331,31.500,50.000,57.500,39.000
0.332,32.000,49.500,57.000,37.500
0.333,32.500,49.000,56.500,36.500
0.334,32.500,48.500,56.000,36.000
0.335,33.000,48.500,56.500,36.500
0.336,33.500,49.500,58.000,38.000
0.337,34.500,50.000,60.000,40.500
0.338,34.500,51.000,62.000,42.500
0.339,34.000,51.500,63.500,44.500
0.340,33.000,51.500,64.000,46.000
0.341,31.500,51.000,64.500,47.000
0.342,31.000,51.000,65.000,48.000
0.343,30.500,51.000,65.000,48.000
0.344,31.000,51.500,65.000,48.500
0.345,32.000,51.500,65.000,48.000
0.346,32.000,51.000,63.500,47.000
0.347,31.000,49.500,61.500,44.500
0.348,29.500,47.500,58.500,41.000
0.349,28.000,44.500,55.500,37.000
0.350,26.500,42.000,52.000,32.500
0.351,25.500,40.000,49.000,29.000
0.352,25.000,38.500,47.000,26.000
0.353,25.500,38.000,46.500,25.000
0.354,26.500,38.500,47.000,25.500
0.355,28.000,39.500,48.500,27.500
0.356,30.000,41.500,51.000,30.500
0.357,32.500,44.000,54.000,35.000
0.358,34.500,47.000,57.500,39.500
0.359,36.500,49.500,61.000,44.000
0.360,38.000,51.500,64.000,48.000
0.361,38.500,53.000,66.500,51.000
0.362,39.000,53.500,67.500,53.000
0.363,38.500,53.500,68.000,53.500
0.364,38.000,53.000,67.500,53.500
0.365,37.000,52.500,67.000,52.000
0.366,36.500,51.500,65.500,50.500
0.367,36.000,51.000,64.000,48.500
0.368,35.500,50.000,62.500,46.000
0.369,35.000,48.500,60.000,43.000
0.370,34.000,47.000,58.000,40.000
0.371,33.000,44.500,55.500,36.500
0.372,32.000,42.500,53.000,33.000
0.373,31.000,40.500,51.500,30.500
0.374,30.500,39.500,50.500,29.500
0.375,29.500,39.000,50.500,29.000
0.376,29.000,38.500,51.000,29.500
0.377,27.500,38.000,51.000,30.000
0.378,25.500,37.000,50.500,30.500
0.379,23.500,35.000,49.000,30.000
0.380,21.000,33.500,48.000,29.500
0.381,18.500,31.500,46.500,29.000
0.382,16.500,29.500,45.000,28.500
0.383,15.000,28.000,44.000,28.000
0.384,15.000,28.000,43.500,27.500
0.385,16.000,29.000,44.500,28.500
0.386,20.000,32.500,47.000,31.500
0.387,27.000,38.500,53.000,37.000
0.388,37.000,48.000,61.500,45.000
0.389,50.000,60.500,73.000,56.000
0.390,66.500,76.000,87.500,69.500
0.391,84.500,93.000,104.000,85.500
0.392,103.000,110.500,121.500,102.500
0.393,122.000,128.500,139.500,120.500
0.394,140.500,146.500,158.000,138.500
0.395,159.000,165.500,177.500,158.000
0.396,178.500,185.500,198.500,179.500
0.397,199.500,207.000,221.500,203.000
0.398,221.500,230.500,246.000,228.500
0.399,245.000,255.000,272.000,256.000
0.400,269.000,281.000,298.500,284.000
0.401,293.000,306.500,325.000,311.500
0.402,316.500,331.500,350.500,338.000
0.403,339.000,355.000,374.500,362.500
0.404,361.500,378.500,398.000,386.500
0.405,384.500,402.000,421.500,410.500
0.406,410.000,427.500,447.000,436.000
0.407,438.000,455.000,474.000,463.000
0.408,467.000,484.000,502.000,490.500
0.409,497.000,513.000,530.000,518.500
0.410,525.500,541.000,557.500,545.500
0.411,551.500,566.500,582.000,569.500
0.412,570.500,585.000,600.000,587.500
0.413,578.500,592.500,607.500,594.500
0.414,570.500,584.500,599.500,586.500
0.415,545.000,559.000,575.000,562.000
0.416,505.000,519.500,536.000,523.500
0.417,456.500,471.500,489.000,476.000
0.418,404.500,419.500,438.500,425.500
0.419,352.500,368.000,387.500,375.000
0.420,302.000,317.500,337.500,325.000
0.421,253.500,268.500,289.000,276.000
0.422,207.500,222.000,242.000,229.500
0.423,165.000,179.000,199.000,185.500
0.424,127.000,140.500,160.000,146.000
0.425,94.500,107.000,125.500,111.500
0.426,66.500,79.000,96.500,81.500
0.427,44.000,55.000,71.500,56.000
0.428,25.500,35.500,51.000,34.500
0.429,11.000,20.500,34.000,17.000
0.430,0.000,8.000,21.000,3.000
0.431,-8.000,-1.500,10.500,-8.500
0.432,-14.500,-8.500,3.000,-17.000
0.433,-18.500,-14.000,-3.000,-23.500
0.434,-21.500,-17.500,-6.500,-27.000
0.435,-23.000,-19.500,-7.500,-28.500
0.436,-23.000,-19.500,-7.000,-28.000
0.437,-22.500,-18.000,-5.000,-25.500
0.438,-21.000,-16.000,-2.000,-21.500
0.439,-19.000,-13.000,1.500,-17.000
0.440,-16.500,-10.000,5.500,-12.000
0.441,-14.000,-6.000,9.500,-7.500
0.442,-11.000,-3.000,13.000,-3.000
0.443,-9.000,-0.500,16.000,0.000
0.444,-7.500,1.500,17.500,2.000
0.445,-6.000,3.000,18.500,3.500
0.446,-4.500,4.500,20.000,4.500
0.447,-2.500,6.500,21.500,5.500
0.448,0.500,8.500,23.000,6.500
0.449,4.000,11.500,24.500,7.500
0.450,8.000,14.500,27.000,9.000
0.451,12.000,18.000,29.000,10.500
0.452,16.500,21.000,31.500,12.500
0.453,20.000,24.000,34.000,14.500
0.454,23.000,26.000,36.500,16.500
0.455,25.000,28.000,38.500,18.500
0.456,26.000,29.000,40.000,20.500
0.457,26.000,30.000,42.000,22.500
0.458,26.000,31.000,44.000,25.000
0.459,26.000,32.000,46.000,28.000
0.460,26.500,33.500,48.000,30.500
0.461,26.500,34.500,49.000,33.000
0.462,26.500,35.000,50.000,34.000
0.463,26.500,35.500,50.500,34.500
0.464,26.500,35.500,50.000,34.500
0.465,26.000,35.500,49.500,34.000
0.466,25.500,35.000,48.500,32.500
0.467,25.000,34.500,47.000,30.500
0.468,24.500,33.000,45.000,27.500
0.469,23.500,31.500,42.500,24.500
0.470,22.500,29.500,40.000,21.000
0.471,22.000,28.000,38.000,17.500
0.472,21.500,26.500,36.500,15.000
0.473,21.500,26.000,35.500,14.000
0.474,21.500,25.500,35.000,13.500
0.475,22.000,26.000,36.000,14.500
0.476,22.500,26.500,37.000,16.000
0.477,23.000,27.500,39.000,18.500
0.478,23.500,29.000,41.000,21.000
0.479,24.000,30.500,43.000,24.000
0.480,24.500,32.500,45.500,27.500
0.481,25.500,34.000,48.000,30.000
0.482,26.000,35.500,50.000,32.500
0.483,26.000,36.500,50.500,33.500
0.484,25.500,36.500,50.500,33.500
0.485,24.500,35.000,48.500,31.500
0.486,22.500,33.000,45.500,28.500
0.487,21.000,30.500,42.000,24.500
0.488,19.500,28.500,39.000,20.500
0.489,19.500,27.000,36.500,17.500
0.490,20.500,27.000,35.500,15.500
0.491,22.000,28.000,35.500,14.500
0.492,24.000,28.500,35.500,14.000
0.493,25.000,29.000,35.500,13.500
0.494,25.000,29.000,35.500,13.000
0.495,24.500,28.500,35.500,13.000
0.496,24.500,28.500,36.000,14.500
0.497,24.000,29.000,37.500,16.500
0.498,24.000,29.500,39.500,19.000
0.499,24.000,31.000,42.000,22.500
0.500,24.500,32.000,44.500,25.500
0.501,25.000,33.500,46.500,28.500
0.502,25.000,34.500,48.000,30.000
0.503,25.000,35.500,49.000,31.500
0.504,25.500,36.000,49.000,32.000
0.505,26.000,36.500,49.500,32.000
0.506,27.000,37.500,49.000,32.000
0.507,27.500,37.500,48.500,31.000
0.508,27.500,37.000,47.000,28.500
0.509,27.000,36.000,45.000,25.500
0.510,26.500,34.500,42.500,22.500
0.511,26.000,33.000,40.500,19.500
0.512,26.000,32.000,39.000,17.000
0.513,26.500,31.000,38.000,15.500
0.514,27.000,31.000,37.500,15.000
0.515,27.500,31.500,38.500,15.500
0.516,28.000,32.000,40.000,17.500
0.517,29.000,33.500,42.000,20.000
0.518,29.500,35.000,45.000,23.500
0.519,30.000,37.000,48.000,27.500
0.520,30.500,39.000,51.000,31.000
0.521,31.000,40.500,53.500,34.500
0.522,31.500,42.000,55.500,37.000
0.523,31.500,43.000,56.500,38.500
0.524,31.500,42.500,56.000,38.000
0.525,30.000,41.500,54.000,36.500
0.526,28.500,39.000,51.000,33.000
0.527,26.500,36.500,47.500,29.000
0.528,25.500,34.500,44.000,25.000
0.529,24.500,32.500,41.000,21.500
0.530,24.500,31.500,38.500,18.500
0.531,25.000,31.000,37.000,16.000
0.532,26.000,31.000,36.000,14.000
0.533,27.000,31.500,35.500,13.500
0.534,28.000,32.000,36.500,14.000
0.535,30.000,33.500,38.500,16.000
0.536,31.500,35.500,41.000,19.000
0.537,33.000,37.500,44.000,23.000
0.538,34.500,40.000,47.500,27.500
0.539,35.500,42.500,50.500,31.500
0.540,36.000,44.000,53.000,35.000
0.541,36.500,46.000,55.000,37.500
0.542,37.000,47.000,56.500,39.500
0.543,37.500,48.000,57.500,40.500
0.544,38.000,48.500,57.500,41.000
0.545,38.000,48.000,57.000,40.000
0.546,37.500,47.500,55.500,38.500
0.547,37.000,46.500,53.500,36.500
0.548,36.500,45.000,51.000,33.500
0.549,36.500,43.500,48.500,30.500
0.550,36.500,42.500,46.500,27.500
0.551,37.000,42.000,45.000,25.000
0.552,37.500,41.500,44.000,23.500
0.553,37.500,41.500,44.000,22.500
0.554,38.000,42.000,44.000,22.500
0.555,38.500,42.500,45.500,24.000
0.556,39.000,44.000,47.000,26.000
0.557,39.500,45.000,49.000,29.000
0.558,40.000,46.500,51.000,32.000
0.559,40.000,47.500,53.500,35.000
0.560,39.500,48.500,55.500,38.000
0.561,40.000,49.500,57.500,41.000
0.562,40.000,50.500,59.000,43.000
0.563,40.500,51.500,60.000,44.500
0.564,41.000,52.000,60.500,45.500
0.565,42.000,52.500,60.500,45.500
0.566,43.000,53.000,60.000,45.000
0.567,44.500,53.500,59.500,44.000
0.568,45.500,54.500,59.500,43.000
0.569,47.000,55.000,59.000,41.500
0.570,48.000,55.000,58.500,40.000
0.571,48.000,54.500,57.500,38.000
0.572,48.000,54.000,57.000,36.500
0.573,47.500,53.000,56.000,35.500
0.574,47.500,52.500,56.000,35.000
0.575,47.500,53.000,57.000,36.000
0.576,48.500,54.000,58.500,38.000
0.577,49.500,55.500,61.000,41.500
0.578,51.500,58.500,64.500,45.500
0.579,53.500,61.000,67.500,50.000
0.580,55.000,63.500,70.500,53.500
0.581,55.500,64.500,72.000,56.000
0.582,55.500,64.500,71.500,56.500
0.583,54.500,63.500,70.500,56.000
0.584,54.500,62.500,69.000,54.500
0.585,55.000,62.000,68.000,53.500
0.586,56.500,62.500,67.000,52.500
0.587,58.500,63.000,66.500,51.500
0.588,60.000,63.500,66.000,50.000
0.589,60.500,63.500,64.500,48.000
0.590,60.500,62.500,63.000,45.500
0.591,60.500,62.500,62.000,43.500
0.592,61.500,63.000,62.500,43.000
0.593,63.000,64.500,64.000,44.000
0.594,65.000,66.500,67.000,46.500
0.595,67.500,69.500,70.000,50.000
0.596,70.000,72.500,74.000,54.500
0.597,72.000,76.000,78.500,59.500
0.598,74.000,79.000,82.500,64.500
0.599,75.500,82.000,86.500,69.500
0.600,77.000,84.500,90.500,74.500
0.601,78.500,87.000,93.500,78.500
0.602,80.000,89.000,96.000,81.000
0.603,81.500,91.000,98.000,83.500
0.604,83.000,93.000,99.500,85.000
0.605,85.000,95.000,101.500,86.500
0.606,87.500,97.500,103.000,87.500
0.607,90.500,100.000,105.000,89.000
0.608,93.000,102.000,106.500,89.500
0.609,96.000,104.000,107.000,89.500
0.610,98.500,105.500,108.000,89.500
0.611,101.000,107.000,109.000,89.000
0.612,103.500,108.500,110.000,89.500
0.613,106.000,110.500,112.000,90.500
0.614,108.500,112.500,114.500,92.500
0.615,111.000,115.000,117.500,95.500
0.616,113.000,117.500,120.500,99.000
0.617,115.000,120.500,124.500,103.000
0.618,117.500,123.500,128.000,107.500
0.619,120.000,126.000,131.500,112.000
0.620,122.000,129.000,135.000,116.000
0.621,124.500,132.000,138.500,119.500
0.622,126.000,134.500,141.000,123.000
0.623,127.000,136.500,143.500,125.500
0.624,127.500,137.500,145.000,127.000
0.625,128.500,138.500,145.500,127.500
0.626,129.000,139.000,146.000,128.000
0.627,131.000,140.000,146.500,128.000
0.628,133.500,142.000,147.500,128.500
0.629,137.000,144.500,149.500,129.500
0.630,141.000,147.500,152.000,131.500
0.631,145.000,151.000,154.500,133.500
0.632,149.500,154.000,157.000,135.500
0.633,153.000,157.000,160.000,138.000
0.634,156.000,159.500,163.000,140.500
0.635,158.500,162.000,165.500,143.000
0.636,161.000,165.000,169.000,147.000
0.637,163.500,168.000,173.500,151.500
0.638,167.000,172.500,179.000,157.500
0.639,170.500,177.000,184.500,164.000
0.640,173.500,181.000,189.500,170.500
0.641,176.500,185.000,194.500,175.500
0.642,179.500,188.500,198.000,180.000
0.643,182.000,191.000,201.000,183.500
0.644,184.000,193.500,203.000,185.500
0.645,185.500,195.000,203.500,186.500
0.646,186.500,196.000,203.500,186.000
0.647,187.500,196.500,203.500,185.500
0.648,188.500,197.500,203.000,184.500
0.649,190.500,198.500,203.500,184.000
0.650,192.500,200.000,204.000,184.000
0.651,195.000,202.000,205.000,184.500
0.652,198.000,204.000,206.500,185.000
0.653,200.500,206.000,207.500,186.000
0.654,203.000,207.500,209.000,187.000
0.655,204.500,209.000,210.500,188.000
0.656,205.500,210.000,212.000,190.000
0.657,206.000,211.500,214.000,192.500
0.658,206.500,212.500,216.000,195.000
0.659,206.000,213.000,217.500,197.500
0.660,205.500,213.500,218.500,199.000
0.661,204.000,213.000,218.500,199.500
0.662,202.500,212.000,218.000,199.500
0.663,200.500,210.500,216.500,198.000
0.664,198.500,209.000,215.000,196.500
0.665,196.500,207.000,213.000,194.500
0.666,194.500,205.000,210.500,191.500
0.667,193.000,203.000,207.500,188.500
0.668,191.000,200.500,204.000,184.500
0.669,189.000,198.000,200.500,180.500
0.670,186.500,195.000,196.500,175.500
0.671,183.500,191.500,192.000,170.000
0.672,180.000,187.000,187.000,164.500
0.673,175.500,182.000,182.000,159.000
0.674,171.500,177.500,177.500,154.000
0.675,167.000,173.000,174.000,150.000
0.676,163.500,169.500,171.000,147.000
0.677,159.500,166.000,168.500,145.000
0.678,156.500,163.500,166.500,143.500
0.679,153.000,161.000,164.500,142.500
0.680,149.500,158.500,163.000,141.500
0.681,146.000,156.000,161.000,139.500
0.682,142.500,153.000,158.500,137.500
0.683,139.000,150.000,155.500,134.500
0.684,135.500,147.000,152.500,131.500
0.685,132.000,143.500,148.500,127.500
0.686,128.000,139.500,143.500,122.500
0.687,124.000,134.500,138.000,116.500
0.688,119.500,129.500,132.000,110.000
0.689,115.500,124.500,125.500,103.500
0.690,112.000,119.500,119.500,96.500
0.691,109.000,115.500,114.500,90.500
0.692,106.500,112.000,110.500,86.000
0.693,104.500,109.500,107.000,82.000
0.694,102.500,107.000,104.500,79.000
0.695,100.000,105.000,102.500,76.500
0.696,97.500,102.500,100.500,74.500
0.697,94.500,100.500,99.000,73.500
0.698,92.500,99.000,98.500,73.500
0.699,91.000,98.500,98.500,74.500
0.700,89.500,98.500,99.500,76.500
0.701,88.500,99.000,100.500,78.000
0.702,87.000,99.000,100.000,78.500
0.703,85.500,98.000,99.000,77.500
0.704,83.500,96.000,97.500,76.500
0.705,81.500,94.500,95.000,74.000
0.706,79.500,92.000,92.500,71.500
0.707,78.000,89.500,89.000,68.000
0.708,75.500,87.000,85.500,64.000
0.709,73.000,84.000,81.000,59.000
0.710,70.500,81.000,77.000,54.500
0.711,68.500,78.000,73.500,50.000
0.712,66.500,76.000,70.500,46.000
0.713,65.500,74.000,68.500,43.500
0.714,64.000,72.500,67.000,41.500
0.715,63.000,71.000,65.500,40.000
0.716,61.500,70.000,64.500,39.500
0.717,60.500,69.500,65.000,40.500
0.718,60.000,70.000,66.000,42.500
0.719,60.000,71.000,67.500,45.500
0.720,60.000,72.000,69.000,48.000
0.721,60.000,72.500,69.500,49.500
0.722,59.000,72.500,69.500,50.000
0.723,58.000,72.000,69.000,49.500
0.724,56.500,71.000,68.000,48.500
0.725,55.000,69.500,66.000,47.000
0.726,53.500,68.000,63.500,44.000
0.727,51.500,65.500,60.500,40.500
0.728,49.500,63.500,57.500,36.500
0.729,48.500,61.500,54.500,32.500
0.730,48.000,60.500,52.500,29.500
0.731,48.500,60.000,51.000,27.500
0.732,49.000,60.500,50.500,26.000
0.733,50.000,61.000,51.000,25.500
0.734,51.000,62.000,52.000,26.000
0.735,52.000,63.000,53.500,27.000
0.736,52.500,64.000,55.000,29.000
0.737,52.500,64.500,56.000,30.500
0.738,52.000,64.500,57.000,32.500
0.739,51.500,64.500,57.500,34.000
0.740,50.500,64.500,58.000,35.500
0.741,50.000,64.000,58.000,36.500
0.742,49.000,64.000,58.000,37.000
0.743,48.000,63.500,58.000,37.000
0.744,47.500,63.000,57.500,36.500
0.745,46.500,62.500,56.500,35.500
0.746,46.000,62.000,55.000,34.000
0.747,45.500,61.000,53.500,32.500
0.748,45.000,60.500,51.500,30.000
0.749,45.000,59.500,49.500,27.500
0.750,44.500,59.000,48.000,25.000
0.751,44.500,58.000,46.000,22.500
0.752,44.000,56.500,44.500,20.500
0.753,44.000,55.500,43.000,18.500
0.754,43.500,55.000,42.500,18.000
0.755,43.500,55.000,43.000,18.000
0.756,44.000,55.500,44.000,19.500
0.757,44.000,56.500,45.500,22.000
0.758,44.500,58.000,48.000,25.000
0.759,45.500,60.000,51.000,28.500
0.760,46.000,62.000,53.500,32.500
0.761,47.000,64.000,56.500,35.500
0.762,48.500,65.500,59.000,38.500
0.763,49.500,67.000,60.500,40.000
0.764,50.000,68.000,61.000,40.500
0.765,49.500,67.500,60.000,39.500
0.766,48.500,66.500,58.500,37.500
0.767,47.500,65.500,56.500,35.000
0.768,47.500,64.500,55.000,33.000
0.769,47.500,64.000,53.500,31.000
0.770,47.500,63.500,52.000,29.000
0.771,47.000,62.500,50.500,27.000
0.772,46.500,61.500,48.500,24.500
0.773,46.000,60.000,47.000,22.000
0.774,45.000,59.000,46.000,20.500
0.775,44.500,58.000,45.500,20.500
0.776,44.500,58.500,46.000,21.500
0.777,45.000,59.000,48.000,24.000
0.778,46.000,61.000,50.500,27.500
0.779,47.500,63.500,53.500,32.000
0.780,49.500,66.500,57.000,36.500
0.781,51.500,69.000,60.500,40.500
0.782,53.000,71.500,62.500,43.000
0.783,54.000,72.500,63.500,44.000
0.784,53.500,72.000,63.000,43.000
0.785,53.000,71.000,61.000,41.000
0.786,51.500,69.500,58.500,38.000
0.787,50.000,67.500,55.500,34.500
0.788,48.500,66.000,52.500,31.000
0.789,47.500,64.000,50.000,27.500
0.790,46.500,62.500,47.500,24.000
0.791,46.000,61.000,45.000,20.500
0.792,45.500,60.000,43.500,18.500
0.793,45.500,59.000,43.000,17.000
0.794,45.500,59.000,43.000,17.000
0.795,46.000,59.500,44.000,18.000
0.796,46.500,60.000,45.500,20.000
0.797,47.000,61.000,47.500,22.500
0.798,47.000,62.500,49.500,25.500
0.799,47.500,63.500,52.000,29.000
0.800,47.500,64.500,54.500,31.500
0.801,47.500,65.500,56.000,34.000
0.802,47.500,66.500,57.500,36.000
0.803,47.500,67.500,58.000,37.000
0.804,47.000,67.500,58.000,37.000
0.805,46.500,67.000,57.000,36.000
0.806,45.500,66.000,55.000,34.000
0.807,44.500,64.500,52.500,31.000
0.808,43.000,62.500,49.500,27.500
0.809,42.000,60.500,47.000,24.000
0.810,41.500,58.500,44.500,21.000
0.811,41.000,57.000,42.500,18.000
0.812,41.000,56.500,41.500,16.500
0.813,41.500,56.000,41.000,15.500
0.814,42.500,56.500,41.500,16.000
0.815,44.000,58.000,43.000,17.500
0.816,46.000,59.500,45.500,20.000
0.817,47.500,61.500,48.000,23.500
0.818,48.500,63.500,50.000,26.500
0.819,49.000,64.500,52.000,29.500
0.820,49.000,66.000,53.500,32.000
0.821,49.000,66.500,55.000,34.000
0.822,49.500,67.500,56.000,35.500
0.823,49.000,67.500,56.000,36.000
0.824,48.500,67.000,55.500,35.500
0.825,47.000,66.000,54.500,34.500
0.826,46.000,64.000,52.500,32.500
0.827,44.500,62.500,50.000,30.000
0.828,43.500,60.500,47.500,26.500
0.829,42.500,59.500,45.000,23.500
0.830,42.500,58.500,43.500,20.500
0.831,42.500,58.000,42.000,18.500
0.832,43.000,57.500,41.000,17.000
0.833,44.000,57.500,41.000,16.000
0.834,44.500,58.000,41.000,16.000
0.835,45.500,58.000,42.000,17.000
0.836,46.000,58.500,43.500,19.000
0.837,47.000,60.000,45.500,21.500
0.838,47.500,62.000,48.000,25.000
0.839,47.500,63.000,50.000,28.000
0.840,47.000,63.500,51.000,30.000
0.841,45.000,63.500,51.500,30.500
0.842,43.500,62.500,51.000,30.500
0.843,42.500,62.000,50.500,30.000
0.844,41.500,61.000,49.500,29.500
0.845,41.000,60.500,48.500,28.500
0.846,40.500,59.500,46.500,26.500
0.847,39.000,58.000,44.000,23.500
0.848,37.500,56.000,41.000,20.000
0.849,35.500,53.500,37.500,15.500
0.850,34.000,51.500,34.500,12.000
0.851,33.500,50.000,32.500,9.000
0.852,34.000,50.000,31.500,7.500
0.853,35.000,50.500,32.000,7.500
0.854,36.500,52.000,33.000,8.000
0.855,38.500,53.500,34.500,10.000
0.856,39.500,55.000,36.500,12.000
0.857,40.500,56.000,38.500,14.500
0.858,41.000,57.000,40.000,17.000
0.859,40.000,57.000,41.000,18.500
0.860,38.500,56.500,41.500,20.000
0.861,36.500,56.000,41.500,21.000
0.862,36.000,56.000,42.000,22.500
0.863,36.000,57.000,43.000,24.000
0.864,37.000,58.500,44.500,25.500
0.865,38.500,60.500,46.000,27.000
0.866,41.000,62.500,47.000,28.000
0.867,43.500,64.500,48.500,28.500
0.868,46.000,67.000,49.500,29.000
0.869,49.000,69.000,50.500,29.500
0.870,51.500,71.000,51.000,29.500
0.871,54.000,72.000,51.500,29.000
0.872,55.500,73.000,51.500,29.000
0.873,56.500,73.500,51.500,28.500
0.874,57.000,74.000,52.000,28.500
0.875,57.000,74.000,52.500,29.500
0.876,56.500,74.500,53.000,30.500
0.877,56.000,74.500,54.500,32.500
0.878,56.000,75.500,56.000,35.000
0.879,56.500,77.000,58.000,38.000
0.880,58.000,79.000,61.000,42.000
0.881,59.500,81.000,64.000,45.500
0.882,60.500,83.000,66.000,48.000
0.883,61.000,84.000,66.500,49.000
0.884,61.000,84.500,66.500,49.000
0.885,60.500,84.500,65.500,48.500
0.886,60.000,83.500,64.000,47.000
0.887,59.500,83.000,62.000,44.500
0.888,59.500,82.000,60.500,42.500
0.889,60.000,81.500,59.000,40.000
0.890,60.500,81.500,58.000,38.000
0.891,61.500,81.500,57.000,36.000
0.892,62.500,81.500,56.000,34.500
0.893,63.000,80.500,55.000,32.500
0.894,62.500,79.500,54.000,31.500
0.895,62.000,78.500,53.500,30.500
0.896,61.000,77.500,53.500,30.500
0.897,60.000,77.000,53.500,31.500
0.898,58.500,76.500,54.000,32.500
0.899,57.000,76.500,54.500,34.000
0.900,55.500,76.000,54.500,35.000
0.901,54.000,75.500,54.500,35.500
0.902,53.000,75.500,55.000,36.000
0.903,52.500,75.500,55.000,36.500
0.904,52.500,76.000,55.000,37.000
0.905,53.000,77.000,55.000,37.000
0.906,53.500,77.500,55.000,37.000
0.907,54.500,78.000,54.000,36.000
0.908,55.500,78.000,53.000,34.500
0.909,55.500,77.500,51.000,32.000
0.910,55.500,76.500,49.000,28.500
0.911,55.000,75.500,46.500,25.500
0.912,54.500,74.000,44.500,22.000
0.913,53.000,72.500,42.500,19.500
0.914,51.500,71.000,41.500,17.500
0.915,50.000,70.000,40.500,16.500
0.916,49.000,69.000,40.500,17.000
0.917,48.000,69.500,41.500,19.000
0.918,48.500,70.500,43.500,22.000
0.919,49.500,72.000,46.500,26.000
0.920,51.000,74.500,49.500,30.000
0.921,52.000,76.500,52.000,33.000
0.922,53.000,77.500,53.500,35.000
0.923,52.500,77.500,53.500,35.000
0.924,51.500,76.500,52.500,34.000
0.925,50.000,75.000,50.500,31.500
0.926,48.500,73.000,48.000,29.000
0.927,47.000,71.000,45.500,26.000
0.928,46.000,69.500,42.500,22.500
0.929,45.500,68.000,39.500,19.500
0.930,46.000,67.000,37.500,16.500
0.931,47.000,67.500,36.500,15.000
0.932,49.000,68.500,37.000,14.500
0.933,51.000,69.500,38.000,15.500
0.934,53.000,71.500,40.000,17.000
0.935,55.000,73.000,42.000,19.000
0.936,57.000,75.000,44.000,22.000
0.937,58.500,77.500,47.000,25.000
0.938,60.500,79.500,49.500,29.000
0.939,61.500,82.000,52.500,32.500
0.940,62.000,84.000,55.000,35.500
0.941,62.000,85.000,56.500,37.500
0.942,61.500,85.000,57.000,38.500
0.943,60.000,85.000,57.000,38.500
0.944,58.500,84.000,56.000,38.000
0.945,57.500,83.000,54.500,36.000
0.946,56.000,81.500,52.500,34.000
0.947,55.000,80.000,50.000,31.500
0.948,54.000,78.500,47.500,28.000
0.949,53.500,77.000,45.000,24.500
0.950,52.500,75.500,42.000,21.000
0.951,52.500,74.500,40.000,18.000
0.952,52.000,73.500,38.000,15.500
0.953,52.500,73.500,37.500,13.500
0.954,53.000,73.500,37.500,13.000
0.955,54.000,73.500,38.000,13.500
0.956,54.500,74.500,39.000,15.000
0.957,55.000,75.000,40.500,17.500
0.958,55.500,76.500,42.000,20.000
0.959,56.000,77.500,44.000,23.500
0.960,56.500,79.000,46.500,26.500
0.961,57.000,80.500,48.500,29.500
0.962,58.000,82.000,50.500,32.000
0.963,59.000,83.500,52.000,34.000
0.964,59.500,84.500,52.500,35.000
0.965,59.000,84.500,52.000,34.000
0.966,58.000,83.500,50.000,32.000
0.967,57.000,82.000,48.000,29.000
0.968,56.500,81.000,46.000,26.500
0.969,56.500,80.500,44.000,24.000
0.970,57.000,80.000,42.500,22.000
0.971,57.500,80.000,41.500,20.500
0.972,58.000,79.500,41.000,18.500
0.973,58.000,79.500,40.500,17.500
0.974,58.000,80.000,41.000,17.500
0.975,58.500,80.500,42.000,18.500
0.976,59.000,81.500,44.000,20.500
0.977,59.500,83.000,46.000,23.000
0.978,60.000,84.500,48.500,26.000
0.979,60.000,85.500,50.500,29.000
0.980,60.000,87.000,52.500,32.000
0.981,60.500,88.000,54.000,34.500
0.982,60.500,89.000,55.500,36.500
0.983,61.000,89.500,56.000,37.500
0.984,60.500,89.500,55.500,37.500
0.985,60.000,89.000,54.500,36.500
0.986,59.000,88.000,52.500,34.500
0.987,57.500,87.000,50.500,31.500
0.988,56.500,85.500,47.500,28.500
0.989,55.500,84.000,45.000,25.000
0.990,55.000,82.500,42.500,22.000
0.991,55.000,81.500,40.500,19.000
0.992,54.000,80.000,38.500,16.000
0.993,53.000,78.500,36.500,13.000
0.994,52.000,76.500,34.500,10.500
0.995,50.500,75.000,32.500,8.500
0.996,49.500,74.000,31.500,7.500
0.997,48.500,73.500,31.500,8.000
0.998,47.500,74.000,32.500,10.000
0.999,47.500,75.000,34.000,13.000
1.000,48.000,76.500,36.500,16.500
1.001,49.500,79.000,40.000,20.500
1.002,53.500,83.500,45.000,26.000
1.003,60.000,90.500,52.000,34.000
1.004,69.500,101.000,62.500,44.500
1.005,83.000,114.500,76.000,58.000
1.006,99.500,131.500,92.000,74.000
1.007,118.500,150.000,110.000,92.000
1.008,138.000,169.000,128.000,109.500
1.009,156.500,187.000,145.000,126.000
1.010,173.000,203.500,160.000,140.000
1.011,188.500,218.500,174.000,153.000
1.012,205.000,233.500,188.500,167.000
1.013,222.500,250.500,205.000,183.500
1.014,242.000,270.000,224.500,202.500
1.015,264.000,292.000,246.500,225.000
1.016,287.000,315.500,271.000,250.500
1.017,311.500,341.000,297.000,277.500
1.018,336.000,366.500,324.000,305.500
1.019,360.000,392.000,351.000,333.500
1.020,383.000,417.000,377.000,361.000
1.021,406.500,442.000,403.000,388.000
1.022,431.500,468.500,429.500,415.500
1.023,458.500,496.500,458.000,444.500
1.024,487.000,526.000,487.500,474.500
1.025,517.000,556.000,517.500,504.500
1.026,546.000,585.500,546.500,533.000
1.027,573.000,612.500,573.000,559.000
1.028,595.000,634.000,594.000,579.500
1.029,607.500,646.000,605.000,590.000
1.030,606.000,644.500,602.500,586.500
1.031,588.500,626.500,583.500,566.500
1.032,555.500,593.500,550.000,532.000
1.033,512.500,550.000,506.500,487.500
1.034,465.000,501.500,458.500,438.500
1.035,416.000,452.500,410.000,389.500
1.036,368.500,404.500,362.500,342.000
1.037,322.500,359.000,317.500,297.000
1.038,278.500,315.000,274.000,253.500
1.039,237.000,274.000,233.500,213.000
1.040,199.000,236.500,196.000,176.000
1.041,164.500,203.000,162.500,142.000
1.042,134.500,173.000,132.500,112.000
1.043,108.500,147.000,106.000,85.500
1.044,86.500,125.000,83.500,62.500
1.045,68.000,106.000,63.500,43.000
1.046,53.000,90.000,46.500,25.500
1.047,41.000,76.000,31.500,10.500
1.048,32.000,65.000,19.000,-3.000
1.049,25.500,57.000,9.000,-13.500
1.050,22.000,51.500,2.500,-21.500
1.051,20.500,48.500,-2.500,-27.000
1.052,20.500,47.000,-4.500,-30.000
1.053,21.500,47.500,-5.000,-31.500
1.054,23.500,49.500,-3.000,-30.000
1.055,26.500,52.500,0.500,-27.000
1.056,30.000,57.000,5.500,-21.500
1.057,34.000,62.500,11.500,-15.000
1.058,37.500,68.000,18.500,-7.500
1.059,41.500,73.500,25.000,0.000
1.060,44.500,78.500,30.500,7.000
1.061,48.000,83.000,36.000,13.000
1.062,50.500,87.000,40.000,17.500
1.063,53.000,90.500,44.000,21.500
1.064,55.500,93.500,46.500,24.500
1.065,58.000,95.500,49.000,26.500
1.066,59.500,97.000,49.500,27.500
1.067,60.000,97.000,49.000,26.500
1.068,60.000,96.000,47.000,23.500
1.069,59.500,95.000,44.500,20.500
1.070,59.500,93.500,42.500,17.000
1.071,59.500,93.000,41.000,15.000
1.072,60.500,93.000,40.000,13.500
1.073,61.500,93.500,40.000,13.000
1.074,62.000,93.500,40.000,13.000
1.075,62.500,93.500,40.500,13.000
1.076,61.500,93.000,40.500,13.500
1.077,60.500,92.500,41.000,14.500
1.078,59.500,93.000,42.000,16.500
1.079,59.500,94.000,44.000,19.000
1.080,60.500,96.000,47.000,22.500
1.081,62.000,98.500,50.000,26.500
1.082,63.500,101.000,52.500,29.500
1.083,65.000,103.000,54.500,32.000
1.084,66.500,105.000,56.000,34.000
1.085,67.000,105.500,56.500,34.000
1.086,67.000,105.500,55.000,33.000
1.087,66.000,104.000,52.500,30.000
1.088,64.000,101.500,48.500,26.000
1.089,62.500,99.000,44.500,21.000
1.090,61.500,97.000,41.000,17.000
1.091,60.500,95.500,38.500,13.500
1.092,60.500,94.500,36.500,11.000
1.093,61.000,94.000,36.000,10.000
1.094,61.500,94.000,36.500,10.000
1.095,62.000,94.500,37.500,11.000
1.096,63.000,95.500,38.500,13.000
1.097,63.500,97.000,40.500,15.000
1.098,63.500,98.000,42.000,17.500
1.099,63.500,98.500,43.500,20.500
1.100,62.500,99.000,44.500,22.500
1.101,62.000,98.500,45.000,24.000
1.102,61.000,98.500,45.000,25.000
1.103,60.500,98.500,45.000,25.500
1.104,60.500,99.000,45.500,25.500
1.105,60.500,99.500,45.500,25.500
1.106,61.500,100.500,46.000,25.500
1.107,62.500,101.500,46.000,25.000
1.108,63.500,102.000,46.000,24.500
1.109,64.500,102.500,45.000,23.500
1.110,65.000,102.500,44.000,21.500
1.111,65.000,101.500,42.500,19.000
1.112,65.500,101.000,41.000,17.000
1.113,65.500,101.000,40.000,15.500
1.114,66.500,101.500,40.000,15.500
1.115,67.500,102.500,41.000,16.500
1.116,68.500,103.500,42.500,18.000
1.117,69.000,104.500,44.000,20.000
1.118,68.500,105.500,45.500,22.000
1.119,68.000,105.500,46.500,24.000
1.120,67.000,105.500,47.500,25.500
1.121,66.000,105.500,48.000,27.000
1.122,65.000,105.500,48.000,28.000
1.123,64.500,105.500,48.000,28.000
1.124,64.000,105.000,47.500,27.500
1.125,64.000,105.000,47.000,26.500
1.126,64.000,105.000,46.000,25.000
1.127,64.500,105.000,45.000,24.000
1.128,65.500,105.500,44.500,22.500
1.129,66.500,106.000,43.500,21.500
1.130,67.000,106.000,42.500,20.000
1.131,67.000,105.000,41.000,17.500
1.132,67.000,104.500,39.500,15.500
1.133,66.500,103.500,38.500,14.000
1.134,67.000,103.000,38.500,14.000
1.135,67.500,103.500,39.500,15.000
1.136,68.500,105.000,41.500,17.000
1.137,69.500,106.500,43.500,19.500
1.138,70.000,108.000,45.500,22.500
1.139,71.000,109.500,48.000,25.500
1.140,71.500,111.500,51.000,29.000
1.141,72.500,114.000,54.000,32.500
1.142,73.500,116.000,56.500,35.500
1.143,74.500,118.000,58.500,37.500
1.144,75.000,119.000,59.500,39.000
1.145,75.000,119.500,59.500,39.000
1.146,74.500,119.500,58.500,37.500
1.147,73.500,118.500,56.500,35.500
1.148,72.500,117.000,54.000,32.500
1.149,71.500,115.500,51.500,29.500
1.150,71.000,114.500,49.000,26.500
1.151,70.500,113.000,47.000,24.000
1.152,70.000,112.000,45.000,21.500
1.153,70.000,111.000,43.500,20.000
1.154,70.000,111.000,43.000,19.000
1.155,70.500,111.000,43.000,19.500
1.156,70.500,111.000,43.500,20.000
1.157,70.500,111.500,44.000,21.500
1.158,71.000,112.000,45.500,23.500
1.159,71.500,113.500,47.500,26.000
1.160,72.000,115.000,49.500,29.000
1.161,72.500,116.000,51.500,31.500
1.162,72.500,117.000,52.500,33.000
1.163,72.000,117.500,52.500,33.500
1.164,72.000,117.500,52.500,34.000
1.165,72.000,118.000,52.500,33.500
1.166,72.500,118.500,52.000,33.500
1.167,73.000,118.500,51.500,32.500
1.168,73.000,118.500,50.000,30.500
1.169,72.500,117.500,48.000,28.000
1.170,72.000,116.500,45.500,25.500
1.171,71.500,115.000,43.500,23.000
1.172,72.000,114.500,42.500,21.000
1.173,72.500,114.500,42.000,20.000
1.174,73.500,115.000,42.500,20.500
1.175,74.500,115.500,43.500,21.000
1.176,75.500,116.500,45.500,23.000
1.177,76.500,118.500,47.500,26.000
1.178,77.000,120.500,50.000,29.000
1.179,78.000,122.500,53.000,32.500
1.180,78.500,124.500,55.500,36.000
1.181,79.000,126.500,57.500,39.000
1.182,79.500,127.500,59.000,41.000
1.183,80.500,129.000,60.500,42.500
1.184,81.500,130.000,61.500,44.000
1.185,82.500,131.000,61.500,44.500
1.186,83.000,131.500,61.500,44.000
1.187,83.000,131.000,60.500,42.000
1.188,82.500,130.500,58.500,40.000
1.189,82.000,129.500,56.500,37.000
1.190,82.000,128.500,54.500,33.500
1.191,82.000,127.500,52.500,30.500
1.192,82.500,127.000,51.000,28.000
1.193,83.500,126.500,50.000,27.000
1.194,84.500,127.500,50.500,27.000
1.195,85.500,128.500,52.000,28.500
1.196,87.000,130.500,54.000,31.000
1.197,88.500,133.000,57.000,34.500
1.198,90.000,135.000,60.000,38.500
1.199,91.000,137.500,63.000,42.000
1.200,92.000,139.000,65.000,45.500
1.201,92.500,140.500,66.500,48.000
1.202,93.000,141.500,67.500,49.500
1.203,93.500,142.500,68.500,51.000
1.204,94.000,143.500,69.000,51.500
1.205,94.500,144.000,69.000,52.000
1.206,95.000,144.500,69.000,52.000
1.207,95.000,144.500,68.000,51.000
1.208,95.500,144.500,67.000,49.500
1.209,95.500,144.000,66.000,47.500
1.210,96.000,144.500,65.500,45.500
1.211,97.000,144.500,65.000,44.500
1.212,98.000,145.000,65.000,43.500
1.213,99.500,145.500,65.500,43.000
1.214,101.000,146.500,66.500,44.000
1.215,103.500,148.500,69.500,46.500
1.216,106.500,152.000,73.000,50.500
1.217,109.500,155.500,77.500,55.500
1.218,111.500,159.000,81.500,61.000
1.219,113.500,162.000,85.500,65.500
1.220,115.000,164.500,88.500,69.500
1.221,116.000,167.000,91.500,73.500
1.222,118.000,169.500,94.500,76.500
1.223,120.000,172.500,97.000,79.500
1.224,123.000,175.500,99.500,82.000
1.225,126.000,178.500,102.000,84.500
1.226,129.000,181.500,104.000,86.500
1.227,132.000,184.000,105.500,87.500
1.228,135.000,186.000,107.000,88.500
1.229,137.500,188.000,107.500,88.500
1.230,140.000,190.000,108.500,88.500
1.231,142.500,191.500,109.500,88.500
1.232,145.000,193.500,111.000,89.500
1.233,148.000,195.500,113.000,91.000
1.234,151.500,198.500,116.000,93.500
1.235,154.500,201.500,119.500,97.500
1.236,157.000,205.000,123.500,101.500
1.237,159.000,207.500,127.500,105.500
1.238,160.000,210.000,131.000,109.500
1.239,161.000,212.500,134.000,113.500
1.240,162.500,215.000,138.000,118.000
1.241,164.500,218.500,142.500,122.500
1.242,167.000,222.000,146.500,127.000
1.243,170.000,225.000,150.500,131.000
1.244,172.500,228.500,153.500,134.500
1.245,175.500,231.000,156.000,137.000
1.246,178.500,233.500,158.000,139.000
1.247,181.500,236.000,159.000,140.000
1.248,184.000,237.500,159.000,140.000
1.249,186.500,238.500,158.000,138.500
1.250,188.000,239.500,157.500,137.500
1.251,190.000,240.500,157.000,136.500
1.252,192.500,242.000,157.500,136.500
1.253,195.500,244.500,160.000,138.500
1.254,199.500,248.000,163.000,142.000
1.255,203.500,252.000,167.500,146.000
1.256,206.500,255.500,171.500,150.500
1.257,209.000,258.500,175.500,155.500
1.258,210.500,261.500,180.000,160.000
1.259,212.500,265.000,184.000,165.000
1.260,214.000,268.000,188.000,170.000
1.261,216.000,271.000,192.000,174.500
1.262,217.500,274.000,195.500,178.500
1.263,219.000,276.500,198.000,181.000
1.264,220.000,278.500,199.500,183.000
1.265,220.500,279.500,200.500,183.500
1.266,221.000,280.000,200.500,183.000
1.267,221.500,280.500,200.000,182.000
1.268,222.000,280.500,199.000,180.000
1.269,223.000,280.000,197.500,178.000
1.270,223.500,280.000,196.500,175.500
1.271,224.500,279.500,195.500,173.000
1.272,225.000,279.500,194.500,171.000
1.273,225.000,279.000,193.500,169.000
1.274,225.500,278.500,193.000,168.500
1.275,225.500,278.000,193.000,168.000
1.276,225.000,278.000,193.500,168.500
1.277,224.500,277.500,193.500,168.500
1.278,223.000,277.000,193.000,169.000
1.279,220.500,275.500,192.000,169.000
1.280,217.500,274.000,191.000,168.500
1.281,214.500,272.000,189.000,168.000
1.282,211.500,270.000,187.500,166.500
1.283,208.500,268.000,185.000,164.500
1.284,205.500,265.000,182.000,161.500
1.285,201.500,261.000,178.000,157.000
1.286,197.000,257.000,173.000,151.500
1.287,193.000,252.500,167.500,146.000
1.288,189.000,248.500,162.500,140.000
1.289,185.500,244.500,157.000,134.500
1.290,182.500,241.000,151.500,128.500
1.291,179.000,237.000,146.000,122.500
1.292,175.500,232.500,140.500,116.500
1.293,172.000,228.500,136.000,111.500
1.294,168.500,225.000,132.000,107.500
1.295,165.500,222.500,129.500,104.500
1.296,163.000,220.000,127.500,103.000
1.297,160.500,218.000,126.500,102.000
1.298,158.000,216.500,125.500,101.500
1.299,155.500,214.500,124.500,101.500
1.300,152.500,212.500,123.000,101.000
1.301,149.500,210.500,121.000,100.000
1.302,146.000,208.500,119.000,98.000
1.303,143.000,205.500,116.000,95.500
1.304,139.000,202.000,112.000,91.500
1.305,135.000,198.000,107.500,86.500
1.306,130.000,193.000,102.000,80.500
1.307,125.000,187.500,95.500,73.500
1.308,120.000,182.000,88.500,66.000
1.309,115.500,177.000,82.000,59.000
1.310,112.000,173.000,76.500,53.000
1.311,110.000,170.500,73.000,49.000
1.312,109.500,169.500,71.000,46.500
1.313,109.500,169.000,70.000,45.500
1.314,109.000,168.500,69.500,45.500
1.315,108.500,168.500,69.500,46.000
1.316,108.000,168.000,70.000,47.000
1.317,107.500,168.500,70.500,48.500
1.318,107.000,168.500,71.500,50.000
1.319,106.500,168.500,72.000,51.500
1.320,105.000,168.000,71.500,52.500
1.321,103.000,167.000,70.500,52.000
1.322,100.500,165.500,69.000,51.500
1.323,98.000,163.500,67.000,49.500
1.324,96.000,161.500,65.000,48.000
1.325,93.500,160.000,62.500,45.500
1.326,92.000,158.000,60.000,42.500
1.327,90.500,157.000,57.000,39.500
1.328,89.500,155.500,54.500,37.000
1.329,89.000,155.000,52.500,34.000
1.330,89.000,154.000,51.000,32.000
1.331,89.000,153.500,49.500,30.000
1.332,89.500,153.000,48.500,28.500
1.333,89.500,153.000,48.000,27.500
1.334,90.000,152.500,47.500,26.500
1.335,90.000,152.500,47.500,26.500
1.336,90.000,152.500,48.000,27.000
1.337,89.500,152.500,49.000,28.500
1.338,89.000,152.500,50.000,30.500
1.339,88.500,153.000,51.500,33.000
1.340,88.000,154.000,52.500,35.500
1.341,87.500,154.500,54.000,38.000
1.342,87.500,155.500,55.000,40.000
1.343,87.000,156.500,56.000,41.500
1.344,87.000,156.500,55.500,41.500
1.345,86.000,156.000,54.500,40.000
1.346,85.000,155.000,52.500,38.000
1.347,84.000,153.500,50.500,35.500
1.348,82.500,152.000,48.000,32.500
1.349,82.000,151.000,45.500,29.500
1.350,81.000,149.500,43.500,26.500
1.351,80.500,148.500,41.000,23.500
1.352,80.500,147.500,39.500,21.500
1.353,80.500,146.500,38.000,19.500
1.354,80.500,146.000,37.000,18.500
1.355,80.000,145.500,36.500,18.500
1.356,80.000,145.500,37.000,19.500
1.357,79.500,145.500,38.000,21.000
1.358,79.000,146.500,39.000,23.000
1.359,79.000,147.000,40.500,25.500
1.360,79.000,148.000,42.000,28.000
1.361,79.000,149.500,43.500,30.000
1.362,79.500,150.500,45.000,32.000
1.363,80.000,152.000,46.000,33.500
1.364,80.500,152.500,47.000,34.000
1.365,80.000,152.500,46.500,33.500
1.366,80.000,152.500,45.500,32.500
1.367,79.500,152.000,44.000,30.500
1.368,79.500,151.500,42.500,28.000
1.369,79.500,151.000,40.500,25.500
1.370,80.000,151.000,39.500,23.500
1.371,80.500,151.000,38.000,21.500
1.372,81.000,151.000,37.500,20.000
1.373,81.500,151.000,37.000,19.000
1.374,82.500,151.500,37.500,19.000
1.375,83.000,152.500,38.500,20.500
1.376,84.000,154.000,40.500,23.000
1.377,84.500,155.500,43.000,26.000
1.378,85.000,157.000,45.500,29.000
1.379,85.500,158.500,47.500,32.000
1.380,85.000,159.500,49.000,34.000
1.381,84.500,160.000,50.000,35.500
1.382,84.000,160.000,50.000,36.500
1.383,83.500,160.000,50.000,37.000
1.384,83.000,159.500,49.500,36.500
1.385,82.500,159.500,48.500,36.000
1.386,81.500,158.500,47.000,34.500
1.387,80.500,157.000,44.500,31.500
1.388,79.500,155.500,41.500,28.500
1.389,78.000,153.500,38.500,24.500
1.390,77.000,151.500,35.000,20.000
1.391,75.500,149.500,32.000,16.000
1.392,74.500,147.500,29.500,12.500
1.393,74.000,146.500,28.000,10.500
1.394,75.000,146.500,28.500,10.000
1.395,77.000,148.500,30.500,12.500
1.396,80.000,152.000,35.000,16.500
1.397,83.500,156.500,40.500,22.500
1.398,86.500,161.000,45.500,28.500
1.399,88.500,164.000,50.000,33.500
1.400,89.500,166.000,52.500,37.000
1.401,89.000,167.000,54.000,39.000
1.402,87.500,166.500,54.000,39.500
1.403,85.500,165.500,53.000,39.000
1.404,83.500,164.500,51.500,38.000
1.405,82.000,163.000,49.500,36.500
1.406,81.000,161.500,47.500,34.000
1.407,80.000,160.500,45.000,31.500
1.408,79.500,159.000,43.000,28.500
1.409,79.500,158.000,40.500,25.500
1.410,79.000,157.000,38.500,22.500
1.411,79.000,156.000,36.500,20.000
1.412,79.500,155.500,35.000,18.500
1.413,79.500,155.500,34.500,17.500
1.414,80.000,155.500,34.500,17.000
1.415,80.500,156.000,35.000,17.500
1.416,81.000,156.500,36.000,18.500
1.417,81.500,157.500,37.500,20.500
1.418,82.000,159.000,39.500,23.500
1.419,82.500,160.500,42.000,26.500
1.420,83.000,162.500,44.000,29.500
1.421,83.000,163.500,45.500,31.500
1.422,83.500,164.500,47.000,33.000
1.423,83.500,165.000,47.500,34.000
1.424,83.000,165.500,47.500,34.000
1.425,83.000,165.000,46.500,33.500
1.426,82.500,164.500,45.500,32.000
1.427,81.500,163.500,43.500,29.500
1.428,80.500,162.000,40.500,26.000
1.429,79.500,160.000,38.000,22.500
1.430,78.500,158.500,35.000,19.000
1.431,78.500,157.000,33.000,16.500
1.432,79.000,156.500,32.000,15.000
1.433,80.000,157.000,32.000,14.500
1.434,81.000,157.500,32.500,15.000
1.435,82.000,158.500,33.500,16.000
1.436,82.500,159.500,34.500,18.000
1.437,83.500,161.000,36.500,20.500
1.438,83.500,162.000,38.500,23.000
1.439,84.000,163.500,40.000,26.000
1.440,84.000,164.500,41.500,28.000
1.441,83.500,165.500,42.500,30.000
1.442,83.500,166.000,43.500,32.000
1.443,83.500,167.000,44.000,33.000
1.444,83.500,167.500,44.000,34.000
1.445,83.000,167.500,43.500,33.500
1.446,82.500,167.000,42.000,32.000
1.447,81.500,165.500,40.000,29.500
1.448,80.500,164.000,37.000,26.500
1.449,80.000,163.000,34.500,23.000
1.450,80.000,162.000,32.500,20.000
1.451,80.000,161.500,31.000,17.500
1.452,80.500,161.500,30.000,15.500
1.453,81.000,161.500,29.500,14.500
1.454,82.000,162.000,29.500,14.500
1.455,83.000,162.500,30.500,15.000
1.456,84.000,164.000,32.500,17.000
1.457,85.500,166.000,35.000,20.000
1.458,86.000,167.500,37.500,23.000
1.459,86.000,168.500,39.500,26.000
1.460,86.000,169.500,41.000,28.500
1.461,85.500,170.000,42.000,30.500
1.462,85.000,170.000,42.500,31.500
1.463,84.500,170.000,42.500,32.500
1.464,83.500,169.500,41.500,32.000
1.465,83.000,169.000,40.500,31.000
1.466,82.000,168.000,38.500,29.500
1.467,81.500,167.500,36.500,27.000
1.468,81.000,166.500,34.500,24.500
1.469,81.000,166.000,32.500,22.000
1.470,81.500,165.500,30.500,19.000
1.471,82.500,165.000,29.000,16.000
1.472,82.500,164.000,27.500,13.500
1.473,83.000,163.500,26.500,12.000
1.474,83.500,164.000,27.000,12.000
1.475,86.000,166.000,29.500,14.000
1.476,89.000,169.500,33.500,18.500
1.477,92.500,174.000,38.500,24.000
1.478,94.500,177.500,42.000,28.500
1.479,95.500,179.500,44.500,32.000
1.480,95.000,180.000,46.000,34.500
1.481,94.000,180.000,46.000,35.500
1.482,92.500,179.500,46.000,36.000
1.483,91.500,179.500,46.000,36.500
1.484,90.500,179.000,45.500,36.000
1.485,89.500,178.500,45.000,35.000
1.486,88.500,178.000,44.000,33.500
1.487,87.500,177.000,42.000,31.000
1.488,87.000,176.000,40.000,28.000
1.489,86.500,174.500,37.500,24.500
1.490,86.000,173.000,34.500,21.000
1.491,86.500,172.000,32.000,18.000
1.492,86.500,171.000,30.500,16.000
1.493,87.500,171.000,30.500,15.000
1.494,88.500,172.000,31.000,15.500
1.495,90.000,173.500,32.000,17.500
1.496,91.500,175.000,34.000,19.500
1.497,92.000,176.500,36.000,22.500
1.498,92.000,177.500,38.000,25.000
1.499,91.500,178.500,39.500,28.000
1.500,91.000,179.000,41.000,30.500
1.501,90.500,180.000,42.500,33.000
1.502,90.500,180.500,44.000,34.500
1.503,90.500,181.500,45.000,36.000
1.504,91.000,182.000,45.500,36.500
1.505,90.500,182.000,45.500,35.500
1.506,90.000,181.500,44.000,34.000
1.507,89.500,180.500,42.000,31.000
1.508,88.500,179.500,39.000,27.500
1.509,88.000,178.000,36.000,24.000
1.510,88.000,176.500,33.000,20.500
1.511,88.000,175.500,30.500,17.000
1.512,88.500,175.000,29.000,14.500
1.513,89.500,175.000,28.000,13.000
1.514,91.000,175.500,28.000,12.500
1.515,93.000,177.000,29.000,13.500
1.516,95.000,178.500,31.000,16.000
1.517,97.000,181.000,34.000,20.000
1.518,98.500,183.500,38.000,24.500
1.519,100.000,186.000,41.500,29.000
1.520,100.500,188.000,44.500,32.500
1.521,100.500,189.500,47.000,35.500
1.522,100.500,190.500,48.500,37.500
1.523,100.000,191.500,49.500,38.500
1.524,100.000,192.000,50.000,39.000
1.525,100.000,192.000,49.500,38.500
1.526,99.500,192.000,48.500,37.500
1.527,99.000,191.000,47.000,35.500
1.528,98.500,190.000,45.000,32.500
1.529,98.000,189.000,42.500,29.500
1.530,97.500,188.000,40.000,26.500
1.531,97.500,187.500,38.500,24.000
1.532,97.500,187.000,37.000,22.000
1.533,98.000,186.500,36.500,21.000
1.534,98.500,187.000,36.500,21.000
1.535,99.000,187.000,37.500,21.500
1.536,99.000,188.000,38.500,23.000
1.537,99.000,188.500,39.500,24.500
1.538,99.000,188.500,41.000,27.000
1.539,98.500,189.000,42.500,29.000
1.540,98.000,190.000,44.000,31.500
1.541,98.500,191.000,46.000,34.000
1.542,99.000,192.500,47.500,36.500
1.543,100.000,194.000,49.000,38.000
1.544,100.000,194.500,49.500,38.500
1.545,99.500,194.500,48.500,37.500
1.546,98.500,193.000,46.500,35.500
1.547,97.500,191.000,43.500,32.500
1.548,96.000,189.500,40.500,28.500
1.549,95.000,188.000,38.000,25.000
1.550,95.000,186.500,35.500,22.000
1.551,94.500,186.000,33.000,19.000
1.552,95.000,185.000,32.000,16.500
1.553,95.500,185.000,31.500,15.500
1.554,96.500,186.000,32.000,16.000
1.555,98.000,187.500,34.000,18.000
1.556,100.000,189.500,36.500,21.000
1.557,102.000,192.000,39.500,24.500
1.558,103.500,194.000,42.500,28.000
1.559,104.000,195.500,44.000,30.500
1.560,103.500,196.000,45.000,32.500
1.561,102.000,195.500,45.500,34.000
1.562,101.000,195.500,45.000,34.500
1.563,100.500,195.500,45.500,35.000
1.564,100.500,195.500,45.500,35.000
1.565,100.500,196.000,45.000,34.500
1.566,100.000,195.500,43.500,33.000
1.567,99.500,194.500,42.000,31.000
1.568,99.500,193.500,39.500,28.500
1.569,99.500,193.000,37.500,26.000
1.570,99.500,192.000,35.500,24.000
1.571,100.000,191.500,34.000,22.000
1.572,100.500,191.500,33.500,20.500
1.573,101.000,191.500,33.500,20.000
1.574,102.000,192.000,34.000,20.000
1.575,103.000,193.000,35.000,21.500
1.576,104.000,194.500,36.500,23.500
1.577,104.500,195.500,38.500,25.500
1.578,105.000,197.000,40.000,28.500
1.579,105.000,198.000,42.000,31.500
1.580,105.000,199.000,44.000,34.000
1.581,104.500,200.000,45.500,36.000
1.582,104.000,200.500,46.500,37.500
1.583,103.000,200.500,46.500,38.000
1.584,102.000,200.000,45.500,37.500
1.585,100.500,199.500,44.500,36.500
1.586,100.000,198.500,43.000,35.000
1.587,99.500,198.500,41.500,33.500
1.588,100.000,198.000,40.500,31.500
1.589,101.000,198.500,39.000,29.500
1.590,102.500,198.500,38.000,27.500
1.591,104.000,199.000,37.500,26.000
1.592,105.000,199.500,37.000,24.500
1.593,106.000,199.500,36.500,23.500
1.594,106.000,199.000,35.500,23.000
1.595,106.000,199.000,35.500,23.000
1.596,106.000,199.000,36.000,24.000
1.597,106.000,199.500,36.500,25.500
1.598,106.000,200.000,38.000,28.000
1.599,106.000,201.500,40.000,31.000
1.600,106.500,202.500,42.500,34.500
1.601,107.000,204.000,44.500,37.000
1.602,107.500,205.500,46.500,39.500
1.603,107.500,206.000,47.500,40.500
1.604,107.000,206.000,47.000,40.500
1.605,106.000,205.500,46.000,39.000
1.606,105.000,204.500,44.000,37.000
1.607,103.500,203.500,41.500,34.500
1.608,102.500,202.500,39.000,31.500
1.609,101.500,201.000,36.500,28.500
1.610,101.000,200.000,34.500,25.000
1.611,101.500,199.500,33.000,23.000
1.612,102.500,200.000,32.500,22.000
1.613,104.000,201.000,33.000,22.500
1.614,106.000,202.000,34.500,23.000
1.615,107.000,203.000,35.500,24.500
1.616,107.500,203.500,36.500,25.500
1.617,107.500,203.500,37.000,27.000
1.618,107.000,203.500,37.500,28.500
1.619,106.500,204.000,38.500,30.500
1.620,106.500,205.000,40.000,33.000
1.621,107.500,207.000,42.000,36.000
1.622,108.500,209.000,44.000,38.500
1.623,109.000,210.000,45.000,40.000
1.624,109.000,210.500,45.000,40.500
1.625,108.500,210.500,44.500,39.500
1.626,107.500,209.500,42.500,37.500
1.627,106.000,208.000,40.000,34.500
1.628,105.000,206.500,38.000,32.000
1.629,104.500,205.500,35.500,29.000
1.630,104.000,205.000,34.000,26.500
1.631,104.500,204.500,32.500,25.000
1.632,105.500,205.000,32.000,24.000
1.633,106.500,205.500,32.500,23.500
1.634,108.000,206.500,33.500,24.000
1.635,109.000,207.500,34.500,25.000
1.636,109.500,208.000,36.000,26.500
1.637,109.000,208.500,37.000,28.500
1.638,108.500,209.000,38.500,30.500
1.639,108.500,209.500,40.000,33.500
1.640,109.000,211.000,42.000,36.500
1.641,110.000,213.000,44.000,39.000
1.642,111.500,215.000,46.500,42.000
1.643,112.500,217.000,48.000,44.000
1.644,113.500,218.500,49.500,45.500
1.645,114.500,219.500,50.000,46.000
1.646,114.000,219.500,49.000,44.500
1.647,113.000,218.000,47.000,42.000
1.648,111.500,216.000,43.500,38.000
1.649,110.000,213.500,40.000,34.000
1.650,108.500,211.500,37.000,30.000
1.651,108.000,210.000,34.500,26.500
1.652,107.500,209.000,33.000,24.000
1.653,107.500,209.000,32.000,23.000
1.654,108.500,209.500,32.500,23.000
1.655,109.000,210.500,33.500,24.000
1.656,110.500,212.000,35.500,26.000
1.657,111.500,214.500,38.000,29.500
1.658,113.000,217.000,41.000,33.500
1.659,114.500,219.000,44.500,37.500
1.660,115.500,221.000,47.000,41.000
1.661,115.500,221.500,48.000,43.000
1.662,114.500,221.500,48.000,44.000
1.663,113.500,221.500,47.500,44.000
1.664,113.500,221.000,47.000,44.000
1.665,113.500,221.000,46.500,43.500
1.666,113.000,221.000,45.500,42.000
1.667,113.000,220.000,44.000,39.500
1.668,112.000,218.500,41.500,36.000
1.669,111.000,217.000,38.500,32.500
1.670,110.500,215.500,36.000,29.500
1.671,110.000,214.500,34.000,27.000
1.672,110.000,214.000,33.000,25.000
1.673,109.500,213.500,32.000,23.500
1.674,109.500,213.000,32.000,23.000
1.675,109.000,213.500,32.000,23.500
1.676,109.000,214.000,33.000,24.500
1.677,109.500,214.500,34.000,26.500
1.678,110.000,215.500,35.500,28.500
1.679,110.000,217.000,37.500,31.500
1.680,110.500,218.500,39.500,34.500
1.681,111.000,219.500,41.500,37.000
1.682,111.500,221.000,43.000,39.500
1.683,111.500,221.500,43.500,40.500
1.684,111.000,221.000,43.500,40.500
1.685,110.500,221.000,42.500,40.000
1.686,110.500,220.500,41.500,39.000
1.687,111.000,221.000,41.000,38.000
1.688,112.500,222.000,40.500,37.000
1.689,113.500,222.000,39.500,35.500
1.690,114.000,222.000,38.000,33.500
1.691,114.500,222.000,37.000,31.000
1.692,115.500,222.000,36.000,29.500
1.693,116.000,222.000,35.500,28.500
1.694,116.500,222.000,35.500,28.500
1.695,116.500,222.000,36.000,29.000
1.696,117.000,222.500,36.500,30.000
1.697,117.000,223.000,38.000,32.000
1.698,117.000,224.000,39.500,34.500
1.699,117.500,225.500,41.500,37.500
1.700,117.500,226.500,43.500,40.500
1.701,118.000,227.500,45.000,42.500
1.702,117.500,228.000,46.000,44.000
1.703,117.500,228.500,46.500,45.000
1.704,117.000,228.500,46.500,44.500
1.705,116.500,228.500,46.000,44.000
1.706,116.500,228.000,45.000,43.000
1.707,116.500,227.500,43.500,41.000
1.708,116.500,227.000,41.500,39.000
1.709,116.500,226.500,40.000,36.500
1.710,116.000,225.500,37.500,33.500
1.711,116.000,224.500,35.500,30.500
1.712,116.000,223.500,33.500,28.000
1.713,116.000,223.000,33.000,26.500
1.714,117.000,223.500,33.000,26.500
1.715,118.000,224.000,34.500,27.500
1.716,119.000,225.500,36.000,29.000
1.717,120.000,226.500,38.000,31.500
1.718,120.000,228.000,40.500,34.500
1.719,120.000,229.000,42.500,37.000
1.720,120.000,230.000,44.500,40.000
1.721,119.500,231.000,45.500,41.500
1.722,118.500,231.000,46.000,43.000
1.723,117.500,230.500,46.500,43.000
1.724,117.000,230.500,46.000,43.000
1.725,116.500,230.000,45.500,42.500
1.726,116.500,230.500,45.000,41.500
1.727,117.000,230.500,44.000,40.500
1.728,117.500,231.000,43.500,39.000
1.729,118.500,231.500,42.500,37.500
1.730,120.000,232.500,42.000,36.000
1.731,121.500,233.000,41.500,35.000
1.732,122.500,233.500,41.000,33.500
1.733,122.500,233.000,40.500,32.000
1.734,122.500,232.500,40.000,31.500
1.735,122.500,232.000,40.500,31.500
1.736,123.000,232.500,41.500,32.500
1.737,122.500,233.000,43.000,34.500
1.738,122.500,233.500,44.500,37.000
1.739,122.000,234.500,46.000,39.500
1.740,121.000,235.000,47.000,41.500
1.741,120.500,235.000,48.000,43.000
1.742,120.000,235.500,48.500,44.500
1.743,120.000,236.000,49.000,45.500
1.744,120.500,237.000,49.000,46.000
1.745,121.000,237.500,49.000,46.000
1.746,121.500,238.000,48.500,45.000
1.747,121.500,237.500,46.500,43.000
1.748,121.500,236.500,44.500,40.500
1.749,121.500,236.000,42.500,37.500
1.750,121.500,235.000,40.500,35.000
1.751,121.000,234.500,39.000,32.500
1.752,121.000,233.500,37.500,30.500
1.753,120.500,232.500,36.500,29.000
1.754,121.000,232.000,36.000,28.000
1.755,121.000,232.000,36.500,28.000
1.756,121.500,232.500,37.000,29.000
1.757,121.000,232.500,38.000,30.500
1.758,121.000,233.000,39.000,32.000
1.759,121.000,234.000,41.000,34.500
1.760,121.500,236.000,43.000,37.000
1.761,122.500,238.000,45.500,40.000
1.762,123.500,239.500,47.500,42.500
1.763,124.500,241.500,49.000,44.500
1.764,125.000,242.500,50.000,45.500
1.765,125.500,243.000,50.500,46.500
1.766,126.000,243.500,50.500,46.000
1.767,126.500,243.500,49.500,45.000
1.768,127.000,243.500,48.500,43.500
1.769,127.500,243.000,47.000,41.500
1.770,128.500,243.500,46.000,39.500
1.771,130.000,244.000,46.000,38.500
1.772,132.000,245.000,46.500,38.000
1.773,134.000,246.500,48.000,39.000
1.774,136.500,248.500,49.500,40.500
1.775,138.000,250.000,51.000,42.500
1.776,139.500,252.000,53.500,45.000
1.777,141.000,254.000,56.000,48.000
1.778,142.000,256.500,59.000,52.000
1.779,143.500,259.000,62.500,56.500
1.780,145.000,262.000,66.000,60.500
1.781,146.500,265.000,69.500,65.000
1.782,148.500,267.500,72.500,68.500
1.783,150.000,270.000,74.500,71.000
1.784,151.000,271.000,75.500,72.000
1.785,151.000,271.500,75.500,72.000
1.786,150.500,271.000,74.000,70.500
1.787,150.000,270.000,72.000,68.000
1.788,149.500,269.000,70.000,65.000
1.789,149.000,268.000,67.500,62.000
1.790,149.000,267.000,65.000,59.000
1.791,149.000,266.000,63.500,56.500
1.792,149.000,266.000,62.500,54.500
1.793,149.500,266.000,62.000,54.000
1.794,150.000,266.000,62.500,54.000
1.795,151.000,267.000,63.000,55.000
1.796,151.500,268.000,64.500,56.500
1.797,152.000,269.500,66.500,59.500
1.798,153.000,271.500,68.500,62.500
1.799,154.000,273.500,71.000,66.000
1.800,155.500,275.500,74.000,69.500
1.801,157.000,278.000,76.500,73.500
1.802,158.500,280.500,79.500,77.000
1.803,160.000,283.000,82.000,80.500
1.804,161.500,284.500,83.500,83.000
1.805,162.500,286.000,84.500,84.500
1.806,163.000,287.000,85.000,84.500
1.807,163.500,287.000,84.500,83.500
1.808,164.000,286.500,83.000,81.500
1.809,163.500,285.500,80.500,78.500
1.810,163.000,284.000,77.500,75.000
1.811,162.500,282.500,74.500,71.500
1.812,162.000,281.000,72.500,68.500
1.813,161.500,280.500,70.500,67.000
1.814,161.500,280.000,70.000,66.000
1.815,161.500,280.000,70.000,66.500
1.816,161.500,280.000,70.500,68.000
1.817,161.500,280.500,72.000,70.000
1.818,161.500,281.500,74.000,72.500
1.819,161.000,282.500,75.500,75.000
1.820,160.000,282.500,76.500,76.500
1.821,158.500,282.000,76.500,77.000
1.822,156.500,281.000,75.500,77.000
1.823,155.000,280.000,74.500,76.000
1.824,154.000,279.500,73.500,75.500
1.825,154.500,280.000,73.500,75.000
1.826,155.500,280.500,73.500,75.000
1.827,157.000,282.000,73.500,75.000
1.828,158.000,283.000,74.000,74.000
1.829,159.500,284.000,74.000,73.500
1.830,160.500,285.000,74.000,72.500
1.831,161.500,285.000,73.500,71.000
1.832,161.500,284.500,72.000,69.000
1.833,160.500,283.000,70.000,67.000
1.834,159.000,281.000,67.500,64.500
1.835,157.500,279.000,66.000,63.500
1.836,156.000,278.000,65.000,63.000
1.837,155.500,277.500,65.500,64.000
1.838,156.000,278.500,67.000,66.000
1.839,156.500,280.000,69.000,69.000
1.840,157.500,281.500,71.000,72.500
1.841,158.000,283.000,73.000,75.000
1.842,157.500,283.500,73.500,76.500
1.843,156.000,283.000,73.000,76.500
1.844,154.000,281.000,71.000,75.000
1.845,151.000,278.500,68.000,72.500
1.846,148.500,275.500,64.000,68.500
1.847,145.500,272.500,60.000,64.000
1.848,143.500,269.500,56.000,59.000
1.849,142.000,267.000,52.500,54.500
1.850,141.500,265.500,50.000,50.500
1.851,141.500,265.000,48.500,48.000
1.852,142.500,265.500,48.000,46.500
1.853,144.000,266.000,48.000,46.000
1.854,144.500,266.500,48.500,45.500
1.855,144.500,266.500,48.500,45.500
1.856,143.500,266.500,49.000,45.500
1.857,142.500,266.000,49.500,46.500
1.858,141.000,266.000,50.000,47.500
1.859,140.000,266.000,51.000,49.000
1.860,139.000,266.000,52.000,50.500
1.861,138.000,266.500,52.500,52.000
1.862,137.500,266.500,53.000,53.000
1.863,136.500,266.500,52.500,53.500
1.864,136.000,266.000,51.500,53.000
1.865,135.000,265.000,49.500,51.500
1.866,134.000,263.500,47.500,49.500
1.867,133.000,262.000,45.000,47.000
1.868,132.000,260.500,43.000,44.500
1.869,132.000,260.000,41.000,42.000
1.870,132.000,259.000,39.500,40.000
1.871,132.000,258.500,38.500,37.500
1.872,132.000,258.000,37.000,35.500
1.873,131.500,257.500,36.000,34.000
1.874,132.000,257.500,35.500,34.000
1.875,133.000,258.000,36.500,35.000
1.876,134.000,259.500,38.000,37.000
1.877,135.000,261.000,40.000,40.000
1.878,135.500,263.000,42.000,43.000
1.879,136.000,264.500,44.500,46.000
1.880,136.000,265.500,46.500,49.000
1.881,136.000,266.500,47.500,51.000
1.882,136.000,267.500,48.500,53.000
1.883,135.500,268.000,49.000,54.000
1.884,135.000,268.000,48.500,54.000
1.885,134.500,268.000,47.500,53.000
1.886,134.000,267.500,46.500,52.000
1.887,133.500,266.500,44.500,50.000
1.888,133.000,265.500,42.500,47.000
1.889,132.500,264.000,39.500,44.000
1.890,131.000,262.000,36.500,40.000
1.891,130.000,260.000,33.500,36.000
1.892,128.500,258.000,31.000,33.000
1.893,128.000,256.500,29.500,30.500
1.894,127.500,256.000,28.500,30.000
1.895,127.500,256.000,28.500,30.000
1.896,127.500,256.000,29.500,31.500
1.897,128.000,257.500,31.500,34.000
1.898,129.000,259.000,33.500,37.000
1.899,130.500,261.500,36.500,40.500
1.900,132.500,264.500,39.500,45.000
1.901,135.000,268.000,43.500,49.500
1.902,137.500,271.000,46.500,53.000
1.903,139.000,273.500,49.000,56.000
1.904,140.000,274.500,50.000,57.000
1.905,139.000,273.500,49.000,55.500
1.906,137.500,272.000,47.000,53.000
1.907,135.500,270.000,44.000,49.500
1.908,134.000,268.000,41.000,46.000
1.909,133.500,267.000,39.000,43.000
1.910,134.000,266.500,37.500,40.500
1.911,135.000,266.500,37.000,39.000
1.912,136.500,267.000,36.500,38.000
1.913,137.500,267.500,37.000,38.000
1.914,139.000,268.000,37.500,38.500
1.915,139.500,268.500,38.500,39.000
1.916,139.500,268.500,39.000,40.000
1.917,138.500,268.500,39.500,41.500
1.918,137.500,268.500,40.000,42.500
1.919,136.500,268.000,40.500,44.000
1.920,134.500,267.500,40.500,45.000
1.921,132.500,266.500,40.000,45.000
1.922,130.000,265.000,38.500,44.500
1.923,127.500,262.500,36.000,42.500
1.924,124.500,260.000,32.500,39.500
1.925,122.500,258.000,29.500,36.500
1.926,121.500,256.500,26.500,34.000
1.927,122.000,256.000,25.000,31.500
1.928,123.500,257.000,24.500,31.000
1.929,127.500,260.000,26.500,32.000
1.930,134.500,265.500,31.000,36.000
1.931,144.000,274.000,39.000,43.500
1.932,157.500,286.500,51.000,54.500
1.933,174.000,302.500,67.000,70.000
1.934,193.000,321.000,85.500,89.000
1.935,212.500,340.500,105.500,109.000
1.936,231.000,359.500,125.000,129.000
1.937,248.500,377.000,143.500,148.500
1.938,265.000,394.500,162.000,167.500
1.939,281.500,412.500,180.000,187.500
1.940,299.000,431.000,199.500,208.000
1.941,318.000,451.500,220.500,230.000
1.942,338.000,473.000,242.500,252.500
1.943,360.000,496.000,265.500,276.000
1.944,382.000,519.000,288.500,299.500
1.945,404.500,542.000,311.500,322.500
1.946,426.500,564.000,333.000,344.500
1.947,448.000,586.000,354.500,366.000
1.948,470.500,608.000,376.000,387.000
1.949,494.000,631.500,399.000,409.500
1.950,519.500,657.000,423.500,434.000
1.951,547.500,684.500,450.500,460.500
1.952,577.000,713.500,479.000,488.500
1.953,605.500,742.000,507.000,516.500
1.954,632.000,768.500,533.500,543.000
1.955,653.000,790.000,556.000,565.000
1.956,665.500,803.000,570.000,580.000
1.957,666.000,805.000,573.000,583.500
1.958,653.000,793.000,562.000,574.000
1.959,626.500,768.500,538.000,551.500
1.960,591.000,734.500,504.500,518.500
1.961,550.500,694.500,465.500,480.000
1.962,507.500,652.500,423.000,438.000
1.963,464.000,609.000,380.000,394.500
1.964,420.000,565.000,335.500,349.500
1.965,376.000,521.000,290.000,303.500
1.966,333.000,477.000,245.000,257.000
1.967,291.500,434.500,201.000,212.000
1.968,253.500,395.000,160.000,170.000
1.969,221.000,360.000,123.000,132.500
1.970,193.500,330.000,92.000,100.000
1.971,171.500,306.000,66.000,73.000
1.972,154.000,286.000,44.500,51.000
1.973,139.000,270.000,27.000,32.500
1.974,127.000,256.500,13.000,17.500
1.975,116.500,245.500,2.000,5.500
1.976,108.000,237.500,-6.500,-3.000
1.977,101.500,231.500,-11.500,-7.500
1.978,96.500,228.000,-14.000,-9.500
1.979,93.500,226.500,-14.500,-9.000
1.980,92.000,226.500,-13.500,-6.500
1.981,92.000,228.000,-11.000,-3.500
1.982,93.000,230.500,-8.000,0.500
1.983,94.500,233.500,-4.500,4.000
1.984,96.000,236.000,-1.500,7.000
1.985,98.000,238.500,1.000,9.500
1.986,100.000,241.000,3.000,11.500
1.987,102.000,243.500,4.500,12.500
1.988,104.500,245.500,5.500,13.000
1.989,107.500,247.500,6.000,13.000
1.990,110.000,249.500,6.500,13.000
1.991,113.000,251.500,7.500,13.000
1.992,116.000,254.000,8.500,13.500
1.993,119.500,256.000,10.500,15.000
1.994,122.500,259.000,12.500,17.000
1.995,125.500,262.000,15.500,20.000
1.996,128.500,265.000,18.500,23.500
1.997,131.000,268.000,22.000,27.500
1.998,132.500,270.500,25.500,31.500
1.999,133.500,272.500,28.000,35.000
2.000,133.000,273.500,29.500,38.000
2.001,132.500,273.500,30.500,39.500
2.002,131.500,273.000,30.500,40.500
2.003,130.500,273.000,30.000,41.000
2.004,130.000,272.500,29.000,41.000
2.005,129.500,272.000,28.000,40.000
2.006,129.000,271.000,26.500,38.500
2.007,128.500,270.000,24.500,36.000
2.008,127.500,269.000,22.000,33.000
2.009,127.000,267.500,20.000,29.500
2.010,127.000,267.000,18.000,27.000
2.011,127.500,266.500,16.500,24.500
2.012,128.500,266.000,15.500,23.000
2.013,129.000,266.000,14.500,21.500
2.014,129.500,266.000,14.500,21.000
2.015,130.000,266.000,14.500,21.500
2.016,130.500,266.500,15.500,23.000
2.017,131.000,267.500,17.500,25.000
2.018,131.000,268.500,19.000,28.000
2.019,131.000,269.000,20.500,30.000
2.020,130.500,269.500,21.000,32.000
2.021,130.000,269.500,21.500,33.000
2.022,129.000,269.500,21.500,34.000
2.023,128.500,269.500,21.500,34.000
2.024,127.500,269.000,21.500,33.500
2.025,127.000,269.000,21.000,33.000
2.026,127.000,269.000,20.500,32.500
2.027,127.500,269.000,20.000,31.500
2.028,128.500,269.500,19.500,30.500
2.029,129.500,270.000,18.500,29.000
2.030,130.500,270.500,18.000,27.500
2.031,131.500,270.500,16.500,26.000
2.032,131.500,270.000,15.000,24.000
2.033,131.000,269.000,14.000,22.500
2.034,131.000,268.500,13.500,22.000
2.035,131.000,268.500,13.500,22.000
2.036,131.500,269.500,14.500,23.500
2.037,132.500,270.500,16.000,25.500
2.038,133.000,271.500,17.500,28.000
2.039,133.500,273.000,19.500,31.000
2.040,133.500,274.000,21.500,34.500
2.041,134.500,276.000,24.500,38.000
2.042,135.500,278.500,27.000,41.000
2.043,136.500,280.500,29.500,44.000
2.044,137.500,282.000,31.000,46.000
2.045,137.000,282.000,30.500,45.500
2.046,135.500,280.500,28.000,42.500
2.047,133.500,278.500,24.500,38.500
2.048,132.000,276.000,20.500,34.500
2.049,131.500,274.500,17.500,30.500
2.050,132.000,273.500,15.500,28.000
2.051,133.000,273.500,14.500,26.000
2.052,134.000,273.500,14.000,24.000
2.053,134.500,273.500,14.000,23.000
2.054,135.000,273.500,14.000,22.500
2.055,136.000,273.500,14.500,23.000
2.056,136.500,274.500,15.500,24.500
2.057,137.000,275.500,17.500,27.000
2.058,138.000,277.500,20.000,30.000
2.059,138.500,279.500,22.500,33.500
2.060,139.500,281.500,25.500,37.500
2.061,140.000,283.000,27.500,40.500
2.062,140.500,284.500,29.000,42.500
2.063,140.000,285.000,30.000,43.500
2.064,139.500,284.500,29.500,43.000
2.065,138.500,284.000,28.000,41.500
2.066,137.000,283.000,26.500,39.500
2.067,136.500,282.000,24.500,37.500
2.068,136.000,281.000,22.500,35.000
2.069,136.000,280.000,20.500,32.500
2.070,136.000,279.000,18.500,29.500
2.071,136.000,278.000,16.000,27.000
2.072,136.000,277.000,14.500,24.500
2.073,136.500,276.000,13.000,23.000
2.074,137.000,276.000,12.500,22.500
2.075,137.500,276.000,12.500,22.500
2.076,137.500,276.500,13.000,24.000
2.077,138.000,277.000,14.500,26.000
2.078,138.000,278.500,16.000,29.000
2.079,138.000,280.000,18.000,32.000
2.080,138.500,281.500,20.000,35.000
2.081,139.000,283.500,22.500,38.000
2.082,140.500,285.500,24.500,41.000
2.083,141.500,287.000,26.500,43.500
2.084,143.000,289.000,28.000,45.000
2.085,144.000,290.000,28.500,46.000
2.086,144.500,290.500,28.500,45.500
2.087,144.500,290.500,27.500,44.500
2.088,144.000,289.500,25.500,42.500
2.089,143.500,288.000,23.500,39.500
2.090,143.000,286.500,21.000,36.500
2.091,142.500,285.500,19.000,33.500
2.092,142.000,284.000,17.000,31.000
2.093,141.500,283.000,15.500,29.000
2.094,141.000,282.500,14.500,27.500
2.095,140.500,282.500,14.500,27.500
2.096,141.000,283.000,15.000,29.000
2.097,142.000,284.000,17.000,31.000
2.098,143.000,286.000,19.500,34.500
2.099,144.500,288.000,22.000,38.000
2.100,145.500,290.000,24.500,41.000
2.101,146.500,291.500,26.500,44.000
2.102,147.000,293.000,28.500,46.500
2.103,148.000,294.500,30.000,48.000
2.104,148.000,295.000,30.500,49.500
2.105,148.000,295.000,30.000,49.500
2.106,147.500,295.000,29.000,48.500
2.107,147.000,294.500,27.500,47.000
2.108,146.500,294.000,25.500,45.000
2.109,147.000,293.500,24.000,42.500
2.110,147.500,293.000,22.500,40.500
2.111,148.500,293.000,21.000,39.000
2.112,150.000,293.500,20.500,38.000
2.113,151.500,294.000,21.000,37.500
2.114,153.000,295.500,22.000,38.500
2.115,155.000,297.000,24.000,40.500
2.116,156.500,299.000,26.500,43.000
2.117,157.500,300.500,29.000,46.000
2.118,158.000,302.000,31.000,49.500
2.119,158.000,303.000,33.000,52.000
2.120,158.000,303.500,34.000,54.500
2.121,158.000,304.500,35.500,56.500
2.122,158.500,306.000,37.000,59.000
2.123,159.000,307.500,38.500,61.000
2.124,160.000,309.000,40.000,62.500
2.125,161.000,310.000,41.000,63.000
2.126,161.500,310.500,41.000,63.000
2.127,162.000,311.000,40.500,61.500
2.128,162.500,311.000,39.000,60.000
2.129,163.500,311.000,38.000,58.000
2.130,164.500,311.000,37.000,56.500
2.131,165.500,311.000,36.000,55.500
2.132,167.000,311.500,36.000,55.000
2.133,168.500,312.000,36.000,55.000
2.134,170.000,313.000,37.000,56.000
2.135,172.000,314.500,38.500,58.000
2.136,174.000,316.500,41.000,60.500
2.137,175.500,318.500,44.000,64.000
2.138,177.000,321.000,47.500,68.000
2.139,178.000,323.000,51.000,72.000
2.140,179.500,325.500,54.500,76.000
2.141,180.500,328.000,57.500,80.000
2.142,181.500,330.000,60.000,83.000
2.143,182.500,332.000,61.500,85.000
2.144,183.500,333.500,63.000,86.500
2.145,185.000,335.000,64.000,87.500
2.146,186.000,336.000,64.500,87.500
2.147,187.500,337.000,64.500,87.500
2.148,188.500,337.500,64.000,86.500
2.149,190.000,338.000,64.000,86.000
2.150,192.000,339.000,64.000,85.500
2.151,194.500,341.000,64.500,85.500
2.152,197.500,343.000,66.500,86.500
2.153,200.500,345.000,68.500,88.000
2.154,203.000,347.000,70.500,90.000
2.155,205.500,349.000,73.000,92.500
2.156,208.000,351.500,76.000,96.000
2.157,210.500,354.500,80.000,100.000
2.158,213.500,358.000,84.000,104.500
2.159,216.000,362.000,88.500,110.000
2.160,219.000,366.000,93.000,115.000
2.161,221.500,369.500,97.000,119.500
2.162,223.500,372.500,100.500,123.500
2.163,225.500,375.500,103.500,127.000
2.164,227.500,378.000,105.500,129.500
2.165,229.000,380.000,107.500,131.000
2.166,231.000,381.500,109.000,132.000
2.167,232.500,383.000,109.500,132.500
2.168,234.500,384.500,110.000,132.500
2.169,236.500,386.000,111.000,132.500
2.170,238.500,388.000,111.500,132.500
2.171,241.000,389.500,112.500,132.500
2.172,243.500,391.000,113.500,133.000
2.173,246.000,393.000,115.000,134.500
2.174,248.500,395.000,117.000,136.500
2.175,251.000,397.000,120.000,139.500
2.176,253.500,399.500,123.000,143.500
2.177,256.500,403.000,127.000,148.000
2.178,260.000,407.000,132.000,154.000
2.179,264.000,411.500,138.500,161.000
2.180,268.500,417.500,145.000,168.000
2.181,273.000,423.000,151.500,175.500
2.182,277.500,428.500,157.000,181.500
2.183,281.000,432.500,161.000,186.500
2.184,283.000,435.000,163.000,188.500
2.185,283.500,436.000,163.500,189.500
2.186,284.000,436.500,163.000,189.000
2.187,285.000,437.000,162.500,188.000
2.188,286.000,437.500,162.500,187.500
2.189,288.000,439.000,162.000,187.000
2.190,289.500,439.500,162.000,186.500
2.191,291.000,440.500,161.500,185.500
2.192,292.500,441.000,161.500,185.000
2.193,294.000,442.000,162.000,185.500
2.194,295.500,443.000,163.000,186.500
2.195,297.500,445.000,165.500,189.000
2.196,300.500,448.000,168.500,192.500
2.197,303.000,451.500,173.000,197.500
2.198,306.500,455.000,178.000,203.000
2.199,309.500,459.000,182.500,208.500
2.200,312.000,463.000,187.000,213.500
2.201,313.500,465.500,190.500,217.500
2.202,314.500,467.500,192.500,220.500
2.203,314.500,468.500,193.500,222.000
2.204,314.500,469.000,193.500,222.000
2.205,313.500,468.000,192.500,220.500
2.206,312.000,466.500,191.000,218.500
2.207,310.500,465.000,188.500,215.500
2.208,309.500,463.000,186.000,212.000
2.209,309.000,461.500,183.000,208.000
2.210,308.500,460.000,180.500,204.500
2.211,308.000,458.500,178.000,201.000
2.212,307.000,457.000,175.500,197.000
2.213,305.500,454.500,173.000,193.500
2.214,303.500,451.500,170.000,190.000
2.215,301.000,448.500,167.000,187.500
2.216,298.500,446.000,165.000,185.500
2.217,296.500,444.000,163.500,185.000
2.218,294.500,442.500,162.500,185.000
2.219,292.000,441.500,162.500,185.500
2.220,289.000,439.500,161.500,186.000
2.221,285.500,437.500,160.000,185.500
2.222,281.000,434.000,157.000,183.000
2.223,276.500,430.500,153.500,180.000
2.224,271.500,426.000,149.000,175.500
2.225,267.000,421.500,143.500,170.500
2.226,262.500,417.500,138.500,165.000
2.227,258.000,413.000,133.000,159.500
2.228,254.500,409.000,127.500,154.000
2.229,251.500,405.500,122.500,148.500
2.230,249.000,402.000,117.500,142.500
2.231,246.000,398.500,112.500,137.500
2.232,242.500,394.500,108.000,132.000
2.233,239.000,390.500,103.500,127.000
2.234,235.000,386.000,99.500,122.500
2.235,231.500,382.500,96.000,119.500
2.236,228.000,379.500,93.500,117.000
2.237,225.500,377.000,91.500,116.000
2.238,223.000,375.000,90.000,116.000
2.239,220.500,373.500,89.500,116.000
2.240,217.500,372.000,88.500,116.000
2.241,214.500,370.500,87.500,115.500
2.242,211.500,368.000,85.500,114.500
2.243,208.000,365.000,83.000,112.000
2.244,204.000,362.000,80.000,108.500
2.245,200.500,358.500,76.500,105.000
2.246,197.000,355.000,72.500,100.500
2.247,194.000,352.000,68.000,96.000
2.248,191.000,348.000,63.000,90.000
2.249,187.500,344.000,58.000,84.000
2.250,184.000,340.000,52.500,78.000
2.251,181.000,336.500,48.500,73.000
2.252,179.500,334.000,45.500,69.500
2.253,179.000,333.000,44.000,67.000
2.254,179.000,332.500,43.000,66.000
2.255,179.000,332.000,43.000,66.000
2.256,179.000,332.000,43.500,67.000
2.257,178.500,332.000,44.000,68.000
2.258,177.500,331.500,44.500,69.000
2.259,176.000,331.000,44.500,70.000
2.260,174.500,330.000,44.000,71.000
2.261,172.500,329.000,44.000,71.500
2.262,171.000,328.000,43.000,71.500
2.263,169.500,327.000,42.000,71.000
2.264,168.000,326.000,40.500,70.000
2.265,166.000,324.500,39.000,68.500
2.266,165.000,323.500,37.500,66.500
2.267,164.000,323.000,36.000,64.500
2.268,164.000,323.000,34.500,63.000
2.269,164.000,323.000,34.000,61.000
2.270,164.500,323.000,33.000,59.500
2.271,165.000,322.500,31.500,58.000
2.272,164.500,322.000,30.000,55.500
2.273,164.000,320.500,28.500,53.500
2.274,163.500,319.500,27.000,52.000
2.275,163.000,319.000,26.500,51.500
2.276,163.000,319.000,27.000,52.500
2.277,163.500,320.000,28.500,54.500
2.278,164.000,321.500,31.000,57.000
2.279,164.500,323.000,33.000,60.000
2.280,164.500,324.000,35.000,63.000
2.281,164.000,325.000,36.000,65.000
2.282,164.000,325.500,37.000,66.000
2.283,163.500,325.500,37.000,66.500
2.284,162.500,325.500,36.500,66.500
2.285,161.000,324.500,35.000,65.500
2.286,160.000,323.500,33.500,63.500
2.287,158.500,322.000,31.500,61.500
2.288,158.000,320.500,29.500,59.000
2.289,157.500,319.500,27.000,56.500
2.290,157.500,318.500,25.000,53.500
2.291,157.500,317.000,23.000,50.500
2.292,157.000,316.000,21.000,48.000
2.293,157.000,315.000,20.000,46.500
2.294,157.000,315.000,19.500,46.000
2.295,157.000,315.000,20.000,46.500
2.296,157.500,315.500,21.000,47.500
2.297,157.500,316.500,22.500,49.500
2.298,157.500,317.000,24.000,51.500
2.299,157.500,318.000,26.000,54.000
2.300,157.500,319.000,27.500,57.000
2.301,157.000,319.500,29.500,59.000
2.302,156.500,320.000,30.000,60.500
2.303,155.000,319.500,30.000,61.000
2.304,153.000,318.000,28.500,59.500
2.305,150.500,316.000,26.500,57.500
2.306,148.000,314.000,23.500,54.500
2.307,146.000,312.000,21.000,51.500
2.308,144.500,310.000,18.500,48.000
2.309,144.000,308.500,16.000,45.000
2.310,143.500,307.500,14.000,42.500
2.311,143.500,306.500,12.000,40.000
2.312,144.000,305.500,10.500,38.000
2.313,144.500,305.000,9.500,36.500
2.314,145.000,304.500,9.000,36.000
2.315,145.000,304.500,9.500,36.000
2.316,145.500,305.000,10.000,37.000
2.317,146.500,306.000,12.000,39.000
2.318,147.500,308.500,14.500,42.500
2.319,148.500,311.000,18.000,46.000
2.320,149.500,313.500,21.000,50.000
2.321,150.000,315.500,23.500,53.000
2.322,149.500,316.000,24.000,54.500
2.323,148.000,315.000,23.500,54.000
2.324,146.000,313.500,22.000,53.000
2.325,143.500,311.500,19.500,50.500
2.326,141.500,309.500,17.000,48.000
2.327,140.500,308.000,14.000,45.000
2.328,139.500,306.500,12.000,42.500
2.329,140.000,306.000,10.000,40.500
2.330,141.000,306.000,9.500,39.500
2.331,143.000,307.000,10.000,39.000
2.332,145.500,308.500,10.500,39.500
2.333,147.500,310.000,12.000,39.500
2.334,149.000,310.500,12.500,40.000
2.335,149.000,310.500,13.000,40.000
2.336,148.500,310.000,13.000,40.500
2.337,148.000,310.000,13.500,41.500
2.338,147.500,309.500,14.000,43.000
2.339,147.000,310.000,15.000,45.000
2.340,147.000,311.000,16.500,47.000
2.341,147.000,311.500,17.500,49.000
2.342,147.000,312.500,18.500,50.500
2.343,146.500,312.500,19.000,51.500
2.344,146.000,312.500,18.500,51.500
2.345,145.500,312.000,17.500,51.000
2.346,145.000,311.500,16.500,49.500
2.347,145.000,311.000,15.000,48.000
2.348,144.500,310.000,13.000,45.500
2.349,144.500,309.000,11.000,43.000
2.350,144.500,308.500,9.500,40.500
2.351,144.500,307.500,7.500,38.000
2.352,144.500,306.500,6.500,36.000
2.353,144.500,306.000,5.500,35.000
2.354,145.000,306.000,5.500,34.500
2.355,145.000,306.000,6.000,34.500
2.356,145.000,306.500,7.500,36.000
2.357,145.500,307.500,9.000,38.000
2.358,145.000,308.000,10.500,40.500
2.359,144.500,309.000,12.500,43.000
2.360,144.000,309.000,13.500,45.500
2.361,142.500,309.000,14.000,46.500
2.362,141.500,308.500,13.500,47.000
2.363,140.000,308.000,13.000,47.000
2.364,139.000,307.000,12.000,46.000
2.365,139.000,307.000,11.000,45.500
2.366,140.000,307.500,11.000,45.500
2.367,142.000,308.500,11.500,45.500
2.368,144.000,310.000,11.500,45.000
2.369,145.500,310.500,10.500,44.000
2.370,146.500,310.500,9.500,42.000
2.371,147.000,309.500,7.500,39.500
2.372,147.000,308.000,6.000,37.000
2.373,146.000,306.500,4.000,34.500
2.374,145.000,305.500,3.000,33.500
2.375,144.500,305.000,2.500,33.000
2.376,144.500,305.000,3.000,34.000
2.377,144.500,306.000,4.500,36.000
2.378,145.000,307.500,6.500,39.000
2.379,145.000,308.500,8.500,41.500
2.380,145.000,309.500,10.500,44.000
2.381,145.000,310.500,12.000,46.500
2.382,145.000,311.500,13.500,48.000
2.383,144.500,312.000,14.000,49.000
2.384,143.500,312.000,13.500,49.500
2.385,143.000,311.500,13.000,49.000
2.386,142.500,311.000,11.500,48.000
2.387,142.000,310.500,10.500,46.500
2.388,142.500,310.500,9.500,44.500
2.389,143.500,310.500,8.000,42.500
2.390,144.000,310.000,6.500,40.000
2.391,144.000,309.000,4.500,37.000
2.392,143.000,307.000,2.000,34.000
2.393,141.500,305.500,0.000,31.000
2.394,140.500,304.500,-1.000,30.000
2.395,140.500,304.000,-1.000,30.000
2.396,140.500,304.500,0.000,31.000
2.397,141.000,305.500,1.500,33.500
2.398,141.000,306.500,3.500,36.500
2.399,141.500,308.000,5.500,39.500
2.400,141.500,309.000,7.500,42.500
2.401,142.000,310.000,9.000,44.500
2.402,142.000,311.000,10.500,46.500
2.403,142.500,312.000,11.500,48.500
2.404,143.000,313.000,12.500,49.500
2.405,143.500,313.500,12.500,49.500
2.406,143.500,313.500,11.500,48.500
2.407,143.500,312.500,10.000,46.500
2.408,143.000,311.500,8.000,43.500
2.409,143.000,310.500,6.000,41.000
2.410,143.000,309.500,4.000,38.500
2.411,143.500,309.000,2.500,36.000
2.412,144.000,309.000,1.500,34.500
2.413,144.000,308.500,1.000,33.000
2.414,143.500,308.000,0.500,32.500
2.415,143.500,308.000,1.000,33.000
2.416,143.000,308.000,2.000,34.000
2.417,142.500,308.500,3.500,36.000
2.418,141.500,309.000,5.000,39.000
2.419,141.000,309.500,6.500,41.500
2.420,140.000,309.500,7.500,44.000
2.421,139.000,310.000,8.500,45.500
2.422,137.500,309.500,8.500,46.500
2.423,136.000,309.000,8.000,46.500
2.424,135.000,308.000,6.500,45.500
2.425,134.000,306.500,4.500,44.000
2.426,133.000,305.500,2.000,41.500
2.427,133.000,304.000,-0.500,38.500
2.428,133.000,302.500,-3.500,35.500
2.429,133.500,301.000,-6.000,32.000
2.430,134.500,300.000,-8.000,29.000
2.431,135.500,300.000,-9.500,27.000
2.432,137.000,300.500,-9.500,25.500
2.433,139.000,301.500,-9.500,25.000
2.434,140.000,302.500,-8.500,25.000
2.435,141.000,303.500,-7.000,26.500
2.436,141.500,304.500,-5.000,29.000
2.437,141.500,305.000,-3.000,31.500
2.438,140.500,305.500,-1.000,34.500
2.439,139.000,305.500,0.500,37.000
2.440,137.500,305.500,1.500,39.500
2.441,136.000,305.500,2.500,41.000
2.442,135.000,305.500,3.000,42.000
2.443,134.500,305.500,3.000,43.000
2.444,134.500,306.000,3.500,43.000
2.445,134.500,306.000,3.000,42.500
2.446,135.000,306.500,2.500,41.500
2.447,135.500,306.500,1.500,40.000
2.448,135.500,306.000,0.000,38.000
2.449,135.500,305.500,-1.500,36.000
2.450,136.000,305.000,-3.000,33.500
2.451,136.500,304.500,-4.000,31.500
2.452,136.500,304.000,-5.000,30.000
2.453,137.000,303.500,-5.500,29.000
2.454,138.000,303.500,-5.000,29.000
2.455,138.500,304.000,-4.000,30.000
2.456,139.000,305.000,-2.500,31.500
2.457,139.500,305.500,-1.000,33.500
2.458,139.500,307.000,1.000,36.000
2.459,140.000,308.500,3.500,39.500
2.460,141.000,310.500,6.500,43.500
2.461,142.000,312.500,9.000,47.000
2.462,142.000,314.000,11.000,49.000
2.463,141.500,314.000,11.500,50.000
2.464,140.500,313.000,10.500,49.000
2.465,139.500,311.500,8.500,47.000
2.466,138.500,310.000,6.500,45.000
2.467,137.500,309.000,4.000,42.000
2.468,137.000,308.000,2.000,39.000
2.469,136.500,307.000,-0.500,36.500
2.470,136.500,306.500,-2.500,34.000
2.471,136.000,305.000,-4.000,31.500
2.472,136.000,304.000,-6.000,29.000
2.473,135.000,302.500,-7.500,27.000
2.474,134.000,301.000,-8.500,25.500
2.475,133.500,300.000,-9.000,24.500
2.476,133.000,300.000,-8.500,25.500
2.477,133.500,300.500,-7.000,27.500
2.478,133.500,302.000,-5.000,30.500
2.479,134.000,303.500,-2.000,34.000
2.480,134.500,305.000,0.000,37.000
2.481,134.500,306.000,2.000,39.500
2.482,134.000,306.500,3.000,41.000
2.483,133.000,306.500,3.000,41.500
2.484,132.000,306.000,2.000,41.000
2.485,131.500,305.000,1.000,39.500
2.486,131.000,304.500,-0.500,38.000
2.487,130.500,303.500,-2.500,35.500
2.488,130.500,302.500,-4.500,33.000
2.489,130.500,301.500,-6.500,30.000
2.490,130.000,300.500,-8.500,27.000
2.491,130.000,299.500,-10.000,25.000
2.492,130.000,299.000,-11.000,23.000
2.493,130.500,298.500,-11.000,22.500
2.494,131.000,299.000,-10.500,22.500
2.495,132.000,300.000,-9.000,24.000
2.496,133.000,301.000,-7.500,25.500
2.497,134.500,302.500,-5.000,28.500
2.498,135.500,304.500,-2.500,31.500
2.499,136.000,306.000,-0.500,34.000
2.500,136.000,306.500,1.000,36.500
2.501,135.500,307.000,2.000,38.500
2.502,135.000,306.500,1.500,39.000
2.503,133.500,306.000,1.000,39.000
2.504,132.500,305.000,0.000,38.500
2.505,130.500,303.500,-2.000,37.000
2.506,128.500,301.500,-4.000,34.500
2.507,127.000,299.000,-7.000,31.000
2.508,125.500,297.000,-9.500,28.000
2.509,124.500,295.500,-12.000,24.500
2.510,124.500,295.000,-14.000,22.000
2.511,125.000,294.000,-15.500,20.000
2.512,125.500,293.500,-16.500,18.000
2.513,125.500,293.500,-17.000,17.000
2.514,126.000,293.000,-16.500,17.000
2.515,126.500,293.000,-16.000,17.000
2.516,126.500,293.500,-15.000,18.500
2.517,127.000,294.000,-13.000,20.500
2.518,127.500,295.000,-11.500,23.500
2.519,128.000,296.500,-9.000,26.500
2.520,128.000,297.500,-7.000,29.500
2.521,127.500,298.000,-5.500,32.000
2.522,127.000,298.500,-5.000,33.500
2.523,126.500,298.000,-4.500,34.000
2.524,125.500,298.000,-4.500,34.000
2.525,124.500,297.000,-5.500,33.000
2.526,123.500,296.000,-7.000,31.500
2.527,122.500,294.500,-9.500,29.000
2.528,121.000,292.000,-12.500,25.500
2.529,120.500,290.500,-15.500,21.500
2.530,120.000,289.000,-18.000,18.500
2.531,120.500,288.000,-20.000,16.000
2.532,121.000,287.500,-20.500,14.500
2.533,121.500,287.500,-20.500,14.000
2.534,123.000,288.500,-19.500,15.000
2.535,124.500,290.500,-17.000,17.000
2.536,126.500,293.000,-14.000,21.000
2.537,128.500,295.500,-10.500,25.000
2.538,130.000,298.000,-6.500,29.500
2.539,131.000,300.500,-3.500,33.500
2.540,131.500,302.000,-1.000,37.000
2.541,132.000,303.000,1.000,39.500
2.542,132.500,304.500,3.000,42.500
2.543,134.000,306.500,5.500,45.000
2.544,135.500,308.500,8.000,47.000
2.545,137.500,310.000,9.500,48.500
2.546,138.500,311.500,10.500,49.500
2.547,140.000,312.500,11.000,49.000
2.548,141.000,313.000,10.500,48.000
2.549,142.000,313.000,9.500,46.500
2.550,143.500,313.000,8.500,45.000
2.551,144.500,313.000,7.500,43.500
2.552,145.000,313.000,7.000,42.000
2.553,145.500,312.500,6.500,41.000
2.554,145.500,312.000,6.500,41.000
2.555,146.000,312.500,7.500,42.000
2.556,147.500,313.500,9.500,44.000
2.557,149.000,315.500,12.500,47.000
2.558,150.000,317.500,15.500,51.000
2.559,151.000,320.000,18.500,54.500
2.560,152.000,322.000,21.000,58.000
2.561,152.500,323.500,23.500,61.000
2.562,152.500,325.000,25.000,63.000
2.563,152.500,325.500,26.000,64.500
2.564,152.500,326.000,26.500,64.500
2.565,151.500,325.500,25.500,63.500
2.566,150.500,324.500,23.500,61.500
2.567,149.500,322.500,21.500,58.500
2.568,148.000,320.500,18.500,55.000
2.569,147.000,319.000,16.000,52.000
2.570,147.000,317.500,14.500,50.000
2.571,147.500,317.000,13.000,48.000
2.572,148.000,317.000,13.000,46.500
2.573,149.500,317.500,13.000,46.000
2.574,151.000,318.500,14.000,46.500
2.575,152.500,319.500,15.500,48.000
2.576,154.000,321.500,17.500,50.000
2.577,155.000,323.000,20.000,52.500
2.578,155.000,324.000,22.500,55.000
2.579,154.500,324.500,24.000,57.500
2.580,153.500,324.500,25.000,59.000
2.581,152.500,324.000,26.000,60.500
2.582,152.000,324.000,26.500,62.000
2.583,151.500,324.500,27.000,63.000
2.584,151.000,324.500,27.000,63.500
2.585,150.500,324.000,26.500,62.500
2.586,149.000,322.500,24.500,61.000
2.587,147.500,320.500,22.000,57.500
2.588,145.500,318.000,18.500,54.000
2.589,144.000,315.500,15.500,49.500
2.590,143.000,313.500,12.500,46.000
2.591,142.500,312.000,10.500,43.000
2.592,142.500,311.500,9.500,41.500
2.593,143.000,311.500,9.500,40.500
2.594,143.500,311.500,9.500,40.000
2.595,143.500,311.500,9.500,40.500
2.596,143.500,311.500,10.000,41.000
2.597,143.000,311.000,10.500,42.500
2.598,143.000,311.000,12.000,44.000
2.599,142.500,311.500,13.500,46.500
2.600,142.500,312.500,15.000,48.500
2.601,141.500,312.500,16.000,50.000
2.602,140.500,312.500,16.000,51.000
2.603,139.500,312.000,15.500,50.500
2.604,137.500,310.500,14.000,49.500
2.605,135.500,309.000,12.000,47.500
2.606,133.000,307.000,9.500,45.000
2.607,131.000,304.500,7.000,42.000
2.608,129.000,302.500,4.500,39.000
2.609,128.000,301.000,2.000,36.000
2.610,128.000,300.000,0.000,33.500
2.611,128.000,299.000,-1.500,31.500
2.612,127.500,298.000,-3.000,29.500
2.613,127.500,297.000,-4.500,28.000
2.614,127.500,296.500,-5.000,27.500
2.615,127.500,296.000,-5.000,27.500
2.616,127.500,296.000,-4.500,28.000
2.617,127.500,296.000,-3.500,29.500
2.618,127.000,296.500,-2.500,31.000
2.619,126.000,296.000,-2.000,32.500
2.620,124.500,295.500,-1.500,33.500
2.621,123.000,295.000,-1.500,34.000
2.622,122.000,294.500,-2.000,34.000
2.623,120.500,293.000,-3.000,33.500
2.624,118.000,291.000,-5.000,31.000
2.625,114.500,288.000,-9.000,27.000
2.626,110.500,283.500,-14.000,22.000
2.627,107.000,279.000,-19.000,16.500
2.628,103.500,275.500,-23.500,11.500
2.629,102.000,273.000,-27.000,7.500
2.630,101.000,271.000,-29.500,4.000
2.631,100.500,270.000,-31.500,1.500
2.632,101.000,269.500,-32.500,-0.500
2.633,101.000,269.000,-33.000,-2.000
2.634,101.500,269.000,-32.500,-2.500
2.635,101.500,269.000,-32.000,-2.500
2.636,101.500,269.000,-31.500,-1.500
2.637,101.500,269.000,-30.500,0.500
2.638,101.000,269.500,-29.000,2.500
2.639,101.000,270.000,-27.500,5.000
2.640,100.500,270.500,-26.000,7.000
2.641,100.000,271.000,-25.000,9.000
2.642,100.000,271.000,-24.000,10.500
2.643,99.500,271.500,-23.500,11.500
2.644,99.000,271.000,-24.000,11.000
2.645,97.500,270.500,-25.000,10.000
2.646,96.000,269.000,-26.500,8.000
2.647,94.000,267.000,-29.000,5.000
2.648,92.500,265.000,-32.000,1.500
2.649,91.000,262.500,-35.000,-2.000
2.650,90.500,261.000,-37.000,-5.000
2.651,91.000,260.500,-38.500,-7.000
2.652,92.000,260.500,-39.500,-8.000
2.653,93.500,261.000,-39.000,-8.500
2.654,94.500,261.500,-38.500,-8.500
2.655,95.000,261.500,-38.500,-8.500
2.656,95.000,261.000,-38.000,-8.000
2.657,93.500,260.500,-38.000,-7.500
2.658,92.500,260.000,-38.000,-6.500
2.659,91.500,260.000,-37.000,-5.000
2.660,91.000,260.500,-35.500,-2.500
2.661,90.500,261.000,-34.000,0.000
2.662,90.500,262.000,-33.000,2.000
2.663,90.000,262.000,-32.500,2.500
2.664,89.500,261.500,-33.500,2.000
2.665,88.500,261.000,-34.500,1.000
2.666,87.500,260.000,-36.000,-0.500
2.667,87.000,259.000,-38.000,-2.500
2.668,86.500,258.500,-39.500,-5.000
2.669,86.500,257.500,-41.000,-7.500
2.670,86.500,256.500,-42.500,-9.500
2.671,87.000,256.000,-43.000,-11.500
2.672,87.500,256.000,-43.500,-13.000
2.673,88.000,256.000,-43.500,-13.500
2.674,89.000,256.000,-43.000,-13.500
2.675,89.500,256.500,-42.000,-12.500
2.676,90.000,257.000,-41.000,-11.000
2.677,90.000,258.000,-39.500,-9.000
2.678,90.500,259.000,-37.500,-6.500
2.679,91.500,260.500,-35.000,-3.500
2.680,92.000,262.000,-33.000,0.000
2.681,92.500,263.500,-31.000,3.000
2.682,92.500,264.500,-29.500,4.500
2.683,92.500,265.000,-29.000,5.500
2.684,92.000,265.000,-29.000,6.000
2.685,91.500,264.500,-29.000,5.500
2.686,91.500,264.500,-30.000,4.500
2.687,91.000,263.500,-31.500,2.500
2.688,90.000,262.500,-33.500,-0.500
2.689,89.000,260.500,-36.000,-3.500
2.690,88.000,259.000,-38.500,-7.000
2.691,87.000,257.000,-41.000,-10.500
2.692,86.500,255.500,-43.000,-13.500
2.693,86.000,253.500,-44.500,-16.000
2.694,84.500,251.500,-46.500,-18.000
2.695,83.000,249.000,-48.500,-19.500
2.696,80.000,246.500,-50.500,-21.500
2.697,77.000,243.500,-52.500,-23.000
2.698,73.500,240.500,-54.500,-24.000
2.699,70.500,238.500,-56.000,-24.500
2.700,68.000,237.000,-56.500,-24.500
2.701,66.500,236.500,-56.500,-23.500
2.702,66.000,237.000,-56.000,-22.000
2.703,67.000,238.000,-54.000,-20.000
2.704,70.000,241.000,-51.500,-17.000
2.705,75.000,246.000,-46.500,-12.000
2.706,82.500,253.500,-39.500,-5.500
2.707,93.000,263.000,-30.000,3.500
2.708,105.500,275.500,-18.500,14.500
2.709,120.500,290.000,-4.500,28.000
2.710,137.500,306.500,11.500,42.500
2.711,155.000,323.500,27.500,58.500
2.712,172.000,340.000,43.500,74.000
2.713,188.000,355.500,59.500,89.500
2.714,204.500,372.000,76.000,106.500
2.715,222.500,389.500,94.000,125.000
2.716,242.000,409.500,115.000,146.500
2.717,263.000,430.500,137.500,170.000
2.718,285.000,453.500,162.000,195.000
2.719,308.000,477.500,187.000,221.500
2.720,331.500,502.000,212.500,248.500
2.721,355.000,526.000,237.500,275.000
2.722,377.000,549.500,262.000,300.000
2.723,398.500,572.000,285.000,324.000
2.724,420.000,594.000,308.000,347.000
2.725,443.000,617.500,331.500,371.000
2.726,468.500,642.500,356.500,396.000
2.727,495.500,669.000,383.000,422.000
2.728,523.000,696.000,409.500,448.500
2.729,550.000,722.500,435.000,473.500
2.730,574.500,746.000,457.500,496.000
2.731,592.500,764.000,474.500,512.500
2.732,601.500,772.000,482.500,520.000
2.733,596.500,767.000,477.500,514.000
2.734,576.500,747.000,457.500,494.000
2.735,544.000,714.000,425.500,461.000
2.736,503.000,673.500,385.500,421.000
2.737,458.500,629.000,342.500,377.500
2.738,413.500,584.500,299.000,334.000
2.739,369.000,540.500,256.000,291.000
2.740,325.500,497.000,214.000,249.000
2.741,283.000,454.500,172.000,206.500
2.742,242.000,413.500,131.500,166.000
2.743,204.500,375.500,93.500,127.500
2.744,171.000,341.000,58.500,92.000
2.745,140.500,310.000,27.000,60.000
2.746,114.500,283.000,-1.000,31.500
2.747,92.500,260.000,-24.500,7.000
2.748,74.500,241.000,-44.000,-13.000
2.749,60.500,226.000,-60.000,-29.500
2.750,49.500,214.000,-73.000,-43.500
2.751,40.500,204.000,-84.000,-55.500
2.752,33.000,195.000,-93.500,-65.500
2.753,27.000,188.000,-100.500,-73.000
2.754,23.500,183.500,-104.500,-78.000
2.755,21.500,181.000,-106.500,-80.000
2.756,21.500,180.500,-106.000,-79.500
2.757,22.000,181.500,-104.500,-77.500
2.758,23.500,183.500,-101.500,-73.500
2.759,25.500,186.500,-97.500,-69.000
2.760,28.000,190.000,-93.500,-63.500
2.761,30.500,193.500,-89.000,-58.500
2.762,33.500,197.000,-84.500,-53.000
2.763,37.000,200.500,-80.000,-49.000
2.764,39.500,203.500,-77.000,-46.000
2.765,41.500,205.500,-75.500,-44.500
2.766,43.000,206.500,-74.500,-44.000
2.767,44.000,207.500,-74.000,-44.500
2.768,46.000,208.500,-73.000,-44.500
2.769,48.000,210.000,-72.000,-44.500
2.770,50.500,211.500,-71.000,-44.500
2.771,53.500,213.000,-70.000,-45.000
2.772,55.500,214.500,-69.000,-44.500
2.773,57.500,215.500,-67.500,-44.000
2.774,59.000,217.000,-66.000,-42.500
2.775,60.500,218.000,-64.500,-41.000
2.776,61.500,219.000,-62.000,-38.000
2.777,63.000,220.500,-59.500,-34.500
2.778,64.000,222.000,-56.500,-31.000
2.779,65.500,224.000,-53.500,-27.000
2.780,67.000,226.000,-50.500,-23.000
2.781,68.500,228.000,-47.500,-20.000
2.782,69.500,229.000,-46.000,-18.000
2.783,69.000,228.500,-45.500,-17.500
2.784,68.000,227.000,-46.500,-18.500
2.785,65.500,224.500,-49.000,-21.500
2.786,63.000,222.000,-51.500,-25.000
2.787,60.500,219.500,-55.000,-28.500
2.788,58.500,217.000,-58.000,-32.500
2.789,57.000,215.000,-61.000,-36.000
2.790,56.000,213.000,-63.000,-39.500
2.791,55.000,211.500,-65.000,-42.500
2.792,54.500,210.000,-66.500,-45.000
2.793,53.500,208.500,-68.000,-46.500
2.794,53.500,207.500,-68.500,-47.500
2.795,53.500,207.500,-68.000,-47.500
2.796,54.000,207.500,-67.000,-46.000
2.797,54.000,207.500,-65.500,-44.500
2.798,54.000,208.500,-64.000,-41.500
2.799,54.000,209.500,-61.500,-38.500
2.800,54.500,210.500,-59.500,-35.500
2.801,55.000,211.500,-57.500,-33.000
2.802,55.500,212.500,-56.000,-30.500
2.803,55.500,213.000,-55.000,-29.000
2.804,55.000,213.000,-54.500,-28.500
2.805,54.500,212.500,-55.000,-29.000
2.806,53.500,211.500,-56.500,-30.500
2.807,53.000,210.500,-58.000,-32.500
2.808,52.000,209.500,-60.000,-35.500
2.809,51.500,207.500,-62.500,-39.000
2.810,50.000,205.000,-65.500,-42.500
2.811,49.000,202.500,-68.500,-46.500
2.812,48.500,201.000,-71.000,-49.000
2.813,48.500,199.500,-72.500,-51.000
2.814,48.500,199.000,-72.500,-51.000
2.815,49.000,199.000,-72.000,-50.500
2.816,49.500,199.000,-71.000,-48.500
2.817,49.500,199.500,-69.000,-46.500
2.818,50.000,200.000,-67.500,-44.000
2.819,49.500,200.500,-65.500,-42.000
2.820,49.500,201.000,-64.000,-39.500
2.821,49.500,201.500,-63.000,-38.000
2.822,49.000,201.500,-62.000,-36.500
2.823,48.500,201.500,-61.500,-35.500
2.824,48.000,201.500,-61.500,-35.000
2.825,47.500,201.000,-61.500,-35.500
2.826,47.000,200.500,-62.500,-36.000
2.827,47.000,200.000,-63.500,-37.500
2.828,47.000,199.500,-64.500,-39.500
2.829,47.000,198.500,-66.000,-42.000
2.830,47.500,197.500,-67.500,-44.500
2.831,48.500,197.500,-68.500,-46.500
2.832,49.500,197.500,-69.000,-47.500
2.833,51.000,197.500,-68.500,-48.000
2.834,52.500,198.500,-67.500,-47.500
2.835,54.000,199.000,-65.500,-46.000
2.836,55.000,200.500,-63.500,-44.000
2.837,55.500,201.500,-61.500,-41.500
2.838,55.500,202.000,-59.500,-39.000
2.839,55.000,202.500,-58.000,-36.500
2.840,54.500,202.500,-57.000,-35.000
2.841,53.500,202.500,-56.000,-33.500
2.842,52.500,202.500,-55.000,-32.500
2.843,51.500,202.000,-55.000,-32.500
2.844,50.500,201.000,-56.000,-33.500
2.845,49.000,199.000,-57.500,-35.000
2.846,47.000,197.000,-59.500,-37.500
2.847,45.500,194.500,-62.500,-40.500
2.848,44.000,192.500,-65.000,-43.500
2.849,43.000,190.500,-68.000,-46.500
2.850,42.500,188.500,-70.000,-49.000
2.851,42.500,187.500,-71.500,-51.500
2.852,43.000,187.000,-72.500,-53.000
2.853,44.000,187.000,-72.000,-53.500
2.854,45.500,187.500,-71.000,-53.000
2.855,46.500,188.500,-70.000,-52.500
2.856,47.500,188.500,-69.000,-51.500
2.857,47.500,189.000,-68.000,-50.000
2.858,47.500,189.000,-66.500,-48.500
2.859,47.000,189.500,-65.000,-46.000
2.860,46.500,189.500,-63.500,-44.000
2.861,46.000,189.500,-62.500,-42.000
2.862,45.000,189.000,-62.000,-41.000
2.863,44.000,188.500,-62.000,-41.000
2.864,42.500,187.500,-62.500,-41.500
2.865,41.500,186.000,-64.000,-43.000
2.866,40.500,184.500,-65.500,-45.000
2.867,40.000,184.000,-66.500,-46.500
2.868,40.000,183.500,-67.500,-48.500
2.869,40.500,183.000,-68.500,-50.000
2.870,41.000,182.500,-69.000,-51.000
2.871,41.500,183.000,-69.000,-52.000
2.872,43.000,183.500,-68.500,-52.000
2.873,44.500,184.500,-67.000,-51.500
2.874,46.500,185.500,-65.500,-50.000
2.875,48.000,186.500,-64.000,-48.500
2.876,49.000,187.500,-62.000,-47.000
2.877,49.500,188.000,-61.000,-45.000
2.878,49.000,187.500,-60.500,-44.000
2.879,47.500,186.500,-60.500,-43.000
2.880,46.000,185.500,-60.500,-42.000
2.881,44.000,184.000,-61.000,-41.500
2.882,42.500,183.000,-61.500,-41.500
2.883,41.500,181.500,-62.000,-42.500
2.884,40.500,180.000,-63.500,-44.000
2.885,40.000,178.500,-65.000,-46.000
2.886,40.000,177.500,-67.000,-48.500
2.887,40.500,176.500,-68.500,-51.000
2.888,41.000,176.500,-70.000,-53.000
2.889,42.500,176.500,-70.500,-55.000
2.890,44.000,177.500,-70.500,-56.000
2.891,46.000,178.500,-70.000,-56.000
2.892,47.500,179.500,-69.000,-56.000
2.893,49.000,180.000,-67.500,-55.500
2.894,50.000,180.500,-66.500,-55.000
2.895,50.000,180.500,-65.500,-54.000
2.896,49.500,180.000,-65.000,-52.500
2.897,48.500,179.500,-63.500,-51.000
2.898,47.500,179.500,-62.000,-48.500
2.899,47.000,180.000,-59.500,-45.500
2.900,47.000,181.000,-57.500,-42.500
2.901,47.500,181.500,-55.500,-39.500
2.902,47.500,182.000,-54.000,-38.000
2.903,47.500,182.500,-53.000,-36.500
2.904,47.500,182.500,-52.500,-36.500
2.905,47.000,182.000,-53.000,-37.000
2.906,46.500,181.000,-54.000,-38.500
2.907,46.000,179.500,-55.500,-40.500
2.908,46.000,178.500,-57.000,-42.500
2.909,47.000,178.000,-57.500,-44.000
2.910,48.500,178.500,-58.000,-45.500
2.911,50.500,179.000,-57.500,-46.000
2.912,52.500,180.000,-57.000,-46.500
2.913,53.500,180.500,-56.000,-46.500
2.914,54.500,180.500,-55.500,-46.500
2.915,55.000,181.000,-54.500,-45.500
2.916,55.500,181.000,-53.000,-44.000
2.917,56.000,182.000,-51.000,-41.500
2.918,57.000,183.000,-48.000,-38.000
2.919,58.000,185.000,-45.000,-33.500
2.920,59.500,187.000,-41.500,-29.500
2.921,61.500,189.000,-38.500,-25.500
2.922,63.000,191.000,-35.500,-22.500
2.923,64.500,193.000,-33.000,-20.000
2.924,66.500,194.500,-31.000,-18.000
2.925,68.000,195.500,-29.500,-17.000
2.926,69.500,196.500,-28.500,-16.500
2.927,71.000,196.500,-28.500,-17.000
2.928,72.000,196.500,-28.500,-18.000
2.929,73.500,196.500,-29.000,-19.500
2.930,75.000,197.000,-29.500,-20.500
2.931,76.500,197.500,-29.000,-21.500
2.932,78.500,198.000,-28.500,-22.000
2.933,79.500,198.500,-28.000,-21.500
2.934,80.500,198.500,-27.000,-21.000
2.935,82.000,199.000,-25.500,-20.000
2.936,83.000,200.000,-23.000,-17.500
2.937,84.500,201.500,-20.000,-14.500
2.938,86.500,203.500,-16.500,-10.500
2.939,88.500,206.000,-12.500,-6.000
2.940,90.500,208.500,-8.500,-1.000
2.941,92.500,211.500,-4.500,3.500
2.942,95.000,214.000,-0.500,7.500
2.943,97.000,217.000,3.500,11.500
2.944,99.000,219.500,7.000,14.500
2.945,101.500,222.000,9.500,17.000
2.946,104.000,224.000,11.500,18.500
2.947,106.000,225.000,13.000,19.000
2.948,107.500,225.500,13.000,18.500
2.949,109.000,226.000,13.000,17.000
2.950,110.000,225.500,12.500,15.500
2.951,111.000,225.000,12.000,14.000
2.952,112.500,225.000,12.000,13.000
2.953,114.500,225.500,13.500,13.000
2.954,116.500,227.000,15.000,14.500
2.955,118.500,228.500,18.000,17.000
2.956,121.500,231.000,21.500,21.000
2.957,125.000,235.000,26.500,26.000
2.958,129.500,239.500,33.000,33.000
2.959,134.500,245.500,40.000,41.000
2.960,139.000,251.000,47.000,48.500
2.961,143.000,256.000,53.000,55.000
2.962,146.000,259.500,58.000,60.000
2.963,147.500,261.500,61.000,63.000
2.964,148.500,262.500,62.500,64.500
2.965,149.000,262.500,63.000,64.500
2.966,150.000,262.500,63.000,64.000
2.967,150.500,262.500,62.500,63.000
2.968,152.000,262.500,62.500,62.000
2.969,153.000,262.500,62.000,61.000
2.970,154.500,263.000,62.000,60.000
2.971,155.500,263.000,62.000,59.500
2.972,156.500,263.000,62.000,59.000
2.973,157.500,263.000,62.500,58.500
2.974,158.500,263.500,63.000,59.000
2.975,160.000,264.000,65.000,61.000
2.976,161.500,265.500,68.000,63.500
2.977,163.000,267.000,70.500,66.500
2.978,163.500,268.000,73.000,69.000
2.979,163.000,268.000,74.500,71.000
2.980,161.500,267.000,74.500,71.500
2.981,159.500,265.000,74.000,71.500
2.982,157.000,263.500,73.500,71.500
2.983,154.500,261.000,72.000,70.500
2.984,151.500,258.500,69.500,68.500
2.985,148.500,255.000,66.500,65.500
2.986,145.500,251.500,62.500,61.500
2.987,142.000,247.000,58.500,56.500
2.988,138.000,242.500,54.000,51.000
2.989,134.500,237.500,48.500,45.000
2.990,130.500,232.000,43.000,38.000
2.991,126.500,227.000,37.000,31.500
2.992,123.000,221.500,31.500,25.000
2.993,119.000,216.500,26.500,19.000
2.994,115.500,212.000,22.500,13.500
2.995,111.500,207.500,19.000,9.500
2.996,108.000,203.500,16.500,6.500
2.997,104.500,200.000,14.500,4.500
2.998,101.500,197.000,13.500,4.000
2.999,98.000,194.000,12.000,3.000
3.000,93.500,190.500,10.500,2.000
3.001,89.500,187.000,8.500,0.500
3.002,85.000,183.500,6.000,-2.000
3.003,80.500,179.500,3.000,-5.000
3.004,76.500,175.000,-0.500,-8.500
3.005,72.000,170.500,-4.500,-12.500
3.006,67.500,166.000,-9.000,-17.500
3.007,63.000,161.000,-14.000,-23.500
3.008,58.500,156.000,-19.000,-29.500
3.009,55.000,151.000,-24.000,-36.000
3.010,51.500,146.500,-29.000,-42.000
3.011,49.000,142.500,-32.500,-47.000
3.012,47.000,139.500,-35.500,-51.000
3.013,45.500,136.500,-38.000,-54.500
3.014,44.500,134.000,-40.000,-57.500
3.015,42.500,131.000,-41.500,-59.500
3.016,40.000,128.000,-43.500,-61.500
3.017,37.000,125.000,-45.000,-63.000
3.018,34.000,122.500,-46.500,-64.000
3.019,31.000,119.500,-48.000,-65.000
3.020,27.500,116.500,-49.500,-65.500
3.021,24.500,114.000,-51.000,-66.500
3.022,21.000,111.000,-53.000,-67.500
3.023,18.000,108.500,-55.000,-69.500
3.024,15.000,105.500,-57.500,-72.000
3.025,12.000,102.000,-60.000,-75.000
3.026,9.500,99.000,-63.000,-78.000
3.027,7.000,96.000,-66.000,-82.000
3.028,4.500,93.000,-69.000,-86.000
3.029,2.500,90.500,-72.000,-90.500
3.030,0.500,87.500,-75.000,-94.500
3.031,-1.000,85.000,-77.500,-98.000
3.032,-2.500,82.500,-80.000,-101.500
3.033,-4.000,80.000,-82.000,-104.000
3.034,-5.500,78.000,-83.500,-106.000
3.035,-7.500,75.500,-85.000,-108.000
3.036,-9.500,73.000,-86.000,-109.000
3.037,-12.000,71.500,-86.500,-108.500
3.038,-13.500,70.000,-86.000,-107.500
3.039,-15.000,69.500,-85.000,-106.000
3.040,-16.000,69.500,-84.000,-104.000
3.041,-17.500,68.500,-83.500,-103.500
3.042,-19.500,67.500,-84.000,-103.500
3.043,-21.000,66.000,-84.500,-104.500
3.044,-23.000,64.000,-86.000,-106.000
3.045,-25.000,62.000,-87.500,-108.000
3.046,-27.000,59.500,-89.500,-110.500
3.047,-28.000,57.500,-91.500,-113.000
3.048,-28.500,56.000,-93.500,-115.500
3.049,-28.000,55.000,-95.000,-118.000
3.050,-27.500,54.500,-96.500,-120.000
3.051,-27.500,53.500,-98.000,-122.500
3.052,-27.500,52.000,-99.500,-125.000
3.053,-28.000,50.500,-100.500,-126.500
3.054,-29.000,49.500,-101.500,-127.500
3.055,-30.000,48.500,-101.500,-128.000
3.056,-31.000,47.500,-101.000,-127.500
3.057,-32.000,46.500,-100.000,-126.500
3.058,-33.500,45.500,-99.500,-125.500
3.059,-35.000,44.500,-98.500,-124.000
3.060,-36.500,44.000,-98.000,-122.500
3.061,-37.500,43.500,-97.500,-121.500
3.062,-38.500,43.000,-97.000,-121.000
3.063,-39.500,41.500,-97.500,-121.500
3.064,-41.500,40.000,-98.500,-122.500
3.065,-43.000,38.000,-100.000,-125.000
3.066,-44.500,36.000,-101.500,-127.000
3.067,-45.500,34.500,-103.000,-129.500
3.068,-46.000,33.000,-104.500,-131.500
3.069,-46.000,32.000,-106.000,-134.000
3.070,-46.000,31.000,-107.500,-136.500
3.071,-46.000,29.500,-109.000,-139.000
3.072,-46.500,28.500,-110.500,-141.500
3.073,-47.000,27.000,-111.500,-143.500
3.074,-47.500,26.000,-111.500,-144.500
3.075,-47.500,26.000,-110.500,-144.000
3.076,-46.500,26.500,-108.500,-142.000
3.077,-45.500,28.000,-105.500,-138.500
3.078,-44.000,30.000,-101.500,-134.500
3.079,-42.500,32.000,-97.500,-129.500
3.080,-41.000,34.500,-93.500,-125.500
3.081,-40.000,36.000,-90.000,-122.000
3.082,-40.000,36.500,-88.000,-119.500
3.083,-40.500,36.000,-87.500,-119.000
3.084,-41.500,34.500,-88.000,-120.000
3.085,-43.500,32.500,-89.500,-122.000
3.086,-46.000,29.500,-92.500,-125.500
3.087,-49.000,26.000,-96.000,-130.000
3.088,-51.500,22.000,-100.500,-135.000
3.089,-54.000,18.000,-104.500,-140.500
3.090,-55.500,15.500,-108.000,-145.000
3.091,-56.000,13.500,-110.000,-148.000
3.092,-56.500,12.500,-111.500,-150.500
3.093,-57.000,11.000,-112.000,-152.000
3.094,-57.500,10.000,-112.500,-153.000
3.095,-58.000,8.500,-112.000,-153.000
3.096,-58.500,8.000,-111.000,-152.000
3.097,-59.000,8.000,-109.500,-150.500
3.098,-59.500,7.500,-108.500,-149.000
3.099,-60.500,7.000,-107.500,-147.500
3.100,-61.500,6.500,-107.000,-146.500
3.101,-62.500,6.000,-106.500,-145.500
3.102,-63.500,6.000,-105.500,-145.000
3.103,-63.500,6.000,-104.500,-144.000
3.104,-64.000,6.000,-104.000,-144.000
3.105,-64.000,5.500,-104.000,-144.500
3.106,-64.500,4.500,-104.500,-145.500
3.107,-65.000,3.000,-106.000,-147.500
3.108,-66.000,1.000,-108.500,-151.000
3.109,-67.500,-1.500,-111.000,-154.500
3.110,-69.000,-3.500,-113.500,-158.500
3.111,-70.500,-5.500,-115.000,-161.000
3.112,-71.000,-7.000,-116.500,-163.500
3.113,-71.500,-8.500,-117.000,-165.000
3.114,-72.000,-9.500,-117.500,-166.500
3.115,-72.000,-10.500,-118.000,-167.000
3.116,-72.500,-11.500,-117.500,-167.000
3.117,-72.500,-11.500,-116.500,-166.000
3.118,-72.000,-11.000,-114.500,-163.500
3.119,-72.000,-10.500,-112.500,-161.000
3.120,-71.500,-9.500,-110.000,-158.000
3.121,-71.500,-9.000,-108.000,-155.500
3.122,-72.000,-8.500,-106.500,-154.000
3.123,-73.500,-9.000,-106.500,-153.500
3.124,-75.000,-10.000,-107.000,-154.000
3.125,-77.500,-12.000,-109.000,-156.000
3.126,-80.000,-14.000,-111.000,-158.500
3.127,-82.000,-16.500,-113.500,-162.000
3.128,-83.500,-18.500,-115.500,-165.000
3.129,-85.000,-20.500,-117.500,-168.000
3.130,-85.000,-21.500,-119.000,-171.000
3.131,-85.000,-23.000,-120.000,-173.500
3.132,-85.000,-24.000,-121.000,-175.500
3.133,-84.500,-25.000,-121.500,-177.500
3.134,-84.500,-26.000,-122.000,-178.000
3.135,-84.000,-26.500,-121.500,-178.000
3.136,-84.000,-26.500,-120.500,-177.000
3.137,-83.500,-26.500,-118.500,-175.000
3.138,-83.500,-25.500,-116.000,-172.500
3.139,-83.500,-25.000,-113.500,-170.000
3.140,-83.500,-24.500,-111.500,-167.000
3.141,-83.500,-23.500,-109.000,-165.000
3.142,-84.000,-23.500,-107.500,-163.500
3.143,-85.000,-24.000,-107.500,-163.000
3.144,-86.500,-25.500,-108.500,-164.500
3.145,-88.500,-27.500,-111.000,-167.000
3.146,-90.500,-30.500,-113.500,-170.000
3.147,-92.000,-32.500,-116.000,-173.500
3.148,-93.000,-34.500,-117.500,-176.500
3.149,-93.000,-35.500,-119.000,-179.000
3.150,-93.000,-36.000,-120.000,-181.000
3.151,-93.500,-37.500,-121.000,-183.500
3.152,-94.500,-39.000,-122.500,-186.000
3.153,-95.500,-41.000,-123.500,-188.000
3.154,-96.500,-43.000,-124.500,-189.500
3.155,-97.500,-44.000,-125.000,-190.000
3.156,-98.000,-45.000,-124.500,-190.000
3.157,-98.000,-45.000,-123.000,-188.500
3.158,-98.000,-44.500,-121.000,-186.000
3.159,-98.000,-43.500,-118.500,-183.500
3.160,-98.500,-43.000,-117.000,-181.000
3.161,-99.500,-43.000,-115.500,-179.500
3.162,-100.500,-43.500,-115.000,-179.000
3.163,-102.000,-44.500,-115.500,-179.500
3.164,-103.000,-45.500,-115.500,-180.000
3.165,-104.500,-47.000,-116.500,-181.500
3.166,-105.500,-48.000,-117.500,-183.500
3.167,-106.000,-49.500,-119.000,-185.500
3.168,-106.500,-50.500,-120.500,-188.000
3.169,-107.000,-51.500,-122.000,-190.500
3.170,-106.500,-52.000,-123.000,-193.500
3.171,-106.000,-53.000,-124.000,-195.500
3.172,-105.500,-53.500,-124.500,-197.500
3.173,-105.500,-54.500,-125.000,-199.500
3.174,-105.500,-55.500,-125.000,-200.000
3.175,-106.000,-56.500,-125.000,-200.500
3.176,-107.000,-57.500,-125.000,-200.500
3.177,-108.500,-58.000,-124.000,-200.000
3.178,-109.500,-58.500,-123.000,-198.500
3.179,-110.000,-58.500,-121.500,-196.500
3.180,-111.000,-58.000,-119.500,-194.500
3.181,-111.000,-57.500,-117.500,-192.500
3.182,-111.500,-57.500,-115.500,-190.500
3.183,-111.500,-57.000,-114.500,-189.500
3.184,-112.000,-57.000,-113.500,-188.500
3.185,-112.500,-57.500,-113.000,-189.000
3.186,-113.000,-58.500,-113.500,-190.000
3.187,-113.500,-59.500,-115.000,-192.500
3.188,-114.000,-61.000,-116.500,-195.000
3.189,-115.000,-62.500,-119.000,-198.500
3.190,-116.000,-64.500,-121.000,-202.000
3.191,-116.500,-66.500,-123.000,-205.000
3.192,-117.500,-68.000,-124.500,-208.000
3.193,-117.500,-69.500,-125.000,-209.500
3.194,-117.500,-70.000,-125.000,-210.500
3.195,-117.000,-69.500,-124.000,-210.000
3.196,-117.000,-69.500,-122.000,-209.000
3.197,-116.500,-69.000,-120.500,-207.500
3.198,-117.000,-68.500,-118.500,-205.500
3.199,-117.500,-69.000,-116.500,-203.500
3.200,-118.500,-69.500,-115.500,-202.000
3.201,-120.000,-70.000,-115.000,-201.500
3.202,-121.500,-71.500,-115.000,-201.500
3.203,-123.000,-72.000,-115.000,-202.000
3.204,-124.500,-73.000,-115.500,-203.000
3.205,-125.500,-74.000,-116.000,-204.500
3.206,-127.000,-75.500,-118.000,-207.500
3.207,-129.000,-78.000,-120.500,-211.000
3.208,-130.500,-80.500,-123.500,-215.000
3.209,-132.000,-83.000,-126.500,-219.000
3.210,-132.500,-84.500,-128.500,-222.000
3.211,-132.000,-85.500,-129.000,-223.500
3.212,-131.000,-85.500,-129.000,-224.500
3.213,-130.000,-85.000,-128.000,-224.500
3.214,-129.500,-85.000,-127.000,-224.000
3.215,-129.000,-84.500,-125.500,-223.000
3.216,-128.500,-84.500,-124.000,-221.500
3.217,-128.500,-84.000,-122.500,-219.500
3.218,-129.000,-84.000,-120.500,-217.000
3.219,-129.500,-83.500,-118.500,-214.500
3.220,-130.000,-83.500,-116.500,-212.500
3.221,-130.500,-83.000,-114.500,-210.500
3.222,-130.500,-82.000,-113.000,-209.000
3.223,-131.000,-82.000,-112.500,-208.500
3.224,-132.000,-82.500,-112.500,-209.000
3.225,-133.000,-83.500,-113.500,-211.000
3.226,-134.500,-85.000,-115.500,-213.500
3.227,-136.000,-86.500,-118.000,-216.500
3.228,-137.500,-88.500,-120.500,-220.000
3.229,-138.500,-90.500,-123.000,-223.000
3.230,-139.500,-92.500,-125.000,-226.000
3.231,-140.000,-94.000,-126.500,-228.500
3.232,-140.000,-95.000,-127.000,-230.500
3.233,-140.000,-96.000,-128.000,-232.000
3.234,-140.000,-97.000,-128.000,-233.500
3.235,-141.000,-98.000,-128.000,-234.000
3.236,-141.500,-98.500,-128.000,-233.500
3.237,-142.500,-99.000,-127.000,-233.000
3.238,-143.500,-99.500,-126.000,-231.500
3.239,-145.000,-100.000,-125.000,-230.500
3.240,-146.000,-100.000,-124.000,-228.500
3.241,-147.000,-100.000,-123.000,-227.000
3.242,-147.500,-99.500,-121.000,-225.000
3.243,-147.500,-99.000,-119.500,-223.500
3.244,-147.500,-99.000,-118.500,-222.500
3.245,-148.000,-99.000,-118.000,-222.500
3.246,-149.000,-100.500,-119.000,-224.000
3.247,-150.500,-103.000,-121.500,-227.000
3.248,-153.000,-106.000,-125.000,-231.500
3.249,-155.500,-109.500,-128.500,-236.500
3.250,-157.500,-112.500,-132.000,-241.000
3.251,-158.500,-114.500,-134.000,-244.500
3.252,-158.000,-115.000,-134.500,-246.000
3.253,-156.500,-115.000,-133.500,-246.500
3.254,-155.000,-114.000,-132.000,-246.000
3.255,-154.000,-113.000,-131.000,-245.500
3.256,-154.000,-113.000,-129.500,-245.000
3.257,-154.500,-114.000,-129.000,-244.500
3.258,-156.000,-114.500,-128.500,-243.500
3.259,-157.500,-115.500,-127.500,-242.500
3.260,-159.000,-116.000,-126.500,-240.500
3.261,-159.500,-115.500,-125.000,-239.000
3.262,-159.500,-115.000,-123.500,-237.000
3.263,-159.500,-114.500,-122.000,-236.000
3.264,-160.000,-115.000,-121.500,-236.000
3.265,-160.500,-115.000,-122.000,-237.000
3.266,-161.500,-116.000,-122.500,-238.500
3.267,-162.000,-116.500,-123.000,-240.500
3.268,-162.500,-118.000,-124.500,-243.500
3.269,-163.500,-119.000,-125.500,-246.500
3.270,-163.500,-120.000,-127.000,-249.000
3.271,-163.500,-120.500,-127.500,-250.500
3.272,-162.500,-120.500,-127.000,-251.000
3.273,-161.500,-120.500,-126.000,-251.000
3.274,-161.000,-120.000,-125.000,-250.500
3.275,-160.000,-119.500,-123.500,-249.000
3.276,-159.000,-118.500,-121.500,-247.000
3.277,-157.500,-116.000,-118.000,-243.000
3.278,-155.000,-113.500,-114.000,-238.000
3.279,-153.000,-110.500,-109.500,-233.500
3.280,-152.000,-108.500,-106.500,-229.000
3.281,-151.000,-107.000,-103.500,-226.000
3.282,-150.500,-106.000,-102.000,-224.000
3.283,-150.500,-105.500,-100.500,-222.500
3.284,-150.000,-105.000,-99.500,-222.000
3.285,-149.500,-104.500,-99.500,-222.000
3.286,-149.500,-105.000,-99.500,-222.500
3.287,-149.500,-105.500,-100.500,-224.500
3.288,-150.000,-107.000,-102.500,-227.000
3.289,-151.000,-109.000,-104.500,-230.500
3.290,-152.000,-110.500,-107.000,-234.500
3.291,-152.500,-112.500,-109.000,-237.500
3.292,-153.000,-113.500,-110.000,-240.500
3.293,-153.500,-114.500,-111.000,-242.500
3.294,-154.000,-115.000,-111.500,-243.500
3.295,-154.000,-115.500,-111.000,-244.000
3.296,-154.000,-116.000,-110.000,-243.000
3.297,-154.500,-115.500,-108.000,-241.500
3.298,-154.500,-115.000,-105.500,-238.500
3.299,-154.500,-114.000,-102.500,-235.500
3.300,-154.000,-112.500,-99.500,-231.500
3.301,-153.500,-110.500,-96.000,-228.000
3.302,-152.500,-108.500,-93.500,-224.500
3.303,-151.500,-107.000,-91.000,-222.000
3.304,-151.000,-106.500,-89.500,-220.500
3.305,-151.000,-106.000,-89.000,-220.500
3.306,-151.500,-107.000,-89.500,-221.500
3.307,-152.500,-108.500,-90.500,-224.000
3.308,-153.500,-110.000,-92.500,-227.000
3.309,-154.000,-112.000,-94.500,-231.000
3.310,-154.500,-114.000,-96.500,-234.500
3.311,-155.000,-115.000,-98.000,-237.500
3.312,-155.000,-116.000,-99.500,-240.000
3.313,-155.500,-117.000,-100.000,-241.500
3.314,-155.500,-117.500,-100.000,-242.500
3.315,-156.000,-118.500,-99.500,-243.000
3.316,-157.000,-119.000,-99.000,-242.500
3.317,-157.500,-119.000,-97.500,-241.000
3.318,-158.000,-119.000,-96.000,-239.000
3.319,-159.000,-118.500,-94.000,-236.500
3.320,-159.500,-118.000,-92.000,-234.000
3.321,-161.000,-118.000,-90.500,-232.000
3.322,-162.500,-119.000,-90.000,-231.500
3.323,-164.500,-120.000,-90.500,-231.500
3.324,-166.000,-121.500,-91.500,-232.500
3.325,-168.000,-123.000,-92.500,-234.500
3.326,-169.500,-124.500,-94.000,-236.000
3.327,-171.000,-126.000,-95.500,-238.500
3.328,-173.000,-128.500,-98.000,-242.000
