'Elapsed time','AECG1','AECG2','AECG3','AECG4'
'seconds','uV','uV','uV','uV'
0.000,49.500,-95.000,89.500,44.500
0.001,45.500,-27.000,90.500,65.000
0.002,40.000,40.500,91.000,77.500
0.003,36.000,94.000,91.000,89.500
0.004,32.500,133.000,92.500,100.000
0.005,31.000,165.500,96.500,102.000
0.006,28.500,195.500,101.000,93.000
0.007,25.000,220.500,105.500,79.500
0.008,23.000,226.000,111.500,67.500
0.009,23.000,203.000,119.000,54.500
0.010,24.500,157.000,127.000,29.500
0.011,26.500,104.500,135.000,-10.500
0.012,27.500,58.500,141.000,-52.000
0.013,27.000,25.000,146.000,-72.500
0.014,26.000,-0.500,151.500,-61.500
0.015,27.000,-26.000,158.500,-37.000
0.016,31.500,-49.000,167.000,-35.000
0.017,38.500,-64.500,175.000,-75.500
0.018,45.000,-67.500,181.500,-148.500
0.019,50.000,-61.500,186.500,-221.000
0.020,54.000,-57.500,190.500,-264.500
0.021,57.000,-67.000,193.500,-280.500
0.022,61.000,-91.500,196.500,-286.500
0.023,66.000,-127.000,196.500,-299.000
0.024,70.500,-166.000,193.000,-314.000
0.025,72.500,-206.000,186.000,-313.000
0.026,74.000,-253.000,177.000,-286.000
0.027,75.000,-312.000,167.500,-238.000
0.028,78.500,-372.500,159.500,-185.000
0.029,81.500,-410.500,152.000,-134.500
0.030,83.000,-405.500,146.000,-86.500
0.031,80.500,-359.000,140.000,-35.000
0.032,75.500,-306.000,134.500,18.000
0.033,74.000,-286.000,131.000,63.500
0.034,77.000,-312.000,130.000,92.000
0.035,82.500,-351.500,131.000,104.000
0.036,84.000,-347.000,132.000,103.000
0.037,76.500,-268.500,131.500,98.000
0.038,62.000,-137.000,127.500,91.000
0.039,47.000,-11.000,121.500,80.000
0.040,39.500,60.000,113.000,65.500
0.041,40.000,70.500,104.500,51.000
0.042,45.000,54.500,94.500,40.000
0.043,49.000,49.500,85.000,34.000
0.044,50.000,66.000,76.000,31.500
0.045,49.500,88.000,70.500,30.000
0.046,48.500,97.500,69.000,27.500
0.047,49.000,89.000,73.500,26.000
0.048,51.500,74.500,80.000,26.500
0.049,56.500,67.000,87.000,29.500
0.050,64.000,71.500,91.500,34.000
0.051,72.000,84.500,93.000,37.500
0.052,77.500,102.500,96.000,38.500
0.053,79.500,128.000,102.500,37.500
0.054,75.500,161.500,114.500,39.000
0.055,69.500,200.000,129.500,43.500
0.056,64.000,237.000,143.000,50.500
0.057,60.000,269.000,153.500,57.000
0.058,57.500,297.000,161.000,61.000
0.059,55.000,323.000,165.500,67.000
0.060,51.000,349.500,167.500,81.500
0.061,46.500,372.000,167.500,109.000
0.062,44.000,382.500,164.500,146.500
0.063,42.000,374.000,156.500,185.500
0.064,40.000,345.500,145.500,214.000
0.065,36.500,306.000,132.500,230.500
0.066,31.000,264.000,120.000,236.500
0.067,25.500,227.500,108.000,238.000
0.068,21.000,196.500,97.500,237.500
0.069,19.000,162.000,88.000,231.500
0.070,16.500,121.000,80.500,212.500
0.071,14.000,79.000,74.500,177.500
0.072,8.500,49.000,71.500,129.000
0.073,2.000,41.500,72.000,71.500
0.074,-3.500,58.500,75.000,15.000
0.075,-6.500,87.000,80.500,-36.500
0.076,-9.500,115.500,89.000,-82.500
0.077,-14.500,137.000,100.500,-124.500
0.078,-24.000,153.500,115.500,-160.500
0.079,-36.000,170.000,131.000,-188.500
0.080,-47.000,186.500,146.000,-205.000
0.081,-52.000,200.000,158.500,-211.000
0.082,-51.000,201.500,169.500,-211.500
0.083,-46.500,187.000,180.000,-211.500
0.084,-44.000,156.000,191.500,-211.500
0.085,-45.000,110.000,203.500,-209.000
0.086,-50.000,54.500,215.000,-204.000
0.087,-56.500,-3.500,222.500,-202.500
0.088,-63.500,-54.500,227.000,-212.500
0.089,-71.500,-92.500,230.500,-237.500
0.090,-83.000,-119.500,235.500,-268.000
0.091,-99.500,-137.000,243.000,-289.500
0.092,-120.500,-151.500,253.500,-291.000
0.093,-143.500,-164.500,264.000,-271.000
0.094,-168.500,-171.500,273.500,-236.500
0.095,-194.000,-172.000,281.500,-192.000
0.096,-219.000,-168.000,290.000,-134.500
0.097,-243.500,-165.500,299.500,-57.000
0.098,-266.500,-166.500,311.000,37.000
0.099,-288.500,-167.500,322.000,136.500
0.100,-312.000,-160.000,332.000,225.500
0.101,-336.500,-136.000,339.000,296.500
0.102,-362.000,-97.000,343.500,350.000
0.103,-384.500,-49.000,345.500,389.500
0.104,-403.500,0.500,345.500,410.500
0.105,-416.000,49.000,344.500,404.500
0.106,-422.500,99.000,339.000,363.000
0.107,-422.000,155.500,329.500,289.000
0.108,-416.000,220.500,315.000,191.500
0.109,-406.000,286.500,297.500,80.000
0.110,-394.000,343.500,279.000,-41.000
0.111,-379.500,382.500,261.500,-162.000
0.112,-363.000,398.500,243.500,-266.500
0.113,-342.500,397.000,223.000,-336.500
0.114,-318.000,382.500,197.500,-361.500
0.115,-292.500,359.500,167.000,-352.500
0.116,-270.500,329.000,134.500,-331.500
0.117,-254.500,289.000,102.500,-316.500
0.118,-248.500,242.500,76.000,-310.000
0.119,-248.000,194.000,55.500,-299.500
0.120,-249.500,149.500,38.500,-272.000
0.121,-252.000,108.000,21.500,-226.500
0.122,-253.000,69.000,5.000,-175.500
0.123,-256.500,28.500,-7.000,-135.500
0.124,-263.000,-13.500,-10.500,-111.500
0.125,-272.000,-52.000,-1.500,-99.000
0.126,-279.500,-82.000,17.000,-89.000
0.127,-282.500,-104.500,38.500,-76.500
0.128,-278.500,-119.500,53.500,-65.000
0.129,-271.000,-128.000,59.000,-57.500
0.130,-262.500,-131.000,57.500,-60.500
0.131,-255.500,-129.500,52.000,-72.500
0.132,-248.000,-125.500,42.500,-89.500
0.133,-237.500,-124.500,26.000,-104.500
0.134,-222.000,-128.000,-1.000,-112.000
0.135,-205.000,-131.000,-35.500,-109.000
0.136,-191.500,-124.000,-71.500,-96.500
0.137,-186.000,-100.000,-104.000,-78.500
0.138,-185.500,-61.000,-131.000,-56.500
0.139,-184.000,-17.000,-154.500,-30.500
0.140,-176.500,20.500,-175.500,4.000
0.141,-160.500,45.000,-191.000,51.000
0.142,-140.500,56.500,-196.000,109.500
0.143,-120.000,57.500,-188.500,170.500
0.144,-101.000,52.500,-172.500,226.000
0.145,-82.000,43.500,-155.500,270.500
0.146,-60.500,30.000,-140.000,304.000
0.147,-36.000,15.000,-126.500,331.000
0.148,-10.000,2.000,-112.500,350.000
0.149,14.000,-2.000,-97.000,360.500
0.150,36.000,4.000,-81.500,359.000
0.151,56.000,20.500,-66.500,345.000
0.152,77.500,43.500,-53.500,322.500
0.153,102.500,69.000,-41.000,294.000
0.154,129.000,95.500,-33.500,262.500
0.155,153.500,124.000,-32.500,227.500
0.156,172.500,154.500,-39.000,191.500
0.157,184.000,184.000,-45.500,158.000
0.158,190.000,212.000,-44.500,131.500
0.159,191.500,238.500,-35.000,109.000
0.160,190.500,269.500,-24.500,81.000
0.161,188.000,311.000,-26.500,43.500
0.162,183.500,359.500,-47.000,-0.500
0.163,178.000,405.500,-80.000,-39.500
0.164,172.000,436.000,-109.500,-63.500
0.165,166.500,443.500,-125.500,-72.500
0.166,161.500,429.000,-127.500,-74.500
0.167,155.500,404.000,-125.500,-75.500
0.168,148.500,380.000,-126.000,-75.000
0.169,143.000,362.000,-131.000,-65.000
0.170,140.500,347.000,-133.000,-40.500
0.171,142.000,332.500,-129.500,-6.000
0.172,146.500,318.500,-120.500,26.500
0.173,150.500,306.500,-111.000,47.500
0.174,152.000,298.000,-104.500,54.000
0.175,151.000,293.000,-100.000,51.500
0.176,148.500,289.500,-95.000,47.500
0.177,146.500,287.500,-87.000,45.000
0.178,145.500,288.000,-79.500,39.000
0.179,143.000,293.500,-72.500,23.500
0.180,136.500,304.500,-69.000,-4.000
0.181,124.500,322.000,-66.000,-38.500
0.182,108.000,343.000,-62.500,-70.000
0.183,92.500,365.000,-57.500,-92.500
0.184,80.000,387.500,-50.500,-106.500
0.185,70.500,409.000,-44.000,-115.500
0.186,62.500,430.000,-37.500,-122.000
0.187,56.000,449.000,-34.000,-122.500
0.188,54.000,465.000,-30.500,-108.000
0.189,61.500,477.500,-27.500,-73.500
0.190,82.000,486.000,-25.000,-21.000
0.191,114.000,495.000,-21.500,37.000
0.192,150.000,504.000,-19.500,90.000
0.193,185.500,510.500,-19.500,135.000
0.194,216.500,511.500,-21.500,178.500
0.195,245.500,506.000,-25.000,223.500
0.196,276.000,498.500,-27.500,267.500
0.197,308.500,495.000,-27.000,301.500
0.198,342.500,500.500,-21.500,319.000
0.199,371.500,513.000,-9.000,321.000
0.200,390.000,523.500,11.000,310.000
0.201,396.000,525.500,39.000,289.500
0.202,392.000,519.000,74.000,260.500
0.203,378.000,506.000,115.000,228.000
0.204,355.500,490.500,160.500,206.000
0.205,323.500,472.500,210.500,202.000
0.206,279.000,451.000,262.500,214.000
0.207,220.500,428.500,316.500,228.000
0.208,148.000,408.500,367.500,236.000
0.209,65.000,395.500,415.000,247.000
0.210,-30.500,389.000,458.000,280.500
0.211,-137.500,382.000,496.500,338.000
0.212,-257.000,363.000,531.000,393.000
0.213,-388.000,324.500,561.000,402.000
0.214,-528.000,264.500,585.000,348.500
0.215,-673.000,187.500,600.500,259.500
0.216,-822.000,100.000,605.500,192.000
0.217,-972.500,6.000,598.500,178.500
0.218,-1121.000,-97.500,577.500,198.500
0.219,-1261.500,-221.500,541.000,192.500
0.220,-1385.500,-373.000,485.500,109.000
0.221,-1481.000,-558.500,406.000,-59.500
0.222,-1540.000,-779.000,298.500,-280.500
0.223,-1556.000,-1038.000,158.500,-519.000
0.224,-1527.500,-1341.000,-14.500,-766.500
0.225,-1452.000,-1692.500,-222.000,-1038.000
0.226,-1327.500,-2090.000,-464.000,-1346.000
0.227,-1153.000,-2524.000,-741.500,-1683.000
0.228,-932.000,-2984.000,-1051.000,-2030.000
0.229,-674.500,-3464.500,-1385.500,-2368.500
0.230,-397.500,-3961.000,-1732.000,-2692.500
0.231,-117.500,-4453.500,-2075.000,-2999.000
0.232,153.000,-4907.500,-2396.500,-3276.500
0.233,405.500,-5277.000,-2677.500,-3504.500
0.234,627.000,-5532.500,-2901.500,-3664.500
0.235,800.500,-5670.500,-3053.000,-3745.000
0.236,905.000,-5711.000,-3121.000,-3749.000
0.237,930.500,-5669.000,-3103.000,-3681.500
0.238,879.000,-5541.000,-3003.000,-3549.500
0.239,767.500,-5307.500,-2833.500,-3360.000
0.240,615.500,-4959.500,-2609.500,-3124.000
0.241,439.000,-4514.500,-2345.500,-2861.000
0.242,247.500,-4011.500,-2054.000,-2591.500
0.243,48.500,-3492.500,-1750.000,-2333.500
0.244,-150.000,-2985.500,-1448.000,-2094.000
0.245,-333.500,-2503.000,-1161.000,-1868.500
0.246,-491.500,-2049.500,-900.500,-1652.500
0.247,-617.500,-1634.500,-673.000,-1443.500
0.248,-708.500,-1268.500,-479.500,-1243.500
0.249,-764.500,-959.000,-318.500,-1058.500
0.250,-789.000,-703.000,-187.000,-886.500
0.251,-785.500,-493.000,-82.000,-719.000
0.252,-758.500,-319.500,-1.500,-545.500
0.253,-717.000,-178.500,56.500,-360.500
0.254,-667.500,-67.500,95.000,-173.500
0.255,-615.000,19.000,119.000,2.000
0.256,-561.500,87.500,132.500,157.000
0.257,-510.500,146.500,145.000,293.000
0.258,-461.500,200.000,158.000,417.000
0.259,-417.500,248.000,173.000,530.500
0.260,-377.000,289.000,186.500,624.500
0.261,-339.500,321.000,192.000,680.000
0.262,-303.500,342.000,187.500,687.500
0.263,-266.000,354.500,174.500,649.500
0.264,-225.500,361.500,158.000,582.500
0.265,-183.000,364.500,142.000,505.500
0.266,-141.500,365.000,129.500,426.000
0.267,-103.000,364.500,117.000,343.500
0.268,-73.500,367.500,105.000,249.500
0.269,-52.500,377.500,91.500,145.500
0.270,-41.000,396.000,77.500,41.000
0.271,-37.500,418.500,65.500,-47.000
0.272,-38.500,435.500,55.500,-104.500
0.273,-41.500,442.000,49.000,-130.500
0.274,-45.000,435.000,46.500,-133.500
0.275,-47.500,420.500,47.500,-125.500
0.276,-49.500,404.500,52.500,-110.000
0.277,-50.000,389.000,59.500,-86.000
0.278,-47.500,372.000,65.500,-54.000
0.279,-42.500,349.000,69.000,-21.000
0.280,-36.000,319.500,70.000,-1.000
0.281,-28.500,288.000,69.500,0.000
0.282,-20.000,261.000,67.500,-14.000
0.283,-13.000,243.000,64.000,-32.000
0.284,-5.000,234.000,59.000,-44.500
0.285,2.000,230.000,54.500,-49.500
0.286,10.000,226.500,52.500,-50.500
0.287,18.500,225.000,55.500,-46.000
0.288,26.000,229.000,62.500,-30.500
0.289,33.500,244.500,70.500,4.500
0.290,39.000,269.000,77.000,57.500
0.291,40.500,295.000,80.500,119.500
0.292,39.000,314.500,80.500,174.500
0.293,32.500,323.500,80.000,217.000
0.294,24.500,327.000,81.500,250.500
0.295,13.500,331.000,85.500,280.500
0.296,-0.500,337.500,91.500,312.000
0.297,-18.000,344.000,97.000,342.000
0.298,-37.500,347.000,101.500,365.000
0.299,-59.000,345.000,104.500,377.000
0.300,-76.500,345.000,107.000,375.500
0.301,-89.500,350.500,111.500,361.500
0.302,-95.500,363.500,117.000,334.500
0.303,-95.500,377.500,124.500,301.000
0.304,-90.000,387.000,131.000,265.500
0.305,-80.000,389.500,137.000,230.500
0.306,-64.000,388.500,139.500,192.000
0.307,-40.500,386.500,136.500,145.000
0.308,-11.000,385.000,127.000,90.000
0.309,22.000,384.500,111.500,42.500
0.310,54.000,384.000,94.500,19.000
0.311,78.500,380.500,77.500,21.500
0.312,95.000,373.000,64.500,30.000
0.313,105.500,359.500,51.000,19.000
0.314,113.000,340.000,35.000,-18.000
0.315,117.500,318.000,16.000,-52.500
0.316,117.000,297.000,-1.500,-42.500
0.317,107.000,281.500,-14.000,32.000
0.318,89.000,271.500,-18.500,149.500
0.319,65.500,263.500,-15.000,261.500
0.320,42.500,254.500,-8.500,331.000
0.321,20.500,244.500,0.000,356.500
0.322,-3.000,235.500,10.500,363.000
0.323,-27.000,230.500,26.000,373.500
0.324,-49.500,231.500,45.500,385.500
0.325,-67.000,237.000,67.000,384.000
0.326,-82.000,244.000,85.000,356.500
0.327,-100.000,251.500,97.000,312.000
0.328,-125.000,258.500,103.000,267.500
0.329,-150.000,266.000,109.000,233.500
0.330,-163.500,272.500,116.000,207.000
0.331,-162.500,279.000,126.500,181.000
0.332,-157.000,286.500,136.000,156.500
0.333,-165.000,293.500,138.500,144.500
0.334,-190.500,299.000,131.500,155.000
0.335,-215.500,298.500,116.500,186.500
0.336,-210.000,287.500,100.000,226.000
0.337,-159.500,265.500,86.500,261.000
0.338,-81.000,236.500,78.500,284.000
0.339,-8.500,206.000,70.500,302.000
0.340,34.000,178.000,61.000,322.000
0.341,46.500,151.500,51.000,345.500
0.342,50.000,122.000,44.000,370.000
0.343,57.500,87.500,44.500,388.000
0.344,65.000,52.500,52.500,389.000
0.345,56.000,24.500,69.000,370.500
0.346,24.500,8.000,91.500,335.000
0.347,-18.500,5.000,120.500,289.000
0.348,-54.500,10.500,152.500,242.500
0.349,-74.000,18.000,182.000,200.500
0.350,-82.000,24.000,206.000,162.000
0.351,-90.000,34.500,225.000,122.000
0.352,-100.000,57.500,243.000,75.500
0.353,-106.500,96.000,261.000,20.500
0.354,-102.500,143.500,267.500,-39.500
0.355,-87.500,186.000,252.500,-99.000
0.356,-69.000,212.000,216.000,-155.000
0.357,-54.000,222.000,177.500,-209.000
0.358,-45.500,223.000,162.500,-263.000
0.359,-41.000,224.000,180.500,-317.000
0.360,-37.000,224.000,210.500,-364.000
0.361,-34.000,213.500,217.500,-397.000
0.362,-34.000,187.500,181.000,-409.500
0.363,-40.000,150.500,113.000,-400.500
0.364,-51.000,114.500,51.000,-374.500
0.365,-63.500,89.500,23.500,-333.500
0.366,-73.500,75.000,32.500,-280.500
0.367,-81.000,64.500,56.000,-216.000
0.368,-88.000,51.500,72.000,-141.000
0.369,-100.000,39.000,77.000,-58.500
0.370,-116.500,33.500,81.500,32.000
0.371,-134.500,40.000,97.500,128.000
0.372,-147.000,57.000,124.500,225.000
0.373,-150.500,78.500,152.000,316.000
0.374,-145.000,95.500,175.500,394.500
0.375,-137.000,107.500,194.000,461.500
0.376,-132.500,116.000,212.000,521.000
0.377,-132.500,120.500,229.000,579.500
0.378,-136.000,119.000,238.500,634.000
0.379,-138.000,107.000,235.500,672.500
0.380,-140.000,84.000,220.500,680.000
0.381,-142.000,52.000,200.000,647.000
0.382,-146.000,18.000,181.000,579.000
0.383,-151.000,-14.000,166.500,491.500
0.384,-156.000,-42.500,155.500,398.500
0.385,-160.500,-70.500,144.500,304.500
0.386,-165.500,-99.000,132.000,205.000
0.387,-170.500,-125.000,120.500,89.500
0.388,-174.500,-140.500,111.000,-40.000
0.389,-175.500,-138.000,104.500,-171.500
0.390,-175.500,-117.000,100.000,-286.500
0.391,-178.000,-86.000,99.000,-372.000
0.392,-188.000,-59.000,98.000,-430.000
0.393,-204.000,-47.500,98.000,-475.500
0.394,-223.500,-52.500,98.000,-518.000
0.395,-241.500,-66.500,99.500,-547.500
0.396,-257.000,-77.500,104.500,-544.000
0.397,-272.500,-81.000,114.000,-486.000
0.398,-286.500,-80.000,129.000,-375.500
0.399,-296.000,-85.000,145.500,-239.500
0.400,-294.500,-105.500,162.000,-107.500
0.401,-281.000,-141.000,177.500,7.000
0.402,-258.000,-183.500,193.500,108.000
0.403,-232.000,-227.000,211.000,205.000
0.404,-207.000,-268.500,227.500,294.500
0.405,-180.500,-314.500,241.000,365.000
0.406,-150.500,-369.000,247.000,409.500
0.407,-117.500,-429.000,246.000,434.000
0.408,-90.000,-482.500,242.000,448.000
0.409,-74.000,-519.500,238.500,451.000
0.410,-71.000,-538.000,236.000,434.500
0.411,-79.000,-543.500,233.500,393.500
0.412,-90.500,-545.500,230.500,348.000
0.413,-104.000,-546.500,228.000,328.000
0.414,-119.500,-544.500,230.000,344.000
0.415,-143.000,-539.000,236.500,370.500
0.416,-177.000,-535.000,245.500,358.000
0.417,-219.000,-539.500,251.500,274.000
0.418,-262.000,-555.000,252.000,132.500
0.419,-298.500,-577.000,246.500,-19.000
0.420,-326.500,-596.500,237.000,-140.000
0.421,-350.000,-610.500,225.500,-227.000
0.422,-376.500,-621.000,210.500,-305.000
0.423,-399.500,-633.000,191.500,-399.000
0.424,-409.500,-649.500,168.000,-506.500
0.425,-399.500,-666.000,144.500,-607.000
0.426,-374.500,-679.500,122.000,-683.500
0.427,-349.000,-688.000,101.500,-737.000
0.428,-330.000,-693.500,84.000,-779.500
0.429,-303.000,-696.500,66.500,-820.000
0.430,-246.500,-694.500,50.500,-858.000
0.431,-157.000,-686.500,36.500,-889.500
0.432,-66.500,-673.000,24.000,-917.000
0.433,-20.500,-658.500,12.000,-944.500
0.434,-37.000,-649.000,0.000,-967.500
0.435,-81.000,-644.500,-13.500,-969.500
0.436,-87.500,-642.000,-27.000,-936.000
0.437,-16.000,-639.000,-41.500,-863.000
0.438,112.500,-634.000,-57.500,-762.500
0.439,234.000,-630.500,-77.000,-652.000
0.440,292.000,-636.500,-98.000,-536.000
0.441,281.500,-656.500,-116.500,-409.000
0.442,239.500,-689.500,-126.000,-263.500
0.443,206.000,-727.500,-126.000,-104.500
0.444,188.500,-759.500,-117.000,50.500
0.445,167.500,-778.500,-102.500,180.000
0.446,125.000,-782.000,-84.000,272.000
0.447,63.500,-773.500,-60.000,329.500
0.448,1.000,-761.000,-32.000,364.500
0.449,-46.500,-746.500,-1.500,383.500
0.450,-80.500,-731.000,29.000,381.500
0.451,-109.500,-710.500,57.500,344.500
0.452,-137.500,-682.500,85.000,264.500
0.453,-161.000,-647.000,109.500,147.000
0.454,-171.500,-608.000,127.500,9.500
0.455,-171.000,-571.000,134.500,-125.000
0.456,-165.000,-540.000,129.500,-244.500
0.457,-158.500,-515.500,121.000,-354.000
0.458,-154.500,-495.000,118.000,-461.000
0.459,-148.000,-474.500,126.500,-564.000
0.460,-138.000,-449.500,137.500,-650.000
0.461,-126.000,-420.500,137.500,-698.500
0.462,-114.500,-391.000,117.500,-699.500
0.463,-102.000,-367.000,81.000,-660.500
0.464,-88.000,-352.000,45.500,-597.500
0.465,-70.500,-347.000,27.000,-528.000
0.466,-50.000,-348.000,32.000,-456.000
0.467,-29.000,-352.000,50.500,-382.000
0.468,-10.000,-358.500,66.500,-306.000
0.469,8.000,-370.500,66.000,-233.500
0.470,25.500,-389.000,46.000,-172.000
0.471,42.500,-409.000,13.000,-126.000
0.472,60.000,-424.000,-25.500,-94.000
0.473,74.500,-425.500,-61.500,-70.000
0.474,85.500,-414.500,-95.000,-50.500
0.475,92.000,-395.500,-126.500,-31.000
0.476,94.000,-377.000,-157.000,-8.000
0.477,91.000,-361.500,-183.500,20.500
0.478,82.500,-345.500,-202.000,52.000
0.479,70.000,-323.500,-207.500,81.000
0.480,52.500,-288.000,-200.000,100.000
0.481,34.000,-240.500,-181.500,104.000
0.482,18.000,-187.500,-156.500,94.500
0.483,8.000,-140.500,-128.000,71.500
0.484,31.000,-99.000,-111.500,35.000
0.485,9.000,-79.000,-76.500,-22.000
0.486,15.000,-60.000,-58.500,-96.500
0.487,25.500,-42.500,-49.000,-181.000
0.488,39.000,-25.000,-44.500,-261.000
0.489,55.000,-10.000,-42.500,-322.000
0.490,72.500,-1.000,-41.000,-358.000
0.491,89.500,1.500,-39.000,-374.000
0.492,100.500,-1.000,-37.500,-378.000
0.493,104.000,-8.500,-37.000,-379.000
0.494,98.000,-19.000,-35.500,-377.000
0.495,88.000,-32.500,-31.000,-367.500
0.496,76.000,-46.000,-23.000,-348.000
0.497,65.000,-55.000,-13.000,-321.000
0.498,52.000,-56.000,-5.500,-292.500
0.499,35.500,-50.500,-1.500,-273.000
0.500,11.000,-42.500,-1.000,-268.500
0.501,-19.500,-36.500,-0.500,-279.000
0.502,-51.500,-32.500,2.000,-299.000
0.503,-80.000,-30.500,8.000,-323.000
0.504,-106.000,-27.000,14.000,-343.500
0.505,-131.500,-24.000,19.000,-357.500
0.506,-160.000,-21.500,20.500,-360.000
0.507,-187.500,-20.500,18.500,-349.000
0.508,-207.000,-18.500,14.500,-321.500
0.509,-212.500,-15.000,10.500,-278.500
0.510,-204.000,-12.000,9.000,-225.000
0.511,-188.500,-13.000,10.000,-170.500
0.512,-171.500,-16.000,13.000,-126.500
0.513,-156.000,-17.000,16.500,-100.000
0.514,-141.000,-11.500,21.000,-90.000
0.515,-123.000,1.000,24.000,-91.000
0.516,-104.500,14.500,25.000,-95.500
0.517,-87.500,21.000,24.000,-97.000
0.518,-76.000,18.000,23.000,-98.000
0.519,-70.000,8.500,24.500,-99.000
0.520,-65.000,1.000,29.500,-98.000
0.521,-55.000,2.000,35.500,-92.000
0.522,-39.000,12.000,41.000,-77.000
0.523,-19.000,28.500,44.500,-52.000
0.524,0.500,45.000,48.500,-25.000
0.525,18.000,61.000,56.000,-1.000
0.526,35.500,77.000,69.000,15.000
0.527,58.500,94.000,82.000,25.000
0.528,86.000,109.000,93.000,30.000
0.529,109.000,116.000,100.500,30.500
0.530,117.500,111.500,107.500,24.000
0.531,110.000,99.000,117.000,9.000
0.532,99.000,86.000,128.000,-10.000
0.533,100.500,82.000,135.000,-26.500
0.534,119.500,87.500,131.000,-39.500
0.535,139.500,92.500,117.000,-51.500
0.536,134.500,84.500,99.000,-67.500
0.537,90.500,57.000,82.500,-91.000
0.538,17.000,17.000,71.500,-118.000
0.539,-57.000,-20.000,61.500,-145.500
0.540,-107.500,-44.000,51.500,-170.500
0.541,-130.500,-54.000,41.500,-194.000
0.542,-140.500,-57.000,34.500,-219.000
0.543,-155.000,-62.000,31.500,-246.000
0.544,-178.000,-71.000,34.000,-268.500
0.545,-203.000,-79.500,38.500,-281.000
0.546,-218.000,-82.500,45.500,-278.000
0.547,-220.500,-81.500,57.500,-257.000
0.548,-215.500,-77.500,74.500,-219.000
0.549,-208.500,-74.000,89.000,-166.500
0.550,-203.000,-69.000,96.500,-99.500
0.551,-194.000,-61.000,97.500,-20.000
0.552,-178.000,-50.000,97.000,67.500
0.553,-155.000,-39.000,97.000,156.500
0.554,-127.500,-31.500,91.500,238.500
0.555,-101.000,-29.000,69.000,308.000
0.556,-78.500,-27.500,29.000,363.500
0.557,-58.500,-25.000,-13.000,407.000
0.558,-38.500,-19.000,-32.000,440.000
0.559,-18.500,-11.500,-21.000,463.000
0.560,0.000,-5.500,3.000,470.000
0.561,14.000,-3.500,7.000,456.000
0.562,22.000,-5.000,-26.000,418.000
0.563,29.000,-8.000,-85.500,360.000
0.564,40.000,-7.000,-138.500,292.000
0.565,59.000,-0.500,-161.000,223.000
0.566,83.000,10.500,-153.000,158.500
0.567,107.500,24.500,-135.000,97.000
0.568,129.000,36.500,-121.000,35.000
0.569,145.500,46.000,-109.000,-30.500
0.570,161.500,52.500,-86.500,-95.500
0.571,178.000,57.500,-49.000,-152.000
0.572,192.000,61.500,-4.500,-191.500
0.573,201.000,64.000,30.000,-211.500
0.574,201.500,64.000,48.500,-214.000
0.575,195.000,60.000,55.000,-207.000
0.576,185.000,51.500,61.500,-195.000
0.577,172.500,39.000,70.500,-180.000
0.578,158.000,22.000,75.500,-162.500
0.579,141.500,6.000,71.000,-144.500
0.580,122.500,-6.000,57.500,-128.000
0.581,103.000,-12.000,44.500,-119.000
0.582,85.000,-14.000,37.500,-114.500
0.583,70.000,-14.000,39.500,-111.000
0.584,59.000,-13.500,43.500,-100.500
0.585,50.000,-10.500,45.000,-76.500
0.586,43.500,-3.000,42.000,-40.500
0.587,37.500,10.000,36.000,1.500
0.588,33.500,23.000,26.500,42.000
0.589,30.000,29.500,14.000,73.500
0.590,25.500,29.500,-2.000,94.000
0.591,19.500,27.500,-20.000,104.000
0.592,10.000,27.000,-37.000,103.000
0.593,-3.000,26.500,-52.500,91.000
0.594,-18.000,18.500,-66.500,66.500
0.595,-34.000,0.000,-80.000,32.500
0.596,-51.000,-22.000,-91.500,-2.000
0.597,-70.000,-37.500,-100.000,-29.000
0.598,-92.000,-40.500,-101.500,-42.000
0.599,-118.000,-37.000,-97.000,-43.500
0.600,-145.500,-40.000,-89.000,-37.000
0.601,-172.000,-55.000,-79.000,-26.000
0.602,-192.500,-76.000,-69.000,-10.000
0.603,-206.000,-91.000,-59.500,10.500
0.604,-212.500,-96.500,-50.000,32.500
0.605,-213.500,-100.000,-40.000,52.500
0.606,-210.000,-111.000,-30.000,67.500
0.607,-199.000,-129.000,-20.000,77.500
0.608,-178.000,-140.000,-10.000,81.500
0.609,-146.500,-130.500,-1.500,72.000
0.610,-106.500,-101.000,4.500,42.500
0.611,-63.500,-65.000,8.000,-3.500
0.612,-21.000,-39.500,8.000,-50.000
0.613,18.500,-28.500,6.500,-75.000
0.614,56.500,-25.500,8.500,-71.000
0.615,96.500,-18.500,13.500,-52.500
0.616,138.500,-4.500,22.000,-46.000
0.617,181.500,10.500,31.000,-66.000
0.618,221.000,18.000,37.000,-102.000
0.619,252.000,14.500,38.500,-126.000
0.620,274.500,4.500,35.500,-115.000
0.621,295.000,-4.000,30.500,-69.500
0.622,317.500,-6.000,26.000,-8.500
0.623,340.000,-2.000,20.500,48.500
0.624,357.500,4.000,11.000,92.500
0.625,362.500,11.500,-5.500,130.500
0.626,358.000,24.000,-29.000,167.000
0.627,352.500,42.500,-56.500,200.000
0.628,349.500,65.500,-83.000,221.000
0.629,342.500,81.500,-105.000,224.000
0.630,319.500,79.000,-122.500,210.500
0.631,277.500,56.500,-137.000,186.000
0.632,233.500,30.000,-150.000,156.000
0.633,212.000,18.500,-160.500,119.500
0.634,223.500,28.500,-167.000,72.500
0.635,248.500,45.500,-167.500,16.000
0.636,252.500,44.000,-163.000,-44.500
0.637,211.500,9.000,-156.500,-100.500
0.638,136.500,-49.000,-150.500,-145.000
0.639,63.500,-102.000,-146.000,-178.500
0.640,23.000,-128.000,-139.500,-211.000
0.641,18.000,-126.500,-126.500,-246.500
0.642,27.500,-111.000,-104.000,-282.000
0.643,28.500,-95.000,-74.500,-303.500
0.644,11.500,-77.500,-42.500,-295.000
0.645,-13.500,-50.000,-14.000,-252.000
0.646,-37.000,-9.500,11.500,-183.500
0.647,-59.500,36.500,36.000,-105.500
0.648,-86.000,75.000,60.000,-24.000
0.649,-119.500,100.000,80.500,62.000
0.650,-156.500,116.000,93.000,155.500
0.651,-192.500,130.000,96.500,252.500
0.652,-226.000,143.500,92.000,337.000
0.653,-257.000,153.000,82.000,394.500
0.654,-283.000,152.500,66.000,424.500
0.655,-293.000,145.500,40.500,435.000
0.656,-280.500,136.500,8.000,439.000
0.657,-244.000,130.500,-24.500,441.000
0.658,-193.000,127.000,-43.500,436.000
0.659,-136.000,123.000,-43.500,417.000
0.660,-74.000,117.500,-31.000,382.500
0.661,-1.500,113.000,-23.000,339.500
0.662,81.000,112.000,-27.500,295.000
0.663,164.500,114.000,-42.500,256.000
0.664,233.500,115.000,-53.500,218.000
0.665,277.000,112.500,-47.000,175.500
0.666,296.000,107.000,-25.000,125.500
0.667,299.000,100.000,3.000,69.500
0.668,294.500,92.000,24.000,12.000
0.669,284.000,80.500,32.500,-44.500
0.670,261.500,64.500,31.500,-109.500
0.671,223.000,42.000,25.000,-191.000
0.672,173.000,18.500,13.500,-289.500
0.673,121.000,-3.000,-2.000,-392.500
0.674,77.000,-20.000,-21.000,-481.500
0.675,46.000,-33.500,-40.500,-548.500
0.676,25.500,-45.000,-59.500,-600.500
0.677,9.500,-56.000,-79.500,-652.500
0.678,-4.000,-65.000,-104.000,-700.000
0.679,-13.500,-71.500,-132.500,-713.500
0.680,-13.000,-76.000,-162.000,-660.000
0.681,0.500,-78.500,-187.000,-524.500
0.682,25.500,-79.000,-202.500,-328.500
0.683,55.500,-76.500,-210.000,-116.000
0.684,84.000,-72.000,-211.500,83.000
0.685,106.500,-66.000,-208.500,268.000
0.686,123.000,-58.500,-199.000,453.500
0.687,137.500,-48.500,-179.500,647.000
0.688,149.500,-31.500,-147.000,830.000
0.689,157.500,-6.000,-106.000,972.500
0.690,160.500,28.500,-63.500,1051.500
0.691,157.000,65.500,-26.000,1071.500
0.692,149.500,100.000,3.000,1050.500
0.693,139.500,127.000,27.500,1009.500
0.694,129.500,148.500,52.000,952.500
0.695,118.000,168.000,77.500,866.500
0.696,105.000,187.500,98.000,739.000
0.697,90.000,205.500,104.500,572.500
0.698,74.000,217.500,89.500,386.500
0.699,57.000,220.500,54.000,210.500
0.700,42.500,214.000,8.000,61.000
0.701,29.500,203.500,-39.000,-67.000
0.702,18.000,192.500,-81.500,-187.000
0.703,7.000,183.000,-121.500,-302.000
0.704,-1.500,175.500,-164.500,-394.500
0.705,-9.000,165.500,-212.000,-446.500
0.706,-15.000,149.500,-258.500,-458.500
0.707,-20.000,128.000,-296.000,-454.500
0.708,-25.500,104.500,-314.500,-448.500
0.709,-33.500,84.000,-313.500,-419.000
0.710,-44.000,71.000,-296.000,-332.500
0.711,-57.000,66.000,-268.500,-182.500
0.712,-74.000,65.000,-233.500,-29.000
0.713,-92.500,61.500,-191.000,44.500
0.714,-114.000,53.500,-138.500,4.000
0.715,-136.000,41.000,-78.500,-85.500
0.716,-157.500,30.000,-17.000,-104.000
0.717,-175.500,23.500,34.500,23.500
0.718,-186.000,23.500,71.000,259.000
0.719,-186.000,26.500,92.000,485.000
0.720,-175.500,27.000,104.000,599.000
0.721,-154.500,20.000,110.500,596.500
0.722,-125.500,5.000,114.000,549.000
0.723,-91.000,-13.500,110.000,525.500
0.724,-53.500,-25.500,93.000,540.000
0.725,-13.500,-30.000,64.500,548.500
0.726,27.000,-32.500,27.000,515.000
0.727,67.500,-43.500,-10.500,446.000
0.728,106.000,-61.000,-43.500,376.500
0.729,139.500,-71.000,-72.500,328.500
0.730,166.000,-53.500,-101.000,297.500
0.731,187.000,-6.500,-130.000,262.000
0.732,205.000,43.500,-156.000,212.500
0.733,220.500,63.500,-172.000,162.000
0.734,232.500,41.500,-172.000,124.000
0.735,238.000,5.500,-157.500,98.000
0.736,232.000,4.500,-137.500,74.000
0.737,215.500,67.000,-119.000,44.000
0.738,193.000,177.500,-104.500,10.500
0.739,171.500,286.500,-92.000,-16.500
0.740,155.000,350.500,-78.500,-36.000
0.741,141.000,363.000,-62.500,-52.000
0.742,126.500,348.500,-48.500,-65.500
0.743,110.500,334.500,-40.000,-67.000
0.744,94.500,327.000,-37.000,-45.000
0.745,82.500,314.500,-37.500,4.500
0.746,75.500,288.500,-39.500,71.000
0.747,71.500,253.500,-41.500,138.500
0.748,67.500,224.000,-46.500,198.000
0.749,64.500,207.500,-56.500,252.500
0.750,62.500,196.500,-72.000,307.500
0.751,64.500,182.000,-92.500,362.500
0.752,67.000,162.500,-114.500,409.000
0.753,69.000,145.000,-133.500,436.000
0.754,67.000,137.500,-147.500,444.000
0.755,63.500,141.000,-153.500,442.000
0.756,60.500,147.500,-154.500,439.000
0.757,59.500,152.500,-153.500,440.500
0.758,57.500,156.500,-157.500,440.500
0.759,51.500,163.000,-165.000,432.500
0.760,41.000,174.500,-168.000,414.500
0.761,27.500,185.500,-161.500,391.000
0.762,13.500,190.500,-139.500,367.000
0.763,-3.000,183.500,-106.500,345.500
0.764,-21.000,166.500,-70.500,327.500
0.765,-44.500,140.500,-37.000,311.500
0.766,-70.500,107.500,-8.500,299.500
0.767,-99.500,72.000,19.500,290.000
0.768,-129.500,35.000,50.000,281.500
0.769,-160.500,-2.000,82.000,269.000
0.770,-195.000,-40.000,113.000,253.000
0.771,-231.000,-81.000,140.000,237.000
0.772,-264.500,-127.000,161.500,229.000
0.773,-293.500,-176.000,179.500,234.000
0.774,-316.500,-223.000,195.500,251.500
0.775,-334.000,-261.000,207.500,274.500
0.776,-348.500,-284.500,213.500,294.000
0.777,-360.000,-293.500,213.000,305.000
0.778,-367.000,-289.000,205.500,307.000
0.779,-368.000,-271.000,193.000,304.000
0.780,-362.000,-237.000,178.000,303.500
0.781,-349.000,-184.000,162.500,307.500
0.782,-330.000,-113.000,147.000,314.000
0.783,-304.500,-29.000,131.500,320.000
0.784,-274.500,60.500,115.500,322.500
0.785,-242.500,147.000,98.000,322.500
0.786,-210.500,226.000,80.000,322.000
0.787,-181.500,294.000,64.000,320.000
0.788,-155.000,350.500,51.000,317.000
0.789,-131.000,394.500,44.500,307.500
0.790,-110.500,424.000,41.000,292.500
0.791,-95.000,437.500,39.000,276.500
0.792,-86.500,435.000,34.500,263.000
0.793,-85.500,418.000,29.000,256.000
0.794,-90.000,389.000,24.500,256.000
0.795,-97.000,353.000,24.500,258.000
0.796,-105.000,316.000,27.000,260.500
0.797,-112.500,282.000,30.000,261.500
0.798,-122.500,253.000,27.500,260.500
0.799,-135.500,225.500,19.500,259.000
0.800,-151.000,196.000,6.500,258.500
0.801,-166.500,162.500,-5.500,258.500
0.802,-178.500,127.500,-16.000,258.500
0.803,-185.500,96.000,-22.000,258.500
0.804,-188.000,70.500,-24.500,258.500
0.805,-190.000,51.000,-21.500,259.500
0.806,-191.500,35.500,-15.000,262.500
0.807,-191.000,24.500,-5.000,268.000
0.808,-185.000,16.500,6.000,274.000
0.809,-169.500,14.500,15.500,281.000
0.810,-146.000,17.000,21.000,286.000
0.811,-119.000,22.000,24.000,289.000
0.812,-93.000,29.500,25.500,291.500
0.813,-70.500,38.500,30.000,292.500
0.814,-49.500,50.000,36.500,294.000
0.815,-27.000,65.000,44.500,296.000
0.816,-2.000,81.500,49.500,298.500
0.817,25.500,97.000,49.500,301.500
0.818,52.500,109.500,44.000,304.000
0.819,78.500,118.000,35.500,306.000
0.820,99.500,128.000,25.500,304.000
0.821,116.000,142.500,14.000,298.500
0.822,127.500,163.500,-1.000,289.500
0.823,135.500,185.500,-20.000,278.500
0.824,143.000,200.500,-38.500,270.500
0.825,152.000,205.000,-54.000,268.000
0.826,163.000,201.000,-63.500,273.000
0.827,175.000,196.500,-68.500,284.000
0.828,185.500,191.500,-72.500,296.500
0.829,191.500,177.000,-76.500,305.000
0.830,195.000,140.500,-79.000,309.000
0.831,196.500,82.000,-77.500,309.000
0.832,197.500,25.000,-74.000,309.000
0.833,198.000,-1.500,-72.500,311.500
0.834,199.000,13.500,-76.500,317.500
0.835,200.500,51.500,-86.000,327.500
0.836,203.000,75.500,-96.000,338.500
0.837,206.500,64.500,-104.500,348.500
0.838,208.000,30.000,-111.000,357.000
0.839,206.500,11.000,-119.000,363.500
0.840,200.000,38.500,-126.500,369.000
0.841,190.500,113.000,-129.000,374.500
0.842,178.500,209.000,-119.500,379.500
0.843,165.500,297.000,-96.500,385.000
0.844,150.500,365.500,-66.500,392.500
0.845,132.000,420.500,-36.500,401.000
0.846,112.500,469.500,-10.000,412.000
0.847,94.000,514.500,15.000,422.500
0.848,78.500,552.500,41.500,430.500
0.849,65.500,586.500,67.500,436.000
0.850,53.500,622.000,88.000,438.500
0.851,41.500,656.500,99.500,439.500
0.852,35.500,678.000,102.000,443.500
0.853,39.500,672.500,98.000,450.000
0.854,56.000,639.000,85.000,459.000
0.855,83.000,591.000,57.000,467.500
0.856,116.500,551.000,19.000,472.500
0.857,151.000,531.000,-16.500,475.500
0.858,186.000,527.000,-32.000,478.500
0.859,221.500,526.000,-21.000,483.500
0.860,257.000,522.000,5.000,493.500
0.861,290.000,516.500,23.000,508.000
0.862,318.500,516.000,17.000,525.000
0.863,339.500,520.000,-5.000,544.500
0.864,353.500,523.000,-21.000,565.000
0.865,358.000,520.500,-10.500,587.500
0.866,351.500,513.000,30.000,612.000
0.867,328.000,503.500,87.000,636.500
0.868,283.000,494.500,143.500,657.000
0.869,212.500,480.500,195.000,668.500
0.870,115.000,455.000,245.500,668.000
0.871,-9.000,415.500,302.000,655.500
0.872,-157.500,365.500,366.500,630.000
0.873,-328.000,309.000,433.000,591.000
0.874,-515.500,245.500,494.000,538.500
0.875,-714.000,164.500,545.000,469.000
0.876,-914.500,50.500,581.000,380.000
0.877,-1105.000,-109.000,597.000,267.500
0.878,-1270.000,-322.500,584.000,126.500
0.879,-1395.500,-591.000,528.500,-48.500
0.880,-1468.000,-914.500,420.000,-264.000
0.881,-1475.000,-1293.500,251.500,-525.500
0.882,-1405.500,-1733.000,18.500,-833.500
0.883,-1253.500,-2236.500,-278.500,-1183.000
0.884,-1020.000,-2802.500,-632.500,-1567.000
0.885,-717.000,-3416.000,-1033.500,-1972.000
0.886,-367.500,-4045.000,-1462.000,-2382.500
0.887,0.000,-4645.000,-1893.000,-2780.500
0.888,350.500,-5161.000,-2293.000,-3139.500
0.889,653.000,-5546.000,-2625.000,-3431.000
0.890,879.500,-5762.500,-2854.500,-3624.000
0.891,1009.500,-5795.500,-2958.500,-3696.500
0.892,1033.500,-5645.500,-2928.500,-3641.000
0.893,954.000,-5329.000,-2773.500,-3466.500
0.894,787.500,-4871.000,-2515.000,-3195.500
0.895,556.000,-4306.500,-2182.000,-2858.000
0.896,287.000,-3677.500,-1808.500,-2482.500
0.897,6.500,-3028.500,-1428.500,-2093.500
0.898,-259.000,-2402.000,-1068.500,-1711.000
0.899,-488.500,-1833.500,-747.000,-1350.000
0.900,-662.500,-1346.500,-475.000,-1025.500
0.901,-774.000,-949.000,-257.500,-744.000
0.902,-825.000,-636.000,-94.500,-510.500
0.903,-827.000,-396.000,17.000,-323.500
0.904,-793.000,-213.000,88.000,-177.500
0.905,-738.000,-72.500,133.000,-66.000
0.906,-671.000,39.000,165.000,19.500
0.907,-596.000,132.500,192.000,87.000
0.908,-518.500,216.000,218.500,142.500
0.909,-440.000,291.500,243.000,191.000
0.910,-366.500,355.500,266.000,233.000
0.911,-297.000,403.000,287.000,269.000
0.912,-231.000,430.500,304.000,297.500
0.913,-165.000,442.000,312.000,316.500
0.914,-95.000,442.500,305.000,323.000
0.915,-25.000,433.500,281.500,318.500
0.916,41.000,414.000,244.500,305.000
0.917,95.500,382.000,205.000,287.500
0.918,133.500,343.500,170.500,270.500
0.919,157.500,308.000,145.000,258.000
0.920,169.500,284.000,126.500,251.500
0.921,171.000,271.000,111.000,248.500
0.922,163.000,259.000,95.000,247.500
0.923,147.500,244.000,78.500,246.000
0.924,128.000,231.000,64.500,245.500
0.925,106.500,227.500,57.000,247.000
0.926,85.000,237.500,56.000,251.000
0.927,59.500,254.000,60.500,254.000
0.928,30.500,267.000,67.000,254.500
0.929,2.000,272.500,75.000,251.000
0.930,-19.000,278.000,83.000,243.000
0.931,-29.000,292.000,94.000,234.500
0.932,-34.000,310.000,107.000,229.000
0.933,-42.500,321.500,121.000,228.000
0.934,-58.500,317.500,133.000,230.500
0.935,-70.500,305.000,142.500,232.500
0.936,-65.000,304.000,148.000,235.500
0.937,-34.500,327.000,152.000,239.000
0.938,14.500,367.000,155.500,246.500
0.939,64.500,403.500,157.500,256.500
0.940,101.500,419.500,157.000,267.500
0.941,127.500,414.000,152.500,275.500
0.942,151.000,399.000,142.500,278.000
0.943,176.000,387.000,130.000,278.500
0.944,198.000,376.500,117.000,279.500
0.945,206.500,359.000,108.000,282.000
0.946,197.000,330.000,102.000,283.500
0.947,175.000,295.000,99.000,281.500
0.948,151.000,266.000,97.000,276.000
0.949,134.500,250.500,98.000,272.500
0.950,123.000,246.500,103.000,274.000
0.951,111.000,243.500,110.500,280.500
0.952,95.000,230.500,117.500,284.000
0.953,74.500,203.500,124.000,279.000
0.954,55.000,168.000,132.500,263.500
0.955,41.000,134.500,147.500,243.000
0.956,35.000,113.000,170.500,226.500
0.957,35.000,112.000,192.000,218.000
0.958,40.000,129.000,202.000,218.500
0.959,49.000,155.500,197.000,221.500
0.960,59.000,178.500,186.000,221.000
0.961,70.000,191.000,184.000,213.000
0.962,79.500,192.000,200.500,200.500
0.963,87.500,190.000,228.000,186.500
0.964,94.500,193.500,252.500,177.000
0.965,100.500,206.500,261.000,173.500
0.966,106.000,225.000,254.500,176.000
0.967,111.500,242.500,241.500,180.500
0.968,114.500,257.500,227.000,182.500
0.969,112.500,271.000,209.000,181.000
0.970,106.000,283.500,183.000,176.500
0.971,95.500,291.500,147.000,172.500
0.972,84.500,286.000,107.000,172.500
0.973,75.000,262.000,72.000,176.500
0.974,68.500,225.500,45.500,182.000
0.975,62.500,187.000,23.500,186.500
0.976,54.000,158.500,1.500,188.000
0.977,40.500,143.500,-16.500,189.000
0.978,23.000,140.500,-25.500,190.000
0.979,3.500,145.000,-19.500,190.000
0.980,-14.500,158.500,0.500,190.000
0.981,-29.000,183.000,26.000,187.500
0.982,-42.500,217.500,49.000,186.000
0.983,-59.000,254.000,66.500,185.000
0.984,-77.000,284.500,82.000,185.000
0.985,-96.000,302.500,100.500,184.000
0.986,-111.500,309.000,124.500,181.000
0.987,-124.000,312.000,150.000,175.000
0.988,-133.500,316.500,172.000,167.500
0.989,-143.500,324.000,186.500,161.000
0.990,-153.000,334.000,193.500,156.000
0.991,-156.000,340.000,195.500,150.500
0.992,-145.500,337.500,193.500,142.500
0.993,-120.500,323.000,187.500,132.500
0.994,-84.500,297.000,173.500,122.000
0.995,-42.500,264.000,148.500,112.500
0.996,3.000,233.500,117.000,104.500
0.997,53.500,213.000,87.000,96.000
0.998,108.000,202.500,66.000,87.000
0.999,162.500,198.000,57.500,77.500
1.000,207.000,188.500,59.500,69.000
1.001,236.000,168.500,66.500,61.000
1.002,249.500,138.000,76.000,54.500
1.003,254.000,106.000,90.500,47.500
1.004,254.000,81.000,112.500,40.500
1.005,248.500,69.000,143.000,34.500
1.006,236.500,67.000,180.000,31.500
1.007,216.500,70.000,215.000,34.000
1.008,193.000,69.000,242.500,41.000
1.009,171.500,60.500,262.000,51.500
1.010,151.000,44.000,273.500,61.500
1.011,129.000,23.000,281.000,70.000
1.012,98.000,0.000,284.500,79.000
1.013,59.500,-21.000,284.000,91.000
1.014,15.000,-39.500,278.000,107.000
1.015,-32.000,-54.000,267.500,124.000
1.016,-82.500,-61.500,256.500,134.500
1.017,-137.000,-63.500,248.500,135.500
1.018,-193.000,-61.500,246.000,127.000
1.019,-244.000,-60.000,246.000,115.000
1.020,-284.500,-64.500,244.500,103.000
1.021,-316.500,-75.500,241.000,94.000
1.022,-344.000,-92.500,236.000,83.000
1.023,-369.000,-113.000,233.500,71.000
1.024,-385.500,-133.500,234.000,56.500
1.025,-388.500,-153.500,236.000,43.500
1.026,-380.000,-173.500,236.500,32.000
1.027,-370.000,-193.500,233.500,24.000
1.028,-363.000,-213.000,229.000,14.500
1.029,-345.000,-232.500,225.500,2.000
1.030,-299.500,-251.500,223.000,-13.500
1.031,-225.500,-269.500,222.500,-30.000
1.032,-151.500,-288.000,221.000,-46.500
1.033,-119.000,-306.500,216.500,-62.000
1.034,-141.500,-324.500,209.000,-76.000
1.035,-187.000,-346.500,200.000,-88.000
1.036,-198.000,-372.500,190.000,-100.000
1.037,-139.500,-403.500,180.000,-110.000
1.038,-29.000,-438.000,169.500,-119.000
1.039,75.500,-472.500,158.000,-125.000
1.040,124.500,-505.000,146.000,-130.000
1.041,114.000,-536.500,133.500,-135.500
1.042,75.500,-569.500,124.000,-142.000
1.043,47.000,-604.000,117.500,-151.500
1.044,36.000,-641.000,116.500,-161.500
1.045,26.000,-678.000,118.000,-170.000
1.046,-1.000,-713.000,121.000,-174.500
1.047,-45.000,-745.000,124.500,-175.000
1.048,-90.000,-772.000,126.500,-175.500
1.049,-124.000,-793.000,128.000,-180.500
1.050,-147.000,-806.000,130.500,-193.000
1.051,-170.000,-811.000,133.000,-211.500
1.052,-198.500,-808.000,137.000,-232.000
1.053,-232.500,-800.500,140.500,-249.500
1.054,-263.000,-789.500,141.000,-263.500
1.055,-287.000,-777.500,135.000,-275.500
1.056,-304.000,-764.000,124.500,-288.500
1.057,-318.000,-749.000,112.000,-305.000
1.058,-329.000,-732.500,104.000,-324.000
1.059,-337.500,-716.000,100.000,-342.500
1.060,-340.000,-700.500,96.000,-357.000
1.061,-334.500,-687.500,86.000,-364.500
1.062,-321.000,-676.500,66.000,-367.500
1.063,-297.000,-664.500,41.000,-367.500
1.064,-264.500,-650.000,16.500,-366.500
1.065,-226.500,-632.500,-2.000,-365.500
1.066,-185.000,-615.500,-16.000,-365.500
1.067,-143.000,-601.500,-30.000,-364.500
1.068,-102.000,-594.000,-46.500,-359.000
1.069,-61.500,-594.500,-64.500,-349.000
1.070,-23.500,-599.000,-79.500,-334.000
1.071,11.000,-602.500,-87.500,-317.500
1.072,41.000,-600.000,-90.000,-303.000
1.073,65.000,-588.500,-88.000,-293.000
1.074,83.000,-569.000,-85.500,-289.500
1.075,97.500,-546.000,-81.500,-291.000
1.076,108.000,-525.500,-75.500,-293.000
1.077,115.000,-510.500,-65.500,-292.500
1.078,118.000,-501.000,-53.500,-288.000
1.079,116.500,-493.500,-42.000,-279.500
1.080,111.000,-483.500,-34.500,-270.500
1.081,103.000,-468.000,-29.500,-261.000
1.082,96.000,-448.000,-26.500,-252.500
1.083,91.000,-424.000,-24.000,-243.000
1.084,88.000,-399.000,-21.500,-231.500
1.085,86.500,-372.500,-20.500,-217.500
1.086,85.500,-344.000,-23.500,-202.500
1.087,84.000,-314.500,-30.000,-188.000
1.088,82.000,-286.500,-37.000,-175.500
1.089,81.500,-264.000,-44.000,-164.500
1.090,82.000,-250.500,-46.500,-154.500
1.091,81.500,-244.000,-47.000,-146.000
1.092,79.000,-242.500,-46.500,-140.500
1.093,72.500,-242.500,-44.500,-138.500
1.094,63.500,-242.000,-40.000,-141.000
1.095,54.000,-242.500,-30.000,-145.500
1.096,45.000,-247.500,-16.000,-149.500
1.097,51.500,-254.500,-6.500,-148.500
1.098,35.500,-269.500,10.500,-143.000
1.099,20.000,-282.500,23.500,-134.500
1.100,10.000,-287.500,30.000,-124.500
1.101,-1.000,-286.500,34.500,-116.500
1.102,-13.000,-279.500,36.500,-111.000
1.103,-24.000,-269.000,35.500,-107.500
1.104,-34.000,-252.000,30.500,-102.500
1.105,-43.500,-222.500,21.000,-95.000
1.106,-52.000,-180.000,9.000,-83.000
1.107,-62.000,-129.000,-4.500,-69.500
1.108,-74.500,-79.500,-18.000,-57.000
1.109,-88.000,-41.500,-31.000,-49.500
1.110,-103.000,-17.000,-43.500,-46.500
1.111,-118.000,0.500,-53.500,-47.500
1.112,-132.000,19.000,-62.000,-49.500
1.113,-144.500,41.500,-69.500,-49.500
1.114,-156.000,66.000,-75.500,-46.000
1.115,-166.500,89.000,-78.500,-41.500
1.116,-175.000,109.500,-76.000,-40.500
1.117,-178.500,127.500,-67.000,-42.500
1.118,-176.500,144.500,-54.000,-49.000
1.119,-165.500,157.500,-39.500,-56.000
1.120,-147.000,165.000,-26.000,-64.000
1.121,-122.000,166.500,-15.000,-74.000
1.122,-94.000,166.500,-5.000,-86.500
1.123,-63.500,165.500,5.000,-99.500
1.124,-31.000,162.000,12.000,-109.500
1.125,2.000,153.000,14.500,-113.000
1.126,36.000,137.500,9.000,-112.000
1.127,68.500,118.000,-3.500,-110.500
1.128,94.000,102.000,-20.500,-110.500
1.129,110.000,92.500,-40.000,-111.000
1.130,114.500,88.000,-62.000,-109.500
1.131,111.500,85.000,-87.000,-102.500
1.132,109.500,79.000,-113.000,-93.000
1.133,114.500,70.500,-137.500,-86.500
1.134,124.500,64.500,-153.500,-85.000
1.135,132.500,62.500,-158.000,-86.500
1.136,127.500,64.000,-150.000,-86.500
1.137,107.000,65.000,-132.500,-81.500
1.138,75.500,63.500,-113.000,-71.500
1.139,44.500,60.500,-93.000,-60.500
1.140,22.000,57.000,-72.500,-51.500
1.141,9.500,56.000,-46.000,-46.500
1.142,1.000,56.000,-12.000,-44.500
1.143,-8.000,52.500,25.500,-44.500
1.144,-18.000,44.000,59.000,-47.000
1.145,-25.000,27.500,82.000,-51.500
1.146,-25.500,8.500,92.500,-56.000
1.147,-21.000,-11.000,97.000,-59.500
1.148,-15.500,-28.500,100.500,-60.500
1.149,-11.500,-45.500,101.500,-60.000
1.150,-10.500,-66.500,97.500,-60.500
1.151,-13.000,-92.000,87.500,-63.500
1.152,-17.000,-119.000,74.000,-69.500
1.153,-25.000,-138.500,60.000,-79.000
1.154,-35.500,-145.500,46.000,-90.500
1.155,-49.000,-136.500,28.500,-104.000
1.156,-62.500,-117.500,4.000,-116.000
1.157,-75.500,-95.500,-21.500,-124.500
1.158,-87.000,-74.000,-39.500,-128.000
1.159,-98.000,-52.000,-43.500,-129.000
1.160,-111.500,-27.000,-36.500,-129.000
1.161,-127.000,5.000,-31.000,-130.000
1.162,-142.500,41.500,-35.000,-131.500
1.163,-152.500,77.500,-44.000,-131.500
1.164,-153.000,106.500,-46.500,-129.000
1.165,-142.500,124.500,-33.500,-124.500
1.166,-122.500,133.500,-3.500,-121.500
1.167,-99.500,136.500,34.000,-123.000
1.168,-76.000,132.000,69.000,-127.500
1.169,-55.500,117.500,97.000,-133.000
1.170,-36.500,88.000,121.500,-136.000
1.171,-18.000,45.000,142.500,-136.000
1.172,3.000,-8.000,159.500,-133.500
1.173,24.000,-61.000,167.000,-128.000
1.174,44.500,-109.000,163.000,-120.000
1.175,62.500,-150.000,149.500,-108.000
1.176,78.500,-182.500,129.000,-95.000
1.177,91.500,-206.500,103.000,-84.500
1.178,104.000,-218.000,75.000,-80.000
1.179,115.500,-213.000,44.500,-80.000
1.180,125.500,-191.500,14.000,-82.000
1.181,131.500,-155.000,-14.000,-82.500
1.182,131.500,-109.500,-36.500,-82.000
1.183,124.500,-60.500,-54.500,-81.500
1.184,111.500,-14.000,-67.000,-84.000
1.185,95.500,29.000,-75.500,-88.000
1.186,79.000,66.500,-77.000,-92.500
1.187,61.500,101.000,-69.500,-98.000
1.188,42.500,131.500,-51.000,-106.000
1.189,20.000,156.500,-24.000,-118.000
1.190,-4.000,171.500,8.500,-133.000
1.191,-25.000,171.500,40.000,-148.000
1.192,-38.500,153.500,68.500,-160.000
1.193,-43.500,120.000,94.500,-166.500
1.194,-42.000,76.000,120.500,-170.000
1.195,-35.000,29.500,146.500,-170.500
1.196,-21.000,-12.000,167.500,-169.500
1.197,1.500,-47.500,176.000,-165.000
1.198,35.500,-80.500,166.500,-157.000
1.199,75.500,-117.000,142.500,-147.000
1.200,112.500,-162.000,110.500,-136.500
1.201,140.500,-214.000,77.500,-129.000
1.202,157.000,-267.500,49.000,-126.000
1.203,166.000,-312.000,22.000,-126.000
1.204,173.500,-341.500,-3.500,-125.000
1.205,181.500,-353.500,-28.500,-121.500
1.206,188.000,-349.500,-49.000,-113.000
1.207,187.500,-332.000,-64.500,-102.500
1.208,176.500,-302.000,-73.500,-92.500
1.209,156.500,-261.500,-79.500,-85.000
1.210,131.500,-213.500,-84.000,-80.000
1.211,106.500,-165.000,-89.000,-76.000
1.212,85.000,-116.500,-92.500,-73.500
1.213,66.500,-70.000,-95.000,-71.500
1.214,50.000,-23.000,-96.000,-70.500
1.215,32.000,26.500,-95.000,-69.500
1.216,13.000,75.000,-92.000,-66.000
1.217,-6.000,117.000,-87.000,-61.000
1.218,-23.500,148.000,-80.500,-57.000
1.219,-37.000,167.500,-72.000,-59.000
1.220,-48.500,180.500,-64.500,-65.500
1.221,-59.000,192.000,-59.500,-76.000
1.222,-70.500,205.500,-59.500,-86.500
1.223,-81.500,219.000,-64.000,-93.000
1.224,-90.500,227.500,-73.500,-97.500
1.225,-94.000,229.000,-85.000,-100.500
1.226,-94.500,228.500,-97.000,-103.000
1.227,-94.000,234.000,-107.500,-104.500
1.228,-92.000,249.500,-112.500,-104.500
1.229,-85.500,267.000,-111.000,-105.500
1.230,-69.000,272.500,-99.000,-109.000
1.231,-43.500,261.000,-76.000,-114.500
1.232,-18.500,242.000,-44.500,-117.500
1.233,-6.000,234.000,-7.000,-114.500
1.234,-11.500,244.500,31.500,-102.500
1.235,-24.500,261.500,70.000,-87.500
1.236,-27.500,259.500,105.000,-74.500
1.237,-11.500,226.500,136.000,-67.000
1.238,17.000,169.500,161.500,-64.000
1.239,42.000,114.000,180.500,-61.500
1.240,49.000,76.000,195.500,-56.500
1.241,37.500,54.000,209.000,-50.000
1.242,19.500,30.000,225.500,-44.000
1.243,5.000,-4.500,241.500,-42.000
1.244,-2.000,-41.500,253.500,-44.500
1.245,-8.500,-67.000,255.500,-50.500
1.246,-16.500,-74.500,245.500,-57.500
1.247,-26.500,-72.000,225.000,-63.500
1.248,-31.500,-72.500,197.000,-65.500
1.249,-29.500,-79.500,165.000,-62.500
1.250,-21.000,-85.500,127.000,-55.000
1.251,-8.500,-82.500,85.000,-45.500
1.252,6.500,-73.500,40.000,-36.500
1.253,25.000,-67.000,-3.000,-31.500
1.254,47.000,-68.500,-39.500,-31.000
1.255,71.500,-70.500,-69.000,-31.500
1.256,94.500,-60.000,-92.000,-31.500
1.257,112.000,-30.000,-111.000,-30.500
1.258,125.000,13.000,-126.000,-29.000
1.259,135.000,55.000,-136.000,-31.000
1.260,142.000,84.500,-138.500,-39.000
1.261,145.500,97.500,-133.000,-52.500
1.262,143.000,99.000,-120.000,-69.000
1.263,133.500,93.000,-102.500,-83.000
1.264,118.000,85.000,-82.500,-92.000
1.265,100.000,76.000,-62.000,-95.500
1.266,81.500,71.000,-40.000,-96.000
1.267,65.500,72.000,-16.000,-94.500
1.268,50.500,81.500,9.500,-90.500
1.269,35.000,96.500,34.000,-82.500
1.270,18.000,112.500,55.500,-71.000
1.271,0.000,126.000,72.000,-57.500
1.272,-14.500,136.500,84.500,-46.000
1.273,-23.500,147.000,92.500,-37.000
1.274,-27.000,159.500,98.000,-29.500
1.275,-29.000,173.000,101.500,-21.000
1.276,-30.500,183.500,103.000,-11.500
1.277,-35.000,185.500,103.000,-4.000
1.278,-40.000,175.500,102.500,2.000
1.279,-43.500,158.000,99.500,6.000
1.280,-42.000,140.500,91.500,10.500
1.281,-37.000,129.500,78.500,17.000
1.282,-30.500,128.000,61.500,23.000
1.283,-24.500,132.500,44.500,24.500
1.284,-21.500,138.000,27.500,20.000
1.285,-23.000,143.500,11.500,11.500
1.286,-26.500,152.000,-5.500,3.000
1.287,-32.500,163.500,-24.000,-4.000
1.288,-39.000,178.000,-40.000,-10.000
1.289,-44.000,189.000,-49.500,-18.000
1.290,-45.000,190.500,-49.500,-28.500
1.291,-40.500,178.000,-42.500,-40.500
1.292,-30.000,155.000,-32.500,-50.000
1.293,-14.500,127.000,-21.000,-57.000
1.294,2.000,99.000,-8.500,-61.500
1.295,18.000,73.500,6.500,-65.000
1.296,31.500,50.500,23.000,-67.500
1.297,45.000,30.000,37.000,-70.000
1.298,59.500,13.500,45.500,-70.500
1.299,74.500,1.500,46.500,-69.500
1.300,87.000,-4.000,42.000,-65.000
1.301,95.500,-4.500,36.000,-57.000
1.302,97.500,-3.000,29.500,-47.000
1.303,94.500,0.500,21.000,-35.500
1.304,86.000,7.000,7.000,-26.000
1.305,73.500,21.500,-14.000,-20.000
1.306,57.000,44.500,-40.000,-18.000
1.307,37.000,71.500,-67.000,-18.000
1.308,14.500,96.000,-90.000,-16.500
1.309,-8.000,110.500,-105.500,-12.000
1.310,-27.000,112.500,-114.000,-6.500
1.311,-41.000,109.000,-117.000,-3.000
1.312,-50.000,107.500,-115.500,-3.500
1.313,-56.000,114.500,-107.000,-8.500
1.314,-59.000,129.000,-89.500,-14.500
1.315,-57.000,145.500,-61.500,-16.000
1.316,-48.500,158.500,-25.000,-10.500
1.317,-31.000,166.000,14.500,1.000
1.318,-8.000,165.000,51.500,15.000
1.319,15.500,158.000,84.500,26.000
1.320,32.000,149.500,112.500,29.500
1.321,39.000,142.000,138.500,25.000
1.322,35.500,141.000,161.500,16.000
1.323,27.000,146.000,179.500,6.500
1.324,18.500,154.500,187.000,1.000
1.325,9.000,162.000,183.500,0.000
1.326,-4.500,167.000,170.000,1.000
1.327,-25.500,169.500,152.000,3.000
1.328,-52.500,166.500,133.500,2.000
1.329,-75.000,152.500,116.000,-0.500
1.330,-81.000,121.000,96.500,-4.500
1.331,-69.500,76.500,74.500,-8.500
1.332,-54.000,35.500,51.000,-11.000
1.333,-50.500,16.000,33.500,-13.000
1.334,-66.000,24.000,26.000,-13.500
1.335,-85.500,44.500,30.000,-12.000
1.336,-84.500,54.500,40.000,-8.000
1.337,-51.500,43.500,49.500,0.000
1.338,3.000,25.500,52.000,10.000
1.339,53.500,26.000,49.500,19.500
1.340,80.500,60.500,45.500,26.000
1.341,85.500,122.000,43.500,27.500
1.342,83.000,189.000,43.500,27.500
1.343,86.500,246.500,44.500,27.500
1.344,94.500,296.000,44.500,30.500
1.345,97.500,345.500,42.500,34.500
1.346,89.000,395.500,41.000,36.000
1.347,73.500,433.500,42.500,32.500
1.348,61.000,440.500,46.500,27.000
1.349,57.500,412.500,52.000,24.500
1.350,60.500,355.500,56.500,28.500
1.351,61.000,284.000,60.500,38.500
1.352,57.500,204.000,65.500,47.500
1.353,52.000,119.000,71.500,50.500
1.354,51.500,30.500,77.000,44.500
1.355,56.000,-49.500,79.500,32.000
1.356,64.000,-108.000,76.000,21.000
1.357,69.500,-140.500,69.500,14.500
1.358,73.500,-151.000,65.000,12.000
1.359,76.000,-150.000,66.000,13.000
1.360,79.500,-141.000,70.500,14.000
1.361,85.500,-122.000,72.500,15.000
1.362,92.000,-88.000,67.500,15.500
1.363,98.000,-40.000,56.500,16.000
1.364,104.000,15.000,46.000,17.000
1.365,106.000,67.000,42.500,18.000
1.366,105.500,113.000,47.000,19.000
1.367,101.500,155.000,56.500,19.500
1.368,96.500,199.000,62.500,20.000
1.369,91.500,247.500,61.500,20.500
1.370,88.000,297.000,51.500,23.000
1.371,85.000,339.500,36.500,27.500
1.372,81.500,367.500,19.500,35.000
1.373,75.500,377.500,0.500,44.000
1.374,67.500,372.500,-19.500,52.500
1.375,57.500,359.000,-40.500,59.000
1.376,46.500,344.500,-61.000,64.000
1.377,33.500,334.000,-77.000,67.500
1.378,19.000,324.000,-84.000,71.500
1.379,3.000,308.500,-77.500,74.000
1.380,-11.000,283.000,-59.000,72.000
1.381,-21.500,247.500,-31.000,68.500
1.382,-28.500,208.500,0.000,65.000
1.383,-32.000,174.500,31.000,65.000
1.384,-36.000,150.000,60.500,70.500
1.385,-44.000,132.000,91.500,76.500
1.386,-54.500,115.500,124.500,80.000
1.387,-66.500,96.500,157.500,76.500
1.388,-79.000,77.000,187.000,67.500
1.389,-89.000,60.000,208.500,57.500
1.390,-97.000,43.500,220.500,50.500
1.391,-105.000,19.500,225.500,47.000
1.392,-114.500,-18.500,226.000,46.000
1.393,-125.500,-70.000,223.500,45.000
1.394,-137.500,-127.000,217.000,40.500
1.395,-148.500,-181.500,204.000,34.500
1.396,-160.000,-230.500,187.000,27.000
1.397,-169.500,-277.000,171.500,22.000
1.398,-178.000,-321.000,162.000,20.500
1.399,-187.000,-353.500,160.500,23.000
1.400,-196.000,-363.000,163.000,26.500
1.401,-203.500,-341.500,166.000,31.000
1.402,-210.500,-294.000,165.500,34.000
1.403,-216.500,-233.500,163.500,36.000
1.404,-222.000,-170.000,163.500,38.500
1.405,-227.000,-103.000,168.000,42.000
1.406,-230.500,-29.500,178.000,47.500
1.407,-232.500,51.500,189.000,54.500
1.408,-234.000,131.000,198.500,59.500
1.409,-236.500,199.000,204.000,62.000
1.410,-239.500,252.500,206.500,63.500
1.411,-246.500,294.000,206.000,64.000
1.412,-253.000,327.500,204.000,65.000
1.413,-258.500,351.500,200.500,66.500
1.414,-261.000,362.000,193.000,68.500
1.415,-261.000,361.500,183.000,67.000
1.416,-262.500,358.000,172.500,62.500
1.417,-269.000,359.500,163.000,53.500
1.418,-281.000,365.500,157.500,40.000
1.419,-293.000,365.000,155.500,24.000
1.420,-302.000,345.000,155.500,9.000
1.421,-304.000,303.500,158.500,0.000
1.422,-302.000,248.000,166.500,-1.500
1.423,-297.000,187.000,178.000,1.500
1.424,-291.000,121.000,191.500,5.500
1.425,-284.000,46.000,202.000,4.500
1.426,-277.000,-36.000,207.000,-3.000
1.427,-272.000,-115.000,205.500,-14.000
1.428,-269.000,-173.500,200.500,-24.000
1.429,-265.500,-203.500,194.000,-29.500
1.430,-254.500,-212.000,188.000,-29.500
1.431,-236.000,-213.000,181.000,-24.500
1.432,-212.500,-220.000,169.500,-16.500
1.433,-193.500,-232.500,152.500,-6.000
1.434,-184.000,-243.500,132.500,5.500
1.435,-180.000,-245.500,112.000,18.500
1.436,-171.000,-234.000,93.000,29.500
1.437,-150.000,-215.500,76.500,36.500
1.438,-120.500,-193.500,59.500,39.500
1.439,-92.500,-173.000,40.500,38.500
1.440,-75.000,-157.000,21.500,35.000
1.441,-67.500,-148.000,8.000,32.500
1.442,-63.500,-146.500,4.000,32.500
1.443,-55.500,-151.000,9.500,34.500
1.444,-42.500,-152.500,20.500,37.000
1.445,-29.000,-144.500,31.500,41.500
1.446,-17.000,-117.500,40.000,47.500
1.447,-8.500,-74.000,47.500,55.500
1.448,0.000,-18.500,56.000,64.000
1.449,10.000,40.000,64.000,70.000
1.450,20.000,96.500,68.500,70.500
1.451,29.000,153.000,67.000,65.500
1.452,36.500,216.000,61.500,58.500
1.453,45.000,287.000,53.500,54.000
1.454,55.500,363.000,42.000,55.500
1.455,68.500,433.500,25.000,62.500
1.456,82.000,487.500,1.000,70.500
1.457,96.000,520.500,-22.000,74.000
1.458,110.000,535.000,-37.000,70.500
1.459,125.500,539.500,-39.000,64.000
1.460,143.000,538.500,-33.500,59.000
1.461,162.500,529.000,-31.000,59.000
1.462,181.000,508.000,-40.000,63.500
1.463,197.500,470.500,-56.500,67.000
1.464,211.000,418.500,-69.500,67.500
1.465,220.500,361.500,-68.500,66.500
1.466,226.000,305.000,-52.500,67.000
1.467,228.500,254.000,-31.500,72.000
1.468,229.000,206.500,-13.000,81.500
1.469,229.000,157.500,0.500,90.000
1.470,227.500,107.500,10.500,95.000
1.471,223.000,63.500,20.000,98.000
1.472,216.000,33.500,29.000,103.000
1.473,205.500,22.000,35.000,114.000
1.474,195.500,30.000,36.000,127.500
1.475,187.500,51.000,32.500,141.500
1.476,181.500,85.000,26.500,151.500
1.477,175.500,135.000,20.500,157.500
1.478,167.000,203.000,13.500,162.000
1.479,157.500,286.500,6.500,167.000
1.480,150.000,369.500,0.500,172.500
1.481,147.000,433.500,-3.500,178.000
1.482,150.500,463.000,-5.000,183.000
1.483,156.000,456.000,-5.000,188.000
1.484,160.500,427.500,-4.000,193.500
1.485,161.500,390.500,-1.500,200.000
1.486,160.500,355.000,4.000,204.000
1.487,159.500,314.500,13.500,205.500
1.488,160.000,259.000,24.500,201.500
1.489,162.000,184.000,35.000,195.000
1.490,164.500,101.000,43.500,188.000
1.491,167.000,33.500,47.500,185.500
1.492,170.500,0.500,49.500,187.000
1.493,177.000,9.500,50.000,192.000
1.494,186.500,50.000,49.500,196.500
1.495,198.500,104.500,49.500,202.500
1.496,212.500,165.000,50.000,212.000
1.497,227.500,236.000,51.500,230.000
1.498,243.500,325.000,55.500,253.500
1.499,258.500,436.000,61.500,280.500
1.500,272.500,557.000,71.000,305.000
1.501,284.500,668.500,81.000,328.500
1.502,296.000,753.500,92.000,353.500
1.503,306.500,809.500,103.000,382.500
1.504,314.500,846.500,117.000,412.000
1.505,318.000,871.500,135.000,435.500
1.506,313.000,883.000,158.000,453.500
1.507,297.500,863.500,187.000,469.500
1.508,269.500,794.500,220.500,488.500
1.509,230.000,676.000,256.500,508.500
1.510,176.500,530.500,294.000,521.500
1.511,109.500,390.500,334.000,520.500
1.512,25.500,276.500,377.000,508.000
1.513,-76.500,186.000,421.000,491.000
1.514,-196.000,105.000,465.000,478.000
1.515,-331.500,26.500,506.000,461.000
1.516,-479.500,-35.500,541.000,427.500
1.517,-635.500,-63.500,568.500,365.000
1.518,-796.000,-52.000,587.000,277.500
1.519,-956.000,-24.500,595.000,175.000
1.520,-1110.000,-13.500,589.000,68.500
1.521,-1250.500,-46.500,564.500,-42.000
1.522,-1367.500,-132.500,515.000,-167.000
1.523,-1455.000,-268.500,437.500,-318.000
1.524,-1508.000,-456.500,328.500,-499.000
1.525,-1520.500,-711.500,186.000,-707.000
1.526,-1489.000,-1051.500,5.500,-939.000
1.527,-1404.500,-1485.000,-214.000,-1194.500
1.528,-1265.000,-1998.500,-474.500,-1475.500
1.529,-1072.500,-2563.000,-770.500,-1782.000
1.530,-837.000,-3146.500,-1091.500,-2106.500
1.531,-569.500,-3725.500,-1429.500,-2437.000
1.532,-283.000,-4284.000,-1775.500,-2757.500
1.533,11.000,-4804.500,-2120.500,-3056.000
1.534,298.000,-5260.500,-2452.500,-3320.500
1.535,556.500,-5615.500,-2750.500,-3539.500
1.536,766.000,-5836.500,-2990.500,-3702.500
1.537,909.000,-5911.500,-3151.500,-3799.500
1.538,981.000,-5851.500,-3221.500,-3821.500
1.539,988.500,-5683.000,-3201.500,-3765.000
1.540,938.000,-5426.500,-3100.500,-3632.000
1.541,837.000,-5090.500,-2930.000,-3433.000
1.542,691.000,-4680.000,-2702.500,-3181.500
1.543,506.000,-4212.000,-2430.500,-2893.500
1.544,297.500,-3721.500,-2130.500,-2585.000
1.545,81.500,-3245.000,-1818.500,-2270.000
1.546,-124.500,-2806.000,-1510.000,-1958.500
1.547,-308.000,-2407.000,-1218.500,-1659.000
1.548,-463.000,-2039.500,-952.500,-1377.500
1.549,-585.000,-1703.000,-718.000,-1119.500
1.550,-673.000,-1405.000,-518.000,-888.000
1.551,-727.500,-1155.000,-352.000,-685.500
1.552,-750.500,-948.500,-218.500,-514.500
1.553,-746.000,-773.500,-114.500,-373.000
1.554,-719.000,-617.000,-33.500,-258.500
1.555,-676.500,-473.500,28.500,-167.000
1.556,-624.000,-344.500,75.500,-94.000
1.557,-565.500,-232.000,111.000,-36.000
1.558,-507.000,-129.500,136.000,10.000
1.559,-450.000,-29.000,153.500,47.000
1.560,-396.000,74.000,166.500,77.500
1.561,-344.000,175.000,175.500,103.000
1.562,-291.500,270.500,181.000,125.500
1.563,-236.500,357.500,182.000,142.500
1.564,-178.500,435.500,176.500,154.500
1.565,-117.000,503.000,164.500,158.000
1.566,-54.000,554.500,146.000,154.500
1.567,8.000,588.500,124.500,145.000
1.568,64.000,611.500,102.000,132.000
1.569,111.000,635.000,81.000,119.500
1.570,147.000,660.500,61.000,109.000
1.571,173.000,680.000,42.500,101.000
1.572,192.500,676.500,27.000,96.500
1.573,207.000,644.000,15.000,95.500
1.574,217.500,592.500,6.000,96.500
1.575,223.000,541.000,0.500,99.500
1.576,223.500,500.500,-0.500,103.000
1.577,219.000,467.500,3.500,109.000
1.578,210.000,431.000,13.500,117.000
1.579,196.500,396.000,30.000,131.500
1.580,179.500,378.500,51.000,154.500
1.581,157.000,395.500,72.500,183.000
1.582,129.500,446.000,91.000,215.000
1.583,100.000,508.000,105.000,242.000
1.584,73.500,557.500,113.000,261.500
1.585,55.500,587.500,117.500,272.000
1.586,48.500,607.000,117.500,276.000
1.587,50.000,627.500,111.000,273.500
1.588,55.000,644.500,94.000,266.000
1.589,57.000,641.000,65.500,252.000
1.590,54.500,609.500,27.000,233.000
1.591,49.500,557.000,-15.500,211.500
1.592,45.000,505.000,-59.000,193.500
1.593,43.500,469.500,-102.000,183.000
1.594,43.500,450.000,-148.000,180.500
1.595,43.500,439.000,-197.500,183.000
1.596,41.500,432.500,-247.500,187.500
1.597,39.500,435.000,-290.000,189.000
1.598,39.000,454.500,-316.500,188.500
1.599,39.500,490.500,-321.000,187.500
1.600,40.500,529.500,-303.500,188.000
1.601,40.000,555.500,-269.000,191.000
1.602,39.000,560.000,-222.000,195.500
1.603,36.500,545.500,-165.000,200.000
1.604,35.500,518.500,-95.500,203.500
1.605,34.500,481.000,-14.500,206.500
1.606,32.000,432.000,74.000,207.500
1.607,28.500,364.500,160.000,207.500
1.608,24.500,281.000,233.000,205.000
1.609,21.500,188.500,286.500,202.000
1.610,21.500,101.500,319.000,202.000
1.611,23.000,27.500,337.000,206.000
1.612,23.500,-34.500,346.500,213.000
1.613,21.000,-91.500,349.500,221.000
1.614,17.000,-150.500,345.000,225.500
1.615,13.500,-208.000,329.000,225.500
1.616,11.000,-251.500,298.000,222.000
1.617,11.000,-268.500,252.500,217.500
1.618,11.500,-255.500,198.500,213.000
1.619,10.500,-218.500,143.500,207.500
1.620,8.500,-172.500,91.000,201.500
1.621,5.000,-129.000,40.500,196.500
1.622,3.000,-87.000,-7.000,193.000
1.623,2.000,-40.500,-50.500,192.500
1.624,3.500,18.500,-84.000,192.000
1.625,5.000,87.500,-104.000,187.000
1.626,8.000,156.500,-110.000,176.000
1.627,12.000,216.000,-111.500,160.000
1.628,20.000,269.000,-114.000,143.500
1.629,25.500,337.500,-117.000,132.500
1.630,25.500,440.000,-117.500,129.000
1.631,18.500,570.000,-112.000,129.500
1.632,8.500,689.500,-102.500,129.000
1.633,5.500,752.000,-100.000,123.000
1.634,11.000,743.000,-110.500,111.000
1.635,19.000,696.000,-130.500,96.000
1.636,16.500,666.500,-149.500,84.000
1.637,-1.500,686.000,-155.000,76.000
1.638,-31.000,733.000,-145.500,72.500
1.639,-60.000,752.000,-126.500,71.000
1.640,-79.000,701.500,-102.500,69.000
1.641,-87.000,582.500,-74.000,67.000
1.642,-92.000,438.500,-38.500,69.000
1.643,-100.500,309.000,4.500,77.500
1.644,-109.000,206.500,47.000,94.500
1.645,-111.000,117.500,79.500,116.000
1.646,-103.000,33.500,95.000,137.500
1.647,-87.500,-42.000,95.500,157.500
1.648,-70.500,-92.500,86.000,175.500
1.649,-54.500,-112.000,71.000,192.500
1.650,-38.500,-107.000,48.500,210.500
1.651,-20.500,-86.500,15.500,227.000
1.652,-1.000,-52.000,-28.500,239.000
1.653,16.000,3.500,-74.000,242.500
1.654,29.000,81.500,-107.000,238.000
1.655,35.500,170.500,-119.500,228.000
1.656,39.500,248.000,-112.500,218.000
1.657,41.500,294.500,-103.000,209.000
1.658,42.000,310.000,-107.500,202.000
1.659,39.500,304.500,-127.500,192.500
1.660,34.500,292.000,-146.000,179.500
1.661,29.000,272.500,-140.500,162.000
1.662,24.500,230.000,-99.500,144.500
1.663,20.500,145.500,-36.000,129.000
1.664,14.500,14.500,23.000,118.000
1.665,5.500,-143.500,60.500,112.500
1.666,-6.000,-296.000,77.000,110.500
1.667,-18.000,-425.500,89.000,110.000
1.668,-27.000,-544.000,108.000,109.500
1.669,-35.500,-677.500,132.000,108.000
1.670,-42.000,-836.500,148.000,107.000
1.671,-49.500,-988.500,146.500,106.000
1.672,-56.500,-1076.500,127.500,106.000
1.673,-62.000,-1058.000,101.000,107.500
1.674,-65.500,-935.500,73.500,111.000
1.675,-67.000,-753.500,45.500,117.000
1.676,-68.500,-554.000,13.000,124.000
1.677,-71.500,-351.500,-26.000,130.500
1.678,-77.000,-133.000,-66.000,135.000
1.679,-83.000,107.500,-102.000,137.500
1.680,-86.500,350.000,-130.000,138.500
1.681,-85.500,554.500,-152.500,141.000
1.682,-80.500,687.500,-174.500,143.000
1.683,-73.500,748.500,-197.500,145.500
1.684,-67.000,759.000,-220.500,145.500
1.685,-64.500,740.500,-236.000,142.500
1.686,-65.000,698.000,-239.000,137.000
1.687,-67.500,628.000,-230.000,129.000
1.688,-70.500,527.000,-214.000,117.000
1.689,-72.500,402.000,-200.500,103.000
1.690,-74.000,264.500,-188.500,87.500
1.691,-75.000,125.500,-178.500,73.500
1.692,-75.000,-10.000,-166.500,62.000
1.693,-75.500,-136.000,-153.000,54.500
1.694,-77.000,-247.500,-142.500,50.000
1.695,-80.000,-340.500,-137.500,46.500
1.696,-84.500,-417.500,-130.500,42.000
1.697,-90.500,-480.000,-109.000,36.500
1.698,-97.500,-525.500,-66.000,30.000
1.699,-105.000,-544.000,-6.000,25.500
1.700,-112.000,-525.500,59.500,24.000
1.701,-119.000,-472.500,120.000,25.500
1.702,-124.000,-401.000,174.500,29.000
1.703,-127.500,-332.500,228.000,30.500
1.704,-130.500,-274.000,282.500,29.000
1.705,-133.500,-225.000,329.000,24.000
1.706,-137.500,-176.500,354.500,18.500
1.707,-142.500,-130.000,347.500,15.000
1.708,-147.500,-99.500,307.000,15.000
1.709,-151.500,-101.500,242.000,15.000
1.710,-153.500,-140.500,163.500,11.000
1.711,-156.000,-207.000,80.000,1.000
1.712,-158.000,-286.000,-6.500,-11.500
1.713,-162.500,-366.500,-95.000,-23.500
1.714,-167.000,-449.500,-180.500,-31.000
1.715,-171.000,-540.500,-252.000,-37.500
1.716,-172.000,-635.500,-302.000,-47.000
1.717,-170.500,-727.000,-325.000,-60.500
1.718,-165.500,-804.000,-325.000,-74.000
1.719,-160.000,-861.500,-310.000,-84.000
1.720,-154.500,-898.500,-284.500,-87.500
1.721,-150.000,-917.500,-246.000,-91.000
1.722,-147.000,-918.500,-190.000,-99.500
1.723,-144.500,-907.500,-116.500,-114.500
1.724,-141.500,-890.000,-36.000,-132.500
1.725,-139.500,-868.000,35.500,-147.500
1.726,-136.500,-836.500,86.000,-156.500
1.727,-135.500,-791.500,112.500,-162.500
1.728,-135.500,-742.000,121.000,-170.500
1.729,-136.500,-718.500,116.500,-182.500
1.730,-139.500,-749.000,98.000,-196.500
1.731,-141.500,-832.000,62.500,-207.500
1.732,-142.000,-922.500,10.000,-215.000
1.733,-140.500,-965.000,-51.000,-219.000
1.734,-137.000,-939.500,-109.000,-222.500
1.735,-133.000,-888.000,-153.000,-225.500
1.736,-130.500,-880.500,-182.000,-228.000
1.737,-131.000,-960.500,-199.000,-230.000
1.738,-133.500,-1097.500,-208.000,-232.000
1.739,-136.500,-1214.500,-209.000,-236.000
1.740,-138.000,-1242.000,-201.000,-241.000
1.741,-135.500,-1173.000,-183.000,-246.500
1.742,-129.500,-1055.500,-160.500,-251.000
1.743,-120.500,-947.000,-139.500,-254.000
1.744,-112.000,-874.500,-126.000,-258.500
1.745,-104.500,-828.000,-120.500,-264.500
1.746,-97.500,-783.500,-119.500,-271.500
1.747,-91.000,-733.000,-119.500,-278.000
1.748,-84.000,-682.000,-119.500,-281.500
1.749,-76.000,-636.500,-125.000,-282.000
1.750,-69.500,-597.000,-140.500,-279.500
1.751,-64.500,-558.500,-168.500,-278.500
1.752,-61.500,-521.000,-202.500,-280.500
1.753,-59.000,-491.500,-228.500,-283.500
1.754,-56.000,-473.000,-234.000,-287.000
1.755,-52.500,-461.000,-216.000,-288.500
1.756,-47.500,-448.000,-182.500,-288.500
1.757,-41.000,-429.500,-153.500,-289.000
1.758,-32.500,-410.500,-143.000,-292.500
1.759,-23.000,-399.000,-155.000,-298.000
1.760,-13.000,-399.000,-175.000,-302.500
1.761,-4.500,-410.000,-184.000,-302.500
1.762,0.500,-432.500,-172.000,-298.000
1.763,1.500,-466.500,-140.500,-292.000
1.764,0.500,-515.500,-104.000,-287.000
1.765,-1.000,-578.500,-77.000,-282.000
1.766,-2.000,-651.000,-66.000,-275.500
1.767,-3.500,-725.000,-60.000,-266.000
1.768,-5.500,-793.000,-42.000,-254.500
1.769,-10.000,-853.000,-1.500,-244.500
1.770,-16.000,-906.500,60.500,-237.500
1.771,-21.500,-955.000,131.500,-231.500
1.772,-25.000,-997.500,195.500,-222.500
1.773,-26.000,-1023.500,245.500,-208.500
1.774,-24.000,-1023.000,285.500,-191.500
1.775,-19.500,-993.500,321.500,-175.500
1.776,-13.500,-948.500,353.500,-160.000
1.777,-5.500,-905.500,373.500,-144.500
1.778,3.000,-870.000,370.500,-127.500
1.779,13.000,-827.500,344.000,-111.000
1.780,23.500,-747.500,304.500,-97.000
1.781,34.500,-615.000,268.500,-89.000
1.782,45.000,-446.000,239.500,-85.500
1.783,54.000,-279.500,215.000,-84.500
1.784,61.500,-151.500,186.500,-84.000
1.785,68.500,-67.000,153.000,-84.000
1.786,75.000,-8.000,121.000,-85.000
1.787,81.000,42.000,90.500,-86.500
1.788,85.500,77.500,53.500,-86.000
1.789,87.500,77.500,-0.500,-82.000
1.790,87.000,33.500,-74.000,-75.000
1.791,84.500,-39.000,-156.000,-67.000
1.792,80.500,-104.000,-231.000,-62.000
1.793,81.000,-138.000,-294.500,-59.500
1.794,96.500,-137.500,-358.000,-57.000
1.795,66.500,-129.000,-399.000,-57.000
1.796,59.500,-101.500,-439.000,-55.000
1.797,51.500,-50.500,-449.000,-52.000
1.798,44.500,37.500,-416.000,-49.000
1.799,37.000,160.000,-347.000,-43.500
1.800,30.500,292.000,-263.000,-34.500
1.801,23.000,407.000,-182.500,-24.500
1.802,14.000,489.000,-107.500,-16.500
1.803,3.500,543.000,-29.500,-13.500
1.804,-6.000,582.500,55.500,-14.000
1.805,-13.000,611.500,138.000,-14.500
1.806,-15.000,624.500,201.500,-13.000
1.807,-14.500,609.000,240.500,-9.000
1.808,-12.000,559.500,265.500,-4.500
1.809,-11.000,483.500,289.000,-1.500
1.810,-11.500,398.000,316.500,1.000
1.811,-13.000,318.000,342.000,4.500
1.812,-14.500,251.500,360.500,10.500
1.813,-16.500,193.500,378.000,18.000
1.814,-19.500,137.500,403.500,23.500
1.815,-24.500,87.000,434.500,25.500
1.816,-31.000,55.000,455.500,25.500
1.817,-37.000,53.500,448.000,27.000
1.818,-42.000,80.500,409.000,32.000
1.819,-45.000,119.000,352.500,40.500
1.820,-46.500,151.500,292.500,49.500
1.821,-47.500,176.000,230.000,55.000
1.822,-49.000,199.000,153.000,54.000
1.823,-50.000,221.500,61.000,47.500
1.824,-50.000,227.000,-28.500,40.000
1.825,-47.000,200.000,-83.000,33.500
1.826,-42.500,141.000,-82.500,29.500
1.827,-36.500,69.500,-37.000,27.500
1.828,-32.000,-3.500,29.000,24.500
1.829,-30.000,-98.000,95.000,18.000
1.830,-31.000,-247.000,163.000,8.000
1.831,-35.500,-448.500,243.500,-3.000
1.832,-40.500,-642.500,336.000,-10.500
1.833,-44.500,-743.000,420.500,-14.000
1.834,-46.500,-718.000,473.000,-14.000
1.835,-46.500,-630.500,481.000,-13.500
1.836,-46.000,-594.500,455.500,-14.000
1.837,-46.500,-680.500,413.500,-15.000
1.838,-49.000,-850.000,367.500,-14.500
1.839,-51.500,-988.000,316.500,-11.500
1.840,-54.500,-999.000,252.000,-6.500
1.841,-56.000,-882.000,175.000,-3.500
1.842,-57.000,-712.500,94.000,-3.000
1.843,-58.500,-568.500,20.500,-4.000
1.844,-60.500,-467.500,-35.500,-3.500
1.845,-63.500,-372.500,-78.500,1.000
1.846,-67.000,-246.000,-118.000,10.000
1.847,-71.000,-89.500,-162.500,19.500
1.848,-74.000,67.000,-205.000,26.000
1.849,-75.500,201.500,-231.000,27.500
1.850,-76.500,317.000,-230.000,26.500
1.851,-76.000,430.500,-206.500,25.500
1.852,-74.000,549.000,-177.000,26.000
1.853,-69.500,657.000,-146.500,28.500
1.854,-63.500,736.500,-97.000,29.500
1.855,-56.500,778.000,-7.000,26.500
1.856,-50.500,788.500,120.500,22.000
1.857,-45.500,779.000,241.500,17.000
1.858,-41.500,753.500,298.000,15.500
1.859,-38.500,713.000,271.500,14.500
1.860,-35.500,658.000,211.000,10.500
1.861,-33.500,591.500,200.000,0.000
1.862,-32.500,516.500,286.500,-15.500
1.863,-32.000,431.000,442.000,-32.000
1.864,-31.000,334.000,585.000,-44.000
1.865,-30.000,231.500,649.500,-49.000
1.866,-29.000,131.000,633.000,-49.500
1.867,-30.000,42.000,584.500,-47.500
1.868,-32.000,-35.500,543.500,-44.500
1.869,-36.000,-109.000,510.500,-38.500
1.870,-40.000,-178.000,454.000,-28.500
1.871,-42.500,-236.500,352.000,-15.500
1.872,-45.500,-272.000,217.000,-4.500
1.873,-49.000,-278.000,85.000,2.000
1.874,-52.500,-263.500,-21.500,4.500
1.875,-55.000,-247.000,-106.500,4.000
1.876,-56.500,-239.000,-184.000,3.500
1.877,-57.000,-240.500,-258.500,4.000
1.878,-58.500,-247.000,-311.000,5.000
1.879,-60.000,-258.000,-318.000,5.000
1.880,-61.000,-282.500,-271.500,5.000
1.881,-61.000,-328.500,-183.000,4.500
1.882,-61.500,-390.000,-76.000,5.000
1.883,-62.500,-450.000,31.500,5.000
1.884,-66.000,-491.000,135.000,4.000
1.885,-70.000,-508.500,237.500,-0.500
1.886,-72.000,-506.000,342.000,-7.000
1.887,-71.000,-491.000,440.000,-16.000
1.888,-67.500,-456.500,517.000,-23.500
1.889,-64.000,-392.000,557.000,-27.000
1.890,-62.000,-294.500,555.500,-27.000
1.891,-61.500,-177.000,520.500,-25.000
1.892,-61.000,-65.500,468.000,-24.000
1.893,-57.500,18.000,408.500,-26.500
1.894,-51.500,69.500,347.000,-34.500
1.895,-44.500,99.000,276.000,-44.500
1.896,-38.500,119.500,192.000,-52.000
1.897,-34.500,133.500,100.500,-55.000
1.898,-33.500,130.000,12.000,-52.000
1.899,-32.500,92.000,-61.500,-46.500
1.900,-31.000,17.000,-116.000,-40.000
1.901,-28.500,-80.000,-156.000,-30.000
1.902,-25.500,-172.500,-186.000,-16.000
1.903,-23.000,-238.500,-206.500,1.000
1.904,-21.000,-272.500,-211.000,15.000
1.905,-20.500,-283.500,-193.000,22.000
1.906,-20.500,-276.500,-150.000,23.500
1.907,-21.500,-244.000,-90.500,26.000
1.908,-25.500,-170.000,-27.000,35.500
1.909,-32.500,-47.000,30.000,49.000
1.910,-40.000,105.500,79.000,57.000
1.911,-46.500,251.000,122.000,54.500
1.912,-51.000,360.000,162.500,45.500
1.913,-55.000,428.000,196.500,43.500
1.914,-61.500,471.000,217.000,54.500
1.915,-69.500,505.500,223.000,70.000
1.916,-75.000,525.000,224.000,72.000
1.917,-74.500,513.500,230.000,50.000
1.918,-66.000,458.000,246.000,10.500
1.919,-53.500,368.500,268.000,-25.500
1.920,-39.500,266.500,287.500,-44.500
1.921,-28.500,170.000,299.500,-47.000
1.922,-19.000,82.500,308.500,-46.500
1.923,-9.000,5.500,317.000,-52.500
1.924,2.000,-57.000,324.000,-62.500
1.925,13.000,-100.500,323.500,-67.500
1.926,21.500,-127.000,308.500,-62.000
1.927,28.500,-145.500,278.500,-49.500
1.928,33.500,-152.000,243.000,-39.500
1.929,36.000,-124.500,212.500,-36.000
1.930,36.500,-36.000,193.000,-35.500
1.931,33.500,106.000,181.500,-31.500
1.932,29.000,246.000,168.000,-23.000
1.933,26.000,313.000,145.000,-13.500
1.934,26.000,284.000,109.000,-8.000
1.935,27.500,212.000,66.000,-5.500
1.936,27.500,190.000,24.000,-4.000
1.937,23.000,270.500,-13.500,0.000
1.938,15.000,417.500,-47.000,4.000
1.939,6.000,535.000,-80.000,5.500
1.940,-0.500,547.000,-109.500,2.000
1.941,-5.500,453.000,-129.500,-4.500
1.942,-10.500,313.000,-133.000,-11.500
1.943,-16.500,191.000,-121.000,-19.500
1.944,-22.000,102.000,-100.000,-27.000
1.945,-25.500,22.000,-77.500,-33.500
1.946,-24.000,-69.500,-57.000,-36.500
1.947,-19.500,-166.000,-35.500,-36.500
1.948,-14.000,-241.500,-14.000,-34.000
1.949,-10.000,-282.500,-0.500,-34.000
1.950,-9.500,-301.500,-7.000,-37.000
1.951,-11.000,-320.000,-37.500,-42.000
1.952,-12.000,-345.000,-82.000,-44.500
1.953,-13.500,-365.000,-122.500,-40.500
1.954,-14.000,-364.000,-151.000,-31.000
1.955,-15.500,-338.000,-166.500,-21.500
1.956,-18.500,-300.000,-178.000,-14.000
1.957,-21.000,-269.500,-190.500,-6.500
1.958,-23.000,-251.500,-200.000,3.500
1.959,-22.000,-240.500,-202.000,17.000
1.960,-20.000,-228.000,-200.000,30.000
1.961,-18.500,-214.000,-201.000,36.500
1.962,-18.000,-212.500,-210.500,33.500
1.963,-18.500,-241.000,-226.000,21.500
1.964,-18.000,-306.500,-236.500,9.000
1.965,-14.500,-401.000,-233.500,0.500
1.966,-8.000,-504.000,-217.000,-3.000
1.967,0.500,-597.000,-191.000,-4.000
1.968,6.000,-681.000,-160.000,-6.000
1.969,6.500,-766.000,-119.500,-11.500
1.970,2.000,-860.000,-65.000,-21.500
1.971,-4.500,-950.000,4.500,-33.500
1.972,-10.000,-1005.000,82.500,-44.500
1.973,-12.000,-994.500,162.500,-51.000
1.974,-11.000,-910.500,239.500,-52.500
1.975,-10.000,-772.000,316.000,-49.500
1.976,-11.000,-607.000,389.500,-44.000
1.977,-15.000,-435.000,457.500,-40.000
1.978,-20.500,-254.500,509.000,-39.500
1.979,-25.000,-53.500,536.500,-39.500
1.980,-28.500,173.000,539.500,-38.500
1.981,-29.500,410.000,523.000,-34.500
1.982,-28.500,626.500,495.000,-29.000
1.983,-25.500,791.000,463.000,-25.000
1.984,-21.000,889.500,428.000,-21.500
1.985,-16.500,929.000,388.500,-16.500
1.986,-14.000,927.000,343.000,-9.000
1.987,-13.500,899.500,294.500,-0.500
1.988,-13.000,851.500,247.000,3.500
1.989,-10.500,779.000,204.000,-1.000
1.990,-4.500,688.000,169.500,-12.000
1.991,3.500,591.500,138.500,-24.000
1.992,10.500,508.000,111.000,-32.000
1.993,14.500,449.000,86.000,-37.500
1.994,16.500,412.500,65.500,-44.500
1.995,19.000,387.500,51.000,-53.500
1.996,23.500,363.000,41.500,-61.500
1.997,30.500,340.500,33.500,-62.000
1.998,37.000,328.500,23.000,-52.500
1.999,42.000,328.500,11.500,-37.000
2.000,43.500,336.500,4.000,-23.000
2.001,39.500,341.500,4.500,-13.000
2.002,33.500,331.000,14.500,-6.500
2.003,25.000,303.500,33.500,-2.000
2.004,17.000,267.000,57.000,3.000
2.005,9.000,226.500,85.500,7.000
2.006,1.000,183.000,114.500,9.000
2.007,-6.500,131.000,137.500,9.000
2.008,-14.500,61.500,147.500,9.500
2.009,-21.500,-25.500,138.000,13.500
2.010,-26.000,-118.000,111.500,18.500
2.011,-28.500,-198.000,74.500,24.000
2.012,-29.500,-253.500,34.000,27.500
2.013,-31.000,-282.000,-3.500,32.000
2.014,-34.500,-290.000,-35.500,37.000
2.015,-39.000,-284.000,-59.000,40.000
2.016,-43.500,-258.500,-67.500,38.500
2.017,-45.000,-211.000,-59.000,29.500
2.018,-44.000,-143.500,-32.500,17.000
2.019,-41.000,-68.500,4.000,6.500
2.020,-37.500,0.000,44.000,1.000
2.021,-36.500,56.000,86.000,-0.500
2.022,-37.500,103.000,131.000,-2.000
2.023,-40.500,145.500,181.500,-8.000
2.024,-42.000,177.000,233.000,-16.000
2.025,-43.500,186.000,278.500,-23.500
2.026,-46.000,162.500,309.500,-25.500
2.027,-52.000,109.000,326.000,-21.000
2.028,-60.500,32.500,330.000,-14.000
2.029,-66.500,-58.500,330.000,-8.500
2.030,-65.000,-161.000,328.000,-8.000
2.031,-55.500,-268.500,321.000,-11.500
2.032,-45.000,-367.000,302.500,-17.000
2.033,-41.000,-434.000,269.500,-20.500
2.034,-46.500,-460.500,224.000,-20.500
2.035,-55.500,-455.000,172.500,-17.000
2.036,-56.000,-439.000,121.000,-13.500
2.037,-42.000,-428.000,72.000,-10.000
2.038,-19.000,-418.500,25.000,-8.500
2.039,3.500,-388.000,-23.500,-7.000
2.040,15.000,-314.500,-70.500,-6.500
2.041,16.500,-197.000,-112.000,-6.000
2.042,15.000,-53.500,-141.000,-5.000
2.043,15.000,90.500,-156.000,-1.500
2.044,16.500,212.000,-161.000,4.500
2.045,15.000,302.500,-161.000,14.500
2.046,8.500,360.500,-159.500,27.500
2.047,-0.500,389.500,-156.000,41.000
2.048,-6.500,392.500,-148.000,53.500
2.049,-6.500,374.500,-136.000,62.000
2.050,-1.500,340.000,-121.500,67.500
2.051,4.500,290.000,-108.000,67.500
2.052,11.500,222.500,-94.000,62.000
2.053,23.000,138.500,-76.000,51.000
2.054,40.000,49.000,-54.500,35.500
2.055,62.500,-30.500,-30.500,18.500
2.056,89.000,-84.500,-10.000,1.000
2.057,115.000,-110.500,3.000,-16.500
2.058,140.000,-117.000,7.000,-35.500
2.059,164.500,-112.500,5.000,-54.500
2.060,186.000,-100.000,1.000,-70.500
2.061,204.000,-77.500,-3.500,-81.500
2.062,216.000,-50.000,-5.500,-86.500
2.063,220.500,-31.500,-4.000,-87.000
2.064,220.500,-34.500,6.000,-86.500
2.065,219.000,-55.500,29.500,-86.500
2.066,217.500,-82.500,69.500,-86.000
2.067,216.000,-107.000,122.500,-83.000
2.068,209.000,-137.000,178.000,-77.500
2.069,195.000,-192.000,223.000,-69.000
2.070,169.500,-274.500,248.500,-55.500
2.071,135.500,-353.500,251.500,-37.000
2.072,98.000,-378.500,236.500,-14.500
2.073,62.500,-319.000,209.000,12.000
2.074,33.500,-188.500,173.000,37.500
2.075,10.500,-34.000,127.500,57.500
2.076,-5.000,101.000,74.000,70.500
2.077,-15.000,208.000,17.000,76.000
2.078,-18.500,308.000,-36.500,75.500
2.079,-14.500,417.500,-81.000,71.500
2.080,-5.000,525.000,-116.000,66.000
2.081,8.000,597.500,-141.500,60.500
2.082,20.500,605.500,-156.000,56.000
2.083,30.500,545.000,-158.000,54.500
2.084,36.000,437.000,-148.500,55.500
2.085,37.500,307.500,-133.000,58.500
2.086,35.500,171.500,-117.000,60.000
2.087,31.000,34.000,-97.500,57.000
2.088,26.500,-100.000,-63.500,50.500
2.089,23.000,-215.500,-3.500,42.000
2.090,20.500,-290.000,80.000,36.000
2.091,20.500,-308.000,171.000,34.500
2.092,21.500,-269.000,251.500,34.500
2.093,23.500,-192.500,314.500,31.500
2.094,24.000,-99.000,367.000,23.000
2.095,22.000,0.500,413.000,10.000
2.096,16.500,110.500,447.500,1.000
2.097,9.000,241.000,452.500,3.000
2.098,0.500,390.000,416.000,16.000
2.099,-7.000,536.000,345.000,35.000
2.100,-13.500,645.500,259.000,50.500
2.101,-16.500,698.500,176.000,57.000
2.102,-19.000,696.500,101.000,57.000
2.103,-20.500,662.500,27.000,55.500
2.104,-24.000,622.000,-47.500,56.000
2.105,-29.500,581.500,-115.500,58.500
2.106,-39.000,532.000,-160.500,61.000
2.107,-51.000,461.500,-178.000,62.000
2.108,-64.000,367.500,-177.500,62.000
2.109,-76.500,262.500,-173.000,62.000
2.110,-86.500,166.000,-174.500,64.000
2.111,-94.500,89.500,-178.500,67.000
2.112,-102.000,33.500,-178.500,72.000
2.113,-112.000,-5.500,-170.500,77.500
2.114,-125.500,-28.500,-155.500,83.000
2.115,-140.000,-31.000,-131.000,86.000
2.116,-152.000,-8.500,-93.000,84.500
2.117,-158.000,41.000,-35.000,80.000
2.118,-159.500,105.500,42.500,76.000
2.119,-158.500,167.500,129.500,75.500
2.120,-160.500,213.500,213.500,79.500
2.121,-166.500,239.500,291.500,84.500
2.122,-175.500,249.500,364.500,86.500
2.123,-185.000,252.500,433.500,83.000
2.124,-194.000,249.500,492.500,77.000
2.125,-203.000,230.500,527.000,71.500
2.126,-213.000,183.500,527.000,69.500
2.127,-223.500,107.000,495.000,69.500
2.128,-235.500,16.500,445.000,68.500
2.129,-248.500,-56.500,395.000,63.500
2.130,-265.500,-91.000,354.000,54.000
2.131,-284.000,-90.000,316.500,42.000
2.132,-302.000,-81.500,268.500,31.000
2.133,-314.000,-97.500,201.000,23.500
2.134,-319.000,-142.500,112.500,19.500
2.135,-321.000,-185.000,14.500,17.000
2.136,-327.000,-179.500,-80.000,16.000
2.137,-340.000,-106.500,-163.000,14.000
2.138,-357.500,9.000,-238.500,11.000
2.139,-371.500,115.500,-311.000,8.000
2.140,-374.500,172.500,-378.500,5.500
2.141,-367.000,177.000,-428.500,4.000
2.142,-353.000,155.000,-444.000,4.000
2.143,-339.000,131.500,-417.500,6.000
2.144,-327.500,111.000,-354.500,10.000
2.145,-317.000,78.500,-271.500,14.500
2.146,-306.000,21.000,-181.000,18.000
2.147,-293.000,-54.500,-88.000,18.500
2.148,-279.000,-127.500,7.000,17.000
2.149,-264.000,-182.500,107.500,16.500
2.150,-248.500,-218.500,210.000,18.500
2.151,-232.500,-249.500,307.500,22.000
2.152,-218.000,-288.500,394.000,26.500
2.153,-207.500,-336.000,462.500,29.500
2.154,-200.500,-379.500,504.500,30.500
2.155,-195.000,-403.500,518.000,29.500
2.156,-188.500,-403.000,509.000,27.000
2.157,-181.000,-385.000,495.500,24.500
2.158,-172.000,-362.000,496.000,19.500
2.159,-163.500,-337.500,513.500,13.500
2.160,-155.500,-302.500,529.000,5.500
2.161,-145.500,-247.500,518.500,-0.500
2.162,-132.500,-175.000,470.000,-5.000
2.163,-116.500,-105.500,398.000,-6.500
2.164,-100.000,-64.500,330.000,-5.500
2.165,-83.000,-59.000,289.000,-1.500
2.166,-66.000,-74.500,274.500,5.500
2.167,-47.000,-90.000,270.500,15.000
2.168,-25.500,-96.500,260.500,24.500
2.169,-2.000,-102.500,240.500,32.000
2.170,20.500,-115.500,217.000,37.500
2.171,40.500,-125.000,193.000,42.000
2.172,58.500,-101.000,164.500,48.500
2.173,75.000,-25.500,121.000,55.000
2.174,92.000,93.000,61.000,60.500
2.175,110.500,221.500,-8.500,62.000
2.176,127.500,328.000,-77.500,60.000
2.177,143.500,404.500,-140.500,57.000
2.178,156.500,463.500,-193.500,55.500
2.179,166.500,516.000,-236.500,57.500
2.180,175.500,557.000,-263.000,61.500
2.181,183.000,569.500,-269.000,66.500
2.182,190.500,544.500,-254.000,72.500
2.183,197.000,489.000,-226.000,80.500
2.184,201.500,424.000,-195.500,88.000
2.185,202.500,365.500,-167.000,95.500
2.186,201.000,315.000,-142.500,97.500
2.187,198.000,267.500,-122.500,95.000
2.188,196.000,221.500,-108.000,88.000
2.189,195.000,183.000,-101.000,81.000
2.190,195.500,167.500,-99.000,75.500
2.191,195.500,180.500,-95.500,73.500
2.192,193.500,219.000,-85.000,73.500
2.193,190.500,277.000,-66.500,73.500
2.194,186.000,342.500,-44.500,72.500
2.195,182.500,408.500,-21.500,74.000
2.196,181.000,469.000,5.500,77.500
2.197,180.500,520.500,44.000,86.000
2.198,180.000,562.000,97.500,97.500
2.199,176.500,592.500,162.000,110.500
2.200,171.500,611.500,227.000,121.000
2.201,165.000,618.000,282.500,129.000
2.202,160.500,611.500,326.500,136.000
2.203,157.500,592.000,363.500,144.500
2.204,156.500,561.500,398.000,152.500
2.205,154.500,524.500,426.000,161.000
2.206,151.000,481.000,438.000,167.000
2.207,146.000,428.500,420.000,171.500
2.208,143.000,365.000,368.000,176.500
2.209,145.500,292.000,291.000,183.500
2.210,153.000,217.000,203.500,195.500
2.211,166.000,150.500,117.500,210.500
2.212,182.000,97.000,34.500,227.500
2.213,200.000,55.500,-55.000,245.500
2.214,220.500,18.500,-153.500,262.500
2.215,244.000,-18.000,-248.000,277.000
2.216,271.500,-47.500,-312.000,289.500
2.217,300.000,-60.000,-324.000,301.000
2.218,327.500,-46.000,-283.500,314.500
2.219,350.000,-5.500,-208.000,332.500
2.220,367.000,58.500,-119.000,353.500
2.221,374.500,140.500,-19.500,374.000
2.222,373.000,237.500,99.500,390.500
2.223,359.000,338.000,243.500,401.000
2.224,330.000,428.000,398.000,407.000
2.225,284.000,498.500,534.000,409.500
2.226,217.500,553.500,627.000,409.500
2.227,129.500,607.500,676.500,405.500
2.228,17.000,660.000,698.500,393.000
2.229,-117.000,682.000,711.000,370.000
2.230,-272.000,642.000,714.000,336.500
2.231,-443.000,538.000,698.000,293.000
2.232,-624.000,414.500,653.000,241.500
2.233,-808.500,331.000,583.500,180.500
2.234,-989.500,294.500,501.000,104.500
2.235,-1158.000,236.500,418.000,6.500
2.236,-1306.500,51.500,330.000,-119.000
2.237,-1424.500,-317.000,226.000,-274.500
2.238,-1501.000,-831.500,92.000,-463.500
2.239,-1523.500,-1392.000,-77.500,-685.000
2.240,-1483.000,-1917.000,-284.000,-940.000
2.241,-1373.500,-2404.500,-522.000,-1228.000
2.242,-1196.500,-2907.000,-789.000,-1549.000
2.243,-958.500,-3459.500,-1086.000,-1896.500
2.244,-672.000,-4040.500,-1410.000,-2260.500
2.245,-354.500,-4579.500,-1751.500,-2626.500
2.246,-27.000,-5016.500,-2090.000,-2979.000
2.247,287.000,-5336.000,-2399.000,-3298.000
2.248,565.000,-5553.500,-2654.000,-3564.500
2.249,787.500,-5676.500,-2837.000,-3757.000
2.250,939.000,-5687.500,-2936.000,-3858.000
2.251,1011.500,-5556.500,-2941.000,-3856.000
2.252,1005.000,-5276.000,-2848.500,-3751.000
2.253,923.500,-4872.500,-2668.500,-3554.000
2.254,778.500,-4391.000,-2427.500,-3286.500
2.255,585.500,-3870.000,-2159.000,-2972.000
2.256,362.500,-3338.000,-1885.000,-2632.000
2.257,129.500,-2816.500,-1606.000,-2283.000
2.258,-94.500,-2324.000,-1309.500,-1937.000
2.259,-291.500,-1878.000,-996.500,-1604.500
2.260,-451.000,-1486.000,-694.500,-1297.500
2.261,-568.500,-1153.000,-445.500,-1025.500
2.262,-644.000,-885.500,-276.000,-795.500
2.263,-681.500,-688.000,-172.000,-606.000
2.264,-687.000,-559.000,-91.500,-450.500
2.265,-666.500,-482.500,7.000,-321.500
2.266,-626.500,-432.500,133.500,-210.500
2.267,-575.500,-394.000,269.000,-115.000
2.268,-521.000,-372.000,385.000,-35.000
2.269,-471.500,-378.500,468.000,30.500
2.270,-431.000,-414.000,523.500,83.000
2.271,-399.000,-450.500,564.000,127.000
2.272,-372.500,-445.000,594.500,166.000
2.273,-345.500,-369.000,612.000,200.000
2.274,-315.000,-231.000,612.500,226.000
2.275,-280.500,-72.000,595.500,241.000
2.276,-241.000,69.000,564.500,243.500
2.277,-197.000,177.000,524.000,237.500
2.278,-151.500,269.500,478.000,228.000
2.279,-106.000,369.000,428.000,220.500
2.280,-64.500,484.500,377.000,216.000
2.281,-29.500,603.000,328.000,214.000
2.282,-3.500,707.000,282.500,213.000
2.283,15.500,784.000,241.000,211.500
2.284,29.500,835.000,201.500,210.500
2.285,40.000,868.000,165.000,211.000
2.286,48.500,886.500,131.500,213.000
2.287,54.500,891.500,100.500,216.500
2.288,58.500,883.000,72.000,218.000
2.289,60.000,862.000,46.000,216.000
2.290,60.500,828.500,22.000,210.500
2.291,61.000,783.000,2.000,203.000
2.292,61.000,724.000,-14.000,198.000
2.293,61.500,654.500,-27.000,198.500
2.294,61.500,577.000,-40.000,206.000
2.295,61.000,501.000,-52.000,217.000
2.296,61.000,433.000,-63.500,227.500
2.297,61.500,377.000,-70.000,231.500
2.298,61.000,335.000,-68.500,227.500
2.299,60.000,306.000,-56.000,218.500
2.300,56.500,284.500,-36.000,208.500
2.301,52.500,268.000,-13.500,203.000
2.302,49.000,250.500,7.000,203.000
2.303,46.000,234.000,25.000,207.500
2.304,43.500,226.500,45.500,213.000
2.305,39.500,235.500,77.000,216.500
2.306,34.000,261.000,122.000,217.000
2.307,27.000,294.000,176.000,217.000
2.308,21.500,321.500,228.500,217.500
2.309,20.000,334.000,270.500,218.000
2.310,21.500,337.000,296.000,218.500
2.311,25.500,340.000,309.000,216.000
2.312,28.500,348.000,313.500,211.500
2.313,28.500,356.500,311.500,207.000
2.314,26.500,353.000,298.000,204.000
2.315,24.500,336.500,267.500,203.500
2.316,24.500,319.000,218.000,203.500
2.317,27.000,316.500,155.500,202.500
2.318,32.000,332.500,89.000,201.500
2.319,38.500,358.500,29.500,201.000
2.320,44.500,380.000,-19.000,201.000
2.321,51.500,390.000,-60.000,200.500
2.322,59.500,394.000,-96.000,196.000
2.323,67.000,400.000,-123.000,187.500
2.324,73.500,410.000,-130.000,177.500
2.325,76.000,418.000,-105.500,168.000
2.326,75.000,420.500,-49.000,162.000
2.327,71.500,420.500,26.000,158.000
2.328,67.500,425.000,102.500,153.500
2.329,64.000,429.500,170.500,147.500
2.330,61.000,425.000,230.500,141.500
2.331,58.500,404.500,289.000,137.500
2.332,56.000,375.500,347.000,139.500
2.333,55.000,355.500,395.000,147.000
2.334,55.500,355.500,423.500,160.000
2.335,56.000,365.000,427.500,174.500
2.336,52.000,361.500,414.000,186.000
2.337,44.000,327.500,395.500,191.000
2.338,31.500,270.500,379.000,190.000
2.339,19.500,216.000,363.000,183.000
2.340,10.500,187.500,344.000,176.500
2.341,5.500,189.000,321.000,171.500
2.342,3.500,206.500,297.500,168.500
2.343,1.500,220.500,276.500,167.500
2.344,0.000,223.000,258.500,165.000
2.345,-1.500,218.500,242.000,161.000
2.346,-3.500,213.000,223.500,158.500
2.347,-5.000,208.500,203.500,160.000
2.348,-7.000,203.500,181.500,165.500
2.349,-10.500,198.000,156.500,172.500
2.350,-15.000,193.500,127.500,176.500
2.351,-19.000,193.000,96.500,173.000
2.352,-22.000,195.000,67.500,164.500
2.353,-25.500,195.500,42.500,152.000
2.354,-27.500,191.500,20.500,141.500
2.355,-29.000,185.000,-5.500,135.500
2.356,-29.000,180.000,-36.000,131.500
2.357,-26.500,179.500,-65.000,127.000
2.358,-24.000,181.500,-81.000,120.000
2.359,-20.000,184.000,-80.500,110.000
2.360,-17.000,185.500,-69.000,100.500
2.361,-15.500,185.000,-59.500,96.000
2.362,-15.000,182.000,-58.500,97.500
2.363,-16.000,177.000,-59.000,102.500
2.364,-19.000,169.500,-46.500,106.500
2.365,-21.500,158.000,-10.000,104.000
2.366,-23.500,146.000,48.500,95.000
2.367,-23.000,135.000,116.500,82.000
2.368,-21.500,125.000,183.000,71.500
2.369,-21.500,112.500,244.000,69.000
2.370,-24.000,95.500,300.000,75.000
2.371,-27.500,72.500,348.000,87.500
2.372,-32.000,46.000,383.500,101.000
2.373,-35.000,20.500,400.500,109.500
2.374,-37.000,0.500,402.500,109.500
2.375,-39.500,-14.000,393.500,103.000
2.376,-42.500,-25.500,377.500,96.000
2.377,-47.500,-39.500,350.000,92.000
2.378,-52.500,-56.000,307.000,95.000
2.379,-57.000,-75.000,249.000,101.500
2.380,-59.500,-90.000,187.500,109.000
2.381,-62.000,-97.500,137.000,113.000
2.382,-65.500,-97.500,104.500,115.000
2.383,-69.500,-94.500,85.500,114.500
2.384,-72.500,-92.500,74.000,111.500
2.385,-74.000,-96.500,67.500,104.500
2.386,-72.000,-106.500,71.500,91.500
2.387,-69.500,-121.500,89.500,75.500
2.388,-69.000,-140.000,120.000,60.500
2.389,-73.500,-162.000,155.500,50.500
2.390,-82.500,-187.500,188.500,46.000
2.391,-94.500,-214.000,216.500,44.500
2.392,-105.000,-240.500,242.000,43.500
2.393,-110.500,-264.000,268.500,41.500
2.394,-111.500,-285.500,296.000,41.500
2.395,-110.500,-301.500,319.500,42.000
2.396,-110.500,-307.500,338.000,41.000
2.397,-112.500,-301.000,350.500,35.000
2.398,-117.500,-281.500,359.500,22.000
2.399,-124.500,-257.000,362.500,6.000
2.400,-132.000,-236.500,358.500,-8.000
2.401,-140.000,-228.000,345.000,-16.500
2.402,-148.500,-232.000,326.000,-20.500
2.403,-157.000,-243.000,301.500,-23.500
2.404,-164.500,-256.500,273.500,-26.500
2.405,-170.000,-270.500,241.000,-31.500
2.406,-173.000,-289.000,202.500,-37.000
2.407,-175.500,-316.500,163.000,-41.500
2.408,-176.000,-353.500,129.500,-44.500
2.409,-176.500,-395.000,108.000,-46.000
2.410,-178.000,-435.500,101.000,-46.500
2.411,-181.500,-470.000,104.500,-47.000
2.412,-186.500,-498.500,115.000,-50.500
2.413,-190.500,-524.000,132.500,-57.000
2.414,-192.000,-549.000,158.500,-66.500
2.415,-191.500,-574.500,191.500,-77.000
2.416,-190.000,-600.000,226.000,-85.000
2.417,-187.500,-622.000,254.000,-89.000
2.418,-187.000,-640.500,273.500,-90.000
2.419,-186.500,-656.500,284.500,-90.000
2.420,-186.000,-673.000,292.000,-94.000
2.421,-183.000,-693.000,294.500,-103.000
2.422,-178.000,-716.000,290.000,-119.000
2.423,-172.000,-738.500,274.000,-138.000
2.424,-166.500,-757.000,246.000,-158.500
2.425,-163.000,-773.000,211.000,-178.500
2.426,-160.000,-792.000,176.500,-195.500
2.427,-156.000,-819.000,147.000,-208.500
2.428,-151.000,-853.500,123.000,-221.500
2.429,-145.000,-883.500,102.000,-235.500
2.430,-139.500,-898.500,82.000,-251.500
2.431,-136.000,-897.500,64.500,-269.000
2.432,-132.000,-895.500,52.500,-283.500
2.433,-125.000,-910.000,51.000,-292.000
2.434,-113.000,-940.500,58.500,-292.000
2.435,-102.000,-963.500,69.000,-287.000
2.436,-95.500,-947.000,76.500,-281.000
2.437,-96.000,-878.000,79.000,-275.500
2.438,-101.500,-777.000,76.500,-272.000
2.439,-106.000,-683.000,75.500,-269.000
2.440,-104.500,-625.500,75.000,-266.500
2.441,-96.500,-603.000,68.500,-264.500
2.442,-86.500,-595.000,49.500,-264.000
2.443,-78.500,-580.500,15.000,-265.500
2.444,-73.500,-559.500,-30.500,-264.500
2.445,-69.000,-545.000,-80.500,-261.500
2.446,-63.500,-546.000,-133.000,-255.500
2.447,-56.000,-556.000,-188.500,-248.500
2.448,-49.000,-560.500,-244.000,-243.000
2.449,-44.500,-550.500,-290.000,-241.500
2.450,-43.500,-531.500,-318.000,-242.500
2.451,-42.000,-515.000,-331.000,-243.500
2.452,-38.500,-508.500,-336.000,-242.000
2.453,-28.500,-511.000,-333.500,-237.000
2.454,-13.000,-516.500,-310.000,-231.000
2.455,5.500,-520.000,-246.500,-226.000
2.456,24.000,-519.000,-146.500,-222.500
2.457,40.000,-513.500,-47.500,-221.000
2.458,52.000,-501.500,1.000,-217.000
2.459,62.500,-485.000,-16.500,-211.000
2.460,72.000,-468.000,-65.000,-203.000
2.461,80.000,-455.000,-77.000,-195.000
2.462,87.000,-448.000,-13.000,-187.000
2.463,92.500,-442.500,106.000,-179.500
2.464,97.500,-427.500,214.000,-171.000
2.465,100.500,-397.000,255.500,-162.000
2.466,101.000,-350.000,225.000,-154.500
2.467,98.000,-296.000,162.000,-148.500
2.468,92.000,-244.500,111.000,-145.000
2.469,85.000,-206.000,86.500,-140.500
2.470,78.500,-182.500,73.500,-134.500
2.471,71.000,-170.500,53.500,-125.500
2.472,63.500,-161.500,26.000,-116.000
2.473,54.000,-150.500,4.500,-106.000
2.474,43.500,-134.500,-1.500,-94.500
2.475,35.500,-115.500,1.500,-80.000
2.476,45.500,-97.500,-1.500,-64.000
2.477,11.000,-100.500,9.500,-50.500
2.478,-1.500,-108.000,12.000,-40.000
2.479,-16.000,-117.000,23.000,-34.000
2.480,-30.500,-115.500,43.500,-30.500
2.481,-41.500,-96.500,67.500,-25.000
2.482,-47.000,-62.500,89.000,-16.000
2.483,-49.500,-26.000,106.000,-3.500
2.484,-50.000,1.500,122.000,9.500
2.485,-51.500,18.000,139.500,17.000
2.486,-54.500,26.000,156.000,18.500
2.487,-56.500,32.500,168.000,14.000
2.488,-56.500,40.000,173.000,9.500
2.489,-54.000,46.000,170.000,8.500
2.490,-48.500,48.500,158.500,11.500
2.491,-41.500,46.500,143.500,16.000
2.492,-33.500,44.500,128.000,18.000
2.493,-24.500,40.000,115.000,13.500
2.494,-15.500,31.000,104.000,3.000
2.495,-6.000,17.000,95.500,-9.500
2.496,2.000,4.500,87.500,-19.500
2.497,9.500,-1.000,80.500,-24.500
2.498,14.000,1.500,75.000,-25.000
2.499,16.000,3.500,71.500,-22.000
2.500,17.000,-9.500,70.500,-19.000
2.501,18.500,-41.500,71.000,-14.500
2.502,19.500,-85.000,72.500,-9.500
2.503,19.500,-125.500,75.000,-3.500
2.504,15.500,-157.500,79.500,1.500
2.505,5.500,-183.500,86.000,4.500
2.506,-10.000,-210.000,94.500,5.000
2.507,-28.500,-232.500,104.000,4.500
2.508,-44.500,-239.000,111.500,6.000
2.509,-56.000,-219.000,117.000,10.000
2.510,-62.500,-175.000,120.500,15.000
2.511,-67.500,-120.000,123.000,19.000
2.512,-74.000,-66.000,126.000,22.000
2.513,-81.000,-16.000,129.500,26.500
2.514,-88.000,34.000,132.500,33.500
2.515,-94.500,90.000,135.000,39.500
2.516,-99.000,143.500,135.500,41.000
2.517,-102.500,181.500,135.000,38.500
2.518,-107.000,194.000,133.500,33.500
2.519,-112.500,183.000,131.500,31.000
2.520,-117.000,163.500,129.500,32.000
2.521,-119.000,155.000,127.000,34.000
2.522,-117.500,163.000,126.000,29.500
2.523,-114.500,178.500,126.000,19.000
2.524,-111.000,183.000,127.000,5.000
2.525,-107.500,167.500,127.500,-4.500
2.526,-104.000,143.500,125.500,-6.500
2.527,-99.000,134.500,121.000,-3.500
2.528,-90.000,148.000,115.000,1.500
2.529,-77.500,166.000,107.500,5.000
2.530,-63.500,155.500,101.000,8.000
2.531,-48.500,107.500,94.500,11.000
2.532,-36.500,50.500,86.500,15.000
2.533,-28.500,32.500,76.500,18.500
2.534,-24.000,70.500,64.000,19.000
2.535,-23.000,122.000,51.000,18.000
2.536,-24.500,119.000,40.500,16.500
2.537,-29.000,21.500,34.500,16.500
2.538,-36.500,-136.500,34.500,16.500
2.539,-45.500,-281.500,40.000,15.500
2.540,-55.000,-357.500,49.000,11.500
2.541,-62.000,-369.000,59.500,6.000
2.542,-67.000,-363.000,70.000,1.000
2.543,-72.000,-370.000,79.500,-3.500
2.544,-80.000,-377.000,86.500,-6.000
2.545,-92.000,-344.000,90.500,-8.000
2.546,-108.000,-251.500,89.000,-8.000
2.547,-123.000,-122.500,81.000,-6.000
2.548,-135.000,-3.500,67.000,-3.500
2.549,-141.000,80.000,52.000,1.000
2.550,-142.000,136.500,39.000,5.000
2.551,-140.500,193.000,25.000,9.000
2.552,-137.500,264.500,8.500,13.000
2.553,-133.500,340.500,-11.000,15.000
2.554,-126.500,396.000,-25.500,15.500
2.555,-117.000,416.000,-24.500,14.000
2.556,-106.000,404.500,-8.500,9.500
2.557,-95.000,376.500,11.000,5.000
2.558,-85.000,344.000,16.500,2.000
2.559,-74.500,311.000,3.500,0.000
2.560,-61.000,273.000,-14.000,-4.500
2.561,-44.000,226.500,-11.500,-12.000
2.562,-24.000,172.500,23.000,-24.500
2.563,-4.000,121.000,78.500,-37.500
2.564,12.000,81.000,129.500,-47.500
2.565,23.500,57.000,156.500,-51.000
2.566,31.500,45.500,163.000,-47.500
2.567,38.500,35.500,165.000,-41.000
2.568,44.000,18.000,173.500,-34.500
2.569,46.000,-9.500,187.500,-31.000
2.570,42.000,-40.000,192.000,-32.000
2.571,30.500,-67.500,177.500,-35.500
2.572,14.000,-87.500,150.000,-37.500
2.573,-4.000,-99.500,121.500,-36.000
2.574,-18.500,-105.000,101.500,-27.500
2.575,-29.500,-105.000,89.500,-14.000
2.576,-40.000,-105.000,76.500,0.500
2.577,-52.000,-110.000,57.500,11.000
2.578,-67.000,-123.000,34.000,16.000
2.579,-82.500,-142.500,10.500,18.000
2.580,-92.000,-162.000,-7.000,21.000
2.581,-94.500,-174.500,-18.500,29.000
2.582,-90.000,-180.500,-25.000,41.500
2.583,-84.000,-188.000,-27.000,54.000
2.584,-80.000,-207.000,-26.500,61.500
2.585,-79.000,-241.000,-24.000,61.500
2.586,-78.500,-282.500,-20.000,55.500
2.587,-76.500,-322.000,-16.000,46.500
2.588,-74.500,-344.000,-11.000,37.500
2.589,-73.500,-339.500,-6.000,29.500
2.590,-74.000,-305.000,-1.000,21.500
2.591,-73.500,-240.500,3.500,11.500
2.592,-67.000,-151.000,5.500,-3.000
2.593,-51.500,-48.500,5.500,-22.000
2.594,-27.500,56.500,3.500,-46.000
2.595,-0.500,155.500,-1.500,-70.000
2.596,26.000,245.500,-9.000,-91.000
2.597,50.500,327.000,-19.000,-105.500
2.598,74.500,398.500,-30.000,-115.000
2.599,102.000,454.000,-42.000,-120.500
2.600,133.000,487.500,-52.000,-124.000
2.601,166.000,497.000,-59.500,-124.500
2.602,195.000,489.000,-61.500,-120.500
2.603,217.500,470.500,-61.000,-112.000
2.604,236.000,447.500,-60.500,-100.500
2.605,251.500,417.000,-64.000,-90.000
2.606,267.000,374.500,-73.500,-84.000
2.607,278.500,319.000,-86.500,-82.500
2.608,281.500,256.000,-101.500,-82.500
2.609,269.000,197.500,-115.500,-80.000
2.610,241.500,154.500,-129.500,-71.000
2.611,201.000,128.000,-143.000,-56.500
2.612,153.500,111.500,-155.000,-40.000
2.613,104.500,95.000,-158.000,-25.000
2.614,54.000,72.500,-147.500,-13.500
2.615,3.000,49.500,-122.000,-3.000
2.616,-47.500,36.000,-88.000,9.000
2.617,-94.500,40.500,-54.500,24.000
2.618,-132.000,61.000,-29.000,39.000
2.619,-157.500,86.000,-13.000,49.500
2.620,-171.000,104.500,-3.000,52.000
2.621,-175.500,112.000,4.000,46.500
2.622,-175.000,112.000,7.000,35.000
2.623,-171.500,108.000,5.000,22.000
2.624,-162.500,100.500,-8.000,10.000
2.625,-147.500,84.500,-29.500,1.500
2.626,-125.500,56.000,-55.000,-2.000
2.627,-101.000,21.000,-79.500,-1.500
2.628,-76.000,-9.500,-98.000,0.000
2.629,-50.500,-26.500,-111.000,0.500
2.630,-20.500,-29.000,-121.000,-4.000
2.631,13.500,-26.000,-129.000,-13.000
2.632,45.000,-27.500,-130.000,-23.000
2.633,64.000,-38.500,-119.500,-28.500
2.634,66.500,-52.000,-94.500,-28.500
2.635,59.000,-58.500,-58.500,-23.500
2.636,51.500,-49.000,-20.500,-16.500
2.637,54.500,-26.500,11.500,-10.000
2.638,65.500,-0.500,36.000,-3.000
2.639,73.500,19.500,57.500,6.000
2.640,69.000,29.500,79.500,15.000
2.641,52.000,33.500,98.000,21.000
2.642,30.500,38.500,109.500,23.500
2.643,14.000,49.500,106.500,22.000
2.644,5.000,64.000,90.500,22.000
2.645,0.500,72.500,64.500,26.000
2.646,-4.000,71.500,30.000,35.000
2.647,-11.500,60.000,-13.000,46.000
2.648,-20.000,46.500,-59.000,56.500
2.649,-25.000,39.000,-102.000,63.500
2.650,-26.000,40.500,-136.500,66.500
2.651,-23.000,46.500,-162.500,67.500
2.652,-18.500,49.000,-186.500,67.000
2.653,-15.000,41.500,-205.500,64.000
2.654,-14.000,25.500,-203.000,57.000
2.655,-15.000,7.000,-162.000,47.000
2.656,-16.500,-7.000,-86.000,35.000
2.657,-17.000,-17.000,-8.500,23.500
2.658,-17.000,-27.000,27.000,14.500
2.659,-15.500,-42.000,7.000,9.000
2.660,-13.500,-63.500,-35.500,6.500
2.661,-11.500,-89.000,-41.500,5.500
2.662,-11.000,-116.500,22.000,5.500
2.663,-11.000,-148.500,135.500,6.000
2.664,-11.500,-188.000,239.000,8.000
2.665,-12.000,-233.000,284.000,9.000
2.666,-12.000,-274.500,268.000,8.500
2.667,-12.000,-302.500,225.500,5.500
2.668,-13.000,-309.000,192.500,1.500
2.669,-15.500,-294.500,177.500,-1.500
2.670,-20.000,-263.500,162.500,-2.000
2.671,-24.500,-217.000,130.500,-1.000
2.672,-27.500,-156.500,82.000,0.500
2.673,-30.000,-83.000,35.000,3.000
2.674,-31.000,-4.500,0.500,8.000
2.675,-34.000,70.000,-23.500,16.000
2.676,-39.000,135.000,-47.000,25.500
2.677,-45.000,192.000,-76.500,33.500
2.678,-51.000,246.500,-106.500,35.500
2.679,-56.500,297.500,-128.000,32.000
2.680,-62.000,338.500,-136.000,26.000
2.681,-69.500,359.500,-132.000,20.500
2.682,-77.500,358.000,-120.500,18.000
2.683,-85.500,338.500,-105.500,16.000
2.684,-90.500,310.000,-87.000,14.000
2.685,-93.000,282.000,-66.500,10.500
2.686,-93.000,255.500,-45.500,5.000
2.687,-91.500,228.500,-26.500,-1.000
2.688,-86.500,200.500,-13.000,-9.000
2.689,-76.500,173.000,-4.500,-18.000
2.690,-61.500,151.000,-2.000,-25.500
2.691,-46.500,136.000,-7.000,-31.500
2.692,-36.000,126.500,-18.500,-34.500
2.693,-32.000,117.500,-36.000,-34.000
2.694,-34.500,107.000,-59.000,-31.000
2.695,-39.000,94.500,-85.500,-26.000
2.696,-44.500,82.000,-115.000,-18.000
2.697,-50.000,74.000,-143.000,-5.000
2.698,-56.500,67.500,-167.000,10.500
2.699,-64.500,60.000,-185.500,27.000
2.700,-71.500,45.500,-196.000,41.500
2.701,-76.000,23.000,-199.000,51.000
2.702,-77.000,-6.000,-196.000,57.000
2.703,-75.500,-36.500,-186.000,61.000
2.704,-71.500,-65.000,-166.500,65.000
2.705,-66.500,-92.000,-136.500,70.000
2.706,-60.500,-119.000,-96.500,74.000
2.707,-52.500,-144.500,-51.000,74.500
2.708,-43.500,-165.000,-6.000,71.000
2.709,-33.500,-173.500,34.500,65.000
2.710,-24.000,-165.500,70.000,57.000
2.711,-16.000,-142.000,102.000,49.500
2.712,-9.000,-109.000,132.500,41.500
2.713,-1.500,-72.500,159.500,34.500
2.714,5.000,-36.000,178.000,29.000
2.715,11.000,3.000,186.500,26.500
2.716,16.500,50.500,185.500,31.000
2.717,20.000,107.500,178.000,41.500
2.718,22.000,167.500,168.500,55.000
2.719,23.000,218.500,159.500,65.500
2.720,23.500,255.500,151.000,69.000
2.721,24.000,280.500,142.500,63.500
2.722,26.000,301.000,137.000,53.500
2.723,28.500,320.000,135.500,43.500
2.724,30.000,332.500,138.000,36.500
2.725,30.500,327.500,143.500,34.500
2.726,34.000,303.500,148.500,34.500
2.727,41.500,272.000,149.500,35.000
2.728,52.500,244.500,145.500,36.500
2.729,58.500,228.000,139.500,40.000
2.730,51.000,213.500,132.000,45.500
2.731,31.500,193.500,125.000,52.000
2.732,11.500,170.000,116.500,56.500
2.733,6.500,155.000,103.000,56.000
2.734,19.000,158.000,84.500,50.000
2.735,35.500,171.000,62.500,41.000
2.736,34.000,173.500,41.000,32.500
2.737,4.000,150.500,23.000,29.500
2.738,-44.000,105.500,7.000,31.500
2.739,-87.500,59.500,-8.500,37.500
2.740,-110.500,30.500,-24.000,42.000
2.741,-115.000,24.000,-38.500,44.000
2.742,-114.000,27.500,-47.000,42.000
2.743,-116.500,30.500,-48.500,41.000
2.744,-118.000,28.500,-41.500,42.000
2.745,-108.000,24.500,-30.500,44.000
2.746,-81.500,24.000,-18.500,43.500
2.747,-47.000,24.500,-7.000,39.500
2.748,-17.000,22.000,3.500,37.000
2.749,1.000,15.500,15.500,42.000
2.750,11.500,6.500,28.500,57.000
2.751,23.000,-2.000,38.500,76.500
2.752,35.000,-13.500,41.500,89.500
2.753,43.500,-32.000,36.500,87.500
2.754,41.500,-63.500,24.000,71.000
2.755,28.500,-103.000,6.000,49.500
2.756,9.000,-142.500,-11.000,32.500
2.757,-9.500,-174.500,-24.000,25.500
2.758,-25.000,-193.500,-31.000,26.000
2.759,-39.000,-206.500,-32.500,27.500
2.760,-55.500,-219.000,-29.000,27.000
2.761,-76.000,-234.500,-19.000,25.500
2.762,-97.500,-245.500,-4.500,25.500
2.763,-116.500,-236.500,14.500,26.500
2.764,-129.000,-197.500,36.000,27.500
2.765,-133.500,-130.000,59.000,25.500
2.766,-133.000,-46.500,83.000,19.500
2.767,-130.500,36.000,109.500,13.500
2.768,-127.000,107.500,135.500,11.500
2.769,-125.500,170.000,160.000,19.000
2.770,-125.000,226.500,178.500,32.500
2.771,-125.000,277.500,190.000,50.000
2.772,-126.000,314.000,191.500,62.500
2.773,-129.500,327.000,185.500,66.500
2.774,-135.500,314.500,171.000,62.500
2.775,-145.500,284.500,149.500,52.500
2.776,-160.500,250.500,122.000,42.000
2.777,-181.000,218.500,90.000,33.500
2.778,-208.000,190.500,55.000,27.000
2.779,-239.000,161.500,18.500,24.500
2.780,-272.500,129.500,-20.000,24.000
2.781,-303.500,96.000,-59.000,25.000
2.782,-329.000,67.000,-96.000,26.000
2.783,-349.500,45.000,-129.000,26.000
2.784,-366.500,31.000,-154.500,22.000
2.785,-380.000,23.500,-172.000,14.500
2.786,-392.500,19.000,-178.500,3.500
2.787,-400.000,14.500,-171.500,-8.500
2.788,-402.500,8.000,-145.500,-18.000
2.789,-397.500,-0.500,-97.500,-24.000
2.790,-386.500,-6.000,-33.500,-26.500
2.791,-373.500,-6.000,39.000,-26.500
2.792,-362.500,1.000,110.500,-27.000
2.793,-354.000,11.000,178.000,-31.000
2.794,-348.000,16.500,243.000,-40.000
2.795,-342.000,15.000,307.000,-52.500
2.796,-334.000,9.500,367.000,-65.000
2.797,-324.500,5.000,414.500,-74.000
2.798,-316.000,3.500,443.500,-77.000
2.799,-309.500,-1.500,453.500,-74.500
2.800,-306.500,-19.500,451.000,-67.500
2.801,-303.500,-54.500,445.500,-59.000
2.802,-299.500,-101.000,439.500,-49.000
2.803,-293.000,-147.500,430.500,-39.500
2.804,-285.500,-186.000,414.500,-30.000
2.805,-278.500,-214.000,387.500,-20.500
2.806,-274.000,-238.000,352.000,-11.000
2.807,-270.500,-263.500,312.500,-1.000
2.808,-263.000,-289.500,272.500,9.500
2.809,-248.500,-309.000,235.500,20.500
2.810,-225.000,-312.500,201.500,31.000
2.811,-192.000,-294.500,171.500,40.000
2.812,-152.500,-256.000,145.000,47.500
2.813,-110.500,-200.000,120.000,54.000
2.814,-65.000,-131.000,95.500,59.500
2.815,-15.500,-54.500,72.500,66.000
2.816,37.500,27.000,52.000,74.000
2.817,92.000,108.000,37.000,82.000
2.818,142.500,182.000,29.000,90.000
2.819,183.000,240.500,26.000,96.000
2.820,211.500,283.000,26.500,98.000
2.821,226.500,314.000,28.500,97.500
2.822,230.500,339.000,28.500,94.500
2.823,227.000,359.500,26.500,89.500
2.824,216.500,371.500,25.500,85.500
2.825,197.000,366.500,25.500,84.000
2.826,167.500,344.500,26.500,84.000
2.827,127.000,314.500,27.500,84.500
2.828,82.500,285.500,26.000,85.500
2.829,42.500,260.500,23.000,86.000
2.830,16.000,234.000,19.000,86.000
2.831,3.000,204.000,17.000,86.000
2.832,-6.500,175.000,16.000,86.500
2.833,-20.000,158.500,14.500,88.000
2.834,-38.500,163.500,8.000,91.500
2.835,-50.500,182.500,-3.500,96.500
2.836,-41.500,198.500,-15.000,103.000
2.837,-8.500,200.500,-23.500,110.000
2.838,40.500,189.000,-27.000,114.500
2.839,84.500,181.000,-29.000,116.000
2.840,111.500,188.500,-30.000,116.500
2.841,124.000,210.000,-30.500,119.000
2.842,130.500,231.500,-31.000,125.000
2.843,140.000,239.500,-31.000,134.500
2.844,150.000,233.500,-30.500,146.000
2.845,152.000,221.500,-31.000,156.500
2.846,141.000,213.000,-31.500,166.000
2.847,121.000,211.000,-30.000,174.500
2.848,102.000,211.000,-27.500,183.000
2.849,91.500,207.000,-28.500,193.000
2.850,87.500,197.000,-33.500,204.000
2.851,87.500,183.000,-41.500,214.000
2.852,88.000,171.000,-46.500,223.500
2.853,89.000,163.000,-47.500,231.000
2.854,89.000,165.000,-54.500,237.500
2.855,87.000,178.500,-78.500,243.000
2.856,82.000,205.000,-119.000,247.500
2.857,75.000,240.500,-160.500,251.000
2.858,67.500,283.000,-178.500,253.500
2.859,64.000,332.500,-165.500,257.500
2.860,61.500,390.000,-138.500,264.000
2.861,59.000,458.000,-129.500,274.000
2.862,53.500,533.500,-153.000,287.500
2.863,48.500,607.000,-197.000,302.500
2.864,49.500,671.000,-226.000,317.000
2.865,60.000,720.500,-212.000,331.500
2.866,77.500,756.000,-156.000,346.500
2.867,96.500,781.500,-79.000,362.000
2.868,112.500,796.000,-1.000,379.000
2.869,122.500,794.000,74.000,397.000
2.870,129.000,771.500,153.000,415.000
2.871,130.500,728.000,243.000,433.000
2.872,125.000,673.000,338.000,448.500
2.873,105.500,616.000,424.000,459.500
2.874,66.000,562.000,495.000,462.500
2.875,1.500,509.500,555.000,454.000
2.876,-87.000,451.000,612.000,435.500
2.877,-197.500,379.500,668.500,409.000
2.878,-327.000,293.000,718.500,376.500
2.879,-475.000,195.000,753.000,336.500
2.880,-640.000,89.000,767.000,283.000
2.881,-817.500,-24.500,761.000,210.500
2.882,-997.500,-151.000,734.000,113.000
2.883,-1164.000,-299.000,682.500,-11.000
2.884,-1301.000,-479.500,597.500,-163.000
2.885,-1394.500,-702.500,473.000,-344.500
2.886,-1437.000,-977.500,303.000,-556.500
2.887,-1420.500,-1310.500,87.500,-803.000
2.888,-1341.000,-1707.500,-173.500,-1085.000
2.889,-1195.500,-2170.000,-480.000,-1403.000
2.890,-985.000,-2689.000,-828.000,-1754.000
2.891,-720.500,-3246.000,-1211.000,-2128.500
2.892,-419.500,-3816.000,-1614.000,-2510.500
2.893,-104.000,-4368.000,-2015.000,-2881.000
2.894,201.500,-4871.500,-2387.500,-3214.500
2.895,475.000,-5296.500,-2702.000,-3490.000
2.896,698.000,-5612.000,-2936.500,-3687.500
2.897,855.000,-5791.500,-3075.000,-3795.000
2.898,934.000,-5820.000,-3110.000,-3803.000
2.899,928.500,-5695.000,-3043.000,-3714.000
2.900,842.000,-5431.000,-2880.500,-3533.000
2.901,687.000,-5050.000,-2636.000,-3274.500
2.902,483.000,-4580.000,-2333.000,-2958.000
2.903,249.500,-4047.000,-1995.000,-2607.000
2.904,8.500,-3477.000,-1647.500,-2243.500
2.905,-226.000,-2896.500,-1311.000,-1887.000
2.906,-434.500,-2331.000,-999.500,-1547.000
2.907,-601.000,-1803.000,-723.000,-1232.500
2.908,-710.000,-1331.500,-486.500,-948.000
2.909,-757.000,-928.000,-292.500,-702.000
2.910,-751.000,-597.000,-139.500,-501.500
2.911,-710.000,-338.000,-23.000,-347.000
2.912,-650.500,-139.500,63.500,-227.000
2.913,-581.000,13.000,125.000,-127.500
2.914,-506.500,134.500,168.000,-38.500
2.915,-431.000,234.500,198.500,40.000
2.916,-365.500,318.500,219.000,100.000
2.917,-321.000,384.500,232.500,138.500
2.918,-302.000,434.000,239.500,164.500
2.919,-302.000,466.000,241.500,187.500
2.920,-308.500,480.000,238.000,213.500
2.921,-312.000,473.500,230.000,236.500
2.922,-307.500,445.500,215.500,243.000
2.923,-297.000,402.500,195.500,231.000
2.924,-281.500,356.500,171.000,210.000
2.925,-259.500,322.000,145.000,195.500
2.926,-231.500,308.500,119.000,196.000
2.927,-196.000,313.500,94.500,208.000
2.928,-154.500,326.500,72.500,218.500
2.929,-107.000,336.000,54.500,220.000
2.930,-54.500,338.000,41.000,212.000
2.931,-1.000,337.500,30.500,202.500
2.932,44.500,340.000,19.000,198.500
2.933,71.000,349.500,1.500,202.500
2.934,75.500,362.000,-20.500,211.000
2.935,67.000,368.500,-44.000,221.000
2.936,61.000,363.500,-61.500,231.500
2.937,68.500,348.000,-71.000,243.500
2.938,87.000,326.000,-75.500,257.500
2.939,104.500,302.000,-80.000,273.000
2.940,110.500,275.500,-82.500,287.500
2.941,102.500,242.000,-76.500,298.500
2.942,89.500,200.000,-55.000,306.000
2.943,80.000,154.500,-18.500,310.000
2.944,79.000,115.500,23.500,314.500
2.945,82.000,94.000,59.000,319.500
2.946,84.500,90.500,84.500,325.000
2.947,81.500,99.500,103.000,329.000
2.948,72.500,109.000,120.000,329.000
2.949,59.500,114.000,133.000,324.500
2.950,42.000,118.000,139.500,315.000
2.951,24.000,129.500,135.500,299.500
2.952,6.500,152.000,127.500,277.500
2.953,-5.000,186.500,121.000,248.500
2.954,-7.000,230.000,115.500,217.000
2.955,3.000,277.000,104.000,187.000
2.956,24.500,323.500,82.000,164.500
2.957,54.500,366.500,59.500,150.000
2.958,87.000,402.500,49.500,141.000
2.959,119.000,433.000,59.500,133.500
2.960,145.500,460.000,76.500,125.500
2.961,166.500,486.000,77.000,117.000
2.962,180.000,510.500,47.000,112.000
2.963,184.000,528.500,-5.000,114.500
2.964,178.000,534.000,-54.000,125.000
2.965,163.000,526.500,-78.500,142.500
2.966,141.000,510.500,-77.000,163.500
2.967,115.000,490.500,-63.500,186.000
2.968,86.000,468.500,-50.000,207.500
2.969,54.500,441.000,-39.500,229.000
2.970,20.000,407.000,-25.000,249.500
2.971,-15.500,367.000,-3.500,268.000
2.972,-47.000,328.500,21.500,280.500
2.973,-71.000,300.000,41.000,284.000
2.974,-87.500,284.500,53.500,279.500
2.975,-98.000,276.500,62.000,268.500
2.976,-108.000,267.500,71.000,256.000
2.977,-120.500,252.000,78.500,242.000
2.978,-133.500,230.500,76.000,227.000
2.979,-145.500,208.500,59.000,208.000
2.980,-151.000,193.500,30.500,182.500
2.981,-147.500,187.500,-0.500,152.500
2.982,-134.500,185.500,-27.500,122.500
2.983,-114.000,180.500,-49.000,97.000
2.984,-86.500,170.500,-67.500,79.500
2.985,-55.000,157.500,-85.500,67.500
2.986,-20.000,148.500,-101.000,60.500
2.987,17.000,147.000,-111.500,56.000
2.988,52.500,149.500,-114.000,56.000
2.989,84.500,150.500,-110.000,60.000
2.990,109.000,146.500,-101.500,66.500
2.991,126.500,140.000,-91.500,72.500
2.992,138.500,137.000,-78.500,75.500
2.993,147.000,144.500,-60.500,76.500
2.994,151.000,160.500,-36.000,79.500
2.995,150.500,180.500,-5.000,85.000
2.996,145.000,196.000,26.500,92.000
2.997,133.500,204.000,55.500,97.000
2.998,115.000,207.000,78.500,97.000
2.999,89.000,207.500,96.500,94.500
3.000,55.000,208.000,112.000,91.000
3.001,18.500,207.000,124.500,91.500
3.002,-16.500,202.500,131.000,97.000
3.003,-45.000,192.500,130.000,105.000
3.004,-64.500,180.000,124.500,112.500
3.005,-79.000,168.000,122.500,117.500
3.006,-89.000,162.500,132.000,119.500
3.007,-90.500,162.500,153.500,118.000
3.008,-80.000,164.500,181.500,115.000
3.009,-53.500,163.500,206.500,111.000
3.010,-14.500,158.500,224.000,106.000
3.011,29.000,151.000,236.500,101.000
3.012,68.500,143.500,248.500,96.000
3.013,101.500,137.500,261.500,91.500
3.014,130.000,132.000,272.500,89.000
3.015,156.000,126.500,276.000,87.000
3.016,180.000,120.000,267.500,87.000
3.017,196.500,112.000,247.000,90.500
3.018,201.000,102.500,221.000,97.500
3.019,191.500,88.000,193.500,106.500
3.020,171.000,69.500,167.500,112.500
3.021,146.500,51.500,142.500,111.000
3.022,121.500,41.000,115.500,99.500
3.023,96.000,38.500,87.500,80.500
3.024,65.000,37.500,64.000,62.500
3.025,27.000,31.500,48.500,52.000
3.026,-15.000,19.000,43.500,49.000
3.027,-54.000,6.500,45.500,49.500
3.028,-84.000,2.000,50.000,49.000
3.029,-107.000,3.500,55.500,45.500
3.030,-132.500,-1.500,63.500,42.000
3.031,-163.500,-21.000,76.500,41.500
3.032,-196.000,-50.000,94.000,42.500
3.033,-217.000,-74.000,109.000,42.500
3.034,-221.500,-82.500,118.000,39.000
3.035,-216.500,-84.000,120.500,33.500
3.036,-217.000,-96.000,121.500,31.000
3.037,-232.500,-133.500,124.500,35.000
3.038,-256.500,-193.500,129.000,45.000
3.039,-272.500,-256.000,128.000,56.000
3.040,-267.500,-301.000,122.500,64.000
3.041,-242.500,-324.000,115.500,66.500
3.042,-209.000,-335.000,113.000,65.000
3.043,-179.500,-345.500,118.000,59.000
3.044,-153.000,-359.000,126.000,50.000
3.045,-127.000,-369.500,133.000,37.500
3.046,-99.500,-373.500,142.000,23.500
3.047,-75.500,-370.500,158.000,7.000
3.048,-65.000,-365.500,178.500,-6.500
3.049,-69.500,-362.500,195.500,-16.500
3.050,-85.500,-359.000,198.000,-21.000
3.051,-107.500,-354.500,190.500,-24.000
3.052,-132.500,-350.000,186.500,-27.500
3.053,-161.500,-350.500,196.500,-38.500
3.054,-193.000,-359.500,211.000,-57.000
3.055,-222.500,-376.500,208.000,-82.500
3.056,-243.500,-398.000,177.000,-107.000
3.057,-253.500,-422.500,136.500,-125.000
3.058,-253.000,-449.000,118.000,-131.000
3.059,-246.000,-479.000,137.500,-129.000
3.060,-233.000,-511.000,170.500,-124.500
3.061,-212.500,-541.000,168.500,-125.500
3.062,-182.500,-566.500,105.000,-135.000
3.063,-145.500,-585.000,-3.500,-151.500
3.064,-105.500,-597.500,-102.000,-170.000
3.065,-69.500,-608.000,-148.000,-184.000
3.066,-42.000,-619.000,-138.000,-193.500
3.067,-24.000,-630.000,-103.000,-198.500
3.068,-13.500,-642.000,-73.500,-202.500
3.069,-10.000,-657.000,-54.500,-208.000
3.070,-15.000,-675.000,-29.500,-215.500
3.071,-30.500,-696.000,13.500,-224.000
3.072,-57.500,-721.000,67.500,-232.000
3.073,-91.000,-747.500,116.000,-238.000
3.074,-123.000,-774.000,146.000,-240.500
3.075,-147.000,-798.000,162.500,-239.500
3.076,-161.000,-818.500,175.500,-238.000
3.077,-168.000,-835.000,188.000,-237.000
3.078,-173.000,-847.000,194.000,-237.500
3.079,-174.500,-853.000,186.000,-239.000
3.080,-165.000,-852.500,163.000,-241.000
3.081,-139.500,-846.000,132.000,-243.000
3.082,-99.500,-833.500,100.500,-247.000
3.083,-52.500,-817.000,71.000,-252.500
3.084,-9.000,-800.500,41.000,-259.500
3.085,29.500,-786.500,9.000,-266.000
3.086,62.000,-777.500,-25.000,-269.000
3.087,93.000,-772.500,-56.500,-270.500
3.088,119.000,-769.500,-84.000,-269.500
3.089,133.000,-764.500,-106.500,-269.000
3.090,135.000,-756.000,-125.000,-268.500
3.091,127.500,-742.000,-140.500,-266.000
3.092,118.000,-725.500,-153.500,-260.500
3.093,113.000,-708.000,-165.000,-252.500
3.094,111.500,-693.000,-174.500,-245.500
3.095,110.000,-680.500,-180.500,-241.500
3.096,106.500,-669.500,-181.500,-241.500
3.097,105.000,-657.500,-177.500,-243.000
3.098,109.000,-641.500,-168.000,-243.000
3.099,118.000,-618.000,-157.500,-240.500
3.100,129.500,-587.000,-148.000,-232.000
3.101,135.500,-550.000,-142.000,-217.000
3.102,133.500,-511.500,-138.000,-194.000
3.103,124.000,-475.500,-135.500,-167.000
3.104,108.000,-443.000,-133.000,-141.500
3.105,89.000,-412.000,-130.000,-123.000
3.106,64.500,-379.500,-126.500,-114.500
3.107,35.000,-346.500,-122.500,-111.500
3.108,0.500,-314.000,-118.000,-109.500
3.109,-34.500,-287.000,-113.000,-105.500
3.110,-65.000,-265.500,-109.500,-100.000
3.111,-87.000,-249.000,-108.000,-96.500
3.112,-100.000,-237.500,-110.000,-94.000
3.113,-105.000,-230.000,-112.500,-89.000
3.114,-105.000,-226.000,-111.500,-79.500
3.115,-99.500,-225.000,-104.500,-69.000
3.116,-85.500,-225.500,-91.000,-62.500
3.117,-61.500,-225.000,-76.000,-64.500
3.118,-27.500,-220.500,-65.500,-70.500
3.119,10.500,-214.000,-60.500,-73.500
3.120,49.000,-213.000,-59.500,-69.500
3.121,92.500,-225.000,-61.000,-60.000
3.122,133.000,-253.500,-56.000,-51.500
3.123,151.500,-292.500,-39.000,-49.000
3.124,178.000,-317.000,-30.500,-48.500
3.125,193.500,-315.000,-32.000,-45.000
3.126,196.000,-291.000,-47.000,-37.000
3.127,186.500,-259.500,-71.500,-25.000
3.128,169.500,-233.000,-97.500,-12.000
3.129,142.000,-205.000,-121.500,0.000
3.130,103.000,-158.500,-143.000,12.000
3.131,56.500,-90.000,-165.000,26.000
3.132,13.000,-19.500,-186.500,39.000
3.133,-11.500,18.000,-203.000,47.000
3.134,-13.500,7.000,-210.500,47.000
3.135,-2.000,-23.000,-203.000,40.500
3.136,-1.000,-22.000,-184.000,31.500
3.137,-23.000,40.000,-157.000,25.000
3.138,-62.500,144.500,-125.500,21.000
3.139,-100.500,238.000,-90.500,20.000
3.140,-119.000,274.500,-51.500,18.500
3.141,-115.000,251.500,-9.500,15.500
3.142,-100.000,201.000,33.500,12.000
3.143,-88.000,157.000,72.000,9.000
3.144,-84.500,129.500,103.000,6.500
3.145,-83.000,103.000,126.000,3.500
3.146,-77.000,62.500,143.500,-1.500
3.147,-64.000,12.000,157.500,-6.000
3.148,-44.500,-32.500,168.000,-8.500
3.149,-23.500,-58.500,172.000,-4.000
3.150,-1.500,-67.000,166.500,6.500
3.151,21.500,-69.500,151.000,19.500
3.152,45.000,-75.000,129.500,27.500
3.153,67.000,-84.500,104.500,27.500
3.154,84.500,-92.000,75.000,19.500
3.155,95.500,-94.500,37.500,8.000
3.156,102.000,-90.000,-5.500,-1.000
3.157,106.000,-79.500,-45.000,-3.000
3.158,108.000,-64.500,-67.000,1.000
3.159,109.000,-44.500,-67.000,8.500
3.160,105.500,-21.000,-54.500,15.500
