'Elapsed time','AECG1','AECG2','AECG3','AECG4'
'seconds','uV','uV','uV','uV'
0.000,271.000,380.500,295.000,268.500
0.001,270.500,380.000,294.000,267.500
0.002,268.500,378.500,292.000,266.000
0.003,266.500,376.500,289.500,263.500
0.004,264.500,374.500,287.000,261.000
0.005,262.500,373.000,284.500,258.500
0.006,261.000,371.500,282.500,257.000
0.007,260.000,370.500,281.500,255.500
0.008,259.500,370.000,281.000,255.000
0.009,259.500,370.000,281.000,254.500
0.010,259.500,370.500,281.000,255.000
0.011,260.000,371.000,281.500,255.500
0.012,261.000,371.500,282.500,256.500
0.013,262.000,372.500,284.000,257.500
0.014,263.000,373.500,285.000,258.500
0.015,264.500,375.000,287.000,260.000
0.016,266.000,376.500,288.500,262.000
0.017,268.000,378.000,290.500,263.500
0.018,269.500,379.000,292.000,265.000
0.019,270.500,380.000,293.000,266.000
0.020,270.500,379.500,293.000,266.500
0.021,270.000,379.000,292.500,265.500
0.022,268.500,377.500,291.000,264.500
0.023,266.500,375.500,288.500,262.000
0.024,264.500,373.500,286.000,259.500
0.025,262.000,371.500,283.500,257.000
0.026,260.000,370.000,282.000,255.000
0.027,258.500,369.000,280.500,253.500
0.028,258.000,368.500,279.500,252.500
0.029,257.500,368.000,279.000,252.000
0.030,257.500,368.000,279.000,251.500
0.031,258.000,368.500,279.000,252.000
0.032,258.500,368.500,279.500,252.500
0.033,259.000,369.000,280.000,253.000
0.034,260.000,370.000,281.000,254.000
0.035,261.000,371.000,282.500,255.000
0.036,262.500,372.000,284.000,256.500
0.037,264.000,373.000,285.500,258.000
0.038,265.000,374.000,287.000,259.000
0.039,265.500,374.000,287.500,259.500
0.040,265.500,373.500,287.000,259.500
0.041,264.500,372.500,286.000,258.000
0.042,262.500,370.500,284.000,256.000
0.043,260.500,368.500,281.000,253.500
0.044,258.000,366.500,278.500,251.000
0.045,256.000,364.500,275.500,248.500
0.046,254.000,363.000,273.500,246.500
0.047,253.000,362.000,272.000,245.000
0.048,252.000,361.500,271.500,244.500
0.049,252.000,361.500,271.500,244.500
0.050,252.500,362.000,272.000,244.500
0.051,253.000,362.500,272.500,245.000
0.052,254.000,363.000,273.000,246.000
0.053,255.000,364.000,274.500,247.000
0.054,256.500,365.000,275.500,248.000
0.055,258.000,366.000,277.500,250.000
0.056,260.000,367.500,279.500,251.500
0.057,262.000,369.000,281.500,253.500
0.058,263.500,370.000,283.000,255.000
0.059,264.500,370.500,284.000,256.000
0.060,265.000,370.500,284.000,256.000
0.061,264.000,369.500,283.000,255.000
0.062,263.000,368.000,281.500,253.000
0.063,261.000,366.500,279.000,251.000
0.064,258.500,364.500,276.500,248.500
0.065,256.500,362.500,274.000,246.000
0.066,254.500,361.000,272.000,244.000
0.067,253.500,360.500,270.500,243.000
0.068,253.000,360.000,270.000,242.000
0.069,253.000,360.000,270.000,241.500
0.070,253.000,360.500,270.500,242.000
0.071,253.500,361.000,271.000,242.500
0.072,254.500,362.000,271.500,243.000
0.073,255.000,363.000,272.500,244.000
0.074,256.500,364.000,274.000,245.500
0.075,258.000,365.500,275.500,247.000
0.076,259.500,366.500,277.500,249.000
0.077,261.000,368.000,279.500,250.500
0.078,262.500,369.000,281.000,252.500
0.079,263.500,369.500,282.000,253.000
0.080,263.500,369.500,282.000,253.500
0.081,263.000,369.000,281.000,252.500
0.082,262.000,367.500,279.500,251.000
0.083,260.000,365.500,277.000,248.500
0.084,258.000,364.000,274.500,246.500
0.085,256.000,362.500,272.500,244.500
0.086,254.500,361.500,271.000,243.000
0.087,253.500,360.500,270.000,242.000
0.088,253.500,360.500,269.500,241.500
0.089,253.500,360.500,270.000,241.500
0.090,254.500,361.000,270.500,242.000
0.091,255.000,362.000,271.500,243.000
0.092,256.000,362.500,272.500,244.000
0.093,257.000,363.500,273.500,245.000
0.094,258.000,364.500,275.000,246.500
0.095,259.500,366.000,276.500,248.000
0.096,261.000,367.000,278.500,250.000
0.097,263.000,368.500,280.500,251.500
0.098,264.500,370.000,282.500,253.000
0.099,265.500,370.500,283.500,254.000
0.100,266.000,370.500,283.500,254.000
0.101,265.500,370.000,283.000,253.500
0.102,264.000,369.000,281.500,251.500
0.103,262.000,367.500,279.000,249.500
0.104,260.000,366.000,277.000,247.500
0.105,258.500,364.500,275.000,245.500
0.106,257.000,363.500,273.500,244.000
0.107,256.000,362.500,272.500,243.000
0.108,255.500,362.500,272.500,243.000
0.109,256.000,363.000,272.500,243.000
0.110,256.500,363.500,273.000,243.500
0.111,257.000,364.000,273.500,244.500
0.112,258.000,364.500,274.500,245.000
0.113,258.500,365.000,275.000,246.000
0.114,259.500,366.000,276.500,247.000
0.115,260.500,367.000,277.500,248.500
0.116,262.000,368.000,279.000,250.000
0.117,263.500,369.500,281.000,251.500
0.118,264.500,370.500,282.000,252.500
0.119,265.500,370.500,283.000,253.500
0.120,265.500,370.500,283.000,253.500
0.121,265.000,369.500,282.000,252.500
0.122,263.500,368.500,280.500,251.000
0.123,261.500,367.000,278.500,249.000
0.124,259.500,365.000,276.000,246.500
0.125,257.500,363.500,273.500,244.000
0.126,256.000,362.500,272.000,242.500
0.127,255.000,362.000,271.000,241.500
0.128,254.500,362.000,270.500,241.000
0.129,254.500,362.000,270.500,241.000
0.130,254.500,362.500,271.000,241.500
0.131,255.000,363.500,271.500,242.500
0.132,256.000,364.000,272.500,243.500
0.133,257.000,365.000,273.500,244.500
0.134,258.000,366.000,275.000,246.000
0.135,259.500,367.000,277.000,247.500
0.136,261.500,368.500,279.500,249.500
0.137,263.000,369.500,281.500,251.000
0.138,264.500,370.500,283.000,253.000
0.139,265.500,371.500,284.000,253.500
0.140,265.500,371.500,284.000,254.000
0.141,265.000,370.500,283.000,253.000
0.142,263.500,369.500,281.500,251.500
0.143,261.500,367.500,279.000,249.000
0.144,259.000,365.500,276.000,246.500
0.145,256.500,363.500,273.500,244.000
0.146,254.500,362.000,271.500,242.000
0.147,253.500,361.000,270.000,240.500
0.148,252.500,360.500,269.500,239.500
0.149,252.000,360.000,269.000,239.500
0.150,251.500,360.000,269.000,239.500
0.151,251.500,360.000,269.500,239.500
0.152,252.000,360.500,270.000,240.000
0.153,252.500,361.500,270.500,241.000
0.154,253.500,362.500,272.000,242.000
0.155,255.000,363.500,273.500,243.500
0.156,256.000,364.500,275.000,245.500
0.157,258.000,366.000,277.000,247.000
0.158,259.500,367.000,278.500,248.500
0.159,260.500,367.500,279.500,249.500
0.160,261.000,367.500,279.500,249.500
0.161,260.500,367.000,279.000,249.000
0.162,259.500,365.500,277.500,247.500
0.163,257.500,364.000,276.000,245.500
0.164,255.500,362.500,273.500,243.500
0.165,254.000,361.500,272.000,241.500
0.166,252.500,360.500,270.500,240.000
0.167,251.500,360.000,269.500,239.000
0.168,251.000,360.000,269.000,239.000
0.169,250.500,360.500,269.000,239.000
0.170,251.000,360.500,269.000,239.000
0.171,251.000,361.000,269.500,239.500
0.172,251.500,361.500,270.500,240.000
0.173,252.500,362.000,271.000,241.000
0.174,253.000,363.000,272.500,242.000
0.175,254.000,364.000,274.000,243.500
0.176,255.000,365.000,275.500,245.000
0.177,256.500,366.000,277.500,247.000
0.178,257.500,366.500,279.000,248.500
0.179,257.500,366.500,279.500,249.000
0.180,257.000,365.500,279.000,249.000
0.181,255.000,364.000,277.500,247.500
0.182,252.500,362.000,275.000,245.500
0.183,249.000,359.000,271.500,243.000
0.184,246.000,356.500,268.500,240.000
0.185,243.500,354.500,266.000,237.500
0.186,241.500,353.000,264.000,236.000
0.187,240.500,352.500,262.500,235.000
0.188,240.000,352.000,262.000,234.000
0.189,239.500,352.000,261.500,234.000
0.190,239.500,352.000,262.000,234.000
0.191,240.000,352.500,262.000,234.000
0.192,240.500,352.500,262.500,234.000
0.193,241.000,353.500,263.500,234.500
0.194,242.000,354.000,264.500,235.500
0.195,243.500,355.000,266.000,236.500
0.196,245.500,356.500,267.500,238.000
0.197,247.500,358.000,270.000,240.000
0.198,250.000,360.000,271.500,241.500
0.199,251.500,361.000,273.000,242.000
0.200,252.000,361.500,273.000,242.000
0.201,252.000,361.500,273.000,241.000
0.202,251.000,360.500,271.500,239.500
0.203,249.500,359.500,269.500,237.500
0.204,247.500,358.000,267.500,235.000
0.205,245.500,356.500,265.500,233.000
0.206,244.000,355.500,264.000,232.000
0.207,243.000,354.500,262.500,231.000
0.208,242.000,354.000,262.000,230.500
0.209,242.000,353.500,262.000,231.000
0.210,242.000,353.500,262.000,231.500
0.211,242.500,354.000,262.500,232.000
0.212,243.000,354.500,263.500,233.000
0.213,244.000,355.500,264.500,234.000
0.214,245.000,356.500,266.000,235.500
0.215,246.500,358.000,267.500,237.000
0.216,248.000,359.000,269.500,238.500
0.217,250.000,360.500,271.500,240.500
0.218,251.500,361.500,273.000,242.000
0.219,252.500,362.000,274.500,243.000
0.220,252.500,362.000,274.500,243.000
0.221,252.000,361.500,273.500,242.500
0.222,250.000,360.000,272.000,240.500
0.223,248.000,358.500,270.000,238.500
0.224,246.000,357.000,267.500,236.500
0.225,244.000,355.500,265.500,234.500
0.226,242.500,354.500,264.000,233.000
0.227,241.500,354.000,263.500,232.000
0.228,241.500,353.500,263.000,231.500
0.229,241.500,354.000,263.000,231.500
0.230,242.000,354.500,263.500,232.000
0.231,242.000,355.000,264.000,232.500
0.232,243.000,355.500,264.500,233.000
0.233,243.500,356.500,266.000,234.000
0.234,244.500,357.500,267.000,235.500
0.235,245.500,358.500,268.500,236.500
0.236,246.500,359.500,270.500,238.000
0.237,248.000,361.000,272.000,240.000
0.238,249.500,362.000,273.500,241.000
0.239,250.500,362.500,274.500,242.000
0.240,251.000,362.500,274.500,241.500
0.241,250.500,361.500,273.500,241.000
0.242,249.000,359.500,271.500,239.000
0.243,246.500,357.500,269.000,236.500
0.244,244.000,355.000,266.000,234.000
0.245,241.000,353.000,263.000,231.000
0.246,239.000,351.000,261.000,229.000
0.247,237.500,350.000,259.500,227.500
0.248,237.000,349.500,258.500,226.500
0.249,236.500,349.500,258.500,226.500
0.250,236.500,349.500,258.500,227.000
0.251,237.000,349.500,259.000,227.500
0.252,237.500,350.000,260.000,228.500
0.253,238.500,351.000,261.000,229.500
0.254,239.500,352.000,262.000,231.000
0.255,240.500,353.000,263.500,232.500
0.256,241.500,354.000,265.000,234.000
0.257,242.500,355.000,266.500,235.500
0.258,243.500,356.000,268.000,236.500
0.259,244.500,356.500,268.500,237.000
0.260,244.500,356.500,269.000,237.000
0.261,243.500,355.500,268.000,235.500
0.262,242.000,354.000,266.000,234.000
0.263,240.000,352.000,263.500,231.500
0.264,238.000,350.500,261.000,229.000
0.265,236.000,349.000,259.000,227.000
0.266,234.000,347.500,257.000,225.500
0.267,233.000,347.000,256.000,224.500
0.268,233.000,346.500,256.000,224.500
0.269,233.000,346.500,256.000,224.500
0.270,233.500,347.000,256.500,225.000
0.271,234.000,347.500,257.000,225.500
0.272,234.500,348.000,258.000,226.500
0.273,235.500,349.000,259.500,228.000
0.274,237.000,350.000,261.000,229.500
0.275,238.500,351.500,263.000,231.000
0.276,240.000,352.500,265.000,233.000
0.277,241.500,354.000,266.500,235.000
0.278,242.500,355.500,268.000,236.500
0.279,243.500,356.000,269.000,237.000
0.280,243.500,356.000,269.000,237.000
0.281,243.000,355.500,268.500,236.500
0.282,242.000,354.000,266.500,234.500
0.283,240.000,352.500,264.500,232.500
0.284,238.000,350.500,262.000,230.000
0.285,236.000,349.000,259.500,228.000
0.286,234.000,347.500,258.000,226.500
0.287,233.000,347.000,256.500,225.500
0.288,232.500,346.500,256.000,225.000
0.289,232.500,346.500,256.000,225.000
0.290,233.000,347.000,256.500,225.000
0.291,233.500,347.500,256.500,225.500
0.292,234.000,348.000,257.500,226.500
0.293,235.000,348.500,258.500,227.000
0.294,236.000,349.500,260.000,228.500
0.295,237.500,350.500,261.500,229.500
0.296,239.000,352.000,263.500,231.500
0.297,240.500,353.000,265.000,233.000
0.298,241.500,353.500,266.500,234.500
0.299,242.500,354.000,267.000,235.000
0.300,242.500,354.000,267.000,235.000
0.301,242.000,353.000,266.000,234.000
0.302,240.500,351.500,264.000,232.500
0.303,239.000,350.000,262.000,230.000
0.304,236.500,348.000,259.500,227.500
0.305,234.500,346.000,257.000,225.000
0.306,232.500,344.500,255.000,223.000
0.307,231.500,344.000,253.500,221.500
0.308,231.000,343.500,252.500,221.000
0.309,230.500,343.500,252.000,220.500
0.310,230.500,343.500,252.500,221.000
0.311,231.000,344.000,253.000,221.000
0.312,231.500,344.500,254.000,221.500
0.313,232.000,345.000,255.000,222.500
0.314,233.000,346.000,256.000,223.500
0.315,234.500,347.000,257.500,225.000
0.316,236.000,348.000,259.000,226.500
0.317,237.500,349.500,261.000,228.500
0.318,239.000,350.500,262.500,229.500
0.319,240.000,351.000,263.000,230.500
0.320,240.000,351.000,263.000,230.500
0.321,239.500,350.000,262.000,229.000
0.322,238.000,348.500,260.500,227.500
0.323,236.000,346.500,258.000,225.000
0.324,234.000,344.500,255.500,222.500
0.325,231.500,342.500,253.000,220.000
0.326,229.500,341.000,251.000,218.500
0.327,228.500,340.000,250.000,217.000
0.328,227.500,339.500,249.000,216.000
0.329,227.000,339.500,248.500,216.000
0.330,227.000,339.500,248.500,216.000
0.331,227.500,339.500,249.000,216.000
0.332,228.000,340.000,249.500,216.500
0.333,228.500,340.500,250.000,217.000
0.334,229.500,341.500,251.000,218.000
0.335,231.000,342.500,252.500,219.500
0.336,232.500,343.500,254.500,221.000
0.337,234.000,344.500,256.500,222.500
0.338,235.500,345.500,258.000,224.000
0.339,236.500,346.000,259.000,225.000
0.340,236.500,346.000,259.000,225.500
0.341,236.000,345.000,258.000,225.000
0.342,234.500,344.000,256.500,223.500
0.343,232.500,342.000,254.500,222.000
0.344,230.000,340.500,252.000,219.500
0.345,228.000,339.000,249.500,217.500
0.346,226.500,337.500,248.000,215.500
0.347,225.500,337.000,247.000,214.500
0.348,225.000,336.500,246.500,214.000
0.349,224.500,336.500,246.500,213.500
0.350,225.000,336.500,246.500,214.000
0.351,225.000,337.000,247.000,214.500
0.352,225.500,337.500,248.000,215.500
0.353,226.500,338.500,249.000,216.500
0.354,227.500,339.000,250.500,218.000
0.355,229.000,340.500,252.000,219.500
0.356,230.500,341.500,253.500,221.000
0.357,232.000,343.000,255.500,222.500
0.358,233.500,344.000,257.500,224.000
0.359,235.000,344.500,258.500,225.000
0.360,235.000,344.500,258.500,225.500
0.361,235.000,344.000,258.000,224.500
0.362,233.500,342.500,256.000,223.000
0.363,231.500,341.000,254.000,221.000
0.364,229.000,339.500,251.500,218.500
0.365,227.000,337.500,249.000,216.500
0.366,225.000,336.500,247.000,214.500
0.367,224.000,335.500,245.500,213.500
0.368,223.000,335.000,245.000,212.500
0.369,222.500,334.500,244.500,212.000
0.370,222.500,334.500,244.500,212.000
0.371,223.000,335.000,245.000,212.000
0.372,223.500,335.000,245.000,212.000
0.373,224.000,335.500,246.000,212.500
0.374,224.500,336.000,246.500,213.000
0.375,225.500,336.500,247.500,214.000
0.376,227.000,337.500,249.000,215.500
0.377,228.500,338.500,250.500,217.000
0.378,229.500,339.500,252.000,218.000
0.379,230.500,340.000,252.500,219.000
0.380,230.000,339.500,252.500,219.000
0.381,229.000,338.000,251.500,218.500
0.382,227.000,336.000,249.500,217.000
0.383,224.500,334.000,246.500,214.500
0.384,221.500,331.500,244.000,212.000
0.385,219.000,329.500,241.500,210.000
0.386,217.000,328.500,239.500,208.500
0.387,215.500,327.500,238.500,208.000
0.388,214.500,327.500,238.500,208.500
0.389,214.000,327.500,239.000,209.500
0.390,214.000,328.500,240.000,211.000
0.391,214.500,329.500,241.500,213.500
0.392,215.500,330.500,243.500,216.000
0.393,216.500,332.500,246.000,219.000
0.394,218.500,335.000,249.000,222.500
0.395,220.500,337.500,252.500,226.500
0.396,223.000,340.000,256.000,230.500
0.397,226.000,343.000,259.500,235.000
0.398,228.500,345.500,263.000,238.500
0.399,230.500,347.500,265.500,241.500
0.400,231.500,348.500,267.500,244.000
0.401,232.000,349.500,268.000,245.000
0.402,232.000,349.500,268.000,245.000
0.403,231.500,349.000,267.500,244.500
0.404,230.500,348.500,266.500,243.000
0.405,230.000,348.000,265.500,242.000
0.406,230.000,348.000,264.500,240.500
0.407,230.500,348.000,264.000,239.000
0.408,231.000,348.500,263.500,237.500
0.409,232.000,349.000,263.000,236.000
0.410,233.000,349.000,262.500,234.500
0.411,234.000,349.500,262.500,233.500
0.412,235.000,350.000,262.500,233.000
0.413,237.000,351.000,263.500,232.500
0.414,238.500,352.000,264.500,232.500
0.415,240.500,353.500,266.000,233.000
0.416,243.000,355.000,267.500,234.000
0.417,245.000,356.000,269.000,234.500
0.418,246.500,356.500,270.500,235.000
0.419,247.000,356.500,270.500,235.000
0.420,247.000,356.000,270.000,234.000
0.421,246.000,354.500,268.500,232.000
0.422,244.500,352.500,266.000,229.500
0.423,242.000,350.500,263.000,226.500
0.424,239.500,348.500,259.500,223.500
0.425,237.000,346.500,257.000,220.500
0.426,235.500,345.000,254.500,218.500
0.427,234.000,344.000,253.000,217.000
0.428,233.000,343.500,252.000,216.000
0.429,232.500,343.000,252.000,215.500
0.430,232.500,343.000,252.000,215.500
0.431,232.000,343.000,252.000,215.500
0.432,232.500,343.500,252.500,216.500
0.433,233.000,344.000,253.500,217.000
0.434,233.500,344.500,255.000,218.500
0.435,234.500,345.500,256.500,220.000
0.436,235.500,346.500,258.000,222.000
0.437,236.500,347.500,260.000,224.000
0.438,237.500,348.000,261.000,225.000
0.439,238.500,348.500,262.000,226.000
0.440,238.000,348.000,262.000,226.000
0.441,237.500,347.500,261.000,225.000
0.442,235.500,346.000,259.000,223.500
0.443,233.500,344.000,256.500,221.500
0.444,231.000,342.000,253.500,219.000
0.445,228.500,340.000,251.500,217.000
0.446,226.500,339.000,249.500,215.000
0.447,225.000,338.000,248.000,214.000
0.448,224.000,337.500,247.500,213.000
0.449,223.500,337.500,247.000,212.500
0.450,223.500,337.500,247.000,212.500
0.451,223.500,338.000,247.500,213.000
0.452,224.000,338.000,248.000,213.500
0.453,225.000,339.000,249.000,214.000
0.454,226.000,340.000,250.000,215.000
0.455,227.000,341.000,251.000,216.500
0.456,228.500,342.500,253.000,218.500
0.457,230.500,343.500,254.500,220.000
0.458,232.000,344.500,256.500,222.000
0.459,233.000,345.000,257.500,223.000
0.460,233.500,345.000,258.000,223.000
0.461,233.000,344.500,257.500,222.500
0.462,231.500,343.500,256.000,220.500
0.463,230.000,341.500,253.500,218.500
0.464,227.500,339.500,251.000,216.000
0.465,225.500,337.500,248.500,214.000
0.466,223.500,336.000,246.500,212.000
0.467,222.500,335.000,245.000,211.000
0.468,221.500,334.500,244.500,210.500
0.469,221.500,334.000,244.500,210.000
0.470,221.500,334.500,244.500,210.000
0.471,222.000,334.500,245.000,210.500
0.472,222.500,335.000,245.500,211.000
0.473,223.000,336.000,246.500,212.000
0.474,224.000,337.000,247.500,213.000
0.475,225.500,338.000,249.000,214.500
0.476,227.000,339.500,251.000,216.000
0.477,228.500,341.000,253.000,217.500
0.478,230.000,342.000,254.500,219.000
0.479,231.500,343.000,255.500,220.000
0.480,231.500,343.000,256.000,220.500
0.481,231.000,342.000,255.500,220.000
0.482,230.000,340.500,254.000,218.500
0.483,227.500,338.500,251.500,216.500
0.484,225.000,336.500,249.000,214.000
0.485,223.000,335.000,246.500,212.000
0.486,221.000,333.500,245.000,210.000
0.487,220.000,333.000,243.500,209.000
0.488,219.500,332.500,243.000,208.500
0.489,219.500,332.500,243.000,208.500
0.490,219.500,333.000,243.500,208.500
0.491,220.500,333.500,244.000,209.000
0.492,221.000,334.500,245.000,210.000
0.493,222.000,335.000,246.000,211.500
0.494,223.500,336.000,247.500,212.500
0.495,224.500,337.000,249.000,214.000
0.496,226.500,338.500,251.000,216.000
0.497,228.000,340.000,253.000,218.000
0.498,230.000,341.000,254.500,219.500
0.499,231.000,341.500,255.500,220.500
0.500,231.000,341.000,255.500,220.500
0.501,230.500,340.500,255.000,220.000
0.502,229.000,339.000,253.000,218.000
0.503,227.000,337.000,251.000,216.000
0.504,224.500,335.500,248.000,213.500
0.505,222.000,334.000,245.500,211.500
0.506,220.500,332.500,243.500,209.500
0.507,219.000,332.000,242.500,208.000
0.508,218.500,332.000,242.000,207.500
0.509,218.500,332.000,241.500,207.500
0.510,218.500,332.000,242.000,207.500
0.511,219.000,332.500,242.500,208.000
0.512,219.500,333.000,243.500,208.500
0.513,220.500,334.000,244.500,209.500
0.514,221.500,335.000,246.000,210.500
0.515,223.000,336.000,247.000,212.000
0.516,224.500,337.000,249.000,213.500
0.517,226.000,338.500,250.500,215.000
0.518,227.500,339.500,252.000,216.500
0.519,228.500,340.000,253.000,217.500
0.520,228.500,340.000,253.000,217.500
0.521,228.500,339.500,252.500,216.500
0.522,227.000,338.000,251.000,215.000
0.523,225.500,337.000,249.000,213.000
0.524,223.500,335.000,246.500,211.000
0.525,221.500,333.500,244.500,209.000
0.526,220.000,332.500,243.000,207.500
0.527,219.000,332.000,241.500,206.500
0.528,218.500,331.500,241.500,206.500
0.529,218.500,332.000,241.500,206.500
0.530,219.000,332.500,242.000,207.000
0.531,219.500,333.500,242.500,207.500
0.532,220.500,334.000,243.500,208.500
0.533,221.500,335.000,244.500,209.500
0.534,222.500,336.500,245.500,210.500
0.535,224.000,338.000,247.500,212.000
0.536,226.000,339.500,249.500,214.000
0.537,228.000,341.000,252.000,216.000
0.538,229.500,342.500,254.000,218.000
0.539,231.000,343.000,255.000,219.500
0.540,231.500,343.500,255.500,220.000
0.541,231.000,343.000,255.000,219.000
0.542,230.000,341.500,253.000,218.000
0.543,228.000,340.000,251.000,215.500
0.544,226.000,338.500,248.500,213.500
0.545,224.000,337.000,246.000,211.000
0.546,222.500,336.000,244.500,209.500
0.547,221.500,335.000,243.500,208.500
0.548,221.000,335.000,243.000,208.000
0.549,221.000,335.000,243.000,208.000
0.550,221.500,335.500,243.500,208.500
0.551,222.000,336.000,244.500,209.500
0.552,222.500,336.500,245.000,210.500
0.553,223.500,337.500,246.500,211.500
0.554,224.500,338.500,248.000,213.000
0.555,226.000,339.500,249.500,215.000
0.556,227.500,341.000,251.500,217.000
0.557,229.500,342.500,254.000,219.500
0.558,231.000,344.000,256.000,221.500
0.559,232.500,344.500,257.000,223.000
0.560,233.000,345.000,257.500,223.000
0.561,232.500,344.500,257.000,222.500
0.562,231.500,343.500,255.500,221.000
0.563,230.000,342.000,253.500,219.000
0.564,228.500,340.500,251.500,217.000
0.565,226.500,339.000,249.500,215.500
0.566,225.000,338.000,248.000,214.000
0.567,224.500,337.500,247.500,213.500
0.568,224.000,337.500,247.000,213.500
0.569,224.500,338.000,247.500,213.500
0.570,224.500,338.500,247.500,214.000
0.571,225.000,339.500,248.500,215.000
0.572,226.000,340.500,249.500,216.000
0.573,227.000,342.000,251.000,217.500
0.574,228.500,343.500,252.500,219.000
0.575,230.000,345.000,254.500,221.000
0.576,231.500,346.500,256.500,223.000
0.577,233.500,348.000,259.000,225.000
0.578,235.500,349.500,261.000,227.000
0.579,236.500,350.500,262.500,228.500
0.580,237.000,350.500,263.000,229.000
0.581,237.000,350.000,262.500,228.500
0.582,236.000,349.000,261.500,227.500
0.583,234.500,347.500,259.500,225.500
0.584,232.500,346.000,257.500,224.000
0.585,231.000,345.000,256.000,222.500
0.586,229.500,344.000,254.500,221.000
0.587,228.500,344.000,253.500,220.000
0.588,228.500,344.000,253.500,220.000
0.589,229.000,344.500,254.000,220.000
0.590,230.000,345.500,254.500,221.000
0.591,231.000,346.500,255.500,222.000
0.592,232.000,347.500,257.000,223.000
0.593,233.500,348.500,258.500,224.500
0.594,235.000,349.500,260.500,226.000
0.595,236.500,351.000,262.000,227.500
0.596,238.500,353.000,264.500,230.000
0.597,240.500,354.500,266.500,232.000
0.598,242.000,356.000,268.000,234.000
0.599,243.000,356.500,269.500,235.500
0.600,243.000,356.500,269.500,236.000
0.601,242.500,356.000,269.000,235.500
0.602,240.500,354.500,267.000,234.000
0.603,238.000,352.000,264.500,232.000
0.604,235.000,349.500,261.500,230.000
0.605,232.000,347.000,258.500,227.500
0.606,229.000,345.000,256.000,226.000
0.607,227.000,343.500,254.500,225.000
0.608,226.000,343.000,254.000,224.500
0.609,226.000,343.000,253.500,224.500
0.610,226.000,343.500,254.000,224.500
0.611,226.500,344.000,254.500,225.000
0.612,227.500,345.000,255.500,226.000
0.613,228.000,345.500,256.500,226.500
0.614,229.000,346.500,257.500,227.500
0.615,230.500,347.500,259.000,229.000
0.616,232.000,348.500,260.500,230.500
0.617,234.000,350.500,262.500,232.000
0.618,235.500,352.000,264.000,233.500
0.619,237.000,353.000,265.500,234.500
0.620,238.000,354.000,266.000,235.000
0.621,238.500,354.000,266.000,234.500
0.622,238.000,353.500,265.000,233.000
0.623,237.500,352.500,263.000,231.000
0.624,236.000,351.000,261.000,229.000
0.625,234.500,350.000,259.000,227.000
0.626,233.000,349.000,257.500,225.500
0.627,232.000,348.500,256.500,225.000
0.628,231.500,348.000,256.000,224.500
0.629,231.000,348.000,256.000,224.500
0.630,230.500,348.000,256.000,224.500
0.631,230.500,348.500,256.500,225.000
0.632,231.000,348.500,257.000,226.000
0.633,231.500,349.000,258.000,226.500
0.634,232.500,350.000,259.000,228.000
0.635,233.500,351.000,260.000,229.500
0.636,234.500,352.000,261.500,231.000
0.637,236.000,353.000,263.500,232.500
0.638,237.000,353.500,264.500,234.000
0.639,237.500,354.000,265.500,234.500
0.640,237.500,353.500,265.500,234.500
0.641,236.500,352.500,264.500,233.500
0.642,235.000,351.000,262.500,232.000
0.643,233.000,349.500,260.000,229.500
0.644,231.000,347.500,257.500,227.000
0.645,229.000,345.500,255.000,225.000
0.646,227.000,344.000,253.000,223.000
0.647,226.000,343.500,252.000,222.000
0.648,225.500,343.000,251.500,221.000
0.649,226.000,343.000,251.500,221.000
0.650,226.500,343.500,251.500,221.500
0.651,227.000,344.000,252.000,222.000
0.652,227.500,345.000,253.000,222.500
0.653,228.500,345.500,253.500,223.000
0.654,229.500,346.500,255.000,224.000
0.655,231.000,347.500,256.500,225.500
0.656,232.500,349.000,258.000,227.500
0.657,234.500,350.500,260.000,229.000
0.658,236.000,352.000,262.000,230.500
0.659,237.500,352.500,263.000,231.500
0.660,237.500,352.500,263.000,231.500
0.661,237.000,351.500,262.500,231.000
0.662,236.000,350.500,261.000,229.500
0.663,234.000,348.500,258.500,227.500
0.664,232.000,347.000,256.000,225.000
0.665,229.500,345.000,253.500,222.500
0.666,228.000,343.500,251.500,220.500
0.667,226.500,343.000,250.500,219.000
0.668,226.000,342.500,249.500,218.000
0.669,226.000,342.500,249.500,218.000
0.670,226.000,342.500,249.500,218.000
0.671,226.500,343.000,250.000,218.500
0.672,227.000,343.500,250.500,219.000
0.673,228.000,344.500,251.500,220.000
0.674,229.000,345.500,253.000,221.000
0.675,230.500,347.000,254.500,222.500
0.676,232.000,348.500,256.500,224.500
0.677,234.000,350.000,258.500,226.000
0.678,235.500,351.000,260.000,227.500
0.679,236.500,352.000,261.000,228.500
0.680,237.000,352.000,261.500,228.500
0.681,236.500,351.500,260.500,228.000
0.682,235.500,350.500,259.000,226.500
0.683,234.000,348.500,257.500,224.500
0.684,232.000,347.000,255.000,222.500
0.685,230.500,345.500,253.000,220.500
0.686,229.000,344.000,251.500,218.500
0.687,228.000,343.500,250.000,217.500
0.688,227.500,343.500,249.500,217.000
0.689,227.500,343.500,249.500,216.500
0.690,227.500,344.000,249.500,217.000
0.691,228.000,345.000,250.000,217.500
0.692,228.500,345.500,251.000,218.000
0.693,229.500,346.500,252.000,219.000
0.694,230.500,347.000,253.500,220.000
0.695,232.000,348.000,255.000,221.500
0.696,233.500,349.500,256.500,223.000
0.697,235.000,351.000,258.500,224.500
0.698,236.500,352.000,260.500,226.000
0.699,237.500,353.000,261.500,226.500
0.700,238.000,353.000,262.000,226.500
0.701,237.500,352.500,261.500,226.000
0.702,236.500,351.000,260.000,224.500
0.703,235.000,349.500,258.000,222.500
0.704,233.000,347.500,255.500,220.000
0.705,231.000,346.000,253.000,218.000
0.706,229.000,344.500,251.000,216.000
0.707,228.000,343.500,250.000,215.000
0.708,227.000,343.500,249.000,214.500
0.709,227.000,343.500,249.000,214.500
0.710,227.000,344.000,249.500,215.000
0.711,227.500,344.500,250.000,215.000
0.712,228.000,345.000,251.000,215.500
0.713,229.000,345.500,252.000,216.500
0.714,230.000,346.500,253.000,217.500
0.715,231.500,347.500,254.500,219.000
0.716,233.500,349.000,256.500,221.000
0.717,235.000,350.500,258.500,223.000
0.718,237.000,351.500,260.000,224.500
0.719,238.000,352.500,261.500,226.000
0.720,238.500,352.500,261.500,226.000
0.721,238.000,352.000,261.000,225.500
0.722,237.000,351.000,259.500,224.000
0.723,235.500,349.500,257.500,222.000
0.724,233.000,347.500,255.000,219.500
0.725,231.000,346.000,253.000,217.500
0.726,229.500,344.500,251.500,216.000
0.727,228.500,343.500,250.000,214.500
0.728,228.000,343.000,249.500,214.000
0.729,227.500,343.500,249.500,214.000
0.730,228.000,344.000,249.500,214.500
0.731,228.500,344.500,250.500,215.000
0.732,229.000,345.500,251.000,216.000
0.733,230.000,346.500,252.500,217.000
0.734,231.000,347.500,254.000,218.500
0.735,232.500,349.000,255.500,220.000
0.736,234.000,350.000,257.000,221.500
0.737,236.000,351.500,259.000,223.500
0.738,237.500,353.000,261.000,225.000
0.739,238.500,353.500,262.000,226.000
0.740,239.000,353.500,262.000,226.000
0.741,238.500,353.000,261.500,225.500
0.742,237.000,352.000,260.000,224.000
0.743,235.500,350.000,257.500,222.500
0.744,233.500,348.500,255.000,220.000
0.745,232.000,347.000,253.000,218.000
0.746,230.500,345.500,251.500,216.500
0.747,229.500,345.000,250.500,215.500
0.748,229.000,344.500,250.000,215.000
0.749,229.000,345.000,250.000,214.500
0.750,229.000,345.000,250.500,215.000
0.751,229.500,346.000,251.000,215.500
0.752,230.000,347.000,252.000,216.500
0.753,231.000,348.000,253.000,218.000
0.754,232.000,349.000,254.500,219.000
0.755,233.500,350.000,256.500,221.000
0.756,235.000,351.000,258.500,222.500
0.757,237.000,352.500,260.500,224.500
0.758,239.000,354.000,262.500,226.500
0.759,240.000,354.500,263.500,227.500
0.760,241.000,354.500,264.000,227.500
0.761,240.500,354.000,263.000,227.000
0.762,239.500,353.000,261.500,225.000
0.763,237.500,351.000,259.500,223.000
0.764,235.500,349.500,257.000,220.500
0.765,233.500,348.000,254.500,218.500
0.766,232.000,346.500,252.500,216.500
0.767,230.500,346.000,251.500,215.500
0.768,230.000,345.500,250.500,215.000
0.769,229.500,345.500,250.500,214.500
0.770,229.500,345.500,250.500,215.000
0.771,229.500,346.000,251.500,215.000
0.772,229.500,346.500,252.500,216.000
0.773,230.500,347.500,253.500,216.500
0.774,231.000,348.500,255.000,218.000
0.775,232.500,349.500,256.500,219.000
0.776,234.000,351.000,258.500,220.500
0.777,236.000,352.500,260.000,222.500
0.778,237.500,353.500,262.000,224.500
0.779,238.500,354.500,263.000,225.500
0.780,239.000,354.500,263.500,226.000
0.781,238.500,354.000,263.000,225.500
0.782,237.500,353.000,262.000,224.000
0.783,235.500,351.500,260.000,222.000
0.784,233.500,350.000,257.500,220.000
0.785,231.500,348.500,255.000,217.500
0.786,229.500,347.000,253.000,215.500
0.787,228.000,346.500,251.500,214.500
0.788,227.500,346.000,251.000,214.000
0.789,227.500,346.500,251.000,214.000
0.790,228.000,346.500,252.000,214.500
0.791,229.000,347.500,252.500,215.500
0.792,230.000,348.000,253.500,216.500
0.793,231.000,349.000,255.000,218.000
0.794,232.500,350.000,256.500,219.000
0.795,234.000,351.000,258.000,221.000
0.796,235.500,353.000,260.000,223.000
0.797,238.000,354.500,262.500,225.000
0.798,239.500,356.000,264.500,226.500
0.799,241.000,357.000,266.000,228.000
0.800,242.000,357.500,266.500,228.000
0.801,242.000,357.000,266.000,228.000
0.802,241.000,356.000,265.000,226.500
0.803,239.500,354.500,263.000,225.000
0.804,237.500,353.000,261.000,223.000
0.805,235.500,351.500,259.000,221.000
0.806,234.000,350.500,257.500,219.500
0.807,233.000,350.000,256.000,218.500
0.808,232.500,350.000,256.000,218.500
0.809,232.500,350.500,256.000,218.500
0.810,233.000,351.000,256.500,219.000
0.811,233.500,351.500,257.000,219.500
0.812,234.000,352.000,258.000,220.500
0.813,235.000,353.000,259.500,221.500
0.814,236.500,354.500,260.500,223.000
0.815,238.000,355.500,262.500,224.500
0.816,240.000,357.000,264.000,226.500
0.817,241.500,358.500,266.000,228.500
0.818,243.500,359.500,268.000,229.500
0.819,244.500,360.000,269.000,230.500
0.820,245.000,360.000,269.000,230.500
0.821,244.500,359.000,268.500,230.000
0.822,243.000,358.000,267.000,228.500
0.823,241.500,356.500,265.000,226.500
0.824,239.500,354.500,262.500,224.000
0.825,238.000,353.000,260.500,222.000
0.826,236.500,351.500,258.500,220.000
0.827,235.500,351.000,257.500,219.000
0.828,235.000,351.000,257.000,218.500
0.829,235.000,351.500,257.000,219.000
0.830,235.500,352.000,257.500,219.500
0.831,236.500,353.000,258.500,220.500
0.832,237.500,354.000,259.500,222.000
0.833,238.500,355.000,261.000,223.000
0.834,240.000,356.500,263.000,225.000
0.835,241.500,358.000,264.500,226.500
0.836,243.500,359.500,267.000,228.500
0.837,245.500,361.500,269.000,231.000
0.838,247.500,363.000,271.000,233.000
0.839,249.000,364.000,272.500,234.500
0.840,249.500,364.500,273.500,235.000
0.841,249.500,364.000,273.000,234.500
0.842,248.500,363.500,272.000,233.500
0.843,247.000,362.000,270.000,231.500
0.844,245.000,360.500,267.500,229.500
0.845,243.000,358.500,265.000,227.000
0.846,241.500,357.500,263.500,225.000
0.847,240.000,356.500,262.000,224.000
0.848,239.500,356.000,261.500,223.000
0.849,239.000,356.000,261.500,223.000
0.850,239.500,356.000,261.500,223.000
0.851,240.000,356.500,262.500,223.500
0.852,240.500,357.000,263.500,224.500
0.853,241.500,358.000,264.500,225.500
0.854,243.000,359.000,266.000,227.000
0.855,244.500,360.000,267.500,228.500
0.856,246.000,361.000,269.500,230.500
0.857,248.000,362.500,271.000,232.500
0.858,249.500,363.500,273.000,234.000
0.859,251.000,364.500,274.000,235.500
0.860,251.500,364.500,274.500,236.000
0.861,251.000,364.000,273.500,235.500
0.862,250.000,363.000,272.500,234.000
0.863,248.500,361.500,270.500,232.000
0.864,246.500,360.000,268.000,229.500
0.865,244.500,358.500,265.500,227.500
0.866,243.000,357.500,264.000,226.000
0.867,241.500,356.500,262.500,225.000
0.868,241.000,356.000,262.000,224.500
0.869,240.500,356.500,262.000,224.500
0.870,240.500,356.500,262.000,224.500
0.871,241.000,357.000,263.000,225.000
0.872,241.500,358.000,264.000,226.000
0.873,242.500,359.000,265.000,227.500
0.874,243.500,360.000,266.500,228.500
0.875,245.000,361.000,268.500,230.000
0.876,246.500,362.000,270.000,231.500
0.877,248.500,363.500,272.000,233.500
0.878,250.000,365.000,274.000,235.000
0.879,251.500,366.000,275.500,236.500
0.880,252.500,366.000,276.000,237.000
0.881,252.000,366.000,275.500,236.500
0.882,251.000,364.500,274.000,235.500
0.883,249.500,363.000,272.000,233.500
0.884,247.500,361.500,270.000,231.500
0.885,245.000,359.500,267.500,229.500
0.886,243.500,358.000,266.000,228.000
0.887,242.500,357.000,264.500,227.000
0.888,242.000,357.000,264.000,227.000
0.889,242.000,357.000,264.000,226.500
0.890,242.000,357.500,264.500,227.000
0.891,242.500,358.000,265.000,227.500
0.892,243.500,359.000,266.000,228.500
0.893,244.000,360.000,267.500,229.500
0.894,245.500,361.000,269.000,231.000
0.895,247.000,362.500,270.500,232.500
0.896,248.500,364.000,272.500,234.500
0.897,250.000,365.500,274.500,236.500
0.898,252.000,366.500,276.500,238.500
0.899,253.000,367.500,278.000,239.500
0.900,253.500,367.500,278.500,240.000
0.901,253.000,366.500,278.000,239.500
0.902,251.500,365.500,276.500,238.000
0.903,249.500,363.500,274.000,236.000
0.904,247.500,362.000,271.500,233.500
0.905,245.000,360.500,269.500,231.500
0.906,243.500,359.500,267.500,229.500
0.907,242.500,358.500,266.000,228.500
0.908,242.000,358.500,265.500,228.000
0.909,242.000,358.500,265.500,227.500
0.910,242.500,359.000,266.000,228.000
0.911,243.000,359.000,266.500,228.500
0.912,244.000,360.000,267.500,229.500
0.913,245.000,361.000,268.500,230.500
0.914,246.000,362.000,270.000,232.000
0.915,247.500,363.500,272.000,233.500
0.916,249.000,364.500,274.000,235.500
0.917,251.000,366.000,276.000,237.000
0.918,252.500,367.500,277.500,239.000
0.919,253.500,368.000,279.000,240.000
0.920,254.000,368.500,279.000,240.500
0.921,253.500,368.000,278.500,240.000
0.922,252.500,367.000,277.000,238.500
0.923,250.500,365.500,275.000,236.500
0.924,248.500,363.500,272.500,234.000
0.925,246.500,362.000,270.500,232.000
0.926,245.000,360.500,268.500,230.000
0.927,244.000,359.500,267.000,229.000
0.928,243.000,359.000,266.500,228.000
0.929,243.000,359.000,266.000,227.500
0.930,243.000,359.500,266.000,228.000
0.931,243.500,360.000,267.000,228.500
0.932,244.500,361.000,268.000,229.000
0.933,245.500,362.000,269.000,230.000
0.934,246.500,363.000,271.000,231.500
0.935,248.000,364.500,272.500,233.000
0.936,250.000,366.000,275.000,235.000
0.937,252.000,367.500,277.000,237.000
0.938,254.000,369.000,279.000,239.000
0.939,255.500,370.000,280.000,240.000
0.940,256.000,370.500,281.000,240.500
0.941,256.000,370.000,280.500,240.000
0.942,255.000,369.000,279.500,239.000
0.943,253.500,367.500,277.500,237.000
0.944,251.500,366.000,275.000,235.000
0.945,249.500,364.500,273.000,233.000
0.946,248.000,363.500,271.500,231.500
0.947,247.000,363.000,270.500,230.000
0.948,246.500,362.500,270.000,229.500
0.949,246.500,362.500,270.000,229.500
0.950,247.000,363.000,270.500,230.000
0.951,247.500,363.500,271.000,230.500
0.952,248.500,364.500,272.000,231.000
0.953,249.500,365.000,273.000,232.500
0.954,250.500,366.000,274.000,233.500
0.955,251.500,367.500,275.500,235.500
0.956,253.500,369.000,277.500,237.000
0.957,255.000,370.500,279.500,239.500
0.958,257.000,372.000,281.500,241.000
0.959,258.500,373.000,283.000,242.000
0.960,259.000,373.500,283.500,242.500
0.961,258.500,373.000,283.000,242.000
0.962,257.500,372.000,281.500,241.000
0.963,256.000,370.500,279.500,239.000
0.964,254.000,369.000,277.000,237.000
0.965,252.000,367.500,275.000,234.500
0.966,250.500,366.500,273.000,233.000
0.967,249.000,365.500,272.000,232.000
0.968,248.500,365.000,271.500,231.500
0.969,248.500,365.000,271.000,231.500
0.970,248.500,365.000,271.500,231.500
0.971,249.000,365.500,272.000,232.500
0.972,249.500,366.000,273.000,233.000
0.973,250.500,366.500,274.000,234.000
0.974,251.500,367.500,275.500,235.500
0.975,252.500,369.000,277.000,237.000
0.976,254.000,370.000,278.500,238.500
0.977,256.000,372.000,280.500,240.500
0.978,257.500,373.000,282.500,242.500
0.979,258.500,374.000,283.500,243.500
0.980,259.000,374.000,284.000,244.000
0.981,258.500,373.500,284.000,243.500
0.982,258.000,372.500,282.500,242.000
0.983,256.500,371.000,281.000,240.500
0.984,254.500,369.500,279.000,238.500
0.985,253.000,368.000,276.500,236.500
0.986,251.500,367.000,275.000,235.000
0.987,250.000,366.500,274.000,233.500
0.988,249.500,366.000,273.000,233.000
0.989,249.000,365.500,273.000,232.500
0.990,249.000,365.500,273.000,232.500
0.991,249.500,366.000,273.500,232.500
0.992,250.000,366.500,274.000,233.000
0.993,251.000,367.000,274.500,233.500
0.994,251.500,367.500,275.500,234.000
0.995,253.000,368.500,276.500,235.000
0.996,254.000,369.500,278.000,236.500
0.997,255.500,370.500,279.500,238.000
0.998,256.500,371.500,281.000,239.500
0.999,257.500,372.000,282.000,240.500
1.000,257.500,372.000,282.000,241.000
1.001,257.000,371.000,281.500,240.000
1.002,255.500,369.500,279.500,238.500
1.003,253.000,367.500,277.000,236.500
1.004,250.500,365.500,274.500,234.000
1.005,248.000,363.000,271.500,232.000
1.006,245.500,361.500,269.500,230.000
1.007,244.000,360.500,268.000,229.000
1.008,242.500,360.000,267.500,229.000
1.009,242.500,360.000,267.500,229.500
1.010,242.500,360.500,268.500,231.000
1.011,243.000,361.500,270.000,233.000
1.012,244.000,363.500,272.000,235.500
1.013,246.000,365.500,275.000,239.000
1.014,248.000,368.000,278.500,242.500
1.015,250.000,371.000,282.500,247.000
1.016,253.000,374.500,286.500,251.500
1.017,256.000,377.500,291.000,256.000
1.018,259.000,380.500,295.000,260.500
1.019,261.500,383.000,298.000,264.000
1.020,263.000,384.500,300.500,266.000
1.021,263.500,385.500,301.500,267.500
1.022,263.000,385.500,301.500,267.500
1.023,262.000,384.500,301.000,267.500
1.024,261.000,384.000,300.000,266.500
1.025,260.000,383.000,299.000,266.000
1.026,259.500,382.500,298.000,265.000
1.027,259.500,382.500,297.500,264.500
1.028,259.500,382.500,297.500,263.500
1.029,260.000,382.500,297.000,262.500
1.030,260.500,382.500,296.500,261.000
1.031,261.000,382.500,296.500,260.000
1.032,262.000,383.000,296.500,259.500
1.033,263.000,384.000,297.000,259.000
1.034,265.000,385.000,298.000,259.000
1.035,267.000,386.500,299.000,259.500
1.036,269.500,388.500,301.000,260.000
1.037,271.500,390.000,302.500,261.000
1.038,273.500,390.500,304.000,262.000
1.039,274.500,391.000,304.500,262.000
1.040,274.500,390.500,304.000,261.000
1.041,274.000,389.000,302.000,259.000
1.042,272.500,387.000,300.000,256.000
1.043,270.000,384.500,296.500,252.500
1.044,268.000,382.000,293.500,249.000
1.045,265.500,380.000,290.000,245.500
1.046,264.000,378.500,288.000,242.500
1.047,263.000,377.500,286.000,240.500
1.048,263.000,377.500,285.500,239.500
1.049,263.000,377.500,285.000,238.500
1.050,263.500,378.000,285.000,238.500
1.051,264.000,378.500,285.500,239.000
1.052,264.500,379.000,286.500,239.500
1.053,265.000,379.500,287.000,240.500
1.054,265.500,380.000,288.000,241.500
1.055,266.000,381.000,289.500,242.500
1.056,267.000,381.500,291.000,244.500
1.057,268.500,382.500,292.500,246.000
1.058,269.500,383.500,294.000,247.500
1.059,270.000,383.500,295.000,249.000
1.060,269.500,383.000,295.000,249.000
1.061,268.500,382.000,294.000,248.500
1.062,266.500,380.000,292.000,246.500
1.063,264.500,378.000,289.500,244.500
1.064,261.500,375.500,286.500,242.000
1.065,259.000,373.500,284.000,239.500
1.066,257.000,372.000,282.000,238.000
1.067,255.500,370.500,280.500,236.500
1.068,254.500,370.000,280.000,236.000
1.069,254.500,370.000,279.500,236.000
1.070,254.500,370.500,280.000,236.000
1.071,254.500,371.000,280.500,236.500
1.072,255.000,371.500,281.000,237.000
1.073,256.000,372.500,282.500,238.000
1.074,257.000,373.500,284.000,239.500
1.075,258.500,375.000,285.500,241.000
1.076,260.500,376.500,287.500,243.000
1.077,262.000,377.500,289.500,245.000
1.078,264.000,379.000,291.500,247.000
1.079,265.000,379.500,293.000,248.000
1.080,266.000,380.000,293.500,248.500
1.081,265.500,379.500,292.500,248.500
1.082,264.500,378.000,291.000,247.000
1.083,262.500,376.500,289.000,245.000
1.084,260.500,374.500,286.500,243.000
1.085,258.500,373.000,284.000,240.500
1.086,256.500,371.500,282.500,239.000
1.087,255.000,371.000,281.000,237.500
1.088,254.500,370.500,280.000,237.000
1.089,254.500,370.500,280.000,236.500
1.090,254.500,371.000,280.500,237.000
1.091,254.500,371.500,281.000,237.000
1.092,255.500,372.000,281.500,238.000
1.093,256.500,372.500,282.500,238.500
1.094,257.500,373.500,284.000,240.000
1.095,259.000,374.500,285.500,241.500
1.096,261.000,376.000,287.500,243.000
1.097,263.000,377.500,289.500,245.500
1.098,265.000,379.000,292.000,247.000
1.099,266.000,380.000,293.500,248.500
1.100,266.500,380.500,294.000,249.500
1.101,266.500,380.500,294.000,249.500
1.102,265.000,379.500,293.000,248.500
1.103,263.500,378.000,291.000,246.500
1.104,261.500,376.500,289.000,244.500
1.105,260.000,374.500,287.000,242.500
1.106,258.000,373.500,285.000,241.000
1.107,257.000,373.000,284.000,240.000
1.108,257.000,373.000,283.500,239.500
1.109,257.000,373.000,283.500,239.500
1.110,257.500,374.000,284.000,240.000
1.111,258.000,374.500,285.000,241.000
1.112,259.000,375.500,286.000,242.000
1.113,260.500,376.500,287.500,243.500
1.114,262.000,377.500,289.000,245.000
1.115,263.500,379.000,291.000,247.000
1.116,265.500,380.500,293.000,248.500
1.117,267.000,382.000,295.000,250.500
1.118,268.500,383.000,297.000,252.000
1.119,269.500,384.000,298.000,253.000
1.120,269.500,384.000,298.500,253.500
1.121,269.000,383.500,297.500,253.000
1.122,267.500,382.500,296.000,252.000
1.123,266.000,381.000,294.000,250.000
1.124,264.000,379.500,292.000,248.000
1.125,262.000,378.000,289.500,246.000
1.126,260.500,377.000,288.000,244.500
1.127,260.000,376.500,287.000,243.500
1.128,259.500,376.500,287.000,243.500
1.129,259.500,377.000,287.000,243.500
1.130,260.000,377.500,287.500,244.000
1.131,260.500,378.000,288.000,244.500
1.132,261.500,378.500,289.000,245.500
1.133,262.000,379.500,290.000,246.500
1.134,263.500,380.500,291.500,247.500
1.135,264.500,381.500,293.000,249.500
1.136,266.500,383.000,295.000,251.000
1.137,268.000,384.500,297.000,253.000
1.138,269.500,386.000,298.500,255.000
1.139,271.000,386.500,300.000,256.000
1.140,271.000,387.000,300.500,256.500
1.141,271.000,386.500,299.500,256.000
1.142,270.000,385.500,298.500,254.500
1.143,268.500,384.000,296.500,252.500
1.144,266.500,382.500,294.500,250.500
1.145,264.500,381.000,292.000,248.000
1.146,263.000,380.000,290.000,246.500
1.147,261.500,379.500,289.000,245.500
1.148,261.000,379.500,288.000,245.000
1.149,260.500,379.500,288.000,245.000
1.150,261.000,380.000,288.500,245.500
1.151,261.000,380.500,289.000,246.000
1.152,262.000,381.000,290.000,247.000
1.153,263.000,382.000,291.000,248.000
1.154,264.000,382.500,292.500,249.000
1.155,265.500,384.000,294.000,250.500
1.156,267.000,385.000,296.000,252.000
1.157,269.000,386.000,298.000,254.000
1.158,271.000,387.000,299.500,255.500
1.159,272.000,388.000,300.500,257.000
1.160,272.500,388.000,301.000,257.500
1.161,272.500,388.000,300.500,257.000
1.162,271.000,387.000,299.000,256.000
1.163,269.500,385.500,297.000,254.000
1.164,267.000,384.000,294.500,252.000
1.165,265.000,382.500,292.500,250.000
1.166,263.500,381.000,290.500,248.000
1.167,262.000,380.500,289.500,247.000
1.168,261.500,380.000,289.000,246.500
1.169,261.500,380.000,289.000,246.500
1.170,261.500,380.000,289.500,246.500
1.171,262.000,380.500,290.000,247.000
1.172,262.500,381.500,291.000,248.000
1.173,263.000,382.500,292.000,249.500
1.174,264.500,384.000,293.000,251.000
1.175,266.000,385.000,295.000,252.500
1.176,267.500,386.500,297.000,254.500
1.177,269.500,388.000,299.000,256.500
1.178,271.500,389.500,301.000,258.000
1.179,273.000,390.500,302.500,259.500
1.180,273.500,391.000,303.000,260.000
1.181,273.500,390.500,303.000,259.500
1.182,272.500,389.500,301.500,258.500
1.183,270.500,388.500,300.000,257.000
1.184,269.000,387.000,297.500,255.000
1.185,267.000,385.500,295.500,253.500
1.186,265.500,384.500,294.000,252.000
1.187,264.500,384.000,293.000,251.000
1.188,264.000,384.000,292.500,251.000
1.189,264.000,384.500,292.500,251.000
1.190,264.000,385.000,293.000,251.500
1.191,264.500,385.500,293.500,252.000
1.192,265.500,386.500,294.500,253.000
1.193,266.000,387.500,296.000,254.000
1.194,267.500,388.500,297.500,255.500
1.195,269.000,390.000,299.000,257.000
1.196,270.500,391.000,301.000,259.000
1.197,272.000,392.500,303.000,260.500
1.198,274.000,393.500,304.500,262.500
1.199,275.000,394.000,306.000,264.000
1.200,275.500,394.500,306.500,264.500
1.201,275.000,394.000,306.000,264.500
1.202,274.000,393.000,305.000,263.500
1.203,272.000,391.500,303.500,261.500
1.204,270.500,390.000,301.500,259.500
1.205,268.500,388.500,299.500,257.500
1.206,267.000,387.500,297.500,256.500
1.207,266.000,386.500,296.500,255.500
1.208,265.000,386.500,296.000,255.000
1.209,265.000,386.500,296.000,255.000
1.210,265.000,387.000,296.500,255.000
1.211,265.500,387.500,297.000,256.000
1.212,266.500,388.500,298.000,256.500
1.213,267.500,389.000,299.000,257.500
1.214,268.500,390.000,300.000,259.000
1.215,270.000,391.500,301.500,260.500
1.216,272.000,393.000,303.500,262.500
1.217,274.000,394.500,306.000,264.500
1.218,276.000,395.500,308.000,266.500
1.219,277.000,396.500,309.500,267.500
1.220,278.000,397.000,310.000,268.000
1.221,278.000,397.000,309.500,268.000
1.222,277.000,396.000,308.500,267.000
1.223,276.000,395.000,306.500,265.000
1.224,274.000,393.500,304.500,263.500
1.225,272.000,392.000,302.500,261.500
1.226,270.500,390.500,300.500,260.000
1.227,269.500,389.500,299.500,259.000
1.228,269.000,389.500,299.000,258.500
1.229,268.500,389.000,299.000,258.500
1.230,268.500,389.500,299.000,259.000
1.231,269.000,390.000,299.500,260.000
1.232,269.500,391.000,300.500,261.000
1.233,270.500,392.000,302.000,262.000
1.234,272.000,393.000,303.500,263.500
1.235,273.500,394.500,305.500,265.000
1.236,275.000,396.000,307.500,267.000
1.237,277.000,397.500,310.000,269.500
1.238,278.500,398.500,312.000,271.000
1.239,280.000,399.500,313.000,272.500
1.240,280.500,400.000,313.500,273.000
1.241,280.500,399.500,313.000,272.500
1.242,279.500,399.000,312.000,271.500
1.243,278.000,397.500,310.500,269.500
1.244,276.000,396.000,308.500,267.500
1.245,274.000,394.500,306.000,265.500
1.246,272.500,393.500,304.500,264.000
1.247,271.500,393.000,303.500,263.000
1.248,271.000,392.500,303.000,262.500
1.249,271.000,393.000,303.000,262.500
1.250,271.000,393.500,303.500,262.500
1.251,271.500,394.000,304.000,263.500
1.252,272.500,395.000,305.000,264.000
1.253,273.000,396.000,306.000,265.000
1.254,274.000,397.000,307.000,266.000
1.255,275.000,398.000,308.500,267.500
1.256,276.500,399.000,310.500,269.000
1.257,278.000,400.500,312.500,271.000
1.258,279.500,401.500,314.000,272.500
1.259,280.500,402.000,315.000,273.500
1.260,281.500,402.500,315.500,274.000
1.261,281.000,402.000,315.000,273.500
1.262,280.000,401.000,313.500,272.500
1.263,278.500,399.500,311.500,270.500
1.264,276.000,397.500,309.000,268.500
1.265,274.000,396.000,306.500,266.000
1.266,272.000,394.500,304.500,264.000
1.267,270.500,393.500,303.500,263.000
1.268,269.500,393.000,302.500,262.000
1.269,269.500,393.000,302.500,262.000
1.270,269.500,393.000,302.500,262.000
1.271,270.000,393.000,303.000,262.500
1.272,270.500,393.500,303.500,263.000
1.273,271.500,394.500,304.500,264.000
1.274,272.500,395.500,305.500,265.000
1.275,274.000,396.500,307.000,266.000
1.276,275.500,397.500,309.000,267.500
1.277,277.000,398.500,310.500,269.000
1.278,278.500,399.500,312.000,270.500
1.279,280.000,400.000,313.500,271.500
1.280,280.000,400.000,313.500,271.500
1.281,280.000,399.000,313.000,271.000
1.282,278.500,398.000,311.000,269.500
1.283,276.500,396.500,309.000,267.500
1.284,274.500,394.500,306.000,265.000
1.285,272.500,393.000,303.500,262.500
1.286,270.500,391.500,301.500,260.500
1.287,269.000,390.500,300.000,259.500
1.288,268.000,390.000,299.500,258.500
1.289,268.000,390.000,299.000,258.000
1.290,268.000,390.000,298.500,257.500
1.291,268.000,390.000,299.000,258.000
1.292,268.500,390.500,299.500,258.500
1.293,269.500,391.000,300.000,259.000
1.294,270.500,392.000,301.500,260.000
1.295,272.000,393.000,303.000,261.500
1.296,273.500,394.500,305.000,263.000
1.297,275.500,396.000,307.000,265.000
1.298,277.500,397.500,308.500,266.500
1.299,279.000,398.500,310.000,267.500
1.300,279.500,399.000,310.500,268.000
1.301,279.500,398.500,310.000,267.500
1.302,278.500,397.500,308.500,266.500
1.303,277.000,396.000,306.500,264.500
1.304,275.000,394.000,304.000,262.500
1.305,273.000,392.500,302.000,260.000
1.306,271.500,391.500,300.000,258.000
1.307,271.000,390.500,299.000,257.000
1.308,270.500,390.500,298.500,256.500
1.309,270.500,390.500,298.000,256.500
1.310,271.000,391.000,298.500,257.000
1.311,271.500,391.500,299.000,257.500
1.312,272.000,392.000,300.000,258.500
1.313,273.000,393.000,301.000,259.500
1.314,274.000,394.000,302.500,261.000
1.315,275.500,395.500,304.500,262.500
1.316,277.500,397.000,306.500,264.500
1.317,279.000,399.000,308.500,266.500
1.318,281.000,400.000,310.500,268.000
1.319,282.000,401.000,312.000,269.500
1.320,282.500,401.500,312.500,269.500
1.321,282.500,401.000,312.000,269.000
1.322,281.500,400.000,310.500,267.500
1.323,279.500,398.500,308.500,265.500
1.324,277.500,396.500,306.500,263.500
1.325,275.500,395.000,304.000,261.500
1.326,273.500,394.000,302.500,259.500
1.327,272.500,393.000,301.500,258.500
1.328,272.000,393.000,301.000,258.000
1.329,272.000,393.000,301.000,258.500
1.330,272.000,393.500,301.000,258.500
1.331,272.500,394.000,301.500,259.000
1.332,273.500,394.500,302.500,260.000
1.333,274.500,395.500,303.500,261.000
1.334,275.500,396.500,305.000,262.000
1.335,277.500,398.000,306.500,264.000
1.336,279.000,399.500,308.500,265.500
1.337,280.500,400.500,310.500,267.500
1.338,282.000,402.000,312.500,269.000
1.339,283.000,402.500,313.500,270.000
1.340,283.000,402.500,313.500,270.000
1.341,282.500,402.000,313.000,269.000
1.342,281.500,400.500,311.500,267.500
1.343,279.500,399.000,309.000,265.500
1.344,277.000,397.000,307.000,263.000
1.345,275.000,395.000,304.500,260.500
1.346,273.000,393.500,302.500,259.000
1.347,271.500,393.000,301.000,257.500
1.348,271.000,392.500,300.000,256.500
1.349,270.500,392.000,299.500,256.500
1.350,270.500,392.000,299.500,256.500
1.351,270.500,392.500,300.000,257.000
1.352,271.500,393.500,301.000,258.000
1.353,272.500,394.500,302.000,259.000
1.354,273.500,395.500,303.500,260.000
1.355,275.000,397.000,305.000,262.000
1.356,277.000,398.500,307.000,264.000
1.357,279.000,400.500,309.500,266.000
1.358,281.000,402.000,311.500,267.500
1.359,282.500,403.500,313.000,269.000
1.360,283.500,404.000,314.000,270.000
1.361,283.500,404.000,313.500,269.500
1.362,282.500,403.000,312.500,268.500
1.363,281.000,401.500,310.500,267.000
1.364,279.000,400.000,308.500,265.000
1.365,277.500,398.500,306.000,263.000
1.366,276.000,397.500,304.500,261.500
1.367,275.000,396.500,303.500,261.000
1.368,274.500,396.500,303.000,260.500
1.369,274.500,397.000,303.000,260.500
1.370,274.500,397.500,303.000,261.000
1.371,275.000,398.000,304.000,261.500
1.372,276.000,398.500,305.000,262.000
1.373,277.000,399.500,306.000,263.000
1.374,278.000,400.500,307.500,264.500
1.375,279.500,401.500,309.000,266.000
1.376,281.000,403.000,311.000,267.500
1.377,283.000,404.000,313.000,269.500
1.378,284.500,405.500,314.500,271.000
1.379,286.000,406.000,316.000,272.000
1.380,286.500,406.500,316.000,272.500
1.381,286.000,405.500,315.500,271.500
1.382,284.500,404.500,313.500,270.000
1.383,282.500,403.000,311.500,268.000
1.384,280.000,401.000,308.500,265.500
1.385,278.000,399.500,306.000,263.000
1.386,276.000,398.000,304.000,261.000
1.387,274.500,396.500,302.500,260.000
1.388,274.000,396.000,302.000,259.000
1.389,274.000,396.000,301.500,259.000
1.390,274.000,396.500,302.000,259.500
1.391,274.500,397.000,302.500,259.500
1.392,275.500,398.000,303.000,260.500
1.393,276.000,398.500,304.000,261.000
1.394,277.000,399.500,305.500,262.000
1.395,278.000,401.000,307.500,263.500
1.396,279.500,402.000,309.500,265.500
1.397,281.000,403.500,311.500,267.500
1.398,283.000,405.000,313.500,269.500
1.399,284.000,406.000,315.000,270.500
1.400,284.500,406.500,315.000,271.500
1.401,285.000,406.500,315.000,271.500
1.402,284.000,405.500,313.500,270.500
1.403,282.500,404.000,311.500,269.000
1.404,281.000,403.000,309.500,267.000
1.405,279.000,401.500,307.000,265.000
1.406,277.500,400.500,305.500,263.500
1.407,276.000,399.500,304.500,262.500
1.408,275.500,399.500,304.000,262.000
1.409,275.500,399.500,304.000,262.500
1.410,276.000,400.000,304.500,262.500
1.411,276.500,400.500,305.500,263.500
1.412,277.000,401.500,306.500,264.500
1.413,278.000,402.500,307.500,265.500
1.414,279.500,403.500,309.000,267.000
1.415,280.500,405.000,311.000,268.500
1.416,282.000,406.000,312.500,270.500
1.417,284.000,407.500,315.000,272.500
1.418,286.000,408.500,317.000,274.000
1.419,287.500,409.500,318.500,275.500
1.420,288.000,410.000,319.500,276.000
1.421,288.000,410.000,319.000,275.500
1.422,287.000,409.000,318.000,274.500
1.423,285.500,407.500,316.500,272.500
1.424,283.500,406.000,314.000,270.000
1.425,281.500,404.500,312.000,268.000
1.426,279.500,403.500,310.000,266.500
1.427,278.500,403.000,309.000,265.500
1.428,278.000,402.500,308.500,265.000
1.429,278.000,403.000,308.000,265.000
1.430,278.000,403.500,308.500,265.000
1.431,278.500,404.000,309.000,266.000
1.432,279.500,404.500,310.000,267.000
1.433,280.500,405.500,311.000,268.000
1.434,281.500,406.500,312.500,269.500
1.435,283.000,407.500,314.000,271.000
1.436,284.500,409.500,316.000,273.000
1.437,286.500,411.000,318.500,275.000
1.438,288.500,413.000,321.000,277.000
1.439,290.500,414.500,323.000,278.500
1.440,291.500,415.000,324.000,279.500
1.441,292.000,415.500,324.000,279.000
1.442,291.500,415.000,323.000,278.000
1.443,290.000,414.000,321.500,276.500
1.444,288.500,412.500,319.500,274.500
1.445,286.500,411.000,317.500,272.500
1.446,285.000,410.000,316.000,271.000
1.447,283.500,409.000,315.000,269.500
1.448,283.000,409.000,314.500,269.000
1.449,282.500,409.000,314.500,269.000
1.450,283.000,409.000,314.500,269.500
1.451,283.000,409.500,315.000,270.500
1.452,283.500,409.500,316.000,271.000
1.453,284.500,410.000,317.000,272.500
1.454,285.000,411.000,318.000,273.500
1.455,285.500,412.000,319.000,275.000
1.456,286.500,413.000,320.500,277.000
1.457,287.500,414.000,322.500,279.000
1.458,289.000,415.000,324.000,280.500
1.459,290.000,416.000,325.500,282.000
1.460,290.500,416.000,326.000,282.500
1.461,290.000,415.500,325.500,282.500
1.462,289.000,414.500,324.500,281.500
1.463,287.500,413.000,322.500,279.500
1.464,285.500,411.000,320.000,277.500
1.465,283.500,409.500,317.500,275.000
1.466,281.500,408.500,315.500,273.500
1.467,280.500,407.500,314.000,272.000
1.468,280.000,407.500,313.500,271.000
1.469,280.500,407.500,313.500,271.000
1.470,281.000,408.000,314.000,271.000
1.471,282.000,409.500,315.000,271.500
1.472,283.500,410.500,316.000,272.000
1.473,285.500,412.000,317.500,273.000
1.474,287.500,414.000,319.500,274.500
1.475,289.500,416.000,322.000,276.000
1.476,292.000,418.000,324.000,278.000
1.477,294.000,420.000,326.500,280.000
1.478,296.000,421.500,328.500,282.500
1.479,297.000,422.500,329.500,283.500
1.480,297.500,422.500,330.000,284.500
1.481,297.000,422.000,329.500,284.000
1.482,295.500,420.500,328.500,282.500
1.483,293.500,419.000,326.500,281.000
1.484,291.500,417.000,324.000,279.000
1.485,289.500,415.000,322.000,277.000
1.486,287.500,413.500,320.000,275.500
1.487,286.000,413.000,319.000,274.500
1.488,285.500,412.500,318.500,274.000
1.489,285.500,413.000,318.500,274.000
1.490,285.500,413.000,318.500,274.500
1.491,286.000,414.000,319.500,275.500
1.492,287.000,415.000,320.500,276.000
1.493,288.000,416.000,321.500,277.000
1.494,289.500,417.000,323.000,278.500
1.495,291.000,418.500,324.500,280.000
1.496,292.500,420.000,326.000,282.000
1.497,294.500,421.000,328.000,284.000
1.498,296.000,422.500,330.000,285.500
1.499,297.500,423.500,331.000,287.000
1.500,298.000,423.500,331.500,287.500
1.501,298.000,423.500,331.500,287.000
1.502,296.500,422.000,330.000,285.500
1.503,295.000,420.500,328.000,283.500
1.504,293.000,418.500,325.500,281.000
1.505,290.500,416.500,323.000,279.000
1.506,288.500,415.000,321.000,277.000
1.507,287.500,414.000,319.500,275.500
1.508,286.500,413.500,319.000,275.000
1.509,286.000,413.500,318.500,274.500
1.510,286.000,413.500,318.500,274.500
1.511,286.500,414.000,319.000,275.000
1.512,287.000,414.500,319.500,275.500
1.513,287.500,415.000,320.500,276.000
1.514,288.500,416.000,321.500,277.500
1.515,290.000,417.000,323.000,279.000
1.516,291.500,418.000,325.000,280.500
1.517,293.000,419.500,327.000,282.500
1.518,295.000,420.500,328.500,284.000
1.519,296.000,421.500,330.000,285.500
1.520,296.500,421.500,330.500,286.000
1.521,296.500,421.000,330.000,285.500
1.522,295.500,420.000,328.500,284.500
1.523,294.000,418.500,326.500,282.500
1.524,292.000,417.000,324.000,280.500
1.525,290.000,415.500,322.000,278.500
1.526,288.500,414.500,320.500,277.000
1.527,287.000,414.500,320.000,276.500
1.528,286.500,414.500,319.500,276.000
1.529,286.500,414.500,320.000,276.000
1.530,287.000,415.000,320.500,276.500
1.531,287.500,415.000,321.000,277.000
1.532,288.000,415.500,321.500,277.500
1.533,289.000,416.500,322.500,278.000
1.534,290.000,417.000,323.500,279.500
1.535,291.000,418.000,325.000,280.500
1.536,292.500,419.500,327.000,282.500
1.537,294.000,421.000,328.500,284.500
1.538,295.500,422.000,330.500,286.000
1.539,297.000,423.000,331.500,287.500
1.540,297.500,423.000,332.000,288.000
1.541,297.000,422.500,331.500,287.500
1.542,296.000,421.500,330.500,286.000
1.543,294.000,419.500,328.000,284.500
1.544,292.000,418.000,325.500,282.000
1.545,290.000,416.000,323.500,280.000
1.546,288.000,414.500,321.500,278.500
1.547,287.000,413.500,320.000,277.000
1.548,286.000,413.000,319.500,276.000
1.549,286.000,413.000,319.000,275.500
1.550,286.000,413.500,319.000,275.500
1.551,286.500,413.500,319.500,275.500
1.552,287.000,414.000,320.000,276.000
1.553,288.000,415.000,321.000,277.000
1.554,289.000,415.500,322.000,278.000
1.555,290.000,416.500,323.500,279.000
1.556,291.500,418.000,325.000,280.500
1.557,293.000,419.500,326.500,282.000
1.558,294.500,420.500,328.500,284.000
1.559,296.000,422.000,330.000,285.000
1.560,297.000,422.000,330.500,285.500
1.561,296.500,421.500,330.000,285.000
1.562,295.500,420.500,328.500,284.000
1.563,294.000,418.500,326.500,282.000
1.564,291.500,416.500,324.000,279.500
1.565,289.500,415.000,321.500,277.000
1.566,287.500,413.500,319.500,275.000
1.567,286.500,413.000,318.000,274.000
1.568,286.000,412.500,317.500,273.500
1.569,286.500,413.000,318.000,273.500
1.570,286.500,413.500,318.500,274.500
1.571,287.000,414.000,319.000,275.000
1.572,287.500,415.000,319.500,276.000
1.573,288.500,415.500,320.500,277.500
1.574,289.500,416.500,322.000,278.500
1.575,290.500,417.500,323.500,280.000
1.576,292.000,419.000,325.500,282.000
1.577,294.000,420.500,327.500,283.500
1.578,296.000,421.500,329.500,285.500
1.579,297.500,422.500,331.000,287.000
1.580,298.000,423.000,331.500,287.500
1.581,298.000,423.000,331.500,287.000
1.582,297.000,422.000,330.500,286.000
1.583,295.500,420.500,328.500,284.500
1.584,293.500,419.000,326.500,282.000
1.585,292.000,417.500,324.500,280.000
1.586,290.500,416.500,323.000,278.500
1.587,290.000,416.000,321.500,277.500
1.588,289.500,416.000,321.000,277.500
1.589,290.000,416.500,321.500,277.500
1.590,290.500,417.000,322.000,278.000
1.591,291.000,418.000,322.500,279.000
1.592,292.000,419.000,324.000,280.000
1.593,293.000,420.000,325.000,281.000
1.594,294.500,421.500,327.000,282.500
1.595,296.000,423.000,329.000,284.500
1.596,298.000,424.500,331.500,286.500
1.597,300.000,426.500,333.500,288.500
1.598,302.000,428.000,335.500,290.500
1.599,303.000,429.000,337.000,292.000
1.600,304.000,429.500,338.000,292.500
1.601,304.000,429.500,337.500,292.000
1.602,303.000,428.500,336.500,291.000
1.603,301.500,427.000,334.500,289.500
1.604,299.500,425.000,332.000,287.000
1.605,297.500,423.000,329.000,285.000
1.606,296.000,421.500,327.000,283.000
1.607,294.500,420.500,326.000,282.000
1.608,294.000,420.000,325.000,281.000
1.609,293.500,420.000,325.000,281.000
1.610,294.000,420.000,325.500,281.000
1.611,294.500,421.000,326.000,281.500
1.612,295.000,421.500,326.500,282.500
1.613,296.500,423.000,328.000,283.500
1.614,297.500,424.000,329.500,285.000
1.615,299.000,425.500,331.000,286.500
1.616,301.000,427.000,333.000,288.500
1.617,303.000,428.500,335.000,290.000
1.618,304.500,430.000,337.000,292.000
1.619,306.000,430.500,338.500,293.000
1.620,306.500,430.500,338.500,293.500
1.621,306.000,429.500,338.000,293.000
1.622,304.500,428.000,336.500,291.500
1.623,302.000,425.500,333.500,289.000
1.624,299.500,423.000,330.500,286.000
1.625,297.000,421.000,327.500,283.500
1.626,294.500,419.000,325.000,281.000
1.627,293.000,418.000,323.000,279.000
1.628,292.000,417.000,322.000,278.000
1.629,291.500,417.000,321.500,277.500
1.630,291.500,417.000,322.000,277.500
1.631,291.500,417.000,322.500,278.000
1.632,292.000,417.500,323.000,278.500
1.633,293.000,418.000,324.000,280.000
1.634,293.500,418.500,325.000,281.000
1.635,294.500,419.500,326.500,283.000
1.636,295.500,420.500,328.500,285.000
1.637,297.000,422.000,330.500,287.000
1.638,298.500,423.000,332.500,289.000
1.639,299.500,424.500,334.500,291.000
1.640,300.000,425.000,335.000,292.500
1.641,300.000,425.000,335.500,293.500
1.642,299.000,424.500,335.000,293.500
1.643,298.000,423.500,334.000,293.500
1.644,296.000,422.500,333.000,293.500
1.645,294.500,422.000,332.500,294.000
1.646,293.500,421.500,332.000,294.500
1.647,293.000,422.500,333.000,296.000
1.648,293.000,423.500,334.500,297.500
1.649,294.000,425.000,336.000,299.500
1.650,294.500,427.000,338.000,302.000
1.651,296.000,428.500,340.000,304.000
1.652,297.500,430.500,342.000,306.500
1.653,299.500,432.500,344.500,309.000
1.654,302.000,434.500,347.000,311.500
1.655,304.500,436.500,350.000,314.500
1.656,307.500,439.500,353.000,317.000
1.657,310.500,442.000,356.000,319.500
1.658,314.000,444.500,359.000,321.000
1.659,316.500,446.000,360.500,321.500
1.660,318.000,447.000,361.000,321.000
1.661,318.500,446.500,360.500,319.500
1.662,318.500,445.500,359.000,316.500
1.663,317.500,444.000,356.500,313.500
1.664,316.500,442.500,353.500,309.500
1.665,315.000,441.000,351.000,306.500
1.666,314.000,439.500,348.500,303.500
1.667,313.500,439.000,347.000,301.500
1.668,313.000,438.500,346.000,300.000
1.669,313.000,438.500,345.500,299.000
1.670,313.000,438.000,345.500,298.000
1.671,313.000,438.000,345.000,298.000
1.672,313.000,438.000,345.000,297.500
1.673,313.500,437.500,345.000,297.500
1.674,314.000,437.500,345.000,297.500
1.675,315.000,438.000,345.500,297.500
1.676,316.000,438.500,346.500,298.500
1.677,317.000,439.500,348.000,299.500
1.678,318.500,440.000,349.000,300.500
1.679,319.500,440.500,350.000,301.000
1.680,320.000,440.500,350.000,301.500
1.681,319.500,440.000,349.500,300.500
1.682,318.500,439.000,348.000,299.500
1.683,316.500,437.000,345.500,297.500
1.684,314.500,435.000,343.500,295.500
1.685,312.500,433.000,341.000,293.500
1.686,310.500,431.500,339.000,291.500
1.687,308.500,430.500,338.000,290.500
1.688,307.500,429.500,337.000,290.000
1.689,307.000,429.500,336.500,289.500
1.690,306.500,429.500,336.500,290.000
1.691,307.000,429.500,336.500,290.500
1.692,307.000,430.000,337.000,291.000
1.693,307.500,430.500,338.000,291.500
1.694,308.500,431.000,339.000,293.000
1.695,309.500,431.500,340.500,294.000
1.696,310.500,432.500,342.000,296.000
1.697,312.000,433.500,344.000,297.500
1.698,313.500,435.000,345.500,299.500
1.699,314.500,435.500,347.000,301.000
1.700,315.000,435.500,347.500,301.500
1.701,315.000,435.000,347.500,301.000
1.702,313.500,434.000,346.000,300.000
1.703,312.000,432.500,344.000,298.000
1.704,309.500,431.000,342.000,296.000
1.705,307.500,429.000,339.500,294.000
1.706,305.500,428.000,337.500,292.000
1.707,304.500,427.000,336.000,291.000
1.708,303.500,427.000,335.500,290.500
1.709,303.500,427.000,335.000,290.000
1.710,304.000,427.500,335.500,290.500
1.711,305.000,428.000,336.000,291.000
1.712,306.000,429.000,337.000,292.000
1.713,307.000,430.000,338.000,293.000
1.714,308.500,431.000,339.500,294.500
1.715,310.000,432.500,341.500,296.000
1.716,311.500,433.500,343.000,298.000
1.717,313.000,435.000,345.000,300.000
1.718,315.000,436.500,347.000,301.500
1.719,316.000,437.500,348.500,303.000
1.720,317.000,438.000,349.500,303.500
1.721,316.500,437.500,349.000,303.000
1.722,315.500,436.000,348.000,301.500
1.723,313.500,434.500,346.000,299.500
1.724,311.500,432.500,343.500,297.500
1.725,309.500,431.000,341.500,295.500
1.726,308.000,429.500,339.500,293.500
1.727,306.500,429.000,338.000,292.500
1.728,306.000,428.500,337.500,292.500
1.729,306.000,429.000,337.500,292.500
1.730,306.500,429.500,338.000,293.000
1.731,307.000,430.000,339.000,293.500
1.732,308.000,430.500,340.000,294.500
1.733,309.000,431.500,341.000,296.000
1.734,310.000,432.500,343.000,297.000
1.735,312.000,434.000,345.000,299.000
1.736,313.500,435.500,347.000,301.000
1.737,315.500,437.000,349.000,303.000
1.738,317.500,438.500,351.000,304.500
1.739,319.000,439.500,352.500,306.000
1.740,320.000,440.000,353.500,307.000
1.741,320.000,439.500,353.000,306.500
1.742,319.000,438.500,352.000,305.500
1.743,317.500,437.000,350.000,303.500
1.744,315.500,435.000,347.500,301.500
1.745,313.000,433.000,344.500,299.000
1.746,311.000,431.500,342.500,297.500
1.747,309.500,430.500,341.000,296.000
1.748,309.000,430.000,340.500,295.500
1.749,309.000,430.000,340.500,295.500
1.750,309.500,430.500,341.000,296.000
1.751,310.000,431.000,342.000,297.000
1.752,311.000,432.000,343.000,297.500
1.753,311.500,433.000,344.000,298.500
1.754,312.500,434.000,345.500,300.000
1.755,314.000,435.500,347.500,301.500
1.756,315.500,437.000,349.500,303.000
1.757,317.500,438.500,351.500,305.000
1.758,319.500,440.000,353.500,307.000
1.759,321.000,441.000,355.000,308.000
1.760,322.000,441.000,355.500,308.500
1.761,322.000,441.000,355.000,308.500
1.762,321.000,439.500,354.000,307.500
1.763,319.500,438.000,352.000,306.000
1.764,317.500,436.500,350.000,303.500
1.765,315.000,434.500,347.500,301.500
1.766,313.500,433.500,345.500,299.000
1.767,312.000,432.500,344.000,297.500
1.768,311.500,432.000,343.000,297.000
1.769,311.000,432.000,343.000,296.500
1.770,311.000,432.000,343.500,296.500
1.771,311.500,432.500,344.000,296.500
1.772,312.000,433.500,345.000,297.000
1.773,313.000,434.500,346.500,298.000
1.774,314.500,435.500,347.500,299.000
1.775,315.500,436.500,349.500,300.500
1.776,317.500,438.000,351.000,302.000
1.777,319.000,439.500,352.500,303.500
1.778,320.500,441.000,354.000,305.000
1.779,322.000,442.000,355.500,306.000
1.780,322.500,442.500,356.000,306.500
1.781,322.500,442.000,355.500,306.500
1.782,321.500,441.000,354.500,305.000
1.783,320.500,439.500,353.000,303.500
1.784,318.500,438.000,351.000,301.000
1.785,317.000,436.500,349.000,299.000
1.786,315.500,435.500,347.500,297.500
1.787,314.500,435.000,346.500,296.000
1.788,314.500,435.000,346.000,295.500
1.789,314.500,435.000,346.500,295.000
1.790,315.000,435.500,347.000,295.500
1.791,315.500,436.500,348.000,296.000
1.792,316.500,437.000,349.000,296.500
1.793,317.500,438.500,350.000,297.500
1.794,319.000,439.500,351.500,299.000
1.795,320.500,441.000,353.500,300.500
1.796,322.500,443.000,355.500,302.500
1.797,324.500,444.500,357.500,304.000
1.798,326.000,446.000,360.000,306.000
1.799,327.500,447.000,361.500,307.500
1.800,328.500,447.500,362.000,308.000
1.801,329.000,447.500,362.000,308.000
1.802,328.500,446.500,361.000,307.000
1.803,327.500,445.500,359.500,305.500
1.804,325.500,444.000,357.500,303.500
1.805,324.000,443.000,355.500,301.500
1.806,322.500,442.000,354.000,300.000
1.807,322.000,441.500,353.000,299.000
1.808,321.500,441.500,353.000,298.500
1.809,322.000,442.000,353.000,298.500
1.810,322.500,442.500,354.000,299.000
1.811,323.000,443.000,354.500,299.500
1.812,324.000,444.000,356.000,300.500
1.813,325.000,445.000,357.000,301.500
1.814,326.500,446.000,358.500,303.000
1.815,328.000,447.000,360.000,304.500
1.816,330.000,449.000,362.000,306.000
1.817,331.500,450.500,364.000,308.000
1.818,333.500,452.000,366.000,310.000
1.819,334.500,453.500,368.000,311.500
1.820,335.500,454.000,368.500,312.000
1.821,335.000,453.500,368.000,311.500
1.822,334.000,452.500,367.000,310.000
1.823,332.500,451.000,364.500,308.500
1.824,330.500,449.500,362.500,306.000
1.825,328.500,448.000,360.000,304.000
1.826,327.000,446.500,358.000,302.500
1.827,326.000,445.500,357.000,301.000
1.828,325.500,445.500,357.000,300.500
1.829,325.500,445.500,357.000,300.500
1.830,326.000,446.000,358.000,301.000
1.831,326.500,447.000,358.500,301.500
1.832,327.000,447.500,360.000,302.500
1.833,328.000,448.500,361.000,303.500
1.834,329.000,449.500,362.500,305.000
1.835,330.500,451.000,364.000,306.500
1.836,332.500,452.500,365.500,308.500
1.837,334.500,454.000,367.500,310.500
1.838,336.500,455.500,369.500,312.000
1.839,337.500,456.500,371.000,313.500
1.840,338.500,456.500,371.500,314.000
1.841,338.000,456.000,371.500,313.500
1.842,337.000,455.000,370.000,312.000
1.843,335.500,453.000,368.000,310.000
1.844,333.000,451.000,365.500,308.000
1.845,331.000,449.500,363.000,305.500
1.846,329.500,448.000,361.000,304.000
1.847,328.000,447.000,360.000,303.000
1.848,327.500,446.500,359.500,302.500
1.849,327.500,446.500,359.500,302.500
1.850,328.000,447.000,359.500,302.500
1.851,328.000,447.000,360.500,303.000
1.852,329.000,448.000,361.000,304.000
1.853,329.500,449.000,362.000,304.500
1.854,330.500,450.000,363.000,306.000
1.855,332.000,451.500,364.500,307.500
1.856,334.000,453.000,366.500,309.500
1.857,336.000,455.000,368.500,311.500
1.858,337.500,456.500,370.500,313.500
1.859,339.000,457.500,372.000,314.500
1.860,340.000,458.000,372.500,315.000
1.861,340.000,458.000,372.500,315.000
1.862,339.500,457.000,371.500,313.500
1.863,338.000,456.000,369.500,312.000
1.864,336.500,455.000,367.500,310.000
1.865,335.000,453.500,365.500,308.500
1.866,334.000,452.500,364.000,306.500
1.867,333.000,452.000,363.000,305.500
1.868,332.500,451.500,363.000,305.000
1.869,332.500,451.500,363.000,305.000
1.870,332.500,452.500,363.500,305.000
1.871,333.000,453.000,364.000,306.000
1.872,334.000,454.000,365.000,307.000
1.873,335.000,455.000,366.000,308.000
1.874,336.000,455.500,367.500,309.500
1.875,337.500,456.500,369.000,311.000
1.876,338.500,457.500,370.500,312.500
1.877,340.000,459.000,372.500,314.500
1.878,341.500,459.500,374.000,316.500
1.879,342.000,460.000,375.000,317.500
1.880,342.000,459.500,375.000,318.000
1.881,341.000,458.500,374.000,317.500
1.882,339.000,457.000,372.500,316.000
1.883,337.000,455.000,370.500,314.000
1.884,334.500,453.000,368.500,311.500
1.885,332.500,451.500,366.500,309.500
1.886,331.000,450.500,364.500,307.500
1.887,329.500,449.500,363.500,306.500
1.888,329.000,449.500,362.500,306.000
1.889,329.500,449.500,362.500,305.500
1.890,329.500,450.000,362.500,305.500
1.891,330.000,450.500,363.000,305.500
1.892,331.000,451.000,363.500,306.000
1.893,332.000,451.500,364.500,306.500
1.894,333.000,452.500,365.500,307.500
1.895,334.500,453.500,367.000,308.500
1.896,336.500,455.000,369.000,310.000
1.897,338.500,457.000,371.000,312.000
1.898,341.000,458.500,373.000,313.500
1.899,343.000,460.000,374.500,314.500
1.900,344.500,460.500,375.500,315.000
1.901,345.000,460.500,375.000,314.000
1.902,344.000,459.500,374.000,312.500
1.903,342.500,457.500,371.500,310.000
1.904,340.000,455.500,369.000,307.000
1.905,337.500,453.500,366.500,304.500
1.906,335.500,451.500,364.000,302.000
1.907,333.500,450.000,362.500,300.500
1.908,332.000,449.000,361.500,299.000
1.909,331.500,448.500,360.500,298.500
1.910,331.000,448.000,360.500,298.500
1.911,331.000,448.000,360.500,299.000
1.912,331.500,448.000,360.500,299.500
1.913,332.000,448.500,361.000,300.000
1.914,332.500,449.500,362.000,300.500
1.915,333.500,450.000,363.500,301.500
1.916,335.000,451.000,365.000,303.000
1.917,336.500,452.000,366.500,304.500
1.918,338.000,453.000,368.000,306.000
1.919,339.000,454.000,369.500,307.000
1.920,339.500,454.000,369.500,307.000
1.921,339.000,453.500,369.000,306.500
1.922,338.000,452.000,367.000,304.500
1.923,336.000,450.500,365.000,302.500
1.924,334.000,449.000,362.500,300.000
1.925,332.000,447.500,360.000,297.500
1.926,330.000,446.500,358.000,295.500
1.927,328.500,445.500,356.500,294.000
1.928,328.000,444.500,355.500,293.000
1.929,327.500,444.500,355.000,292.500
1.930,327.500,444.500,355.000,292.500
1.931,328.000,445.000,355.500,293.000
1.932,328.500,445.500,356.000,293.500
1.933,329.500,446.000,357.000,294.000
1.934,330.500,447.000,358.000,295.000
1.935,332.000,448.000,359.500,296.500
1.936,333.500,449.000,361.500,298.000
1.937,335.000,450.500,363.500,299.500
1.938,337.000,451.500,365.000,301.000
1.939,338.000,452.500,366.500,302.000
1.940,338.500,452.500,367.000,302.000
1.941,338.000,452.000,366.000,301.500
1.942,336.500,450.500,365.000,300.000
1.943,334.500,449.000,362.500,297.500
1.944,332.500,447.000,360.000,295.000
1.945,330.000,445.000,357.500,292.500
1.946,328.000,443.000,355.500,290.500
1.947,327.000,442.000,354.000,289.500
1.948,326.000,441.000,353.000,288.500
1.949,326.000,441.000,352.500,288.000
1.950,326.000,441.000,353.000,288.500
1.951,326.000,441.500,353.500,289.000
1.952,327.000,442.500,354.500,289.500
1.953,327.500,443.500,355.500,291.000
1.954,328.500,444.500,357.000,292.000
1.955,330.000,445.500,358.500,293.500
1.956,332.000,447.000,360.500,295.500
1.957,333.500,448.500,362.500,297.500
1.958,335.500,450.000,364.500,299.000
1.959,337.000,451.000,365.500,300.500
1.960,337.500,451.500,366.000,301.000
1.961,337.500,451.500,366.000,300.500
1.962,336.500,450.500,364.500,299.000
1.963,335.000,449.000,363.000,297.500
1.964,333.500,447.500,361.000,295.000
1.965,331.500,446.000,358.500,293.000
1.966,329.500,444.500,356.500,291.000
1.967,328.500,444.000,355.500,290.000
1.968,327.500,443.500,355.000,289.500
1.969,327.500,443.500,354.500,289.500
1.970,327.500,443.500,355.000,289.500
1.971,328.000,444.000,355.500,289.500
1.972,328.500,444.500,356.000,290.500
1.973,329.500,445.500,357.000,291.500
1.974,330.500,446.000,358.500,293.000
1.975,331.500,447.000,360.000,294.500
1.976,333.000,448.500,362.000,296.000
1.977,334.500,449.500,364.000,298.000
1.978,336.500,451.000,366.000,299.500
1.979,338.000,452.000,367.500,301.000
1.980,339.000,452.500,367.500,301.000
1.981,338.500,452.000,367.500,301.000
1.982,337.500,451.000,366.000,299.500
1.983,336.000,449.500,364.000,297.500
1.984,334.000,448.000,362.000,295.500
1.985,332.000,446.000,359.500,293.000
1.986,330.500,444.500,358.000,291.500
1.987,329.000,443.500,356.500,290.000
1.988,328.500,443.000,356.000,289.500
1.989,328.500,443.000,356.000,289.500
1.990,328.500,443.500,356.000,289.500
1.991,329.000,444.000,357.000,290.500
1.992,330.000,444.500,357.500,291.500
1.993,331.000,445.000,359.000,292.500
1.994,332.500,446.000,360.000,294.000
1.995,333.500,447.000,361.500,295.000
1.996,335.000,448.500,363.000,297.000
1.997,337.000,450.000,365.000,298.500
1.998,339.000,451.500,366.500,300.000
1.999,340.500,452.500,368.000,301.500
2.000,341.000,453.000,368.500,302.000
2.001,341.000,453.000,368.500,302.000
2.002,340.500,452.000,367.500,301.000
2.003,339.500,450.500,366.000,299.000
2.004,337.500,449.000,364.000,297.000
2.005,336.000,447.500,361.500,295.000
2.006,334.500,446.500,360.000,293.500
2.007,333.500,446.000,359.000,292.500
2.008,333.000,445.500,358.500,292.000
2.009,333.000,445.500,358.500,292.000
2.010,333.500,446.000,359.000,292.500
2.011,334.000,447.000,360.000,293.000
2.012,335.000,447.500,361.000,294.500
2.013,336.000,449.000,362.500,296.000
2.014,337.500,450.000,364.000,297.500
2.015,339.000,451.500,365.500,299.000
2.016,341.000,453.000,367.500,301.000
2.017,343.000,455.000,370.000,303.500
2.018,345.000,456.500,372.000,305.500
2.019,346.500,457.500,374.000,306.500
2.020,347.500,458.000,374.500,307.500
2.021,347.500,458.000,374.500,307.000
2.022,346.500,457.000,373.500,306.000
2.023,345.000,455.500,371.500,304.000
2.024,343.000,453.500,369.000,302.000
2.025,341.000,452.000,367.000,299.500
2.026,339.000,450.500,365.000,297.500
2.027,338.000,449.500,363.500,296.000
2.028,337.500,449.000,363.000,295.500
2.029,337.500,449.500,362.500,295.000
2.030,338.000,449.500,363.000,295.500
2.031,338.500,450.500,364.000,296.000
2.032,339.500,451.500,364.500,297.000
2.033,340.500,452.500,365.500,298.000
2.034,341.500,453.500,367.000,299.000
2.035,343.000,455.000,368.500,300.500
2.036,345.000,456.000,370.500,302.500
2.037,347.000,457.500,372.500,304.500
2.038,348.500,459.000,375.000,306.000
2.039,350.000,460.500,376.500,307.500
2.040,351.000,461.000,377.500,308.000
2.041,351.000,461.000,377.500,308.000
2.042,350.000,460.000,376.500,307.000
2.043,348.500,458.500,374.500,305.500
2.044,346.500,456.500,372.500,303.000
2.045,345.000,455.000,370.000,301.000
2.046,343.000,453.500,368.000,299.000
2.047,342.000,452.500,367.000,297.500
2.048,341.000,452.000,366.000,297.000
2.049,341.000,452.000,366.000,297.000
2.050,341.000,452.000,366.000,297.500
2.051,341.000,452.500,366.500,298.000
2.052,342.000,453.500,367.500,298.500
2.053,342.500,454.000,368.500,299.500
2.054,344.000,455.000,369.500,300.500
2.055,345.500,456.500,371.000,302.000
2.056,347.000,458.000,373.000,303.500
2.057,348.500,459.500,375.000,305.500
2.058,350.500,460.500,376.500,307.000
2.059,351.500,461.500,378.000,308.000
2.060,352.500,461.500,378.500,308.500
2.061,352.000,460.500,378.500,308.000
2.062,351.000,459.500,377.000,306.500
2.063,349.500,458.000,375.500,305.000
2.064,347.500,456.500,373.000,303.000
2.065,345.500,455.000,371.000,300.500
2.066,344.000,453.500,369.000,298.500
2.067,342.500,453.000,368.000,297.000
2.068,342.000,452.500,367.000,296.500
2.069,342.000,452.500,367.000,296.000
2.070,342.500,452.500,367.000,296.500
2.071,343.000,453.500,368.000,297.000
2.072,344.000,454.000,368.500,298.000
2.073,345.000,455.000,370.000,299.000
2.074,346.000,456.000,371.000,300.000
2.075,347.500,457.500,373.000,302.000
2.076,349.500,459.000,375.000,303.500
2.077,351.000,460.500,377.000,305.500
2.078,353.000,461.500,379.000,307.500
2.079,354.000,463.000,380.500,309.000
2.080,355.000,463.000,381.500,309.500
2.081,355.000,463.000,381.000,309.500
2.082,354.000,462.000,380.000,308.000
2.083,353.000,461.000,378.000,306.000
2.084,351.000,459.500,376.000,304.000
2.085,349.000,458.000,374.000,301.500
2.086,347.500,456.500,372.000,300.000
2.087,346.000,455.500,370.500,299.000
2.088,345.500,455.000,370.000,298.500
2.089,345.000,455.000,370.000,298.500
2.090,345.500,455.000,370.000,299.000
2.091,345.500,455.500,370.500,299.500
2.092,346.500,456.000,371.500,300.000
2.093,347.500,457.000,372.500,301.000
2.094,348.500,458.000,373.500,302.500
2.095,350.000,459.500,375.500,304.000
2.096,352.000,461.000,377.500,306.000
2.097,353.500,463.000,380.000,308.000
2.098,355.500,464.000,382.000,310.000
2.099,357.000,465.000,383.500,311.500
2.100,357.500,465.500,384.500,312.000
2.101,357.500,465.000,384.000,312.000
2.102,356.500,464.000,383.000,311.000
2.103,355.500,462.500,381.000,309.000
2.104,353.500,461.000,378.500,306.500
2.105,351.500,459.000,376.500,304.000
2.106,350.000,457.500,374.500,302.000
2.107,348.500,456.500,373.000,301.000
2.108,348.000,456.000,372.000,300.000
2.109,348.000,456.000,372.000,300.000
2.110,348.500,456.500,372.000,300.500
2.111,349.000,457.000,373.000,301.000
2.112,350.000,457.500,374.000,302.000
2.113,350.500,458.500,375.500,303.500
2.114,351.500,459.500,376.500,304.500
2.115,353.000,461.000,378.000,306.000
2.116,354.500,462.000,380.000,307.500
2.117,356.000,463.500,381.500,309.000
2.118,357.000,465.000,383.000,310.500
2.119,358.000,466.000,384.500,312.000
2.120,358.500,466.500,385.000,312.500
2.121,358.500,466.000,384.500,312.500
2.122,357.500,465.000,383.500,311.000
2.123,356.000,463.000,381.500,309.500
2.124,354.500,461.000,379.500,307.000
2.125,352.500,459.500,377.000,305.000
2.126,350.500,458.000,375.000,303.000
2.127,349.500,457.000,373.500,302.000
2.128,348.500,456.500,372.500,301.500
2.129,348.500,456.000,372.500,301.000
2.130,348.500,456.000,372.500,301.000
2.131,348.500,456.500,373.000,301.500
2.132,349.000,457.000,373.500,302.000
2.133,349.500,457.500,374.500,303.000
2.134,350.500,458.500,375.500,304.000
2.135,351.500,459.500,377.000,305.500
2.136,353.000,461.000,378.500,307.000
2.137,354.500,462.000,380.000,308.500
2.138,356.000,463.000,382.000,310.000
2.139,357.500,463.500,383.000,311.000
2.140,358.000,463.500,383.500,311.500
2.141,357.500,463.000,383.000,311.000
2.142,356.500,461.500,381.500,310.000
2.143,354.500,460.000,380.000,308.000
2.144,352.500,458.500,377.500,306.000
2.145,350.500,456.500,375.500,304.000
2.146,348.500,455.500,373.500,302.000
2.147,347.000,454.500,372.000,301.000
2.148,346.500,454.000,371.500,300.000
2.149,346.000,454.000,371.500,300.000
2.150,346.500,454.000,371.500,300.000
2.151,347.000,454.500,372.000,300.500
2.152,347.500,455.500,372.500,301.000
2.153,348.500,456.000,373.500,302.000
2.154,349.500,457.000,374.500,303.000
2.155,350.500,458.000,376.000,304.500
2.156,352.000,459.000,377.500,306.000
2.157,353.500,460.000,379.500,307.500
2.158,355.000,461.500,381.000,309.000
2.159,356.000,462.000,382.000,310.000
2.160,356.500,462.500,382.500,310.000
2.161,356.000,462.000,382.000,310.000
2.162,355.000,461.000,381.000,309.000
2.163,353.500,459.500,379.000,307.000
2.164,351.500,458.000,376.500,305.000
2.165,349.500,456.000,374.500,303.000
2.166,347.500,454.000,372.000,301.000
2.167,346.500,453.000,370.500,299.500
2.168,345.500,452.000,369.500,298.500
2.169,345.000,452.000,369.500,298.000
2.170,345.000,452.000,369.500,298.000
2.171,345.500,452.500,370.000,298.500
2.172,346.000,453.000,370.500,299.500
2.173,347.000,454.000,371.500,300.500
2.174,348.000,455.000,373.000,302.000
2.175,349.500,456.000,374.500,303.500
2.176,351.500,457.500,376.500,305.000
2.177,353.000,459.000,378.500,307.000
2.178,355.000,460.500,380.500,308.500
2.179,356.000,461.000,381.500,309.500
2.180,357.000,461.500,382.000,310.000
2.181,356.500,461.000,381.500,309.500
2.182,355.500,459.500,380.000,308.000
2.183,354.000,458.000,378.000,306.000
2.184,352.000,456.000,375.500,304.000
2.185,349.500,454.000,373.000,301.500
2.186,347.500,452.000,371.000,299.500
2.187,346.000,451.000,369.500,298.000
2.188,345.500,450.500,368.500,297.500
2.189,345.000,450.500,368.000,297.000
2.190,345.000,451.000,368.000,297.000
2.191,345.000,451.000,368.500,297.000
2.192,345.500,451.500,369.000,297.500
2.193,346.500,452.000,369.500,298.500
2.194,347.500,452.500,370.500,299.500
2.195,348.500,453.500,372.000,301.000
2.196,350.000,455.000,374.000,302.500
2.197,352.000,456.500,376.000,304.500
2.198,354.000,457.500,378.000,306.500
2.199,355.500,458.500,379.500,307.500
2.200,356.000,458.500,380.000,308.000
2.201,356.000,458.000,379.500,307.500
2.202,355.000,457.000,378.500,306.500
2.203,353.500,455.500,376.000,304.500
2.204,351.500,453.500,373.500,302.000
2.205,349.500,451.500,371.000,299.500
2.206,347.500,450.000,369.000,297.500
2.207,346.000,448.500,367.500,296.000
2.208,345.000,448.000,367.000,295.000
2.209,344.500,447.500,366.500,295.000
2.210,345.000,448.000,367.000,295.000
2.211,345.500,448.000,367.500,295.500
2.212,346.000,449.000,368.500,296.000
2.213,347.000,449.500,370.000,297.000
2.214,348.000,450.500,371.000,298.500
2.215,349.500,452.000,372.500,300.000
2.216,351.000,453.500,374.500,301.500
2.217,353.000,455.000,376.500,303.500
2.218,354.500,456.500,378.000,305.500
2.219,356.000,457.500,379.500,306.500
2.220,356.500,458.000,380.000,307.000
2.221,357.000,457.500,379.500,307.000
2.222,356.000,456.500,378.500,306.000
2.223,355.000,455.000,376.500,304.000
2.224,353.000,453.500,374.500,302.000
2.225,351.000,451.500,372.000,299.500
2.226,349.000,450.000,370.000,298.000
2.227,347.500,449.000,368.500,296.500
2.228,347.000,448.500,368.000,296.000
2.229,346.500,448.500,367.500,295.500
2.230,347.000,449.000,368.000,296.000
2.231,347.500,449.000,368.500,296.000
2.232,348.000,449.500,369.000,296.500
2.233,348.500,450.000,369.500,297.000
2.234,349.500,450.500,370.000,298.000
2.235,350.000,451.000,371.000,299.000
2.236,351.500,452.000,372.500,300.000
2.237,352.500,452.500,373.500,301.500
2.238,354.000,453.500,375.000,302.500
2.239,355.000,453.500,375.500,303.500
2.240,355.000,453.500,375.500,303.500
2.241,354.500,452.500,375.000,303.000
2.242,353.000,451.000,373.500,301.500
2.243,351.000,449.000,371.000,299.500
2.244,348.500,447.000,368.500,297.500
2.245,346.000,445.000,366.000,295.000
2.246,343.500,443.000,364.000,293.000
2.247,341.500,442.000,362.500,291.500
2.248,340.500,441.000,361.500,291.000
2.249,339.500,440.500,361.000,291.000
2.250,339.500,440.500,361.500,291.500
2.251,339.500,441.000,362.500,292.000
2.252,340.500,442.000,363.500,293.500
2.253,341.500,443.000,365.000,295.500
2.254,342.500,444.000,367.000,297.500
2.255,344.000,446.000,369.500,300.500
2.256,345.500,448.000,372.500,304.500
2.257,347.500,450.000,375.500,308.500
2.258,349.500,452.500,379.000,312.500
2.259,351.500,454.500,381.500,316.000
2.260,352.500,456.000,384.000,319.000
2.261,353.500,456.500,385.000,321.000
2.262,353.500,457.000,385.500,321.500
2.263,352.500,456.500,385.000,321.500
2.264,351.500,456.000,384.000,321.000
2.265,350.500,455.500,382.500,320.500
2.266,350.000,455.500,382.000,320.500
2.267,350.000,456.000,382.000,320.500
2.268,350.500,457.000,382.500,320.500
2.269,351.500,458.000,383.000,321.000
2.270,353.000,459.000,384.000,321.000
2.271,354.500,460.500,385.000,321.000
2.272,356.500,461.500,386.000,321.000
2.273,358.000,462.500,386.500,320.500
2.274,360.000,463.500,387.500,320.000
2.275,362.000,464.500,388.500,319.500
2.276,364.000,465.500,389.500,319.500
2.277,366.000,466.500,390.500,319.500
2.278,368.500,468.000,392.000,320.000
2.279,370.500,468.500,393.000,320.000
2.280,371.500,469.000,393.000,319.500
2.281,371.500,468.500,392.000,318.500
2.282,371.000,467.000,390.500,317.000
2.283,369.000,465.500,388.000,314.500
2.284,367.000,463.000,385.000,311.500
2.285,364.000,460.500,382.000,308.500
2.286,361.500,458.000,379.000,305.500
2.287,359.500,456.500,376.500,303.000
2.288,358.500,455.000,375.000,301.500
2.289,357.500,454.500,374.500,300.500
2.290,358.000,454.500,374.000,300.000
2.291,358.500,455.000,374.500,300.500
2.292,359.500,456.000,375.500,301.000
2.293,360.500,457.500,377.000,302.000
2.294,362.000,458.500,378.500,303.500
2.295,363.500,460.000,380.000,305.000
2.296,365.000,462.000,382.000,307.000
2.297,367.000,463.500,384.000,309.000
2.298,368.500,464.500,386.000,310.500
2.299,369.500,465.500,387.000,312.000
2.300,370.000,465.500,387.500,312.500
2.301,369.500,465.000,387.000,312.000
2.302,368.000,463.500,385.500,311.000
2.303,366.000,461.500,383.500,309.000
2.304,363.000,459.500,380.500,307.000
2.305,360.000,457.000,378.000,305.000
2.306,357.500,455.000,375.000,303.000
2.307,355.000,453.000,373.000,301.500
2.308,353.500,451.500,372.000,301.000
2.309,352.000,451.000,371.000,300.500
2.310,351.500,450.500,371.000,300.500
2.311,351.000,450.500,371.000,301.000
2.312,351.500,451.000,372.000,302.000
2.313,352.500,451.500,373.000,303.000
2.314,353.500,452.500,374.000,304.500
2.315,354.500,453.000,375.500,305.500
2.316,356.000,454.000,377.000,307.500
2.317,357.500,455.500,378.500,309.000
2.318,359.500,456.500,380.500,310.500
2.319,360.500,457.500,381.500,312.000
2.320,361.500,458.000,382.500,312.500
2.321,362.000,458.000,382.000,312.500
2.322,361.500,457.500,381.000,311.500
2.323,361.000,456.500,379.500,310.000
2.324,359.500,455.500,377.500,308.000
2.325,358.500,454.500,375.500,305.500
2.326,357.500,453.500,374.000,304.000
2.327,356.500,453.500,373.000,302.500
2.328,356.500,453.000,372.500,302.000
2.329,356.500,453.000,372.000,301.500
2.330,357.000,453.000,372.500,301.500
2.331,357.500,453.500,373.000,302.000
2.332,358.000,453.500,373.500,303.000
2.333,358.500,454.000,374.500,304.000
2.334,359.000,454.500,375.500,305.000
2.335,360.000,455.500,376.500,306.500
2.336,361.000,456.500,378.000,308.000
2.337,362.500,458.000,379.500,309.500
2.338,363.500,459.000,381.500,311.000
2.339,364.500,459.500,382.500,312.000
2.340,365.000,459.500,383.000,312.500
2.341,365.000,459.000,382.500,312.500
2.342,364.000,457.500,381.500,311.500
2.343,362.000,456.000,379.500,309.500
2.344,360.000,454.000,377.000,307.500
2.345,358.000,452.500,374.500,305.000
2.346,356.000,450.500,372.000,303.000
2.347,354.500,449.500,370.500,301.500
2.348,353.500,449.000,369.500,300.500
2.349,353.500,448.500,369.500,300.500
2.350,353.500,449.000,369.500,300.500
2.351,353.500,449.500,370.000,301.000
2.352,354.500,449.500,371.000,302.000
2.353,355.000,450.000,371.500,303.000
2.354,356.000,451.000,372.500,304.000
2.355,357.500,451.500,374.000,305.500
2.356,359.000,453.000,376.000,307.000
2.357,360.500,454.500,378.000,309.000
2.358,362.000,455.500,379.500,310.500
2.359,363.000,456.500,381.000,312.000
2.360,363.500,457.000,381.500,312.500
2.361,363.500,456.500,381.000,312.500
2.362,362.500,455.500,379.500,311.000
2.363,361.000,453.500,377.500,309.500
2.364,358.500,452.000,375.000,307.000
2.365,356.500,450.000,372.000,304.500
2.366,354.500,448.000,370.000,302.500
2.367,353.000,447.000,368.500,301.500
2.368,352.500,446.500,368.000,300.500
2.369,352.000,446.500,367.500,300.500
2.370,352.500,447.000,368.000,300.500
2.371,353.000,447.500,368.500,301.000
2.372,354.000,448.500,369.500,302.000
2.373,355.000,449.000,370.000,303.000
2.374,356.000,450.000,371.500,304.000
2.375,357.000,451.000,372.500,305.500
2.376,359.000,452.000,374.500,307.500
2.377,360.500,453.500,376.500,309.500
2.378,362.500,455.000,378.500,311.000
2.379,363.500,456.000,380.000,313.000
2.380,364.500,456.000,381.000,313.500
2.381,364.000,455.500,380.500,313.500
2.382,363.000,454.500,379.500,312.500
2.383,361.000,453.000,377.500,311.000
2.384,359.000,451.000,375.000,308.500
2.385,357.000,449.000,372.000,306.000
2.386,355.000,447.000,370.000,304.000
2.387,354.000,446.000,368.500,302.500
2.388,353.500,445.500,367.500,302.000
2.389,353.000,445.500,367.500,302.000
2.390,353.500,446.000,367.500,302.000
2.391,353.500,446.000,368.000,303.000
2.392,354.000,446.500,369.000,303.500
2.393,355.000,447.000,370.000,304.500
2.394,356.000,448.000,371.000,306.000
2.395,357.500,449.000,372.500,307.500
2.396,359.000,450.000,374.500,309.500
2.397,361.000,451.500,377.000,311.500
2.398,363.000,453.000,379.500,313.000
2.399,364.500,454.500,381.000,314.500
2.400,365.000,455.000,382.000,315.000
2.401,365.000,454.500,381.500,314.500
2.402,364.500,453.500,380.500,313.500
2.403,363.000,452.500,378.500,311.500
2.404,361.000,451.000,376.000,309.500
2.405,359.000,449.000,374.000,307.500
2.406,357.000,448.000,372.000,306.000
2.407,355.500,447.000,370.500,305.000
2.408,354.500,446.500,369.500,304.000
2.409,354.000,446.000,369.000,303.500
2.410,354.000,446.000,369.000,303.500
2.411,354.000,446.500,369.500,304.000
2.412,354.500,447.000,370.000,304.500
2.413,355.000,447.500,371.000,305.500
2.414,356.000,448.500,372.000,306.500
2.415,357.000,449.500,373.500,308.000
2.416,358.000,450.500,375.500,310.000
2.417,360.000,452.000,377.500,312.000
2.418,362.000,453.500,379.500,314.000
2.419,363.500,454.000,381.000,315.500
2.420,364.000,454.500,382.000,316.000
2.421,364.000,454.000,381.500,315.500
2.422,363.000,453.000,380.000,314.500
2.423,361.500,451.500,378.000,313.000
2.424,359.500,449.500,376.000,311.000
2.425,357.500,448.000,373.500,309.000
2.426,355.500,446.500,371.500,307.000
2.427,354.500,446.000,370.500,306.000
2.428,354.000,445.500,370.000,305.500
2.429,354.000,445.500,369.500,305.000
2.430,354.000,445.500,370.000,305.500
2.431,354.000,446.000,370.500,306.000
2.432,354.500,447.000,371.000,307.000
2.433,355.000,447.500,372.000,308.000
2.434,356.000,448.500,373.500,309.000
2.435,357.000,449.500,375.000,310.500
2.436,358.500,450.500,376.500,312.000
2.437,360.000,452.000,378.500,314.000
2.438,362.000,453.000,380.000,315.500
2.439,363.000,454.000,381.500,317.500
2.440,364.000,454.500,382.500,318.000
2.441,363.500,454.000,382.000,318.000
2.442,363.000,453.000,381.000,316.500
2.443,361.000,451.500,379.500,315.000
2.444,359.000,449.500,377.000,312.500
2.445,357.000,447.500,374.500,310.500
2.446,355.500,446.000,372.500,308.500
2.447,354.000,445.000,371.000,307.500
2.448,353.500,444.500,370.000,306.500
2.449,353.500,444.500,370.000,306.500
2.450,353.500,444.500,370.000,306.500
2.451,353.500,445.000,370.500,307.500
2.452,354.500,445.500,371.500,308.000
2.453,355.500,446.500,372.500,309.000
2.454,356.500,447.500,374.000,310.500
2.455,358.000,448.000,375.500,311.500
2.456,359.500,449.500,377.500,313.000
2.457,361.500,450.500,379.000,315.000
2.458,363.000,452.000,381.000,317.000
2.459,364.500,453.000,382.500,318.500
2.460,365.000,453.500,383.500,319.500
2.461,365.000,453.000,383.500,319.500
2.462,364.000,452.000,382.000,318.500
2.463,362.500,450.500,380.000,317.000
2.464,360.500,449.000,378.000,315.500
2.465,358.500,447.000,375.500,313.500
2.466,356.500,446.000,373.500,311.500
2.467,355.500,445.000,372.000,310.500
2.468,354.500,444.500,371.000,309.500
2.469,354.500,444.000,371.000,309.000
2.470,355.000,444.500,371.000,309.500
2.471,355.000,444.500,372.000,309.500
2.472,355.500,445.500,372.500,310.500
2.473,356.500,446.000,373.500,311.000
2.474,357.000,446.500,375.000,312.000
2.475,358.000,447.500,376.500,313.500
2.476,359.500,448.500,378.000,315.000
2.477,360.500,449.500,380.000,316.500
2.478,361.500,451.000,381.500,318.000
2.479,362.500,451.500,382.500,319.500
2.480,363.000,452.000,383.000,320.000
2.481,363.000,451.500,382.500,320.000
2.482,362.000,450.000,381.000,319.000
2.483,360.000,448.500,379.000,317.000
2.484,358.000,446.500,376.000,314.500
2.485,356.000,444.500,373.500,312.000
2.486,354.000,443.000,371.500,310.000
2.487,352.500,441.500,369.500,308.500
2.488,351.500,441.000,368.500,307.500
2.489,351.000,441.000,368.500,307.000
2.490,351.000,441.000,368.000,307.000
2.491,351.000,441.500,368.500,307.500
2.492,351.500,442.000,369.000,308.000
2.493,352.500,442.500,370.000,308.500
2.494,353.500,443.500,371.000,309.500
2.495,354.500,444.500,372.500,311.000
2.496,356.000,446.000,374.500,312.500
2.497,357.500,447.000,376.500,314.500
2.498,359.500,448.500,378.500,316.000
2.499,360.500,449.000,379.500,317.500
2.500,361.500,449.500,380.000,318.000
2.501,361.000,449.000,380.000,317.500
2.502,360.500,448.000,378.500,316.000
2.503,358.500,446.500,376.500,314.000
2.504,356.500,444.500,374.000,312.000
2.505,354.000,442.500,371.500,309.500
2.506,352.000,441.000,369.000,307.500
2.507,350.000,439.500,367.000,306.000
2.508,349.000,439.000,366.000,305.000
2.509,348.500,438.500,365.000,304.500
2.510,348.500,438.500,365.000,304.500
2.511,348.500,438.500,365.000,305.000
2.512,349.000,438.500,365.500,305.000
2.513,349.500,439.000,366.000,306.000
2.514,350.000,439.500,367.000,307.000
2.515,351.000,440.000,368.500,308.000
2.516,352.500,441.000,370.000,309.000
2.517,354.000,442.500,372.000,310.500
2.518,355.500,443.500,374.000,312.000
2.519,356.500,444.500,375.000,313.000
2.520,357.500,444.500,375.500,313.500
2.521,357.000,444.000,374.500,312.500
2.522,356.000,443.000,373.000,311.000
2.523,354.500,441.000,370.500,309.000
2.524,352.000,438.500,367.500,306.500
2.525,349.500,436.500,365.000,304.000
2.526,347.500,434.500,362.000,302.000
2.527,346.000,433.000,360.000,300.000
2.528,345.000,432.500,359.000,299.000
2.529,344.000,432.000,358.000,298.500
2.530,344.000,432.000,358.000,298.000
2.531,344.500,432.000,358.500,298.500
2.532,345.000,432.500,359.000,298.500
2.533,345.500,433.000,359.500,299.000
2.534,346.500,433.500,360.500,300.000
2.535,347.500,434.500,362.000,301.000
2.536,348.500,435.500,363.500,302.000
2.537,350.000,436.500,365.000,303.500
2.538,351.500,437.500,367.000,305.000
2.539,353.000,438.500,368.000,306.000
2.540,353.500,438.500,368.500,306.500
2.541,353.500,438.000,367.500,306.000
2.542,352.000,437.000,366.000,304.500
2.543,350.500,435.000,364.000,302.500
2.544,348.000,433.000,361.500,300.000
2.545,346.000,431.000,359.000,297.500
2.546,344.000,429.500,357.000,295.500
2.547,342.500,428.500,355.000,293.500
2.548,341.500,427.500,354.000,292.500
2.549,341.000,427.000,353.500,291.500
2.550,341.000,427.000,353.500,291.500
2.551,341.500,427.500,353.500,291.500
2.552,342.000,428.000,354.500,292.500
2.553,342.500,428.500,355.000,293.000
2.554,343.500,429.000,356.000,294.000
2.555,344.500,430.000,357.500,295.500
2.556,345.500,431.000,359.000,297.000
2.557,347.500,432.500,360.500,299.000
2.558,349.000,434.000,362.500,300.500
2.559,350.500,435.000,364.000,302.000
2.560,351.500,435.500,364.500,302.000
2.561,351.500,435.000,364.500,302.000
2.562,350.500,434.500,363.500,300.500
2.563,349.000,433.000,361.500,299.000
2.564,347.000,431.000,359.000,296.500
2.565,344.500,429.500,356.500,294.500
2.566,342.500,427.500,354.500,292.500
2.567,341.000,426.500,352.500,291.000
2.568,340.000,425.500,351.500,289.500
2.569,339.500,425.500,351.000,289.000
2.570,339.500,425.000,351.000,289.000
2.571,339.500,425.500,351.000,289.000
2.572,340.000,426.000,351.500,289.500
2.573,341.000,426.500,352.500,290.000
2.574,342.000,427.500,353.500,290.500
2.575,343.000,428.000,354.500,291.500
2.576,344.500,429.000,356.000,293.000
2.577,346.000,430.000,357.500,294.500
2.578,348.000,430.500,359.000,296.500
2.579,349.000,431.500,360.500,297.500
2.580,349.500,431.500,361.000,298.000
2.581,349.500,431.000,360.500,297.500
2.582,348.500,430.000,359.000,296.500
2.583,347.000,428.500,357.000,294.500
2.584,345.000,426.500,354.500,292.500
2.585,343.000,425.000,352.000,290.500
2.586,341.000,423.500,349.500,289.000
2.587,339.500,422.500,348.500,287.500
2.588,338.500,422.000,348.000,287.000
2.589,338.000,422.000,347.500,287.000
2.590,338.500,422.000,348.000,287.000
2.591,339.000,422.500,348.500,287.000
2.592,339.500,423.000,349.500,288.000
2.593,340.500,423.500,350.500,289.000
2.594,341.500,424.500,352.000,290.000
2.595,343.000,426.000,353.500,292.000
2.596,344.500,427.500,356.000,294.000
2.597,346.500,429.000,358.000,296.000
2.598,348.000,430.500,360.000,298.000
2.599,349.500,431.500,361.500,300.000
2.600,351.000,432.500,362.500,300.500
2.601,351.000,432.500,363.000,301.000
2.602,351.000,432.000,362.000,300.000
2.603,350.000,431.000,360.500,298.500
2.604,348.500,429.500,359.000,297.000
2.605,346.500,428.000,357.000,295.000
2.606,345.000,426.500,355.000,293.500
2.607,344.000,426.000,353.500,292.500
2.608,343.500,425.500,353.000,292.000
2.609,343.500,425.500,352.500,292.500
2.610,343.500,426.000,352.500,292.500
2.611,344.000,426.500,353.500,293.500
2.612,344.500,427.000,354.500,294.500
2.613,345.500,428.000,355.500,295.500
2.614,346.500,429.000,357.000,297.000
2.615,348.000,430.500,359.000,298.500
2.616,349.500,432.000,361.000,300.000
2.617,351.000,433.000,363.000,302.000
2.618,352.500,434.500,365.000,303.500
2.619,353.500,435.000,366.000,305.000
2.620,354.500,435.500,367.000,305.500
2.621,354.500,435.500,366.500,305.500
2.622,353.500,434.500,365.500,304.500
2.623,352.500,433.000,363.500,302.500
2.624,350.500,431.500,361.000,300.500
2.625,349.000,429.500,358.500,298.500
2.626,347.500,428.500,357.000,296.500
2.627,346.000,428.000,355.500,295.500
2.628,345.500,427.500,355.500,295.000
2.629,345.500,427.500,355.500,294.500
2.630,345.500,428.000,355.500,295.000
2.631,346.000,428.500,356.500,295.500
2.632,346.500,429.500,357.000,296.500
2.633,347.000,430.500,358.000,297.500
2.634,348.500,431.500,359.000,299.000
2.635,349.500,432.500,360.500,300.500
2.636,351.500,434.000,362.000,302.000
2.637,353.500,435.500,364.500,304.000
2.638,355.500,437.000,366.500,305.500
2.639,357.500,438.000,368.000,307.000
2.640,358.500,438.500,369.000,308.000
2.641,358.500,438.000,368.500,308.000
2.642,357.500,437.000,368.000,307.500
2.643,356.500,436.000,366.500,306.000
2.644,354.500,434.500,364.500,304.500
2.645,353.000,433.000,362.500,302.500
2.646,351.500,432.000,361.000,301.000
2.647,350.500,431.500,359.500,300.000
2.648,350.000,431.500,359.000,299.500
2.649,350.000,431.500,359.000,299.500
2.650,350.500,432.000,359.500,299.500
2.651,351.500,432.500,360.000,300.000
2.652,352.000,433.500,361.000,301.000
2.653,353.500,434.500,362.500,302.000
2.654,354.500,436.000,364.000,303.500
2.655,356.000,437.000,365.500,305.000
2.656,357.500,438.500,368.000,307.000
2.657,359.000,440.000,370.000,309.000
2.658,361.000,441.500,372.000,310.500
2.659,362.500,442.500,374.000,312.000
2.660,363.500,443.000,375.000,313.000
2.661,363.500,443.500,375.000,313.000
2.662,363.000,443.000,374.500,312.500
2.663,362.000,441.500,373.000,311.000
2.664,360.000,440.000,371.000,309.000
2.665,358.000,439.000,368.500,307.000
2.666,356.500,437.500,367.000,305.500
2.667,355.000,437.000,365.500,304.500
2.668,354.500,436.500,365.000,304.000
2.669,354.000,437.000,364.500,304.000
2.670,354.500,437.500,365.000,304.000
2.671,354.500,438.000,366.000,304.500
2.672,355.500,438.500,366.500,305.500
2.673,356.500,439.500,368.000,306.500
2.674,357.500,440.500,369.000,308.000
2.675,359.000,441.500,371.000,309.500
2.676,360.500,443.000,373.000,311.500
2.677,362.000,444.000,374.500,313.500
2.678,364.000,445.500,376.500,315.500
2.679,365.500,446.000,378.000,317.000
2.680,366.000,446.500,379.000,317.500
2.681,366.000,446.000,379.000,317.500
2.682,365.500,445.500,378.000,316.500
2.683,364.000,444.500,376.500,315.000
2.684,362.500,443.000,374.500,313.000
2.685,361.000,441.500,372.500,311.000
2.686,359.500,440.500,370.500,309.000
2.687,358.500,439.500,369.500,308.000
2.688,357.500,439.500,368.500,307.500
2.689,357.500,439.500,368.500,307.500
2.690,357.500,440.000,369.000,307.500
2.691,358.000,440.500,369.500,308.500
2.692,358.500,441.000,370.500,309.000
2.693,359.500,442.000,371.500,310.000
2.694,361.000,443.000,373.000,311.000
2.695,362.000,444.500,374.500,313.000
2.696,364.000,446.000,376.500,314.500
2.697,365.500,448.000,378.500,317.000
2.698,367.000,449.000,380.500,319.000
2.699,368.500,450.000,381.500,320.500
2.700,369.000,450.500,382.500,321.000
2.701,369.000,450.000,382.000,320.500
2.702,368.000,449.000,381.000,319.000
2.703,366.500,447.500,378.500,317.000
2.704,364.000,445.500,376.000,314.500
2.705,362.000,443.500,373.500,312.000
2.706,360.000,442.000,371.500,310.000
2.707,358.500,441.000,370.000,308.500
2.708,357.500,440.000,369.000,307.500
2.709,357.000,439.500,368.500,307.000
2.710,357.000,439.500,369.000,307.000
2.711,357.000,439.500,369.000,307.500
2.712,357.500,440.000,370.000,308.000
2.713,358.500,441.000,370.500,309.000
2.714,359.500,442.000,372.000,310.000
2.715,360.500,443.000,373.500,311.500
2.716,362.000,444.500,375.000,313.000
2.717,364.000,446.000,377.000,315.000
2.718,365.500,447.500,379.000,317.000
2.719,367.500,448.500,381.000,318.500
2.720,368.500,449.500,382.000,319.500
2.721,368.500,449.500,382.000,319.500
2.722,368.500,448.500,381.500,318.500
2.723,367.000,447.500,380.000,317.000
2.724,365.500,446.000,378.000,315.500
2.725,364.000,444.500,375.500,313.500
2.726,362.500,443.500,374.000,312.000
2.727,361.000,442.500,373.000,311.000
2.728,360.500,442.000,372.500,310.500
2.729,360.500,442.000,372.500,311.000
2.730,360.000,442.000,372.500,311.000
2.731,360.000,442.500,373.000,312.000
2.732,360.500,442.500,373.500,312.500
2.733,360.500,443.000,374.500,313.500
2.734,361.000,443.500,375.000,314.500
2.735,362.000,444.000,376.000,315.500
2.736,363.000,444.500,377.500,317.500
2.737,364.000,445.500,379.000,319.000
2.738,365.000,446.000,380.500,321.000
2.739,366.000,446.500,382.000,322.500
2.740,366.000,446.500,382.500,323.500
2.741,366.000,446.500,382.500,323.500
2.742,365.000,445.500,381.000,322.500
2.743,363.500,444.000,379.500,321.000
2.744,361.500,442.500,377.000,319.000
2.745,359.500,441.000,374.500,317.000
2.746,357.500,439.500,372.500,315.000
2.747,356.500,439.000,371.000,313.500
2.748,356.000,438.500,370.500,313.000
2.749,355.500,438.500,370.000,312.500
2.750,356.000,438.500,370.500,312.500
2.751,357.500,439.500,371.000,313.000
2.752,358.500,440.500,372.000,314.000
2.753,360.500,442.000,373.500,315.000
2.754,362.500,443.500,375.500,316.500
2.755,364.500,445.000,377.500,318.000
2.756,366.500,446.500,380.000,319.500
2.757,369.000,448.500,382.000,321.000
2.758,371.000,449.500,384.500,323.000
2.759,373.000,450.500,386.000,324.500
2.760,374.000,451.000,386.500,325.000
2.761,374.000,451.000,386.500,325.000
2.762,373.000,450.000,385.000,324.000
2.763,371.000,448.000,383.000,322.500
2.764,368.500,446.000,381.000,320.500
2.765,366.000,444.000,378.000,318.000
2.766,363.500,442.500,376.000,316.000
2.767,362.000,441.000,374.000,314.500
2.768,361.000,440.500,373.000,313.500
2.769,360.500,440.500,372.500,313.500
2.770,360.500,440.500,372.500,313.500
2.771,361.000,441.000,373.000,314.000
2.772,362.000,441.500,374.000,315.000
2.773,363.000,442.500,375.500,316.000
2.774,364.000,443.500,376.500,317.000
2.775,365.500,445.000,378.500,318.500
2.776,367.000,446.000,380.000,320.500
2.777,369.000,447.500,382.000,322.500
2.778,370.500,448.500,384.000,324.000
2.779,371.500,449.500,385.000,325.500
2.780,372.000,450.000,385.500,326.000
2.781,372.000,449.500,385.000,325.500
2.782,371.000,448.500,384.000,324.500
2.783,369.500,447.000,382.000,322.500
2.784,367.500,445.500,380.000,320.000
2.785,365.500,443.500,377.500,317.500
2.786,363.500,442.000,375.500,315.500
2.787,362.000,441.000,374.000,314.000
2.788,361.500,440.500,373.000,313.500
2.789,361.000,440.500,373.000,313.000
2.790,361.500,441.000,373.000,313.000
2.791,362.000,441.500,373.500,313.500
2.792,362.500,442.000,374.500,314.500
2.793,363.000,442.500,375.500,315.500
2.794,364.000,443.500,376.500,316.500
2.795,365.500,444.500,378.000,318.000
2.796,367.000,445.500,380.000,319.500
2.797,368.500,447.000,382.000,321.500
2.798,370.500,448.500,383.500,323.500
2.799,372.000,449.500,385.000,324.500
2.800,372.500,450.000,385.500,325.500
2.801,372.500,449.500,385.500,325.000
2.802,372.000,448.500,384.500,324.000
2.803,370.500,447.000,382.500,322.500
2.804,368.500,445.500,380.500,320.500
2.805,366.500,444.000,378.000,318.500
2.806,364.500,442.500,376.000,316.500
2.807,363.000,441.500,374.000,315.500
2.808,362.500,441.000,373.500,314.500
2.809,362.000,441.000,373.000,314.000
2.810,362.000,441.000,373.500,314.000
2.811,362.500,441.500,373.500,314.500
2.812,363.000,442.000,374.500,315.000
2.813,363.500,442.500,375.500,316.000
2.814,364.500,443.500,376.500,317.500
2.815,365.500,444.000,378.000,319.000
2.816,367.000,445.000,380.000,320.500
2.817,369.000,446.500,382.000,322.500
2.818,370.500,447.500,383.500,324.000
2.819,372.000,448.500,385.000,325.500
2.820,372.500,449.000,386.000,326.000
2.821,372.500,448.500,386.000,326.000
2.822,372.000,448.000,385.500,325.000
2.823,370.500,446.500,383.500,323.500
2.824,368.500,445.000,381.500,321.500
2.825,366.500,443.500,379.000,319.000
2.826,364.500,442.000,377.000,317.500
2.827,363.500,441.000,375.500,316.000
2.828,363.000,441.000,375.000,315.000
2.829,362.500,440.500,375.000,315.000
2.830,363.000,441.000,375.000,315.000
2.831,363.500,441.500,375.500,315.500
2.832,364.500,442.000,376.500,316.500
2.833,365.500,442.500,377.000,317.500
2.834,366.500,443.500,378.500,318.500
2.835,367.500,444.500,379.500,319.500
2.836,368.500,445.500,381.000,321.000
2.837,370.000,446.500,383.000,322.500
2.838,371.000,447.500,384.500,324.000
2.839,372.000,448.000,385.000,324.500
2.840,372.000,447.500,385.000,324.500
2.841,371.500,446.500,384.500,324.000
2.842,370.000,445.000,382.500,322.500
2.843,368.500,443.500,380.000,320.500
2.844,366.000,441.000,377.000,318.000
2.845,363.500,439.000,374.500,315.500
2.846,361.000,437.000,372.000,313.500
2.847,359.500,435.500,370.500,311.500
2.848,358.500,435.000,369.000,310.500
2.849,357.500,434.500,368.500,310.000
2.850,357.500,434.000,368.000,310.500
2.851,357.000,434.000,368.000,311.000
2.852,357.000,434.000,369.000,311.500
2.853,357.500,434.500,370.000,313.000
2.854,358.000,435.500,371.000,314.500
2.855,359.000,436.500,373.000,316.500
2.856,360.500,438.000,375.000,319.000
2.857,361.500,439.500,377.500,322.000
2.858,363.000,441.000,380.000,325.500
2.859,364.500,442.500,382.500,328.500
2.860,365.500,444.000,384.500,331.000
2.861,365.500,444.500,385.500,333.000
2.862,365.500,444.500,386.000,334.000
2.863,364.500,444.500,385.500,335.000
2.864,363.500,444.000,385.000,335.000
2.865,362.000,443.000,384.000,335.000
2.866,361.000,443.000,383.500,335.000
2.867,360.500,443.500,383.500,335.000
2.868,360.500,444.000,384.000,336.000
2.869,361.500,445.000,385.000,337.000
2.870,362.500,446.500,386.000,338.500
2.871,364.000,448.000,388.000,340.000
2.872,366.000,450.000,389.500,341.500
2.873,368.500,452.000,391.000,342.500
2.874,371.000,453.500,393.000,343.000
2.875,373.500,455.000,394.000,343.000
2.876,376.000,457.000,395.500,343.000
2.877,378.500,458.500,397.000,343.500
2.878,381.000,460.000,398.000,343.500
2.879,383.000,461.000,399.000,343.000
2.880,384.500,461.000,398.500,342.000
2.881,385.000,461.000,397.500,340.000
2.882,385.000,460.000,396.000,338.000
2.883,384.000,458.500,394.000,335.500
2.884,382.000,457.000,391.500,332.500
2.885,380.000,455.000,389.000,330.000
2.886,378.000,453.000,386.500,327.500
2.887,376.500,451.500,384.500,325.000
2.888,375.000,450.500,383.000,323.000
2.889,374.500,449.500,381.500,321.500
2.890,374.000,448.500,380.500,320.500
2.891,373.500,448.000,379.500,319.500
2.892,373.500,448.000,379.500,319.500
2.893,374.000,448.000,380.000,319.500
2.894,375.000,448.500,381.000,320.500
2.895,376.000,449.500,382.000,322.000
2.896,377.500,450.500,383.500,323.500
2.897,379.000,452.000,385.000,325.000
2.898,380.500,453.000,387.000,326.500
2.899,381.500,453.500,388.500,328.000
2.900,382.500,454.000,389.000,328.500
2.901,382.000,453.500,389.000,328.000
2.902,381.500,452.500,388.000,327.500
2.903,380.000,451.000,386.000,325.500
2.904,377.500,449.000,383.500,323.500
2.905,375.500,447.000,381.000,321.500
2.906,373.000,445.500,379.000,319.500
2.907,371.000,444.500,377.500,318.000
2.908,370.000,443.500,376.500,317.000
2.909,369.500,443.000,376.000,317.000
2.910,369.000,443.000,376.000,317.000
2.911,369.000,443.500,376.500,318.000
2.912,369.500,444.000,377.000,319.000
2.913,369.500,444.500,378.000,320.000
2.914,370.500,445.500,379.000,321.000
2.915,371.500,446.500,380.500,322.500
2.916,372.500,447.500,382.500,324.500
2.917,374.500,448.500,385.000,326.500
2.918,376.000,450.000,387.000,328.000
2.919,377.500,451.000,388.500,329.500
2.920,378.000,451.000,389.000,330.500
2.921,378.000,451.000,388.500,330.000
2.922,377.500,450.000,387.500,329.000
2.923,376.000,448.500,385.500,327.500
2.924,374.000,447.000,383.500,325.500
2.925,372.000,445.500,381.500,323.500
2.926,370.500,444.500,379.500,322.000
2.927,369.000,444.000,378.000,321.000
2.928,368.000,443.500,377.500,320.500
2.929,368.000,443.500,377.000,320.000
2.930,368.000,443.500,377.000,320.000
2.931,368.500,444.000,377.500,320.500
2.932,369.000,445.000,378.000,321.000
2.933,370.000,445.500,379.500,322.000
2.934,371.000,447.000,381.000,323.500
2.935,372.500,448.000,382.500,325.000
2.936,374.000,449.500,384.500,327.000
2.937,376.000,451.000,386.500,329.000
2.938,377.500,452.500,388.500,331.000
2.939,379.000,454.000,390.500,332.500
2.940,380.000,454.500,391.500,333.000
2.941,380.500,454.500,391.500,333.000
2.942,380.000,454.000,390.500,332.000
2.943,378.000,452.500,388.500,330.500
2.944,376.000,450.500,386.000,328.000
2.945,373.500,448.500,383.500,325.500
2.946,371.500,446.500,381.500,323.500
2.947,369.500,445.000,379.500,322.000
2.948,368.500,444.500,378.500,321.000
2.949,368.500,444.000,378.500,320.500
2.950,368.500,444.000,378.500,320.500
2.951,368.500,444.500,379.000,321.000
2.952,369.000,445.000,379.500,321.500
2.953,370.000,446.000,380.500,322.000
2.954,370.500,447.000,381.500,323.000
2.955,371.500,448.000,383.000,324.500
2.956,373.000,449.000,384.500,326.500
2.957,374.500,450.500,386.500,328.000
2.958,376.000,452.000,388.500,330.000
2.959,377.000,452.500,390.000,331.500
2.960,378.000,453.000,391.000,332.500
2.961,378.000,453.000,391.000,332.500
2.962,377.500,452.000,390.000,331.500
2.963,376.000,450.500,388.500,330.000
2.964,374.500,449.000,386.500,327.500
2.965,372.500,447.500,384.500,325.500
2.966,370.500,446.000,382.500,324.000
2.967,369.500,445.500,381.000,322.500
2.968,368.500,445.000,380.500,322.000
2.969,368.000,445.000,380.000,321.500
2.970,368.000,445.000,380.000,321.500
2.971,368.000,445.500,380.500,322.000
2.972,369.000,446.000,381.000,322.500
2.973,369.500,447.000,381.500,323.500
2.974,370.500,447.500,382.500,325.000
2.975,372.000,448.500,384.000,326.500
2.976,373.500,450.000,386.000,328.500
2.977,375.500,451.500,388.000,330.500
2.978,377.000,453.000,389.500,332.000
2.979,378.500,454.000,391.000,333.500
2.980,379.500,454.500,391.500,334.000
2.981,379.500,454.500,391.000,334.000
2.982,378.500,453.500,390.000,333.000
2.983,377.000,452.500,388.000,331.000
2.984,374.500,450.500,386.000,328.500
2.985,372.500,449.000,383.500,326.500
2.986,370.500,447.500,381.500,324.500
2.987,369.000,446.500,380.000,323.500
2.988,368.000,445.500,379.000,322.500
2.989,367.500,445.500,378.500,322.500
2.990,367.500,445.500,379.000,322.500
2.991,367.500,445.500,379.000,322.500
2.992,368.000,446.000,380.000,323.000
2.993,368.500,447.000,380.500,324.000
2.994,369.500,448.000,381.500,325.500
2.995,371.000,449.500,383.000,327.000
2.996,372.500,450.500,384.500,328.500
2.997,374.000,452.000,386.500,330.500
2.998,375.500,453.000,388.000,332.500
2.999,377.000,454.000,389.500,333.500
3.000,378.000,454.000,390.000,334.500
3.001,378.000,454.000,389.500,334.000
3.002,377.500,453.000,388.500,333.000
3.003,376.000,451.500,386.500,331.500
3.004,374.000,450.000,384.000,330.000
3.005,371.500,448.500,382.000,328.000
3.006,369.500,447.000,380.000,326.000
3.007,368.000,446.000,379.000,325.000
3.008,367.000,445.500,378.000,324.000
3.009,367.000,445.500,377.500,323.500
3.010,367.000,445.500,377.500,324.000
3.011,367.500,445.500,378.000,324.000
3.012,368.000,446.000,378.500,325.000
3.013,369.000,447.000,379.000,326.000
3.014,370.000,448.000,380.000,327.000
3.015,371.500,449.500,381.500,328.000
3.016,373.000,450.500,383.500,330.000
3.017,374.500,452.000,386.000,332.000
3.018,376.500,453.500,388.000,334.000
3.019,378.000,454.500,389.500,335.500
3.020,379.000,455.500,390.500,336.000
3.021,379.000,455.500,390.500,336.000
3.022,378.500,454.500,389.500,335.000
3.023,377.000,453.000,388.000,333.500
3.024,375.000,451.500,385.500,331.500
3.025,373.000,449.500,383.000,329.500
3.026,371.000,448.000,381.000,328.000
3.027,369.500,447.000,379.500,326.500
3.028,368.500,446.500,378.500,326.000
3.029,368.000,446.000,378.000,325.500
3.030,368.000,446.500,378.500,326.000
3.031,368.000,446.500,379.000,326.500
3.032,368.500,447.000,379.500,327.500
3.033,369.500,448.000,380.500,328.000
3.034,370.500,449.000,381.500,329.500
3.035,371.500,450.000,383.000,331.000
3.036,373.000,451.000,385.000,332.500
3.037,375.000,452.500,387.000,334.500
3.038,376.500,454.000,389.000,336.500
3.039,378.000,455.000,390.500,338.000
3.040,378.500,455.000,391.500,338.500
3.041,378.500,454.500,391.000,338.500
3.042,377.500,453.500,390.000,337.500
3.043,376.000,452.000,388.000,336.000
3.044,374.000,450.500,386.000,334.000
3.045,372.000,449.000,383.500,332.000
3.046,370.500,447.500,381.500,330.500
3.047,369.000,447.000,380.500,329.500
3.048,368.500,446.500,380.000,328.500
3.049,368.500,447.000,380.000,328.500
3.050,368.500,447.000,380.000,329.000
3.051,369.000,447.500,380.500,329.500
3.052,369.500,448.500,381.500,330.500
3.053,370.500,449.500,382.500,331.500
3.054,371.500,450.500,384.000,333.000
3.055,373.000,451.500,385.500,334.500
3.056,374.500,453.000,387.500,336.500
3.057,376.000,454.500,389.500,338.500
3.058,377.500,455.500,391.500,340.500
3.059,379.000,456.500,393.000,342.000
3.060,379.500,457.000,394.000,342.500
3.061,379.500,456.500,393.500,342.500
3.062,378.500,455.500,392.500,341.500
3.063,377.000,454.000,390.500,340.000
3.064,375.000,452.000,388.000,337.500
3.065,373.000,450.500,385.000,335.500
3.066,371.500,449.000,383.000,333.500
3.067,370.000,448.000,381.500,332.000
3.068,369.000,448.000,380.500,331.500
3.069,369.000,448.000,380.500,331.000
3.070,369.000,448.000,380.500,331.000
3.071,369.500,448.500,381.000,331.500
3.072,370.000,449.500,382.000,332.500
3.073,371.000,450.000,383.000,333.000
3.074,372.000,451.000,384.000,334.500
3.075,373.500,452.500,386.000,336.000
3.076,375.000,453.500,387.500,337.500
3.077,376.500,455.000,390.000,340.000
3.078,378.000,456.000,392.000,341.500
3.079,379.500,457.000,393.500,343.000
3.080,380.500,457.000,394.000,344.000
3.081,380.500,457.000,393.500,343.500
3.082,380.000,456.000,392.500,342.500
3.083,378.500,454.500,390.500,340.500
3.084,376.500,452.500,388.000,338.000
3.085,374.000,450.500,385.500,336.000
3.086,372.000,449.000,383.000,334.000
3.087,370.500,447.500,381.500,332.500
3.088,369.500,447.000,381.000,331.500
3.089,369.000,447.000,380.500,331.500
3.090,369.000,447.000,380.500,331.500
3.091,369.500,447.500,381.000,332.000
3.092,370.000,448.500,381.500,332.500
3.093,370.500,449.000,382.500,333.500
3.094,371.500,449.500,383.000,334.000
3.095,372.000,450.500,384.000,335.000
3.096,373.500,451.500,385.500,336.500
3.097,374.500,452.500,387.000,338.000
3.098,376.000,453.500,388.500,339.500
3.099,377.000,454.500,390.000,340.500
3.100,377.000,454.500,390.500,341.000
3.101,377.000,453.500,390.000,340.500
3.102,376.000,452.500,388.500,339.000
3.103,374.000,450.500,386.500,337.000
3.104,372.000,448.500,384.000,334.500
3.105,369.500,446.500,381.500,332.000
3.106,367.500,445.000,379.000,329.500
3.107,366.000,444.000,377.500,328.000
3.108,365.000,443.000,376.500,327.000
3.109,364.500,442.500,375.500,326.000
3.110,364.500,442.500,375.500,326.000
3.111,364.500,442.500,376.000,326.000
3.112,365.000,443.000,376.500,326.500
3.113,365.500,443.500,377.000,327.500
3.114,366.500,444.500,378.000,328.500
3.115,367.500,445.500,379.000,329.500
3.116,369.000,446.500,380.500,331.000
3.117,370.500,448.000,382.500,332.500
3.118,372.000,449.500,384.000,334.000
3.119,373.000,450.000,385.500,335.000
3.120,373.500,450.500,386.000,335.500
3.121,373.500,450.000,385.500,335.000
3.122,372.500,449.000,384.500,334.000
3.123,371.000,448.000,382.500,332.000
3.124,369.000,446.000,379.500,329.500
3.125,366.500,444.000,377.000,327.000
3.126,365.000,442.500,375.000,325.000
3.127,363.500,441.000,373.000,323.000
3.128,362.500,440.000,372.000,322.000
3.129,361.500,439.500,371.500,321.500
3.130,361.500,439.000,371.500,321.000
3.131,361.500,439.000,371.500,321.000
3.132,361.500,439.500,372.000,321.500
3.133,362.000,439.500,372.500,322.000
3.134,362.500,440.000,373.500,322.500
3.135,363.500,441.000,374.500,324.000
3.136,364.500,442.000,376.000,325.500
3.137,366.000,443.000,378.000,327.000
3.138,367.500,444.000,379.500,328.500
3.139,368.500,445.000,381.000,330.000
3.140,369.500,445.500,381.500,330.500
3.141,369.500,445.000,381.000,330.000
3.142,368.500,444.000,379.500,328.500
3.143,367.000,442.500,377.500,326.500
3.144,364.500,440.500,375.000,324.000
3.145,362.500,439.000,373.000,321.500
3.146,360.500,437.500,370.500,319.500
3.147,359.500,436.500,369.000,318.000
3.148,358.500,436.000,368.500,317.000
3.149,358.500,436.000,368.000,317.000
3.150,359.000,436.500,368.500,317.000
3.151,360.000,437.000,369.000,317.000
3.152,360.500,438.000,370.000,318.000
3.153,361.500,439.000,371.500,319.000
3.154,362.500,440.000,372.500,320.000
