'Elapsed time','AECG1','AECG2','AECG3','AECG4'
'seconds','uV','uV','uV','uV'
0.000,214.500,172.500,225.500,243.000
0.001,214.500,172.000,225.500,243.000
0.002,215.000,172.500,226.000,244.000
0.003,215.500,172.000,226.000,244.000
0.004,216.000,172.500,227.000,245.000
0.005,216.000,172.500,227.000,245.000
0.006,217.000,173.500,228.000,246.000
0.007,217.500,173.500,227.500,246.000
0.008,219.000,174.000,228.000,246.500
0.009,219.500,173.500,227.500,246.000
0.010,220.500,173.500,228.000,246.500
0.011,221.000,173.000,227.500,246.000
0.012,221.500,173.000,228.000,246.000
0.013,221.500,172.500,228.000,246.000
0.014,221.500,173.000,228.500,246.000
0.015,221.000,172.500,228.000,245.500
0.016,221.000,172.500,228.500,245.500
0.017,220.000,172.000,228.000,245.000
0.018,220.000,172.000,228.500,245.000
0.019,219.000,171.500,227.500,244.500
0.020,218.500,171.500,227.500,244.500
0.021,217.500,171.500,227.000,243.500
0.022,217.000,171.500,227.000,243.000
0.023,215.500,171.500,226.500,242.500
0.024,215.500,172.000,227.000,242.500
0.025,214.500,171.500,227.000,242.000
0.026,215.000,172.000,228.000,242.000
0.027,215.000,172.000,228.000,241.000
0.028,215.500,172.000,228.000,240.500
0.029,215.500,171.500,227.500,239.500
0.030,216.000,172.000,227.500,238.500
0.031,216.500,171.500,227.000,237.000
0.032,217.000,172.000,227.000,236.500
0.033,217.000,172.000,226.500,235.500
0.034,217.500,172.500,226.500,235.000
0.035,217.000,172.500,226.500,234.000
0.036,217.000,173.500,226.500,233.500
0.037,216.500,173.500,226.000,232.500
0.038,216.500,174.000,226.000,231.500
0.039,215.500,174.000,225.500,230.000
0.040,215.500,174.000,226.000,229.500
0.041,214.500,174.000,226.000,228.000
0.042,214.500,175.000,227.000,227.500
0.043,213.500,176.000,227.500,227.000
0.044,213.500,177.000,229.500,227.000
0.045,213.500,178.000,231.000,227.000
0.046,214.000,179.500,232.500,227.000
0.047,214.500,180.000,233.000,226.500
0.048,215.000,181.000,234.000,227.000
0.049,215.000,181.500,233.500,226.000
0.050,215.500,182.000,234.000,225.500
0.051,215.500,181.500,233.000,224.000
0.052,216.000,181.000,232.500,222.500
0.053,216.000,179.500,231.000,220.500
0.054,217.000,179.000,230.000,219.000
0.055,217.000,178.000,228.500,217.000
0.056,217.500,178.000,228.500,216.000
0.057,216.500,177.500,228.000,215.000
0.058,216.500,178.000,228.000,215.000
0.059,216.000,177.500,228.000,214.000
0.060,215.500,178.000,228.000,214.000
0.061,215.000,177.000,227.500,212.500
0.062,215.000,177.000,227.500,212.000
0.063,214.500,176.000,226.000,211.000
0.064,214.500,175.000,225.500,210.000
0.065,214.000,174.000,224.500,208.500
0.066,214.000,173.000,224.000,208.000
0.067,214.000,172.000,223.000,207.000
0.068,215.000,172.000,223.000,207.000
0.069,215.500,171.000,222.500,206.500
0.070,216.500,171.000,223.000,206.500
0.071,216.500,170.500,222.500,206.000
0.072,217.000,171.000,223.000,206.000
0.073,216.500,170.500,223.000,205.000
0.074,217.500,170.500,223.500,205.500
0.075,217.500,170.500,223.500,205.000
0.076,218.000,171.000,224.000,205.500
0.077,218.000,170.500,224.500,205.500
0.078,218.500,171.000,225.500,206.500
0.079,218.000,171.000,225.500,206.500
0.080,218.000,171.000,226.500,206.500
0.081,217.000,170.500,226.000,206.000
0.082,217.000,170.000,226.500,206.000
0.083,216.000,169.000,225.500,205.000
0.084,216.000,169.000,225.500,204.000
0.085,215.500,168.000,225.000,202.500
0.086,216.000,167.000,224.500,202.000
0.087,215.500,166.000,224.000,200.500
0.088,215.500,166.000,224.000,200.500
0.089,214.500,165.500,223.500,200.000
0.090,214.000,166.000,224.500,200.500
0.091,213.500,166.500,225.000,200.500
0.092,214.000,167.000,226.500,201.500
0.093,214.000,167.000,226.500,201.000
0.094,214.500,167.500,227.500,201.500
0.095,215.000,167.000,227.000,200.500
0.096,215.500,167.000,227.500,200.500
0.097,215.500,166.500,227.500,200.000
0.098,216.000,167.000,228.000,200.000
0.099,215.500,166.500,227.500,199.500
0.100,215.500,167.000,228.000,200.000
0.101,215.000,167.000,228.000,199.500
0.102,215.500,167.500,228.000,199.000
0.103,215.000,167.000,227.500,198.000
0.104,215.500,167.500,227.500,198.000
0.105,215.500,167.500,227.000,197.500
0.106,216.000,167.500,227.500,198.000
0.107,216.000,167.500,227.500,197.500
0.108,216.000,168.000,228.000,198.000
0.109,215.500,168.500,228.000,198.000
0.110,215.500,169.000,228.500,198.000
0.111,214.500,169.500,227.500,197.500
0.112,214.500,170.000,227.500,198.000
0.113,213.500,170.000,227.000,197.500
0.114,213.500,171.000,227.000,197.500
0.115,212.500,171.000,227.000,197.000
0.116,212.500,172.000,227.500,197.500
0.117,212.000,172.000,227.500,197.500
0.118,212.500,173.000,228.000,198.000
0.119,212.500,173.500,228.500,198.000
0.120,213.500,174.500,229.500,199.000
0.121,213.500,174.500,229.500,199.500
0.122,214.500,175.500,230.500,200.000
0.123,215.000,175.000,230.500,200.000
0.124,216.000,175.500,231.000,200.500
0.125,216.000,175.000,230.500,200.000
0.126,216.500,175.000,231.000,200.500
0.127,216.500,174.500,231.000,200.000
0.128,216.500,175.000,231.500,201.000
0.129,216.000,175.000,231.500,201.000
0.130,216.000,175.500,232.500,201.500
0.131,215.500,175.500,232.500,201.500
0.132,216.000,176.000,233.000,202.000
0.133,215.500,176.000,232.500,201.500
0.134,216.000,176.000,232.500,201.500
0.135,215.500,175.000,232.000,200.500
0.136,215.000,175.000,232.000,201.000
0.137,213.500,174.000,232.000,200.500
0.138,213.000,174.000,232.000,201.000
0.139,212.000,173.500,232.000,200.500
0.140,212.500,173.500,232.000,201.000
0.141,213.000,173.000,231.500,201.000
0.142,215.000,173.500,231.500,201.000
0.143,216.500,173.000,230.000,200.000
0.144,218.500,172.500,229.500,199.500
0.145,218.500,172.000,228.500,199.000
0.146,219.000,171.500,228.500,199.000
0.147,217.500,171.000,228.000,199.000
0.148,216.500,171.000,228.500,200.000
0.149,214.500,171.000,228.500,200.000
0.150,213.000,171.500,229.000,201.000
0.151,211.500,171.500,228.500,201.000
0.152,211.500,172.000,229.000,201.500
0.153,210.500,171.500,229.000,201.500
0.154,210.500,171.500,230.000,202.500
0.155,210.000,171.000,230.000,203.000
0.156,210.500,171.000,231.000,203.500
0.157,210.000,171.000,231.000,204.000
0.158,210.000,171.500,232.000,205.000
0.159,210.000,171.500,232.000,205.500
0.160,210.500,172.500,233.000,207.500
0.161,211.000,173.000,233.500,208.500
0.162,212.000,174.500,234.500,210.500
0.163,212.500,175.500,235.000,212.000
0.164,214.000,176.500,236.000,213.500
0.165,215.000,177.000,235.500,213.500
0.166,216.000,177.000,235.500,214.500
0.167,216.000,176.500,234.500,214.000
0.168,216.500,176.500,234.000,214.500
0.169,216.000,176.000,233.000,214.000
0.170,216.000,176.500,233.000,214.500
0.171,215.500,176.000,233.000,214.500
0.172,215.000,176.000,233.500,215.000
0.173,213.500,175.500,233.500,215.000
0.174,213.000,176.000,234.500,215.500
0.175,212.000,175.500,235.000,215.500
0.176,211.500,176.000,236.500,216.500
0.177,211.000,176.000,237.000,217.500
0.178,211.000,177.000,238.500,219.000
0.179,210.500,177.500,239.500,220.000
0.180,211.000,178.500,240.500,221.500
0.181,210.500,178.500,241.000,222.000
0.182,211.000,179.000,241.500,223.000
0.183,210.500,179.000,241.000,223.000
0.184,211.000,179.000,241.000,223.500
0.185,210.500,178.000,240.000,223.500
0.186,211.000,178.000,240.000,223.500
0.187,211.000,177.000,239.500,223.500
0.188,211.500,177.500,239.500,224.000
0.189,211.500,177.000,238.500,223.500
0.190,212.500,177.500,239.000,224.000
0.191,212.000,177.000,238.000,223.500
0.192,212.500,177.000,238.000,224.000
0.193,212.500,176.000,237.500,223.500
0.194,213.000,175.500,237.000,223.500
0.195,213.000,174.500,236.500,223.000
0.196,214.000,174.500,236.500,223.500
0.197,214.500,173.500,236.000,223.000
0.198,215.000,174.000,236.500,224.000
0.199,215.000,173.500,236.500,224.000
0.200,215.000,174.500,237.500,225.500
0.201,214.500,174.500,237.500,226.000
0.202,214.500,175.000,238.500,227.500
0.203,213.500,175.000,239.000,227.500
0.204,213.000,175.000,239.500,228.000
0.205,212.500,174.000,239.000,227.500
0.206,212.500,173.500,238.500,227.000
0.207,212.500,172.000,237.000,225.500
0.208,212.500,171.000,236.500,225.000
0.209,212.000,170.000,235.500,223.500
0.210,212.500,170.000,235.500,223.500
0.211,212.500,170.000,235.500,223.000
0.212,213.500,170.500,236.500,223.500
0.213,213.500,171.000,237.000,223.500
0.214,215.000,171.500,238.000,224.000
0.215,215.000,171.500,238.000,224.000
0.216,216.000,172.000,238.000,224.500
0.217,215.500,172.000,237.500,224.000
0.218,215.500,172.000,238.000,224.000
0.219,215.000,172.000,237.500,223.000
0.220,215.000,172.500,238.000,223.000
0.221,214.500,172.500,238.500,222.500
0.222,214.000,174.000,239.500,223.500
0.223,213.000,175.000,240.500,223.500
0.224,212.500,177.000,242.000,225.000
0.225,211.500,178.500,243.000,225.500
0.226,211.500,180.500,244.500,227.000
0.227,211.500,181.000,245.500,228.000
0.228,212.000,182.000,246.500,229.000
0.229,212.000,182.000,246.500,228.500
0.230,213.000,182.000,246.500,228.500
0.231,213.000,180.500,245.500,227.000
0.232,214.000,179.500,244.000,226.000
0.233,214.000,177.500,242.000,224.000
0.234,214.500,176.500,240.500,222.500
0.235,214.000,174.500,238.500,220.500
0.236,213.500,174.000,238.000,219.500
0.237,212.500,173.500,237.000,219.000
0.238,212.500,173.500,237.500,219.000
0.239,212.000,173.000,237.500,219.000
0.240,212.500,173.500,238.500,220.000
0.241,212.500,174.000,238.500,220.000
0.242,213.000,175.000,239.500,221.000
0.243,213.000,175.500,240.000,221.000
0.244,213.500,177.000,241.000,222.000
0.245,213.000,177.500,241.500,222.500
0.246,213.000,179.000,242.500,223.000
0.247,212.500,179.000,242.000,222.500
0.248,212.500,179.000,242.000,222.500
0.249,211.500,178.000,241.000,221.000
0.250,211.000,177.500,240.000,220.500
0.251,210.500,176.000,238.500,219.000
0.252,210.500,175.000,238.000,218.500
0.253,210.000,173.500,236.500,217.000
0.254,210.000,173.000,235.500,216.000
0.255,209.500,171.500,234.500,214.500
0.256,210.000,171.500,234.500,214.000
0.257,209.500,170.500,234.000,213.000
0.258,209.500,170.500,234.500,213.000
0.259,209.500,170.500,235.000,212.500
0.260,210.000,171.000,236.000,213.500
0.261,209.500,171.500,236.500,214.500
0.262,210.000,172.500,238.000,215.500
0.263,209.500,173.000,238.500,216.000
0.264,210.000,174.000,239.000,216.500
0.265,209.500,174.000,239.000,216.000
0.266,210.000,174.000,239.000,216.000
0.267,210.500,173.000,238.000,215.000
0.268,212.000,172.500,237.500,213.500
0.269,213.000,171.000,236.000,211.500
0.270,215.000,170.500,235.000,210.500
0.271,215.500,169.500,234.000,209.000
0.272,217.000,169.500,234.000,208.500
0.273,217.000,170.000,234.500,208.000
0.274,217.500,171.000,235.500,209.000
0.275,217.000,172.000,236.500,210.000
0.276,218.000,173.000,238.000,211.500
0.277,218.000,173.500,238.500,212.000
0.278,219.000,174.000,239.500,213.000
0.279,219.000,174.000,239.000,213.000
0.280,219.500,174.500,239.500,213.500
0.281,219.500,174.500,239.000,213.000
0.282,219.500,175.000,239.000,213.500
0.283,218.500,175.000,238.500,213.000
0.284,218.000,175.500,239.500,214.000
0.285,217.000,176.000,239.500,214.000
0.286,216.500,177.000,241.000,215.000
0.287,215.500,178.000,241.500,215.000
0.288,216.000,179.000,243.000,216.500
0.289,215.500,180.000,244.000,217.500
0.290,216.000,181.500,246.000,219.500
0.291,216.000,182.500,248.000,221.000
0.292,216.500,184.000,251.000,223.500
0.293,216.500,185.500,253.000,225.500
0.294,216.500,187.000,256.000,228.000
0.295,215.500,188.500,258.000,229.000
0.296,216.000,190.000,260.000,231.000
0.297,215.500,190.500,260.500,231.500
0.298,216.000,191.000,261.000,232.000
0.299,216.000,190.500,260.500,231.000
0.300,217.000,190.000,259.500,231.000
0.301,216.500,189.000,258.000,229.500
0.302,217.000,188.500,256.500,229.000
0.303,216.000,187.500,254.500,228.000
0.304,215.500,186.500,253.500,227.000
0.305,214.500,185.000,251.500,226.000
0.306,214.000,184.000,250.000,225.000
0.307,213.500,182.500,247.500,223.500
0.308,214.000,181.000,246.500,223.000
0.309,213.500,179.500,244.500,221.500
0.310,213.500,178.500,243.500,221.000
0.311,213.000,177.000,242.000,220.000
0.312,212.500,177.000,241.500,220.000
0.313,211.500,176.500,241.000,220.000
0.314,211.500,176.500,241.500,220.500
0.315,211.000,176.500,241.000,221.000
0.316,212.000,177.000,242.000,222.000
0.317,212.000,176.500,242.000,222.500
0.318,213.000,176.500,242.500,223.500
0.319,213.500,176.000,242.000,223.500
0.320,214.000,176.500,242.500,224.000
0.321,213.500,176.000,242.500,224.000
0.322,214.000,176.000,243.000,224.500
0.323,214.000,176.000,243.500,224.500
0.324,215.000,176.000,244.000,225.000
0.325,215.500,176.000,244.000,225.000
0.326,217.000,176.500,245.000,226.000
0.327,217.500,176.500,245.500,226.500
0.328,219.000,177.000,246.000,227.500
0.329,219.500,177.000,246.000,228.000
0.330,220.500,177.500,246.500,229.000
0.331,220.500,177.000,246.000,229.000
0.332,221.000,176.500,245.500,229.000
0.333,220.500,174.500,244.000,227.500
0.334,220.500,173.000,243.000,227.000
0.335,219.500,170.500,241.500,225.500
0.336,219.000,169.500,240.500,224.500
0.337,217.500,168.000,239.500,224.000
0.338,217.000,168.000,239.500,224.500
0.339,215.500,168.000,240.000,224.500
0.340,215.000,169.500,241.000,225.500
0.341,214.000,170.000,242.000,226.000
0.342,213.500,171.000,243.000,227.500
0.343,213.000,171.500,243.500,227.500
0.344,213.500,172.500,245.000,228.500
0.345,213.000,173.000,245.000,228.500
0.346,213.000,174.000,246.000,229.500
0.347,212.000,174.500,246.500,229.000
0.348,211.500,175.000,247.000,229.000
0.349,211.000,174.500,246.500,228.000
0.350,211.500,174.000,246.500,227.000
0.351,211.500,172.500,245.000,225.500
0.352,212.000,171.000,244.500,224.500
0.353,212.000,169.000,243.000,223.000
0.354,213.000,168.000,242.500,222.500
0.355,212.500,167.000,242.000,222.000
0.356,213.000,167.500,242.500,223.000
0.357,213.000,167.500,242.500,223.500
0.358,214.000,168.500,244.000,225.000
0.359,214.500,169.500,244.500,225.000
0.360,215.500,170.500,245.000,225.500
0.361,216.000,170.500,245.000,224.500
0.362,217.000,170.500,244.500,223.500
0.363,216.500,170.000,243.000,221.500
0.364,217.000,169.500,241.500,220.000
0.365,216.000,168.500,240.000,217.500
0.366,216.000,168.500,239.000,216.500
0.367,214.500,168.500,238.000,215.000
0.368,214.000,169.000,238.500,214.500
0.369,213.000,169.500,238.000,214.000
0.370,212.500,170.500,239.000,214.500
0.371,212.500,170.500,239.000,214.000
0.372,213.000,171.000,240.000,214.500
0.373,213.500,171.000,240.000,214.500
0.374,214.500,172.000,241.000,215.000
0.375,214.000,172.000,241.500,215.000
0.376,213.000,173.000,243.000,215.500
0.377,211.500,173.000,243.000,215.000
0.378,210.500,173.000,243.500,215.500
0.379,209.500,172.500,243.000,215.000
0.380,210.500,173.000,243.000,215.500
0.381,211.500,172.500,242.500,215.000
0.382,213.500,172.500,242.500,215.000
0.383,215.000,171.500,241.000,214.000
0.384,216.500,171.000,241.000,214.000
0.385,217.000,170.000,240.000,213.000
0.386,217.000,169.500,240.000,213.000
0.387,216.500,169.000,239.000,212.000
0.388,216.500,169.500,239.500,212.500
0.389,216.000,170.000,239.000,212.000
0.390,216.000,171.000,240.000,212.000
0.391,216.000,172.000,240.000,212.000
0.392,216.000,173.500,241.000,212.500
0.393,215.500,174.000,241.500,212.000
0.394,214.500,175.000,242.500,213.000
0.395,213.000,175.000,243.000,213.000
0.396,211.500,176.000,244.500,214.500
0.397,209.500,176.500,245.500,215.500
0.398,208.000,177.500,248.000,217.500
0.399,206.500,179.000,250.000,219.000
0.400,206.500,181.000,253.000,221.500
0.401,206.000,182.500,255.000,223.000
0.402,206.500,184.000,257.500,224.500
0.403,207.000,185.000,258.000,225.000
0.404,208.000,185.500,259.000,225.500
0.405,208.500,184.500,257.500,225.000
0.406,210.000,183.500,256.500,224.500
0.407,210.500,182.000,253.500,222.500
0.408,211.500,180.500,251.500,221.000
0.409,212.000,178.500,249.000,219.000
0.410,212.500,177.500,248.000,217.500
0.411,212.000,176.500,246.500,216.000
0.412,212.000,176.500,246.000,215.500
0.413,211.000,176.000,245.500,215.000
0.414,210.500,177.000,246.000,215.500
0.415,209.000,177.000,246.500,215.500
0.416,209.000,178.000,248.000,217.000
0.417,208.500,178.500,249.000,218.000
0.418,209.500,179.500,251.000,219.500
0.419,210.000,180.500,252.500,220.500
0.420,211.000,182.000,254.500,222.000
0.421,211.000,182.500,255.000,222.000
0.422,211.500,183.500,256.500,223.000
0.423,210.500,183.500,256.500,222.500
0.424,210.000,184.000,257.000,223.000
0.425,209.000,183.000,256.500,222.000
0.426,208.500,183.000,256.000,222.000
0.427,207.500,181.500,254.500,221.000
0.428,207.500,181.000,254.000,220.500
0.429,207.000,179.500,252.000,219.000
0.430,207.500,178.500,251.000,218.000
0.431,207.500,177.500,249.500,216.500
0.432,208.000,177.000,248.500,215.500
0.433,208.000,176.500,247.500,214.500
0.434,208.500,177.000,248.000,214.500
0.435,208.500,177.500,248.000,214.000
0.436,209.000,179.000,249.500,215.000
0.437,208.500,180.000,250.500,216.000
0.438,209.000,182.000,252.500,217.500
0.439,208.500,182.500,253.500,218.500
0.440,208.500,183.000,254.500,219.500
0.441,208.500,182.500,254.500,219.000
0.442,208.500,182.000,254.500,219.000
0.443,208.000,181.000,253.000,217.500
0.444,208.500,180.000,252.000,217.000
0.445,208.000,179.000,250.500,216.000
0.446,208.000,179.000,250.500,215.500
0.447,208.000,179.000,249.500,215.000
0.448,208.500,179.500,250.000,215.000
0.449,208.500,179.500,250.000,215.000
0.450,209.500,180.500,250.500,215.500
0.451,210.000,180.500,250.500,215.500
0.452,210.500,181.000,251.000,216.500
0.453,210.000,180.500,251.000,216.000
0.454,210.000,181.000,251.000,216.500
0.455,209.000,180.000,250.500,215.500
0.456,209.500,180.000,250.000,215.500
0.457,209.000,179.000,249.000,214.500
0.458,209.000,178.500,248.500,214.500
0.459,208.000,177.500,248.000,214.000
0.460,207.000,178.000,248.000,215.000
0.461,205.000,178.500,248.000,215.500
0.462,203.000,180.000,249.500,217.000
0.463,200.500,181.500,250.500,218.000
0.464,199.000,184.000,252.500,219.500
0.465,197.500,185.500,253.500,220.500
0.466,197.500,187.000,255.000,221.000
0.467,198.000,187.500,255.000,220.500
0.468,199.500,188.000,255.000,220.500
0.469,200.500,187.500,254.000,219.500
0.470,203.000,187.000,253.500,219.500
0.471,204.500,186.500,252.500,219.500
0.472,206.000,186.000,252.000,220.000
0.473,207.000,185.500,251.000,220.500
0.474,208.000,185.500,251.000,222.000
0.475,208.000,184.500,250.000,222.500
0.476,208.000,183.500,249.000,224.000
0.477,207.000,182.000,247.000,224.500
0.478,207.000,180.500,245.000,225.000
0.479,206.000,178.500,242.000,224.500
0.480,205.500,176.500,239.000,224.000
0.481,205.000,174.000,235.000,222.500
0.482,205.500,171.000,231.000,221.000
0.483,206.000,167.000,226.000,218.000
0.484,208.500,163.000,220.000,214.500
0.485,210.500,158.000,213.000,210.000
0.486,214.000,152.500,206.000,206.000
0.487,216.500,145.500,198.000,201.500
0.488,219.000,139.500,190.500,197.500
0.489,220.500,132.500,182.500,193.500
0.490,222.500,126.000,174.500,189.500
0.491,224.000,118.500,165.500,185.000
0.492,226.500,110.500,155.500,179.500
0.493,229.000,101.000,142.500,172.000
0.494,233.000,91.500,129.000,163.500
0.495,236.500,81.000,114.000,153.500
0.496,240.500,72.000,100.500,144.500
0.497,243.000,63.000,87.500,135.000
0.498,245.000,56.500,78.000,127.500
0.499,245.000,51.000,71.000,121.500
0.500,244.000,49.000,68.000,118.000
0.501,241.500,49.000,68.000,116.000
0.502,239.500,52.000,71.500,116.500
0.503,236.500,57.000,77.000,117.500
0.504,235.000,64.000,85.000,120.000
0.505,233.000,71.500,94.000,122.000
0.506,233.000,80.500,104.000,125.000
0.507,232.000,88.500,113.000,127.000
0.508,232.000,96.500,122.500,128.500
0.509,231.000,103.000,130.500,129.000
0.510,229.500,109.500,138.500,130.000
0.511,227.000,114.500,145.000,130.500
0.512,224.500,120.000,152.500,132.000
0.513,221.500,125.500,160.000,134.000
0.514,219.500,133.000,170.000,138.000
0.515,216.000,140.500,180.500,143.000
0.516,213.500,150.000,192.500,149.500
0.517,210.500,159.500,204.500,155.500
0.518,208.000,169.500,217.000,162.000
0.519,205.000,177.500,227.500,167.000
0.520,203.500,185.000,236.500,171.000
0.521,201.500,190.000,242.500,172.500
0.522,200.500,194.000,247.000,173.500
0.523,199.500,195.500,249.000,172.500
0.524,199.500,197.000,250.500,172.000
0.525,198.500,198.000,251.000,171.500
0.526,199.000,199.000,252.500,171.500
0.527,198.500,200.000,253.500,172.000
0.528,199.000,202.000,255.500,173.500
0.529,198.500,203.000,257.000,175.000
0.530,199.500,204.500,258.500,177.000
0.531,200.000,204.500,258.500,178.000
0.532,201.500,204.000,258.500,179.000
0.533,202.500,202.500,257.000,179.500
0.534,204.000,200.500,255.500,180.000
0.535,204.500,198.000,253.000,180.000
0.536,205.500,196.500,252.000,181.000
0.537,205.000,194.500,250.500,181.500
0.538,204.500,194.000,251.000,183.000
0.539,203.000,193.000,250.500,183.500
0.540,202.500,193.000,251.500,184.000
0.541,201.500,193.000,252.000,184.500
0.542,201.000,194.500,253.500,185.500
0.543,200.500,196.000,254.500,186.000
0.544,201.000,198.000,256.000,187.500
0.545,201.000,199.000,256.500,188.000
0.546,202.000,200.500,257.000,188.500
0.547,202.500,200.500,256.500,188.000
0.548,204.500,200.500,256.000,188.000
0.549,205.500,199.000,254.500,186.500
0.550,206.500,197.500,253.500,185.500
0.551,206.000,195.000,251.000,184.000
0.552,206.000,193.000,250.000,183.000
0.553,205.000,191.000,248.000,181.500
0.554,204.500,190.000,248.000,181.500
0.555,204.500,188.500,247.500,181.000
0.556,205.500,188.500,248.000,182.000
0.557,206.000,188.500,248.500,182.000
0.558,207.500,189.000,249.500,183.500
0.559,208.000,190.000,250.500,184.000
0.560,208.500,191.500,252.500,186.000
0.561,207.500,192.500,253.500,186.500
0.562,207.500,194.000,255.000,188.000
0.563,206.500,195.000,256.000,188.000
0.564,207.000,196.000,257.000,188.500
0.565,207.000,196.000,256.500,188.000
0.566,207.500,196.500,257.000,188.000
0.567,208.000,196.000,256.000,187.000
0.568,208.500,196.000,255.500,187.000
0.569,208.500,195.500,254.500,186.500
0.570,209.000,195.000,253.500,186.500
0.571,208.500,194.000,251.500,186.000
0.572,208.500,193.500,250.500,185.500
0.573,207.500,192.500,248.500,184.500
0.574,206.500,192.000,248.500,184.500
0.575,205.000,191.500,248.000,183.500
0.576,204.000,192.500,249.000,184.500
0.577,202.000,193.500,250.500,185.500
0.578,201.500,195.500,253.000,188.000
0.579,200.500,197.000,255.500,190.000
0.580,201.000,199.500,258.500,193.000
0.581,201.500,200.500,260.000,194.500
0.582,203.000,201.500,261.500,196.000
0.583,204.000,200.500,260.500,195.500
0.584,205.500,199.500,259.500,195.000
0.585,206.000,197.500,257.000,193.000
0.586,206.500,195.500,254.500,191.500
0.587,206.000,193.000,251.500,189.000
0.588,205.500,191.000,249.500,187.500
0.589,205.000,189.000,247.500,186.000
0.590,205.000,188.500,246.500,186.000
0.591,204.500,187.500,246.000,185.500
0.592,205.000,187.500,246.500,186.000
0.593,205.000,187.500,246.500,186.500
0.594,205.500,188.500,248.000,188.000
0.595,205.000,189.500,248.500,189.000
0.596,205.500,190.500,249.000,190.000
0.597,205.500,191.000,249.000,190.500
0.598,207.000,191.000,249.000,191.500
0.599,207.500,190.500,247.500,191.000
0.600,209.500,190.000,247.000,191.000
0.601,210.500,188.000,245.000,190.000
0.602,212.000,187.000,244.000,190.500
0.603,212.500,186.000,243.000,190.500
0.604,213.500,186.000,243.500,191.500
0.605,213.500,186.000,244.000,192.500
0.606,213.500,187.000,245.500,194.500
0.607,213.000,187.500,246.500,195.500
0.608,212.500,188.500,248.000,197.000
0.609,212.000,188.500,248.000,197.500
0.610,211.500,188.500,249.000,198.500
0.611,210.000,188.000,248.500,198.000
0.612,208.500,187.500,249.000,198.500
0.613,206.500,186.500,248.500,198.000
0.614,205.500,186.000,249.000,198.000
0.615,204.500,185.000,248.500,197.500
0.616,204.000,185.000,249.000,198.000
0.617,204.000,184.500,249.000,198.000
0.618,205.500,184.500,250.000,199.500
0.619,206.500,184.500,250.500,200.000
0.620,208.500,185.000,252.000,201.500
0.621,209.500,185.000,253.000,202.000
0.622,210.500,185.500,254.500,203.000
0.623,210.500,185.500,255.000,203.000
0.624,210.500,186.500,255.500,203.500
0.625,209.000,186.000,255.500,203.500
0.626,207.500,186.500,255.500,203.500
0.627,205.000,185.500,254.500,203.000
0.628,203.500,185.000,254.000,203.500
0.629,201.000,184.000,253.000,203.500
0.630,199.500,184.500,253.000,204.000
0.631,198.500,185.000,253.000,204.500
0.632,198.500,186.500,254.000,205.500
0.633,198.500,187.000,254.000,206.000
0.634,200.000,188.000,254.500,207.000
0.635,201.500,188.000,254.000,207.000
0.636,203.500,188.000,253.500,207.500
0.637,204.500,187.500,252.000,207.000
0.638,205.000,187.500,252.000,207.500
0.639,204.000,187.000,251.000,207.500
0.640,203.500,186.500,251.000,207.500
0.641,202.000,185.500,249.500,206.500
0.642,201.500,184.500,248.500,206.000
0.643,201.000,182.500,246.000,204.500
0.644,202.000,181.500,245.000,204.000
0.645,203.000,180.500,243.000,202.500
0.646,205.000,180.500,242.500,202.500
0.647,206.000,180.500,242.000,202.500
0.648,207.000,182.000,243.000,203.500
0.649,206.500,183.500,243.500,204.500
0.650,205.500,185.500,245.500,206.500
0.651,203.500,187.000,247.000,207.500
0.652,201.500,188.500,248.500,209.000
0.653,199.000,188.500,249.000,209.000
0.654,198.000,188.000,249.000,209.000
0.655,197.500,186.500,247.000,207.500
0.656,198.500,184.500,245.500,206.000
0.657,200.000,181.500,242.500,203.500
0.658,202.000,179.500,240.500,202.000
0.659,203.500,177.000,238.500,200.500
0.660,205.500,176.500,238.500,200.500
0.661,205.500,176.000,238.000,200.500
0.662,206.000,176.000,238.000,201.500
0.663,205.500,175.500,237.500,201.500
0.664,206.000,176.000,237.500,202.500
0.665,205.500,176.000,237.000,202.500
0.666,206.500,176.500,237.500,203.500
0.667,206.500,177.000,237.500,204.000
0.668,207.000,178.000,238.500,205.000
0.669,207.000,178.000,238.500,205.500
0.670,207.000,178.500,239.000,206.000
0.671,206.000,177.500,238.000,205.500
0.672,206.000,176.500,237.500,205.500
0.673,205.000,175.000,235.500,204.500
0.674,205.000,174.000,234.500,204.500
0.675,204.000,173.000,233.000,204.500
0.676,204.500,173.500,233.000,205.500
0.677,204.000,173.500,233.000,206.500
0.678,204.500,175.000,234.500,208.500
0.679,204.500,176.000,235.000,210.500
0.680,205.500,177.500,237.000,213.000
0.681,206.500,178.500,237.500,214.000
0.682,208.000,179.000,238.000,215.000
0.683,208.500,178.500,237.500,214.500
0.684,209.000,178.000,236.500,214.000
0.685,208.500,177.000,234.500,213.000
0.686,208.000,176.000,233.000,212.500
0.687,206.500,175.000,232.000,211.500
0.688,205.500,175.500,232.000,212.500
0.689,204.000,176.500,232.000,213.000
0.690,203.500,178.500,233.000,215.000
0.691,202.500,180.500,234.000,217.000
0.692,202.500,183.000,235.000,219.000
0.693,202.500,184.500,235.000,220.000
0.694,203.500,185.500,235.000,221.000
0.695,205.000,185.500,233.000,220.500
0.696,207.000,185.000,231.500,220.000
0.697,208.000,183.500,229.500,218.500
0.698,209.500,183.000,228.000,218.500
0.699,209.500,182.000,226.500,218.000
0.700,209.500,182.000,226.000,219.000
0.701,209.000,182.000,225.500,219.500
0.702,208.500,182.500,225.000,221.000
0.703,208.000,182.000,224.000,221.000
0.704,208.000,182.000,223.000,222.000
0.705,208.000,181.000,221.000,221.500
0.706,209.500,180.500,220.000,221.500
0.707,210.000,179.500,218.000,221.000
0.708,211.000,179.500,217.000,221.000
0.709,211.000,179.500,216.000,221.000
0.710,211.500,180.500,216.500,222.000
0.711,211.000,181.000,216.000,222.500
0.712,211.500,182.000,216.500,223.500
0.713,211.500,182.000,215.500,224.000
0.714,212.500,181.500,214.500,224.000
0.715,212.500,179.500,212.000,223.500
0.716,213.500,177.500,210.500,223.000
0.717,213.000,175.500,208.000,221.500
0.718,213.000,174.000,207.000,221.500
0.719,212.000,173.000,205.500,221.500
0.720,211.500,173.500,205.500,222.000
0.721,210.000,173.500,205.500,221.500
0.722,209.500,174.500,206.000,222.000
0.723,208.000,175.000,206.000,222.000
0.724,207.500,176.000,206.500,222.500
0.725,206.500,176.000,206.500,222.500
0.726,206.500,176.500,207.500,223.500
0.727,207.000,176.500,207.000,223.500
0.728,208.500,177.500,207.500,224.000
0.729,210.000,177.000,207.000,224.000
0.730,212.500,177.500,207.500,225.000
0.731,214.000,177.500,207.000,225.000
0.732,215.500,178.000,207.500,226.000
0.733,215.000,178.000,208.000,226.500
0.734,214.500,179.000,209.000,228.000
0.735,213.500,179.500,210.000,229.500
0.736,213.000,180.500,211.500,231.500
0.737,212.000,181.500,213.000,233.500
0.738,212.500,182.500,215.000,236.000
0.739,212.500,183.500,216.500,237.500
0.740,213.000,185.000,219.000,239.500
0.741,213.000,186.000,220.000,240.500
0.742,213.500,187.000,222.000,242.000
0.743,213.500,187.500,222.500,242.000
0.744,213.500,188.000,223.500,242.500
0.745,213.000,188.000,223.500,242.500
0.746,212.500,188.500,224.000,242.500
0.747,211.000,188.500,224.000,242.000
0.748,209.500,188.000,224.000,242.500
0.749,207.000,187.000,222.500,241.000
0.750,206.000,185.500,221.500,240.000
0.751,205.000,182.500,219.000,238.000
0.752,205.500,180.500,217.000,236.500
0.753,206.000,177.500,215.000,234.500
0.754,207.000,176.000,214.500,234.000
0.755,208.000,174.500,214.500,233.500
0.756,209.000,175.000,216.500,234.500
0.757,209.000,175.500,218.000,235.500
0.758,209.000,177.000,220.500,238.000
0.759,209.000,178.500,222.500,239.500
0.760,209.000,180.000,224.500,241.500
0.761,209.000,180.500,225.500,242.500
0.762,209.000,182.000,227.000,244.000
0.763,209.000,182.500,227.500,244.500
0.764,209.000,183.500,228.500,246.000
0.765,208.500,184.000,228.500,246.000
0.766,208.500,185.000,229.000,247.000
0.767,207.500,185.000,229.000,246.500
0.768,207.000,185.500,230.000,247.000
0.769,206.500,184.500,230.000,246.500
0.770,206.500,184.000,230.000,247.000
0.771,206.000,182.500,229.000,246.000
0.772,207.000,181.500,228.500,246.000
0.773,207.500,179.500,227.000,245.000
0.774,209.000,179.000,226.000,245.000
0.775,209.500,178.000,225.000,245.000
0.776,210.500,178.000,225.000,245.500
0.777,210.500,178.500,225.000,245.500
0.778,211.000,179.500,226.000,246.500
0.779,209.500,180.500,226.500,247.000
0.780,208.500,182.000,228.000,248.500
0.781,206.000,182.500,228.500,248.500
0.782,204.500,183.500,229.500,249.500
0.783,202.500,183.000,229.500,249.000
0.784,202.000,183.500,230.000,249.500
0.785,201.000,183.000,230.000,249.500
0.786,201.500,184.000,231.500,250.500
0.787,202.000,185.000,232.500,251.000
0.788,203.000,186.500,234.000,252.500
0.789,203.500,187.500,235.000,253.000
0.790,204.500,189.000,236.500,254.000
0.791,205.500,189.500,237.000,254.000
0.792,207.000,190.500,238.000,254.000
0.793,208.000,190.500,237.500,253.500
0.794,209.500,191.000,238.000,253.000
0.795,210.500,190.500,237.000,251.500
0.796,211.500,190.500,237.000,251.000
0.797,211.500,191.000,236.500,250.000
0.798,212.000,192.000,237.000,250.000
0.799,211.500,193.000,237.500,250.000
0.800,211.000,195.000,239.000,251.500
0.801,209.500,196.500,240.000,252.000
0.802,208.000,198.500,242.000,254.000
0.803,206.500,199.500,243.000,254.500
0.804,206.500,201.000,244.500,255.500
0.805,206.500,201.500,245.000,255.500
0.806,208.000,201.500,245.000,255.000
0.807,209.500,200.500,243.000,253.500
0.808,211.500,199.500,241.500,252.000
0.809,212.000,197.500,239.500,250.000
0.810,212.000,197.000,239.000,249.500
0.811,210.000,197.000,238.500,249.000
0.812,208.000,198.500,239.500,250.500
0.813,204.500,200.000,241.000,251.500
0.814,201.500,202.000,243.000,253.500
0.815,199.000,203.500,244.000,254.500
0.816,199.000,204.500,244.500,255.500
0.817,199.000,203.500,243.500,254.000
0.818,201.000,202.500,241.500,252.500
0.819,203.000,199.500,237.500,249.500
0.820,205.500,197.000,234.000,246.500
0.821,207.000,194.500,230.000,243.500
0.822,207.500,193.500,228.000,242.500
0.823,206.500,193.000,226.500,241.500
0.824,205.500,194.500,227.500,243.000
0.825,203.500,196.500,228.500,245.000
0.826,202.000,199.500,231.000,248.000
0.827,200.000,202.500,233.500,250.500
0.828,200.000,206.500,236.000,253.500
0.829,200.000,209.500,238.000,256.000
0.830,202.000,212.500,240.500,258.500
0.831,203.500,214.000,241.000,259.500
0.832,206.500,215.000,241.500,260.000
0.833,208.500,214.000,240.000,258.500
0.834,210.000,212.500,238.000,256.500
0.835,210.500,210.000,235.000,253.500
0.836,210.500,208.000,232.500,251.500
0.837,210.000,205.500,229.500,248.500
0.838,210.500,204.000,227.500,246.500
0.839,210.500,202.500,225.500,244.500
0.840,212.000,202.000,224.500,243.000
0.841,213.500,201.000,222.500,241.000
0.842,215.500,201.500,222.000,240.000
0.843,216.500,201.000,221.500,238.500
0.844,217.500,202.000,222.000,238.000
0.845,217.000,202.000,222.000,237.000
0.846,217.000,203.000,223.500,236.500
0.847,215.500,204.000,224.000,236.000
0.848,215.000,205.500,225.500,236.000
0.849,213.000,206.500,226.500,236.000
0.850,212.000,208.500,228.000,236.500
0.851,210.500,209.000,228.500,236.000
0.852,210.000,210.500,229.000,236.000
0.853,209.500,210.000,228.500,234.500
0.854,210.500,210.000,228.500,233.000
0.855,211.500,209.000,227.500,230.500
0.856,213.000,209.000,227.500,229.000
0.857,213.500,209.000,227.500,228.000
0.858,213.500,210.500,229.000,228.000
0.859,212.500,212.000,231.000,228.500
0.860,211.500,215.000,234.500,230.500
0.861,209.500,218.000,237.000,231.500
0.862,208.500,221.000,240.500,233.500
0.863,206.500,223.500,242.500,234.500
0.864,205.500,225.500,244.500,235.000
0.865,204.500,226.000,245.000,234.000
0.866,204.500,226.000,245.000,233.000
0.867,204.500,224.000,243.500,231.000
0.868,206.000,222.000,242.000,228.500
0.869,207.000,219.000,239.500,225.500
0.870,209.500,216.500,237.500,223.000
0.871,211.000,213.500,235.000,220.000
0.872,212.500,211.500,234.000,218.500
0.873,212.500,209.500,233.000,216.500
0.874,212.000,209.500,233.500,216.500
0.875,210.000,209.500,234.500,217.000
0.876,209.000,211.000,236.500,218.500
0.877,207.000,212.000,238.500,219.500
0.878,206.000,214.000,241.000,221.500
0.879,205.000,215.000,242.500,222.000
0.880,205.500,216.000,243.500,223.000
0.881,205.500,216.000,243.000,222.000
0.882,206.500,215.500,242.500,221.000
0.883,207.000,214.000,240.500,219.000
0.884,208.000,213.000,239.500,217.500
0.885,208.000,211.500,237.500,215.000
0.886,208.500,210.500,236.500,213.500
0.887,208.000,209.500,235.500,211.500
0.888,208.000,209.000,235.000,210.500
0.889,207.500,208.500,234.000,209.000
0.890,207.500,208.500,234.000,208.500
0.891,207.000,208.000,232.500,207.000
0.892,207.500,208.000,232.000,206.500
0.893,208.000,208.000,230.500,205.500
0.894,209.500,208.500,230.500,205.500
0.895,210.500,208.500,230.000,205.000
0.896,212.000,209.500,230.500,205.000
0.897,212.500,209.500,230.500,205.000
0.898,213.000,209.500,231.000,205.000
0.899,213.000,209.000,230.500,204.000
0.900,213.500,208.500,230.500,203.500
0.901,212.500,208.000,229.500,202.500
0.902,212.500,208.500,229.500,202.000
0.903,212.000,208.500,229.000,201.000
0.904,212.500,210.000,229.000,201.000
0.905,212.500,210.500,229.000,200.500
0.906,213.500,212.000,230.000,201.000
0.907,214.000,212.500,230.000,200.500
0.908,215.500,213.500,231.000,201.500
0.909,215.500,214.500,231.500,201.500
0.910,216.000,215.500,233.000,202.000
0.911,215.000,216.500,234.000,202.500
0.912,214.000,218.000,236.000,204.000
0.913,212.500,219.500,237.000,205.000
0.914,211.000,221.500,239.000,206.500
0.915,208.500,222.000,239.000,206.500
0.916,207.000,222.500,239.500,206.500
0.917,205.000,221.500,237.500,205.000
0.918,204.500,219.500,235.500,202.500
0.919,204.000,216.000,232.000,199.000
0.920,205.000,212.500,229.000,195.500
0.921,206.000,208.500,225.500,192.000
0.922,207.500,206.000,223.500,190.000
0.923,208.500,204.000,222.000,188.500
0.924,209.500,204.000,222.500,188.500
0.925,209.000,204.000,222.500,188.500
0.926,209.500,205.500,224.000,190.000
0.927,208.500,207.000,224.500,190.500
0.928,208.500,208.500,225.500,191.500
0.929,208.000,209.000,224.500,191.000
0.930,208.500,210.000,224.500,191.000
0.931,208.500,209.500,223.000,190.000
0.932,209.000,209.000,223.000,189.500
0.933,208.500,208.500,222.500,188.500
0.934,209.000,209.500,223.500,189.500
0.935,208.000,210.500,225.000,190.500
0.936,208.000,213.500,228.000,193.000
0.937,206.500,215.500,230.000,195.000
0.938,206.000,218.000,233.000,197.500
0.939,205.000,219.500,234.000,198.500
0.940,205.500,220.000,235.000,199.500
0.941,206.000,219.500,234.000,199.000
0.942,208.500,218.500,233.500,198.000
0.943,210.500,216.500,232.000,196.500
0.944,213.500,215.000,230.500,195.000
0.945,215.500,212.500,228.500,193.000
0.946,217.500,210.500,227.000,191.500
0.947,218.000,207.500,225.000,189.000
0.948,218.000,205.000,223.000,187.000
0.949,216.500,202.000,220.500,184.500
0.950,215.000,200.000,218.500,182.500
0.951,213.000,198.000,216.500,180.500
0.952,212.000,198.000,216.000,179.500
0.953,211.000,198.000,215.500,178.500
0.954,210.500,199.500,216.500,179.000
0.955,210.000,201.000,217.500,180.000
0.956,209.500,203.000,220.000,181.500
0.957,209.000,204.500,221.000,183.000
0.958,209.500,205.500,222.500,184.000
0.959,210.500,205.000,222.000,183.500
0.960,212.500,204.500,221.000,182.500
0.961,214.500,203.500,219.500,181.000
0.962,217.500,202.500,218.500,180.000
0.963,218.500,202.000,217.500,179.000
0.964,219.500,202.500,218.000,179.000
0.965,218.500,203.500,219.000,179.500
0.966,217.500,205.500,221.000,181.500
0.967,215.000,207.000,222.500,183.000
0.968,213.000,208.000,224.000,184.500
0.969,210.000,208.000,224.000,184.500
0.970,208.500,208.000,224.000,184.500
0.971,207.000,207.000,222.000,183.000
0.972,207.500,206.000,221.000,182.000
0.973,208.500,204.000,218.500,179.500
0.974,211.500,203.000,217.000,177.500
0.975,214.500,201.000,214.500,175.000
0.976,218.000,199.500,213.000,173.500
0.977,219.500,197.500,211.500,172.000
0.978,220.000,197.000,210.500,171.500
0.979,219.000,196.500,210.000,171.000
0.980,217.000,197.000,210.000,172.000
0.981,214.500,197.500,210.000,172.500
0.982,212.500,198.000,211.000,173.500
0.983,211.000,198.000,211.000,173.500
0.984,211.000,198.500,211.000,174.000
0.985,211.000,198.000,210.500,173.000
0.986,211.500,198.000,210.500,173.000
0.987,211.000,197.000,210.000,172.000
0.988,211.500,197.000,210.500,171.500
0.989,211.000,196.500,210.500,171.000
0.990,211.500,197.000,211.000,171.000
0.991,212.000,197.000,211.000,170.500
0.992,213.500,197.000,211.000,170.000
0.993,215.000,196.000,210.000,169.000
0.994,217.000,195.500,209.500,168.000
0.995,218.500,193.500,207.500,165.500
0.996,220.500,192.500,206.000,163.500
0.997,221.000,191.000,204.500,161.500
0.998,221.000,190.500,204.000,160.000
0.999,220.000,190.500,204.000,159.500
1.000,219.000,192.000,205.500,160.500
1.001,217.000,194.000,208.000,162.000
1.002,215.000,197.500,211.000,164.500
1.003,212.500,200.000,213.500,166.000
1.004,210.000,202.500,215.000,167.000
1.005,207.000,202.500,215.000,166.000
1.006,204.500,202.000,214.500,165.000
1.007,202.000,200.500,213.000,162.500
1.008,201.000,199.500,211.500,161.000
1.009,200.500,198.000,210.000,159.000
1.010,202.000,197.500,209.000,158.000
1.011,204.000,196.500,207.500,156.500
1.012,208.500,195.500,206.500,155.500
1.013,212.500,194.000,205.000,153.500
1.014,217.000,193.000,204.000,152.000
1.015,220.500,191.500,203.000,150.500
1.016,223.500,191.500,204.000,150.500
1.017,224.000,192.000,205.000,151.000
1.018,224.000,193.500,207.500,152.500
1.019,222.500,195.000,209.000,153.500
1.020,221.000,196.500,211.500,155.000
1.021,219.000,197.000,212.000,155.000
1.022,218.500,197.500,213.000,155.500
1.023,218.000,197.000,212.000,154.500
1.024,219.000,196.500,211.500,153.000
1.025,219.500,195.500,210.000,151.000
1.026,220.000,194.500,209.500,149.500
1.027,219.500,193.500,208.500,148.000
1.028,218.500,193.500,208.500,147.000
1.029,216.000,193.500,208.000,145.500
1.030,213.500,194.000,208.500,145.000
1.031,210.500,194.000,208.500,144.500
1.032,208.500,194.500,209.000,144.000
1.033,206.500,193.500,208.500,143.500
1.034,206.500,193.000,208.000,143.000
1.035,206.500,192.000,207.500,142.000
1.036,207.500,192.000,208.000,142.500
1.037,208.500,192.000,208.500,143.000
1.038,210.500,193.000,210.500,144.500
1.039,211.500,193.000,211.500,145.500
1.040,213.000,194.000,212.500,146.500
1.041,214.000,194.000,213.000,147.000
1.042,215.000,194.500,213.500,147.500
1.043,215.000,193.000,212.500,147.000
1.044,215.500,192.000,212.000,146.000
1.045,214.500,189.000,210.500,144.000
1.046,214.000,187.000,209.000,142.000
1.047,213.000,184.000,207.000,140.000
1.048,213.000,182.500,206.000,139.000
1.049,212.500,181.000,205.500,138.500
1.050,213.500,180.500,206.000,138.500
1.051,214.500,180.000,205.500,139.000
1.052,216.500,180.000,206.000,139.500
1.053,218.500,179.500,205.500,139.000
1.054,221.000,179.000,205.000,138.500
1.055,222.500,177.500,203.500,137.500
1.056,224.000,176.000,202.500,136.500
1.057,224.000,174.500,200.500,135.000
1.058,223.000,173.500,200.000,134.500
1.059,221.000,173.000,199.000,134.000
1.060,219.000,173.500,199.500,134.500
1.061,216.000,174.500,200.500,135.000
1.062,214.000,176.000,202.500,137.000
1.063,212.500,177.500,204.000,138.500
1.064,212.000,179.000,206.000,140.500
1.065,212.000,180.000,207.500,141.500
1.066,213.500,181.000,208.500,143.000
1.067,215.000,181.000,209.000,143.000
1.068,217.000,181.500,209.500,143.500
1.069,218.500,182.000,209.500,143.500
1.070,220.000,183.000,210.500,144.000
1.071,220.000,184.000,211.500,144.500
1.072,220.000,185.500,213.000,145.500
1.073,218.500,187.000,214.000,146.500
1.074,217.000,188.500,215.000,147.500
1.075,214.000,188.500,215.500,147.500
1.076,212.000,188.500,215.500,147.000
1.077,209.500,187.500,214.500,146.000
1.078,208.000,187.000,213.500,145.500
1.079,206.500,186.500,212.500,144.500
1.080,206.000,186.500,213.000,144.500
1.081,206.000,187.000,213.000,144.500
1.082,207.000,187.500,214.000,146.000
1.083,208.000,187.500,213.500,146.500
1.084,210.000,187.000,213.500,146.500
1.085,211.500,185.500,211.500,145.000
1.086,213.500,183.500,210.000,143.500
1.087,214.000,181.500,208.000,141.500
1.088,215.000,180.500,207.000,140.500
1.089,215.000,180.000,206.500,140.000
1.090,215.000,181.000,208.000,140.500
1.091,214.500,182.000,209.000,141.500
1.092,214.500,183.500,210.000,142.500
1.093,214.000,184.000,210.000,143.000
1.094,214.000,184.000,210.000,143.000
1.095,213.500,182.500,208.000,142.000
1.096,213.500,181.000,206.500,141.000
1.097,213.000,178.500,204.500,139.500
1.098,213.000,177.500,204.500,139.500
1.099,212.000,177.000,204.500,140.000
1.100,212.000,177.500,206.000,142.000
1.101,211.500,178.000,207.500,143.500
1.102,212.000,179.000,209.500,145.500
1.103,211.500,179.500,210.500,146.500
1.104,212.500,179.500,210.500,147.500
1.105,212.500,178.500,209.000,146.500
1.106,214.000,176.500,207.500,145.000
1.107,214.500,174.000,205.500,142.500
1.108,216.000,172.000,204.000,141.000
1.109,216.500,170.000,202.500,139.500
1.110,217.500,169.500,202.000,138.500
1.111,217.000,169.000,201.000,137.500
1.112,216.500,169.000,201.500,137.500
1.113,214.500,169.000,201.000,137.000
1.114,213.500,170.000,202.000,137.000
1.115,212.000,170.500,202.000,137.000
1.116,211.500,172.000,203.000,138.000
1.117,211.000,172.500,203.000,138.500
1.118,211.500,173.500,204.000,140.000
1.119,212.500,174.000,204.000,140.500
1.120,214.000,174.000,204.500,142.000
1.121,215.000,173.500,204.000,142.000
1.122,216.000,173.500,204.500,143.000
1.123,216.000,173.500,204.500,143.000
1.124,216.500,174.000,205.000,143.500
1.125,215.500,174.500,205.000,143.500
1.126,215.000,175.000,206.000,143.500
1.127,214.000,175.500,206.000,143.000
1.128,214.000,176.500,206.500,143.000
1.129,213.000,177.500,207.000,143.000
1.130,213.000,179.500,208.500,143.500
1.131,211.500,181.500,209.000,144.000
1.132,210.500,183.500,210.500,144.500
1.133,208.500,184.500,210.500,144.000
1.134,207.500,184.500,210.500,143.500
1.135,207.500,183.000,208.000,141.000
1.136,209.000,180.500,206.000,138.500
1.137,211.000,177.000,202.500,135.000
1.138,214.000,174.000,200.000,132.500
1.139,217.000,170.500,197.000,130.000
1.140,220.000,169.000,196.000,129.000
1.141,222.000,168.000,195.500,128.000
1.142,223.500,168.500,196.500,128.500
1.143,224.000,169.000,197.000,128.500
1.144,224.000,170.000,198.000,130.000
1.145,222.500,171.000,199.000,130.500
1.146,221.500,172.500,201.000,132.000
1.147,219.500,174.000,202.500,133.000
1.148,217.500,176.000,204.500,134.500
1.149,215.000,177.500,205.500,135.500
1.150,213.500,179.000,206.500,136.500
1.151,213.000,179.000,206.500,136.000
1.152,214.000,178.500,205.500,135.500
1.153,216.000,177.000,203.500,133.500
1.154,219.500,175.000,201.500,132.000
1.155,222.500,173.000,199.500,130.000
1.156,225.000,171.500,198.500,129.500
1.157,226.000,170.500,197.500,129.000
1.158,225.500,171.000,198.500,129.500
1.159,223.000,171.500,199.500,130.500
1.160,220.500,172.500,201.000,132.000
1.161,217.000,173.000,201.500,132.500
1.162,215.500,173.500,202.500,133.500
1.163,214.500,173.500,202.500,133.500
1.164,215.500,173.000,203.000,133.500
1.165,217.000,172.000,202.000,133.000
1.166,219.000,172.000,202.500,133.000
1.167,220.500,172.000,202.500,133.000
1.168,221.500,173.500,204.000,133.500
1.169,220.500,174.000,205.000,134.000
1.170,219.000,175.500,206.500,135.000
1.171,216.000,176.000,207.000,135.000
1.172,214.000,177.000,207.500,135.000
1.173,211.500,176.500,207.000,134.000
1.174,210.500,177.000,207.000,134.000
1.175,210.000,177.000,207.000,134.000
1.176,211.500,177.500,207.500,134.500
1.177,212.000,177.500,207.500,134.500
1.178,213.500,178.500,208.500,135.500
1.179,213.500,178.500,209.000,136.500
1.180,213.000,179.500,210.500,138.000
1.181,211.000,180.500,212.000,139.500
1.182,209.000,182.500,215.000,142.500
1.183,206.500,185.000,218.000,145.500
1.184,205.500,188.000,221.500,149.000
1.185,204.500,190.500,224.000,151.500
1.186,206.000,193.000,226.000,153.500
1.187,208.000,193.500,226.000,154.000
1.188,211.500,193.000,225.000,153.500
1.189,214.500,190.500,222.000,151.000
1.190,218.000,188.000,218.500,148.000
1.191,220.500,184.500,214.500,144.500
1.192,223.000,182.000,211.500,142.500
1.193,223.500,180.000,209.000,140.500
1.194,223.500,180.000,208.500,140.000
1.195,222.000,180.000,209.000,140.500
1.196,220.000,182.000,210.500,142.000
1.197,217.000,183.000,211.500,143.000
1.198,215.000,184.500,212.500,144.000
1.199,212.500,185.000,212.500,144.000
1.200,211.500,184.500,211.500,143.500
1.201,211.000,183.000,209.500,141.500
1.202,212.000,181.500,207.500,140.000
1.203,213.000,179.500,205.000,137.500
1.204,215.000,178.500,203.500,136.000
1.205,216.500,177.000,202.000,135.000
1.206,218.000,177.000,202.000,134.500
1.207,218.500,176.500,201.000,134.000
1.208,219.000,176.500,201.500,134.000
1.209,218.500,176.000,201.000,133.000
1.210,218.000,176.000,201.500,133.000
1.211,216.500,175.500,201.000,132.500
1.212,215.500,176.000,202.000,133.000
1.213,214.000,176.000,202.000,133.000
1.214,213.000,177.000,203.000,134.000
1.215,211.500,177.000,204.000,135.000
1.216,210.500,178.500,205.000,136.500
1.217,209.500,179.000,205.500,137.000
1.218,209.500,180.000,206.500,137.500
1.219,209.000,180.000,206.000,137.000
1.220,210.500,180.000,206.000,137.000
1.221,211.500,179.500,205.000,135.500
1.222,213.500,179.500,205.000,135.000
1.223,215.000,179.000,204.500,134.500
1.224,217.000,180.000,205.500,135.500
1.225,217.500,180.500,206.000,136.000
1.226,218.000,182.000,207.500,137.500
1.227,217.000,182.500,208.000,138.000
1.228,216.500,183.000,209.000,139.000
1.229,215.000,183.000,208.500,139.000
1.230,213.500,183.500,209.000,139.500
1.231,211.000,183.500,209.000,139.500
1.232,209.000,184.000,210.500,140.500
1.233,206.500,185.000,211.500,142.000
1.234,205.000,186.000,213.500,144.000
1.235,204.000,187.000,214.500,145.500
1.236,204.500,187.500,216.000,147.500
1.237,206.000,186.500,216.000,148.000
1.238,209.000,185.500,215.500,149.000
1.239,211.500,183.500,214.500,149.500
1.240,214.000,182.000,214.000,150.500
1.241,215.500,180.500,213.000,151.000
1.242,216.500,179.500,212.500,152.500
1.243,216.000,178.000,211.500,154.000
1.244,215.500,177.500,211.000,156.000
1.245,214.000,176.500,210.000,157.500
1.246,213.500,175.500,209.000,159.000
1.247,213.000,173.000,206.500,159.000
1.248,214.000,170.500,203.500,158.500
1.249,215.500,166.000,198.000,155.500
1.250,218.500,161.000,191.500,152.000
1.251,221.500,154.000,183.000,146.500
1.252,225.500,147.000,174.500,141.500
1.253,228.000,139.500,166.000,136.500
1.254,230.000,133.500,159.000,133.500
1.255,230.000,128.500,153.000,131.000
1.256,230.500,125.000,148.500,130.500
1.257,229.500,121.500,143.000,129.500
1.258,229.500,118.000,137.500,128.500
1.259,229.500,113.000,129.500,125.500
1.260,231.500,107.000,119.500,121.000
1.261,233.500,99.000,107.000,113.500
1.262,237.000,91.000,94.000,105.500
1.263,240.500,81.500,80.500,96.500
1.264,244.500,73.500,68.000,88.000
1.265,247.000,66.000,57.500,80.000
1.266,249.500,62.000,51.000,74.500
1.267,249.500,60.000,47.500,71.000
1.268,248.500,61.000,48.000,70.500
1.269,246.000,64.500,51.500,71.000
1.270,243.000,70.000,58.000,73.000
1.271,239.000,76.500,65.500,75.000
1.272,236.500,84.000,74.000,77.500
1.273,234.500,90.000,82.000,78.500
1.274,235.000,96.000,89.000,79.000
1.275,235.500,100.500,95.000,78.000
1.276,237.500,105.500,101.500,77.500
1.277,238.000,110.500,107.500,77.000
1.278,239.000,116.500,116.000,78.500
1.279,237.500,123.500,125.500,81.500
1.280,236.000,132.500,137.000,86.500
1.281,233.000,141.500,149.000,92.500
1.282,230.500,151.500,161.500,99.500
1.283,226.500,160.500,173.000,105.000
1.284,223.000,169.500,183.500,110.000
1.285,218.500,176.500,192.500,113.500
1.286,215.000,183.500,200.500,116.000
1.287,210.500,189.000,206.500,117.500
1.288,207.500,194.000,212.000,119.000
1.289,204.500,198.000,216.500,119.500
1.290,203.500,201.500,220.500,121.000
1.291,202.500,204.000,223.000,121.500
1.292,203.000,207.000,226.000,123.500
1.293,204.000,208.500,228.000,125.000
1.294,205.500,210.500,230.500,127.500
1.295,206.500,211.000,232.500,130.000
1.296,208.000,212.500,234.500,133.000
1.297,208.000,213.000,235.500,135.500
1.298,208.000,213.500,237.000,138.500
1.299,207.000,213.500,237.500,140.500
1.300,207.000,213.500,238.500,142.500
1.301,206.000,212.500,238.500,143.500
1.302,206.000,211.500,238.500,144.500
1.303,206.000,209.500,237.000,144.500
1.304,206.500,207.500,236.000,144.500
1.305,207.000,204.500,233.500,143.000
1.306,208.500,202.500,231.500,142.000
1.307,210.000,199.500,228.500,140.500
1.308,211.500,197.500,226.500,139.500
1.309,212.000,195.500,224.500,138.500
1.310,212.500,195.000,224.000,138.500
1.311,211.500,194.500,224.000,138.500
1.312,210.000,195.500,224.500,139.500
1.313,208.000,196.000,225.000,140.500
1.314,206.500,197.000,226.000,142.000
1.315,205.500,197.500,226.500,143.000
1.316,205.000,198.000,227.000,143.500
1.317,204.500,198.000,226.500,143.500
1.318,204.500,199.000,227.000,144.000
1.319,204.000,199.500,227.500,144.500
1.320,203.500,200.500,228.500,145.500
1.321,202.000,201.000,229.000,146.500
1.322,202.000,202.000,229.500,147.500
1.323,202.500,201.500,229.000,147.500
1.324,204.000,201.000,228.500,147.500
1.325,206.000,199.500,226.500,146.500
1.326,209.000,197.500,224.500,145.000
1.327,211.000,195.000,222.000,143.500
1.328,213.000,193.500,220.500,142.500
1.329,213.500,192.000,219.500,141.500
1.330,214.000,191.500,220.000,142.000
1.331,213.000,191.500,220.500,143.000
1.332,213.000,192.500,222.500,145.000
1.333,212.000,193.000,223.500,146.000
1.334,211.500,194.500,225.000,147.500
1.335,210.500,195.000,225.500,148.000
1.336,210.500,195.000,226.000,148.500
1.337,209.500,194.500,225.500,148.000
1.338,209.500,194.000,225.500,147.500
1.339,209.000,193.500,225.000,147.000
1.340,209.000,193.000,225.000,147.000
1.341,208.500,192.500,224.500,146.500
1.342,209.000,193.000,224.500,146.500
1.343,209.000,192.500,224.000,146.000
1.344,210.000,193.000,223.500,146.000
1.345,210.000,193.000,222.500,145.000
1.346,211.000,193.000,222.500,144.500
1.347,211.500,193.000,222.000,144.000
1.348,212.000,194.000,222.500,144.000
1.349,211.500,194.000,222.500,144.000
1.350,211.000,194.500,224.000,145.000
1.351,210.000,194.000,224.000,145.500
1.352,210.000,194.000,224.500,145.500
1.353,209.000,192.500,223.500,144.500
1.354,209.000,191.500,223.000,144.000
1.355,209.000,189.500,221.500,143.000
1.356,209.500,189.000,221.500,143.000
1.357,210.000,188.000,221.000,143.000
1.358,211.000,188.500,221.500,143.500
1.359,211.500,188.000,221.500,143.500
1.360,212.000,188.500,221.500,144.500
1.361,211.500,188.000,221.000,144.000
1.362,211.500,187.500,220.000,144.000
1.363,211.000,186.000,218.500,142.500
1.364,211.000,185.000,217.500,141.500
1.365,210.000,183.500,216.000,139.500
1.366,210.000,183.000,216.000,139.000
1.367,209.500,182.500,216.000,138.000
1.368,209.500,183.000,216.500,138.000
1.369,209.000,183.500,217.000,138.000
1.370,209.000,184.000,217.500,138.000
1.371,208.500,184.000,218.000,138.000
1.372,209.000,184.500,218.500,138.500
1.373,209.000,184.500,218.500,139.000
1.374,210.000,185.500,219.500,139.500
1.375,210.000,185.500,220.000,140.000
1.376,210.500,186.500,221.000,141.000
1.377,209.500,186.500,221.500,141.000
1.378,209.000,187.500,222.000,141.500
1.379,207.000,187.500,222.500,142.000
1.380,205.500,188.500,223.500,143.000
1.381,204.000,189.000,224.000,143.000
1.382,203.500,189.500,224.000,143.500
1.383,203.000,189.000,223.000,143.000
1.384,204.500,188.500,222.000,142.000
1.385,206.500,187.000,220.000,140.000
1.386,209.500,185.500,218.500,138.500
1.387,211.500,184.000,217.000,137.000
1.388,214.000,183.000,216.500,136.000
1.389,215.500,182.500,216.000,135.500
1.390,216.500,183.000,217.000,136.500
1.391,216.000,183.500,218.000,137.000
1.392,215.500,185.500,220.000,139.000
1.393,214.000,186.500,221.500,140.000
1.394,212.500,188.000,222.500,141.000
1.395,211.000,188.000,222.500,141.500
1.396,210.000,188.000,222.500,141.500
1.397,208.500,187.000,221.000,140.500
1.398,208.500,186.000,219.500,139.500
1.399,208.500,184.000,217.500,138.000
1.400,209.000,182.500,216.500,137.000
1.401,209.000,181.000,215.000,135.500
1.402,209.500,180.500,214.500,134.500
1.403,209.500,180.000,213.500,134.000
1.404,210.000,180.500,214.000,134.000
1.405,210.000,181.000,213.500,134.000
1.406,210.500,182.000,214.500,134.500
1.407,210.000,182.500,214.500,134.500
1.408,210.000,183.000,214.500,135.500
1.409,209.000,183.000,214.000,135.500
1.410,208.500,183.500,214.500,135.500
1.411,207.000,183.500,214.000,135.500
1.412,207.000,183.500,214.500,135.500
1.413,206.500,183.000,214.000,135.000
1.414,207.500,182.500,213.500,134.500
1.415,208.000,181.500,212.500,133.000
1.416,210.000,180.500,212.000,132.500
1.417,211.000,179.000,210.500,131.000
1.418,212.500,178.500,210.000,131.000
1.419,212.500,178.000,209.000,130.500
1.420,212.500,178.500,209.500,131.000
1.421,212.000,179.000,210.000,131.000
1.422,211.500,180.500,211.000,132.000
1.423,210.500,181.000,211.500,132.500
1.424,210.500,182.500,212.500,133.500
1.425,210.000,182.500,212.500,133.500
1.426,210.500,182.500,213.000,133.000
1.427,210.500,182.000,212.000,132.000
1.428,212.000,181.500,211.000,131.000
1.429,213.000,180.000,209.500,130.000
1.430,215.000,179.500,208.500,129.000
1.431,216.000,178.500,206.500,127.500
1.432,218.000,178.500,206.000,127.000
1.433,219.000,178.000,205.500,126.500
1.434,220.000,178.500,206.000,127.000
1.435,219.500,179.000,207.000,128.000
1.436,219.000,181.000,209.000,130.000
1.437,217.500,182.000,211.000,131.500
1.438,216.000,184.000,213.500,134.000
1.439,214.000,185.000,215.000,135.500
1.440,213.500,186.500,216.500,137.000
1.441,212.500,187.000,217.000,138.000
1.442,212.500,188.000,217.500,139.000
1.443,212.500,188.000,217.000,139.000
1.444,213.500,188.500,216.500,139.000
1.445,213.500,188.000,215.000,138.000
1.446,213.500,188.000,214.000,138.000
1.447,213.000,187.500,212.500,137.000
1.448,213.500,187.500,212.000,137.500
1.449,213.000,186.500,211.000,137.000
1.450,213.500,186.000,210.000,137.500
1.451,213.000,185.000,208.500,137.000
1.452,213.500,184.000,207.500,137.000
1.453,213.000,182.500,205.500,136.500
1.454,213.500,182.000,204.500,137.000
1.455,213.000,181.500,203.500,137.500
1.456,213.000,182.500,203.500,139.000
1.457,212.000,183.000,203.500,140.000
1.458,212.000,184.000,204.500,141.500
1.459,211.500,184.000,204.000,142.500
1.460,211.500,185.000,204.000,143.500
1.461,211.500,184.500,203.000,144.000
1.462,212.500,185.000,202.500,144.000
1.463,212.500,184.000,201.000,143.500
1.464,213.000,183.500,200.000,143.500
1.465,212.500,182.500,198.000,143.000
1.466,212.500,181.500,196.500,143.000
1.467,212.000,180.000,194.500,142.000
1.468,212.500,179.000,193.000,142.000
1.469,212.500,177.500,191.500,141.500
1.470,213.500,177.500,191.000,141.500
1.471,213.500,177.500,190.000,141.500
1.472,213.500,178.500,190.000,142.500
1.473,212.000,179.000,189.500,143.000
1.474,211.000,180.000,190.000,144.500
1.475,209.500,181.000,190.000,145.500
1.476,209.500,182.000,190.500,147.000
1.477,210.000,181.500,190.000,147.000
1.478,211.500,181.500,190.000,147.500
1.479,213.000,180.500,188.500,147.000
1.480,215.000,179.500,187.000,146.500
1.481,216.000,178.000,184.500,145.500
1.482,217.500,176.500,182.500,144.500
1.483,217.000,174.000,180.000,143.000
1.484,217.000,173.000,178.000,142.000
1.485,216.500,171.500,176.000,140.500
1.486,216.000,171.500,175.500,140.500
1.487,215.000,171.500,175.000,140.500
1.488,215.000,173.000,176.000,141.500
1.489,214.000,174.000,176.500,142.000
1.490,213.500,175.500,178.000,144.000
1.491,212.500,177.000,179.000,145.000
1.492,212.000,179.000,180.500,147.000
1.493,211.500,180.000,181.500,148.500
1.494,212.500,182.000,182.500,150.500
1.495,213.000,182.500,183.000,151.500
1.496,215.000,183.500,183.500,152.500
1.497,217.000,182.500,182.500,151.500
1.498,220.000,181.500,181.500,151.000
1.499,222.000,179.500,180.000,149.500
1.500,224.000,178.000,179.500,148.500
1.501,224.500,176.500,178.500,147.500
1.502,225.000,175.500,179.000,147.500
1.503,223.500,175.000,179.500,147.500
1.504,222.000,175.000,181.000,148.500
1.505,220.000,175.000,182.000,149.000
1.506,218.500,176.000,183.500,150.500
1.507,216.500,176.000,184.000,151.000
1.508,216.500,176.500,185.000,152.000
1.509,216.000,176.000,185.500,152.000
1.510,217.000,176.500,186.500,153.000
1.511,218.000,176.500,186.500,154.000
1.512,219.000,177.000,188.000,155.000
1.513,220.000,176.500,188.500,155.500
1.514,221.000,177.000,189.000,156.500
1.515,222.000,176.000,188.500,156.500
1.516,223.000,175.500,188.500,157.000
1.517,223.500,174.500,188.000,156.500
1.518,224.500,174.000,188.000,156.500
1.519,224.000,173.500,187.500,156.500
1.520,223.000,173.500,188.500,158.000
1.521,221.000,173.500,189.500,158.500
1.522,219.000,175.000,191.500,160.500
1.523,216.500,175.500,193.000,161.500
1.524,215.000,177.000,195.000,163.500
1.525,212.500,178.000,196.500,165.000
1.526,211.500,179.500,198.500,167.000
1.527,210.500,180.000,199.500,168.000
1.528,210.500,181.000,200.500,169.000
1.529,210.500,181.000,200.000,168.500
1.530,212.000,180.500,199.500,168.000
1.531,213.000,179.000,198.000,166.500
1.532,214.500,177.500,197.000,165.500
1.533,215.500,175.500,195.000,164.000
1.534,216.500,174.500,194.500,164.000
1.535,217.000,173.000,194.000,163.500
1.536,217.500,173.000,194.500,164.500
1.537,217.000,173.000,195.000,165.500
1.538,218.000,174.000,196.000,167.000
1.539,218.000,174.500,197.000,168.500
1.540,218.500,175.500,198.000,170.000
1.541,217.500,176.000,199.000,171.500
1.542,217.000,176.500,200.000,173.000
1.543,215.500,176.500,201.000,173.500
1.544,215.000,177.500,202.000,174.500
1.545,213.500,177.500,202.500,174.500
1.546,213.000,177.500,203.500,175.000
1.547,212.000,177.500,203.500,175.000
1.548,212.000,177.500,204.000,175.500
1.549,211.000,177.500,204.000,175.000
1.550,210.500,178.000,204.500,175.500
1.551,210.000,178.500,204.500,175.500
1.552,209.500,179.500,205.500,176.000
1.553,209.000,180.000,206.000,176.000
1.554,208.500,182.000,208.000,177.500
1.555,207.500,184.000,210.000,178.500
1.556,207.000,186.500,213.000,180.500
1.557,205.500,188.000,215.000,182.000
1.558,205.500,190.000,217.500,183.500
1.559,205.500,190.500,218.000,183.500
1.560,207.000,190.500,218.500,183.500
1.561,208.500,189.500,217.500,182.500
1.562,210.500,188.500,216.500,181.500
1.563,212.000,187.500,215.500,180.000
1.564,213.500,187.000,215.500,179.500
1.565,213.000,186.500,215.500,179.000
1.566,213.000,187.000,216.500,179.500
1.567,212.000,187.000,216.500,179.500
1.568,212.000,188.000,217.500,180.000
1.569,211.500,188.000,217.500,180.000
1.570,212.500,188.000,218.000,180.500
1.571,212.500,188.000,218.000,180.000
1.572,213.000,188.500,218.500,180.500
1.573,212.000,189.000,219.000,180.000
1.574,211.500,190.000,219.500,180.500
1.575,209.500,190.500,219.500,180.500
1.576,208.000,191.500,220.000,181.000
1.577,206.500,191.500,220.000,180.500
1.578,205.500,192.000,220.000,181.000
1.579,204.500,191.500,219.500,180.500
1.580,204.500,192.000,220.000,181.000
1.581,204.500,192.000,220.000,181.000
1.582,205.000,192.500,221.500,181.500
1.583,205.000,193.000,222.000,181.500
1.584,205.500,193.500,223.000,182.000
1.585,205.500,193.000,222.500,181.000
1.586,206.000,192.500,222.500,180.500
1.587,206.500,190.500,221.000,179.000
1.588,207.500,189.000,220.000,177.500
1.589,208.000,186.500,218.500,175.500
1.590,209.000,185.500,217.500,174.000
1.591,209.000,184.000,216.500,172.500
1.592,209.500,184.000,217.000,172.000
1.593,208.500,183.500,217.000,171.500
1.594,208.000,184.500,218.000,172.000
1.595,206.500,185.000,219.000,172.000
1.596,206.000,186.500,220.500,173.000
1.597,205.500,186.500,221.500,174.000
1.598,206.000,187.500,223.000,175.000
1.599,206.000,188.000,223.500,175.500
1.600,206.500,189.000,224.500,176.500
1.601,206.500,189.000,224.500,176.500
1.602,207.000,189.000,225.000,177.000
1.603,206.500,188.500,224.000,176.000
1.604,206.000,188.000,223.500,175.500
1.605,204.500,186.500,222.000,173.500
1.606,204.000,185.000,220.500,172.000
1.607,203.500,183.000,218.500,170.000
1.608,204.500,182.000,217.500,168.500
1.609,205.500,181.000,216.000,167.000
1.610,207.000,181.000,216.000,167.000
1.611,208.500,181.500,216.500,166.500
1.612,210.000,183.000,218.000,167.500
1.613,210.000,184.500,219.500,168.500
1.614,210.500,186.500,222.000,170.500
1.615,210.000,188.500,223.500,171.500
1.616,209.500,190.500,226.000,173.000
1.617,208.000,192.000,226.500,173.000
1.618,208.000,193.000,227.500,173.500
1.619,208.000,193.500,227.500,173.000
1.620,209.500,193.500,228.000,173.000
1.621,210.500,193.000,227.500,172.500
1.622,212.000,193.000,228.000,173.000
1.623,212.500,192.500,228.500,173.000
1.624,212.500,193.000,230.000,173.500
1.625,210.500,193.500,231.000,174.000
1.626,209.000,194.500,232.500,175.000
1.627,206.500,195.000,234.000,176.000
1.628,205.000,196.500,236.500,177.500
1.629,204.000,197.500,238.500,178.500
1.630,204.000,199.500,241.000,180.500
1.631,203.500,200.000,242.500,182.000
1.632,204.000,201.000,244.000,183.000
1.633,203.500,200.500,243.500,183.000
1.634,204.000,200.000,243.500,183.000
1.635,204.000,198.500,242.000,182.000
1.636,205.500,197.500,240.500,180.500
1.637,207.500,195.500,238.000,178.500
1.638,211.000,194.000,236.000,177.000
1.639,213.500,192.000,233.500,175.000
1.640,216.000,191.000,232.000,174.000
1.641,217.000,190.000,230.500,172.500
1.642,217.500,189.500,230.000,172.000
1.643,216.500,189.000,228.500,171.000
1.644,215.500,188.500,228.000,171.000
1.645,213.000,188.000,227.000,170.000
1.646,212.000,188.000,227.500,170.500
1.647,210.000,188.000,227.000,170.500
1.648,209.000,189.000,228.000,171.000
1.649,207.500,190.000,228.500,171.500
1.650,207.000,191.000,229.500,172.500
1.651,206.000,191.500,229.000,172.500
1.652,206.000,192.000,229.500,173.000
1.653,205.500,191.500,228.500,172.500
1.654,205.500,191.000,228.000,172.500
1.655,205.500,190.000,227.000,172.000
1.656,206.000,190.000,227.000,172.500
1.657,206.500,189.500,227.000,172.500
1.658,207.500,190.000,227.500,173.500
1.659,208.000,190.000,228.000,174.000
1.660,209.000,190.500,228.500,175.500
1.661,209.500,190.500,228.500,175.500
1.662,210.000,190.500,229.000,176.000
1.663,209.500,190.000,228.000,175.000
1.664,210.000,189.500,227.500,175.000
1.665,209.000,188.500,226.000,174.000
1.666,209.000,188.000,225.500,174.000
1.667,207.500,187.500,224.500,173.500
1.668,207.000,188.000,224.500,173.500
1.669,205.500,188.000,224.000,173.500
1.670,205.000,188.500,224.500,174.500
1.671,204.500,188.500,225.000,174.500
1.672,205.000,189.000,225.500,175.500
1.673,205.000,188.500,225.500,175.500
1.674,206.000,189.000,225.500,176.000
1.675,206.500,189.000,225.000,175.500
1.676,208.000,189.000,225.000,175.500
1.677,208.500,188.500,224.500,175.000
1.678,209.500,189.000,225.000,175.500
1.679,209.000,189.000,225.000,176.000
1.680,208.500,190.500,226.500,178.000
1.681,208.000,191.000,227.500,179.000
1.682,208.000,192.000,229.000,180.500
1.683,208.000,191.500,229.000,181.000
1.684,209.000,191.500,229.000,181.000
1.685,210.500,190.500,227.500,180.500
1.686,212.500,190.000,227.000,180.000
1.687,213.500,189.000,225.500,179.000
1.688,214.500,188.500,225.000,179.000
1.689,214.000,188.000,224.000,178.000
1.690,213.500,188.000,223.500,178.000
1.691,212.000,188.000,223.000,177.500
1.692,211.000,188.000,223.000,178.000
1.693,210.000,187.500,223.000,178.000
1.694,209.500,188.000,224.000,179.000
1.695,209.000,187.500,224.500,180.000
1.696,209.500,188.000,226.000,181.500
1.697,209.000,187.500,226.500,182.500
1.698,209.000,188.000,227.500,184.000
1.699,208.000,187.500,228.000,185.000
1.700,207.500,188.500,229.000,186.000
1.701,206.000,188.500,229.000,186.500
1.702,205.500,189.500,230.000,188.000
1.703,205.000,190.000,230.000,189.000
1.704,205.500,191.000,231.000,190.500
1.705,206.000,191.000,231.000,191.000
1.706,207.000,192.000,232.000,192.500
1.707,207.500,192.000,231.500,193.000
1.708,208.000,192.000,232.000,193.500
1.709,208.000,191.500,231.000,193.500
1.710,209.000,191.000,231.000,193.500
1.711,209.500,189.500,230.500,193.000
1.712,210.500,189.000,230.500,193.000
1.713,210.500,188.000,230.000,193.500
1.714,211.000,188.000,230.500,194.500
1.715,210.000,187.500,230.500,195.000
1.716,210.000,188.500,231.000,196.500
1.717,209.000,188.500,230.500,197.500
1.718,209.000,189.000,230.500,198.500
1.719,208.500,189.000,229.500,199.000
1.720,209.000,189.500,229.500,200.000
1.721,209.500,189.500,229.000,200.500
1.722,211.000,190.500,230.000,201.500
1.723,211.500,191.000,230.000,202.500
1.724,213.000,192.000,230.500,203.500
1.725,213.500,192.000,230.000,203.500
1.726,214.000,192.000,230.000,203.500
1.727,213.000,191.000,229.000,202.500
1.728,212.500,190.500,228.500,202.500
1.729,211.000,189.500,227.500,201.500
1.730,210.500,190.000,228.000,202.000
1.731,209.000,189.500,227.500,201.500
1.732,208.500,190.000,227.500,202.500
1.733,208.500,189.500,227.000,202.500
1.734,209.000,189.500,226.500,202.500
1.735,209.500,188.500,225.000,201.500
1.736,210.000,188.000,224.500,200.500
1.737,210.000,186.500,223.000,199.000
1.738,210.000,185.500,222.500,198.500
1.739,209.500,184.500,221.500,198.000
1.740,209.500,185.000,222.000,198.500
1.741,209.000,185.500,222.500,199.000
1.742,209.000,187.000,224.000,200.500
1.743,208.500,188.500,225.000,201.500
1.744,208.500,190.000,227.000,203.500
1.745,208.000,191.000,228.000,204.500
1.746,208.500,192.000,229.000,205.500
1.747,209.000,192.000,229.000,205.000
1.748,210.500,192.000,229.000,205.000
1.749,211.500,190.500,227.500,204.000
1.750,214.000,189.500,226.000,202.500
1.751,215.000,188.000,224.000,200.500
1.752,216.000,187.500,223.000,199.500
1.753,216.000,187.000,221.500,198.000
1.754,216.000,187.500,221.500,198.000
1.755,215.000,188.000,221.000,197.500
1.756,214.000,189.000,221.500,198.500
1.757,212.000,189.500,221.500,199.000
1.758,211.000,190.500,222.500,200.500
1.759,209.000,191.000,223.000,201.500
1.760,207.500,192.000,225.000,203.500
1.761,205.000,192.500,226.000,204.500
1.762,203.500,193.500,228.000,206.500
1.763,201.500,194.500,229.000,207.500
1.764,200.500,195.500,231.000,209.000
1.765,200.000,196.500,232.000,209.500
1.766,201.500,197.500,233.000,211.000
1.767,203.500,197.500,233.000,211.000
1.768,207.000,197.500,233.000,211.000
1.769,210.000,196.000,231.000,209.500
1.770,213.500,194.500,229.000,208.000
1.771,215.000,191.500,226.000,205.500
1.772,216.000,189.000,224.000,204.000
1.773,215.500,187.000,221.500,202.000
1.774,214.500,186.000,221.000,202.000
1.775,213.000,186.000,221.000,202.000
1.776,212.500,187.000,222.500,203.000
1.777,211.500,188.000,223.500,204.000
1.778,212.000,189.500,225.500,205.500
1.779,211.500,190.000,226.000,206.000
1.780,211.500,191.000,227.000,206.500
1.781,211.000,190.500,226.500,206.500
1.782,210.500,190.500,227.000,206.500
1.783,209.000,190.000,226.500,206.000
1.784,208.000,190.000,227.000,206.500
1.785,206.500,190.000,227.500,206.500
1.786,205.500,190.500,228.500,207.500
1.787,204.000,191.000,228.500,207.500
1.788,203.500,191.500,229.500,207.500
1.789,203.500,191.000,229.000,207.000
1.790,204.500,190.000,228.500,206.000
1.791,205.500,188.000,226.500,204.500
1.792,207.500,186.500,225.000,203.000
1.793,208.500,184.000,223.000,200.500
1.794,210.500,182.500,222.000,199.500
1.795,211.500,181.000,220.500,198.500
1.796,212.500,181.000,221.000,199.000
1.797,212.000,181.000,221.500,199.500
1.798,211.500,182.500,223.000,201.500
1.799,210.000,183.500,223.500,202.500
1.800,209.000,185.500,225.000,204.000
1.801,207.500,186.000,225.000,204.000
1.802,207.000,187.000,226.000,205.000
1.803,206.500,187.000,225.500,204.500
1.804,206.500,187.000,225.000,204.500
1.805,205.500,186.500,224.000,203.000
1.806,205.500,186.500,224.000,202.500
1.807,205.000,185.500,223.000,201.500
1.808,204.500,185.500,222.500,201.500
1.809,203.000,185.000,222.000,200.500
1.810,202.000,185.000,222.500,200.500
1.811,200.500,185.000,222.500,200.500
1.812,200.000,186.000,223.500,201.000
1.813,199.000,186.500,224.500,201.500
1.814,199.000,188.000,226.000,203.000
1.815,198.000,189.000,227.000,203.500
1.816,198.000,190.000,228.500,204.500
1.817,197.500,190.000,228.500,204.500
1.818,198.000,190.000,228.500,204.000
1.819,198.000,189.000,227.500,202.500
1.820,200.000,188.000,226.000,201.000
1.821,202.000,186.000,223.500,199.000
1.822,205.000,185.000,222.000,197.500
1.823,207.500,183.500,220.000,196.000
1.824,210.000,183.500,219.500,196.000
1.825,211.500,183.000,219.000,196.000
1.826,212.500,184.000,220.000,197.000
1.827,212.000,184.500,220.500,197.500
1.828,211.500,186.000,222.000,199.000
1.829,209.500,187.000,222.500,200.000
1.830,208.000,188.000,223.500,202.000
1.831,206.000,188.500,224.000,202.500
1.832,204.500,189.500,224.500,203.500
1.833,203.000,190.000,224.500,203.000
1.834,202.500,190.500,224.500,203.000
1.835,201.500,190.000,223.500,202.000
1.836,201.500,190.000,223.000,201.500
1.837,201.500,189.500,222.000,200.500
1.838,202.500,189.000,222.000,200.500
1.839,203.000,188.500,221.500,200.500
1.840,204.500,189.500,222.500,201.500
1.841,204.500,189.500,223.000,202.000
1.842,205.500,190.500,224.000,203.500
1.843,205.000,191.000,224.500,204.500
1.844,205.000,191.500,225.500,205.500
1.845,204.000,191.000,225.500,205.000
1.846,204.000,190.500,225.000,205.000
1.847,204.000,188.500,223.000,203.500
1.848,204.500,187.500,221.500,202.500
1.849,205.000,185.500,219.000,201.000
1.850,206.500,184.000,217.500,200.000
1.851,207.500,183.000,216.000,199.000
1.852,208.500,183.000,216.500,199.000
1.853,209.000,183.500,216.500,199.500
1.854,210.000,185.000,218.000,201.000
1.855,209.500,186.500,218.500,202.500
1.856,210.000,188.000,220.500,204.000
1.857,209.000,189.500,221.500,205.500
1.858,208.000,191.000,223.500,207.000
1.859,206.000,191.500,224.500,208.000
1.860,204.500,192.500,225.500,210.000
1.861,203.000,192.000,226.000,210.500
1.862,203.000,192.500,226.500,212.000
1.863,203.000,191.500,226.000,212.000
1.864,204.000,191.500,226.000,212.000
1.865,205.000,190.500,225.000,211.000
1.866,207.000,190.500,225.000,211.000
1.867,207.500,189.500,224.000,210.000
1.868,208.000,189.500,224.000,210.000
1.869,207.500,188.500,223.000,209.500
1.870,207.000,188.000,222.500,209.500
1.871,205.500,187.000,221.500,208.500
1.872,204.500,186.000,220.500,208.000
1.873,203.500,184.000,219.000,207.000
1.874,203.500,182.500,218.000,206.500
1.875,203.000,181.000,217.000,205.500
1.876,203.500,180.500,217.500,206.000
1.877,204.000,180.500,218.000,206.500
1.878,205.500,181.500,219.500,208.000
1.879,206.500,182.000,220.500,209.000
1.880,208.000,183.000,221.500,210.000
1.881,209.000,182.500,221.500,210.000
1.882,210.500,182.000,221.500,209.500
1.883,210.500,180.500,220.000,208.000
1.884,211.000,179.500,219.000,207.000
1.885,210.500,177.500,217.000,205.000
1.886,210.500,176.500,216.000,204.500
1.887,210.500,175.500,215.000,204.000
1.888,211.500,175.000,215.500,204.500
1.889,211.500,174.500,215.500,204.500
1.890,212.000,175.500,216.500,205.000
1.891,211.500,175.500,217.000,205.000
1.892,211.500,176.500,218.000,206.000
1.893,211.000,177.000,218.500,206.000
1.894,211.500,178.000,219.500,206.000
1.895,211.500,178.500,219.500,205.500
1.896,212.000,179.000,219.500,205.500
1.897,211.500,179.000,218.500,204.500
1.898,211.500,178.500,217.500,203.500
1.899,210.000,177.500,215.500,201.500
1.900,209.000,177.000,214.500,200.000
1.901,208.000,175.500,213.000,198.000
1.902,207.500,175.500,213.000,197.500
1.903,207.500,175.000,213.000,197.000
1.904,208.500,176.000,214.000,198.000
1.905,209.000,176.500,214.500,198.000
1.906,210.500,177.500,215.500,199.000
1.907,210.500,177.500,216.000,198.500
1.908,211.000,178.500,216.500,199.000
1.909,210.500,178.500,216.000,198.000
1.910,210.000,179.000,216.000,197.500
1.911,208.500,179.000,215.500,196.500
1.912,207.500,180.000,215.500,196.500
1.913,206.000,180.500,215.500,196.000
1.914,205.500,181.500,216.000,196.500
1.915,205.000,182.000,216.000,196.000
1.916,205.500,182.000,216.000,196.500
1.917,206.000,181.500,216.000,196.000
1.918,207.000,181.500,216.500,196.500
1.919,207.500,180.500,216.000,196.000
1.920,208.000,181.000,216.500,196.500
1.921,208.000,180.500,216.000,196.000
1.922,207.500,180.500,216.000,196.500
1.923,206.500,179.500,215.500,195.500
1.924,206.000,179.500,216.000,195.500
1.925,205.000,179.000,215.500,195.000
1.926,204.500,179.500,216.000,195.500
1.927,203.500,179.500,216.500,196.000
1.928,203.500,180.500,217.500,197.000
1.929,203.500,180.500,217.500,197.500
1.930,204.500,180.500,218.000,198.500
1.931,205.500,180.000,217.500,198.500
1.932,207.500,179.000,217.000,198.500
1.933,209.000,177.500,216.000,197.000
1.934,211.000,177.000,216.000,196.500
1.935,211.500,176.500,215.500,196.000
1.936,212.000,177.500,216.500,196.500
1.937,211.500,178.500,217.500,197.000
1.938,211.500,180.500,220.000,199.000
1.939,210.000,181.500,221.000,200.500
1.940,210.000,183.000,222.500,202.000
1.941,209.000,183.000,222.500,202.000
1.942,209.500,183.500,222.500,202.000
1.943,209.000,183.000,221.500,201.500
1.944,209.000,183.000,221.500,201.000
1.945,208.000,182.500,220.500,200.000
1.946,208.000,183.000,221.000,199.500
1.947,207.500,183.000,220.500,198.500
1.948,208.500,184.000,221.500,199.000
1.949,208.500,184.500,221.500,199.000
1.950,210.000,186.000,223.000,200.000
1.951,210.500,187.500,224.000,200.500
1.952,211.000,189.500,225.500,202.500
1.953,211.000,190.500,226.500,203.500
1.954,211.500,192.500,228.000,205.500
1.955,211.000,193.500,229.000,206.000
1.956,211.000,194.500,229.500,207.000
1.957,210.500,194.000,229.000,206.500
1.958,210.500,193.500,228.500,206.000
1.959,210.500,191.000,226.500,204.500
1.960,211.000,189.000,224.500,202.500
1.961,211.500,186.500,221.500,200.500
1.962,212.500,184.500,220.000,199.000
1.963,213.500,183.000,218.000,197.500
1.964,215.000,183.000,218.500,197.000
1.965,216.000,183.000,218.500,197.000
1.966,217.500,184.500,220.000,198.000
1.967,218.000,185.000,220.500,198.000
1.968,219.000,186.500,221.500,198.500
1.969,219.000,187.000,222.000,199.000
1.970,218.500,188.000,222.500,199.500
1.971,217.000,188.500,222.500,200.000
1.972,216.000,189.500,223.500,200.500
1.973,213.500,190.500,224.000,201.000
1.974,212.000,191.500,225.000,202.000
1.975,210.500,192.000,225.500,202.000
1.976,210.500,192.500,226.500,202.000
1.977,211.500,192.000,226.000,201.500
1.978,213.500,192.000,226.000,201.000
1.979,216.000,191.000,225.000,200.000
1.980,218.500,190.500,225.000,199.500
1.981,219.500,189.500,224.000,198.500
1.982,220.000,189.500,224.000,198.500
1.983,218.500,189.500,223.500,198.000
1.984,217.000,190.500,224.500,198.500
1.985,214.500,190.500,225.000,198.500
1.986,213.000,191.500,225.500,198.500
1.987,211.500,191.500,225.000,198.000
1.988,211.500,191.500,224.500,197.500
1.989,211.500,190.000,222.500,196.000
1.990,213.500,188.500,221.500,195.000
1.991,215.000,186.000,219.500,193.500
1.992,217.000,185.000,218.500,193.000
1.993,218.000,184.500,217.500,193.000
1.994,218.500,185.000,218.500,194.000
1.995,217.500,185.500,219.500,195.000
1.996,216.500,186.500,220.500,196.000
1.997,215.000,187.000,221.000,196.500
1.998,214.000,187.500,221.500,197.000
1.999,213.000,187.000,220.500,197.000
2.000,213.000,186.500,220.500,197.000
2.001,213.000,186.000,220.000,196.500
2.002,214.000,186.000,220.500,197.000
2.003,214.000,186.000,221.000,197.500
2.004,214.500,187.000,222.000,199.000
2.005,214.000,187.500,222.500,200.000
2.006,214.500,187.500,223.500,201.500
2.007,214.000,187.000,223.000,202.500
2.008,215.000,187.000,223.000,204.000
2.009,215.000,186.000,222.000,204.500
2.010,216.500,185.000,221.500,205.500
2.011,217.000,183.000,220.000,206.000
2.012,218.000,182.500,219.500,207.500
2.013,218.000,181.500,218.500,209.000
2.014,218.000,181.500,218.500,211.000
2.015,217.000,181.000,218.000,213.000
2.016,216.500,180.500,217.500,215.000
2.017,215.000,179.000,215.500,215.000
2.018,215.000,176.500,212.500,214.500
2.019,214.500,172.000,206.500,212.000
2.020,216.000,167.000,200.000,208.500
2.021,218.000,160.000,191.500,203.500
2.022,221.500,153.500,183.500,199.000
2.023,224.000,146.000,175.500,195.000
2.024,228.000,140.000,169.000,192.500
2.025,230.500,133.500,162.500,189.500
2.026,234.000,128.000,156.500,187.500
2.027,236.000,121.000,148.500,184.000
2.028,238.500,114.000,139.500,180.000
2.029,240.000,105.000,128.000,173.500
2.030,242.500,96.500,115.000,166.500
2.031,243.500,86.500,101.000,157.000
2.032,245.500,77.500,87.500,148.500
2.033,246.000,69.500,75.000,139.500
2.034,247.500,63.500,65.500,133.000
2.035,247.500,59.500,58.000,127.000
2.036,248.000,58.000,54.500,123.500
2.037,247.000,58.000,53.000,121.000
2.038,246.000,60.500,55.000,120.500
2.039,244.500,64.000,58.500,120.000
2.040,243.000,69.500,64.500,120.500
2.041,241.000,75.500,70.500,121.000
2.042,240.000,82.500,78.500,122.000
2.043,238.000,89.500,86.500,123.000
2.044,237.500,97.500,95.500,124.500
2.045,236.000,105.000,103.500,125.500
2.046,236.000,112.500,112.500,127.500
2.047,234.500,119.500,120.500,129.000
2.048,233.500,126.000,129.000,131.500
2.049,230.500,132.000,137.000,133.500
2.050,227.500,139.000,146.000,137.500
2.051,223.000,145.500,155.500,141.500
2.052,219.500,153.500,167.000,147.000
2.053,216.000,161.000,178.000,152.500
2.054,214.500,169.500,189.500,158.000
2.055,213.500,177.000,199.500,162.500
2.056,213.500,184.000,208.500,166.500
2.057,213.000,189.500,215.000,169.000
2.058,213.000,194.500,221.000,171.000
2.059,212.000,197.500,224.500,172.000
2.060,211.500,200.000,228.000,173.000
2.061,210.000,201.000,229.500,173.500
2.062,209.500,201.500,231.000,174.500
2.063,208.500,201.000,232.000,175.000
2.064,208.500,201.000,233.000,176.500
2.065,207.500,200.500,233.000,178.000
2.066,207.500,201.000,234.000,180.000
2.067,207.000,200.500,233.500,181.000
2.068,208.500,200.500,234.000,183.000
2.069,209.500,199.000,233.000,183.500
2.070,211.500,198.000,232.500,184.500
2.071,213.000,196.500,231.000,185.000
2.072,215.500,195.000,231.000,186.000
2.073,216.500,194.000,230.500,186.500
2.074,217.000,194.500,231.500,188.000
2.075,216.000,195.000,232.500,189.500
2.076,215.000,197.500,235.000,192.000
2.077,213.000,199.000,237.500,194.500
2.078,211.500,201.500,240.500,197.500
2.079,209.500,203.000,242.500,199.500
2.080,209.000,205.000,245.000,202.000
2.081,208.500,206.000,246.000,203.500
2.082,209.500,207.000,247.000,205.000
2.083,209.500,207.000,246.500,205.000
2.084,210.500,207.000,246.000,204.500
2.085,210.500,205.000,244.000,202.500
2.086,210.500,203.500,242.500,200.500
2.087,210.000,201.000,239.500,198.000
2.088,209.500,199.500,238.000,196.000
2.089,208.000,198.000,236.000,193.500
2.090,207.500,197.000,235.000,192.500
2.091,206.500,195.500,233.500,191.000
2.092,206.000,195.500,233.500,191.000
2.093,205.000,195.000,233.000,190.500
2.094,204.500,195.500,233.500,191.000
2.095,204.000,195.000,233.500,191.000
2.096,204.000,195.500,234.000,191.500
2.097,204.500,195.500,233.500,191.000
2.098,206.000,195.500,233.500,191.000
2.099,207.000,195.000,233.000,190.500
2.100,209.000,195.500,233.000,191.000
2.101,210.500,195.000,233.000,191.000
2.102,212.500,195.500,233.500,192.000
2.103,213.500,195.500,233.500,192.000
2.104,215.000,196.000,234.000,193.000
2.105,215.000,195.500,233.500,192.500
2.106,215.000,195.500,233.500,192.500
2.107,213.500,194.500,232.500,191.500
2.108,212.000,194.000,231.500,191.000
2.109,209.500,192.500,230.000,189.500
2.110,207.500,191.500,229.000,189.000
2.111,205.500,190.000,227.500,188.000
2.112,205.000,189.500,227.000,188.000
2.113,204.500,188.500,226.000,187.500
2.114,206.000,188.500,226.500,188.000
2.115,207.000,188.000,226.000,188.500
2.116,209.000,188.500,226.500,189.000
2.117,210.500,188.500,226.500,189.500
2.118,212.000,189.000,227.500,190.500
2.119,212.500,189.500,227.500,191.000
2.120,213.000,190.500,228.500,192.500
2.121,212.500,190.500,229.000,193.500
2.122,212.500,191.500,230.000,194.500
2.123,211.000,191.500,230.000,195.000
2.124,210.000,192.000,230.500,196.000
2.125,208.500,191.500,230.000,196.000
2.126,208.000,192.000,230.500,196.500
2.127,207.000,192.000,230.500,196.500
2.128,207.000,192.500,230.500,197.000
2.129,207.000,192.000,230.000,196.500
2.130,209.000,192.000,229.500,196.000
2.131,210.500,191.000,228.000,195.000
2.132,212.500,190.500,227.500,194.500
2.133,213.500,189.500,226.500,193.500
2.134,214.500,189.500,226.500,194.000
2.135,213.500,189.000,226.000,194.000
2.136,212.500,190.000,227.000,195.000
2.137,210.500,190.000,227.500,195.500
2.138,209.000,190.500,228.500,197.000
2.139,207.000,190.500,228.500,197.000
2.140,206.500,191.000,229.000,198.000
2.141,205.500,190.500,229.000,198.000
2.142,205.500,190.500,229.500,199.000
2.143,205.500,190.000,229.500,198.500
2.144,206.500,190.000,230.000,199.000
2.145,207.000,189.000,229.500,198.000
2.146,209.000,188.500,229.000,198.000
2.147,210.000,187.500,227.500,197.000
2.148,211.500,187.000,226.500,196.500
2.149,211.500,185.500,225.000,195.000
2.150,212.500,185.500,224.500,194.500
2.151,212.000,185.000,223.500,194.000
2.152,211.500,185.500,224.000,194.000
2.153,210.500,185.500,224.000,194.000
2.154,209.500,187.000,225.000,195.000
2.155,208.000,188.000,226.000,195.500
2.156,207.500,190.000,227.500,197.000
2.157,206.000,191.500,228.500,198.000
2.158,205.000,193.000,230.000,199.500
2.159,204.000,194.000,230.000,200.000
2.160,203.500,195.000,231.000,201.000
2.161,202.500,194.500,230.500,201.000
2.162,203.500,194.500,230.000,200.500
2.163,204.000,192.500,228.000,198.500
2.164,206.000,190.500,226.000,196.500
2.165,208.500,187.500,223.500,193.500
2.166,211.500,186.000,222.000,192.000
2.167,214.500,184.500,221.000,190.500
2.168,217.500,184.500,221.000,190.500
2.169,218.500,185.000,221.500,190.500
2.170,219.500,186.500,222.500,191.500
2.171,218.000,188.500,223.500,192.500
2.172,216.000,191.000,225.000,193.500
2.173,213.000,192.500,225.500,193.500
2.174,211.000,194.500,227.000,194.500
2.175,208.500,195.000,227.500,194.500
2.176,207.000,195.500,228.500,195.000
2.177,206.000,195.000,228.000,194.500
2.178,205.500,195.000,228.500,194.500
2.179,205.500,193.500,227.500,193.500
2.180,206.000,193.000,227.500,193.000
2.181,207.000,191.500,226.500,191.500
2.182,208.500,190.500,226.000,191.000
2.183,210.000,189.000,225.000,189.500
2.184,211.500,188.500,224.500,189.000
2.185,212.500,187.000,223.500,188.000
2.186,213.500,187.000,224.000,188.000
2.187,213.500,186.500,223.500,187.500
2.188,214.000,186.500,224.500,188.000
2.189,213.000,186.500,224.500,187.500
2.190,213.000,187.000,225.000,188.000
2.191,211.500,187.000,225.000,187.500
2.192,210.500,188.000,226.000,188.500
2.193,208.500,188.500,226.000,188.500
2.194,207.500,189.500,226.500,189.500
2.195,205.500,189.500,226.500,189.500
2.196,205.500,189.500,227.500,190.500
2.197,205.500,189.000,227.000,190.500
2.198,207.000,188.500,227.000,191.000
2.199,209.000,187.500,225.500,190.000
2.200,212.500,186.500,225.000,189.500
2.201,215.500,184.500,223.000,188.000
2.202,218.500,184.000,222.000,188.000
2.203,220.500,183.000,220.500,187.000
2.204,221.500,183.000,220.500,187.500
2.205,220.500,183.000,219.500,187.500
2.206,219.500,184.000,220.000,189.000
2.207,217.000,184.500,220.000,189.500
2.208,215.500,185.500,220.500,191.000
2.209,213.000,186.000,220.500,191.500
2.210,212.000,186.500,221.000,192.000
2.211,211.000,186.000,220.500,192.000
2.212,211.500,186.000,220.500,193.000
2.213,211.500,185.500,220.000,193.000
2.214,213.000,184.500,219.500,193.000
2.215,214.000,183.000,218.000,192.500
2.216,216.000,182.000,216.500,192.500
2.217,216.500,180.000,214.500,191.500
2.218,216.500,179.500,214.000,192.000
2.219,215.000,179.000,213.000,192.000
2.220,213.500,180.000,213.500,193.500
2.221,211.000,180.500,214.000,194.500
2.222,209.500,182.000,215.000,196.500
2.223,208.000,182.500,215.000,197.500
2.224,208.000,183.000,215.500,198.500
2.225,208.000,182.500,214.500,198.500
2.226,209.000,182.500,213.500,198.500
2.227,209.500,181.000,211.500,197.500
2.228,210.500,180.000,210.000,197.000
2.229,211.000,179.000,208.000,196.000
2.230,212.000,178.500,206.500,195.500
2.231,212.500,177.500,204.500,195.000
2.232,214.000,178.000,204.000,195.000
2.233,214.500,178.000,202.500,194.500
2.234,215.500,178.500,202.000,195.000
2.235,215.500,178.000,200.500,195.000
2.236,216.500,178.500,200.000,196.000
2.237,216.000,178.500,199.000,196.000
2.238,216.500,179.000,199.000,197.500
2.239,216.000,179.500,199.000,198.000
2.240,216.500,181.000,199.500,199.500
2.241,216.000,181.500,199.000,200.500
2.242,216.000,183.000,199.500,202.000
2.243,215.000,184.000,199.500,203.000
2.244,215.000,185.500,200.000,204.500
2.245,214.000,186.500,199.500,205.000
2.246,213.000,187.500,199.500,205.500
2.247,211.500,187.000,198.500,205.000
2.248,211.000,186.500,197.500,204.500
2.249,210.500,185.000,195.500,203.000
2.250,211.500,183.500,193.000,201.000
2.251,213.000,181.000,190.500,198.500
2.252,215.500,179.000,188.500,197.000
2.253,218.000,177.000,186.000,195.000
2.254,221.000,176.000,185.000,194.500
2.255,223.500,175.000,184.000,194.000
2.256,225.500,174.000,183.500,193.500
2.257,226.000,173.000,183.000,192.500
2.258,226.500,172.500,183.000,192.500
2.259,225.000,172.000,182.500,191.500
2.260,223.500,172.500,183.000,192.000
2.261,221.000,172.500,183.000,192.500
2.262,218.500,174.000,185.000,194.000
2.263,215.500,175.000,186.500,195.000
2.264,213.500,176.500,188.500,196.500
2.265,211.000,177.500,189.500,197.000
2.266,210.000,178.000,190.500,197.000
2.267,209.500,178.000,190.000,196.000
2.268,211.000,177.500,190.000,195.000
2.269,212.500,176.500,188.500,193.500
2.270,215.500,176.000,188.000,192.000
2.271,218.000,175.000,187.000,190.500
2.272,221.000,175.000,187.500,190.000
2.273,222.500,175.000,187.500,189.500
2.274,223.000,175.500,188.500,190.000
2.275,222.500,175.000,188.500,189.500
2.276,221.500,175.000,189.500,190.000
2.277,220.000,174.000,189.000,189.500
2.278,218.500,173.000,189.500,189.500
2.279,216.500,172.000,189.000,189.000
2.280,215.500,171.500,190.000,189.500
2.281,213.500,171.000,191.000,190.000
2.282,212.500,172.000,192.500,191.500
2.283,211.500,172.500,193.500,192.000
2.284,211.500,174.000,194.500,193.500
2.285,211.500,174.500,194.500,193.500
2.286,213.000,175.000,194.500,193.500
2.287,214.500,174.000,193.000,192.000
2.288,216.500,174.000,192.500,191.000
2.289,217.500,173.000,191.500,190.000
2.290,219.000,173.000,192.000,190.000
2.291,219.000,173.500,192.000,190.000
2.292,218.500,174.500,193.500,191.000
2.293,217.000,175.500,195.000,192.500
2.294,215.500,177.000,197.000,194.500
2.295,213.500,177.500,198.000,195.500
2.296,213.000,178.000,199.000,197.000
2.297,212.000,177.500,199.500,197.000
2.298,213.000,177.500,200.000,197.500
2.299,213.500,177.000,200.000,197.500
2.300,215.000,177.500,201.000,198.000
2.301,216.000,177.500,201.500,197.500
2.302,216.500,178.000,202.500,198.500
2.303,216.000,178.500,203.500,199.000
2.304,215.500,179.500,205.000,200.000
2.305,214.500,180.000,206.000,200.500
2.306,213.500,181.000,207.500,201.500
2.307,212.500,181.000,207.500,201.500
2.308,213.000,181.500,208.000,202.000
2.309,213.500,181.000,207.500,202.000
2.310,215.000,181.500,208.000,202.000
2.311,216.000,181.000,207.500,201.500
2.312,217.000,181.000,207.500,201.500
2.313,217.500,181.000,207.500,201.000
2.314,218.000,181.500,208.000,201.500
2.315,217.000,182.000,208.500,201.500
2.316,216.500,183.000,209.500,202.500
2.317,214.500,184.000,210.500,203.000
2.318,213.000,185.500,212.000,204.000
2.319,211.000,187.000,213.500,204.500
2.320,210.000,188.500,215.000,205.500
2.321,208.500,189.500,216.000,206.000
2.322,208.500,191.000,217.500,207.000
2.323,208.000,191.000,217.500,207.000
2.324,209.500,191.000,217.500,206.500
2.325,210.500,190.000,216.500,204.500
2.326,212.500,189.500,216.000,203.500
2.327,214.000,188.000,215.000,201.000
2.328,215.500,188.000,214.500,200.000
2.329,216.000,187.500,214.000,198.500
2.330,216.500,188.000,215.000,198.500
2.331,216.000,188.500,216.000,198.500
2.332,215.000,190.500,218.000,199.500
2.333,213.500,191.500,219.000,200.500
2.334,212.000,192.500,220.500,201.000
2.335,209.500,192.500,221.000,200.500
2.336,208.000,192.500,221.500,200.000
2.337,206.000,191.000,221.000,199.000
2.338,205.000,190.500,221.500,198.000
2.339,204.000,189.500,221.500,197.500
2.340,204.500,190.000,223.500,197.500
2.341,205.500,190.000,225.000,198.000
2.342,207.500,191.500,227.000,199.000
2.343,209.000,192.500,228.500,199.000
2.344,211.000,193.500,230.000,199.000
2.345,212.500,193.500,230.000,197.500
2.346,213.500,193.500,230.000,196.500
2.347,214.000,192.500,229.000,194.500
2.348,214.500,192.000,229.000,193.500
2.349,214.500,190.500,228.000,191.500
2.350,215.000,189.500,227.500,190.000
2.351,214.500,187.500,226.500,188.000
2.352,214.500,186.500,226.500,186.500
2.353,214.000,184.500,225.500,184.500
2.354,213.500,184.000,225.500,183.500
2.355,212.500,182.500,224.500,181.500
2.356,212.000,181.500,224.500,180.500
2.357,211.000,180.500,223.500,179.000
2.358,211.000,180.000,223.500,177.500
2.359,210.000,179.000,222.500,176.000
2.360,210.000,179.000,222.500,175.000
2.361,209.500,179.000,223.000,174.500
2.362,209.500,180.000,224.500,175.000
2.363,209.000,181.000,225.500,175.500
2.364,209.500,182.500,228.000,176.000
2.365,209.000,183.500,229.000,176.000
2.366,209.000,185.000,230.000,176.000
2.367,208.500,185.500,230.000,175.500
2.368,209.000,187.000,231.000,175.000
2.369,209.000,187.500,230.500,174.000
2.370,209.000,188.000,231.000,173.500
2.371,208.500,188.000,230.500,172.500
2.372,209.000,188.500,231.000,172.000
2.373,208.500,188.000,230.500,170.500
2.374,208.500,188.000,230.500,169.500
2.375,208.000,187.000,230.500,168.500
2.376,208.000,187.500,231.000,168.500
2.377,208.000,187.000,230.500,168.000
2.378,209.500,186.500,231.000,167.500
2.379,210.000,185.500,230.500,166.500
2.380,211.500,185.000,230.500,165.500
2.381,212.000,184.000,229.500,164.000
2.382,213.000,184.000,229.000,163.500
2.383,213.000,183.500,229.000,163.000
2.384,213.500,184.500,229.500,163.000
2.385,213.000,185.000,230.000,162.500
2.386,212.500,186.500,231.500,163.000
2.387,211.000,187.000,232.000,163.000
2.388,210.000,187.500,232.500,162.500
2.389,208.000,187.500,232.000,161.500
2.390,206.500,187.500,232.000,160.500
2.391,205.000,187.000,231.000,159.000
2.392,205.500,187.000,230.500,157.500
2.393,206.000,186.000,229.500,155.500
2.394,208.000,186.500,229.000,154.500
2.395,209.500,186.000,228.500,152.500
2.396,212.500,186.500,228.500,152.000
2.397,214.000,186.500,228.500,151.500
2.398,216.500,187.000,229.500,152.000
2.399,217.000,187.500,230.000,152.000
2.400,218.000,189.000,231.500,152.500
2.401,217.500,189.500,232.500,153.000
2.402,217.000,190.500,234.000,153.500
2.403,215.000,191.000,234.500,153.000
2.404,213.500,191.500,236.000,153.500
2.405,210.500,191.500,236.500,153.000
2.406,208.000,191.500,237.500,153.000
2.407,205.500,191.000,237.500,152.500
2.408,204.000,190.500,238.000,152.000
2.409,203.000,189.000,237.000,151.000
2.410,204.000,188.500,236.000,150.000
2.411,205.500,187.000,234.000,148.500
2.412,207.500,186.000,233.000,147.000
2.413,209.000,184.000,231.000,144.500
2.414,211.000,183.000,230.000,143.000
2.415,211.500,181.500,228.500,141.500
2.416,212.000,181.000,228.500,140.500
2.417,211.500,180.500,228.000,140.000
2.418,211.500,180.500,229.000,140.500
2.419,211.000,180.500,230.000,141.000
2.420,211.000,181.500,231.500,142.500
2.421,210.000,182.000,232.500,143.500
2.422,210.000,182.500,234.000,144.500
2.423,209.000,182.500,234.000,145.000
2.424,209.000,183.000,234.500,145.000
2.425,208.000,182.000,233.500,144.000
2.426,208.000,182.000,233.000,143.500
2.427,207.000,181.000,232.000,142.000
2.428,207.500,180.500,232.000,141.500
2.429,207.000,179.500,231.000,140.500
2.430,208.000,180.000,231.500,140.500
2.431,208.000,180.000,231.500,140.000
2.432,209.000,180.500,232.000,140.000
2.433,209.000,179.500,231.000,139.000
2.434,210.000,179.000,230.500,138.500
2.435,210.500,177.500,229.000,137.000
2.436,211.000,177.000,228.000,136.000
2.437,211.000,176.500,227.000,135.500
2.438,211.000,177.000,227.500,135.500
2.439,210.000,177.500,227.500,135.000
2.440,209.000,178.500,228.500,135.000
2.441,207.500,179.000,228.500,135.000
2.442,207.000,180.000,229.000,135.000
2.443,206.000,179.500,228.500,134.500
2.444,206.000,180.000,228.500,134.500
2.445,205.500,180.000,228.000,134.000
2.446,206.000,181.000,229.000,134.500
2.447,206.000,181.500,229.500,134.500
2.448,206.500,183.000,231.000,136.000
2.449,206.000,184.000,232.000,137.000
2.450,206.500,186.500,234.000,138.500
2.451,205.500,187.500,234.500,139.000
2.452,205.500,188.500,235.500,139.500
2.453,205.000,188.000,235.000,139.000
2.454,205.500,187.500,234.500,138.500
2.455,205.500,185.500,232.500,136.500
2.456,206.500,184.000,231.000,135.500
2.457,207.000,182.000,229.000,134.000
2.458,208.500,181.000,228.500,133.500
2.459,209.500,180.000,227.500,133.000
2.460,211.000,180.000,227.500,133.000
2.461,211.500,180.000,227.000,133.000
2.462,211.500,180.500,228.000,134.000
2.463,210.500,181.000,228.000,134.500
2.464,210.000,182.500,229.500,136.000
2.465,208.000,184.000,231.000,137.500
2.466,207.000,186.000,233.000,139.000
2.467,206.000,187.000,234.000,140.500
2.468,206.500,188.000,235.000,141.500
2.469,207.500,188.000,234.500,141.500
2.470,210.000,187.500,234.000,141.500
2.471,212.500,186.000,232.500,140.500
2.472,215.500,185.000,231.500,139.500
2.473,217.000,183.000,229.500,138.000
2.474,218.500,181.500,228.500,137.500
2.475,218.000,180.000,227.500,136.500
2.476,217.000,179.500,227.500,136.500
2.477,215.000,179.000,227.500,136.500
2.478,214.000,180.000,228.500,137.500
2.479,212.000,180.500,229.000,138.500
2.480,211.500,182.000,230.000,140.000
2.481,210.500,183.000,231.000,141.500
2.482,210.500,184.500,232.500,143.000
2.483,210.500,185.000,233.000,144.000
2.484,211.000,185.500,234.000,145.000
2.485,211.500,185.000,234.000,145.500
2.486,212.500,184.500,234.000,146.000
2.487,213.000,183.500,233.500,145.500
2.488,214.500,183.000,233.500,146.000
2.489,214.500,182.000,232.500,145.500
2.490,215.000,182.000,232.000,145.500
2.491,215.000,181.000,231.000,145.000
2.492,215.000,181.000,231.000,146.000
2.493,214.000,180.000,230.500,146.000
2.494,213.500,180.500,230.500,146.500
2.495,212.500,180.000,230.500,147.000
2.496,212.000,180.000,231.000,147.500
2.497,211.500,180.000,230.500,147.500
2.498,211.500,180.000,231.000,147.500
2.499,211.500,180.000,230.500,147.500
2.500,211.500,180.000,231.000,147.500
2.501,211.000,179.500,230.000,147.500
2.502,211.500,179.500,229.500,147.500
2.503,210.500,178.500,228.000,147.000
2.504,210.500,178.500,227.000,147.000
2.505,209.000,178.000,226.000,146.500
2.506,208.500,178.500,226.500,147.000
2.507,207.500,179.000,226.000,147.000
2.508,207.000,180.000,227.000,148.500
2.509,206.000,181.000,227.500,149.000
2.510,206.500,182.000,228.500,150.000
2.511,206.500,182.500,228.000,150.500
2.512,207.000,182.500,228.500,151.000
2.513,207.500,181.500,227.500,150.500
2.514,208.500,180.500,227.000,150.500
2.515,208.500,178.500,225.500,149.500
2.516,209.000,177.500,225.500,149.500
2.517,209.000,176.500,225.000,149.000
2.518,208.500,177.000,226.000,150.500
2.519,207.500,178.000,227.500,152.000
2.520,206.500,180.500,230.000,155.000
2.521,205.000,182.500,233.000,158.000
2.522,204.500,186.000,236.500,162.000
2.523,203.500,188.000,239.000,164.500
2.524,204.000,190.500,241.500,167.000
2.525,205.000,191.000,242.000,168.000
2.526,207.000,191.500,242.500,168.500
2.527,209.500,190.500,241.500,168.000
2.528,212.000,190.000,240.500,167.000
2.529,214.000,188.000,238.500,165.000
2.530,215.500,187.000,237.000,163.500
2.531,215.500,185.000,234.500,161.500
2.532,215.500,184.500,233.500,160.500
2.533,214.500,183.500,232.000,159.500
2.534,214.000,184.000,231.500,159.500
2.535,212.500,184.000,231.000,160.000
2.536,211.500,185.000,231.500,161.000
2.537,209.500,185.000,231.500,161.500
2.538,207.500,185.500,231.500,162.500
2.539,205.500,185.000,231.000,162.500
2.540,204.500,185.000,230.500,162.500
2.541,204.000,183.500,229.500,161.500
2.542,205.000,182.500,229.000,161.000
2.543,206.000,180.500,227.500,160.000
2.544,208.500,179.500,226.500,159.000
2.545,210.000,178.000,225.000,158.000
2.546,211.500,177.500,224.500,158.000
2.547,212.000,177.000,224.000,158.000
2.548,212.500,178.000,225.000,159.500
2.549,211.500,179.000,226.000,160.500
2.550,211.500,181.000,227.500,162.500
2.551,211.000,182.000,228.500,163.500
2.552,211.500,183.500,230.000,164.500
2.553,211.000,184.000,230.500,165.500
2.554,211.500,185.000,231.500,166.500
2.555,211.000,185.000,231.500,166.500
2.556,211.500,185.000,232.500,167.500
2.557,211.500,184.500,232.000,167.000
2.558,212.000,184.000,231.500,167.000
2.559,212.500,182.000,230.000,165.500
2.560,213.000,180.500,228.500,164.500
2.561,213.000,178.000,226.000,162.000
2.562,213.500,176.000,224.000,160.500
2.563,213.000,174.000,222.000,159.000
2.564,213.500,173.500,221.500,158.500
2.565,213.000,173.000,221.500,158.000
2.566,213.000,174.500,223.000,159.000
2.567,212.500,175.500,224.000,160.000
2.568,212.500,177.500,226.000,161.500
2.569,211.500,178.000,226.500,162.500
2.570,212.000,179.500,227.500,163.000
2.571,212.000,179.500,227.500,163.000
2.572,213.000,180.500,227.500,163.500
2.573,213.000,180.500,227.000,163.000
2.574,213.500,181.000,227.000,163.500
2.575,213.500,180.500,226.000,163.000
2.576,213.500,181.000,226.000,163.500
2.577,212.500,180.500,225.500,163.500
2.578,212.000,180.500,225.500,164.000
2.579,211.000,180.500,225.000,163.500
2.580,210.500,181.000,225.500,164.000
2.581,210.000,181.000,225.000,164.000
2.582,210.000,182.000,225.500,164.500
2.583,210.000,182.500,225.500,164.500
2.584,210.000,183.500,226.000,165.500
2.585,210.000,184.000,226.500,166.000
2.586,210.500,184.500,227.500,167.500
2.587,210.500,184.500,228.000,168.000
2.588,212.000,185.500,229.000,169.500
2.589,212.500,185.500,229.000,170.000
2.590,214.000,186.000,230.000,170.500
2.591,214.000,185.500,229.500,170.500
2.592,215.000,185.500,230.000,171.500
2.593,214.500,184.500,229.500,171.500
2.594,215.000,184.500,230.000,171.500
2.595,215.000,183.500,229.500,171.000
2.596,215.500,183.000,229.500,171.000
2.597,215.500,182.500,228.500,170.500
2.598,215.000,182.500,228.500,170.500
2.599,214.000,182.000,227.500,169.500
2.600,213.000,181.500,227.500,169.500
2.601,211.500,181.000,227.000,169.500
2.602,211.500,180.500,227.000,170.000
2.603,211.000,180.000,227.000,170.000
2.604,211.500,180.500,227.500,171.000
2.605,212.000,180.500,227.500,171.500
2.606,213.000,181.000,228.000,172.500
2.607,213.500,181.000,228.000,173.000
2.608,213.500,181.000,228.500,173.500
2.609,212.500,181.000,228.000,173.000
2.610,212.500,181.000,228.000,173.500
2.611,211.500,181.000,227.500,173.000
2.612,211.500,181.500,227.500,173.000
2.613,211.000,181.000,226.500,172.500
2.614,211.000,181.500,226.500,173.000
2.615,211.000,181.500,226.000,172.500
2.616,211.500,182.000,226.500,173.500
2.617,210.500,182.000,226.000,173.500
2.618,210.500,182.500,226.500,174.500
2.619,209.500,182.500,226.500,175.000
2.620,209.500,183.000,227.500,176.000
2.621,209.000,183.000,227.500,176.000
2.622,209.500,183.500,228.000,177.000
2.623,209.500,183.500,227.500,177.000
2.624,210.000,184.500,228.500,178.000
2.625,210.500,185.000,228.500,178.000
2.626,211.000,186.500,229.500,179.000
2.627,211.500,187.500,230.000,179.500
2.628,212.500,189.500,231.000,181.000
2.629,213.000,190.500,231.500,181.000
2.630,214.000,191.500,232.000,181.500
2.631,214.500,191.500,231.500,180.500
2.632,215.000,190.500,230.500,180.000
2.633,214.500,188.500,228.000,178.000
2.634,214.500,186.500,226.000,176.500
2.635,213.000,184.000,224.000,175.000
2.636,212.500,182.500,223.500,174.500
2.637,211.000,181.500,223.000,174.000
2.638,210.000,182.000,224.000,175.000
2.639,209.000,182.500,225.000,176.000
2.640,209.500,184.000,226.500,177.500
2.641,209.500,184.500,227.000,178.500
2.642,210.500,184.500,228.500,179.500
2.643,211.000,183.500,228.500,179.500
2.644,212.500,183.000,228.500,180.000
2.645,213.500,182.000,228.000,180.000
2.646,214.500,182.000,228.000,180.000
2.647,214.500,182.000,228.000,180.000
2.648,214.500,183.500,229.000,181.000
2.649,213.500,184.500,230.000,182.000
2.650,213.000,186.500,231.500,184.000
2.651,212.000,188.000,232.500,185.500
2.652,211.500,189.500,234.000,187.000
2.653,210.500,190.000,234.500,188.000
2.654,210.000,190.500,235.000,188.500
2.655,209.000,190.000,234.500,188.500
2.656,209.000,190.000,234.500,189.000
2.657,208.000,188.500,233.000,188.500
2.658,208.000,187.500,232.500,188.000
2.659,207.000,185.500,230.500,186.500
2.660,207.500,184.000,229.500,185.500
2.661,207.000,182.500,228.000,184.500
2.662,207.500,182.000,228.000,184.500
2.663,207.000,181.500,227.500,184.500
2.664,207.500,182.000,228.500,185.500
2.665,207.500,181.500,229.000,186.000
2.666,208.000,182.000,229.500,186.500
2.667,208.500,180.500,229.000,186.000
2.668,210.500,179.500,228.000,185.000
2.669,211.500,177.000,226.000,182.500
2.670,213.500,175.500,224.500,181.000
2.671,214.500,174.000,222.500,179.500
2.672,215.500,174.000,222.000,179.000
2.673,215.500,174.000,221.500,179.000
2.674,215.500,174.500,222.000,179.500
2.675,214.000,174.500,222.000,180.000
2.676,213.000,175.000,222.500,181.000
2.677,211.000,174.000,221.500,180.500
2.678,210.000,173.500,221.000,181.000
2.679,208.500,172.000,220.000,180.500
2.680,208.500,171.500,220.500,181.000
2.681,209.000,171.000,220.500,181.500
2.682,211.500,172.000,221.500,182.500
2.683,213.000,173.000,222.500,183.000
2.684,215.000,174.500,224.000,183.500
2.685,215.500,175.500,224.000,183.500
2.686,216.000,176.500,224.500,183.000
2.687,215.000,177.000,223.500,182.000
2.688,214.000,177.500,222.500,181.000
2.689,211.500,177.000,221.000,179.500
2.690,210.000,177.500,221.000,179.000
2.691,207.500,177.500,220.500,178.500
2.692,206.500,178.500,221.000,179.000
2.693,205.500,179.000,221.000,179.500
2.694,205.500,180.000,222.000,180.500
2.695,205.500,179.500,222.500,180.500
2.696,207.000,179.500,223.000,181.500
2.697,208.500,178.000,222.500,181.000
2.698,211.000,177.500,222.500,181.000
2.699,213.000,176.000,221.500,180.500
2.700,215.500,175.000,221.500,180.500
2.701,217.000,174.000,221.000,180.500
2.702,218.500,174.500,222.000,182.000
2.703,219.000,175.000,222.500,183.000
2.704,219.500,176.000,224.000,184.500
2.705,219.000,176.500,225.000,185.000
2.706,218.500,177.000,226.000,186.000
2.707,217.500,176.500,225.500,185.500
2.708,217.000,176.000,226.000,186.000
2.709,215.500,175.500,225.500,185.500
2.710,215.000,175.500,225.500,185.500
2.711,213.000,176.000,225.500,185.500
2.712,212.000,177.000,226.000,186.500
2.713,209.500,177.000,225.500,186.500
2.714,208.000,178.000,226.000,187.500
2.715,206.000,177.500,225.500,188.000
2.716,204.500,178.000,225.500,189.000
2.717,203.000,177.500,225.000,189.000
2.718,203.000,178.000,225.500,190.000
2.719,203.000,178.500,226.000,190.500
2.720,204.000,179.000,227.000,192.000
2.721,205.000,179.000,227.000,192.500
2.722,207.500,179.500,227.500,193.500
2.723,209.000,179.500,227.000,194.000
2.724,211.500,179.500,227.000,194.500
2.725,213.000,178.500,226.500,194.000
2.726,214.500,178.500,226.500,194.500
2.727,215.000,178.000,225.500,194.500
2.728,215.500,178.000,225.500,194.500
2.729,215.000,178.000,225.000,194.500
2.730,214.000,178.500,225.500,195.000
2.731,212.000,178.500,225.500,195.500
2.732,210.500,179.000,226.500,196.500
2.733,207.500,179.000,226.500,197.500
2.734,205.500,180.000,228.000,199.000
2.735,202.500,181.000,228.500,200.000
2.736,201.000,182.500,230.500,202.000
2.737,199.500,184.000,232.000,203.500
2.738,199.500,186.000,234.000,205.500
2.739,200.500,187.000,235.000,206.500
2.740,203.000,188.500,236.000,208.000
2.741,205.000,188.500,235.500,208.000
2.742,208.000,188.500,235.500,208.000
2.743,209.500,188.000,234.000,207.000
2.744,211.000,187.500,233.500,207.000
2.745,211.500,187.000,232.500,206.000
2.746,211.500,187.500,232.500,206.500
2.747,210.000,187.500,232.000,206.500
2.748,209.000,188.000,232.500,208.000
2.749,207.000,188.500,232.500,209.000
2.750,206.000,190.000,233.500,210.500
2.751,204.000,190.500,234.000,211.000
2.752,203.500,191.000,235.000,212.500
2.753,203.500,191.500,235.000,212.500
2.754,204.500,192.000,235.500,213.000
2.755,205.000,191.500,234.500,212.500
2.756,207.000,191.000,234.500,212.500
2.757,209.000,190.000,233.000,212.000
2.758,211.000,189.500,232.000,212.000
2.759,212.500,188.000,230.000,211.000
2.760,214.000,188.000,229.500,211.000
2.761,214.000,187.500,228.500,211.000
2.762,215.000,187.500,228.500,211.500
2.763,214.500,187.500,228.000,211.500
2.764,215.000,187.500,228.000,212.000
2.765,214.500,187.000,227.500,211.500
2.766,214.000,187.500,227.000,211.000
2.767,213.000,187.000,226.500,210.000
2.768,212.000,187.000,226.500,210.000
2.769,210.500,186.500,226.500,210.000
2.770,209.500,187.500,227.000,210.500
2.771,208.500,187.500,227.000,210.000
2.772,208.000,187.500,228.000,210.500
2.773,208.000,187.000,227.500,210.000
2.774,209.000,187.000,228.000,210.500
2.775,210.000,187.000,227.500,210.000
2.776,211.500,188.000,229.000,211.000
2.777,211.500,188.500,230.000,211.500
2.778,212.000,190.500,232.500,214.000
2.779,211.500,192.000,234.000,215.500
2.780,211.000,194.000,236.500,218.000
2.781,210.000,195.000,238.000,219.000
2.782,209.500,196.000,239.000,221.000
2.783,209.000,196.000,239.000,221.000
2.784,209.000,195.500,239.000,221.500
2.785,209.000,194.000,237.500,220.000
2.786,210.000,192.000,236.500,219.000
2.787,211.000,189.500,234.000,216.500
2.788,213.000,187.500,232.000,215.000
2.789,214.000,185.000,229.500,212.500
2.790,215.500,183.500,228.000,211.000
2.791,216.000,182.000,226.500,210.000
2.792,217.000,182.000,226.500,210.000
2.793,216.000,181.500,226.000,209.500
2.794,215.500,182.000,227.000,210.500
2.795,214.000,182.000,227.500,211.000
2.796,213.000,183.000,229.000,212.500
2.797,212.000,183.000,229.500,214.000
2.798,212.000,183.500,230.500,215.500
2.799,212.000,183.000,230.500,216.500
2.800,213.500,183.000,230.500,218.500
2.801,214.000,182.000,230.000,219.500
2.802,215.500,181.500,229.500,220.500
2.803,215.500,180.000,228.000,221.000
2.804,216.500,178.500,227.000,222.000
2.805,216.000,177.000,225.500,222.500
2.806,215.500,176.000,224.500,223.500
2.807,214.000,174.500,222.500,224.000
2.808,213.500,173.500,221.500,225.000
2.809,212.500,171.500,219.000,225.000
2.810,212.000,170.000,216.000,225.000
2.811,211.500,167.000,212.000,223.500
2.812,212.000,163.500,207.500,221.500
2.813,212.500,159.000,201.000,218.500
2.814,213.500,154.000,194.500,216.000
2.815,214.000,148.000,187.000,212.500
2.816,215.500,143.000,180.000,210.000
2.817,217.500,137.500,172.500,207.000
2.818,221.000,131.500,165.500,204.500
2.819,225.000,124.500,156.000,200.000
2.820,230.500,116.500,145.500,194.000
2.821,235.000,107.000,131.500,185.500
2.822,240.000,97.000,117.000,176.000
2.823,243.000,86.000,101.000,165.500
2.824,245.500,76.500,86.500,155.500
2.825,246.000,68.000,74.500,147.000
2.826,246.500,63.000,66.000,141.000
2.827,245.500,60.000,61.000,137.000
2.828,244.500,60.500,60.000,136.000
2.829,242.500,62.000,61.500,136.000
2.830,241.000,66.000,66.000,137.000
2.831,239.000,70.500,71.000,138.000
2.832,238.000,76.500,78.000,139.500
2.833,236.500,82.000,84.500,139.500
2.834,235.500,88.000,91.500,140.000
2.835,234.000,93.000,97.500,139.000
2.836,232.500,99.000,104.500,139.000
2.837,230.500,104.500,111.000,139.000
2.838,228.500,111.000,119.000,141.000
2.839,226.000,118.500,127.500,144.000
2.840,223.500,127.000,138.000,149.000
2.841,220.000,136.000,149.000,154.500
2.842,217.500,145.500,161.500,161.000
2.843,214.500,154.000,172.500,167.500
2.844,211.500,163.000,184.000,173.500
2.845,208.500,170.500,194.000,178.500
2.846,207.000,177.500,204.000,183.000
2.847,205.000,183.000,212.000,186.500
2.848,205.000,188.500,219.000,190.000
2.849,204.500,192.500,225.000,192.500
2.850,205.500,196.500,230.000,195.000
2.851,206.500,199.000,233.500,196.500
2.852,208.000,201.500,236.000,198.000
2.853,208.500,202.000,237.500,198.500
2.854,209.000,202.500,239.000,199.500
2.855,208.500,202.000,239.500,200.000
2.856,208.000,202.500,240.500,201.500
2.857,206.500,202.000,241.000,203.000
2.858,206.000,203.000,242.500,205.000
2.859,205.000,203.000,243.000,207.000
2.860,205.000,204.000,244.500,209.500
2.861,205.000,204.500,245.000,211.000
2.862,205.500,205.500,245.500,212.500
2.863,205.000,205.500,245.500,213.500
2.864,205.500,206.000,245.500,214.500
2.865,205.500,205.500,244.500,215.000
2.866,206.000,205.500,244.000,215.500
2.867,206.500,204.500,243.000,215.000
2.868,208.000,204.500,243.000,216.000
2.869,209.000,203.500,242.500,216.000
2.870,211.000,204.000,243.000,217.000
2.871,212.000,203.500,243.000,217.000
2.872,213.500,204.500,243.500,218.000
2.873,213.500,204.500,243.500,218.000
2.874,214.000,204.500,244.000,218.500
2.875,213.000,204.000,243.500,218.000
2.876,212.500,204.000,243.500,218.000
2.877,211.500,203.500,242.500,217.000
2.878,211.000,203.000,242.500,216.500
2.879,210.000,202.000,242.000,216.000
2.880,210.000,202.000,242.000,216.000
2.881,208.500,201.500,241.500,216.000
2.882,208.000,201.500,242.000,216.000
2.883,207.000,201.000,241.500,215.500
2.884,206.500,201.000,241.500,215.500
2.885,205.500,200.500,240.500,215.000
2.886,205.500,200.500,240.500,214.500
2.887,205.500,200.000,239.500,213.500
2.888,207.000,200.000,239.500,213.500
2.889,207.500,199.500,239.000,213.000
2.890,209.000,199.500,240.000,213.500
2.891,209.500,199.500,240.000,213.000
2.892,210.500,200.000,241.000,213.500
2.893,210.500,200.000,241.500,213.500
2.894,211.500,201.000,243.000,214.000
2.895,211.500,200.500,243.000,214.000
2.896,212.500,201.000,244.000,215.000
2.897,212.500,200.000,244.000,215.000
2.898,213.000,199.500,244.500,215.500
2.899,212.000,198.500,244.000,216.000
2.900,212.000,198.500,244.500,217.000
2.901,211.000,198.000,244.500,217.000
2.902,210.500,198.000,245.500,218.000
2.903,209.500,197.500,245.500,218.500
2.904,209.500,198.000,246.500,219.500
2.905,208.500,198.000,247.000,219.500
2.906,208.500,198.500,248.000,220.500
2.907,207.500,198.000,248.000,220.500
2.908,207.000,198.500,249.000,221.500
2.909,206.000,198.500,249.000,221.500
2.910,206.000,198.500,250.000,222.500
2.911,205.000,198.000,250.000,223.000
2.912,205.500,198.000,250.000,223.500
2.913,205.500,196.500,249.500,223.500
2.914,207.000,195.500,249.000,223.000
2.915,208.000,193.500,247.000,221.500
2.916,210.500,191.500,246.000,220.500
2.917,212.000,189.500,244.000,219.000
2.918,214.000,188.500,243.500,218.500
2.919,215.000,187.500,243.000,218.000
2.920,216.500,188.000,244.000,219.000
2.921,216.000,188.500,245.000,220.000
2.922,216.000,190.000,247.500,222.000
2.923,215.000,191.000,248.500,223.000
2.924,214.500,192.500,250.500,224.500
2.925,213.500,192.500,251.000,225.000
2.926,214.000,193.500,251.500,226.000
2.927,214.000,193.000,251.000,226.000
2.928,215.500,193.000,251.000,226.000
2.929,216.000,192.500,250.000,225.500
2.930,217.500,192.500,250.000,226.000
2.931,217.500,192.000,249.500,225.500
2.932,217.500,193.000,250.500,226.500
2.933,216.500,193.000,251.000,226.500
2.934,215.500,194.500,252.000,227.500
2.935,213.500,195.000,252.500,227.500
2.936,212.500,195.500,253.000,228.000
2.937,211.500,194.500,252.500,227.500
2.938,212.000,194.000,251.500,227.500
2.939,212.500,192.500,250.000,226.500
2.940,214.000,191.500,249.000,225.500
2.941,215.000,189.500,247.000,224.000
2.942,216.500,188.000,245.500,222.500
2.943,217.000,186.500,243.500,221.000
2.944,217.500,185.500,243.000,220.000
2.945,217.000,184.500,242.500,219.000
2.946,217.000,185.000,243.000,219.000
2.947,216.000,185.000,244.000,219.500
2.948,216.000,186.500,245.500,220.500
2.949,215.000,187.000,246.500,221.000
2.950,215.500,188.500,248.000,222.000
2.951,215.000,189.000,248.500,221.500
2.952,216.000,190.000,249.000,221.500
2.953,216.000,190.000,248.000,220.500
2.954,217.000,190.000,247.500,220.000
2.955,217.500,189.500,246.500,218.500
2.956,218.500,189.000,246.000,217.500
2.957,218.500,187.500,245.000,216.000
2.958,219.000,187.000,244.500,215.500
2.959,218.500,186.000,244.000,214.500
2.960,218.000,186.000,244.000,214.000
2.961,217.000,185.500,243.500,213.000
2.962,216.500,186.000,244.000,212.500
2.963,216.000,185.500,243.500,212.000
2.964,216.500,186.000,243.500,212.000
2.965,216.500,185.500,243.000,211.000
2.966,217.000,185.500,243.500,211.500
2.967,216.500,185.500,244.000,211.500
2.968,217.000,186.500,245.500,213.000
2.969,216.500,188.000,247.000,214.000
2.970,217.500,190.500,249.500,216.500
2.971,218.500,192.500,252.000,218.000
2.972,220.000,195.000,254.500,219.500
2.973,221.000,196.500,256.500,220.000
2.974,222.000,198.000,258.000,221.000
2.975,222.000,198.500,258.500,221.000
2.976,222.000,199.000,259.500,221.500
2.977,221.000,198.000,259.000,221.500
2.978,220.500,197.500,259.000,221.500
2.979,219.500,196.000,257.500,221.000
2.980,219.500,195.000,256.500,220.500
2.981,218.500,193.500,254.500,219.000
2.982,219.000,192.000,253.000,218.000
2.983,218.500,190.000,250.500,216.000
2.984,218.500,188.500,248.500,214.500
2.985,218.000,186.500,246.000,212.500
2.986,218.000,185.000,244.000,211.000
2.987,217.000,183.000,242.000,209.000
2.988,217.500,181.500,241.000,208.000
2.989,217.000,180.500,239.500,207.000
2.990,217.000,180.000,239.500,207.000
2.991,216.500,180.000,239.000,206.500
2.992,217.000,181.000,239.000,207.500
2.993,216.500,181.500,239.000,208.000
2.994,217.000,183.000,240.000,209.500
2.995,217.000,184.000,241.000,211.000
2.996,218.000,185.500,242.500,212.500
2.997,218.000,186.000,243.000,213.500
2.998,219.000,186.500,243.500,215.000
2.999,219.000,186.000,243.000,215.500
3.000,219.500,185.500,242.500,216.000
3.001,219.000,184.500,241.000,215.500
3.002,219.000,183.500,239.500,215.000
3.003,218.500,182.000,237.500,214.000
3.004,218.500,181.000,236.500,213.000
3.005,217.500,179.500,235.000,212.000
3.006,218.000,179.500,234.500,212.500
3.007,217.500,179.500,234.000,212.500
3.008,217.000,180.500,235.000,214.000
3.009,216.000,182.000,236.000,215.500
3.010,215.500,184.000,237.500,218.000
3.011,214.000,185.500,238.000,220.000
3.012,213.500,188.000,239.500,222.500
3.013,212.500,189.000,240.000,224.500
3.014,212.500,190.500,241.000,226.000
3.015,212.000,190.000,240.000,226.500
3.016,213.000,189.500,239.000,227.000
3.017,214.000,187.500,236.000,226.000
3.018,216.000,185.500,233.500,225.000
3.019,217.000,183.000,230.500,223.000
3.020,219.000,181.000,228.000,222.000
3.021,220.000,179.000,225.500,221.000
3.022,221.000,178.000,225.000,221.500
3.023,221.000,177.000,224.000,221.500
3.024,221.000,177.500,224.500,223.000
3.025,220.500,177.000,224.000,223.500
3.026,220.000,178.000,224.500,225.000
3.027,218.500,178.000,224.000,225.000
3.028,217.500,178.500,223.500,225.500
3.029,216.000,178.000,222.500,225.500
3.030,215.500,178.500,222.000,225.500
3.031,214.000,178.000,221.000,225.000
3.032,213.500,178.500,221.000,225.500
3.033,213.000,179.000,220.500,225.500
3.034,213.000,180.000,221.000,227.000
3.035,213.000,181.000,221.000,227.500
3.036,213.500,182.000,221.500,229.000
3.037,213.500,182.500,221.500,229.500
3.038,214.000,183.500,222.000,230.500
3.039,214.000,183.500,222.000,230.500
3.040,214.500,183.500,222.000,230.500
3.041,214.500,183.000,221.000,230.000
3.042,215.500,183.000,221.000,230.500
3.043,215.500,182.500,220.000,230.000
3.044,217.000,183.000,219.500,230.000
3.045,217.500,182.000,218.000,229.000
3.046,219.000,182.000,217.500,228.500
3.047,220.000,180.500,216.000,227.500
3.048,221.000,180.000,215.000,227.000
3.049,221.000,178.500,214.000,225.500
3.050,221.000,178.000,213.500,225.500
3.051,220.000,177.500,213.000,224.500
3.052,219.500,178.000,213.000,225.000
3.053,218.000,177.500,212.000,224.000
3.054,217.500,178.000,212.000,224.000
3.055,216.500,177.500,211.500,223.000
3.056,216.500,178.000,211.500,223.000
3.057,216.000,177.500,211.000,222.000
3.058,216.500,177.500,211.000,221.500
3.059,216.500,176.500,210.500,220.500
3.060,217.000,176.500,210.500,220.000
3.061,217.500,175.500,209.500,219.000
3.062,218.000,176.000,210.000,218.500
3.063,218.000,175.500,209.500,218.000
3.064,218.500,176.500,210.500,218.500
3.065,218.500,176.500,210.500,218.500
3.066,219.000,177.000,211.000,218.500
3.067,218.500,176.500,210.500,217.500
3.068,219.000,176.500,210.500,217.500
3.069,218.500,175.000,209.500,216.500
3.070,218.500,174.500,209.500,216.000
3.071,217.500,173.000,208.500,215.000
3.072,218.000,172.500,209.000,215.500
3.073,217.500,171.500,209.500,215.500
3.074,218.000,171.500,210.500,216.000
3.075,217.500,171.500,211.000,216.500
3.076,217.500,173.000,212.500,218.000
3.077,216.500,173.500,213.500,219.000
3.078,216.000,175.000,215.000,220.500
3.079,215.000,175.500,215.500,221.000
3.080,214.500,176.000,216.000,221.500
3.081,213.500,176.000,216.000,221.500
3.082,213.500,176.000,216.500,222.000
3.083,213.000,175.500,216.000,221.500
3.084,214.000,175.500,216.500,222.000
3.085,214.500,175.000,216.000,222.000
3.086,215.500,175.500,216.500,222.500
3.087,216.000,175.000,216.500,222.500
3.088,217.000,175.000,217.000,223.000
3.089,217.000,174.500,216.500,222.500
3.090,217.000,174.500,217.500,223.000
3.091,216.500,173.500,217.500,223.000
3.092,217.000,173.000,218.000,223.500
3.093,216.500,172.500,218.000,223.500
3.094,217.000,172.500,219.000,224.500
3.095,216.500,172.500,219.500,225.000
3.096,216.500,173.500,221.500,226.500
3.097,215.000,174.000,222.500,227.500
3.098,214.000,176.000,224.500,229.000
3.099,212.000,177.000,226.000,229.500
3.100,210.500,178.000,227.500,230.500
3.101,208.500,178.500,228.000,230.500
3.102,208.000,179.000,229.000,231.000
3.103,207.000,178.500,229.000,231.000
3.104,207.500,179.000,230.000,231.500
3.105,207.500,178.500,230.000,231.000
3.106,208.000,179.500,231.000,231.500
3.107,208.000,179.500,231.500,232.000
3.108,208.500,181.000,233.000,233.000
3.109,208.000,181.500,234.000,233.500
3.110,209.000,183.000,236.000,235.000
3.111,209.000,184.000,237.000,235.500
3.112,210.000,185.000,238.000,236.500
3.113,210.000,185.000,238.500,236.000
3.114,210.500,185.500,239.000,236.500
3.115,210.000,185.500,239.000,236.000
3.116,209.500,186.500,240.000,236.000
3.117,208.000,187.000,240.500,236.000
3.118,207.000,188.000,242.000,236.500
3.119,205.500,188.500,243.000,236.000
3.120,205.000,189.500,244.000,237.000
3.121,204.500,189.500,244.500,236.500
3.122,204.500,190.000,245.000,237.000
3.123,204.000,189.500,245.000,236.500
3.124,203.500,190.000,245.500,236.500
3.125,202.500,190.000,245.500,236.000
3.126,202.500,190.500,246.500,236.000
3.127,202.500,191.000,246.500,235.500
3.128,204.000,192.500,248.000,236.000
3.129,205.500,193.000,249.000,236.000
3.130,208.000,193.500,250.500,236.500
3.131,209.500,193.500,251.000,236.000
3.132,211.000,194.500,252.000,236.500
3.133,211.500,194.000,252.000,236.500
3.134,211.500,194.000,253.000,236.500
3.135,211.000,193.500,252.500,236.000
3.136,211.000,193.000,253.000,236.000
3.137,210.000,192.500,252.500,235.500
3.138,210.500,192.500,253.000,235.000
3.139,210.000,192.000,252.500,234.000
3.140,210.000,192.000,252.500,234.000
3.141,209.500,192.000,252.500,233.500
3.142,210.000,193.000,254.000,233.500
3.143,209.500,193.500,254.500,232.500
3.144,210.000,194.000,255.500,233.000
3.145,209.500,194.500,255.500,232.000
3.146,209.500,195.000,256.000,232.000
3.147,208.500,194.500,255.500,231.000
3.148,209.000,194.500,255.500,230.500
3.149,208.500,193.500,254.500,229.500
3.150,208.500,194.000,254.500,229.000
3.151,208.000,194.000,254.000,227.500
3.152,208.500,195.000,254.500,227.500
3.153,208.500,195.000,254.500,226.500
3.154,209.000,196.000,255.500,226.500
3.155,208.500,196.500,255.000,226.000
3.156,209.000,197.000,255.500,226.000
3.157,208.500,196.500,255.000,225.500
3.158,209.000,196.500,255.000,225.500
