'Elapsed time','AECG1','AECG2','AECG3','AECG4'
'seconds','uV','uV','uV','uV'
0.000,-103.000,-113.500,-161.500,-84.500
0.001,-101.000,-114.000,-162.500,-85.000
0.002,-99.500,-114.500,-163.000,-85.000
0.003,-98.000,-116.000,-164.000,-84.500
0.004,-97.000,-117.500,-164.500,-84.000
0.005,-96.000,-118.500,-164.500,-83.000
0.006,-95.500,-118.500,-164.000,-82.500
0.007,-95.500,-118.000,-163.500,-82.000
0.008,-96.000,-116.000,-162.000,-81.500
0.009,-96.500,-113.500,-160.000,-80.500
0.010,-98.000,-110.500,-157.500,-78.500
0.011,-99.500,-107.500,-155.000,-76.500
0.012,-101.000,-104.500,-152.500,-74.500
0.013,-102.500,-102.000,-150.500,-73.000
0.014,-103.500,-100.500,-149.000,-73.000
0.015,-104.000,-99.500,-148.500,-73.500
0.016,-103.000,-99.000,-148.500,-75.000
0.017,-101.500,-99.000,-149.000,-77.000
0.018,-99.000,-100.000,-149.500,-79.000
0.019,-96.000,-101.000,-151.000,-80.500
0.020,-92.500,-101.500,-152.000,-81.000
0.021,-89.000,-102.500,-153.000,-81.000
0.022,-86.000,-102.500,-153.500,-80.500
0.023,-84.000,-102.500,-153.500,-79.500
0.024,-82.500,-102.000,-153.000,-78.500
0.025,-82.000,-101.500,-152.500,-77.500
0.026,-82.000,-101.500,-152.500,-77.000
0.027,-83.000,-101.500,-152.000,-76.500
0.028,-85.000,-102.000,-152.000,-76.500
0.029,-87.000,-103.000,-152.000,-76.500
0.030,-89.500,-103.500,-151.500,-76.000
0.031,-91.500,-104.000,-151.000,-75.000
0.032,-94.000,-105.000,-150.500,-74.000
0.033,-96.500,-105.500,-150.000,-73.000
0.034,-98.500,-106.000,-150.000,-73.000
0.035,-100.000,-107.000,-151.500,-73.000
0.036,-101.000,-108.500,-153.500,-74.500
0.037,-102.000,-110.500,-156.500,-76.500
0.038,-102.000,-112.500,-159.500,-78.500
0.039,-101.000,-113.500,-162.000,-81.000
0.040,-99.500,-114.000,-163.500,-82.500
0.041,-97.500,-113.000,-164.000,-83.000
0.042,-95.500,-112.000,-163.000,-83.000
0.043,-93.500,-110.500,-161.500,-82.000
0.044,-92.500,-109.000,-159.500,-80.500
0.045,-91.500,-108.000,-158.000,-79.500
0.046,-90.500,-106.500,-156.000,-77.500
0.047,-90.000,-105.000,-153.500,-76.000
0.048,-90.000,-103.500,-151.500,-73.500
0.049,-90.000,-102.500,-149.500,-71.500
0.050,-90.500,-101.000,-147.500,-69.500
0.051,-91.500,-100.500,-145.500,-68.000
0.052,-93.000,-99.500,-144.000,-66.500
0.053,-94.000,-99.500,-143.000,-65.500
0.054,-96.000,-100.000,-143.000,-65.500
0.055,-97.500,-102.000,-144.500,-66.500
0.056,-99.500,-104.500,-146.500,-68.500
0.057,-101.500,-107.000,-149.500,-71.000
0.058,-102.500,-110.000,-153.000,-74.000
0.059,-102.500,-112.000,-156.000,-76.500
0.060,-102.500,-114.000,-158.000,-78.500
0.061,-101.500,-115.000,-159.500,-80.000
0.062,-100.500,-115.000,-159.500,-80.000
0.063,-99.000,-114.500,-159.500,-79.500
0.064,-97.500,-114.000,-158.500,-78.500
0.065,-96.000,-113.500,-157.500,-77.500
0.066,-95.000,-113.000,-157.000,-76.500
0.067,-94.500,-113.000,-156.000,-75.500
0.068,-94.500,-112.500,-155.000,-74.500
0.069,-95.000,-112.000,-154.000,-73.500
0.070,-95.500,-111.000,-153.000,-72.000
0.071,-96.500,-110.000,-151.500,-70.500
0.072,-97.500,-109.000,-149.500,-69.000
0.073,-98.500,-108.000,-148.000,-67.500
0.074,-99.500,-107.000,-147.500,-67.000
0.075,-100.500,-107.000,-147.000,-66.500
0.076,-101.000,-107.000,-147.500,-67.000
0.077,-100.500,-107.500,-148.500,-68.000
0.078,-100.000,-108.000,-150.000,-69.500
0.079,-99.000,-108.500,-151.500,-71.000
0.080,-97.500,-109.000,-153.000,-73.000
0.081,-96.000,-109.000,-153.500,-73.500
0.082,-94.000,-108.500,-153.500,-73.500
0.083,-92.000,-107.500,-152.500,-72.500
0.084,-90.500,-106.000,-151.000,-70.500
0.085,-89.000,-105.000,-149.500,-69.000
0.086,-88.000,-103.500,-148.000,-67.500
0.087,-88.000,-103.000,-146.500,-66.000
0.088,-88.000,-103.000,-146.000,-65.000
0.089,-89.500,-103.000,-145.500,-64.500
0.090,-91.500,-104.000,-145.500,-64.500
0.091,-94.000,-105.000,-146.000,-64.500
0.092,-97.000,-106.000,-146.000,-65.000
0.093,-100.000,-107.000,-146.500,-65.500
0.094,-102.500,-109.000,-147.500,-66.500
0.095,-105.000,-111.000,-149.000,-68.000
0.096,-106.500,-113.500,-151.000,-69.500
0.097,-107.500,-116.000,-153.500,-71.500
0.098,-107.500,-118.000,-155.500,-74.000
0.099,-106.500,-119.500,-158.000,-76.000
0.100,-105.500,-120.000,-159.500,-77.500
0.101,-104.000,-120.000,-160.500,-78.500
0.102,-102.500,-119.500,-160.500,-79.000
0.103,-101.000,-118.000,-160.000,-79.000
0.104,-100.000,-116.500,-159.000,-78.500
0.105,-98.500,-115.000,-158.000,-77.500
0.106,-97.500,-113.500,-157.000,-76.500
0.107,-96.500,-112.000,-155.500,-76.000
0.108,-96.000,-111.000,-154.500,-74.500
0.109,-96.000,-110.500,-153.000,-73.500
0.110,-96.500,-110.000,-152.000,-72.500
0.111,-97.000,-109.000,-150.500,-71.000
0.112,-98.000,-108.500,-149.000,-70.000
0.113,-99.000,-107.500,-148.000,-69.000
0.114,-100.000,-107.000,-147.500,-68.500
0.115,-100.500,-107.000,-148.000,-68.500
0.116,-101.500,-108.000,-149.000,-69.500
0.117,-102.000,-109.000,-150.500,-71.000
0.118,-101.500,-110.000,-152.000,-72.500
0.119,-101.000,-112.000,-154.000,-74.500
0.120,-100.500,-113.500,-156.000,-76.000
0.121,-99.500,-114.500,-157.000,-77.000
0.122,-98.500,-115.500,-157.500,-78.000
0.123,-97.500,-115.000,-157.000,-78.000
0.124,-96.000,-114.500,-156.000,-77.500
0.125,-94.500,-113.500,-155.000,-77.000
0.126,-93.500,-113.000,-154.000,-76.500
0.127,-92.500,-112.500,-153.500,-75.500
0.128,-92.500,-113.000,-153.000,-75.000
0.129,-93.000,-113.500,-153.000,-74.000
0.130,-94.000,-114.000,-152.500,-73.500
0.131,-95.000,-113.500,-152.000,-72.500
0.132,-96.500,-112.500,-151.000,-71.500
0.133,-97.500,-111.000,-150.000,-70.500
0.134,-98.500,-110.000,-149.500,-70.500
0.135,-99.000,-109.000,-149.000,-70.500
0.136,-99.500,-108.500,-149.000,-71.500
0.137,-100.000,-108.500,-149.500,-73.000
0.138,-100.000,-110.000,-151.000,-75.000
0.139,-100.000,-112.000,-153.000,-77.000
0.140,-100.000,-115.000,-155.000,-78.500
0.141,-99.500,-118.000,-156.500,-79.500
0.142,-99.500,-120.500,-157.500,-80.000
0.143,-98.500,-122.500,-158.000,-80.000
0.144,-98.000,-123.000,-158.500,-79.500
0.145,-97.500,-122.500,-158.000,-78.500
0.146,-96.500,-120.500,-157.000,-77.500
0.147,-96.000,-117.500,-155.500,-76.500
0.148,-95.500,-114.500,-154.000,-75.500
0.149,-95.000,-111.500,-152.500,-74.500
0.150,-95.500,-109.000,-150.500,-73.500
0.151,-96.500,-107.000,-149.000,-73.000
0.152,-97.500,-105.500,-147.500,-72.000
0.153,-99.500,-104.500,-146.000,-71.000
0.154,-101.000,-103.500,-144.500,-70.500
0.155,-102.500,-103.500,-144.500,-70.500
0.156,-103.500,-104.500,-145.000,-71.000
0.157,-103.500,-105.500,-146.000,-72.500
0.158,-103.000,-107.000,-147.500,-74.000
0.159,-101.000,-108.500,-149.000,-75.500
0.160,-99.000,-109.500,-149.500,-75.500
0.161,-96.000,-109.000,-149.000,-74.500
0.162,-93.000,-108.500,-147.500,-73.500
0.163,-90.500,-107.500,-146.500,-72.500
0.164,-88.500,-107.000,-146.000,-72.000
0.165,-87.000,-107.000,-146.000,-72.500
0.166,-86.500,-107.500,-147.000,-74.000
0.167,-86.500,-108.000,-148.000,-75.000
0.168,-87.000,-108.000,-148.500,-76.000
0.169,-87.500,-108.000,-148.000,-76.000
0.170,-88.000,-107.000,-147.000,-74.500
0.171,-88.500,-105.500,-145.500,-72.500
0.172,-89.000,-104.000,-143.000,-70.000
0.173,-89.000,-102.000,-140.500,-67.000
0.174,-89.500,-100.500,-138.500,-65.000
0.175,-90.000,-100.000,-137.500,-64.000
0.176,-91.500,-100.500,-137.500,-64.000
0.177,-92.500,-102.000,-138.500,-65.500
0.178,-93.500,-104.000,-141.000,-67.500
0.179,-94.500,-106.000,-143.500,-70.000
0.180,-94.500,-108.000,-145.500,-72.500
0.181,-94.000,-109.500,-147.500,-74.000
0.182,-92.500,-109.500,-148.000,-74.000
0.183,-91.000,-109.000,-147.500,-73.500
0.184,-89.500,-108.500,-146.500,-72.500
0.185,-88.500,-107.500,-145.500,-71.500
0.186,-88.000,-107.500,-145.000,-71.000
0.187,-88.000,-108.000,-145.000,-71.000
0.188,-89.000,-108.000,-145.000,-71.000
0.189,-89.500,-108.000,-144.500,-71.500
0.190,-90.500,-108.000,-144.000,-71.500
0.191,-92.000,-107.000,-143.000,-71.000
0.192,-93.000,-106.500,-142.000,-70.000
0.193,-94.500,-106.000,-141.000,-69.000
0.194,-95.500,-106.000,-141.000,-68.500
0.195,-96.500,-106.500,-141.000,-68.000
0.196,-96.500,-107.000,-142.000,-68.000
0.197,-96.000,-107.500,-142.500,-68.500
0.198,-94.500,-107.000,-143.000,-69.000
0.199,-92.000,-106.500,-143.500,-69.000
0.200,-89.500,-106.000,-143.000,-69.000
0.201,-87.000,-105.500,-143.000,-69.000
0.202,-85.000,-106.000,-143.000,-68.500
0.203,-84.000,-106.500,-143.500,-68.500
0.204,-84.500,-108.000,-144.500,-68.500
0.205,-86.000,-110.000,-146.000,-69.500
0.206,-88.500,-112.000,-148.000,-70.500
0.207,-91.500,-114.000,-150.000,-72.000
0.208,-94.500,-115.000,-151.500,-73.000
0.209,-97.000,-115.500,-151.500,-73.500
0.210,-99.000,-114.500,-151.000,-73.000
0.211,-100.000,-113.000,-148.500,-72.000
0.212,-100.000,-111.000,-146.000,-70.000
0.213,-99.500,-109.000,-143.000,-68.000
0.214,-99.000,-107.500,-141.000,-66.500
0.215,-98.500,-107.000,-140.000,-66.000
0.216,-97.500,-107.000,-140.000,-66.500
0.217,-97.000,-108.000,-141.000,-68.500
0.218,-95.500,-109.000,-143.000,-71.000
0.219,-93.500,-110.000,-144.500,-73.500
0.220,-91.500,-110.500,-146.000,-75.500
0.221,-90.000,-111.000,-147.000,-77.000
0.222,-88.500,-111.500,-147.500,-77.500
0.223,-87.500,-111.500,-148.000,-78.000
0.224,-87.000,-111.500,-148.500,-78.000
0.225,-87.000,-111.500,-148.500,-78.000
0.226,-86.500,-111.000,-148.000,-77.000
0.227,-86.000,-110.000,-147.000,-76.000
0.228,-86.000,-109.000,-146.000,-74.500
0.229,-87.000,-108.000,-144.500,-72.000
0.230,-89.000,-108.000,-143.000,-70.500
0.231,-91.500,-109.000,-142.000,-68.500
0.232,-95.000,-110.500,-141.000,-67.500
0.233,-98.000,-112.500,-141.000,-67.000
0.234,-100.500,-114.000,-141.000,-67.500
0.235,-102.000,-115.000,-141.000,-68.000
0.236,-103.000,-115.500,-142.000,-69.500
0.237,-102.500,-115.500,-143.000,-71.000
0.238,-101.000,-115.000,-144.000,-73.000
0.239,-98.500,-114.500,-145.000,-74.500
0.240,-96.500,-113.500,-146.000,-75.500
0.241,-94.500,-112.500,-146.500,-76.500
0.242,-93.000,-111.000,-146.000,-76.500
0.243,-91.000,-110.000,-145.500,-76.000
0.244,-89.500,-108.500,-144.500,-75.000
0.245,-88.000,-107.500,-143.000,-73.500
0.246,-87.000,-106.500,-141.500,-72.000
0.247,-86.000,-105.500,-140.000,-71.000
0.248,-85.500,-105.000,-139.000,-70.000
0.249,-86.000,-105.000,-138.500,-69.000
0.250,-87.000,-105.000,-138.000,-68.500
0.251,-88.500,-105.500,-137.500,-67.500
0.252,-91.000,-106.000,-137.000,-67.000
0.253,-93.500,-107.500,-137.500,-67.000
0.254,-96.500,-109.500,-138.000,-67.500
0.255,-99.000,-111.500,-139.000,-69.000
0.256,-101.500,-114.000,-140.500,-70.500
0.257,-103.000,-115.500,-142.500,-72.500
0.258,-104.000,-117.000,-144.500,-74.500
0.259,-104.000,-117.500,-146.500,-76.000
0.260,-103.500,-117.500,-148.000,-77.500
0.261,-102.000,-117.000,-148.500,-78.000
0.262,-100.000,-116.000,-148.000,-78.000
0.263,-98.000,-114.000,-147.000,-77.000
0.264,-95.500,-112.500,-145.000,-75.500
0.265,-93.000,-111.000,-143.000,-73.500
0.266,-91.000,-110.000,-141.500,-71.500
0.267,-89.000,-109.500,-140.500,-70.000
0.268,-88.000,-109.000,-139.500,-68.500
0.269,-87.500,-109.000,-139.000,-68.000
0.270,-87.500,-108.500,-138.500,-67.500
0.271,-88.000,-108.000,-137.500,-67.000
0.272,-89.000,-107.000,-136.000,-66.000
0.273,-90.000,-106.000,-135.000,-65.500
0.274,-91.000,-105.000,-134.000,-65.000
0.275,-91.500,-104.500,-133.500,-64.500
0.276,-92.000,-104.000,-133.500,-65.000
0.277,-92.000,-104.500,-134.000,-66.000
0.278,-91.000,-105.500,-135.000,-67.000
0.279,-90.500,-106.500,-136.500,-68.500
0.280,-90.000,-108.000,-138.000,-70.000
0.281,-89.500,-110.000,-139.500,-71.500
0.282,-90.000,-112.000,-141.000,-73.000
0.283,-90.500,-113.500,-142.000,-73.500
0.284,-90.500,-114.500,-142.500,-73.500
0.285,-90.500,-114.000,-142.500,-73.000
0.286,-89.500,-113.000,-141.000,-72.000
0.287,-89.000,-111.500,-139.000,-70.000
0.288,-88.000,-109.000,-137.000,-68.000
0.289,-87.500,-107.000,-134.500,-66.000
0.290,-87.500,-105.000,-132.000,-63.500
0.291,-88.000,-103.500,-129.500,-61.500
0.292,-89.000,-102.500,-127.000,-59.500
0.293,-90.000,-102.500,-125.500,-57.500
0.294,-91.500,-103.500,-124.500,-56.500
0.295,-92.500,-104.500,-124.000,-55.500
0.296,-92.500,-106.000,-124.500,-56.000
0.297,-92.500,-107.000,-126.000,-56.500
0.298,-92.500,-108.000,-128.000,-58.500
0.299,-92.500,-109.500,-130.500,-61.000
0.300,-92.500,-111.000,-133.500,-64.000
0.301,-93.500,-113.500,-137.000,-68.000
0.302,-95.000,-115.500,-141.000,-72.000
0.303,-96.000,-117.500,-144.500,-75.500
0.304,-96.500,-118.500,-147.000,-78.000
0.305,-96.000,-118.500,-148.500,-79.000
0.306,-95.000,-118.000,-148.500,-79.500
0.307,-94.000,-116.500,-147.500,-78.500
0.308,-93.500,-115.500,-146.000,-78.000
0.309,-93.500,-115.500,-145.000,-77.000
0.310,-94.500,-115.500,-144.000,-76.500
0.311,-96.000,-115.500,-143.500,-76.000
0.312,-98.000,-115.500,-142.500,-75.000
0.313,-99.500,-115.500,-141.500,-74.000
0.314,-100.000,-114.500,-140.000,-72.500
0.315,-98.500,-112.500,-138.000,-70.500
0.316,-95.000,-109.500,-135.000,-68.500
0.317,-90.500,-105.500,-131.500,-66.000
0.318,-85.000,-101.500,-128.000,-63.500
0.319,-80.000,-98.500,-125.500,-61.500
0.320,-76.500,-97.500,-124.000,-60.500
0.321,-75.500,-98.500,-124.500,-60.500
0.322,-77.000,-101.500,-126.000,-61.500
0.323,-80.000,-105.500,-129.000,-63.000
0.324,-83.500,-109.500,-132.000,-65.500
0.325,-87.000,-112.500,-134.500,-68.000
0.326,-90.000,-114.000,-136.500,-70.000
0.327,-92.000,-114.500,-137.500,-71.000
0.328,-92.500,-114.000,-137.000,-71.500
0.329,-92.500,-112.000,-136.000,-70.500
0.330,-92.000,-110.000,-134.000,-69.000
0.331,-91.500,-107.500,-131.500,-67.500
0.332,-91.000,-105.000,-129.500,-65.500
0.333,-91.500,-103.500,-127.500,-64.500
0.334,-92.000,-103.000,-126.500,-64.000
0.335,-92.500,-103.000,-126.500,-64.000
0.336,-93.000,-103.500,-127.000,-65.000
0.337,-93.000,-104.500,-128.500,-66.000
0.338,-92.500,-105.500,-130.000,-67.000
0.339,-92.000,-107.000,-131.500,-68.500
0.340,-91.000,-108.500,-133.000,-70.000
0.341,-89.500,-109.000,-134.000,-71.000
0.342,-88.500,-109.500,-134.500,-71.000
0.343,-86.500,-109.000,-133.500,-70.500
0.344,-85.000,-108.500,-132.500,-69.500
0.345,-83.500,-107.500,-131.000,-68.500
0.346,-82.500,-106.500,-130.000,-67.500
0.347,-81.500,-105.500,-129.000,-66.500
0.348,-81.000,-104.500,-127.500,-65.000
0.349,-80.000,-103.000,-126.000,-63.500
0.350,-80.000,-101.500,-124.000,-61.500
0.351,-79.500,-100.000,-122.000,-59.500
0.352,-80.500,-99.500,-120.500,-58.000
0.353,-81.500,-99.000,-120.000,-57.000
0.354,-83.500,-100.000,-120.000,-57.500
0.355,-86.000,-101.500,-121.500,-59.500
0.356,-88.500,-104.000,-124.500,-62.500
0.357,-91.000,-107.500,-129.000,-66.500
0.358,-93.000,-111.500,-133.500,-71.500
0.359,-95.000,-115.000,-138.500,-76.500
0.360,-96.000,-118.000,-142.500,-81.000
0.361,-96.000,-120.000,-145.500,-84.500
0.362,-96.000,-121.000,-147.000,-86.000
0.363,-95.500,-121.500,-147.500,-86.500
0.364,-94.500,-121.000,-147.000,-86.000
0.365,-93.500,-120.500,-146.000,-85.500
0.366,-92.000,-119.500,-144.500,-84.500
0.367,-91.500,-118.500,-143.000,-83.000
0.368,-91.000,-117.500,-141.500,-82.000
0.369,-91.000,-117.000,-139.500,-80.000
0.370,-92.000,-117.000,-137.000,-77.500
0.371,-93.000,-116.000,-134.000,-73.500
0.372,-94.000,-114.000,-130.000,-68.500
0.373,-94.000,-111.000,-125.500,-63.000
0.374,-94.000,-107.500,-120.500,-57.500
0.375,-92.500,-104.000,-116.000,-52.000
0.376,-91.000,-100.500,-112.000,-47.500
0.377,-88.000,-97.000,-108.500,-43.500
0.378,-85.000,-93.500,-105.500,-40.000
0.379,-82.000,-91.000,-103.000,-37.000
0.380,-79.500,-89.500,-101.500,-34.000
0.381,-78.000,-88.500,-99.500,-30.500
0.382,-76.500,-87.500,-98.000,-27.500
0.383,-76.500,-86.500,-96.000,-24.000
0.384,-77.000,-85.500,-94.500,-21.500
0.385,-78.000,-85.500,-93.000,-19.000
0.386,-79.500,-85.500,-92.000,-17.000
0.387,-81.000,-86.000,-91.500,-16.000
0.388,-82.500,-87.000,-91.000,-15.500
0.389,-84.000,-88.000,-91.000,-16.000
0.390,-86.000,-89.500,-92.000,-17.500
0.391,-88.500,-92.500,-94.000,-20.500
0.392,-91.000,-96.000,-96.500,-24.500
0.393,-93.000,-99.500,-100.000,-28.500
0.394,-95.000,-103.000,-103.500,-33.000
0.395,-96.000,-106.000,-107.500,-38.000
0.396,-96.000,-108.000,-111.500,-43.500
0.397,-95.000,-109.000,-115.500,-48.500
0.398,-93.500,-109.500,-118.500,-53.500
0.399,-90.500,-109.500,-121.000,-58.000
0.400,-88.000,-108.500,-123.000,-61.500
0.401,-85.000,-108.000,-124.000,-64.500
0.402,-82.500,-107.000,-124.500,-66.000
0.403,-80.500,-106.000,-124.500,-67.000
0.404,-79.500,-106.000,-124.000,-67.500
0.405,-79.000,-106.000,-124.000,-67.000
0.406,-79.500,-106.000,-123.500,-67.000
0.407,-80.000,-107.000,-123.500,-66.500
0.408,-81.000,-108.000,-123.500,-66.000
0.409,-82.000,-109.000,-123.000,-65.000
0.410,-83.500,-109.500,-122.000,-64.000
0.411,-85.000,-109.500,-121.000,-63.000
0.412,-87.000,-109.500,-120.000,-61.500
0.413,-89.500,-110.500,-119.500,-61.000
0.414,-92.500,-112.000,-120.000,-61.500
0.415,-95.000,-114.500,-121.500,-62.500
0.416,-97.000,-118.000,-123.500,-63.500
0.417,-98.000,-121.000,-125.500,-65.000
0.418,-97.000,-122.500,-127.500,-66.000
0.419,-95.500,-123.000,-128.500,-67.000
0.420,-93.000,-122.000,-128.500,-67.000
0.421,-90.500,-120.000,-128.000,-67.000
0.422,-88.000,-117.000,-126.500,-66.500
0.423,-85.500,-113.500,-125.000,-66.000
0.424,-83.000,-110.000,-123.000,-66.000
0.425,-81.500,-107.000,-122.000,-66.500
0.426,-80.500,-105.000,-121.500,-67.000
0.427,-80.000,-104.000,-121.500,-67.500
0.428,-80.500,-103.500,-121.000,-67.500
0.429,-81.500,-103.500,-120.500,-67.500
0.430,-82.500,-103.500,-120.000,-67.000
0.431,-84.000,-103.500,-119.000,-66.500
0.432,-86.000,-104.000,-118.500,-66.500
0.433,-88.500,-104.500,-118.500,-66.500
0.434,-90.500,-105.500,-118.500,-66.500
0.435,-93.000,-106.500,-119.000,-67.500
0.436,-94.500,-108.000,-120.500,-68.000
0.437,-95.500,-110.000,-121.500,-69.500
0.438,-96.000,-112.000,-123.500,-71.000
0.439,-96.000,-114.000,-126.000,-72.500
0.440,-96.000,-116.000,-128.000,-74.000
0.441,-95.500,-117.500,-130.000,-75.500
0.442,-95.000,-118.500,-131.500,-77.000
0.443,-94.500,-119.500,-132.500,-78.000
0.444,-94.500,-120.000,-133.000,-79.000
0.445,-94.000,-120.500,-133.500,-79.500
0.446,-94.000,-120.500,-133.500,-80.000
0.447,-93.500,-120.000,-132.500,-80.000
0.448,-93.500,-119.500,-131.500,-79.000
0.449,-93.500,-119.000,-129.500,-78.000
0.450,-93.500,-118.000,-127.500,-76.500
0.451,-94.000,-117.000,-125.000,-74.500
0.452,-95.000,-116.000,-123.000,-73.000
0.453,-96.000,-115.500,-121.500,-72.000
0.454,-97.500,-115.000,-121.000,-71.500
0.455,-98.500,-115.500,-121.500,-71.500
0.456,-99.500,-116.500,-122.500,-73.000
0.457,-100.000,-118.000,-124.000,-74.500
0.458,-100.000,-119.500,-126.500,-76.000
0.459,-100.000,-121.500,-128.500,-77.500
0.460,-99.000,-123.000,-130.000,-79.000
0.461,-98.500,-124.000,-131.500,-80.000
0.462,-97.000,-124.500,-132.000,-80.500
0.463,-96.000,-124.500,-132.000,-81.000
0.464,-95.000,-124.000,-132.000,-80.500
0.465,-94.500,-124.000,-131.500,-80.500
0.466,-94.000,-123.500,-131.500,-80.000
0.467,-94.500,-123.500,-131.000,-79.500
0.468,-95.000,-123.500,-130.500,-79.000
0.469,-96.000,-123.500,-130.500,-78.500
0.470,-97.000,-123.500,-129.500,-77.500
0.471,-98.500,-123.500,-128.500,-76.500
0.472,-100.000,-123.500,-127.500,-75.500
0.473,-101.500,-123.500,-126.500,-74.500
0.474,-103.000,-123.500,-126.000,-74.500
0.475,-104.500,-124.000,-126.500,-75.000
0.476,-105.000,-124.500,-127.000,-76.000
0.477,-105.000,-125.500,-128.500,-77.500
0.478,-104.000,-126.500,-130.000,-79.000
0.479,-102.500,-127.500,-131.500,-80.500
0.480,-101.000,-128.000,-132.000,-81.500
0.481,-99.000,-128.000,-132.500,-82.000
0.482,-97.500,-127.500,-132.500,-82.500
0.483,-96.500,-127.000,-132.000,-82.000
0.484,-95.500,-126.500,-131.500,-81.500
0.485,-95.500,-126.500,-131.000,-81.500
0.486,-96.000,-126.500,-131.000,-81.500
0.487,-97.000,-127.500,-131.500,-82.000
0.488,-99.000,-128.500,-132.500,-82.500
0.489,-101.000,-129.500,-133.000,-83.000
0.490,-103.500,-130.500,-133.500,-83.000
0.491,-105.500,-131.000,-133.000,-82.500
0.492,-107.500,-131.500,-132.500,-82.000
0.493,-109.500,-131.000,-131.500,-81.000
0.494,-110.500,-131.000,-130.500,-80.000
0.495,-111.500,-131.000,-130.000,-80.500
0.496,-111.500,-131.500,-131.000,-81.500
0.497,-111.500,-132.500,-132.000,-83.500
0.498,-111.000,-134.000,-134.000,-85.500
0.499,-110.000,-135.000,-136.000,-88.000
0.500,-108.500,-135.500,-137.500,-89.500
0.501,-107.500,-136.000,-138.500,-90.500
0.502,-106.000,-136.000,-138.500,-90.500
0.503,-105.000,-135.500,-138.500,-90.500
0.504,-104.000,-135.500,-138.000,-90.500
0.505,-103.500,-135.000,-137.000,-90.000
0.506,-103.000,-134.500,-136.500,-89.000
0.507,-103.000,-134.000,-135.500,-88.500
0.508,-103.500,-133.500,-134.500,-87.500
0.509,-103.500,-132.500,-133.000,-86.000
0.510,-104.500,-132.000,-131.500,-84.500
0.511,-105.000,-131.000,-130.000,-83.000
0.512,-106.000,-130.500,-128.500,-81.500
0.513,-107.500,-130.000,-127.500,-80.500
0.514,-108.500,-130.000,-127.000,-80.500
0.515,-109.500,-130.500,-128.000,-81.500
0.516,-110.500,-131.500,-129.000,-83.000
0.517,-111.000,-133.000,-131.500,-85.000
0.518,-111.000,-135.000,-133.500,-87.000
0.519,-110.500,-137.000,-136.000,-88.500
0.520,-110.000,-138.500,-138.000,-90.000
0.521,-109.000,-139.000,-139.000,-91.000
0.522,-108.500,-139.000,-139.500,-91.000
0.523,-107.500,-138.500,-139.000,-91.000
0.524,-107.000,-138.000,-138.500,-90.500
0.525,-106.000,-137.500,-137.500,-90.000
0.526,-106.000,-137.000,-136.500,-89.000
0.527,-106.000,-137.500,-136.000,-88.500
0.528,-106.500,-138.000,-135.500,-87.000
0.529,-107.500,-138.000,-135.000,-85.500
0.530,-108.000,-138.000,-134.000,-83.500
0.531,-109.000,-137.000,-132.500,-81.000
0.532,-110.000,-135.500,-131.000,-79.000
0.533,-110.500,-134.000,-129.000,-77.500
0.534,-111.500,-133.000,-128.000,-76.500
0.535,-112.000,-132.500,-128.000,-77.000
0.536,-112.500,-132.500,-129.000,-79.000
0.537,-113.000,-134.000,-131.000,-82.500
0.538,-113.500,-135.500,-134.000,-87.000
0.539,-114.000,-138.000,-136.500,-91.000
0.540,-114.500,-140.000,-138.500,-94.000
0.541,-114.500,-142.000,-140.000,-96.000
0.542,-115.000,-143.500,-141.000,-96.500
0.543,-115.000,-144.500,-140.500,-96.000
0.544,-115.000,-145.000,-140.000,-95.000
0.545,-115.000,-145.500,-138.500,-93.500
0.546,-115.000,-145.500,-137.000,-91.000
0.547,-114.500,-145.000,-135.000,-89.000
0.548,-114.000,-143.500,-132.500,-86.500
0.549,-113.000,-140.500,-130.000,-84.000
0.550,-112.000,-137.000,-126.500,-81.500
0.551,-111.000,-133.500,-123.500,-78.500
0.552,-110.000,-130.000,-120.000,-76.000
0.553,-109.000,-127.000,-117.000,-74.000
0.554,-108.000,-125.000,-115.500,-73.000
0.555,-107.500,-124.000,-115.500,-73.000
0.556,-107.000,-124.000,-116.500,-74.000
0.557,-106.500,-124.500,-118.500,-76.000
0.558,-106.500,-126.000,-121.500,-79.000
0.559,-106.500,-128.000,-124.500,-82.000
0.560,-107.000,-130.000,-128.000,-85.500
0.561,-107.500,-132.500,-131.000,-89.000
0.562,-108.500,-134.000,-133.000,-92.000
0.563,-109.000,-135.500,-134.500,-94.000
0.564,-109.000,-136.000,-135.500,-95.000
0.565,-109.000,-136.500,-135.000,-95.000
0.566,-108.500,-136.000,-134.000,-94.000
0.567,-108.000,-135.500,-132.000,-92.500
0.568,-107.500,-134.500,-130.000,-90.500
0.569,-107.500,-134.000,-127.500,-88.500
0.570,-108.000,-133.000,-125.500,-86.000
0.571,-108.500,-133.000,-124.000,-84.000
0.572,-110.000,-133.500,-123.000,-82.500
0.573,-112.000,-135.000,-122.500,-81.000
0.574,-114.500,-137.000,-123.000,-81.000
0.575,-116.500,-140.000,-124.500,-81.500
0.576,-118.500,-143.000,-126.500,-83.000
0.577,-119.000,-145.500,-129.000,-84.500
0.578,-119.000,-147.000,-131.000,-86.500
0.579,-118.500,-147.500,-132.500,-88.000
0.580,-117.500,-147.000,-134.000,-89.000
0.581,-116.500,-146.000,-134.500,-90.000
0.582,-115.000,-145.000,-134.000,-90.000
0.583,-114.000,-143.000,-133.500,-90.000
0.584,-112.500,-141.500,-132.500,-89.500
0.585,-111.500,-139.500,-131.000,-89.000
0.586,-110.500,-138.000,-129.500,-88.500
0.587,-109.500,-136.500,-128.000,-88.000
0.588,-108.500,-135.500,-126.500,-87.000
0.589,-108.500,-134.500,-125.500,-86.000
0.590,-109.000,-134.500,-124.000,-84.500
0.591,-110.500,-135.000,-123.500,-83.000
0.592,-112.500,-135.500,-122.500,-82.000
0.593,-114.000,-136.500,-122.500,-81.000
0.594,-115.500,-137.000,-122.500,-81.000
0.595,-116.500,-137.500,-122.500,-81.000
0.596,-116.500,-138.000,-123.000,-82.000
0.597,-116.500,-138.500,-124.500,-83.500
0.598,-116.000,-139.500,-126.500,-85.500
0.599,-115.000,-140.500,-128.500,-87.500
0.600,-114.000,-141.500,-130.000,-89.000
0.601,-112.500,-141.500,-131.500,-90.000
0.602,-111.500,-141.500,-131.500,-90.500
0.603,-110.000,-141.500,-131.500,-90.000
0.604,-109.500,-141.000,-131.000,-89.500
0.605,-109.500,-141.000,-130.500,-89.500
0.606,-110.500,-141.000,-130.000,-89.500
0.607,-111.000,-141.500,-130.000,-89.500
0.608,-111.500,-141.000,-129.500,-89.000
0.609,-112.000,-140.500,-128.500,-88.000
0.610,-112.000,-139.500,-127.000,-87.000
0.611,-113.000,-139.000,-125.500,-85.500
0.612,-114.500,-138.500,-124.000,-84.500
0.613,-116.500,-138.500,-123.500,-83.500
0.614,-118.500,-139.000,-124.000,-84.000
0.615,-120.500,-140.000,-125.000,-85.000
0.616,-121.500,-141.500,-126.500,-87.000
0.617,-121.500,-143.000,-128.500,-89.000
0.618,-121.000,-144.000,-130.500,-91.500
0.619,-120.000,-145.500,-132.500,-93.000
0.620,-118.500,-146.000,-134.000,-94.500
0.621,-117.000,-146.000,-134.500,-95.500
0.622,-115.500,-146.000,-134.500,-95.500
0.623,-114.000,-145.000,-133.500,-95.000
0.624,-112.500,-143.500,-132.500,-94.500
0.625,-111.500,-143.000,-131.500,-94.000
0.626,-111.000,-142.000,-131.000,-94.000
0.627,-110.500,-141.500,-130.000,-93.500
0.628,-110.000,-141.000,-129.000,-92.500
0.629,-110.000,-140.500,-128.000,-91.500
0.630,-110.500,-140.000,-126.500,-90.000
0.631,-111.500,-139.000,-125.000,-89.000
0.632,-113.000,-139.000,-124.000,-88.000
0.633,-115.500,-139.500,-123.500,-88.000
0.634,-118.500,-140.500,-124.500,-89.000
0.635,-121.000,-142.500,-126.500,-91.000
0.636,-123.000,-144.500,-129.000,-93.500
0.637,-124.000,-146.500,-131.000,-96.000
0.638,-124.000,-148.000,-133.500,-98.000
0.639,-123.500,-149.500,-135.000,-100.000
0.640,-122.000,-150.000,-136.500,-101.000
0.641,-121.000,-150.500,-137.500,-102.000
0.642,-119.500,-150.500,-137.500,-102.000
0.643,-118.000,-150.000,-137.500,-102.000
0.644,-117.000,-149.500,-136.500,-101.500
0.645,-116.500,-148.500,-136.000,-101.000
0.646,-116.500,-148.000,-135.000,-100.000
0.647,-117.000,-147.000,-134.000,-99.500
0.648,-117.500,-146.500,-132.500,-98.500
0.649,-118.000,-146.500,-131.500,-97.500
0.650,-119.000,-146.500,-130.500,-96.500
0.651,-120.500,-146.500,-130.000,-95.500
0.652,-122.000,-147.500,-129.000,-94.500
0.653,-123.500,-149.000,-129.000,-94.000
0.654,-125.000,-150.500,-129.000,-94.000
0.655,-126.000,-151.500,-129.000,-94.000
0.656,-126.000,-152.500,-130.000,-95.000
0.657,-126.000,-153.000,-131.000,-96.500
0.658,-125.000,-153.000,-132.500,-98.500
0.659,-123.500,-152.500,-134.000,-100.500
0.660,-122.000,-152.000,-135.500,-102.000
0.661,-120.500,-151.500,-136.000,-103.000
0.662,-119.000,-150.500,-136.000,-103.500
0.663,-117.500,-149.500,-135.500,-103.000
0.664,-116.000,-148.500,-134.500,-102.000
0.665,-115.000,-147.500,-133.500,-101.500
0.666,-114.000,-146.500,-132.000,-100.500
0.667,-113.500,-145.500,-131.000,-100.000
0.668,-113.000,-145.000,-130.000,-99.500
0.669,-113.500,-144.000,-128.500,-98.500
0.670,-114.000,-143.500,-127.000,-97.000
0.671,-115.000,-143.000,-126.000,-95.500
0.672,-116.500,-143.000,-124.500,-94.000
0.673,-118.500,-143.000,-123.500,-93.000
0.674,-120.500,-143.500,-123.000,-92.000
0.675,-122.000,-145.000,-123.500,-92.000
0.676,-123.000,-147.500,-125.000,-93.000
0.677,-124.000,-150.000,-127.000,-94.500
0.678,-124.500,-152.500,-130.500,-97.000
0.679,-125.000,-154.500,-133.500,-99.500
0.680,-124.500,-155.500,-136.500,-102.000
0.681,-124.000,-156.500,-138.500,-104.000
0.682,-123.000,-156.000,-139.500,-105.500
0.683,-122.000,-155.000,-139.500,-106.500
0.684,-120.500,-154.000,-138.500,-106.500
0.685,-120.000,-153.000,-138.000,-106.500
0.686,-120.000,-152.500,-136.500,-105.500
0.687,-120.000,-151.500,-135.000,-104.500
0.688,-120.000,-151.000,-133.500,-103.000
0.689,-120.500,-150.500,-132.000,-101.500
0.690,-120.500,-149.500,-130.000,-99.500
0.691,-121.000,-148.000,-127.500,-97.500
0.692,-121.500,-147.000,-125.000,-95.500
0.693,-122.500,-146.000,-123.500,-94.500
0.694,-124.000,-145.500,-123.000,-95.500
0.695,-126.000,-146.500,-124.500,-98.000
0.696,-127.500,-148.500,-126.500,-101.500
0.697,-129.000,-151.000,-129.500,-105.000
0.698,-129.500,-154.000,-132.500,-108.000
0.699,-128.500,-156.500,-135.000,-109.500
0.700,-127.000,-158.000,-136.000,-109.500
0.701,-124.500,-158.500,-136.000,-108.500
0.702,-121.500,-158.000,-135.000,-106.500
0.703,-119.000,-157.500,-133.500,-104.000
0.704,-117.000,-156.000,-132.000,-101.500
0.705,-115.000,-154.000,-130.000,-99.500
0.706,-115.000,-152.500,-129.000,-98.000
0.707,-116.500,-152.500,-128.500,-97.000
0.708,-119.500,-152.500,-128.500,-97.500
0.709,-124.000,-153.500,-128.500,-98.500
0.710,-128.000,-154.000,-128.500,-99.500
0.711,-132.500,-154.000,-128.500,-100.500
0.712,-136.000,-154.000,-128.000,-101.000
0.713,-139.000,-153.500,-128.000,-102.000
0.714,-141.500,-154.000,-128.500,-103.500
0.715,-143.000,-155.500,-130.500,-106.000
0.716,-144.000,-157.500,-133.500,-109.500
0.717,-143.500,-160.500,-137.500,-113.000
0.718,-142.000,-163.000,-142.000,-116.500
0.719,-139.500,-165.500,-145.500,-119.500
0.720,-136.500,-167.000,-148.500,-122.000
0.721,-134.000,-168.000,-150.500,-123.000
0.722,-132.000,-168.500,-151.500,-123.500
0.723,-130.500,-169.000,-152.000,-123.500
0.724,-129.000,-168.500,-151.500,-123.000
0.725,-128.500,-168.000,-150.500,-122.500
0.726,-127.500,-167.000,-149.000,-121.500
0.727,-126.500,-165.000,-147.000,-120.000
0.728,-125.500,-163.000,-145.000,-118.000
0.729,-124.000,-160.000,-141.500,-115.000
0.730,-122.500,-156.500,-137.500,-111.000
0.731,-121.000,-152.500,-132.500,-107.000
0.732,-120.000,-149.500,-128.000,-103.500
0.733,-120.500,-147.500,-124.500,-100.500
0.734,-121.500,-146.500,-122.500,-99.500
0.735,-122.500,-146.500,-122.000,-99.000
0.736,-123.500,-147.000,-122.500,-100.000
0.737,-123.500,-148.000,-124.000,-101.500
0.738,-123.000,-149.500,-125.500,-103.000
0.739,-122.500,-150.500,-127.500,-104.500
0.740,-121.500,-151.500,-129.000,-105.500
0.741,-120.500,-152.500,-130.000,-106.000
0.742,-120.500,-153.500,-130.500,-106.500
0.743,-120.000,-153.500,-131.000,-106.000
0.744,-119.500,-153.500,-130.500,-106.000
0.745,-119.000,-152.500,-130.000,-105.000
0.746,-118.500,-152.000,-129.000,-104.500
0.747,-118.000,-151.000,-128.000,-104.000
0.748,-118.000,-150.500,-127.000,-103.500
0.749,-118.500,-150.000,-126.000,-103.000
0.750,-119.000,-149.500,-125.000,-102.500
0.751,-120.000,-149.000,-123.500,-101.500
0.752,-121.000,-148.500,-122.500,-100.500
0.753,-123.000,-148.500,-121.500,-100.000
0.754,-124.500,-148.500,-121.500,-99.500
0.755,-126.000,-149.500,-122.000,-100.000
0.756,-126.500,-150.500,-123.500,-101.000
0.757,-127.000,-152.000,-125.500,-102.000
0.758,-127.000,-153.500,-127.500,-104.000
0.759,-127.000,-155.000,-129.500,-106.000
0.760,-126.500,-156.000,-131.500,-108.000
0.761,-125.500,-157.000,-132.500,-109.500
0.762,-125.000,-157.500,-133.000,-110.000
0.763,-124.000,-157.500,-133.000,-110.500
0.764,-123.500,-157.000,-132.500,-110.500
0.765,-123.000,-156.500,-132.000,-110.000
0.766,-122.500,-156.500,-131.000,-109.500
0.767,-122.500,-156.000,-130.000,-108.500
0.768,-123.000,-155.500,-129.000,-107.500
0.769,-123.500,-155.000,-128.000,-106.000
0.770,-125.000,-154.500,-126.500,-104.500
0.771,-126.000,-153.500,-125.000,-103.000
0.772,-127.000,-152.500,-123.500,-101.000
0.773,-128.000,-152.000,-122.000,-99.500
0.774,-129.000,-151.500,-121.000,-99.000
0.775,-129.500,-152.000,-121.500,-99.000
0.776,-130.000,-153.500,-122.500,-100.000
0.777,-130.000,-155.500,-124.000,-101.500
0.778,-130.500,-158.500,-126.000,-103.000
0.779,-130.500,-161.000,-128.500,-105.000
0.780,-130.500,-163.500,-131.000,-107.000
0.781,-131.000,-165.000,-133.000,-109.000
0.782,-130.500,-165.000,-134.500,-110.500
0.783,-130.000,-164.500,-135.000,-111.500
0.784,-129.000,-162.500,-134.500,-111.500
0.785,-127.500,-160.500,-133.500,-111.500
0.786,-126.500,-159.000,-132.000,-111.000
0.787,-125.500,-157.000,-131.000,-110.500
0.788,-124.500,-156.000,-129.000,-109.000
0.789,-124.500,-155.000,-127.500,-107.500
0.790,-124.500,-153.500,-125.500,-105.500
0.791,-124.500,-152.500,-123.000,-102.500
0.792,-124.500,-151.000,-120.500,-99.500
0.793,-125.000,-149.500,-118.000,-97.000
0.794,-125.000,-148.500,-116.000,-95.500
0.795,-125.000,-147.500,-115.000,-94.500
0.796,-124.500,-147.500,-115.000,-94.500
0.797,-124.000,-148.000,-116.000,-96.000
0.798,-123.500,-149.500,-118.000,-98.000
0.799,-123.500,-152.000,-121.000,-100.500
0.800,-123.500,-154.500,-123.500,-103.000
0.801,-124.000,-157.500,-126.000,-105.000
0.802,-125.000,-160.000,-128.000,-106.500
0.803,-125.500,-162.000,-129.000,-107.000
0.804,-126.000,-162.500,-129.000,-107.500
0.805,-126.000,-162.500,-128.500,-107.000
0.806,-125.000,-161.000,-127.000,-106.000
0.807,-124.000,-158.500,-125.000,-104.500
0.808,-122.500,-156.000,-123.000,-102.500
0.809,-121.000,-153.500,-120.500,-100.000
0.810,-120.500,-151.000,-118.500,-97.500
0.811,-120.000,-149.500,-116.500,-95.500
0.812,-120.500,-148.000,-115.000,-94.000
0.813,-121.500,-147.500,-114.500,-94.000
0.814,-122.500,-148.000,-115.000,-95.500
0.815,-123.500,-149.000,-116.500,-98.000
0.816,-125.000,-151.000,-118.500,-101.500
0.817,-125.500,-153.000,-120.500,-104.500
0.818,-125.500,-155.000,-122.500,-107.500
0.819,-125.000,-156.500,-124.500,-109.500
0.820,-124.000,-157.500,-125.500,-110.500
0.821,-123.000,-158.500,-126.000,-111.000
0.822,-122.500,-159.000,-126.000,-110.500
0.823,-122.500,-160.000,-126.000,-110.000
0.824,-123.000,-160.500,-125.500,-109.000
0.825,-123.000,-161.000,-125.000,-108.000
0.826,-123.500,-160.500,-124.500,-107.000
0.827,-124.500,-160.000,-124.000,-106.500
0.828,-125.000,-159.500,-123.500,-106.000
0.829,-125.500,-159.000,-123.500,-106.000
0.830,-125.500,-157.500,-122.500,-105.000
0.831,-125.500,-156.000,-121.000,-104.000
0.832,-125.500,-154.000,-119.500,-102.500
0.833,-125.000,-151.500,-118.000,-101.000
0.834,-124.500,-150.000,-116.500,-100.000
0.835,-124.000,-149.000,-116.000,-99.500
0.836,-123.500,-148.500,-116.000,-100.000
0.837,-122.500,-149.000,-117.000,-101.000
0.838,-122.000,-149.500,-118.500,-103.000
0.839,-121.500,-151.000,-120.000,-105.500
0.840,-121.500,-152.500,-122.000,-108.500
0.841,-121.500,-154.500,-124.000,-110.500
0.842,-122.000,-156.000,-125.500,-112.000
0.843,-122.000,-156.500,-126.000,-112.500
0.844,-122.000,-157.000,-125.500,-112.500
0.845,-121.000,-156.500,-125.000,-111.000
0.846,-120.500,-155.500,-124.000,-109.500
0.847,-119.500,-155.000,-122.500,-108.000
0.848,-119.000,-154.000,-121.000,-106.000
0.849,-119.000,-152.500,-119.500,-104.000
0.850,-119.000,-151.500,-117.000,-101.500
0.851,-119.000,-149.500,-114.500,-99.000
0.852,-119.500,-148.000,-112.000,-97.000
0.853,-121.000,-147.000,-110.000,-95.000
0.854,-123.000,-147.000,-109.500,-94.500
0.855,-126.000,-149.000,-110.000,-95.500
0.856,-129.500,-151.500,-112.000,-98.000
0.857,-132.500,-155.500,-115.500,-101.000
0.858,-134.500,-159.000,-119.500,-105.000
0.859,-135.500,-162.000,-123.500,-108.000
0.860,-135.500,-164.000,-127.000,-110.500
0.861,-134.500,-165.500,-129.500,-112.500
0.862,-133.000,-166.500,-131.000,-113.500
0.863,-131.500,-167.000,-132.000,-114.000
0.864,-129.500,-168.000,-133.000,-115.000
0.865,-128.500,-169.500,-134.000,-115.500
0.866,-127.500,-171.000,-135.000,-116.500
0.867,-127.500,-172.000,-136.000,-117.000
0.868,-128.000,-172.000,-136.500,-117.500
0.869,-128.500,-171.000,-136.000,-117.000
0.870,-129.000,-169.000,-134.500,-116.500
0.871,-129.500,-166.500,-132.000,-115.500
0.872,-130.500,-164.000,-129.500,-114.500
0.873,-131.000,-161.500,-127.000,-113.500
0.874,-131.500,-159.000,-125.000,-112.500
0.875,-131.000,-157.500,-123.500,-112.000
0.876,-130.500,-156.000,-122.500,-112.000
0.877,-129.500,-155.000,-122.000,-111.500
0.878,-128.000,-155.000,-121.500,-111.500
0.879,-126.000,-154.500,-121.500,-110.500
0.880,-123.500,-153.500,-120.500,-108.500
0.881,-121.500,-152.000,-118.500,-105.500
0.882,-119.000,-150.500,-115.500,-101.500
0.883,-117.000,-148.000,-112.000,-97.000
0.884,-115.000,-145.000,-108.000,-91.500
0.885,-113.000,-142.500,-103.500,-86.500
0.886,-111.500,-139.500,-99.500,-81.500
0.887,-110.000,-137.000,-96.000,-77.000
0.888,-109.000,-135.000,-92.500,-72.500
0.889,-109.000,-133.000,-89.000,-67.500
0.890,-109.000,-130.500,-85.000,-63.000
0.891,-109.500,-128.500,-81.000,-58.000
0.892,-110.000,-126.000,-77.000,-53.000
0.893,-111.500,-124.500,-74.000,-49.000
0.894,-113.000,-123.500,-72.000,-46.500
0.895,-114.500,-124.000,-71.500,-45.500
0.896,-116.000,-125.000,-72.500,-46.000
0.897,-117.000,-127.000,-75.000,-48.000
0.898,-118.000,-130.000,-78.000,-51.000
0.899,-118.500,-133.500,-82.000,-55.000
0.900,-118.000,-136.500,-86.000,-59.500
0.901,-117.500,-139.000,-89.500,-63.500
0.902,-116.500,-141.500,-92.500,-67.000
0.903,-115.000,-143.500,-94.500,-70.000
0.904,-114.000,-145.000,-96.500,-73.000
0.905,-112.500,-145.000,-98.000,-76.000
0.906,-111.000,-144.000,-98.500,-78.000
0.907,-109.000,-142.000,-98.500,-80.000
0.908,-107.000,-139.500,-97.500,-81.500
0.909,-106.000,-137.000,-96.500,-82.000
0.910,-105.500,-135.000,-95.000,-82.500
0.911,-106.500,-134.000,-94.000,-82.500
0.912,-108.500,-133.000,-93.000,-83.000
0.913,-111.000,-133.500,-93.000,-84.000
0.914,-114.000,-134.500,-94.500,-86.000
0.915,-116.500,-136.500,-96.500,-88.500
0.916,-118.000,-139.000,-99.000,-91.000
0.917,-119.000,-142.000,-102.000,-94.000
0.918,-119.000,-144.000,-105.000,-96.500
0.919,-118.500,-146.000,-107.500,-99.000
0.920,-117.000,-147.000,-109.500,-100.500
0.921,-115.500,-148.000,-111.000,-101.000
0.922,-114.500,-148.500,-111.500,-101.500
0.923,-114.000,-149.000,-112.000,-101.500
0.924,-113.500,-149.000,-112.000,-101.500
0.925,-113.500,-149.500,-112.000,-101.000
0.926,-113.000,-149.000,-111.500,-100.500
0.927,-112.500,-148.500,-110.500,-99.500
0.928,-112.500,-147.500,-109.000,-98.500
0.929,-112.000,-146.500,-107.500,-97.500
0.930,-112.500,-146.000,-106.000,-96.500
0.931,-114.000,-145.500,-105.500,-96.000
0.932,-116.000,-146.000,-105.000,-96.000
0.933,-119.000,-147.000,-105.000,-96.000
0.934,-121.500,-149.000,-106.000,-97.000
0.935,-124.000,-151.000,-107.000,-98.000
0.936,-125.500,-153.000,-108.500,-99.000
0.937,-126.500,-155.000,-110.000,-100.500
0.938,-126.000,-156.000,-111.500,-102.000
0.939,-124.500,-156.500,-112.500,-103.500
0.940,-122.500,-156.000,-114.000,-104.000
0.941,-120.500,-155.500,-114.500,-104.000
0.942,-119.000,-155.000,-115.000,-103.500
0.943,-117.500,-154.000,-115.000,-102.000
0.944,-116.000,-152.500,-114.500,-101.000
0.945,-114.500,-151.500,-114.000,-100.000
0.946,-113.000,-150.500,-113.000,-100.000
0.947,-112.000,-149.500,-112.000,-100.500
0.948,-111.500,-149.000,-111.000,-101.500
0.949,-112.000,-148.500,-110.000,-102.500
0.950,-113.000,-148.500,-109.000,-102.500
0.951,-114.000,-148.000,-107.500,-101.000
0.952,-115.000,-147.000,-105.500,-99.500
0.953,-116.000,-146.000,-103.000,-97.000
0.954,-116.500,-144.500,-101.000,-95.000
0.955,-117.500,-144.000,-100.000,-93.500
0.956,-118.000,-143.500,-99.500,-93.000
0.957,-119.000,-144.500,-101.000,-94.000
0.958,-119.000,-145.500,-103.000,-95.500
0.959,-119.000,-147.500,-105.500,-98.000
0.960,-119.500,-149.500,-108.500,-100.500
0.961,-119.500,-152.000,-111.500,-103.000
0.962,-120.000,-154.000,-113.500,-105.500
0.963,-121.000,-155.500,-115.500,-107.500
0.964,-121.500,-156.500,-116.500,-108.500
0.965,-121.500,-157.000,-116.500,-109.000
0.966,-121.000,-156.500,-115.500,-108.500
0.967,-120.000,-155.500,-114.500,-107.500
0.968,-119.500,-154.000,-112.500,-106.000
0.969,-119.000,-152.500,-111.000,-104.500
0.970,-118.500,-151.500,-109.000,-102.500
0.971,-119.000,-150.000,-107.500,-100.000
0.972,-119.500,-149.000,-105.500,-98.000
0.973,-120.000,-148.000,-104.000,-96.000
0.974,-120.500,-147.500,-103.000,-95.000
0.975,-120.500,-147.000,-102.500,-94.500
0.976,-120.000,-147.000,-102.500,-95.000
0.977,-118.500,-146.500,-102.500,-96.000
0.978,-116.000,-146.000,-102.500,-96.000
0.979,-113.000,-145.000,-102.000,-96.000
0.980,-111.000,-144.500,-102.000,-96.000
0.981,-109.500,-144.500,-102.000,-96.000
0.982,-109.500,-145.500,-103.000,-96.500
0.983,-111.000,-147.000,-104.000,-97.500
0.984,-113.500,-148.000,-105.000,-98.000
0.985,-116.000,-149.000,-105.500,-99.000
0.986,-118.500,-149.500,-106.000,-99.000
0.987,-120.000,-149.000,-105.500,-99.500
0.988,-121.000,-148.000,-104.000,-99.000
0.989,-121.000,-146.500,-103.000,-98.500
0.990,-121.000,-145.500,-101.500,-97.500
0.991,-121.000,-145.000,-100.000,-96.500
0.992,-121.500,-145.500,-99.500,-96.500
0.993,-122.500,-147.000,-100.000,-96.500
0.994,-123.500,-149.000,-101.500,-97.500
0.995,-124.500,-152.000,-103.500,-98.500
0.996,-125.500,-155.500,-105.500,-100.000
0.997,-126.000,-159.500,-108.500,-101.500
0.998,-126.000,-163.500,-111.500,-103.000
0.999,-125.500,-167.000,-114.000,-105.000
1.000,-124.500,-169.000,-116.000,-106.000
1.001,-123.500,-169.000,-117.000,-106.500
1.002,-122.000,-168.000,-117.500,-106.500
1.003,-121.000,-165.500,-116.500,-106.000
1.004,-120.000,-162.500,-115.500,-105.500
1.005,-118.500,-159.000,-113.500,-105.000
1.006,-117.500,-156.000,-112.000,-104.500
1.007,-116.000,-153.000,-110.000,-103.500
1.008,-114.500,-150.500,-108.000,-103.000
1.009,-113.500,-148.000,-105.500,-101.500
1.010,-113.500,-146.000,-103.500,-100.000
1.011,-113.500,-144.500,-101.000,-98.000
1.012,-114.500,-143.000,-99.000,-96.500
1.013,-115.500,-142.500,-98.000,-95.000
1.014,-116.500,-143.000,-97.500,-94.500
1.015,-117.000,-143.500,-97.500,-94.000
1.016,-117.500,-145.000,-99.000,-94.500
1.017,-117.500,-146.500,-100.500,-95.500
1.018,-117.000,-148.000,-102.500,-96.500
1.019,-116.000,-149.500,-104.000,-98.000
1.020,-115.000,-150.500,-105.500,-99.500
1.021,-114.000,-151.000,-106.500,-100.500
1.022,-113.500,-151.500,-107.000,-101.000
1.023,-113.000,-152.000,-107.000,-101.500
1.024,-113.000,-152.000,-107.000,-101.500
1.025,-112.500,-152.500,-106.500,-102.000
1.026,-113.000,-153.000,-106.500,-102.000
1.027,-113.500,-154.000,-106.500,-102.000
1.028,-114.500,-155.500,-106.500,-101.500
1.029,-115.500,-156.000,-106.000,-101.000
1.030,-117.000,-156.000,-105.500,-99.500
1.031,-118.000,-155.000,-104.000,-98.000
1.032,-119.500,-154.000,-103.000,-96.500
1.033,-121.500,-153.000,-101.500,-95.500
1.034,-123.500,-152.500,-100.500,-94.500
1.035,-125.000,-152.000,-100.500,-94.500
1.036,-126.000,-152.500,-101.500,-95.000
1.037,-126.000,-153.500,-102.500,-96.000
1.038,-125.500,-155.000,-104.500,-97.500
1.039,-124.500,-156.000,-106.000,-99.000
1.040,-123.000,-156.500,-108.000,-100.000
1.041,-121.500,-156.500,-109.000,-101.000
1.042,-119.500,-156.000,-109.000,-101.000
1.043,-117.500,-154.500,-108.500,-100.000
1.044,-115.500,-152.500,-107.500,-99.000
1.045,-113.000,-150.500,-105.500,-98.000
1.046,-111.000,-148.000,-104.000,-96.500
1.047,-109.000,-146.000,-102.000,-95.000
1.048,-108.000,-144.000,-100.500,-93.500
1.049,-107.500,-142.500,-98.500,-91.500
1.050,-107.500,-141.500,-97.000,-89.500
1.051,-108.000,-140.500,-95.000,-87.500
1.052,-109.000,-139.500,-93.500,-86.000
1.053,-110.000,-139.500,-92.500,-84.500
1.054,-111.000,-139.500,-92.000,-84.000
1.055,-112.000,-140.000,-92.500,-84.000
1.056,-113.000,-141.500,-94.000,-85.000
1.057,-114.000,-143.500,-95.500,-87.000
1.058,-114.500,-145.500,-97.500,-89.000
1.059,-114.500,-147.000,-99.500,-91.500
1.060,-114.000,-148.500,-101.000,-94.000
1.061,-112.500,-148.500,-101.500,-96.000
1.062,-111.000,-148.000,-101.000,-97.000
1.063,-109.000,-146.500,-100.000,-97.000
1.064,-107.000,-145.000,-97.500,-96.000
1.065,-105.500,-143.000,-95.500,-94.000
1.066,-104.000,-141.500,-93.500,-92.000
1.067,-103.500,-140.500,-92.000,-90.000
1.068,-103.000,-139.500,-90.500,-88.000
1.069,-103.000,-139.000,-89.500,-86.500
1.070,-104.000,-138.500,-88.500,-85.000
1.071,-106.000,-138.500,-88.000,-84.500
1.072,-109.000,-139.500,-88.000,-84.000
1.073,-111.500,-140.500,-88.500,-84.000
1.074,-114.000,-141.500,-89.000,-84.500
1.075,-115.000,-142.500,-89.500,-85.000
1.076,-115.500,-143.000,-90.500,-85.500
1.077,-114.500,-143.500,-91.500,-86.500
1.078,-113.000,-143.500,-92.500,-88.000
1.079,-111.500,-143.500,-93.500,-89.000
1.080,-109.500,-143.500,-94.000,-90.000
1.081,-108.000,-143.500,-94.500,-90.500
1.082,-106.500,-143.000,-94.500,-90.500
1.083,-105.500,-142.500,-94.000,-90.000
1.084,-105.000,-142.000,-93.500,-89.500
1.085,-104.000,-141.500,-93.000,-88.500
1.086,-104.000,-141.500,-92.500,-87.500
1.087,-104.000,-141.500,-91.500,-86.500
1.088,-103.500,-141.000,-90.500,-85.500
1.089,-103.500,-140.000,-89.000,-84.500
1.090,-103.500,-138.500,-87.000,-82.500
1.091,-103.500,-137.000,-85.000,-81.000
1.092,-104.500,-136.000,-83.000,-79.500
1.093,-106.500,-135.500,-82.000,-78.500
1.094,-108.500,-135.500,-82.000,-78.000
1.095,-110.500,-136.500,-83.000,-78.500
1.096,-113.000,-138.500,-84.500,-80.000
1.097,-115.000,-141.000,-87.500,-82.500
1.098,-116.500,-144.000,-91.000,-85.500
1.099,-117.500,-146.500,-94.000,-89.000
1.100,-117.500,-148.500,-97.000,-91.500
1.101,-116.500,-149.500,-98.500,-93.000
1.102,-115.500,-150.000,-99.000,-93.500
1.103,-114.500,-150.000,-99.000,-93.500
1.104,-113.500,-150.000,-98.500,-93.000
1.105,-113.000,-150.000,-97.500,-92.000
1.106,-112.500,-149.500,-96.000,-90.500
1.107,-112.000,-149.000,-95.000,-88.500
1.108,-112.000,-148.000,-93.500,-87.000
1.109,-112.000,-147.000,-92.500,-85.500
1.110,-112.000,-146.000,-91.500,-84.000
1.111,-112.000,-145.000,-90.000,-82.500
1.112,-112.000,-143.500,-88.500,-81.000
1.113,-112.000,-142.000,-87.000,-80.000
1.114,-111.500,-140.500,-85.500,-79.000
1.115,-111.000,-139.000,-84.500,-78.500
1.116,-109.500,-138.000,-84.000,-79.000
1.117,-108.000,-137.500,-84.500,-80.000
1.118,-106.500,-137.000,-85.000,-81.000
1.119,-104.500,-136.500,-85.500,-82.000
1.120,-102.000,-136.500,-85.500,-82.000
1.121,-100.000,-136.000,-85.500,-82.000
1.122,-98.000,-135.000,-85.000,-81.500
1.123,-97.000,-134.500,-84.000,-80.500
1.124,-96.000,-134.500,-84.000,-80.000
1.125,-96.000,-135.500,-85.000,-80.500
1.126,-97.000,-137.500,-86.500,-82.000
1.127,-98.500,-140.000,-89.500,-83.500
1.128,-100.500,-142.500,-92.000,-85.500
1.129,-103.000,-145.500,-94.500,-87.500
1.130,-106.000,-147.500,-96.500,-89.500
1.131,-109.000,-149.500,-98.000,-91.000
1.132,-112.500,-151.500,-99.000,-92.000
1.133,-115.500,-152.500,-100.000,-93.000
1.134,-117.500,-153.500,-100.500,-94.000
1.135,-119.000,-154.000,-101.500,-95.000
1.136,-119.500,-155.000,-102.500,-96.000
1.137,-119.500,-155.500,-103.500,-97.000
1.138,-119.000,-156.000,-105.000,-98.000
1.139,-117.500,-156.000,-105.500,-99.000
1.140,-115.500,-155.000,-105.000,-99.000
1.141,-112.500,-152.500,-103.500,-98.500
1.142,-109.000,-149.000,-100.500,-96.500
1.143,-105.000,-145.000,-97.000,-94.000
1.144,-101.000,-141.000,-93.500,-91.000
1.145,-98.000,-137.500,-90.000,-89.000
1.146,-96.000,-135.000,-87.500,-87.500
1.147,-95.000,-133.000,-85.500,-86.000
1.148,-94.500,-132.000,-84.000,-85.000
1.149,-94.000,-131.000,-82.500,-84.000
1.150,-94.500,-130.500,-81.500,-83.000
1.151,-96.000,-130.500,-81.000,-81.500
1.152,-98.000,-131.000,-80.500,-80.500
1.153,-99.500,-131.500,-80.000,-79.500
1.154,-101.000,-132.000,-80.000,-79.000
1.155,-102.000,-132.000,-80.000,-78.500
1.156,-102.000,-132.500,-80.500,-79.000
1.157,-102.000,-133.000,-81.500,-80.000
1.158,-101.000,-134.000,-83.000,-82.000
1.159,-100.500,-135.000,-85.000,-83.500
1.160,-99.500,-136.000,-86.500,-85.000
1.161,-98.500,-136.500,-87.500,-86.000
1.162,-97.000,-137.000,-88.000,-86.500
1.163,-96.000,-137.000,-88.000,-86.500
1.164,-95.500,-137.000,-87.500,-85.500
1.165,-95.000,-137.000,-87.000,-85.000
1.166,-94.000,-136.500,-86.500,-84.000
1.167,-93.500,-136.000,-85.500,-83.000
1.168,-93.000,-135.500,-85.000,-82.000
1.169,-93.000,-134.500,-84.000,-81.500
1.170,-93.500,-133.500,-82.500,-80.000
1.171,-94.000,-132.500,-81.000,-79.000
1.172,-95.000,-132.000,-80.000,-77.500
1.173,-96.500,-131.500,-79.000,-76.500
1.174,-98.000,-132.000,-79.000,-76.000
1.175,-99.500,-133.000,-80.000,-76.500
1.176,-101.000,-135.000,-81.500,-77.000
1.177,-101.500,-137.000,-83.500,-78.000
1.178,-101.500,-138.500,-86.000,-79.000
1.179,-101.000,-140.000,-87.500,-80.500
1.180,-100.000,-140.500,-89.000,-81.500
1.181,-99.000,-141.000,-89.500,-82.500
1.182,-98.000,-141.000,-89.500,-84.000
1.183,-98.000,-141.000,-89.500,-85.500
1.184,-98.000,-141.000,-89.500,-86.500
1.185,-98.500,-141.000,-89.000,-87.500
1.186,-99.000,-140.500,-88.000,-87.500
1.187,-99.500,-140.000,-87.000,-87.000
1.188,-100.000,-139.000,-86.000,-85.500
1.189,-99.500,-138.000,-84.000,-84.000
1.190,-99.000,-135.500,-82.000,-82.000
1.191,-98.000,-133.000,-79.500,-79.500
1.192,-97.000,-130.000,-77.000,-77.000
1.193,-96.000,-128.500,-75.000,-75.500
1.194,-96.000,-128.000,-74.500,-74.500
1.195,-96.000,-129.500,-75.500,-75.500
1.196,-96.500,-132.000,-78.000,-77.000
1.197,-97.000,-135.000,-81.000,-79.000
1.198,-96.500,-137.000,-83.500,-81.000
1.199,-95.000,-137.500,-85.000,-82.000
1.200,-92.500,-137.000,-85.500,-82.500
1.201,-90.000,-135.000,-85.000,-82.000
1.202,-87.500,-132.500,-83.500,-80.500
1.203,-85.000,-129.500,-81.500,-79.000
1.204,-82.000,-126.500,-79.500,-77.000
1.205,-79.500,-123.000,-76.500,-75.000
1.206,-77.000,-120.500,-74.000,-73.000
1.207,-75.500,-118.000,-72.000,-71.000
1.208,-75.500,-117.000,-70.000,-69.500
1.209,-76.500,-117.000,-69.500,-69.000
1.210,-79.000,-118.000,-69.000,-69.000
1.211,-81.500,-119.000,-69.000,-69.000
1.212,-84.000,-119.500,-69.000,-69.500
1.213,-86.000,-120.000,-69.500,-70.500
1.214,-87.500,-120.500,-70.000,-71.000
1.215,-88.500,-121.000,-71.000,-72.000
1.216,-89.000,-122.000,-72.500,-73.500
1.217,-88.500,-123.000,-74.000,-74.500
1.218,-87.500,-124.000,-75.500,-75.500
1.219,-85.500,-124.000,-76.500,-76.500
1.220,-83.500,-124.000,-77.500,-76.500
1.221,-81.500,-123.500,-77.500,-76.500
1.222,-80.000,-122.500,-77.000,-76.500
1.223,-78.500,-122.000,-76.500,-76.000
1.224,-78.000,-121.500,-76.000,-75.500
1.225,-77.500,-121.000,-75.500,-75.000
1.226,-77.500,-121.000,-75.000,-74.500
1.227,-77.500,-121.000,-75.000,-74.500
1.228,-78.000,-121.500,-74.500,-74.000
1.229,-79.000,-122.000,-74.000,-73.500
1.230,-80.500,-122.500,-73.500,-73.000
1.231,-83.000,-123.500,-73.500,-72.500
1.232,-85.000,-124.000,-73.000,-72.500
1.233,-87.500,-124.500,-73.000,-72.000
1.234,-89.000,-124.500,-72.500,-72.000
1.235,-89.500,-125.000,-73.000,-72.000
1.236,-89.500,-125.000,-73.500,-72.000
1.237,-88.500,-125.500,-74.500,-73.000
1.238,-87.500,-126.000,-76.000,-74.500
1.239,-86.000,-127.000,-77.500,-76.000
1.240,-85.000,-127.500,-79.000,-77.500
1.241,-84.000,-128.500,-80.000,-79.000
1.242,-84.000,-129.000,-81.000,-80.000
1.243,-83.500,-129.000,-81.500,-80.000
1.244,-82.500,-128.500,-81.000,-79.500
1.245,-81.500,-127.500,-80.000,-78.500
1.246,-80.500,-126.000,-78.500,-77.000
1.247,-80.000,-125.000,-77.000,-75.500
1.248,-79.500,-123.500,-75.500,-74.000
1.249,-79.500,-122.500,-74.000,-72.500
1.250,-79.500,-121.500,-72.500,-70.500
1.251,-80.500,-120.500,-70.500,-69.000
1.252,-81.000,-120.000,-69.000,-67.500
1.253,-82.500,-119.500,-68.000,-66.500
1.254,-83.500,-119.500,-67.500,-66.500
1.255,-84.500,-119.500,-68.000,-67.000
1.256,-85.000,-120.500,-69.500,-68.500
1.257,-85.500,-121.500,-71.500,-70.500
1.258,-85.000,-123.000,-73.500,-72.500
1.259,-84.500,-124.500,-76.000,-74.500
1.260,-83.500,-125.500,-77.500,-76.000
1.261,-82.500,-126.000,-78.500,-77.000
1.262,-81.500,-126.500,-79.500,-77.000
1.263,-80.500,-126.500,-79.500,-76.500
1.264,-79.500,-126.000,-79.500,-75.500
1.265,-79.000,-125.500,-79.000,-74.500
1.266,-78.500,-125.000,-78.500,-73.500
1.267,-78.000,-124.500,-78.000,-72.500
1.268,-78.000,-124.500,-77.000,-72.000
1.269,-78.500,-125.000,-76.500,-71.000
1.270,-79.000,-125.000,-76.000,-70.500
1.271,-80.500,-125.500,-75.000,-69.500
1.272,-82.000,-126.000,-73.500,-68.500
1.273,-83.500,-126.000,-72.500,-68.000
1.274,-85.000,-125.500,-71.000,-67.500
1.275,-85.500,-124.500,-70.500,-68.000
1.276,-86.000,-124.000,-70.500,-68.500
1.277,-86.000,-124.000,-71.500,-70.000
1.278,-86.000,-124.500,-73.500,-72.000
1.279,-86.000,-126.000,-76.000,-74.000
1.280,-86.500,-128.000,-79.000,-77.000
1.281,-87.000,-129.500,-81.000,-79.000
1.282,-86.500,-130.000,-82.500,-80.000
1.283,-85.500,-130.000,-82.500,-80.000
1.284,-84.000,-129.000,-81.000,-79.000
1.285,-82.500,-127.500,-79.500,-77.500
1.286,-81.000,-126.500,-77.500,-75.500
1.287,-80.000,-125.500,-75.500,-73.000
1.288,-79.000,-124.500,-73.000,-70.000
1.289,-79.000,-123.500,-71.000,-67.500
1.290,-79.000,-122.000,-69.000,-65.000
1.291,-80.000,-120.500,-67.500,-62.500
1.292,-80.500,-119.000,-66.000,-60.500
1.293,-81.500,-118.000,-65.000,-59.000
1.294,-82.500,-117.000,-64.500,-58.000
1.295,-82.500,-116.500,-64.500,-58.000
1.296,-82.500,-116.500,-65.000,-59.000
1.297,-81.500,-116.500,-66.000,-61.000
1.298,-80.000,-116.500,-68.000,-64.000
1.299,-78.500,-117.000,-69.500,-66.500
1.300,-77.000,-118.000,-71.000,-69.000
1.301,-75.500,-119.000,-72.000,-70.000
1.302,-74.500,-120.000,-73.000,-70.000
1.303,-74.000,-121.500,-73.500,-70.000
1.304,-73.500,-122.500,-74.000,-69.000
1.305,-73.000,-123.500,-74.500,-68.500
1.306,-73.000,-123.500,-74.500,-68.000
1.307,-73.000,-123.000,-74.000,-67.000
1.308,-73.000,-122.000,-73.500,-66.000
1.309,-73.500,-120.500,-72.000,-64.500
1.310,-74.000,-118.500,-70.500,-63.000
1.311,-74.500,-116.500,-68.000,-61.500
1.312,-75.500,-114.000,-65.500,-60.000
1.313,-76.500,-112.000,-63.000,-59.000
1.314,-77.500,-111.000,-61.500,-58.500
1.315,-77.500,-110.500,-60.500,-58.000
1.316,-77.500,-110.500,-60.000,-58.500
1.317,-76.500,-111.500,-60.500,-59.000
1.318,-75.000,-113.000,-62.000,-60.500
1.319,-74.000,-114.500,-64.000,-61.500
1.320,-72.500,-116.000,-65.500,-62.500
1.321,-71.500,-116.500,-66.000,-62.500
1.322,-70.500,-116.500,-66.500,-62.500
1.323,-69.500,-116.000,-66.000,-62.000
1.324,-69.000,-116.000,-66.000,-62.000
1.325,-68.500,-116.500,-66.500,-62.000
1.326,-69.000,-117.500,-67.500,-62.500
1.327,-69.500,-118.000,-68.500,-63.500
1.328,-70.000,-118.500,-69.500,-64.500
1.329,-70.000,-118.000,-69.500,-65.000
1.330,-69.500,-116.500,-68.500,-64.500
1.331,-69.000,-114.000,-67.000,-64.000
1.332,-68.000,-111.500,-65.500,-62.500
1.333,-67.500,-108.500,-63.500,-61.500
1.334,-67.000,-106.000,-61.500,-60.500
1.335,-66.500,-104.000,-60.500,-59.500
1.336,-66.500,-103.000,-60.000,-59.000
1.337,-66.000,-103.000,-60.000,-58.500
1.338,-64.500,-102.500,-60.000,-58.500
1.339,-62.000,-102.000,-60.000,-58.000
1.340,-59.500,-101.000,-60.000,-58.000
1.341,-57.000,-100.000,-59.500,-57.500
1.342,-55.500,-99.500,-59.000,-56.500
1.343,-54.500,-99.000,-58.500,-56.000
1.344,-54.500,-99.500,-58.500,-56.000
1.345,-55.500,-101.000,-59.000,-57.000
1.346,-57.000,-102.500,-60.500,-58.000
1.347,-59.500,-104.500,-61.500,-59.500
1.348,-61.500,-106.500,-63.000,-60.500
1.349,-64.500,-109.000,-64.000,-61.000
1.350,-67.000,-111.000,-64.000,-60.500
1.351,-70.000,-113.000,-64.000,-60.000
1.352,-73.000,-114.500,-63.500,-58.500
1.353,-75.000,-115.000,-63.500,-57.500
1.354,-76.500,-115.500,-63.000,-57.000
1.355,-77.500,-116.000,-63.500,-57.000
1.356,-78.000,-116.500,-65.000,-58.000
1.357,-77.500,-117.000,-66.500,-59.500
1.358,-76.000,-118.000,-68.500,-61.500
1.359,-74.000,-118.000,-70.500,-63.500
1.360,-71.000,-118.000,-72.000,-65.000
1.361,-68.000,-117.500,-73.000,-66.000
1.362,-65.500,-117.000,-73.000,-66.500
1.363,-64.000,-116.000,-73.000,-66.500
1.364,-62.500,-115.000,-72.500,-66.500
1.365,-61.500,-114.000,-72.000,-66.000
1.366,-61.000,-113.000,-71.000,-65.500
1.367,-60.500,-112.000,-70.000,-65.000
1.368,-60.500,-111.500,-69.000,-64.500
1.369,-60.500,-110.500,-68.000,-64.000
1.370,-61.000,-110.000,-67.000,-63.500
1.371,-62.500,-109.500,-66.500,-63.000
1.372,-64.000,-109.500,-66.000,-62.500
1.373,-65.500,-109.500,-66.500,-62.500
1.374,-67.500,-110.500,-67.000,-63.000
1.375,-68.500,-111.500,-68.500,-64.500
1.376,-69.500,-112.500,-70.000,-66.000
1.377,-69.000,-113.500,-71.500,-68.000
1.378,-68.500,-114.500,-73.500,-70.000
1.379,-67.000,-115.500,-75.000,-71.500
1.380,-66.000,-116.500,-76.500,-73.500
1.381,-65.000,-117.000,-77.500,-74.500
1.382,-64.000,-117.000,-78.000,-74.500
1.383,-63.500,-116.500,-77.500,-73.500
1.384,-63.000,-116.000,-76.500,-72.000
1.385,-62.500,-114.500,-74.500,-69.000
1.386,-61.500,-112.500,-72.000,-65.000
1.387,-60.000,-110.500,-69.000,-60.500
1.388,-59.500,-108.500,-65.500,-55.000
1.389,-58.500,-107.000,-62.000,-49.500
1.390,-58.000,-105.000,-58.500,-43.500
1.391,-58.000,-103.000,-54.500,-38.000
1.392,-58.000,-100.500,-50.500,-33.000
1.393,-58.500,-97.500,-46.500,-28.500
1.394,-58.500,-95.000,-43.500,-24.500
1.395,-58.500,-92.500,-40.500,-21.500
1.396,-58.000,-90.500,-38.500,-19.500
1.397,-57.500,-89.500,-37.500,-18.500
1.398,-56.500,-88.500,-37.000,-18.000
1.399,-56.000,-89.000,-37.500,-18.500
1.400,-55.500,-89.500,-38.500,-19.500
1.401,-56.000,-91.000,-40.000,-20.500
1.402,-56.500,-92.500,-41.000,-21.500
1.403,-57.500,-94.000,-42.500,-22.500
1.404,-59.000,-95.500,-43.500,-24.000
1.405,-60.000,-97.500,-45.000,-26.000
1.406,-61.000,-99.000,-46.500,-28.000
1.407,-62.000,-101.000,-48.000,-30.000
1.408,-62.500,-102.500,-49.500,-32.500
1.409,-62.500,-103.500,-50.500,-34.500
1.410,-62.500,-104.000,-51.500,-36.500
1.411,-62.500,-103.000,-51.500,-38.000
1.412,-62.000,-102.000,-51.500,-39.500
1.413,-61.500,-100.500,-51.500,-41.000
1.414,-61.000,-99.500,-52.000,-42.500
1.415,-61.000,-99.000,-53.500,-44.000
1.416,-60.500,-99.500,-55.500,-46.000
1.417,-60.000,-100.000,-57.500,-48.000
1.418,-59.000,-101.000,-59.500,-50.500
1.419,-57.500,-101.500,-61.500,-53.500
1.420,-56.000,-102.000,-63.500,-56.500
1.421,-54.500,-102.500,-65.000,-59.500
1.422,-54.000,-103.000,-66.000,-61.500
1.423,-54.000,-103.000,-66.500,-62.000
1.424,-54.000,-103.000,-66.500,-62.000
1.425,-54.500,-103.000,-66.000,-61.500
1.426,-55.000,-102.500,-66.000,-61.000
1.427,-55.500,-102.500,-65.500,-60.000
1.428,-56.500,-103.000,-65.500,-59.500
1.429,-57.500,-103.500,-65.500,-59.000
1.430,-59.500,-104.500,-65.500,-58.500
1.431,-61.000,-105.000,-65.500,-58.000
1.432,-63.000,-105.500,-65.000,-57.500
1.433,-64.500,-105.500,-65.000,-57.000
1.434,-65.000,-105.500,-65.000,-57.000
1.435,-65.500,-106.000,-65.500,-57.000
1.436,-65.000,-106.000,-66.500,-57.500
1.437,-64.000,-106.500,-67.500,-58.500
1.438,-62.500,-107.500,-68.500,-59.500
1.439,-61.500,-108.500,-69.500,-60.500
1.440,-60.500,-110.000,-70.500,-61.000
1.441,-60.500,-111.500,-71.000,-61.500
1.442,-60.500,-112.500,-71.500,-61.500
1.443,-61.000,-113.000,-72.000,-61.500
1.444,-61.500,-112.500,-71.500,-61.500
1.445,-61.000,-112.000,-71.000,-60.500
1.446,-60.500,-111.000,-70.500,-60.000
1.447,-60.000,-110.500,-69.500,-59.000
1.448,-59.500,-109.500,-69.000,-58.000
1.449,-59.500,-109.000,-68.000,-57.500
1.450,-60.000,-107.500,-67.000,-57.000
1.451,-61.000,-106.500,-66.000,-57.000
1.452,-63.500,-105.500,-65.500,-57.500
1.453,-67.000,-105.500,-66.000,-59.000
1.454,-70.500,-106.000,-67.000,-60.500
1.455,-73.000,-106.500,-68.000,-62.500
1.456,-74.000,-107.000,-69.500,-64.000
1.457,-73.500,-107.500,-70.000,-65.000
1.458,-72.000,-108.000,-70.500,-65.500
1.459,-69.000,-107.500,-70.500,-65.000
1.460,-65.500,-107.500,-70.500,-64.500
1.461,-62.000,-107.000,-70.500,-63.500
1.462,-59.000,-107.000,-71.000,-62.000
1.463,-56.500,-106.500,-71.000,-61.500
1.464,-55.000,-106.000,-71.500,-60.500
1.465,-54.000,-106.000,-71.500,-60.500
1.466,-54.000,-105.500,-71.500,-60.000
1.467,-54.000,-105.000,-71.000,-59.500
1.468,-54.000,-104.000,-70.500,-59.000
1.469,-54.000,-103.000,-69.000,-58.000
1.470,-54.500,-101.500,-67.000,-57.000
1.471,-55.000,-100.000,-65.000,-56.000
1.472,-55.500,-99.000,-63.500,-55.000
1.473,-56.500,-98.500,-62.500,-54.000
1.474,-57.500,-98.500,-62.000,-53.500
1.475,-58.000,-98.500,-62.000,-53.500
1.476,-58.500,-99.000,-62.500,-54.000
1.477,-58.500,-100.000,-64.000,-55.000
1.478,-57.500,-101.000,-66.000,-56.500
1.479,-56.500,-102.000,-67.500,-57.500
1.480,-55.000,-102.500,-69.000,-58.000
1.481,-53.000,-103.000,-70.000,-58.500
1.482,-51.500,-102.500,-70.000,-59.000
1.483,-49.500,-102.000,-69.500,-58.500
1.484,-48.000,-101.000,-68.500,-58.000
1.485,-47.000,-100.000,-67.500,-57.500
1.486,-46.500,-99.000,-66.500,-56.500
1.487,-46.000,-98.000,-65.500,-55.500
1.488,-45.500,-97.000,-64.000,-54.000
1.489,-46.000,-96.000,-63.000,-52.500
1.490,-46.500,-95.500,-62.000,-51.500
1.491,-48.500,-95.000,-61.000,-50.000
1.492,-51.000,-95.500,-61.000,-49.500
1.493,-54.000,-97.000,-61.000,-49.500
1.494,-56.500,-98.500,-62.000,-50.500
1.495,-59.000,-100.500,-63.500,-52.000
1.496,-60.500,-102.500,-65.500,-53.500
1.497,-60.500,-104.000,-68.000,-55.500
1.498,-60.000,-105.500,-70.000,-57.000
1.499,-59.000,-106.500,-71.500,-59.000
1.500,-57.500,-106.500,-73.000,-60.000
1.501,-56.000,-106.500,-73.500,-60.500
1.502,-54.500,-106.000,-73.000,-60.500
1.503,-53.500,-105.000,-73.000,-60.000
1.504,-52.500,-104.000,-72.500,-59.500
1.505,-52.500,-103.500,-72.000,-59.000
1.506,-52.000,-103.000,-71.500,-58.500
1.507,-52.500,-102.500,-71.000,-57.500
1.508,-53.000,-102.000,-70.000,-57.000
1.509,-53.500,-101.500,-69.500,-55.500
1.510,-54.000,-101.000,-68.000,-54.500
1.511,-55.000,-100.000,-67.000,-53.500
1.512,-56.000,-99.000,-65.500,-52.000
1.513,-57.000,-98.500,-64.500,-51.000
1.514,-58.500,-98.500,-64.500,-50.500
1.515,-59.000,-98.500,-64.500,-50.500
1.516,-59.000,-98.500,-65.000,-51.000
1.517,-58.500,-98.500,-66.000,-52.000
1.518,-57.500,-99.000,-67.000,-53.500
1.519,-56.500,-100.000,-68.500,-55.000
1.520,-55.000,-100.500,-70.000,-56.000
1.521,-53.500,-101.000,-71.000,-57.000
1.522,-52.500,-101.000,-71.000,-57.000
1.523,-51.000,-100.500,-71.000,-56.500
1.524,-50.000,-99.500,-70.000,-55.500
1.525,-49.000,-98.500,-69.000,-54.000
1.526,-48.000,-97.500,-68.000,-52.500
1.527,-47.500,-96.500,-66.500,-51.500
1.528,-46.500,-95.500,-65.500,-50.000
1.529,-46.000,-94.500,-64.000,-48.500
1.530,-46.000,-93.000,-61.500,-46.500
1.531,-46.000,-91.000,-59.000,-44.000
1.532,-46.000,-89.000,-56.000,-41.500
1.533,-46.500,-87.500,-53.500,-39.500
1.534,-47.000,-86.500,-52.500,-38.000
1.535,-48.500,-87.000,-52.500,-38.000
1.536,-50.000,-89.500,-55.000,-39.000
1.537,-52.000,-93.500,-59.500,-42.500
1.538,-55.000,-99.000,-65.500,-47.000
1.539,-57.500,-105.000,-73.000,-52.500
1.540,-60.500,-111.000,-80.000,-58.000
1.541,-62.000,-115.500,-85.500,-63.000
1.542,-63.000,-118.000,-89.000,-66.500
1.543,-62.500,-119.000,-91.000,-68.000
1.544,-62.000,-118.500,-91.500,-68.500
1.545,-60.500,-117.500,-91.000,-68.000
1.546,-60.000,-116.000,-90.500,-67.500
1.547,-59.500,-114.500,-89.500,-66.000
1.548,-60.000,-113.000,-88.000,-65.000
1.549,-60.500,-112.000,-86.500,-63.000
1.550,-61.000,-110.500,-84.500,-61.000
1.551,-61.500,-109.000,-81.500,-59.000
1.552,-61.500,-106.500,-78.500,-56.500
1.553,-61.000,-103.500,-74.500,-53.500
1.554,-60.000,-100.000,-71.000,-51.000
1.555,-58.500,-97.500,-68.000,-49.500
1.556,-57.500,-96.000,-67.000,-49.000
1.557,-56.500,-95.500,-67.000,-50.000
1.558,-55.500,-95.500,-68.000,-51.500
1.559,-54.000,-95.500,-69.000,-53.000
1.560,-52.500,-95.500,-70.000,-54.500
1.561,-50.500,-95.500,-70.500,-55.500
1.562,-49.000,-95.500,-70.500,-55.500
1.563,-47.500,-95.000,-70.500,-55.000
1.564,-46.000,-94.500,-70.000,-54.500
1.565,-45.000,-93.500,-69.000,-53.500
1.566,-44.500,-92.500,-68.000,-52.000
1.567,-44.000,-92.000,-67.500,-51.000
1.568,-45.000,-92.000,-66.500,-49.500
1.569,-46.000,-93.000,-66.000,-48.000
1.570,-47.500,-94.500,-65.500,-46.500
1.571,-49.500,-96.000,-65.500,-45.500
1.572,-52.000,-97.000,-66.000,-44.500
1.573,-54.500,-98.000,-66.000,-44.500
1.574,-56.500,-98.500,-67.000,-44.500
1.575,-58.500,-98.000,-67.500,-45.500
1.576,-59.000,-98.000,-68.500,-46.500
1.577,-59.000,-97.000,-69.500,-48.000
1.578,-57.500,-96.500,-70.500,-50.000
1.579,-56.000,-96.000,-71.500,-51.500
1.580,-53.500,-95.000,-72.000,-52.500
1.581,-51.000,-94.000,-71.500,-53.000
1.582,-48.500,-92.500,-71.000,-52.500
1.583,-46.500,-91.500,-70.500,-51.500
1.584,-45.000,-90.500,-69.000,-50.000
1.585,-44.000,-89.500,-68.000,-48.500
1.586,-43.000,-88.500,-67.000,-47.000
1.587,-43.000,-88.000,-66.000,-45.500
1.588,-43.000,-87.500,-65.000,-44.500
1.589,-43.000,-87.000,-64.000,-43.000
1.590,-43.500,-86.500,-63.000,-41.500
1.591,-44.500,-86.500,-61.500,-40.500
1.592,-46.000,-86.000,-60.500,-39.000
1.593,-47.000,-85.500,-59.500,-38.000
1.594,-48.500,-85.500,-59.000,-37.500
1.595,-49.000,-86.000,-59.000,-38.000
1.596,-49.500,-86.500,-60.000,-38.500
1.597,-49.500,-88.000,-61.500,-40.000
1.598,-49.000,-89.500,-64.000,-41.500
1.599,-48.500,-91.500,-66.500,-43.000
1.600,-48.000,-92.500,-69.000,-44.500
1.601,-47.000,-93.500,-70.500,-45.500
1.602,-45.500,-93.500,-71.000,-46.000
1.603,-44.500,-93.000,-71.000,-46.500
1.604,-43.500,-92.500,-71.000,-46.000
1.605,-42.500,-92.000,-70.000,-46.000
1.606,-41.500,-91.000,-69.500,-45.500
1.607,-40.500,-90.000,-68.000,-44.500
1.608,-39.500,-88.500,-66.000,-42.500
1.609,-38.500,-86.500,-63.500,-40.500
1.610,-38.000,-84.500,-61.000,-37.500
1.611,-38.000,-82.500,-59.000,-35.000
1.612,-39.000,-81.500,-57.000,-33.000
1.613,-40.500,-81.500,-56.500,-32.000
1.614,-43.500,-82.500,-57.000,-32.500
1.615,-46.500,-84.500,-59.000,-34.500
1.616,-49.500,-87.000,-62.000,-37.500
1.617,-51.500,-90.000,-65.500,-41.000
1.618,-52.500,-92.500,-69.000,-44.000
1.619,-52.000,-94.500,-72.000,-47.000
1.620,-51.000,-95.500,-74.000,-49.000
1.621,-49.500,-95.500,-75.500,-50.000
1.622,-48.000,-95.500,-76.000,-50.000
1.623,-46.500,-95.000,-76.000,-50.000
1.624,-46.000,-94.500,-75.500,-49.500
1.625,-45.500,-94.500,-75.000,-49.500
1.626,-45.500,-94.000,-74.500,-49.000
1.627,-45.500,-94.000,-74.000,-48.500
1.628,-46.000,-93.500,-73.500,-47.500
1.629,-46.000,-93.000,-72.000,-46.500
1.630,-46.000,-91.500,-70.500,-45.500
1.631,-46.000,-90.500,-68.500,-44.000
1.632,-46.500,-90.000,-67.000,-42.500
1.633,-47.500,-90.500,-66.500,-41.500
1.634,-48.500,-92.000,-66.500,-40.500
1.635,-49.000,-94.000,-67.000,-40.500
1.636,-50.000,-96.000,-69.000,-41.000
1.637,-50.500,-98.500,-71.500,-42.500
1.638,-50.500,-100.000,-74.000,-44.500
1.639,-50.500,-101.000,-76.500,-46.500
1.640,-50.000,-101.500,-79.000,-49.000
1.641,-49.000,-101.000,-80.500,-50.500
1.642,-48.500,-100.500,-81.000,-51.500
1.643,-47.000,-99.000,-80.500,-51.500
1.644,-46.000,-97.500,-80.000,-51.000
1.645,-45.000,-96.500,-78.500,-49.500
1.646,-44.000,-95.000,-77.000,-48.500
1.647,-43.500,-94.500,-75.500,-47.000
1.648,-44.000,-94.500,-74.000,-46.500
1.649,-44.500,-95.000,-73.000,-45.500
1.650,-45.000,-95.000,-72.000,-44.000
1.651,-46.000,-95.000,-71.000,-42.000
1.652,-47.500,-94.000,-69.500,-40.000
1.653,-48.500,-93.000,-69.000,-38.500
1.654,-50.000,-92.000,-68.500,-38.000
1.655,-50.500,-91.000,-69.000,-39.000
1.656,-50.500,-89.500,-70.000,-41.500
1.657,-50.500,-89.000,-71.000,-44.500
1.658,-49.500,-88.000,-72.500,-48.000
1.659,-48.000,-87.000,-73.500,-50.500
1.660,-46.000,-86.000,-73.500,-51.500
1.661,-43.500,-84.500,-72.500,-51.000
1.662,-41.000,-83.000,-70.500,-49.500
1.663,-38.000,-81.000,-68.000,-47.000
1.664,-35.000,-79.000,-65.500,-44.500
1.665,-32.000,-77.500,-63.000,-41.500
1.666,-30.000,-77.000,-61.500,-39.500
1.667,-30.000,-78.000,-61.500,-38.500
1.668,-31.000,-80.000,-62.500,-38.500
1.669,-32.500,-82.500,-64.500,-39.000
1.670,-35.000,-85.000,-66.500,-39.000
1.671,-36.500,-86.500,-67.500,-39.000
1.672,-38.000,-87.000,-67.500,-38.000
1.673,-39.500,-87.500,-67.500,-37.500
1.674,-41.000,-88.000,-67.500,-37.000
1.675,-42.500,-89.000,-68.000,-38.000
1.676,-43.500,-90.500,-70.000,-40.000
1.677,-44.500,-92.500,-72.000,-42.500
1.678,-45.000,-94.000,-75.000,-45.000
1.679,-45.000,-95.000,-77.500,-47.500
1.680,-44.000,-95.500,-79.000,-49.000
1.681,-42.500,-94.500,-80.000,-49.500
1.682,-40.500,-93.000,-79.500,-49.000
1.683,-38.500,-91.000,-78.000,-48.000
1.684,-36.000,-89.000,-76.500,-46.000
1.685,-34.500,-87.000,-75.000,-45.000
1.686,-33.500,-86.000,-74.000,-44.000
1.687,-34.000,-86.000,-73.500,-43.500
1.688,-34.500,-86.500,-73.000,-42.500
1.689,-36.000,-87.000,-72.500,-42.000
1.690,-37.500,-87.500,-72.000,-41.000
1.691,-39.500,-87.500,-71.500,-39.500
1.692,-41.000,-87.000,-70.500,-38.000
1.693,-42.000,-86.500,-69.000,-36.000
1.694,-42.500,-85.000,-68.000,-34.500
1.695,-42.000,-84.000,-67.000,-34.000
1.696,-41.000,-83.000,-67.500,-34.000
1.697,-40.000,-83.000,-68.500,-36.000
1.698,-39.500,-84.000,-71.000,-38.500
1.699,-38.500,-86.000,-74.000,-42.000
1.700,-38.000,-89.000,-77.500,-45.500
1.701,-38.000,-91.500,-80.500,-48.500
1.702,-37.500,-93.500,-82.500,-50.500
1.703,-37.500,-94.500,-83.000,-51.000
1.704,-37.500,-94.500,-83.000,-51.000
1.705,-37.000,-93.500,-82.000,-50.500
1.706,-36.000,-91.500,-80.000,-49.500
1.707,-34.500,-88.500,-77.500,-48.000
1.708,-33.500,-85.000,-74.500,-45.500
1.709,-32.500,-81.500,-71.500,-43.500
1.710,-31.500,-78.500,-68.000,-40.500
1.711,-31.500,-76.500,-65.000,-38.000
1.712,-31.500,-74.500,-62.500,-36.000
1.713,-32.000,-73.500,-61.000,-34.000
1.714,-33.000,-73.500,-60.500,-33.500
1.715,-34.000,-74.500,-61.000,-33.500
1.716,-35.000,-75.500,-62.500,-34.500
1.717,-35.000,-77.000,-64.000,-36.000
1.718,-34.500,-78.500,-66.000,-38.000
1.719,-34.000,-80.000,-68.500,-40.000
1.720,-33.000,-81.500,-71.000,-41.500
1.721,-32.000,-82.500,-73.000,-42.500
1.722,-31.500,-83.000,-74.000,-43.000
1.723,-30.500,-83.000,-74.000,-42.500
1.724,-29.000,-82.000,-72.500,-41.500
1.725,-27.000,-80.500,-71.000,-40.000
1.726,-25.500,-78.500,-69.500,-38.000
1.727,-24.000,-76.500,-67.500,-37.000
1.728,-23.000,-75.000,-66.000,-35.500
1.729,-23.000,-74.000,-64.500,-34.500
1.730,-24.500,-74.000,-64.000,-33.500
1.731,-26.500,-74.500,-63.500,-33.000
1.732,-30.000,-75.500,-64.000,-33.000
1.733,-33.000,-76.500,-64.500,-33.500
1.734,-35.500,-77.500,-65.500,-34.500
1.735,-37.500,-79.000,-66.500,-35.500
1.736,-38.500,-80.000,-67.500,-37.000
1.737,-38.500,-81.000,-69.000,-38.000
1.738,-37.500,-81.500,-70.500,-39.500
1.739,-36.500,-82.500,-72.500,-41.000
1.740,-35.000,-83.000,-73.500,-42.500
1.741,-33.500,-83.500,-74.500,-43.000
1.742,-32.000,-83.500,-75.000,-43.500
1.743,-31.000,-83.500,-75.000,-43.500
1.744,-29.500,-83.000,-74.500,-42.500
1.745,-28.000,-82.500,-74.000,-41.500
1.746,-27.000,-81.500,-73.000,-40.000
1.747,-26.500,-80.500,-72.000,-38.500
1.748,-26.000,-80.000,-71.000,-37.000
1.749,-25.500,-79.000,-70.000,-35.500
1.750,-26.000,-78.000,-68.500,-34.000
1.751,-26.500,-77.500,-67.500,-32.500
1.752,-28.500,-77.500,-66.500,-32.000
1.753,-31.000,-78.000,-66.500,-32.000
1.754,-33.500,-79.500,-67.500,-33.000
1.755,-35.500,-82.000,-69.000,-34.500
1.756,-37.000,-85.000,-71.500,-36.500
1.757,-38.000,-88.000,-74.500,-39.000
1.758,-38.500,-91.500,-77.000,-41.500
1.759,-38.000,-94.000,-80.000,-43.000
1.760,-37.000,-95.000,-81.500,-44.500
1.761,-36.500,-95.500,-82.500,-45.000
1.762,-36.000,-94.500,-82.500,-45.000
1.763,-35.500,-92.500,-82.000,-44.500
1.764,-35.000,-90.500,-81.000,-44.000
1.765,-34.500,-88.000,-79.500,-43.500
1.766,-34.000,-85.500,-78.500,-42.500
1.767,-33.000,-83.500,-77.000,-41.500
1.768,-32.500,-81.500,-75.500,-40.500
1.769,-32.000,-80.000,-73.500,-39.000
1.770,-32.000,-78.500,-71.500,-36.500
1.771,-32.000,-77.000,-69.500,-34.500
1.772,-32.000,-76.000,-68.000,-32.000
1.773,-32.500,-75.500,-66.500,-30.500
1.774,-32.500,-75.500,-66.000,-30.000
1.775,-32.500,-75.500,-66.000,-30.500
1.776,-32.000,-75.500,-67.500,-32.500
1.777,-31.500,-76.500,-69.500,-35.500
1.778,-30.500,-77.000,-71.500,-38.000
1.779,-29.000,-78.000,-73.500,-40.500
1.780,-28.000,-79.500,-75.500,-42.000
1.781,-27.000,-80.500,-77.000,-43.000
1.782,-26.500,-81.000,-78.000,-43.500
1.783,-25.500,-81.000,-78.000,-43.500
1.784,-25.000,-81.000,-77.000,-43.000
1.785,-25.000,-80.500,-76.500,-42.000
1.786,-24.500,-80.000,-75.500,-41.000
1.787,-25.000,-79.500,-74.500,-39.500
1.788,-25.000,-79.000,-73.000,-38.000
1.789,-25.500,-78.500,-72.000,-36.500
1.790,-26.500,-78.000,-70.500,-35.000
1.791,-27.500,-77.500,-69.500,-33.000
1.792,-29.000,-76.500,-68.000,-32.000
1.793,-30.500,-76.500,-67.500,-31.000
1.794,-32.000,-76.500,-67.500,-31.000
1.795,-33.000,-77.500,-68.000,-32.000
1.796,-34.000,-78.000,-69.500,-33.500
1.797,-34.000,-79.000,-71.000,-35.500
1.798,-33.000,-80.000,-73.000,-37.000
1.799,-32.000,-80.500,-74.500,-39.000
1.800,-31.000,-81.000,-75.500,-40.000
1.801,-29.500,-81.500,-76.000,-40.500
1.802,-28.000,-81.000,-76.000,-40.500
1.803,-27.000,-81.000,-76.000,-40.500
1.804,-26.000,-80.500,-75.500,-39.500
1.805,-25.500,-80.000,-75.000,-39.000
1.806,-25.500,-79.500,-74.500,-38.000
1.807,-25.000,-79.000,-74.500,-37.000
1.808,-25.000,-78.000,-73.500,-36.500
1.809,-25.000,-77.000,-72.500,-35.000
1.810,-25.000,-76.000,-71.000,-34.000
1.811,-25.500,-75.000,-69.500,-32.500
1.812,-26.500,-74.000,-68.500,-31.000
1.813,-27.500,-73.500,-67.500,-30.500
1.814,-29.000,-74.000,-67.500,-30.500
1.815,-30.000,-74.500,-68.000,-31.500
1.816,-30.500,-75.500,-69.000,-32.500
1.817,-30.500,-76.000,-70.000,-34.000
1.818,-29.500,-77.500,-72.000,-35.500
1.819,-28.500,-78.500,-74.000,-37.000
1.820,-27.500,-79.500,-75.500,-38.500
1.821,-26.500,-80.500,-77.500,-40.000
1.822,-25.500,-80.500,-78.000,-40.500
1.823,-24.000,-80.500,-78.500,-40.000
1.824,-23.000,-80.000,-78.000,-39.500
1.825,-21.500,-78.500,-77.000,-38.000
1.826,-20.000,-77.000,-75.500,-36.500
1.827,-18.500,-75.500,-73.500,-35.000
1.828,-17.500,-73.500,-71.500,-33.500
1.829,-17.000,-72.000,-69.500,-32.000
1.830,-17.000,-71.000,-67.500,-30.500
1.831,-18.500,-71.000,-66.000,-28.500
1.832,-21.000,-72.000,-65.500,-27.500
1.833,-24.500,-75.500,-66.000,-26.500
1.834,-29.000,-80.500,-68.500,-27.000
1.835,-34.000,-87.000,-72.000,-29.000
1.836,-39.000,-94.000,-76.500,-32.000
1.837,-44.000,-100.500,-82.000,-35.500
1.838,-47.500,-105.500,-87.000,-40.000
1.839,-50.000,-108.000,-91.500,-44.000
1.840,-51.000,-108.000,-94.500,-47.500
1.841,-50.000,-105.500,-95.500,-49.500
1.842,-47.500,-100.500,-95.000,-50.500
1.843,-44.000,-94.500,-92.500,-49.500
1.844,-39.500,-88.500,-89.500,-48.500
1.845,-34.500,-82.500,-85.500,-47.000
1.846,-30.000,-77.500,-82.000,-45.500
1.847,-26.500,-73.500,-79.000,-44.000
1.848,-23.000,-71.000,-76.000,-42.000
1.849,-20.500,-69.500,-73.500,-39.500
1.850,-19.000,-68.500,-71.000,-37.000
1.851,-18.000,-68.000,-69.000,-34.500
1.852,-17.500,-67.000,-67.000,-32.000
1.853,-17.500,-66.500,-65.500,-30.000
1.854,-17.500,-66.000,-64.500,-28.500
1.855,-17.500,-65.000,-63.500,-28.000
1.856,-17.000,-64.500,-63.500,-28.000
1.857,-16.000,-64.500,-64.000,-28.000
1.858,-15.000,-65.000,-65.000,-28.500
1.859,-13.500,-65.000,-66.000,-29.000
1.860,-11.500,-65.500,-67.000,-29.000
1.861,-10.000,-65.500,-67.500,-28.500
1.862,-8.500,-65.500,-67.500,-28.500
1.863,-8.000,-66.000,-68.000,-28.500
1.864,-8.000,-66.500,-68.500,-29.000
1.865,-8.500,-67.500,-69.500,-29.500
1.866,-10.000,-68.500,-70.500,-30.500
1.867,-11.500,-70.000,-71.500,-31.500
1.868,-13.500,-71.000,-72.500,-32.000
1.869,-15.000,-72.000,-73.000,-32.500
1.870,-17.000,-72.500,-73.000,-33.000
1.871,-19.000,-72.500,-73.000,-33.500
1.872,-20.500,-72.500,-73.000,-34.500
1.873,-22.000,-72.500,-72.500,-36.000
1.874,-23.500,-72.500,-73.000,-37.500
1.875,-24.500,-73.000,-73.500,-38.500
1.876,-24.500,-73.500,-75.000,-40.000
1.877,-24.500,-74.500,-76.000,-41.500
1.878,-24.500,-75.500,-78.000,-43.500
1.879,-24.000,-77.000,-80.000,-45.000
1.880,-23.500,-78.500,-82.000,-46.500
1.881,-23.000,-79.500,-83.000,-47.500
1.882,-22.500,-80.000,-84.000,-48.000
1.883,-22.000,-80.500,-84.500,-47.500
1.884,-22.000,-80.500,-84.500,-47.000
1.885,-21.500,-80.000,-84.000,-46.000
1.886,-21.000,-79.000,-83.000,-44.500
1.887,-20.500,-78.000,-81.000,-41.500
1.888,-19.500,-76.000,-78.500,-38.000
1.889,-19.000,-74.000,-75.500,-33.500
1.890,-18.000,-71.500,-71.500,-28.000
1.891,-17.500,-69.000,-67.000,-21.500
1.892,-17.500,-66.000,-62.000,-15.500
1.893,-18.000,-63.500,-57.500,-9.500
1.894,-18.500,-61.500,-54.000,-5.000
1.895,-19.000,-60.500,-52.000,-2.000
1.896,-20.000,-60.000,-51.000,-1.000
1.897,-20.000,-60.500,-51.000,-1.500
1.898,-20.000,-60.500,-51.000,-2.500
1.899,-18.500,-60.500,-51.000,-3.000
1.900,-17.000,-60.000,-51.000,-3.000
1.901,-16.000,-59.500,-50.500,-2.500
1.902,-15.000,-59.500,-50.000,-1.000
1.903,-15.000,-60.500,-50.000,0.500
1.904,-15.500,-62.500,-51.000,1.500
1.905,-16.500,-65.000,-52.500,1.500
1.906,-18.000,-67.500,-54.000,0.500
1.907,-19.000,-69.500,-55.500,-0.500
1.908,-19.000,-70.500,-56.500,-1.500
1.909,-19.000,-70.500,-57.000,-2.500
1.910,-18.500,-69.000,-57.000,-3.500
1.911,-18.500,-67.500,-56.500,-4.500
1.912,-18.500,-65.500,-56.000,-5.500
1.913,-18.500,-63.500,-56.000,-7.500
1.914,-18.500,-62.500,-56.500,-10.000
1.915,-18.500,-62.000,-58.000,-13.000
1.916,-17.500,-61.500,-60.000,-17.000
1.917,-16.500,-62.000,-62.000,-20.500
1.918,-15.000,-62.500,-64.500,-24.000
1.919,-14.000,-63.500,-66.500,-27.000
1.920,-12.500,-64.500,-68.500,-29.500
1.921,-12.000,-65.500,-70.500,-31.000
1.922,-11.000,-66.500,-71.500,-32.000
1.923,-10.500,-66.500,-72.500,-32.500
1.924,-10.500,-67.000,-73.000,-33.000
1.925,-11.000,-67.000,-73.500,-33.500
1.926,-12.000,-67.500,-74.000,-34.000
1.927,-12.500,-68.500,-74.500,-34.000
1.928,-13.500,-69.000,-74.500,-33.500
1.929,-14.500,-69.000,-74.000,-33.000
1.930,-15.500,-68.500,-73.500,-32.000
1.931,-16.500,-68.500,-72.500,-31.000
1.932,-18.000,-68.000,-71.500,-30.500
1.933,-19.500,-67.500,-70.500,-30.000
1.934,-21.000,-67.500,-70.500,-30.000
1.935,-22.500,-68.500,-70.500,-30.500
1.936,-23.000,-69.500,-71.500,-31.000
1.937,-23.000,-70.500,-72.500,-31.500
1.938,-22.500,-71.500,-74.000,-32.500
1.939,-21.500,-71.500,-75.000,-33.000
1.940,-19.500,-71.000,-75.000,-33.500
1.941,-17.000,-69.500,-74.000,-32.500
1.942,-14.500,-67.500,-72.500,-31.500
1.943,-12.000,-65.500,-70.500,-29.500
1.944,-10.000,-64.000,-69.000,-28.500
1.945,-9.500,-64.000,-69.000,-27.500
1.946,-10.500,-65.500,-70.500,-28.500
1.947,-13.000,-68.000,-73.500,-30.500
1.948,-16.000,-72.000,-77.500,-33.500
1.949,-19.500,-76.000,-81.500,-36.500
1.950,-23.000,-79.500,-85.000,-39.000
1.951,-25.500,-81.500,-87.000,-40.500
1.952,-27.500,-82.000,-87.500,-40.500
1.953,-29.000,-82.000,-87.500,-40.500
1.954,-30.500,-82.000,-87.500,-40.500
1.955,-31.500,-82.500,-88.000,-41.000
1.956,-32.500,-83.500,-89.500,-42.000
1.957,-33.000,-85.000,-91.500,-44.000
1.958,-33.000,-86.500,-93.500,-46.500
1.959,-32.500,-88.000,-95.500,-49.000
1.960,-31.500,-88.500,-97.500,-50.500
1.961,-29.500,-88.500,-98.000,-51.500
1.962,-27.000,-86.500,-97.000,-51.000
1.963,-24.000,-83.500,-94.500,-49.000
1.964,-20.500,-80.000,-90.500,-46.000
1.965,-17.000,-76.000,-86.500,-43.000
1.966,-15.000,-73.000,-83.000,-40.000
1.967,-13.500,-70.500,-80.000,-37.500
1.968,-13.000,-69.500,-77.500,-36.000
1.969,-14.000,-68.500,-76.000,-34.000
1.970,-15.000,-68.500,-74.500,-32.500
1.971,-17.000,-68.500,-73.500,-31.000
1.972,-19.500,-69.000,-73.000,-29.500
1.973,-22.000,-69.500,-73.000,-29.000
1.974,-24.500,-71.000,-74.000,-28.500
1.975,-26.500,-72.500,-75.500,-29.000
1.976,-28.000,-74.500,-77.500,-30.000
1.977,-28.500,-76.500,-80.000,-32.000
1.978,-28.500,-79.000,-83.000,-34.500
1.979,-28.000,-81.500,-86.000,-37.000
1.980,-27.500,-84.000,-88.000,-38.500
1.981,-26.500,-85.000,-89.500,-39.500
1.982,-25.500,-85.500,-90.000,-40.000
1.983,-24.000,-85.000,-89.500,-40.000
1.984,-22.500,-83.500,-88.500,-39.500
1.985,-21.000,-81.000,-86.500,-38.500
1.986,-19.000,-78.000,-84.500,-37.000
1.987,-17.000,-74.500,-81.500,-35.500
1.988,-15.500,-71.500,-79.000,-33.500
1.989,-14.000,-68.500,-76.500,-32.000
1.990,-13.500,-66.000,-74.000,-30.000
1.991,-14.000,-64.500,-72.500,-28.500
1.992,-15.500,-63.500,-71.000,-28.000
1.993,-17.500,-63.500,-71.000,-28.000
1.994,-20.000,-65.000,-71.500,-28.500
1.995,-22.500,-66.500,-73.000,-30.000
1.996,-23.500,-68.000,-74.500,-31.500
1.997,-24.000,-69.500,-76.500,-33.500
1.998,-23.500,-71.000,-78.000,-35.500
1.999,-22.500,-72.500,-80.000,-37.000
2.000,-21.500,-74.500,-82.000,-38.000
2.001,-20.500,-76.000,-83.500,-38.500
2.002,-19.500,-77.500,-84.500,-38.000
2.003,-19.000,-79.000,-85.000,-37.500
2.004,-19.000,-80.000,-85.000,-37.000
2.005,-19.000,-80.000,-85.000,-36.000
2.006,-19.500,-80.000,-84.500,-35.500
2.007,-20.000,-79.000,-84.000,-35.000
2.008,-20.500,-77.500,-83.000,-34.500
2.009,-21.000,-76.000,-82.000,-33.500
2.010,-22.000,-74.000,-80.500,-32.500
2.011,-22.500,-72.500,-78.500,-31.500
2.012,-23.000,-71.000,-77.000,-29.500
2.013,-23.500,-69.500,-75.000,-27.500
2.014,-23.000,-68.000,-73.000,-26.000
2.015,-22.000,-67.000,-72.000,-24.000
2.016,-20.000,-66.000,-71.000,-22.500
2.017,-17.500,-65.000,-70.500,-22.000
2.018,-15.000,-65.000,-71.500,-21.500
2.019,-12.500,-65.000,-72.500,-21.500
2.020,-10.000,-65.000,-74.000,-22.500
2.021,-7.500,-64.500,-75.000,-23.500
2.022,-5.500,-64.000,-75.500,-25.000
2.023,-4.000,-63.500,-75.500,-27.000
2.024,-4.000,-63.500,-76.000,-29.000
2.025,-5.000,-64.000,-76.500,-31.000
2.026,-6.500,-65.000,-77.000,-32.500
2.027,-7.500,-65.500,-77.000,-33.000
2.028,-8.500,-65.500,-76.500,-32.500
2.029,-9.500,-65.500,-76.000,-32.000
2.030,-11.500,-66.000,-76.000,-31.500
2.031,-14.000,-67.000,-76.000,-31.000
2.032,-17.500,-68.000,-76.000,-31.000
2.033,-21.000,-69.500,-76.500,-31.000
2.034,-24.000,-71.000,-77.500,-31.000
2.035,-26.000,-72.000,-78.500,-32.000
2.036,-27.500,-73.500,-80.000,-32.500
2.037,-27.500,-74.500,-81.500,-34.000
2.038,-26.500,-75.000,-83.000,-35.000
2.039,-25.500,-76.000,-84.500,-36.500
2.040,-23.500,-76.500,-85.500,-37.000
2.041,-22.000,-76.500,-86.000,-37.500
2.042,-20.500,-76.500,-86.000,-37.000
2.043,-19.000,-75.500,-85.500,-37.000
2.044,-17.500,-75.000,-85.000,-36.500
2.045,-16.500,-74.500,-84.500,-37.000
2.046,-16.500,-74.500,-84.500,-37.000
2.047,-16.000,-74.000,-84.500,-37.000
2.048,-16.500,-73.500,-84.000,-36.500
2.049,-17.000,-73.000,-83.500,-36.000
2.050,-18.500,-72.500,-83.000,-35.000
2.051,-21.000,-73.000,-82.000,-34.000
2.052,-24.000,-73.500,-81.500,-33.500
2.053,-27.500,-74.000,-80.500,-32.500
2.054,-29.500,-74.500,-80.000,-31.500
2.055,-30.000,-74.000,-79.000,-30.000
2.056,-29.500,-72.500,-77.500,-29.000
2.057,-27.500,-71.000,-76.500,-28.500
2.058,-24.500,-70.000,-76.000,-28.000
2.059,-22.000,-68.500,-76.000,-28.000
2.060,-19.000,-68.000,-76.500,-28.500
2.061,-16.500,-67.500,-77.500,-29.000
2.062,-14.500,-67.500,-78.500,-30.000
2.063,-13.500,-68.500,-80.500,-31.000
2.064,-14.000,-70.000,-82.500,-32.000
2.065,-15.000,-72.000,-84.000,-33.000
2.066,-15.500,-73.000,-85.000,-33.000
2.067,-15.500,-73.000,-84.000,-31.500
2.068,-15.000,-71.500,-82.000,-29.500
2.069,-14.000,-69.000,-79.500,-27.000
2.070,-13.000,-66.500,-76.500,-24.000
2.071,-13.500,-65.000,-74.500,-22.000
2.072,-15.500,-64.500,-73.000,-20.500
2.073,-18.000,-65.000,-72.500,-20.500
2.074,-21.000,-66.500,-73.500,-21.500
2.075,-24.500,-69.000,-75.500,-23.000
2.076,-27.000,-72.000,-78.000,-25.500
2.077,-29.000,-75.000,-81.000,-28.500
2.078,-30.000,-77.500,-84.000,-31.500
2.079,-30.500,-79.500,-86.500,-34.000
2.080,-29.500,-81.000,-89.000,-36.000
2.081,-28.000,-81.500,-90.500,-37.000
2.082,-26.500,-82.000,-91.000,-37.500
2.083,-25.000,-81.500,-91.000,-37.500
2.084,-24.000,-81.500,-91.000,-37.000
2.085,-23.000,-81.000,-90.500,-36.000
2.086,-22.500,-80.500,-89.500,-35.000
2.087,-22.000,-79.500,-88.500,-33.500
2.088,-21.500,-78.500,-87.500,-32.000
2.089,-21.500,-77.000,-86.000,-30.500
2.090,-21.500,-75.500,-84.500,-28.500
2.091,-22.000,-74.500,-82.500,-27.000
2.092,-23.000,-73.500,-81.000,-25.500
2.093,-24.500,-73.500,-80.500,-24.500
2.094,-26.500,-74.000,-80.000,-24.000
2.095,-29.000,-76.000,-81.000,-24.500
2.096,-31.000,-78.000,-82.500,-26.000
2.097,-33.000,-80.500,-85.000,-28.000
2.098,-33.500,-83.000,-88.000,-30.500
2.099,-33.500,-85.000,-91.000,-32.500
2.100,-32.500,-87.000,-94.000,-35.000
2.101,-31.500,-88.500,-96.000,-36.000
2.102,-30.000,-88.500,-97.000,-37.000
2.103,-28.500,-87.500,-97.000,-37.000
2.104,-27.500,-86.000,-96.500,-36.000
2.105,-26.000,-83.500,-95.000,-35.500
2.106,-25.000,-81.000,-93.000,-34.500
2.107,-24.000,-78.500,-91.000,-33.000
2.108,-23.000,-76.000,-88.500,-31.500
2.109,-22.500,-74.000,-86.500,-30.000
2.110,-22.000,-72.000,-84.000,-28.500
2.111,-22.000,-70.500,-82.000,-26.500
2.112,-23.000,-69.500,-80.500,-25.500
2.113,-23.500,-69.000,-79.000,-24.500
2.114,-24.500,-69.000,-78.500,-24.000
2.115,-25.000,-69.500,-78.500,-24.500
2.116,-25.500,-70.500,-80.000,-25.500
2.117,-26.000,-71.500,-81.500,-27.000
2.118,-26.000,-73.000,-83.500,-29.000
2.119,-25.000,-74.000,-85.500,-31.000
2.120,-24.000,-75.000,-87.000,-32.500
2.121,-22.500,-75.000,-88.000,-33.000
2.122,-21.000,-75.500,-88.000,-33.000
2.123,-19.500,-75.500,-88.000,-32.000
2.124,-18.500,-75.000,-87.500,-31.000
2.125,-17.500,-75.000,-86.500,-29.500
2.126,-16.500,-74.500,-86.000,-28.500
2.127,-15.500,-74.000,-85.000,-27.500
2.128,-15.000,-73.500,-84.000,-26.500
2.129,-15.500,-73.000,-83.500,-26.000
2.130,-17.000,-73.500,-83.500,-26.000
2.131,-19.000,-74.500,-84.000,-27.000
2.132,-22.000,-75.500,-85.000,-28.000
2.133,-25.000,-76.500,-86.000,-29.000
2.134,-27.500,-77.000,-87.000,-30.000
2.135,-29.000,-77.500,-88.000,-31.000
2.136,-29.000,-77.500,-89.000,-32.000
2.137,-28.500,-77.500,-90.000,-33.000
2.138,-27.000,-78.000,-91.000,-33.500
2.139,-25.500,-78.000,-92.000,-35.000
2.140,-23.500,-78.500,-93.000,-35.500
2.141,-21.500,-78.500,-93.500,-36.500
2.142,-20.000,-78.500,-93.500,-37.000
2.143,-19.000,-79.000,-94.000,-38.000
2.144,-19.000,-79.000,-94.000,-39.500
2.145,-19.000,-79.500,-94.500,-40.500
2.146,-19.000,-80.000,-94.500,-41.000
2.147,-19.500,-79.500,-94.000,-40.500
2.148,-19.000,-79.000,-92.500,-39.000
2.149,-18.500,-77.500,-90.500,-36.500
2.150,-17.500,-75.500,-87.500,-33.500
2.151,-16.000,-73.000,-84.500,-30.000
2.152,-15.000,-70.000,-81.500,-27.000
2.153,-14.500,-68.000,-79.000,-24.500
2.154,-15.000,-67.000,-77.500,-23.000
2.155,-15.500,-67.000,-78.000,-23.000
2.156,-17.000,-69.000,-79.500,-24.500
2.157,-19.000,-72.500,-83.000,-27.000
2.158,-21.000,-77.000,-87.000,-30.500
2.159,-23.000,-81.000,-92.000,-34.500
2.160,-23.500,-84.000,-95.500,-37.500
2.161,-23.000,-85.000,-97.500,-39.000
2.162,-21.500,-84.500,-97.500,-39.000
2.163,-19.500,-82.500,-97.000,-38.500
2.164,-17.500,-80.000,-96.000,-37.500
2.165,-16.000,-77.000,-94.000,-36.000
2.166,-14.500,-74.500,-92.500,-34.500
2.167,-13.500,-72.500,-90.500,-33.000
2.168,-13.500,-71.500,-89.500,-31.500
2.169,-14.000,-70.500,-88.500,-31.000
2.170,-15.500,-70.500,-88.000,-30.500
2.171,-17.000,-70.500,-87.000,-30.500
2.172,-19.000,-70.500,-86.500,-30.000
2.173,-21.000,-70.500,-86.000,-30.000
2.174,-22.500,-70.500,-86.000,-30.000
2.175,-23.500,-71.000,-86.000,-30.000
2.176,-24.000,-71.500,-86.500,-30.500
2.177,-23.500,-72.000,-87.500,-31.500
2.178,-22.500,-73.000,-88.500,-33.000
2.179,-21.500,-73.500,-90.000,-34.500
2.180,-20.000,-74.500,-91.000,-36.000
2.181,-18.500,-74.500,-92.000,-37.000
2.182,-17.000,-74.500,-92.500,-37.000
2.183,-16.000,-74.000,-92.500,-37.000
2.184,-14.500,-73.500,-92.000,-36.000
2.185,-13.000,-72.500,-91.000,-34.500
2.186,-12.000,-71.500,-90.000,-33.000
2.187,-11.500,-70.500,-89.000,-31.500
2.188,-11.000,-70.000,-88.500,-30.500
2.189,-11.500,-70.000,-88.000,-30.000
2.190,-13.000,-70.500,-87.500,-29.500
2.191,-14.500,-70.500,-87.000,-28.500
2.192,-16.500,-70.500,-87.000,-28.000
2.193,-18.500,-71.000,-86.500,-27.000
2.194,-20.000,-71.000,-86.500,-27.000
2.195,-21.000,-71.000,-86.500,-27.000
2.196,-21.000,-71.500,-87.500,-27.500
2.197,-20.000,-71.500,-88.500,-28.500
2.198,-19.000,-72.000,-89.500,-29.500
2.199,-17.500,-72.000,-90.500,-30.500
2.200,-16.000,-72.000,-91.000,-31.500
2.201,-15.000,-72.000,-91.500,-31.500
2.202,-14.500,-72.500,-92.000,-32.000
2.203,-14.500,-73.500,-93.000,-33.000
2.204,-15.500,-75.000,-94.500,-33.500
2.205,-17.000,-77.000,-96.000,-34.000
2.206,-19.000,-80.000,-97.500,-34.000
2.207,-21.000,-82.000,-98.500,-34.000
2.208,-22.000,-83.000,-98.000,-33.000
2.209,-22.000,-82.000,-96.500,-31.000
2.210,-21.500,-79.500,-94.000,-29.000
2.211,-20.500,-76.000,-91.000,-26.500
2.212,-20.000,-73.000,-88.000,-24.000
2.213,-19.500,-70.500,-86.000,-23.000
2.214,-19.500,-69.500,-85.500,-23.000
2.215,-19.500,-69.500,-86.000,-24.000
2.216,-19.500,-70.500,-87.500,-26.000
2.217,-18.500,-71.500,-90.000,-28.500
2.218,-17.000,-73.000,-92.000,-30.500
2.219,-15.000,-73.500,-94.000,-32.000
2.220,-13.000,-73.500,-94.500,-33.000
2.221,-10.500,-73.000,-94.500,-33.500
2.222,-8.500,-72.000,-94.500,-33.500
2.223,-7.000,-70.500,-93.500,-33.500
2.224,-5.500,-69.500,-93.000,-33.500
2.225,-5.000,-68.500,-92.500,-33.000
2.226,-4.500,-67.500,-91.500,-32.500
2.227,-4.500,-67.000,-91.500,-32.000
2.228,-5.000,-67.000,-91.000,-31.000
2.229,-6.000,-67.000,-90.500,-30.500
2.230,-7.500,-67.000,-90.000,-29.500
2.231,-9.000,-67.500,-89.000,-28.000
2.232,-11.000,-67.500,-88.000,-27.000
2.233,-13.000,-67.500,-87.500,-26.000
2.234,-15.000,-68.000,-87.000,-25.500
2.235,-16.000,-68.500,-87.500,-26.000
2.236,-16.000,-68.500,-88.000,-26.500
2.237,-15.500,-69.000,-89.000,-27.000
2.238,-14.000,-69.000,-90.000,-28.000
2.239,-12.500,-69.500,-91.000,-28.500
2.240,-10.500,-70.000,-92.000,-29.500
2.241,-9.000,-71.500,-93.500,-30.000
2.242,-9.000,-74.500,-95.000,-31.000
2.243,-9.500,-77.500,-97.500,-32.500
2.244,-11.000,-81.500,-100.000,-34.000
2.245,-13.500,-84.500,-102.500,-35.500
2.246,-15.500,-86.000,-104.000,-36.500
2.247,-17.000,-86.500,-105.000,-37.000
2.248,-18.000,-85.000,-104.500,-36.000
2.249,-18.000,-82.500,-102.500,-34.000
2.250,-17.500,-78.500,-99.000,-31.500
2.251,-16.500,-74.500,-95.500,-28.000
2.252,-16.000,-70.500,-92.000,-25.500
2.253,-15.500,-67.500,-90.000,-23.500
2.254,-16.000,-66.000,-89.000,-24.000
2.255,-16.500,-66.000,-89.500,-26.000
2.256,-17.500,-67.500,-92.000,-29.500
2.257,-19.000,-70.000,-96.000,-34.000
2.258,-19.500,-72.500,-99.500,-38.000
2.259,-19.500,-74.500,-102.500,-41.500
2.260,-18.500,-76.000,-105.000,-43.500
2.261,-17.500,-77.000,-106.000,-44.000
2.262,-16.000,-77.000,-106.000,-43.500
2.263,-14.500,-76.500,-105.000,-42.500
2.264,-13.500,-75.500,-104.000,-41.500
2.265,-13.000,-75.000,-102.500,-40.500
2.266,-12.500,-74.500,-101.500,-39.500
2.267,-12.500,-74.000,-100.500,-38.000
2.268,-12.500,-74.000,-99.500,-37.000
2.269,-13.000,-73.500,-99.000,-36.500
2.270,-14.500,-73.500,-98.500,-36.000
2.271,-16.000,-73.500,-97.500,-35.000
2.272,-17.500,-73.000,-97.000,-34.500
2.273,-19.500,-73.000,-96.500,-33.500
2.274,-21.000,-73.500,-96.500,-33.500
2.275,-22.500,-74.000,-97.500,-34.500
2.276,-23.500,-75.500,-99.500,-35.500
2.277,-24.000,-77.000,-101.500,-38.000
2.278,-23.500,-78.500,-104.000,-40.000
2.279,-22.500,-79.500,-106.000,-42.000
2.280,-21.500,-80.500,-107.000,-43.000
2.281,-20.000,-81.000,-108.000,-44.000
2.282,-19.000,-81.000,-108.000,-44.500
2.283,-18.000,-80.500,-108.000,-44.500
2.284,-17.000,-80.000,-108.000,-44.500
2.285,-16.500,-79.500,-107.000,-44.000
2.286,-16.000,-78.500,-106.000,-43.000
2.287,-15.500,-77.500,-105.000,-41.500
2.288,-15.000,-76.500,-103.500,-39.500
2.289,-14.500,-75.500,-102.000,-37.500
2.290,-15.000,-75.000,-100.500,-35.000
2.291,-15.500,-74.000,-99.000,-33.000
2.292,-16.500,-72.500,-97.500,-31.500
2.293,-17.000,-71.500,-96.000,-30.000
2.294,-18.000,-71.000,-94.500,-29.500
2.295,-19.000,-71.000,-94.500,-29.000
2.296,-19.000,-71.500,-95.000,-30.000
2.297,-19.000,-72.000,-96.000,-31.000
2.298,-18.500,-73.000,-98.000,-33.000
2.299,-18.000,-74.000,-99.500,-34.500
2.300,-16.500,-75.000,-101.000,-35.500
2.301,-15.500,-75.000,-102.500,-36.500
2.302,-14.500,-75.500,-103.000,-36.500
2.303,-14.000,-75.500,-103.500,-36.500
2.304,-13.000,-75.000,-103.000,-36.500
2.305,-12.500,-75.000,-103.000,-36.500
2.306,-12.000,-74.500,-102.500,-36.000
2.307,-12.000,-74.500,-102.000,-35.500
2.308,-12.000,-74.500,-101.000,-35.000
2.309,-12.500,-74.000,-100.500,-34.500
2.310,-13.500,-74.000,-99.500,-33.500
2.311,-15.000,-73.500,-98.500,-32.500
2.312,-16.500,-73.000,-97.500,-32.000
2.313,-18.000,-73.000,-97.000,-31.500
2.314,-19.500,-73.000,-97.000,-31.500
2.315,-20.500,-74.000,-97.000,-32.000
2.316,-20.500,-75.000,-98.000,-32.500
2.317,-20.000,-76.000,-98.500,-33.000
2.318,-18.500,-77.000,-99.500,-33.500
2.319,-16.500,-77.000,-100.000,-33.500
2.320,-14.000,-76.500,-100.000,-33.500
2.321,-11.000,-74.500,-99.500,-33.000
2.322,-8.500,-72.500,-99.000,-32.500
2.323,-7.000,-71.000,-98.000,-32.000
2.324,-7.000,-70.500,-98.000,-32.000
2.325,-7.500,-70.500,-98.500,-32.500
2.326,-8.500,-71.000,-99.000,-33.500
2.327,-9.500,-71.000,-100.000,-35.000
2.328,-11.000,-71.500,-100.500,-35.500
2.329,-12.000,-71.500,-100.500,-36.500
2.330,-13.000,-71.000,-100.000,-36.500
2.331,-13.500,-71.000,-99.000,-36.000
2.332,-15.000,-70.500,-98.000,-35.000
2.333,-16.000,-70.500,-97.000,-34.000
2.334,-17.000,-70.000,-97.000,-33.500
2.335,-18.000,-70.500,-97.000,-34.000
2.336,-18.000,-70.500,-97.500,-34.500
2.337,-17.500,-71.500,-99.000,-35.000
2.338,-17.000,-72.000,-100.500,-36.500
2.339,-15.500,-73.500,-102.000,-37.500
2.340,-14.500,-74.500,-104.000,-39.000
2.341,-14.000,-76.000,-105.000,-40.000
2.342,-13.500,-77.500,-106.000,-40.500
2.343,-13.000,-79.000,-106.500,-40.500
2.344,-13.000,-79.000,-106.500,-40.000
2.345,-12.500,-78.500,-105.500,-39.000
2.346,-12.500,-77.000,-104.000,-38.000
2.347,-12.000,-75.000,-102.000,-36.000
2.348,-11.000,-72.500,-99.500,-34.000
2.349,-10.500,-69.500,-96.500,-31.500
2.350,-9.500,-66.000,-93.500,-28.500
2.351,-8.500,-63.000,-90.000,-25.500
2.352,-8.000,-60.500,-87.000,-23.000
2.353,-8.500,-59.000,-84.500,-21.500
2.354,-10.000,-59.500,-84.500,-21.500
2.355,-12.000,-61.000,-86.500,-23.500
2.356,-14.000,-65.000,-90.500,-27.000
2.357,-16.500,-69.500,-96.500,-32.000
2.358,-19.000,-75.000,-103.000,-37.500
2.359,-20.500,-80.500,-109.500,-43.000
2.360,-21.000,-84.000,-115.000,-47.500
2.361,-20.500,-87.000,-119.000,-51.000
2.362,-19.500,-88.500,-122.000,-53.000
2.363,-19.500,-89.500,-124.000,-54.000
2.364,-19.500,-91.000,-125.500,-54.000
2.365,-20.000,-92.000,-127.000,-54.500
2.366,-20.500,-92.500,-128.000,-54.500
2.367,-21.000,-93.000,-128.000,-54.000
2.368,-21.500,-92.500,-127.000,-53.500
2.369,-21.500,-92.000,-126.000,-53.000
2.370,-22.000,-91.500,-123.500,-51.500
2.371,-22.000,-89.500,-120.500,-49.500
2.372,-21.500,-87.000,-116.500,-46.500
2.373,-21.000,-84.000,-111.500,-43.500
2.374,-20.500,-81.000,-107.000,-40.500
2.375,-20.000,-79.000,-104.000,-39.500
2.376,-20.000,-78.000,-103.000,-39.500
2.377,-20.000,-78.000,-103.500,-40.500
2.378,-20.000,-79.000,-105.500,-43.000
2.379,-19.500,-80.000,-108.000,-45.000
2.380,-19.500,-81.000,-110.000,-46.500
2.381,-19.500,-82.000,-111.500,-46.500
2.382,-19.000,-82.000,-112.000,-46.000
2.383,-18.000,-81.500,-111.000,-44.000
2.384,-17.000,-81.000,-109.500,-41.000
2.385,-16.000,-79.500,-107.000,-38.000
2.386,-15.000,-78.000,-104.000,-35.500
2.387,-15.000,-76.500,-101.500,-32.500
2.388,-15.500,-75.000,-98.500,-29.000
2.389,-16.000,-73.000,-95.000,-25.000
2.390,-17.000,-70.500,-91.500,-20.500
2.391,-18.000,-68.500,-87.500,-16.000
2.392,-19.000,-67.000,-84.000,-12.000
2.393,-20.000,-66.000,-81.000,-8.000
2.394,-20.500,-65.500,-78.500,-5.000
2.395,-19.500,-64.000,-76.500,-1.500
2.396,-18.000,-63.000,-74.500,1.500
2.397,-15.500,-61.500,-73.500,4.000
2.398,-13.000,-60.500,-73.000,5.500
2.399,-11.000,-60.000,-73.500,6.500
2.400,-9.000,-60.000,-74.500,6.500
2.401,-7.500,-59.500,-75.500,5.500
2.402,-6.000,-59.000,-76.000,5.000
2.403,-5.000,-58.000,-76.500,4.000
2.404,-4.000,-57.500,-77.000,3.000
2.405,-4.000,-58.000,-78.000,1.000
2.406,-4.000,-59.500,-79.500,-1.500
2.407,-5.000,-61.500,-81.500,-4.500
2.408,-5.500,-63.000,-83.000,-7.500
2.409,-6.000,-64.500,-84.500,-10.500
2.410,-6.000,-64.500,-85.500,-13.500
2.411,-6.000,-64.000,-86.000,-16.000
2.412,-6.000,-63.500,-86.500,-18.000
2.413,-7.000,-63.000,-86.500,-20.000
2.414,-7.500,-62.500,-87.000,-21.500
2.415,-8.000,-62.500,-88.000,-23.000
2.416,-8.000,-62.000,-88.500,-24.500
2.417,-7.000,-61.500,-89.000,-25.500
2.418,-5.500,-61.000,-89.500,-26.000
2.419,-3.000,-60.500,-89.500,-26.500
2.420,-1.000,-60.500,-89.500,-26.000
2.421,0.500,-61.000,-90.000,-25.500
2.422,0.500,-62.000,-90.000,-25.000
2.423,0.500,-64.000,-91.000,-25.000
2.424,-0.500,-66.000,-91.500,-25.000
2.425,-1.000,-68.500,-92.500,-26.000
2.426,-2.000,-70.000,-93.500,-26.500
2.427,-3.000,-71.500,-94.500,-27.000
2.428,-4.000,-72.000,-95.000,-27.500
2.429,-6.000,-73.000,-95.500,-27.500
2.430,-8.000,-73.000,-95.500,-27.000
2.431,-10.000,-73.000,-95.000,-27.000
2.432,-12.500,-72.500,-95.000,-27.000
2.433,-15.000,-72.500,-94.500,-27.500
2.434,-17.000,-72.500,-95.000,-28.500
2.435,-18.000,-72.500,-96.000,-30.000
2.436,-18.500,-73.000,-97.000,-31.500
2.437,-18.500,-73.500,-98.500,-33.000
2.438,-18.000,-74.500,-100.500,-35.000
2.439,-18.000,-76.000,-102.500,-37.500
2.440,-18.000,-78.000,-105.000,-40.000
2.441,-18.000,-80.000,-107.500,-42.000
2.442,-18.000,-82.000,-109.000,-43.000
2.443,-18.000,-83.500,-109.500,-43.000
2.444,-17.500,-83.500,-109.000,-42.500
2.445,-17.000,-82.500,-108.000,-41.000
2.446,-16.000,-81.500,-106.500,-39.500
2.447,-14.500,-79.500,-105.000,-37.500
2.448,-13.500,-77.500,-103.500,-36.000
2.449,-12.000,-75.500,-102.000,-34.000
2.450,-11.500,-73.500,-100.000,-32.500
2.451,-11.000,-72.000,-98.000,-30.500
2.452,-12.000,-71.000,-97.000,-30.000
2.453,-13.500,-71.000,-97.000,-30.000
2.454,-15.500,-72.000,-97.500,-31.000
2.455,-18.000,-73.500,-99.500,-32.500
2.456,-19.000,-75.000,-101.500,-34.500
2.457,-20.000,-76.500,-104.000,-36.500
2.458,-20.000,-78.500,-106.000,-38.500
2.459,-19.500,-80.500,-108.500,-40.500
2.460,-19.000,-82.000,-111.000,-42.000
2.461,-18.500,-83.500,-112.500,-43.000
2.462,-18.000,-84.000,-114.000,-43.500
2.463,-17.000,-84.500,-114.500,-43.500
2.464,-16.500,-84.500,-115.000,-43.000
2.465,-15.500,-84.000,-115.000,-42.000
2.466,-14.500,-83.500,-114.000,-41.500
2.467,-13.500,-82.500,-113.000,-41.000
2.468,-13.000,-81.500,-111.500,-40.500
2.469,-13.000,-80.000,-109.500,-40.000
2.470,-13.000,-78.500,-107.500,-39.000
2.471,-13.500,-77.500,-105.000,-38.000
2.472,-14.500,-76.000,-102.500,-36.500
2.473,-15.500,-75.000,-100.500,-35.000
2.474,-16.500,-74.500,-99.000,-34.500
2.475,-17.000,-74.000,-98.000,-34.000
2.476,-17.500,-74.500,-98.500,-34.000
2.477,-17.500,-75.500,-99.500,-34.500
2.478,-17.000,-77.000,-101.500,-35.500
2.479,-16.500,-78.500,-103.500,-36.500
2.480,-15.500,-79.500,-105.000,-38.000
2.481,-15.000,-80.000,-106.500,-39.500
2.482,-14.000,-80.500,-107.000,-41.000
2.483,-13.000,-80.500,-107.500,-42.000
2.484,-12.500,-80.500,-107.500,-42.000
2.485,-12.000,-80.000,-107.000,-42.000
2.486,-11.000,-79.000,-106.000,-41.000
2.487,-10.500,-78.000,-104.500,-39.500
2.488,-10.000,-76.500,-102.500,-37.500
2.489,-9.500,-75.000,-101.000,-35.500
2.490,-9.500,-74.000,-99.000,-33.500
2.491,-10.000,-73.000,-97.000,-31.000
2.492,-11.500,-72.500,-95.500,-29.000
2.493,-13.000,-72.500,-95.000,-28.000
2.494,-14.500,-73.500,-95.000,-27.500
2.495,-16.000,-74.500,-96.000,-29.000
2.496,-17.000,-76.000,-98.000,-31.500
2.497,-18.000,-77.500,-100.000,-34.500
2.498,-18.000,-79.000,-102.500,-37.000
2.499,-17.500,-80.000,-104.500,-39.500
2.500,-16.500,-81.000,-106.500,-41.000
2.501,-15.500,-81.500,-107.500,-42.500
2.502,-14.500,-81.500,-108.500,-43.000
2.503,-13.500,-81.500,-109.000,-43.000
2.504,-13.000,-81.500,-109.000,-43.000
2.505,-12.500,-81.000,-109.000,-42.500
2.506,-12.000,-80.500,-108.000,-42.000
2.507,-12.000,-80.000,-107.000,-41.000
2.508,-11.500,-79.500,-105.500,-39.500
2.509,-12.000,-79.000,-103.500,-38.000
2.510,-12.500,-78.500,-102.000,-36.500
2.511,-13.500,-78.000,-100.500,-34.500
2.512,-15.000,-77.500,-98.500,-32.500
2.513,-17.000,-77.500,-97.500,-31.000
2.514,-19.000,-78.000,-97.000,-30.500
2.515,-21.000,-78.500,-97.000,-30.000
2.516,-21.500,-79.500,-98.000,-30.000
2.517,-22.000,-80.500,-99.500,-31.500
2.518,-21.500,-81.500,-101.500,-33.000
2.519,-20.500,-82.500,-103.500,-35.000
2.520,-19.500,-83.500,-105.500,-37.000
2.521,-18.500,-84.000,-107.000,-38.500
2.522,-17.000,-83.500,-107.500,-39.500
2.523,-15.500,-82.500,-107.000,-39.000
2.524,-13.000,-81.000,-105.500,-38.000
2.525,-11.000,-79.000,-103.500,-36.500
2.526,-9.000,-77.500,-101.500,-34.500
2.527,-7.500,-76.500,-100.000,-33.000
2.528,-7.000,-76.000,-98.500,-31.500
2.529,-7.500,-76.000,-97.500,-31.000
2.530,-9.000,-76.000,-96.500,-30.000
2.531,-11.500,-76.500,-96.500,-30.000
2.532,-15.500,-77.500,-97.000,-30.000
2.533,-20.000,-80.000,-98.000,-31.500
2.534,-24.500,-83.000,-100.500,-33.500
2.535,-28.000,-86.000,-103.000,-36.000
2.536,-30.000,-88.000,-105.500,-38.000
2.537,-31.000,-90.500,-108.000,-40.000
2.538,-31.500,-93.000,-110.500,-42.000
2.539,-31.000,-95.000,-112.500,-44.000
2.540,-30.500,-96.500,-114.500,-45.000
2.541,-29.500,-97.000,-115.000,-45.500
2.542,-28.500,-97.000,-114.500,-45.500
2.543,-27.500,-95.500,-113.500,-44.500
2.544,-26.000,-93.500,-112.000,-43.500
2.545,-24.500,-90.500,-110.000,-42.000
2.546,-22.500,-87.500,-108.000,-41.000
2.547,-20.500,-84.000,-106.000,-40.000
2.548,-18.500,-81.000,-104.000,-38.500
2.549,-16.500,-78.500,-102.500,-36.500
2.550,-14.500,-76.000,-101.000,-35.000
2.551,-13.000,-74.000,-99.000,-33.000
2.552,-12.000,-71.500,-97.000,-31.000
2.553,-11.500,-69.500,-94.500,-29.500
2.554,-11.500,-68.500,-93.000,-29.000
2.555,-12.000,-68.000,-92.500,-29.000
2.556,-12.000,-68.000,-93.000,-29.500
2.557,-12.000,-69.000,-94.000,-30.500
2.558,-11.000,-70.000,-95.500,-32.000
2.559,-10.500,-71.500,-97.500,-33.500
2.560,-9.500,-72.500,-99.000,-34.500
2.561,-8.500,-73.500,-100.000,-35.500
2.562,-7.500,-73.500,-100.500,-36.000
2.563,-7.000,-74.000,-101.000,-36.000
2.564,-7.000,-74.000,-100.500,-35.500
2.565,-7.000,-73.500,-100.000,-35.000
2.566,-7.000,-73.500,-99.000,-33.500
2.567,-7.000,-72.500,-97.500,-32.000
2.568,-7.000,-71.500,-95.500,-29.500
2.569,-7.000,-70.500,-93.000,-27.000
2.570,-7.000,-69.000,-90.500,-23.500
2.571,-7.000,-67.500,-87.500,-20.500
2.572,-6.500,-66.000,-85.000,-18.000
2.573,-7.000,-65.000,-83.500,-16.500
2.574,-7.500,-65.500,-83.500,-16.500
2.575,-9.000,-67.000,-85.500,-18.500
2.576,-11.000,-69.500,-89.500,-22.000
2.577,-13.000,-73.000,-94.000,-26.000
2.578,-14.500,-76.500,-99.000,-31.000
2.579,-14.500,-79.000,-103.000,-35.500
2.580,-14.000,-80.500,-105.500,-38.500
2.581,-13.000,-81.000,-106.500,-40.000
2.582,-11.000,-80.000,-106.000,-39.500
2.583,-9.500,-78.500,-104.000,-38.500
2.584,-8.000,-77.000,-102.000,-36.500
2.585,-7.000,-75.500,-99.500,-35.000
2.586,-6.500,-74.500,-98.000,-33.000
2.587,-6.000,-73.500,-97.000,-32.000
2.588,-6.500,-73.000,-96.000,-31.000
2.589,-7.000,-73.000,-95.500,-30.000
2.590,-8.000,-72.500,-95.500,-28.500
2.591,-9.500,-72.500,-94.500,-27.500
2.592,-11.000,-72.500,-94.000,-27.000
2.593,-12.500,-72.500,-93.500,-26.500
2.594,-13.500,-72.500,-93.500,-26.500
2.595,-14.000,-72.500,-93.500,-27.000
2.596,-14.000,-73.000,-94.000,-27.500
2.597,-13.000,-73.000,-94.500,-28.000
2.598,-12.000,-73.000,-95.000,-28.500
2.599,-10.500,-73.500,-96.000,-30.000
2.600,-9.500,-74.500,-97.000,-31.000
2.601,-10.000,-76.000,-98.500,-33.000
2.602,-10.500,-77.500,-99.500,-34.500
2.603,-11.500,-79.000,-101.000,-36.000
2.604,-12.500,-80.000,-101.500,-36.500
2.605,-13.000,-81.000,-102.000,-37.000
2.606,-13.500,-81.000,-101.500,-36.500
2.607,-13.500,-81.000,-101.000,-36.000
2.608,-13.500,-80.500,-100.500,-35.000
2.609,-14.000,-80.000,-99.500,-34.000
2.610,-15.000,-79.500,-99.000,-33.000
2.611,-16.000,-79.000,-98.000,-32.000
2.612,-18.000,-78.500,-97.500,-31.500
2.613,-19.500,-78.000,-96.500,-31.500
2.614,-21.000,-78.000,-96.500,-31.500
2.615,-22.000,-78.000,-96.500,-32.000
2.616,-22.500,-78.500,-97.000,-33.000
2.617,-22.000,-79.000,-98.500,-34.000
2.618,-21.000,-79.500,-100.000,-35.500
2.619,-19.500,-80.500,-101.500,-37.000
2.620,-18.000,-81.500,-103.000,-38.000
2.621,-17.000,-82.000,-104.500,-39.000
2.622,-16.000,-83.000,-105.500,-39.500
2.623,-15.500,-83.500,-106.000,-40.000
2.624,-14.500,-84.000,-106.000,-40.000
2.625,-14.000,-84.000,-105.500,-39.500
2.626,-13.000,-83.500,-105.000,-39.000
2.627,-12.500,-83.000,-104.500,-38.000
2.628,-12.000,-82.000,-103.500,-37.000
2.629,-12.000,-81.500,-102.500,-36.000
2.630,-12.500,-81.000,-101.500,-34.500
2.631,-13.500,-80.000,-100.000,-33.500
2.632,-15.000,-79.500,-99.000,-32.000
2.633,-16.500,-79.500,-98.000,-31.500
2.634,-18.000,-79.000,-97.500,-31.000
2.635,-19.000,-79.500,-97.500,-30.500
2.636,-19.000,-79.500,-97.500,-31.000
2.637,-18.000,-80.000,-98.000,-31.000
2.638,-16.500,-80.000,-99.000,-32.000
2.639,-14.500,-79.500,-100.000,-32.500
2.640,-12.000,-79.000,-100.500,-33.500
2.641,-9.500,-78.000,-101.000,-34.000
2.642,-7.000,-77.000,-101.000,-34.500
2.643,-5.500,-76.000,-101.000,-35.500
2.644,-4.000,-75.500,-101.000,-36.500
2.645,-3.500,-75.500,-101.000,-37.500
2.646,-3.500,-75.500,-100.500,-37.500
2.647,-4.000,-76.000,-100.500,-37.000
2.648,-4.000,-76.000,-99.500,-36.000
2.649,-4.500,-75.500,-98.000,-34.000
2.650,-5.000,-75.000,-96.000,-32.000
2.651,-6.000,-74.500,-94.500,-30.500
2.652,-7.500,-74.000,-93.500,-29.500
2.653,-10.000,-74.500,-93.500,-29.000
2.654,-12.500,-75.500,-94.000,-29.500
2.655,-14.500,-76.500,-95.000,-30.500
2.656,-16.000,-78.000,-96.500,-32.000
2.657,-17.000,-80.000,-99.000,-34.500
2.658,-17.500,-82.000,-102.000,-37.500
2.659,-18.000,-84.000,-105.000,-40.500
2.660,-18.000,-85.500,-108.000,-43.500
2.661,-17.500,-86.500,-110.000,-45.500
2.662,-15.500,-86.500,-110.500,-46.500
2.663,-13.500,-85.500,-110.500,-46.000
2.664,-11.500,-84.000,-109.500,-45.000
2.665,-9.500,-82.500,-108.000,-44.000
2.666,-8.500,-81.500,-106.500,-42.000
2.667,-7.500,-80.000,-104.500,-40.500
2.668,-7.500,-79.000,-103.000,-39.000
2.669,-7.500,-78.500,-101.500,-38.000
2.670,-8.000,-78.000,-100.000,-36.500
2.671,-9.500,-78.000,-98.500,-35.000
2.672,-12.000,-78.500,-97.500,-33.500
2.673,-15.500,-80.500,-97.000,-33.000
2.674,-19.500,-84.000,-97.500,-33.000
2.675,-23.500,-88.500,-99.000,-34.000
2.676,-27.000,-94.000,-102.000,-35.500
2.677,-29.500,-99.000,-105.000,-37.500
2.678,-30.500,-102.500,-108.000,-39.000
2.679,-30.500,-104.000,-110.500,-40.500
2.680,-29.000,-103.500,-112.000,-41.000
2.681,-27.500,-101.500,-113.000,-41.000
2.682,-25.000,-97.500,-113.000,-40.500
2.683,-22.000,-92.500,-112.000,-40.000
2.684,-19.000,-87.000,-110.000,-40.000
2.685,-16.000,-82.500,-108.500,-40.000
2.686,-14.000,-79.500,-107.000,-40.500
2.687,-13.000,-77.500,-105.500,-41.000
2.688,-12.000,-76.500,-104.000,-41.000
2.689,-11.000,-75.500,-102.500,-40.500
2.690,-10.000,-75.000,-100.500,-39.500
2.691,-9.500,-74.000,-99.000,-38.000
2.692,-9.500,-73.500,-97.500,-36.000
2.693,-9.500,-73.000,-97.000,-35.000
2.694,-9.500,-72.500,-96.500,-34.500
2.695,-9.500,-72.000,-97.000,-34.500
2.696,-9.000,-71.500,-97.500,-35.000
2.697,-8.000,-71.000,-98.000,-35.500
2.698,-6.500,-71.000,-98.500,-36.500
2.699,-4.500,-71.500,-99.000,-37.000
2.700,-2.500,-71.500,-99.500,-37.500
2.701,-1.500,-72.000,-100.000,-38.000
2.702,-0.500,-72.000,-100.500,-38.500
2.703,0.500,-72.500,-101.000,-39.000
2.704,0.500,-72.500,-101.000,-39.000
2.705,0.500,-73.000,-101.500,-39.000
2.706,0.000,-73.000,-101.000,-38.000
2.707,-0.500,-73.500,-101.000,-37.500
2.708,-0.500,-73.500,-100.500,-36.500
2.709,-1.500,-73.000,-99.500,-35.500
2.710,-2.500,-72.500,-98.500,-34.000
2.711,-3.500,-72.000,-97.000,-33.000
2.712,-4.500,-71.500,-95.500,-32.000
2.713,-6.000,-71.000,-94.500,-31.000
2.714,-7.500,-71.000,-94.000,-30.500
2.715,-9.000,-71.500,-94.500,-31.000
2.716,-9.500,-72.500,-95.500,-32.000
2.717,-10.000,-74.000,-97.000,-33.500
2.718,-10.000,-75.000,-98.500,-35.500
2.719,-9.000,-76.500,-100.500,-37.500
2.720,-8.000,-77.500,-102.000,-39.000
2.721,-6.500,-78.000,-103.500,-40.000
2.722,-6.000,-78.000,-104.000,-40.500
2.723,-5.000,-78.000,-104.500,-40.500
2.724,-4.500,-78.000,-104.500,-40.000
2.725,-4.500,-78.000,-104.500,-40.000
2.726,-4.500,-77.500,-104.500,-40.000
2.727,-4.500,-77.500,-104.000,-39.500
2.728,-4.500,-77.000,-103.500,-39.000
2.729,-5.000,-77.000,-102.500,-38.000
2.730,-6.000,-76.500,-101.500,-36.500
2.731,-7.000,-76.000,-100.000,-35.000
2.732,-8.500,-75.500,-98.500,-33.500
2.733,-9.500,-74.500,-97.000,-32.000
2.734,-10.500,-74.000,-96.500,-31.000
2.735,-11.000,-74.000,-96.500,-31.000
2.736,-11.000,-74.500,-97.500,-31.500
2.737,-10.500,-75.500,-99.000,-32.500
2.738,-10.000,-76.000,-101.000,-34.000
2.739,-8.500,-77.000,-102.500,-35.000
2.740,-7.000,-78.000,-104.000,-36.500
2.741,-6.000,-78.500,-105.000,-38.000
2.742,-5.500,-79.500,-106.000,-39.500
2.743,-6.000,-80.500,-107.000,-41.000
2.744,-6.500,-81.500,-108.000,-42.000
2.745,-8.000,-82.500,-109.000,-43.000
2.746,-8.500,-83.000,-109.000,-43.500
2.747,-9.500,-83.000,-108.000,-42.500
2.748,-10.000,-82.500,-107.000,-41.500
2.749,-10.000,-81.500,-105.500,-40.000
2.750,-10.500,-80.000,-103.500,-38.000
2.751,-11.000,-79.000,-101.500,-36.000
2.752,-12.000,-77.500,-99.500,-34.500
2.753,-13.000,-77.000,-97.500,-33.000
2.754,-14.000,-76.000,-96.500,-32.000
2.755,-14.500,-76.000,-96.000,-32.000
2.756,-14.000,-75.500,-95.500,-32.000
2.757,-13.000,-75.500,-95.500,-32.000
2.758,-11.000,-74.500,-95.500,-32.000
2.759,-8.000,-73.500,-95.000,-31.500
2.760,-5.000,-72.000,-94.500,-30.500
2.761,-3.000,-71.500,-94.000,-30.000
2.762,-1.500,-71.500,-94.500,-29.500
2.763,-1.500,-73.000,-96.000,-30.000
2.764,-3.000,-75.500,-99.000,-31.500
2.765,-5.500,-79.000,-103.000,-34.500
2.766,-8.000,-82.500,-107.500,-38.500
2.767,-11.000,-86.000,-111.500,-42.500
2.768,-13.500,-89.000,-114.500,-46.000
2.769,-15.500,-90.500,-116.500,-48.500
2.770,-17.000,-91.000,-117.000,-50.000
2.771,-19.000,-91.000,-117.000,-50.500
2.772,-21.000,-91.500,-116.500,-51.000
2.773,-23.500,-92.000,-116.500,-51.000
2.774,-25.500,-93.000,-116.500,-51.000
2.775,-27.500,-94.000,-117.000,-51.000
2.776,-28.000,-95.000,-118.000,-51.000
2.777,-27.500,-95.000,-118.000,-50.500
2.778,-25.500,-94.500,-118.000,-50.000
2.779,-22.000,-92.500,-116.500,-49.000
2.780,-17.500,-89.000,-113.500,-46.500
2.781,-12.500,-85.500,-110.500,-43.500
2.782,-8.500,-82.000,-107.000,-40.500
2.783,-6.000,-79.500,-104.500,-38.500
2.784,-4.500,-78.000,-102.500,-37.000
2.785,-4.000,-77.500,-101.500,-36.000
2.786,-4.500,-77.500,-101.500,-35.500
2.787,-5.500,-78.000,-101.000,-35.500
2.788,-6.500,-78.500,-101.500,-35.500
2.789,-8.500,-79.000,-101.000,-35.500
2.790,-10.000,-79.000,-101.000,-35.000
2.791,-11.500,-79.500,-100.500,-34.000
2.792,-13.000,-79.000,-99.500,-33.500
2.793,-14.500,-79.000,-98.500,-32.500
2.794,-16.000,-79.000,-98.000,-32.000
2.795,-17.000,-79.500,-98.000,-31.500
2.796,-17.000,-79.500,-98.500,-31.500
2.797,-17.000,-80.000,-99.500,-32.500
2.798,-16.000,-80.500,-100.500,-34.000
2.799,-15.000,-81.000,-102.000,-35.500
2.800,-14.000,-82.000,-103.500,-37.500
2.801,-13.500,-83.000,-105.500,-39.500
2.802,-13.500,-84.500,-107.500,-41.000
2.803,-13.500,-85.500,-109.500,-42.500
2.804,-14.000,-87.000,-111.000,-43.500
2.805,-14.000,-88.000,-112.500,-44.000
2.806,-13.500,-88.000,-112.500,-44.000
2.807,-13.000,-87.500,-112.000,-43.000
2.808,-12.000,-86.500,-110.500,-42.000
2.809,-11.500,-85.500,-108.500,-41.000
2.810,-11.000,-84.500,-106.500,-39.500
2.811,-11.000,-83.000,-104.500,-38.000
2.812,-11.000,-82.000,-102.000,-36.000
2.813,-11.500,-80.500,-100.000,-34.000
2.814,-12.500,-80.000,-98.500,-32.500
2.815,-13.000,-79.500,-97.500,-31.000
2.816,-14.000,-80.000,-98.000,-31.000
2.817,-15.000,-81.500,-99.500,-32.000
2.818,-16.500,-84.000,-102.000,-34.000
2.819,-17.000,-87.000,-105.000,-36.500
2.820,-18.000,-90.000,-107.500,-39.000
2.821,-18.000,-92.500,-110.000,-41.000
2.822,-17.500,-94.500,-111.000,-42.000
2.823,-16.500,-95.000,-111.500,-42.000
2.824,-16.000,-94.500,-111.000,-41.500
2.825,-16.000,-94.000,-111.000,-41.000
2.826,-16.000,-93.500,-111.000,-41.000
2.827,-17.000,-93.000,-111.000,-41.000
2.828,-17.500,-91.500,-110.500,-41.000
2.829,-17.500,-88.500,-109.500,-41.000
2.830,-17.500,-85.000,-108.000,-40.000
2.831,-17.500,-81.500,-105.500,-38.500
2.832,-17.500,-78.500,-103.000,-37.000
2.833,-18.500,-76.500,-101.500,-35.500
2.834,-19.500,-76.500,-100.500,-35.000
2.835,-20.500,-78.500,-101.000,-35.500
2.836,-20.500,-81.000,-102.500,-37.000
2.837,-20.000,-84.000,-105.000,-38.500
2.838,-19.000,-87.000,-108.000,-40.500
2.839,-17.500,-89.500,-111.000,-42.500
2.840,-16.500,-91.000,-113.500,-44.500
2.841,-14.500,-91.000,-115.000,-46.000
2.842,-13.000,-90.000,-116.000,-47.000
2.843,-11.500,-88.500,-115.500,-47.500
2.844,-9.500,-86.500,-114.500,-47.000
2.845,-8.000,-84.000,-113.000,-46.000
2.846,-7.000,-82.000,-111.500,-44.000
2.847,-6.000,-80.500,-110.000,-42.500
2.848,-5.500,-79.500,-108.500,-40.000
2.849,-5.000,-78.500,-106.500,-38.000
2.850,-5.500,-77.500,-104.500,-36.000
2.851,-6.000,-77.500,-103.000,-34.000
2.852,-7.500,-78.500,-102.500,-32.500
2.853,-9.500,-79.500,-102.000,-31.500
2.854,-12.000,-81.500,-103.000,-31.500
2.855,-14.000,-83.500,-104.500,-32.500
2.856,-15.500,-85.500,-107.000,-34.500
2.857,-17.000,-87.500,-110.000,-37.000
2.858,-17.500,-89.000,-113.000,-40.000
2.859,-17.500,-90.000,-116.000,-42.500
2.860,-17.500,-91.000,-118.500,-45.000
2.861,-17.000,-91.000,-120.000,-46.500
2.862,-16.000,-91.000,-120.500,-47.000
2.863,-15.500,-90.500,-120.000,-47.500
2.864,-14.500,-89.500,-119.000,-47.000
2.865,-13.500,-88.500,-118.000,-46.500
2.866,-13.000,-87.500,-117.000,-46.500
2.867,-13.000,-87.000,-116.000,-47.000
2.868,-13.500,-87.000,-115.500,-48.500
2.869,-14.500,-87.500,-115.000,-49.500
2.870,-15.500,-88.000,-114.500,-50.500
2.871,-17.500,-88.500,-114.000,-50.500
2.872,-19.500,-89.500,-113.500,-50.000
2.873,-22.000,-90.500,-113.000,-49.500
2.874,-24.500,-91.500,-113.500,-49.000
2.875,-26.000,-93.000,-114.000,-48.500
2.876,-27.000,-94.000,-115.000,-48.500
2.877,-27.000,-94.500,-116.000,-48.000
2.878,-26.000,-94.500,-116.000,-47.500
2.879,-23.500,-93.000,-116.000,-46.000
2.880,-20.500,-91.500,-114.500,-44.000
2.881,-17.000,-89.000,-112.500,-41.000
2.882,-14.000,-86.000,-110.000,-37.500
2.883,-11.500,-83.000,-106.500,-33.000
2.884,-9.500,-80.500,-103.000,-28.000
2.885,-7.500,-77.500,-99.500,-23.500
2.886,-6.000,-75.000,-96.000,-18.500
2.887,-4.000,-72.500,-92.000,-14.000
2.888,-2.500,-69.500,-88.000,-9.000
2.889,-1.000,-66.000,-83.500,-4.000
2.890,0.000,-63.000,-79.500,1.000
2.891,0.500,-60.500,-75.500,5.000
2.892,-0.500,-59.000,-72.500,9.000
2.893,-1.500,-58.000,-71.000,11.000
2.894,-3.500,-57.500,-70.000,12.500
2.895,-5.000,-58.500,-71.000,12.000
2.896,-6.500,-59.500,-72.500,10.000
2.897,-8.000,-61.500,-75.500,6.500
2.898,-9.000,-64.000,-79.500,1.500
2.899,-9.500,-66.500,-83.500,-4.000
2.900,-10.000,-69.500,-87.500,-9.500
2.901,-10.000,-72.000,-91.500,-14.500
2.902,-10.000,-74.500,-96.000,-19.500
2.903,-10.000,-77.000,-99.500,-24.500
2.904,-10.000,-79.000,-103.500,-28.500
2.905,-9.500,-81.000,-106.500,-31.500
2.906,-9.000,-82.500,-108.500,-34.000
2.907,-8.000,-83.000,-109.500,-35.500
2.908,-7.000,-83.000,-110.000,-36.000
2.909,-6.500,-82.500,-109.000,-36.500
2.910,-6.000,-81.000,-107.500,-36.000
2.911,-7.000,-80.000,-105.500,-35.000
2.912,-8.500,-79.500,-104.000,-33.500
2.913,-10.500,-79.500,-103.000,-32.500
2.914,-13.000,-81.000,-103.000,-32.500
2.915,-15.500,-82.500,-104.000,-32.500
2.916,-17.500,-84.500,-105.500,-34.000
2.917,-19.000,-86.000,-107.500,-35.500
2.918,-19.000,-87.500,-109.500,-37.500
2.919,-18.000,-88.500,-111.500,-39.000
2.920,-16.500,-89.000,-113.000,-40.500
2.921,-14.500,-89.000,-114.000,-41.500
2.922,-12.500,-88.500,-114.500,-42.500
2.923,-11.500,-89.000,-115.000,-43.000
2.924,-11.000,-89.500,-116.000,-43.000
2.925,-11.500,-91.500,-117.000,-43.000
2.926,-12.500,-94.000,-118.500,-43.000
2.927,-14.500,-97.000,-120.500,-43.500
2.928,-17.000,-100.000,-122.500,-43.500
2.929,-19.500,-102.000,-124.000,-43.500
2.930,-22.500,-103.000,-124.500,-43.500
2.931,-24.500,-102.500,-124.500,-43.500
2.932,-26.500,-102.000,-123.500,-43.500
2.933,-28.000,-101.000,-122.000,-43.000
2.934,-28.000,-99.500,-120.500,-42.500
2.935,-27.000,-98.000,-119.500,-42.000
2.936,-25.000,-95.500,-118.000,-41.500
2.937,-22.000,-92.500,-116.500,-41.000
2.938,-18.500,-90.000,-115.500,-41.500
2.939,-15.500,-88.000,-114.500,-42.000
2.940,-13.000,-86.500,-114.000,-42.500
2.941,-11.500,-85.500,-114.500,-43.500
2.942,-10.500,-85.000,-114.500,-44.500
2.943,-10.000,-84.500,-114.500,-45.000
2.944,-9.000,-83.500,-114.000,-44.500
2.945,-8.500,-83.000,-113.500,-43.500
2.946,-7.500,-82.000,-112.500,-42.500
2.947,-7.000,-81.000,-111.000,-41.000
2.948,-7.000,-80.500,-109.500,-39.000
2.949,-7.000,-80.000,-108.500,-37.500
2.950,-8.000,-79.500,-107.000,-35.500
2.951,-9.500,-79.000,-105.500,-34.000
2.952,-11.500,-79.000,-104.500,-33.000
2.953,-14.000,-78.500,-103.500,-32.000
2.954,-15.500,-79.000,-103.500,-31.500
2.955,-16.500,-79.000,-103.500,-31.500
2.956,-16.500,-79.000,-104.000,-31.500
2.957,-15.500,-79.000,-104.500,-32.000
2.958,-14.000,-79.500,-105.000,-32.500
2.959,-12.000,-80.000,-106.000,-33.000
2.960,-10.000,-80.500,-107.000,-33.000
2.961,-8.000,-81.000,-108.000,-33.000
2.962,-6.500,-82.000,-109.500,-33.500
2.963,-5.500,-83.000,-111.000,-33.500
2.964,-5.500,-85.000,-113.000,-34.500
2.965,-6.000,-86.000,-114.500,-35.500
2.966,-7.000,-87.500,-116.000,-36.500
2.967,-8.500,-88.500,-116.500,-37.000
2.968,-10.000,-89.000,-117.000,-37.500
2.969,-11.000,-88.500,-116.500,-37.500
2.970,-12.000,-88.000,-115.500,-36.500
2.971,-13.000,-87.500,-113.500,-36.000
2.972,-14.000,-87.000,-112.000,-35.000
2.973,-15.500,-87.500,-111.000,-35.000
2.974,-17.000,-89.000,-111.500,-35.500
2.975,-19.000,-91.000,-112.500,-37.000
2.976,-20.500,-94.000,-114.500,-39.000
2.977,-21.500,-96.000,-117.000,-41.000
2.978,-22.000,-98.000,-119.500,-43.000
2.979,-21.500,-98.500,-121.500,-44.000
2.980,-20.500,-98.500,-123.000,-45.000
2.981,-19.000,-97.500,-123.500,-45.000
2.982,-18.000,-96.500,-123.500,-45.000
2.983,-17.000,-95.000,-123.000,-45.500
2.984,-16.500,-94.500,-122.500,-46.000
2.985,-16.000,-94.000,-122.000,-46.500
2.986,-15.500,-93.500,-121.500,-46.500
2.987,-15.000,-92.500,-120.500,-45.500
2.988,-14.000,-91.500,-119.500,-44.000
2.989,-13.500,-90.000,-118.000,-42.500
2.990,-13.500,-89.000,-116.500,-40.500
2.991,-14.000,-87.500,-114.500,-38.500
2.992,-15.000,-86.000,-112.500,-36.500
2.993,-16.000,-85.000,-111.000,-35.000
2.994,-17.000,-84.000,-110.000,-34.000
2.995,-18.000,-84.000,-109.500,-34.000
2.996,-19.000,-84.000,-109.500,-34.000
2.997,-19.500,-85.000,-110.500,-35.000
2.998,-19.500,-86.000,-112.000,-36.500
2.999,-19.000,-87.000,-113.500,-38.000
3.000,-17.500,-87.500,-115.000,-39.000
3.001,-15.500,-87.000,-116.000,-39.500
3.002,-14.000,-87.000,-116.500,-40.000
3.003,-12.500,-86.500,-116.500,-40.000
3.004,-11.500,-86.500,-116.500,-40.000
3.005,-11.000,-86.500,-116.500,-40.000
3.006,-10.000,-86.000,-116.500,-40.000
3.007,-9.000,-85.000,-115.500,-39.500
3.008,-8.500,-84.000,-114.500,-38.500
3.009,-7.500,-83.000,-113.500,-37.500
3.010,-7.500,-81.500,-111.500,-36.000
3.011,-8.000,-80.500,-110.000,-34.500
3.012,-8.500,-79.500,-108.000,-32.500
3.013,-10.500,-79.000,-107.000,-31.500
3.014,-12.000,-79.500,-107.000,-31.500
3.015,-14.500,-81.000,-108.000,-32.500
3.016,-16.000,-82.500,-110.000,-34.500
3.017,-17.000,-84.500,-112.500,-36.500
3.018,-17.500,-86.500,-115.000,-38.500
3.019,-17.000,-88.000,-117.000,-40.500
3.020,-16.000,-88.500,-118.500,-42.000
3.021,-14.500,-89.000,-119.500,-42.500
3.022,-13.500,-89.000,-120.000,-43.000
3.023,-12.500,-89.000,-120.500,-43.000
3.024,-12.000,-89.000,-121.000,-42.500
3.025,-12.000,-89.000,-121.000,-42.000
3.026,-12.000,-89.000,-120.500,-41.500
3.027,-12.000,-88.500,-120.000,-41.000
3.028,-12.000,-88.500,-119.500,-40.500
3.029,-12.500,-88.000,-118.500,-39.500
3.030,-13.500,-87.000,-117.000,-38.500
3.031,-14.500,-86.500,-115.000,-37.000
3.032,-16.000,-86.000,-113.500,-35.500
3.033,-18.000,-86.000,-112.000,-34.500
3.034,-19.500,-85.500,-111.000,-33.500
3.035,-20.000,-85.500,-111.000,-33.000
3.036,-20.500,-85.500,-111.000,-33.500
3.037,-20.000,-86.000,-112.500,-34.500
3.038,-19.000,-86.500,-114.000,-36.000
3.039,-18.000,-87.500,-116.000,-37.500
3.040,-17.000,-88.500,-118.000,-39.000
3.041,-16.000,-89.500,-119.500,-40.000
3.042,-15.500,-90.500,-120.500,-40.500
3.043,-14.500,-90.500,-120.500,-40.500
3.044,-14.000,-89.500,-119.500,-40.000
3.045,-12.500,-88.500,-118.500,-39.000
3.046,-11.500,-87.000,-117.000,-37.000
3.047,-10.000,-85.000,-114.500,-35.000
3.048,-8.500,-83.500,-112.500,-32.000
3.049,-7.500,-81.500,-110.000,-29.500
3.050,-7.500,-80.500,-108.000,-27.500
3.051,-8.500,-80.000,-106.500,-26.500
3.052,-11.000,-80.500,-106.500,-26.000
3.053,-14.500,-82.500,-107.500,-26.500
3.054,-18.000,-85.000,-109.000,-28.000
3.055,-21.500,-88.500,-111.500,-30.000
3.056,-24.500,-92.500,-114.000,-32.000
3.057,-26.500,-96.000,-116.500,-34.000
