'Elapsed time','AECG1','AECG2','AECG3','AECG4'
'seconds','uV','uV','uV','uV'
0.000,5.000,-25.000,-26.500,-22.000
0.001,5.000,-23.500,-25.500,-21.000
0.002,5.000,-23.000,-25.500,-20.500
0.003,5.000,-22.000,-25.000,-20.000
0.004,5.500,-21.500,-24.500,-19.500
0.005,6.000,-21.500,-24.500,-18.500
0.006,6.500,-22.000,-24.500,-18.500
0.007,6.500,-22.500,-24.000,-18.500
0.008,6.500,-23.500,-24.500,-18.500
0.009,6.500,-24.000,-24.500,-18.500
0.010,7.000,-25.000,-25.000,-19.000
0.011,7.000,-26.000,-25.000,-19.000
0.012,7.000,-26.500,-25.500,-19.500
0.013,7.000,-27.000,-25.500,-20.000
0.014,7.000,-27.000,-25.500,-20.000
0.015,7.000,-27.000,-25.000,-20.000
0.016,7.500,-26.500,-25.000,-20.500
0.017,8.000,-26.000,-24.500,-20.000
0.018,8.000,-25.000,-24.000,-20.000
0.019,8.000,-24.500,-23.500,-19.500
0.020,8.000,-24.000,-23.500,-19.000
0.021,8.000,-23.000,-23.000,-18.500
0.022,7.500,-22.500,-23.000,-18.500
0.023,7.500,-22.000,-22.500,-18.500
0.024,7.500,-22.000,-22.500,-18.500
0.025,7.000,-21.500,-22.500,-19.000
0.026,7.500,-22.000,-23.000,-19.500
0.027,7.000,-22.000,-23.000,-20.000
0.028,7.500,-22.500,-23.500,-20.500
0.029,7.000,-23.000,-23.500,-20.500
0.030,7.500,-23.500,-24.000,-21.000
0.031,7.000,-24.000,-24.000,-21.500
0.032,7.500,-24.500,-24.000,-21.500
0.033,7.500,-24.500,-24.000,-21.500
0.034,7.500,-25.000,-24.000,-21.500
0.035,7.500,-25.500,-24.000,-21.000
0.036,7.500,-26.000,-23.500,-21.000
0.037,7.000,-26.000,-23.000,-20.500
0.038,7.000,-26.000,-23.000,-20.500
0.039,7.000,-25.500,-22.500,-20.500
0.040,7.000,-25.000,-22.000,-20.000
0.041,6.500,-24.000,-21.500,-19.500
0.042,7.000,-23.000,-21.500,-19.500
0.043,7.000,-22.000,-21.000,-19.000
0.044,7.500,-21.500,-21.000,-19.000
0.045,7.500,-21.000,-21.000,-19.000
0.046,7.500,-21.000,-21.500,-19.000
0.047,7.500,-21.500,-21.500,-19.500
0.048,7.500,-22.500,-22.500,-20.000
0.049,7.500,-23.000,-23.000,-20.000
0.050,8.000,-24.000,-23.500,-20.500
0.051,8.000,-24.500,-24.000,-20.500
0.052,8.000,-25.000,-24.500,-21.000
0.053,7.500,-25.000,-24.500,-21.000
0.054,7.500,-25.000,-24.500,-21.000
0.055,7.000,-25.000,-24.500,-21.000
0.056,7.000,-24.500,-24.000,-21.000
0.057,6.500,-24.000,-23.500,-20.500
0.058,6.500,-24.000,-23.500,-20.000
0.059,6.000,-23.000,-23.000,-19.500
0.060,6.000,-22.500,-22.500,-19.000
0.061,6.000,-21.500,-22.000,-18.500
0.062,6.500,-20.500,-22.000,-18.000
0.063,6.500,-19.500,-22.000,-18.000
0.064,7.000,-19.000,-22.000,-18.000
0.065,7.000,-18.500,-22.000,-17.500
0.066,7.500,-18.500,-22.000,-18.000
0.067,7.500,-18.500,-22.000,-18.000
0.068,8.000,-19.000,-22.500,-18.500
0.069,8.000,-19.000,-23.000,-19.000
0.070,8.500,-20.000,-23.000,-19.500
0.071,8.500,-20.000,-23.000,-19.500
0.072,8.500,-21.000,-23.000,-20.000
0.073,8.500,-21.000,-23.000,-20.000
0.074,8.500,-21.500,-23.000,-20.000
0.075,8.500,-21.000,-23.000,-20.000
0.076,8.500,-21.000,-23.000,-20.000
0.077,8.000,-20.500,-23.000,-19.500
0.078,8.000,-20.000,-23.000,-19.500
0.079,7.500,-19.500,-22.500,-19.000
0.080,7.500,-19.000,-22.500,-18.500
0.081,7.500,-18.500,-21.500,-18.000
0.082,7.500,-18.000,-21.000,-18.000
0.083,7.500,-18.000,-20.500,-17.500
0.084,8.000,-18.000,-20.000,-17.500
0.085,8.500,-18.500,-20.000,-17.500
0.086,8.500,-19.500,-20.000,-17.500
0.087,8.500,-20.500,-20.500,-17.500
0.088,8.500,-22.000,-21.500,-18.000
0.089,8.500,-23.000,-22.000,-18.000
0.090,8.500,-24.000,-23.000,-19.000
0.091,8.500,-25.000,-24.000,-19.000
0.092,8.500,-25.500,-25.000,-19.500
0.093,8.000,-25.500,-25.500,-20.000
0.094,8.000,-26.000,-26.000,-20.500
0.095,7.500,-25.500,-25.500,-20.500
0.096,7.500,-25.500,-25.500,-20.500
0.097,7.500,-24.500,-25.000,-20.000
0.098,7.500,-24.000,-24.500,-20.000
0.099,7.500,-23.000,-23.500,-19.500
0.100,7.500,-22.000,-23.000,-19.000
0.101,7.500,-21.000,-22.500,-18.000
0.102,7.500,-20.000,-22.500,-18.000
0.103,7.000,-19.500,-22.000,-17.500
0.104,7.500,-19.000,-22.500,-17.500
0.105,7.000,-19.000,-22.500,-17.500
0.106,7.500,-19.000,-23.000,-17.500
0.107,7.500,-19.500,-23.000,-18.000
0.108,8.000,-20.500,-24.000,-18.500
0.109,8.000,-21.500,-24.000,-19.000
0.110,8.000,-23.000,-24.500,-19.500
0.111,7.500,-24.000,-25.000,-20.000
0.112,7.500,-25.000,-25.500,-20.500
0.113,7.500,-25.000,-25.500,-21.000
0.114,7.500,-25.500,-25.500,-21.000
0.115,7.500,-25.000,-25.500,-21.000
0.116,7.500,-25.000,-25.500,-21.000
0.117,7.500,-24.500,-25.000,-20.500
0.118,7.500,-24.000,-24.500,-21.000
0.119,7.500,-23.000,-24.000,-20.500
0.120,8.000,-22.500,-23.500,-20.500
0.121,8.000,-21.500,-23.000,-20.000
0.122,8.000,-20.500,-22.500,-19.500
0.123,8.000,-19.500,-22.000,-19.500
0.124,8.000,-19.500,-22.000,-19.500
0.125,8.000,-19.000,-22.000,-19.000
0.126,8.500,-19.500,-22.000,-19.500
0.127,9.000,-19.500,-22.500,-19.500
0.128,9.500,-20.500,-23.000,-20.000
0.129,9.500,-21.000,-23.000,-20.500
0.130,9.500,-22.000,-23.500,-20.500
0.131,9.500,-22.500,-24.000,-20.500
0.132,9.500,-23.500,-24.500,-21.000
0.133,9.000,-24.000,-24.500,-21.000
0.134,9.000,-24.500,-24.500,-21.000
0.135,8.500,-24.500,-24.000,-21.000
0.136,8.500,-24.000,-24.000,-21.000
0.137,8.000,-23.500,-23.500,-21.000
0.138,8.000,-23.000,-23.500,-21.500
0.139,8.000,-22.500,-23.000,-21.000
0.140,8.000,-22.000,-22.500,-21.000
0.141,7.500,-21.500,-22.000,-21.000
0.142,7.500,-21.000,-22.000,-20.500
0.143,7.500,-20.500,-21.500,-20.000
0.144,7.500,-20.500,-21.500,-20.000
0.145,7.000,-20.500,-21.500,-19.500
0.146,7.500,-20.500,-21.500,-19.500
0.147,7.500,-21.000,-21.500,-19.500
0.148,7.500,-21.500,-22.000,-20.000
0.149,7.500,-22.000,-22.500,-20.500
0.150,8.000,-23.000,-23.000,-21.000
0.151,7.500,-23.500,-23.500,-21.500
0.152,8.000,-24.000,-24.000,-22.000
0.153,8.000,-24.000,-24.000,-22.500
0.154,8.000,-24.500,-24.000,-22.500
0.155,7.500,-24.000,-23.500,-22.500
0.156,7.500,-24.000,-23.500,-22.500
0.157,7.000,-23.000,-23.000,-22.000
0.158,7.500,-22.500,-22.500,-21.500
0.159,7.500,-21.500,-22.000,-21.000
0.160,7.500,-21.000,-21.500,-20.500
0.161,7.500,-20.000,-21.500,-20.000
0.162,8.000,-20.000,-21.000,-19.500
0.163,8.000,-19.500,-20.500,-19.000
0.164,8.000,-20.000,-20.000,-19.000
0.165,8.000,-20.000,-19.500,-18.500
0.166,8.000,-21.000,-20.000,-19.000
0.167,8.500,-22.000,-20.000,-19.000
0.168,9.000,-23.000,-20.500,-19.000
0.169,9.000,-24.000,-20.500,-19.000
0.170,9.000,-24.500,-21.500,-19.500
0.171,9.000,-25.000,-21.500,-20.000
0.172,9.000,-25.000,-21.500,-20.500
0.173,9.000,-24.500,-21.500,-20.500
0.174,8.500,-24.500,-21.000,-21.000
0.175,8.000,-24.000,-20.500,-20.500
0.176,8.000,-24.000,-20.500,-20.500
0.177,8.000,-24.000,-20.000,-20.500
0.178,8.000,-24.000,-20.000,-20.500
0.179,7.500,-23.500,-19.500,-20.000
0.180,7.500,-24.000,-19.500,-20.000
0.181,7.000,-23.500,-19.000,-19.500
0.182,7.500,-23.000,-19.500,-19.500
0.183,7.500,-22.500,-19.500,-19.500
0.184,7.500,-22.000,-19.500,-20.000
0.185,7.500,-21.500,-19.500,-20.000
0.186,8.000,-21.000,-20.000,-20.000
0.187,8.500,-21.000,-20.500,-20.000
0.188,8.500,-21.000,-21.000,-20.500
0.189,8.500,-21.500,-21.000,-21.000
0.190,9.000,-22.000,-21.500,-21.000
0.191,9.000,-22.500,-21.500,-21.000
0.192,9.500,-23.500,-22.000,-21.500
0.193,9.000,-24.000,-21.500,-21.000
0.194,9.000,-24.500,-21.500,-21.000
0.195,9.000,-24.500,-20.500,-20.500
0.196,9.000,-24.500,-20.000,-20.000
0.197,9.000,-23.500,-19.000,-19.000
0.198,9.000,-22.500,-18.500,-18.000
0.199,9.000,-21.000,-17.000,-17.000
0.200,9.000,-19.500,-16.000,-15.500
0.201,8.500,-18.000,-15.000,-14.000
0.202,8.500,-16.500,-14.000,-13.000
0.203,8.500,-15.500,-13.000,-12.000
0.204,8.500,-15.500,-13.000,-12.000
0.205,8.000,-15.500,-12.500,-11.500
0.206,8.500,-16.000,-13.000,-12.000
0.207,8.000,-17.000,-13.500,-12.500
0.208,8.000,-18.000,-14.500,-13.500
0.209,7.500,-19.000,-15.500,-14.500
0.210,7.500,-20.500,-17.000,-15.500
0.211,7.000,-21.500,-18.500,-16.500
0.212,6.500,-23.000,-20.000,-18.000
0.213,6.000,-24.000,-21.000,-19.000
0.214,5.500,-25.000,-22.000,-20.500
0.215,5.000,-26.000,-22.500,-21.000
0.216,4.500,-27.000,-23.000,-22.500
0.217,3.500,-27.000,-23.500,-23.000
0.218,3.500,-27.500,-24.000,-24.000
0.219,3.000,-27.000,-24.000,-24.500
0.220,3.000,-26.500,-24.000,-25.000
0.221,3.000,-26.000,-23.500,-24.500
0.222,3.000,-25.000,-23.000,-24.500
0.223,3.000,-24.000,-22.000,-24.000
0.224,3.500,-23.500,-21.500,-23.500
0.225,3.500,-22.500,-20.500,-22.500
0.226,4.000,-22.000,-20.000,-22.000
0.227,4.000,-22.000,-19.500,-21.500
0.228,4.500,-22.000,-19.500,-21.000
0.229,5.000,-22.000,-19.500,-21.000
0.230,5.500,-22.500,-20.000,-21.000
0.231,6.000,-23.000,-20.500,-20.500
0.232,6.000,-23.000,-20.500,-20.500
0.233,6.000,-23.000,-20.500,-20.500
0.234,6.500,-23.000,-20.000,-20.500
0.235,6.500,-23.000,-19.500,-20.000
0.236,6.500,-23.000,-19.500,-20.000
0.237,6.000,-22.500,-19.000,-19.500
0.238,6.000,-22.000,-19.000,-19.500
0.239,5.500,-21.500,-18.500,-19.500
0.240,5.500,-21.000,-18.000,-19.500
0.241,5.000,-20.000,-17.500,-19.000
0.242,5.000,-19.500,-17.000,-18.500
0.243,4.500,-19.000,-16.500,-18.000
0.244,5.000,-19.000,-16.500,-18.000
0.245,5.000,-19.000,-16.500,-18.000
0.246,5.000,-19.500,-17.500,-18.000
0.247,5.000,-19.500,-18.000,-18.000
0.248,5.500,-20.500,-19.000,-18.000
0.249,6.000,-21.500,-20.000,-18.500
0.250,6.000,-22.000,-20.500,-19.000
0.251,6.000,-22.500,-21.000,-19.000
0.252,6.500,-23.000,-21.500,-19.500
0.253,6.500,-23.500,-21.500,-19.500
0.254,6.500,-23.500,-21.500,-19.500
0.255,6.000,-23.500,-21.000,-19.500
0.256,6.000,-23.500,-20.500,-20.000
0.257,5.500,-23.500,-19.500,-19.500
0.258,5.500,-23.000,-19.500,-19.500
0.259,5.500,-22.500,-19.000,-19.500
0.260,5.500,-22.000,-18.500,-19.000
0.261,5.500,-21.500,-18.000,-18.500
0.262,5.500,-21.000,-18.000,-18.000
0.263,5.500,-20.000,-17.500,-17.500
0.264,6.000,-20.000,-18.000,-17.500
0.265,6.000,-19.500,-18.000,-17.000
0.266,6.500,-19.500,-18.500,-17.000
0.267,6.500,-19.500,-18.500,-17.000
0.268,6.500,-20.000,-19.500,-17.000
0.269,6.000,-20.500,-20.000,-17.000
0.270,6.000,-21.500,-20.500,-17.500
0.271,6.000,-22.000,-20.500,-17.500
0.272,5.500,-22.500,-20.500,-18.000
0.273,5.500,-23.000,-20.500,-18.500
0.274,5.500,-23.500,-20.500,-18.500
0.275,5.500,-23.000,-20.500,-18.500
0.276,5.500,-23.000,-20.000,-18.500
0.277,5.500,-22.500,-19.500,-18.000
0.278,5.500,-22.000,-19.000,-18.000
0.279,5.500,-21.500,-18.500,-17.000
0.280,5.500,-20.500,-18.000,-17.000
0.281,5.000,-20.000,-17.000,-16.500
0.282,5.000,-19.500,-17.000,-16.000
0.283,5.000,-19.000,-16.500,-16.000
0.284,5.000,-19.000,-16.500,-16.000
0.285,5.000,-19.000,-16.500,-15.500
0.286,5.500,-19.500,-17.500,-16.000
0.287,5.500,-19.500,-18.000,-16.000
0.288,6.000,-20.500,-18.500,-16.000
0.289,6.500,-21.500,-19.000,-16.500
0.290,6.500,-22.500,-19.500,-17.000
0.291,6.500,-23.500,-20.000,-17.000
0.292,6.500,-24.000,-20.000,-17.500
0.293,6.500,-24.500,-20.000,-17.500
0.294,6.500,-25.000,-20.500,-18.000
0.295,6.500,-25.000,-20.000,-18.000
0.296,6.500,-25.000,-20.000,-18.000
0.297,6.000,-24.500,-19.500,-17.500
0.298,5.500,-24.000,-19.500,-17.000
0.299,5.000,-23.000,-18.500,-16.500
0.300,5.500,-22.000,-18.000,-16.500
0.301,5.500,-21.000,-17.500,-16.500
0.302,6.000,-20.500,-17.000,-16.500
0.303,6.000,-19.500,-17.000,-16.000
0.304,6.500,-19.000,-17.000,-16.500
0.305,6.500,-19.000,-17.000,-16.500
0.306,7.000,-19.000,-17.500,-17.000
0.307,7.000,-19.500,-18.500,-17.000
0.308,7.500,-20.000,-19.000,-17.500
0.309,7.500,-20.500,-19.500,-18.000
0.310,7.500,-21.500,-20.000,-18.500
0.311,7.000,-22.000,-20.500,-18.500
0.312,7.000,-22.500,-21.000,-19.000
0.313,7.000,-22.500,-21.000,-19.000
0.314,7.000,-22.500,-21.500,-19.500
0.315,7.000,-22.500,-21.500,-19.500
0.316,7.000,-22.500,-21.500,-19.500
0.317,6.500,-22.500,-21.000,-19.000
0.318,6.500,-22.000,-20.500,-19.000
0.319,6.500,-21.500,-20.000,-18.500
0.320,6.500,-20.500,-19.500,-18.000
0.321,6.000,-19.500,-18.500,-17.000
0.322,6.500,-19.000,-18.000,-17.000
0.323,6.500,-18.000,-17.000,-16.500
0.324,7.000,-17.500,-17.000,-16.500
0.325,7.500,-17.000,-16.500,-16.000
0.326,7.500,-17.500,-16.500,-16.500
0.327,8.000,-18.500,-16.500,-17.000
0.328,8.000,-20.000,-16.500,-17.500
0.329,8.000,-21.500,-17.000,-18.000
0.330,8.000,-23.000,-17.500,-18.500
0.331,8.000,-24.500,-17.500,-18.500
0.332,8.000,-25.500,-18.500,-18.500
0.333,7.500,-25.500,-18.500,-18.500
0.334,7.000,-26.000,-19.000,-18.000
0.335,6.500,-25.500,-18.500,-17.500
0.336,6.500,-25.000,-18.000,-17.000
0.337,6.000,-24.000,-17.500,-16.500
0.338,6.000,-23.000,-17.000,-16.000
0.339,5.500,-21.500,-16.000,-15.000
0.340,5.500,-21.000,-15.500,-15.000
0.341,5.000,-20.000,-15.000,-14.500
0.342,5.000,-19.000,-14.500,-14.000
0.343,5.000,-18.000,-14.000,-13.500
0.344,5.500,-18.000,-14.000,-13.000
0.345,5.500,-17.500,-14.000,-13.000
0.346,6.000,-18.000,-14.500,-13.000
0.347,6.000,-18.500,-14.500,-13.500
0.348,6.000,-19.500,-15.500,-14.000
0.349,5.500,-20.500,-16.500,-15.000
0.350,5.500,-22.000,-17.500,-16.000
0.351,5.000,-23.000,-18.000,-16.500
0.352,5.000,-24.000,-18.500,-17.500
0.353,4.500,-24.500,-19.000,-17.500
0.354,4.500,-25.000,-19.000,-18.000
0.355,4.500,-25.000,-19.000,-18.000
0.356,4.500,-25.000,-18.500,-18.000
0.357,4.500,-24.500,-18.000,-17.500
0.358,4.500,-24.000,-18.000,-17.500
0.359,4.500,-23.500,-17.500,-17.000
0.360,4.500,-23.000,-17.000,-17.000
0.361,4.500,-22.500,-17.000,-16.500
0.362,5.000,-22.000,-17.500,-16.500
0.363,5.000,-21.500,-17.500,-16.500
0.364,5.500,-21.000,-18.000,-17.000
0.365,5.000,-21.000,-18.500,-17.000
0.366,5.000,-21.000,-19.500,-17.500
0.367,5.000,-21.500,-20.000,-18.000
0.368,5.000,-22.500,-20.500,-18.500
0.369,4.500,-23.500,-21.000,-18.500
0.370,5.000,-24.000,-21.500,-19.000
0.371,5.000,-24.500,-22.000,-19.000
0.372,5.000,-25.000,-22.000,-19.500
0.373,4.500,-25.500,-22.000,-19.500
0.374,4.500,-26.000,-22.500,-20.000
0.375,3.500,-25.500,-22.500,-19.500
0.376,3.500,-25.500,-22.500,-20.000
0.377,3.000,-25.000,-22.000,-19.500
0.378,3.000,-25.000,-21.500,-19.500
0.379,2.500,-24.000,-21.000,-19.000
0.380,3.000,-23.000,-21.000,-18.500
0.381,3.000,-22.000,-21.000,-17.500
0.382,3.000,-21.500,-21.000,-17.500
0.383,3.000,-20.500,-20.500,-17.000
0.384,3.500,-20.000,-20.500,-16.500
0.385,3.000,-19.500,-20.500,-16.500
0.386,3.500,-19.500,-21.000,-16.500
0.387,3.500,-19.500,-21.000,-16.500
0.388,3.500,-20.000,-21.500,-17.000
0.389,3.500,-21.000,-21.500,-17.500
0.390,3.500,-22.000,-22.500,-18.000
0.391,3.500,-22.500,-22.500,-18.000
0.392,4.000,-24.000,-23.000,-18.500
0.393,4.000,-24.500,-23.000,-18.500
0.394,4.000,-25.000,-23.000,-18.500
0.395,3.500,-25.000,-22.500,-18.000
0.396,3.500,-25.000,-22.000,-17.500
0.397,3.500,-24.500,-21.000,-17.000
0.398,4.000,-24.000,-20.500,-16.500
0.399,4.000,-22.500,-19.500,-16.000
0.400,4.500,-21.500,-19.000,-15.500
0.401,4.500,-20.000,-18.000,-15.000
0.402,4.500,-19.500,-17.500,-15.000
0.403,4.500,-18.500,-17.000,-15.000
0.404,5.000,-18.500,-17.000,-15.000
0.405,5.000,-18.500,-17.000,-15.000
0.406,5.000,-19.500,-17.500,-15.500
0.407,5.000,-20.000,-18.000,-15.500
0.408,5.500,-21.000,-19.000,-16.000
0.409,5.500,-22.000,-19.500,-16.500
0.410,5.500,-22.500,-20.000,-17.000
0.411,5.000,-23.000,-20.500,-17.000
0.412,5.000,-23.500,-21.000,-17.500
0.413,5.000,-23.500,-20.500,-17.500
0.414,5.000,-23.500,-20.500,-17.500
0.415,4.500,-23.000,-20.000,-17.500
0.416,4.500,-22.500,-20.000,-17.500
0.417,4.000,-22.000,-19.000,-17.000
0.418,4.000,-22.000,-18.500,-16.500
0.419,3.500,-21.500,-17.500,-15.500
0.420,3.500,-21.000,-17.500,-15.000
0.421,3.500,-20.500,-16.500,-14.500
0.422,3.500,-19.500,-16.500,-14.000
0.423,3.000,-19.000,-16.000,-13.500
0.424,3.500,-18.500,-16.000,-13.500
0.425,3.500,-18.000,-16.000,-13.500
0.426,3.500,-18.500,-16.000,-13.500
0.427,4.000,-18.500,-16.000,-13.500
0.428,4.000,-19.500,-17.000,-14.000
0.429,4.000,-20.000,-17.500,-14.500
0.430,4.500,-21.000,-18.000,-14.500
0.431,4.500,-21.500,-18.500,-14.500
0.432,4.500,-22.000,-18.500,-15.000
0.433,4.500,-22.000,-18.500,-15.500
0.434,4.500,-22.500,-19.000,-15.500
0.435,4.500,-22.000,-18.500,-15.500
0.436,5.000,-22.000,-18.500,-15.500
0.437,5.000,-21.500,-18.000,-15.500
0.438,5.000,-21.000,-17.500,-15.000
0.439,4.500,-20.000,-17.000,-14.500
0.440,4.500,-19.500,-16.500,-14.000
0.441,4.500,-19.000,-16.000,-13.500
0.442,4.500,-18.500,-16.000,-13.500
0.443,4.000,-18.000,-15.500,-13.000
0.444,4.000,-18.000,-15.500,-13.000
0.445,4.000,-18.000,-15.000,-12.500
0.446,4.000,-18.500,-15.000,-12.000
0.447,4.500,-18.500,-14.500,-11.500
0.448,4.500,-19.500,-14.500,-11.000
0.449,4.500,-20.000,-14.000,-10.500
0.450,4.500,-21.000,-13.500,-9.500
0.451,4.500,-21.500,-12.500,-8.000
0.452,4.500,-22.500,-12.500,-6.500
0.453,4.500,-23.500,-12.000,-4.500
0.454,4.500,-24.000,-12.000,-3.000
0.455,4.000,-24.000,-11.500,-1.500
0.456,4.000,-24.500,-12.000,0.500
0.457,3.500,-24.000,-12.500,1.500
0.458,3.000,-24.500,-13.000,3.000
0.459,2.500,-24.000,-13.000,4.000
0.460,2.500,-24.500,-13.500,5.000
0.461,2.000,-24.500,-13.500,6.000
0.462,1.500,-25.000,-14.500,7.000
0.463,1.000,-25.500,-15.000,7.500
0.464,1.000,-26.500,-16.500,7.500
0.465,1.000,-27.500,-18.000,7.000
0.466,0.500,-30.000,-20.500,6.500
0.467,0.000,-32.000,-23.000,5.000
0.468,-0.500,-35.000,-26.500,3.000
0.469,-1.000,-38.000,-29.500,1.000
0.470,-1.500,-41.000,-33.500,-1.500
0.471,-2.500,-43.500,-37.500,-3.500
0.472,-3.500,-46.000,-41.500,-7.000
0.473,-4.000,-48.000,-45.500,-10.500
0.474,-4.500,-50.000,-49.500,-14.500
0.475,-5.000,-51.500,-53.500,-19.000
0.476,-5.500,-53.000,-58.000,-24.500
0.477,-5.500,-54.000,-62.500,-30.500
0.478,-6.000,-55.500,-67.000,-37.000
0.479,-6.000,-56.000,-71.000,-43.500
0.480,-6.500,-57.000,-75.500,-50.500
0.481,-6.500,-57.000,-79.500,-57.000
0.482,-7.000,-57.500,-84.000,-63.000
0.483,-7.000,-57.500,-87.000,-68.500
0.484,-7.000,-57.500,-90.000,-73.500
0.485,-6.500,-57.000,-91.000,-77.000
0.486,-6.000,-56.500,-91.500,-79.500
0.487,-5.500,-55.500,-90.500,-80.500
0.488,-5.000,-54.000,-89.000,-81.000
0.489,-4.000,-52.500,-86.000,-80.500
0.490,-3.500,-50.500,-82.500,-79.500
0.491,-3.000,-48.500,-78.500,-78.000
0.492,-2.000,-47.000,-75.000,-76.000
0.493,-1.000,-45.000,-71.000,-74.000
0.494,-0.500,-43.000,-67.000,-71.500
0.495,0.500,-41.000,-62.500,-68.500
0.496,1.500,-39.000,-58.500,-65.500
0.497,2.000,-36.500,-54.000,-62.000
0.498,3.000,-34.500,-50.500,-59.000
0.499,3.000,-32.500,-46.500,-55.500
0.500,3.500,-30.500,-43.000,-52.000
0.501,3.500,-28.500,-40.000,-49.000
0.502,4.000,-26.500,-37.500,-46.000
0.503,4.000,-25.000,-35.000,-43.000
0.504,4.500,-23.500,-33.000,-40.500
0.505,4.500,-22.000,-30.500,-38.000
0.506,5.500,-21.500,-29.000,-36.500
0.507,5.500,-20.500,-27.500,-34.500
0.508,6.000,-20.500,-26.500,-33.000
0.509,6.500,-20.500,-25.500,-31.500
0.510,6.500,-21.000,-24.500,-30.500
0.511,6.500,-21.500,-23.500,-29.000
0.512,6.500,-22.000,-23.000,-28.000
0.513,6.500,-22.000,-22.000,-26.500
0.514,6.500,-22.000,-21.500,-25.000
0.515,6.000,-22.000,-21.000,-23.000
0.516,6.000,-21.500,-20.500,-21.000
0.517,5.000,-21.000,-19.500,-19.000
0.518,5.000,-21.000,-19.000,-17.500
0.519,4.500,-20.500,-18.500,-16.000
0.520,4.000,-20.000,-18.000,-14.500
0.521,3.500,-19.500,-17.000,-13.000
0.522,3.500,-19.000,-17.000,-12.500
0.523,3.500,-18.500,-16.000,-11.500
0.524,3.500,-18.500,-15.500,-11.000
0.525,3.500,-18.500,-15.000,-10.500
0.526,3.500,-19.000,-14.500,-10.500
0.527,3.500,-19.000,-14.000,-10.000
0.528,4.000,-20.000,-14.000,-9.500
0.529,4.000,-20.500,-14.000,-9.500
0.530,4.500,-21.000,-14.000,-9.500
0.531,4.000,-21.000,-14.500,-9.500
0.532,4.500,-21.500,-15.000,-10.000
0.533,4.500,-22.000,-15.000,-10.000
0.534,4.500,-22.500,-16.000,-10.500
0.535,4.000,-22.500,-16.000,-10.500
0.536,4.000,-22.500,-16.500,-10.500
0.537,4.000,-22.000,-16.500,-10.000
0.538,4.000,-22.000,-16.500,-10.000
0.539,3.500,-21.000,-16.000,-9.500
0.540,3.500,-20.500,-16.000,-9.000
0.541,3.500,-19.500,-15.500,-8.500
0.542,3.500,-19.000,-15.000,-8.500
0.543,3.000,-18.500,-15.000,-8.000
0.544,3.000,-18.500,-15.000,-8.500
0.545,3.000,-18.500,-15.000,-8.500
0.546,3.000,-19.000,-15.500,-8.500
0.547,3.000,-19.000,-16.000,-9.000
0.548,3.000,-20.000,-16.500,-9.500
0.549,3.000,-20.500,-17.000,-9.500
0.550,3.000,-21.500,-17.500,-10.000
0.551,3.000,-22.000,-17.500,-10.000
0.552,3.000,-23.000,-18.000,-10.500
0.553,3.000,-23.000,-17.500,-10.000
0.554,3.500,-23.500,-17.500,-10.000
0.555,3.500,-23.000,-17.000,-9.500
0.556,3.500,-23.000,-17.000,-9.500
0.557,3.500,-22.500,-16.500,-9.000
0.558,3.500,-22.000,-16.500,-9.000
0.559,3.500,-21.500,-15.500,-9.000
0.560,3.000,-21.000,-15.000,-9.000
0.561,2.500,-20.000,-14.500,-8.500
0.562,2.500,-20.000,-14.000,-8.000
0.563,2.000,-19.500,-13.000,-7.500
0.564,2.000,-19.500,-13.000,-7.500
0.565,2.000,-19.500,-13.000,-7.500
0.566,2.500,-20.000,-14.000,-7.500
0.567,2.500,-20.500,-14.500,-7.500
0.568,3.000,-21.500,-15.500,-8.000
0.569,3.000,-22.500,-16.500,-8.000
0.570,3.000,-23.000,-17.500,-8.500
0.571,3.000,-23.500,-18.000,-8.500
0.572,3.000,-24.000,-18.500,-9.000
0.573,2.500,-24.500,-18.500,-9.500
0.574,2.500,-24.500,-18.500,-10.000
0.575,2.000,-24.500,-18.000,-10.000
0.576,2.000,-24.500,-18.000,-10.000
0.577,2.000,-24.000,-17.000,-9.500
0.578,2.500,-24.000,-16.500,-9.500
0.579,2.500,-23.500,-16.000,-9.500
0.580,3.000,-23.000,-15.500,-9.000
0.581,3.000,-22.500,-14.500,-8.500
0.582,3.500,-22.000,-14.000,-8.500
0.583,3.500,-21.500,-14.000,-8.500
0.584,4.000,-21.500,-14.000,-8.500
0.585,4.000,-21.500,-14.000,-8.500
0.586,4.500,-22.000,-14.000,-9.000
0.587,4.500,-22.500,-14.500,-9.000
0.588,5.000,-23.500,-15.500,-9.500
0.589,5.000,-24.000,-16.000,-10.000
0.590,5.000,-25.000,-16.500,-10.500
0.591,4.500,-25.500,-17.000,-11.000
0.592,4.500,-26.000,-17.500,-11.500
0.593,4.000,-26.000,-17.500,-11.500
0.594,4.000,-26.500,-18.000,-11.500
0.595,3.500,-26.000,-17.500,-11.500
0.596,3.500,-25.500,-17.500,-11.500
0.597,3.000,-25.000,-17.000,-11.000
0.598,3.500,-24.000,-16.500,-11.000
0.599,3.000,-23.000,-15.500,-10.500
0.600,3.000,-22.500,-15.500,-10.000
0.601,2.500,-22.000,-15.000,-9.500
0.602,2.000,-21.500,-15.000,-9.500
0.603,1.500,-21.500,-15.000,-9.000
0.604,1.500,-21.500,-15.500,-9.000
0.605,1.500,-22.000,-16.000,-9.000
0.606,1.500,-22.500,-16.500,-9.000
0.607,1.500,-23.000,-17.000,-9.000
0.608,2.000,-24.000,-18.000,-9.500
0.609,2.000,-24.500,-18.500,-10.000
0.610,2.500,-25.500,-19.000,-10.500
0.611,2.500,-26.000,-19.500,-10.500
0.612,2.500,-27.000,-20.000,-11.000
0.613,2.000,-27.000,-20.000,-11.000
0.614,2.000,-27.500,-20.500,-11.000
0.615,2.000,-27.500,-21.000,-11.000
0.616,2.000,-28.000,-21.000,-11.000
0.617,1.500,-27.500,-21.000,-11.000
0.618,1.500,-27.000,-21.000,-11.000
0.619,1.500,-26.500,-20.500,-10.500
0.620,1.500,-25.500,-20.500,-10.000
0.621,1.500,-24.500,-20.000,-9.500
0.622,2.000,-24.000,-20.000,-9.500
0.623,2.500,-23.500,-19.500,-9.500
0.624,3.000,-24.000,-19.500,-9.500
0.625,3.000,-24.000,-19.500,-9.500
0.626,3.500,-24.500,-20.000,-9.500
0.627,3.500,-24.500,-20.500,-9.500
0.628,3.500,-25.500,-21.000,-10.000
0.629,3.500,-26.000,-21.000,-10.000
0.630,4.000,-26.500,-21.000,-10.500
0.631,4.000,-27.000,-21.000,-10.500
0.632,4.000,-27.500,-20.500,-10.500
0.633,4.000,-27.000,-20.000,-10.000
0.634,4.500,-27.000,-19.500,-9.500
0.635,4.000,-26.500,-19.000,-9.000
0.636,4.000,-26.000,-18.000,-8.000
0.637,3.500,-25.000,-17.000,-7.000
0.638,3.000,-24.000,-16.500,-6.500
0.639,2.500,-23.000,-15.500,-6.000
0.640,2.500,-22.500,-15.500,-5.500
0.641,2.000,-21.500,-15.000,-5.000
0.642,2.000,-21.500,-15.000,-5.000
0.643,1.500,-21.000,-15.500,-5.500
0.644,1.500,-21.500,-16.000,-6.000
0.645,1.500,-22.000,-17.000,-6.500
0.646,1.000,-23.000,-18.500,-7.500
0.647,0.500,-24.500,-20.000,-8.500
0.648,0.500,-26.000,-21.500,-10.500
0.649,0.500,-27.500,-23.500,-12.000
0.650,0.000,-29.000,-25.000,-13.500
0.651,-0.500,-30.000,-26.500,-14.500
0.652,-1.000,-31.000,-28.000,-16.000
0.653,-1.500,-32.000,-29.000,-17.500
0.654,-2.000,-32.500,-30.000,-18.500
0.655,-2.500,-33.000,-30.500,-19.000
0.656,-3.000,-33.000,-31.000,-19.500
0.657,-3.000,-33.000,-30.500,-19.500
0.658,-3.000,-32.500,-30.500,-19.500
0.659,-2.500,-31.500,-30.000,-19.000
0.660,-2.500,-30.500,-29.500,-18.500
0.661,-2.000,-29.500,-28.500,-17.500
0.662,-2.000,-28.500,-28.000,-16.500
0.663,-1.500,-27.000,-27.500,-15.500
0.664,-1.500,-26.500,-27.000,-14.500
0.665,-0.500,-25.500,-26.500,-13.500
0.666,-0.500,-25.500,-26.500,-13.000
0.667,0.000,-26.000,-26.500,-12.500
0.668,0.000,-27.000,-27.000,-13.000
0.669,0.000,-28.000,-27.500,-13.000
0.670,0.000,-29.000,-28.500,-13.500
0.671,0.000,-30.000,-29.000,-14.000
0.672,0.000,-31.000,-29.500,-15.000
0.673,0.000,-31.500,-29.500,-15.500
0.674,-0.500,-32.500,-30.000,-16.000
0.675,-0.500,-32.500,-30.000,-16.000
0.676,-1.000,-32.500,-30.000,-16.000
0.677,-1.000,-32.000,-29.500,-16.000
0.678,-1.500,-31.500,-29.500,-15.500
0.679,-2.000,-31.000,-29.000,-15.000
0.680,-2.000,-30.000,-29.000,-15.000
0.681,-2.000,-29.000,-28.500,-15.000
0.682,-2.000,-28.500,-28.500,-15.000
0.683,-1.500,-28.000,-28.500,-14.500
0.684,-2.000,-27.500,-29.000,-14.500
0.685,-2.000,-27.000,-29.500,-14.500
0.686,-2.000,-27.500,-30.000,-15.000
0.687,-1.500,-27.500,-31.000,-15.500
0.688,-1.500,-28.500,-32.000,-16.000
0.689,-1.500,-29.000,-32.500,-16.000
0.690,-1.500,-30.000,-33.000,-16.500
0.691,-1.000,-31.000,-33.500,-17.000
0.692,-1.000,-32.000,-34.000,-17.000
0.693,-1.000,-33.000,-34.000,-17.000
0.694,-1.000,-33.500,-34.500,-17.500
0.695,-1.000,-34.000,-34.000,-17.500
0.696,-1.000,-34.500,-34.500,-17.500
0.697,-0.500,-34.000,-34.000,-17.500
0.698,-1.000,-33.500,-34.000,-17.500
0.699,-1.500,-32.500,-33.500,-17.000
0.700,-2.000,-32.000,-33.000,-16.500
0.701,-2.000,-31.000,-32.500,-16.000
0.702,-2.000,-30.000,-32.000,-16.000
0.703,-2.000,-29.000,-31.500,-15.500
0.704,-2.000,-29.000,-31.500,-15.500
0.705,-1.500,-29.000,-31.500,-15.500
0.706,-1.500,-29.500,-32.500,-16.000
0.707,-1.000,-30.000,-33.000,-16.500
0.708,-1.500,-31.000,-33.500,-17.000
0.709,-1.500,-31.500,-34.000,-17.000
0.710,-1.500,-32.500,-34.500,-17.500
0.711,-1.000,-33.500,-34.500,-18.000
0.712,-1.500,-34.000,-34.500,-18.000
0.713,-1.500,-34.500,-34.000,-18.000
0.714,-1.500,-35.000,-33.500,-18.000
0.715,-1.500,-35.000,-32.500,-17.500
0.716,-2.000,-35.000,-32.500,-17.000
0.717,-2.000,-34.500,-31.500,-16.000
0.718,-2.000,-34.000,-31.000,-15.000
0.719,-2.000,-33.000,-30.000,-14.000
0.720,-1.500,-32.000,-29.000,-13.500
0.721,-1.000,-31.000,-28.000,-12.500
0.722,-1.000,-30.000,-27.000,-12.000
0.723,-0.500,-29.000,-26.000,-11.000
0.724,0.000,-28.500,-26.000,-10.000
0.725,0.000,-28.000,-25.500,-9.500
0.726,0.500,-28.500,-25.500,-9.000
0.727,0.000,-28.500,-25.000,-8.500
0.728,0.500,-29.000,-25.000,-8.500
0.729,0.500,-29.500,-25.000,-8.000
0.730,0.500,-30.000,-25.000,-8.000
0.731,0.500,-30.500,-25.000,-8.000
0.732,1.000,-31.000,-24.500,-8.000
0.733,1.000,-31.000,-24.000,-7.500
0.734,1.000,-31.000,-23.500,-7.500
0.735,0.500,-31.000,-22.500,-7.000
0.736,1.000,-30.500,-22.000,-6.500
0.737,1.000,-30.000,-21.000,-6.000
0.738,1.000,-29.000,-20.500,-5.500
0.739,1.000,-28.000,-19.500,-4.500
0.740,1.000,-26.500,-18.500,-4.000
0.741,0.500,-25.000,-18.000,-3.500
0.742,0.500,-24.000,-17.500,-3.000
0.743,0.000,-23.000,-16.500,-2.500
0.744,0.000,-22.500,-16.000,-2.500
0.745,0.000,-22.000,-16.000,-2.000
0.746,0.500,-22.000,-16.000,-1.500
0.747,0.500,-22.000,-16.000,-1.000
0.748,1.500,-23.000,-16.000,-1.000
0.749,1.500,-23.500,-16.500,-0.500
0.750,2.000,-24.500,-17.000,-1.000
0.751,1.500,-25.000,-17.000,-1.000
0.752,2.000,-25.500,-17.500,-1.000
0.753,2.000,-26.000,-17.000,-1.500
0.754,2.000,-26.500,-17.000,-1.500
0.755,1.500,-26.500,-16.500,-1.500
0.756,1.500,-26.000,-16.500,-1.500
0.757,1.500,-25.500,-16.000,-1.500
0.758,1.500,-24.500,-15.500,-1.500
0.759,1.500,-23.500,-15.000,-1.000
0.760,1.500,-23.000,-14.500,-0.500
0.761,1.000,-22.000,-14.000,0.000
0.762,1.000,-21.500,-13.500,0.500
0.763,1.000,-21.000,-13.000,0.500
0.764,1.500,-21.000,-13.000,0.500
0.765,1.500,-21.000,-12.500,0.500
0.766,2.000,-21.500,-12.500,0.000
0.767,2.000,-22.000,-12.500,-0.500
0.768,2.000,-23.000,-13.000,-1.000
0.769,1.500,-24.000,-13.000,-1.000
0.770,2.000,-24.500,-13.500,-2.000
0.771,2.000,-25.000,-13.500,-2.000
0.772,2.000,-25.000,-14.000,-2.500
0.773,1.500,-25.000,-13.500,-2.500
0.774,1.500,-25.000,-14.000,-3.000
0.775,1.000,-25.000,-13.500,-3.000
0.776,1.000,-24.500,-13.500,-3.000
0.777,1.000,-24.000,-13.500,-2.500
0.778,1.000,-24.000,-13.000,-2.500
0.779,0.500,-23.000,-12.500,-2.500
0.780,0.500,-22.500,-12.000,-2.000
0.781,0.500,-21.500,-11.500,-1.500
0.782,0.500,-21.000,-11.000,-1.500
0.783,0.500,-20.500,-10.500,-1.000
0.784,1.000,-20.000,-10.000,-1.000
0.785,1.000,-20.000,-10.000,-1.000
0.786,1.500,-20.000,-10.500,-1.000
0.787,1.000,-20.500,-11.000,-1.000
0.788,1.000,-21.000,-12.000,-1.000
0.789,1.000,-22.000,-12.500,-1.000
0.790,1.000,-23.000,-13.500,-1.500
0.791,0.500,-24.000,-13.500,-2.000
0.792,1.000,-24.500,-14.000,-2.000
0.793,1.000,-24.500,-14.000,-2.000
0.794,1.000,-24.500,-14.500,-2.500
0.795,0.500,-24.000,-14.000,-2.000
0.796,0.500,-23.500,-14.000,-2.000
0.797,0.500,-22.000,-14.000,-2.000
0.798,1.000,-21.500,-14.000,-1.500
0.799,1.000,-20.500,-13.500,-1.000
0.800,1.000,-19.500,-13.000,-1.000
0.801,0.500,-18.500,-12.500,-0.500
0.802,1.000,-18.500,-12.000,-0.500
0.803,0.500,-18.500,-12.000,0.000
0.804,1.000,-19.000,-12.000,-0.500
0.805,1.000,-19.500,-11.500,-0.500
0.806,1.000,-20.000,-12.000,-1.000
0.807,1.000,-20.500,-12.000,-1.000
0.808,1.000,-21.500,-12.500,-2.000
0.809,1.000,-22.000,-13.000,-2.000
0.810,1.500,-22.500,-13.500,-2.500
0.811,1.500,-23.000,-13.500,-3.000
0.812,1.500,-23.500,-14.000,-3.500
0.813,1.000,-23.500,-14.000,-3.500
0.814,1.000,-24.000,-14.000,-4.000
0.815,1.000,-24.000,-14.000,-4.000
0.816,1.000,-24.000,-13.500,-4.000
0.817,0.500,-24.000,-13.000,-3.500
0.818,1.000,-24.000,-13.000,-3.000
0.819,1.000,-23.500,-12.500,-2.500
0.820,1.000,-23.000,-12.500,-2.500
0.821,1.000,-22.500,-12.000,-2.000
0.822,1.500,-22.000,-12.000,-1.500
0.823,1.500,-21.000,-11.500,-1.500
0.824,2.000,-20.500,-12.000,-1.500
0.825,1.500,-20.000,-11.500,-1.500
0.826,2.000,-20.500,-11.500,-1.500
0.827,2.000,-20.500,-11.500,-1.000
0.828,2.000,-21.000,-11.500,-1.500
0.829,2.000,-22.000,-12.000,-1.500
0.830,2.500,-23.000,-12.500,-1.500
0.831,2.500,-23.500,-13.000,-2.000
0.832,2.500,-24.500,-13.500,-2.500
0.833,2.000,-24.500,-13.500,-3.000
0.834,2.000,-25.000,-14.000,-3.500
0.835,1.500,-25.000,-14.000,-3.500
0.836,1.500,-24.500,-14.000,-4.000
0.837,1.000,-24.000,-13.500,-3.500
0.838,1.000,-23.000,-13.500,-3.500
0.839,1.000,-22.000,-13.000,-3.500
0.840,1.000,-21.000,-12.500,-3.000
0.841,0.500,-19.500,-12.000,-2.500
0.842,1.000,-19.000,-11.500,-2.500
0.843,1.000,-18.500,-11.500,-2.500
0.844,1.500,-18.500,-11.500,-2.500
0.845,1.500,-18.500,-11.500,-2.000
0.846,2.000,-19.500,-12.500,-2.500
0.847,2.000,-20.000,-13.000,-2.500
0.848,2.000,-21.000,-13.500,-3.000
0.849,2.000,-21.500,-14.000,-3.000
0.850,2.000,-22.500,-14.000,-3.500
0.851,1.500,-23.000,-14.000,-3.500
0.852,1.500,-24.000,-14.000,-3.500
0.853,1.000,-24.000,-14.000,-3.500
0.854,1.500,-24.000,-13.500,-4.000
0.855,1.500,-24.000,-13.500,-3.500
0.856,1.500,-24.000,-13.500,-3.500
0.857,1.000,-23.500,-13.500,-3.000
0.858,1.500,-23.000,-13.500,-2.500
0.859,1.000,-22.500,-13.000,-2.000
0.860,1.000,-22.000,-13.000,-1.500
0.861,0.500,-21.500,-12.000,-1.000
0.862,0.500,-21.000,-12.000,-1.000
0.863,0.500,-20.500,-11.500,-0.500
0.864,0.500,-20.000,-11.500,-0.500
0.865,0.500,-20.000,-11.000,0.000
0.866,0.500,-20.000,-11.500,0.500
0.867,0.500,-20.500,-12.000,0.500
0.868,1.000,-21.000,-12.500,0.500
0.869,1.000,-21.500,-13.000,0.000
0.870,1.000,-22.500,-13.500,-0.500
0.871,1.000,-23.500,-13.500,-0.500
0.872,1.000,-24.000,-14.000,-1.000
0.873,1.000,-24.500,-14.500,-1.000
0.874,1.000,-25.000,-14.500,-1.500
0.875,0.500,-25.000,-14.500,-1.500
0.876,0.500,-25.000,-15.000,-1.500
0.877,0.500,-24.500,-15.000,-1.500
0.878,0.500,-24.500,-15.000,-1.500
0.879,0.000,-23.500,-14.500,-1.000
0.880,0.500,-23.000,-14.500,-1.000
0.881,0.500,-22.000,-14.000,-1.000
0.882,0.500,-21.500,-13.500,-0.500
0.883,0.500,-20.500,-13.500,0.000
0.884,0.500,-20.500,-13.500,0.500
0.885,1.000,-20.000,-13.500,0.500
0.886,1.500,-20.500,-14.000,0.500
0.887,1.500,-21.000,-14.000,0.500
0.888,2.000,-22.000,-14.500,0.500
0.889,2.500,-22.500,-14.500,0.000
0.890,2.500,-23.500,-14.500,0.000
0.891,2.500,-24.500,-14.500,0.000
0.892,3.000,-25.000,-14.500,-0.500
0.893,3.000,-25.000,-14.500,-0.500
0.894,3.000,-25.500,-14.500,-0.500
0.895,3.000,-25.000,-14.500,0.000
0.896,3.000,-25.000,-14.500,-0.500
0.897,3.000,-24.500,-14.500,0.000
0.898,3.500,-24.500,-14.000,0.000
0.899,3.500,-23.500,-13.500,0.500
0.900,3.500,-23.000,-13.000,1.000
0.901,3.000,-22.500,-12.500,1.000
0.902,3.000,-22.000,-12.000,1.500
0.903,2.500,-21.500,-11.500,1.500
0.904,3.000,-21.500,-11.500,2.000
0.905,3.000,-21.000,-11.500,1.500
0.906,3.000,-21.000,-12.000,1.500
0.907,3.500,-21.000,-12.000,1.000
0.908,3.500,-22.000,-13.000,0.500
0.909,3.500,-22.500,-13.500,-0.500
0.910,3.500,-23.500,-14.000,-1.500
0.911,3.500,-24.000,-14.000,-2.000
0.912,3.500,-24.500,-14.500,-2.500
0.913,3.500,-25.000,-14.500,-2.500
0.914,3.000,-25.000,-15.000,-3.000
0.915,3.000,-25.000,-14.500,-2.500
0.916,3.000,-24.500,-14.500,-2.500
0.917,2.500,-24.000,-14.000,-2.000
0.918,2.500,-23.500,-14.000,-2.000
0.919,2.000,-22.500,-13.000,-1.000
0.920,2.000,-22.000,-12.500,-1.000
0.921,2.000,-21.500,-12.000,-0.500
0.922,2.000,-21.000,-11.500,0.000
0.923,1.500,-21.000,-10.500,0.500
0.924,2.000,-21.000,-10.500,0.500
0.925,2.000,-21.000,-10.000,0.500
0.926,2.000,-21.500,-10.500,0.500
0.927,1.500,-21.500,-11.000,0.000
0.928,2.000,-22.000,-11.500,0.000
0.929,2.000,-22.500,-12.000,-0.500
0.930,2.000,-23.500,-13.000,-1.000
0.931,1.500,-24.000,-13.500,-1.000
0.932,2.000,-25.000,-14.000,-1.500
0.933,2.000,-25.500,-14.000,-2.000
0.934,2.500,-26.500,-14.500,-2.000
0.935,2.500,-26.500,-14.000,-2.000
0.936,2.500,-27.000,-14.000,-2.000
0.937,2.500,-26.500,-13.500,-1.500
0.938,2.500,-26.000,-13.000,-1.000
0.939,2.000,-25.000,-12.000,-0.500
0.940,2.000,-24.500,-11.500,0.000
0.941,2.000,-23.500,-11.000,0.500
0.942,2.000,-22.500,-10.500,0.500
0.943,1.500,-22.000,-9.500,0.500
0.944,1.500,-21.500,-9.500,1.000
0.945,1.500,-21.500,-9.000,0.500
0.946,1.500,-22.000,-9.000,0.500
0.947,1.500,-22.000,-9.000,0.000
0.948,1.500,-23.000,-9.500,0.000
0.949,1.500,-23.500,-10.000,0.000
0.950,2.000,-24.500,-11.000,-0.500
0.951,2.500,-25.000,-11.500,-0.500
0.952,2.500,-25.500,-12.000,-1.000
0.953,2.500,-26.000,-12.500,-1.000
0.954,2.500,-26.000,-12.500,-1.500
0.955,2.500,-26.000,-12.500,-1.500
0.956,2.000,-26.000,-12.500,-1.500
0.957,1.500,-25.500,-12.000,-1.500
0.958,1.500,-25.000,-12.000,-1.500
0.959,1.500,-24.000,-11.000,-1.000
0.960,1.500,-23.500,-10.500,-0.500
0.961,1.500,-22.000,-10.000,0.000
0.962,1.500,-21.500,-9.500,0.000
0.963,1.500,-20.500,-9.000,0.000
0.964,1.500,-20.000,-9.000,0.500
0.965,1.500,-20.000,-8.500,0.500
0.966,2.000,-20.500,-9.000,0.500
0.967,2.000,-21.000,-9.000,0.000
0.968,2.500,-22.000,-10.000,0.500
0.969,2.500,-22.500,-10.500,0.000
0.970,3.000,-24.000,-11.000,0.000
0.971,3.000,-24.500,-11.500,-0.500
0.972,3.000,-25.500,-12.000,-1.000
0.973,2.500,-25.500,-12.500,-1.000
0.974,2.500,-26.000,-13.000,-1.500
0.975,2.000,-26.000,-13.000,-2.000
0.976,2.000,-26.000,-13.500,-2.000
0.977,1.500,-25.500,-13.000,-2.000
0.978,1.500,-25.000,-13.000,-2.500
0.979,1.000,-24.500,-12.500,-2.000
0.980,1.000,-24.000,-12.500,-2.000
0.981,1.000,-23.000,-12.000,-2.000
0.982,1.000,-22.500,-11.500,-1.500
0.983,0.500,-21.500,-10.500,-1.000
0.984,0.500,-21.000,-10.500,-1.000
0.985,0.500,-21.000,-10.000,-1.000
0.986,1.000,-21.000,-10.000,-1.000
0.987,1.000,-21.500,-9.500,-1.000
0.988,1.500,-22.000,-10.000,-1.000
0.989,1.500,-23.000,-10.500,-1.000
0.990,1.500,-24.000,-11.500,-1.500
0.991,1.500,-25.000,-12.000,-2.000
0.992,1.500,-26.000,-12.500,-2.500
0.993,1.500,-26.500,-13.000,-2.500
0.994,1.500,-27.000,-13.500,-3.000
0.995,1.500,-26.500,-13.500,-3.000
0.996,2.000,-26.500,-13.500,-3.500
0.997,1.500,-26.000,-13.000,-3.000
0.998,1.500,-25.500,-12.500,-3.000
0.999,1.500,-24.500,-11.500,-2.500
1.000,1.500,-24.500,-11.500,-2.000
1.001,1.000,-24.000,-11.000,-1.500
1.002,1.000,-23.500,-10.500,-1.500
1.003,0.500,-23.000,-10.500,-1.000
1.004,1.000,-23.000,-10.500,-1.000
1.005,1.000,-23.000,-10.500,-1.000
1.006,1.000,-23.500,-11.000,-1.000
1.007,1.500,-24.000,-11.000,-1.000
1.008,1.500,-24.500,-12.000,-1.500
1.009,1.500,-25.000,-12.500,-1.500
1.010,2.000,-26.000,-13.000,-2.000
1.011,2.000,-26.500,-13.000,-2.000
1.012,2.000,-27.500,-13.500,-2.000
1.013,1.500,-27.500,-13.500,-2.000
1.014,1.000,-28.500,-14.500,-2.500
1.015,1.000,-28.500,-14.500,-2.500
1.016,1.000,-29.000,-14.500,-3.000
1.017,1.000,-28.500,-14.500,-3.000
1.018,1.000,-28.500,-14.500,-3.500
1.019,0.500,-27.500,-14.500,-3.500
1.020,0.500,-27.000,-14.000,-3.500
1.021,0.000,-26.000,-13.500,-3.000
1.022,0.000,-25.500,-13.000,-2.500
1.023,0.000,-24.500,-13.000,-2.000
1.024,-0.500,-25.000,-13.000,-2.000
1.025,-0.500,-25.000,-13.000,-2.000
1.026,-0.500,-26.000,-13.000,-2.500
1.027,0.000,-26.500,-13.500,-2.500
1.028,0.500,-27.500,-14.000,-3.000
1.029,0.500,-28.000,-14.000,-3.000
1.030,1.000,-28.500,-14.500,-3.500
1.031,1.000,-29.000,-15.000,-3.500
1.032,1.000,-29.000,-15.500,-4.000
1.033,1.000,-29.000,-15.500,-4.500
1.034,1.000,-29.000,-15.500,-4.500
1.035,0.500,-28.500,-15.000,-4.500
1.036,1.000,-28.500,-15.000,-4.500
1.037,1.000,-28.000,-14.500,-4.500
1.038,1.000,-27.500,-14.000,-4.500
1.039,0.500,-26.500,-13.500,-4.000
1.040,0.500,-25.500,-13.000,-3.500
1.041,0.500,-24.500,-12.500,-2.500
1.042,0.000,-23.500,-12.000,-2.500
1.043,0.000,-22.500,-11.500,-1.500
1.044,-0.500,-22.000,-11.000,-1.500
1.045,0.000,-22.000,-11.000,-1.000
1.046,0.000,-22.500,-11.000,-1.000
1.047,0.000,-23.000,-11.500,-1.000
1.048,0.000,-24.000,-12.000,-1.500
1.049,0.000,-25.500,-12.000,-1.500
1.050,0.000,-26.500,-13.000,-2.000
1.051,0.000,-27.500,-13.500,-2.500
1.052,-0.500,-28.000,-14.000,-3.000
1.053,-0.500,-28.500,-14.000,-3.000
1.054,-0.500,-29.000,-14.500,-3.500
1.055,-0.500,-29.000,-14.500,-3.500
1.056,-0.500,-29.500,-14.500,-3.500
1.057,-0.500,-29.000,-14.000,-3.500
1.058,-1.000,-28.500,-14.000,-3.000
1.059,-0.500,-28.000,-13.500,-2.500
1.060,-1.000,-27.000,-13.000,-2.500
1.061,-1.000,-26.000,-12.500,-2.000
1.062,-1.000,-25.500,-12.000,-2.000
1.063,-1.000,-24.500,-11.500,-1.500
1.064,-1.500,-24.500,-11.500,-1.500
1.065,-1.000,-24.000,-11.000,-1.000
1.066,-1.000,-24.500,-10.500,-1.000
1.067,-0.500,-25.000,-10.500,-0.500
1.068,-0.500,-25.500,-10.500,0.000
1.069,-0.500,-25.500,-10.000,0.500
1.070,-0.500,-26.000,-10.000,1.000
1.071,0.000,-26.000,-9.000,1.500
1.072,-0.500,-26.000,-8.500,2.500
1.073,-0.500,-26.000,-8.000,3.000
1.074,-0.500,-26.000,-7.500,4.000
1.075,0.000,-25.500,-6.500,4.500
1.076,0.500,-25.000,-6.000,5.000
1.077,0.500,-24.500,-5.000,5.500
1.078,0.500,-24.500,-4.500,6.000
1.079,0.500,-24.000,-4.000,6.000
1.080,0.500,-24.000,-4.000,6.000
1.081,0.000,-23.500,-4.000,5.500
1.082,-0.500,-23.500,-4.500,5.000
1.083,-1.000,-23.500,-5.000,4.000
1.084,-1.500,-24.500,-6.000,3.000
1.085,-1.500,-25.000,-7.000,2.000
1.086,-2.000,-26.000,-9.000,1.000
1.087,-2.000,-27.000,-10.500,-0.500
1.088,-2.000,-28.500,-12.000,-2.000
1.089,-2.500,-30.000,-13.500,-3.000
1.090,-2.500,-31.500,-15.500,-4.500
1.091,-2.500,-32.500,-17.000,-5.500
1.092,-3.000,-33.500,-18.500,-7.000
1.093,-3.000,-34.000,-19.500,-7.500
1.094,-3.000,-34.500,-20.500,-8.500
1.095,-2.500,-34.500,-20.500,-8.500
1.096,-2.500,-34.500,-20.500,-8.500
1.097,-2.000,-33.500,-20.000,-8.000
1.098,-2.000,-33.000,-19.500,-7.000
1.099,-2.000,-31.500,-18.500,-6.000
1.100,-1.500,-30.000,-17.500,-5.000
1.101,-1.500,-28.500,-16.500,-4.000
1.102,-1.500,-27.000,-15.500,-3.500
1.103,-1.000,-26.000,-14.500,-3.500
1.104,-1.000,-25.500,-14.000,-3.500
1.105,-0.500,-25.000,-13.500,-4.000
1.106,-0.500,-25.500,-14.000,-4.000
1.107,0.000,-25.500,-14.000,-4.000
1.108,0.500,-26.500,-14.500,-4.500
1.109,0.500,-27.000,-14.500,-4.500
1.110,0.500,-27.500,-15.000,-5.000
1.111,0.500,-28.000,-15.000,-5.500
1.112,0.500,-29.000,-15.500,-5.500
1.113,0.500,-29.000,-15.000,-5.500
1.114,0.500,-29.000,-15.500,-6.000
1.115,0.000,-29.000,-15.500,-5.500
1.116,0.000,-28.500,-15.500,-5.500
1.117,0.000,-28.000,-15.000,-5.000
1.118,-0.500,-27.000,-15.000,-5.000
1.119,-1.000,-26.000,-14.500,-5.000
1.120,-1.000,-25.500,-14.000,-5.000
1.121,-1.000,-25.000,-13.500,-4.500
1.122,-1.500,-24.500,-13.000,-4.500
1.123,-1.000,-24.000,-12.500,-4.000
1.124,-1.000,-24.000,-12.000,-4.000
1.125,-0.500,-23.500,-12.000,-3.500
1.126,-0.500,-24.000,-12.000,-3.500
1.127,0.000,-24.000,-11.500,-3.000
1.128,0.500,-25.000,-12.000,-3.500
1.129,0.500,-25.500,-12.000,-3.500
1.130,0.500,-26.000,-12.500,-4.000
1.131,0.500,-26.500,-12.500,-4.000
1.132,1.000,-27.500,-13.000,-4.000
1.133,1.000,-28.000,-13.000,-4.000
1.134,1.000,-28.500,-13.500,-4.000
1.135,0.500,-28.500,-13.500,-3.500
1.136,0.500,-28.500,-14.000,-4.000
1.137,0.000,-28.000,-14.000,-4.000
1.138,0.000,-27.500,-14.000,-4.000
1.139,0.000,-26.000,-14.000,-3.500
1.140,0.500,-25.000,-13.500,-3.500
1.141,0.500,-24.000,-12.500,-3.000
1.142,0.500,-23.000,-12.000,-3.000
1.143,0.500,-22.000,-11.500,-2.500
1.144,0.500,-22.000,-11.000,-2.500
1.145,0.000,-21.500,-10.500,-2.000
1.146,0.500,-22.000,-10.500,-2.000
1.147,0.500,-22.500,-10.500,-2.000
1.148,0.500,-23.500,-11.500,-2.500
1.149,0.000,-24.500,-12.000,-3.000
1.150,0.000,-25.000,-12.500,-3.500
1.151,0.000,-25.500,-12.500,-3.500
1.152,-0.500,-26.000,-13.000,-4.000
1.153,-1.000,-26.000,-13.000,-4.500
1.154,-1.500,-26.500,-13.000,-4.500
1.155,-1.500,-26.000,-12.500,-4.500
1.156,-1.500,-26.000,-12.500,-5.000
1.157,-1.500,-26.000,-11.500,-5.000
1.158,-1.500,-25.500,-11.000,-5.000
1.159,-1.000,-25.000,-10.500,-4.500
1.160,-1.500,-24.500,-10.000,-4.500
1.161,-1.000,-24.000,-9.500,-4.000
1.162,-1.000,-23.500,-9.000,-4.000
1.163,-1.000,-23.000,-9.000,-4.000
1.164,-1.000,-22.500,-9.000,-4.000
1.165,-0.500,-22.000,-9.000,-3.500
1.166,-0.500,-22.000,-9.500,-3.500
1.167,0.000,-22.500,-10.000,-3.500
1.168,0.000,-23.000,-10.500,-3.500
1.169,0.000,-24.000,-11.000,-3.500
1.170,0.000,-25.000,-11.500,-4.000
1.171,0.000,-25.500,-12.000,-4.500
1.172,-0.500,-26.500,-12.500,-5.000
1.173,-0.500,-27.000,-12.500,-5.500
1.174,-1.000,-27.000,-13.000,-6.000
1.175,-1.000,-26.500,-12.500,-6.000
1.176,-1.000,-26.500,-12.500,-6.000
1.177,-1.000,-25.500,-11.500,-5.500
1.178,-1.000,-24.500,-11.000,-5.000
1.179,-1.000,-23.500,-9.500,-4.500
1.180,-1.000,-23.000,-8.500,-3.500
1.181,-1.000,-22.000,-7.500,-2.500
1.182,-0.500,-21.000,-6.000,-1.000
1.183,-0.500,-20.000,-4.500,0.500
1.184,-0.500,-19.500,-3.500,2.500
1.185,-0.500,-19.000,-2.500,4.500
1.186,-1.000,-19.500,-1.500,6.500
1.187,-1.000,-19.500,-1.000,8.000
1.188,-1.000,-20.500,-0.500,9.500
1.189,-0.500,-21.500,-0.500,11.000
1.190,-1.000,-23.000,-1.500,12.000
1.191,-1.000,-24.000,-2.000,12.500
1.192,-1.500,-25.500,-3.500,13.000
1.193,-2.000,-26.500,-4.000,13.000
1.194,-2.500,-28.000,-5.500,13.500
1.195,-3.000,-29.000,-6.000,13.500
1.196,-3.500,-30.000,-7.000,14.500
1.197,-4.000,-31.000,-8.000,15.000
1.198,-5.000,-31.500,-9.000,15.500
1.199,-5.500,-32.000,-10.000,15.500
1.200,-6.000,-33.000,-12.000,15.500
1.201,-6.500,-33.500,-14.000,15.000
1.202,-7.000,-34.500,-16.500,14.500
1.203,-7.500,-35.500,-19.500,13.000
1.204,-8.500,-37.500,-23.000,11.000
1.205,-9.000,-39.000,-26.500,8.500
1.206,-10.000,-41.500,-30.500,6.000
1.207,-10.500,-44.000,-34.500,2.000
1.208,-11.000,-46.500,-39.500,-2.500
1.209,-11.500,-49.000,-44.000,-7.500
1.210,-12.000,-52.000,-49.500,-13.500
1.211,-12.500,-54.500,-54.500,-20.000
1.212,-12.500,-57.000,-59.500,-27.500
1.213,-12.500,-59.000,-64.500,-35.000
1.214,-13.000,-60.500,-69.500,-42.500
1.215,-13.500,-61.500,-73.500,-50.000
1.216,-14.000,-62.500,-77.500,-57.000
1.217,-14.000,-63.000,-80.500,-63.000
1.218,-14.500,-63.000,-83.000,-68.000
1.219,-14.000,-62.500,-83.500,-71.000
1.220,-14.000,-61.500,-83.000,-73.500
1.221,-13.000,-59.500,-81.000,-74.000
1.222,-12.000,-57.500,-78.000,-74.000
1.223,-11.000,-55.000,-74.500,-73.000
1.224,-10.000,-52.500,-70.500,-71.500
1.225,-9.000,-50.000,-66.000,-69.500
1.226,-8.000,-48.000,-62.500,-67.500
1.227,-7.000,-46.000,-58.500,-65.000
1.228,-6.500,-45.000,-55.000,-62.500
1.229,-6.000,-43.500,-51.500,-60.000
1.230,-5.500,-42.000,-48.000,-57.500
1.231,-5.000,-40.500,-44.500,-55.000
1.232,-5.000,-39.500,-41.500,-52.000
1.233,-4.500,-38.500,-38.500,-49.500
1.234,-4.000,-37.500,-36.500,-47.000
1.235,-3.500,-36.000,-34.000,-44.000
1.236,-3.500,-35.000,-31.500,-42.000
1.237,-3.000,-33.000,-29.000,-39.500
1.238,-3.000,-31.500,-26.500,-37.500
1.239,-3.000,-29.500,-24.000,-35.000
1.240,-3.000,-28.000,-22.000,-33.000
1.241,-2.500,-26.500,-20.000,-31.000
1.242,-2.500,-25.000,-18.000,-29.000
1.243,-2.000,-23.500,-16.500,-27.000
1.244,-2.000,-23.000,-15.500,-25.000
1.245,-2.000,-22.500,-14.000,-23.000
1.246,-2.000,-22.500,-13.500,-21.500
1.247,-1.500,-22.500,-13.000,-20.000
1.248,-1.500,-23.000,-13.000,-18.500
1.249,-1.500,-24.000,-13.000,-17.000
1.250,-1.500,-25.000,-13.000,-16.000
1.251,-1.500,-25.500,-13.000,-14.500
1.252,-2.000,-26.000,-13.000,-13.500
1.253,-2.500,-26.500,-13.000,-12.500
1.254,-3.000,-27.000,-13.000,-11.500
1.255,-3.000,-27.500,-13.000,-10.500
1.256,-3.500,-27.500,-13.000,-10.000
1.257,-4.000,-27.500,-12.500,-9.500
1.258,-4.000,-27.000,-12.000,-9.000
1.259,-4.000,-26.500,-11.000,-8.000
1.260,-4.000,-26.000,-11.000,-8.000
1.261,-4.000,-25.000,-10.500,-7.000
1.262,-4.000,-24.500,-10.000,-7.000
1.263,-4.000,-24.000,-9.500,-6.500
1.264,-4.000,-24.000,-9.000,-6.000
1.265,-4.000,-23.500,-9.000,-6.000
1.266,-4.000,-24.000,-9.000,-6.000
1.267,-4.000,-24.500,-9.000,-6.000
1.268,-4.000,-25.000,-9.500,-6.000
1.269,-3.500,-26.000,-10.000,-6.000
1.270,-3.500,-27.000,-10.500,-6.500
1.271,-3.500,-27.500,-10.500,-6.500
1.272,-3.500,-28.500,-11.000,-6.500
1.273,-3.000,-29.000,-11.000,-6.500
1.274,-3.000,-29.500,-11.000,-7.000
1.275,-3.000,-29.500,-11.000,-7.500
1.276,-3.000,-29.500,-10.500,-7.500
1.277,-3.000,-29.000,-9.500,-7.500
1.278,-3.500,-28.500,-9.000,-7.500
1.279,-3.500,-27.500,-8.500,-7.000
1.280,-4.000,-27.000,-8.000,-6.500
1.281,-4.000,-26.000,-7.500,-6.000
1.282,-4.000,-25.500,-7.500,-5.500
1.283,-3.500,-24.500,-7.000,-5.000
1.284,-3.500,-24.000,-7.500,-5.000
1.285,-3.500,-23.500,-7.500,-5.000
1.286,-3.000,-23.500,-8.000,-5.000
1.287,-3.000,-23.500,-8.500,-5.000
1.288,-3.000,-24.000,-9.000,-5.500
1.289,-3.000,-24.500,-9.500,-5.500
1.290,-3.000,-25.500,-10.000,-6.000
1.291,-3.000,-26.000,-10.000,-5.500
1.292,-3.500,-26.500,-10.500,-6.000
1.293,-4.000,-27.000,-11.000,-6.000
1.294,-4.000,-27.000,-11.000,-6.000
1.295,-4.000,-27.000,-11.000,-6.000
1.296,-4.500,-27.000,-11.000,-6.000
1.297,-4.500,-26.500,-11.000,-5.500
1.298,-5.000,-26.000,-10.500,-5.500
1.299,-5.500,-25.500,-10.000,-5.500
1.300,-5.500,-24.500,-9.500,-5.500
1.301,-6.000,-23.500,-8.500,-5.000
1.302,-6.000,-23.000,-8.000,-5.000
1.303,-6.000,-22.000,-7.500,-4.500
1.304,-6.000,-22.000,-7.500,-4.500
1.305,-6.000,-22.000,-7.500,-4.000
1.306,-6.500,-22.500,-8.000,-4.500
1.307,-6.000,-23.000,-8.500,-4.500
1.308,-6.000,-24.000,-9.500,-5.000
1.309,-6.000,-24.500,-10.000,-5.000
1.310,-6.000,-25.500,-11.000,-5.500
1.311,-6.000,-26.000,-11.500,-5.500
1.312,-6.000,-27.000,-12.000,-6.000
1.313,-5.500,-27.000,-11.500,-6.000
1.314,-5.500,-27.500,-11.500,-6.000
1.315,-5.000,-27.500,-11.000,-6.000
1.316,-5.500,-27.500,-10.500,-6.500
1.317,-5.500,-27.000,-10.500,-6.500
1.318,-5.500,-26.500,-10.000,-6.500
1.319,-5.500,-26.000,-9.500,-6.500
1.320,-6.000,-25.500,-9.500,-6.000
1.321,-6.000,-24.500,-9.500,-5.500
1.322,-6.000,-24.000,-9.500,-5.500
1.323,-6.000,-23.000,-9.500,-5.500
1.324,-6.000,-22.500,-9.500,-5.500
1.325,-5.500,-22.500,-9.500,-5.000
1.326,-5.500,-22.500,-10.000,-5.000
1.327,-5.000,-23.000,-10.500,-5.000
1.328,-5.000,-23.500,-11.000,-5.000
1.329,-5.000,-24.500,-11.500,-5.500
1.330,-5.000,-25.500,-12.500,-6.000
1.331,-5.000,-26.000,-13.000,-6.000
1.332,-5.000,-27.000,-13.500,-7.000
1.333,-5.000,-27.000,-13.500,-7.500
1.334,-5.500,-27.500,-13.500,-8.000
1.335,-5.500,-27.000,-13.500,-8.000
1.336,-5.500,-27.000,-13.500,-8.500
1.337,-5.500,-26.500,-13.000,-8.000
1.338,-6.000,-26.000,-12.500,-8.000
1.339,-6.000,-25.000,-12.000,-8.000
1.340,-6.500,-24.000,-11.500,-7.500
1.341,-6.500,-23.000,-10.500,-7.000
1.342,-6.500,-22.500,-10.000,-7.000
1.343,-6.000,-22.000,-9.000,-6.500
1.344,-6.500,-21.500,-9.000,-6.000
1.345,-6.500,-21.500,-9.000,-6.000
1.346,-7.000,-22.000,-9.500,-6.000
1.347,-7.000,-22.500,-10.000,-6.000
1.348,-7.000,-23.500,-10.500,-6.500
1.349,-6.500,-24.500,-11.500,-7.000
1.350,-6.500,-25.500,-12.000,-7.500
1.351,-6.500,-26.500,-12.500,-8.000
1.352,-6.500,-27.500,-13.500,-8.500
1.353,-6.500,-27.500,-13.500,-9.000
1.354,-7.000,-28.000,-14.000,-9.500
1.355,-7.000,-28.000,-14.000,-9.500
1.356,-7.000,-28.000,-14.000,-9.500
1.357,-7.000,-27.000,-13.000,-9.500
1.358,-7.000,-26.500,-12.500,-9.500
1.359,-7.000,-25.500,-12.000,-9.000
1.360,-7.500,-25.000,-11.500,-9.000
1.361,-7.500,-24.000,-10.500,-8.500
1.362,-7.500,-23.500,-10.000,-8.500
1.363,-7.500,-23.000,-10.000,-8.000
1.364,-7.500,-22.500,-10.000,-8.000
1.365,-7.000,-22.500,-10.500,-8.000
1.366,-7.000,-23.000,-11.000,-8.000
1.367,-7.000,-23.000,-11.500,-8.000
1.368,-7.000,-24.000,-12.500,-8.500
1.369,-6.500,-25.000,-13.000,-9.000
1.370,-6.500,-26.000,-13.500,-9.500
1.371,-6.500,-26.500,-14.000,-9.500
1.372,-6.500,-27.500,-14.500,-10.000
1.373,-6.500,-28.500,-15.000,-10.500
1.374,-7.000,-29.000,-15.000,-11.000
1.375,-7.000,-28.500,-15.000,-11.500
1.376,-7.500,-28.500,-15.000,-11.500
1.377,-7.500,-28.000,-15.000,-11.500
1.378,-8.000,-28.000,-14.500,-12.000
1.379,-8.000,-27.500,-14.000,-11.500
1.380,-8.000,-27.000,-14.000,-11.500
1.381,-7.500,-26.500,-13.500,-11.000
1.382,-7.500,-26.000,-13.000,-10.500
1.383,-7.000,-25.000,-12.500,-10.000
1.384,-7.000,-25.000,-12.500,-10.000
1.385,-6.500,-24.500,-12.000,-10.000
1.386,-7.000,-25.000,-12.500,-10.000
1.387,-7.000,-25.500,-12.500,-10.500
1.388,-7.500,-26.500,-13.500,-11.000
1.389,-7.500,-27.500,-14.000,-11.000
1.390,-8.000,-29.000,-15.000,-12.000
1.391,-8.000,-29.500,-15.500,-12.000
1.392,-8.000,-30.500,-16.500,-13.000
1.393,-7.500,-31.000,-17.000,-13.000
1.394,-8.000,-31.500,-17.500,-13.500
1.395,-8.000,-31.500,-17.500,-13.500
1.396,-8.000,-32.000,-17.500,-14.000
1.397,-8.000,-31.500,-17.000,-13.500
1.398,-8.000,-31.500,-17.000,-13.500
1.399,-8.000,-31.000,-16.500,-13.500
1.400,-8.000,-31.000,-16.500,-13.500
1.401,-8.000,-30.000,-16.000,-13.000
1.402,-8.000,-29.500,-16.000,-13.000
1.403,-8.000,-29.000,-15.500,-13.000
1.404,-8.000,-29.000,-15.500,-13.000
1.405,-7.500,-28.500,-15.500,-13.000
1.406,-7.500,-29.000,-16.000,-13.500
1.407,-7.500,-29.500,-16.500,-14.000
1.408,-7.500,-30.500,-17.500,-14.500
1.409,-7.500,-31.500,-18.500,-15.000
1.410,-7.500,-32.500,-19.500,-16.000
1.411,-7.500,-33.500,-20.000,-16.500
1.412,-8.000,-34.500,-20.500,-17.000
1.413,-8.000,-35.000,-20.500,-17.000
1.414,-8.500,-35.500,-20.500,-17.500
1.415,-8.500,-35.500,-20.500,-18.000
1.416,-9.000,-35.500,-21.000,-18.000
1.417,-9.500,-35.500,-21.000,-18.000
1.418,-10.000,-35.000,-21.500,-18.500
1.419,-10.000,-34.500,-22.000,-18.500
1.420,-10.500,-34.000,-22.000,-18.500
1.421,-10.500,-33.500,-22.000,-18.000
1.422,-11.000,-33.000,-22.500,-18.000
1.423,-11.000,-32.500,-22.500,-18.000
1.424,-11.500,-32.500,-23.000,-18.000
1.425,-11.500,-32.500,-23.500,-17.500
1.426,-11.500,-33.000,-24.000,-18.000
1.427,-11.500,-33.500,-24.500,-18.000
1.428,-11.500,-34.500,-25.500,-18.500
1.429,-11.500,-35.000,-25.500,-18.500
1.430,-11.500,-36.500,-26.000,-19.500
1.431,-11.500,-37.000,-26.000,-19.500
1.432,-11.500,-38.000,-26.500,-20.000
1.433,-11.500,-38.500,-26.500,-20.000
1.434,-12.000,-39.000,-26.500,-20.500
1.435,-12.000,-39.000,-26.000,-20.500
1.436,-12.500,-39.000,-26.000,-20.500
1.437,-13.000,-38.500,-25.000,-20.000
1.438,-13.000,-38.000,-24.500,-20.000
1.439,-13.000,-37.000,-24.000,-19.500
1.440,-13.500,-36.500,-23.500,-19.000
1.441,-13.000,-35.500,-23.000,-18.500
1.442,-13.500,-35.000,-23.000,-18.500
1.443,-13.500,-34.000,-23.000,-18.000
1.444,-13.500,-34.000,-23.000,-17.500
1.445,-13.500,-34.000,-23.000,-17.000
1.446,-13.500,-34.500,-23.500,-17.000
1.447,-13.000,-35.000,-23.500,-16.500
1.448,-12.500,-35.500,-23.500,-16.500
1.449,-12.000,-36.000,-23.000,-16.000
1.450,-12.000,-37.000,-23.000,-16.000
1.451,-11.500,-37.500,-23.000,-16.000
1.452,-11.500,-38.000,-23.000,-16.000
1.453,-11.500,-38.000,-23.000,-15.500
1.454,-11.500,-38.000,-23.000,-15.500
1.455,-11.000,-38.000,-22.500,-15.000
1.456,-11.000,-38.000,-22.000,-14.500
1.457,-11.000,-37.500,-21.500,-14.000
1.458,-11.000,-37.000,-21.000,-13.500
1.459,-11.000,-36.000,-20.000,-13.000
1.460,-11.500,-35.000,-19.500,-12.000
1.461,-11.500,-33.500,-18.500,-11.000
1.462,-12.000,-32.500,-18.000,-10.000
1.463,-12.000,-31.000,-17.000,-9.000
1.464,-12.000,-30.500,-16.500,-8.500
1.465,-11.500,-30.000,-15.500,-8.000
1.466,-11.500,-29.500,-15.000,-7.500
1.467,-11.000,-29.500,-14.500,-7.500
1.468,-11.000,-29.500,-14.500,-7.500
1.469,-11.000,-30.000,-14.500,-7.500
1.470,-11.000,-30.500,-15.000,-7.500
1.471,-11.000,-30.500,-15.000,-7.500
1.472,-11.000,-31.000,-15.000,-8.000
1.473,-11.000,-31.000,-15.000,-7.500
1.474,-11.500,-31.000,-15.000,-7.500
1.475,-11.500,-30.500,-14.500,-7.500
1.476,-11.500,-30.500,-14.000,-7.500
1.477,-11.000,-29.500,-13.000,-7.000
1.478,-11.500,-29.000,-12.500,-6.500
1.479,-11.500,-28.000,-11.000,-5.500
1.480,-11.500,-27.500,-10.500,-5.000
1.481,-11.000,-26.500,-9.500,-4.500
1.482,-11.500,-26.000,-9.000,-4.000
1.483,-11.500,-25.500,-8.000,-3.500
1.484,-11.500,-25.500,-8.000,-3.000
1.485,-11.000,-25.000,-7.500,-2.500
1.486,-11.000,-25.500,-8.000,-2.500
1.487,-10.500,-25.500,-8.000,-2.500
1.488,-10.500,-26.000,-9.000,-3.000
1.489,-10.000,-26.500,-9.500,-3.000
1.490,-10.000,-27.500,-10.000,-3.500
1.491,-10.000,-27.500,-10.000,-4.000
1.492,-10.000,-28.000,-10.500,-4.500
1.493,-10.000,-28.000,-10.500,-5.000
1.494,-10.500,-28.000,-10.500,-5.500
1.495,-10.500,-27.500,-10.000,-5.500
1.496,-11.000,-27.500,-9.500,-6.000
1.497,-11.000,-27.000,-8.500,-5.500
1.498,-11.000,-26.500,-8.000,-5.500
1.499,-10.500,-26.000,-7.000,-5.000
1.500,-10.500,-25.500,-6.500,-5.000
1.501,-10.500,-24.500,-5.500,-4.500
1.502,-10.500,-23.500,-5.000,-4.000
1.503,-10.000,-22.500,-4.500,-3.000
1.504,-10.000,-22.000,-4.000,-2.500
1.505,-9.500,-21.000,-3.500,-1.500
1.506,-9.500,-20.000,-3.500,-1.000
1.507,-9.000,-19.500,-3.000,0.000
1.508,-9.000,-19.000,-2.500,1.000
1.509,-9.000,-19.500,-2.500,1.000
1.510,-9.000,-20.000,-2.500,1.500
1.511,-9.000,-21.000,-2.500,1.500
1.512,-9.500,-22.000,-3.000,1.500
1.513,-9.500,-22.500,-3.000,1.000
1.514,-9.500,-23.500,-4.000,0.500
1.515,-9.500,-24.000,-4.500,0.000
1.516,-10.000,-24.500,-5.000,-1.000
1.517,-10.000,-24.000,-5.500,-1.500
1.518,-10.500,-24.500,-6.500,-2.500
1.519,-11.000,-24.500,-7.000,-3.000
1.520,-11.500,-24.500,-7.500,-3.500
1.521,-11.500,-24.500,-7.500,-4.000
1.522,-12.000,-24.500,-8.000,-5.000
1.523,-12.000,-24.500,-8.500,-6.000
1.524,-12.000,-24.500,-9.000,-6.500
1.525,-12.000,-24.500,-9.500,-7.000
1.526,-12.000,-25.000,-10.500,-7.500
1.527,-12.000,-25.500,-11.000,-8.000
1.528,-12.500,-26.000,-12.000,-8.500
1.529,-12.500,-26.500,-12.000,-9.000
1.530,-12.500,-27.500,-12.500,-9.000
1.531,-12.000,-27.500,-12.500,-9.000
1.532,-12.000,-28.000,-12.500,-9.000
1.533,-11.500,-28.000,-12.000,-9.000
1.534,-11.000,-28.000,-12.000,-8.500
1.535,-10.500,-27.500,-11.000,-8.000
1.536,-10.500,-27.000,-10.500,-7.500
1.537,-10.500,-26.000,-9.500,-7.000
1.538,-10.500,-25.500,-8.500,-6.500
1.539,-10.000,-24.000,-7.500,-6.000
1.540,-10.500,-23.000,-6.500,-5.500
1.541,-10.500,-22.000,-5.500,-4.500
1.542,-10.500,-21.000,-5.000,-4.500
1.543,-10.500,-20.000,-4.500,-4.000
1.544,-10.500,-19.500,-4.500,-3.500
1.545,-10.500,-18.500,-4.500,-3.500
1.546,-10.500,-18.500,-5.000,-3.500
1.547,-10.000,-18.500,-5.500,-4.000
1.548,-10.000,-19.500,-6.000,-4.500
1.549,-9.500,-20.500,-6.500,-5.000
1.550,-9.500,-21.500,-7.500,-5.500
1.551,-9.500,-22.500,-8.000,-6.000
1.552,-10.000,-24.000,-8.500,-7.000
1.553,-10.000,-24.500,-8.500,-7.000
1.554,-10.000,-25.000,-8.500,-7.500
1.555,-10.000,-25.000,-8.000,-7.500
1.556,-10.000,-25.000,-8.000,-7.500
1.557,-10.000,-24.000,-7.500,-7.500
1.558,-10.500,-23.500,-7.500,-7.000
1.559,-10.500,-22.500,-7.000,-6.500
1.560,-10.500,-21.500,-6.500,-5.500
1.561,-10.500,-20.500,-5.500,-5.000
1.562,-10.500,-20.000,-5.000,-4.500
1.563,-10.000,-19.000,-4.500,-4.000
1.564,-9.500,-18.500,-4.500,-4.000
1.565,-9.000,-18.500,-4.000,-4.000
1.566,-9.000,-18.500,-4.000,-4.000
1.567,-9.000,-19.000,-4.000,-4.500
1.568,-9.000,-19.500,-4.500,-5.000
1.569,-9.000,-20.500,-4.500,-5.000
1.570,-9.000,-21.500,-4.500,-5.500
1.571,-9.000,-22.000,-4.500,-5.500
1.572,-9.500,-23.000,-4.500,-5.500
1.573,-9.500,-23.000,-4.500,-5.500
1.574,-10.000,-23.500,-4.500,-6.000
1.575,-9.500,-23.500,-4.500,-6.500
1.576,-10.000,-23.500,-5.000,-6.500
1.577,-10.000,-23.000,-5.000,-6.500
1.578,-10.500,-22.500,-5.500,-6.500
1.579,-10.500,-22.000,-5.500,-6.500
1.580,-11.500,-21.500,-5.500,-6.000
1.581,-11.500,-21.000,-5.000,-5.500
1.582,-12.000,-20.000,-5.000,-5.000
1.583,-12.000,-19.000,-4.500,-4.500
1.584,-12.000,-19.000,-4.500,-4.500
1.585,-12.000,-18.500,-4.500,-4.000
1.586,-12.000,-18.500,-4.500,-4.000
1.587,-11.500,-18.500,-4.500,-3.500
1.588,-12.000,-19.500,-5.000,-4.000
1.589,-11.500,-20.000,-5.500,-4.000
1.590,-11.500,-21.000,-6.000,-4.500
1.591,-11.500,-21.500,-6.000,-4.500
1.592,-11.500,-22.000,-6.500,-5.000
1.593,-11.500,-22.500,-7.000,-5.500
1.594,-11.500,-22.500,-7.500,-5.500
1.595,-11.500,-22.500,-7.500,-5.500
1.596,-12.000,-22.000,-7.500,-5.500
1.597,-11.500,-21.500,-7.500,-5.000
1.598,-12.000,-21.000,-7.500,-5.000
1.599,-11.500,-20.000,-7.000,-4.500
1.600,-12.000,-19.000,-6.500,-4.000
1.601,-11.500,-18.000,-5.500,-3.500
1.602,-12.000,-17.500,-5.000,-3.500
1.603,-12.000,-16.500,-4.500,-3.000
1.604,-12.000,-16.000,-4.500,-2.500
1.605,-12.000,-16.000,-4.000,-2.500
1.606,-12.000,-16.000,-4.000,-2.500
1.607,-12.000,-16.500,-4.000,-2.000
1.608,-12.000,-17.500,-4.000,-2.500
1.609,-11.500,-18.000,-4.000,-2.500
1.610,-12.000,-19.000,-4.500,-3.000
1.611,-11.500,-20.000,-5.000,-3.000
1.612,-12.000,-20.500,-5.000,-3.500
1.613,-11.500,-21.000,-5.000,-4.000
1.614,-12.000,-21.500,-5.500,-4.000
1.615,-12.000,-21.500,-5.500,-4.000
1.616,-12.000,-22.000,-5.500,-3.500
1.617,-12.000,-21.500,-5.500,-3.000
1.618,-12.500,-21.500,-5.500,-2.500
1.619,-12.500,-20.500,-5.000,-1.500
1.620,-13.000,-20.000,-4.500,-1.000
1.621,-13.000,-18.500,-4.000,-0.500
1.622,-13.000,-18.000,-4.000,-0.500
1.623,-13.000,-17.000,-4.000,0.000
1.624,-13.000,-16.500,-3.500,0.000
1.625,-13.000,-16.000,-3.500,0.000
1.626,-13.000,-16.500,-3.500,0.000
1.627,-12.500,-17.000,-3.500,0.000
1.628,-12.500,-17.500,-4.000,0.000
1.629,-12.500,-18.000,-4.000,0.000
1.630,-12.500,-19.000,-4.500,-0.500
1.631,-12.500,-19.500,-4.500,-0.500
1.632,-12.500,-20.500,-5.000,-1.000
1.633,-12.500,-20.500,-5.000,-1.000
1.634,-13.000,-21.000,-5.000,-1.500
1.635,-13.000,-21.000,-5.000,-2.000
1.636,-13.000,-21.000,-4.500,-2.000
1.637,-13.000,-21.000,-4.000,-2.000
1.638,-13.500,-20.500,-4.000,-2.000
1.639,-13.500,-20.000,-3.500,-2.000
1.640,-13.500,-19.500,-3.000,-1.500
1.641,-13.500,-18.500,-2.500,-1.000
1.642,-13.500,-17.500,-2.500,-1.000
1.643,-13.500,-16.500,-2.000,-0.500
1.644,-13.500,-16.500,-2.500,-0.500
1.645,-13.000,-16.000,-2.500,-0.500
1.646,-13.000,-16.500,-2.500,-0.500
1.647,-12.500,-16.500,-3.000,-0.500
1.648,-13.000,-17.500,-3.500,-1.000
1.649,-13.000,-18.000,-4.000,-1.500
1.650,-13.000,-19.000,-4.500,-2.000
1.651,-13.000,-19.500,-4.500,-2.500
1.652,-13.500,-20.000,-5.000,-3.000
1.653,-13.500,-20.500,-5.000,-3.000
1.654,-14.000,-21.000,-5.000,-3.500
1.655,-14.000,-20.500,-5.000,-3.000
1.656,-14.500,-20.500,-5.000,-3.000
1.657,-15.000,-20.000,-5.000,-3.000
1.658,-15.000,-20.000,-5.000,-3.000
1.659,-15.000,-19.000,-4.500,-2.500
1.660,-15.000,-18.500,-4.000,-2.500
1.661,-14.500,-17.500,-3.000,-2.000
1.662,-14.500,-17.000,-2.500,-1.500
1.663,-14.500,-16.000,-2.000,-1.000
1.664,-14.500,-16.000,-2.000,-1.000
1.665,-14.000,-16.000,-2.000,-1.000
1.666,-14.000,-16.500,-2.500,-1.000
1.667,-13.500,-16.500,-3.000,-1.500
1.668,-13.500,-17.500,-3.500,-2.000
1.669,-13.000,-18.000,-4.000,-2.500
1.670,-13.000,-19.000,-5.000,-3.000
1.671,-13.000,-19.500,-5.500,-3.000
1.672,-13.000,-20.000,-6.000,-3.000
1.673,-13.000,-20.000,-6.000,-3.000
1.674,-13.000,-20.500,-6.000,-3.000
1.675,-13.000,-20.000,-5.500,-2.500
1.676,-13.000,-20.000,-5.500,-2.000
1.677,-13.000,-19.000,-4.500,-1.500
1.678,-13.000,-18.500,-4.500,-1.000
1.679,-12.500,-17.500,-3.500,-0.500
1.680,-13.000,-17.000,-3.500,0.000
1.681,-13.000,-16.000,-3.000,0.500
1.682,-13.000,-15.500,-2.500,1.000
1.683,-12.500,-15.000,-2.500,1.000
1.684,-13.000,-14.500,-2.500,1.000
1.685,-12.500,-14.000,-2.500,1.000
1.686,-12.500,-14.000,-2.500,0.500
1.687,-12.000,-14.000,-2.500,0.000
1.688,-12.000,-15.000,-3.000,-0.500
1.689,-12.000,-15.500,-3.500,-0.500
1.690,-12.000,-17.000,-4.000,-1.000
1.691,-12.000,-18.000,-4.500,-1.500
1.692,-12.500,-19.000,-5.000,-2.500
1.693,-12.500,-20.000,-5.500,-3.000
1.694,-12.500,-21.000,-6.000,-3.000
1.695,-12.500,-21.000,-5.500,-2.500
1.696,-13.000,-21.500,-5.500,-2.500
1.697,-13.000,-21.000,-4.500,-1.500
1.698,-13.500,-20.500,-4.000,-1.500
1.699,-13.500,-19.500,-3.000,-1.000
1.700,-13.500,-18.500,-2.500,-1.000
1.701,-13.500,-17.500,-2.000,-1.000
1.702,-13.500,-16.500,-1.500,-1.000
1.703,-13.000,-15.500,-1.000,-1.000
1.704,-13.000,-15.000,-1.000,-1.000
1.705,-13.000,-14.500,-1.000,-1.000
1.706,-13.000,-14.500,-1.000,-1.000
1.707,-13.000,-14.000,-1.500,-1.000
1.708,-13.000,-14.500,-2.000,-1.000
1.709,-12.500,-15.000,-2.500,-1.000
1.710,-12.500,-16.000,-3.000,-1.500
1.711,-12.500,-16.500,-3.000,-2.000
1.712,-13.000,-17.500,-3.500,-2.500
1.713,-13.000,-18.000,-3.500,-2.500
1.714,-13.000,-18.500,-4.000,-2.500
1.715,-13.000,-18.500,-3.500,-2.500
1.716,-13.000,-18.500,-3.500,-2.500
1.717,-13.000,-17.500,-3.000,-2.000
1.718,-13.500,-17.000,-3.000,-2.000
1.719,-13.500,-16.000,-2.500,-1.500
1.720,-13.500,-15.500,-2.000,-1.500
1.721,-13.500,-14.500,-1.500,-1.000
1.722,-13.500,-14.000,-1.500,-1.000
1.723,-13.000,-13.000,-1.000,-0.500
1.724,-13.000,-13.000,-1.500,-0.500
1.725,-13.000,-12.500,-1.500,0.000
1.726,-13.500,-13.000,-2.000,0.500
1.727,-13.500,-13.500,-2.500,0.500
1.728,-13.500,-14.500,-3.500,0.500
1.729,-13.500,-15.500,-4.000,0.500
1.730,-13.500,-16.500,-4.500,-0.500
1.731,-13.500,-17.500,-4.500,-1.000
1.732,-13.500,-18.500,-5.000,-1.500
1.733,-13.500,-18.500,-5.000,-2.000
1.734,-13.500,-19.000,-5.000,-2.500
1.735,-13.500,-18.500,-4.500,-2.500
1.736,-13.500,-18.500,-5.000,-2.500
1.737,-13.500,-17.500,-5.000,-2.500
1.738,-14.000,-17.000,-5.000,-2.000
1.739,-14.500,-16.500,-4.500,-1.500
1.740,-14.500,-15.500,-4.500,-1.000
1.741,-14.500,-14.500,-3.500,-0.500
1.742,-14.500,-14.000,-3.500,0.000
1.743,-14.500,-13.500,-3.000,0.500
1.744,-14.500,-13.000,-3.000,1.000
1.745,-14.000,-13.000,-3.000,1.000
1.746,-14.000,-13.000,-3.000,1.500
1.747,-13.500,-13.500,-3.500,1.500
1.748,-13.500,-14.500,-4.000,1.500
1.749,-13.000,-15.000,-4.500,1.000
1.750,-13.500,-16.000,-5.000,1.000
1.751,-13.500,-16.500,-5.000,1.000
1.752,-13.500,-17.500,-5.000,1.000
1.753,-13.500,-18.000,-5.000,1.000
1.754,-14.000,-18.500,-5.000,1.500
1.755,-14.000,-18.500,-5.000,1.500
1.756,-14.000,-19.000,-4.500,1.500
1.757,-13.500,-18.500,-4.000,1.000
1.758,-14.000,-18.000,-3.500,1.000
1.759,-14.000,-17.000,-3.000,1.000
1.760,-14.500,-16.000,-2.500,1.000
1.761,-14.500,-15.000,-2.000,1.000
1.762,-15.000,-14.500,-2.000,1.500
1.763,-15.000,-13.500,-1.500,1.500
1.764,-15.500,-13.500,-1.500,1.500
1.765,-15.500,-13.000,-1.500,1.500
1.766,-15.500,-13.000,-2.000,2.000
1.767,-15.000,-13.000,-2.000,2.000
1.768,-14.500,-13.500,-2.000,2.000
1.769,-14.000,-14.000,-2.500,2.000
1.770,-14.000,-15.000,-3.000,2.000
1.771,-14.000,-16.000,-3.000,2.000
1.772,-14.000,-16.500,-3.500,2.500
1.773,-14.000,-17.000,-3.500,2.500
1.774,-14.500,-17.500,-3.500,3.000
1.775,-14.500,-17.000,-3.000,3.500
1.776,-15.000,-17.000,-2.500,4.500
1.777,-15.000,-16.000,-1.500,5.000
1.778,-15.000,-15.500,-0.500,5.500
1.779,-15.500,-14.500,0.500,5.500
1.780,-16.000,-13.500,1.500,6.000
1.781,-16.000,-12.500,2.500,6.500
1.782,-16.000,-12.000,3.000,6.500
1.783,-16.000,-11.500,3.500,6.500
1.784,-16.000,-11.000,3.500,7.000
1.785,-15.500,-10.500,3.500,7.000
1.786,-15.500,-10.500,3.500,7.500
1.787,-15.500,-10.500,2.500,7.500
1.788,-15.500,-11.000,2.000,7.500
1.789,-15.000,-11.500,1.000,7.500
1.790,-15.000,-12.500,0.500,7.500
1.791,-14.500,-13.000,0.000,7.500
1.792,-15.000,-14.000,-1.000,7.500
1.793,-15.000,-14.500,-1.000,7.500
1.794,-15.000,-15.500,-1.500,7.500
1.795,-15.000,-15.500,-1.500,7.500
1.796,-15.500,-16.000,-1.500,7.000
1.797,-15.500,-16.000,-1.500,6.500
1.798,-15.500,-15.500,-1.500,6.500
1.799,-15.000,-14.500,-1.500,6.500
1.800,-15.000,-14.000,-1.500,6.500
1.801,-15.000,-12.500,-1.000,6.000
1.802,-15.000,-12.000,-1.000,6.000
1.803,-15.000,-11.000,-1.000,5.500
1.804,-15.000,-10.500,-1.500,5.500
1.805,-15.000,-10.500,-1.500,5.500
1.806,-15.000,-11.000,-2.500,5.000
1.807,-15.000,-11.500,-3.000,5.000
1.808,-15.000,-12.000,-3.500,5.000
1.809,-15.000,-12.500,-4.000,4.500
1.810,-15.000,-13.000,-4.500,4.500
1.811,-15.000,-13.000,-5.000,4.000
1.812,-15.000,-13.500,-5.500,3.500
1.813,-15.000,-13.500,-5.500,3.500
1.814,-15.500,-13.500,-5.500,3.500
1.815,-15.500,-13.500,-5.000,3.000
1.816,-16.000,-13.500,-5.000,3.500
1.817,-16.000,-13.000,-4.500,3.500
1.818,-16.000,-13.000,-4.000,4.000
1.819,-16.000,-12.000,-3.500,4.500
1.820,-16.500,-11.500,-2.500,4.500
1.821,-16.500,-10.500,-1.500,4.500
1.822,-17.000,-9.500,-1.000,4.500
1.823,-17.500,-8.500,-0.500,4.500
1.824,-17.500,-8.500,-0.500,4.500
1.825,-17.500,-8.000,-0.500,4.500
1.826,-17.500,-8.500,-1.000,4.000
1.827,-17.500,-8.500,-1.000,4.000
1.828,-18.000,-9.000,-1.500,4.000
1.829,-18.000,-9.500,-1.500,3.500
1.830,-18.000,-10.500,-1.500,4.000
1.831,-17.500,-11.000,-1.500,4.000
1.832,-17.500,-12.000,-1.000,4.000
1.833,-17.500,-12.000,-0.500,4.000
1.834,-17.500,-12.500,-0.500,4.500
1.835,-17.000,-12.500,0.000,4.000
1.836,-17.000,-12.000,0.500,4.500
1.837,-17.000,-11.500,1.000,4.500
1.838,-17.000,-11.000,1.500,4.500
1.839,-17.000,-10.000,2.000,4.500
1.840,-17.500,-9.000,2.500,4.500
1.841,-17.500,-8.000,2.500,4.500
1.842,-17.500,-7.500,3.000,5.000
1.843,-17.500,-7.000,2.500,5.000
1.844,-17.500,-7.000,2.500,5.000
1.845,-17.000,-7.000,2.500,4.500
1.846,-17.000,-7.500,2.000,4.500
1.847,-17.000,-8.000,1.500,4.500
1.848,-17.000,-8.500,1.500,4.000
1.849,-17.000,-9.000,0.500,3.500
1.850,-16.500,-10.000,0.000,3.000
1.851,-16.000,-11.000,-0.500,2.000
1.852,-16.000,-12.000,-1.500,1.500
1.853,-16.000,-12.500,-1.500,1.000
1.854,-16.500,-13.000,-2.000,1.000
1.855,-16.500,-13.500,-2.000,1.000
1.856,-17.000,-14.000,-2.000,1.000
1.857,-17.500,-13.500,-1.500,1.500
1.858,-18.000,-13.000,-1.000,1.500
1.859,-18.500,-12.500,-0.500,1.500
1.860,-19.000,-11.500,0.500,2.000
1.861,-19.000,-10.500,0.500,2.500
1.862,-19.000,-10.000,1.000,2.500
1.863,-19.000,-9.000,1.000,2.500
1.864,-19.000,-8.500,1.500,3.000
1.865,-19.000,-8.500,1.000,3.000
1.866,-19.000,-8.500,1.000,3.500
1.867,-18.500,-9.000,0.500,3.000
1.868,-18.500,-9.500,0.000,3.000
1.869,-18.000,-10.000,-0.500,2.500
1.870,-17.500,-11.000,-0.500,2.000
1.871,-17.000,-12.000,-0.500,1.500
1.872,-17.500,-12.500,-1.000,1.500
1.873,-17.500,-13.000,-1.500,1.000
1.874,-18.000,-13.000,-1.500,1.000
1.875,-18.000,-13.000,-1.500,1.000
1.876,-18.500,-13.500,-1.500,1.500
1.877,-19.000,-13.000,-1.500,1.500
1.878,-19.000,-12.500,-1.500,2.000
1.879,-19.000,-11.500,-1.000,2.000
1.880,-19.000,-11.000,-0.500,2.500
1.881,-19.000,-10.000,0.000,3.000
1.882,-19.000,-9.000,0.500,3.500
1.883,-18.500,-8.000,1.000,4.000
1.884,-18.500,-7.500,1.000,4.500
1.885,-18.500,-7.000,1.000,4.500
1.886,-18.500,-7.500,1.500,5.000
1.887,-18.000,-7.500,1.500,5.000
1.888,-18.500,-8.000,1.500,5.500
1.889,-18.500,-8.500,2.000,6.000
1.890,-18.500,-9.000,2.500,7.500
1.891,-18.000,-9.500,3.000,8.500
1.892,-18.000,-10.000,4.000,10.000
1.893,-18.000,-10.500,4.500,11.500
1.894,-18.500,-11.000,5.500,13.500
1.895,-18.500,-11.000,6.000,15.000
1.896,-19.000,-11.000,6.500,16.500
1.897,-19.500,-11.000,7.000,17.500
1.898,-20.000,-11.000,7.500,19.000
1.899,-20.500,-11.000,7.500,20.500
1.900,-21.000,-11.000,7.500,21.500
1.901,-21.000,-10.500,7.000,23.000
1.902,-22.000,-11.000,6.500,24.000
1.903,-22.000,-11.500,5.500,24.500
1.904,-22.500,-12.500,4.000,24.500
1.905,-23.000,-13.500,1.500,24.500
1.906,-23.500,-15.500,-1.500,24.000
1.907,-24.000,-17.500,-4.500,22.500
1.908,-25.000,-20.000,-8.000,21.000
1.909,-25.500,-22.500,-11.500,19.000
1.910,-26.500,-25.500,-15.500,17.000
1.911,-27.000,-28.000,-19.500,14.500
1.912,-28.000,-31.000,-23.500,11.500
1.913,-28.500,-33.000,-27.000,8.000
1.914,-29.500,-35.500,-31.500,4.500
1.915,-30.000,-37.500,-35.500,0.500
1.916,-31.000,-39.000,-39.500,-4.500
1.917,-31.500,-40.500,-44.000,-10.000
1.918,-32.000,-41.500,-48.500,-16.500
1.919,-32.500,-42.500,-52.500,-23.500
1.920,-33.000,-43.500,-57.000,-31.000
1.921,-33.000,-43.500,-61.000,-38.000
1.922,-33.500,-44.000,-64.500,-45.000
1.923,-33.500,-43.500,-67.500,-51.000
1.924,-33.500,-43.500,-69.500,-56.500
1.925,-33.000,-43.000,-70.500,-60.500
1.926,-32.500,-42.000,-71.000,-63.500
1.927,-32.000,-41.000,-70.000,-64.500
1.928,-31.500,-40.000,-68.000,-65.000
1.929,-31.000,-38.500,-65.500,-64.500
1.930,-30.000,-37.500,-62.500,-63.500
1.931,-29.000,-35.500,-59.000,-62.000
1.932,-28.500,-34.000,-55.500,-60.500
1.933,-27.500,-32.000,-51.500,-58.000
1.934,-26.500,-30.000,-47.500,-56.000
1.935,-25.500,-27.500,-43.500,-53.000
1.936,-25.000,-25.000,-39.000,-49.500
1.937,-24.000,-22.000,-34.500,-46.000
1.938,-23.500,-19.500,-30.500,-42.500
1.939,-22.500,-16.500,-26.000,-39.000
1.940,-22.000,-13.500,-22.000,-36.000
1.941,-21.500,-11.000,-18.000,-32.500
1.942,-21.500,-8.500,-14.500,-29.500
1.943,-21.000,-6.500,-11.000,-26.000
1.944,-21.000,-5.000,-8.500,-23.500
1.945,-20.500,-3.500,-6.000,-21.000
1.946,-20.000,-3.500,-4.000,-19.000
1.947,-19.500,-3.500,-2.500,-17.000
1.948,-19.500,-4.000,-2.000,-15.500
1.949,-19.500,-4.500,-1.500,-14.000
1.950,-19.500,-5.000,-1.500,-13.500
1.951,-19.500,-6.000,-1.500,-12.500
1.952,-20.000,-7.000,-2.000,-12.000
1.953,-20.000,-8.000,-2.000,-11.000
1.954,-21.000,-9.000,-3.000,-10.500
1.955,-21.500,-10.000,-3.000,-9.500
1.956,-22.000,-11.000,-3.500,-9.000
1.957,-22.500,-11.500,-4.000,-8.500
1.958,-23.500,-12.000,-4.000,-8.000
1.959,-24.000,-12.000,-4.000,-7.000
1.960,-24.500,-12.000,-4.500,-6.500
1.961,-25.000,-12.000,-4.500,-6.000
1.962,-25.500,-11.500,-4.500,-5.500
1.963,-25.500,-11.000,-4.500,-5.000
1.964,-25.500,-10.500,-4.500,-4.500
1.965,-25.500,-10.000,-4.500,-3.500
1.966,-25.000,-10.000,-4.500,-3.500
1.967,-24.500,-10.000,-4.000,-2.500
1.968,-24.500,-10.500,-4.000,-2.000
1.969,-24.000,-10.500,-3.500,-1.500
1.970,-23.500,-11.000,-3.500,-1.000
1.971,-23.000,-11.000,-3.500,0.000
1.972,-23.000,-11.500,-3.500,0.500
1.973,-22.500,-11.500,-3.000,1.000
1.974,-22.500,-11.500,-3.000,1.500
1.975,-22.500,-11.000,-2.500,2.000
1.976,-22.500,-10.500,-2.000,2.500
1.977,-22.500,-10.000,-1.500,2.500
1.978,-22.500,-9.500,-1.500,3.000
1.979,-22.500,-9.000,-1.000,3.500
1.980,-23.000,-8.000,-0.500,4.000
1.981,-23.000,-7.000,0.000,4.500
1.982,-23.000,-6.500,0.000,5.000
1.983,-23.000,-6.000,0.000,5.500
1.984,-23.000,-5.500,0.500,6.500
1.985,-22.500,-5.500,0.500,6.500
1.986,-22.500,-5.500,0.500,7.000
1.987,-22.500,-6.000,0.000,7.000
1.988,-22.500,-7.000,-0.500,7.000
1.989,-22.500,-7.500,-0.500,6.500
1.990,-22.500,-8.500,-1.000,6.000
1.991,-22.500,-9.500,-1.000,5.500
1.992,-22.500,-10.000,-1.000,5.500
1.993,-22.500,-10.000,-0.500,5.500
1.994,-22.500,-10.500,-0.500,5.500
1.995,-22.500,-10.000,-0.500,5.500
1.996,-22.500,-10.000,0.000,6.000
1.997,-22.500,-9.500,0.500,6.000
1.998,-23.000,-9.000,1.000,6.000
1.999,-23.000,-8.000,1.000,6.000
2.000,-23.000,-7.000,1.500,6.500
2.001,-23.000,-5.500,2.000,7.000
2.002,-23.500,-5.000,2.000,7.000
2.003,-23.500,-4.000,2.000,7.000
2.004,-23.500,-3.500,2.000,7.500
2.005,-23.000,-3.500,2.000,7.000
2.006,-23.000,-3.500,1.500,7.000
2.007,-22.500,-4.000,1.000,7.000
2.008,-22.500,-4.500,0.500,6.500
2.009,-22.500,-5.000,0.000,6.000
2.010,-22.500,-6.000,-0.500,6.000
2.011,-22.000,-6.500,-1.000,5.500
2.012,-22.500,-7.500,-1.500,5.500
2.013,-22.500,-8.000,-1.500,5.000
2.014,-23.000,-8.500,-2.000,4.500
2.015,-23.500,-8.500,-2.000,4.000
2.016,-23.500,-9.000,-2.000,4.000
2.017,-23.500,-8.500,-1.500,4.000
2.018,-24.000,-8.500,-1.500,4.500
2.019,-24.000,-8.000,-0.500,4.500
2.020,-24.500,-7.500,0.000,5.500
2.021,-24.000,-6.500,1.000,6.000
2.022,-24.500,-5.500,2.000,7.000
2.023,-24.500,-4.500,2.500,7.500
2.024,-24.500,-4.000,3.000,8.000
2.025,-24.500,-3.500,3.500,8.000
2.026,-24.500,-4.000,3.500,8.000
2.027,-24.000,-4.000,3.500,8.000
2.028,-24.500,-4.500,3.500,8.000
2.029,-24.000,-5.000,3.000,8.000
2.030,-24.000,-6.000,3.000,7.500
2.031,-24.000,-6.000,2.500,7.000
2.032,-24.000,-7.000,2.500,7.000
2.033,-23.500,-7.000,2.000,6.500
2.034,-24.000,-7.500,2.000,6.500
2.035,-24.000,-7.500,1.500,6.000
2.036,-24.000,-7.000,2.000,6.000
2.037,-24.000,-6.500,2.000,6.000
2.038,-24.500,-6.000,2.500,6.500
2.039,-24.000,-5.000,3.000,6.500
2.040,-24.500,-4.500,3.000,6.500
2.041,-24.500,-3.500,3.000,6.500
2.042,-24.500,-3.000,3.000,6.500
2.043,-24.500,-2.500,2.500,6.000
2.044,-24.500,-2.500,2.500,6.500
2.045,-24.500,-2.500,1.500,6.500
2.046,-24.500,-3.000,1.500,6.500
2.047,-24.000,-3.500,0.500,6.500
2.048,-24.000,-4.500,0.000,6.500
2.049,-23.500,-5.000,-1.000,6.500
2.050,-23.500,-6.000,-1.500,6.500
2.051,-23.000,-6.500,-2.000,6.000
2.052,-23.500,-7.000,-2.500,5.500
2.053,-23.500,-7.000,-3.000,5.000
2.054,-23.500,-7.500,-3.500,5.000
2.055,-24.000,-7.500,-3.500,5.000
2.056,-24.500,-7.500,-3.500,5.500
2.057,-24.500,-7.500,-2.500,5.500
2.058,-25.000,-7.500,-2.000,6.000
2.059,-25.000,-7.000,-1.000,6.500
2.060,-25.500,-6.500,-0.500,7.500
2.061,-25.000,-5.500,0.500,8.000
2.062,-25.000,-4.500,1.500,8.500
2.063,-24.500,-3.500,2.000,9.000
2.064,-24.500,-3.000,2.500,9.000
2.065,-24.500,-2.500,2.500,8.500
2.066,-24.500,-3.000,2.500,8.500
2.067,-24.500,-3.000,2.500,8.000
2.068,-24.500,-4.000,2.500,7.500
2.069,-24.500,-5.000,2.000,7.000
2.070,-25.000,-6.000,1.500,6.500
2.071,-25.000,-6.500,1.000,6.000
2.072,-25.500,-7.000,0.000,6.000
2.073,-26.000,-7.500,-0.500,5.500
2.074,-26.000,-8.000,-1.000,5.500
2.075,-26.000,-8.000,-1.500,5.000
2.076,-26.500,-8.500,-2.000,5.000
2.077,-26.500,-8.000,-2.000,5.000
2.078,-27.000,-8.000,-2.500,5.000
2.079,-27.000,-7.000,-2.500,5.000
2.080,-27.500,-6.500,-2.500,5.000
2.081,-27.500,-5.500,-2.000,4.500
2.082,-27.500,-5.000,-1.500,5.000
2.083,-27.500,-4.000,-1.000,5.000
2.084,-27.500,-4.000,-1.000,5.500
2.085,-27.500,-4.000,-1.500,5.500
2.086,-27.500,-5.000,-2.000,5.500
2.087,-27.500,-5.500,-2.500,5.000
2.088,-27.500,-6.500,-3.000,5.000
2.089,-27.500,-7.000,-3.500,4.500
2.090,-27.500,-8.000,-4.500,4.500
2.091,-27.500,-8.500,-4.500,3.500
2.092,-27.500,-9.500,-5.500,3.000
2.093,-27.000,-10.000,-6.000,2.500
2.094,-27.500,-10.500,-7.000,2.500
2.095,-27.500,-10.500,-7.500,2.000
2.096,-27.500,-11.000,-7.500,2.000
2.097,-27.500,-10.500,-7.500,2.000
2.098,-28.000,-10.500,-7.500,2.500
2.099,-28.500,-9.500,-6.500,2.500
2.100,-28.500,-9.000,-6.500,2.500
2.101,-28.500,-8.000,-6.000,2.500
2.102,-28.500,-7.500,-6.000,2.500
2.103,-28.500,-6.500,-5.500,2.500
2.104,-28.500,-6.500,-5.500,2.000
2.105,-28.500,-6.500,-5.500,1.500
2.106,-28.000,-7.000,-6.500,1.000
2.107,-27.500,-7.500,-7.000,0.500
2.108,-27.500,-8.000,-7.500,0.500
2.109,-27.500,-8.500,-8.000,0.000
2.110,-27.500,-9.500,-9.000,-0.500
2.111,-27.000,-10.500,-10.000,-0.500
2.112,-27.500,-11.500,-10.500,-0.500
2.113,-27.500,-12.000,-11.000,-1.000
2.114,-28.000,-13.000,-12.000,-1.500
2.115,-28.000,-13.000,-12.000,-2.000
2.116,-28.500,-13.500,-12.500,-2.500
2.117,-28.500,-13.500,-12.500,-2.500
2.118,-29.000,-13.500,-12.500,-3.000
2.119,-29.000,-13.000,-12.000,-3.000
2.120,-29.500,-12.500,-11.500,-3.000
2.121,-29.500,-12.000,-11.000,-3.000
2.122,-29.500,-11.500,-10.500,-3.000
2.123,-29.000,-10.500,-10.000,-3.000
2.124,-29.000,-10.500,-10.500,-3.000
2.125,-28.500,-10.000,-10.500,-3.000
2.126,-28.500,-10.500,-11.500,-3.500
2.127,-28.000,-10.500,-12.000,-3.500
2.128,-28.000,-11.500,-13.000,-4.000
2.129,-28.000,-12.500,-14.000,-4.500
2.130,-28.000,-13.500,-15.000,-5.500
2.131,-28.000,-14.500,-15.500,-6.000
2.132,-28.000,-15.500,-16.000,-6.500
2.133,-28.000,-15.500,-16.000,-6.500
2.134,-28.000,-16.000,-16.500,-7.000
2.135,-28.000,-16.000,-16.000,-6.500
2.136,-28.500,-16.000,-16.000,-6.500
2.137,-28.500,-15.000,-15.500,-6.000
2.138,-29.000,-14.500,-15.000,-6.000
2.139,-29.000,-14.000,-14.500,-6.000
2.140,-29.500,-13.500,-14.500,-5.500
2.141,-29.500,-12.500,-14.000,-5.000
2.142,-29.500,-12.000,-13.500,-4.500
2.143,-29.500,-11.500,-13.500,-4.000
2.144,-29.500,-11.500,-13.500,-4.000
2.145,-29.500,-11.000,-13.000,-3.500
2.146,-29.500,-11.500,-13.500,-3.500
2.147,-29.500,-12.000,-13.500,-3.500
2.148,-29.500,-12.500,-14.000,-3.500
2.149,-29.000,-13.000,-14.000,-3.500
2.150,-29.000,-14.000,-14.500,-4.000
2.151,-28.500,-14.000,-15.000,-3.500
2.152,-29.000,-14.500,-15.500,-3.500
2.153,-29.000,-14.500,-15.500,-3.000
2.154,-29.000,-14.500,-15.000,-3.000
2.155,-29.000,-14.500,-14.500,-2.500
2.156,-29.500,-14.000,-14.000,-2.500
2.157,-29.500,-13.000,-13.000,-1.500
2.158,-30.000,-12.500,-12.500,-0.500
2.159,-30.000,-11.000,-11.500,0.500
2.160,-30.000,-10.500,-10.500,1.500
2.161,-30.000,-9.000,-9.500,2.500
2.162,-30.000,-8.500,-9.000,3.500
2.163,-30.000,-7.500,-8.500,4.000
2.164,-30.000,-7.500,-8.000,5.000
2.165,-29.500,-7.000,-7.500,5.000
2.166,-29.000,-7.500,-7.000,5.500
2.167,-28.500,-7.500,-6.500,5.500
2.168,-28.500,-8.000,-6.500,6.000
2.169,-28.000,-9.000,-6.500,6.000
2.170,-28.000,-9.500,-6.500,6.500
2.171,-28.000,-10.000,-6.500,6.000
2.172,-28.000,-10.500,-6.500,6.500
2.173,-28.000,-10.500,-6.000,6.500
2.174,-28.000,-10.500,-6.000,6.500
2.175,-28.000,-10.000,-5.500,6.500
2.176,-28.500,-9.500,-5.000,7.000
2.177,-29.000,-9.000,-4.500,7.500
2.178,-29.500,-8.000,-3.500,8.000
2.179,-29.500,-7.000,-2.500,8.500
2.180,-30.000,-6.000,-1.000,9.500
2.181,-30.000,-4.500,0.000,10.000
2.182,-30.000,-3.500,1.500,11.000
2.183,-29.500,-2.000,2.500,11.500
2.184,-29.500,-1.000,3.500,12.500
2.185,-29.000,-0.500,4.000,12.500
2.186,-28.500,0.000,4.500,13.000
2.187,-28.000,0.000,4.500,12.500
2.188,-28.000,0.000,4.500,12.000
2.189,-27.500,0.000,4.000,11.500
2.190,-27.500,-0.500,4.500,11.000
2.191,-27.500,-1.000,4.500,10.500
2.192,-27.500,-1.500,5.000,10.000
2.193,-27.000,-1.500,5.000,10.000
2.194,-27.000,-1.500,5.000,10.000
2.195,-27.000,-1.500,5.000,9.500
2.196,-27.500,-1.000,5.500,10.000
2.197,-27.500,-0.500,6.000,10.000
2.198,-28.000,0.500,7.000,10.500
2.199,-28.000,1.000,7.500,11.000
2.200,-28.000,2.000,8.000,12.000
2.201,-28.000,2.500,8.500,12.500
2.202,-28.000,3.500,9.000,13.000
2.203,-27.500,4.500,9.500,13.000
2.204,-27.500,5.000,9.500,13.000
2.205,-27.500,5.000,9.500,13.000
2.206,-27.500,5.000,9.500,12.500
2.207,-27.500,4.500,9.000,12.000
2.208,-27.500,4.000,8.500,12.000
2.209,-27.000,3.000,8.000,11.500
2.210,-27.000,2.000,7.500,11.000
2.211,-26.500,1.500,6.500,10.500
2.212,-27.000,1.000,6.500,10.000
2.213,-27.000,0.500,6.000,9.500
2.214,-27.500,0.000,6.000,9.500
2.215,-27.500,0.000,5.500,9.000
2.216,-28.000,0.000,5.500,8.500
2.217,-28.500,0.500,5.500,8.500
2.218,-28.500,1.000,6.000,8.500
2.219,-28.500,1.500,6.500,8.500
2.220,-29.000,2.500,7.500,9.000
2.221,-29.000,3.000,8.000,9.500
2.222,-29.000,4.000,8.500,10.000
2.223,-29.000,5.000,9.000,10.000
2.224,-29.500,5.500,9.500,10.000
2.225,-29.500,6.000,9.500,10.000
2.226,-29.500,6.000,9.000,10.000
2.227,-29.500,5.500,8.500,10.000
2.228,-29.500,5.000,8.000,9.500
2.229,-29.000,4.000,7.000,9.000
2.230,-29.000,3.000,6.500,9.000
2.231,-28.500,2.000,6.000,8.500
2.232,-28.500,1.500,6.000,8.000
2.233,-28.000,0.500,6.000,7.500
2.234,-28.000,0.500,6.500,7.500
2.235,-27.500,0.000,6.500,7.000
2.236,-27.500,0.000,7.000,7.000
2.237,-27.500,0.000,7.500,7.000
2.238,-27.500,0.500,8.000,7.000
2.239,-27.500,1.500,8.500,7.000
2.240,-28.000,2.500,9.000,7.000
2.241,-28.500,3.500,10.000,7.000
2.242,-28.500,4.500,10.500,7.500
2.243,-28.500,5.000,11.000,7.500
2.244,-28.500,6.000,11.500,8.000
2.245,-28.500,6.000,11.500,8.000
2.246,-28.000,6.000,11.500,8.500
2.247,-27.500,5.500,10.500,8.000
2.248,-27.500,5.000,10.000,8.000
2.249,-27.000,4.000,9.000,7.000
2.250,-27.000,3.000,8.500,7.000
2.251,-27.000,2.000,7.500,6.500
2.252,-27.000,1.500,7.500,6.000
2.253,-27.000,1.000,7.000,5.500
2.254,-27.500,0.500,6.500,5.500
2.255,-28.000,0.000,6.500,5.500
2.256,-28.000,0.500,6.500,6.000
2.257,-28.000,0.500,6.500,6.000
2.258,-28.500,1.500,7.000,6.500
2.259,-28.500,2.000,7.000,6.500
2.260,-28.500,3.500,7.500,6.500
2.261,-28.500,4.500,8.000,6.500
2.262,-29.000,5.500,8.500,7.000
2.263,-29.000,6.000,8.500,7.500
2.264,-29.000,6.500,9.000,8.000
2.265,-29.000,6.500,8.500,8.000
2.266,-29.000,6.500,8.500,8.500
2.267,-28.500,5.500,8.000,8.500
2.268,-28.500,5.000,8.000,8.000
2.269,-28.500,4.000,7.000,7.500
2.270,-29.000,3.500,6.000,7.000
2.271,-29.000,2.500,5.000,6.000
2.272,-29.500,2.000,5.000,5.500
2.273,-30.000,1.500,4.500,5.000
2.274,-30.500,1.500,4.500,5.000
2.275,-30.500,1.500,4.500,5.000
2.276,-31.000,1.500,5.000,5.500
2.277,-31.000,2.000,5.500,5.500
2.278,-31.500,2.500,6.500,6.000
2.279,-32.000,3.500,7.000,6.000
2.280,-32.000,4.500,8.000,6.500
2.281,-32.000,5.000,8.000,7.000
2.282,-32.500,6.000,8.500,8.000
2.283,-33.000,6.500,8.500,8.500
2.284,-33.000,6.500,8.500,9.000
2.285,-33.000,6.500,7.500,9.000
2.286,-33.000,6.000,7.000,9.000
2.287,-33.000,5.500,6.500,9.000
2.288,-33.000,4.500,6.000,9.000
2.289,-33.000,3.500,5.500,8.500
2.290,-33.000,2.500,5.500,8.000
2.291,-33.000,1.000,5.000,7.500
2.292,-33.000,0.500,5.000,7.000
2.293,-33.000,-0.500,5.000,6.500
2.294,-33.000,-1.500,5.000,6.500
2.295,-32.500,-1.500,4.500,6.500
2.296,-33.000,-1.500,4.500,6.500
2.297,-33.000,-1.000,4.500,6.500
2.298,-33.000,-0.500,5.000,6.500
2.299,-33.500,0.500,5.000,6.500
2.300,-34.000,1.500,5.500,7.000
2.301,-34.500,2.500,6.000,7.500
2.302,-35.000,3.500,6.500,8.000
2.303,-35.000,4.500,6.500,8.000
2.304,-35.500,5.000,6.500,8.500
2.305,-35.500,5.500,6.500,8.500
2.306,-35.500,5.500,6.500,8.500
2.307,-35.000,5.000,6.000,8.500
2.308,-35.000,4.500,5.500,8.500
2.309,-34.500,3.500,5.500,8.500
2.310,-34.500,2.500,5.500,8.000
2.311,-34.000,1.000,5.500,7.500
2.312,-34.000,0.500,5.500,7.500
2.313,-33.500,0.000,6.000,7.500
2.314,-33.500,-0.500,6.500,7.500
2.315,-33.500,-0.500,6.500,7.500
2.316,-33.500,-0.500,7.000,7.500
2.317,-33.500,0.000,7.500,7.500
2.318,-33.500,1.000,8.000,8.000
2.319,-33.500,1.500,8.000,8.000
2.320,-33.500,2.000,8.500,8.500
2.321,-33.500,3.000,9.000,8.500
2.322,-33.500,4.000,9.500,9.000
2.323,-33.500,4.500,9.500,9.000
2.324,-34.000,5.000,10.000,9.500
2.325,-33.500,5.500,9.500,9.500
2.326,-33.500,5.500,9.500,9.500
2.327,-33.000,5.500,9.000,9.500
2.328,-33.000,5.000,8.500,9.500
2.329,-33.000,4.000,8.000,9.000
2.330,-33.500,3.000,8.000,9.000
2.331,-33.500,2.000,7.500,8.500
2.332,-34.000,1.500,7.500,8.500
2.333,-34.000,1.000,7.000,8.500
2.334,-34.500,1.500,7.000,9.000
2.335,-34.500,1.500,7.000,9.000
2.336,-35.000,1.500,7.000,9.500
2.337,-35.000,1.500,7.000,9.500
2.338,-35.500,2.000,7.000,10.000
2.339,-35.500,2.000,7.000,10.000
2.340,-36.000,3.000,7.500,10.000
2.341,-35.500,3.500,7.500,10.500
2.342,-36.000,4.000,8.000,11.000
2.343,-35.500,4.500,8.000,11.000
2.344,-36.000,5.500,9.000,11.500
2.345,-36.000,5.500,9.000,11.000
2.346,-36.000,6.000,9.500,11.000
2.347,-36.000,5.500,9.000,11.000
2.348,-36.000,5.000,9.000,10.500
2.349,-35.500,4.000,8.500,10.000
2.350,-35.000,3.000,8.000,10.000
2.351,-35.000,2.000,7.500,9.500
2.352,-35.000,1.000,8.000,9.500
2.353,-34.500,0.500,8.000,9.500
2.354,-35.000,-0.500,8.000,9.500
2.355,-35.000,-0.500,7.500,9.500
2.356,-35.000,-1.000,8.000,10.000
2.357,-35.000,-0.500,8.000,10.000
2.358,-35.000,-0.500,8.500,10.500
2.359,-35.000,0.000,8.500,10.500
2.360,-35.000,0.500,9.500,11.000
2.361,-35.000,1.500,9.500,11.000
2.362,-35.500,2.500,10.000,11.000
2.363,-35.500,3.500,10.500,11.000
2.364,-36.000,4.500,11.000,11.500
2.365,-35.500,5.500,11.000,11.500
2.366,-35.500,6.000,11.000,11.500
2.367,-35.000,5.500,11.000,11.500
2.368,-35.000,4.500,11.000,11.000
2.369,-34.500,3.500,10.500,10.500
2.370,-34.500,2.000,10.000,10.500
2.371,-34.500,1.000,9.500,10.000
2.372,-34.500,0.000,9.500,10.500
2.373,-34.500,-0.500,9.500,10.500
2.374,-34.500,-0.500,10.500,11.500
2.375,-34.000,0.000,11.000,12.000
2.376,-34.000,0.500,12.000,13.000
2.377,-34.000,1.500,12.500,14.000
2.378,-34.000,2.500,13.500,14.500
2.379,-33.500,3.500,14.000,15.500
2.380,-34.000,4.500,14.500,16.000
2.381,-34.500,5.000,14.500,16.500
2.382,-35.000,5.500,14.500,17.000
2.383,-35.000,5.500,14.000,17.000
2.384,-35.000,6.000,14.000,16.500
2.385,-35.000,5.500,13.000,16.000
2.386,-35.500,5.000,11.500,15.000
2.387,-35.500,4.000,10.000,13.500
2.388,-36.000,3.000,8.500,12.000
2.389,-36.500,1.500,7.000,10.500
2.390,-37.000,-0.500,5.500,9.000
2.391,-37.500,-2.000,4.000,7.500
2.392,-38.000,-3.500,3.000,6.500
2.393,-38.500,-5.000,2.500,5.500
2.394,-38.500,-6.000,2.000,5.000
2.395,-38.500,-6.500,1.500,4.000
2.396,-39.000,-6.500,1.000,4.000
2.397,-39.000,-6.500,1.000,4.000
2.398,-39.000,-6.000,1.500,4.500
2.399,-38.500,-5.000,2.000,4.500
2.400,-38.500,-4.000,2.500,5.500
2.401,-38.500,-3.000,3.500,6.000
2.402,-38.500,-1.500,5.000,7.000
2.403,-38.500,0.000,6.000,8.000
2.404,-38.500,1.000,7.500,9.000
2.405,-38.000,2.000,8.000,9.500
2.406,-37.500,2.500,8.500,10.000
2.407,-36.500,2.500,8.500,10.500
2.408,-36.000,2.500,8.500,11.000
2.409,-35.000,2.500,8.500,11.000
2.410,-35.000,2.500,8.000,11.500
2.411,-35.000,2.000,8.000,11.500
2.412,-35.000,1.500,7.500,11.500
2.413,-35.000,1.000,7.000,11.000
2.414,-35.500,1.000,7.000,11.500
2.415,-35.500,1.000,7.000,11.500
2.416,-36.000,1.000,7.000,11.500
2.417,-36.000,1.500,7.000,11.000
2.418,-36.500,2.000,7.500,11.500
2.419,-36.500,2.500,7.500,11.500
2.420,-36.500,3.500,8.000,11.500
2.421,-36.500,4.500,8.000,11.500
2.422,-36.500,5.500,9.000,12.000
2.423,-36.000,6.500,9.500,12.000
2.424,-36.000,7.000,10.000,12.000
2.425,-35.500,7.000,10.000,12.500
2.426,-36.000,7.000,10.000,12.500
2.427,-36.000,6.500,10.000,12.500
2.428,-36.000,6.000,9.500,12.500
2.429,-36.000,5.000,8.500,12.500
2.430,-36.000,4.500,7.500,12.500
2.431,-36.000,3.500,7.000,12.000
2.432,-36.000,3.000,6.500,11.500
2.433,-35.500,2.500,6.000,11.500
2.434,-36.000,2.000,5.500,11.500
2.435,-36.000,1.500,5.500,11.000
2.436,-36.000,2.000,5.500,11.500
2.437,-36.000,2.000,6.000,11.500
2.438,-36.000,2.500,6.500,12.000
2.439,-36.000,2.500,7.500,12.500
2.440,-36.000,3.500,8.500,12.500
2.441,-36.000,4.500,9.000,13.000
2.442,-36.500,6.000,10.000,13.500
2.443,-36.500,7.000,10.500,13.500
2.444,-36.500,7.500,11.000,14.000
2.445,-36.000,8.000,11.500,14.000
2.446,-36.000,8.000,11.500,14.000
2.447,-35.500,7.500,11.000,14.000
2.448,-35.500,7.000,11.000,14.000
2.449,-35.000,6.000,10.500,14.000
2.450,-35.000,5.000,10.000,14.000
2.451,-34.500,4.000,9.500,14.000
2.452,-34.500,3.500,9.500,14.000
2.453,-34.500,3.000,9.500,14.000
2.454,-34.500,2.500,10.000,14.000
2.455,-34.000,2.500,10.000,14.000
2.456,-34.500,2.500,10.500,14.000
2.457,-34.500,2.500,11.000,14.500
2.458,-35.000,3.000,12.000,15.000
2.459,-35.000,3.500,12.500,15.000
2.460,-35.500,4.500,13.000,15.500
2.461,-35.500,5.000,13.500,16.000
2.462,-36.000,6.000,13.500,16.500
2.463,-36.000,6.500,13.500,16.500
2.464,-36.500,7.000,13.500,16.500
2.465,-36.500,7.000,13.000,16.500
2.466,-36.500,7.000,13.000,16.500
2.467,-36.500,6.500,12.500,16.000
2.468,-36.500,6.000,12.000,15.500
2.469,-36.500,5.000,11.000,15.000
2.470,-36.500,4.500,10.000,14.500
2.471,-36.000,3.500,9.000,14.000
2.472,-36.500,3.000,8.500,13.500
2.473,-36.500,2.000,8.000,13.000
2.474,-36.500,2.000,8.000,13.000
2.475,-36.500,1.500,7.500,12.500
2.476,-37.000,1.500,8.000,12.500
2.477,-37.000,1.500,8.000,12.500
2.478,-37.000,2.000,8.500,12.500
2.479,-37.000,3.000,9.000,12.500
2.480,-37.500,4.000,9.500,13.000
2.481,-38.000,5.000,10.000,13.500
2.482,-38.000,6.000,10.500,14.000
2.483,-38.000,6.500,10.500,14.000
2.484,-38.500,7.500,10.500,14.500
2.485,-38.500,8.000,10.500,14.500
2.486,-38.500,8.000,10.000,14.500
2.487,-38.500,7.500,9.500,14.500
2.488,-38.000,7.000,8.500,14.500
2.489,-38.000,6.000,7.500,14.000
2.490,-38.000,5.000,7.000,13.500
2.491,-37.500,3.500,6.000,13.000
2.492,-38.000,2.000,5.500,13.000
2.493,-37.500,1.000,4.500,12.500
2.494,-38.000,0.500,4.500,12.000
2.495,-37.500,0.000,4.000,11.500
2.496,-38.000,0.000,4.000,11.000
2.497,-37.500,0.000,3.500,10.500
2.498,-38.000,0.500,4.000,10.500
2.499,-37.500,1.000,4.000,10.000
2.500,-38.000,2.500,4.500,10.500
2.501,-37.500,3.500,5.000,11.000
2.502,-37.500,4.500,6.000,11.500
2.503,-37.000,5.500,6.500,12.000
2.504,-37.000,6.500,7.000,13.000
2.505,-36.500,7.500,7.000,13.500
2.506,-36.500,8.000,7.500,14.000
2.507,-36.000,8.000,7.500,14.000
2.508,-36.000,8.000,7.500,14.000
2.509,-36.000,7.500,7.000,13.500
2.510,-36.500,7.000,7.000,14.000
2.511,-36.500,6.500,6.500,13.500
2.512,-36.500,6.000,6.500,13.500
2.513,-36.500,5.500,6.500,13.000
2.514,-37.000,5.500,6.500,13.000
2.515,-37.000,5.500,6.000,13.000
2.516,-37.500,5.500,6.500,13.500
2.517,-37.500,5.500,6.500,13.500
2.518,-38.000,6.000,7.500,14.000
2.519,-38.000,6.500,8.000,14.000
2.520,-38.000,7.000,8.500,14.500
2.521,-38.000,7.500,8.500,14.500
2.522,-38.500,8.500,9.000,15.000
2.523,-38.500,8.500,9.500,14.500
2.524,-38.500,9.000,10.000,14.500
2.525,-38.500,9.000,10.000,14.000
2.526,-38.500,9.000,10.000,14.000
2.527,-38.000,8.500,9.500,13.500
2.528,-38.000,8.000,9.500,13.500
2.529,-37.500,7.000,8.500,12.500
2.530,-38.000,6.500,8.000,12.500
2.531,-38.000,5.000,7.500,11.500
2.532,-38.000,4.500,7.000,11.000
2.533,-38.000,3.500,6.500,10.500
2.534,-38.500,3.000,6.500,10.000
2.535,-38.500,3.000,6.000,10.000
2.536,-39.000,3.000,6.500,10.000
2.537,-39.000,3.000,6.500,10.000
2.538,-39.500,3.500,7.000,10.500
2.539,-39.500,4.000,7.500,11.000
2.540,-39.500,5.000,8.000,11.500
2.541,-39.000,5.500,8.500,12.000
2.542,-39.000,6.500,9.000,13.000
2.543,-39.000,6.500,9.500,13.000
2.544,-39.000,7.000,9.500,13.500
2.545,-38.500,7.000,9.500,13.500
2.546,-38.000,7.500,9.500,13.500
2.547,-37.500,7.000,9.000,13.000
2.548,-37.500,7.000,8.500,13.000
2.549,-37.500,6.000,8.000,12.500
2.550,-37.500,5.500,7.500,12.000
2.551,-37.500,5.000,7.000,11.500
2.552,-38.000,4.500,7.000,11.500
2.553,-38.000,4.000,6.500,11.500
2.554,-38.000,3.500,6.500,11.500
2.555,-38.000,3.500,6.500,11.500
2.556,-38.500,4.000,7.000,12.500
2.557,-38.500,4.000,7.500,13.000
2.558,-39.000,5.000,8.500,14.000
2.559,-39.000,5.500,9.000,15.000
2.560,-39.000,7.000,10.500,17.000
2.561,-38.500,8.000,11.500,18.500
2.562,-38.500,9.000,13.000,21.000
2.563,-38.500,10.000,13.500,23.000
2.564,-39.000,10.500,14.500,25.000
2.565,-39.000,10.500,14.500,27.000
2.566,-39.000,10.500,14.500,29.000
2.567,-39.000,9.500,14.000,30.000
2.568,-39.500,8.000,13.500,31.500
2.569,-39.500,6.500,12.500,32.000
2.570,-40.000,4.500,11.500,33.000
2.571,-40.000,2.500,10.000,33.000
2.572,-40.500,0.500,8.500,33.000
2.573,-41.000,-1.500,7.000,33.000
2.574,-41.500,-3.000,6.000,33.000
2.575,-41.500,-4.500,4.500,33.000
2.576,-42.500,-6.000,2.500,32.500
2.577,-43.000,-7.000,0.500,31.500
2.578,-43.500,-8.500,-2.000,30.500
2.579,-44.000,-9.000,-4.000,29.500
2.580,-45.500,-10.000,-7.000,28.500
2.581,-46.500,-11.000,-10.000,26.500
2.582,-47.500,-12.000,-13.500,25.000
2.583,-48.500,-13.000,-17.000,22.500
2.584,-49.500,-14.500,-21.000,19.500
2.585,-50.000,-16.000,-25.500,15.000
2.586,-50.500,-18.000,-30.000,10.000
2.587,-50.500,-20.000,-35.000,4.000
2.588,-51.000,-22.000,-40.500,-3.500
2.589,-51.000,-24.000,-45.500,-11.000
2.590,-51.500,-26.500,-51.000,-19.500
2.591,-51.500,-28.000,-56.000,-27.500
2.592,-52.000,-30.000,-61.000,-35.500
2.593,-52.000,-31.000,-65.000,-43.000
2.594,-52.500,-31.500,-68.000,-49.500
2.595,-52.000,-31.500,-70.000,-54.500
2.596,-52.000,-30.500,-70.000,-58.000
2.597,-51.500,-29.000,-68.500,-59.500
2.598,-51.000,-27.000,-66.000,-60.000
2.599,-50.000,-24.000,-62.000,-59.000
2.600,-49.000,-21.000,-57.500,-57.500
2.601,-48.000,-18.000,-52.000,-55.000
2.602,-47.000,-15.000,-47.500,-52.500
2.603,-46.000,-12.000,-42.500,-50.000
2.604,-45.500,-10.000,-38.500,-47.500
2.605,-44.500,-7.500,-34.000,-44.500
2.606,-44.000,-6.000,-30.000,-42.000
2.607,-43.000,-4.500,-26.500,-39.500
2.608,-42.500,-4.000,-23.500,-37.000
2.609,-42.000,-3.000,-21.000,-34.500
2.610,-41.500,-2.500,-18.500,-32.500
2.611,-41.000,-1.500,-16.000,-30.500
2.612,-40.500,-1.500,-14.000,-29.000
2.613,-40.000,-1.000,-12.000,-27.000
2.614,-40.000,-0.500,-10.500,-25.500
2.615,-39.500,0.500,-8.500,-23.500
2.616,-39.500,1.500,-6.500,-22.000
2.617,-39.000,2.500,-4.500,-19.500
2.618,-39.500,4.000,-2.500,-17.500
2.619,-39.500,5.000,-0.500,-15.000
2.620,-39.500,6.000,1.500,-13.000
2.621,-39.500,6.500,2.500,-10.500
2.622,-40.000,7.500,3.500,-8.500
2.623,-40.000,7.500,4.000,-6.000
2.624,-40.000,8.000,5.000,-4.500
2.625,-40.000,7.500,5.000,-2.500
2.626,-40.000,7.500,5.500,-0.500
2.627,-39.500,7.000,5.000,1.000
2.628,-39.500,6.000,5.000,2.500
2.629,-39.500,5.000,4.500,3.500
2.630,-40.000,4.000,4.500,4.500
2.631,-40.000,3.000,4.500,5.000
2.632,-40.000,2.500,4.000,5.500
2.633,-40.000,2.000,4.000,6.000
2.634,-40.000,2.000,4.000,6.500
2.635,-40.000,1.500,4.000,7.000
2.636,-40.000,2.000,4.500,7.500
2.637,-40.000,2.500,5.000,7.500
2.638,-40.500,3.000,5.500,8.000
2.639,-41.000,4.000,6.000,8.500
2.640,-41.500,5.000,7.000,9.500
2.641,-41.500,6.000,7.500,10.500
2.642,-42.000,7.000,8.500,11.500
2.643,-42.000,7.500,9.000,12.500
2.644,-42.000,8.000,9.500,13.000
2.645,-41.500,8.500,10.000,13.000
2.646,-41.500,8.500,10.500,12.500
2.647,-41.000,7.500,10.000,12.000
2.648,-40.500,7.000,9.500,12.000
2.649,-40.500,6.500,9.000,11.500
2.650,-40.500,5.500,8.500,11.000
2.651,-40.500,4.500,7.500,10.500
2.652,-41.000,4.000,7.500,10.500
2.653,-41.000,3.000,7.000,10.500
2.654,-41.500,2.500,7.000,10.500
2.655,-41.500,2.000,6.500,10.500
2.656,-41.500,2.000,6.500,10.500
2.657,-41.000,1.500,6.500,10.000
2.658,-41.000,2.000,6.500,10.500
2.659,-41.000,2.000,6.500,10.500
2.660,-41.500,2.500,7.000,10.500
2.661,-41.500,3.000,7.500,11.000
2.662,-42.000,4.000,8.000,11.500
2.663,-42.000,4.500,8.000,12.000
2.664,-42.000,5.000,8.500,12.500
2.665,-42.000,5.500,8.500,12.500
2.666,-42.000,5.500,8.500,13.000
2.667,-41.500,5.500,8.500,12.500
2.668,-41.500,5.000,8.500,12.500
2.669,-41.500,4.500,8.000,12.000
2.670,-41.500,4.000,7.500,12.000
2.671,-41.500,3.000,7.500,11.500
2.672,-41.500,2.000,7.500,11.000
2.673,-41.000,1.500,7.500,10.500
2.674,-41.000,1.000,7.500,10.500
2.675,-41.000,1.000,7.500,10.500
2.676,-41.000,1.500,8.000,10.500
2.677,-41.000,1.500,8.500,10.500
2.678,-41.000,2.500,9.000,11.000
2.679,-40.500,3.000,9.000,11.500
2.680,-41.000,4.000,9.500,12.000
2.681,-41.000,4.500,10.000,12.500
2.682,-41.500,5.500,10.000,13.000
2.683,-41.500,6.000,10.500,13.000
2.684,-41.500,7.000,10.500,13.000
2.685,-41.500,7.500,10.500,13.000
2.686,-41.500,8.000,10.500,13.000
2.687,-41.000,7.500,9.500,12.500
2.688,-41.500,7.000,9.500,12.500
2.689,-41.000,6.000,9.000,12.500
2.690,-41.500,5.500,8.500,12.500
2.691,-41.000,4.500,8.000,12.000
2.692,-41.500,4.000,8.000,12.000
2.693,-42.000,3.000,7.500,11.500
2.694,-42.500,3.000,7.500,11.500
2.695,-42.500,2.500,7.500,11.500
2.696,-42.500,2.500,8.000,11.500
2.697,-42.500,3.000,8.500,11.000
2.698,-43.000,3.500,9.000,11.500
2.699,-43.000,4.000,9.500,12.000
2.700,-43.000,4.500,10.500,12.500
2.701,-43.000,5.500,11.500,13.000
2.702,-43.000,6.500,12.000,13.500
2.703,-42.500,7.000,12.500,14.000
2.704,-42.500,7.500,13.000,14.000
2.705,-42.500,8.000,13.000,14.000
2.706,-42.500,8.000,13.000,14.000
2.707,-42.500,7.500,12.500,13.500
2.708,-42.500,6.500,12.000,13.000
2.709,-42.500,5.500,11.000,12.000
2.710,-42.500,4.500,10.500,11.500
2.711,-42.500,3.000,9.500,11.000
2.712,-42.500,2.000,9.000,10.500
2.713,-42.000,1.000,8.000,9.500
2.714,-42.000,1.000,7.500,9.500
2.715,-42.000,0.500,7.000,9.000
2.716,-42.000,1.000,7.000,9.000
2.717,-42.000,1.000,7.000,9.000
2.718,-42.500,1.500,7.000,9.000
2.719,-42.500,2.000,7.000,9.000
2.720,-43.500,3.000,7.000,9.500
2.721,-44.000,4.000,7.500,9.500
2.722,-44.500,4.500,7.500,10.000
2.723,-44.500,5.000,7.500,10.000
2.724,-45.000,5.500,8.000,10.500
2.725,-45.000,5.500,8.000,10.500
2.726,-45.000,5.500,8.000,10.500
2.727,-45.000,4.500,7.500,10.500
2.728,-44.500,4.000,7.500,10.500
2.729,-44.000,3.000,7.000,10.000
2.730,-44.000,2.500,6.500,9.500
2.731,-43.500,1.500,6.000,9.000
2.732,-43.500,1.000,6.000,9.000
2.733,-43.500,0.500,5.500,8.500
2.734,-43.500,-0.500,5.500,8.000
2.735,-43.500,-0.500,5.500,7.500
2.736,-44.000,-1.000,5.500,7.500
2.737,-44.000,-0.500,5.500,7.000
2.738,-44.500,-0.500,5.500,7.000
2.739,-44.500,0.000,6.000,6.500
2.740,-44.500,0.500,6.000,7.000
2.741,-44.500,1.500,6.000,7.000
2.742,-44.500,2.000,6.500,7.500
2.743,-44.000,2.500,6.000,7.500
2.744,-44.000,3.000,6.000,7.500
2.745,-43.500,3.000,5.500,7.500
2.746,-43.500,2.500,5.000,7.500
2.747,-43.000,2.000,4.500,7.500
2.748,-43.000,1.000,3.500,7.000
2.749,-43.000,0.000,2.500,6.500
2.750,-43.000,-1.000,2.000,6.500
2.751,-43.000,-2.000,1.000,6.000
2.752,-43.000,-3.000,0.500,5.500
2.753,-43.000,-4.000,-0.500,4.500
2.754,-43.500,-5.000,-1.000,4.500
2.755,-43.500,-5.500,-1.000,4.000
2.756,-44.000,-5.500,-1.500,4.000
2.757,-44.500,-5.500,-1.500,4.000
2.758,-44.500,-5.500,-1.500,4.000
2.759,-44.500,-5.000,-1.000,4.000
2.760,-44.500,-4.000,-1.000,4.500
2.761,-44.500,-3.000,0.000,4.500
2.762,-45.000,-1.500,0.500,5.000
2.763,-44.500,-0.500,0.500,5.500
2.764,-45.000,0.500,0.500,6.000
2.765,-44.500,1.000,0.500,6.000
2.766,-45.000,1.500,0.500,5.500
2.767,-44.500,1.000,0.000,5.000
2.768,-44.500,0.500,-0.500,4.500
2.769,-44.000,-0.500,-1.000,4.000
2.770,-44.000,-1.500,-1.500,3.000
2.771,-44.000,-2.500,-1.500,2.500
2.772,-44.000,-3.500,-2.500,2.000
2.773,-44.000,-4.000,-3.000,1.500
2.774,-44.000,-4.500,-3.500,1.000
2.775,-44.000,-4.500,-3.500,0.500
2.776,-44.000,-4.500,-4.000,0.500
2.777,-44.000,-4.500,-4.000,0.000
2.778,-44.000,-4.000,-4.000,0.000
2.779,-44.000,-3.500,-4.000,0.000
2.780,-44.500,-3.000,-4.000,0.000
2.781,-45.000,-2.500,-3.500,0.000
2.782,-45.000,-2.000,-4.000,0.500
2.783,-45.000,-1.500,-4.000,0.500
2.784,-45.500,-1.500,-4.500,0.500
2.785,-45.500,-1.500,-4.500,0.000
2.786,-45.500,-2.000,-5.500,-0.500
2.787,-45.500,-2.500,-6.500,-0.500
2.788,-45.500,-4.000,-7.500,-1.500
2.789,-45.000,-5.000,-8.500,-2.000
2.790,-45.000,-6.500,-9.500,-2.500
2.791,-45.000,-7.500,-10.000,-3.000
2.792,-45.000,-9.000,-11.000,-3.500
2.793,-45.000,-9.500,-11.000,-4.000
2.794,-45.500,-10.500,-11.500,-4.000
2.795,-45.500,-10.500,-12.000,-4.500
2.796,-45.500,-11.000,-12.500,-5.000
2.797,-45.500,-10.500,-12.500,-5.000
2.798,-46.000,-10.500,-12.500,-5.000
2.799,-46.000,-10.000,-12.000,-5.000
2.800,-46.000,-9.500,-12.000,-4.500
2.801,-46.000,-9.000,-11.000,-4.000
2.802,-46.000,-8.500,-11.000,-3.500
2.803,-46.000,-7.500,-10.500,-3.000
2.804,-46.000,-7.500,-10.500,-2.500
2.805,-46.000,-7.000,-10.000,-2.000
2.806,-45.500,-7.000,-10.500,-1.500
2.807,-45.000,-7.000,-10.500,-1.000
2.808,-45.000,-7.500,-10.500,-1.000
2.809,-45.000,-8.000,-10.000,-0.500
2.810,-45.000,-9.000,-10.000,-0.500
2.811,-45.000,-9.000,-10.000,-0.500
2.812,-45.000,-9.500,-10.000,-0.500
2.813,-45.000,-9.500,-9.500,-0.500
2.814,-45.500,-10.000,-10.000,-0.500
2.815,-45.500,-10.000,-10.000,-0.500
2.816,-46.000,-10.500,-10.500,-1.000
2.817,-46.000,-11.000,-10.500,-1.500
2.818,-46.500,-11.000,-11.000,-2.000
2.819,-46.500,-11.000,-11.000,-2.000
2.820,-47.000,-11.000,-11.500,-2.500
2.821,-47.000,-10.500,-11.500,-2.500
2.822,-47.500,-10.500,-12.000,-2.500
2.823,-47.500,-10.000,-12.000,-2.000
2.824,-48.000,-9.500,-12.500,-2.000
2.825,-48.000,-9.500,-13.000,-2.000
2.826,-48.500,-10.000,-13.500,-2.000
2.827,-48.000,-10.500,-13.500,-2.000
2.828,-48.000,-11.500,-14.500,-2.500
2.829,-47.500,-12.000,-14.500,-2.000
2.830,-47.500,-13.000,-15.000,-2.000
2.831,-47.000,-13.500,-14.500,-1.500
2.832,-47.000,-14.000,-14.500,-1.500
2.833,-46.500,-14.500,-13.500,-0.500
2.834,-46.500,-14.500,-13.000,0.500
2.835,-46.000,-13.500,-11.500,1.500
2.836,-46.000,-13.000,-10.500,3.000
2.837,-45.500,-11.500,-9.000,4.000
2.838,-45.500,-10.500,-7.500,5.000
2.839,-45.000,-8.500,-6.000,6.000
2.840,-45.000,-7.000,-4.500,7.500
2.841,-45.000,-5.500,-3.000,8.500
2.842,-45.000,-4.000,-2.000,9.500
2.843,-45.000,-2.500,-0.500,10.000
2.844,-45.000,-1.500,0.500,11.000
2.845,-44.500,-0.500,1.500,11.000
2.846,-44.500,-0.500,2.000,11.500
2.847,-44.000,-1.000,2.000,11.500
2.848,-44.000,-1.500,2.500,11.500
2.849,-44.000,-2.500,2.500,11.000
2.850,-44.000,-3.000,2.500,10.500
2.851,-43.500,-3.500,2.000,10.000
2.852,-43.500,-4.000,2.500,10.000
2.853,-43.500,-3.500,2.500,10.000
2.854,-43.500,-3.500,3.000,10.500
2.855,-43.500,-2.500,3.500,10.500
2.856,-43.500,-2.000,4.500,11.000
2.857,-43.500,-1.000,5.000,11.000
2.858,-44.000,-0.500,6.000,11.500
2.859,-44.000,0.500,7.000,11.500
2.860,-44.000,1.500,8.000,12.000
2.861,-43.500,2.500,8.500,12.000
2.862,-44.000,3.500,9.500,12.500
2.863,-44.000,4.000,10.000,13.000
2.864,-44.000,4.500,10.500,13.000
2.865,-43.500,4.500,10.500,13.000
2.866,-43.500,5.000,10.500,13.000
2.867,-43.500,4.500,10.000,12.500
2.868,-43.500,4.000,10.000,12.000
2.869,-43.000,3.000,9.000,11.500
2.870,-43.000,2.000,8.500,11.000
2.871,-43.000,1.000,8.000,10.500
2.872,-43.500,0.500,7.500,10.000
2.873,-43.500,0.000,7.000,9.500
2.874,-43.500,-0.500,7.000,9.500
2.875,-43.000,-0.500,7.000,9.000
2.876,-43.500,-0.500,8.000,9.000
2.877,-43.000,0.000,8.500,9.000
2.878,-43.500,1.000,9.500,9.500
2.879,-43.000,1.500,10.500,9.500
2.880,-43.000,2.500,11.000,10.000
2.881,-43.000,3.500,11.500,10.000
2.882,-43.000,4.500,12.000,10.500
2.883,-42.500,5.500,12.500,10.500
2.884,-43.000,6.000,13.000,10.500
2.885,-42.500,6.000,13.000,10.500
2.886,-43.000,6.000,13.000,10.500
2.887,-42.500,5.500,12.500,10.500
2.888,-42.500,5.000,12.500,10.500
2.889,-42.500,4.500,12.000,10.000
2.890,-43.000,3.500,11.500,9.500
2.891,-43.000,2.500,11.000,8.500
2.892,-43.000,2.000,11.000,8.500
2.893,-43.000,1.500,11.000,8.000
2.894,-43.000,1.500,11.500,8.000
2.895,-42.500,1.500,11.500,8.000
2.896,-42.500,1.500,11.500,8.500
2.897,-42.500,1.500,11.500,8.500
2.898,-42.500,2.000,12.000,9.000
2.899,-42.500,2.500,12.000,9.500
2.900,-42.500,3.000,12.500,9.500
2.901,-42.500,3.500,12.500,9.500
2.902,-43.000,4.000,12.500,9.500
2.903,-43.000,4.500,13.000,9.000
2.904,-43.000,5.000,13.000,9.000
2.905,-43.000,5.000,13.000,8.500
2.906,-42.500,5.000,13.000,8.000
2.907,-42.000,4.500,12.500,7.500
2.908,-42.000,3.500,12.000,7.500
2.909,-41.500,2.500,11.500,7.500
2.910,-41.500,2.000,11.000,7.500
2.911,-41.500,1.000,10.500,7.000
2.912,-41.500,0.500,10.000,7.000
2.913,-41.000,0.000,9.500,6.000
2.914,-41.500,0.000,9.500,6.000
2.915,-41.000,0.000,9.500,5.500
2.916,-41.500,0.000,9.500,5.500
2.917,-41.500,0.500,9.500,5.500
2.918,-41.500,1.000,10.500,6.000
2.919,-41.500,1.500,11.000,6.000
2.920,-41.500,2.500,12.000,6.500
2.921,-41.500,3.000,12.500,7.000
2.922,-41.500,4.500,13.500,7.500
2.923,-41.000,5.000,14.000,7.500
2.924,-41.000,6.000,14.500,7.500
2.925,-41.000,6.000,14.000,7.000
2.926,-41.000,6.000,14.000,7.000
2.927,-40.500,5.000,13.500,6.500
2.928,-40.500,4.500,13.500,6.500
2.929,-40.000,3.500,13.000,6.000
2.930,-40.000,2.500,13.000,6.000
2.931,-39.500,1.500,12.500,5.500
2.932,-39.500,0.500,12.500,5.500
2.933,-39.500,-1.000,12.500,5.000
2.934,-40.000,-1.500,13.000,5.000
2.935,-40.000,-1.500,12.500,5.000
2.936,-40.500,-1.500,13.000,5.000
2.937,-40.500,-1.000,13.000,5.000
2.938,-41.000,-0.500,13.500,5.500
2.939,-41.000,0.500,13.500,6.000
2.940,-41.500,1.500,14.000,6.000
2.941,-41.500,2.500,14.000,6.000
2.942,-42.000,3.500,14.500,6.500
2.943,-42.000,4.000,14.500,6.500
2.944,-42.000,4.500,14.500,7.000
2.945,-41.500,4.000,14.500,7.000
2.946,-41.500,4.000,14.000,7.000
2.947,-40.500,3.000,13.500,6.500
2.948,-40.500,2.500,13.500,6.500
2.949,-40.000,1.500,13.000,6.000
2.950,-39.500,1.000,12.500,5.500
2.951,-39.000,0.000,12.000,5.000
2.952,-39.000,-1.000,12.000,5.000
2.953,-39.000,-1.500,11.500,4.500
2.954,-39.000,-2.000,11.500,4.500
2.955,-39.000,-2.000,11.500,4.500
2.956,-39.500,-2.500,11.500,4.500
2.957,-39.000,-2.000,11.500,4.000
2.958,-39.500,-1.500,11.500,4.000
2.959,-39.500,-1.000,12.000,4.000
2.960,-39.500,0.000,12.500,4.500
2.961,-40.000,0.500,13.000,4.500
2.962,-40.000,1.500,13.500,5.000
2.963,-40.000,1.500,13.500,5.000
2.964,-40.000,2.000,14.000,5.500
2.965,-40.000,1.500,14.000,5.500
2.966,-40.000,1.000,14.000,5.500
2.967,-39.500,0.000,13.500,5.000
2.968,-39.000,-1.000,13.000,5.000
2.969,-38.500,-1.500,12.000,4.500
2.970,-38.500,-2.000,12.000,4.500
2.971,-38.500,-2.500,11.500,4.000
2.972,-38.500,-3.500,11.000,4.000
2.973,-38.500,-3.500,11.000,3.500
2.974,-39.000,-3.500,11.000,3.500
2.975,-39.000,-3.500,11.000,3.000
2.976,-39.000,-3.500,11.500,3.500
2.977,-39.000,-3.000,12.000,3.500
2.978,-39.500,-2.500,12.500,3.500
2.979,-39.500,-2.000,12.500,3.500
2.980,-40.000,-1.000,13.000,4.000
2.981,-40.000,0.000,13.000,4.500
2.982,-40.500,1.000,13.500,5.000
2.983,-40.500,2.000,14.000,5.500
2.984,-41.000,3.000,14.500,5.500
2.985,-41.000,3.000,14.500,5.500
2.986,-41.000,3.500,15.000,5.500
2.987,-40.500,3.000,14.500,5.500
2.988,-40.500,2.000,14.500,5.000
2.989,-40.000,1.000,14.000,4.500
2.990,-40.000,0.000,13.500,4.500
2.991,-40.000,-1.000,12.500,4.000
2.992,-40.000,-2.000,12.000,4.000
2.993,-40.000,-2.500,11.000,4.000
2.994,-40.000,-3.000,11.000,4.000
2.995,-40.000,-3.000,10.500,4.000
2.996,-40.500,-3.500,11.000,4.000
2.997,-40.500,-3.000,11.000,4.000
2.998,-41.000,-3.000,11.500,4.000
2.999,-40.500,-2.000,12.000,4.000
3.000,-41.000,-1.500,12.500,4.500
3.001,-40.500,-1.000,13.000,4.500
3.002,-41.000,-0.500,14.000,5.000
3.003,-41.000,0.000,14.500,5.000
3.004,-41.000,0.000,15.000,5.500
3.005,-41.000,-0.500,15.000,5.500
3.006,-41.500,-1.000,15.500,6.000
3.007,-41.000,-2.000,15.000,5.500
3.008,-41.000,-3.000,14.500,5.500
3.009,-40.500,-4.000,13.500,5.000
3.010,-40.500,-5.500,13.000,4.500
3.011,-40.500,-6.000,12.000,4.000
3.012,-40.500,-7.000,12.000,4.000
3.013,-40.500,-7.000,11.500,3.500
3.014,-41.000,-7.500,11.500,4.000
3.015,-41.000,-7.500,11.500,4.000
3.016,-41.500,-7.500,11.500,4.000
3.017,-42.000,-7.000,11.500,4.000
3.018,-42.000,-7.000,12.000,4.000
3.019,-42.000,-6.500,12.000,4.500
3.020,-42.000,-6.000,12.500,5.000
3.021,-42.000,-5.000,13.000,5.000
3.022,-42.000,-4.500,13.500,5.500
3.023,-41.500,-3.500,14.000,6.000
3.024,-41.500,-3.000,14.500,6.000
3.025,-41.000,-3.000,14.500,6.000
3.026,-41.500,-3.000,14.500,6.500
3.027,-41.000,-3.000,14.000,6.000
3.028,-41.500,-3.500,14.000,6.000
3.029,-41.500,-4.500,13.000,5.000
3.030,-41.500,-5.500,12.000,4.500
3.031,-41.500,-6.000,11.000,3.500
3.032,-41.500,-6.500,10.500,3.000
3.033,-41.500,-7.000,10.000,2.500
3.034,-41.500,-7.500,9.500,2.000
3.035,-41.500,-7.500,9.000,1.500
3.036,-41.500,-7.500,9.500,1.000
3.037,-41.500,-7.000,9.500,1.000
3.038,-42.000,-6.500,10.000,1.000
3.039,-42.000,-5.500,10.500,1.000
3.040,-42.500,-5.000,11.000,1.500
3.041,-42.000,-4.000,11.500,2.000
3.042,-42.000,-3.000,12.500,2.500
3.043,-42.000,-2.500,12.500,3.000
3.044,-42.500,-2.000,13.000,3.500
3.045,-42.500,-2.000,13.000,4.000
3.046,-42.500,-2.000,12.500,4.000
3.047,-42.000,-2.500,12.000,4.000
3.048,-42.500,-3.000,11.000,4.000
3.049,-42.000,-4.000,10.000,3.500
3.050,-42.500,-5.000,9.500,3.000
3.051,-42.000,-6.000,9.000,2.000
3.052,-42.500,-6.500,8.500,1.500
3.053,-42.500,-7.000,8.000,1.000
3.054,-42.500,-7.500,8.000,1.000
3.055,-42.500,-7.500,8.000,1.000
3.056,-43.000,-7.500,8.500,1.000
3.057,-43.000,-7.000,8.500,1.000
3.058,-43.000,-6.500,9.500,1.500
3.059,-43.000,-6.000,10.000,1.500
3.060,-43.000,-5.500,10.500,2.000
3.061,-42.500,-4.500,11.000,2.000
3.062,-42.500,-4.500,11.500,2.500
3.063,-42.000,-4.000,12.000,2.500
3.064,-42.000,-3.500,12.500,2.500
3.065,-41.500,-3.500,12.500,2.500
3.066,-41.500,-3.500,12.500,2.500
3.067,-41.000,-3.500,12.000,2.500
3.068,-41.000,-4.000,12.000,2.500
3.069,-41.000,-4.500,11.500,2.000
3.070,-41.000,-5.500,11.500,2.500
3.071,-40.500,-6.000,11.000,2.000
3.072,-41.000,-7.000,10.500,2.000
3.073,-41.000,-8.000,10.000,1.500
3.074,-41.000,-8.500,9.500,1.000
3.075,-41.500,-9.000,9.500,1.000
3.076,-42.000,-9.500,9.500,1.000
3.077,-42.000,-9.500,9.500,0.500
3.078,-42.500,-9.000,10.000,1.000
3.079,-42.500,-8.500,10.500,1.000
3.080,-43.000,-7.500,11.000,1.500
3.081,-43.000,-6.000,11.500,2.000
3.082,-43.000,-5.500,12.000,2.500
3.083,-43.000,-4.500,12.000,2.500
3.084,-43.500,-4.500,12.000,2.500
3.085,-43.500,-4.500,11.500,2.500
3.086,-43.500,-4.500,11.000,2.500
3.087,-43.500,-5.000,10.500,2.000
3.088,-43.500,-5.500,10.500,2.000
3.089,-43.000,-6.500,10.500,2.000
3.090,-43.000,-7.500,10.000,2.000
3.091,-43.000,-8.000,9.500,2.000
3.092,-43.000,-9.000,9.500,2.000
3.093,-42.500,-9.500,9.000,1.500
3.094,-43.000,-10.000,8.500,1.500
3.095,-42.500,-10.500,8.500,1.000
3.096,-43.000,-10.500,8.500,1.500
3.097,-42.500,-10.500,8.500,1.500
3.098,-43.000,-10.000,8.500,2.000
3.099,-43.000,-9.500,9.000,2.000
3.100,-43.000,-8.500,10.000,2.500
3.101,-43.000,-7.500,10.500,3.000
3.102,-43.500,-6.500,11.500,3.500
3.103,-43.500,-5.500,12.000,3.500
3.104,-44.000,-5.000,12.500,4.000
3.105,-43.500,-4.000,12.500,4.500
3.106,-43.500,-4.000,12.500,4.500
3.107,-43.500,-4.000,12.500,4.500
3.108,-43.500,-5.000,12.500,4.500
3.109,-43.000,-5.500,11.500,4.000
3.110,-43.000,-6.000,11.500,4.000
3.111,-42.500,-6.500,11.000,4.000
3.112,-42.500,-7.000,11.000,4.000
3.113,-42.500,-7.500,11.000,4.000
3.114,-43.000,-7.500,11.500,4.500
3.115,-43.000,-7.500,11.500,4.500
3.116,-43.500,-7.500,12.000,5.000
3.117,-43.500,-7.000,12.500,5.000
3.118,-43.500,-6.500,13.000,5.000
3.119,-43.000,-6.000,13.000,5.000
3.120,-42.500,-5.500,14.000,5.500
3.121,-42.000,-4.500,14.500,6.000
3.122,-42.000,-4.000,15.000,6.500
3.123,-42.000,-3.500,15.500,7.000
3.124,-42.000,-3.500,15.500,7.000
3.125,-42.000,-3.000,15.500,7.000
3.126,-42.000,-3.500,15.000,7.000
3.127,-42.000,-4.000,14.500,7.000
3.128,-42.500,-5.000,13.500,6.500
3.129,-42.000,-5.500,12.500,6.000
3.130,-42.000,-6.500,12.000,6.000
3.131,-41.500,-7.500,11.500,5.500
3.132,-41.500,-8.500,11.000,5.000
3.133,-41.000,-9.000,10.500,5.000
3.134,-41.000,-10.000,10.500,5.000
3.135,-40.500,-10.000,10.500,5.000
3.136,-40.500,-10.500,10.500,5.500
3.137,-40.500,-10.500,10.500,5.500
3.138,-41.000,-10.000,10.500,6.000
3.139,-40.500,-9.500,10.500,6.000
3.140,-41.000,-9.000,10.500,6.000
3.141,-41.000,-8.500,11.000,5.500
3.142,-41.500,-8.000,11.000,5.000
3.143,-41.500,-7.500,11.000,4.500
3.144,-42.000,-7.000,11.000,4.000
3.145,-42.000,-7.000,11.000,3.500
3.146,-42.500,-7.000,11.000,3.000
3.147,-42.000,-7.000,10.500,2.500
3.148,-42.000,-7.500,10.000,2.500
3.149,-42.000,-8.000,9.500,2.000
3.150,-42.000,-9.000,8.500,2.000
3.151,-42.000,-9.500,7.500,1.500
3.152,-42.000,-10.500,7.000,1.500
3.153,-42.000,-11.000,6.500,1.000
3.154,-42.500,-12.000,6.000,0.500
3.155,-42.500,-12.500,5.500,0.500
3.156,-42.500,-13.000,5.500,0.500
3.157,-42.500,-13.000,5.500,0.000
3.158,-43.000,-13.000,5.500,0.500
3.159,-43.000,-13.000,6.000,0.500
3.160,-43.000,-13.000,6.500,0.500
3.161,-43.000,-12.500,7.000,0.500
3.162,-43.000,-12.000,7.500,1.000
3.163,-43.000,-11.000,8.000,1.000
3.164,-43.000,-10.500,8.500,1.000
3.165,-42.500,-10.000,8.500,1.000
3.166,-42.500,-10.000,8.500,1.000
3.167,-42.000,-9.500,8.000,0.500
3.168,-42.000,-10.000,8.000,1.000
3.169,-41.500,-10.000,8.000,0.500
3.170,-41.500,-10.500,8.000,0.500
3.171,-41.500,-11.000,7.500,0.500
3.172,-41.500,-11.500,7.500,0.500
3.173,-41.000,-11.500,7.500,0.000
3.174,-41.500,-12.500,7.500,-0.500
3.175,-41.500,-12.500,7.500,-0.500
3.176,-42.000,-13.000,8.000,-0.500
3.177,-42.000,-13.000,8.000,0.000
3.178,-42.500,-13.000,8.500,0.000
3.179,-42.500,-12.500,9.000,0.500
3.180,-42.500,-12.000,10.000,1.000
3.181,-42.000,-11.500,10.500,1.000
3.182,-42.000,-11.000,11.500,1.500
3.183,-41.500,-10.000,12.000,1.500
3.184,-41.500,-9.000,12.000,1.500
3.185,-41.000,-8.500,12.000,1.500
3.186,-41.000,-8.500,12.000,1.000
3.187,-41.000,-8.500,11.500,0.500
3.188,-41.000,-9.000,11.000,-0.500
3.189,-41.000,-10.000,10.000,-1.000
3.190,-41.000,-11.000,9.500,-1.500
3.191,-41.000,-11.500,8.500,-2.000
3.192,-41.000,-12.500,8.500,-2.500
3.193,-40.500,-12.500,8.500,-2.500
3.194,-41.000,-13.000,9.000,-2.500
3.195,-40.500,-12.500,9.000,-2.500
3.196,-41.000,-12.500,9.500,-2.500
3.197,-41.000,-12.000,9.500,-2.000
3.198,-41.500,-11.500,10.000,-1.500
3.199,-41.500,-10.500,10.000,-0.500
3.200,-42.000,-10.000,10.500,0.500
3.201,-42.000,-9.500,11.000,1.000
3.202,-42.500,-9.000,12.000,1.500
3.203,-42.000,-8.500,12.000,2.000
3.204,-42.000,-8.000,12.500,2.000
3.205,-41.500,-8.000,12.500,2.000
3.206,-41.500,-8.000,13.000,2.000
3.207,-41.000,-8.000,12.500,1.500
3.208,-40.500,-8.500,12.000,1.500
3.209,-40.000,-9.000,11.500,1.000
3.210,-40.000,-10.000,11.000,1.000
3.211,-39.500,-10.500,10.500,0.500
3.212,-39.500,-11.500,10.500,0.500
3.213,-39.500,-12.500,10.000,0.000
3.214,-40.000,-13.000,10.000,0.000
3.215,-40.000,-13.500,10.000,0.000
3.216,-40.000,-13.500,10.500,0.500
3.217,-40.000,-13.000,10.500,0.500
3.218,-40.500,-12.500,11.000,1.000
3.219,-40.500,-12.000,11.000,1.000
3.220,-40.500,-11.000,11.500,2.000
3.221,-40.500,-10.500,12.000,2.500
3.222,-40.500,-10.000,13.000,3.000
3.223,-40.000,-9.500,13.500,4.000
3.224,-40.000,-9.000,14.000,5.000
3.225,-40.000,-9.000,14.500,6.000
3.226,-40.500,-9.000,15.500,7.500
3.227,-40.500,-9.000,16.000,9.000
3.228,-40.500,-9.500,16.500,10.500
3.229,-40.000,-10.000,16.500,12.500
3.230,-40.500,-11.000,17.000,14.000
3.231,-40.500,-12.000,17.000,15.500
3.232,-40.500,-13.500,17.000,17.000
3.233,-40.500,-14.500,16.500,18.000
3.234,-41.500,-15.500,16.000,19.000
3.235,-42.000,-16.500,15.000,19.500
3.236,-42.500,-17.000,14.500,20.500
3.237,-43.000,-17.500,14.000,21.500
3.238,-43.500,-18.000,13.500,22.500
3.239,-43.500,-18.000,13.000,23.500
3.240,-44.000,-18.500,12.000,25.000
3.241,-44.500,-19.000,11.000,25.500
3.242,-45.000,-19.500,10.000,26.500
3.243,-45.000,-19.500,8.500,26.500
3.244,-46.000,-20.500,6.000,26.500
3.245,-46.500,-21.500,3.500,25.500
3.246,-47.000,-23.500,0.500,24.500
3.247,-47.500,-25.500,-3.000,22.500
3.248,-48.500,-28.000,-7.500,20.000
3.249,-48.500,-30.500,-12.000,16.000
3.250,-49.500,-33.500,-17.000,11.500
3.251,-49.500,-36.500,-22.000,5.500
3.252,-50.500,-39.500,-28.000,-2.000
3.253,-50.500,-42.500,-34.000,-10.500
3.254,-51.500,-45.000,-40.000,-19.500
3.255,-51.500,-47.500,-46.000,-29.000
3.256,-52.500,-50.000,-52.500,-39.000
3.257,-52.500,-51.500,-58.000,-48.000
3.258,-53.500,-53.000,-63.000,-56.500
3.259,-53.500,-54.000,-67.000,-63.500
3.260,-54.000,-54.000,-69.500,-69.000
3.261,-53.500,-53.000,-70.500,-73.000
3.262,-53.500,-51.000,-69.500,-76.000
3.263,-52.500,-48.500,-67.500,-77.000
3.264,-52.000,-46.000,-64.000,-76.500
3.265,-50.500,-43.000,-60.000,-75.000
3.266,-49.500,-40.000,-56.000,-73.000
3.267,-48.000,-37.500,-51.500,-70.000
3.268,-47.000,-35.500,-47.000,-67.000
3.269,-46.000,-33.000,-43.000,-63.500
3.270,-45.000,-31.500,-39.000,-60.000
3.271,-43.500,-29.500,-34.500,-56.000
3.272,-43.000,-28.000,-30.500,-52.500
3.273,-42.000,-26.000,-26.000,-49.000
3.274,-41.500,-24.000,-22.000,-46.000
3.275,-40.500,-22.500,-18.500,-43.000
3.276,-40.500,-21.000,-15.000,-40.500
3.277,-40.000,-19.000,-12.000,-38.000
3.278,-40.000,-17.500,-9.000,-35.500
3.279,-39.500,-16.000,-6.000,-33.000
3.280,-39.500,-14.500,-4.000,-30.500
3.281,-39.500,-12.500,-1.500,-27.500
3.282,-39.500,-11.000,0.500,-25.500
3.283,-39.000,-9.500,2.500,-23.000
3.284,-38.500,-9.000,4.000,-20.500
3.285,-38.000,-8.500,5.000,-18.500
3.286,-38.000,-8.500,6.000,-16.500
3.287,-38.000,-8.500,6.500,-14.500
3.288,-38.000,-9.000,7.000,-12.500
3.289,-38.000,-10.000,7.000,-10.500
3.290,-38.500,-11.000,7.500,-9.000
3.291,-38.500,-11.500,7.500,-7.500
3.292,-38.500,-12.500,7.500,-6.000
3.293,-38.500,-13.000,7.500,-4.500
3.294,-38.500,-14.000,8.000,-3.500
3.295,-38.000,-14.000,8.000,-2.000
3.296,-38.000,-14.000,8.500,-1.000
3.297,-37.500,-14.000,8.500,0.000
3.298,-38.000,-14.000,9.000,1.000
3.299,-38.000,-13.500,9.500,1.500
3.300,-38.000,-13.000,10.000,2.500
3.301,-38.000,-12.500,10.500,3.000
3.302,-38.500,-12.000,11.500,3.500
3.303,-38.000,-11.500,12.500,4.000
3.304,-38.000,-11.000,13.000,4.500
3.305,-37.500,-10.500,13.500,5.000
3.306,-37.500,-10.500,14.000,5.500
3.307,-37.000,-11.000,14.000,5.500
3.308,-37.000,-11.500,14.000,5.500
3.309,-37.000,-12.500,13.000,5.000
3.310,-37.500,-13.500,12.500,5.000
3.311,-37.500,-14.500,12.000,5.000
3.312,-37.500,-15.500,11.500,4.500
3.313,-37.500,-16.000,11.000,4.000
3.314,-38.000,-16.500,11.000,4.000
3.315,-37.500,-16.000,11.000,4.000
3.316,-38.000,-16.000,11.500,4.000
3.317,-37.500,-15.500,11.500,4.000
3.318,-38.000,-15.000,12.000,4.500
3.319,-38.000,-14.000,12.000,5.000
3.320,-38.000,-13.000,13.000,5.500
3.321,-38.000,-11.500,13.500,6.000
3.322,-38.500,-11.000,14.000,7.000
3.323,-38.500,-10.000,14.000,7.000
3.324,-38.500,-9.500,14.500,7.500
3.325,-38.500,-9.000,14.000,7.500
3.326,-38.500,-9.500,14.000,8.000
3.327,-38.000,-9.500,13.000,7.500
3.328,-37.500,-10.500,12.500,7.500
3.329,-37.000,-11.500,12.000,7.500
3.330,-37.000,-12.500,11.000,7.000
3.331,-37.000,-13.500,10.500,6.500
3.332,-37.500,-14.000,10.000,6.500
3.333,-37.500,-14.500,9.500,6.500
3.334,-38.000,-15.000,9.500,6.500
3.335,-38.500,-15.500,9.000,6.000
3.336,-39.000,-15.500,9.500,6.000
3.337,-39.000,-15.500,9.500,5.500
3.338,-39.000,-15.500,10.000,6.000
3.339,-39.000,-15.000,10.000,6.000
3.340,-39.000,-14.500,10.500,6.500
3.341,-38.500,-14.000,11.000,6.500
3.342,-39.000,-13.500,12.000,7.000
3.343,-38.500,-12.500,12.500,7.500
3.344,-39.000,-12.500,13.500,8.000
3.345,-38.500,-12.000,13.500,8.000
3.346,-39.000,-12.000,14.000,8.000
3.347,-38.500,-12.000,14.000,7.500
3.348,-38.500,-13.000,14.000,7.000
3.349,-38.500,-13.500,13.500,6.500
3.350,-38.500,-14.500,13.000,6.000
3.351,-38.000,-15.000,12.500,5.500
3.352,-38.000,-15.500,11.500,5.000
3.353,-38.000,-16.000,11.000,4.500
3.354,-38.000,-16.500,10.500,4.500
3.355,-38.000,-16.500,10.000,4.000
3.356,-38.500,-16.500,10.000,4.000
3.357,-38.500,-16.500,10.000,4.000
3.358,-39.000,-16.500,10.500,4.500
3.359,-39.000,-16.000,10.500,4.500
3.360,-39.000,-16.000,11.000,5.000
3.361,-38.500,-15.000,11.500,5.500
3.362,-38.500,-14.500,12.500,6.000
3.363,-38.000,-14.000,13.000,6.500
3.364,-38.000,-13.500,13.500,6.500
3.365,-37.500,-13.000,13.500,6.500
3.366,-37.500,-13.500,14.000,6.500
3.367,-37.500,-13.500,13.500,6.500
3.368,-37.500,-14.500,13.000,6.000
3.369,-37.000,-15.000,12.500,5.500
3.370,-37.000,-16.500,12.000,5.500
3.371,-36.500,-17.500,11.500,5.000
3.372,-36.500,-18.500,11.500,5.000
3.373,-36.000,-19.000,11.000,4.500
3.374,-36.500,-20.000,11.000,4.000
3.375,-36.500,-20.000,11.000,4.000
3.376,-36.500,-20.000,11.000,4.000
3.377,-36.500,-20.000,10.500,3.500
3.378,-37.000,-19.500,11.000,4.000
3.379,-37.000,-19.000,11.000,4.000
3.380,-37.500,-18.500,11.500,4.500
3.381,-37.500,-17.500,11.500,5.000
3.382,-38.000,-17.000,12.000,5.000
3.383,-38.000,-16.000,12.500,5.500
3.384,-38.000,-16.000,12.500,5.500
3.385,-37.500,-16.000,12.000,5.500
3.386,-38.000,-16.500,12.000,5.500
3.387,-37.500,-16.500,11.000,5.000
3.388,-37.500,-17.500,10.500,4.500
3.389,-37.500,-18.000,9.500,3.500
3.390,-37.500,-18.500,9.000,3.000
3.391,-37.500,-19.000,8.500,2.500
3.392,-37.500,-19.500,8.000,2.500
3.393,-37.000,-20.000,7.500,2.000
3.394,-37.000,-20.500,7.000,2.000
3.395,-37.000,-21.000,7.000,1.500
3.396,-37.000,-21.000,7.000,1.500
3.397,-36.500,-21.000,7.000,1.500
3.398,-36.500,-21.000,7.000,2.000
3.399,-36.500,-20.500,7.000,2.000
3.400,-37.000,-19.500,8.000,2.000
3.401,-37.000,-18.500,8.500,2.500
3.402,-37.500,-17.500,9.500,3.000
3.403,-37.500,-16.000,10.000,3.000
3.404,-38.000,-15.500,10.500,3.500
3.405,-38.000,-15.000,10.500,3.500
3.406,-38.000,-15.500,10.500,3.500
3.407,-38.000,-16.000,10.000,3.000
3.408,-38.000,-16.500,9.500,2.500
3.409,-37.500,-17.000,8.500,2.000
3.410,-37.500,-18.000,7.500,1.500
3.411,-37.000,-19.000,6.500,1.000
3.412,-37.000,-19.500,6.000,1.000
3.413,-37.000,-20.000,5.500,0.500
3.414,-37.500,-20.000,5.000,0.500
3.415,-37.500,-20.000,5.000,0.500
3.416,-37.500,-20.500,5.000,1.000
3.417,-37.500,-20.000,5.000,1.000
3.418,-37.500,-19.500,5.500,1.000
3.419,-37.500,-19.000,6.000,0.500
3.420,-37.500,-18.500,6.000,1.000
3.421,-37.500,-17.500,6.000,1.000
3.422,-38.000,-17.000,6.500,1.000
3.423,-38.000,-16.000,6.500,1.000
3.424,-38.000,-16.000,6.500,1.000
3.425,-37.500,-15.500,6.500,1.000
3.426,-37.500,-16.000,6.000,1.500
3.427,-37.500,-16.000,5.500,1.000
3.428,-37.500,-17.000,5.000,1.000
