'Elapsed time','AECG1','AECG2','AECG3','AECG4'
'seconds','uV','uV','uV','uV'
0.000,-287.000,-261.000,-273.500,-286.500
0.001,-286.500,-261.000,-272.500,-285.500
0.002,-284.500,-258.500,-270.000,-283.000
0.003,-282.000,-256.000,-266.500,-279.500
0.004,-280.000,-253.000,-263.000,-276.500
0.005,-279.500,-251.500,-261.500,-275.000
0.006,-281.000,-252.000,-261.500,-275.500
0.007,-283.500,-253.000,-262.500,-276.500
0.008,-285.000,-253.500,-263.000,-277.000
0.009,-285.000,-252.500,-261.500,-275.500
0.010,-281.500,-249.000,-257.500,-272.000
0.011,-276.500,-243.500,-252.000,-266.500
0.012,-269.500,-237.000,-245.500,-260.000
0.013,-263.000,-230.500,-239.500,-253.500
0.014,-257.500,-225.500,-234.500,-249.000
0.015,-254.000,-222.500,-231.500,-246.000
0.016,-252.500,-221.500,-230.500,-245.000
0.017,-253.000,-222.000,-231.500,-246.500
0.018,-254.500,-224.000,-234.000,-249.000
0.019,-255.500,-225.500,-235.000,-250.000
0.020,-253.500,-223.500,-233.500,-248.500
0.021,-248.500,-219.000,-229.500,-244.000
0.022,-242.500,-213.000,-224.000,-238.000
0.023,-238.500,-208.500,-220.000,-234.000
0.024,-236.500,-206.000,-218.500,-232.000
0.025,-237.000,-206.500,-218.500,-232.000
0.026,-239.000,-208.000,-220.500,-233.500
0.027,-242.500,-211.000,-223.000,-236.000
0.028,-248.000,-216.500,-228.000,-240.500
0.029,-257.000,-225.000,-236.000,-248.500
0.030,-268.000,-236.000,-246.500,-259.500
0.031,-280.000,-248.000,-258.500,-271.000
0.032,-291.000,-259.000,-269.000,-281.500
0.033,-298.000,-266.000,-276.000,-288.500
0.034,-301.000,-269.500,-279.000,-292.000
0.035,-301.500,-270.000,-279.500,-292.500
0.036,-301.500,-270.000,-279.000,-292.500
0.037,-301.500,-270.000,-279.500,-293.000
0.038,-301.500,-271.000,-280.000,-293.500
0.039,-301.500,-271.000,-280.000,-294.000
0.040,-301.000,-270.500,-280.000,-294.000
0.041,-301.000,-270.500,-280.000,-294.000
0.042,-301.500,-271.500,-280.500,-295.000
0.043,-303.000,-273.000,-282.000,-296.500
0.044,-303.000,-273.500,-282.000,-296.500
0.045,-301.000,-271.000,-280.000,-294.000
0.046,-296.500,-266.000,-275.000,-289.000
0.047,-291.000,-260.000,-269.000,-282.500
0.048,-285.500,-254.500,-264.000,-277.000
0.049,-283.500,-252.000,-262.000,-274.000
0.050,-285.000,-253.000,-263.000,-274.500
0.051,-289.500,-257.500,-267.500,-278.000
0.052,-295.000,-263.500,-273.500,-283.500
0.053,-300.500,-269.000,-279.000,-288.500
0.054,-304.000,-273.000,-282.500,-292.000
0.055,-305.000,-275.000,-284.000,-294.000
0.056,-306.000,-276.000,-285.000,-295.000
0.057,-307.000,-277.500,-287.000,-297.500
0.058,-310.000,-280.500,-290.000,-301.000
0.059,-314.000,-284.000,-294.000,-305.500
0.060,-317.500,-287.500,-297.500,-309.000
0.061,-318.500,-289.000,-299.000,-311.000
0.062,-318.500,-288.500,-298.500,-310.500
0.063,-317.500,-287.500,-297.500,-309.500
0.064,-318.500,-288.000,-298.000,-310.000
0.065,-322.000,-291.000,-300.500,-313.000
0.066,-327.500,-295.500,-305.500,-317.500
0.067,-332.000,-300.000,-309.000,-321.000
0.068,-334.500,-302.000,-311.000,-322.500
0.069,-334.000,-301.000,-310.000,-321.500
0.070,-332.000,-299.000,-308.000,-319.000
0.071,-329.000,-296.500,-305.000,-316.500
0.072,-326.000,-293.500,-302.000,-313.000
0.073,-323.000,-291.000,-299.000,-310.500
0.074,-321.000,-289.000,-297.500,-308.500
0.075,-320.000,-288.500,-296.500,-308.000
0.076,-321.000,-289.500,-297.500,-309.000
0.077,-323.500,-292.500,-300.000,-312.000
0.078,-326.000,-295.500,-302.500,-315.000
0.079,-327.500,-297.500,-304.500,-317.000
0.080,-328.000,-298.000,-305.500,-318.000
0.081,-327.500,-297.500,-305.000,-318.000
0.082,-326.500,-296.500,-304.000,-317.500
0.083,-324.500,-294.500,-302.500,-316.000
0.084,-322.000,-292.000,-300.000,-313.500
0.085,-319.500,-289.000,-297.500,-310.500
0.086,-317.500,-286.500,-295.000,-308.000
0.087,-317.000,-286.000,-294.000,-307.000
0.088,-318.000,-286.500,-295.000,-307.500
0.089,-319.000,-287.500,-296.000,-308.000
0.090,-319.500,-288.000,-296.500,-308.500
0.091,-319.500,-288.000,-296.500,-308.500
0.092,-319.500,-288.500,-297.000,-309.000
0.093,-321.500,-290.500,-299.000,-311.000
0.094,-324.000,-293.500,-302.000,-315.000
0.095,-327.000,-297.000,-305.500,-319.000
0.096,-329.500,-299.500,-308.500,-322.500
0.097,-332.000,-302.500,-311.500,-325.500
0.098,-335.500,-306.000,-315.000,-329.500
0.099,-341.000,-312.000,-321.000,-336.000
0.100,-349.000,-320.500,-329.000,-344.500
0.101,-358.500,-330.000,-338.500,-354.000
0.102,-366.000,-338.000,-346.000,-361.500
0.103,-369.500,-341.500,-349.500,-364.500
0.104,-366.000,-338.500,-346.000,-361.000
0.105,-355.500,-327.500,-334.500,-349.500
0.106,-337.500,-309.500,-316.000,-330.500
0.107,-314.000,-286.000,-291.000,-305.000
0.108,-288.000,-259.000,-263.500,-277.000
0.109,-262.000,-233.000,-236.500,-249.500
0.110,-240.000,-210.000,-212.500,-225.000
0.111,-222.000,-191.500,-193.000,-204.500
0.112,-206.000,-174.500,-175.500,-187.000
0.113,-188.500,-156.500,-157.000,-167.500
0.114,-166.000,-133.500,-133.000,-143.500
0.115,-136.000,-103.500,-102.500,-112.500
0.116,-98.500,-65.500,-64.000,-74.000
0.117,-54.500,-20.500,-19.000,-28.500
0.118,-5.000,29.500,30.500,22.000
0.119,47.000,81.500,82.500,74.000
0.120,99.500,134.000,135.000,127.000
0.121,150.000,185.000,186.000,178.500
0.122,199.000,234.000,235.000,227.500
0.123,244.500,280.000,281.500,274.500
0.124,287.000,323.000,325.000,318.000
0.125,326.500,363.000,365.500,358.500
0.126,362.000,399.000,402.000,395.500
0.127,391.000,429.000,433.000,427.000
0.128,411.000,450.000,455.000,449.000
0.129,418.500,458.500,464.000,458.000
0.130,411.500,452.000,457.500,451.500
0.131,389.000,429.000,434.500,428.000
0.132,351.500,392.000,397.000,389.500
0.133,302.500,342.500,347.500,338.500
0.134,246.000,286.000,290.000,280.000
0.135,187.000,226.500,229.500,218.500
0.136,129.500,168.500,171.000,159.000
0.137,77.000,115.000,116.500,104.000
0.138,29.000,66.000,66.500,53.000
0.139,-15.500,20.500,20.000,6.000
0.140,-57.500,-23.000,-24.000,-38.500
0.141,-96.000,-63.000,-65.000,-79.500
0.142,-131.500,-99.000,-101.500,-116.500
0.143,-162.500,-130.500,-133.500,-149.000
0.144,-189.000,-157.500,-161.500,-176.500
0.145,-211.500,-180.500,-185.000,-199.500
0.146,-230.000,-199.000,-204.000,-218.000
0.147,-244.500,-214.000,-219.000,-232.500
0.148,-256.500,-226.000,-231.000,-244.000
0.149,-265.500,-235.000,-240.000,-252.500
0.150,-273.000,-242.500,-247.000,-259.000
0.151,-279.000,-248.000,-253.000,-264.500
0.152,-283.500,-253.000,-257.500,-269.000
0.153,-288.000,-257.000,-261.000,-273.000
0.154,-292.000,-261.000,-265.000,-276.500
0.155,-295.500,-264.000,-268.000,-280.000
0.156,-298.000,-266.500,-270.000,-282.500
0.157,-299.000,-267.500,-271.000,-283.500
0.158,-299.000,-267.500,-271.500,-284.000
0.159,-298.500,-267.500,-271.500,-284.000
0.160,-297.500,-267.000,-271.000,-284.000
0.161,-297.500,-267.500,-271.500,-284.500
0.162,-299.000,-269.000,-273.000,-286.000
0.163,-301.000,-271.000,-275.000,-287.500
0.164,-302.000,-271.500,-275.500,-288.000
0.165,-300.500,-269.500,-273.500,-285.500
0.166,-297.000,-266.000,-270.000,-281.500
0.167,-293.500,-262.500,-266.000,-277.500
0.168,-291.500,-260.000,-264.000,-274.500
0.169,-291.000,-259.000,-263.500,-273.500
0.170,-292.000,-259.500,-264.000,-274.000
0.171,-292.500,-260.500,-265.500,-274.500
0.172,-293.500,-261.000,-266.500,-275.000
0.173,-294.000,-262.000,-267.500,-275.500
0.174,-294.500,-263.000,-268.500,-276.500
0.175,-295.500,-264.500,-269.500,-277.500
0.176,-296.500,-266.000,-270.500,-278.500
0.177,-296.000,-266.000,-270.500,-278.500
0.178,-293.500,-264.000,-268.500,-276.500
0.179,-289.500,-260.500,-265.000,-273.500
0.180,-285.500,-257.000,-261.500,-271.000
0.181,-284.500,-256.000,-261.000,-270.500
0.182,-286.000,-258.000,-263.500,-273.000
0.183,-289.500,-261.500,-267.500,-277.000
0.184,-293.000,-264.500,-271.000,-280.500
0.185,-294.500,-265.500,-272.000,-281.500
0.186,-293.500,-264.000,-270.000,-280.000
0.187,-291.000,-261.000,-266.500,-276.000
0.188,-288.000,-257.500,-263.000,-272.000
0.189,-287.500,-256.000,-261.000,-270.000
0.190,-289.500,-257.500,-261.500,-270.500
0.191,-292.500,-260.000,-263.500,-272.500
0.192,-295.000,-262.000,-265.500,-274.000
0.193,-294.500,-261.500,-264.500,-273.500
0.194,-291.500,-258.500,-261.500,-270.000
0.195,-286.500,-253.500,-256.500,-265.500
0.196,-281.500,-248.500,-251.500,-261.000
0.197,-277.000,-244.000,-247.500,-257.500
0.198,-275.000,-241.500,-245.500,-256.000
0.199,-275.000,-241.500,-246.500,-256.500
0.200,-277.500,-244.000,-249.000,-259.500
0.201,-281.000,-248.000,-253.500,-264.000
0.202,-286.000,-253.000,-258.500,-268.500
0.203,-290.500,-258.000,-264.000,-273.500
0.204,-294.500,-262.000,-268.500,-278.000
0.205,-297.500,-265.000,-272.000,-281.000
0.206,-299.000,-266.500,-274.000,-282.500
0.207,-299.500,-266.500,-274.000,-282.500
0.208,-299.000,-266.000,-272.500,-281.000
0.209,-298.500,-264.500,-271.000,-279.000
0.210,-298.000,-264.000,-270.000,-277.500
0.211,-298.000,-264.500,-269.500,-277.000
0.212,-298.500,-265.500,-270.000,-277.500
0.213,-299.000,-266.000,-270.000,-277.500
0.214,-298.000,-265.500,-270.000,-277.000
0.215,-296.500,-264.500,-268.500,-276.000
0.216,-295.000,-263.000,-267.500,-275.000
0.217,-294.000,-262.500,-267.000,-274.500
0.218,-293.000,-262.000,-267.500,-274.500
0.219,-293.000,-262.500,-268.500,-275.500
0.220,-293.000,-262.500,-269.000,-275.500
0.221,-292.000,-261.500,-268.000,-275.000
0.222,-290.000,-258.500,-265.500,-272.500
0.223,-286.000,-254.500,-261.500,-268.500
0.224,-281.500,-249.500,-257.000,-263.500
0.225,-276.500,-244.500,-252.000,-258.000
0.226,-272.000,-239.500,-246.500,-252.500
0.227,-267.500,-234.500,-241.000,-247.500
0.228,-264.000,-230.500,-237.000,-243.000
0.229,-262.500,-228.500,-234.500,-240.500
0.230,-263.000,-229.000,-234.500,-240.500
0.231,-266.500,-231.500,-236.500,-243.000
0.232,-270.500,-235.500,-240.500,-246.500
0.233,-274.500,-239.000,-244.000,-250.000
0.234,-276.500,-241.500,-246.000,-252.000
0.235,-276.500,-242.000,-246.500,-252.500
0.236,-275.000,-241.500,-246.000,-252.000
0.237,-274.000,-241.500,-245.500,-251.500
0.238,-273.500,-241.500,-246.000,-252.000
0.239,-274.000,-242.500,-247.000,-253.000
0.240,-274.000,-244.000,-248.000,-254.500
0.241,-275.000,-245.000,-249.500,-255.500
0.242,-276.000,-246.500,-251.000,-257.500
0.243,-278.500,-249.500,-253.500,-260.500
0.244,-282.500,-253.500,-257.500,-265.000
0.245,-287.500,-258.000,-262.000,-269.500
0.246,-291.500,-262.000,-265.500,-272.500
0.247,-294.500,-264.000,-267.000,-274.000
0.248,-294.000,-263.000,-266.000,-273.000
0.249,-290.000,-258.500,-261.000,-267.500
0.250,-282.000,-250.000,-252.500,-259.000
0.251,-272.000,-240.000,-243.000,-249.000
0.252,-264.000,-232.500,-235.500,-241.000
0.253,-260.500,-229.500,-233.000,-239.000
0.254,-264.000,-233.000,-237.500,-243.500
0.255,-271.500,-241.500,-246.500,-252.500
0.256,-281.500,-251.500,-257.000,-263.500
0.257,-290.500,-261.000,-266.500,-273.000
0.258,-295.500,-266.500,-272.000,-278.500
0.259,-297.000,-268.500,-273.500,-280.500
0.260,-296.000,-267.500,-272.000,-279.000
0.261,-293.000,-265.000,-269.000,-275.500
0.262,-289.500,-261.500,-265.500,-271.500
0.263,-285.500,-257.500,-261.500,-267.000
0.264,-282.000,-253.500,-257.500,-262.500
0.265,-279.000,-250.500,-253.500,-258.000
0.266,-277.500,-248.000,-250.500,-254.500
0.267,-277.000,-246.500,-248.500,-252.000
0.268,-277.000,-246.000,-247.000,-250.500
0.269,-277.000,-245.500,-246.000,-249.000
0.270,-277.500,-246.000,-246.000,-248.500
0.271,-278.500,-246.500,-246.500,-249.000
0.272,-279.500,-247.000,-247.000,-249.500
0.273,-279.500,-247.500,-247.500,-249.500
0.274,-279.000,-246.500,-247.000,-249.500
0.275,-276.500,-244.500,-245.500,-248.000
0.276,-272.000,-240.500,-242.500,-245.000
0.277,-267.000,-236.000,-238.000,-241.500
0.278,-261.000,-230.500,-233.500,-237.500
0.279,-255.000,-225.000,-229.000,-233.000
0.280,-248.500,-219.000,-223.500,-228.000
0.281,-242.000,-212.500,-217.500,-222.000
0.282,-236.000,-206.500,-211.500,-216.500
0.283,-233.500,-203.000,-208.500,-214.000
0.284,-234.500,-203.500,-209.500,-215.000
0.285,-239.000,-207.000,-213.000,-218.500
0.286,-243.500,-211.500,-217.000,-222.000
0.287,-247.000,-214.000,-219.500,-224.500
0.288,-247.000,-214.000,-218.500,-223.500
0.289,-244.500,-211.000,-215.000,-219.500
0.290,-241.000,-207.000,-210.000,-214.500
0.291,-238.000,-204.000,-206.500,-210.500
0.292,-237.500,-204.000,-205.500,-209.500
0.293,-239.500,-206.500,-207.500,-211.500
0.294,-244.500,-211.000,-212.500,-216.500
0.295,-250.000,-217.000,-218.000,-222.500
0.296,-255.500,-222.500,-223.500,-228.500
0.297,-260.000,-227.000,-228.000,-233.500
0.298,-262.500,-229.500,-231.000,-236.500
0.299,-262.500,-230.000,-232.000,-238.000
0.300,-261.000,-229.000,-232.000,-237.500
0.301,-258.000,-226.500,-230.000,-235.500
0.302,-253.500,-222.500,-226.500,-231.500
0.303,-247.000,-216.500,-221.000,-226.000
0.304,-240.000,-209.000,-214.000,-218.500
0.305,-233.500,-202.000,-206.500,-211.500
0.306,-227.500,-196.000,-200.000,-204.000
0.307,-222.500,-190.000,-194.000,-198.000
0.308,-219.500,-186.500,-190.000,-194.000
0.309,-218.500,-185.000,-189.000,-192.000
0.310,-220.000,-186.000,-190.000,-192.500
0.311,-222.500,-188.000,-192.000,-194.500
0.312,-225.500,-191.000,-194.500,-197.000
0.313,-228.500,-193.500,-197.000,-199.500
0.314,-231.500,-196.500,-200.000,-203.000
0.315,-235.500,-200.500,-204.500,-207.000
0.316,-241.000,-206.000,-210.500,-213.500
0.317,-247.000,-213.000,-218.000,-220.500
0.318,-253.000,-219.500,-224.000,-226.500
0.319,-255.500,-223.000,-227.000,-229.500
0.320,-255.000,-223.000,-226.500,-229.000
0.321,-250.500,-219.000,-222.500,-224.500
0.322,-244.500,-212.500,-216.000,-218.500
0.323,-237.500,-205.500,-209.000,-211.000
0.324,-231.000,-198.000,-201.500,-204.000
0.325,-225.500,-192.000,-196.000,-198.000
0.326,-221.500,-188.000,-191.500,-193.000
0.327,-219.000,-185.500,-188.500,-190.000
0.328,-218.000,-184.000,-186.500,-188.500
0.329,-217.500,-183.500,-185.500,-187.500
0.330,-216.500,-182.000,-184.500,-186.000
0.331,-214.000,-179.500,-181.500,-183.000
0.332,-210.500,-175.500,-177.500,-179.000
0.333,-206.500,-171.500,-173.000,-175.000
0.334,-203.000,-168.000,-169.500,-171.500
0.335,-201.000,-165.500,-167.000,-169.500
0.336,-199.000,-164.000,-166.000,-168.000
0.337,-198.000,-163.000,-165.000,-167.500
0.338,-196.000,-162.000,-164.500,-166.500
0.339,-193.000,-160.000,-162.500,-164.500
0.340,-189.500,-156.500,-159.000,-161.000
0.341,-185.500,-153.000,-155.500,-157.000
0.342,-182.500,-149.500,-152.500,-154.000
0.343,-180.500,-147.500,-150.000,-151.500
0.344,-179.500,-146.000,-148.500,-150.000
0.345,-179.000,-144.500,-147.000,-149.000
0.346,-178.000,-143.000,-145.000,-147.000
0.347,-176.000,-141.000,-143.000,-144.500
0.348,-173.500,-138.000,-140.000,-141.500
0.349,-170.500,-134.000,-136.500,-137.500
0.350,-166.500,-130.000,-132.500,-133.500
0.351,-163.000,-126.000,-128.500,-130.000
0.352,-160.000,-122.500,-125.500,-127.000
0.353,-158.500,-121.000,-123.500,-126.000
0.354,-158.500,-121.000,-123.500,-126.500
0.355,-159.000,-122.000,-124.000,-127.000
0.356,-159.000,-122.000,-123.500,-127.500
0.357,-157.500,-120.500,-122.000,-126.000
0.358,-153.500,-117.500,-118.500,-123.000
0.359,-149.000,-113.000,-114.000,-118.500
0.360,-143.500,-108.000,-109.500,-114.000
0.361,-139.500,-104.000,-105.500,-110.500
0.362,-137.500,-102.000,-104.000,-108.500
0.363,-136.500,-101.500,-103.000,-107.500
0.364,-135.500,-100.500,-102.500,-106.500
0.365,-133.500,-98.500,-100.500,-103.500
0.366,-130.500,-95.000,-96.500,-99.500
0.367,-126.500,-90.500,-91.500,-94.000
0.368,-122.000,-85.000,-86.000,-88.000
0.369,-117.000,-79.500,-80.000,-82.000
0.370,-111.500,-74.000,-74.500,-76.500
0.371,-107.000,-69.500,-69.500,-71.500
0.372,-103.500,-66.000,-65.500,-68.000
0.373,-100.500,-63.000,-62.500,-65.000
0.374,-97.500,-60.000,-59.500,-62.500
0.375,-94.000,-57.500,-57.000,-60.500
0.376,-91.000,-55.000,-54.500,-58.000
0.377,-88.500,-53.500,-53.000,-56.500
0.378,-88.000,-53.500,-52.500,-56.500
0.379,-88.500,-54.500,-53.500,-57.500
0.380,-90.000,-56.000,-54.500,-58.500
0.381,-90.500,-56.500,-55.000,-59.500
0.382,-89.000,-55.500,-53.500,-58.000
0.383,-85.500,-51.500,-49.500,-54.000
0.384,-79.500,-45.500,-43.500,-48.000
0.385,-72.000,-38.000,-36.500,-40.500
0.386,-64.000,-29.500,-27.500,-31.500
0.387,-56.500,-20.500,-19.000,-22.500
0.388,-49.500,-13.500,-11.500,-14.500
0.389,-45.500,-8.500,-6.500,-10.000
0.390,-45.000,-8.000,-6.000,-9.000
0.391,-48.000,-11.000,-8.500,-12.000
0.392,-53.000,-16.500,-14.000,-17.500
0.393,-58.500,-22.500,-20.000,-23.000
0.394,-63.500,-28.500,-26.000,-29.000
0.395,-68.000,-34.000,-31.500,-34.500
0.396,-71.500,-38.000,-36.000,-39.000
0.397,-72.500,-40.000,-38.500,-41.500
0.398,-72.500,-40.500,-39.500,-43.000
0.399,-72.000,-40.500,-39.500,-43.500
0.400,-70.500,-40.000,-39.000,-43.500
0.401,-68.500,-38.500,-37.500,-42.500
0.402,-65.500,-36.000,-34.000,-39.500
0.403,-61.500,-32.500,-30.500,-36.000
0.404,-59.000,-29.500,-27.500,-33.500
0.405,-59.500,-30.000,-27.000,-33.500
0.406,-64.500,-34.000,-31.000,-37.500
0.407,-73.500,-42.000,-38.500,-45.500
0.408,-85.500,-52.500,-48.500,-55.500
0.409,-97.500,-64.000,-59.500,-66.000
0.410,-108.500,-75.000,-69.500,-76.500
0.411,-117.500,-84.000,-78.500,-85.000
0.412,-124.500,-91.500,-85.500,-91.500
0.413,-129.000,-96.500,-90.500,-96.500
0.414,-132.000,-100.000,-93.500,-100.000
0.415,-133.500,-102.000,-96.500,-102.500
0.416,-135.500,-104.000,-99.000,-105.500
0.417,-138.500,-107.000,-103.000,-109.000
0.418,-141.500,-110.500,-107.000,-113.000
0.419,-145.000,-114.000,-111.000,-117.000
0.420,-146.500,-115.500,-114.000,-119.500
0.421,-147.000,-116.500,-115.500,-121.000
0.422,-148.000,-117.500,-116.500,-122.500
0.423,-150.500,-119.500,-119.500,-125.000
0.424,-155.000,-124.000,-124.000,-130.000
0.425,-162.000,-130.500,-130.500,-136.500
0.426,-170.000,-138.500,-138.000,-144.500
0.427,-178.500,-146.500,-146.000,-152.500
0.428,-187.500,-155.000,-154.500,-160.500
0.429,-195.500,-162.500,-162.000,-168.000
0.430,-201.000,-168.000,-167.500,-173.000
0.431,-204.000,-171.000,-170.000,-176.000
0.432,-204.500,-171.000,-170.500,-176.500
0.433,-202.500,-169.000,-169.000,-175.000
0.434,-200.000,-167.000,-167.000,-173.500
0.435,-198.500,-166.000,-166.500,-173.500
0.436,-199.000,-167.500,-168.000,-175.500
0.437,-201.500,-170.500,-171.000,-179.000
0.438,-205.000,-175.500,-176.000,-184.000
0.439,-209.500,-180.500,-181.000,-189.000
0.440,-213.500,-185.000,-185.500,-194.000
0.441,-216.000,-188.000,-189.000,-197.000
0.442,-215.500,-188.000,-189.000,-197.000
0.443,-212.000,-184.000,-185.500,-193.000
0.444,-206.000,-178.000,-179.500,-187.000
0.445,-201.500,-173.000,-174.500,-182.000
0.446,-202.500,-173.500,-175.500,-182.500
0.447,-212.500,-183.000,-184.500,-191.500
0.448,-231.000,-201.000,-203.000,-210.000
0.449,-255.000,-224.000,-226.000,-233.000
0.450,-277.500,-246.500,-248.500,-255.000
0.451,-294.500,-263.000,-265.000,-271.500
0.452,-304.000,-272.000,-274.500,-281.000
0.453,-307.500,-276.000,-278.500,-285.500
0.454,-307.500,-276.500,-279.500,-286.500
0.455,-306.500,-275.500,-279.000,-286.500
0.456,-304.500,-274.000,-277.500,-285.000
0.457,-301.500,-271.000,-275.500,-283.000
0.458,-298.500,-268.000,-272.500,-280.500
0.459,-295.000,-265.500,-269.500,-277.500
0.460,-293.000,-263.500,-267.500,-276.000
0.461,-292.000,-262.500,-267.000,-275.000
0.462,-292.000,-262.500,-267.000,-275.500
0.463,-293.500,-264.000,-268.000,-276.500
0.464,-295.500,-265.500,-269.500,-277.500
0.465,-297.000,-266.500,-270.000,-278.500
0.466,-298.500,-267.500,-270.500,-279.000
0.467,-299.500,-268.500,-271.000,-279.500
0.468,-300.500,-269.000,-271.500,-280.500
0.469,-302.000,-270.000,-272.500,-281.500
0.470,-302.500,-270.000,-272.500,-282.000
0.471,-301.500,-269.000,-272.000,-281.000
0.472,-299.000,-267.000,-270.000,-279.000
0.473,-296.500,-264.500,-268.000,-276.500
0.474,-295.000,-263.000,-266.500,-275.500
0.475,-295.000,-263.000,-266.500,-275.500
0.476,-296.000,-264.000,-267.500,-276.500
0.477,-297.500,-266.000,-269.000,-278.500
0.478,-299.000,-267.500,-270.500,-279.500
0.479,-300.000,-269.000,-271.500,-281.000
0.480,-301.000,-270.500,-273.500,-282.500
0.481,-302.500,-272.500,-275.000,-284.500
0.482,-303.500,-274.000,-276.500,-286.000
0.483,-303.000,-273.500,-276.000,-285.500
0.484,-301.000,-271.000,-274.000,-283.500
0.485,-298.500,-268.000,-271.000,-280.000
0.486,-297.000,-266.000,-269.000,-278.000
0.487,-298.000,-266.500,-269.500,-278.000
0.488,-301.500,-269.500,-272.500,-281.000
0.489,-306.000,-274.000,-277.000,-285.000
0.490,-311.000,-278.500,-281.000,-289.000
0.491,-314.500,-281.500,-284.500,-292.000
0.492,-316.000,-283.000,-286.000,-293.500
0.493,-316.000,-283.500,-286.000,-293.500
0.494,-315.000,-282.500,-285.500,-293.000
0.495,-313.500,-281.500,-284.500,-291.500
0.496,-311.500,-280.000,-283.500,-291.000
0.497,-310.000,-279.000,-283.000,-290.500
0.498,-309.000,-278.500,-282.500,-290.500
0.499,-308.500,-278.500,-283.000,-291.000
0.500,-307.500,-278.500,-282.500,-291.000
0.501,-306.000,-277.000,-281.500,-290.000
0.502,-302.500,-274.500,-279.000,-287.500
0.503,-298.500,-270.500,-275.000,-283.500
0.504,-293.500,-265.500,-270.000,-278.500
0.505,-288.000,-260.500,-265.000,-273.000
0.506,-283.000,-255.000,-259.500,-267.500
0.507,-278.500,-250.000,-255.000,-262.500
0.508,-276.500,-247.000,-252.000,-259.000
0.509,-277.000,-247.000,-252.000,-258.500
0.510,-281.500,-250.500,-255.500,-262.000
0.511,-288.500,-257.000,-262.000,-268.500
0.512,-296.500,-265.000,-269.500,-276.000
0.513,-303.000,-271.500,-276.500,-283.000
0.514,-308.000,-276.500,-281.000,-288.000
0.515,-312.000,-280.000,-284.500,-292.000
0.516,-314.500,-282.500,-287.000,-295.000
0.517,-316.500,-285.000,-289.000,-297.500
0.518,-317.500,-286.500,-290.500,-299.500
0.519,-317.500,-287.500,-291.500,-300.500
0.520,-316.000,-287.000,-291.000,-300.500
0.521,-314.000,-285.000,-290.000,-299.500
0.522,-311.000,-282.500,-287.000,-296.500
0.523,-307.500,-278.500,-283.000,-292.000
0.524,-302.500,-273.500,-278.000,-287.000
0.525,-298.000,-268.000,-272.500,-281.500
0.526,-293.500,-263.500,-267.500,-276.000
0.527,-290.000,-259.500,-264.000,-272.000
0.528,-287.500,-257.000,-261.000,-269.000
0.529,-286.500,-255.500,-259.500,-267.500
0.530,-287.000,-255.500,-260.000,-267.500
0.531,-289.500,-257.500,-262.000,-269.500
0.532,-293.000,-261.000,-266.000,-273.500
0.533,-296.000,-264.500,-270.000,-277.500
0.534,-298.000,-267.000,-272.000,-279.500
0.535,-297.500,-267.500,-272.000,-280.000
0.536,-296.000,-266.000,-270.500,-278.000
0.537,-293.500,-264.500,-267.500,-275.500
0.538,-292.000,-263.000,-265.500,-273.500
0.539,-293.500,-265.000,-266.500,-275.000
0.540,-298.000,-269.500,-271.500,-280.000
0.541,-304.500,-276.000,-278.500,-287.000
0.542,-311.000,-282.500,-285.500,-293.500
0.543,-315.500,-287.000,-291.000,-299.000
0.544,-319.500,-290.500,-295.000,-303.000
0.545,-323.000,-294.000,-298.500,-306.000
0.546,-326.000,-296.500,-301.000,-308.500
0.547,-327.500,-297.500,-301.500,-309.000
0.548,-327.000,-295.500,-299.500,-307.000
0.549,-323.500,-291.500,-295.000,-303.000
0.550,-318.500,-285.500,-289.500,-297.500
0.551,-312.500,-279.000,-283.500,-291.000
0.552,-307.000,-273.000,-278.000,-285.000
0.553,-302.000,-268.000,-273.500,-281.000
0.554,-299.000,-265.500,-271.500,-278.500
0.555,-298.000,-264.500,-271.000,-278.000
0.556,-298.500,-265.500,-272.500,-279.500
0.557,-300.000,-268.000,-275.000,-282.500
0.558,-303.000,-271.500,-278.500,-286.500
0.559,-306.000,-275.000,-281.500,-290.000
0.560,-307.500,-277.000,-283.500,-292.000
0.561,-308.500,-278.000,-284.000,-293.000
0.562,-309.000,-279.000,-284.500,-293.500
0.563,-310.500,-280.500,-286.000,-295.000
0.564,-313.500,-283.000,-288.500,-297.500
0.565,-317.500,-287.000,-292.000,-300.500
0.566,-321.500,-290.500,-295.000,-303.500
0.567,-324.500,-292.500,-297.000,-305.500
0.568,-325.000,-293.000,-297.000,-305.000
0.569,-324.000,-291.500,-295.500,-303.500
0.570,-321.500,-288.500,-293.000,-300.500
0.571,-319.500,-286.500,-290.500,-297.500
0.572,-318.000,-285.000,-289.500,-296.000
0.573,-317.500,-284.000,-288.500,-295.500
0.574,-316.500,-283.500,-288.000,-295.500
0.575,-314.500,-282.000,-286.500,-294.000
0.576,-312.000,-279.500,-284.000,-292.000
0.577,-308.500,-277.000,-281.000,-289.500
0.578,-305.500,-274.000,-278.500,-287.000
0.579,-304.000,-272.500,-276.500,-285.500
0.580,-304.000,-272.500,-276.500,-285.500
0.581,-306.500,-274.000,-278.500,-288.000
0.582,-311.000,-278.500,-283.000,-293.000
0.583,-316.000,-284.000,-288.500,-298.500
0.584,-321.000,-289.000,-294.000,-303.500
0.585,-324.000,-292.000,-297.000,-306.500
0.586,-325.000,-292.500,-297.500,-307.000
0.587,-324.500,-292.000,-296.500,-305.500
0.588,-323.500,-291.000,-295.000,-304.500
0.589,-324.000,-291.500,-295.000,-304.000
0.590,-325.000,-292.500,-295.500,-304.500
0.591,-325.500,-293.000,-296.000,-305.000
0.592,-324.500,-292.000,-294.000,-303.500
0.593,-321.000,-289.000,-290.500,-300.000
0.594,-316.000,-284.500,-285.500,-295.500
0.595,-312.000,-280.000,-281.500,-291.500
0.596,-309.000,-277.500,-279.000,-289.500
0.597,-308.500,-277.000,-278.500,-290.000
0.598,-309.000,-278.500,-280.000,-291.500
0.599,-310.500,-280.500,-282.000,-294.500
0.600,-311.500,-282.000,-284.000,-296.500
0.601,-311.500,-282.500,-284.500,-297.500
0.602,-309.500,-281.500,-283.500,-296.500
0.603,-307.500,-279.500,-281.500,-294.500
0.604,-307.000,-279.000,-280.500,-294.000
0.605,-309.500,-281.500,-283.000,-296.500
0.606,-316.000,-287.500,-289.000,-302.000
0.607,-324.500,-295.500,-296.500,-309.500
0.608,-332.500,-302.500,-304.000,-316.500
0.609,-338.000,-307.500,-308.500,-321.000
0.610,-340.000,-309.000,-310.500,-322.500
0.611,-338.500,-307.000,-308.500,-320.500
0.612,-333.000,-301.500,-303.000,-315.000
0.613,-325.500,-293.500,-295.500,-307.500
0.614,-317.500,-286.000,-288.000,-300.000
0.615,-312.000,-281.000,-283.000,-295.500
0.616,-308.500,-278.500,-281.000,-293.500
0.617,-307.500,-278.000,-280.500,-293.000
0.618,-307.000,-278.000,-280.000,-293.000
0.619,-306.500,-277.500,-280.000,-293.000
0.620,-306.500,-277.000,-279.500,-293.000
0.621,-308.000,-278.000,-281.000,-294.000
0.622,-310.000,-280.000,-282.500,-296.000
0.623,-311.000,-281.000,-284.000,-297.500
0.624,-311.000,-280.500,-283.500,-297.000
0.625,-309.500,-279.000,-282.500,-295.500
0.626,-309.500,-278.500,-282.000,-295.000
0.627,-313.500,-281.500,-285.000,-297.500
0.628,-320.500,-288.000,-291.000,-303.000
0.629,-329.000,-296.000,-299.000,-310.500
0.630,-336.500,-303.000,-306.000,-317.500
0.631,-341.500,-308.500,-311.500,-322.500
0.632,-344.000,-311.500,-314.000,-325.000
0.633,-344.000,-312.000,-314.500,-326.000
0.634,-342.000,-311.500,-313.500,-325.500
0.635,-340.000,-310.000,-312.000,-324.000
0.636,-338.000,-308.500,-311.000,-323.000
0.637,-337.000,-308.000,-310.500,-322.500
0.638,-337.000,-307.500,-310.000,-322.000
0.639,-337.000,-307.500,-309.500,-322.000
0.640,-337.000,-307.500,-309.500,-322.000
0.641,-337.500,-308.000,-310.000,-322.000
0.642,-338.500,-308.500,-310.500,-323.000
0.643,-338.500,-309.000,-311.000,-323.500
0.644,-338.000,-308.500,-310.000,-322.000
0.645,-335.000,-305.500,-307.500,-319.000
0.646,-330.500,-301.000,-303.000,-314.000
0.647,-325.000,-296.000,-298.000,-308.500
0.648,-320.500,-291.500,-293.500,-304.000
0.649,-318.000,-288.500,-291.000,-301.000
0.650,-318.500,-288.500,-291.000,-301.000
0.651,-322.000,-292.000,-294.500,-304.500
0.652,-328.000,-298.000,-300.500,-310.500
0.653,-334.000,-304.000,-307.000,-317.000
0.654,-337.500,-307.500,-311.000,-321.000
0.655,-336.500,-306.500,-310.000,-320.000
0.656,-330.500,-301.000,-304.000,-314.500
0.657,-323.500,-294.000,-297.000,-307.500
0.658,-319.500,-290.000,-292.000,-303.500
0.659,-320.000,-291.000,-292.000,-304.000
0.660,-324.500,-295.500,-296.500,-308.500
0.661,-330.000,-301.000,-301.500,-314.000
0.662,-334.000,-304.500,-305.500,-318.000
0.663,-335.000,-305.500,-306.500,-318.500
0.664,-334.000,-304.500,-305.000,-317.000
0.665,-331.500,-302.500,-303.000,-315.000
0.666,-330.000,-301.000,-301.000,-313.000
0.667,-330.000,-300.500,-301.000,-312.500
0.668,-332.500,-302.500,-303.000,-314.500
0.669,-337.000,-306.500,-307.500,-318.500
0.670,-342.500,-311.500,-312.500,-324.000
0.671,-347.500,-316.500,-317.500,-329.500
0.672,-350.000,-319.500,-321.000,-332.500
0.673,-350.500,-320.000,-321.500,-333.500
0.674,-348.000,-318.000,-320.000,-332.000
0.675,-344.500,-315.000,-317.000,-329.500
0.676,-340.500,-311.000,-313.500,-326.000
0.677,-337.000,-307.500,-310.000,-323.000
0.678,-334.500,-305.500,-308.000,-321.000
0.679,-334.500,-305.000,-307.500,-320.500
0.680,-336.000,-306.500,-308.000,-321.500
0.681,-338.000,-308.000,-309.500,-323.000
0.682,-338.500,-309.000,-310.000,-323.500
0.683,-337.500,-308.000,-309.000,-322.000
0.684,-334.500,-305.000,-305.500,-318.500
0.685,-329.500,-299.500,-300.500,-313.500
0.686,-323.000,-292.500,-293.500,-306.500
0.687,-315.500,-284.500,-286.000,-299.000
0.688,-308.000,-276.500,-278.500,-292.000
0.689,-302.000,-270.500,-273.000,-286.500
0.690,-299.000,-267.500,-270.500,-284.500
0.691,-300.000,-268.500,-272.000,-286.000
0.692,-304.000,-272.500,-276.500,-290.500
0.693,-310.500,-279.000,-283.500,-298.000
0.694,-319.000,-288.000,-292.000,-307.000
0.695,-329.000,-298.500,-302.500,-317.500
0.696,-339.500,-309.000,-313.000,-328.000
0.697,-348.000,-318.500,-322.000,-337.000
0.698,-354.000,-325.000,-328.000,-343.000
0.699,-356.500,-328.500,-331.000,-346.000
0.700,-356.500,-329.000,-331.500,-346.500
0.701,-354.500,-327.000,-329.000,-344.500
0.702,-351.500,-324.000,-325.000,-341.000
0.703,-347.000,-319.500,-320.000,-336.000
0.704,-342.500,-315.000,-315.000,-331.000
0.705,-338.000,-310.000,-309.500,-326.500
0.706,-333.500,-305.500,-305.500,-322.000
0.707,-329.500,-301.500,-301.500,-318.000
0.708,-326.000,-298.000,-298.000,-314.500
0.709,-323.500,-295.500,-295.500,-311.000
0.710,-322.000,-293.500,-293.500,-309.000
0.711,-322.000,-293.500,-293.000,-309.000
0.712,-323.500,-295.000,-294.500,-310.000
0.713,-325.500,-297.500,-297.000,-313.000
0.714,-328.000,-300.000,-300.500,-316.000
0.715,-330.500,-302.500,-303.000,-319.000
0.716,-332.000,-304.500,-305.000,-321.000
0.717,-332.500,-305.000,-305.500,-321.500
0.718,-331.000,-303.500,-303.500,-319.500
0.719,-327.500,-300.000,-300.000,-315.500
0.720,-323.500,-296.000,-295.500,-311.000
0.721,-320.000,-293.000,-292.000,-308.000
0.722,-319.000,-292.000,-291.000,-307.000
0.723,-320.500,-293.500,-292.500,-308.500
0.724,-324.500,-297.000,-296.500,-312.000
0.725,-329.500,-302.000,-301.000,-316.500
0.726,-333.000,-305.000,-304.500,-320.000
0.727,-334.500,-306.000,-305.500,-320.500
0.728,-334.000,-305.500,-305.000,-320.000
0.729,-334.500,-305.500,-305.000,-319.500
0.730,-337.500,-308.000,-307.500,-322.500
0.731,-343.500,-313.500,-313.000,-328.000
0.732,-350.000,-320.000,-320.000,-335.000
0.733,-355.500,-325.500,-325.500,-341.000
0.734,-358.500,-329.000,-329.500,-345.000
0.735,-360.000,-330.500,-331.000,-347.000
0.736,-359.500,-330.500,-331.000,-347.500
0.737,-358.500,-329.500,-330.500,-347.000
0.738,-357.000,-328.500,-329.500,-346.000
0.739,-355.000,-327.000,-328.000,-345.000
0.740,-353.000,-325.000,-326.000,-343.500
0.741,-350.500,-322.000,-323.000,-341.000
0.742,-346.500,-318.500,-319.000,-337.000
0.743,-342.000,-313.500,-314.500,-332.000
0.744,-337.000,-308.000,-308.500,-326.000
0.745,-331.000,-301.500,-301.500,-319.500
0.746,-325.000,-295.000,-294.500,-312.000
0.747,-318.000,-288.000,-287.000,-305.000
0.748,-312.500,-282.000,-280.500,-298.500
0.749,-309.000,-278.000,-276.500,-294.500
0.750,-309.500,-278.500,-276.500,-295.000
0.751,-314.500,-283.000,-281.000,-299.500
0.752,-323.000,-291.000,-289.000,-307.000
0.753,-332.000,-299.500,-298.000,-316.000
0.754,-340.000,-308.000,-306.000,-324.500
0.755,-346.500,-315.000,-313.500,-332.000
0.756,-351.000,-320.500,-319.500,-338.000
0.757,-354.500,-324.500,-323.500,-342.000
0.758,-356.500,-327.000,-326.500,-345.000
0.759,-357.000,-328.500,-327.500,-346.000
0.760,-357.000,-329.000,-328.000,-346.500
0.761,-356.500,-329.000,-328.000,-346.500
0.762,-355.500,-328.500,-327.500,-346.500
0.763,-355.000,-327.500,-326.500,-345.500
0.764,-353.500,-326.000,-324.500,-344.000
0.765,-351.500,-323.000,-322.000,-341.000
0.766,-348.000,-319.500,-318.000,-337.500
0.767,-344.500,-315.500,-313.500,-333.000
0.768,-341.500,-312.500,-310.000,-329.000
0.769,-340.000,-310.500,-307.500,-327.000
0.770,-340.500,-310.500,-307.000,-326.500
0.771,-341.500,-311.500,-308.000,-327.500
0.772,-343.000,-313.000,-310.000,-329.500
0.773,-345.000,-315.000,-312.500,-332.000
0.774,-346.500,-316.500,-314.000,-334.000
0.775,-346.500,-316.500,-315.000,-334.500
0.776,-345.500,-315.500,-314.000,-334.000
0.777,-343.000,-313.000,-311.500,-332.000
0.778,-340.000,-309.000,-308.000,-329.000
0.779,-336.000,-305.500,-304.000,-326.000
0.780,-333.000,-302.000,-301.000,-323.000
0.781,-330.000,-299.000,-298.500,-321.000
0.782,-328.000,-296.500,-296.500,-319.000
0.783,-326.000,-294.500,-295.000,-317.500
0.784,-324.500,-293.000,-293.000,-316.000
0.785,-323.000,-292.000,-292.000,-315.000
0.786,-323.000,-291.500,-291.000,-314.000
0.787,-323.500,-291.500,-291.500,-314.000
0.788,-326.000,-293.500,-293.500,-316.000
0.789,-330.000,-297.500,-297.500,-319.500
0.790,-335.500,-302.500,-302.500,-324.500
0.791,-340.500,-308.000,-308.000,-330.000
0.792,-344.500,-312.000,-312.000,-333.500
0.793,-346.500,-314.500,-314.500,-336.000
0.794,-348.500,-316.500,-317.000,-338.500
0.795,-350.500,-319.000,-320.000,-341.500
0.796,-352.500,-321.500,-323.500,-344.500
0.797,-354.000,-324.000,-325.500,-347.000
0.798,-353.000,-324.000,-325.500,-346.500
0.799,-350.500,-321.500,-323.000,-344.000
0.800,-346.500,-318.000,-319.000,-340.500
0.801,-342.500,-314.000,-315.000,-336.500
0.802,-340.000,-311.500,-312.000,-334.000
0.803,-340.000,-310.500,-311.500,-333.500
0.804,-341.500,-311.500,-312.000,-334.000
0.805,-344.500,-313.500,-313.500,-335.500
0.806,-347.500,-315.500,-315.500,-337.500
0.807,-350.000,-317.000,-316.500,-338.500
0.808,-350.500,-317.000,-316.500,-338.000
0.809,-349.500,-315.000,-314.500,-336.000
0.810,-347.500,-312.000,-312.000,-333.500
0.811,-345.000,-309.500,-310.000,-331.500
0.812,-343.000,-307.500,-308.500,-330.000
0.813,-340.000,-305.000,-306.000,-327.500
0.814,-334.500,-300.500,-301.500,-323.000
0.815,-327.500,-294.000,-295.500,-317.000
0.816,-320.000,-287.500,-289.000,-311.000
0.817,-315.500,-283.500,-285.000,-308.000
0.818,-316.000,-284.500,-285.500,-309.000
0.819,-320.500,-289.500,-290.500,-314.000
0.820,-327.000,-296.500,-297.500,-321.000
0.821,-333.000,-302.500,-303.500,-327.000
0.822,-336.500,-306.500,-307.500,-331.000
0.823,-337.000,-308.000,-309.000,-332.000
0.824,-336.500,-307.000,-308.500,-331.500
0.825,-335.000,-305.500,-307.000,-329.500
0.826,-333.500,-303.500,-305.000,-327.000
0.827,-332.000,-301.500,-303.000,-324.500
0.828,-330.500,-299.000,-300.500,-321.500
0.829,-329.500,-297.500,-298.500,-319.500
0.830,-330.500,-297.500,-299.000,-319.500
0.831,-334.000,-300.500,-302.000,-322.500
0.832,-340.000,-306.500,-307.500,-328.000
0.833,-346.500,-313.000,-314.000,-334.500
0.834,-351.000,-318.500,-319.500,-339.500
0.835,-354.000,-322.000,-322.000,-342.000
0.836,-354.500,-323.000,-323.000,-343.000
0.837,-353.500,-322.500,-322.500,-342.500
0.838,-352.000,-321.500,-321.000,-341.000
0.839,-350.500,-320.500,-320.000,-340.500
0.840,-349.500,-320.000,-320.000,-340.000
0.841,-349.500,-320.500,-321.000,-341.000
0.842,-350.000,-322.000,-323.000,-343.000
0.843,-351.000,-323.000,-324.500,-344.500
0.844,-351.000,-323.500,-325.000,-345.000
0.845,-350.000,-322.000,-324.000,-344.000
0.846,-347.500,-319.500,-321.500,-341.500
0.847,-344.500,-316.500,-318.000,-338.000
0.848,-342.500,-313.500,-314.500,-334.500
0.849,-341.000,-311.500,-312.500,-332.500
0.850,-341.000,-311.000,-311.500,-332.000
0.851,-342.500,-312.000,-312.500,-333.500
0.852,-344.000,-313.500,-314.500,-335.500
0.853,-344.500,-314.000,-315.000,-336.500
0.854,-343.000,-313.000,-314.000,-335.500
0.855,-339.500,-310.500,-311.000,-332.500
0.856,-335.500,-307.000,-307.000,-329.000
0.857,-331.000,-303.500,-303.000,-325.000
0.858,-327.000,-299.500,-299.000,-321.000
0.859,-323.000,-296.000,-295.000,-317.000
0.860,-319.500,-292.500,-291.500,-313.500
0.861,-317.000,-289.500,-288.500,-310.500
0.862,-315.500,-287.000,-286.500,-308.500
0.863,-314.500,-285.500,-285.000,-307.000
0.864,-313.500,-284.000,-283.500,-306.000
0.865,-312.500,-282.500,-282.000,-304.000
0.866,-311.000,-281.000,-280.000,-301.500
0.867,-309.000,-279.000,-278.000,-299.000
0.868,-306.500,-276.500,-275.000,-296.000
0.869,-303.500,-273.500,-271.500,-292.000
0.870,-300.000,-269.500,-267.000,-287.500
0.871,-296.000,-265.500,-263.000,-283.000
0.872,-293.500,-263.000,-260.000,-280.500
0.873,-293.500,-262.500,-260.000,-280.500
0.874,-295.000,-264.500,-262.500,-282.500
0.875,-296.500,-266.500,-265.000,-285.000
0.876,-298.000,-268.500,-267.500,-287.500
0.877,-299.000,-270.000,-269.000,-289.500
0.878,-299.000,-270.500,-270.000,-290.500
0.879,-299.000,-271.000,-271.000,-291.000
0.880,-299.500,-272.500,-272.000,-292.000
0.881,-301.500,-274.500,-274.000,-294.500
0.882,-304.500,-277.500,-277.500,-297.500
0.883,-307.500,-280.500,-280.500,-301.000
0.884,-310.000,-282.500,-282.500,-303.000
0.885,-310.500,-283.000,-283.000,-303.500
0.886,-310.500,-282.000,-282.000,-302.500
0.887,-309.500,-281.000,-280.000,-300.500
0.888,-308.500,-279.000,-277.500,-298.000
0.889,-305.500,-275.500,-273.000,-293.500
0.890,-300.000,-269.500,-266.500,-286.500
0.891,-292.000,-261.500,-258.000,-278.000
0.892,-284.000,-253.500,-249.500,-270.000
0.893,-279.500,-248.500,-245.000,-265.500
0.894,-280.500,-249.500,-246.000,-267.000
0.895,-287.000,-256.500,-253.500,-274.500
0.896,-297.500,-267.000,-264.500,-286.000
0.897,-308.000,-278.000,-276.000,-298.000
0.898,-317.000,-287.500,-285.000,-307.500
0.899,-323.000,-294.000,-292.000,-314.500
0.900,-326.000,-298.000,-296.000,-318.000
0.901,-326.500,-298.500,-296.500,-319.000
0.902,-324.000,-297.000,-295.000,-317.000
0.903,-321.500,-294.500,-293.000,-315.000
0.904,-319.500,-292.500,-291.000,-312.500
0.905,-318.500,-291.500,-290.000,-311.500
0.906,-319.000,-291.500,-289.500,-310.500
0.907,-319.500,-292.000,-290.000,-310.500
0.908,-321.000,-292.500,-290.000,-311.000
0.909,-321.500,-293.000,-290.500,-311.000
0.910,-322.000,-292.500,-290.000,-310.500
0.911,-321.500,-291.500,-289.000,-310.000
0.912,-320.000,-290.000,-287.500,-308.000
0.913,-317.000,-287.000,-284.500,-305.500
0.914,-313.000,-283.000,-280.000,-301.000
0.915,-307.000,-277.000,-274.000,-295.000
0.916,-299.500,-270.000,-267.000,-287.500
0.917,-292.500,-263.500,-260.000,-281.000
0.918,-288.500,-259.500,-256.500,-277.500
0.919,-290.000,-261.500,-258.500,-280.000
0.920,-299.000,-271.000,-268.000,-289.500
0.921,-314.000,-286.500,-283.000,-304.500
0.922,-330.500,-303.500,-299.500,-321.500
0.923,-345.500,-318.500,-314.000,-336.000
0.924,-356.500,-329.000,-324.000,-346.000
0.925,-363.500,-336.000,-330.500,-352.500
0.926,-368.000,-340.000,-334.500,-356.000
0.927,-370.500,-342.000,-336.000,-357.500
0.928,-371.000,-342.000,-336.000,-357.500
0.929,-371.500,-341.500,-335.500,-357.000
0.930,-371.000,-341.000,-335.000,-357.000
0.931,-370.500,-339.500,-334.000,-356.000
0.932,-368.500,-337.500,-332.500,-354.000
0.933,-366.000,-334.500,-330.000,-351.500
0.934,-362.500,-330.500,-327.000,-348.500
0.935,-359.000,-327.500,-324.500,-346.000
0.936,-356.000,-325.000,-322.000,-343.500
0.937,-354.000,-323.000,-320.000,-342.000
0.938,-352.500,-322.000,-319.000,-341.000
0.939,-352.000,-322.000,-319.000,-341.500
0.940,-352.000,-323.000,-319.500,-342.500
0.941,-353.000,-324.500,-320.500,-343.500
0.942,-353.000,-325.000,-321.000,-344.000
0.943,-352.500,-324.500,-320.000,-343.500
0.944,-350.500,-323.000,-318.000,-341.500
0.945,-348.000,-320.500,-315.500,-338.500
0.946,-345.000,-317.500,-312.500,-335.500
0.947,-342.500,-315.000,-309.500,-332.000
0.948,-340.500,-312.500,-307.000,-329.000
0.949,-338.500,-310.500,-305.000,-326.500
0.950,-337.000,-308.500,-303.500,-324.000
0.951,-335.500,-307.500,-302.500,-322.500
0.952,-334.500,-306.500,-301.500,-321.500
0.953,-332.500,-305.000,-300.500,-320.000
0.954,-329.500,-302.500,-298.000,-317.500
0.955,-326.000,-299.500,-295.000,-314.500
0.956,-323.500,-297.000,-293.500,-313.000
0.957,-324.000,-297.500,-294.500,-314.000
0.958,-327.500,-301.000,-298.500,-318.000
0.959,-334.000,-307.000,-305.500,-325.000
0.960,-341.500,-314.500,-313.500,-333.000
0.961,-348.500,-321.500,-321.000,-340.500
0.962,-353.500,-326.500,-326.000,-346.000
0.963,-355.500,-329.000,-329.000,-349.000
0.964,-355.500,-329.000,-328.500,-349.500
0.965,-354.000,-327.500,-327.000,-348.000
0.966,-353.000,-326.500,-325.500,-346.500
0.967,-354.500,-327.500,-326.500,-348.000
0.968,-360.500,-333.000,-332.000,-353.000
0.969,-370.000,-342.000,-340.500,-362.000
0.970,-381.500,-353.500,-352.000,-373.000
0.971,-394.000,-365.500,-363.500,-385.000
0.972,-405.000,-376.000,-374.000,-395.500
0.973,-412.500,-383.500,-381.500,-403.000
0.974,-415.500,-387.000,-384.500,-406.000
0.975,-413.500,-385.000,-382.500,-404.500
0.976,-406.000,-378.000,-375.500,-397.000
0.977,-393.000,-365.500,-362.500,-384.500
0.978,-375.500,-348.000,-344.500,-367.000
0.979,-354.000,-327.000,-323.000,-345.000
0.980,-330.000,-303.000,-298.500,-320.500
0.981,-304.500,-277.500,-272.000,-294.000
0.982,-277.000,-250.000,-244.000,-266.000
0.983,-248.000,-221.000,-214.500,-236.000
0.984,-218.500,-191.000,-184.000,-205.000
0.985,-187.500,-159.500,-152.500,-172.500
0.986,-155.000,-126.500,-119.000,-138.000
0.987,-120.000,-90.500,-83.000,-100.500
0.988,-81.500,-51.000,-43.000,-60.000
0.989,-40.500,-9.000,0.000,-16.000
0.990,2.500,35.500,45.000,29.500
0.991,47.000,80.500,92.000,77.000
0.992,92.500,127.000,139.500,124.500
0.993,138.000,173.000,186.500,172.000
0.994,182.500,218.000,231.500,218.000
0.995,225.500,261.500,275.000,262.000
0.996,267.500,303.500,317.000,304.000
0.997,307.500,343.500,357.000,344.500
0.998,343.500,380.000,393.500,380.500
0.999,372.000,409.000,422.500,409.000
1.000,388.500,425.000,438.500,425.000
1.001,388.500,425.500,438.500,424.000
1.002,369.500,407.000,419.000,404.000
1.003,333.000,370.000,381.500,365.500
1.004,281.000,318.000,328.000,311.500
1.005,219.500,256.000,265.500,248.500
1.006,157.000,193.000,201.000,183.500
1.007,99.000,134.000,141.500,123.500
1.008,46.500,81.500,88.000,70.000
1.009,-1.500,33.000,38.500,20.500
1.010,-48.500,-14.500,-9.500,-28.000
1.011,-94.500,-60.000,-56.000,-74.000
1.012,-137.000,-102.500,-99.000,-117.000
1.013,-173.500,-139.500,-136.500,-154.500
1.014,-205.000,-171.500,-168.500,-187.000
1.015,-230.500,-198.000,-195.500,-214.000
1.016,-252.500,-221.000,-218.500,-237.500
1.017,-271.000,-240.500,-238.000,-257.500
1.018,-286.500,-257.000,-254.500,-274.000
1.019,-298.500,-269.500,-267.500,-287.000
1.020,-307.000,-278.500,-276.500,-296.500
1.021,-313.500,-285.500,-283.500,-303.500
1.022,-319.000,-291.000,-289.500,-309.500
1.023,-323.500,-295.000,-294.000,-313.500
1.024,-325.500,-297.000,-295.500,-315.000
1.025,-324.000,-295.500,-293.500,-313.000
1.026,-321.500,-292.000,-289.500,-309.000
1.027,-318.500,-288.500,-285.500,-305.000
1.028,-316.500,-286.000,-283.000,-302.500
1.029,-317.000,-286.500,-283.000,-302.500
1.030,-320.000,-289.500,-286.000,-305.000
1.031,-324.500,-294.000,-290.000,-309.000
1.032,-328.500,-298.000,-294.000,-313.500
1.033,-331.000,-301.000,-297.500,-316.500
1.034,-332.000,-302.500,-298.500,-318.000
1.035,-331.000,-302.000,-298.500,-318.500
1.036,-329.500,-301.500,-298.500,-318.000
1.037,-328.000,-301.000,-298.500,-318.000
1.038,-327.500,-301.000,-299.000,-319.000
1.039,-328.000,-302.000,-300.500,-320.500
1.040,-329.500,-304.000,-303.000,-322.500
1.041,-333.000,-307.000,-306.500,-326.000
1.042,-336.500,-311.000,-310.000,-329.500
1.043,-338.500,-313.000,-312.500,-331.500
1.044,-337.500,-312.000,-311.000,-330.500
1.045,-333.500,-308.000,-307.000,-326.000
1.046,-328.000,-302.000,-300.500,-320.000
1.047,-323.500,-296.500,-294.500,-314.000
1.048,-320.500,-293.000,-290.500,-310.000
1.049,-319.500,-292.000,-289.500,-308.500
1.050,-321.500,-293.500,-291.000,-310.000
1.051,-325.000,-297.000,-294.500,-313.500
1.052,-330.000,-301.500,-300.000,-318.500
1.053,-335.000,-306.500,-305.000,-323.500
1.054,-338.000,-309.500,-308.000,-326.500
1.055,-338.500,-310.000,-308.500,-327.000
1.056,-335.500,-307.500,-305.500,-324.500
1.057,-329.000,-301.500,-299.500,-318.500
1.058,-320.500,-294.000,-291.500,-310.500
1.059,-311.500,-285.500,-283.500,-302.500
1.060,-304.000,-278.500,-276.500,-295.500
1.061,-299.000,-274.500,-272.500,-291.500
1.062,-299.000,-274.500,-272.000,-291.500
1.063,-303.000,-278.000,-275.500,-295.000
1.064,-309.500,-284.500,-281.500,-301.500
1.065,-317.500,-292.000,-289.000,-308.500
1.066,-324.000,-299.000,-296.000,-315.000
1.067,-329.000,-304.000,-301.000,-320.000
1.068,-331.000,-305.500,-303.000,-321.000
1.069,-329.500,-303.500,-301.500,-319.500
1.070,-326.500,-300.000,-298.000,-315.500
1.071,-323.500,-296.000,-294.500,-311.500
1.072,-322.000,-294.000,-293.000,-309.500
1.073,-322.500,-294.500,-293.500,-310.000
1.074,-325.000,-297.500,-296.500,-313.500
1.075,-329.500,-302.000,-301.500,-318.500
1.076,-334.500,-307.500,-307.500,-324.500
1.077,-339.000,-313.000,-312.500,-330.000
1.078,-343.000,-317.500,-317.500,-335.000
1.079,-347.500,-322.000,-321.500,-339.500
1.080,-351.000,-325.500,-325.000,-343.500
1.081,-352.000,-326.500,-326.000,-345.000
1.082,-350.000,-324.500,-323.500,-343.000
1.083,-345.500,-320.000,-319.000,-338.500
1.084,-340.500,-315.000,-314.000,-333.500
1.085,-338.000,-311.500,-310.500,-330.000
1.086,-337.500,-310.500,-309.000,-329.000
1.087,-338.500,-311.000,-309.500,-329.000
1.088,-339.500,-311.500,-310.000,-328.500
1.089,-340.000,-311.500,-309.000,-328.000
1.090,-339.500,-311.000,-308.500,-326.500
1.091,-340.000,-311.000,-308.500,-325.500
1.092,-341.000,-313.000,-309.500,-326.000
1.093,-342.500,-315.000,-311.000,-327.000
1.094,-343.000,-317.000,-312.500,-328.500
1.095,-342.500,-318.500,-313.500,-329.000
1.096,-341.000,-318.500,-313.500,-329.000
1.097,-339.500,-317.500,-313.500,-329.500
1.098,-338.000,-316.500,-313.500,-329.500
1.099,-336.500,-315.500,-313.000,-329.500
1.100,-334.500,-313.500,-312.500,-329.000
1.101,-332.000,-310.500,-310.500,-327.500
1.102,-328.500,-307.500,-308.000,-325.000
1.103,-325.000,-303.500,-304.500,-322.500
1.104,-321.500,-299.500,-301.500,-319.500
1.105,-318.500,-296.500,-298.500,-317.000
1.106,-317.500,-294.500,-296.500,-315.500
1.107,-318.000,-294.000,-296.000,-315.000
1.108,-319.000,-293.500,-295.500,-315.000
1.109,-319.500,-292.500,-294.500,-313.500
1.110,-318.500,-290.500,-292.500,-311.500
1.111,-316.500,-288.000,-289.500,-308.000
1.112,-313.500,-285.000,-286.500,-304.500
1.113,-312.000,-283.500,-285.000,-303.000
1.114,-312.500,-284.500,-286.000,-303.500
1.115,-315.000,-287.500,-288.500,-306.000
1.116,-318.000,-290.500,-291.000,-308.500
1.117,-320.000,-293.000,-293.000,-311.000
1.118,-321.000,-294.000,-294.500,-312.500
1.119,-321.500,-295.000,-295.000,-313.500
1.120,-321.500,-295.500,-295.500,-314.500
1.121,-322.000,-296.000,-296.000,-315.000
1.122,-322.000,-296.500,-296.500,-316.000
1.123,-322.500,-297.000,-296.500,-316.000
1.124,-322.000,-296.000,-295.500,-315.000
1.125,-320.500,-294.500,-294.500,-313.500
1.126,-319.000,-292.500,-292.500,-311.000
1.127,-318.000,-291.000,-291.000,-309.000
1.128,-317.500,-290.000,-290.000,-308.000
1.129,-316.500,-289.000,-289.500,-306.500
1.130,-315.500,-288.500,-289.000,-305.000
1.131,-315.000,-288.000,-288.500,-304.500
1.132,-316.000,-289.000,-289.500,-305.500
1.133,-318.500,-291.500,-292.000,-308.000
1.134,-321.000,-294.500,-295.000,-311.000
1.135,-323.000,-297.500,-297.500,-314.000
1.136,-323.500,-298.500,-298.500,-315.000
1.137,-322.000,-297.500,-297.500,-314.000
1.138,-319.000,-294.500,-294.000,-311.000
1.139,-314.500,-290.000,-289.000,-306.000
1.140,-309.000,-285.000,-284.000,-300.500
1.141,-304.000,-280.000,-278.500,-295.500
1.142,-299.500,-275.000,-273.500,-290.500
1.143,-295.000,-271.500,-269.500,-286.500
1.144,-292.000,-268.000,-266.000,-283.500
1.145,-289.500,-265.500,-263.000,-280.500
1.146,-286.500,-262.500,-259.500,-277.000
1.147,-283.500,-258.000,-255.000,-272.500
1.148,-279.000,-253.000,-250.000,-267.000
1.149,-274.500,-248.000,-244.500,-261.500
1.150,-270.500,-243.500,-240.000,-257.000
1.151,-269.500,-241.500,-238.500,-255.500
1.152,-271.500,-244.000,-241.000,-258.000
1.153,-277.500,-250.000,-247.500,-264.500
1.154,-286.000,-258.500,-256.000,-273.500
1.155,-294.000,-267.000,-264.500,-282.000
1.156,-300.000,-273.500,-270.500,-288.000
1.157,-302.500,-276.000,-273.500,-291.000
1.158,-301.000,-275.000,-272.500,-290.000
1.159,-297.500,-272.000,-270.000,-287.500
1.160,-295.000,-270.500,-268.500,-286.500
1.161,-296.000,-271.500,-270.500,-288.000
1.162,-299.500,-276.000,-275.000,-292.500
1.163,-305.000,-281.500,-281.500,-298.500
1.164,-310.500,-286.500,-286.500,-303.500
1.165,-313.500,-289.000,-288.500,-305.500
1.166,-312.500,-287.500,-287.000,-303.500
1.167,-308.000,-282.500,-281.000,-297.500
1.168,-301.000,-275.000,-273.000,-289.500
1.169,-294.000,-267.500,-264.500,-281.000
1.170,-289.000,-261.500,-258.500,-275.000
1.171,-287.500,-260.000,-257.000,-273.000
1.172,-291.000,-263.000,-260.000,-276.500
1.173,-297.500,-270.000,-267.000,-283.500
1.174,-304.500,-277.500,-274.500,-291.500
1.175,-309.000,-282.000,-280.000,-296.500
1.176,-309.500,-283.000,-281.500,-298.000
1.177,-307.000,-281.000,-279.500,-296.000
1.178,-303.000,-277.500,-276.000,-292.500
1.179,-299.000,-273.500,-272.000,-288.500
1.180,-294.500,-269.500,-268.000,-284.500
1.181,-290.500,-266.000,-264.500,-280.500
1.182,-286.000,-261.500,-260.000,-276.000
1.183,-281.500,-257.000,-255.000,-271.000
1.184,-276.500,-251.500,-250.000,-266.000
1.185,-271.500,-246.000,-244.500,-260.500
1.186,-267.000,-241.000,-239.500,-255.000
1.187,-263.000,-237.000,-236.000,-251.000
1.188,-261.000,-235.000,-234.000,-249.000
1.189,-261.500,-235.000,-235.000,-249.000
1.190,-264.000,-237.500,-238.000,-252.000
1.191,-266.500,-240.500,-241.000,-255.000
1.192,-267.000,-241.500,-242.000,-256.000
1.193,-265.500,-240.000,-240.500,-254.500
1.194,-263.000,-238.000,-238.000,-252.000
1.195,-262.000,-237.000,-236.000,-250.500
1.196,-262.500,-237.500,-236.500,-251.000
1.197,-263.500,-238.500,-237.000,-252.000
1.198,-262.500,-238.000,-236.000,-251.000
1.199,-259.500,-234.500,-233.000,-248.500
1.200,-254.500,-230.000,-228.000,-244.000
1.201,-250.000,-225.500,-223.500,-240.000
1.202,-247.500,-223.000,-221.000,-237.500
1.203,-246.500,-222.500,-220.000,-237.000
1.204,-246.500,-222.000,-219.000,-236.500
1.205,-245.500,-221.500,-217.500,-235.000
1.206,-244.000,-219.000,-215.000,-232.000
1.207,-240.500,-215.500,-211.000,-228.000
1.208,-237.000,-211.500,-206.500,-223.500
1.209,-232.500,-207.000,-202.000,-218.500
1.210,-228.000,-202.500,-197.500,-213.000
1.211,-223.500,-197.500,-193.000,-208.000
1.212,-220.000,-193.500,-189.000,-204.000
1.213,-217.500,-191.500,-187.000,-202.000
1.214,-217.500,-191.000,-187.000,-201.500
1.215,-217.500,-191.000,-187.500,-202.000
1.216,-215.500,-190.000,-186.500,-201.500
1.217,-211.500,-186.000,-183.000,-198.000
1.218,-204.500,-179.500,-176.500,-192.500
1.219,-196.500,-172.000,-169.500,-185.500
1.220,-188.000,-164.500,-162.000,-179.000
1.221,-181.000,-158.000,-155.500,-172.500
1.222,-175.500,-153.000,-149.500,-167.000
1.223,-170.000,-148.000,-144.500,-162.000
1.224,-165.000,-143.000,-139.000,-156.500
1.225,-160.500,-138.000,-134.500,-151.500
1.226,-158.500,-135.000,-131.500,-148.500
1.227,-159.500,-135.000,-131.500,-148.000
1.228,-164.500,-138.000,-135.000,-151.000
1.229,-171.500,-144.000,-140.500,-156.500
1.230,-179.000,-150.500,-147.500,-163.000
1.231,-185.500,-155.500,-153.000,-168.500
1.232,-188.500,-158.500,-155.500,-171.000
1.233,-188.000,-158.000,-155.500,-170.500
1.234,-184.500,-155.000,-152.000,-167.500
1.235,-180.000,-151.000,-147.500,-163.000
1.236,-175.500,-146.500,-143.000,-159.000
1.237,-170.500,-142.000,-137.500,-154.500
1.238,-165.000,-137.000,-132.500,-149.500
1.239,-159.000,-131.000,-126.500,-144.000
1.240,-151.500,-124.500,-119.500,-137.500
1.241,-143.500,-117.000,-111.000,-129.500
1.242,-134.500,-108.000,-102.000,-120.500
1.243,-125.000,-98.500,-92.000,-110.500
1.244,-114.500,-88.000,-81.500,-99.500
1.245,-106.000,-79.000,-72.500,-90.500
1.246,-101.000,-73.000,-67.000,-84.500
1.247,-101.000,-72.500,-67.000,-84.000
1.248,-106.500,-76.500,-72.000,-89.000
1.249,-115.000,-84.500,-80.000,-97.000
1.250,-123.000,-92.000,-88.000,-105.000
1.251,-129.000,-98.000,-93.500,-110.500
1.252,-130.500,-99.500,-95.500,-112.500
1.253,-127.500,-97.500,-93.000,-110.500
1.254,-122.500,-93.000,-89.000,-106.000
1.255,-118.000,-88.500,-85.000,-102.500
1.256,-115.000,-86.500,-83.000,-101.000
1.257,-114.000,-86.000,-83.000,-101.000
1.258,-113.500,-85.500,-83.500,-101.500
1.259,-112.000,-84.500,-83.000,-101.000
1.260,-110.000,-82.000,-80.500,-98.500
1.261,-106.500,-78.500,-77.500,-95.000
1.262,-102.000,-74.000,-73.000,-90.500
1.263,-97.000,-69.000,-67.500,-84.500
1.264,-91.500,-63.000,-61.500,-78.500
1.265,-87.000,-58.500,-56.500,-73.500
1.266,-85.500,-56.500,-54.000,-71.000
1.267,-87.000,-57.000,-54.500,-71.500
1.268,-90.500,-60.000,-57.000,-74.000
1.269,-94.500,-63.500,-60.000,-76.500
1.270,-97.500,-65.500,-62.500,-78.500
1.271,-98.500,-66.500,-63.500,-79.500
1.272,-98.500,-66.500,-63.500,-79.500
1.273,-98.000,-66.500,-63.500,-79.500
1.274,-99.000,-67.500,-65.000,-81.000
1.275,-102.500,-72.000,-69.000,-86.000
1.276,-109.500,-80.000,-77.500,-94.000
1.277,-120.000,-90.500,-88.500,-105.500
1.278,-131.000,-102.500,-101.000,-118.000
1.279,-141.000,-113.500,-112.000,-129.500
1.280,-149.000,-122.000,-120.500,-138.000
1.281,-154.500,-128.000,-126.000,-144.000
1.282,-158.000,-131.500,-129.500,-147.000
1.283,-160.500,-133.500,-132.000,-149.500
1.284,-163.500,-136.500,-134.500,-151.500
1.285,-167.500,-140.000,-138.000,-155.000
1.286,-173.000,-145.500,-143.000,-160.000
1.287,-180.500,-152.000,-149.500,-167.000
1.288,-189.000,-160.000,-157.500,-175.000
1.289,-198.000,-169.000,-166.500,-183.500
1.290,-206.500,-177.500,-175.000,-192.000
1.291,-212.500,-183.500,-181.500,-198.500
1.292,-216.000,-187.000,-185.500,-202.000
1.293,-217.000,-188.500,-187.000,-203.500
1.294,-217.500,-189.000,-187.500,-204.500
1.295,-218.500,-191.000,-190.000,-206.500
1.296,-222.000,-195.000,-194.500,-212.000
1.297,-228.000,-202.000,-202.500,-219.500
1.298,-235.000,-209.500,-210.500,-228.000
1.299,-241.000,-216.000,-217.500,-235.000
1.300,-244.500,-220.500,-222.000,-240.000
1.301,-247.000,-223.000,-224.500,-242.500
1.302,-248.500,-225.000,-226.500,-245.000
1.303,-250.500,-227.500,-229.000,-247.000
1.304,-253.500,-230.000,-231.500,-249.500
1.305,-256.500,-232.000,-233.500,-251.500
1.306,-259.000,-234.000,-235.000,-253.000
1.307,-261.000,-235.500,-236.000,-253.500
1.308,-262.500,-236.500,-236.500,-254.000
1.309,-264.500,-238.000,-238.000,-255.500
1.310,-268.000,-241.000,-240.500,-258.500
1.311,-273.000,-246.000,-245.500,-263.500
1.312,-279.500,-252.000,-251.500,-269.500
1.313,-285.500,-258.000,-257.500,-276.000
1.314,-291.000,-263.500,-263.000,-282.000
1.315,-296.500,-268.500,-269.000,-288.000
1.316,-302.500,-275.000,-276.000,-295.500
1.317,-309.000,-282.000,-284.000,-303.500
1.318,-314.500,-288.500,-291.000,-310.500
1.319,-318.000,-293.500,-296.000,-315.500
1.320,-320.000,-296.000,-299.000,-318.000
1.321,-320.000,-297.000,-300.000,-318.500
1.322,-319.000,-296.500,-299.000,-317.500
1.323,-316.500,-294.000,-297.000,-315.000
1.324,-313.000,-290.500,-293.000,-311.000
1.325,-308.000,-285.500,-288.000,-306.000
1.326,-303.000,-280.000,-282.500,-300.500
1.327,-299.500,-275.500,-278.000,-296.000
1.328,-298.000,-272.500,-275.000,-293.500
1.329,-298.500,-271.500,-274.000,-293.000
1.330,-300.500,-272.500,-275.000,-294.000
1.331,-302.500,-275.000,-277.500,-296.500
1.332,-306.000,-277.500,-280.500,-299.500
1.333,-310.500,-282.000,-285.000,-304.500
1.334,-317.000,-289.000,-292.000,-311.500
1.335,-325.000,-296.500,-299.500,-319.500
1.336,-331.000,-303.000,-306.000,-326.000
1.337,-334.500,-306.000,-309.000,-329.500
1.338,-335.000,-307.500,-310.500,-331.000
1.339,-336.000,-308.500,-311.500,-332.500
1.340,-338.000,-311.500,-314.500,-335.500
1.341,-342.000,-315.500,-318.000,-340.000
1.342,-346.000,-319.500,-322.000,-344.000
1.343,-349.000,-323.000,-325.500,-347.000
1.344,-351.500,-325.500,-327.500,-349.000
1.345,-353.000,-327.000,-329.000,-350.500
1.346,-353.500,-328.000,-329.500,-351.000
1.347,-353.000,-327.500,-329.000,-350.500
1.348,-351.500,-326.000,-327.500,-348.500
1.349,-348.500,-323.000,-324.500,-345.500
1.350,-345.000,-319.000,-320.500,-341.500
1.351,-341.000,-315.000,-316.500,-336.500
1.352,-336.500,-310.500,-312.000,-332.000
1.353,-333.000,-306.500,-308.000,-328.500
1.354,-331.000,-304.500,-306.500,-327.000
1.355,-331.000,-304.500,-306.500,-327.500
1.356,-332.500,-306.500,-309.000,-329.500
1.357,-336.000,-309.500,-312.500,-333.500
1.358,-339.500,-313.000,-316.000,-337.000
1.359,-341.000,-314.500,-318.000,-339.000
1.360,-339.000,-312.500,-316.000,-337.000
1.361,-333.000,-307.000,-310.000,-331.000
1.362,-325.500,-299.500,-302.500,-323.500
1.363,-319.500,-294.000,-297.000,-318.000
1.364,-318.500,-292.500,-295.500,-316.500
1.365,-321.500,-295.500,-298.000,-319.000
1.366,-327.000,-301.000,-303.000,-323.500
1.367,-333.500,-307.000,-309.500,-329.500
1.368,-340.000,-313.000,-316.000,-335.500
1.369,-346.000,-319.000,-322.000,-341.000
1.370,-351.500,-323.500,-327.500,-346.000
1.371,-355.500,-327.500,-331.500,-350.000
1.372,-357.000,-329.000,-334.000,-352.000
1.373,-356.500,-328.500,-333.500,-351.500
1.374,-354.500,-326.500,-331.500,-350.000
1.375,-352.500,-324.500,-329.500,-348.000
1.376,-351.000,-323.500,-328.000,-347.000
1.377,-350.000,-322.500,-327.000,-346.000
1.378,-348.500,-322.000,-326.500,-345.500
1.379,-347.500,-321.000,-325.500,-345.000
1.380,-346.500,-320.000,-324.500,-344.500
1.381,-346.000,-320.000,-324.000,-344.500
1.382,-346.000,-320.500,-324.500,-345.500
1.383,-347.000,-321.000,-325.000,-346.000
1.384,-347.500,-322.000,-325.000,-346.500
1.385,-347.000,-321.500,-324.000,-345.500
1.386,-345.000,-319.500,-322.000,-343.000
1.387,-343.000,-317.500,-319.500,-340.000
1.388,-342.000,-316.500,-318.500,-339.000
1.389,-343.000,-317.500,-320.000,-340.000
1.390,-346.000,-320.000,-323.000,-343.000
1.391,-349.000,-322.500,-326.000,-346.000
1.392,-351.500,-325.000,-329.000,-348.500
1.393,-353.500,-326.500,-331.000,-350.500
1.394,-354.500,-328.000,-332.500,-352.000
1.395,-355.000,-329.000,-333.500,-353.000
1.396,-355.500,-329.500,-334.000,-354.000
1.397,-355.500,-330.000,-334.500,-354.500
1.398,-354.500,-329.000,-333.500,-353.500
1.399,-352.500,-327.000,-331.000,-351.500
1.400,-349.000,-324.000,-328.000,-348.500
1.401,-345.500,-321.000,-324.500,-345.000
1.402,-342.000,-317.500,-321.000,-342.000
1.403,-339.000,-315.000,-318.000,-339.000
1.404,-337.000,-313.000,-315.500,-337.000
1.405,-336.000,-312.000,-314.500,-335.500
1.406,-337.000,-312.000,-315.000,-335.500
1.407,-337.500,-312.000,-315.000,-336.000
1.408,-338.000,-311.500,-314.500,-335.000
1.409,-336.500,-309.500,-312.500,-332.500
1.410,-334.000,-307.000,-309.500,-329.000
1.411,-332.500,-304.500,-307.000,-326.500
1.412,-332.500,-304.500,-307.000,-326.500
1.413,-335.000,-306.500,-309.000,-328.500
1.414,-339.000,-310.500,-313.500,-332.500
1.415,-343.000,-314.500,-318.000,-337.500
1.416,-345.500,-318.000,-321.500,-341.500
1.417,-346.000,-319.000,-323.000,-343.000
1.418,-344.500,-318.000,-322.000,-342.500
1.419,-341.000,-315.000,-319.500,-340.000
1.420,-336.500,-311.000,-315.500,-336.000
1.421,-331.500,-306.000,-311.000,-331.500
1.422,-326.000,-301.000,-306.000,-326.500
1.423,-321.000,-296.500,-302.000,-322.500
1.424,-318.000,-293.000,-299.500,-319.500
1.425,-316.500,-291.500,-298.500,-318.000
1.426,-317.500,-292.000,-299.000,-319.000
1.427,-322.000,-296.000,-303.000,-322.500
1.428,-329.500,-302.500,-309.500,-329.000
1.429,-340.000,-312.000,-318.500,-337.500
1.430,-350.500,-322.000,-328.000,-347.000
1.431,-360.000,-331.000,-336.500,-356.000
1.432,-366.500,-337.500,-343.000,-362.500
1.433,-370.000,-341.500,-346.500,-366.000
1.434,-370.000,-342.000,-347.000,-366.500
1.435,-367.500,-340.000,-345.000,-364.500
1.436,-363.500,-337.000,-342.000,-361.500
1.437,-359.000,-333.000,-338.500,-357.500
1.438,-354.500,-329.500,-334.500,-354.000
1.439,-350.500,-326.000,-331.500,-351.500
1.440,-348.000,-324.000,-329.500,-349.500
1.441,-347.000,-322.500,-328.500,-348.500
1.442,-346.000,-321.500,-328.000,-348.000
1.443,-344.500,-320.500,-327.000,-347.000
1.444,-343.000,-318.500,-325.000,-345.500
1.445,-340.500,-316.000,-322.500,-342.500
1.446,-338.500,-313.500,-320.000,-339.500
1.447,-337.000,-312.000,-318.000,-337.500
1.448,-337.000,-311.500,-317.000,-336.500
1.449,-338.500,-312.000,-317.500,-337.000
1.450,-340.500,-313.500,-319.000,-338.000
1.451,-342.000,-314.500,-320.000,-339.000
1.452,-342.000,-314.500,-320.500,-339.500
1.453,-341.500,-314.000,-320.000,-339.000
1.454,-341.000,-313.500,-319.000,-338.500
1.455,-340.500,-313.500,-319.000,-339.000
1.456,-340.500,-313.500,-319.000,-339.500
1.457,-340.500,-314.000,-319.500,-339.500
1.458,-339.500,-313.500,-318.500,-339.500
1.459,-338.000,-312.500,-318.000,-338.500
1.460,-337.500,-312.500,-318.000,-339.000
1.461,-338.500,-313.500,-319.000,-340.500
1.462,-340.500,-316.000,-321.500,-343.000
1.463,-343.500,-319.000,-324.500,-346.000
1.464,-345.500,-321.000,-326.500,-347.500
1.465,-346.000,-321.500,-327.500,-348.000
1.466,-346.000,-321.500,-327.000,-347.500
1.467,-346.500,-321.500,-327.500,-347.500
1.468,-348.000,-323.000,-329.000,-348.500
1.469,-350.500,-325.500,-331.500,-350.500
1.470,-353.000,-327.500,-334.000,-352.000
1.471,-355.000,-329.000,-335.500,-353.000
1.472,-355.500,-329.500,-336.000,-353.500
1.473,-356.000,-329.500,-336.500,-353.500
1.474,-357.000,-330.500,-338.000,-355.000
1.475,-359.000,-333.000,-340.500,-358.000
1.476,-362.500,-336.500,-344.000,-362.000
1.477,-365.500,-339.500,-347.500,-365.500
1.478,-366.500,-340.500,-348.500,-366.500
1.479,-364.500,-339.000,-346.000,-365.000
1.480,-360.000,-334.500,-341.500,-360.500
1.481,-354.500,-329.000,-335.500,-355.000
1.482,-348.000,-323.000,-329.000,-348.500
1.483,-342.000,-317.000,-323.000,-343.000
1.484,-336.000,-311.500,-318.000,-337.500
1.485,-331.500,-307.000,-314.000,-333.500
1.486,-329.000,-304.500,-312.000,-331.500
1.487,-328.000,-303.500,-311.000,-330.000
1.488,-327.000,-302.000,-309.000,-328.500
1.489,-323.500,-298.500,-305.000,-324.500
1.490,-319.000,-293.000,-299.500,-319.000
1.491,-314.000,-288.500,-295.000,-314.000
1.492,-312.500,-286.500,-293.000,-312.500
1.493,-315.500,-289.500,-296.000,-315.000
1.494,-323.500,-297.000,-303.500,-323.000
1.495,-335.500,-309.000,-315.500,-335.000
1.496,-349.500,-323.000,-330.000,-349.000
1.497,-363.000,-337.000,-343.500,-363.000
1.498,-373.000,-348.000,-354.500,-374.000
1.499,-378.500,-353.500,-360.500,-379.500
1.500,-378.000,-354.000,-360.500,-379.500
1.501,-374.000,-350.500,-357.000,-376.000
1.502,-369.000,-346.500,-352.000,-371.500
1.503,-365.000,-343.000,-348.000,-367.500
1.504,-363.000,-341.000,-345.000,-365.000
1.505,-362.000,-340.000,-343.000,-363.000
1.506,-361.500,-339.500,-341.500,-361.000
1.507,-362.000,-339.500,-341.000,-360.500
1.508,-363.500,-340.500,-342.000,-361.000
1.509,-366.000,-342.000,-344.000,-363.000
1.510,-369.000,-344.000,-346.500,-365.500
1.511,-371.500,-346.000,-348.500,-367.500
1.512,-372.000,-346.000,-349.500,-368.500
1.513,-371.500,-345.000,-349.000,-368.000
1.514,-369.000,-342.500,-347.500,-367.000
1.515,-366.000,-339.500,-346.000,-365.500
1.516,-362.500,-336.500,-343.500,-363.500
1.517,-358.000,-332.000,-340.500,-361.000
1.518,-351.500,-326.500,-335.500,-356.500
1.519,-344.500,-320.000,-329.500,-350.500
1.520,-337.500,-313.000,-322.500,-343.500
1.521,-331.000,-306.500,-315.000,-337.000
1.522,-325.500,-300.500,-308.500,-330.500
1.523,-320.500,-295.000,-302.500,-324.000
1.524,-316.000,-290.000,-297.000,-318.000
1.525,-312.000,-285.500,-292.000,-312.500
1.526,-308.500,-282.000,-288.000,-308.000
1.527,-307.000,-280.000,-285.500,-305.000
1.528,-308.000,-280.500,-286.000,-305.500
1.529,-312.500,-285.000,-290.500,-309.000
1.530,-320.500,-292.500,-298.000,-316.500
1.531,-330.500,-302.000,-308.000,-326.500
1.532,-341.500,-313.000,-319.000,-337.000
1.533,-351.000,-323.000,-329.500,-347.500
1.534,-359.000,-331.500,-338.500,-356.500
1.535,-365.000,-338.000,-345.500,-364.000
1.536,-369.000,-343.000,-351.000,-369.500
1.537,-371.000,-346.000,-354.000,-373.000
1.538,-371.500,-347.500,-355.500,-374.500
1.539,-371.500,-347.500,-355.500,-375.000
1.540,-370.500,-347.000,-354.500,-374.500
1.541,-368.000,-344.500,-352.500,-372.000
1.542,-364.000,-341.000,-348.000,-368.000
1.543,-359.000,-336.000,-342.500,-362.500
1.544,-353.500,-330.500,-337.000,-356.500
1.545,-349.500,-326.000,-331.500,-351.500
1.546,-346.500,-322.500,-327.000,-347.000
1.547,-344.500,-319.500,-324.000,-343.500
1.548,-343.000,-317.500,-322.500,-341.000
1.549,-343.000,-316.500,-322.000,-340.000
1.550,-343.500,-316.500,-322.500,-340.000
1.551,-344.500,-317.000,-323.500,-341.000
1.552,-346.500,-318.500,-325.500,-342.500
1.553,-348.500,-320.500,-327.500,-344.500
1.554,-350.500,-322.500,-330.000,-346.500
1.555,-351.500,-324.500,-332.000,-348.000
1.556,-352.500,-325.500,-333.000,-349.500
1.557,-352.000,-326.000,-333.000,-349.500
1.558,-351.500,-325.500,-333.000,-349.500
1.559,-351.000,-325.500,-333.000,-349.500
1.560,-351.500,-326.500,-334.000,-350.500
1.561,-351.000,-327.000,-334.000,-351.000
1.562,-349.500,-325.500,-333.000,-350.000
1.563,-348.000,-324.500,-332.000,-349.000
1.564,-348.500,-325.000,-332.500,-349.000
1.565,-350.000,-327.000,-335.000,-351.000
1.566,-352.500,-329.500,-337.500,-353.500
1.567,-354.500,-331.500,-339.000,-355.000
1.568,-355.000,-332.000,-339.500,-355.000
1.569,-355.000,-332.000,-339.000,-354.500
1.570,-354.500,-331.000,-338.000,-353.000
1.571,-353.000,-328.500,-335.500,-350.500
1.572,-349.500,-324.500,-331.500,-346.500
1.573,-344.500,-319.000,-326.000,-341.500
1.574,-338.000,-313.000,-319.500,-335.500
1.575,-332.500,-307.000,-313.500,-330.000
1.576,-328.000,-303.000,-309.500,-326.000
1.577,-326.000,-301.500,-307.500,-325.000
1.578,-327.500,-303.500,-309.000,-327.000
1.579,-333.500,-309.500,-315.000,-333.500
1.580,-342.500,-318.500,-324.000,-342.500
1.581,-352.000,-327.500,-333.000,-352.000
1.582,-359.500,-335.000,-340.500,-359.500
1.583,-364.500,-340.000,-345.500,-364.500
1.584,-367.500,-342.500,-348.000,-367.500
1.585,-368.500,-344.000,-349.000,-368.500
1.586,-368.500,-343.500,-348.500,-368.000
1.587,-368.000,-342.500,-347.500,-366.500
1.588,-366.500,-341.500,-346.000,-365.000
1.589,-365.500,-340.500,-344.500,-363.500
1.590,-365.000,-339.500,-343.500,-362.500
1.591,-365.000,-339.000,-343.000,-361.500
1.592,-364.000,-338.000,-342.500,-360.500
1.593,-361.500,-336.000,-340.500,-358.500
1.594,-358.000,-332.500,-337.000,-355.500
1.595,-353.000,-328.500,-333.500,-351.500
1.596,-349.000,-324.500,-330.500,-349.000
1.597,-346.500,-323.000,-329.000,-347.500
1.598,-346.500,-323.000,-329.500,-348.000
1.599,-347.500,-324.500,-331.000,-349.500
1.600,-349.000,-326.000,-332.500,-351.500
1.601,-349.500,-327.000,-333.500,-352.000
1.602,-348.500,-326.500,-333.000,-351.500
1.603,-346.000,-324.000,-330.500,-349.000
1.604,-341.500,-319.000,-325.500,-344.500
1.605,-336.000,-313.000,-319.000,-338.000
1.606,-330.500,-307.000,-313.000,-331.500
1.607,-326.500,-302.500,-307.500,-326.500
1.608,-324.500,-299.500,-304.500,-323.000
1.609,-323.500,-298.000,-302.500,-321.000
1.610,-323.000,-296.000,-300.500,-319.000
1.611,-321.000,-293.500,-297.500,-316.000
1.612,-317.500,-289.500,-293.500,-312.500
1.613,-313.500,-285.000,-289.000,-308.500
1.614,-309.000,-280.500,-284.000,-304.000
1.615,-304.000,-276.000,-279.000,-299.000
1.616,-299.000,-271.500,-274.500,-295.000
1.617,-294.500,-268.000,-271.000,-291.500
1.618,-292.500,-266.000,-269.000,-290.000
1.619,-293.000,-267.000,-270.500,-291.500
1.620,-296.500,-271.500,-274.500,-296.000
1.621,-302.500,-277.500,-280.500,-302.000
1.622,-308.500,-284.000,-287.000,-308.000
1.623,-314.000,-290.000,-293.000,-314.000
1.624,-319.500,-295.500,-298.500,-319.500
1.625,-325.000,-301.000,-304.000,-324.500
1.626,-330.000,-306.000,-309.500,-329.500
1.627,-333.000,-309.000,-312.500,-332.500
1.628,-333.000,-309.000,-312.500,-332.000
1.629,-330.500,-306.500,-310.000,-329.500
1.630,-326.500,-302.500,-306.000,-325.000
1.631,-322.000,-298.500,-301.000,-319.500
1.632,-317.500,-294.500,-296.000,-315.000
1.633,-314.500,-291.500,-293.000,-312.000
1.634,-313.000,-290.500,-291.000,-310.500
1.635,-313.000,-291.000,-291.000,-311.000
1.636,-314.000,-292.000,-292.500,-312.500
1.637,-315.000,-293.000,-294.000,-314.500
1.638,-315.500,-293.500,-295.500,-315.500
1.639,-314.500,-292.500,-295.000,-315.000
1.640,-312.000,-290.000,-293.000,-313.000
1.641,-308.000,-285.500,-289.000,-308.500
1.642,-302.500,-279.500,-283.500,-303.000
1.643,-296.000,-272.500,-277.000,-296.500
1.644,-289.500,-265.500,-269.500,-289.500
1.645,-284.000,-259.500,-264.000,-284.500
1.646,-282.000,-257.000,-261.500,-282.000
1.647,-283.000,-258.000,-262.500,-283.000
1.648,-287.000,-261.500,-266.500,-286.500
1.649,-292.500,-266.500,-271.500,-291.000
1.650,-298.000,-271.500,-276.500,-296.000
1.651,-303.500,-276.500,-281.500,-300.500
1.652,-309.000,-281.500,-286.500,-305.500
1.653,-315.000,-287.000,-291.500,-310.500
1.654,-321.500,-293.000,-297.500,-316.500
1.655,-328.000,-300.000,-304.500,-323.000
1.656,-335.000,-306.500,-311.500,-330.000
1.657,-340.500,-312.500,-317.500,-336.000
1.658,-343.000,-316.000,-321.000,-339.000
1.659,-342.000,-316.000,-321.000,-339.000
1.660,-338.000,-313.000,-318.000,-336.000
1.661,-332.500,-308.000,-313.000,-331.500
1.662,-327.500,-303.500,-308.500,-327.000
1.663,-324.000,-300.500,-305.500,-324.000
1.664,-322.000,-299.000,-303.500,-322.500
1.665,-321.000,-298.000,-303.000,-321.500
1.666,-320.000,-297.500,-302.500,-320.500
1.667,-318.500,-296.000,-301.000,-319.000
1.668,-316.500,-293.500,-299.000,-316.000
1.669,-313.000,-289.500,-295.000,-311.500
1.670,-308.500,-284.500,-290.000,-306.000
1.671,-304.500,-279.500,-285.000,-301.000
1.672,-301.500,-276.000,-281.500,-297.500
1.673,-301.500,-276.000,-281.500,-297.000
1.674,-305.000,-279.500,-285.000,-301.000
1.675,-312.000,-286.500,-292.000,-308.000
1.676,-320.500,-295.500,-301.500,-317.500
1.677,-330.500,-306.500,-312.000,-328.000
1.678,-341.500,-318.000,-323.000,-339.500
1.679,-353.000,-331.000,-335.000,-352.000
1.680,-365.000,-344.000,-347.500,-364.000
1.681,-375.500,-355.500,-358.000,-375.000
1.682,-383.500,-364.500,-366.500,-383.500
1.683,-388.500,-369.500,-372.000,-388.500
1.684,-390.500,-371.500,-374.000,-391.000
1.685,-390.000,-371.000,-374.000,-391.000
1.686,-388.000,-368.000,-372.000,-388.500
1.687,-385.500,-364.500,-369.000,-385.500
1.688,-383.500,-361.500,-366.500,-382.500
1.689,-381.000,-358.500,-363.500,-379.500
1.690,-378.500,-355.500,-360.000,-376.000
1.691,-376.000,-352.000,-356.000,-372.000
1.692,-372.500,-348.500,-352.000,-368.000
1.693,-369.500,-345.000,-348.500,-364.500
1.694,-366.500,-341.500,-345.000,-361.500
1.695,-363.500,-338.500,-342.000,-359.000
1.696,-360.000,-335.500,-339.000,-356.500
1.697,-355.500,-331.500,-335.500,-353.500
1.698,-350.000,-326.500,-330.500,-349.000
1.699,-343.500,-320.500,-325.000,-343.500
1.700,-336.500,-314.500,-318.500,-337.500
1.701,-331.000,-309.000,-313.000,-332.000
1.702,-327.000,-305.000,-309.500,-328.000
1.703,-325.500,-303.500,-307.500,-326.500
1.704,-326.500,-304.000,-308.000,-327.000
1.705,-328.000,-305.000,-309.000,-328.000
1.706,-330.000,-306.500,-310.000,-329.000
1.707,-332.000,-307.500,-311.000,-330.000
1.708,-333.500,-308.500,-312.000,-330.500
1.709,-335.500,-310.500,-313.500,-331.500
1.710,-338.000,-312.500,-315.500,-333.000
1.711,-340.500,-315.000,-318.000,-335.500
1.712,-344.000,-318.500,-322.000,-339.000
1.713,-349.000,-324.000,-327.500,-344.500
1.714,-355.500,-331.000,-335.000,-352.000
1.715,-363.500,-339.500,-343.500,-360.500
1.716,-371.500,-347.500,-352.000,-369.000
1.717,-377.000,-353.500,-358.500,-375.500
1.718,-381.000,-357.500,-362.500,-380.000
1.719,-383.000,-360.500,-366.000,-383.500
1.720,-385.000,-363.000,-368.500,-386.500
1.721,-387.000,-365.500,-371.500,-390.000
1.722,-388.000,-367.500,-374.000,-392.500
1.723,-389.000,-369.000,-375.500,-394.500
1.724,-389.000,-369.500,-376.000,-395.500
1.725,-388.500,-368.500,-375.500,-395.000
1.726,-386.500,-367.000,-373.500,-393.500
1.727,-385.000,-364.500,-370.500,-391.000
1.728,-383.500,-362.500,-368.000,-388.000
1.729,-381.000,-359.000,-364.500,-384.500
1.730,-376.000,-353.500,-359.000,-378.000
1.731,-367.000,-344.000,-349.000,-368.000
1.732,-353.000,-329.500,-335.000,-353.000
1.733,-335.000,-311.500,-316.500,-334.000
1.734,-313.000,-289.000,-294.500,-311.500
1.735,-288.000,-264.000,-269.000,-285.500
1.736,-260.500,-236.500,-241.500,-257.500
1.737,-230.500,-207.000,-211.000,-227.000
1.738,-198.500,-174.500,-178.000,-194.000
1.739,-163.000,-138.500,-141.500,-157.000
1.740,-122.500,-98.000,-100.000,-115.000
1.741,-77.500,-53.000,-54.000,-68.500
1.742,-29.000,-4.000,-4.000,-18.000
1.743,21.000,46.500,48.000,34.000
1.744,71.000,97.000,99.000,85.500
1.745,118.500,145.000,148.000,134.500
1.746,162.500,190.000,193.500,180.500
1.747,203.000,231.000,235.500,223.000
1.748,240.500,269.500,274.500,262.500
1.749,276.500,307.000,312.500,301.000
1.750,312.500,343.500,350.000,339.000
1.751,346.500,378.000,385.000,374.500
1.752,375.000,407.000,414.500,403.500
1.753,392.000,424.500,432.000,421.000
1.754,394.000,426.000,434.000,422.000
1.755,378.000,410.000,417.000,405.000
1.756,344.000,376.000,382.000,369.000
1.757,294.500,325.500,330.500,317.000
1.758,232.000,262.500,266.500,252.000
1.759,162.500,192.500,195.000,180.000
1.760,92.500,120.500,123.000,107.000
1.761,26.000,53.000,54.500,38.000
1.762,-32.000,-6.500,-5.500,-23.000
1.763,-80.500,-56.000,-55.500,-73.500
1.764,-120.500,-96.500,-97.000,-115.000
1.765,-154.500,-130.500,-132.000,-150.000
1.766,-185.000,-161.000,-163.000,-181.500
1.767,-213.000,-188.500,-191.500,-210.000
1.768,-238.000,-213.000,-216.000,-234.500
1.769,-259.000,-233.500,-236.500,-255.000
1.770,-275.500,-249.500,-252.500,-271.000
1.771,-288.000,-262.000,-265.000,-283.500
1.772,-298.500,-272.000,-274.500,-293.500
1.773,-306.500,-280.000,-283.000,-302.000
1.774,-313.000,-286.500,-290.000,-309.000
1.775,-318.000,-292.000,-295.500,-314.500
1.776,-322.000,-296.500,-300.500,-319.500
1.777,-326.000,-301.000,-304.500,-324.500
1.778,-330.000,-305.500,-309.000,-329.000
1.779,-333.500,-309.500,-313.000,-333.000
1.780,-335.000,-312.000,-315.000,-335.500
1.781,-334.000,-311.500,-314.500,-335.000
1.782,-330.500,-308.500,-311.500,-332.000
1.783,-325.500,-303.500,-306.500,-327.000
1.784,-319.500,-297.500,-300.500,-321.000
1.785,-313.000,-291.000,-294.000,-314.000
1.786,-307.000,-284.000,-287.500,-307.000
1.787,-301.500,-278.000,-281.000,-300.500
1.788,-297.000,-273.000,-276.000,-295.000
1.789,-294.500,-269.500,-273.000,-292.000
1.790,-294.000,-269.000,-272.500,-291.500
1.791,-296.500,-272.000,-275.000,-294.000
1.792,-301.500,-277.000,-280.000,-298.500
1.793,-307.000,-282.500,-285.500,-304.500
1.794,-311.500,-287.500,-291.000,-310.000
1.795,-315.500,-291.500,-295.000,-314.500
1.796,-319.000,-295.000,-298.500,-318.500
1.797,-322.000,-298.500,-302.500,-322.500
1.798,-325.500,-302.000,-306.500,-326.500
1.799,-329.000,-306.000,-310.500,-330.500
1.800,-331.500,-309.500,-314.500,-334.500
1.801,-334.000,-313.500,-318.000,-338.500
1.802,-336.000,-316.500,-321.000,-341.000
1.803,-337.500,-318.000,-322.500,-343.000
1.804,-338.500,-319.000,-323.000,-343.500
1.805,-339.000,-318.500,-323.000,-343.000
1.806,-339.500,-318.000,-322.000,-341.500
1.807,-339.000,-316.500,-320.000,-340.000
1.808,-338.000,-315.000,-318.000,-337.500
1.809,-336.500,-312.500,-315.000,-335.000
1.810,-334.500,-310.000,-312.000,-332.000
1.811,-332.500,-307.500,-309.500,-329.500
1.812,-331.500,-306.500,-308.500,-328.500
1.813,-332.000,-307.500,-309.500,-329.500
1.814,-334.000,-310.000,-311.500,-331.500
1.815,-336.000,-312.500,-313.500,-333.500
1.816,-336.500,-313.000,-313.500,-334.500
1.817,-335.000,-312.000,-312.500,-333.500
1.818,-333.000,-310.000,-310.500,-332.000
1.819,-331.500,-309.000,-310.000,-331.500
1.820,-331.500,-308.500,-310.000,-332.000
1.821,-332.500,-309.500,-311.500,-333.500
1.822,-333.500,-310.500,-313.000,-335.000
1.823,-334.500,-311.500,-314.000,-336.000
1.824,-335.500,-312.000,-315.000,-336.500
1.825,-336.000,-312.500,-315.000,-337.000
1.826,-336.000,-312.000,-314.500,-336.500
1.827,-336.500,-312.000,-314.500,-336.000
1.828,-336.500,-311.500,-314.000,-335.500
1.829,-336.000,-310.000,-312.500,-334.000
1.830,-333.500,-307.000,-310.000,-331.000
1.831,-329.500,-302.500,-306.000,-326.500
1.832,-324.000,-297.000,-300.500,-321.000
1.833,-318.500,-292.500,-296.000,-316.500
1.834,-315.000,-289.000,-293.000,-314.000
1.835,-313.500,-288.500,-292.500,-313.500
1.836,-313.500,-289.500,-294.000,-315.000
1.837,-315.500,-292.000,-296.500,-317.500
1.838,-319.000,-296.000,-301.000,-322.000
1.839,-324.500,-302.500,-306.500,-328.000
1.840,-331.500,-310.000,-314.000,-335.500
1.841,-338.500,-317.500,-321.000,-342.500
1.842,-344.000,-323.500,-326.500,-348.000
1.843,-347.500,-327.000,-329.500,-351.000
1.844,-348.500,-328.000,-330.500,-352.000
1.845,-348.000,-327.500,-329.000,-351.000
1.846,-346.000,-324.500,-326.000,-347.500
1.847,-342.000,-320.000,-321.000,-343.000
1.848,-337.000,-314.500,-315.000,-337.000
1.849,-332.000,-308.500,-309.000,-331.000
1.850,-326.500,-303.000,-303.500,-325.500
1.851,-321.500,-297.500,-298.500,-320.000
1.852,-316.500,-293.000,-294.000,-315.500
1.853,-312.000,-288.500,-290.000,-311.000
1.854,-307.500,-284.500,-286.000,-307.000
1.855,-303.000,-280.500,-282.000,-303.000
1.856,-298.500,-277.000,-278.000,-299.500
1.857,-294.500,-273.000,-274.500,-295.500
1.858,-291.500,-270.500,-271.500,-293.500
1.859,-291.000,-270.000,-271.500,-293.500
1.860,-294.500,-273.000,-274.000,-296.500
1.861,-301.000,-279.000,-280.500,-303.000
1.862,-310.000,-287.500,-288.500,-311.500
1.863,-319.000,-296.500,-297.500,-320.500
1.864,-327.500,-304.000,-305.000,-329.000
1.865,-333.500,-310.500,-311.500,-335.000
1.866,-337.000,-314.000,-315.000,-338.500
1.867,-337.000,-314.000,-315.500,-338.500
1.868,-334.500,-311.500,-312.500,-335.500
1.869,-330.000,-307.500,-308.000,-330.500
1.870,-325.000,-302.500,-302.500,-324.500
1.871,-319.500,-296.500,-296.500,-318.500
1.872,-314.000,-290.500,-290.500,-312.500
1.873,-308.000,-285.000,-286.000,-308.000
1.874,-304.000,-281.000,-282.500,-304.500
1.875,-302.500,-280.000,-282.000,-304.000
1.876,-305.000,-282.500,-284.500,-307.000
1.877,-310.000,-288.000,-290.000,-313.000
1.878,-316.500,-295.000,-297.000,-320.000
1.879,-322.500,-301.000,-302.500,-326.000
1.880,-326.000,-305.500,-306.000,-330.000
1.881,-328.000,-307.500,-308.000,-332.500
1.882,-328.000,-307.500,-307.500,-332.500
1.883,-326.500,-306.000,-306.000,-331.000
1.884,-322.500,-302.000,-302.500,-327.500
1.885,-317.000,-296.500,-297.000,-322.000
1.886,-309.500,-289.000,-290.000,-315.000
1.887,-301.500,-281.000,-282.000,-307.000
1.888,-295.000,-274.000,-275.500,-300.000
1.889,-292.000,-270.000,-272.000,-296.000
1.890,-293.000,-270.500,-272.500,-296.000
1.891,-297.000,-273.500,-276.000,-299.500
1.892,-301.500,-278.000,-280.500,-303.500
1.893,-305.500,-282.500,-285.000,-308.000
1.894,-309.000,-286.000,-289.000,-312.000
1.895,-312.500,-289.500,-293.000,-316.500
1.896,-315.000,-293.000,-296.500,-320.000
1.897,-316.500,-294.500,-298.500,-322.500
1.898,-315.500,-294.000,-298.000,-322.000
1.899,-313.000,-291.500,-295.500,-320.000
1.900,-309.000,-288.000,-292.000,-316.500
1.901,-305.500,-284.500,-288.000,-313.000
1.902,-302.500,-281.500,-285.000,-309.500
1.903,-300.500,-279.500,-282.500,-307.000
1.904,-299.500,-278.000,-280.500,-305.000
1.905,-298.500,-277.000,-279.000,-304.000
1.906,-298.500,-276.500,-278.000,-303.000
1.907,-298.500,-276.500,-278.000,-302.500
1.908,-299.000,-276.500,-278.000,-302.500
1.909,-299.500,-276.500,-279.000,-302.000
1.910,-300.000,-276.500,-280.000,-301.500
1.911,-299.500,-276.000,-283.000,-300.500
1.912,-299.500,-276.000,-287.000,-300.000
1.913,-299.500,-276.000,-292.000,-299.500
1.914,-299.000,-276.000,-296.000,-299.000
1.915,-297.500,-275.000,-298.000,-297.500
1.916,-295.500,-273.000,-298.000,-295.500
1.917,-292.500,-271.000,-297.000,-293.000
1.918,-290.000,-269.000,-295.500,-291.000
1.919,-289.000,-267.500,-294.500,-290.000
1.920,-289.500,-268.500,-296.000,-291.000
1.921,-292.000,-271.000,-298.500,-294.000
1.922,-294.500,-273.500,-301.500,-297.000
1.923,-295.500,-275.000,-302.500,-298.000
1.924,-294.000,-273.500,-301.000,-297.000
1.925,-290.000,-269.500,-297.500,-293.000
1.926,-284.500,-264.000,-292.000,-287.500
1.927,-278.500,-257.500,-286.500,-282.000
1.928,-273.000,-251.500,-281.000,-276.500
1.929,-268.000,-246.000,-276.500,-271.500
1.930,-264.000,-241.500,-273.000,-267.500
1.931,-261.000,-238.000,-270.000,-264.000
1.932,-258.000,-235.000,-267.000,-261.000
1.933,-254.000,-231.000,-263.000,-257.000
1.934,-248.500,-226.000,-258.000,-251.500
1.935,-242.500,-220.500,-252.500,-246.000
1.936,-237.500,-216.500,-248.000,-241.500
1.937,-236.000,-215.500,-246.500,-240.000
1.938,-238.000,-218.000,-248.500,-242.500
1.939,-242.000,-222.000,-252.500,-246.500
1.940,-245.500,-226.000,-256.500,-250.500
1.941,-247.000,-227.500,-258.000,-252.000
1.942,-246.500,-227.000,-257.500,-252.000
1.943,-246.000,-226.500,-257.500,-251.500
1.944,-246.500,-227.000,-258.000,-252.000
1.945,-247.500,-227.500,-259.000,-253.000
1.946,-247.500,-227.500,-259.000,-252.500
1.947,-246.000,-225.000,-256.500,-250.000
1.948,-243.000,-221.500,-253.000,-246.500
1.949,-240.000,-218.500,-249.500,-243.000
1.950,-238.500,-216.000,-247.500,-241.000
1.951,-238.000,-215.500,-247.000,-240.000
1.952,-238.000,-215.000,-246.500,-239.500
1.953,-236.500,-214.000,-245.000,-238.500
1.954,-234.000,-211.000,-242.500,-235.500
1.955,-229.500,-207.000,-238.500,-231.500
1.956,-224.000,-202.000,-233.500,-226.000
1.957,-218.500,-196.500,-227.500,-220.500
1.958,-213.000,-191.000,-221.500,-214.500
1.959,-208.000,-186.000,-216.000,-209.500
1.960,-205.500,-183.500,-213.500,-207.000
1.961,-207.000,-184.500,-214.500,-208.500
1.962,-212.000,-189.500,-219.500,-213.500
1.963,-219.500,-197.000,-226.500,-220.500
1.964,-226.500,-203.500,-233.500,-227.000
1.965,-231.000,-208.000,-237.500,-231.000
1.966,-231.500,-208.500,-238.000,-231.000
1.967,-229.000,-205.500,-235.500,-227.500
1.968,-224.000,-199.500,-230.000,-221.500
1.969,-218.000,-193.000,-223.500,-215.000
1.970,-211.500,-186.000,-217.000,-208.000
1.971,-205.000,-179.500,-211.000,-202.000
1.972,-199.000,-173.000,-205.000,-196.000
1.973,-193.000,-167.000,-199.000,-190.000
1.974,-188.000,-161.500,-193.500,-185.000
1.975,-183.500,-157.000,-189.000,-180.500
1.976,-179.500,-153.500,-185.000,-177.000
1.977,-175.000,-149.500,-180.500,-173.000
1.978,-169.500,-145.000,-175.500,-167.500
1.979,-163.500,-139.500,-170.000,-162.500
1.980,-158.500,-135.500,-166.500,-158.500
1.981,-157.000,-135.000,-166.000,-157.500
1.982,-159.500,-137.500,-168.500,-160.000
1.983,-163.000,-141.000,-172.500,-163.500
1.984,-165.000,-142.500,-174.000,-165.000
1.985,-163.000,-140.500,-171.500,-162.500
1.986,-158.000,-135.000,-166.000,-157.000
1.987,-152.000,-128.500,-160.000,-150.500
1.988,-147.000,-123.000,-154.000,-145.000
1.989,-142.500,-118.500,-149.500,-140.000
1.990,-139.000,-114.000,-145.000,-135.500
1.991,-135.000,-109.500,-140.500,-131.000
1.992,-131.500,-105.000,-136.000,-127.000
1.993,-128.000,-101.500,-132.500,-123.000
1.994,-125.000,-98.500,-129.500,-120.000
1.995,-123.000,-96.500,-128.000,-118.000
1.996,-122.000,-95.500,-127.000,-117.000
1.997,-121.500,-94.500,-126.500,-116.500
1.998,-121.500,-94.500,-126.500,-116.500
1.999,-121.500,-94.500,-126.500,-117.000
2.000,-121.500,-94.500,-126.500,-117.000
2.001,-119.000,-92.500,-124.000,-115.000
2.002,-114.000,-87.500,-119.000,-110.000
2.003,-107.500,-81.000,-112.500,-103.500
2.004,-101.000,-75.000,-106.000,-97.500
2.005,-97.000,-70.500,-102.000,-93.000
2.006,-95.000,-68.500,-99.500,-90.500
2.007,-94.000,-67.500,-98.500,-89.500
2.008,-93.500,-67.000,-97.500,-88.500
2.009,-92.500,-66.000,-96.500,-87.500
2.010,-91.500,-65.500,-95.500,-86.500
2.011,-90.000,-64.000,-94.000,-85.000
2.012,-88.500,-62.500,-92.500,-84.000
2.013,-87.500,-61.500,-92.000,-83.500
2.014,-87.000,-61.000,-91.500,-83.000
2.015,-86.000,-60.000,-91.500,-83.000
2.016,-84.000,-58.500,-90.000,-82.000
2.017,-82.000,-56.500,-89.000,-81.000
2.018,-81.000,-56.000,-88.500,-80.500
2.019,-82.500,-57.500,-90.000,-82.500
2.020,-86.500,-62.000,-94.000,-86.500
2.021,-92.500,-67.500,-99.500,-92.000
2.022,-98.500,-74.000,-105.000,-98.000
2.023,-104.000,-79.500,-110.500,-103.500
2.024,-108.500,-84.000,-115.000,-108.000
2.025,-111.500,-86.500,-117.500,-110.500
2.026,-112.500,-87.000,-118.500,-112.000
2.027,-112.500,-86.500,-118.000,-111.500
2.028,-112.000,-85.000,-117.000,-110.500
2.029,-112.000,-84.500,-117.000,-110.500
2.030,-113.000,-85.500,-118.000,-111.500
2.031,-115.500,-88.000,-121.000,-114.000
2.032,-119.000,-91.000,-124.500,-118.000
2.033,-122.500,-94.500,-128.500,-121.500
2.034,-125.500,-98.000,-132.500,-125.500
2.035,-130.500,-103.000,-137.500,-130.500
2.036,-137.000,-110.000,-144.500,-138.000
2.037,-146.500,-120.000,-154.500,-148.000
2.038,-157.000,-131.500,-166.500,-159.500
2.039,-167.000,-143.000,-178.000,-171.000
2.040,-175.500,-152.500,-188.000,-181.000
2.041,-183.500,-161.000,-197.000,-190.000
2.042,-191.000,-169.000,-205.000,-198.500
2.043,-199.000,-177.500,-212.500,-206.500
2.044,-206.500,-184.500,-219.500,-214.000
2.045,-213.000,-191.000,-225.000,-219.500
2.046,-218.500,-196.000,-230.000,-224.500
2.047,-223.500,-201.500,-235.000,-229.500
2.048,-229.500,-207.000,-241.000,-235.000
2.049,-236.500,-213.500,-247.500,-241.000
2.050,-243.000,-220.000,-254.500,-247.500
2.051,-250.000,-226.500,-261.000,-253.500
2.052,-255.500,-232.000,-266.500,-259.000
2.053,-259.500,-236.500,-271.500,-264.000
2.054,-263.000,-240.000,-276.000,-268.000
2.055,-265.500,-243.000,-279.000,-271.500
2.056,-267.500,-244.500,-281.500,-274.000
2.057,-268.500,-246.000,-282.500,-276.000
2.058,-269.500,-246.500,-283.500,-277.500
2.059,-271.000,-248.000,-285.000,-279.000
2.060,-273.500,-250.500,-287.000,-282.000
2.061,-277.500,-254.500,-291.000,-286.000
2.062,-282.000,-259.000,-295.500,-291.000
2.063,-287.000,-264.000,-300.500,-296.500
2.064,-291.000,-268.000,-304.000,-300.000
2.065,-293.000,-270.000,-305.500,-301.500
2.066,-293.500,-270.000,-305.500,-301.500
2.067,-293.000,-270.000,-304.500,-300.500
2.068,-293.500,-270.000,-304.500,-300.500
2.069,-296.000,-272.500,-306.500,-302.000
2.070,-300.000,-275.500,-309.500,-305.500
2.071,-303.500,-279.000,-313.500,-309.500
2.072,-306.500,-282.000,-316.500,-313.000
2.073,-308.500,-284.000,-319.000,-315.500
2.074,-309.500,-285.000,-321.000,-317.500
2.075,-308.500,-284.500,-321.500,-318.000
2.076,-306.000,-282.500,-320.500,-317.000
2.077,-304.000,-281.000,-319.500,-316.000
2.078,-304.000,-281.500,-320.000,-317.000
2.079,-306.500,-284.000,-323.500,-320.000
2.080,-311.000,-289.000,-328.000,-325.500
2.081,-315.500,-294.000,-333.500,-330.500
2.082,-319.500,-298.000,-337.500,-335.000
2.083,-322.000,-301.000,-340.500,-338.000
2.084,-324.000,-302.500,-342.000,-339.500
2.085,-325.500,-303.500,-342.500,-340.500
2.086,-327.000,-304.500,-343.500,-341.000
2.087,-328.500,-306.000,-344.500,-342.000
2.088,-331.000,-308.000,-346.000,-343.500
2.089,-333.500,-311.000,-347.500,-345.000
2.090,-336.000,-313.000,-349.000,-346.500
2.091,-338.000,-315.000,-350.000,-347.000
2.092,-338.000,-315.000,-350.000,-346.500
2.093,-337.000,-314.000,-349.000,-345.000
2.094,-334.500,-312.000,-347.500,-343.000
2.095,-331.500,-309.000,-345.500,-341.000
2.096,-328.500,-306.500,-343.500,-339.000
2.097,-326.500,-305.000,-342.500,-338.500
2.098,-326.000,-304.500,-343.000,-338.500
2.099,-327.000,-305.000,-344.000,-340.000
2.100,-328.000,-306.500,-346.000,-342.000
2.101,-329.000,-307.000,-347.000,-343.500
2.102,-329.000,-307.000,-347.500,-344.000
2.103,-328.000,-306.000,-346.500,-343.500
2.104,-327.000,-304.500,-345.500,-342.000
2.105,-326.000,-303.000,-343.500,-340.500
2.106,-325.500,-302.500,-342.000,-339.000
2.107,-325.500,-301.500,-340.500,-337.500
2.108,-325.500,-301.000,-339.000,-336.000
2.109,-325.500,-300.000,-338.000,-334.500
2.110,-326.500,-300.000,-337.500,-334.500
2.111,-327.500,-300.500,-338.500,-335.000
2.112,-328.000,-301.000,-339.000,-335.500
2.113,-327.500,-300.500,-339.000,-335.500
2.114,-326.000,-299.000,-337.500,-334.000
2.115,-324.000,-297.500,-336.000,-333.000
2.116,-322.500,-296.500,-334.500,-332.000
2.117,-321.500,-295.500,-333.500,-331.500
2.118,-320.000,-294.500,-332.000,-330.500
2.119,-318.000,-293.000,-330.500,-329.000
2.120,-315.000,-291.000,-328.000,-326.500
2.121,-313.500,-289.000,-326.500,-325.000
2.122,-313.500,-289.500,-327.000,-325.500
2.123,-317.000,-293.000,-330.000,-328.500
2.124,-322.500,-298.000,-335.500,-334.000
2.125,-328.500,-304.000,-341.000,-339.500
2.126,-333.000,-308.500,-345.500,-343.500
2.127,-335.500,-311.000,-348.000,-345.500
2.128,-335.000,-311.000,-348.000,-345.500
2.129,-333.000,-309.000,-346.500,-344.000
2.130,-330.000,-306.000,-343.000,-340.500
2.131,-325.500,-302.000,-339.500,-337.000
2.132,-322.000,-298.500,-336.000,-333.000
2.133,-319.500,-296.000,-334.000,-331.000
2.134,-318.000,-295.000,-333.000,-330.500
2.135,-317.500,-294.500,-333.000,-330.500
2.136,-317.000,-294.000,-332.500,-330.500
2.137,-316.500,-293.500,-332.500,-330.500
2.138,-318.500,-294.500,-334.000,-332.500
2.139,-323.000,-299.000,-338.500,-337.500
2.140,-329.500,-305.500,-345.500,-344.500
2.141,-335.500,-311.500,-351.500,-350.500
2.142,-339.000,-315.000,-355.000,-354.000
2.143,-341.000,-317.000,-356.500,-356.000
2.144,-343.000,-318.500,-358.000,-357.000
2.145,-344.500,-320.000,-359.000,-358.000
2.146,-345.000,-321.000,-359.500,-358.000
2.147,-345.500,-320.500,-359.000,-357.500
2.148,-345.000,-320.000,-358.000,-356.000
2.149,-344.500,-318.500,-356.000,-354.500
2.150,-343.500,-317.000,-353.500,-352.000
2.151,-341.500,-314.000,-350.500,-349.000
2.152,-338.500,-310.500,-347.000,-346.000
2.153,-336.000,-308.000,-344.500,-343.500
2.154,-335.500,-307.500,-344.000,-343.500
2.155,-336.000,-308.500,-346.000,-345.000
2.156,-337.000,-310.500,-348.500,-347.000
2.157,-337.000,-311.500,-350.000,-348.500
2.158,-336.000,-311.500,-351.000,-349.000
2.159,-335.000,-311.500,-351.500,-349.000
2.160,-334.500,-312.000,-352.000,-349.500
2.161,-333.000,-311.500,-351.500,-349.500
2.162,-330.500,-309.500,-350.000,-347.500
2.163,-327.000,-306.000,-346.500,-344.500
2.164,-323.000,-302.000,-342.500,-340.500
2.165,-319.500,-298.000,-338.500,-336.000
2.166,-315.500,-294.000,-334.000,-331.000
2.167,-312.500,-290.000,-330.000,-327.000
2.168,-310.500,-287.500,-327.000,-323.500
2.169,-311.500,-287.500,-327.000,-323.500
2.170,-315.500,-290.500,-329.500,-326.500
2.171,-321.500,-296.000,-335.000,-332.000
2.172,-328.500,-302.500,-341.500,-338.500
2.173,-335.000,-309.000,-347.000,-344.500
2.174,-339.500,-313.500,-352.000,-349.500
2.175,-342.500,-317.000,-355.000,-353.000
2.176,-345.000,-319.500,-358.000,-356.500
2.177,-347.500,-322.000,-360.500,-359.500
2.178,-350.000,-324.500,-363.000,-362.000
2.179,-350.500,-325.500,-363.500,-363.500
2.180,-348.500,-323.500,-362.000,-362.000
2.181,-344.000,-319.000,-357.500,-357.500
2.182,-337.500,-313.000,-351.500,-351.500
2.183,-331.500,-307.500,-346.000,-346.000
2.184,-327.500,-303.500,-342.000,-342.000
2.185,-325.500,-301.000,-339.500,-339.000
2.186,-325.000,-300.500,-338.000,-337.500
2.187,-326.000,-301.000,-338.000,-337.500
2.188,-328.000,-303.000,-339.000,-338.000
2.189,-330.000,-305.000,-340.500,-339.000
2.190,-332.000,-307.000,-341.500,-340.000
2.191,-332.500,-307.500,-342.000,-340.000
2.192,-331.500,-306.500,-341.000,-339.000
2.193,-329.000,-304.000,-338.500,-336.000
2.194,-325.000,-300.500,-335.000,-332.500
2.195,-321.000,-296.500,-331.500,-329.000
2.196,-317.000,-293.000,-328.500,-326.000
2.197,-315.000,-291.500,-327.500,-325.500
2.198,-315.000,-292.000,-328.500,-326.500
2.199,-316.500,-294.000,-331.000,-329.500
2.200,-318.000,-296.000,-334.000,-332.500
2.201,-319.500,-298.500,-336.500,-335.500
2.202,-321.000,-300.500,-339.000,-337.500
2.203,-323.000,-302.000,-341.000,-339.500
2.204,-324.500,-303.000,-342.000,-340.500
2.205,-325.000,-303.000,-341.500,-340.500
2.206,-323.500,-301.500,-339.500,-338.000
2.207,-321.000,-298.000,-336.000,-334.500
2.208,-318.500,-295.500,-333.000,-331.000
2.209,-319.000,-295.000,-332.500,-330.500
2.210,-323.000,-299.000,-336.000,-333.500
2.211,-330.500,-306.500,-343.000,-340.500
2.212,-339.000,-315.500,-351.000,-348.500
2.213,-346.000,-323.500,-358.500,-356.000
2.214,-351.500,-329.500,-364.500,-362.000
2.215,-354.500,-333.500,-368.500,-366.000
2.216,-356.500,-336.500,-371.500,-369.000
2.217,-358.000,-338.500,-373.500,-371.000
2.218,-358.500,-339.000,-374.500,-371.500
2.219,-357.000,-337.500,-372.500,-370.000
2.220,-353.500,-334.000,-368.500,-366.000
2.221,-349.000,-329.000,-363.500,-361.000
2.222,-344.500,-324.000,-358.000,-355.500
2.223,-339.500,-318.500,-352.500,-350.500
2.224,-334.500,-312.500,-347.000,-345.000
2.225,-329.000,-306.500,-341.000,-339.000
2.226,-323.000,-299.500,-334.500,-332.000
2.227,-316.000,-291.500,-327.000,-325.000
2.228,-309.000,-284.000,-320.000,-317.500
2.229,-303.000,-277.500,-313.500,-311.000
2.230,-299.000,-273.000,-309.500,-307.000
2.231,-298.500,-272.500,-308.500,-306.500
2.232,-300.500,-274.500,-311.000,-309.000
2.233,-304.500,-279.000,-315.500,-313.500
2.234,-309.500,-284.500,-321.000,-319.000
2.235,-315.000,-290.500,-327.000,-325.000
2.236,-320.500,-297.000,-333.000,-331.500
2.237,-326.500,-303.500,-339.500,-338.000
2.238,-333.500,-311.000,-347.000,-345.500
2.239,-342.000,-319.500,-355.500,-354.500
2.240,-350.000,-328.000,-364.000,-363.500
2.241,-356.500,-334.500,-371.000,-370.500
2.242,-360.000,-338.500,-375.000,-374.500
2.243,-360.500,-339.000,-375.500,-375.000
2.244,-359.000,-338.000,-374.500,-374.000
2.245,-357.000,-335.500,-372.000,-371.500
2.246,-354.500,-333.000,-369.500,-368.500
2.247,-352.000,-330.500,-366.500,-365.500
2.248,-350.000,-328.000,-364.000,-362.500
2.249,-348.500,-326.500,-362.500,-360.500
2.250,-347.000,-325.000,-361.000,-358.500
2.251,-345.500,-323.000,-359.000,-356.500
2.252,-343.500,-321.000,-357.000,-354.500
2.253,-342.000,-319.500,-354.500,-352.500
2.254,-340.500,-318.000,-353.500,-351.000
2.255,-340.000,-317.000,-352.000,-350.500
2.256,-338.500,-315.500,-350.500,-349.000
2.257,-335.000,-312.500,-347.000,-346.000
2.258,-331.000,-308.000,-343.000,-342.000
2.259,-327.000,-304.500,-339.500,-339.000
2.260,-324.000,-302.500,-338.000,-337.500
2.261,-323.500,-302.500,-338.000,-338.000
2.262,-324.500,-304.000,-340.000,-340.000
2.263,-326.500,-306.500,-342.500,-342.500
2.264,-329.500,-309.000,-345.000,-345.500
2.265,-332.500,-311.500,-347.500,-347.500
2.266,-334.000,-312.500,-348.500,-348.000
2.267,-335.000,-312.500,-348.000,-347.500
2.268,-335.500,-312.500,-347.500,-347.000
2.269,-336.500,-312.500,-347.000,-347.000
2.270,-337.000,-313.000,-347.500,-347.000
2.271,-337.500,-313.500,-348.000,-347.500
2.272,-339.000,-315.000,-349.000,-349.000
2.273,-340.500,-316.500,-351.000,-351.000
2.274,-342.000,-318.500,-353.500,-353.000
2.275,-343.500,-320.000,-355.000,-355.000
2.276,-345.000,-321.500,-356.500,-356.500
2.277,-345.500,-322.500,-357.500,-357.500
2.278,-345.500,-323.000,-358.000,-358.000
2.279,-345.500,-323.000,-358.000,-358.000
2.280,-345.000,-322.500,-357.500,-357.500
2.281,-344.500,-322.000,-357.000,-357.000
2.282,-344.500,-322.000,-357.000,-357.000
2.283,-345.000,-322.500,-357.500,-357.500
2.284,-344.000,-321.500,-356.000,-356.000
2.285,-341.500,-318.500,-353.000,-353.000
2.286,-337.500,-315.000,-349.000,-349.000
2.287,-334.500,-311.000,-345.000,-345.000
2.288,-332.500,-309.500,-342.500,-342.500
2.289,-333.000,-310.000,-343.000,-342.500
2.290,-336.500,-313.500,-345.500,-345.500
2.291,-341.500,-318.500,-351.000,-350.500
2.292,-347.000,-324.500,-356.500,-356.000
2.293,-351.500,-329.000,-361.500,-361.000
2.294,-353.500,-331.500,-364.000,-363.500
2.295,-353.500,-331.500,-364.500,-364.500
2.296,-352.000,-330.500,-364.000,-364.500
2.297,-350.000,-329.500,-363.000,-363.500
2.298,-348.000,-328.000,-362.000,-362.500
2.299,-345.500,-326.000,-360.500,-361.000
2.300,-342.500,-323.500,-358.500,-359.000
2.301,-339.500,-320.500,-355.500,-356.000
2.302,-336.500,-317.000,-352.000,-353.000
2.303,-334.000,-314.500,-349.000,-350.000
2.304,-333.000,-312.500,-346.500,-347.500
2.305,-332.000,-310.500,-344.000,-345.000
2.306,-330.500,-308.500,-341.500,-342.500
2.307,-328.000,-305.500,-338.000,-339.500
2.308,-325.500,-302.500,-334.500,-336.000
2.309,-324.500,-300.500,-332.500,-334.000
2.310,-326.500,-301.500,-334.000,-335.000
2.311,-330.000,-305.000,-337.500,-338.500
2.312,-333.000,-308.000,-340.500,-341.000
2.313,-332.000,-307.500,-340.000,-340.500
2.314,-327.000,-303.000,-336.000,-336.000
2.315,-320.500,-297.000,-330.000,-330.000
2.316,-314.500,-291.500,-325.000,-325.000
2.317,-311.500,-289.500,-323.000,-323.000
2.318,-312.000,-290.500,-324.000,-324.500
2.319,-316.500,-294.500,-328.500,-329.000
2.320,-323.500,-301.500,-335.500,-336.500
2.321,-332.000,-310.000,-344.000,-345.500
2.322,-341.000,-319.000,-352.000,-354.000
2.323,-348.500,-327.000,-359.500,-362.000
2.324,-354.500,-333.000,-365.000,-367.500
2.325,-358.500,-336.500,-368.000,-370.500
2.326,-359.500,-337.500,-368.500,-371.000
2.327,-359.000,-336.500,-366.500,-368.500
2.328,-356.500,-333.500,-363.500,-365.000
2.329,-354.000,-330.000,-359.500,-360.500
2.330,-351.500,-327.000,-356.500,-357.000
2.331,-350.000,-325.000,-354.000,-354.500
2.332,-348.000,-323.000,-352.500,-352.500
2.333,-345.500,-321.000,-350.500,-351.000
2.334,-343.000,-319.000,-349.000,-349.000
2.335,-340.000,-317.500,-347.500,-347.500
2.336,-338.000,-316.500,-347.000,-347.000
2.337,-337.500,-317.000,-348.000,-348.000
2.338,-339.000,-319.000,-350.000,-350.500
2.339,-340.000,-321.000,-352.500,-353.000
2.340,-340.500,-322.500,-353.500,-354.500
2.341,-339.500,-322.000,-353.500,-354.500
2.342,-337.500,-320.500,-352.000,-353.000
2.343,-334.000,-318.000,-349.000,-350.500
2.344,-331.000,-314.500,-346.000,-347.500
2.345,-328.500,-311.000,-342.500,-344.500
2.346,-327.500,-308.500,-340.500,-342.500
2.347,-329.000,-308.000,-340.000,-342.000
2.348,-331.500,-309.000,-341.000,-343.000
2.349,-334.000,-310.000,-342.000,-343.500
2.350,-335.500,-310.500,-342.500,-343.500
2.351,-335.500,-310.000,-341.500,-342.000
2.352,-334.000,-308.000,-339.000,-339.500
2.353,-331.000,-305.000,-336.000,-336.500
2.354,-326.500,-301.000,-332.000,-333.000
2.355,-320.500,-295.000,-327.000,-328.500
2.356,-313.000,-288.500,-321.000,-323.000
2.357,-305.500,-281.000,-314.000,-316.500
2.358,-298.000,-274.000,-307.500,-310.000
2.359,-291.500,-268.000,-301.500,-304.500
2.360,-286.500,-263.500,-297.000,-300.000
2.361,-283.500,-261.000,-294.500,-297.500
2.362,-282.500,-260.500,-293.500,-297.000
2.363,-282.500,-260.500,-293.500,-297.000
2.364,-283.500,-262.000,-295.500,-298.500
2.365,-287.000,-265.500,-298.500,-301.500
2.366,-292.000,-269.500,-303.000,-305.500
2.367,-297.000,-274.000,-306.500,-309.000
2.368,-300.500,-277.000,-309.500,-311.500
2.369,-303.000,-278.500,-310.500,-312.500
2.370,-303.500,-278.500,-310.500,-312.500
2.371,-304.000,-278.500,-310.500,-312.500
2.372,-304.500,-279.000,-311.500,-313.500
2.373,-306.000,-280.000,-312.500,-315.000
2.374,-307.500,-281.500,-314.000,-317.000
2.375,-308.500,-283.000,-315.500,-319.000
2.376,-308.000,-283.000,-316.000,-319.500
2.377,-306.000,-281.500,-314.500,-318.500
2.378,-304.000,-279.500,-313.000,-317.000
2.379,-302.000,-278.000,-312.000,-316.500
2.380,-301.500,-278.000,-312.000,-316.500
2.381,-301.500,-278.000,-312.500,-317.000
2.382,-301.000,-278.500,-312.500,-317.000
2.383,-299.500,-277.000,-311.000,-315.500
2.384,-296.000,-273.500,-307.500,-312.000
2.385,-290.500,-268.500,-301.500,-306.000
2.386,-284.500,-262.000,-295.000,-299.000
2.387,-278.000,-255.000,-287.500,-292.000
2.388,-272.500,-249.000,-281.000,-285.000
2.389,-268.000,-244.000,-275.500,-280.000
2.390,-265.500,-241.000,-272.000,-276.000
2.391,-264.500,-240.000,-270.000,-274.500
2.392,-266.000,-241.000,-271.000,-275.500
2.393,-269.500,-244.500,-274.500,-279.000
2.394,-273.500,-249.000,-278.500,-283.500
2.395,-276.500,-252.500,-282.000,-287.000
2.396,-278.000,-254.000,-283.500,-289.000
2.397,-278.000,-254.000,-284.000,-289.500
2.398,-278.500,-255.000,-285.500,-291.000
2.399,-281.000,-258.000,-288.500,-294.500
2.400,-286.000,-263.500,-295.000,-300.500
2.401,-293.500,-271.000,-303.500,-309.000
2.402,-302.000,-280.500,-313.000,-318.500
2.403,-310.500,-289.500,-322.000,-328.000
2.404,-317.500,-296.500,-329.000,-335.000
2.405,-321.500,-300.500,-333.000,-339.000
2.406,-323.000,-301.000,-333.500,-339.500
2.407,-321.000,-299.000,-331.000,-336.500
2.408,-317.000,-294.000,-326.000,-331.500
2.409,-312.000,-288.000,-320.000,-325.500
2.410,-306.500,-282.000,-313.500,-319.000
2.411,-301.000,-276.000,-307.500,-312.500
2.412,-296.000,-271.000,-302.500,-307.500
2.413,-293.000,-267.500,-299.000,-304.000
2.414,-293.000,-267.500,-299.000,-304.000
2.415,-296.000,-271.000,-303.000,-308.000
2.416,-302.500,-278.000,-310.500,-315.500
2.417,-312.000,-288.000,-321.000,-326.000
2.418,-323.000,-300.000,-333.000,-338.500
2.419,-334.500,-312.000,-345.500,-351.000
2.420,-345.000,-323.000,-356.000,-362.000
2.421,-353.000,-331.500,-364.000,-370.500
2.422,-358.500,-337.000,-369.500,-376.000
2.423,-362.000,-340.000,-372.000,-378.500
2.424,-363.000,-341.000,-373.000,-379.500
2.425,-364.000,-341.000,-373.500,-380.000
2.426,-364.500,-341.000,-374.000,-380.000
2.427,-364.500,-340.500,-373.500,-379.000
2.428,-363.000,-339.000,-372.500,-377.500
2.429,-361.500,-337.000,-371.000,-375.500
2.430,-359.500,-335.500,-369.000,-373.500
2.431,-358.000,-333.500,-367.000,-371.500
2.432,-356.000,-331.500,-364.500,-369.000
2.433,-353.000,-328.500,-361.000,-366.000
2.434,-349.000,-325.500,-357.500,-362.500
2.435,-345.500,-322.500,-354.500,-359.500
2.436,-342.500,-320.000,-351.500,-357.000
2.437,-340.000,-318.000,-350.000,-356.000
2.438,-338.000,-317.000,-349.000,-355.500
2.439,-337.000,-317.000,-349.500,-356.000
2.440,-337.000,-318.000,-350.500,-357.500
2.441,-337.500,-319.500,-352.000,-359.500
2.442,-338.500,-321.000,-353.500,-361.000
2.443,-340.000,-322.500,-354.500,-362.500
2.444,-341.000,-323.000,-355.000,-363.000
2.445,-342.000,-323.000,-355.000,-363.500
2.446,-342.500,-323.000,-354.500,-363.000
2.447,-342.500,-322.000,-353.500,-361.500
2.448,-341.500,-320.000,-352.000,-359.500
2.449,-340.000,-318.000,-349.000,-356.500
2.450,-337.500,-315.000,-346.000,-353.000
2.451,-335.000,-312.500,-343.000,-349.500
2.452,-333.000,-310.500,-340.500,-347.000
2.453,-333.500,-311.000,-340.500,-347.500
2.454,-336.500,-314.500,-343.500,-350.500
2.455,-341.500,-320.000,-349.000,-356.500
2.456,-346.000,-325.000,-354.000,-362.000
2.457,-349.000,-328.000,-357.500,-365.500
2.458,-349.000,-328.500,-358.500,-367.000
2.459,-348.000,-328.000,-358.500,-367.000
2.460,-347.500,-327.500,-359.000,-367.500
2.461,-348.000,-329.000,-360.500,-369.000
2.462,-350.500,-331.500,-363.500,-372.000
2.463,-354.000,-335.500,-367.000,-376.000
2.464,-357.000,-338.500,-370.500,-379.500
2.465,-359.000,-341.000,-372.500,-381.000
2.466,-359.500,-341.500,-373.000,-381.500
2.467,-359.500,-341.500,-373.000,-381.000
2.468,-361.000,-343.500,-374.000,-382.000
2.469,-365.000,-347.000,-377.000,-384.500
2.470,-369.000,-350.500,-380.000,-387.500
2.471,-370.500,-352.000,-380.500,-388.000
2.472,-366.500,-347.500,-376.000,-383.000
2.473,-356.500,-337.000,-365.000,-372.500
2.474,-340.500,-321.500,-349.000,-356.500
2.475,-321.000,-301.500,-329.000,-337.000
2.476,-298.500,-278.500,-306.000,-314.000
2.477,-273.000,-252.500,-279.500,-288.000
2.478,-244.000,-223.500,-250.500,-258.500
2.479,-212.500,-191.500,-218.000,-226.500
2.480,-179.500,-158.500,-185.000,-193.000
2.481,-147.500,-125.500,-152.000,-160.000
2.482,-116.500,-94.500,-120.000,-128.000
2.483,-85.500,-63.000,-88.500,-96.000
2.484,-52.000,-28.500,-53.500,-60.500
2.485,-13.000,11.000,-13.500,-20.000
2.486,32.000,56.000,31.500,26.500
2.487,79.500,104.000,80.000,75.500
2.488,126.500,152.000,128.000,124.500
2.489,172.500,198.000,175.000,172.000
2.490,216.000,242.500,220.500,217.500
2.491,258.500,285.500,264.500,261.500
2.492,300.500,328.000,307.500,305.000
2.493,340.000,368.000,348.500,345.500
2.494,373.500,402.500,383.500,380.500
2.495,396.000,425.500,407.000,403.500
2.496,402.000,431.500,413.500,409.000
2.497,388.500,418.500,400.000,395.000
2.498,356.500,386.000,367.500,362.000
2.499,310.500,340.000,320.500,314.000
2.500,256.500,285.500,265.500,258.500
2.501,200.000,227.500,207.000,199.500
2.502,143.500,170.000,148.500,141.000
2.503,90.000,115.500,93.500,85.000
2.504,41.000,65.500,42.500,34.000
2.505,-1.500,21.500,-2.000,-11.000
2.506,-37.500,-15.500,-40.000,-49.500
2.507,-69.000,-48.000,-73.000,-83.000
2.508,-99.500,-78.500,-104.000,-114.000
2.509,-130.000,-109.000,-135.000,-145.500
2.510,-162.500,-140.500,-167.000,-177.500
2.511,-193.500,-171.500,-198.000,-209.000
2.512,-221.500,-198.500,-226.000,-236.500
2.513,-243.000,-220.500,-248.000,-259.000
2.514,-258.500,-236.000,-264.000,-275.000
2.515,-270.000,-247.500,-276.000,-287.000
2.516,-278.500,-256.500,-285.000,-296.500
2.517,-285.500,-264.500,-293.000,-305.000
2.518,-291.500,-271.000,-299.500,-312.500
2.519,-295.500,-275.500,-304.500,-317.000
2.520,-296.000,-276.500,-306.000,-318.500
2.521,-294.000,-275.000,-305.000,-317.500
2.522,-292.500,-273.500,-303.000,-316.000
2.523,-292.000,-273.000,-302.500,-315.000
2.524,-293.000,-273.500,-302.500,-315.000
2.525,-293.500,-273.500,-302.500,-315.000
2.526,-294.000,-273.000,-301.500,-314.000
2.527,-295.000,-273.500,-302.000,-314.000
2.528,-298.000,-276.000,-304.000,-316.000
2.529,-303.000,-280.500,-308.000,-319.500
2.530,-307.500,-285.000,-312.500,-323.500
2.531,-310.500,-288.000,-316.000,-327.000
2.532,-312.000,-290.000,-317.500,-328.500
2.533,-312.500,-290.500,-318.000,-329.000
2.534,-312.500,-290.500,-318.000,-329.000
2.535,-312.500,-291.000,-318.000,-329.500
2.536,-313.000,-292.000,-319.500,-331.000
2.537,-315.500,-295.000,-322.000,-334.000
2.538,-318.500,-299.000,-326.000,-338.000
2.539,-322.500,-303.000,-330.000,-342.000
2.540,-325.000,-306.000,-333.000,-344.500
2.541,-326.000,-307.500,-334.500,-345.500
2.542,-325.500,-307.000,-334.500,-345.000
2.543,-323.000,-304.500,-332.500,-343.000
2.544,-319.500,-301.500,-329.500,-339.500
2.545,-315.500,-297.500,-326.000,-336.000
2.546,-311.000,-293.000,-322.000,-332.000
2.547,-308.000,-290.000,-319.000,-329.000
2.548,-307.000,-288.500,-317.500,-327.500
2.549,-308.000,-289.500,-318.000,-328.000
2.550,-311.000,-291.500,-320.500,-330.000
2.551,-313.500,-294.000,-322.500,-332.000
2.552,-314.500,-295.000,-323.500,-333.000
2.553,-313.000,-294.000,-322.000,-331.500
2.554,-310.000,-291.000,-319.000,-328.500
2.555,-306.000,-287.500,-315.500,-325.000
2.556,-303.000,-285.000,-312.500,-323.000
2.557,-301.000,-283.500,-311.500,-322.500
2.558,-302.000,-285.000,-312.500,-324.000
2.559,-305.000,-288.000,-315.500,-328.000
2.560,-309.500,-293.500,-320.500,-333.500
2.561,-315.500,-299.000,-326.000,-339.500
2.562,-320.500,-305.000,-331.500,-345.000
2.563,-325.000,-309.500,-335.500,-349.500
2.564,-327.000,-311.500,-337.500,-351.000
2.565,-327.000,-311.500,-337.500,-351.000
2.566,-326.500,-311.000,-336.500,-350.000
2.567,-325.500,-309.500,-335.500,-348.500
2.568,-325.000,-308.500,-334.500,-347.500
2.569,-325.000,-308.000,-334.000,-346.500
2.570,-325.000,-306.500,-333.000,-345.000
2.571,-324.500,-305.500,-331.500,-344.000
2.572,-323.500,-304.000,-330.000,-342.000
2.573,-321.500,-301.500,-327.500,-340.000
2.574,-318.000,-298.500,-323.500,-336.500
2.575,-313.000,-294.000,-319.500,-332.500
2.576,-309.000,-291.000,-316.000,-329.000
2.577,-307.000,-289.500,-314.500,-328.000
2.578,-307.500,-290.500,-316.000,-329.500
2.579,-309.000,-293.000,-318.500,-332.000
2.580,-310.500,-294.500,-320.500,-333.500
2.581,-310.000,-295.000,-321.000,-334.000
2.582,-308.500,-293.500,-319.500,-332.500
2.583,-306.000,-291.000,-317.000,-330.000
2.584,-303.500,-288.500,-315.000,-327.500
2.585,-302.000,-287.000,-313.500,-326.000
2.586,-302.000,-287.000,-313.500,-326.000
2.587,-304.000,-288.500,-315.000,-327.500
2.588,-306.500,-290.500,-317.000,-329.000
2.589,-308.000,-291.500,-318.000,-329.500
2.590,-308.000,-290.500,-317.000,-328.000
2.591,-305.500,-287.500,-314.000,-324.000
2.592,-302.000,-283.500,-310.000,-319.500
2.593,-298.000,-280.000,-305.500,-315.000
2.594,-295.000,-277.500,-303.000,-312.000
2.595,-295.000,-277.000,-302.500,-312.000
2.596,-297.500,-280.500,-306.000,-315.000
2.597,-304.500,-287.500,-313.000,-322.500
2.598,-313.500,-297.000,-322.500,-332.000
2.599,-321.500,-305.500,-331.500,-341.000
2.600,-325.500,-310.500,-336.500,-345.500
2.601,-325.500,-310.500,-336.500,-346.000
2.602,-323.000,-308.000,-334.500,-344.000
2.603,-321.000,-305.500,-332.500,-342.000
2.604,-320.500,-304.500,-331.500,-341.000
2.605,-321.500,-305.000,-332.000,-341.500
2.606,-323.000,-306.500,-333.000,-342.500
2.607,-323.500,-307.000,-333.000,-342.500
2.608,-323.000,-306.000,-331.000,-341.000
2.609,-320.000,-302.500,-327.500,-337.500
2.610,-316.500,-298.500,-323.000,-333.000
2.611,-312.500,-294.000,-318.000,-328.500
2.612,-308.000,-289.000,-313.500,-324.000
2.613,-302.000,-283.000,-308.000,-318.500
2.614,-295.000,-276.000,-301.500,-312.000
2.615,-288.500,-269.500,-296.000,-306.000
2.616,-284.000,-265.500,-292.500,-302.500
2.617,-282.500,-264.000,-291.500,-301.000
2.618,-282.500,-265.000,-292.500,-302.000
2.619,-285.000,-267.500,-295.000,-304.000
2.620,-288.500,-271.500,-298.500,-308.000
2.621,-293.500,-276.500,-303.000,-312.500
2.622,-298.500,-281.500,-308.000,-318.000
2.623,-303.500,-286.500,-313.500,-323.000
2.624,-308.000,-291.000,-318.000,-327.500
2.625,-311.500,-294.500,-321.500,-330.500
2.626,-313.000,-296.000,-323.000,-332.000
2.627,-313.000,-296.000,-323.000,-331.500
2.628,-312.000,-295.000,-322.000,-330.000
2.629,-310.500,-293.500,-320.500,-328.000
2.630,-309.500,-292.000,-318.500,-326.000
2.631,-308.000,-290.500,-316.500,-324.000
2.632,-306.000,-288.500,-314.000,-321.500
2.633,-303.500,-286.000,-311.500,-319.000
2.634,-300.500,-283.000,-308.500,-316.000
2.635,-297.500,-280.000,-305.500,-313.000
2.636,-294.500,-277.000,-303.000,-310.500
2.637,-292.500,-275.000,-301.000,-308.500
2.638,-291.500,-274.000,-300.500,-308.000
2.639,-292.000,-275.000,-300.500,-308.500
2.640,-293.500,-276.000,-301.500,-309.500
2.641,-294.500,-277.500,-302.000,-310.500
2.642,-295.500,-278.500,-303.000,-311.500
2.643,-296.500,-280.000,-304.000,-313.000
2.644,-298.500,-282.500,-305.500,-315.000
2.645,-300.000,-285.000,-307.500,-317.000
2.646,-301.000,-286.500,-309.000,-318.000
2.647,-301.000,-287.000,-309.000,-317.500
2.648,-299.000,-285.500,-307.000,-315.500
2.649,-296.000,-282.000,-303.000,-311.500
2.650,-292.000,-277.500,-298.500,-307.000
2.651,-288.000,-272.000,-293.000,-301.500
2.652,-283.500,-266.500,-288.000,-296.500
2.653,-279.000,-261.500,-283.000,-292.000
2.654,-275.000,-257.500,-279.000,-288.000
2.655,-272.500,-254.500,-277.000,-286.000
2.656,-271.000,-253.500,-276.500,-286.000
2.657,-271.000,-254.500,-278.000,-288.000
2.658,-273.000,-256.500,-281.000,-291.500
2.659,-275.500,-259.500,-285.000,-295.500
2.660,-278.000,-262.500,-288.500,-299.000
2.661,-280.500,-265.500,-291.500,-302.000
2.662,-282.500,-267.500,-294.000,-304.500
2.663,-283.500,-268.500,-295.000,-305.500
2.664,-284.000,-268.500,-294.500,-305.500
2.665,-283.500,-267.500,-293.500,-304.500
2.666,-283.000,-266.000,-291.500,-302.500
2.667,-281.500,-264.000,-288.500,-300.000
2.668,-279.000,-261.000,-285.000,-296.500
2.669,-276.500,-257.500,-281.500,-293.000
2.670,-273.500,-254.000,-278.500,-289.500
2.671,-270.500,-251.000,-275.000,-286.000
2.672,-266.500,-247.000,-271.500,-282.500
2.673,-261.000,-242.000,-266.500,-277.500
2.674,-254.000,-235.000,-259.500,-271.000
2.675,-245.500,-227.000,-251.000,-263.000
2.676,-236.500,-218.000,-242.000,-255.000
2.677,-228.500,-210.500,-235.500,-248.000
2.678,-224.000,-207.000,-232.000,-245.000
2.679,-224.500,-207.500,-233.500,-246.000
2.680,-228.000,-211.500,-238.000,-250.500
2.681,-234.500,-217.500,-244.500,-256.000
2.682,-241.500,-224.500,-251.000,-263.000
2.683,-248.000,-231.500,-257.500,-269.000
2.684,-253.000,-236.000,-262.000,-273.500
2.685,-254.500,-237.500,-263.500,-274.500
2.686,-252.500,-235.500,-261.000,-271.500
2.687,-247.000,-230.000,-256.000,-265.500
2.688,-240.500,-223.500,-249.500,-258.500
2.689,-235.500,-217.500,-244.000,-252.500
2.690,-232.500,-214.500,-240.500,-249.000
2.691,-232.500,-213.500,-239.500,-247.500
2.692,-233.000,-213.500,-239.000,-246.500
2.693,-232.500,-212.500,-238.000,-245.500
2.694,-230.500,-211.000,-236.000,-243.000
2.695,-228.000,-209.000,-233.500,-241.000
2.696,-226.000,-208.000,-232.500,-240.000
2.697,-226.000,-209.000,-233.500,-241.500
2.698,-228.500,-212.500,-237.000,-245.000
2.699,-232.500,-217.000,-242.000,-250.000
2.700,-236.000,-221.000,-246.000,-254.500
2.701,-237.500,-222.500,-247.000,-256.000
2.702,-235.000,-220.000,-244.500,-253.500
2.703,-229.500,-214.500,-239.000,-248.000
2.704,-223.000,-207.500,-231.500,-241.000
2.705,-216.500,-200.500,-224.500,-234.000
2.706,-211.000,-194.000,-218.000,-227.000
2.707,-206.500,-188.500,-212.000,-221.000
2.708,-203.000,-183.500,-207.000,-216.000
2.709,-199.500,-179.000,-202.500,-211.000
2.710,-195.500,-174.500,-198.000,-206.000
2.711,-191.500,-170.000,-193.500,-201.000
2.712,-188.500,-166.500,-190.500,-197.500
2.713,-187.000,-165.500,-189.000,-196.000
2.714,-187.500,-166.000,-189.500,-196.000
2.715,-189.000,-168.000,-191.000,-198.000
2.716,-191.000,-170.000,-193.000,-200.000
2.717,-192.500,-171.500,-194.500,-202.000
2.718,-192.000,-171.000,-194.000,-202.500
2.719,-189.000,-168.500,-192.000,-200.500
2.720,-183.500,-163.500,-186.500,-195.500
2.721,-175.000,-155.500,-178.500,-188.000
2.722,-165.000,-145.500,-168.500,-178.500
2.723,-155.000,-135.500,-159.000,-168.500
2.724,-147.000,-127.500,-150.500,-160.500
2.725,-141.500,-122.000,-144.500,-154.500
2.726,-140.000,-119.500,-142.000,-152.000
2.727,-141.000,-119.500,-141.500,-152.000
2.728,-143.000,-121.000,-142.500,-153.000
2.729,-145.000,-122.000,-143.500,-153.500
2.730,-146.000,-122.500,-144.000,-154.000
2.731,-146.000,-122.000,-143.500,-153.000
2.732,-145.500,-121.000,-142.500,-151.500
2.733,-143.500,-119.000,-140.000,-149.500
2.734,-140.000,-116.000,-137.000,-146.000
2.735,-135.000,-111.500,-132.500,-141.000
2.736,-128.000,-105.500,-126.500,-135.000
2.737,-120.000,-98.500,-120.000,-128.000
2.738,-113.000,-92.000,-114.000,-121.500
2.739,-107.000,-87.000,-109.500,-117.000
2.740,-103.500,-84.000,-106.500,-114.000
2.741,-101.500,-82.000,-104.500,-112.000
2.742,-100.000,-80.500,-103.000,-110.500
2.743,-99.000,-79.500,-101.500,-109.000
2.744,-97.500,-78.000,-99.000,-106.500
2.745,-94.500,-75.000,-95.000,-102.500
2.746,-90.000,-71.000,-90.000,-97.000
2.747,-85.000,-66.500,-84.500,-91.500
2.748,-81.000,-62.500,-80.000,-87.000
2.749,-80.000,-61.000,-78.500,-85.500
2.750,-82.500,-63.000,-80.500,-87.500
2.751,-88.500,-68.000,-86.000,-93.500
2.752,-94.500,-73.500,-92.500,-100.000
2.753,-97.000,-76.500,-96.000,-103.500
2.754,-95.000,-74.500,-95.000,-103.500
2.755,-90.000,-70.000,-91.500,-100.500
2.756,-84.500,-65.500,-88.000,-97.000
2.757,-82.000,-63.000,-86.000,-96.000
2.758,-82.500,-63.500,-87.500,-98.000
2.759,-86.500,-67.500,-92.000,-103.000
2.760,-92.500,-73.500,-98.000,-109.000
2.761,-97.500,-79.000,-103.000,-114.500
2.762,-102.000,-83.000,-106.500,-118.500
2.763,-105.500,-86.500,-109.000,-121.500
2.764,-108.500,-89.500,-111.000,-123.000
2.765,-110.500,-91.000,-112.000,-124.000
2.766,-110.500,-90.500,-111.000,-123.000
2.767,-107.500,-88.000,-108.000,-120.000
2.768,-103.500,-83.500,-103.500,-115.000
2.769,-99.500,-79.000,-99.500,-111.000
2.770,-97.500,-77.000,-98.000,-109.000
2.771,-99.500,-79.000,-100.000,-111.000
2.772,-104.500,-84.000,-105.000,-116.000
2.773,-112.000,-91.500,-112.500,-124.000
2.774,-120.500,-100.000,-121.500,-133.000
2.775,-129.000,-108.500,-130.500,-142.000
2.776,-136.500,-117.000,-139.000,-150.500
2.777,-143.500,-124.500,-147.500,-159.000
2.778,-150.500,-132.500,-156.000,-167.500
2.779,-158.000,-140.500,-165.000,-177.000
2.780,-165.000,-149.000,-174.000,-185.500
2.781,-172.000,-156.500,-182.000,-194.000
2.782,-179.000,-164.000,-189.500,-201.000
2.783,-185.500,-170.500,-196.000,-208.000
2.784,-191.500,-177.000,-202.000,-214.000
2.785,-197.000,-182.000,-207.000,-219.000
2.786,-201.000,-186.000,-210.500,-222.500
2.787,-205.000,-189.500,-213.500,-225.000
2.788,-209.500,-193.000,-216.500,-228.000
2.789,-214.500,-197.500,-220.500,-231.500
2.790,-220.000,-201.500,-224.500,-235.000
2.791,-224.500,-205.500,-228.000,-238.000
2.792,-228.500,-208.500,-231.000,-241.000
2.793,-232.000,-212.000,-234.500,-244.500
2.794,-235.500,-215.000,-238.000,-248.500
2.795,-238.000,-218.000,-241.500,-252.500
2.796,-240.000,-220.500,-244.500,-255.500
2.797,-241.000,-221.500,-246.000,-257.500
2.798,-241.000,-222.500,-246.500,-258.500
2.799,-241.500,-223.500,-248.000,-260.000
2.800,-244.000,-226.000,-250.500,-262.500
2.801,-248.500,-231.000,-255.000,-267.500
2.802,-254.500,-237.000,-261.500,-274.000
2.803,-260.000,-243.000,-268.000,-280.000
2.804,-265.000,-247.500,-273.000,-285.500
2.805,-268.000,-251.000,-277.000,-289.000
2.806,-270.500,-253.500,-279.500,-291.500
2.807,-274.000,-256.500,-282.500,-294.000
2.808,-278.500,-260.500,-286.500,-298.000
2.809,-284.000,-266.000,-291.000,-302.500
2.810,-290.500,-271.500,-296.500,-308.000
2.811,-296.000,-277.000,-301.500,-313.000
2.812,-300.500,-281.500,-305.500,-317.500
2.813,-303.000,-284.500,-308.000,-320.000
2.814,-304.000,-286.000,-309.500,-321.500
2.815,-304.000,-286.500,-310.000,-322.500
2.816,-304.500,-287.000,-310.500,-323.500
2.817,-304.500,-288.000,-311.000,-324.000
2.818,-305.000,-288.500,-311.000,-324.500
2.819,-305.000,-288.500,-311.000,-324.500
2.820,-304.500,-288.500,-310.500,-324.500
2.821,-305.000,-289.000,-311.000,-325.000
2.822,-306.000,-290.500,-312.000,-326.500
2.823,-307.500,-292.000,-313.500,-327.500
2.824,-308.000,-292.000,-314.000,-328.000
2.825,-306.500,-291.000,-312.500,-326.500
2.826,-303.500,-287.500,-309.500,-323.000
2.827,-300.000,-283.500,-306.000,-318.500
2.828,-298.000,-280.500,-303.500,-316.000
2.829,-298.500,-280.500,-303.500,-316.000
2.830,-301.500,-283.000,-306.500,-318.500
2.831,-305.500,-287.500,-311.000,-323.000
2.832,-309.000,-291.500,-315.000,-327.000
2.833,-311.000,-293.500,-317.000,-329.000
2.834,-311.000,-294.000,-317.500,-329.500
2.835,-311.500,-295.000,-318.000,-330.000
2.836,-313.500,-297.000,-320.500,-332.000
2.837,-317.000,-300.500,-324.500,-336.000
2.838,-321.000,-304.500,-328.500,-340.500
2.839,-324.500,-308.000,-332.000,-344.000
2.840,-326.000,-309.000,-334.000,-346.000
2.841,-326.000,-309.000,-334.000,-346.000
2.842,-325.500,-308.500,-334.000,-346.000
2.843,-327.000,-310.000,-335.000,-347.500
2.844,-330.500,-313.500,-339.000,-351.000
2.845,-336.000,-318.500,-344.000,-356.000
2.846,-341.500,-324.000,-349.000,-360.500
2.847,-345.500,-328.000,-352.500,-363.500
2.848,-348.500,-330.000,-354.500,-365.000
2.849,-350.000,-331.000,-355.000,-365.500
2.850,-351.000,-331.500,-355.500,-365.500
2.851,-350.500,-331.500,-354.500,-364.500
2.852,-349.000,-330.000,-353.000,-363.000
2.853,-347.000,-328.000,-351.500,-361.500
2.854,-346.000,-326.500,-351.000,-360.500
2.855,-345.000,-326.000,-350.500,-360.500
2.856,-344.000,-325.500,-351.000,-360.500
2.857,-342.000,-324.500,-350.500,-360.000
2.858,-339.500,-322.000,-348.500,-358.000
2.859,-335.500,-318.500,-345.000,-354.500
2.860,-331.000,-314.500,-341.000,-350.500
2.861,-326.000,-310.500,-336.500,-346.000
2.862,-321.500,-306.000,-331.500,-341.500
2.863,-317.500,-302.500,-327.500,-337.500
2.864,-315.000,-300.000,-324.500,-335.000
2.865,-314.000,-299.000,-323.000,-333.500
2.866,-315.500,-299.500,-323.500,-334.000
2.867,-318.500,-302.000,-325.500,-336.000
2.868,-323.000,-306.000,-329.500,-339.500
2.869,-328.000,-310.000,-334.000,-343.500
2.870,-332.000,-313.000,-337.000,-346.000
2.871,-333.500,-314.000,-337.500,-346.500
2.872,-332.000,-312.000,-335.500,-345.000
2.873,-328.500,-309.000,-332.000,-341.500
2.874,-324.000,-305.000,-328.500,-337.500
2.875,-319.500,-300.500,-324.500,-333.500
2.876,-314.500,-296.500,-320.500,-330.000
2.877,-309.500,-292.000,-316.500,-326.000
