'Elapsed time','AECG1','AECG2','AECG3','AECG4'
'seconds','uV','uV','uV','uV'
0.000,27.500,15.000,21.500,24.000
0.001,27.000,14.000,20.500,23.500
0.002,27.000,13.500,20.000,23.000
0.003,26.500,13.000,19.500,22.500
0.004,26.500,12.500,19.000,22.500
0.005,26.000,12.500,18.500,22.500
0.006,26.000,12.500,18.000,22.500
0.007,25.500,12.500,18.000,22.000
0.008,25.500,13.000,18.500,22.500
0.009,25.500,13.000,18.500,22.500
0.010,26.000,14.000,19.000,22.500
0.011,26.000,14.500,19.000,23.000
0.012,26.500,15.000,19.500,23.500
0.013,26.500,15.500,19.500,23.500
0.014,27.000,16.000,20.000,23.500
0.015,26.500,15.500,19.500,23.500
0.016,26.500,15.000,19.000,23.000
0.017,26.500,14.000,18.500,22.500
0.018,26.500,13.000,17.500,22.000
0.019,26.500,11.500,16.500,21.500
0.020,26.500,10.500,16.000,21.000
0.021,26.500,9.500,15.000,20.000
0.022,27.000,9.000,14.500,19.500
0.023,27.000,8.500,13.500,19.000
0.024,27.000,8.500,13.500,19.000
0.025,26.500,8.500,13.500,18.500
0.026,26.500,9.000,13.500,19.000
0.027,26.000,9.000,13.500,19.000
0.028,26.000,9.500,14.000,20.000
0.029,26.000,10.000,14.000,20.500
0.030,26.000,11.000,14.500,21.000
0.031,25.500,11.500,14.500,21.500
0.032,26.000,12.500,15.000,22.500
0.033,26.000,13.500,15.000,23.000
0.034,26.500,14.000,15.500,23.500
0.035,26.500,14.500,15.500,23.500
0.036,26.500,15.000,16.000,23.500
0.037,26.500,15.000,15.500,23.000
0.038,27.000,14.500,16.000,23.000
0.039,27.000,14.000,15.500,23.000
0.040,27.000,13.000,16.000,23.500
0.041,27.000,12.000,16.000,23.500
0.042,27.000,11.500,16.500,24.000
0.043,27.000,11.000,16.500,24.500
0.044,27.000,10.500,17.500,25.500
0.045,26.500,10.500,18.000,26.000
0.046,26.500,11.000,19.000,26.500
0.047,26.500,11.500,20.000,27.000
0.048,26.500,12.500,21.500,28.000
0.049,26.500,13.500,22.500,29.000
0.050,26.500,15.000,24.000,30.500
0.051,26.000,16.000,25.000,31.500
0.052,26.000,17.500,26.500,32.500
0.053,26.000,19.000,27.500,33.500
0.054,26.000,20.000,28.500,34.500
0.055,26.000,20.500,28.500,34.500
0.056,26.500,21.000,29.000,35.000
0.057,26.500,21.000,29.500,35.000
0.058,27.000,21.000,29.500,35.500
0.059,27.000,20.500,29.500,36.000
0.060,27.500,20.000,29.500,36.000
0.061,27.500,20.000,29.500,36.000
0.062,28.000,20.000,30.000,36.000
0.063,28.000,19.500,30.500,36.000
0.064,28.000,20.000,30.500,36.000
0.065,27.500,20.000,31.000,36.000
0.066,27.500,20.500,31.500,36.000
0.067,27.500,21.000,32.000,36.000
0.068,27.500,22.000,32.500,36.500
0.069,27.000,23.000,33.000,37.000
0.070,27.000,24.000,34.000,38.000
0.071,26.500,24.500,34.500,38.500
0.072,27.000,25.000,35.000,39.500
0.073,27.000,25.500,35.500,39.500
0.074,27.500,26.000,36.500,40.000
0.075,27.500,26.500,36.500,40.000
0.076,27.500,26.500,36.500,40.500
0.077,27.000,26.500,36.500,40.000
0.078,27.000,26.000,36.500,40.000
0.079,27.000,25.500,36.000,39.500
0.080,27.000,25.000,36.000,39.000
0.081,27.000,24.000,35.500,38.500
0.082,27.500,23.500,35.500,38.500
0.083,27.500,22.500,35.000,38.000
0.084,27.500,22.500,35.000,38.000
0.085,27.500,22.000,35.000,38.000
0.086,28.000,22.000,35.500,38.000
0.087,28.000,22.500,36.000,38.000
0.088,28.000,23.000,36.500,38.000
0.089,27.500,23.500,37.000,38.500
0.090,27.500,24.000,38.000,39.000
0.091,27.000,25.000,39.000,39.000
0.092,27.000,26.000,40.000,40.000
0.093,26.500,27.000,40.500,40.000
0.094,27.000,27.500,41.000,40.500
0.095,27.000,27.500,41.000,40.000
0.096,27.000,28.000,41.000,40.000
0.097,27.500,27.500,40.500,39.500
0.098,28.000,27.500,40.000,39.000
0.099,28.000,26.500,39.000,38.000
0.100,28.500,26.000,38.500,37.500
0.101,28.500,25.000,38.000,37.000
0.102,28.500,24.500,37.500,36.500
0.103,28.500,23.500,37.000,36.000
0.104,28.500,23.000,37.000,35.500
0.105,28.000,22.500,36.500,35.000
0.106,28.000,22.500,36.500,35.000
0.107,28.000,22.500,36.500,35.000
0.108,28.500,23.000,37.000,35.500
0.109,28.500,23.500,37.000,35.500
0.110,28.500,24.500,38.000,36.000
0.111,28.500,25.500,38.500,36.000
0.112,28.500,26.500,39.000,37.000
0.113,28.500,27.500,39.500,37.000
0.114,28.500,28.000,39.500,37.500
0.115,28.500,28.500,39.500,37.500
0.116,29.000,28.500,39.000,38.000
0.117,28.500,28.000,38.500,37.500
0.118,29.000,27.500,38.000,37.500
0.119,29.000,26.500,37.500,37.000
0.120,29.000,25.500,37.500,37.000
0.121,29.000,24.500,37.000,36.500
0.122,29.500,23.500,37.000,36.500
0.123,29.500,22.500,37.000,36.000
0.124,29.500,22.500,37.000,36.000
0.125,29.500,22.000,37.000,36.000
0.126,29.500,22.500,37.500,36.500
0.127,29.000,22.500,37.500,36.500
0.128,29.000,23.000,38.000,37.000
0.129,28.500,24.000,38.000,37.000
0.130,28.500,25.000,38.500,37.500
0.131,28.000,25.500,39.000,38.000
0.132,28.000,26.500,39.000,38.000
0.133,28.000,27.000,39.000,38.000
0.134,28.000,28.000,39.000,38.000
0.135,27.500,28.000,38.500,37.500
0.136,27.500,28.000,38.500,37.500
0.137,27.500,27.000,37.500,37.000
0.138,27.500,26.500,37.000,37.000
0.139,27.500,25.000,36.500,36.500
0.140,27.500,24.000,36.000,36.500
0.141,27.000,23.000,35.500,36.500
0.142,27.500,22.000,35.000,36.500
0.143,27.000,21.500,35.000,36.500
0.144,27.500,21.000,35.000,36.500
0.145,27.500,21.000,35.500,36.500
0.146,27.500,21.500,36.000,37.000
0.147,27.500,21.500,36.000,37.000
0.148,28.000,22.500,36.500,37.500
0.149,27.500,23.500,37.000,37.500
0.150,28.000,24.500,38.000,38.500
0.151,28.000,25.500,39.000,39.000
0.152,28.000,26.500,39.500,39.500
0.153,28.000,27.500,40.000,40.500
0.154,28.500,29.000,41.000,41.500
0.155,28.500,29.500,41.500,42.000
0.156,29.000,30.500,42.500,42.500
0.157,29.000,30.500,42.500,43.000
0.158,29.000,31.000,43.000,43.500
0.159,28.500,30.500,43.000,43.500
0.160,29.000,29.500,43.000,43.500
0.161,28.500,28.500,43.000,43.500
0.162,29.000,28.000,42.500,43.500
0.163,28.500,26.500,42.000,43.000
0.164,29.000,26.000,41.500,42.500
0.165,28.500,25.000,41.000,41.500
0.166,28.500,24.500,40.000,40.500
0.167,28.000,24.000,39.000,39.500
0.168,28.000,23.500,38.500,38.500
0.169,27.000,23.500,38.000,37.500
0.170,26.500,23.500,37.500,37.000
0.171,26.000,23.500,36.500,36.000
0.172,25.500,24.000,36.500,35.500
0.173,25.000,24.000,35.500,35.000
0.174,25.000,24.000,35.500,34.500
0.175,25.000,23.500,34.500,34.000
0.176,25.500,23.500,34.500,33.500
0.177,25.500,23.000,33.500,32.500
0.178,25.500,22.500,33.000,32.500
0.179,25.500,21.500,32.000,32.000
0.180,26.000,21.000,32.000,32.500
0.181,26.500,21.000,32.500,33.000
0.182,27.000,21.000,33.000,33.500
0.183,27.000,21.500,34.000,34.000
0.184,27.500,22.000,35.000,35.000
0.185,27.500,22.500,36.000,36.000
0.186,28.000,23.500,37.500,37.000
0.187,28.000,24.000,38.500,37.500
0.188,28.500,25.000,39.500,38.500
0.189,28.500,25.500,40.000,38.500
0.190,29.000,26.500,40.500,39.500
0.191,29.000,27.000,41.000,39.500
0.192,29.000,28.000,41.500,40.000
0.193,29.000,28.000,41.500,40.000
0.194,29.000,28.500,42.000,40.000
0.195,29.000,28.000,41.500,40.000
0.196,29.500,28.000,41.500,40.000
0.197,29.500,27.000,41.000,40.000
0.198,29.500,26.500,41.000,39.500
0.199,29.000,26.000,40.500,39.000
0.200,29.500,25.500,40.000,39.000
0.201,29.000,24.500,39.500,38.500
0.202,29.000,24.500,39.500,38.500
0.203,28.500,24.500,39.000,38.000
0.204,28.500,25.000,39.000,38.000
0.205,28.500,25.000,39.000,38.000
0.206,28.500,25.500,39.500,38.000
0.207,28.500,25.500,39.500,38.000
0.208,29.000,26.000,40.000,38.000
0.209,29.500,26.000,40.500,38.000
0.210,29.500,26.500,41.000,38.500
0.211,29.500,26.500,41.500,39.000
0.212,29.500,27.000,42.000,39.500
0.213,29.500,27.500,42.000,39.500
0.214,29.500,27.500,42.000,40.000
0.215,29.000,27.500,41.500,39.500
0.216,29.000,27.000,41.500,40.000
0.217,28.500,26.000,41.000,39.500
0.218,29.000,25.000,40.500,39.500
0.219,28.500,24.000,40.000,39.000
0.220,29.000,23.000,40.000,39.000
0.221,29.000,22.000,39.500,38.500
0.222,29.000,21.500,39.500,38.500
0.223,29.000,20.500,39.000,38.000
0.224,29.500,20.500,39.000,38.000
0.225,29.500,20.500,39.000,38.000
0.226,30.000,21.000,39.500,38.000
0.227,29.500,21.500,39.500,37.500
0.228,29.500,22.500,40.500,38.000
0.229,29.500,23.500,41.000,38.000
0.230,29.500,25.000,41.500,38.500
0.231,29.000,26.000,42.000,38.500
0.232,29.000,27.500,42.500,39.000
0.233,29.000,28.500,42.500,39.500
0.234,29.000,29.500,43.000,40.000
0.235,29.000,30.000,43.000,40.000
0.236,29.000,30.000,43.000,40.000
0.237,29.000,29.500,43.000,40.000
0.238,29.000,29.500,43.000,40.000
0.239,29.000,28.500,42.500,40.000
0.240,29.000,27.500,42.000,39.500
0.241,29.000,26.500,41.500,39.000
0.242,29.500,25.500,41.500,39.000
0.243,29.000,24.500,41.000,39.000
0.244,29.000,24.500,41.000,39.000
0.245,29.000,24.000,41.000,38.500
0.246,29.000,24.500,41.000,38.500
0.247,28.500,25.000,41.500,38.500
0.248,29.000,25.500,42.000,38.500
0.249,28.500,26.000,42.000,38.500
0.250,28.500,27.000,43.000,39.000
0.251,28.000,28.000,43.500,39.500
0.252,28.000,28.500,44.000,40.000
0.253,28.000,29.000,44.500,40.000
0.254,28.000,29.500,45.000,40.000
0.255,27.500,29.500,45.000,40.000
0.256,28.000,29.500,45.000,40.000
0.257,27.500,28.500,44.500,39.500
0.258,28.000,28.000,44.000,39.000
0.259,27.500,26.500,43.500,38.500
0.260,28.000,26.000,43.000,38.500
0.261,28.000,25.000,42.500,38.000
0.262,28.500,24.000,42.500,37.500
0.263,28.500,23.500,42.000,37.000
0.264,28.500,23.500,42.000,37.000
0.265,28.500,23.500,42.000,37.000
0.266,28.500,24.000,42.500,37.000
0.267,28.000,24.500,42.500,36.500
0.268,28.000,25.000,43.000,37.000
0.269,27.500,25.500,43.500,37.000
0.270,27.500,26.500,44.000,37.000
0.271,27.000,26.500,44.500,37.000
0.272,27.000,27.500,45.000,37.500
0.273,27.000,27.500,45.500,37.500
0.274,27.000,28.500,46.000,38.000
0.275,26.500,28.500,46.000,38.000
0.276,27.000,28.500,46.500,38.500
0.277,27.000,28.000,46.000,38.500
0.278,27.000,27.500,46.000,39.000
0.279,27.000,26.500,45.500,38.500
0.280,27.500,26.000,45.500,38.500
0.281,27.500,25.000,45.000,38.000
0.282,27.500,24.500,44.500,38.000
0.283,27.000,23.500,44.000,38.000
0.284,27.000,23.500,44.000,38.000
0.285,27.000,23.500,43.500,37.500
0.286,27.500,24.500,43.000,37.500
0.287,27.500,25.000,43.000,37.000
0.288,27.500,25.500,43.000,37.000
0.289,27.500,26.000,43.000,36.500
0.290,27.500,27.000,43.500,37.000
0.291,27.000,27.500,43.500,36.500
0.292,27.500,28.500,44.000,37.000
0.293,27.500,29.000,44.000,37.000
0.294,27.500,29.500,44.500,37.500
0.295,27.500,29.500,44.500,37.500
0.296,28.000,29.500,44.500,38.000
0.297,28.000,29.000,44.000,38.000
0.298,28.500,28.500,43.500,38.000
0.299,28.000,27.500,43.000,37.500
0.300,28.000,27.000,42.500,37.500
0.301,28.000,25.500,42.000,37.000
0.302,28.000,25.000,42.000,37.000
0.303,28.000,24.000,41.500,36.500
0.304,28.000,23.000,41.500,36.500
0.305,27.500,22.500,41.500,36.000
0.306,28.000,22.500,42.000,36.000
0.307,27.500,22.500,42.000,36.000
0.308,28.000,23.000,42.000,36.000
0.309,27.500,23.500,42.000,36.000
0.310,28.000,24.000,42.500,36.000
0.311,27.500,24.500,42.500,36.500
0.312,28.000,25.500,43.000,37.000
0.313,27.500,26.000,43.000,37.000
0.314,28.000,26.500,43.000,37.500
0.315,27.500,26.500,43.000,37.500
0.316,28.000,26.500,43.000,38.000
0.317,28.000,26.000,42.500,37.500
0.318,28.000,25.500,42.500,37.500
0.319,28.500,25.000,42.000,37.000
0.320,28.500,24.500,41.500,37.000
0.321,28.500,23.500,41.000,36.500
0.322,28.500,23.000,41.000,36.000
0.323,28.500,22.500,41.000,35.500
0.324,28.500,22.500,41.000,35.500
0.325,28.500,22.500,41.000,35.500
0.326,28.500,22.500,41.000,35.500
0.327,28.000,22.500,41.000,35.500
0.328,28.000,23.500,41.500,36.000
0.329,28.000,24.000,42.000,36.000
0.330,27.500,25.000,42.500,36.500
0.331,27.000,25.500,42.500,37.000
0.332,27.000,26.500,43.000,37.500
0.333,27.000,27.500,43.500,37.500
0.334,27.500,28.000,43.500,38.000
0.335,27.500,28.000,43.500,37.500
0.336,28.000,28.000,43.000,37.500
0.337,28.000,27.500,42.500,37.000
0.338,28.500,27.000,42.500,36.500
0.339,28.500,26.000,41.500,36.000
0.340,28.500,25.500,41.500,36.000
0.341,28.500,24.500,41.000,35.500
0.342,28.500,24.500,41.000,35.000
0.343,28.500,24.000,40.500,34.500
0.344,28.000,24.000,41.000,35.000
0.345,27.500,24.000,40.500,35.000
0.346,27.500,24.000,41.000,35.000
0.347,27.000,24.000,41.000,35.000
0.348,27.000,24.500,41.500,35.500
0.349,26.500,25.000,41.500,35.500
0.350,27.000,25.500,42.000,36.000
0.351,26.500,26.000,42.500,36.000
0.352,27.000,26.500,43.000,36.000
0.353,27.000,26.500,43.000,36.500
0.354,27.500,27.000,43.500,37.000
0.355,27.500,27.000,43.500,37.000
0.356,27.500,27.500,43.500,37.500
0.357,27.500,27.000,43.500,37.500
0.358,28.000,27.000,43.500,37.500
0.359,28.000,26.000,43.000,37.000
0.360,28.500,25.500,42.500,36.500
0.361,28.500,24.500,42.000,36.000
0.362,28.500,24.000,41.500,35.500
0.363,28.500,23.500,41.000,34.500
0.364,29.000,23.000,41.000,34.500
0.365,28.500,23.000,41.000,34.000
0.366,28.500,23.000,41.000,34.000
0.367,28.000,23.000,41.000,34.000
0.368,28.000,23.500,42.000,34.500
0.369,28.000,24.500,42.500,35.000
0.370,28.000,25.500,43.000,35.500
0.371,27.500,26.000,43.500,35.500
0.372,28.000,27.500,44.000,36.500
0.373,28.000,28.000,44.500,36.500
0.374,28.500,29.000,45.000,37.000
0.375,28.500,29.500,45.000,37.000
0.376,29.000,29.500,45.000,37.500
0.377,29.000,29.000,45.000,37.500
0.378,29.500,28.500,45.000,37.500
0.379,29.500,27.500,45.000,37.000
0.380,29.500,26.500,45.000,37.000
0.381,29.500,25.500,44.500,36.500
0.382,29.500,24.500,44.000,36.500
0.383,29.000,24.000,44.000,36.500
0.384,29.000,23.500,44.000,36.500
0.385,29.000,23.000,44.000,36.000
0.386,29.500,23.000,44.500,36.500
0.387,29.500,22.500,44.500,36.500
0.388,29.500,23.000,45.000,37.000
0.389,29.000,23.000,45.500,37.000
0.390,29.500,23.500,46.000,37.500
0.391,29.000,24.000,46.500,38.000
0.392,29.000,25.000,47.000,38.500
0.393,28.500,26.000,47.000,38.500
0.394,28.500,26.500,47.000,39.000
0.395,28.000,27.000,47.000,39.000
0.396,28.500,27.000,46.500,39.500
0.397,28.500,27.000,46.000,39.000
0.398,28.500,26.500,45.000,39.000
0.399,28.000,25.500,44.000,38.500
0.400,28.500,24.500,43.500,38.500
0.401,28.000,23.500,43.000,38.000
0.402,28.000,23.000,42.500,38.000
0.403,27.500,22.500,42.000,37.500
0.404,27.500,22.000,42.000,37.500
0.405,27.500,22.000,42.000,37.000
0.406,27.500,22.000,42.000,37.500
0.407,27.000,22.000,42.500,38.000
0.408,27.000,22.500,43.000,38.000
0.409,27.000,23.000,43.000,38.000
0.410,27.000,24.000,43.500,38.000
0.411,26.500,25.000,43.500,38.000
0.412,26.500,26.000,43.500,38.000
0.413,26.000,26.500,43.500,37.500
0.414,26.500,27.500,43.500,37.500
0.415,26.500,28.000,43.000,37.500
0.416,26.500,28.000,43.000,37.500
0.417,26.500,27.500,42.500,37.000
0.418,27.000,26.500,42.000,36.500
0.419,27.000,25.500,41.000,36.000
0.420,27.000,24.000,40.500,35.000
0.421,27.000,23.000,40.000,34.000
0.422,27.000,22.000,39.500,34.000
0.423,26.500,21.000,39.000,33.500
0.424,26.500,20.500,39.000,33.500
0.425,26.000,20.500,39.000,33.000
0.426,26.000,21.000,39.500,33.000
0.427,25.500,21.500,39.500,33.000
0.428,25.500,22.500,40.000,33.000
0.429,25.500,23.000,40.000,32.500
0.430,26.000,24.000,40.500,32.500
0.431,26.000,25.000,40.500,32.000
0.432,26.500,25.500,41.000,32.000
0.433,26.500,26.000,41.500,32.000
0.434,26.500,27.000,42.000,32.000
0.435,26.500,27.500,42.000,31.500
0.436,27.000,27.500,42.500,31.500
0.437,27.000,26.500,42.000,31.500
0.438,27.000,26.000,42.000,31.500
0.439,27.000,25.000,41.500,31.000
0.440,27.500,24.500,41.500,31.000
0.441,27.500,23.500,41.000,31.000
0.442,27.500,23.000,41.000,31.500
0.443,27.000,22.500,41.000,31.500
0.444,27.500,23.000,41.500,32.000
0.445,27.500,23.000,41.500,32.000
0.446,27.500,23.500,42.500,32.000
0.447,27.500,24.000,43.000,32.000
0.448,28.000,24.500,44.000,32.000
0.449,28.000,25.000,44.500,32.000
0.450,28.000,26.000,45.000,32.500
0.451,27.500,26.500,45.500,33.000
0.452,28.000,27.000,46.500,33.500
0.453,28.000,27.500,46.500,33.500
0.454,28.000,28.000,47.000,34.000
0.455,27.500,28.000,46.500,34.000
0.456,27.500,28.000,46.500,34.000
0.457,27.500,27.500,46.000,33.500
0.458,28.000,27.000,45.500,33.000
0.459,28.000,26.000,45.000,32.500
0.460,28.500,25.500,44.500,32.500
0.461,28.500,24.500,44.000,32.000
0.462,28.500,24.000,44.000,32.000
0.463,28.500,23.500,44.000,31.500
0.464,28.500,23.500,44.000,31.500
0.465,28.000,23.500,44.000,31.500
0.466,28.000,24.000,44.500,31.500
0.467,28.000,24.500,45.000,31.500
0.468,28.000,25.500,45.500,32.000
0.469,27.500,26.000,46.000,32.000
0.470,28.000,27.000,46.500,33.000
0.471,28.000,27.500,47.000,33.500
0.472,28.000,28.500,47.500,34.000
0.473,28.000,28.500,47.500,34.500
0.474,28.500,29.000,47.500,35.000
0.475,28.500,29.000,47.500,35.000
0.476,29.000,29.000,47.500,35.500
0.477,29.500,28.000,47.000,35.000
0.478,30.000,27.500,46.500,35.000
0.479,30.000,27.000,46.000,34.500
0.480,30.000,26.500,46.000,34.000
0.481,30.000,26.000,45.500,33.500
0.482,30.000,25.500,45.500,33.500
0.483,29.500,25.000,45.500,33.000
0.484,29.500,25.000,45.500,33.000
0.485,29.500,24.500,45.500,33.000
0.486,29.500,24.500,45.500,33.000
0.487,29.500,24.500,45.500,33.000
0.488,30.000,25.000,46.000,34.000
0.489,30.000,25.000,46.500,34.500
0.490,30.000,26.000,47.000,35.500
0.491,30.000,27.000,47.000,36.000
0.492,30.500,28.000,48.000,37.500
0.493,30.500,28.500,49.000,39.000
0.494,30.500,29.500,50.000,40.500
0.495,30.500,30.000,50.500,42.000
0.496,30.500,30.000,51.500,44.000
0.497,30.000,29.500,52.000,46.000
0.498,30.000,28.500,53.000,47.500
0.499,29.500,27.000,52.500,49.000
0.500,29.500,25.500,52.500,50.000
0.501,29.500,24.000,51.500,51.000
0.502,29.500,22.500,50.500,51.500
0.503,29.000,21.000,49.500,52.000
0.504,28.500,19.500,48.500,52.500
0.505,28.000,18.500,47.500,53.000
0.506,28.000,18.000,46.500,53.500
0.507,27.000,17.000,45.500,54.000
0.508,26.500,17.000,44.500,54.000
0.509,25.500,16.500,43.500,54.000
0.510,25.000,16.000,42.000,54.000
0.511,24.000,15.000,40.500,53.500
0.512,23.500,14.000,38.500,53.000
0.513,22.500,13.000,35.500,51.500
0.514,22.000,11.500,32.500,50.000
0.515,21.500,9.000,28.500,47.500
0.516,21.000,7.000,24.000,44.500
0.517,20.500,4.000,18.500,40.500
0.518,20.500,0.500,13.500,35.500
0.519,19.500,-3.000,7.500,29.500
0.520,19.500,-6.000,2.000,23.000
0.521,19.000,-9.000,-4.000,15.500
0.522,18.500,-11.500,-9.500,8.000
0.523,18.000,-13.500,-15.000,-0.500
0.524,18.000,-15.000,-20.500,-9.000
0.525,17.500,-16.500,-25.500,-17.000
0.526,17.500,-18.000,-30.500,-24.500
0.527,17.500,-19.000,-34.500,-31.000
0.528,17.500,-19.500,-37.500,-36.500
0.529,17.500,-19.000,-38.500,-40.000
0.530,18.000,-18.000,-38.500,-42.500
0.531,18.000,-15.500,-36.500,-43.500
0.532,19.000,-13.000,-33.000,-43.000
0.533,20.000,-10.000,-28.000,-41.500
0.534,21.500,-6.500,-23.000,-40.000
0.535,22.500,-3.000,-18.000,-37.500
0.536,23.500,-0.500,-13.000,-35.500
0.537,24.500,2.000,-8.500,-33.000
0.538,26.000,4.500,-4.000,-30.500
0.539,26.500,6.000,0.000,-27.500
0.540,27.500,8.000,4.500,-25.000
0.541,28.000,9.500,8.000,-22.000
0.542,28.500,11.000,12.000,-19.500
0.543,29.000,12.500,15.000,-17.000
0.544,29.500,14.000,18.500,-15.000
0.545,30.000,15.000,21.500,-12.500
0.546,30.000,16.500,24.500,-10.500
0.547,30.000,18.000,27.000,-8.000
0.548,30.500,19.500,29.500,-6.000
0.549,30.500,20.500,31.500,-3.500
0.550,31.000,21.500,34.000,-1.500
0.551,30.500,22.500,36.000,1.500
0.552,31.000,23.500,38.000,4.000
0.553,31.000,24.000,39.000,6.000
0.554,31.500,24.500,40.500,8.500
0.555,31.500,24.500,41.000,11.000
0.556,32.000,24.500,41.000,13.000
0.557,32.000,24.500,41.000,14.500
0.558,32.500,24.000,41.000,16.000
0.559,32.500,23.500,41.000,17.500
0.560,32.500,23.000,41.000,19.000
0.561,32.500,22.000,41.000,20.000
0.562,33.000,22.000,41.500,21.000
0.563,33.000,21.500,41.500,21.500
0.564,33.000,21.000,41.500,22.500
0.565,32.500,21.000,41.500,23.500
0.566,32.500,21.000,42.000,24.500
0.567,32.000,20.500,42.500,25.000
0.568,32.000,21.000,43.000,26.000
0.569,32.000,21.000,43.500,27.000
0.570,32.000,22.000,44.500,28.000
0.571,31.500,22.500,45.000,28.500
0.572,31.500,23.500,46.000,29.000
0.573,31.500,24.000,47.000,29.500
0.574,31.500,24.500,47.500,30.000
0.575,31.500,25.000,48.000,30.000
0.576,31.500,25.000,48.000,30.000
0.577,31.000,24.500,48.000,30.000
0.578,31.500,24.000,48.000,30.500
0.579,31.000,23.000,47.500,30.500
0.580,31.500,22.500,47.000,30.500
0.581,31.000,22.000,46.500,30.500
0.582,31.000,21.500,46.500,30.500
0.583,30.500,21.000,46.000,30.500
0.584,30.500,20.500,46.000,30.500
0.585,30.000,20.500,46.000,30.500
0.586,30.000,20.500,46.500,30.500
0.587,30.000,20.500,46.500,30.000
0.588,30.000,21.000,47.000,30.500
0.589,30.000,21.500,47.000,31.000
0.590,30.500,22.500,47.500,31.500
0.591,30.500,23.500,47.500,31.500
0.592,30.500,24.500,48.000,32.000
0.593,30.000,25.000,48.000,32.000
0.594,30.000,26.000,48.000,32.000
0.595,30.000,26.000,48.000,32.000
0.596,30.500,26.500,48.000,32.000
0.597,30.500,26.000,47.500,32.000
0.598,31.000,26.000,47.500,32.000
0.599,31.000,25.000,47.000,31.500
0.600,31.000,25.000,46.500,31.500
0.601,31.000,24.500,46.500,31.500
0.602,31.500,24.000,47.000,31.500
0.603,31.500,23.500,47.000,31.500
0.604,32.000,24.000,48.000,32.500
0.605,32.000,24.000,49.000,33.000
0.606,32.000,24.500,50.000,34.000
0.607,32.500,25.000,50.500,35.000
0.608,33.000,26.000,51.500,36.000
0.609,33.000,26.500,52.500,36.500
0.610,33.000,27.500,53.500,37.500
0.611,33.000,28.500,54.000,38.000
0.612,33.000,29.000,54.500,38.500
0.613,32.500,29.500,54.500,38.500
0.614,32.500,29.500,54.500,38.500
0.615,32.500,29.000,54.000,37.500
0.616,32.500,28.500,53.000,37.000
0.617,32.500,27.000,51.500,35.500
0.618,32.500,26.000,50.500,34.500
0.619,32.000,24.000,49.000,33.000
0.620,32.000,23.000,48.000,32.000
0.621,31.500,21.500,46.500,30.500
0.622,31.500,20.500,45.000,29.500
0.623,31.000,19.000,44.000,28.500
0.624,31.000,18.000,43.000,27.500
0.625,30.500,17.000,41.500,27.000
0.626,30.500,16.500,41.000,26.500
0.627,30.000,16.500,40.500,26.000
0.628,30.000,16.500,41.000,26.000
0.629,30.000,17.000,41.000,26.000
0.630,30.000,18.000,41.500,27.000
0.631,30.000,18.500,42.000,27.500
0.632,30.500,20.000,43.000,29.000
0.633,30.500,21.000,44.000,30.000
0.634,31.000,22.000,45.000,31.000
0.635,31.500,23.000,45.500,32.000
0.636,32.000,24.000,46.000,32.500
0.637,32.000,24.000,46.000,33.000
0.638,32.500,24.500,46.500,33.500
0.639,32.500,24.000,46.000,33.500
0.640,33.000,23.500,46.500,33.500
0.641,33.000,22.500,46.500,33.000
0.642,33.500,22.000,46.500,33.000
0.643,33.500,21.500,46.500,33.000
0.644,34.000,21.000,46.500,33.000
0.645,33.500,20.500,46.500,32.500
0.646,33.500,20.500,46.500,33.000
0.647,33.000,20.500,46.500,33.000
0.648,33.000,21.000,47.000,33.500
0.649,33.000,21.500,47.000,33.500
0.650,33.000,22.000,48.000,34.500
0.651,32.500,22.500,48.500,35.000
0.652,33.000,24.000,49.000,35.500
0.653,33.000,24.500,49.500,35.500
0.654,33.000,25.500,50.000,36.000
0.655,33.500,26.000,50.000,36.000
0.656,34.000,26.000,50.000,36.000
0.657,34.000,26.000,49.500,35.500
0.658,34.500,25.500,49.000,35.500
0.659,34.500,25.000,48.500,35.000
0.660,34.500,24.500,48.500,34.500
0.661,34.000,23.500,47.500,33.500
0.662,34.000,23.000,47.500,33.500
0.663,33.500,22.000,47.000,33.000
0.664,33.500,21.500,47.000,33.000
0.665,33.500,21.000,46.500,32.500
0.666,33.500,20.500,46.500,32.500
0.667,33.000,20.000,46.500,32.500
0.668,33.500,20.000,47.000,33.000
0.669,33.000,20.000,47.500,33.000
0.670,33.000,20.500,48.000,33.000
0.671,32.500,21.000,48.000,33.000
0.672,32.500,22.000,48.500,33.500
0.673,32.500,22.500,48.500,33.500
0.674,32.500,23.000,49.000,33.500
0.675,32.500,23.500,48.500,33.500
0.676,32.500,23.500,49.000,33.500
0.677,32.500,23.000,48.500,33.000
0.678,32.500,22.500,48.500,33.000
0.679,32.500,21.500,47.500,32.000
0.680,33.000,20.500,47.000,32.000
0.681,33.000,19.500,46.000,31.000
0.682,33.000,19.000,45.500,31.000
0.683,33.000,18.500,45.000,30.500
0.684,33.000,18.000,45.000,30.000
0.685,33.000,18.000,45.000,30.000
0.686,33.000,18.000,45.000,30.000
0.687,32.500,18.000,45.000,30.000
0.688,32.500,18.500,45.000,30.000
0.689,32.500,18.500,45.000,30.500
0.690,32.500,19.500,45.500,31.000
0.691,32.500,20.000,45.500,31.000
0.692,32.500,20.500,45.500,31.500
0.693,32.500,21.000,45.500,31.500
0.694,32.500,21.500,45.500,32.000
0.695,32.500,21.500,44.500,31.500
0.696,32.500,21.500,44.500,31.500
0.697,32.500,21.000,43.500,31.000
0.698,32.500,20.500,43.000,30.500
0.699,32.500,19.500,42.000,29.500
0.700,33.000,18.500,41.500,29.000
0.701,33.000,17.500,40.500,28.500
0.702,33.000,16.500,40.000,28.000
0.703,33.000,15.000,39.500,27.500
0.704,33.000,14.500,39.000,27.000
0.705,32.500,14.000,38.500,26.500
0.706,32.500,14.000,39.000,26.500
0.707,32.500,13.500,38.500,26.500
0.708,33.000,14.000,39.000,26.500
0.709,32.500,14.000,39.000,26.500
0.710,33.000,15.000,39.000,27.000
0.711,32.500,15.500,39.000,27.000
0.712,33.000,16.500,39.500,27.000
0.713,32.500,17.000,39.500,27.000
0.714,32.500,18.000,39.500,27.000
0.715,32.500,18.500,39.500,26.500
0.716,32.500,18.500,39.000,26.500
0.717,32.500,17.500,38.500,26.000
0.718,33.000,17.000,38.000,26.000
0.719,32.500,15.500,37.000,25.500
0.720,33.000,14.500,36.500,25.000
0.721,32.500,13.500,35.500,24.500
0.722,33.000,13.000,35.000,24.500
0.723,32.500,12.500,34.500,24.000
0.724,33.000,12.000,34.500,23.500
0.725,32.500,12.000,34.000,23.500
0.726,32.500,12.000,34.500,23.500
0.727,31.500,12.000,34.500,23.000
0.728,31.500,12.000,35.000,23.500
0.729,31.000,12.500,35.000,23.500
0.730,31.000,13.000,35.500,24.000
0.731,31.000,13.500,35.500,24.500
0.732,31.000,14.000,36.000,24.500
0.733,31.000,14.500,36.000,24.500
0.734,31.500,15.000,36.000,24.500
0.735,31.500,15.000,36.000,24.000
0.736,32.000,15.000,35.500,24.000
0.737,32.000,14.000,35.000,23.500
0.738,32.000,13.500,34.500,23.000
0.739,32.000,12.000,33.500,23.000
0.740,32.500,11.000,32.500,23.000
0.741,32.000,10.000,31.500,23.000
0.742,32.000,9.500,31.500,23.000
0.743,31.500,9.000,31.000,23.000
0.744,31.500,8.500,30.500,23.000
0.745,31.000,8.500,30.000,22.500
0.746,31.000,9.000,30.500,22.500
0.747,30.500,9.500,30.500,22.500
0.748,30.500,10.000,31.000,22.500
0.749,30.500,10.500,31.000,22.500
0.750,31.000,11.500,32.000,22.500
0.751,30.500,12.500,32.000,22.500
0.752,31.000,13.000,33.000,23.500
0.753,30.500,13.500,33.000,24.000
0.754,31.000,14.000,33.500,24.500
0.755,30.500,14.000,33.500,24.500
0.756,31.000,14.000,34.000,25.000
0.757,31.000,14.000,33.500,25.000
0.758,31.500,13.500,33.500,25.000
0.759,31.500,13.000,33.000,24.500
0.760,32.000,13.000,33.000,25.000
0.761,32.000,13.000,33.000,25.000
0.762,32.500,13.000,33.500,25.500
0.763,32.500,12.500,34.000,26.000
0.764,32.500,12.500,35.000,26.500
0.765,32.500,12.500,35.500,27.500
0.766,33.000,13.000,36.000,28.000
0.767,33.000,13.500,37.000,28.500
0.768,33.500,14.000,38.000,29.500
0.769,33.000,14.500,38.500,30.000
0.770,33.000,15.500,40.000,31.000
0.771,33.000,16.000,41.000,31.500
0.772,33.000,17.000,42.500,32.500
0.773,33.000,17.500,43.500,33.000
0.774,33.000,18.500,44.500,34.000
0.775,32.500,19.000,45.000,34.500
0.776,32.500,19.500,45.500,35.000
0.777,32.500,19.500,45.500,35.500
0.778,33.000,19.000,45.500,36.000
0.779,33.000,18.500,45.500,36.000
0.780,33.500,17.500,45.500,36.000
0.781,33.500,17.000,45.500,36.000
0.782,33.500,16.500,46.000,36.500
0.783,33.500,16.000,46.000,36.000
0.784,34.000,16.000,47.000,36.500
0.785,33.500,16.000,47.500,36.500
0.786,34.000,16.500,48.500,37.000
0.787,34.000,17.000,49.500,37.000
0.788,34.000,17.500,51.000,37.500
0.789,34.000,18.500,52.000,38.000
0.790,34.500,19.500,53.000,38.500
0.791,34.500,20.500,53.500,39.000
0.792,34.500,21.500,54.000,39.000
0.793,34.500,22.500,54.000,39.000
0.794,34.500,23.000,54.500,39.000
0.795,34.500,23.500,54.000,39.000
0.796,34.500,23.500,54.000,39.000
0.797,34.000,23.000,53.500,39.000
0.798,34.000,22.500,53.500,38.500
0.799,34.000,21.500,52.500,38.000
0.800,34.500,21.000,52.500,38.000
0.801,34.500,20.000,51.500,37.500
0.802,34.500,19.000,51.500,37.500
0.803,34.500,18.500,51.000,37.500
0.804,34.500,18.500,51.000,37.500
0.805,34.500,18.500,51.000,37.500
0.806,35.000,19.000,51.500,38.000
0.807,35.000,19.500,52.000,38.000
0.808,35.500,20.000,52.500,38.000
0.809,35.500,21.000,53.000,37.500
0.810,36.000,22.000,53.500,38.000
0.811,36.000,22.500,54.000,38.500
0.812,36.000,23.500,54.500,39.000
0.813,36.000,23.500,55.000,39.000
0.814,36.000,24.000,55.000,39.000
0.815,36.000,24.000,55.000,38.500
0.816,36.000,24.000,55.000,38.500
0.817,35.500,23.000,54.500,38.000
0.818,35.500,22.500,54.500,37.500
0.819,35.500,22.000,54.000,37.000
0.820,35.500,21.500,54.000,37.000
0.821,35.500,21.000,53.500,36.500
0.822,35.500,20.500,53.000,36.500
0.823,35.500,20.500,53.000,36.500
0.824,35.500,20.500,53.000,36.500
0.825,35.500,20.500,53.000,36.000
0.826,35.500,20.500,53.000,36.000
0.827,35.500,21.000,53.000,35.500
0.828,35.500,21.500,53.500,35.500
0.829,35.000,22.000,53.500,35.500
0.830,35.500,22.500,54.000,35.500
0.831,35.000,23.500,54.500,36.000
0.832,35.500,24.500,55.000,36.500
0.833,35.500,25.000,55.500,36.500
0.834,35.500,25.500,56.000,37.000
0.835,35.500,26.000,55.500,37.000
0.836,36.000,26.000,55.500,37.000
0.837,36.000,25.500,54.500,37.000
0.838,36.000,25.000,54.000,36.500
0.839,36.000,24.000,53.000,36.000
0.840,36.000,23.500,52.500,36.000
0.841,36.000,23.000,52.000,35.500
0.842,36.000,22.500,52.000,35.000
0.843,35.500,22.000,52.000,34.500
0.844,36.000,21.500,52.500,34.500
0.845,36.000,21.500,52.500,34.500
0.846,36.500,21.500,53.000,34.500
0.847,36.500,21.000,53.000,34.000
0.848,36.500,21.500,53.500,34.500
0.849,36.500,22.000,53.500,34.500
0.850,36.500,23.000,54.000,35.000
0.851,36.000,24.000,54.000,35.000
0.852,36.500,25.000,54.500,35.500
0.853,36.000,26.000,54.500,36.000
0.854,36.500,26.500,54.500,36.500
0.855,36.500,26.500,54.000,36.500
0.856,37.000,26.000,54.000,36.500
0.857,37.000,25.000,53.000,36.000
0.858,37.000,24.000,52.500,36.000
0.859,37.000,22.500,51.500,35.000
0.860,37.000,21.000,51.000,34.500
0.861,36.500,20.000,50.500,34.000
0.862,36.500,19.500,50.500,34.000
0.863,36.500,19.000,50.000,34.000
0.864,36.500,19.000,50.000,34.000
0.865,36.500,19.000,50.000,34.000
0.866,36.500,19.500,50.500,34.500
0.867,36.500,20.000,50.500,34.500
0.868,36.500,21.000,50.500,35.000
0.869,36.500,21.500,50.500,35.000
0.870,36.500,23.000,51.000,35.000
0.871,36.000,23.500,51.000,35.000
0.872,36.000,24.000,51.500,35.500
0.873,36.000,24.000,52.000,36.000
0.874,36.500,24.000,52.500,36.500
0.875,36.500,23.000,52.000,36.500
0.876,36.500,23.000,52.000,36.500
0.877,36.500,22.000,51.500,36.500
0.878,37.000,22.000,51.500,36.500
0.879,37.000,21.000,50.500,36.000
0.880,37.500,20.500,50.000,35.500
0.881,37.000,20.000,49.500,35.000
0.882,37.500,19.500,49.000,34.500
0.883,37.000,19.000,48.500,33.500
0.884,37.000,19.000,48.500,33.500
0.885,37.000,18.500,48.000,33.000
0.886,37.000,18.500,48.500,33.000
0.887,37.000,18.500,48.500,33.000
0.888,37.000,19.000,49.000,33.500
0.889,37.000,19.500,49.500,33.500
0.890,37.000,20.500,50.000,34.500
0.891,37.000,21.000,50.500,34.500
0.892,37.000,22.000,51.000,35.000
0.893,37.000,22.500,51.000,35.000
0.894,37.000,23.500,51.500,35.500
0.895,37.000,23.500,51.000,35.500
0.896,37.000,24.000,51.000,35.500
0.897,37.000,24.000,50.500,35.500
0.898,37.500,24.500,50.000,35.000
0.899,37.500,24.000,49.000,34.500
0.900,37.500,23.500,49.000,34.500
0.901,37.000,23.000,48.500,34.000
0.902,37.000,22.500,48.500,33.500
0.903,36.500,21.500,48.500,33.000
0.904,36.500,21.500,48.500,33.000
0.905,36.500,20.500,49.000,32.500
0.906,37.000,20.500,49.500,32.500
0.907,37.000,20.000,50.000,32.500
0.908,37.000,20.000,50.500,32.500
0.909,37.000,20.000,51.000,33.000
0.910,37.000,20.500,51.500,33.500
0.911,36.500,20.500,51.500,33.500
0.912,36.500,21.000,52.000,34.000
0.913,36.500,21.500,51.500,34.000
0.914,36.500,22.000,51.500,34.000
0.915,36.500,22.000,51.000,33.500
0.916,37.000,21.500,51.000,33.500
0.917,37.000,21.000,50.500,33.000
0.918,37.500,20.500,50.500,33.000
0.919,37.000,19.500,50.000,32.500
0.920,37.500,18.500,49.500,32.500
0.921,37.000,17.500,49.500,32.000
0.922,37.500,17.000,49.500,32.000
0.923,37.000,16.500,49.000,32.000
0.924,37.000,17.000,49.500,32.000
0.925,36.500,17.000,49.500,32.000
0.926,36.500,17.500,50.000,32.500
0.927,36.000,18.000,50.500,32.500
0.928,36.000,19.000,51.000,32.500
0.929,35.500,19.500,51.500,32.500
0.930,35.500,20.500,52.000,33.000
0.931,35.000,21.000,52.000,33.500
0.932,35.500,22.000,52.500,34.000
0.933,35.500,22.500,52.500,34.500
0.934,35.500,23.000,53.000,34.500
0.935,36.000,23.500,52.500,34.500
0.936,36.500,23.500,52.500,35.000
0.937,36.500,23.500,52.500,34.500
0.938,37.000,23.000,52.000,34.500
0.939,37.000,22.500,51.500,34.000
0.940,37.000,22.000,51.500,34.000
0.941,37.000,21.000,51.000,33.500
0.942,37.000,21.000,51.000,33.500
0.943,37.000,20.500,50.500,33.000
0.944,37.000,20.500,50.000,33.000
0.945,37.000,20.000,50.000,33.000
0.946,37.500,20.500,50.000,33.000
0.947,37.500,20.500,50.000,33.000
0.948,38.000,21.000,51.000,33.000
0.949,37.500,21.500,51.500,33.000
0.950,37.500,22.000,52.500,34.000
0.951,37.000,22.500,53.000,34.500
0.952,37.000,23.000,53.500,35.000
0.953,36.500,23.000,54.000,35.500
0.954,37.000,23.500,54.000,35.500
0.955,37.000,23.500,54.000,35.500
0.956,37.500,24.000,54.000,36.000
0.957,38.000,23.500,53.500,35.500
0.958,38.000,23.000,53.000,35.000
0.959,38.000,22.000,53.000,34.500
0.960,38.500,21.500,53.000,34.000
0.961,38.500,20.500,53.000,33.000
0.962,39.000,20.000,53.000,33.000
0.963,39.000,19.000,53.000,32.000
0.964,39.000,19.000,53.000,32.000
0.965,39.000,19.000,53.000,31.500
0.966,39.000,19.500,53.000,31.500
0.967,38.500,19.500,52.500,31.500
0.968,38.500,20.500,53.000,32.000
0.969,38.500,21.000,53.000,32.500
0.970,38.500,22.000,53.000,33.000
0.971,38.500,22.000,52.500,33.500
0.972,38.500,22.500,52.500,33.500
0.973,38.500,22.500,52.500,33.500
0.974,39.000,22.500,52.500,33.500
0.975,39.000,22.000,52.000,33.000
0.976,39.500,21.500,52.000,33.000
0.977,39.500,20.000,51.000,33.000
0.978,40.000,19.500,50.500,33.000
0.979,40.000,18.500,49.500,32.500
0.980,40.000,17.500,49.000,32.500
0.981,40.000,16.500,48.000,31.500
0.982,40.000,16.000,48.000,31.500
0.983,39.500,15.500,47.500,31.000
0.984,39.500,15.500,48.000,30.500
0.985,39.500,15.000,48.000,30.500
0.986,39.500,15.000,48.000,30.500
0.987,39.000,15.000,48.000,30.000
0.988,39.500,16.000,48.500,30.500
0.989,39.000,16.500,48.500,30.500
0.990,39.500,17.500,49.000,31.000
0.991,39.000,18.000,49.500,31.500
0.992,39.500,19.000,50.000,32.000
0.993,39.000,19.500,50.500,32.000
0.994,39.500,20.000,51.500,32.500
0.995,39.000,20.500,51.500,32.500
0.996,39.500,20.500,51.500,32.500
0.997,39.000,20.000,51.000,32.500
0.998,39.500,19.500,51.000,32.000
0.999,39.000,18.000,50.000,31.500
1.000,39.500,17.000,49.500,31.500
1.001,40.000,16.000,48.500,31.000
1.002,40.500,15.000,48.500,30.500
1.003,40.500,14.000,47.500,30.500
1.004,40.500,13.500,47.500,30.500
1.005,40.000,13.500,47.000,30.000
1.006,40.000,13.500,47.000,30.500
1.007,39.500,13.500,47.000,30.500
1.008,39.500,14.000,47.500,31.000
1.009,39.500,15.000,48.000,31.500
1.010,39.500,16.000,49.000,32.000
1.011,39.500,17.000,49.500,32.000
1.012,40.000,18.500,50.000,32.500
1.013,39.500,19.500,50.500,32.500
1.014,40.000,20.000,50.500,33.000
1.015,39.500,20.000,50.500,32.500
1.016,39.500,20.000,50.000,32.500
1.017,39.500,19.500,49.500,31.500
1.018,39.500,19.500,49.000,31.500
1.019,39.000,18.500,48.000,31.000
1.020,39.500,18.000,48.000,30.500
1.021,39.000,17.000,47.500,30.500
1.022,39.500,16.500,47.500,30.500
1.023,39.500,16.000,47.000,30.000
1.024,39.500,15.500,47.000,30.500
1.025,39.500,15.500,47.000,30.000
1.026,40.000,15.500,47.500,30.000
1.027,39.500,15.500,48.000,30.000
1.028,39.500,16.000,48.500,30.000
1.029,39.500,16.500,49.000,29.500
1.030,39.500,17.500,49.500,30.000
1.031,39.500,18.000,50.000,30.500
1.032,39.500,18.500,51.000,31.000
1.033,39.500,19.000,51.000,31.000
1.034,40.000,19.500,51.500,31.500
1.035,40.000,19.000,51.500,31.500
1.036,40.500,19.000,51.000,31.500
1.037,40.500,18.000,50.000,31.500
1.038,41.000,17.500,49.500,31.000
1.039,41.500,16.500,48.500,30.500
1.040,41.500,15.500,48.000,30.500
1.041,41.500,14.500,47.000,30.000
1.042,41.500,14.000,46.500,30.000
1.043,41.500,13.500,45.500,29.000
1.044,41.500,13.500,45.500,29.000
1.045,41.000,13.000,45.000,28.500
1.046,40.500,13.500,45.000,28.000
1.047,40.500,13.500,45.000,27.500
1.048,40.500,14.000,45.500,28.000
1.049,40.000,14.500,46.000,28.000
1.050,40.000,15.500,47.000,28.500
1.051,40.000,16.500,47.500,29.000
1.052,40.000,18.000,48.500,29.500
1.053,39.500,19.000,49.000,30.000
1.054,40.000,20.000,49.500,30.500
1.055,40.000,20.000,49.000,30.500
1.056,40.000,20.500,49.000,31.000
1.057,40.500,20.000,48.500,31.000
1.058,41.000,20.000,48.500,31.000
1.059,41.000,19.500,48.000,31.000
1.060,41.500,19.000,48.000,31.500
1.061,42.000,19.000,48.000,31.500
1.062,42.500,19.000,49.000,32.500
1.063,42.500,19.000,49.500,32.500
1.064,42.500,19.000,50.000,33.500
1.065,42.500,19.500,50.500,34.000
1.066,42.500,20.000,51.500,34.500
1.067,42.500,20.500,52.000,35.000
1.068,42.000,21.000,52.500,35.500
1.069,42.000,22.000,52.500,36.000
1.070,42.000,22.500,53.000,36.000
1.071,41.500,23.000,53.000,36.000
1.072,41.500,23.000,53.000,35.500
1.073,41.000,23.000,52.500,35.000
1.074,41.000,22.500,52.000,34.500
1.075,40.500,21.000,50.500,33.000
1.076,40.500,20.000,49.500,32.000
1.077,40.000,18.000,48.000,30.000
1.078,40.000,17.000,47.000,29.000
1.079,39.500,15.500,45.500,27.500
1.080,39.500,14.000,44.500,26.000
1.081,39.000,13.000,43.500,24.500
1.082,39.000,12.000,42.500,23.500
1.083,38.500,11.000,42.000,22.500
1.084,38.500,10.500,41.500,22.000
1.085,38.500,10.000,41.500,21.500
1.086,38.500,10.500,42.000,22.000
1.087,38.500,11.000,42.500,22.000
1.088,39.000,12.500,43.500,23.000
1.089,39.000,13.500,44.500,24.000
1.090,39.500,15.000,46.500,25.500
1.091,39.500,16.500,47.500,26.500
1.092,40.000,18.000,49.000,27.500
1.093,40.000,19.000,50.000,28.500
1.094,40.500,20.000,51.500,29.500
1.095,40.500,20.500,52.000,30.000
1.096,40.500,20.500,52.000,30.500
1.097,40.500,20.000,52.000,30.500
1.098,41.000,19.500,51.500,30.500
1.099,41.500,18.500,51.000,30.500
1.100,42.000,18.500,50.500,30.500
1.101,42.000,18.000,50.000,30.000
1.102,42.000,17.500,49.500,30.000
1.103,41.500,17.000,49.000,30.000
1.104,41.500,17.000,49.000,30.500
1.105,41.000,17.000,48.500,30.500
1.106,41.000,17.000,49.000,31.000
1.107,41.000,17.000,49.000,31.500
1.108,41.000,17.500,49.500,32.000
1.109,40.500,17.500,50.000,32.500
1.110,40.500,18.500,51.000,33.000
1.111,40.500,19.000,51.500,33.500
1.112,40.500,20.000,52.500,34.000
1.113,40.000,20.500,53.000,34.000
1.114,40.500,21.000,53.500,34.500
1.115,40.500,21.500,53.500,34.500
1.116,40.500,21.500,53.500,34.500
1.117,40.500,21.000,53.000,34.500
1.118,41.000,21.000,53.000,34.000
1.119,40.500,20.000,52.000,33.500
1.120,41.000,19.500,51.500,33.000
1.121,40.500,19.000,50.500,32.500
1.122,41.000,18.000,50.000,32.500
1.123,41.000,17.500,49.500,32.000
1.124,41.000,17.000,49.500,32.000
1.125,41.000,16.500,49.000,31.500
1.126,41.000,16.500,49.000,31.500
1.127,41.000,16.500,48.500,31.000
1.128,41.000,16.500,48.500,31.000
1.129,40.500,17.000,48.500,31.000
1.130,40.500,17.500,48.500,31.500
1.131,40.000,17.500,48.500,31.500
1.132,40.000,18.500,49.000,31.500
1.133,40.000,18.500,48.500,31.500
1.134,40.000,19.000,48.500,31.500
1.135,39.500,19.000,48.000,31.500
1.136,39.500,19.000,48.000,31.000
1.137,39.500,19.000,47.000,30.500
1.138,39.500,18.500,46.500,30.500
1.139,39.500,18.000,46.000,30.000
1.140,39.500,17.000,45.500,30.000
1.141,39.500,16.000,45.000,30.000
1.142,39.500,15.500,45.000,30.000
1.143,39.000,14.500,45.000,29.500
1.144,39.500,14.000,45.000,29.000
1.145,39.000,13.500,45.000,28.500
1.146,39.500,13.500,45.500,28.500
1.147,39.500,13.500,45.500,28.000
1.148,39.500,14.500,46.000,28.500
1.149,39.500,15.000,46.000,28.500
1.150,40.000,16.000,47.000,28.500
1.151,40.000,17.000,47.500,29.000
1.152,40.500,18.500,48.000,29.500
1.153,40.000,19.500,48.500,29.500
1.154,40.500,20.500,48.500,29.500
1.155,40.000,20.500,48.500,29.500
1.156,40.500,21.000,48.500,29.000
1.157,40.500,20.500,48.000,28.500
1.158,40.500,20.500,47.500,28.000
1.159,41.000,20.000,47.000,27.500
1.160,41.500,20.000,46.500,27.000
1.161,41.500,19.500,46.000,26.500
1.162,41.500,19.500,46.000,26.500
1.163,41.500,19.000,45.500,26.500
1.164,41.500,19.000,46.000,26.500
1.165,41.000,18.500,46.000,26.500
1.166,41.500,18.500,46.000,27.000
1.167,41.000,18.500,46.500,27.500
1.168,41.500,18.500,47.000,28.000
1.169,41.000,19.000,47.500,28.000
1.170,41.500,19.500,49.000,28.500
1.171,41.000,20.000,50.000,29.000
1.172,41.000,20.500,51.000,29.500
1.173,40.500,21.000,52.000,30.000
1.174,40.500,22.000,52.500,30.000
1.175,40.000,22.000,52.500,30.000
1.176,40.500,22.000,52.500,30.500
1.177,40.500,21.000,51.500,30.000
1.178,41.000,20.500,51.000,30.000
1.179,41.000,19.500,50.500,29.500
1.180,41.000,19.000,50.000,29.000
1.181,41.000,18.000,49.500,28.000
1.182,41.000,17.500,49.000,28.000
1.183,41.000,17.000,49.000,27.500
1.184,41.000,17.500,49.000,27.500
1.185,41.000,17.500,49.000,27.500
1.186,41.000,18.000,49.500,27.500
1.187,41.000,18.500,50.000,28.000
1.188,41.500,19.500,50.500,28.500
1.189,41.000,20.500,51.000,28.500
1.190,41.000,21.500,52.000,29.000
1.191,41.000,22.000,52.500,29.000
1.192,41.000,22.500,53.000,29.000
1.193,40.500,22.500,53.000,29.000
1.194,41.000,22.500,53.000,29.500
1.195,40.500,21.500,53.000,29.000
1.196,41.000,21.000,53.000,29.500
1.197,41.000,20.000,52.500,29.000
1.198,41.000,19.500,52.000,29.000
1.199,41.000,18.500,51.000,28.500
1.200,41.500,18.000,51.000,28.500
1.201,41.000,17.000,50.500,27.500
1.202,41.000,16.500,50.000,27.500
1.203,41.000,16.000,49.500,26.500
1.204,41.000,15.500,49.500,26.500
1.205,41.000,15.500,49.000,26.000
1.206,41.000,15.500,49.000,26.000
1.207,41.000,15.500,49.000,26.000
1.208,41.000,16.500,49.000,26.000
1.209,41.000,17.000,49.500,26.000
1.210,41.000,18.000,50.000,26.500
1.211,41.000,19.000,50.500,26.000
1.212,41.000,20.000,51.000,26.500
1.213,41.000,20.500,51.500,26.500
1.214,41.500,21.000,52.000,26.500
1.215,41.500,21.500,52.000,26.500
1.216,42.000,22.000,52.500,27.500
1.217,42.000,22.000,52.500,28.000
1.218,42.500,22.000,53.000,29.500
1.219,42.500,22.000,53.500,30.500
1.220,43.000,22.000,54.500,32.500
1.221,43.000,22.000,55.000,34.500
1.222,43.000,22.000,56.000,36.500
1.223,43.000,21.500,56.500,38.000
1.224,43.000,21.000,57.500,40.000
1.225,42.500,20.500,57.500,41.500
1.226,42.000,19.500,58.000,43.500
1.227,41.500,18.500,58.000,44.500
1.228,41.500,18.000,58.000,46.000
1.229,40.500,17.500,57.500,47.000
1.230,40.500,17.000,57.000,48.500
1.231,39.500,16.500,56.000,49.000
1.232,39.500,16.500,55.000,50.000
1.233,38.500,16.000,53.500,50.000
1.234,38.500,15.500,52.000,50.000
1.235,37.500,14.000,49.500,49.000
1.236,37.500,13.000,47.500,48.500
1.237,36.500,10.500,44.000,46.500
1.238,36.000,8.000,40.500,45.000
1.239,35.000,5.000,36.500,42.500
1.240,34.500,2.000,32.000,40.000
1.241,33.500,-1.000,27.500,36.500
1.242,33.000,-4.500,22.500,32.500
1.243,32.000,-7.000,17.500,27.500
1.244,31.500,-10.000,12.500,22.500
1.245,31.000,-12.000,7.500,16.500
1.246,30.500,-14.000,2.500,10.000
1.247,29.500,-15.500,-2.500,3.000
1.248,29.000,-17.000,-8.000,-4.500
1.249,28.500,-18.000,-13.000,-12.000
1.250,28.000,-19.000,-17.500,-19.000
1.251,27.500,-20.000,-22.000,-26.000
1.252,27.500,-20.500,-26.000,-32.000
1.253,27.000,-20.500,-29.000,-37.500
1.254,27.500,-20.000,-31.000,-41.500
1.255,27.500,-19.000,-31.000,-44.500
1.256,28.500,-18.000,-30.500,-46.500
1.257,29.500,-16.500,-28.000,-47.000
1.258,30.500,-15.000,-25.500,-46.500
1.259,31.500,-13.000,-22.000,-45.000
1.260,33.000,-11.000,-18.000,-44.000
1.261,33.500,-9.000,-14.000,-42.000
1.262,34.500,-7.000,-10.000,-40.000
1.263,35.000,-5.000,-5.500,-37.000
1.264,36.000,-3.500,-1.000,-34.500
1.265,36.500,-1.000,4.000,-31.000
1.266,37.000,1.000,8.500,-28.000
1.267,37.000,3.500,12.500,-25.000
1.268,38.000,6.000,17.000,-22.000
1.269,38.000,8.000,20.500,-19.000
1.270,38.500,10.500,24.500,-16.500
1.271,39.000,13.000,28.000,-14.000
1.272,39.500,15.000,31.500,-11.500
1.273,39.500,17.000,34.000,-9.000
1.274,40.000,18.500,36.500,-7.000
1.275,40.500,19.000,38.500,-5.000
1.276,41.000,20.000,40.500,-3.000
1.277,41.000,20.000,42.000,-1.000
1.278,41.500,19.500,43.000,1.000
1.279,42.000,19.000,43.500,3.000
1.280,42.500,18.500,44.500,5.000
1.281,42.500,18.000,45.000,6.500
1.282,43.000,17.500,45.500,8.500
1.283,42.500,17.000,45.500,10.500
1.284,43.000,17.000,46.500,12.500
1.285,42.500,17.000,47.000,14.000
1.286,42.500,17.000,47.500,16.000
1.287,42.000,17.000,48.000,17.500
1.288,42.000,17.500,48.500,19.000
1.289,41.500,17.500,48.500,20.000
1.290,41.500,18.000,49.000,21.000
1.291,41.000,18.500,49.500,22.000
1.292,41.000,19.000,50.000,23.000
1.293,41.000,19.500,50.000,23.500
1.294,41.000,20.500,50.000,24.000
1.295,41.000,20.500,50.000,24.500
1.296,41.500,21.000,50.000,25.000
1.297,41.500,20.500,49.000,24.500
1.298,42.000,19.500,49.000,24.500
1.299,42.000,18.500,48.000,24.500
1.300,42.500,17.000,48.000,24.500
1.301,42.000,15.500,47.000,24.500
1.302,42.500,14.500,47.000,24.500
1.303,42.000,13.500,46.500,24.000
1.304,42.500,12.500,46.500,24.000
1.305,42.000,12.000,46.000,23.500
1.306,42.500,12.000,46.500,23.500
1.307,42.500,12.000,46.500,23.500
1.308,42.500,12.500,47.500,24.000
1.309,42.500,13.000,48.000,24.000
1.310,43.000,14.000,48.500,24.500
1.311,43.000,14.500,49.000,25.000
1.312,43.500,15.500,50.000,25.500
1.313,43.500,16.000,50.500,26.000
1.314,43.500,16.500,51.000,27.000
1.315,43.500,17.000,51.000,27.000
1.316,43.500,17.000,51.500,27.500
1.317,43.500,16.500,51.000,27.500
1.318,43.500,16.000,51.000,27.500
1.319,43.500,15.500,50.000,27.000
1.320,44.000,15.000,49.500,27.000
1.321,44.000,14.000,49.000,26.500
1.322,44.000,13.500,48.500,26.500
1.323,43.500,12.500,48.000,26.000
1.324,43.500,12.500,48.500,26.000
1.325,43.000,12.500,48.500,26.000
1.326,43.000,12.500,49.000,26.000
1.327,42.500,12.500,49.000,26.000
1.328,42.500,13.500,49.500,26.500
1.329,42.000,14.000,49.500,26.500
1.330,42.000,15.000,50.500,27.000
1.331,41.500,16.000,50.500,27.000
1.332,41.500,17.000,51.500,28.000
1.333,41.000,17.500,51.500,28.000
1.334,41.000,18.000,52.000,28.000
1.335,41.000,18.000,51.500,28.000
1.336,41.500,18.000,51.500,28.000
1.337,42.000,17.000,51.000,28.000
1.338,42.500,16.500,51.000,27.500
1.339,42.500,15.000,50.000,27.000
1.340,42.500,14.000,49.500,26.500
1.341,42.500,13.000,49.000,26.000
1.342,42.500,12.000,48.500,26.000
1.343,42.500,11.000,47.500,25.500
1.344,42.500,10.500,47.500,25.500
1.345,42.500,10.000,47.000,25.500
1.346,43.000,10.000,47.000,26.000
1.347,43.000,10.000,46.500,25.500
1.348,43.500,11.000,47.000,26.000
1.349,43.500,11.500,47.000,26.000
1.350,43.500,12.500,48.000,26.000
1.351,43.000,13.500,48.500,26.000
1.352,43.000,14.500,49.500,26.500
1.353,43.000,15.500,50.000,26.500
1.354,43.500,16.000,50.500,27.000
1.355,43.500,16.000,50.000,27.000
1.356,44.000,16.000,50.000,27.000
1.357,44.000,15.500,49.500,27.000
1.358,44.000,14.500,49.500,27.000
1.359,44.000,13.500,49.000,26.500
1.360,44.500,12.500,48.500,26.000
1.361,44.500,11.000,48.000,25.500
1.362,44.500,10.500,48.000,25.000
1.363,44.500,10.000,47.500,25.000
1.364,45.000,10.000,47.000,25.000
1.365,45.000,9.500,46.500,24.500
1.366,45.500,10.000,47.000,25.000
1.367,45.000,10.500,47.000,25.000
1.368,45.500,11.500,47.500,25.500
1.369,45.000,12.000,47.500,25.500
1.370,45.000,13.000,48.500,26.500
1.371,44.500,14.000,48.500,26.500
1.372,44.000,15.000,49.000,27.000
1.373,44.000,15.500,49.500,27.000
1.374,44.000,16.000,50.000,27.500
1.375,44.000,16.000,50.000,27.500
1.376,44.000,16.000,50.000,27.500
1.377,44.000,15.500,50.000,27.000
1.378,44.500,15.500,50.000,27.000
1.379,44.500,14.500,49.500,26.500
1.380,44.500,14.000,49.000,26.000
1.381,44.000,13.000,48.000,25.500
1.382,44.000,13.000,47.500,25.500
1.383,43.500,12.500,46.500,25.000
1.384,43.500,12.500,46.000,24.500
1.385,43.000,12.000,45.500,24.500
1.386,43.000,12.500,45.500,24.500
1.387,42.500,12.500,45.500,24.500
1.388,43.000,12.500,46.000,24.500
1.389,42.500,12.500,46.000,24.500
1.390,43.000,12.500,47.000,25.000
1.391,42.500,12.500,47.500,25.500
1.392,43.000,12.500,48.000,25.500
1.393,42.500,12.000,48.500,25.500
1.394,43.000,12.500,49.000,25.500
1.395,43.000,12.000,49.000,25.500
1.396,43.500,12.000,49.000,25.000
1.397,43.500,11.000,48.000,24.500
1.398,44.000,10.500,47.500,24.000
1.399,44.000,9.500,47.000,23.500
1.400,44.500,9.000,46.500,23.000
1.401,44.500,8.000,46.000,22.500
1.402,44.500,7.500,45.500,22.500
1.403,44.000,7.000,45.000,22.000
1.404,44.000,7.500,45.000,22.000
1.405,43.500,7.500,44.500,21.500
1.406,43.500,8.000,44.500,21.500
1.407,43.000,8.000,44.500,21.500
1.408,43.000,9.000,45.000,21.500
1.409,42.500,9.500,45.000,21.500
1.410,42.500,10.500,46.000,22.000
1.411,42.500,11.000,46.500,22.000
1.412,42.500,12.000,47.000,22.500
1.413,42.000,12.000,47.000,22.500
1.414,42.000,12.500,47.000,23.000
1.415,42.000,12.500,46.500,22.500
1.416,42.500,12.000,46.000,22.500
1.417,42.500,11.000,45.000,22.000
1.418,42.500,10.500,44.500,21.500
1.419,42.500,9.500,43.500,20.500
1.420,43.000,8.500,42.500,20.000
1.421,43.000,7.500,41.500,19.500
1.422,43.000,6.500,40.500,19.000
1.423,42.500,6.000,40.000,18.500
1.424,42.500,6.000,39.500,18.000
1.425,42.500,5.500,39.500,18.000
1.426,42.500,5.500,40.000,18.000
1.427,42.500,5.500,40.000,17.500
1.428,42.500,6.000,40.500,18.000
1.429,42.000,6.000,41.000,18.000
1.430,42.000,6.500,41.000,18.000
1.431,41.500,7.000,41.000,18.000
1.432,41.500,7.500,41.000,18.500
1.433,41.500,7.500,40.500,18.000
1.434,41.500,7.500,40.000,18.000
1.435,41.000,7.500,39.500,18.000
1.436,41.000,7.000,39.000,17.500
1.437,41.000,6.500,37.500,17.000
1.438,41.500,5.500,37.000,17.000
1.439,41.500,4.500,36.000,16.500
1.440,41.500,3.500,35.500,16.000
1.441,41.500,2.500,34.500,15.500
1.442,41.500,2.000,34.500,15.000
1.443,41.500,1.500,34.000,14.500
1.444,41.500,1.500,34.000,14.500
1.445,41.000,1.000,33.500,13.500
1.446,41.000,1.500,33.500,13.500
1.447,41.000,1.500,33.500,13.000
1.448,40.500,2.000,33.500,13.000
1.449,40.000,2.000,33.500,12.500
1.450,40.000,2.500,33.500,13.000
1.451,39.500,2.500,33.000,13.000
1.452,39.500,2.500,33.000,13.500
1.453,39.500,2.000,33.000,13.500
1.454,40.000,2.000,32.500,13.500
1.455,40.000,1.500,32.000,13.500
1.456,40.000,1.000,31.500,13.000
1.457,40.000,0.500,30.500,12.500
1.458,40.000,0.500,30.000,12.000
1.459,40.000,-0.500,29.000,11.500
1.460,40.000,-1.000,28.500,11.000
1.461,40.000,-1.500,28.000,10.500
1.462,40.000,-2.000,28.000,10.500
1.463,40.000,-2.500,27.500,10.000
1.464,40.000,-2.500,27.500,10.000
1.465,39.500,-2.500,27.500,9.500
1.466,40.000,-2.500,28.000,9.500
1.467,39.500,-2.000,27.500,9.500
1.468,39.500,-2.000,28.000,9.500
1.469,39.000,-1.500,28.000,9.500
1.470,39.000,-1.000,28.500,10.000
1.471,38.500,0.000,28.500,10.500
1.472,38.500,0.500,29.000,11.000
1.473,38.500,1.000,29.000,11.500
1.474,38.500,1.000,29.000,12.000
1.475,38.500,1.000,28.500,12.500
1.476,39.000,1.000,28.500,12.500
1.477,39.500,0.500,27.500,12.500
1.478,39.500,0.500,27.500,12.500
1.479,39.500,-0.500,26.500,12.000
1.480,40.000,-1.000,26.500,12.000
1.481,40.000,-1.500,26.000,12.000
1.482,40.000,-2.000,26.000,12.500
1.483,39.500,-2.000,26.000,12.500
1.484,39.500,-2.500,26.000,13.500
1.485,39.000,-2.000,26.500,14.000
1.486,39.500,-1.500,27.000,15.000
1.487,39.000,-1.000,27.500,15.500
1.488,39.500,0.000,28.000,16.500
1.489,39.000,0.500,28.500,17.000
1.490,39.500,1.500,29.500,18.000
1.491,39.000,2.500,30.000,19.000
1.492,39.000,3.500,31.000,20.000
1.493,38.500,4.000,31.500,20.500
1.494,38.500,4.500,32.000,21.000
1.495,38.500,5.000,32.500,21.500
1.496,38.500,5.000,33.000,22.000
1.497,38.500,5.000,33.500,22.500
1.498,38.500,5.000,34.000,23.000
1.499,38.500,4.500,34.000,23.000
1.500,39.000,4.000,34.000,23.500
1.501,38.500,3.500,34.000,23.500
1.502,38.500,3.500,34.000,23.500
1.503,38.000,3.000,34.000,23.500
1.504,38.000,3.000,34.500,24.000
1.505,38.000,3.000,35.000,24.500
1.506,38.000,3.500,36.500,25.500
1.507,37.500,4.000,37.500,26.500
1.508,38.000,5.000,39.000,27.500
1.509,38.000,6.000,41.000,28.500
1.510,38.500,7.500,43.500,30.000
1.511,39.000,9.000,45.500,31.000
1.512,39.000,10.500,48.000,32.500
1.513,39.000,12.000,49.500,33.500
1.514,39.500,13.000,51.000,34.500
1.515,39.000,14.000,51.500,35.000
1.516,39.500,14.500,51.500,35.500
1.517,39.500,14.000,51.000,35.500
1.518,39.500,13.500,50.000,35.000
1.519,39.500,12.000,48.500,34.500
1.520,40.000,10.500,47.000,33.500
1.521,40.000,8.500,45.500,32.500
1.522,40.500,7.000,44.500,31.500
1.523,40.500,5.500,43.500,30.000
1.524,40.500,4.500,42.500,28.500
1.525,40.000,3.500,41.500,27.000
1.526,40.000,3.000,41.000,26.000
1.527,39.500,2.500,40.500,25.000
1.528,39.000,3.000,40.500,24.500
1.529,38.000,3.000,40.500,23.500
1.530,38.000,4.000,40.500,23.500
1.531,37.500,4.500,40.500,23.000
1.532,37.500,5.500,41.500,23.000
1.533,37.000,6.500,41.500,22.500
1.534,37.000,7.500,42.000,23.000
1.535,37.000,8.000,42.000,23.000
1.536,37.500,8.500,42.000,23.000
1.537,37.500,9.000,42.000,23.000
1.538,38.000,9.000,42.000,23.000
1.539,38.000,9.000,42.000,23.000
1.540,38.500,9.000,42.500,23.500
1.541,38.500,9.000,42.500,24.000
1.542,38.500,9.000,43.000,24.000
1.543,38.500,8.500,43.000,24.000
1.544,39.000,8.500,43.500,24.500
1.545,38.500,8.000,43.500,24.000
1.546,39.000,8.000,44.000,24.500
1.547,38.500,8.000,44.000,24.500
1.548,39.000,8.500,44.500,24.500
1.549,38.500,8.500,45.000,24.500
1.550,38.500,9.000,45.500,25.000
1.551,38.500,10.000,45.500,25.000
1.552,39.000,11.000,46.000,25.500
1.553,39.000,11.500,46.000,25.500
1.554,39.000,12.000,46.000,26.000
1.555,38.500,12.000,45.500,25.500
1.556,39.000,12.000,45.500,25.500
1.557,38.500,11.500,45.000,25.000
1.558,39.000,11.000,44.500,25.000
1.559,38.500,9.500,44.000,24.500
1.560,39.000,9.000,43.500,24.500
1.561,38.500,8.000,43.000,24.000
1.562,38.500,7.000,42.500,24.000
1.563,38.500,6.500,42.500,23.500
1.564,38.500,6.500,42.500,23.500
1.565,38.500,6.000,42.000,23.000
1.566,39.000,6.500,42.500,23.000
1.567,38.500,6.500,42.500,23.000
1.568,38.500,7.000,43.000,23.000
1.569,38.000,7.500,43.500,23.000
1.570,38.000,8.500,43.500,23.500
1.571,37.500,9.000,43.500,24.000
1.572,38.000,10.000,44.000,24.000
1.573,38.000,10.000,44.500,24.000
1.574,38.500,10.500,44.500,24.500
1.575,38.500,10.500,44.500,24.000
1.576,38.500,10.500,44.000,24.000
1.577,38.500,10.000,43.500,23.500
1.578,38.500,9.500,43.000,23.500
1.579,38.500,8.500,42.000,22.500
1.580,38.000,7.500,41.000,22.500
1.581,37.500,6.500,40.000,21.500
1.582,37.500,6.000,39.500,21.500
1.583,37.000,5.500,39.000,21.000
1.584,37.000,5.000,39.000,20.500
1.585,36.500,5.000,39.000,20.500
1.586,36.500,5.000,39.500,20.500
1.587,36.500,5.000,39.500,20.500
1.588,36.500,6.000,40.000,21.000
1.589,36.000,6.500,40.500,21.000
1.590,36.000,7.500,41.000,21.500
1.591,36.000,8.000,41.000,22.000
1.592,36.500,8.500,41.500,22.500
1.593,36.500,9.000,41.000,22.500
1.594,36.500,10.000,41.500,22.500
1.595,36.500,10.000,41.000,22.500
1.596,37.000,10.000,41.000,22.500
1.597,37.000,10.000,40.500,22.000
1.598,37.000,9.500,40.500,21.500
1.599,37.000,9.000,40.000,21.000
1.600,37.000,8.000,40.000,21.000
1.601,37.000,7.500,39.500,21.000
1.602,36.500,7.000,39.500,21.000
1.603,36.500,6.500,39.500,20.500
1.604,36.500,6.500,39.500,20.500
1.605,36.500,6.500,39.000,20.500
1.606,36.500,6.500,39.000,21.000
1.607,36.000,6.000,39.000,21.000
1.608,36.000,6.500,39.000,21.000
1.609,36.000,6.000,39.000,21.000
1.610,36.500,6.500,39.500,21.500
1.611,36.500,6.500,39.500,21.500
1.612,36.500,7.000,40.000,21.500
1.613,36.500,7.000,40.500,21.500
1.614,36.500,8.000,40.500,22.000
1.615,36.500,8.000,40.500,22.000
1.616,36.500,8.500,41.000,22.000
1.617,36.500,8.500,40.500,21.500
1.618,37.000,9.000,40.500,21.500
1.619,37.000,8.500,40.000,21.000
1.620,37.500,8.000,39.500,20.500
1.621,37.000,7.500,39.500,20.000
1.622,37.000,7.000,39.500,20.000
1.623,36.500,6.500,39.000,20.000
1.624,36.500,6.500,39.000,20.000
1.625,36.500,6.000,39.000,20.000
1.626,36.500,6.000,39.000,20.000
1.627,36.000,5.500,39.000,20.000
1.628,36.000,5.500,39.000,20.500
1.629,35.500,5.500,39.000,20.500
1.630,35.500,6.000,39.500,21.000
1.631,35.000,6.000,40.000,21.000
1.632,35.000,7.000,40.500,21.500
1.633,34.500,7.500,41.000,22.000
1.634,34.500,8.500,41.500,22.000
1.635,34.500,8.500,41.000,22.000
1.636,34.500,8.500,41.000,22.500
1.637,34.000,8.000,40.000,22.000
1.638,34.000,8.000,39.500,22.000
1.639,34.000,7.500,38.500,21.500
1.640,34.000,7.000,38.000,21.000
1.641,34.000,6.000,37.500,20.500
1.642,34.500,6.000,37.000,20.000
1.643,34.000,5.000,36.500,19.500
1.644,34.000,5.000,36.500,19.500
1.645,34.000,4.500,36.500,19.000
1.646,34.000,4.000,36.500,19.000
1.647,33.500,4.000,36.500,19.000
1.648,33.500,4.000,37.000,19.000
1.649,33.500,4.500,37.500,19.000
1.650,33.500,5.000,38.000,19.000
1.651,33.000,5.500,38.000,19.000
1.652,33.000,6.500,39.000,19.500
1.653,33.000,7.000,39.000,19.500
1.654,33.000,7.500,39.500,20.000
1.655,32.500,7.500,39.500,19.500
1.656,33.000,7.500,39.500,19.500
1.657,33.500,7.000,39.000,19.000
1.658,34.000,6.500,38.500,18.500
1.659,34.000,5.500,38.000,18.000
1.660,34.000,4.500,37.500,17.500
1.661,34.000,3.500,37.000,17.000
1.662,34.000,3.000,37.000,16.500
1.663,33.500,2.000,36.500,16.000
1.664,33.500,1.500,36.000,16.000
1.665,33.000,1.500,36.000,16.000
1.666,33.000,1.500,36.000,16.000
1.667,32.500,1.000,36.000,16.000
1.668,32.500,1.500,36.500,16.500
1.669,32.500,1.500,36.500,16.500
1.670,32.500,2.000,37.500,17.000
1.671,32.000,2.500,38.000,17.500
1.672,32.000,3.000,39.000,17.500
1.673,32.000,3.000,39.000,17.500
1.674,32.000,3.000,39.500,18.000
1.675,31.500,3.000,39.500,18.000
1.676,32.000,3.000,39.000,18.000
1.677,32.000,2.000,38.500,18.000
1.678,32.500,1.500,38.000,18.000
1.679,32.500,0.500,37.500,17.500
1.680,32.500,0.000,37.000,17.000
1.681,32.500,-1.000,36.500,16.500
1.682,32.500,-1.500,36.000,16.500
1.683,32.000,-2.000,35.500,16.000
1.684,32.000,-3.000,35.000,16.000
1.685,32.000,-3.000,34.500,15.500
1.686,32.000,-3.500,34.500,16.000
1.687,32.000,-3.500,34.000,16.000
1.688,31.500,-3.500,34.000,16.500
1.689,31.000,-3.500,34.000,16.500
1.690,31.000,-3.000,34.500,17.000
1.691,30.500,-2.000,35.000,17.000
1.692,30.500,-1.500,35.000,17.000
1.693,30.500,-0.500,35.000,17.000
1.694,30.500,-0.500,35.000,17.000
1.695,30.000,0.000,35.000,17.000
1.696,30.500,0.500,35.000,16.500
1.697,30.000,0.000,34.500,16.000
1.698,30.500,-0.500,34.000,16.000
1.699,30.500,-0.500,33.500,15.500
1.700,30.500,-1.500,33.500,15.500
1.701,30.500,-2.000,33.000,15.000
1.702,30.500,-3.000,33.000,15.000
1.703,30.500,-3.500,33.000,14.500
1.704,30.500,-3.500,33.000,14.500
1.705,30.500,-3.500,32.500,14.500
1.706,30.500,-3.500,33.000,14.500
1.707,30.500,-3.000,33.000,14.000
1.708,30.000,-3.000,33.000,14.500
1.709,29.500,-2.000,33.500,14.500
1.710,29.500,-1.500,34.000,14.500
1.711,29.000,-1.000,34.000,15.000
1.712,29.000,0.000,34.500,15.500
1.713,28.500,0.500,35.000,15.500
1.714,28.500,1.500,35.500,16.000
1.715,28.500,1.500,35.500,16.000
1.716,29.000,1.500,35.500,16.000
1.717,29.000,1.000,35.000,15.500
1.718,29.500,0.500,35.000,15.000
1.719,29.500,-0.500,34.000,14.000
1.720,29.500,-1.500,33.500,13.000
1.721,29.500,-3.000,33.000,12.000
1.722,29.500,-4.000,33.000,11.500
1.723,29.500,-5.000,32.500,10.500
1.724,29.500,-5.500,32.500,10.500
1.725,29.500,-5.500,32.500,10.000
1.726,29.500,-5.500,33.000,10.500
1.727,29.500,-5.000,33.000,10.500
1.728,29.500,-4.500,33.500,11.000
1.729,29.000,-4.000,33.000,11.500
1.730,28.500,-3.000,33.000,12.000
1.731,28.000,-2.500,33.000,12.000
1.732,28.000,-2.000,33.000,12.500
1.733,27.500,-1.500,33.000,12.500
1.734,27.500,-1.500,33.000,12.500
1.735,27.000,-1.000,32.500,12.000
1.736,27.500,-1.500,32.500,12.000
1.737,27.500,-2.000,31.500,11.500
1.738,28.000,-3.000,31.000,11.500
1.739,28.000,-4.000,30.500,10.500
1.740,28.500,-5.000,30.000,10.500
1.741,28.500,-5.500,29.000,10.000
1.742,28.500,-6.500,29.000,10.000
1.743,28.000,-7.000,28.500,9.500
1.744,28.000,-8.000,28.500,10.000
1.745,27.500,-8.000,28.000,10.000
1.746,27.500,-8.000,28.500,10.000
1.747,27.000,-7.500,29.000,10.000
1.748,27.000,-7.500,29.500,10.000
1.749,26.500,-6.500,29.500,9.500
1.750,26.500,-6.000,30.000,9.500
1.751,26.500,-5.000,30.000,9.500
1.752,26.500,-4.000,30.000,9.500
1.753,26.000,-3.000,29.500,9.500
1.754,26.000,-3.000,29.500,9.500
1.755,26.000,-2.500,29.000,9.000
1.756,26.000,-3.000,29.000,9.000
1.757,25.500,-3.500,28.500,8.500
1.758,26.000,-4.500,28.500,8.500
1.759,25.500,-5.500,28.000,8.500
1.760,26.000,-6.500,27.500,8.000
1.761,25.500,-7.500,27.000,7.500
1.762,26.000,-8.000,27.000,7.000
1.763,26.000,-8.500,26.500,6.500
1.764,26.000,-9.000,26.500,6.000
1.765,25.500,-9.500,26.500,5.500
1.766,25.500,-9.500,27.000,5.500
1.767,25.000,-9.500,27.000,5.000
1.768,25.000,-9.500,27.500,5.000
1.769,25.000,-9.000,27.500,5.000
1.770,24.500,-8.500,28.000,5.500
1.771,24.000,-8.000,28.000,5.500
1.772,24.000,-7.500,28.500,5.500
1.773,24.000,-7.000,28.000,5.500
1.774,24.000,-6.500,28.500,5.500
1.775,24.000,-6.500,28.000,5.000
1.776,24.500,-6.500,28.000,5.000
1.777,24.500,-6.500,27.000,4.500
1.778,24.500,-7.000,27.000,4.500
1.779,24.500,-7.500,26.000,4.000
1.780,24.500,-8.500,26.000,4.000
1.781,24.500,-9.000,25.500,4.000
1.782,24.500,-10.000,25.500,3.500
1.783,24.500,-10.500,25.500,3.500
1.784,25.000,-11.000,25.500,3.500
1.785,25.000,-11.000,25.500,3.500
1.786,25.000,-11.000,26.000,3.500
1.787,24.500,-10.500,26.000,4.000
1.788,24.500,-10.500,26.500,4.500
1.789,24.000,-9.500,27.000,4.500
1.790,24.000,-9.000,27.500,4.500
1.791,23.500,-8.000,27.500,4.500
1.792,23.500,-7.500,28.000,4.500
1.793,23.000,-7.000,27.500,4.000
1.794,23.000,-7.000,28.000,4.000
1.795,23.000,-7.000,27.500,3.500
1.796,23.000,-7.500,27.500,3.500
1.797,23.000,-7.500,27.000,3.000
1.798,23.000,-8.500,26.500,3.000
1.799,23.000,-9.000,26.000,2.000
1.800,23.000,-10.000,25.500,2.000
1.801,22.500,-10.500,25.000,1.500
1.802,22.500,-11.500,24.500,1.500
1.803,22.500,-12.000,24.000,1.000
1.804,22.500,-12.500,24.000,1.000
1.805,22.000,-12.500,23.500,1.000
1.806,22.000,-12.500,24.000,1.500
1.807,22.000,-12.500,24.000,1.500
1.808,22.000,-12.500,24.000,1.500
1.809,22.000,-12.000,24.000,1.000
1.810,22.000,-11.500,24.500,1.500
1.811,22.000,-11.000,24.500,1.500
1.812,22.000,-10.500,25.000,1.500
1.813,22.000,-9.500,25.000,1.500
1.814,22.000,-9.500,25.000,2.000
1.815,21.500,-9.000,25.000,1.500
1.816,21.500,-9.000,24.500,1.500
1.817,21.500,-9.000,24.000,1.000
1.818,21.500,-10.000,23.500,1.000
1.819,21.000,-10.500,22.500,0.000
1.820,21.500,-11.500,22.000,-1.000
1.821,21.500,-12.500,21.500,-1.500
1.822,21.500,-13.500,21.000,-2.000
1.823,21.500,-14.000,20.500,-2.500
1.824,21.500,-15.000,20.500,-3.000
1.825,21.000,-15.000,20.500,-3.000
1.826,20.500,-15.500,20.500,-3.000
1.827,20.000,-15.000,20.500,-2.500
1.828,20.000,-15.000,21.500,-2.500
1.829,20.000,-14.500,22.000,-2.000
1.830,20.000,-14.000,23.000,-2.000
1.831,19.500,-13.500,23.500,-1.500
1.832,19.500,-13.000,24.500,-1.000
1.833,19.000,-12.000,25.000,0.000
1.834,19.000,-12.000,25.500,0.500
1.835,18.500,-11.500,26.000,0.500
1.836,18.500,-12.000,26.000,0.500
1.837,18.500,-12.500,25.500,0.000
1.838,19.000,-13.000,25.500,-0.500
1.839,19.500,-14.000,25.000,-0.500
1.840,19.500,-15.000,25.000,-1.000
1.841,19.500,-16.000,24.500,-1.000
1.842,19.500,-16.500,24.500,-1.000
1.843,19.500,-17.000,24.000,-1.000
1.844,19.500,-17.500,24.000,-1.000
1.845,19.000,-17.500,24.000,-0.500
1.846,19.000,-17.500,24.000,-0.500
1.847,19.000,-17.000,23.500,0.000
1.848,18.500,-16.500,23.500,0.000
1.849,18.000,-16.000,23.500,0.000
1.850,18.000,-16.000,23.500,0.500
1.851,17.500,-16.000,23.000,1.000
1.852,17.000,-15.500,23.000,1.000
1.853,17.000,-15.000,22.500,1.500
1.854,17.000,-15.000,22.000,1.500
1.855,17.000,-14.500,21.500,1.500
1.856,17.000,-15.000,21.500,1.500
1.857,17.500,-15.500,21.000,1.000
1.858,17.500,-16.500,21.000,1.000
1.859,17.500,-17.500,20.000,0.000
1.860,17.500,-18.500,19.500,-0.500
1.861,17.500,-19.500,18.500,-1.000
1.862,17.500,-20.500,18.000,-2.000
1.863,17.000,-21.000,17.500,-2.500
1.864,17.000,-21.500,17.500,-3.000
1.865,16.500,-21.500,17.000,-3.500
1.866,16.500,-22.000,17.500,-4.000
1.867,16.000,-21.500,17.500,-4.000
1.868,16.000,-21.500,17.500,-4.500
1.869,15.500,-21.000,17.500,-4.500
1.870,15.500,-20.500,17.500,-5.000
1.871,15.000,-20.000,17.500,-5.000
1.872,15.500,-19.500,17.500,-5.500
1.873,15.500,-19.000,17.000,-5.500
1.874,15.500,-19.000,17.000,-6.000
1.875,15.000,-18.500,16.500,-6.000
1.876,15.000,-19.000,16.000,-6.500
1.877,14.500,-19.500,15.500,-7.000
1.878,14.500,-20.500,15.000,-7.500
1.879,14.500,-21.500,14.000,-8.000
1.880,14.500,-23.000,13.000,-8.500
1.881,14.000,-24.000,12.000,-9.000
1.882,14.000,-25.000,11.500,-10.000
1.883,13.500,-26.000,11.000,-10.500
1.884,13.000,-26.500,10.500,-11.000
1.885,12.500,-26.500,10.000,-11.000
1.886,12.500,-27.000,10.000,-11.500
1.887,12.500,-26.500,9.500,-12.000
1.888,12.500,-26.500,10.000,-12.000
1.889,12.000,-25.500,10.500,-12.000
1.890,12.500,-25.000,11.000,-12.000
1.891,12.500,-24.500,11.500,-12.000
1.892,12.500,-24.500,12.000,-12.000
1.893,12.500,-24.000,12.500,-11.500
1.894,12.500,-24.000,13.000,-11.500
1.895,12.500,-24.000,13.000,-11.000
1.896,12.500,-24.500,13.500,-10.500
1.897,12.000,-25.000,13.000,-10.500
1.898,12.500,-25.500,13.000,-10.500
1.899,12.000,-26.000,12.500,-10.500
1.900,12.500,-26.500,12.000,-10.500
1.901,12.000,-27.000,11.500,-10.500
1.902,12.500,-27.500,11.000,-11.000
1.903,12.000,-27.500,10.500,-11.500
1.904,12.000,-28.000,10.500,-12.000
1.905,11.500,-27.500,10.500,-12.000
1.906,11.500,-27.500,10.500,-12.000
1.907,11.000,-27.000,11.000,-12.000
1.908,11.000,-27.000,11.500,-12.000
1.909,10.500,-26.500,12.000,-12.000
1.910,10.500,-26.000,13.000,-11.500
1.911,10.500,-25.000,13.500,-11.000
1.912,10.500,-24.500,14.000,-11.000
1.913,10.000,-24.000,14.500,-11.000
1.914,10.000,-23.500,14.500,-10.500
1.915,9.500,-23.000,14.000,-10.500
1.916,9.500,-23.000,14.000,-10.500
1.917,9.500,-23.000,13.500,-10.500
1.918,9.500,-24.000,13.000,-11.000
1.919,9.500,-24.500,12.500,-11.500
1.920,10.000,-25.500,12.500,-12.000
1.921,10.000,-26.000,12.000,-12.500
1.922,10.000,-26.500,12.000,-13.000
1.923,10.000,-27.000,12.000,-13.000
1.924,10.000,-27.500,12.000,-13.500
1.925,9.500,-27.500,11.500,-13.500
1.926,9.000,-27.500,12.000,-14.000
1.927,8.500,-27.500,12.000,-13.500
1.928,8.500,-27.000,12.500,-13.500
1.929,8.000,-26.500,13.000,-13.000
1.930,8.000,-26.000,13.500,-13.000
1.931,8.000,-25.000,14.000,-13.000
1.932,8.000,-24.500,14.500,-13.000
1.933,7.500,-23.500,14.500,-12.500
1.934,7.500,-23.500,14.500,-13.000
1.935,7.500,-23.500,14.000,-13.000
1.936,7.500,-24.000,13.500,-13.500
1.937,7.000,-24.500,13.000,-14.000
1.938,7.500,-25.500,12.500,-15.000
1.939,7.500,-26.500,11.500,-15.500
1.940,7.500,-28.000,11.000,-16.000
1.941,7.000,-29.500,10.000,-16.500
1.942,7.000,-30.500,9.000,-17.000
1.943,7.000,-31.500,8.000,-17.000
1.944,7.000,-32.000,8.000,-17.500
1.945,6.500,-32.000,7.500,-17.000
1.946,6.500,-31.500,8.000,-17.000
1.947,6.000,-31.000,8.500,-16.500
1.948,6.000,-30.000,9.500,-15.500
1.949,5.500,-29.000,10.500,-14.000
1.950,5.500,-28.000,12.000,-12.000
1.951,5.500,-27.000,13.000,-9.500
1.952,5.500,-26.500,14.500,-7.500
1.953,5.500,-25.500,16.000,-4.500
1.954,5.500,-25.500,17.500,-2.000
1.955,5.500,-25.500,18.000,0.500
1.956,5.500,-26.000,18.500,2.500
1.957,5.000,-26.500,18.500,4.000
1.958,5.000,-27.500,18.500,5.500
1.959,5.000,-28.500,17.500,6.000
1.960,4.500,-29.500,17.000,7.000
1.961,4.000,-30.500,16.500,7.500
1.962,3.500,-32.000,16.000,8.000
1.963,3.000,-33.000,15.000,8.500
1.964,2.500,-34.500,14.500,8.500
1.965,1.500,-35.500,13.500,8.500
1.966,1.000,-37.000,12.000,8.000
1.967,0.000,-38.500,9.500,7.000
1.968,-1.000,-40.000,7.000,6.000
1.969,-1.500,-41.500,3.500,4.000
1.970,-2.500,-44.000,-0.500,1.500
1.971,-3.500,-46.000,-4.000,-1.000
1.972,-4.500,-48.500,-8.500,-4.500
1.973,-5.500,-51.000,-13.000,-7.500
1.974,-7.000,-53.500,-18.500,-11.500
1.975,-8.000,-56.500,-23.500,-16.000
1.976,-9.000,-59.500,-29.500,-21.500
1.977,-10.000,-62.500,-35.500,-28.000
1.978,-11.000,-65.500,-42.000,-35.000
1.979,-11.000,-68.500,-48.500,-43.000
1.980,-11.500,-71.500,-54.500,-51.000
1.981,-11.500,-73.500,-60.000,-59.000
1.982,-12.000,-76.000,-65.500,-67.500
1.983,-12.000,-77.500,-70.000,-74.500
1.984,-12.000,-79.000,-74.500,-81.000
1.985,-11.500,-79.000,-77.000,-86.000
1.986,-11.500,-78.500,-78.500,-90.000
1.987,-11.000,-77.000,-78.000,-92.500
1.988,-11.000,-75.000,-76.500,-93.500
1.989,-10.500,-72.000,-73.000,-93.000
1.990,-10.000,-68.500,-68.500,-91.500
1.991,-9.000,-65.000,-63.500,-89.500
1.992,-8.500,-61.500,-58.500,-87.000
1.993,-7.500,-58.000,-53.000,-84.000
1.994,-6.500,-55.000,-48.500,-81.000
1.995,-5.500,-52.500,-43.500,-78.000
1.996,-5.000,-50.000,-39.000,-75.000
1.997,-4.000,-48.000,-35.000,-72.000
1.998,-3.500,-47.000,-31.500,-69.500
1.999,-2.500,-45.500,-27.500,-67.000
2.000,-2.000,-45.000,-24.500,-65.000
2.001,-1.500,-44.000,-21.500,-62.500
2.002,-1.500,-44.000,-19.500,-61.000
2.003,-1.500,-43.500,-17.000,-59.500
2.004,-1.500,-43.000,-15.000,-58.000
2.005,-1.000,-42.000,-12.500,-56.000
2.006,-1.000,-41.000,-10.500,-54.500
2.007,-1.000,-39.500,-8.500,-52.500
2.008,-1.000,-38.500,-6.500,-51.000
2.009,-1.000,-36.500,-4.500,-49.000
2.010,-1.000,-35.500,-3.000,-47.000
2.011,-1.000,-34.000,-1.500,-45.000
2.012,-1.000,-33.000,-0.500,-43.000
2.013,-1.000,-32.000,1.000,-41.000
2.014,-1.500,-32.000,1.500,-39.500
2.015,-1.500,-31.500,2.000,-38.000
2.016,-1.500,-31.500,2.500,-36.500
2.017,-1.500,-32.000,3.000,-35.000
2.018,-2.000,-33.000,3.500,-34.000
2.019,-2.500,-33.500,3.500,-32.500
2.020,-3.000,-35.000,3.500,-31.500
2.021,-3.000,-35.500,3.500,-30.500
2.022,-3.500,-36.500,4.000,-30.000
2.023,-4.000,-37.000,4.000,-29.500
2.024,-4.000,-37.500,4.000,-29.000
2.025,-4.000,-37.500,4.500,-28.000
2.026,-4.500,-38.000,4.500,-28.000
2.027,-5.000,-38.000,4.500,-27.500
2.028,-5.500,-38.000,5.000,-27.000
2.029,-5.500,-37.500,5.500,-26.500
2.030,-6.000,-37.500,6.000,-26.000
2.031,-6.500,-36.500,6.000,-25.500
2.032,-7.000,-36.500,6.000,-26.000
2.033,-7.000,-36.000,6.000,-25.500
2.034,-7.000,-36.000,6.000,-26.000
2.035,-7.000,-36.000,5.500,-26.000
2.036,-7.000,-36.500,5.000,-26.000
2.037,-6.500,-36.500,4.500,-26.000
2.038,-6.500,-37.500,4.000,-26.500
2.039,-6.500,-38.500,3.500,-26.500
2.040,-7.000,-39.500,3.500,-26.500
2.041,-7.000,-40.500,3.500,-26.500
2.042,-7.500,-41.000,3.500,-27.000
2.043,-7.500,-41.500,3.500,-27.000
2.044,-8.000,-42.000,3.500,-27.500
2.045,-8.000,-41.500,3.500,-27.500
2.046,-8.000,-41.500,4.000,-27.500
2.047,-8.000,-41.000,4.000,-27.000
2.048,-8.500,-40.500,4.000,-27.000
2.049,-8.500,-40.000,4.000,-27.000
2.050,-9.000,-39.500,4.500,-27.000
2.051,-9.000,-39.000,4.000,-27.000
2.052,-9.000,-39.000,4.000,-27.500
2.053,-9.000,-38.500,4.000,-27.500
2.054,-9.500,-38.500,4.000,-27.500
2.055,-9.000,-38.500,3.500,-27.500
2.056,-9.500,-39.000,3.500,-28.000
2.057,-9.500,-39.000,2.500,-28.000
2.058,-10.000,-40.000,2.500,-28.500
2.059,-10.000,-40.500,2.000,-28.500
2.060,-10.000,-41.000,1.500,-29.000
2.061,-10.000,-41.500,1.000,-29.000
2.062,-10.500,-42.500,1.000,-29.500
2.063,-10.500,-43.000,1.000,-29.500
2.064,-11.000,-43.500,1.500,-29.500
2.065,-11.000,-43.500,1.500,-29.500
2.066,-11.500,-44.000,1.500,-30.000
2.067,-11.500,-43.500,1.500,-30.500
2.068,-11.500,-43.500,2.000,-30.500
2.069,-11.500,-43.000,2.500,-30.500
2.070,-11.500,-42.500,3.000,-30.500
2.071,-11.500,-42.000,3.500,-30.500
2.072,-11.500,-41.500,4.000,-30.500
2.073,-11.500,-40.500,4.000,-30.500
2.074,-12.000,-40.000,4.000,-30.000
2.075,-12.500,-39.500,4.000,-29.500
2.076,-12.500,-39.500,4.000,-29.500
2.077,-12.500,-40.000,3.500,-29.500
2.078,-12.500,-40.500,3.000,-30.000
2.079,-12.500,-41.000,2.000,-30.500
2.080,-12.500,-42.000,1.500,-31.000
2.081,-12.500,-43.000,1.000,-31.500
2.082,-12.500,-44.000,0.500,-32.000
2.083,-12.500,-44.500,0.000,-32.500
2.084,-13.000,-45.000,-0.500,-33.000
2.085,-13.500,-45.500,-0.500,-33.000
2.086,-14.000,-45.500,-0.500,-33.000
2.087,-14.000,-45.500,-0.500,-33.000
2.088,-14.500,-45.000,0.000,-33.000
2.089,-14.500,-44.500,0.500,-32.500
2.090,-15.000,-44.000,1.000,-32.500
2.091,-15.000,-43.000,1.000,-32.000
2.092,-15.500,-43.000,1.500,-32.000
2.093,-15.500,-42.500,1.500,-32.000
2.094,-15.500,-42.500,1.500,-32.000
2.095,-15.000,-42.000,1.000,-32.000
2.096,-15.000,-42.500,1.000,-32.500
2.097,-15.000,-42.500,0.500,-32.500
2.098,-15.000,-43.000,0.500,-33.000
2.099,-15.000,-43.500,-0.500,-33.500
2.100,-15.500,-44.500,-1.500,-34.000
2.101,-15.500,-45.500,-2.000,-34.500
2.102,-16.000,-46.000,-2.500,-35.000
2.103,-16.000,-46.500,-2.500,-35.500
2.104,-16.000,-47.000,-2.500,-36.000
2.105,-16.000,-47.000,-2.500,-36.000
2.106,-16.500,-47.000,-2.500,-36.500
2.107,-16.500,-47.000,-2.000,-36.000
2.108,-17.000,-46.500,-2.000,-36.500
2.109,-17.000,-46.000,-1.500,-36.000
2.110,-17.500,-45.500,-1.500,-36.500
2.111,-17.500,-45.000,-1.000,-36.000
2.112,-18.000,-44.500,-1.000,-36.000
2.113,-18.000,-43.500,-1.000,-35.500
2.114,-18.500,-43.500,-1.000,-35.000
2.115,-18.500,-43.500,-1.000,-34.500
2.116,-18.500,-44.000,-1.500,-34.500
2.117,-18.500,-44.500,-2.000,-34.500
2.118,-18.500,-45.500,-3.000,-35.000
2.119,-18.500,-46.500,-3.500,-35.500
2.120,-18.500,-47.500,-4.500,-36.000
2.121,-18.500,-48.500,-5.000,-36.500
2.122,-19.000,-49.500,-6.000,-37.000
2.123,-19.000,-50.000,-6.500,-37.500
2.124,-19.500,-50.500,-7.500,-38.000
2.125,-19.500,-50.500,-7.500,-38.000
2.126,-19.500,-50.500,-8.000,-38.000
2.127,-19.500,-50.500,-8.000,-37.500
2.128,-20.000,-50.000,-8.000,-37.500
2.129,-20.500,-49.500,-7.500,-37.500
2.130,-21.000,-49.500,-7.500,-38.000
2.131,-21.000,-49.000,-7.000,-38.000
2.132,-21.500,-49.000,-7.000,-38.000
2.133,-21.500,-48.500,-6.500,-38.000
2.134,-22.000,-48.500,-6.500,-38.500
2.135,-21.500,-48.000,-6.500,-39.000
2.136,-21.500,-48.500,-7.000,-39.500
2.137,-21.500,-48.500,-7.000,-39.500
2.138,-21.500,-49.500,-8.000,-40.000
2.139,-21.500,-50.500,-8.500,-40.000
2.140,-22.000,-51.500,-9.500,-40.500
2.141,-22.000,-52.000,-10.500,-40.500
2.142,-22.500,-53.000,-11.500,-41.000
2.143,-23.000,-53.500,-12.500,-41.500
2.144,-23.500,-54.000,-13.000,-42.000
2.145,-23.500,-54.000,-13.500,-42.500
2.146,-24.000,-54.000,-14.500,-43.000
2.147,-24.500,-54.000,-14.500,-43.000
2.148,-25.000,-54.000,-15.000,-43.000
2.149,-25.000,-53.500,-15.000,-43.000
2.150,-25.500,-53.500,-15.000,-42.500
2.151,-25.500,-52.500,-15.000,-42.000
2.152,-26.000,-52.000,-15.000,-42.000
2.153,-26.000,-51.500,-15.000,-42.000
2.154,-26.000,-51.500,-15.500,-42.000
2.155,-26.000,-52.000,-15.500,-42.000
2.156,-26.000,-52.500,-16.000,-42.500
2.157,-26.000,-53.500,-17.000,-43.000
2.158,-26.000,-54.500,-18.000,-44.000
2.159,-26.000,-55.500,-18.500,-44.500
2.160,-26.000,-57.000,-19.500,-45.000
2.161,-26.000,-58.000,-20.500,-45.500
2.162,-26.500,-59.000,-21.500,-46.500
2.163,-26.500,-60.000,-22.000,-47.000
2.164,-27.000,-61.000,-23.000,-48.000
2.165,-27.000,-61.500,-23.500,-48.500
2.166,-27.500,-62.000,-24.500,-49.500
2.167,-28.000,-62.000,-24.500,-50.000
2.168,-28.500,-62.500,-24.500,-50.500
2.169,-29.000,-62.000,-24.500,-50.500
2.170,-30.000,-61.500,-24.500,-50.500
2.171,-30.000,-61.000,-24.500,-50.500
2.172,-30.500,-60.500,-24.500,-50.500
2.173,-31.000,-60.000,-24.500,-50.500
2.174,-31.000,-59.500,-25.000,-50.500
2.175,-31.000,-59.500,-25.500,-50.500
2.176,-31.000,-60.000,-26.000,-51.500
2.177,-31.000,-60.500,-26.500,-52.000
2.178,-31.000,-62.000,-27.000,-52.500
2.179,-31.000,-63.000,-28.000,-53.000
2.180,-31.000,-64.000,-29.000,-54.000
2.181,-31.000,-65.000,-29.500,-54.500
2.182,-31.000,-66.000,-30.500,-55.000
2.183,-31.000,-66.500,-31.000,-55.500
2.184,-31.000,-67.000,-32.000,-56.000
2.185,-31.000,-67.500,-32.000,-56.500
2.186,-31.500,-68.000,-32.000,-56.500
2.187,-31.500,-68.000,-32.000,-56.500
2.188,-32.000,-68.000,-32.000,-57.000
2.189,-32.000,-67.500,-31.500,-56.500
2.190,-32.500,-67.000,-31.000,-56.500
2.191,-32.500,-66.000,-30.000,-56.500
2.192,-33.000,-65.500,-30.000,-56.500
2.193,-33.000,-65.000,-30.000,-56.000
2.194,-33.000,-65.000,-30.500,-56.500
2.195,-33.000,-65.000,-30.500,-56.500
2.196,-33.500,-66.000,-31.500,-57.000
2.197,-33.000,-66.500,-32.000,-57.500
2.198,-33.000,-68.000,-32.500,-58.000
2.199,-33.000,-68.500,-33.000,-58.000
2.200,-33.000,-70.000,-33.500,-58.500
2.201,-33.000,-70.500,-33.500,-58.500
2.202,-33.000,-71.500,-34.000,-59.000
2.203,-33.000,-72.000,-34.000,-59.500
2.204,-33.000,-73.000,-34.500,-60.000
2.205,-33.000,-73.000,-34.500,-60.000
2.206,-33.500,-73.500,-35.000,-60.000
2.207,-33.500,-73.500,-35.500,-60.000
2.208,-34.000,-73.000,-35.500,-60.000
2.209,-34.500,-72.500,-35.500,-59.500
2.210,-35.500,-72.000,-35.500,-59.500
2.211,-36.000,-71.500,-35.500,-58.500
2.212,-36.500,-71.000,-35.500,-58.000
2.213,-36.500,-70.000,-35.000,-57.000
2.214,-37.000,-70.000,-34.500,-56.500
2.215,-37.000,-69.500,-34.000,-56.000
2.216,-37.000,-70.000,-34.000,-55.500
2.217,-36.500,-70.000,-34.000,-55.000
2.218,-36.500,-70.500,-34.000,-55.000
2.219,-36.500,-71.000,-33.500,-54.500
2.220,-37.000,-72.000,-33.500,-54.500
2.221,-37.000,-72.500,-33.500,-54.500
2.222,-37.000,-73.500,-33.500,-54.500
2.223,-37.000,-73.500,-33.000,-54.000
2.224,-37.000,-73.500,-32.500,-54.000
2.225,-37.000,-73.000,-31.500,-53.000
2.226,-37.000,-73.000,-30.500,-52.500
2.227,-37.000,-72.000,-29.500,-52.000
2.228,-37.500,-71.000,-29.000,-51.000
2.229,-37.500,-69.500,-28.000,-50.000
2.230,-38.000,-68.500,-27.000,-49.500
2.231,-38.500,-67.000,-26.500,-48.500
2.232,-39.000,-66.000,-26.000,-48.000
2.233,-39.000,-65.000,-25.500,-47.500
2.234,-39.000,-64.500,-25.000,-47.500
2.235,-38.500,-64.000,-25.000,-47.000
2.236,-39.000,-64.500,-25.000,-47.500
2.237,-38.500,-64.500,-25.000,-47.500
2.238,-39.000,-65.000,-25.500,-48.000
2.239,-38.500,-65.500,-25.500,-48.000
2.240,-39.000,-67.000,-26.000,-48.500
2.241,-39.000,-67.500,-26.000,-48.000
2.242,-39.000,-68.500,-26.500,-48.000
2.243,-39.000,-68.500,-26.000,-48.000
2.244,-39.500,-69.500,-26.000,-48.000
2.245,-39.500,-69.500,-25.500,-48.000
2.246,-40.000,-69.500,-25.500,-48.500
2.247,-40.000,-69.000,-25.000,-48.000
2.248,-40.000,-69.000,-25.000,-48.000
2.249,-40.000,-68.000,-24.500,-47.500
2.250,-40.000,-67.000,-24.000,-47.500
2.251,-40.000,-66.000,-23.000,-47.500
2.252,-40.500,-65.000,-23.000,-47.500
2.253,-40.000,-64.000,-22.500,-47.500
2.254,-40.000,-63.500,-22.500,-47.500
2.255,-40.000,-63.000,-22.000,-47.500
2.256,-40.000,-63.000,-22.500,-48.000
2.257,-40.000,-63.500,-23.000,-48.500
2.258,-40.000,-64.000,-23.500,-49.000
2.259,-40.500,-64.500,-24.000,-49.000
2.260,-41.000,-66.000,-25.000,-49.500
2.261,-41.000,-66.500,-25.500,-50.000
2.262,-41.500,-68.000,-26.000,-50.500
2.263,-42.000,-68.500,-26.000,-50.500
2.264,-42.500,-69.000,-26.000,-51.000
2.265,-42.500,-69.000,-26.000,-51.000
2.266,-42.500,-69.000,-26.000,-51.500
2.267,-42.000,-68.500,-25.500,-51.500
2.268,-42.500,-68.000,-25.000,-51.500
2.269,-42.500,-67.500,-24.000,-51.500
2.270,-42.500,-67.000,-24.000,-51.500
2.271,-43.000,-66.000,-23.500,-51.000
2.272,-43.500,-65.500,-23.000,-50.500
2.273,-43.500,-64.500,-22.500,-50.000
2.274,-43.500,-64.500,-23.000,-50.000
2.275,-43.500,-64.000,-23.000,-49.500
2.276,-43.500,-64.500,-23.500,-50.000
2.277,-43.500,-65.000,-23.500,-50.500
2.278,-43.500,-65.500,-24.500,-51.000
2.279,-43.500,-66.500,-25.500,-51.500
2.280,-43.500,-67.500,-26.500,-53.000
2.281,-43.500,-68.500,-27.000,-53.500
2.282,-44.000,-69.500,-27.500,-54.500
2.283,-44.000,-70.000,-27.500,-55.000
2.284,-44.000,-70.500,-28.000,-55.500
2.285,-44.000,-70.500,-28.000,-55.000
2.286,-44.000,-71.000,-28.000,-55.500
2.287,-43.500,-70.500,-27.500,-55.000
2.288,-44.000,-70.500,-27.500,-55.000
2.289,-44.000,-69.500,-27.000,-54.500
2.290,-44.000,-69.000,-26.500,-54.000
2.291,-44.000,-68.000,-26.000,-54.000
2.292,-44.500,-67.500,-26.000,-54.000
2.293,-45.000,-66.500,-25.500,-53.500
2.294,-45.500,-66.500,-25.000,-53.500
2.295,-45.500,-66.500,-24.500,-53.500
2.296,-46.000,-67.000,-25.000,-53.500
2.297,-46.000,-67.500,-25.000,-53.500
2.298,-46.500,-68.500,-25.500,-53.500
2.299,-46.000,-69.500,-25.500,-53.500
2.300,-46.000,-70.500,-26.500,-54.000
2.301,-45.500,-71.500,-27.500,-54.500
2.302,-45.500,-72.500,-28.500,-55.000
2.303,-45.500,-73.000,-28.500,-55.000
2.304,-46.000,-73.500,-29.000,-55.500
2.305,-46.000,-73.500,-29.000,-56.000
2.306,-46.500,-73.500,-29.000,-56.500
2.307,-47.000,-73.000,-28.500,-56.500
2.308,-47.500,-73.000,-28.500,-57.000
2.309,-47.500,-72.000,-28.500,-57.000
2.310,-48.000,-72.000,-28.500,-57.000
2.311,-48.000,-71.000,-28.000,-57.000
2.312,-48.500,-70.500,-28.000,-57.000
2.313,-48.500,-70.000,-28.000,-57.000
2.314,-49.000,-70.000,-28.000,-57.000
2.315,-49.000,-70.000,-28.000,-56.500
2.316,-49.500,-70.500,-28.500,-57.000
2.317,-49.000,-70.500,-29.000,-57.000
2.318,-49.000,-71.500,-29.500,-57.500
2.319,-49.000,-72.500,-30.000,-58.000
2.320,-49.000,-73.500,-31.000,-58.500
2.321,-48.500,-74.000,-32.000,-58.500
2.322,-49.000,-75.000,-32.500,-59.000
2.323,-49.500,-75.500,-33.000,-59.000
2.324,-50.000,-76.000,-33.500,-59.500
2.325,-50.000,-76.500,-34.000,-59.500
2.326,-50.000,-77.000,-34.500,-59.500
2.327,-50.000,-77.000,-34.000,-59.500
2.328,-50.000,-77.000,-34.000,-59.500
2.329,-50.000,-76.500,-33.000,-59.500
2.330,-50.000,-76.000,-33.000,-59.500
2.331,-50.000,-75.000,-32.500,-59.500
2.332,-50.500,-74.500,-32.000,-59.000
2.333,-50.500,-73.500,-31.500,-58.500
2.334,-51.000,-73.500,-32.000,-58.500
2.335,-51.000,-73.000,-32.000,-58.500
2.336,-51.000,-73.500,-33.000,-58.500
2.337,-51.000,-73.500,-33.500,-58.500
2.338,-51.000,-75.000,-35.000,-59.000
2.339,-51.000,-76.000,-36.000,-59.000
2.340,-51.000,-77.000,-37.000,-60.000
2.341,-51.000,-77.500,-37.500,-60.000
2.342,-51.500,-78.500,-38.500,-61.000
2.343,-51.500,-79.000,-39.500,-61.000
2.344,-52.000,-80.000,-40.000,-62.000
2.345,-52.000,-80.000,-40.500,-62.000
2.346,-52.000,-80.000,-41.000,-62.500
2.347,-52.000,-79.500,-41.000,-62.500
2.348,-52.500,-79.500,-41.500,-62.500
2.349,-52.500,-79.000,-41.000,-62.000
2.350,-53.000,-78.500,-40.500,-61.500
2.351,-53.500,-77.000,-40.000,-61.000
2.352,-54.000,-76.500,-39.500,-60.500
2.353,-54.000,-75.500,-38.500,-60.000
2.354,-54.000,-75.000,-38.500,-60.000
2.355,-54.000,-74.000,-38.000,-60.000
2.356,-54.000,-74.500,-38.000,-60.500
2.357,-53.500,-74.500,-38.000,-60.500
2.358,-53.500,-75.500,-38.500,-61.000
2.359,-53.500,-76.500,-39.000,-61.000
2.360,-53.500,-77.500,-39.500,-61.500
2.361,-53.000,-78.500,-40.000,-62.000
2.362,-53.000,-79.500,-40.000,-62.500
2.363,-53.000,-80.000,-40.000,-63.000
2.364,-53.000,-80.500,-40.000,-63.500
2.365,-53.000,-80.500,-39.500,-63.500
2.366,-53.500,-80.500,-39.500,-63.500
2.367,-53.500,-79.500,-38.500,-63.500
2.368,-54.000,-79.500,-38.500,-63.500
2.369,-54.000,-78.500,-37.500,-63.000
2.370,-54.500,-78.000,-37.500,-63.000
2.371,-55.000,-77.000,-37.500,-62.500
2.372,-55.500,-76.500,-37.500,-62.500
2.373,-55.500,-76.000,-37.500,-62.000
2.374,-56.000,-75.500,-38.000,-62.500
2.375,-55.500,-75.500,-38.000,-62.500
2.376,-56.000,-76.000,-39.000,-62.500
2.377,-55.500,-77.000,-39.500,-63.000
2.378,-55.500,-78.000,-40.000,-63.500
2.379,-55.000,-79.000,-40.500,-63.500
2.380,-55.000,-80.500,-41.500,-64.000
2.381,-54.500,-81.000,-42.000,-64.500
2.382,-55.000,-82.000,-43.000,-65.000
2.383,-55.000,-82.500,-43.500,-65.000
2.384,-55.500,-83.500,-44.000,-65.500
2.385,-55.500,-83.500,-44.000,-65.500
2.386,-56.000,-84.000,-44.500,-65.500
2.387,-56.000,-83.500,-44.500,-65.500
2.388,-56.500,-83.500,-44.500,-65.500
2.389,-57.000,-82.500,-44.000,-65.000
2.390,-57.000,-82.000,-43.500,-65.000
2.391,-57.000,-81.000,-43.000,-64.500
2.392,-57.000,-80.500,-42.500,-64.500
2.393,-57.000,-79.000,-42.000,-64.500
2.394,-57.500,-78.500,-42.000,-64.500
2.395,-57.500,-78.000,-42.000,-64.000
2.396,-58.000,-78.500,-42.500,-64.500
2.397,-57.500,-78.500,-42.500,-64.500
2.398,-58.000,-79.500,-43.000,-65.000
2.399,-57.500,-80.000,-43.000,-65.000
2.400,-57.500,-81.000,-43.500,-65.500
2.401,-57.000,-81.500,-43.000,-65.000
2.402,-57.000,-82.000,-43.500,-65.500
2.403,-57.000,-82.000,-43.000,-65.000
2.404,-57.000,-82.500,-42.500,-65.000
2.405,-56.500,-82.000,-41.500,-64.500
2.406,-57.000,-82.000,-41.000,-64.000
2.407,-57.000,-81.500,-40.000,-63.000
2.408,-57.500,-81.500,-39.500,-62.000
2.409,-58.000,-81.000,-39.000,-61.000
2.410,-58.500,-81.000,-39.000,-61.000
2.411,-58.500,-80.500,-39.000,-60.500
2.412,-59.000,-80.500,-39.500,-61.000
2.413,-59.500,-80.500,-40.500,-61.500
2.414,-60.000,-81.000,-42.000,-62.500
2.415,-60.000,-81.000,-43.000,-63.500
2.416,-60.000,-82.000,-44.500,-65.000
2.417,-60.000,-83.000,-45.500,-66.000
2.418,-60.500,-84.500,-47.000,-67.500
2.419,-61.000,-85.500,-48.500,-68.500
2.420,-61.500,-87.000,-50.000,-69.500
2.421,-62.000,-88.500,-51.000,-70.500
2.422,-62.500,-89.500,-52.000,-71.500
2.423,-63.000,-90.500,-53.000,-72.500
2.424,-64.000,-91.000,-53.500,-73.000
2.425,-64.000,-91.500,-53.500,-73.500
2.426,-65.000,-91.500,-53.500,-74.000
2.427,-65.000,-91.000,-53.000,-74.000
2.428,-65.500,-90.500,-52.500,-74.000
2.429,-65.000,-89.500,-51.000,-73.500
2.430,-65.000,-89.000,-50.000,-73.000
2.431,-64.500,-87.000,-49.000,-72.000
2.432,-64.500,-86.000,-48.000,-71.000
2.433,-64.000,-84.500,-47.000,-70.000
2.434,-63.500,-83.500,-46.500,-70.000
2.435,-63.000,-82.500,-45.500,-69.500
2.436,-62.500,-82.500,-45.500,-69.000
2.437,-62.000,-82.500,-45.500,-68.500
2.438,-62.000,-83.500,-45.500,-69.000
2.439,-61.500,-84.000,-46.000,-69.000
2.440,-62.000,-84.500,-46.500,-69.500
2.441,-62.000,-85.000,-47.000,-69.500
2.442,-62.000,-86.000,-48.000,-70.000
2.443,-62.000,-86.500,-48.500,-70.000
2.444,-62.500,-87.000,-49.000,-70.500
2.445,-62.500,-87.000,-49.500,-71.000
2.446,-63.000,-87.500,-50.500,-72.000
2.447,-63.500,-87.500,-50.500,-72.000
2.448,-64.000,-87.500,-51.000,-72.500
2.449,-64.000,-86.500,-51.000,-72.500
2.450,-64.500,-86.000,-51.000,-73.000
2.451,-64.500,-85.000,-50.500,-72.500
2.452,-64.500,-84.500,-50.000,-72.500
2.453,-64.500,-83.500,-49.500,-72.000
2.454,-64.500,-83.000,-50.000,-72.000
2.455,-64.500,-82.500,-50.000,-72.000
2.456,-64.500,-83.000,-50.500,-72.000
2.457,-64.500,-83.500,-51.000,-71.500
2.458,-65.000,-84.500,-51.500,-72.000
2.459,-65.500,-85.000,-52.000,-72.000
2.460,-66.000,-86.500,-52.500,-72.500
2.461,-66.000,-87.000,-53.000,-72.500
2.462,-66.500,-88.000,-53.000,-73.000
2.463,-66.500,-88.500,-53.000,-73.500
2.464,-67.000,-89.000,-53.000,-74.000
2.465,-67.000,-89.000,-53.000,-74.000
2.466,-67.500,-89.000,-53.000,-74.000
2.467,-67.500,-88.500,-52.500,-74.000
2.468,-67.500,-88.000,-52.500,-74.000
2.469,-67.500,-87.500,-52.500,-74.000
2.470,-68.000,-87.000,-52.500,-74.000
2.471,-68.000,-86.000,-52.000,-73.500
2.472,-68.000,-86.000,-52.000,-73.000
2.473,-68.000,-85.500,-51.500,-72.500
2.474,-68.500,-85.500,-51.500,-72.500
2.475,-68.000,-85.000,-51.500,-72.000
2.476,-68.500,-85.500,-51.500,-71.500
2.477,-68.000,-85.500,-51.500,-71.500
2.478,-68.000,-86.500,-52.000,-71.500
2.479,-67.500,-87.000,-52.000,-71.500
2.480,-67.500,-88.500,-52.500,-72.500
2.481,-67.000,-89.000,-52.500,-72.500
2.482,-67.500,-90.500,-53.500,-73.500
2.483,-67.500,-91.000,-53.500,-73.500
2.484,-67.500,-92.000,-54.500,-74.000
2.485,-67.500,-92.000,-54.500,-74.000
2.486,-68.000,-92.500,-55.000,-74.000
2.487,-68.500,-92.000,-55.000,-74.000
2.488,-69.000,-92.000,-55.500,-74.000
2.489,-69.500,-91.000,-55.000,-74.000
2.490,-69.500,-90.500,-55.000,-74.000
2.491,-69.500,-89.500,-54.500,-74.000
2.492,-69.500,-89.000,-54.500,-74.000
2.493,-69.500,-88.000,-54.000,-73.500
2.494,-69.500,-87.500,-54.000,-73.500
2.495,-69.000,-87.000,-53.500,-73.500
2.496,-69.500,-87.000,-53.500,-73.500
2.497,-69.000,-86.500,-53.500,-73.000
2.498,-69.500,-87.000,-54.000,-73.500
2.499,-69.000,-87.000,-54.000,-73.500
2.500,-69.500,-87.500,-54.500,-74.000
2.501,-69.500,-88.000,-54.500,-74.000
2.502,-69.500,-88.500,-55.500,-74.500
2.503,-69.500,-89.000,-56.000,-75.000
2.504,-70.000,-89.500,-56.500,-75.500
2.505,-70.500,-90.000,-57.000,-75.500
2.506,-71.000,-90.500,-57.000,-76.000
2.507,-71.000,-90.000,-57.000,-75.500
2.508,-72.000,-90.000,-57.000,-76.000
2.509,-72.000,-89.500,-56.500,-75.500
2.510,-73.000,-89.000,-56.500,-75.500
2.511,-73.000,-88.000,-55.500,-75.000
2.512,-73.500,-87.500,-55.500,-75.000
2.513,-73.500,-86.500,-55.000,-74.500
2.514,-73.500,-86.500,-55.000,-74.500
2.515,-73.500,-85.500,-54.500,-74.000
2.516,-73.500,-86.000,-55.000,-74.500
2.517,-73.000,-86.000,-55.500,-74.500
2.518,-73.000,-87.000,-56.000,-75.000
2.519,-72.500,-88.000,-57.000,-75.000
2.520,-72.500,-89.500,-58.000,-76.000
2.521,-72.500,-90.500,-58.500,-76.000
2.522,-73.000,-92.000,-59.500,-77.000
2.523,-73.000,-92.500,-60.000,-77.000
2.524,-73.500,-93.500,-61.000,-77.500
2.525,-73.500,-93.500,-61.000,-77.500
2.526,-74.000,-94.000,-61.500,-77.500
2.527,-74.000,-93.500,-61.000,-77.000
2.528,-74.000,-93.500,-61.000,-77.000
2.529,-74.000,-92.500,-60.500,-76.500
2.530,-74.500,-92.000,-60.500,-76.000
2.531,-75.000,-91.500,-60.000,-75.500
2.532,-75.500,-91.000,-60.000,-75.000
2.533,-75.500,-90.000,-59.500,-74.500
2.534,-76.000,-90.000,-59.500,-75.000
2.535,-76.000,-90.000,-59.500,-75.000
2.536,-76.000,-90.500,-60.000,-75.500
2.537,-76.000,-90.500,-60.000,-76.000
2.538,-76.000,-91.500,-60.500,-77.000
2.539,-75.500,-92.000,-60.500,-77.000
2.540,-75.500,-93.500,-61.000,-78.000
2.541,-75.500,-94.000,-60.500,-78.000
2.542,-75.500,-95.000,-60.500,-79.000
2.543,-75.500,-95.000,-60.000,-79.000
2.544,-76.000,-95.500,-60.000,-79.000
2.545,-76.000,-95.000,-59.500,-79.000
2.546,-76.500,-95.000,-59.500,-79.000
2.547,-77.000,-94.500,-59.000,-79.000
2.548,-77.500,-94.000,-58.500,-79.000
2.549,-77.500,-93.000,-58.000,-78.500
2.550,-78.000,-92.500,-58.000,-78.500
2.551,-78.000,-92.000,-57.500,-78.000
2.552,-78.500,-91.500,-57.500,-78.000
2.553,-78.500,-90.500,-57.000,-77.500
2.554,-79.000,-90.500,-57.500,-77.500
2.555,-79.000,-90.000,-58.000,-77.000
2.556,-79.000,-90.500,-58.500,-77.000
2.557,-79.000,-90.500,-59.000,-77.000
2.558,-79.000,-91.500,-60.000,-77.000
2.559,-79.000,-92.000,-61.000,-77.000
2.560,-79.000,-93.500,-62.000,-77.500
2.561,-79.000,-94.500,-62.500,-77.500
2.562,-79.500,-95.500,-63.000,-77.500
2.563,-79.500,-96.500,-63.500,-77.500
2.564,-80.000,-97.000,-64.000,-77.500
2.565,-80.000,-97.000,-63.500,-77.000
2.566,-80.500,-97.000,-63.500,-76.500
2.567,-80.000,-96.500,-62.500,-76.000
2.568,-80.500,-96.500,-62.000,-75.500
2.569,-80.000,-95.500,-61.500,-75.000
2.570,-80.500,-95.000,-61.000,-74.500
2.571,-80.500,-94.000,-60.500,-74.000
2.572,-81.000,-93.500,-60.500,-74.500
2.573,-81.000,-93.000,-60.500,-74.000
2.574,-81.500,-93.000,-61.000,-74.500
2.575,-81.500,-93.000,-61.500,-74.500
2.576,-81.500,-93.500,-62.500,-75.000
2.577,-81.500,-94.000,-63.000,-75.000
2.578,-82.000,-95.000,-64.000,-76.000
2.579,-82.000,-96.000,-64.500,-76.000
2.580,-82.000,-97.000,-65.500,-77.000
2.581,-82.000,-98.000,-65.500,-77.000
2.582,-82.500,-99.000,-66.500,-77.500
2.583,-82.500,-99.500,-66.500,-77.500
2.584,-82.500,-100.000,-67.000,-78.000
2.585,-82.500,-100.000,-67.000,-78.000
2.586,-83.000,-100.500,-67.500,-78.500
2.587,-83.000,-100.500,-67.500,-78.000
2.588,-83.000,-100.500,-67.500,-78.500
2.589,-83.000,-100.000,-67.500,-78.500
2.590,-83.500,-100.000,-67.500,-78.500
2.591,-83.500,-99.500,-67.000,-78.500
2.592,-84.000,-99.000,-67.000,-79.000
2.593,-84.000,-98.500,-66.500,-79.000
2.594,-84.500,-98.500,-67.000,-79.500
2.595,-84.500,-98.000,-67.000,-80.000
2.596,-85.000,-98.500,-67.500,-80.500
2.597,-84.500,-99.000,-68.000,-81.000
2.598,-85.000,-100.000,-69.000,-82.000
2.599,-84.500,-100.500,-69.500,-82.500
2.600,-85.000,-102.000,-70.500,-83.500
2.601,-85.000,-102.500,-71.500,-84.000
2.602,-85.000,-104.000,-72.500,-85.000
2.603,-85.000,-104.500,-73.000,-85.500
2.604,-85.500,-105.500,-74.000,-85.500
2.605,-85.500,-105.500,-74.000,-85.500
2.606,-85.500,-105.500,-74.500,-85.500
2.607,-85.500,-105.000,-74.000,-85.000
2.608,-86.000,-105.000,-74.000,-85.000
2.609,-86.000,-104.000,-73.000,-84.500
2.610,-86.000,-103.000,-73.000,-84.500
2.611,-86.000,-102.000,-72.000,-84.000
2.612,-86.000,-101.500,-72.000,-84.000
2.613,-86.000,-101.000,-71.500,-84.000
2.614,-86.000,-100.500,-71.500,-84.500
2.615,-86.000,-100.500,-71.500,-85.000
2.616,-86.500,-101.000,-72.000,-85.500
2.617,-86.000,-101.000,-72.500,-85.500
2.618,-86.000,-102.000,-73.000,-86.500
2.619,-85.500,-102.500,-73.500,-86.500
2.620,-86.000,-103.500,-74.500,-87.000
2.621,-86.000,-104.500,-74.500,-86.500
2.622,-86.000,-105.500,-75.000,-87.000
2.623,-86.000,-106.000,-74.500,-86.500
2.624,-86.500,-106.500,-74.500,-87.000
2.625,-87.000,-106.500,-74.000,-86.500
2.626,-87.500,-107.000,-74.000,-87.000
2.627,-87.500,-106.500,-73.000,-86.500
2.628,-87.500,-106.000,-73.000,-87.000
2.629,-87.500,-105.500,-72.500,-86.500
2.630,-87.500,-105.000,-72.500,-86.500
2.631,-87.000,-104.000,-72.000,-86.000
2.632,-87.000,-103.500,-71.500,-86.000
2.633,-86.500,-102.500,-71.000,-86.000
2.634,-87.000,-102.000,-71.000,-86.000
2.635,-86.500,-101.500,-71.000,-85.500
2.636,-86.500,-102.000,-71.500,-85.500
2.637,-86.000,-102.000,-71.500,-85.500
2.638,-86.500,-102.500,-72.000,-86.000
2.639,-86.000,-103.000,-72.500,-86.000
2.640,-86.500,-104.000,-73.500,-86.000
2.641,-86.000,-104.500,-74.000,-86.000
2.642,-86.000,-105.000,-74.500,-86.500
2.643,-86.000,-105.500,-74.500,-87.000
2.644,-86.500,-106.000,-74.500,-87.500
2.645,-86.500,-106.000,-74.000,-87.500
2.646,-87.000,-106.000,-74.000,-88.000
2.647,-87.000,-105.500,-73.500,-87.500
2.648,-87.500,-105.500,-73.500,-88.000
2.649,-87.500,-104.500,-73.000,-87.500
2.650,-88.000,-103.500,-73.000,-87.500
2.651,-88.000,-102.500,-72.500,-87.000
2.652,-88.500,-102.000,-72.000,-87.000
2.653,-88.500,-101.500,-71.500,-87.000
2.654,-89.000,-101.500,-72.000,-87.000
2.655,-89.000,-101.000,-72.000,-86.500
2.656,-89.000,-101.500,-73.000,-87.000
2.657,-89.000,-102.000,-73.500,-87.000
2.658,-89.000,-103.000,-75.000,-87.500
2.659,-89.000,-103.500,-75.500,-87.500
2.660,-89.000,-104.500,-76.500,-88.000
2.661,-89.000,-105.500,-76.500,-87.500
2.662,-89.000,-106.500,-76.500,-88.000
2.663,-89.000,-106.500,-76.000,-87.500
2.664,-89.000,-107.000,-76.000,-87.500
2.665,-89.000,-107.000,-75.500,-87.500
2.666,-89.500,-107.000,-75.500,-88.000
2.667,-89.500,-106.500,-75.000,-88.000
2.668,-90.000,-106.000,-75.000,-88.000
2.669,-90.000,-105.000,-74.000,-88.000
2.670,-90.500,-104.500,-73.500,-88.000
2.671,-90.500,-103.500,-72.500,-87.000
2.672,-91.000,-103.000,-72.000,-86.500
2.673,-90.500,-102.000,-71.000,-85.000
2.674,-91.000,-101.500,-70.500,-84.500
2.675,-90.500,-101.000,-69.500,-83.000
2.676,-90.500,-101.000,-69.500,-82.000
2.677,-90.500,-101.000,-69.000,-80.500
2.678,-91.000,-101.500,-69.000,-79.500
2.679,-91.000,-102.000,-68.500,-77.500
2.680,-91.500,-103.000,-69.000,-76.500
2.681,-91.500,-104.000,-69.000,-74.500
2.682,-92.000,-105.500,-69.500,-73.500
2.683,-92.000,-106.000,-70.000,-72.000
2.684,-92.000,-107.500,-70.500,-71.000
2.685,-92.000,-108.000,-71.000,-70.000
2.686,-92.500,-109.000,-71.500,-69.500
2.687,-93.000,-109.000,-72.000,-68.500
2.688,-94.000,-109.500,-72.500,-67.500
2.689,-94.500,-109.500,-73.000,-66.500
2.690,-95.000,-110.000,-73.500,-66.000
2.691,-95.500,-110.500,-74.500,-65.000
2.692,-96.500,-111.000,-76.500,-65.500
2.693,-97.000,-111.500,-78.000,-65.500
2.694,-97.500,-113.000,-81.000,-66.500
2.695,-98.000,-114.500,-84.000,-67.500
2.696,-99.000,-116.500,-88.500,-69.500
2.697,-99.500,-119.000,-92.500,-71.500
2.698,-100.000,-122.000,-97.500,-74.500
2.699,-100.500,-124.500,-102.000,-77.500
2.700,-101.500,-128.000,-107.000,-81.500
2.701,-102.000,-131.000,-111.500,-86.000
2.702,-103.000,-134.000,-116.500,-92.000
2.703,-103.500,-136.500,-121.500,-98.000
2.704,-104.500,-139.000,-127.000,-104.500
2.705,-104.500,-140.500,-131.500,-111.500
2.706,-105.500,-142.000,-136.500,-119.000
2.707,-105.500,-143.000,-141.000,-126.000
2.708,-106.000,-144.000,-145.500,-133.000
2.709,-106.500,-144.500,-149.000,-139.500
2.710,-106.500,-145.000,-152.000,-145.000
2.711,-106.000,-144.500,-153.500,-149.500
2.712,-106.000,-143.500,-154.000,-153.000
2.713,-105.500,-142.000,-153.000,-154.500
2.714,-105.000,-140.500,-151.500,-156.000
2.715,-104.000,-138.000,-148.500,-155.500
2.716,-103.000,-136.000,-145.000,-155.000
2.717,-102.000,-133.000,-141.000,-153.500
2.718,-101.500,-131.000,-136.500,-152.000
2.719,-100.500,-128.500,-132.000,-150.000
2.720,-100.000,-127.000,-127.500,-148.000
2.721,-99.000,-124.500,-123.000,-145.500
2.722,-98.500,-123.000,-119.000,-143.500
2.723,-98.000,-121.000,-114.500,-140.500
2.724,-97.500,-119.500,-111.000,-138.000
2.725,-96.500,-117.500,-107.500,-135.000
2.726,-96.500,-116.000,-104.500,-133.000
2.727,-95.500,-114.000,-101.500,-130.500
2.728,-95.500,-113.000,-99.000,-128.500
2.729,-95.000,-111.000,-96.000,-126.500
2.730,-94.500,-110.000,-93.500,-124.500
2.731,-94.000,-108.000,-90.500,-122.000
2.732,-94.000,-107.000,-88.000,-120.000
2.733,-94.000,-105.500,-85.500,-117.500
2.734,-94.000,-104.500,-83.500,-116.000
2.735,-93.500,-103.500,-82.000,-113.500
2.736,-93.500,-103.500,-81.000,-112.000
2.737,-93.000,-103.000,-80.000,-110.000
2.738,-93.500,-104.000,-79.500,-108.500
2.739,-93.000,-104.500,-79.500,-106.500
2.740,-93.000,-105.000,-80.000,-105.500
2.741,-93.000,-105.500,-80.000,-103.500
2.742,-93.500,-106.500,-81.000,-102.500
2.743,-93.500,-107.000,-81.000,-101.000
2.744,-94.000,-108.000,-81.500,-100.000
2.745,-93.500,-108.000,-81.500,-98.500
2.746,-94.000,-109.000,-82.000,-98.000
2.747,-94.000,-109.000,-82.000,-97.000
2.748,-95.000,-109.500,-82.000,-96.500
2.749,-95.000,-109.500,-81.500,-95.500
2.750,-95.500,-109.000,-81.500,-95.000
2.751,-95.500,-108.500,-81.000,-94.000
2.752,-96.000,-108.000,-81.000,-93.500
2.753,-96.000,-107.500,-80.500,-92.500
2.754,-96.500,-107.500,-80.000,-92.000
2.755,-97.000,-107.000,-79.500,-91.500
2.756,-97.500,-107.500,-80.000,-91.500
2.757,-97.500,-107.500,-79.500,-91.500
2.758,-98.000,-108.500,-80.000,-92.000
2.759,-98.000,-108.500,-80.000,-92.000
2.760,-98.000,-109.500,-80.500,-92.500
2.761,-98.000,-109.500,-81.000,-92.500
2.762,-98.500,-110.500,-81.500,-93.000
2.763,-98.500,-111.000,-81.500,-93.000
2.764,-98.500,-111.500,-82.000,-93.500
2.765,-98.500,-111.500,-82.000,-93.000
2.766,-98.500,-112.000,-82.500,-93.000
2.767,-98.500,-111.500,-82.000,-92.500
2.768,-98.500,-111.500,-82.500,-92.500
2.769,-98.500,-110.500,-82.000,-92.000
2.770,-99.000,-110.000,-82.000,-92.000
2.771,-98.500,-109.000,-82.000,-91.500
2.772,-99.000,-108.500,-82.000,-91.500
2.773,-98.500,-107.500,-82.000,-91.500
2.774,-99.000,-107.500,-82.000,-91.500
2.775,-99.000,-107.500,-82.000,-91.500
2.776,-99.000,-108.000,-83.000,-91.500
2.777,-99.000,-108.500,-83.500,-91.500
2.778,-99.000,-109.500,-84.000,-92.000
2.779,-98.500,-110.000,-84.500,-92.000
2.780,-98.500,-111.000,-85.000,-92.500
2.781,-98.000,-111.500,-85.000,-92.500
2.782,-98.500,-112.500,-85.500,-93.000
2.783,-98.500,-112.500,-85.500,-92.500
2.784,-98.500,-113.500,-85.500,-93.000
2.785,-98.500,-113.500,-85.500,-92.500
2.786,-99.000,-113.500,-85.500,-93.000
2.787,-98.500,-113.000,-85.000,-92.500
2.788,-99.000,-113.000,-85.000,-92.000
2.789,-98.500,-112.000,-84.000,-91.000
2.790,-99.000,-111.500,-83.500,-90.500
2.791,-99.000,-110.500,-82.500,-89.500
2.792,-99.500,-110.000,-82.000,-89.000
2.793,-99.500,-109.500,-81.000,-88.500
2.794,-99.500,-109.000,-81.000,-88.500
2.795,-99.500,-109.000,-80.500,-88.500
2.796,-100.000,-109.000,-81.000,-88.500
2.797,-100.000,-109.000,-81.000,-88.500
2.798,-100.500,-110.000,-81.500,-89.000
2.799,-100.500,-110.500,-82.000,-89.500
2.800,-101.000,-111.500,-83.000,-90.000
2.801,-101.000,-112.000,-83.500,-90.000
2.802,-101.500,-113.000,-84.000,-91.000
2.803,-101.500,-114.000,-84.500,-91.000
2.804,-101.500,-114.500,-85.000,-91.500
2.805,-101.500,-114.500,-85.500,-91.500
2.806,-102.000,-115.000,-86.000,-92.000
2.807,-102.000,-114.500,-86.000,-91.500
2.808,-102.000,-114.500,-86.000,-91.500
2.809,-102.000,-113.500,-85.500,-91.000
2.810,-102.000,-113.000,-85.000,-91.000
2.811,-102.000,-112.000,-84.500,-91.000
2.812,-102.000,-111.500,-84.000,-91.000
2.813,-102.000,-110.500,-83.500,-91.000
2.814,-102.500,-110.500,-83.500,-91.000
2.815,-102.500,-110.000,-83.500,-91.000
2.816,-102.500,-110.000,-83.500,-91.000
2.817,-102.500,-110.000,-83.000,-91.000
2.818,-103.000,-110.500,-83.500,-91.500
2.819,-103.000,-111.000,-84.000,-91.500
2.820,-103.000,-112.000,-84.500,-92.000
2.821,-103.000,-113.000,-84.500,-92.000
2.822,-103.000,-114.000,-84.500,-92.500
2.823,-103.000,-114.500,-84.000,-92.000
2.824,-103.000,-115.500,-84.000,-92.500
2.825,-103.000,-115.500,-83.500,-92.000
2.826,-103.500,-116.000,-83.500,-92.000
2.827,-103.500,-116.000,-83.000,-91.500
2.828,-104.000,-116.000,-83.000,-91.500
2.829,-104.000,-115.500,-83.000,-91.500
2.830,-105.000,-115.500,-83.500,-91.500
2.831,-105.000,-114.500,-83.500,-91.000
2.832,-105.000,-114.000,-83.500,-91.000
2.833,-105.000,-113.000,-83.000,-90.500
2.834,-105.000,-112.500,-83.000,-91.000
2.835,-104.500,-111.500,-83.000,-91.000
2.836,-104.000,-111.500,-83.000,-91.000
2.837,-103.500,-111.500,-83.000,-91.000
2.838,-103.500,-112.000,-83.000,-91.500
2.839,-103.500,-112.500,-83.000,-91.000
2.840,-103.500,-114.000,-83.500,-91.000
2.841,-103.000,-114.500,-83.500,-91.000
2.842,-103.500,-115.500,-83.500,-91.000
2.843,-103.000,-115.500,-82.500,-90.500
2.844,-103.000,-116.000,-82.500,-90.000
2.845,-102.500,-115.500,-81.500,-89.000
2.846,-102.500,-116.000,-81.500,-88.500
2.847,-102.500,-115.500,-80.500,-87.500
2.848,-102.500,-115.500,-80.500,-87.000
2.849,-102.500,-114.500,-80.000,-86.000
2.850,-103.000,-114.500,-80.000,-86.000
2.851,-102.500,-113.500,-80.000,-85.500
2.852,-103.000,-112.500,-80.500,-85.500
2.853,-102.500,-111.500,-80.500,-86.000
2.854,-103.000,-111.500,-81.500,-86.500
2.855,-103.000,-111.500,-82.500,-87.500
2.856,-103.000,-112.000,-84.000,-88.500
2.857,-103.000,-112.500,-85.000,-90.000
2.858,-103.500,-114.000,-86.500,-91.500
2.859,-104.000,-115.000,-88.000,-93.000
2.860,-104.500,-117.000,-89.500,-94.500
2.861,-105.000,-118.000,-90.000,-95.500
2.862,-105.500,-119.500,-91.000,-97.000
2.863,-105.500,-120.500,-91.500,-98.000
2.864,-106.000,-121.000,-92.500,-98.500
2.865,-106.000,-121.000,-92.500,-99.000
2.866,-106.500,-121.500,-93.000,-99.500
2.867,-106.500,-121.500,-93.000,-100.000
2.868,-107.000,-121.500,-93.000,-100.000
2.869,-107.000,-120.500,-92.500,-99.500
2.870,-107.000,-119.500,-92.500,-99.500
2.871,-107.000,-118.000,-91.500,-99.000
2.872,-107.000,-117.500,-91.500,-98.500
2.873,-106.500,-116.000,-90.500,-98.000
2.874,-106.000,-115.500,-90.500,-97.500
2.875,-105.500,-115.000,-90.500,-96.500
2.876,-105.500,-115.000,-90.500,-96.500
2.877,-105.000,-114.500,-90.500,-96.000
2.878,-105.000,-115.500,-91.000,-96.500
2.879,-104.500,-115.500,-91.000,-96.500
2.880,-105.000,-116.500,-91.500,-97.000
2.881,-104.500,-117.000,-92.000,-97.000
2.882,-105.000,-118.000,-92.500,-97.000
2.883,-104.500,-118.000,-92.500,-97.000
2.884,-105.000,-119.000,-93.000,-97.500
2.885,-105.000,-119.000,-92.500,-97.500
2.886,-105.500,-119.000,-93.000,-98.000
2.887,-105.500,-119.000,-92.500,-98.000
2.888,-106.000,-118.500,-93.000,-98.500
2.889,-106.000,-117.500,-92.500,-98.500
2.890,-106.500,-117.000,-93.000,-99.000
2.891,-106.000,-116.000,-92.500,-99.000
2.892,-106.500,-116.000,-93.000,-99.000
2.893,-106.000,-115.000,-92.500,-99.000
2.894,-106.500,-115.000,-93.000,-99.000
2.895,-106.000,-114.500,-93.000,-99.000
2.896,-106.500,-115.000,-94.000,-99.500
2.897,-106.500,-115.500,-95.000,-100.000
2.898,-107.000,-116.000,-96.000,-100.500
2.899,-107.000,-116.500,-97.000,-101.000
2.900,-107.000,-118.000,-98.500,-101.500
2.901,-107.000,-118.500,-99.000,-102.000
2.902,-107.000,-119.500,-100.000,-102.500
2.903,-106.500,-120.000,-100.500,-103.000
2.904,-107.000,-121.000,-101.000,-104.000
2.905,-107.000,-121.000,-101.000,-104.000
2.906,-107.000,-121.000,-101.500,-105.000
2.907,-107.000,-120.500,-101.500,-105.000
2.908,-107.500,-120.500,-101.500,-105.000
2.909,-107.500,-119.500,-101.000,-104.500
2.910,-107.500,-119.000,-100.500,-104.500
2.911,-107.500,-118.000,-100.000,-103.500
2.912,-108.000,-117.000,-100.000,-103.500
2.913,-107.500,-116.000,-99.500,-102.500
2.914,-107.500,-116.000,-100.000,-102.500
2.915,-107.000,-115.500,-100.000,-102.500
2.916,-107.000,-116.000,-101.000,-102.500
2.917,-106.500,-116.000,-101.500,-103.000
2.918,-106.500,-117.000,-102.000,-103.500
2.919,-106.500,-117.500,-102.500,-104.000
2.920,-106.500,-119.000,-103.500,-105.000
2.921,-106.500,-120.000,-104.000,-105.500
2.922,-107.000,-121.500,-105.000,-106.500
2.923,-107.000,-122.000,-105.000,-107.000
2.924,-107.000,-123.000,-106.000,-107.500
2.925,-107.000,-123.500,-106.000,-107.500
2.926,-107.500,-124.000,-106.500,-108.000
2.927,-107.500,-123.500,-106.000,-107.500
2.928,-108.000,-123.500,-106.500,-107.500
2.929,-108.000,-123.000,-106.000,-107.000
2.930,-108.500,-122.500,-105.500,-107.000
2.931,-108.000,-121.000,-105.000,-106.500
2.932,-108.500,-120.500,-104.500,-106.500
2.933,-108.000,-119.500,-104.000,-106.000
2.934,-108.500,-119.500,-104.000,-106.000
2.935,-108.000,-119.000,-104.000,-105.500
2.936,-108.500,-119.000,-104.000,-105.000
2.937,-108.000,-119.000,-104.000,-104.500
2.938,-108.000,-120.000,-104.500,-104.500
2.939,-108.000,-120.000,-104.500,-104.500
2.940,-108.000,-121.000,-105.000,-104.500
2.941,-107.500,-121.500,-105.000,-104.000
2.942,-108.000,-122.000,-105.000,-104.000
2.943,-108.000,-122.000,-104.500,-103.500
2.944,-108.500,-122.500,-104.000,-103.000
2.945,-108.500,-122.000,-102.500,-102.500
2.946,-109.000,-122.000,-102.000,-102.000
2.947,-109.000,-121.500,-100.500,-101.000
2.948,-109.000,-121.000,-99.500,-100.500
2.949,-109.000,-120.000,-98.000,-99.500
2.950,-109.500,-119.500,-97.000,-99.000
2.951,-109.500,-118.000,-95.500,-98.000
2.952,-109.500,-117.500,-95.000,-97.500
2.953,-109.500,-116.000,-93.500,-96.000
2.954,-109.500,-115.500,-93.000,-95.500
2.955,-109.000,-114.500,-92.500,-94.500
2.956,-108.500,-114.000,-92.000,-94.500
2.957,-108.000,-114.000,-91.500,-93.500
2.958,-108.000,-114.500,-91.500,-93.500
2.959,-107.500,-114.500,-91.000,-93.000
2.960,-107.500,-115.500,-91.500,-93.000
2.961,-107.000,-116.000,-91.000,-93.000
2.962,-107.500,-116.500,-91.500,-93.000
2.963,-107.500,-117.000,-91.000,-92.500
2.964,-107.500,-117.500,-91.000,-92.500
2.965,-107.500,-117.000,-90.500,-92.000
2.966,-107.500,-117.000,-90.500,-92.000
2.967,-107.500,-116.000,-89.500,-91.000
2.968,-107.500,-115.500,-89.000,-90.500
2.969,-107.000,-114.500,-88.000,-90.000
2.970,-107.000,-113.500,-87.500,-89.500
2.971,-106.500,-112.500,-86.500,-88.500
2.972,-107.000,-111.500,-86.000,-88.500
2.973,-107.000,-110.500,-85.000,-88.000
2.974,-107.500,-110.500,-85.000,-88.000
2.975,-107.000,-110.000,-84.000,-87.500
2.976,-107.500,-110.000,-84.000,-87.000
2.977,-107.000,-110.000,-84.000,-86.500
2.978,-107.500,-110.500,-84.000,-86.500
2.979,-107.000,-111.000,-84.000,-86.500
2.980,-107.000,-112.000,-85.000,-87.500
2.981,-107.000,-112.500,-85.000,-87.500
2.982,-107.500,-113.500,-86.000,-88.500
2.983,-107.500,-114.000,-86.000,-88.500
2.984,-108.000,-114.500,-86.000,-89.000
2.985,-107.500,-114.000,-85.500,-89.000
2.986,-108.000,-114.000,-85.500,-89.500
2.987,-107.500,-113.500,-85.000,-89.000
2.988,-107.500,-112.500,-84.500,-89.000
2.989,-107.500,-111.500,-84.000,-88.500
2.990,-108.000,-110.500,-83.500,-88.500
2.991,-107.500,-109.000,-83.000,-87.500
2.992,-108.000,-108.500,-82.500,-87.500
2.993,-107.500,-108.000,-82.000,-86.500
2.994,-108.000,-107.500,-82.000,-86.500
2.995,-107.500,-107.500,-82.000,-86.500
2.996,-107.500,-108.000,-82.000,-86.500
2.997,-106.500,-108.000,-82.000,-86.500
2.998,-106.500,-109.000,-82.500,-87.000
2.999,-106.000,-109.500,-82.500,-87.500
3.000,-106.000,-110.500,-83.000,-88.500
3.001,-105.500,-111.000,-83.500,-89.000
3.002,-105.500,-112.000,-84.000,-90.000
3.003,-105.500,-112.000,-84.500,-90.500
3.004,-105.500,-113.000,-85.000,-91.000
3.005,-105.500,-113.000,-85.000,-91.000
3.006,-106.000,-113.500,-85.500,-91.500
3.007,-106.000,-113.000,-85.500,-91.000
3.008,-106.500,-113.000,-85.500,-91.000
3.009,-106.500,-112.000,-85.000,-90.500
3.010,-106.500,-111.500,-84.500,-90.000
3.011,-106.500,-110.500,-84.000,-89.500
3.012,-107.000,-110.000,-83.500,-89.000
3.013,-107.000,-109.000,-83.000,-88.500
3.014,-107.500,-108.500,-83.000,-89.000
3.015,-107.500,-108.000,-83.000,-88.500
3.016,-107.500,-108.500,-83.500,-89.000
3.017,-107.500,-108.500,-84.000,-89.000
3.018,-108.000,-109.500,-85.000,-90.000
3.019,-107.500,-110.000,-85.500,-90.000
3.020,-108.000,-111.000,-86.500,-90.500
3.021,-107.500,-112.000,-87.000,-91.000
3.022,-107.500,-113.000,-88.000,-91.500
3.023,-107.000,-113.000,-88.000,-91.500
3.024,-107.500,-113.500,-88.500,-92.000
3.025,-107.000,-113.000,-88.000,-92.000
3.026,-107.500,-113.000,-88.000,-92.500
3.027,-107.000,-112.500,-87.000,-92.000
3.028,-107.500,-112.500,-87.000,-92.000
3.029,-107.000,-112.000,-86.000,-91.500
3.030,-107.500,-112.000,-85.500,-91.500
3.031,-107.000,-111.000,-85.000,-91.000
3.032,-107.000,-110.500,-84.500,-91.500
3.033,-107.000,-109.500,-83.500,-91.000
3.034,-107.000,-109.500,-83.500,-91.000
3.035,-107.000,-108.500,-83.500,-90.500
3.036,-107.000,-108.500,-83.500,-91.000
3.037,-106.500,-108.500,-83.500,-90.500
3.038,-106.500,-109.500,-84.500,-91.000
3.039,-106.000,-110.000,-85.000,-90.500
3.040,-106.500,-111.000,-86.000,-90.500
3.041,-106.000,-112.000,-86.000,-90.500
3.042,-106.500,-113.000,-87.000,-90.500
3.043,-106.500,-113.500,-87.000,-90.500
3.044,-107.000,-114.000,-87.500,-91.000
3.045,-107.000,-114.000,-87.500,-91.000
3.046,-107.500,-114.500,-87.500,-91.500
3.047,-107.500,-114.000,-87.000,-91.000
3.048,-108.500,-113.500,-87.000,-91.000
3.049,-108.500,-112.500,-86.500,-90.500
3.050,-109.000,-112.000,-86.500,-90.500
3.051,-109.000,-110.500,-85.500,-90.000
3.052,-109.500,-110.000,-85.500,-90.000
3.053,-109.500,-109.000,-85.000,-89.000
3.054,-110.000,-108.500,-85.500,-89.000
3.055,-109.500,-108.000,-85.000,-88.500
3.056,-110.000,-108.500,-85.500,-89.000
3.057,-109.500,-109.000,-86.000,-88.500
3.058,-109.500,-110.000,-86.500,-89.000
3.059,-109.000,-110.500,-86.500,-89.000
3.060,-109.000,-112.000,-87.000,-90.000
3.061,-108.500,-112.500,-87.000,-90.000
3.062,-109.000,-113.500,-87.500,-90.500
3.063,-109.000,-113.500,-87.500,-91.000
3.064,-109.500,-114.000,-87.500,-91.500
3.065,-109.500,-114.000,-87.500,-91.500
3.066,-109.500,-114.000,-88.000,-92.000
3.067,-109.500,-113.500,-87.500,-92.000
3.068,-109.500,-113.500,-87.500,-92.500
3.069,-109.000,-113.000,-87.500,-92.000
3.070,-109.000,-112.500,-87.500,-92.000
3.071,-109.000,-111.500,-87.000,-91.500
3.072,-109.000,-111.000,-87.000,-91.500
3.073,-109.000,-110.000,-87.000,-91.000
3.074,-109.500,-110.000,-87.000,-91.000
3.075,-109.000,-109.500,-86.500,-90.500
3.076,-109.500,-109.500,-87.000,-91.000
3.077,-109.000,-109.500,-87.000,-91.000
3.078,-109.500,-110.000,-87.000,-91.500
3.079,-109.000,-110.000,-87.000,-91.500
3.080,-109.000,-111.000,-87.500,-92.000
3.081,-108.500,-111.500,-87.500,-92.000
3.082,-108.500,-112.500,-88.000,-92.500
3.083,-108.500,-112.500,-88.000,-92.500
3.084,-108.500,-113.000,-88.000,-92.500
3.085,-108.500,-112.500,-88.000,-92.500
3.086,-109.000,-113.000,-88.000,-92.500
3.087,-109.000,-112.500,-88.000,-92.500
3.088,-109.000,-112.000,-88.000,-92.500
3.089,-109.000,-111.500,-87.000,-92.500
3.090,-109.000,-111.000,-87.000,-92.500
3.091,-109.000,-110.000,-86.000,-92.000
3.092,-109.000,-109.500,-85.500,-91.500
3.093,-109.000,-108.500,-85.000,-91.000
3.094,-109.500,-108.000,-85.000,-91.000
3.095,-109.000,-107.000,-84.500,-90.500
3.096,-109.500,-107.000,-84.500,-90.500
3.097,-109.000,-107.000,-84.500,-90.000
3.098,-109.000,-107.000,-85.000,-90.500
3.099,-108.500,-107.000,-85.000,-90.000
3.100,-109.000,-108.000,-86.000,-90.500
3.101,-108.500,-108.500,-86.000,-91.000
3.102,-108.500,-109.500,-86.500,-91.500
3.103,-108.000,-110.000,-86.500,-92.000
3.104,-108.000,-111.000,-87.000,-92.500
3.105,-107.500,-111.500,-87.000,-92.500
3.106,-107.500,-112.000,-87.000,-92.500
3.107,-107.500,-112.000,-86.500,-92.500
3.108,-108.000,-111.500,-86.500,-92.500
3.109,-107.500,-111.000,-86.000,-92.000
3.110,-108.000,-110.500,-85.500,-92.000
3.111,-108.000,-109.500,-85.000,-91.500
3.112,-108.500,-108.500,-84.500,-91.500
3.113,-108.000,-108.000,-84.000,-91.000
3.114,-108.500,-107.500,-84.000,-91.000
3.115,-108.000,-107.000,-83.500,-90.500
3.116,-108.000,-107.500,-83.500,-90.500
3.117,-107.500,-107.500,-83.500,-90.500
3.118,-107.500,-108.000,-83.500,-90.500
3.119,-107.000,-108.500,-83.500,-90.500
3.120,-107.000,-109.500,-84.000,-90.500
3.121,-107.000,-110.000,-84.000,-90.500
3.122,-107.500,-111.000,-84.500,-90.500
3.123,-107.500,-111.000,-84.500,-90.500
3.124,-108.000,-111.500,-85.000,-90.500
3.125,-108.000,-111.500,-84.500,-90.000
3.126,-108.000,-112.000,-84.500,-90.500
3.127,-108.000,-111.500,-84.000,-90.000
3.128,-108.500,-111.500,-83.500,-90.000
3.129,-108.500,-110.500,-83.000,-89.500
3.130,-108.500,-110.000,-82.500,-90.000
3.131,-108.500,-109.000,-81.500,-89.500
3.132,-108.500,-108.000,-81.000,-89.500
3.133,-108.500,-107.000,-80.500,-89.000
3.134,-108.500,-106.500,-80.000,-89.000
3.135,-108.500,-106.000,-79.500,-88.500
3.136,-108.500,-106.000,-80.000,-89.000
3.137,-108.500,-106.000,-80.000,-88.500
3.138,-109.000,-107.000,-80.500,-89.000
3.139,-109.000,-108.000,-81.000,-89.500
3.140,-109.000,-109.000,-82.000,-90.000
3.141,-109.000,-109.500,-82.500,-90.000
3.142,-109.000,-110.000,-83.000,-90.500
3.143,-108.500,-110.500,-83.000,-90.500
3.144,-108.500,-110.500,-83.000,-90.500
3.145,-108.000,-110.000,-82.500,-90.500
3.146,-108.500,-110.000,-82.500,-90.500
3.147,-108.500,-109.500,-81.500,-90.500
3.148,-108.500,-109.500,-80.500,-90.500
3.149,-108.500,-108.500,-79.500,-90.000
3.150,-109.000,-107.500,-79.000,-89.500
3.151,-108.500,-106.000,-78.500,-88.500
3.152,-109.000,-105.500,-78.500,-88.000
3.153,-108.500,-104.500,-78.000,-87.500
3.154,-108.500,-104.000,-78.000,-87.500
3.155,-108.000,-103.500,-78.000,-87.500
3.156,-108.000,-104.000,-79.000,-88.000
3.157,-108.000,-104.500,-79.500,-88.000
3.158,-108.000,-105.500,-80.000,-88.500
3.159,-107.500,-106.000,-80.500,-89.000
3.160,-107.500,-107.500,-81.500,-89.500
3.161,-107.500,-108.000,-82.000,-90.000
3.162,-107.500,-109.000,-82.500,-90.500
3.163,-107.500,-109.500,-82.500,-90.500
3.164,-107.500,-110.000,-83.000,-90.500
3.165,-107.500,-109.500,-83.000,-90.500
3.166,-108.000,-110.000,-83.000,-90.500
3.167,-107.500,-109.500,-82.500,-90.000
3.168,-108.000,-109.000,-82.500,-90.000
3.169,-107.500,-108.500,-82.000,-89.000
3.170,-108.000,-108.000,-81.500,-89.000
3.171,-108.000,-107.000,-81.000,-88.000
3.172,-108.000,-106.500,-80.500,-87.500
3.173,-107.500,-105.500,-79.500,-87.000
3.174,-107.500,-105.500,-79.500,-87.000
3.175,-107.000,-105.000,-79.500,-86.500
3.176,-107.000,-105.000,-79.500,-86.500
3.177,-106.500,-105.000,-79.500,-86.500
3.178,-106.500,-106.000,-80.000,-87.000
3.179,-106.500,-106.000,-80.500,-87.000
3.180,-106.500,-107.000,-81.000,-87.500
3.181,-106.500,-107.500,-81.000,-88.000
3.182,-107.000,-108.500,-81.500,-88.500
3.183,-107.000,-108.500,-81.500,-88.500
3.184,-107.500,-109.000,-82.000,-89.000
3.185,-107.500,-109.000,-82.000,-89.500
3.186,-108.000,-109.000,-82.500,-90.000
3.187,-108.000,-108.500,-82.000,-89.500
3.188,-108.500,-108.000,-82.000,-90.000
3.189,-108.000,-107.500,-81.500,-89.500
3.190,-108.500,-107.000,-81.500,-89.500
3.191,-108.000,-106.000,-81.000,-89.000
3.192,-108.000,-105.000,-81.000,-89.000
3.193,-107.500,-104.000,-80.500,-89.000
3.194,-107.500,-104.000,-80.500,-89.000
3.195,-106.500,-103.000,-80.500,-89.000
3.196,-106.500,-103.000,-81.000,-89.500
3.197,-105.500,-103.000,-81.500,-89.500
3.198,-105.500,-103.500,-82.000,-89.500
3.199,-105.000,-104.000,-82.000,-89.500
3.200,-105.000,-105.000,-83.000,-89.500
3.201,-105.000,-106.000,-83.000,-89.500
3.202,-105.000,-107.000,-83.500,-90.000
3.203,-105.000,-108.000,-83.500,-90.000
3.204,-105.500,-109.000,-84.000,-90.500
3.205,-105.000,-109.000,-83.500,-90.000
3.206,-105.500,-109.500,-84.000,-90.000
3.207,-105.000,-109.500,-83.500,-90.000
3.208,-105.000,-109.500,-83.500,-90.000
3.209,-105.000,-108.500,-83.000,-89.500
3.210,-105.000,-108.000,-83.000,-89.500
3.211,-105.000,-107.000,-82.500,-89.500
3.212,-105.000,-106.000,-82.500,-89.500
3.213,-105.000,-105.000,-82.000,-89.000
3.214,-105.000,-104.500,-82.000,-89.000
3.215,-104.500,-104.000,-82.000,-89.000
3.216,-104.000,-104.000,-82.000,-89.000
3.217,-103.500,-104.000,-82.000,-89.000
3.218,-104.000,-105.000,-83.000,-89.500
3.219,-104.000,-105.500,-83.500,-89.500
3.220,-104.500,-106.500,-84.000,-90.000
3.221,-104.500,-107.000,-84.500,-90.500
3.222,-105.000,-108.000,-85.000,-91.000
3.223,-104.500,-108.500,-84.500,-91.000
3.224,-105.000,-109.500,-84.500,-91.500
3.225,-104.500,-109.000,-84.000,-91.000
3.226,-104.500,-109.000,-83.500,-91.000
3.227,-104.500,-108.500,-82.500,-90.000
3.228,-104.500,-108.000,-82.000,-89.500
3.229,-104.500,-107.000,-81.000,-88.500
3.230,-105.000,-106.500,-81.000,-88.500
3.231,-105.000,-105.500,-80.500,-87.500
3.232,-105.500,-105.500,-80.500,-87.500
3.233,-105.000,-104.500,-80.000,-87.000
3.234,-105.000,-104.500,-80.500,-87.500
3.235,-104.500,-104.000,-81.000,-87.000
3.236,-104.500,-104.000,-81.500,-87.500
3.237,-103.500,-104.000,-81.500,-87.500
3.238,-103.500,-104.500,-82.000,-88.000
3.239,-103.000,-105.000,-82.000,-88.000
3.240,-103.500,-106.000,-82.500,-88.500
3.241,-103.000,-107.000,-82.500,-89.000
3.242,-103.500,-108.000,-83.000,-89.500
3.243,-103.500,-108.500,-83.000,-90.000
3.244,-104.000,-109.500,-83.500,-90.000
3.245,-104.000,-109.500,-83.500,-90.000
3.246,-104.500,-109.500,-84.000,-90.000
3.247,-104.500,-108.500,-83.500,-90.000
3.248,-105.000,-108.500,-83.500,-89.500
3.249,-105.000,-107.500,-82.500,-88.500
3.250,-105.500,-107.000,-82.000,-88.000
3.251,-105.500,-106.000,-81.000,-87.000
3.252,-105.500,-105.500,-80.500,-86.500
3.253,-105.000,-104.500,-79.500,-85.000
3.254,-105.000,-104.000,-79.000,-84.500
3.255,-104.500,-103.500,-78.000,-84.000
3.256,-104.500,-103.500,-78.000,-84.000
3.257,-104.000,-103.500,-77.500,-83.500
3.258,-104.500,-104.500,-78.000,-84.000
3.259,-104.000,-105.000,-78.000,-84.000
3.260,-104.500,-106.500,-78.500,-85.000
3.261,-104.000,-107.000,-79.000,-85.000
3.262,-104.000,-108.500,-79.500,-85.500
3.263,-103.500,-109.000,-79.500,-85.500
3.264,-103.500,-109.500,-80.000,-86.000
3.265,-103.500,-109.500,-80.500,-86.000
3.266,-103.500,-110.000,-80.500,-86.500
3.267,-103.500,-110.000,-80.500,-86.500
3.268,-104.000,-110.000,-80.500,-87.000
3.269,-104.000,-109.000,-80.000,-86.500
3.270,-104.500,-109.000,-80.000,-86.500
3.271,-104.500,-108.000,-79.500,-86.000
3.272,-105.000,-108.000,-79.500,-86.000
3.273,-105.000,-107.000,-79.000,-85.000
3.274,-105.000,-106.500,-79.500,-85.000
3.275,-105.000,-105.500,-79.500,-84.000
3.276,-105.000,-105.500,-79.500,-84.000
3.277,-104.500,-105.500,-79.500,-83.500
3.278,-104.000,-105.500,-80.000,-84.000
3.279,-103.500,-105.500,-80.000,-83.500
3.280,-103.500,-106.500,-80.000,-84.000
3.281,-103.000,-107.000,-80.000,-83.500
3.282,-103.500,-107.500,-80.000,-84.000
3.283,-103.000,-108.000,-79.500,-83.500
3.284,-103.000,-108.000,-79.500,-83.500
3.285,-102.500,-107.500,-78.500,-83.000
3.286,-102.500,-107.000,-78.000,-83.000
3.287,-102.500,-106.000,-77.000,-82.000
3.288,-102.500,-105.500,-76.500,-82.000
3.289,-102.500,-104.500,-76.000,-81.000
3.290,-102.500,-104.000,-76.000,-81.000
3.291,-102.500,-103.500,-76.000,-80.500
3.292,-102.500,-103.500,-76.500,-80.500
3.293,-102.500,-103.000,-76.500,-80.500
3.294,-103.000,-103.500,-77.500,-81.500
3.295,-103.000,-103.500,-78.500,-82.500
3.296,-103.500,-105.000,-80.500,-84.000
3.297,-104.000,-105.500,-81.500,-85.000
3.298,-104.500,-107.000,-83.500,-86.500
3.299,-104.500,-108.000,-84.500,-88.000
3.300,-105.000,-110.000,-86.500,-89.500
3.301,-105.000,-111.000,-87.500,-91.000
3.302,-105.000,-112.500,-88.500,-92.000
3.303,-105.000,-113.000,-89.000,-93.000
3.304,-105.500,-113.500,-90.000,-94.000
3.305,-105.500,-113.500,-90.000,-94.500
3.306,-105.500,-113.500,-90.000,-95.000
3.307,-105.000,-113.000,-89.500,-95.000
3.308,-105.000,-112.500,-89.000,-95.000
3.309,-104.500,-111.500,-87.500,-94.500
3.310,-104.500,-110.000,-87.000,-93.500
3.311,-104.000,-108.500,-85.500,-92.500
3.312,-103.500,-107.000,-84.500,-91.500
3.313,-103.000,-105.000,-83.000,-90.500
3.314,-103.000,-104.000,-82.000,-89.500
3.315,-102.000,-102.500,-81.000,-88.500
3.316,-102.000,-102.500,-80.500,-88.500
3.317,-101.500,-102.000,-80.000,-87.500
3.318,-101.500,-102.500,-80.000,-87.500
3.319,-101.000,-102.500,-80.000,-87.000
3.320,-101.000,-103.000,-80.500,-87.500
3.321,-100.500,-103.500,-80.000,-87.000
3.322,-101.000,-104.000,-80.500,-87.500
3.323,-100.500,-104.000,-80.500,-87.000
3.324,-101.000,-104.500,-81.000,-87.500
3.325,-100.500,-104.500,-81.000,-87.000
3.326,-101.000,-104.500,-81.000,-87.000
3.327,-100.500,-104.000,-80.500,-86.500
3.328,-101.000,-104.000,-80.000,-86.500
3.329,-101.000,-103.000,-79.500,-85.500
3.330,-101.500,-102.500,-79.000,-85.500
3.331,-101.500,-101.500,-78.000,-85.500
3.332,-102.000,-101.000,-78.000,-85.500
3.333,-101.500,-100.000,-77.500,-85.000
3.334,-101.500,-99.500,-77.500,-85.500
