'Elapsed time','AECG1','AECG2','AECG3','AECG4'
'seconds','uV','uV','uV','uV'
0.000,1.500,4.000,-1.500,-3.000
0.001,1.000,4.000,-2.000,-3.000
0.002,0.500,3.000,-2.000,-3.500
0.003,0.500,2.500,-1.500,-3.500
0.004,1.000,2.000,-1.000,-3.500
0.005,1.500,2.500,0.000,-2.500
0.006,2.500,3.000,1.000,-2.000
0.007,3.500,4.000,1.500,-1.000
0.008,4.500,4.500,2.000,-0.500
0.009,4.500,5.000,2.000,-0.500
0.010,4.000,5.500,1.500,-1.000
0.011,3.500,5.000,1.500,-2.000
0.012,3.500,5.000,1.500,-2.000
0.013,3.500,5.000,1.500,-2.000
0.014,4.000,5.500,1.500,-2.000
0.015,4.000,5.500,1.000,-2.000
0.016,3.500,5.000,0.500,-2.000
0.017,2.500,4.500,-0.500,-3.000
0.018,1.500,3.000,-1.000,-4.000
0.019,1.000,2.000,-1.000,-4.500
0.020,1.000,1.500,-0.500,-5.000
0.021,1.500,1.500,0.000,-4.500
0.022,2.000,2.000,0.500,-4.000
0.023,2.500,2.000,0.500,-3.000
0.024,2.000,2.000,0.000,-3.000
0.025,1.500,1.500,-1.000,-3.500
0.026,0.500,1.000,-1.500,-4.000
0.027,0.500,0.500,-1.000,-4.500
0.028,0.500,0.500,-0.500,-4.500
0.029,1.000,1.000,1.000,-4.000
0.030,1.500,1.500,2.000,-3.500
0.031,2.000,2.000,2.500,-3.000
0.032,2.000,2.000,2.000,-3.000
0.033,1.500,2.000,1.500,-3.500
0.034,1.500,2.500,1.000,-4.500
0.035,1.500,3.000,0.500,-5.000
0.036,2.500,3.500,0.000,-5.000
0.037,3.000,4.000,0.000,-4.500
0.038,4.000,4.000,0.000,-3.500
0.039,4.500,4.000,0.500,-2.500
0.040,4.500,3.500,0.500,-2.000
0.041,4.500,3.000,0.500,-2.000
0.042,4.500,3.000,0.500,-2.500
0.043,4.500,4.000,0.000,-3.000
0.044,4.500,4.500,0.000,-3.000
0.045,5.000,5.000,0.000,-3.500
0.046,5.000,5.500,0.500,-3.000
0.047,4.500,5.500,1.000,-3.000
0.048,4.500,5.000,1.500,-2.500
0.049,4.500,5.000,1.000,-2.500
0.050,4.500,4.500,1.000,-2.000
0.051,5.000,4.500,0.500,-2.000
0.052,5.000,4.000,0.000,-2.000
0.053,5.000,4.000,-0.500,-2.500
0.054,4.500,4.000,-0.500,-3.000
0.055,4.500,4.000,-1.000,-3.500
0.056,4.500,4.000,-1.000,-4.000
0.057,4.500,4.000,-1.500,-4.000
0.058,5.000,4.000,-1.500,-3.500
0.059,5.500,4.000,-1.500,-3.500
0.060,6.000,4.000,-2.000,-3.000
0.061,6.000,4.500,-2.000,-3.500
0.062,6.000,4.500,-2.500,-4.000
0.063,5.500,4.500,-3.500,-4.500
0.064,4.500,4.500,-4.000,-5.000
0.065,4.500,3.500,-4.000,-5.500
0.066,4.000,3.000,-4.000,-5.500
0.067,4.500,3.000,-3.500,-5.000
0.068,4.500,3.000,-3.000,-4.000
0.069,5.000,3.000,-3.000,-3.500
0.070,5.000,3.000,-3.000,-3.500
0.071,5.000,3.000,-3.500,-4.000
0.072,4.500,2.500,-3.000,-5.000
0.073,4.000,1.500,-2.500,-6.000
0.074,4.000,0.500,-1.500,-6.500
0.075,4.000,0.500,-1.000,-6.000
0.076,5.000,1.500,0.000,-5.000
0.077,6.000,2.500,0.000,-3.500
0.078,7.500,4.500,0.000,-2.000
0.079,9.000,5.500,-0.500,-1.000
0.080,10.000,6.500,-1.000,-1.000
0.081,10.500,6.000,-1.500,-1.000
0.082,10.000,5.500,-2.000,-1.000
0.083,10.000,5.000,-2.000,-1.000
0.084,10.000,5.000,-1.500,-1.000
0.085,10.000,5.500,-1.500,-1.000
0.086,10.000,6.000,-1.000,-1.500
0.087,10.000,6.000,-1.000,-2.000
0.088,9.500,5.500,-1.000,-3.000
0.089,9.000,4.500,-1.000,-3.500
0.090,8.500,3.500,-0.500,-3.500
0.091,7.500,3.000,0.000,-3.500
0.092,7.500,3.500,0.500,-3.500
0.093,7.500,4.000,0.500,-3.000
0.094,7.500,5.000,0.500,-2.500
0.095,7.500,6.000,0.000,-2.500
0.096,7.500,6.500,-0.500,-2.500
0.097,8.000,6.500,-1.000,-2.000
0.098,8.500,7.000,-0.500,-2.000
0.099,9.000,7.000,0.500,-1.500
0.100,9.500,7.500,1.000,-1.000
0.101,10.000,8.000,1.500,-1.000
0.102,9.500,7.500,1.500,-1.500
0.103,9.000,6.500,0.500,-2.000
0.104,7.500,5.500,-0.500,-2.500
0.105,6.500,4.000,-1.500,-3.500
0.106,5.500,3.000,-2.000,-3.500
0.107,5.000,2.500,-2.000,-3.500
0.108,5.000,2.000,-1.500,-3.500
0.109,5.500,1.500,-1.000,-3.500
0.110,5.500,1.500,-1.000,-3.000
0.111,5.500,2.000,-1.000,-3.000
0.112,5.500,2.000,-0.500,-3.000
0.113,5.000,2.000,-0.500,-3.000
0.114,4.000,2.000,-0.500,-3.000
0.115,3.500,2.000,-0.500,-3.500
0.116,3.500,1.500,-0.500,-3.500
0.117,3.500,1.000,-0.500,-3.500
0.118,4.000,1.000,-0.500,-3.000
0.119,4.500,1.000,-0.500,-2.500
0.120,5.000,2.000,-1.000,-2.000
0.121,5.000,2.500,-1.000,-2.000
0.122,5.500,2.500,-1.500,-2.500
0.123,5.500,2.500,-1.500,-3.000
0.124,5.000,2.000,-1.500,-4.000
0.125,5.000,1.500,-1.500,-4.500
0.126,4.500,1.000,-1.000,-4.500
0.127,4.000,0.500,-1.000,-4.500
0.128,4.000,1.000,-0.500,-4.000
0.129,4.000,1.500,0.000,-3.500
0.130,4.500,1.500,0.000,-3.500
0.131,4.500,1.500,0.500,-3.500
0.132,4.500,0.500,0.500,-4.000
0.133,4.500,-0.500,0.500,-4.500
0.134,4.000,-1.000,0.500,-4.500
0.135,3.000,-1.500,0.000,-5.000
0.136,2.500,-2.000,-0.500,-5.500
0.137,2.500,-1.500,-1.500,-5.500
0.138,2.500,-1.000,-1.500,-5.000
0.139,3.000,-0.500,-1.500,-4.500
0.140,4.000,0.500,-0.500,-3.500
0.141,5.500,2.000,0.500,-2.500
0.142,7.500,3.000,1.500,-1.500
0.143,9.500,4.000,2.000,-1.000
0.144,11.000,5.000,2.500,0.000
0.145,12.500,5.500,3.000,1.000
0.146,13.500,6.500,4.000,1.500
0.147,15.000,7.500,5.500,3.000
0.148,17.000,9.500,7.000,5.000
0.149,19.000,11.500,8.000,6.500
0.150,21.500,14.000,8.500,8.000
0.151,23.500,15.500,8.000,8.500
0.152,24.500,16.000,7.000,7.500
0.153,24.000,15.000,5.000,6.000
0.154,22.500,12.500,3.500,4.500
0.155,20.000,10.000,2.000,2.500
0.156,18.000,8.000,1.000,1.500
0.157,16.500,7.500,0.500,1.000
0.158,16.500,8.000,1.000,1.500
0.159,17.000,9.500,2.000,2.000
0.160,18.000,11.000,2.500,2.500
0.161,19.000,12.000,3.000,2.500
0.162,19.000,11.500,2.000,2.000
0.163,17.500,9.500,0.000,1.000
0.164,14.000,6.500,-2.500,-1.500
0.165,9.500,2.500,-5.000,-4.000
0.166,4.000,-2.000,-6.500,-7.000
0.167,-1.500,-6.000,-7.000,-9.500
0.168,-5.500,-9.000,-6.500,-11.500
0.169,-7.500,-10.500,-4.500,-11.500
0.170,-8.000,-10.500,-3.000,-10.500
0.171,-7.500,-9.000,-1.500,-9.000
0.172,-6.500,-8.000,-0.500,-7.500
0.173,-6.000,-7.000,0.500,-6.000
0.174,-5.500,-6.500,0.500,-5.000
0.175,-4.500,-6.500,0.500,-4.500
0.176,-3.500,-5.500,0.500,-4.000
0.177,-2.500,-4.500,0.500,-3.500
0.178,-1.000,-3.000,0.500,-3.000
0.179,0.500,-1.500,0.500,-2.000
0.180,1.500,-0.500,0.000,-2.000
0.181,2.000,-0.500,-1.000,-2.000
0.182,2.000,-1.000,-1.500,-2.500
0.183,2.000,-1.500,-1.500,-2.500
0.184,2.000,-1.500,-1.500,-2.500
0.185,2.000,-1.500,-1.000,-2.000
0.186,2.000,-1.000,-0.500,-1.500
0.187,2.000,-0.500,-0.500,-1.500
0.188,1.500,-0.500,-0.500,-1.500
0.189,1.500,-1.000,-0.500,-2.000
0.190,1.500,-1.500,0.000,-2.000
0.191,2.000,-1.500,0.500,-2.000
0.192,2.500,-1.500,1.500,-1.500
0.193,3.500,-1.500,2.500,-0.500
0.194,3.500,-1.000,3.000,-0.500
0.195,4.000,-0.500,2.500,-0.500
0.196,3.500,-0.500,1.500,-0.500
0.197,3.500,0.000,0.500,-1.000
0.198,3.500,0.000,-0.500,-1.500
0.199,3.500,0.000,-0.500,-1.000
0.200,4.000,0.000,-0.500,-1.000
0.201,4.000,-0.500,-0.500,-1.500
0.202,4.000,-0.500,-0.500,-2.000
0.203,4.000,-0.500,-1.000,-2.500
0.204,4.500,0.000,-1.500,-2.500
0.205,5.000,0.500,-1.500,-2.500
0.206,5.500,1.500,-1.000,-2.000
0.207,5.500,1.500,-0.500,-2.000
0.208,5.500,1.500,0.000,-2.500
0.209,5.000,0.500,0.000,-3.000
0.210,4.500,-0.500,0.000,-4.000
0.211,3.500,-1.000,0.000,-4.500
0.212,3.500,-0.500,0.000,-4.000
0.213,3.000,0.000,0.000,-3.500
0.214,3.000,1.000,0.500,-2.500
0.215,3.000,1.500,0.500,-2.000
0.216,3.000,1.500,0.500,-2.000
0.217,2.500,1.500,0.000,-2.500
0.218,3.000,1.500,-0.500,-2.500
0.219,3.500,1.500,-0.500,-2.000
0.220,4.000,2.000,-0.500,-1.500
0.221,4.500,2.500,-0.500,-1.500
0.222,5.000,2.500,-0.500,-1.500
0.223,5.000,2.000,-0.500,-1.500
0.224,5.000,2.000,-0.500,-2.000
0.225,5.000,1.500,0.000,-2.500
0.226,5.000,1.000,0.500,-2.500
0.227,5.000,1.000,1.000,-2.500
0.228,4.500,1.000,1.500,-2.000
0.229,4.000,0.500,1.000,-2.500
0.230,3.500,0.000,0.500,-2.500
0.231,3.000,-0.500,0.500,-2.500
0.232,2.500,-0.500,0.500,-2.500
0.233,2.500,-0.500,1.000,-2.000
0.234,3.000,-0.500,2.000,-1.500
0.235,3.000,-1.000,2.500,-1.000
0.236,3.000,-1.500,2.000,-1.000
0.237,3.000,-2.000,1.500,-1.000
0.238,3.000,-2.000,0.000,-1.500
0.239,3.500,-1.500,-1.000,-1.000
0.240,4.000,-0.500,-2.000,-1.000
0.241,4.000,0.000,-2.000,-0.500
0.242,4.000,0.500,-2.000,0.000
0.243,4.000,0.500,-2.000,0.000
0.244,4.000,0.500,-1.000,0.000
0.245,4.500,0.500,0.500,0.500
0.246,5.500,1.500,2.000,1.000
0.247,7.000,3.000,3.500,2.000
0.248,8.500,4.000,4.500,3.500
0.249,10.000,5.500,5.500,5.000
0.250,11.500,6.500,5.500,6.000
0.251,12.500,7.500,5.500,7.500
0.252,13.500,8.500,5.000,8.000
0.253,15.000,10.000,5.000,9.000
0.254,16.000,11.500,5.000,10.000
0.255,16.500,12.500,4.500,11.000
0.256,16.000,12.500,4.500,12.000
0.257,15.500,12.500,3.500,13.000
0.258,14.000,12.000,2.500,14.500
0.259,12.000,11.000,1.500,15.500
0.260,10.000,10.500,0.500,17.000
0.261,8.000,9.500,0.500,18.500
0.262,6.000,9.000,1.000,20.500
0.263,4.000,8.000,2.500,23.000
0.264,2.000,7.000,4.000,25.000
0.265,-0.500,5.500,4.500,27.000
0.266,-3.500,3.500,5.000,28.000
0.267,-7.000,1.500,3.500,28.000
0.268,-10.500,-0.500,2.000,27.000
0.269,-14.500,-3.500,-0.500,25.000
0.270,-18.000,-6.500,-2.000,22.500
0.271,-21.500,-9.500,-3.500,20.000
0.272,-25.000,-13.000,-4.000,18.500
0.273,-28.500,-16.000,-4.500,16.500
0.274,-32.500,-19.500,-5.500,15.500
0.275,-36.500,-23.000,-6.500,13.500
0.276,-41.000,-27.000,-8.000,11.000
0.277,-45.500,-30.500,-10.000,8.000
0.278,-49.000,-34.000,-11.000,4.000
0.279,-52.000,-37.000,-12.000,-0.500
0.280,-53.500,-40.000,-12.500,-5.000
0.281,-54.000,-42.500,-12.000,-9.500
0.282,-54.500,-44.500,-11.500,-14.500
0.283,-54.000,-46.000,-11.000,-19.000
0.284,-52.500,-46.500,-9.500,-23.500
0.285,-51.000,-46.500,-8.000,-28.000
0.286,-48.500,-45.500,-6.500,-31.500
0.287,-45.500,-44.500,-5.000,-34.500
0.288,-42.000,-43.000,-3.500,-36.500
0.289,-38.500,-41.000,-2.000,-38.000
0.290,-35.000,-39.000,-1.000,-38.000
0.291,-31.500,-36.500,-0.500,-37.500
0.292,-28.500,-34.000,-0.500,-36.000
0.293,-26.000,-31.500,-1.000,-34.500
0.294,-24.000,-29.000,-2.000,-33.000
0.295,-22.000,-27.000,-2.500,-31.000
0.296,-20.000,-25.000,-2.500,-29.500
0.297,-18.000,-23.500,-2.000,-27.000
0.298,-16.500,-21.500,-1.500,-24.500
0.299,-14.500,-19.500,-0.500,-22.000
0.300,-13.000,-17.500,0.500,-20.000
0.301,-12.000,-15.500,1.000,-17.500
0.302,-11.000,-13.500,1.000,-16.000
0.303,-9.500,-12.000,1.000,-14.000
0.304,-8.500,-11.000,1.000,-12.500
0.305,-7.000,-9.500,1.500,-10.500
0.306,-5.000,-8.000,1.500,-9.000
0.307,-3.000,-6.500,1.500,-7.000
0.308,-2.000,-5.500,1.500,-5.500
0.309,-1.000,-4.500,0.500,-4.500
0.310,0.000,-4.000,0.000,-4.000
0.311,0.500,-3.500,-1.000,-3.500
0.312,1.000,-3.000,-1.500,-3.500
0.313,1.500,-3.000,-2.000,-3.000
0.314,1.500,-2.500,-2.500,-3.500
0.315,2.000,-2.500,-2.500,-3.500
0.316,1.500,-2.000,-3.500,-4.000
0.317,1.500,-2.000,-4.000,-4.000
0.318,1.500,-2.000,-4.500,-4.500
0.319,1.500,-2.000,-4.500,-4.500
0.320,2.000,-1.500,-4.000,-4.000
0.321,2.500,-1.500,-3.000,-3.500
0.322,3.500,-1.000,-2.500,-3.500
0.323,4.000,-0.500,-2.000,-3.000
0.324,4.500,0.500,-2.000,-2.500
0.325,5.000,0.500,-2.000,-2.000
0.326,5.000,1.000,-1.500,-1.500
0.327,5.500,0.500,-0.500,-1.500
0.328,5.500,0.000,0.500,-2.000
0.329,5.000,-1.000,1.000,-2.500
0.330,5.000,-1.500,1.500,-3.000
0.331,5.000,-2.000,1.000,-3.500
0.332,5.000,-2.000,1.000,-3.000
0.333,5.500,-1.500,1.000,-3.000
0.334,6.000,-1.000,1.000,-2.000
0.335,6.000,-0.500,1.500,-1.500
0.336,6.500,-0.500,1.500,-1.500
0.337,6.000,-0.500,1.500,-1.500
0.338,6.000,-1.000,1.000,-1.500
0.339,6.000,-1.000,0.500,-2.000
0.340,6.500,-1.000,0.000,-1.500
0.341,6.500,-1.000,0.000,-1.500
0.342,7.000,-0.500,0.000,-1.500
0.343,6.500,-0.500,0.000,-1.000
0.344,6.500,-1.000,0.000,-1.000
0.345,6.000,-1.000,0.000,-1.500
0.346,5.500,-1.500,0.000,-1.500
0.347,5.000,-2.000,0.000,-1.000
0.348,5.500,-2.000,-0.500,-1.000
0.349,5.500,-1.500,-1.000,-1.000
0.350,5.500,-1.000,-1.500,-1.000
0.351,5.500,-0.500,-2.000,-1.000
0.352,5.500,-0.500,-2.000,-1.500
0.353,5.500,0.000,-2.000,-2.000
0.354,5.000,-0.500,-1.500,-2.000
0.355,5.000,-0.500,-1.000,-2.500
0.356,5.500,-0.500,-0.500,-2.500
0.357,5.500,-0.500,-0.500,-2.500
0.358,6.000,-0.500,0.000,-2.500
0.359,6.500,-0.500,0.000,-2.000
0.360,7.000,-0.500,0.000,-2.000
0.361,7.500,0.000,0.000,-1.500
0.362,8.000,1.000,-0.500,-1.000
0.363,8.500,2.000,-0.500,-1.000
0.364,8.500,2.500,-1.000,-0.500
0.365,8.500,2.500,-0.500,-0.500
0.366,8.500,2.000,0.000,-1.000
0.367,8.000,1.000,0.500,-1.000
0.368,7.500,0.000,0.500,-1.000
0.369,6.500,-0.500,0.500,-1.500
0.370,6.000,-1.000,0.500,-1.500
0.371,6.000,-1.000,-0.500,-2.000
0.372,6.000,-1.000,-1.000,-2.000
0.373,6.000,-0.500,-1.000,-2.000
0.374,6.500,-0.500,-1.500,-1.500
0.375,6.500,-0.500,-1.500,-1.500
0.376,6.000,-0.500,-2.000,-1.500
0.377,6.000,-0.500,-2.000,-1.000
0.378,5.500,-0.500,-2.500,-1.500
0.379,5.500,-0.500,-2.500,-1.500
0.380,5.500,0.000,-2.500,-1.500
0.381,5.500,0.000,-2.500,-1.500
0.382,5.500,0.500,-2.500,-1.500
0.383,6.000,1.000,-2.000,-1.000
0.384,6.000,0.500,-2.000,-1.000
0.385,5.500,0.500,-2.000,-1.500
0.386,5.000,-0.500,-2.000,-2.000
0.387,4.000,-1.500,-2.000,-2.500
0.388,3.500,-2.500,-2.500,-3.000
0.389,3.000,-2.500,-2.500,-3.000
0.390,3.000,-2.000,-2.500,-2.500
0.391,3.000,-1.500,-2.000,-2.000
0.392,3.500,-0.500,-1.000,-2.000
0.393,4.000,0.000,0.000,-1.500
0.394,4.500,0.000,1.000,-1.500
0.395,4.500,0.000,1.500,-2.000
0.396,4.500,0.000,1.000,-2.000
0.397,4.500,0.000,0.500,-2.000
0.398,4.500,0.000,0.000,-1.500
0.399,4.500,0.500,-0.500,-1.500
0.400,4.500,0.500,0.000,-1.000
0.401,4.500,1.000,0.000,-1.000
0.402,5.000,1.000,0.500,-1.000
0.403,5.500,1.500,0.500,-1.500
0.404,5.500,1.500,0.500,-2.000
0.405,5.500,2.000,0.500,-2.000
0.406,5.500,2.000,1.000,-2.000
0.407,5.500,2.000,1.000,-1.500
0.408,5.500,2.000,1.500,-1.000
0.409,6.000,2.500,2.000,-0.500
0.410,6.000,2.500,2.000,-0.500
0.411,6.500,2.000,1.500,-0.500
0.412,6.000,2.000,1.000,-1.000
0.413,5.500,1.000,0.500,-1.000
0.414,5.000,0.500,1.000,-1.000
0.415,5.000,0.000,1.000,-1.000
0.416,5.000,-0.500,1.500,-1.000
0.417,4.500,-0.500,1.000,-1.000
0.418,4.500,-1.500,0.000,-1.000
0.419,4.000,-2.500,-1.000,-1.500
0.420,3.000,-3.500,-2.500,-2.000
0.421,2.500,-4.000,-3.500,-2.000
0.422,1.500,-4.000,-3.500,-2.000
0.423,1.500,-3.500,-3.000,-1.000
0.424,2.000,-2.500,-2.500,-0.500
0.425,2.000,-2.000,-1.500,0.000
0.426,2.500,-2.000,-1.500,-0.500
0.427,2.500,-2.000,-1.000,-0.500
0.428,2.500,-2.000,-1.000,-1.000
0.429,2.500,-2.000,-0.500,-1.000
0.430,3.000,-1.500,0.000,-0.500
0.431,3.000,-1.000,1.000,0.000
0.432,3.500,-1.000,1.000,0.500
0.433,3.500,-0.500,1.000,0.000
0.434,3.000,-1.000,0.500,0.000
0.435,3.000,-1.500,0.000,-0.500
0.436,3.000,-1.500,0.000,-0.500
0.437,3.500,-2.000,0.000,0.000
0.438,3.500,-2.000,-0.500,0.000
0.439,3.000,-2.000,-0.500,0.000
0.440,2.500,-2.500,-1.000,-0.500
0.441,2.000,-2.500,-1.000,-1.000
0.442,1.500,-2.500,-1.000,-1.000
0.443,1.500,-2.000,-0.500,-0.500
0.444,2.000,-0.500,0.000,0.500
0.445,3.000,1.000,1.000,2.000
0.446,3.500,2.500,1.500,3.000
0.447,4.000,3.500,1.500,4.000
0.448,4.500,4.000,1.500,4.000
0.449,4.500,4.500,1.500,4.000
0.450,4.500,4.500,2.000,3.500
0.451,4.500,4.000,2.500,3.500
0.452,4.500,4.000,3.000,3.500
0.453,5.000,3.500,3.500,4.000
0.454,4.500,3.500,4.000,3.500
0.455,4.500,3.500,3.500,3.500
0.456,4.000,3.500,3.000,3.000
0.457,3.500,3.000,2.000,2.500
0.458,3.000,2.000,2.000,2.500
0.459,2.500,1.000,1.500,2.000
0.460,2.000,-0.500,2.000,1.500
0.461,1.500,-1.500,2.000,1.000
0.462,0.500,-2.500,2.000,0.500
0.463,-0.500,-3.000,1.500,0.000
0.464,-1.000,-3.000,1.500,0.000
0.465,-1.500,-2.500,2.000,0.500
0.466,-1.500,-2.000,2.500,0.500
0.467,-1.000,-1.500,3.500,1.000
0.468,-0.500,-1.500,4.000,1.500
0.469,0.000,-1.000,4.500,1.500
0.470,0.500,-1.000,4.500,1.500
0.471,0.500,-1.500,4.500,1.000
0.472,0.000,-2.000,4.000,1.000
0.473,0.000,-2.500,3.500,0.500
0.474,0.000,-3.000,3.000,0.500
0.475,-0.500,-3.000,2.500,1.000
0.476,-0.500,-2.500,2.000,1.500
0.477,-0.500,-2.000,1.500,2.500
0.478,0.000,-1.500,1.500,3.000
0.479,0.000,-1.000,1.000,3.500
0.480,0.500,-0.500,0.500,3.500
0.481,1.000,0.000,0.500,3.500
0.482,1.500,0.000,0.000,4.000
0.483,1.000,0.000,0.000,4.000
0.484,0.500,0.000,0.000,4.500
0.485,0.000,-0.500,0.000,4.500
0.486,-1.000,-1.500,1.000,4.000
0.487,-1.500,-2.000,1.500,3.500
0.488,-2.000,-2.000,2.500,3.000
0.489,-2.000,-2.000,3.500,2.500
0.490,-2.000,-2.000,3.500,2.500
0.491,-1.500,-2.000,3.500,2.000
0.492,-1.500,-1.500,3.500,2.500
0.493,-1.500,-1.500,3.000,2.000
0.494,-2.000,-1.500,2.500,2.000
0.495,-2.500,-2.000,2.000,1.000
0.496,-3.000,-3.000,1.500,0.500
0.497,-3.500,-4.000,1.000,-0.500
0.498,-3.500,-4.500,1.000,-1.000
0.499,-4.000,-5.500,0.500,-0.500
0.500,-4.000,-6.000,0.500,0.000
0.501,-4.000,-6.500,0.500,0.500
0.502,-4.500,-6.500,0.000,0.500
0.503,-5.000,-7.000,0.000,0.500
0.504,-5.500,-6.500,-0.500,0.500
0.505,-5.000,-5.500,-1.000,1.000
0.506,-4.500,-4.500,-1.000,1.500
0.507,-3.000,-2.500,0.000,2.500
0.508,-1.000,-1.000,0.500,4.000
0.509,0.500,0.500,1.500,5.000
0.510,1.500,1.500,1.500,6.000
0.511,1.500,1.500,1.000,5.500
0.512,1.500,1.500,0.000,5.000
0.513,1.000,1.000,-1.000,4.500
0.514,0.500,0.500,-1.500,4.000
0.515,0.000,0.000,-1.500,4.000
0.516,0.000,0.000,-1.500,4.000
0.517,-0.500,0.000,-1.000,4.500
0.518,-0.500,0.500,-0.500,5.000
0.519,0.000,0.500,0.000,5.000
0.520,0.000,0.000,0.500,5.000
0.521,0.000,0.000,1.000,5.000
0.522,0.500,-0.500,1.500,5.000
0.523,0.500,-0.500,2.000,5.500
0.524,0.500,0.000,2.500,6.000
0.525,0.500,0.000,3.000,6.000
0.526,0.000,0.500,3.000,6.500
0.527,-0.500,0.500,3.000,6.000
0.528,-1.000,1.000,2.500,5.500
0.529,-1.000,1.000,2.000,5.500
0.530,-1.500,1.000,2.000,5.000
0.531,-1.000,1.000,1.500,5.000
0.532,-1.000,0.500,2.000,5.000
0.533,-1.500,0.500,2.000,5.000
0.534,-1.500,0.500,2.000,5.000
0.535,-1.500,0.500,2.500,5.000
0.536,-1.000,0.500,2.500,5.000
0.537,-0.500,0.500,2.500,5.000
0.538,0.000,0.500,2.500,5.500
0.539,0.500,0.500,2.000,5.500
0.540,0.500,0.500,2.000,5.500
0.541,0.500,0.500,2.000,5.500
0.542,0.500,0.000,2.000,5.500
0.543,1.000,0.000,2.000,5.000
0.544,1.500,-0.500,2.000,4.500
0.545,1.500,-1.000,2.000,3.500
0.546,1.000,-1.500,2.000,3.000
0.547,0.500,-1.500,2.500,2.500
0.548,-0.500,-1.500,2.500,2.000
0.549,-1.500,-1.000,3.000,2.000
0.550,-1.500,-0.500,3.000,2.500
0.551,-1.000,0.500,3.500,2.500
0.552,-0.500,0.500,3.500,2.000
0.553,0.500,0.500,3.500,2.000
0.554,0.500,0.500,3.000,1.500
0.555,0.500,0.500,3.000,1.500
0.556,1.000,1.000,3.000,2.000
0.557,1.000,1.500,3.500,2.500
0.558,1.000,2.000,3.500,3.500
0.559,1.500,2.500,3.500,3.500
0.560,1.500,2.500,2.500,3.000
0.561,1.500,2.000,2.000,2.000
0.562,1.000,1.500,1.000,1.000
0.563,1.000,1.000,0.500,0.500
0.564,1.000,1.000,1.000,0.500
0.565,1.000,1.500,1.500,1.000
0.566,1.000,2.000,2.500,1.500
0.567,1.500,2.000,3.500,1.500
0.568,2.000,2.000,4.000,1.500
0.569,2.000,2.000,4.000,1.000
0.570,2.000,2.000,3.500,0.500
0.571,2.000,1.500,2.500,0.500
0.572,2.500,1.000,2.000,0.000
0.573,2.000,0.500,1.000,0.000
0.574,2.500,0.000,0.500,0.000
0.575,2.500,-0.500,0.000,0.000
0.576,3.500,0.000,0.000,0.000
0.577,4.500,0.500,-0.500,0.000
0.578,5.500,1.500,-1.000,0.000
0.579,6.000,2.000,-2.000,0.000
0.580,6.000,2.000,-2.500,0.000
0.581,5.500,1.500,-3.000,-0.500
0.582,5.000,1.000,-2.500,-1.000
0.583,5.000,0.000,-2.000,-2.000
0.584,4.500,-1.000,-1.000,-3.000
0.585,3.500,-2.000,-0.500,-4.000
0.586,2.000,-3.500,-0.500,-5.000
0.587,-0.500,-5.000,-1.500,-6.000
0.588,-3.500,-6.000,-2.000,-7.000
0.589,-6.000,-6.000,-1.500,-6.500
0.590,-7.000,-5.500,-0.500,-5.500
0.591,-6.000,-4.000,1.500,-3.500
0.592,-3.500,-1.500,4.000,-1.000
0.593,0.000,1.000,5.500,1.000
0.594,3.500,3.000,6.000,2.500
0.595,6.500,4.500,5.000,3.000
0.596,8.000,5.000,3.500,3.000
0.597,9.500,5.500,2.500,3.000
0.598,10.500,6.000,2.500,3.500
0.599,12.500,7.500,3.500,4.500
0.600,15.000,10.000,4.500,6.000
0.601,17.500,12.500,5.000,8.000
0.602,20.500,14.500,5.000,9.500
0.603,22.000,16.000,3.000,10.000
0.604,22.500,16.500,1.000,9.000
0.605,21.500,15.000,-1.000,7.500
0.606,19.500,13.000,-2.500,5.500
0.607,17.500,10.500,-2.500,3.000
0.608,15.500,8.000,-2.500,1.500
0.609,14.500,7.000,-1.500,1.000
0.610,14.500,6.500,-0.500,1.500
0.611,15.500,7.000,1.000,2.000
0.612,16.500,8.000,1.500,3.000
0.613,16.500,8.000,1.500,3.000
0.614,15.500,7.000,0.500,1.500
0.615,12.500,4.000,-1.000,-0.500
0.616,8.500,0.000,-3.000,-3.500
0.617,3.500,-4.500,-4.000,-6.500
0.618,-0.500,-8.000,-4.500,-8.500
0.619,-3.500,-10.000,-4.000,-9.500
0.620,-5.000,-10.500,-2.500,-9.500
0.621,-5.500,-9.500,-1.500,-9.000
0.622,-5.500,-9.000,-1.000,-8.500
0.623,-5.500,-8.500,-1.000,-8.500
0.624,-6.000,-8.500,-1.000,-8.000
0.625,-6.000,-8.500,-1.500,-7.500
0.626,-5.500,-7.500,-1.000,-6.000
0.627,-4.000,-6.000,0.000,-4.500
0.628,-2.000,-3.500,1.000,-2.500
0.629,1.000,-0.500,2.000,-0.500
0.630,4.000,2.000,2.500,1.000
0.631,6.500,3.500,3.000,2.000
0.632,8.500,4.500,3.000,2.500
0.633,9.500,5.000,3.000,2.500
0.634,9.500,5.000,2.000,2.000
0.635,9.000,4.000,1.000,1.000
0.636,8.000,3.000,-0.500,0.000
0.637,6.500,2.000,-1.500,-1.500
0.638,5.500,0.500,-2.000,-2.500
0.639,4.500,-0.500,-2.000,-3.000
0.640,4.500,-1.500,-1.500,-3.000
0.641,4.500,-2.000,-0.500,-2.500
0.642,4.500,-3.000,0.000,-2.500
0.643,4.000,-3.500,-0.500,-2.000
0.644,3.500,-4.500,-1.500,-2.500
0.645,2.500,-5.000,-2.000,-3.000
0.646,1.500,-6.000,-3.000,-3.000
0.647,1.000,-6.000,-3.000,-3.000
0.648,1.000,-5.500,-2.500,-2.500
0.649,2.000,-4.500,-2.000,-1.500
0.650,3.000,-3.000,-1.000,-0.500
0.651,4.000,-2.000,0.000,0.500
0.652,5.000,-0.500,1.000,1.000
0.653,6.000,1.000,1.500,1.500
0.654,6.500,2.000,2.000,2.500
0.655,7.500,3.500,2.000,3.000
0.656,7.500,4.000,2.000,3.500
0.657,7.500,4.000,2.000,3.500
0.658,7.000,3.500,1.500,3.500
0.659,6.500,2.500,1.000,2.500
0.660,5.500,1.500,0.500,2.000
0.661,5.000,0.500,0.500,1.000
0.662,5.000,0.000,0.000,0.500
0.663,5.000,0.000,0.000,0.000
0.664,5.500,-0.500,0.000,0.000
0.665,5.000,-0.500,0.500,0.500
0.666,4.500,-0.500,1.000,0.500
0.667,4.000,-0.500,2.000,0.500
0.668,3.500,-0.500,3.000,0.500
0.669,3.500,0.000,4.000,0.500
0.670,3.500,1.000,4.000,0.000
0.671,4.000,1.500,4.000,0.500
0.672,4.000,2.000,3.000,0.500
0.673,4.000,2.000,2.000,0.500
0.674,4.000,1.500,1.000,0.500
0.675,4.000,1.000,0.000,0.500
0.676,4.000,1.000,-1.000,0.000
0.677,4.000,1.000,-1.500,0.000
0.678,4.000,1.500,-1.500,0.500
0.679,4.500,2.000,-1.500,0.500
0.680,5.000,2.500,-1.500,1.000
0.681,5.000,2.000,-1.500,1.000
0.682,4.500,1.500,-2.000,0.500
0.683,3.500,0.500,-2.000,0.000
0.684,3.000,0.000,-2.000,-1.000
0.685,2.000,-0.500,-1.500,-1.500
0.686,2.000,-0.500,-1.000,-1.500
0.687,2.500,-0.500,0.000,-1.000
0.688,3.000,0.000,0.000,-0.500
0.689,3.500,1.000,-0.500,-0.500
0.690,3.500,1.500,-1.000,-1.000
0.691,3.500,2.000,-2.000,-1.500
0.692,3.500,2.500,-2.000,-2.000
0.693,4.000,2.500,-1.500,-2.000
0.694,4.000,2.000,-0.500,-1.500
0.695,4.500,1.500,0.500,-1.000
0.696,4.000,1.500,0.500,-0.500
0.697,3.500,1.500,0.000,-0.500
0.698,2.500,2.000,-0.500,-1.000
0.699,2.000,2.500,-1.500,-1.500
0.700,1.500,2.500,-1.500,-1.500
0.701,1.500,2.500,-2.000,-1.500
0.702,1.500,2.000,-2.000,-2.000
0.703,1.500,1.500,-2.500,-2.000
0.704,1.500,1.000,-2.500,-2.000
0.705,1.500,1.000,-2.000,-2.000
0.706,2.000,1.000,-1.000,-2.000
0.707,2.000,1.500,0.000,-1.000
0.708,2.500,2.000,1.000,0.000
0.709,3.000,2.000,1.000,0.500
0.710,3.000,2.500,0.500,0.000
0.711,2.500,2.500,0.000,-0.500
0.712,2.000,3.000,0.000,-1.000
0.713,2.000,3.500,0.500,-1.500
0.714,2.000,4.000,1.000,-1.000
0.715,2.500,4.000,1.500,-0.500
0.716,3.000,4.000,1.500,0.500
0.717,3.500,4.000,1.000,0.500
0.718,3.500,3.000,0.500,0.000
0.719,2.500,2.000,-0.500,-1.000
0.720,2.000,1.000,-1.000,-2.000
0.721,1.000,0.000,-1.000,-2.000
0.722,0.000,-0.500,-0.500,-2.000
0.723,0.000,-1.000,-0.500,-1.500
0.724,0.000,-1.000,-0.500,-1.000
0.725,1.000,-0.500,-0.500,-0.500
0.726,2.000,0.000,-0.500,-0.500
0.727,3.000,0.500,-0.500,-0.500
0.728,4.000,0.500,0.000,-0.500
0.729,4.500,0.500,0.500,-0.500
0.730,4.500,0.500,1.000,-1.000
0.731,4.500,0.500,1.000,-1.500
0.732,4.000,0.500,0.500,-2.000
0.733,3.500,0.000,0.500,-2.500
0.734,3.500,0.000,0.000,-2.500
0.735,3.500,0.000,-0.500,-2.500
0.736,3.500,-0.500,-1.000,-2.000
0.737,3.500,-1.000,-1.500,-2.000
0.738,2.500,-2.000,-2.000,-2.000
0.739,2.000,-2.500,-2.500,-2.000
0.740,1.500,-3.000,-3.000,-2.000
0.741,1.500,-3.000,-3.000,-2.000
0.742,2.000,-3.000,-2.000,-1.500
0.743,2.500,-3.000,-1.000,-1.000
0.744,3.000,-2.500,0.500,0.000
0.745,3.500,-1.500,1.000,1.000
0.746,3.500,-0.500,1.000,1.500
0.747,4.000,0.000,1.000,2.000
0.748,4.500,1.000,0.500,2.000
0.749,5.000,1.500,0.000,1.500
0.750,5.500,2.000,0.500,1.000
0.751,6.000,2.000,0.500,0.500
0.752,6.000,2.000,1.000,0.500
0.753,6.000,2.500,1.500,0.500
0.754,5.500,2.500,1.500,1.000
0.755,5.500,2.500,1.500,1.000
0.756,5.000,3.000,1.000,1.500
0.757,5.500,3.500,0.500,1.500
0.758,5.500,4.000,0.000,2.000
0.759,5.500,4.500,0.000,2.000
0.760,6.000,4.500,0.000,2.000
0.761,6.000,4.500,0.000,2.500
0.762,6.000,4.500,0.500,3.000
0.763,6.500,4.500,1.000,3.000
0.764,6.500,4.500,1.000,3.500
0.765,6.500,4.500,1.000,3.500
0.766,6.000,4.500,1.000,3.000
0.767,6.000,4.500,1.000,2.500
0.768,5.500,4.500,1.500,1.500
0.769,5.500,4.000,2.000,1.500
0.770,5.500,3.500,2.000,1.000
0.771,5.500,3.500,2.000,1.500
0.772,5.500,3.500,1.500,2.000
0.773,5.500,3.000,1.000,2.500
0.774,5.000,3.000,0.500,2.500
0.775,4.500,3.000,0.000,2.500
0.776,4.500,3.000,-0.500,1.500
0.777,5.000,3.000,-0.500,1.000
0.778,5.500,3.000,-1.000,0.000
0.779,6.500,3.000,-1.000,0.000
0.780,7.000,3.000,-1.000,0.000
0.781,8.000,3.000,-1.000,0.500
0.782,8.500,3.000,-0.500,0.500
0.783,8.500,3.000,0.000,0.500
0.784,8.000,3.000,0.500,0.500
0.785,7.500,3.500,0.500,0.500
0.786,7.000,4.000,0.500,0.500
0.787,7.000,5.000,0.500,1.000
0.788,7.000,5.500,0.500,1.500
0.789,7.000,6.000,0.500,2.000
0.790,7.000,6.000,1.000,2.000
0.791,6.000,5.500,1.000,2.000
0.792,4.000,5.500,1.000,1.500
0.793,2.500,5.000,1.000,1.000
0.794,1.000,5.000,0.500,1.000
0.795,0.500,5.000,0.000,1.000
0.796,0.500,5.000,0.000,1.500
0.797,1.000,5.000,0.000,2.000
0.798,1.500,4.500,0.000,1.500
0.799,1.000,3.500,-0.500,1.000
0.800,0.500,2.500,-1.000,-0.500
0.801,0.000,1.500,-1.000,-1.000
0.802,0.000,1.000,-1.000,-1.500
0.803,0.500,1.500,-1.000,-0.500
0.804,2.000,3.000,0.000,0.500
0.805,3.500,4.500,1.000,2.000
0.806,5.000,5.500,1.500,3.000
0.807,6.000,6.000,2.000,4.000
0.808,6.000,6.500,2.500,4.000
0.809,6.000,6.500,2.500,3.500
0.810,5.500,6.000,2.500,3.500
0.811,5.000,5.500,2.500,3.000
0.812,4.500,4.500,2.000,2.500
0.813,3.500,3.500,1.000,2.000
0.814,3.000,2.500,0.500,1.500
0.815,2.000,2.000,0.000,1.000
0.816,2.000,2.000,0.000,1.000
0.817,2.000,2.000,0.500,1.000
0.818,2.000,2.000,1.000,1.500
0.819,2.000,2.000,1.000,2.000
0.820,2.000,1.500,0.500,2.000
0.821,2.000,1.000,0.000,2.000
0.822,1.500,1.000,-1.000,1.500
0.823,1.500,1.000,-1.500,1.000
0.824,1.500,1.500,-1.000,0.500
0.825,1.500,2.000,-1.000,0.000
0.826,1.500,2.500,0.000,-0.500
0.827,1.500,2.500,0.500,-0.500
0.828,1.500,2.500,1.000,0.000
0.829,1.500,2.500,1.500,0.000
0.830,1.500,2.000,2.000,0.000
0.831,2.000,1.500,2.000,0.500
0.832,2.500,1.000,2.500,0.000
0.833,3.000,0.500,2.500,-0.500
0.834,3.500,0.000,2.000,-1.000
0.835,3.500,-0.500,1.000,-1.500
0.836,3.000,-1.000,-0.500,-2.000
0.837,2.000,-1.500,-1.500,-2.500
0.838,1.500,-2.500,-2.500,-2.500
0.839,0.500,-3.000,-3.500,-3.000
0.840,0.500,-3.500,-3.500,-3.500
0.841,0.500,-3.000,-3.500,-4.000
0.842,0.500,-2.500,-4.000,-4.500
0.843,1.000,-2.000,-4.000,-4.500
0.844,1.500,-1.500,-3.500,-4.000
0.845,1.500,-1.000,-3.000,-4.000
0.846,2.000,-1.500,-2.000,-4.000
0.847,2.000,-1.500,-1.000,-4.000
0.848,2.500,-2.000,0.000,-4.500
0.849,3.000,-1.500,1.000,-4.500
0.850,4.000,-1.000,1.000,-3.500
0.851,5.000,0.500,1.000,-2.500
0.852,6.000,1.000,0.500,-1.500
0.853,6.500,1.500,-0.500,-1.000
0.854,6.500,1.000,-1.000,-1.000
0.855,6.500,0.500,-1.000,-2.000
0.856,5.500,-0.500,-1.000,-3.500
0.857,5.000,-1.500,-1.000,-5.000
0.858,4.500,-2.500,-1.000,-5.500
0.859,3.500,-3.000,-1.000,-6.000
0.860,2.000,-4.000,-1.500,-5.500
0.861,0.500,-5.500,-2.000,-5.500
0.862,-1.500,-7.000,-2.500,-5.000
0.863,-2.500,-8.000,-3.000,-5.000
0.864,-3.500,-8.500,-2.500,-4.500
0.865,-3.500,-8.000,-2.000,-4.000
0.866,-3.000,-7.500,-1.500,-3.500
0.867,-2.500,-7.500,-0.500,-3.000
0.868,-2.000,-7.000,-0.500,-3.000
0.869,-2.500,-7.000,-0.500,-2.500
0.870,-2.500,-7.000,-1.000,-2.500
0.871,-2.000,-6.500,-0.500,-1.500
0.872,-1.000,-5.500,0.500,-0.500
0.873,1.000,-3.000,2.000,1.500
0.874,3.500,-0.500,3.500,3.500
0.875,6.500,2.500,4.500,5.500
0.876,9.000,5.000,5.000,7.000
0.877,11.000,7.500,4.500,8.500
0.878,12.500,9.000,3.500,10.000
0.879,13.500,10.500,3.000,11.000
0.880,14.000,11.000,2.500,12.000
0.881,14.000,11.500,2.000,13.000
0.882,14.000,12.000,2.000,13.500
0.883,14.000,12.000,2.000,14.500
0.884,13.000,11.500,2.000,16.000
0.885,12.000,11.000,2.000,17.500
0.886,10.500,10.000,2.500,19.500
0.887,8.500,9.000,3.000,22.000
0.888,6.500,8.000,3.500,24.000
0.889,4.500,7.000,4.000,26.000
0.890,2.000,6.000,4.000,27.500
0.891,-0.500,5.000,3.500,29.000
0.892,-3.500,3.500,2.000,30.000
0.893,-6.500,1.500,0.000,30.500
0.894,-10.500,-1.000,-2.000,30.000
0.895,-14.500,-4.000,-4.500,28.500
0.896,-19.000,-7.500,-6.500,26.000
0.897,-23.000,-11.500,-8.000,23.000
0.898,-27.500,-15.000,-9.000,20.500
0.899,-31.500,-18.500,-9.500,18.500
0.900,-35.500,-22.000,-9.500,17.000
0.901,-39.000,-24.500,-9.500,16.000
0.902,-42.500,-27.000,-10.000,14.500
0.903,-46.000,-29.500,-10.500,12.500
0.904,-49.000,-32.000,-11.500,9.500
0.905,-52.000,-34.500,-13.000,5.000
0.906,-54.500,-37.500,-13.500,0.000
0.907,-56.500,-39.500,-13.500,-5.000
0.908,-57.500,-41.500,-12.500,-10.000
0.909,-57.000,-42.500,-10.500,-15.000
0.910,-55.500,-42.500,-9.000,-19.500
0.911,-53.000,-42.500,-7.000,-23.500
0.912,-50.000,-42.000,-6.000,-27.500
0.913,-47.000,-42.000,-5.500,-31.500
0.914,-44.000,-41.500,-5.500,-35.000
0.915,-41.500,-41.000,-5.500,-37.500
0.916,-38.500,-39.500,-5.000,-39.000
0.917,-35.500,-37.000,-4.500,-39.000
0.918,-32.500,-34.500,-3.500,-38.000
0.919,-29.500,-32.000,-2.000,-36.500
0.920,-26.500,-29.500,-1.000,-34.500
0.921,-24.500,-27.500,-0.500,-32.500
0.922,-22.500,-26.000,-0.500,-30.500
0.923,-20.500,-24.000,-0.500,-28.500
0.924,-18.500,-22.000,-0.500,-26.000
0.925,-16.500,-20.000,0.000,-23.000
0.926,-15.000,-18.000,0.500,-20.500
0.927,-14.000,-16.500,1.000,-18.000
0.928,-13.000,-15.500,1.500,-16.000
0.929,-12.500,-14.000,2.000,-14.500
0.930,-12.000,-12.500,1.500,-12.500
0.931,-10.500,-11.000,1.500,-11.000
0.932,-9.000,-9.000,1.500,-9.000
0.933,-6.500,-6.500,2.000,-7.000
0.934,-4.500,-5.000,2.500,-5.000
0.935,-2.500,-4.000,3.000,-3.500
0.936,-1.500,-3.000,2.500,-2.000
0.937,-1.000,-3.000,2.000,-1.500
0.938,-1.000,-3.000,1.000,-2.000
0.939,-1.500,-3.000,0.000,-2.000
0.940,-1.500,-2.000,-0.500,-2.500
0.941,-1.000,-1.000,-0.500,-2.500
0.942,0.000,-0.500,-0.500,-2.500
0.943,0.500,0.000,0.500,-2.000
0.944,1.000,-0.500,1.000,-2.000
0.945,1.000,-1.000,1.500,-2.000
0.946,0.500,-2.000,1.500,-2.500
0.947,0.000,-2.500,1.000,-2.500
0.948,0.000,-2.500,0.500,-3.000
0.949,0.000,-2.000,0.000,-3.000
0.950,0.500,-1.000,0.000,-2.500
0.951,0.500,-0.500,0.000,-2.500
0.952,0.000,-0.500,0.500,-2.000
0.953,-0.500,-1.000,1.000,-2.000
0.954,-0.500,-1.000,1.500,-2.000
0.955,0.000,-1.500,2.000,-2.000
0.956,1.000,-1.500,2.500,-1.500
0.957,2.000,-1.500,2.500,-1.000
0.958,3.500,-1.500,2.000,0.000
0.959,4.000,-1.000,1.500,1.000
0.960,4.500,-1.000,0.500,1.000
0.961,4.500,-0.500,-1.000,1.000
0.962,4.000,-1.000,-2.000,1.000
0.963,3.500,-1.000,-2.500,0.000
0.964,3.000,-1.500,-2.500,-0.500
0.965,3.000,-1.500,-2.000,-0.500
0.966,3.000,-1.500,-1.000,0.000
0.967,3.500,-1.000,0.000,0.500
0.968,4.000,-0.500,0.500,1.500
0.969,4.500,0.500,1.000,2.000
0.970,4.500,0.500,1.500,2.000
0.971,4.000,0.000,2.000,1.500
0.972,4.000,-0.500,2.500,1.000
0.973,4.000,-0.500,3.500,1.000
0.974,4.500,0.000,3.500,1.000
0.975,5.000,0.500,3.500,1.000
0.976,5.500,1.000,3.000,1.000
0.977,5.500,1.500,2.000,1.000
0.978,5.500,1.000,0.500,0.500
0.979,4.500,0.000,0.000,-1.000
0.980,3.000,-1.500,-0.500,-2.000
0.981,2.000,-2.500,-0.500,-3.000
0.982,1.000,-3.000,0.000,-3.500
0.983,0.500,-2.500,0.500,-3.000
0.984,1.000,-2.000,1.000,-2.000
0.985,2.000,-1.000,1.500,-0.500
0.986,3.500,0.500,2.000,1.000
0.987,5.000,1.000,2.000,2.500
0.988,5.500,2.000,2.000,3.500
0.989,6.000,2.500,1.500,4.000
0.990,6.000,2.500,1.500,3.500
0.991,5.500,2.500,1.000,3.000
0.992,5.000,1.500,0.500,2.000
0.993,3.500,0.000,-0.500,1.000
0.994,2.000,-1.500,-0.500,0.000
0.995,0.500,-3.000,-1.000,-0.500
0.996,-0.500,-4.500,-1.000,-1.000
0.997,-1.500,-5.000,-1.000,-1.000
0.998,-1.500,-5.000,-1.000,-1.500
0.999,-2.000,-5.000,-1.000,-2.000
1.000,-2.000,-5.000,-1.500,-2.000
1.001,-2.000,-5.500,-1.500,-2.000
1.002,-2.500,-5.500,-1.500,-2.000
1.003,-2.500,-6.000,-1.000,-2.000
1.004,-2.500,-6.000,-0.500,-2.000
1.005,-2.500,-6.500,0.500,-2.000
1.006,-2.000,-6.500,0.500,-2.500
1.007,-1.500,-7.000,0.500,-2.500
1.008,-1.500,-7.000,0.000,-3.000
1.009,-1.500,-7.000,0.000,-2.500
1.010,-1.500,-6.500,-0.500,-2.000
1.011,-1.500,-6.000,-0.500,-2.000
1.012,-2.000,-5.500,-0.500,-1.500
1.013,-2.500,-5.000,0.000,-2.000
1.014,-2.500,-5.000,0.000,-2.500
1.015,-2.000,-5.000,0.000,-2.500
1.016,-1.500,-5.000,0.000,-3.000
1.017,-1.000,-4.500,0.000,-2.500
1.018,-0.500,-4.500,0.000,-2.000
1.019,-0.500,-4.000,0.000,-1.500
1.020,-0.500,-3.500,-0.500,-1.000
1.021,-1.000,-4.000,-1.000,-1.000
1.022,-1.000,-4.000,-1.500,-1.000
1.023,-1.000,-4.500,-1.500,-1.000
1.024,-1.500,-5.000,-1.500,-1.000
1.025,-1.500,-5.000,-1.000,-1.000
1.026,-2.000,-5.500,-0.500,-0.500
1.027,-2.500,-5.500,0.000,-0.500
1.028,-2.500,-5.500,0.000,0.000
1.029,-1.500,-5.000,0.500,0.500
1.030,-0.500,-5.000,0.500,0.500
1.031,0.500,-4.500,1.000,1.000
1.032,1.000,-5.000,1.000,0.500
1.033,1.000,-5.000,0.500,-0.500
1.034,0.500,-5.500,0.000,-2.000
1.035,0.000,-6.000,-0.500,-3.500
1.036,-0.500,-7.000,-1.000,-4.500
1.037,-1.000,-7.500,-1.500,-5.000
1.038,-1.000,-7.500,-1.000,-5.000
1.039,-1.000,-8.000,-1.000,-5.000
1.040,-1.500,-8.000,-1.000,-5.000
1.041,-1.500,-7.500,-1.000,-5.000
1.042,-1.500,-7.000,-1.000,-4.500
1.043,-1.000,-6.500,-1.000,-4.000
1.044,-1.000,-5.500,0.000,-3.000
1.045,-0.500,-3.500,1.000,-1.500
1.046,0.000,-1.500,2.000,0.500
1.047,0.500,0.500,3.000,2.500
1.048,1.000,2.000,3.000,4.000
1.049,1.500,3.500,3.000,4.500
1.050,2.500,4.500,3.000,5.500
1.051,4.500,6.000,4.000,6.000
1.052,7.000,7.500,5.000,7.000
1.053,10.500,9.500,6.000,8.500
1.054,14.000,11.500,6.500,9.500
1.055,16.500,13.500,6.000,10.000
1.056,17.500,14.000,4.500,9.500
1.057,17.500,13.500,3.000,8.500
1.058,15.500,12.000,1.500,7.000
1.059,13.000,10.000,0.500,5.500
1.060,10.000,8.000,-0.500,4.000
1.061,8.500,6.500,-1.000,3.500
1.062,7.500,6.000,-0.500,4.000
1.063,8.000,6.500,0.000,4.500
1.064,9.000,7.000,1.000,5.500
1.065,9.500,7.500,1.500,6.000
1.066,9.500,7.000,1.500,5.500
1.067,8.000,5.500,0.000,4.000
1.068,5.000,1.500,-2.500,1.000
1.069,0.000,-3.000,-5.500,-2.500
1.070,-5.000,-7.000,-7.500,-6.000
1.071,-10.000,-10.500,-8.000,-9.000
1.072,-13.500,-12.000,-6.500,-10.500
1.073,-15.500,-12.500,-4.000,-11.000
1.074,-16.000,-11.500,-1.500,-10.000
1.075,-15.500,-11.000,0.500,-9.000
1.076,-14.500,-10.500,1.000,-8.000
1.077,-14.000,-10.500,1.000,-7.000
1.078,-13.000,-10.500,1.000,-6.500
1.079,-12.500,-10.000,1.000,-6.000
1.080,-11.000,-9.000,2.000,-5.500
1.081,-9.500,-7.500,3.000,-4.000
1.082,-7.000,-5.500,3.500,-2.500
1.083,-5.000,-4.000,3.500,-1.000
1.084,-3.000,-3.000,2.500,0.000
1.085,-1.500,-2.000,1.000,1.000
1.086,-0.500,-2.000,-0.500,1.000
1.087,0.000,-2.000,-1.500,1.000
1.088,-0.500,-2.500,-2.500,1.000
1.089,-0.500,-3.000,-2.500,1.000
1.090,-1.000,-4.000,-1.500,1.500
1.091,-2.000,-4.000,-1.000,1.500
1.092,-2.500,-4.500,0.000,2.000
1.093,-2.500,-4.000,1.000,2.500
1.094,-2.500,-3.500,1.500,3.500
1.095,-2.500,-3.000,2.000,4.000
1.096,-2.500,-2.000,2.500,4.500
1.097,-2.000,-2.000,2.500,4.500
1.098,-2.000,-2.000,2.500,4.500
1.099,-2.000,-2.000,2.000,4.000
1.100,-2.500,-3.000,1.500,3.500
1.101,-3.000,-4.000,0.500,3.500
1.102,-3.500,-4.500,0.000,3.000
1.103,-3.500,-5.000,0.000,3.000
1.104,-3.500,-5.500,0.500,3.000
1.105,-3.000,-5.000,0.500,3.000
1.106,-2.500,-4.500,1.000,2.500
1.107,-2.000,-4.000,1.000,2.500
1.108,-2.000,-3.500,1.000,2.500
1.109,-2.000,-3.500,1.000,3.000
1.110,-2.000,-3.000,1.000,3.500
1.111,-2.000,-3.000,1.500,4.000
1.112,-1.500,-2.500,1.500,4.500
1.113,-2.000,-2.000,1.500,4.500
1.114,-2.000,-2.000,1.500,4.500
1.115,-2.500,-2.500,1.000,4.500
1.116,-3.000,-2.500,0.500,4.500
1.117,-3.000,-3.000,0.500,4.000
1.118,-3.000,-3.000,0.500,4.000
1.119,-3.000,-3.000,0.500,4.500
1.120,-3.000,-2.500,0.000,4.500
1.121,-3.000,-2.500,-0.500,4.500
1.122,-3.500,-2.500,-1.500,4.500
1.123,-3.500,-2.500,-2.000,4.500
1.124,-3.500,-2.500,-1.500,4.500
1.125,-3.000,-2.500,-1.000,4.500
1.126,-2.500,-2.500,-0.500,5.000
1.127,-1.500,-2.000,0.000,5.500
1.128,-1.500,-2.000,0.000,6.000
1.129,-1.500,-2.000,0.000,5.500
1.130,-1.500,-2.500,-0.500,5.000
1.131,-2.000,-3.000,-0.500,5.000
1.132,-2.000,-3.000,-0.500,5.000
1.133,-1.500,-2.500,0.000,5.500
1.134,-1.000,-2.500,0.000,6.000
1.135,-1.000,-2.000,0.500,6.500
1.136,-1.000,-2.000,1.000,6.000
1.137,-1.000,-2.500,1.500,5.500
1.138,-1.500,-2.500,1.500,4.500
1.139,-2.000,-3.000,1.500,4.000
1.140,-2.500,-3.000,1.500,4.000
1.141,-2.500,-3.500,1.000,4.000
1.142,-3.000,-3.500,0.000,3.500
1.143,-3.500,-3.500,-1.500,3.500
1.144,-3.500,-3.500,-2.500,3.500
1.145,-3.500,-3.500,-2.500,3.500
1.146,-3.000,-3.500,-2.000,4.000
1.147,-2.000,-2.500,-0.500,5.000
1.148,-1.500,-2.000,1.000,6.000
1.149,-1.000,-2.000,1.500,6.500
1.150,-1.000,-2.000,1.500,6.500
1.151,-1.500,-3.000,1.500,6.000
1.152,-2.000,-4.000,0.500,5.000
1.153,-3.000,-5.000,0.000,4.000
1.154,-3.500,-6.000,0.000,3.500
1.155,-3.500,-6.000,0.500,3.500
1.156,-4.000,-6.000,1.000,3.500
1.157,-4.000,-5.500,1.000,3.500
1.158,-4.000,-4.500,1.000,4.000
1.159,-4.000,-4.500,1.000,4.000
1.160,-4.000,-4.000,0.500,4.500
1.161,-4.000,-4.500,0.500,4.500
1.162,-4.000,-4.500,0.000,5.000
1.163,-3.500,-4.000,0.000,5.000
1.164,-3.500,-3.500,0.000,5.000
1.165,-3.500,-3.000,-0.500,4.000
1.166,-3.500,-2.500,-1.000,3.500
1.167,-3.500,-2.000,-1.500,2.500
1.168,-3.500,-2.000,-2.000,2.000
1.169,-3.500,-2.500,-2.000,1.500
1.170,-4.000,-3.000,-2.000,1.500
1.171,-4.000,-3.000,-1.000,1.500
1.172,-4.000,-2.500,-0.500,1.500
1.173,-4.000,-2.000,0.500,2.000
1.174,-3.500,-1.500,1.000,2.500
1.175,-3.000,-0.500,1.500,3.000
1.176,-2.000,-0.500,2.000,3.000
1.177,-1.500,0.000,2.500,3.000
1.178,-0.500,0.500,2.500,3.500
1.179,0.000,1.000,2.500,3.500
1.180,0.000,1.500,2.500,4.000
1.181,0.000,2.000,2.000,4.500
1.182,0.500,2.000,1.500,4.500
1.183,0.500,2.000,0.500,4.500
1.184,0.500,2.000,-0.500,4.000
1.185,0.500,1.500,-1.500,3.000
1.186,0.000,1.500,-2.500,2.500
1.187,0.000,1.000,-2.500,2.000
1.188,0.000,1.000,-2.000,2.500
1.189,0.500,1.000,-1.500,2.500
1.190,1.000,1.000,-0.500,3.000
1.191,1.500,0.500,0.500,3.000
1.192,1.500,0.500,1.000,3.000
1.193,1.500,0.000,1.000,2.500
1.194,1.500,0.500,1.000,2.000
1.195,1.500,0.500,1.000,2.000
1.196,2.000,1.500,1.000,2.500
1.197,2.500,1.500,1.500,3.000
1.198,3.000,2.000,2.000,3.000
1.199,3.000,1.500,2.000,3.000
1.200,3.000,1.000,1.500,2.000
1.201,2.500,0.500,0.500,1.500
1.202,2.000,0.000,-0.500,1.000
1.203,1.500,-0.500,-1.000,1.000
1.204,1.500,-1.000,-1.000,1.000
1.205,1.500,-1.500,0.000,1.000
1.206,2.000,-1.500,1.000,1.500
1.207,2.000,-1.500,2.000,1.500
1.208,2.500,-1.000,2.500,1.500
1.209,2.500,-0.500,2.000,1.000
1.210,2.500,0.000,1.500,1.000
1.211,2.500,0.000,1.500,0.500
1.212,2.000,0.000,1.500,0.500
1.213,2.000,-0.500,2.000,0.500
1.214,2.000,-0.500,2.500,0.500
1.215,2.000,-1.000,2.500,0.500
1.216,2.000,-1.000,2.000,0.500
1.217,1.500,-0.500,1.000,0.000
1.218,1.500,-0.500,0.500,-0.500
1.219,1.500,-0.500,0.000,-1.000
1.220,1.500,-0.500,-0.500,-1.500
1.221,1.500,0.000,-0.500,-1.500
1.222,1.500,0.500,-1.000,-1.500
1.223,2.000,1.000,-1.500,-1.000
1.224,2.000,1.000,-2.000,-1.000
1.225,2.000,0.500,-2.500,-1.000
1.226,2.000,-0.500,-2.500,-1.000
1.227,1.500,-1.500,-2.000,-1.500
1.228,1.500,-2.500,-1.000,-1.500
1.229,1.500,-2.500,-0.500,-1.500
1.230,1.500,-2.500,0.500,-1.000
1.231,1.500,-2.000,1.000,-1.000
1.232,1.000,-2.000,1.500,-0.500
1.233,1.000,-2.000,1.500,0.000
1.234,0.500,-2.500,1.500,0.000
1.235,1.000,-2.000,2.000,0.500
1.236,2.000,-1.500,2.500,1.000
1.237,3.000,-1.000,3.000,1.500
1.238,4.000,-0.500,3.000,1.500
1.239,4.500,-0.500,2.500,1.500
1.240,4.500,-0.500,1.500,1.000
1.241,4.000,-0.500,1.000,0.500
1.242,3.500,0.000,0.500,0.500
1.243,3.500,0.500,0.000,0.500
1.244,3.500,1.000,0.500,1.000
1.245,3.500,1.000,0.500,0.500
1.246,3.500,0.500,0.500,0.000
1.247,3.000,-0.500,0.500,-0.500
1.248,2.500,-1.000,0.500,-1.000
1.249,2.000,-1.000,0.500,-1.500
1.250,2.000,-0.500,1.500,-1.000
1.251,3.000,0.500,2.500,-0.500
1.252,4.000,1.500,3.500,0.000
1.253,5.000,2.500,4.000,0.500
1.254,5.500,2.500,3.500,1.000
1.255,5.500,2.500,2.500,1.000
1.256,5.500,2.500,1.500,1.000
1.257,5.000,2.500,1.000,1.000
1.258,4.500,2.500,0.500,1.000
1.259,4.000,2.000,0.000,1.000
1.260,3.500,2.000,0.000,0.500
1.261,3.000,2.000,0.000,0.000
1.262,3.000,2.000,0.000,0.000
1.263,3.500,2.000,-0.500,0.000
1.264,3.500,2.500,-0.500,0.000
1.265,3.500,2.500,-1.000,0.000
1.266,3.500,2.500,-1.000,0.000
1.267,3.000,2.000,-0.500,-0.500
1.268,3.000,1.500,-0.500,-1.000
1.269,2.500,1.000,0.000,-1.500
1.270,2.000,-0.500,0.500,-2.000
1.271,1.000,-1.500,0.500,-3.000
1.272,0.500,-2.500,0.500,-3.500
1.273,-0.500,-3.500,0.500,-3.500
1.274,-1.000,-4.000,0.500,-3.000
1.275,-0.500,-3.500,0.500,-2.500
1.276,0.000,-3.000,0.500,-1.500
1.277,0.500,-2.000,0.500,-1.000
1.278,1.500,-1.000,0.500,0.000
1.279,1.500,-0.500,0.000,0.000
1.280,1.500,-0.500,0.000,0.000
1.281,1.000,-1.000,-0.500,-0.500
1.282,0.500,-1.500,-1.000,-1.500
1.283,0.500,-2.000,-2.000,-2.500
1.284,1.000,-2.000,-2.500,-3.000
1.285,1.500,-2.500,-3.000,-4.000
1.286,2.500,-2.500,-3.000,-4.000
1.287,3.000,-2.500,-3.500,-4.500
1.288,3.500,-2.500,-3.500,-5.000
1.289,3.000,-3.000,-3.500,-5.500
1.290,2.500,-3.000,-3.500,-6.000
1.291,2.500,-3.000,-3.000,-6.000
1.292,2.500,-2.500,-2.000,-5.500
1.293,3.500,-1.500,-1.000,-4.000
1.294,5.000,-0.500,0.500,-2.500
1.295,6.500,0.500,1.000,-1.500
1.296,6.500,0.500,1.000,-1.500
1.297,5.500,0.500,-0.500,-2.000
1.298,3.000,-0.500,-2.000,-3.000
1.299,0.000,-1.500,-4.000,-4.000
1.300,-3.000,-2.000,-5.000,-4.000
1.301,-4.500,-2.500,-5.000,-4.000
1.302,-5.500,-3.000,-4.500,-3.500
1.303,-5.000,-3.000,-3.500,-3.000
1.304,-4.000,-3.000,-2.500,-2.500
1.305,-3.000,-3.000,-2.000,-2.500
1.306,-2.500,-3.500,-1.500,-2.000
1.307,-2.500,-4.000,-1.000,-1.500
1.308,-2.500,-4.000,-0.500,-1.500
1.309,-2.000,-4.000,-0.500,-1.000
1.310,-1.500,-3.500,0.000,-1.000
1.311,-1.000,-3.000,0.500,-1.000
1.312,0.000,-2.000,0.500,-1.000
1.313,1.000,-1.000,1.000,-0.500
1.314,1.500,-0.500,1.000,0.500
1.315,2.000,0.500,1.000,1.500
1.316,2.500,0.500,0.500,2.000
1.317,2.500,0.500,0.000,2.000
1.318,2.500,0.500,-1.000,1.500
1.319,2.500,0.500,-1.500,1.000
1.320,3.000,0.500,-1.500,0.500
1.321,3.500,0.500,-1.000,0.500
1.322,4.000,0.500,-0.500,0.500
1.323,4.500,0.500,0.500,0.500
1.324,5.000,0.000,1.500,0.500
1.325,4.500,-0.500,1.500,0.500
1.326,4.000,-1.500,1.500,0.000
1.327,3.500,-2.000,1.000,-0.500
1.328,3.000,-2.000,0.500,-1.000
1.329,3.000,-1.500,0.000,-1.000
1.330,3.500,-1.000,-0.500,-1.000
1.331,4.000,-0.500,-0.500,-1.000
1.332,4.500,0.000,-1.000,-1.000
1.333,4.500,-0.500,-1.000,-1.500
1.334,4.000,-1.000,-1.500,-2.000
1.335,3.500,-1.500,-1.000,-2.000
1.336,3.000,-1.000,-1.000,-2.500
1.337,3.000,-0.500,-1.000,-2.000
1.338,3.500,0.000,-1.000,-2.000
1.339,3.500,0.500,-1.500,-2.000
1.340,3.000,0.000,-2.000,-2.000
1.341,2.500,-0.500,-2.500,-2.000
1.342,2.500,-1.000,-2.500,-2.000
1.343,2.500,-1.500,-2.500,-2.000
1.344,2.500,-1.500,-2.500,-1.500
1.345,3.000,-0.500,-3.000,-1.000
1.346,3.500,-0.500,-3.500,-0.500
1.347,3.500,-0.500,-4.000,-0.500
1.348,3.000,-1.000,-4.500,-1.000
1.349,2.500,-1.500,-4.500,-1.000
1.350,1.500,-1.500,-4.500,-1.500
1.351,1.000,-2.000,-3.500,-2.000
1.352,0.000,-1.500,-3.000,-2.000
1.353,0.000,-1.500,-3.000,-2.000
1.354,-0.500,-1.500,-3.000,-2.500
1.355,-0.500,-2.000,-3.000,-3.000
1.356,-0.500,-2.500,-3.000,-3.500
1.357,-0.500,-3.000,-3.000,-3.500
1.358,-0.500,-3.500,-2.500,-3.500
1.359,0.000,-3.000,-2.000,-3.000
1.360,0.500,-2.500,-1.500,-2.000
1.361,1.500,-1.000,-1.000,-1.000
1.362,2.500,0.500,-0.500,0.500
1.363,4.000,1.500,-0.500,1.500
1.364,5.000,3.000,0.000,2.500
1.365,5.500,3.500,0.000,2.500
1.366,6.000,3.500,0.000,2.500
1.367,5.500,2.500,-0.500,2.000
1.368,5.000,1.500,-0.500,1.000
1.369,4.000,-0.500,-0.500,0.500
1.370,2.500,-2.500,-0.500,-1.000
1.371,1.500,-4.000,0.000,-1.500
1.372,0.500,-5.000,0.000,-2.500
1.373,-0.500,-5.000,0.000,-3.000
1.374,-0.500,-5.000,-0.500,-3.000
1.375,-0.500,-4.000,-1.000,-3.000
1.376,-0.500,-3.500,-1.500,-3.000
1.377,-0.500,-3.000,-2.000,-3.000
1.378,-0.500,-2.500,-2.000,-3.000
1.379,-0.500,-2.500,-2.000,-3.500
1.380,-1.000,-3.000,-2.000,-3.500
1.381,-1.500,-3.000,-2.500,-4.000
1.382,-1.500,-3.000,-3.500,-4.000
1.383,-2.000,-3.000,-3.500,-4.000
1.384,-2.000,-2.500,-3.500,-4.000
1.385,-1.500,-1.500,-3.000,-3.500
1.386,-1.000,-1.000,-2.500,-3.000
1.387,-0.500,0.000,-2.000,-2.500
1.388,0.500,0.500,-2.000,-2.500
1.389,0.500,1.000,-2.000,-2.000
1.390,1.000,1.500,-2.500,-1.500
1.391,1.500,2.000,-2.000,-1.000
1.392,2.000,3.000,-1.500,-0.500
1.393,2.500,4.000,-1.000,0.000
1.394,3.000,4.000,-1.000,0.000
1.395,3.500,4.000,-1.000,0.500
1.396,3.500,3.500,-1.500,0.500
1.397,3.500,2.500,-1.500,0.500
1.398,3.500,2.000,-1.000,0.500
1.399,3.500,1.500,0.000,0.500
1.400,3.500,1.000,0.500,0.000
1.401,3.500,0.500,0.500,-0.500
1.402,3.000,0.000,0.500,-0.500
1.403,2.500,0.000,0.500,-1.000
1.404,2.000,-0.500,0.000,-1.000
1.405,2.000,0.000,-0.500,-0.500
1.406,1.500,0.500,-0.500,-0.500
1.407,1.500,1.000,-1.000,0.000
1.408,1.500,1.500,-1.000,0.000
1.409,1.500,1.500,-1.000,0.000
1.410,1.500,1.500,-0.500,0.500
1.411,2.000,1.000,0.500,0.500
1.412,2.000,1.000,1.000,0.500
1.413,2.500,1.000,1.000,1.000
1.414,2.500,1.000,0.500,1.000
1.415,2.500,1.500,0.000,1.000
1.416,2.000,1.500,0.000,0.500
1.417,2.000,2.000,1.000,0.500
1.418,2.000,2.000,1.500,0.500
1.419,2.000,2.000,2.500,0.500
1.420,2.000,2.500,2.500,1.000
1.421,1.500,2.500,2.000,1.000
1.422,1.500,3.000,1.000,1.000
1.423,1.500,3.000,0.500,1.000
1.424,1.500,2.500,0.000,0.500
1.425,1.000,2.500,0.000,0.500
1.426,1.000,2.000,0.500,0.000
1.427,1.000,2.000,0.500,-0.500
1.428,0.500,1.500,0.500,-1.000
1.429,0.000,1.000,0.500,-1.000
1.430,0.000,0.500,0.500,-0.500
1.431,-0.500,0.500,0.500,-0.500
1.432,-0.500,0.500,1.000,0.000
1.433,-0.500,0.500,1.500,0.500
1.434,-0.500,0.500,1.500,1.000
1.435,-0.500,0.000,1.500,1.000
1.436,-1.000,-0.500,1.000,1.000
1.437,-1.000,-1.500,0.500,0.500
1.438,-1.500,-1.500,0.500,0.000
1.439,-1.500,-2.000,0.500,0.000
1.440,-2.000,-1.500,1.000,0.000
1.441,-2.000,-1.000,1.000,0.000
1.442,-2.000,-1.000,1.000,0.000
1.443,-2.000,-1.000,0.000,-0.500
1.444,-2.000,-1.000,-1.000,-0.500
1.445,-2.500,-1.000,-2.000,-1.000
1.446,-2.500,-0.500,-2.000,-1.000
1.447,-2.500,0.000,-1.000,-1.000
1.448,-2.500,0.000,-0.500,-1.000
1.449,-3.000,-0.500,0.500,-1.000
1.450,-3.500,-1.500,0.500,-2.000
1.451,-4.500,-2.500,-0.500,-2.500
1.452,-5.000,-3.000,-1.500,-3.500
1.453,-5.500,-3.000,-2.500,-4.000
1.454,-5.500,-3.000,-3.000,-4.500
1.455,-5.500,-2.500,-3.000,-4.500
1.456,-5.500,-2.000,-2.000,-4.000
1.457,-5.500,-2.500,-1.500,-4.000
1.458,-5.500,-3.000,-0.500,-4.000
1.459,-5.500,-4.000,0.000,-4.000
1.460,-5.500,-4.500,0.000,-4.000
1.461,-5.000,-4.500,0.500,-4.000
1.462,-4.500,-4.000,1.000,-4.000
1.463,-4.500,-4.000,1.000,-4.000
1.464,-4.500,-4.000,1.500,-4.000
1.465,-4.500,-3.500,1.500,-3.500
1.466,-4.000,-3.000,1.500,-3.000
1.467,-3.000,-2.500,0.500,-2.500
1.468,-2.000,-1.500,-1.000,-1.500
1.469,-1.500,-0.500,-2.000,-1.000
1.470,-1.000,0.500,-2.500,-1.000
1.471,-1.000,0.500,-2.500,-1.500
1.472,-1.500,0.000,-2.000,-2.000
1.473,-1.500,0.000,-1.500,-2.500
1.474,-1.500,-0.500,-0.500,-2.500
1.475,-1.500,0.000,0.000,-2.000
1.476,-1.000,0.000,0.500,-1.500
1.477,-0.500,0.000,0.500,-0.500
1.478,0.000,0.000,0.500,0.000
1.479,0.500,-0.500,0.500,0.500
1.480,1.000,-1.000,0.500,0.500
1.481,0.500,-1.500,0.500,0.000
1.482,-0.500,-2.000,0.000,-0.500
1.483,-1.500,-2.500,0.000,-1.000
1.484,-2.500,-3.500,0.000,-1.500
1.485,-3.000,-3.500,0.000,-1.500
1.486,-3.000,-3.000,0.500,-1.000
1.487,-2.000,-2.000,1.500,0.000
1.488,-1.000,-0.500,2.000,1.000
1.489,-0.500,0.000,2.000,1.500
1.490,-1.000,0.000,1.500,1.000
1.491,-2.500,-1.000,1.000,-0.500
1.492,-4.500,-2.500,0.000,-2.500
1.493,-6.000,-4.000,-1.000,-4.000
1.494,-7.000,-5.500,-1.000,-5.500
1.495,-6.500,-5.500,-0.500,-5.500
1.496,-6.000,-5.500,1.000,-5.000
1.497,-5.000,-4.500,2.000,-4.000
1.498,-4.500,-3.500,2.500,-3.000
1.499,-3.500,-2.500,2.500,-2.000
1.500,-2.000,-1.500,2.500,-1.000
1.501,-0.500,-0.500,2.000,0.000
1.502,2.000,1.000,2.000,1.500
1.503,4.500,2.500,2.000,3.000
1.504,7.000,4.000,3.000,5.000
1.505,9.500,6.500,4.000,7.000
1.506,12.500,9.000,5.500,9.000
1.507,15.500,12.000,6.500,11.500
1.508,19.000,15.500,7.500,14.000
1.509,23.000,19.000,8.000,16.500
1.510,26.000,21.500,7.500,18.500
1.511,28.000,23.000,7.000,19.500
1.512,27.500,22.500,5.000,19.500
1.513,26.000,21.000,3.000,18.500
1.514,23.500,19.000,1.000,17.500
1.515,20.500,17.500,0.000,17.500
1.516,18.000,16.500,0.000,18.500
1.517,16.000,16.500,0.500,20.500
1.518,15.000,17.000,2.000,23.500
1.519,14.500,17.500,2.500,26.500
1.520,13.000,17.000,2.500,28.500
1.521,10.000,15.500,0.500,30.000
1.522,5.500,12.000,-2.500,29.500
1.523,-1.000,7.000,-6.500,28.000
1.524,-9.000,1.000,-10.000,25.500
1.525,-17.000,-6.000,-12.500,22.000
1.526,-25.000,-12.500,-14.500,18.500
1.527,-32.000,-18.000,-15.000,15.000
1.528,-38.000,-23.000,-14.500,12.500
1.529,-43.000,-27.000,-13.500,10.500
1.530,-47.000,-30.500,-12.000,9.000
1.531,-51.000,-34.000,-11.000,8.500
1.532,-54.500,-36.500,-10.000,7.500
1.533,-58.000,-38.500,-9.000,7.000
1.534,-60.000,-40.000,-8.500,6.000
1.535,-61.000,-41.000,-8.500,4.500
1.536,-61.000,-41.500,-8.500,2.500
1.537,-61.000,-41.500,-9.000,-0.500
1.538,-61.000,-42.000,-9.500,-4.000
1.539,-61.500,-43.000,-10.000,-8.500
1.540,-62.000,-43.500,-10.000,-14.000
1.541,-62.500,-44.500,-10.500,-19.000
1.542,-61.500,-44.500,-10.500,-24.500
1.543,-59.000,-43.500,-10.000,-28.500
1.544,-55.000,-42.000,-9.500,-31.500
1.545,-50.500,-40.500,-8.500,-34.000
1.546,-46.000,-38.000,-7.000,-35.500
1.547,-42.000,-36.500,-6.000,-36.500
1.548,-39.500,-34.500,-5.000,-37.000
1.549,-37.000,-33.000,-4.500,-36.500
1.550,-34.500,-31.500,-3.500,-36.000
1.551,-32.000,-29.500,-2.000,-34.500
1.552,-29.000,-27.500,-1.000,-32.500
1.553,-26.500,-25.000,0.000,-30.000
1.554,-24.000,-23.000,0.500,-28.000
1.555,-22.000,-21.000,0.500,-26.000
1.556,-20.500,-19.500,-0.500,-23.500
1.557,-19.500,-18.000,-1.500,-21.500
1.558,-18.000,-16.000,-2.000,-19.000
1.559,-16.500,-14.500,-1.500,-16.500
1.560,-14.500,-12.000,-0.500,-14.000
1.561,-12.500,-10.000,0.500,-11.000
1.562,-10.500,-7.500,1.000,-9.000
1.563,-8.500,-6.000,1.500,-7.000
1.564,-7.000,-4.500,2.000,-5.500
1.565,-5.500,-3.500,1.500,-4.500
1.566,-4.500,-3.000,1.500,-3.500
1.567,-3.500,-3.000,1.500,-2.500
1.568,-3.000,-2.500,1.000,-2.000
1.569,-3.000,-2.500,0.500,-1.000
1.570,-3.000,-2.500,-0.500,-0.500
1.571,-3.000,-2.500,-1.000,-0.500
1.572,-3.000,-2.500,-2.000,-1.000
1.573,-3.000,-2.500,-2.500,-1.500
1.574,-3.000,-2.500,-3.500,-2.000
1.575,-3.500,-3.000,-3.500,-2.500
1.576,-4.000,-3.000,-3.000,-2.500
1.577,-4.000,-2.500,-2.500,-2.500
1.578,-4.000,-2.500,-1.500,-2.000
1.579,-3.500,-2.000,-0.500,-1.500
1.580,-2.500,-2.000,0.000,-1.500
1.581,-2.000,-2.000,0.000,-1.500
1.582,-2.000,-2.000,-0.500,-1.500
1.583,-2.000,-2.000,-1.000,-1.500
1.584,-2.000,-2.000,-1.500,-1.500
1.585,-2.500,-2.000,-2.000,-1.000
1.586,-2.500,-2.000,-2.500,-1.500
1.587,-2.000,-2.000,-2.500,-1.500
1.588,-1.500,-2.000,-2.000,-2.000
1.589,-1.500,-2.500,-2.000,-2.000
1.590,-1.000,-2.500,-2.000,-2.000
1.591,-1.500,-3.000,-2.000,-1.500
1.592,-1.500,-3.500,-2.000,-1.500
1.593,-2.000,-4.000,-2.000,-1.500
1.594,-2.500,-5.000,-1.500,-2.000
1.595,-2.500,-5.000,-1.000,-2.000
1.596,-2.500,-5.500,-0.500,-2.500
1.597,-2.500,-5.000,0.000,-3.000
1.598,-2.500,-5.000,-0.500,-3.500
1.599,-3.000,-4.500,-0.500,-3.500
1.600,-3.000,-5.000,-0.500,-4.000
1.601,-3.000,-5.000,0.000,-4.000
1.602,-2.500,-5.500,0.500,-4.000
1.603,-2.000,-5.500,1.000,-3.500
1.604,-1.500,-5.500,1.500,-2.500
1.605,-1.000,-5.000,1.500,-2.000
1.606,-1.000,-5.000,1.000,-1.500
1.607,-1.000,-5.000,0.500,-1.500
1.608,-1.500,-5.000,0.000,-1.500
1.609,-2.000,-5.000,-0.500,-1.500
1.610,-2.000,-5.000,0.000,-1.000
1.611,-2.000,-4.500,0.000,-1.000
1.612,-2.000,-3.500,0.500,-1.000
1.613,-2.000,-2.500,1.000,-1.000
1.614,-1.500,-1.500,1.000,-1.000
1.615,-1.500,-1.000,1.000,-1.000
1.616,-1.500,-1.000,0.500,-1.000
1.617,-1.500,-1.500,0.500,-1.000
1.618,-2.000,-2.000,1.000,-1.000
1.619,-2.000,-2.500,1.000,-1.500
1.620,-2.000,-3.000,0.500,-1.500
1.621,-1.500,-3.000,0.000,-1.500
1.622,-1.500,-2.500,-0.500,-1.500
1.623,-1.500,-2.000,-1.000,-1.500
1.624,-1.500,-1.500,-1.500,-1.000
1.625,-1.500,-1.500,-1.000,-1.000
1.626,-2.000,-1.500,0.000,-0.500
1.627,-2.000,-1.500,1.000,-0.500
1.628,-2.000,-2.000,1.500,-0.500
1.629,-1.500,-2.500,1.500,0.000
1.630,-1.500,-2.500,1.000,0.000
1.631,-1.500,-2.500,0.500,0.500
1.632,-1.500,-2.500,0.500,0.500
1.633,-1.500,-2.000,0.500,0.500
1.634,-1.500,-2.000,1.000,0.500
1.635,-1.500,-1.500,1.000,0.500
1.636,-1.500,-1.000,0.500,0.500
1.637,-1.500,-0.500,0.000,0.500
1.638,-1.500,0.000,-0.500,1.000
1.639,-1.500,0.000,-1.000,1.000
1.640,-1.000,0.000,-1.000,1.000
1.641,-1.500,-0.500,-0.500,0.500
1.642,-2.000,-1.000,-0.500,0.000
1.643,-2.500,-2.000,-0.500,-0.500
1.644,-3.000,-2.500,0.000,-1.000
1.645,-3.000,-2.500,0.000,-0.500
1.646,-2.500,-2.000,0.500,0.000
1.647,-2.000,-1.000,0.500,1.000
1.648,-1.500,-0.500,0.500,1.500
1.649,-2.000,-0.500,0.500,1.000
1.650,-2.500,-1.000,0.000,0.500
1.651,-3.500,-2.000,0.000,0.000
1.652,-4.000,-2.500,0.500,-0.500
1.653,-4.000,-2.000,1.500,-0.500
1.654,-3.500,-1.500,2.500,0.500
1.655,-2.500,-0.500,3.000,1.000
1.656,-2.000,0.000,3.000,1.500
1.657,-2.000,0.000,2.000,1.500
1.658,-1.500,-0.500,1.000,1.000
1.659,-1.500,-1.500,0.000,0.500
1.660,-1.500,-2.000,-0.500,0.500
1.661,-1.000,-2.000,-1.000,0.500
1.662,-1.000,-1.500,-1.500,0.500
1.663,-1.000,-1.000,-2.000,0.500
1.664,-1.000,-0.500,-2.000,0.500
1.665,-1.500,-0.500,-2.000,0.000
1.666,-2.500,-1.000,-2.000,0.000
1.667,-3.000,-1.500,-1.500,-0.500
1.668,-3.000,-2.000,-1.000,-0.500
1.669,-3.000,-2.500,-0.500,-0.500
1.670,-3.000,-2.500,0.000,-0.500
1.671,-3.000,-2.000,1.000,0.000
1.672,-3.000,-1.500,1.500,0.500
1.673,-2.000,-0.500,2.500,1.000
1.674,-1.500,0.500,3.000,2.000
1.675,-0.500,1.000,3.500,2.500
1.676,0.000,1.000,4.000,3.000
1.677,0.500,1.000,4.000,3.500
1.678,0.000,0.500,4.000,3.500
1.679,-0.500,-0.500,3.500,3.000
1.680,-1.000,-1.000,3.000,2.500
1.681,-1.500,-1.500,2.000,2.500
1.682,-2.000,-2.000,1.000,2.000
1.683,-2.000,-1.500,0.000,2.000
1.684,-2.500,-1.500,-1.000,1.500
1.685,-2.500,-1.500,-1.500,1.000
1.686,-3.000,-1.500,-1.500,0.500
1.687,-3.000,-1.500,-1.500,0.000
1.688,-3.000,-1.500,-0.500,-0.500
1.689,-3.000,-1.000,0.000,-0.500
1.690,-3.000,-1.000,1.000,0.000
1.691,-3.000,-1.000,2.000,0.500
1.692,-3.500,-1.000,2.500,1.000
1.693,-3.500,-1.000,2.500,1.500
1.694,-3.500,-1.500,1.500,1.000
1.695,-3.500,-2.000,0.500,1.000
1.696,-3.500,-2.500,0.000,0.500
1.697,-3.500,-3.000,-0.500,0.500
1.698,-3.500,-3.000,-0.500,1.000
1.699,-3.500,-2.500,0.500,1.500
1.700,-3.500,-2.500,1.500,2.000
1.701,-3.000,-2.500,2.000,2.000
1.702,-3.000,-2.500,2.000,2.500
1.703,-2.500,-2.000,2.000,3.000
1.704,-1.500,-1.500,1.500,4.000
1.705,-0.500,-1.000,1.000,4.500
1.706,0.000,0.000,0.500,5.000
1.707,0.500,1.000,0.500,5.000
1.708,0.000,1.500,0.000,4.500
1.709,-0.500,1.000,-0.500,4.000
1.710,-1.000,0.500,-0.500,3.500
1.711,-1.000,0.000,-0.500,3.000
1.712,-1.000,0.000,0.500,3.500
1.713,-0.500,0.000,1.500,4.000
1.714,0.000,0.500,2.000,5.000
1.715,0.500,0.500,2.500,5.500
1.716,0.500,0.500,2.000,6.000
1.717,0.500,0.500,1.500,5.500
1.718,0.500,0.500,0.500,4.500
1.719,0.000,0.500,-0.500,3.500
1.720,0.000,0.500,-1.000,2.500
1.721,0.000,0.500,-1.500,2.000
1.722,-0.500,0.000,-1.500,1.500
1.723,-1.000,-0.500,-1.000,1.000
1.724,-1.500,-1.000,-1.000,1.000
1.725,-2.000,-1.000,-1.500,0.500
1.726,-2.500,-1.500,-1.500,0.000
1.727,-3.000,-1.500,-2.000,-0.500
1.728,-3.000,-1.000,-1.500,-0.500
1.729,-3.000,-0.500,-1.000,0.000
1.730,-2.000,0.500,0.000,1.000
1.731,-1.000,1.500,1.000,2.500
1.732,0.000,3.000,2.000,4.000
1.733,1.000,4.000,2.500,5.000
1.734,1.500,4.500,2.500,6.000
1.735,1.500,4.000,2.500,6.000
1.736,0.500,3.000,1.500,5.500
1.737,-0.500,2.000,0.500,4.500
1.738,-2.000,0.500,-0.500,3.500
1.739,-2.500,0.000,-0.500,2.500
1.740,-2.500,0.000,-0.500,3.000
1.741,-2.500,0.500,0.500,3.500
1.742,-2.000,1.000,1.500,5.000
1.743,-1.500,2.000,2.000,6.500
1.744,-1.500,2.500,2.500,7.500
1.745,-1.000,2.500,1.500,8.500
1.746,-1.000,3.000,0.500,9.000
1.747,-1.000,3.000,-0.500,8.500
1.748,-1.000,3.000,-1.000,8.000
1.749,-1.000,2.500,-1.000,7.000
1.750,-1.000,2.000,-1.000,6.000
1.751,-1.500,1.500,-0.500,5.500
1.752,-2.000,1.000,0.000,5.500
1.753,-2.500,0.500,0.500,5.500
1.754,-3.000,0.000,0.500,6.000
1.755,-3.500,-0.500,1.000,6.000
1.756,-3.500,-1.000,1.000,6.000
1.757,-4.000,-1.000,1.000,6.000
1.758,-4.000,-1.000,1.000,5.500
1.759,-3.500,-1.000,0.000,5.500
1.760,-3.500,-0.500,-1.000,4.500
1.761,-4.000,-0.500,-2.000,4.000
1.762,-4.500,-0.500,-3.000,3.500
1.763,-5.000,-1.000,-3.000,3.000
1.764,-5.500,-1.500,-2.500,2.500
1.765,-5.500,-1.500,-2.000,3.000
1.766,-5.000,-1.500,-1.000,3.500
1.767,-4.500,-1.000,-0.500,4.000
1.768,-4.500,-0.500,-0.500,4.000
1.769,-4.500,-0.500,-0.500,3.500
1.770,-4.500,-1.000,-1.000,3.500
1.771,-5.000,-1.000,-1.000,3.000
1.772,-5.000,-1.000,-0.500,3.000
1.773,-5.000,-1.000,0.000,3.000
1.774,-4.500,-0.500,0.500,3.500
1.775,-4.000,0.000,1.500,4.000
1.776,-3.500,0.500,1.500,4.000
1.777,-3.500,1.000,1.500,4.500
1.778,-3.000,1.500,1.000,4.500
1.779,-3.000,2.500,0.500,5.000
1.780,-2.500,3.500,-0.500,5.500
1.781,-2.000,4.000,-1.000,6.000
1.782,-1.500,4.500,-1.500,6.500
1.783,-1.500,4.500,-1.500,6.500
1.784,-1.500,4.500,-2.000,6.500
1.785,-2.000,4.000,-2.000,6.000
1.786,-2.500,3.500,-2.500,5.500
1.787,-3.000,3.000,-2.500,5.000
1.788,-3.500,2.500,-2.000,4.500
1.789,-3.500,2.500,-1.500,4.500
1.790,-3.500,2.500,-0.500,4.500
1.791,-3.000,2.500,0.500,5.000
1.792,-2.000,3.000,1.000,5.500
1.793,-1.500,3.500,1.000,5.500
1.794,-0.500,3.500,1.000,5.500
1.795,-0.500,3.500,0.500,5.500
1.796,-0.500,3.500,0.500,5.000
1.797,-0.500,3.500,0.000,5.000
1.798,-1.000,3.500,-0.500,5.000
1.799,-1.500,4.000,-1.000,5.000
1.800,-1.500,4.500,-1.000,5.000
1.801,-1.500,5.000,-1.500,4.500
1.802,-1.500,4.500,-1.500,4.000
1.803,-1.500,4.000,-1.000,3.500
1.804,-1.500,3.000,-0.500,3.000
1.805,-1.500,2.500,0.000,2.500
1.806,-1.500,2.000,0.000,2.500
1.807,-1.500,2.000,0.500,2.500
1.808,-1.000,1.500,0.500,2.500
1.809,-0.500,1.500,1.000,2.500
1.810,0.000,1.000,2.000,3.000
1.811,0.500,0.500,3.000,3.500
1.812,0.500,0.500,3.500,4.000
1.813,0.000,1.000,3.000,4.500
1.814,-0.500,1.500,2.000,4.500
1.815,-1.500,2.000,1.000,4.000
1.816,-2.000,2.000,0.000,3.500
1.817,-2.500,2.000,0.000,2.500
1.818,-2.500,1.500,0.500,2.000
1.819,-2.500,1.000,1.000,1.500
1.820,-2.000,1.000,1.500,1.000
1.821,-1.500,1.000,1.500,1.000
1.822,-0.500,1.500,1.500,1.000
1.823,0.000,2.000,2.000,1.000
1.824,1.000,2.500,2.000,1.500
1.825,1.500,3.000,2.000,2.000
1.826,2.000,3.500,2.000,3.000
1.827,2.500,3.500,1.500,3.000
1.828,2.500,3.500,1.000,3.500
1.829,2.000,4.000,0.500,3.500
1.830,2.000,4.500,0.500,3.500
1.831,2.500,5.000,1.000,3.500
1.832,2.500,5.000,1.500,3.500
1.833,3.000,5.000,2.000,3.500
1.834,3.500,4.000,1.500,3.500
1.835,3.500,3.500,1.000,3.000
1.836,3.000,3.000,0.500,2.500
1.837,2.500,2.500,0.500,2.000
1.838,2.000,2.500,1.000,1.500
1.839,2.000,3.000,1.500,1.500
1.840,2.000,3.000,2.500,2.000
1.841,2.000,3.000,3.000,2.500
1.842,2.500,2.500,3.500,2.500
1.843,3.000,2.500,3.000,3.000
1.844,3.000,2.500,2.500,3.000
1.845,3.000,2.500,2.000,2.500
1.846,2.500,2.500,1.000,2.000
1.847,2.000,2.500,0.500,1.500
1.848,2.000,2.500,0.000,1.500
1.849,2.000,2.500,0.000,1.500
1.850,2.000,3.000,0.500,1.500
1.851,2.500,3.000,1.500,1.500
1.852,2.500,3.000,2.000,2.000
1.853,2.500,3.000,2.500,2.000
1.854,2.500,3.000,3.000,2.000
1.855,2.500,3.500,3.000,2.500
1.856,2.500,4.000,3.000,2.500
1.857,3.000,5.000,2.500,3.000
1.858,3.500,5.500,2.000,3.000
1.859,3.500,6.000,1.000,2.500
1.860,3.500,6.000,-0.500,2.000
1.861,3.000,5.500,-1.500,1.500
1.862,3.000,5.000,-2.500,1.500
1.863,2.500,4.500,-2.500,1.000
1.864,2.500,4.500,-2.500,1.000
1.865,2.500,4.500,-2.000,1.000
1.866,2.000,4.500,-1.500,1.000
1.867,1.500,4.500,-1.500,0.500
1.868,1.000,4.500,-1.000,0.500
1.869,1.000,4.500,-1.000,1.000
1.870,1.500,4.500,-0.500,1.000
1.871,2.000,5.000,0.000,1.500
1.872,3.000,5.500,1.000,2.000
1.873,3.500,5.500,1.500,2.000
1.874,3.500,5.500,1.500,2.000
1.875,3.000,5.000,1.000,1.500
1.876,3.000,5.500,0.500,1.500
1.877,3.500,5.500,-0.500,1.500
1.878,4.000,5.500,-1.000,2.000
1.879,4.000,5.500,-1.500,2.000
1.880,4.000,5.000,-1.500,2.500
1.881,3.500,5.000,-1.500,2.500
1.882,3.000,4.500,-1.500,2.000
1.883,3.000,5.000,-1.500,2.000
1.884,3.500,6.000,-1.500,2.500
1.885,4.500,6.500,-1.000,3.000
1.886,6.000,7.000,-1.000,3.500
1.887,6.500,7.000,-1.000,4.000
1.888,6.000,6.000,-1.000,3.500
1.889,5.000,5.000,-1.000,3.000
1.890,4.000,4.500,-1.000,2.500
1.891,3.500,4.500,-0.500,2.000
1.892,3.500,5.000,0.000,2.000
1.893,4.000,5.500,1.000,2.500
1.894,5.000,5.500,1.500,3.000
1.895,5.500,5.500,2.000,3.000
1.896,5.500,5.000,2.000,3.000
1.897,5.000,4.000,1.500,2.000
1.898,4.000,3.500,1.500,1.500
1.899,3.500,3.000,1.000,1.000
1.900,3.500,3.000,0.000,0.500
1.901,3.000,3.000,-0.500,0.500
1.902,3.000,3.500,-1.000,1.000
1.903,3.000,3.500,-1.500,1.000
1.904,2.500,3.500,-2.000,1.000
1.905,2.500,3.000,-2.000,1.000
1.906,2.500,3.000,-2.000,1.000
1.907,2.500,2.500,-1.500,1.000
1.908,2.500,2.500,-1.500,0.500
1.909,2.000,3.000,-1.000,0.500
1.910,1.500,3.000,-1.000,0.000
1.911,1.500,3.000,-0.500,0.000
1.912,1.000,3.500,0.000,-0.500
1.913,0.500,3.000,0.000,-1.000
1.914,0.500,2.500,0.000,-1.500
1.915,0.000,2.000,-0.500,-2.500
1.916,-0.500,1.000,-1.000,-3.500
1.917,-1.500,0.000,-2.000,-4.000
1.918,-2.000,-1.000,-2.500,-4.500
1.919,-2.500,-1.500,-2.500,-4.500
1.920,-2.500,-2.000,-2.500,-5.000
1.921,-2.500,-2.500,-2.000,-5.000
1.922,-2.500,-2.500,-2.500,-5.000
1.923,-2.500,-2.000,-2.500,-5.000
1.924,-2.000,-1.500,-3.000,-5.000
1.925,-2.000,-1.000,-3.000,-4.500
1.926,-1.000,0.500,-2.500,-3.500
1.927,0.000,2.000,-2.000,-2.500
1.928,1.500,3.500,-1.000,-1.500
1.929,2.500,4.500,-0.500,-1.000
1.930,3.000,5.000,-0.500,-0.500
1.931,3.000,4.500,0.000,-0.500
1.932,2.500,4.000,0.500,-1.000
1.933,2.500,3.500,1.000,-1.000
1.934,2.500,2.500,2.000,-0.500
1.935,2.500,2.500,2.500,0.500
1.936,3.000,2.500,2.500,1.000
1.937,3.000,2.500,1.500,1.500
1.938,3.500,2.500,1.000,1.500
1.939,3.500,3.000,0.000,1.500
1.940,3.000,2.500,0.000,1.500
1.941,3.000,2.500,0.000,1.500
1.942,3.000,3.000,0.500,2.000
1.943,2.500,3.000,1.000,2.500
1.944,2.500,3.000,1.500,3.000
1.945,2.500,3.000,1.500,3.000
1.946,2.500,2.500,1.500,3.000
1.947,2.000,1.500,2.000,3.000
1.948,1.500,1.000,2.500,2.500
1.949,1.000,0.000,3.000,2.000
1.950,0.000,-1.000,3.000,1.000
1.951,-1.500,-1.500,3.000,0.000
1.952,-2.500,-2.500,2.000,-1.500
1.953,-4.000,-3.000,1.500,-3.000
1.954,-5.000,-3.500,0.500,-4.000
1.955,-5.500,-3.500,0.000,-4.500
1.956,-5.500,-3.000,0.500,-4.000
1.957,-4.500,-2.000,1.000,-3.000
1.958,-2.500,0.000,2.000,-1.000
1.959,0.000,2.000,3.000,1.000
1.960,2.500,4.000,4.000,2.500
1.961,4.500,5.500,4.500,4.000
1.962,6.500,7.000,4.000,4.500
1.963,7.500,8.000,3.500,5.000
1.964,9.000,8.500,3.000,5.000
1.965,10.000,9.500,3.500,5.500
1.966,12.000,10.000,4.500,6.000
1.967,14.500,11.000,5.500,7.500
1.968,17.500,12.500,7.000,9.000
1.969,20.000,14.000,7.000,10.000
1.970,22.000,15.000,6.500,10.000
1.971,22.000,14.500,4.500,9.000
1.972,21.000,13.000,2.000,7.000
1.973,18.500,11.000,0.000,4.500
1.974,16.000,8.500,-1.500,2.500
1.975,13.500,6.500,-2.000,1.000
1.976,12.000,6.000,-1.000,1.000
1.977,11.000,6.000,0.500,1.500
1.978,10.500,7.500,2.000,2.500
1.979,10.000,9.000,3.000,3.500
1.980,9.500,9.500,3.000,4.000
1.981,8.000,9.000,2.000,4.000
1.982,6.000,7.500,0.500,3.000
1.983,3.000,4.500,-1.500,1.000
1.984,-1.000,1.000,-3.000,-1.000
1.985,-4.500,-2.000,-4.000,-3.500
1.986,-8.000,-5.000,-4.500,-5.000
1.987,-10.500,-7.000,-4.000,-6.500
1.988,-12.000,-8.000,-3.000,-6.500
1.989,-12.000,-8.500,-1.500,-6.500
1.990,-12.000,-8.000,0.000,-6.000
1.991,-11.000,-7.500,1.000,-5.000
1.992,-10.000,-7.000,1.500,-4.500
1.993,-9.000,-6.000,1.500,-4.000
1.994,-7.500,-4.500,1.000,-3.500
1.995,-6.500,-3.000,0.500,-3.000
1.996,-4.500,-1.500,0.000,-2.000
1.997,-3.000,-0.500,0.000,-1.000
1.998,-1.500,1.000,0.000,0.000
1.999,0.000,2.000,0.500,1.000
2.000,1.000,3.000,0.500,2.000
2.001,1.500,3.500,0.500,2.000
2.002,2.000,3.500,0.000,2.000
2.003,2.000,3.500,-0.500,1.500
2.004,2.500,3.000,-0.500,0.500
2.005,2.500,2.500,0.000,0.000
2.006,3.000,2.000,0.500,0.000
2.007,3.000,2.000,1.000,0.000
2.008,3.000,2.000,1.500,0.500
2.009,3.000,2.000,1.500,0.500
2.010,2.500,2.000,1.500,0.500
2.011,2.000,2.000,1.500,0.500
2.012,2.000,1.500,1.500,0.500
2.013,1.500,1.500,1.500,0.500
2.014,1.000,2.000,1.500,0.500
2.015,0.500,2.000,1.500,1.000
2.016,0.500,2.500,1.500,1.000
2.017,0.000,2.500,1.500,1.000
2.018,0.000,2.000,1.500,0.500
2.019,0.500,2.000,1.000,0.000
2.020,1.000,1.500,1.000,0.000
2.021,1.000,1.500,0.500,0.500
2.022,1.500,2.000,0.000,1.000
2.023,1.500,2.000,0.000,1.500
2.024,1.500,2.500,0.500,2.000
2.025,2.000,3.500,0.500,2.000
2.026,2.500,3.500,0.500,2.000
2.027,3.000,4.000,0.000,2.000
2.028,2.500,4.000,-0.500,1.500
2.029,2.000,3.500,-1.000,1.500
2.030,1.500,3.000,-1.000,1.500
2.031,1.000,3.000,-0.500,1.500
2.032,1.000,3.000,0.000,1.500
2.033,1.500,3.500,1.000,1.500
2.034,2.500,4.500,1.000,1.500
2.035,3.500,5.000,1.000,1.500
2.036,4.000,5.500,1.000,1.000
2.037,4.000,5.000,0.500,1.000
2.038,3.500,4.500,0.500,1.000
2.039,2.500,3.500,0.500,1.000
2.040,2.000,3.000,0.500,1.000
2.041,2.000,2.500,0.500,1.000
2.042,2.000,2.500,1.000,1.500
2.043,2.500,3.000,1.000,1.500
2.044,3.000,3.000,1.000,1.500
2.045,3.000,3.500,1.000,2.000
2.046,3.000,4.000,1.500,2.500
2.047,3.500,4.000,1.500,3.500
2.048,3.500,4.500,1.500,4.000
2.049,4.000,5.000,1.500,4.000
2.050,4.000,4.500,1.500,4.000
2.051,3.500,4.000,1.000,3.500
2.052,3.000,3.500,1.000,3.000
2.053,2.000,3.000,1.000,2.500
2.054,1.500,2.500,1.000,2.000
2.055,1.000,2.500,0.500,1.500
2.056,1.500,2.500,0.500,1.500
2.057,2.000,3.000,0.500,1.500
2.058,2.500,3.000,0.500,1.500
2.059,2.000,3.000,0.500,1.500
2.060,1.500,3.000,0.500,2.000
2.061,1.000,2.500,0.500,2.000
2.062,0.000,2.000,0.500,1.500
2.063,0.000,2.000,0.500,1.500
2.064,0.000,2.000,1.000,1.500
2.065,0.500,2.000,1.000,2.000
2.066,0.500,2.500,1.000,2.500
2.067,0.500,2.500,1.000,2.500
2.068,0.000,3.000,0.500,2.500
2.069,-1.000,3.000,0.000,2.000
2.070,-1.500,3.000,-0.500,1.500
2.071,-1.500,3.000,-1.000,1.000
2.072,-1.500,3.000,-0.500,1.000
2.073,-1.500,3.000,-0.500,1.500
2.074,-1.500,3.000,0.000,1.500
2.075,-1.500,3.000,0.500,2.000
2.076,-2.000,2.500,0.500,2.000
2.077,-2.000,2.500,0.500,1.500
2.078,-2.000,2.000,0.500,1.500
2.079,-1.500,2.000,1.000,1.500
2.080,-1.000,2.500,1.000,2.000
2.081,-1.000,2.500,0.500,2.000
2.082,-1.000,2.500,0.000,2.500
2.083,-1.000,2.000,-0.500,2.500
2.084,-1.000,1.500,-0.500,2.000
2.085,-1.000,1.500,-0.500,2.000
2.086,-1.000,1.500,0.500,1.500
2.087,-0.500,1.500,1.000,2.000
2.088,0.500,2.500,2.000,2.000
2.089,0.500,2.500,2.000,2.500
2.090,0.500,2.500,2.000,2.500
2.091,0.000,2.000,1.500,2.000
2.092,-0.500,1.500,1.500,1.500
2.093,-1.000,0.500,1.500,1.000
2.094,-1.500,0.500,2.000,0.500
2.095,-1.000,1.000,3.000,1.000
2.096,-0.500,2.000,4.000,1.500
2.097,0.500,3.500,4.500,2.500
2.098,1.500,4.500,5.000,3.500
2.099,2.500,5.500,5.000,4.500
2.100,3.000,6.000,5.000,5.000
2.101,4.000,6.500,4.000,5.500
2.102,4.500,7.000,3.500,6.000
2.103,4.500,7.000,3.000,6.000
2.104,4.000,7.000,2.500,5.500
2.105,3.500,6.500,1.500,5.000
2.106,2.500,5.500,0.500,4.000
2.107,1.000,4.500,-0.500,2.500
2.108,0.000,4.000,-1.000,1.500
2.109,-0.500,3.000,-1.000,1.000
2.110,-1.000,3.000,-0.500,1.000
2.111,-0.500,3.500,0.500,1.000
2.112,-0.500,4.500,1.500,1.500
2.113,0.000,5.500,2.000,2.000
2.114,0.500,6.000,2.000,2.000
2.115,0.000,6.000,1.500,1.500
2.116,-0.500,5.500,0.500,0.500
2.117,-0.500,4.500,0.000,0.000
2.118,-1.000,4.000,0.000,0.000
2.119,-1.000,3.500,0.000,0.000
2.120,-1.000,3.500,0.000,0.000
2.121,-1.000,4.000,0.500,0.500
2.122,-1.500,4.000,1.000,0.500
2.123,-1.500,4.000,2.000,0.500
2.124,-1.500,3.500,2.500,1.000
2.125,-1.000,3.500,2.500,1.000
2.126,-1.000,4.000,2.000,1.000
2.127,-0.500,4.500,1.500,0.500
2.128,-0.500,4.500,0.500,0.000
2.129,-1.000,4.500,0.500,-0.500
2.130,-1.500,4.500,0.500,-1.000
2.131,-1.500,4.000,1.000,-1.500
2.132,-1.500,4.000,1.500,-1.000
2.133,-1.000,4.000,1.500,-0.500
2.134,-0.500,4.000,1.000,0.000
2.135,-0.500,4.500,0.500,0.000
2.136,-0.500,4.500,-0.500,0.000
2.137,-0.500,5.000,-0.500,-0.500
2.138,0.500,5.500,0.000,0.000
2.139,2.000,6.500,1.500,1.500
2.140,4.000,8.500,3.500,3.500
2.141,6.500,11.000,5.000,6.500
2.142,9.000,13.000,6.000,9.000
2.143,11.000,14.500,6.000,11.000
2.144,12.000,15.000,5.000,12.000
2.145,12.500,14.500,3.500,12.000
2.146,12.500,14.000,2.000,12.000
2.147,12.000,13.500,0.500,12.500
2.148,11.500,13.000,0.500,13.500
2.149,11.000,13.000,1.000,15.500
2.150,9.500,12.500,1.500,17.000
2.151,8.000,12.000,2.000,18.500
2.152,5.500,11.000,2.000,20.000
2.153,3.500,10.000,2.000,21.500
2.154,1.500,9.500,2.500,24.000
2.155,-0.500,9.500,3.000,27.000
2.156,-1.500,9.500,3.000,30.000
2.157,-3.000,9.000,3.500,32.500
2.158,-5.000,8.000,2.500,33.500
2.159,-8.000,5.500,0.500,33.000
2.160,-12.000,2.500,-2.000,31.000
2.161,-16.000,-0.500,-5.000,28.500
2.162,-20.500,-4.000,-7.500,25.500
2.163,-24.500,-7.500,-9.500,23.000
2.164,-29.000,-10.500,-11.000,21.000
2.165,-33.500,-13.500,-11.500,19.500
2.166,-38.500,-17.000,-12.000,17.500
2.167,-42.500,-20.500,-11.500,15.000
2.168,-46.000,-23.500,-11.000,13.000
2.169,-49.000,-27.000,-10.500,10.500
2.170,-51.000,-29.500,-10.000,7.500
2.171,-53.000,-32.500,-9.500,4.500
2.172,-54.500,-35.000,-9.500,0.500
2.173,-55.500,-37.000,-9.500,-4.000
2.174,-56.000,-39.000,-9.500,-9.000
2.175,-56.000,-40.500,-9.000,-14.000
2.176,-55.000,-41.500,-8.500,-19.000
2.177,-53.000,-41.500,-7.500,-24.000
2.178,-50.000,-41.000,-7.000,-27.500
2.179,-47.000,-39.500,-6.500,-30.500
2.180,-43.500,-38.000,-6.000,-32.500
2.181,-40.500,-36.500,-6.000,-33.500
2.182,-37.500,-34.500,-5.500,-33.500
2.183,-34.500,-33.000,-4.500,-33.000
2.184,-31.500,-31.000,-3.500,-32.000
2.185,-28.500,-28.500,-2.000,-30.500
2.186,-26.500,-26.000,-1.000,-29.000
2.187,-24.500,-23.000,-0.500,-27.000
2.188,-22.500,-20.500,0.000,-25.000
2.189,-21.000,-18.500,0.500,-23.000
2.190,-19.500,-16.500,0.500,-21.000
2.191,-18.000,-15.000,1.000,-18.500
2.192,-16.500,-13.500,1.500,-16.000
2.193,-15.500,-12.000,2.000,-14.000
2.194,-14.000,-10.500,2.000,-12.000
2.195,-12.500,-9.000,2.000,-10.000
2.196,-11.000,-7.500,1.500,-8.500
2.197,-9.500,-6.000,1.500,-7.000
2.198,-8.000,-4.500,1.000,-6.000
2.199,-6.500,-3.000,0.500,-4.500
2.200,-5.000,-2.000,0.500,-3.500
2.201,-4.000,-1.000,0.500,-3.000
2.202,-3.500,-0.500,0.500,-2.000
2.203,-3.000,-1.000,1.000,-1.500
2.204,-3.000,-1.000,1.000,-1.000
2.205,-3.000,-1.000,1.000,-0.500
2.206,-2.500,-0.500,1.000,0.000
2.207,-1.500,0.500,1.500,0.500
2.208,-0.500,1.000,1.500,0.500
2.209,0.500,1.500,2.000,0.500
2.210,0.500,1.000,2.500,0.000
2.211,0.500,0.500,3.000,-1.000
2.212,0.500,0.000,3.500,-1.500
2.213,0.000,-0.500,3.500,-1.500
2.214,-0.500,0.000,3.500,-1.500
2.215,-0.500,0.500,3.000,-1.500
2.216,-1.000,1.000,3.000,-1.000
2.217,-1.000,1.500,2.500,-1.000
2.218,-1.500,1.000,2.500,-1.000
2.219,-1.500,0.500,2.000,-1.000
2.220,-1.500,0.000,1.500,-1.500
2.221,-1.500,-0.500,1.500,-1.500
2.222,-1.000,0.000,1.000,-1.500
2.223,-0.500,0.500,1.000,-1.000
2.224,-0.500,1.000,1.000,-1.000
2.225,-0.500,1.500,1.500,-0.500
2.226,0.000,1.500,2.000,0.000
2.227,0.000,1.000,2.500,0.000
2.228,-0.500,0.500,3.000,0.000
2.229,-0.500,0.000,3.000,-0.500
2.230,-1.000,-0.500,3.000,-1.000
2.231,-1.500,-0.500,3.000,-1.000
2.232,-2.000,-0.500,2.500,-1.000
2.233,-2.000,-0.500,2.500,-1.000
2.234,-2.000,-1.000,2.500,-1.000
2.235,-2.000,-1.500,3.000,-1.000
2.236,-2.000,-2.000,2.500,-1.500
2.237,-2.000,-2.500,2.000,-2.000
2.238,-2.000,-2.500,1.500,-2.000
2.239,-2.000,-2.500,0.000,-2.500
2.240,-1.500,-2.000,-0.500,-2.500
2.241,-1.000,-1.000,-1.000,-2.000
2.242,-0.500,-0.500,-1.000,-1.500
2.243,-0.500,-0.500,-0.500,-1.000
2.244,-1.000,-0.500,0.000,-1.000
2.245,-2.000,-1.000,0.500,-1.000
2.246,-2.500,-2.000,0.500,-1.500
2.247,-3.500,-2.500,0.000,-2.000
2.248,-3.500,-3.000,0.000,-2.000
2.249,-3.500,-2.500,0.500,-2.000
2.250,-2.500,-1.500,1.000,-2.000
2.251,-2.000,-1.000,2.000,-1.000
2.252,-1.500,0.000,2.500,-0.500
2.253,-1.000,0.500,2.500,0.000
2.254,-0.500,1.000,2.000,0.000
2.255,-0.500,1.000,1.000,0.000
2.256,-0.500,1.500,0.000,0.000
2.257,-0.500,1.500,-0.500,-0.500
2.258,-0.500,1.500,-1.000,-0.500
2.259,-0.500,1.000,-0.500,-1.000
2.260,-1.000,0.500,0.500,-1.000
2.261,-1.500,-0.500,1.500,-1.500
2.262,-2.000,-1.500,2.500,-2.000
2.263,-2.500,-2.000,3.000,-2.000
2.264,-2.500,-2.000,3.000,-1.500
2.265,-2.500,-1.500,2.500,-1.500
2.266,-2.000,-1.000,1.500,-1.000
2.267,-2.000,-0.500,0.500,-1.000
2.268,-2.500,-0.500,-0.500,-1.500
2.269,-3.000,-1.000,-1.500,-2.000
2.270,-3.500,-1.000,-2.000,-2.500
2.271,-3.500,-1.000,-1.500,-2.000
2.272,-3.000,-0.500,-1.000,-1.500
2.273,-2.000,0.000,-0.500,-0.500
2.274,-1.000,1.000,0.500,0.500
2.275,0.000,2.000,1.500,1.500
2.276,1.000,2.500,2.000,1.500
2.277,1.000,2.500,2.000,1.500
2.278,1.000,2.500,1.000,1.500
2.279,0.500,2.000,0.500,1.000
2.280,0.000,1.500,0.000,1.000
2.281,-0.500,1.000,0.000,1.000
2.282,-0.500,1.000,1.000,1.000
2.283,-1.000,0.500,2.000,1.000
2.284,-1.000,0.500,2.500,1.500
2.285,-1.000,0.500,2.500,1.000
2.286,-1.000,0.500,2.500,1.000
2.287,-1.500,0.500,1.500,0.500
2.288,-2.000,0.000,1.000,0.000
2.289,-2.500,0.000,0.500,0.000
2.290,-3.500,0.000,0.500,0.000
2.291,-3.500,0.000,1.000,-0.500
2.292,-3.000,0.000,1.500,0.000
2.293,-2.500,0.500,2.000,0.000
2.294,-2.000,1.000,2.500,0.500
2.295,-2.000,1.000,2.500,1.000
2.296,-1.500,1.000,2.500,1.500
2.297,-2.000,1.000,2.500,1.500
2.298,-2.000,0.500,2.500,1.500
2.299,-2.000,0.500,2.000,1.500
2.300,-2.000,1.000,1.500,1.500
2.301,-1.500,1.500,1.500,1.500
2.302,-1.500,1.500,1.500,2.000
2.303,-1.500,2.000,1.500,2.500
2.304,-1.500,2.000,2.000,2.500
2.305,-1.500,2.000,2.000,2.000
2.306,-1.500,2.000,2.000,2.000
2.307,-1.500,2.000,2.000,2.000
2.308,-1.000,2.500,2.000,2.500
2.309,0.000,3.500,2.000,3.000
2.310,0.500,4.000,2.500,3.500
2.311,0.500,4.500,2.500,4.000
2.312,0.500,4.500,2.500,4.000
2.313,0.000,4.500,2.500,3.500
2.314,-0.500,4.000,2.500,3.000
2.315,-0.500,4.000,2.500,3.000
2.316,0.000,4.000,2.500,3.000
2.317,0.500,4.000,3.000,3.000
2.318,0.500,4.000,3.000,3.000
2.319,0.000,3.500,3.000,2.500
2.320,-0.500,3.000,3.000,2.500
2.321,-1.000,2.500,2.500,2.500
2.322,-1.000,2.500,1.500,2.500
2.323,-1.000,2.500,1.000,2.500
2.324,-0.500,3.000,0.500,2.500
2.325,0.000,3.500,0.500,3.000
2.326,0.500,3.500,0.500,3.000
2.327,1.000,3.500,1.000,3.500
2.328,1.000,3.500,2.000,3.500
2.329,1.000,3.500,2.500,4.000
2.330,1.000,3.000,3.000,4.000
2.331,0.500,3.000,3.500,4.500
2.332,0.000,3.000,4.000,4.500
2.333,0.000,3.000,4.000,4.500
2.334,0.000,3.000,4.000,4.500
2.335,0.500,3.500,4.000,4.500
2.336,1.000,3.500,4.000,4.500
2.337,1.000,3.500,3.500,4.500
2.338,1.000,3.500,2.500,4.500
2.339,0.500,3.000,2.000,4.500
2.340,0.500,2.500,1.500,4.500
2.341,0.500,2.500,2.000,5.000
2.342,1.000,2.000,2.500,5.000
2.343,1.500,2.000,3.000,5.500
2.344,2.500,2.500,3.000,6.000
2.345,2.500,2.500,3.000,6.000
2.346,2.500,2.500,2.500,5.500
2.347,2.000,2.500,1.500,4.500
2.348,1.000,1.500,0.500,3.500
2.349,-0.500,0.500,0.500,2.000
2.350,-1.500,0.000,0.500,1.500
2.351,-1.500,0.000,1.000,1.500
2.352,-1.500,0.500,1.500,2.000
2.353,-1.500,1.000,2.000,2.500
2.354,-1.000,2.000,2.000,3.500
2.355,-0.500,2.500,2.000,3.500
2.356,-0.500,2.500,2.000,4.000
2.357,-0.500,2.000,2.000,4.000
2.358,-0.500,1.500,1.500,4.500
2.359,-0.500,1.500,1.500,4.500
2.360,-0.500,1.500,1.500,5.000
2.361,-0.500,2.000,1.500,5.000
2.362,0.000,2.500,1.500,5.000
2.363,0.000,2.500,1.500,4.500
2.364,-0.500,2.000,1.000,4.000
2.365,-1.000,1.500,0.500,4.000
2.366,-1.500,0.500,0.000,4.000
2.367,-2.000,0.000,0.000,4.000
2.368,-2.000,0.000,0.000,4.000
2.369,-2.000,0.000,0.500,4.000
2.370,-1.500,0.000,0.500,4.000
2.371,-1.500,-0.500,0.500,4.000
2.372,-1.500,-0.500,0.000,4.000
2.373,-2.000,-0.500,0.000,4.000
2.374,-2.000,-0.500,0.000,4.500
2.375,-2.000,-0.500,0.500,5.000
2.376,-2.000,0.000,1.000,5.000
2.377,-1.500,-0.500,1.500,5.000
2.378,-1.500,-0.500,2.000,4.500
2.379,-2.000,-1.000,1.500,4.000
2.380,-2.500,-1.500,0.500,4.000
2.381,-3.500,-1.500,-1.000,3.500
2.382,-4.000,-1.500,-2.000,3.500
2.383,-4.000,-1.500,-2.500,3.000
2.384,-4.000,-1.000,-2.500,3.000
2.385,-3.500,-1.000,-2.000,3.000
2.386,-3.500,-0.500,-1.000,3.000
2.387,-3.500,-1.000,0.000,3.000
2.388,-4.000,-1.000,0.500,2.500
2.389,-4.500,-1.000,1.000,2.000
2.390,-5.000,-1.500,1.000,2.000
2.391,-5.500,-1.500,0.500,2.000
2.392,-5.500,-1.500,0.500,2.000
2.393,-5.000,-1.000,0.500,2.500
2.394,-4.500,-1.000,1.000,3.500
2.395,-4.500,-1.500,0.500,3.500
2.396,-4.500,-2.000,0.500,3.500
2.397,-4.500,-2.500,0.000,3.000
2.398,-4.500,-3.000,-0.500,2.500
2.399,-5.000,-3.500,-1.000,2.000
2.400,-5.500,-4.000,-2.000,2.000
2.401,-6.000,-4.500,-2.500,2.000
2.402,-6.000,-4.500,-3.000,3.000
2.403,-6.000,-4.000,-2.500,4.000
2.404,-5.000,-3.000,-2.000,5.000
2.405,-4.000,-1.500,-1.500,6.000
2.406,-3.000,-1.000,-1.000,6.500
2.407,-2.500,-0.500,-1.000,7.000
2.408,-2.000,-0.500,-1.500,6.500
2.409,-2.500,-1.500,-2.500,5.500
2.410,-3.000,-2.500,-3.000,4.500
2.411,-4.000,-3.500,-3.500,3.000
2.412,-4.500,-4.000,-3.500,2.500
2.413,-5.500,-4.000,-4.000,1.500
2.414,-6.000,-4.500,-3.500,1.000
2.415,-6.500,-4.500,-3.000,1.000
2.416,-6.500,-5.000,-2.000,1.000
2.417,-6.000,-5.000,-0.500,2.000
2.418,-5.000,-4.500,1.500,3.000
2.419,-3.000,-3.000,2.500,4.500
2.420,-1.000,-1.500,3.000,5.500
2.421,1.000,0.000,2.500,6.500
2.422,2.500,1.500,1.500,6.500
2.423,3.500,2.500,0.500,6.500
2.424,4.000,3.000,0.000,6.500
2.425,5.500,3.500,1.000,7.000
2.426,6.500,5.000,2.500,7.500
2.427,8.500,7.000,4.000,9.000
2.428,11.000,9.000,5.000,10.500
2.429,13.000,11.000,5.000,12.000
2.430,15.000,12.500,3.500,12.500
2.431,15.500,13.000,2.000,11.500
2.432,15.500,12.500,-0.500,10.500
2.433,14.500,10.500,-2.000,8.500
2.434,13.500,8.500,-2.500,7.000
2.435,12.500,7.500,-1.500,6.500
2.436,12.000,7.000,-0.500,6.500
2.437,12.500,7.500,1.000,7.000
2.438,13.000,9.000,2.000,7.500
2.439,14.000,9.500,2.000,7.500
2.440,14.000,9.500,0.500,6.500
2.441,13.000,8.000,-2.000,4.000
2.442,10.500,5.000,-4.500,0.500
2.443,6.000,1.000,-6.000,-3.500
2.444,0.500,-3.000,-7.000,-6.500
2.445,-5.000,-7.000,-7.000,-9.000
2.446,-9.500,-9.500,-5.500,-10.000
2.447,-12.500,-10.500,-3.500,-10.000
2.448,-13.500,-10.000,-1.500,-9.000
2.449,-12.500,-8.500,0.500,-7.000
2.450,-10.500,-6.500,2.000,-5.000
2.451,-8.500,-4.500,2.500,-3.000
2.452,-6.000,-2.500,3.000,-1.000
2.453,-4.500,-1.500,3.000,0.000
2.454,-2.500,-0.500,2.500,1.000
2.455,-1.000,0.000,2.000,1.500
2.456,0.000,0.500,1.000,2.000
2.457,1.500,1.000,0.500,2.500
2.458,2.500,2.000,0.500,3.000
2.459,3.000,2.500,0.000,3.500
2.460,3.500,3.000,0.000,3.500
2.461,3.500,3.000,0.500,4.000
2.462,3.500,3.000,0.500,4.000
2.463,3.500,2.500,1.000,4.000
2.464,3.000,2.500,1.000,4.000
2.465,2.500,1.500,0.500,3.500
2.466,2.000,1.000,-0.500,2.500
2.467,1.500,0.000,-1.000,2.000
2.468,1.500,-0.500,-1.500,1.500
2.469,1.500,-1.000,-1.500,1.000
2.470,2.000,-1.000,-1.000,1.500
2.471,2.500,-0.500,0.000,1.500
2.472,3.000,0.000,1.000,1.500
2.473,3.000,0.500,2.500,1.500
2.474,3.000,1.000,3.000,1.500
2.475,3.000,1.000,3.500,1.500
2.476,3.000,0.500,3.000,1.000
2.477,2.500,-0.500,3.000,1.000
2.478,2.000,-1.000,3.000,1.000
2.479,2.000,-1.500,2.500,1.000
2.480,1.500,-2.000,2.500,0.500
2.481,1.500,-2.500,2.000,-0.500
2.482,1.000,-3.000,1.000,-1.000
2.483,1.000,-3.000,0.000,-2.000
2.484,0.500,-3.500,-1.500,-2.000
2.485,0.500,-3.000,-2.000,-2.000
2.486,0.000,-3.000,-1.500,-2.000
2.487,0.000,-3.500,-1.000,-1.500
2.488,0.500,-3.500,0.000,-1.500
2.489,1.000,-3.500,0.500,-1.500
2.490,1.500,-3.500,1.500,-1.000
2.491,2.000,-3.000,1.500,-1.000
2.492,2.500,-2.500,1.500,-0.500
2.493,2.500,-2.000,1.000,0.000
2.494,2.000,-2.000,0.500,-0.500
2.495,1.500,-2.000,-0.500,-0.500
2.496,1.500,-2.500,-1.500,-1.000
2.497,1.000,-3.000,-2.500,-2.000
2.498,1.000,-3.000,-3.500,-2.500
2.499,0.500,-3.000,-3.500,-2.500
2.500,0.500,-3.500,-3.500,-3.000
2.501,0.500,-3.500,-3.500,-3.000
2.502,0.500,-4.000,-3.000,-3.000
2.503,0.500,-4.000,-2.500,-2.500
2.504,1.000,-4.000,-2.500,-2.500
2.505,1.500,-3.500,-3.000,-2.000
2.506,1.500,-3.000,-3.000,-2.000
2.507,2.000,-2.500,-3.000,-1.500
2.508,2.500,-3.000,-2.500,-1.500
2.509,2.500,-3.000,-2.000,-1.500
2.510,2.000,-3.500,-1.500,-2.000
2.511,1.500,-3.500,-1.000,-2.000
2.512,1.000,-3.500,-1.000,-2.000
2.513,1.000,-3.500,-0.500,-2.000
2.514,1.500,-3.500,0.000,-2.000
2.515,2.000,-3.000,0.500,-1.500
2.516,2.500,-3.000,0.500,-1.500
2.517,3.000,-3.000,0.500,-1.500
2.518,3.500,-3.000,-0.500,-2.000
2.519,3.000,-3.000,-1.500,-2.000
2.520,2.500,-3.000,-2.000,-2.500
2.521,2.500,-3.500,-2.500,-3.000
2.522,2.000,-3.500,-2.500,-3.000
2.523,2.000,-4.000,-2.000,-3.000
2.524,2.500,-4.000,-2.000,-2.500
2.525,2.500,-3.500,-2.000,-2.500
2.526,2.500,-3.500,-2.000,-3.000
2.527,2.500,-3.500,-2.500,-3.000
2.528,2.500,-3.000,-2.500,-3.000
2.529,2.500,-2.500,-2.500,-2.500
2.530,3.000,-2.000,-1.500,-1.500
2.531,3.500,-1.500,-0.500,-1.000
2.532,4.000,-1.000,0.000,-0.500
2.533,4.500,-1.000,-0.500,0.000
2.534,5.000,-1.000,-1.000,0.000
2.535,4.500,-1.500,-1.500,-0.500
2.536,4.500,-2.000,-2.000,-1.000
2.537,4.000,-2.000,-2.500,-1.500
2.538,4.000,-2.000,-2.500,-1.500
2.539,4.500,-2.000,-2.500,-1.000
2.540,4.500,-1.500,-2.000,-0.500
2.541,5.000,-1.000,-1.500,-0.500
2.542,5.000,0.000,-1.000,0.000
2.543,5.000,0.500,-0.500,0.500
2.544,5.000,1.000,-0.500,0.500
2.545,5.500,1.000,-0.500,1.000
2.546,5.500,1.000,-1.000,1.000
2.547,6.000,0.500,-1.500,1.000
2.548,6.500,0.000,-2.000,1.000
2.549,6.500,-0.500,-2.500,0.500
2.550,6.000,-1.000,-2.500,-0.500
2.551,5.500,-1.500,-2.000,-1.500
2.552,4.500,-1.500,-1.500,-2.000
2.553,4.000,-2.000,-1.000,-2.500
2.554,4.000,-2.000,-0.500,-3.000
2.555,4.000,-2.000,-0.500,-2.500
2.556,4.000,-2.000,-0.500,-2.500
2.557,4.000,-2.500,0.000,-2.000
2.558,4.000,-2.500,0.000,-1.500
2.559,4.000,-3.000,0.000,-1.500
2.560,4.000,-3.000,-0.500,-1.500
2.561,3.500,-3.500,-1.500,-1.500
2.562,3.500,-4.000,-2.500,-2.000
2.563,3.000,-4.500,-3.500,-2.500
2.564,3.000,-5.000,-4.000,-2.500
2.565,2.500,-5.000,-4.500,-2.500
2.566,2.500,-5.000,-4.000,-2.500
2.567,2.500,-4.500,-3.500,-2.500
2.568,3.000,-3.500,-2.000,-2.000
2.569,3.500,-3.000,-1.000,-2.000
2.570,4.500,-2.000,-0.500,-1.500
2.571,4.500,-1.500,0.000,-1.500
2.572,5.000,-1.500,-0.500,-1.500
2.573,5.000,-1.500,-0.500,-1.500
2.574,4.500,-1.500,-1.000,-1.500
2.575,4.500,-1.500,-1.000,-1.500
2.576,4.000,-1.000,-1.000,-1.000
2.577,4.000,-1.000,-1.500,-1.000
2.578,3.500,-1.000,-2.000,-1.000
2.579,3.500,-0.500,-2.500,-0.500
2.580,3.500,-0.500,-3.500,-0.500
2.581,4.000,-0.500,-4.000,-0.500
2.582,4.000,-0.500,-4.000,-1.000
2.583,4.500,-0.500,-4.000,-1.000
2.584,4.500,-0.500,-3.000,-1.500
2.585,4.500,-0.500,-2.500,-1.500
2.586,4.500,-0.500,-1.500,-1.500
2.587,4.500,0.000,-1.000,-1.000
2.588,4.500,0.000,-0.500,-1.000
2.589,5.000,0.500,0.000,-0.500
2.590,5.500,1.000,0.500,-0.500
2.591,6.000,1.500,1.500,0.000
2.592,6.000,2.000,2.000,0.500
2.593,6.500,2.500,2.500,0.500
2.594,6.500,2.500,3.000,1.000
2.595,6.500,2.000,3.000,0.500
2.596,6.500,2.000,3.000,0.500
2.597,6.000,1.500,2.500,0.000
2.598,6.000,1.500,2.000,0.000
2.599,6.000,2.000,1.500,0.500
2.600,6.000,2.500,1.000,1.000
2.601,6.000,3.000,1.000,1.000
2.602,5.500,3.000,1.000,1.000
2.603,5.500,2.500,0.500,1.000
2.604,5.500,2.500,0.500,0.500
2.605,6.000,3.000,0.500,0.000
2.606,6.500,3.500,0.000,0.000
2.607,7.000,4.500,-0.500,0.500
2.608,7.000,5.000,-0.500,1.000
2.609,6.500,5.000,0.000,1.000
2.610,6.000,4.500,0.500,1.000
2.611,5.500,3.500,1.500,0.500
2.612,5.000,2.500,2.000,-0.500
2.613,5.000,2.000,2.500,-0.500
2.614,5.000,2.500,3.000,-0.500
2.615,5.500,2.500,3.000,-0.500
2.616,5.500,3.000,2.500,-0.500
2.617,5.500,2.500,1.500,-1.000
2.618,5.500,2.500,1.000,-1.000
2.619,5.500,2.000,0.000,-1.000
2.620,5.000,1.500,-0.500,-1.500
2.621,4.500,1.000,-1.000,-1.500
2.622,4.000,0.500,-1.500,-1.500
2.623,3.500,0.500,-1.500,-1.500
2.624,3.500,0.500,-1.500,-1.500
2.625,3.000,0.500,-1.500,-1.500
2.626,3.000,1.000,-1.000,-1.500
2.627,3.500,1.500,-1.000,-1.500
2.628,3.500,2.000,-1.000,-1.500
2.629,3.500,2.500,-1.000,-2.000
2.630,3.500,2.500,-1.500,-2.000
2.631,3.000,2.500,-1.500,-2.500
2.632,3.500,2.500,-0.500,-2.000
2.633,3.500,2.500,0.500,-2.000
2.634,4.000,2.500,1.500,-1.500
2.635,4.000,2.500,2.000,-1.500
2.636,4.000,2.000,1.500,-1.500
2.637,3.500,1.000,1.000,-2.500
2.638,3.000,0.000,0.000,-3.000
2.639,2.000,-1.000,-0.500,-4.000
2.640,1.000,-2.000,-1.000,-4.500
2.641,0.500,-2.500,-1.000,-5.000
2.642,0.000,-3.500,-0.500,-5.500
2.643,-0.500,-4.500,-0.500,-5.500
2.644,-0.500,-5.000,-0.500,-5.500
2.645,-0.500,-4.500,0.000,-5.000
2.646,0.000,-3.500,0.000,-4.000
2.647,1.500,-2.000,1.000,-3.000
2.648,3.000,0.500,1.500,-1.500
2.649,4.500,2.500,2.500,0.000
2.650,6.000,3.500,3.000,0.500
2.651,6.500,4.000,3.500,1.000
2.652,6.500,4.000,3.000,1.000
2.653,6.000,3.500,2.500,0.500
2.654,5.500,3.000,1.500,0.000
2.655,4.500,2.500,0.500,-0.500
2.656,4.500,2.500,0.000,-1.000
2.657,4.000,2.000,-0.500,-1.000
2.658,3.500,1.500,-0.500,-0.500
2.659,3.500,1.500,-1.000,-0.500
2.660,3.500,1.000,-1.000,0.000
2.661,3.500,1.000,-1.500,0.000
2.662,3.500,0.500,-1.500,-0.500
2.663,3.500,0.000,-1.500,-1.000
2.664,3.500,-0.500,-1.500,-1.500
2.665,3.000,-1.000,-0.500,-2.000
2.666,2.500,-0.500,0.000,-2.000
2.667,2.500,0.000,0.500,-2.000
2.668,2.500,0.500,0.500,-2.000
2.669,2.000,0.500,0.500,-2.000
2.670,1.000,0.500,0.000,-2.500
2.671,0.500,-0.500,-0.500,-3.000
2.672,-0.500,-1.500,-0.500,-3.500
2.673,-1.000,-1.500,-0.500,-4.000
2.674,-0.500,-1.000,-0.500,-4.000
2.675,0.500,0.000,0.000,-3.500
2.676,1.000,1.500,0.000,-3.000
2.677,1.500,2.500,0.000,-2.500
2.678,1.500,2.500,-0.500,-3.000
2.679,1.000,2.000,-1.000,-3.000
2.680,1.000,1.500,-1.500,-3.500
2.681,1.000,1.000,-1.500,-3.500
2.682,1.500,1.000,-1.500,-3.000
2.683,2.500,2.000,-1.500,-2.500
2.684,3.500,2.500,-1.500,-1.500
2.685,4.000,3.000,-2.000,-1.000
2.686,4.000,3.000,-2.000,-0.500
2.687,4.000,3.000,-2.000,-0.500
2.688,4.000,2.000,-2.000,-0.500
2.689,3.500,1.500,-2.000,-1.000
2.690,3.500,1.500,-2.000,-1.000
2.691,3.500,1.000,-1.500,-0.500
2.692,3.500,1.500,-1.500,0.000
2.693,4.000,1.500,-1.000,0.500
2.694,3.500,1.500,-0.500,1.500
2.695,3.000,1.500,0.000,2.000
2.696,2.500,1.000,0.500,2.000
2.697,1.500,0.500,0.000,1.500
2.698,0.500,0.000,-0.500,1.000
2.699,-0.500,-1.000,-0.500,0.000
2.700,-1.000,-1.500,-0.500,-1.000
2.701,-1.000,-1.500,0.500,-1.000
2.702,-1.000,-1.000,1.000,-1.000
2.703,-0.500,-0.500,1.500,-0.500
2.704,0.000,-0.500,1.500,-0.500
2.705,0.000,-0.500,1.500,-0.500
2.706,0.000,-1.000,0.500,-1.000
2.707,0.000,-2.000,0.500,-1.000
2.708,0.000,-2.000,1.000,-1.000
2.709,0.000,-2.000,1.500,-0.500
2.710,0.000,-1.000,2.500,0.000
2.711,0.500,0.000,3.000,0.500
2.712,0.500,0.500,4.000,0.500
2.713,1.000,0.500,4.000,0.500
2.714,1.000,0.000,4.500,0.500
2.715,1.000,-0.500,4.500,0.500
2.716,1.000,-0.500,4.500,0.500
2.717,1.000,0.000,3.500,1.000
2.718,1.000,0.500,2.500,1.000
2.719,1.000,1.500,1.000,0.500
2.720,1.000,1.500,0.500,0.500
2.721,1.000,1.000,1.000,0.500
2.722,1.000,0.500,2.000,0.500
2.723,1.000,0.000,3.000,0.500
2.724,0.500,0.000,3.500,0.500
2.725,0.500,0.000,3.500,0.000
2.726,0.000,0.000,3.000,-1.000
2.727,0.500,0.500,2.000,-1.500
2.728,0.500,0.500,1.500,-1.500
2.729,1.000,1.000,2.000,-1.000
2.730,2.000,1.500,3.000,-0.500
2.731,2.500,2.000,4.500,0.500
2.732,3.000,2.500,5.500,1.500
2.733,3.000,3.000,6.000,1.500
2.734,3.000,3.000,6.500,2.000
2.735,3.000,3.000,6.000,2.000
2.736,3.500,3.500,5.000,2.000
2.737,3.500,4.000,4.000,2.000
2.738,3.500,4.000,2.500,1.500
2.739,3.500,3.500,1.000,1.000
2.740,2.500,3.000,-0.500,0.500
2.741,1.500,2.000,-1.500,-0.500
2.742,1.000,1.500,-1.000,-1.000
2.743,0.500,0.500,-0.500,-1.500
2.744,0.500,0.500,0.000,-1.000
2.745,1.000,0.500,0.500,-1.000
2.746,1.000,0.500,0.500,-1.000
2.747,0.500,0.500,0.000,-1.000
2.748,0.500,0.500,-0.500,-1.000
2.749,0.000,0.500,-0.500,-1.000
2.750,0.000,0.500,0.500,-0.500
2.751,0.500,0.500,1.500,0.000
2.752,1.000,0.500,2.000,0.500
2.753,1.500,0.500,2.000,1.000
2.754,2.000,0.500,1.500,1.000
2.755,2.000,0.000,0.500,0.500
2.756,1.000,-0.500,-0.500,-0.500
2.757,0.000,-1.500,-1.000,-1.500
2.758,-1.000,-2.000,-1.000,-2.500
2.759,-2.000,-2.500,-1.000,-3.000
2.760,-2.000,-3.000,-1.000,-3.000
2.761,-1.500,-2.500,-1.000,-2.500
2.762,0.000,-2.000,-0.500,-2.000
2.763,1.500,-1.000,-0.500,-1.000
2.764,3.000,0.000,0.000,-0.500
2.765,3.500,1.000,0.500,0.500
2.766,4.000,1.500,1.000,1.000
2.767,4.000,2.000,1.500,1.500
2.768,4.500,3.000,2.500,2.500
2.769,6.000,4.500,4.000,4.000
2.770,8.000,6.500,5.500,6.000
2.771,10.500,8.500,7.000,7.500
2.772,12.500,10.500,8.000,9.000
2.773,14.000,12.000,7.500,10.500
2.774,15.000,12.500,7.000,12.000
2.775,15.000,13.000,6.000,12.500
2.776,15.000,13.000,5.500,13.500
2.777,15.000,13.000,5.000,14.000
2.778,15.000,12.500,4.500,14.500
2.779,15.000,12.000,4.000,15.500
2.780,14.500,11.000,3.500,16.500
2.781,13.000,11.000,3.000,18.000
2.782,11.000,11.000,2.500,20.000
2.783,9.500,11.000,2.000,22.000
2.784,7.500,11.500,1.500,24.500
2.785,5.500,11.500,1.500,27.000
2.786,3.500,10.000,1.000,29.000
2.787,0.500,8.500,0.000,30.000
2.788,-3.000,6.000,-1.500,30.000
2.789,-7.000,3.000,-2.500,29.000
2.790,-11.000,-0.500,-4.000,27.500
2.791,-14.500,-3.500,-4.500,25.500
2.792,-18.000,-6.500,-5.000,23.000
2.793,-22.000,-10.000,-4.500,21.000
2.794,-25.500,-13.000,-4.000,19.500
2.795,-29.500,-16.000,-4.000,18.000
2.796,-33.500,-19.000,-4.000,17.000
2.797,-37.500,-21.000,-4.500,16.000
2.798,-40.500,-23.500,-5.000,14.000
2.799,-43.500,-26.000,-6.500,11.500
2.800,-46.500,-28.500,-8.000,8.000
2.801,-48.500,-31.000,-9.000,4.000
2.802,-50.500,-33.500,-10.000,-0.500
2.803,-51.500,-35.500,-10.500,-5.000
2.804,-52.000,-37.000,-10.500,-10.000
2.805,-51.500,-38.500,-10.500,-15.000
2.806,-50.000,-39.500,-10.000,-20.000
2.807,-48.000,-40.000,-9.000,-24.500
2.808,-46.000,-40.000,-8.500,-29.000
2.809,-43.000,-39.500,-8.000,-32.000
2.810,-40.500,-38.000,-7.000,-34.500
2.811,-37.500,-36.000,-6.000,-35.500
2.812,-35.000,-34.000,-5.000,-36.000
2.813,-32.500,-32.500,-4.000,-36.000
2.814,-30.000,-30.500,-3.500,-35.500
2.815,-28.000,-28.500,-3.000,-35.000
2.816,-25.500,-26.500,-3.000,-33.500
2.817,-23.000,-24.500,-3.000,-31.500
2.818,-21.000,-22.500,-3.000,-29.000
2.819,-18.500,-21.000,-3.000,-26.500
2.820,-17.000,-20.000,-3.000,-23.500
2.821,-15.500,-18.500,-3.000,-21.000
2.822,-14.500,-16.500,-2.500,-18.500
2.823,-13.000,-14.500,-2.000,-16.500
2.824,-11.500,-12.500,-1.500,-14.500
2.825,-9.500,-10.000,-0.500,-13.000
2.826,-7.500,-8.500,0.000,-11.000
2.827,-5.500,-7.000,1.000,-9.000
2.828,-4.000,-6.000,2.000,-7.500
2.829,-2.500,-5.000,3.000,-6.000
2.830,-1.000,-4.000,3.500,-5.000
2.831,0.000,-3.500,3.500,-4.000
2.832,0.500,-3.000,3.000,-3.500
2.833,0.500,-2.500,2.000,-3.000
2.834,0.500,-3.000,1.000,-3.000
2.835,0.000,-3.000,-0.500,-3.000
2.836,0.500,-2.500,-1.000,-3.000
2.837,0.500,-2.500,-0.500,-3.000
2.838,1.000,-2.000,0.000,-3.000
2.839,1.500,-1.500,0.500,-2.500
2.840,2.000,-1.500,1.000,-2.000
2.841,2.000,-1.000,1.500,-1.500
2.842,2.500,-1.000,1.000,-1.000
2.843,2.500,0.000,0.000,-1.000
2.844,2.500,0.500,-0.500,-1.000
2.845,2.500,1.000,-1.500,-1.500
2.846,2.000,0.500,-2.000,-2.500
2.847,1.000,0.000,-1.500,-3.000
2.848,0.500,-1.000,-1.000,-3.000
2.849,0.000,-2.000,-0.500,-3.500
2.850,0.000,-2.500,0.500,-3.500
2.851,0.000,-3.000,0.500,-3.500
2.852,0.500,-3.000,0.500,-3.500
2.853,0.500,-3.000,0.000,-3.500
2.854,0.500,-3.000,-0.500,-3.500
2.855,1.000,-3.000,-0.500,-3.500
2.856,1.000,-3.000,0.000,-3.500
2.857,1.500,-3.000,0.500,-3.000
2.858,1.500,-3.000,1.000,-2.500
2.859,2.000,-2.500,1.000,-2.500
2.860,2.000,-2.000,1.000,-2.500
2.861,2.500,-2.000,0.500,-2.000
2.862,3.000,-1.500,-0.500,-2.000
2.863,3.000,-1.000,-1.500,-2.000
2.864,3.500,-1.000,-2.000,-2.000
2.865,3.500,-1.000,-2.500,-2.500
2.866,3.500,-1.500,-2.500,-2.500
2.867,4.000,-1.500,-2.500,-3.000
2.868,4.000,-1.500,-3.000,-3.000
2.869,4.000,-1.500,-3.500,-3.500
2.870,3.500,-2.000,-4.000,-4.000
2.871,3.000,-3.000,-4.500,-4.500
2.872,2.000,-3.500,-4.000,-5.000
2.873,1.000,-4.500,-3.500,-6.000
2.874,0.500,-5.000,-3.000,-6.000
2.875,0.500,-5.500,-2.500,-6.500
2.876,0.500,-5.000,-2.000,-6.000
2.877,0.500,-4.500,-2.000,-6.000
2.878,0.500,-4.500,-2.000,-5.000
2.879,1.000,-4.000,-1.500,-4.000
2.880,1.500,-3.000,-1.000,-3.000
2.881,3.000,-2.500,-0.500,-2.000
2.882,5.000,-1.000,0.000,-1.000
2.883,7.000,-0.500,0.000,-0.500
2.884,9.000,0.500,0.000,0.000
2.885,10.500,1.000,0.000,0.500
2.886,11.500,2.000,0.500,1.000
2.887,12.500,3.500,2.000,2.500
2.888,14.500,6.000,3.500,4.000
2.889,17.000,8.500,5.000,5.500
2.890,19.500,11.000,6.000,6.500
2.891,21.500,12.500,5.500,7.000
2.892,22.500,13.000,4.500,6.000
2.893,21.500,12.000,3.000,4.500
2.894,19.500,10.000,2.000,2.500
2.895,17.000,8.000,1.500,0.500
2.896,14.500,6.500,1.500,-1.000
2.897,13.000,5.500,2.000,-1.500
2.898,12.500,4.500,2.500,-1.500
2.899,12.500,4.500,2.000,-1.000
2.900,12.500,4.500,1.000,-1.000
2.901,12.500,4.000,-0.500,-1.500
2.902,11.500,3.000,-2.500,-2.500
2.903,9.500,1.500,-4.500,-4.500
2.904,6.500,-1.000,-6.500,-6.500
2.905,2.000,-4.500,-7.500,-8.500
2.906,-3.000,-8.000,-8.000,-10.500
2.907,-7.000,-11.500,-7.500,-12.000
2.908,-10.500,-13.500,-6.500,-12.500
2.909,-12.000,-14.500,-5.000,-12.000
2.910,-12.500,-14.000,-3.000,-11.000
2.911,-11.500,-13.000,-1.500,-10.000
2.912,-10.000,-11.500,0.000,-8.500
2.913,-8.500,-10.000,0.500,-7.500
2.914,-7.500,-9.000,1.000,-6.500
2.915,-6.000,-7.500,1.000,-5.500
2.916,-4.000,-6.000,1.500,-4.000
2.917,-2.000,-4.000,1.500,-3.000
2.918,0.500,-2.000,1.500,-1.500
2.919,2.500,-0.500,1.500,-0.500
2.920,4.500,1.000,1.000,0.000
2.921,5.500,1.500,0.500,0.000
2.922,6.000,1.500,0.000,0.500
2.923,6.000,1.500,-0.500,0.500
2.924,6.000,1.500,-0.500,1.000
2.925,6.000,1.500,-0.500,1.000
2.926,6.000,2.000,-0.500,1.500
2.927,6.000,2.000,-0.500,1.000
2.928,5.500,2.000,-1.000,1.000
2.929,5.000,2.000,-1.000,0.000
2.930,4.000,1.500,-1.500,0.000
2.931,3.000,1.500,-1.000,-0.500
2.932,2.500,1.000,-0.500,-0.500
2.933,2.500,0.500,0.500,-0.500
2.934,2.500,0.000,1.000,0.000
2.935,3.000,-0.500,1.000,0.000
2.936,3.000,-1.000,1.000,0.000
2.937,3.000,-1.500,0.500,0.000
2.938,2.500,-1.500,0.000,0.000
2.939,2.000,-1.500,0.000,0.500
2.940,2.000,-1.500,0.000,1.000
2.941,2.500,-1.000,0.000,1.500
2.942,3.000,-0.500,0.000,2.000
2.943,3.000,-0.500,0.000,1.500
2.944,2.500,-0.500,-0.500,1.000
2.945,2.000,-0.500,-0.500,0.500
2.946,1.500,0.000,-1.000,0.500
2.947,1.500,0.500,-1.000,0.500
2.948,2.500,1.500,-0.500,1.000
2.949,3.500,2.500,0.000,1.500
2.950,4.000,3.000,0.500,2.000
2.951,4.500,3.500,1.000,2.000
2.952,4.500,3.000,1.500,2.000
2.953,4.000,3.000,2.000,1.500
2.954,3.500,3.000,3.000,1.500
2.955,3.500,2.500,4.000,2.000
2.956,4.000,2.500,5.000,2.500
2.957,4.000,2.500,5.500,3.000
2.958,4.000,2.500,5.500,3.000
2.959,3.500,2.500,4.500,3.000
2.960,3.000,2.000,3.000,2.500
2.961,3.000,2.000,2.000,2.000
2.962,2.500,2.000,1.500,2.000
2.963,2.500,1.500,1.500,2.000
2.964,2.500,1.500,1.500,2.000
2.965,2.500,1.500,2.000,2.000
2.966,2.500,1.500,2.000,2.000
2.967,2.500,1.500,2.500,2.000
2.968,2.500,1.500,2.500,2.500
2.969,2.500,1.500,3.000,2.500
2.970,2.500,1.500,3.500,3.000
2.971,3.000,1.500,3.500,3.000
2.972,3.000,1.500,3.500,3.000
2.973,3.000,1.500,3.000,2.500
2.974,3.000,2.000,3.000,2.000
2.975,3.000,2.500,2.500,1.500
2.976,3.000,2.500,2.000,1.500
2.977,3.000,3.000,1.500,1.500
2.978,2.500,3.000,1.500,1.500
2.979,2.500,2.500,1.500,1.000
2.980,2.000,2.000,1.500,0.500
2.981,1.500,1.500,1.000,0.000
2.982,1.000,1.000,1.000,-0.500
2.983,1.000,0.500,1.000,-0.500
2.984,1.000,0.500,1.500,0.500
2.985,1.500,1.000,2.000,1.500
2.986,2.500,2.000,3.000,2.500
2.987,3.500,2.500,3.500,3.000
2.988,4.000,3.000,3.500,3.500
2.989,4.000,2.500,3.500,3.000
2.990,3.500,2.000,3.000,2.500
2.991,2.500,1.000,2.500,2.000
2.992,2.000,0.000,2.500,1.500
2.993,1.500,-0.500,3.000,1.500
2.994,1.500,0.000,3.500,2.000
2.995,2.000,0.500,4.000,2.500
2.996,2.000,1.000,4.000,3.500
2.997,2.500,1.500,4.000,4.000
2.998,2.500,1.500,3.500,5.000
2.999,2.500,1.500,2.500,5.500
3.000,2.000,1.000,1.500,5.500
3.001,2.000,1.000,0.500,5.500
3.002,1.500,1.000,0.000,5.000
3.003,1.500,1.000,0.000,4.500
3.004,1.500,0.500,0.000,4.000
3.005,1.500,0.000,0.500,3.500
3.006,1.500,-0.500,1.000,3.500
3.007,1.500,-0.500,1.500,4.000
3.008,1.500,-1.000,2.000,4.500
3.009,2.000,-1.000,1.500,4.500
3.010,2.000,-1.000,1.000,4.000
3.011,1.500,-1.500,0.000,3.500
3.012,1.000,-2.000,-0.500,3.000
3.013,1.000,-2.000,-1.000,2.500
3.014,1.000,-2.500,-1.000,2.500
3.015,1.000,-2.500,-0.500,2.500
3.016,1.000,-2.000,-0.500,2.500
3.017,1.500,-1.000,0.000,3.500
3.018,2.500,0.000,0.500,4.000
3.019,3.000,1.000,1.000,5.000
3.020,4.000,2.000,1.500,5.500
3.021,5.000,3.000,2.000,6.000
3.022,5.500,3.500,2.000,6.500
3.023,5.500,3.000,2.000,6.500
3.024,5.000,2.500,1.500,6.000
3.025,4.000,2.000,1.000,5.000
3.026,3.000,1.000,0.500,4.500
3.027,1.500,-0.500,0.000,3.500
3.028,0.500,-1.500,-0.500,2.500
3.029,-0.500,-2.500,-1.000,2.000
3.030,-1.000,-3.500,-1.000,1.500
3.031,-1.000,-3.500,-1.000,1.000
3.032,-1.000,-3.500,-0.500,1.500
3.033,-0.500,-3.000,0.000,2.000
3.034,-0.500,-2.500,0.500,2.500
3.035,-0.500,-2.500,0.500,3.000
3.036,-0.500,-2.000,0.500,3.500
3.037,0.000,-2.000,0.000,3.500
3.038,0.500,-1.500,0.000,3.500
3.039,1.500,-1.000,0.500,4.000
3.040,2.000,-0.500,0.500,5.000
3.041,2.500,-0.500,1.000,5.500
3.042,2.500,0.000,1.500,6.500
3.043,2.500,0.000,1.500,6.500
3.044,2.000,0.000,1.000,6.500
3.045,2.000,-0.500,1.000,6.000
3.046,1.500,-0.500,0.500,5.500
3.047,1.500,-1.000,0.000,5.000
3.048,1.500,-1.500,-1.000,5.000
3.049,1.000,-2.000,-1.500,4.500
3.050,1.000,-2.000,-2.500,4.000
3.051,0.500,-1.500,-2.500,4.000
3.052,0.000,-1.000,-2.500,3.500
3.053,0.000,-0.500,-1.500,3.500
3.054,0.500,0.000,-1.000,3.500
3.055,0.500,0.500,0.000,3.500
3.056,1.000,0.000,1.000,3.500
3.057,1.500,0.000,1.500,3.000
3.058,2.000,0.000,1.500,3.000
3.059,2.500,-0.500,1.500,3.000
3.060,2.500,-0.500,1.500,3.000
3.061,2.500,-0.500,1.000,3.500
3.062,2.000,-0.500,0.500,3.000
3.063,2.000,-0.500,0.500,3.000
3.064,1.500,-0.500,0.000,2.500
3.065,1.500,-0.500,0.500,2.000
3.066,2.000,-0.500,0.500,2.000
3.067,2.500,0.000,1.000,2.500
3.068,2.500,0.000,1.000,3.000
3.069,3.000,0.500,1.500,3.500
3.070,3.000,1.000,1.500,4.000
3.071,3.000,1.000,1.500,4.000
3.072,3.000,2.000,1.500,4.000
3.073,3.500,2.500,1.500,4.000
3.074,4.000,3.000,1.500,4.000
3.075,4.500,3.000,1.500,3.500
3.076,4.500,2.500,1.500,3.000
3.077,4.000,1.500,0.500,2.500
3.078,4.000,1.000,-0.500,1.500
3.079,3.500,0.500,-1.000,0.500
3.080,3.500,0.500,-2.000,0.500
3.081,3.500,0.500,-2.000,0.500
3.082,3.500,1.000,-1.500,1.000
3.083,4.000,1.000,-0.500,1.000
3.084,3.500,1.000,0.500,0.500
3.085,3.500,0.500,1.000,0.000
3.086,3.000,0.500,1.500,-0.500
3.087,3.000,0.500,1.500,-1.000
3.088,3.000,1.000,2.000,-1.000
3.089,3.500,1.000,2.000,-0.500
3.090,4.000,1.500,2.500,0.000
3.091,4.500,2.000,2.500,0.000
3.092,5.000,2.000,2.500,0.500
3.093,5.500,2.000,2.000,0.000
3.094,5.500,2.000,1.000,-0.500
3.095,5.500,2.000,0.500,-1.000
3.096,5.500,1.500,0.500,-1.500
3.097,5.000,1.500,0.000,-1.500
3.098,5.000,1.000,-0.500,-2.000
3.099,4.500,1.000,-1.000,-2.500
3.100,4.000,0.500,-1.500,-2.500
3.101,4.000,0.500,-2.500,-2.500
3.102,4.000,1.000,-3.000,-2.000
3.103,4.500,1.000,-3.500,-1.500
3.104,5.000,1.500,-4.000,-1.000
3.105,5.500,2.000,-4.000,-1.000
3.106,6.000,2.000,-3.500,-0.500
3.107,6.500,2.500,-3.000,-0.500
3.108,6.500,3.000,-2.000,0.000
3.109,7.000,4.000,-1.000,0.000
3.110,7.500,4.500,-0.500,0.000
3.111,8.000,5.500,0.000,-0.500
3.112,8.000,5.500,-0.500,-1.000
3.113,7.500,4.500,-0.500,-1.500
3.114,7.000,4.000,-1.000,-2.000
3.115,6.000,3.000,-1.000,-2.500
3.116,5.000,2.000,-0.500,-2.500
3.117,4.500,2.000,-0.500,-2.500
3.118,4.500,2.000,-0.500,-2.500
3.119,4.500,2.500,-1.000,-2.500
3.120,5.000,2.500,-2.000,-3.000
3.121,5.000,2.500,-3.000,-3.000
3.122,4.500,2.500,-3.500,-3.000
3.123,4.500,2.500,-3.500,-3.000
3.124,4.500,2.500,-3.000,-3.000
3.125,4.500,2.500,-2.500,-3.000
3.126,4.500,2.000,-2.500,-3.000
3.127,5.000,2.000,-3.000,-3.000
3.128,5.000,1.500,-3.000,-3.000
3.129,5.000,1.500,-3.500,-3.500
3.130,5.500,1.500,-3.500,-3.500
3.131,5.500,2.000,-3.500,-3.500
3.132,5.500,3.000,-3.000,-3.500
3.133,6.000,4.000,-2.000,-3.000
3.134,6.500,4.500,-1.500,-3.000
3.135,7.000,5.000,-1.500,-3.000
3.136,7.500,5.000,-2.000,-3.000
3.137,7.500,4.500,-2.500,-3.000
3.138,7.500,4.000,-3.500,-3.500
3.139,7.000,3.000,-4.500,-4.500
3.140,6.000,2.500,-5.500,-5.500
3.141,5.000,1.500,-6.000,-6.000
3.142,4.000,0.500,-6.000,-6.500
3.143,3.500,0.000,-5.000,-6.500
3.144,3.000,-1.000,-4.500,-6.500
3.145,3.000,-1.500,-4.000,-6.500
3.146,2.500,-2.500,-3.500,-7.000
3.147,2.500,-3.500,-3.000,-7.500
3.148,2.500,-4.500,-3.000,-8.000
3.149,2.000,-5.000,-3.000,-8.500
3.150,2.000,-5.500,-2.500,-8.500
3.151,2.000,-5.500,-2.500,-8.500
3.152,2.000,-5.000,-2.000,-8.500
3.153,2.500,-4.500,-2.000,-8.000
3.154,3.500,-4.500,-1.500,-7.500
3.155,4.000,-4.000,-1.000,-7.000
3.156,4.500,-4.000,-1.000,-6.500
3.157,5.000,-4.000,-1.000,-6.000
3.158,5.500,-4.500,-1.000,-6.000
3.159,6.500,-4.500,-1.500,-6.000
3.160,7.000,-4.000,-2.000,-5.500
3.161,7.500,-3.500,-2.500,-5.000
3.162,7.500,-3.000,-3.000,-4.500
3.163,7.500,-2.500,-3.000,-4.500
3.164,7.000,-3.000,-2.500,-4.000
3.165,6.500,-3.000,-2.500,-4.000
3.166,6.000,-3.500,-2.000,-4.000
3.167,5.500,-3.500,-2.000,-4.500
3.168,5.500,-3.500,-2.500,-5.000
3.169,5.500,-3.000,-2.500,-5.000
3.170,5.500,-3.000,-2.500,-5.500
3.171,5.000,-4.000,-2.500,-5.500
3.172,5.000,-4.500,-2.500,-6.000
3.173,5.000,-5.000,-2.000,-6.000
3.174,5.000,-5.500,-1.500,-6.000
3.175,6.000,-5.000,-1.500,-5.500
3.176,6.000,-4.500,-1.500,-5.000
3.177,6.000,-4.000,-2.000,-5.000
3.178,6.000,-3.500,-2.500,-5.000
3.179,5.500,-4.000,-2.500,-5.500
3.180,5.000,-5.000,-2.500,-5.500
3.181,4.500,-5.500,-2.000,-6.000
3.182,4.500,-6.000,-1.500,-6.000
3.183,4.500,-6.000,-1.000,-6.000
3.184,4.500,-6.000,-0.500,-6.000
3.185,5.000,-5.500,0.000,-6.000
3.186,5.500,-5.500,0.000,-6.000
3.187,5.500,-5.500,0.000,-6.000
3.188,6.000,-5.500,-0.500,-6.000
3.189,6.500,-5.000,-0.500,-5.500
3.190,7.000,-4.500,-0.500,-5.000
3.191,7.500,-4.000,-0.500,-5.000
3.192,8.000,-3.500,-1.000,-5.000
3.193,8.000,-3.500,-1.500,-5.000
3.194,7.500,-4.000,-2.500,-5.500
3.195,7.500,-4.000,-3.000,-5.500
3.196,7.000,-4.000,-3.000,-5.500
3.197,7.000,-3.500,-3.000,-5.500
3.198,7.500,-3.000,-3.000,-5.000
3.199,7.500,-2.500,-2.500,-4.500
3.200,8.000,-2.500,-2.500,-4.500
3.201,8.000,-2.500,-2.500,-4.500
3.202,7.500,-3.000,-3.000,-4.500
3.203,7.500,-3.500,-3.000,-5.000
3.204,7.000,-3.500,-3.000,-5.000
3.205,6.500,-3.500,-3.500,-5.000
3.206,6.500,-3.000,-3.500,-5.500
3.207,6.000,-3.000,-3.500,-6.500
3.208,5.500,-3.000,-3.500,-8.000
3.209,5.000,-3.500,-2.500,-9.000
3.210,4.500,-3.500,-1.500,-10.000
3.211,4.500,-4.000,0.000,-10.000
3.212,4.500,-4.000,1.000,-9.500
3.213,4.000,-4.000,1.500,-9.500
3.214,4.000,-3.500,1.000,-9.500
3.215,4.000,-3.000,0.500,-10.000
3.216,4.000,-2.500,0.500,-10.000
3.217,4.500,-2.500,0.500,-9.500
3.218,5.000,-2.000,1.000,-8.500
3.219,6.000,-1.000,1.000,-6.500
3.220,7.000,0.000,1.000,-4.500
3.221,8.000,1.000,1.000,-3.000
3.222,9.000,2.000,0.000,-2.000
3.223,9.500,2.000,-0.500,-2.500
3.224,9.500,1.500,-1.500,-3.000
3.225,9.000,0.500,-1.500,-3.500
3.226,8.500,-0.500,-1.500,-4.500
3.227,8.000,-1.500,-1.500,-4.500
3.228,7.500,-1.500,-1.500,-4.500
3.229,7.500,-1.000,-1.000,-4.000
3.230,7.500,-0.500,-1.000,-3.500
3.231,7.500,0.000,-0.500,-3.000
3.232,7.000,0.500,-1.000,-3.000
3.233,6.000,0.500,-1.500,-2.500
3.234,5.500,1.000,-2.000,-2.500
3.235,5.000,1.500,-2.500,-3.000
3.236,4.500,2.000,-2.500,-3.000
3.237,4.500,2.000,-2.000,-3.000
3.238,5.000,1.500,-1.500,-3.500
3.239,5.000,1.000,-1.500,-4.000
3.240,5.000,0.500,-1.500,-4.500
3.241,4.500,0.000,-2.000,-5.000
3.242,4.000,-0.500,-2.500,-5.000
3.243,3.500,-0.500,-2.500,-5.000
3.244,3.500,-0.500,-2.000,-5.000
3.245,4.000,0.000,-1.000,-4.000
3.246,4.500,0.000,0.000,-3.500
3.247,5.000,0.500,0.500,-3.000
3.248,6.000,1.000,0.500,-2.500
3.249,6.000,1.500,-0.500,-2.500
3.250,6.000,2.000,-1.500,-3.000
3.251,6.000,1.500,-2.000,-3.000
3.252,5.500,1.000,-2.000,-3.000
3.253,5.500,1.000,-2.000,-3.000
3.254,6.000,0.500,-1.000,-2.500
3.255,6.500,0.500,-0.500,-2.500
3.256,7.000,0.500,-0.500,-2.500
3.257,7.500,0.500,-0.500,-2.500
3.258,8.000,0.000,-0.500,-2.500
3.259,8.000,0.000,-0.500,-2.500
3.260,8.500,0.000,-1.000,-2.500
3.261,8.500,0.000,-1.000,-2.500
3.262,8.500,0.000,-1.000,-2.500
3.263,8.500,0.000,-1.500,-2.500
3.264,8.000,0.000,-1.500,-2.000
3.265,7.500,-0.500,-1.000,-2.500
3.266,7.000,-0.500,-0.500,-2.500
3.267,6.500,-0.500,0.000,-2.500
3.268,6.000,-0.500,0.500,-3.000
3.269,6.000,0.500,0.500,-3.000
3.270,6.000,1.000,1.000,-2.500
3.271,6.000,1.000,1.000,-2.500
3.272,6.500,1.000,1.500,-2.000
3.273,6.500,0.500,2.000,-1.500
3.274,6.000,0.500,2.500,-1.500
3.275,6.000,0.500,3.000,-1.500
3.276,6.000,0.500,2.500,-1.500
3.277,6.500,1.000,1.500,-2.000
3.278,6.500,1.000,0.500,-2.500
3.279,6.500,1.000,-1.000,-3.000
3.280,6.500,0.500,-1.500,-3.500
3.281,6.500,0.000,-1.500,-3.500
3.282,6.000,0.000,-1.500,-3.000
3.283,5.500,0.500,-1.500,-2.500
3.284,5.000,0.500,-2.000,-2.500
3.285,4.500,0.500,-2.500,-3.000
3.286,4.500,0.500,-3.000,-4.000
3.287,4.000,0.000,-3.000,-5.000
3.288,3.500,-0.500,-2.500,-6.000
3.289,3.000,-0.500,-1.500,-6.500
3.290,2.500,-0.500,-0.500,-6.500
3.291,2.000,0.000,0.000,-6.500
3.292,2.000,0.000,0.000,-6.500
3.293,1.500,0.000,-0.500,-6.500
3.294,2.000,0.000,-1.500,-6.500
3.295,2.500,0.000,-2.000,-6.500
3.296,3.000,0.500,-1.500,-6.000
3.297,3.500,1.000,-1.500,-5.500
3.298,4.000,2.000,-1.000,-4.500
3.299,4.500,2.500,-1.000,-4.000
3.300,4.500,3.000,-1.500,-3.500
3.301,4.500,3.000,-2.500,-3.500
3.302,4.000,3.000,-3.000,-3.500
3.303,4.000,2.500,-3.000,-3.500
3.304,4.000,2.000,-2.500,-3.500
3.305,4.000,1.500,-1.500,-3.500
3.306,3.500,1.500,-1.000,-3.500
3.307,3.500,1.000,-0.500,-3.500
3.308,3.500,1.000,0.000,-3.500
3.309,3.500,1.000,0.000,-3.500
3.310,3.000,0.500,0.000,-4.000
3.311,3.000,0.000,0.000,-4.000
3.312,3.000,0.000,0.000,-4.000
3.313,3.000,0.000,0.000,-4.000
3.314,3.000,0.000,-0.500,-4.000
3.315,3.000,0.000,-1.500,-4.000
3.316,2.500,-0.500,-3.000,-4.000
3.317,2.000,-1.000,-4.000,-4.500
3.318,1.500,-1.500,-5.000,-4.500
3.319,1.500,-2.000,-5.500,-5.000
3.320,1.500,-2.500,-5.500,-4.500
3.321,1.500,-3.000,-4.500,-4.500
3.322,1.500,-3.000,-3.500,-4.000
3.323,1.500,-3.000,-3.000,-4.500
3.324,1.500,-3.000,-3.000,-5.000
3.325,1.000,-3.000,-3.500,-5.500
3.326,0.500,-3.000,-4.500,-6.000
3.327,0.500,-3.000,-5.000,-6.000
3.328,0.500,-3.000,-4.500,-5.500
3.329,1.000,-3.000,-3.000,-5.000
3.330,1.500,-3.000,-1.500,-4.000
3.331,1.500,-3.000,-0.500,-4.000
3.332,1.500,-3.000,0.000,-4.000
3.333,1.000,-3.000,-0.500,-4.500
3.334,0.000,-3.000,-2.000,-5.500
3.335,-0.500,-3.500,-2.500,-6.000
3.336,-1.000,-4.500,-2.500,-6.500
3.337,-1.500,-5.000,-2.000,-6.500
3.338,-2.000,-6.500,-1.500,-7.000
3.339,-2.500,-7.500,-1.500,-7.500
3.340,-3.500,-8.500,-1.500,-7.500
3.341,-3.500,-9.000,-2.000,-7.500
3.342,-2.500,-8.500,-1.500,-6.500
3.343,-1.500,-7.500,-1.000,-5.500
3.344,0.500,-6.000,0.500,-4.500
3.345,2.500,-4.500,2.000,-3.500
3.346,4.000,-3.500,2.500,-2.500
3.347,5.000,-3.000,2.500,-2.000
3.348,5.500,-2.500,2.000,-1.500
3.349,6.500,-1.000,2.000,-0.500
3.350,8.500,0.500,3.000,1.000
3.351,11.500,3.500,4.500,3.000
3.352,15.000,7.000,6.000,5.000
3.353,18.500,10.000,7.000,6.500
3.354,21.000,12.000,6.500,7.500
3.355,21.500,12.000,5.000,7.000
3.356,21.000,10.500,2.500,6.000
3.357,18.500,8.000,0.000,3.500
3.358,16.000,5.000,-1.000,1.500
3.359,13.500,3.000,-1.000,-0.500
3.360,12.500,2.500,0.000,-1.000
3.361,12.500,3.500,1.500,-1.000
3.362,13.500,5.500,2.500,0.000
3.363,15.000,7.000,3.000,1.000
3.364,16.000,8.000,2.500,1.500
3.365,15.000,7.000,0.500,0.500
3.366,12.000,4.500,-2.000,-2.000
3.367,7.500,0.500,-4.500,-5.000
3.368,2.500,-3.500,-6.500,-8.000
3.369,-2.500,-7.500,-6.500,-10.000
3.370,-6.500,-10.500,-5.500,-11.000
3.371,-9.000,-12.000,-3.500,-11.000
3.372,-10.000,-12.500,-1.000,-10.000
3.373,-10.500,-12.500,0.500,-9.500
3.374,-10.500,-12.000,1.000,-9.000
3.375,-10.000,-11.000,1.500,-8.500
3.376,-9.000,-10.000,1.000,-8.000
3.377,-7.500,-8.500,1.000,-7.000
3.378,-6.000,-7.000,1.500,-5.500
3.379,-4.500,-5.500,1.500,-4.500
3.380,-3.000,-4.000,1.500,-4.000
3.381,-1.500,-3.000,0.500,-3.500
3.382,-0.500,-3.000,-0.500,-4.000
3.383,0.500,-2.500,-0.500,-4.000
3.384,1.000,-2.500,-0.500,-4.000
3.385,2.000,-3.000,0.000,-3.500
3.386,2.500,-3.000,0.500,-3.000
3.387,2.500,-4.000,0.500,-2.500
3.388,2.500,-4.500,0.000,-2.500
3.389,2.000,-5.500,-0.500,-3.000
3.390,2.000,-6.000,-1.000,-3.000
3.391,2.000,-6.000,-1.500,-3.500
3.392,2.000,-6.000,-1.500,-3.500
3.393,2.000,-6.000,-1.000,-3.500
3.394,2.000,-5.500,-1.000,-3.000
3.395,2.000,-5.000,-1.000,-2.500
3.396,2.000,-4.000,-0.500,-1.500
3.397,3.000,-2.500,0.500,0.000
3.398,4.500,-1.000,1.500,1.000
3.399,6.000,0.500,3.000,2.500
3.400,8.000,1.500,4.500,3.500
3.401,9.500,2.000,5.500,5.000
3.402,11.000,3.000,6.500,6.000
3.403,12.000,3.500,6.500,7.000
3.404,13.000,5.000,6.000,7.500
3.405,14.000,6.000,5.500,8.000
3.406,14.500,7.000,4.500,8.500
3.407,14.500,7.500,3.500,8.500
3.408,13.500,8.000,3.000,9.000
3.409,12.500,8.000,2.500,10.000
3.410,12.000,8.000,3.000,11.500
3.411,12.000,9.000,4.000,14.500
3.412,12.000,10.500,5.000,18.000
3.413,12.500,12.000,6.000,21.500
3.414,12.500,13.000,6.000,25.000
3.415,11.500,13.500,5.500,27.500
3.416,9.000,12.500,4.500,29.000
3.417,6.000,11.000,3.000,30.000
3.418,2.000,8.500,1.000,30.000
3.419,-2.500,5.500,-1.000,29.000
3.420,-7.000,2.500,-3.000,28.000
3.421,-11.500,-1.500,-5.000,26.000
3.422,-16.000,-5.500,-6.500,23.500
3.423,-21.000,-10.000,-8.000,20.500
3.424,-25.500,-14.500,-8.500,17.500
3.425,-30.000,-19.000,-9.000,15.000
3.426,-34.500,-22.500,-8.500,13.000
3.427,-38.500,-25.500,-8.500,12.000
3.428,-42.500,-28.000,-8.000,11.500
3.429,-45.500,-30.000,-7.500,10.000
3.430,-48.000,-32.000,-7.500,8.500
3.431,-50.000,-33.500,-7.500,5.500
3.432,-51.500,-35.000,-8.500,1.500
3.433,-52.500,-36.500,-9.500,-3.500
3.434,-53.500,-38.000,-10.500,-8.500
3.435,-54.000,-39.500,-10.500,-13.500
3.436,-53.500,-40.500,-10.000,-19.000
3.437,-52.500,-41.500,-9.000,-23.500
3.438,-51.000,-42.000,-8.000,-28.500
3.439,-49.000,-42.000,-7.000,-32.500
3.440,-46.000,-41.500,-7.000,-35.500
3.441,-43.000,-40.500,-7.000,-38.000
3.442,-39.500,-38.500,-6.500,-39.000
3.443,-36.500,-36.500,-6.000,-39.000
3.444,-33.000,-35.000,-4.500,-37.500
3.445,-30.000,-33.000,-3.000,-36.000
3.446,-27.500,-32.000,-2.500,-34.500
3.447,-25.500,-30.500,-2.500,-33.000
3.448,-24.000,-29.000,-2.500,-31.000
3.449,-22.000,-27.500,-2.500,-29.500
3.450,-20.500,-26.000,-2.000,-27.500
3.451,-18.500,-24.500,-1.000,-25.000
3.452,-17.000,-23.000,0.500,-22.000
3.453,-15.500,-22.000,1.500,-19.500
3.454,-14.000,-21.000,2.000,-17.000
3.455,-13.000,-19.500,2.000,-15.000
3.456,-12.000,-17.500,2.000,-13.000
3.457,-10.500,-15.500,2.000,-11.500
3.458,-8.500,-13.000,2.000,-9.500
3.459,-6.500,-10.500,1.500,-7.500
3.460,-4.500,-8.500,1.500,-6.000
3.461,-3.000,-6.500,1.000,-4.000
3.462,-1.500,-5.500,0.500,-2.500
3.463,-0.500,-4.500,0.500,-2.000
3.464,0.000,-4.000,1.000,-2.000
3.465,0.000,-4.500,1.500,-2.500
3.466,0.000,-5.000,1.500,-2.500
3.467,0.000,-5.500,1.500,-2.500
3.468,0.500,-5.500,2.000,-2.000
3.469,1.500,-5.000,2.000,-1.500
3.470,2.500,-4.000,3.000,-0.500
3.471,3.500,-2.500,3.500,0.500
3.472,4.500,-1.500,4.500,0.500
3.473,5.000,-0.500,4.500,0.500
3.474,5.000,-0.500,4.000,0.500
3.475,4.500,-1.000,3.500,0.000
3.476,3.500,-1.500,2.500,-1.000
3.477,3.000,-2.500,2.000,-1.500
3.478,2.500,-3.000,1.500,-2.000
3.479,2.000,-3.500,1.000,-2.500
3.480,2.000,-3.500,0.500,-2.500
3.481,2.000,-3.500,0.500,-2.500
3.482,2.000,-3.500,1.000,-2.500
3.483,2.000,-4.000,1.500,-2.000
3.484,2.000,-4.000,1.500,-2.000
3.485,2.500,-4.500,1.500,-2.000
3.486,2.500,-4.500,1.500,-2.000
3.487,3.000,-4.000,1.500,-2.000
3.488,3.000,-4.000,1.500,-1.500
3.489,3.500,-3.500,2.000,-0.500
3.490,3.500,-3.500,3.000,0.000
3.491,4.000,-3.000,3.000,0.500
3.492,4.000,-3.000,3.000,0.000
3.493,4.000,-2.500,2.500,0.000
3.494,4.000,-2.000,2.000,-0.500
3.495,4.000,-2.000,2.000,-1.000
3.496,3.500,-2.000,2.000,-1.500
3.497,3.500,-2.000,2.500,-1.500
3.498,3.000,-2.500,3.000,-2.000
3.499,2.500,-2.500,3.000,-2.000
3.500,2.500,-2.000,2.500,-2.000
3.501,3.000,-1.500,2.000,-1.000
3.502,3.500,-1.000,1.500,-0.500
3.503,3.500,-0.500,2.000,0.000
3.504,4.000,-0.500,2.500,0.000
3.505,3.500,-1.000,3.000,-0.500
3.506,3.000,-1.500,2.500,-1.500
3.507,3.000,-1.500,2.500,-2.000
3.508,3.500,-1.500,2.000,-2.000
3.509,4.000,-0.500,2.000,-1.000
3.510,4.500,0.000,2.500,0.000
3.511,5.000,0.500,3.000,1.000
3.512,5.000,0.500,3.000,1.000
3.513,4.500,-0.500,2.500,0.500
3.514,3.500,-1.500,1.000,-0.500
3.515,3.000,-2.500,0.500,-1.500
3.516,3.000,-3.000,0.000,-2.000
3.517,3.000,-3.500,0.000,-2.000
3.518,3.000,-3.500,0.500,-1.500
3.519,3.000,-3.500,0.500,-1.000
3.520,2.500,-3.500,0.000,-1.000
3.521,2.000,-3.500,-0.500,-1.000
3.522,1.500,-3.500,-1.500,-1.500
3.523,1.500,-3.500,-2.000,-1.500
3.524,1.500,-3.500,-2.500,-1.500
3.525,2.000,-3.500,-2.500,-1.500
3.526,2.000,-4.000,-2.000,-1.000
3.527,2.500,-4.000,-1.000,-1.000
3.528,2.500,-3.500,0.000,-0.500
3.529,2.500,-3.500,1.500,-1.000
3.530,2.500,-3.000,2.500,-1.000
3.531,2.500,-3.000,3.000,-1.000
3.532,2.500,-2.500,3.000,-1.000
3.533,3.000,-2.500,2.500,-1.000
3.534,3.000,-3.000,2.000,-1.000
3.535,2.500,-3.000,1.500,-0.500
3.536,2.500,-3.500,1.000,-0.500
3.537,2.500,-3.500,1.000,-0.500
3.538,2.000,-3.500,1.000,-0.500
3.539,2.500,-3.000,1.000,-1.000
3.540,2.500,-3.000,1.000,-1.000
3.541,3.000,-3.500,1.000,-0.500
3.542,3.500,-3.500,1.000,0.000
3.543,4.000,-3.500,2.000,0.500
3.544,4.000,-3.000,2.000,1.000
3.545,4.000,-2.500,2.500,1.500
3.546,4.000,-2.500,2.000,1.500
3.547,4.000,-2.000,1.000,1.000
3.548,4.000,-2.000,0.500,1.000
3.549,3.500,-2.000,0.000,1.000
3.550,3.500,-2.500,0.000,1.000
3.551,3.000,-3.000,0.500,1.000
3.552,2.500,-3.500,1.000,0.500
3.553,2.000,-4.000,1.500,0.500
3.554,1.500,-4.500,2.000,0.500
3.555,1.500,-5.000,2.500,0.500
3.556,1.500,-5.000,3.000,1.000
3.557,2.500,-4.500,3.000,1.500
3.558,3.000,-4.500,2.500,1.500
3.559,3.500,-5.000,1.500,1.500
3.560,3.500,-5.500,1.000,0.500
3.561,3.000,-7.000,1.000,0.000
3.562,2.000,-7.500,1.500,-0.500
3.563,1.500,-8.000,2.000,-1.000
3.564,1.000,-8.000,2.500,-0.500
3.565,1.000,-7.000,2.000,0.000
3.566,1.000,-6.000,2.000,1.000
3.567,1.500,-5.000,1.500,1.000
3.568,1.500,-4.000,1.500,1.000
3.569,1.500,-3.500,2.000,0.500
3.570,1.500,-3.500,2.500,0.000
3.571,1.000,-3.000,2.500,0.000
3.572,1.000,-2.000,3.000,0.000
3.573,1.500,-1.500,2.500,0.500
3.574,2.000,-1.000,2.000,1.500
3.575,2.500,-1.000,1.500,1.500
3.576,2.500,-1.000,1.000,2.000
3.577,2.000,-1.500,0.500,2.000
3.578,2.000,-1.500,0.500,2.000
3.579,2.000,-2.000,0.500,2.000
3.580,2.000,-1.500,1.000,2.500
3.581,2.000,-1.500,1.500,2.500
3.582,2.000,-2.000,1.500,2.000
3.583,1.500,-3.000,2.000,1.500
3.584,0.000,-4.500,1.500,0.500
3.585,-1.000,-5.500,1.500,-0.500
3.586,-2.000,-6.500,1.000,-0.500
3.587,-2.000,-6.500,1.000,0.000
3.588,-1.000,-6.000,1.500,1.000
3.589,0.000,-5.000,2.000,2.000
3.590,1.000,-4.000,3.000,2.500
3.591,1.500,-4.000,3.000,2.500
3.592,1.500,-4.000,2.500,2.000
3.593,0.500,-4.500,1.500,1.500
3.594,0.000,-4.500,0.500,0.500
3.595,-0.500,-4.500,0.000,0.500
3.596,-1.000,-4.000,-0.500,0.500
3.597,-1.000,-3.500,0.000,0.500
3.598,-1.000,-2.500,0.500,1.000
3.599,-1.000,-2.500,1.000,1.500
3.600,-1.000,-2.000,1.500,2.000
3.601,-0.500,-2.000,2.500,2.500
3.602,-0.500,-2.000,3.000,3.000
3.603,0.000,-1.500,3.500,3.500
3.604,0.500,-1.500,3.500,4.000
3.605,1.000,-1.500,3.500,4.000
3.606,1.500,-2.000,3.500,3.500
3.607,1.500,-3.000,3.000,3.000
3.608,1.500,-4.000,2.500,2.500
3.609,1.000,-4.500,2.000,1.500
3.610,0.500,-5.500,2.000,1.000
3.611,-0.500,-5.500,1.500,0.500
3.612,-0.500,-6.000,1.500,0.500
3.613,-1.000,-6.500,1.500,0.000
3.614,-1.000,-7.000,1.500,0.000
3.615,-2.000,-7.500,1.000,0.000
3.616,-2.500,-7.500,1.000,0.000
3.617,-4.000,-8.000,0.500,0.000
3.618,-5.000,-7.500,-0.500,0.000
3.619,-5.500,-7.000,-1.500,0.000
3.620,-5.500,-6.500,-2.000,0.000
3.621,-5.000,-5.500,-2.500,1.000
3.622,-4.000,-5.000,-2.000,1.500
3.623,-3.000,-5.000,-1.500,2.000
3.624,-3.000,-5.000,-1.000,2.000
3.625,-3.000,-5.500,-1.000,1.500
3.626,-4.000,-6.000,-1.500,0.500
3.627,-5.000,-6.500,-2.000,-0.500
3.628,-6.000,-7.000,-2.000,-1.500
3.629,-6.500,-7.000,-1.500,-2.000
3.630,-6.500,-7.000,0.000,-2.500
3.631,-6.500,-6.500,0.500,-2.500
3.632,-6.500,-6.500,1.000,-2.000
3.633,-6.500,-7.000,0.000,-2.000
3.634,-6.500,-7.500,-1.000,-2.000
3.635,-6.500,-8.000,-1.500,-1.500
3.636,-5.500,-8.000,-1.500,-1.000
3.637,-4.500,-7.500,-0.500,0.000
3.638,-3.500,-6.500,0.500,1.000
3.639,-3.000,-6.000,0.500,1.500
3.640,-3.000,-6.000,0.500,1.500
3.641,-3.500,-6.500,-1.000,1.000
3.642,-4.500,-7.000,-2.000,0.500
3.643,-5.000,-7.000,-2.500,0.000
3.644,-5.000,-6.500,-2.500,0.500
3.645,-4.500,-5.000,-1.500,1.500
3.646,-3.500,-3.500,-0.500,3.000
3.647,-3.000,-2.000,0.500,4.500
3.648,-2.500,-1.500,1.500,5.500
3.649,-2.500,-1.500,2.000,5.500
3.650,-3.000,-2.500,2.000,5.500
3.651,-3.500,-3.500,1.500,4.500
3.652,-4.000,-4.500,0.500,4.000
3.653,-4.000,-5.000,0.000,3.000
3.654,-4.500,-5.500,0.000,2.500
3.655,-4.500,-5.000,0.000,2.500
3.656,-5.000,-4.500,1.000,3.000
3.657,-5.000,-4.000,1.500,3.000
3.658,-4.500,-3.500,2.000,3.500
3.659,-4.500,-3.500,1.500,3.500
3.660,-4.500,-3.500,0.500,3.500
3.661,-4.500,-4.000,-0.500,3.000
3.662,-5.000,-4.500,-0.500,2.500
3.663,-5.500,-4.500,-0.500,2.500
3.664,-5.500,-4.500,0.500,2.500
3.665,-5.500,-4.000,0.500,2.500
3.666,-5.500,-4.000,-0.500,2.500
3.667,-5.000,-3.500,-1.500,2.500
3.668,-5.000,-4.000,-2.500,2.000
3.669,-5.000,-4.000,-3.000,1.500
3.670,-5.000,-4.000,-2.000,1.500
3.671,-4.500,-3.000,-0.500,2.000
3.672,-4.500,-2.500,0.500,2.500
3.673,-4.000,-2.500,1.500,3.000
3.674,-4.500,-3.000,1.000,2.500
3.675,-5.500,-4.000,0.500,1.500
3.676,-6.000,-5.500,0.000,0.000
3.677,-7.000,-6.500,0.500,-0.500
3.678,-6.500,-6.500,0.500,-0.500
3.679,-5.500,-6.000,1.000,1.000
3.680,-4.000,-4.500,1.500,2.500
3.681,-2.000,-3.000,1.000,4.500
3.682,-0.500,-2.000,0.000,5.500
3.683,0.000,-2.000,-1.000,5.500
3.684,-0.500,-2.500,-1.500,5.000
3.685,-1.500,-3.000,-1.500,3.500
3.686,-2.500,-4.000,-1.500,2.500
3.687,-3.000,-4.000,-1.000,1.500
3.688,-3.500,-4.000,0.000,1.500
3.689,-3.000,-3.500,0.500,2.000
3.690,-2.000,-3.000,1.000,2.500
3.691,-1.500,-2.000,1.500,2.500
3.692,-1.000,-2.000,1.500,2.500
3.693,-1.000,-2.000,1.500,2.000
3.694,-1.000,-3.000,1.500,1.500
3.695,-1.000,-3.500,1.500,1.500
3.696,-0.500,-4.000,1.500,2.000
3.697,0.500,-3.500,2.000,3.000
3.698,1.500,-2.500,1.500,3.500
3.699,2.500,-2.000,1.000,4.500
3.700,2.500,-1.500,0.500,4.500
3.701,2.500,-1.500,0.000,4.000
3.702,1.500,-2.500,-0.500,3.000
3.703,0.500,-3.000,-1.000,2.500
3.704,0.000,-4.000,-1.000,2.000
3.705,0.000,-4.000,-1.000,2.000
3.706,0.500,-3.500,-1.000,2.500
3.707,1.000,-3.000,0.000,2.500
3.708,1.500,-2.500,0.500,2.500
3.709,1.500,-2.000,1.500,2.500
3.710,1.500,-2.000,2.000,2.000
3.711,2.000,-2.000,2.000,1.500
3.712,2.000,-2.500,1.500,1.000
3.713,2.000,-3.000,0.500,0.500
3.714,1.500,-3.000,-0.500,-0.500
3.715,1.000,-3.000,-1.000,-0.500
3.716,1.000,-3.500,-1.500,-1.000
3.717,0.500,-3.500,-1.000,-1.000
3.718,1.000,-3.500,-1.000,-1.000
3.719,1.000,-3.000,-1.000,-0.500
3.720,1.500,-2.500,-1.000,0.000
3.721,2.500,-1.500,-1.000,0.500
3.722,3.000,-1.000,-1.000,0.500
3.723,3.000,-0.500,-0.500,0.000
3.724,3.000,-0.500,0.000,-1.000
3.725,2.500,-1.500,0.500,-1.500
3.726,1.500,-2.000,1.500,-2.500
3.727,1.000,-2.000,2.000,-2.500
3.728,0.500,-2.000,3.000,-2.000
3.729,0.500,-1.500,3.500,-1.500
3.730,1.000,-0.500,4.000,-0.500
3.731,2.000,0.000,4.000,-0.500
3.732,2.500,0.500,4.000,-0.500
3.733,3.000,0.500,4.000,-0.500
3.734,3.500,0.000,3.500,-0.500
3.735,3.000,0.000,3.500,0.000
3.736,3.000,0.000,3.500,0.500
3.737,3.000,0.500,4.000,1.000
3.738,3.000,0.500,3.500,1.500
3.739,3.500,1.000,3.000,1.500
3.740,4.000,1.500,2.500,1.500
