'Elapsed time','AECG1','AECG2','AECG3','AECG4'
'seconds','uV','uV','uV','uV'
0.000,21.500,31.500,132.000,12.500
0.001,21.500,31.500,132.000,13.500
0.002,21.500,31.500,132.500,14.500
0.003,22.000,31.000,133.000,15.500
0.004,21.500,31.000,133.000,16.500
0.005,21.500,31.000,133.500,17.000
0.006,21.000,30.500,134.000,17.000
0.007,21.000,30.500,134.000,17.000
0.008,21.000,30.500,134.000,17.000
0.009,21.500,30.500,134.000,17.000
0.010,21.500,31.000,134.000,16.500
0.011,21.500,31.500,133.500,16.000
0.012,22.000,32.000,133.500,15.500
0.013,22.000,32.500,133.500,14.500
0.014,22.000,33.000,133.000,13.500
0.015,22.000,33.000,133.000,12.500
0.016,22.000,33.000,133.500,12.000
0.017,22.000,33.000,133.500,11.500
0.018,22.000,33.500,133.500,11.500
0.019,22.500,33.500,133.500,12.000
0.020,23.000,34.000,134.000,13.000
0.021,23.500,34.000,134.000,14.000
0.022,23.500,34.000,134.000,15.500
0.023,23.500,34.000,134.500,16.500
0.024,23.500,33.500,134.500,17.500
0.025,23.000,33.500,134.500,17.500
0.026,22.500,33.000,135.000,18.000
0.027,22.500,33.000,135.500,18.000
0.028,22.500,33.500,135.500,18.000
0.029,22.500,33.500,135.500,17.500
0.030,22.500,34.000,135.500,17.000
0.031,22.500,34.500,135.000,16.500
0.032,22.500,35.000,135.000,16.000
0.033,22.500,35.000,134.500,15.000
0.034,22.500,35.000,134.500,14.000
0.035,22.500,35.000,134.500,13.000
0.036,22.500,35.000,134.500,12.500
0.037,22.500,35.000,135.000,12.000
0.038,23.000,35.500,135.500,12.000
0.039,23.500,35.500,135.500,12.500
0.040,24.000,35.500,136.000,13.500
0.041,24.000,36.000,136.500,14.500
0.042,24.500,36.000,137.000,16.000
0.043,24.500,36.000,137.500,17.000
0.044,24.500,36.000,138.000,18.000
0.045,24.500,36.000,139.000,18.500
0.046,24.000,36.000,139.500,18.500
0.047,24.000,36.000,139.500,18.500
0.048,24.000,36.500,139.500,18.500
0.049,24.000,36.500,139.000,18.500
0.050,24.000,36.500,138.500,18.000
0.051,24.000,36.500,138.000,17.000
0.052,24.000,36.000,137.000,16.000
0.053,24.000,36.000,136.500,15.000
0.054,24.000,36.000,136.000,14.000
0.055,24.000,35.500,136.000,13.000
0.056,24.000,36.000,136.000,12.000
0.057,24.000,36.500,136.500,12.000
0.058,24.500,37.000,137.000,12.000
0.059,25.000,37.500,138.000,13.000
0.060,25.500,38.000,138.500,14.000
0.061,26.000,38.000,139.000,15.000
0.062,26.000,37.500,139.500,16.500
0.063,26.500,37.500,140.000,18.000
0.064,26.500,37.000,140.500,18.500
0.065,26.500,36.500,141.000,19.000
0.066,26.000,36.500,141.000,19.500
0.067,26.000,36.500,141.500,19.000
0.068,25.500,36.500,141.500,19.000
0.069,25.000,36.500,141.000,18.500
0.070,25.000,36.500,140.500,17.500
0.071,25.000,36.000,140.000,16.500
0.072,25.000,36.000,139.000,15.500
0.073,24.500,35.500,138.000,14.500
0.074,24.000,35.000,137.000,13.000
0.075,23.000,34.500,137.000,11.500
0.076,22.500,34.000,136.500,10.500
0.077,22.000,33.500,136.500,10.000
0.078,21.500,33.500,136.500,10.000
0.079,21.500,33.500,137.000,10.500
0.080,21.000,33.500,137.000,11.500
0.081,21.000,33.000,137.500,13.000
0.082,21.000,33.000,138.000,14.500
0.083,21.000,33.000,138.500,16.500
0.084,21.000,33.000,139.500,18.000
0.085,21.000,33.000,140.500,19.500
0.086,21.000,33.000,141.000,21.000
0.087,21.000,33.000,142.000,22.000
0.088,21.500,33.500,143.000,23.500
0.089,22.000,34.500,143.500,25.000
0.090,22.500,35.500,144.500,26.000
0.091,23.000,36.500,145.500,27.000
0.092,24.000,37.500,146.000,28.500
0.093,24.500,38.500,147.000,29.500
0.094,25.000,39.500,148.000,30.000
0.095,25.500,40.500,149.000,31.000
0.096,25.500,41.500,150.000,31.500
0.097,26.000,42.500,151.500,32.500
0.098,26.500,43.000,152.500,34.000
0.099,27.500,44.000,154.000,35.500
0.100,28.500,45.000,155.000,37.000
0.101,29.500,46.000,156.000,39.000
0.102,30.500,46.500,157.500,41.500
0.103,32.000,47.500,158.500,43.000
0.104,33.000,48.500,159.500,44.500
0.105,34.000,49.000,160.500,45.500
0.106,35.500,50.000,161.500,45.500
0.107,37.000,51.500,162.000,45.500
0.108,38.500,52.500,162.000,45.000
0.109,40.000,53.000,161.500,43.500
0.110,41.000,53.500,160.500,42.000
0.111,42.000,54.000,159.500,40.500
0.112,42.500,54.000,158.000,38.500
0.113,42.500,54.000,157.000,36.500
0.114,42.500,53.500,155.500,34.000
0.115,41.500,53.000,154.500,32.000
0.116,40.500,52.500,153.500,30.000
0.117,40.000,51.500,153.000,29.000
0.118,39.000,51.000,152.500,28.000
0.119,38.500,50.500,152.000,28.000
0.120,38.000,49.500,151.500,28.500
0.121,37.500,49.000,151.500,29.000
0.122,36.500,48.000,151.000,29.500
0.123,36.000,47.500,150.500,30.000
0.124,35.000,47.000,150.000,30.000
0.125,34.500,46.000,150.000,30.000
0.126,33.500,45.500,149.500,29.500
0.127,33.000,44.500,149.000,28.500
0.128,32.000,44.000,148.000,27.500
0.129,31.500,43.000,147.000,26.000
0.130,30.500,42.000,145.500,24.500
0.131,30.000,41.500,144.500,23.500
0.132,30.000,41.000,143.000,22.000
0.133,29.500,40.500,141.500,20.500
0.134,29.000,40.500,140.500,19.000
0.135,28.500,40.000,140.000,17.000
0.136,28.000,39.500,140.000,16.000
0.137,27.500,39.500,139.500,15.000
0.138,27.500,39.500,140.000,15.000
0.139,27.500,39.500,140.000,15.500
0.140,28.000,39.500,140.000,16.500
0.141,28.000,39.500,140.500,17.500
0.142,28.000,39.500,140.500,19.000
0.143,28.000,39.500,141.000,20.000
0.144,28.000,39.500,141.500,21.000
0.145,28.000,39.500,142.000,21.500
0.146,27.500,39.500,142.500,22.000
0.147,27.500,39.500,143.000,22.000
0.148,27.000,39.500,143.000,22.000
0.149,27.500,39.500,142.500,21.500
0.150,27.500,39.500,142.500,21.000
0.151,27.500,40.000,142.000,20.500
0.152,28.000,40.000,141.500,19.500
0.153,28.000,40.000,141.000,18.500
0.154,27.500,40.000,140.500,17.500
0.155,27.000,40.000,140.500,16.500
0.156,27.000,40.000,140.500,15.500
0.157,27.000,40.000,140.500,15.500
0.158,27.000,40.000,141.000,15.500
0.159,27.000,40.000,141.000,16.000
0.160,27.500,40.000,141.500,17.000
0.161,28.000,40.500,141.500,18.000
0.162,28.500,40.500,142.000,19.000
0.163,28.500,40.500,142.000,20.000
0.164,28.500,40.000,142.500,20.500
0.165,28.000,40.000,142.500,21.000
0.166,28.000,40.000,142.500,21.000
0.167,27.500,40.000,142.000,21.000
0.168,27.000,40.000,142.000,21.000
0.169,27.000,40.000,142.000,21.000
0.170,27.000,40.000,141.500,20.500
0.171,27.500,40.500,141.500,20.000
0.172,27.500,40.500,141.000,19.000
0.173,27.500,40.500,140.500,18.000
0.174,27.000,40.500,140.500,17.000
0.175,26.500,40.500,140.000,15.500
0.176,26.000,40.500,140.000,14.500
0.177,26.000,40.000,140.500,14.000
0.178,26.000,40.500,140.500,14.000
0.179,26.000,40.500,140.500,14.500
0.180,26.500,40.500,141.000,15.500
0.181,27.000,40.500,141.500,16.500
0.182,27.500,40.500,141.500,18.000
0.183,27.500,40.500,142.000,19.000
0.184,27.500,40.000,142.000,20.000
0.185,27.000,40.000,142.500,20.500
0.186,27.000,40.000,143.000,21.000
0.187,27.000,39.500,143.500,21.500
0.188,27.000,39.500,143.500,21.000
0.189,27.000,39.500,143.500,21.000
0.190,27.000,39.500,143.000,20.500
0.191,27.500,40.000,142.500,20.000
0.192,27.500,40.000,142.000,19.000
0.193,27.500,40.500,141.500,18.500
0.194,27.500,41.000,141.500,18.000
0.195,27.500,41.500,142.000,17.000
0.196,27.500,41.500,142.500,16.500
0.197,27.500,42.000,143.000,16.000
0.198,27.500,42.000,143.000,16.000
0.199,27.500,42.000,143.500,16.000
0.200,27.500,42.500,144.000,17.000
0.201,28.000,42.500,144.000,18.000
0.202,28.000,42.500,144.500,19.000
0.203,28.000,42.000,145.000,20.500
0.204,28.000,42.000,145.000,21.000
0.205,28.000,41.500,145.500,22.000
0.206,27.500,41.500,146.000,22.000
0.207,27.500,41.000,146.000,22.000
0.208,27.500,41.000,146.000,22.000
0.209,27.000,41.000,145.500,21.500
0.210,27.500,41.000,145.000,21.000
0.211,27.500,41.000,144.500,20.500
0.212,27.500,41.000,143.500,19.500
0.213,27.000,41.000,143.000,18.500
0.214,27.000,41.000,142.500,17.500
0.215,27.000,41.000,142.500,16.500
0.216,26.500,41.500,143.000,15.500
0.217,26.500,41.500,143.000,15.000
0.218,26.500,41.500,143.500,15.000
0.219,27.000,41.500,144.000,15.500
0.220,27.500,42.000,144.000,16.500
0.221,27.500,42.000,144.500,18.000
0.222,28.000,42.000,145.000,19.000
0.223,28.000,41.500,145.000,20.000
0.224,28.000,41.000,145.500,20.500
0.225,27.500,40.500,145.500,21.000
0.226,27.000,40.500,145.500,21.000
0.227,27.000,40.000,145.500,21.500
0.228,26.500,40.000,145.500,21.500
0.229,26.500,40.000,145.500,21.000
0.230,27.000,40.000,145.000,21.000
0.231,27.000,40.000,144.000,20.500
0.232,27.000,40.000,143.500,19.500
0.233,27.000,40.500,142.500,19.000
0.234,27.000,40.500,142.000,18.000
0.235,26.500,40.500,141.500,17.000
0.236,26.500,40.500,141.500,16.000
0.237,26.500,40.000,141.500,15.500
0.238,26.500,40.000,142.000,15.500
0.239,26.500,40.000,142.000,16.000
0.240,26.500,40.000,142.500,16.500
0.241,26.500,40.000,142.500,17.500
0.242,26.500,40.000,143.000,18.500
0.243,26.500,39.500,143.000,20.000
0.244,26.000,39.500,143.500,21.000
0.245,26.000,39.000,143.500,21.500
0.246,25.500,39.000,143.500,22.000
0.247,25.500,38.500,143.500,22.000
0.248,25.000,38.500,143.500,22.000
0.249,25.000,38.500,143.000,22.000
0.250,25.000,39.000,142.000,21.500
0.251,25.000,39.000,141.500,21.000
0.252,25.500,39.500,141.000,20.000
0.253,25.500,40.000,140.500,19.000
0.254,25.500,40.000,140.500,18.000
0.255,25.500,40.000,141.000,17.000
0.256,25.000,40.500,141.000,16.000
0.257,25.000,40.000,141.000,15.500
0.258,25.000,40.000,141.000,15.500
0.259,25.000,40.000,141.000,16.000
0.260,25.000,40.000,141.000,16.500
0.261,25.500,40.000,141.500,17.500
0.262,25.500,40.000,141.500,18.500
0.263,26.000,40.000,141.500,20.000
0.264,26.000,39.500,142.000,21.000
0.265,26.000,39.000,142.000,21.500
0.266,25.500,39.000,142.000,21.500
0.267,25.500,39.000,142.000,21.500
0.268,25.500,39.000,142.000,21.500
0.269,25.500,39.000,141.500,21.000
0.270,25.500,39.000,141.000,20.500
0.271,25.500,39.500,140.500,20.000
0.272,25.500,39.500,140.000,19.500
0.273,25.500,39.500,139.500,18.500
0.274,25.000,39.500,139.000,17.500
0.275,24.500,39.500,138.500,16.500
0.276,24.500,39.500,139.000,16.000
0.277,24.000,39.000,139.000,15.500
0.278,24.000,39.500,139.500,15.500
0.279,24.500,39.500,139.500,16.000
0.280,25.000,39.500,140.000,17.000
0.281,25.000,39.500,140.000,18.000
0.282,25.500,39.000,140.000,19.000
0.283,25.500,39.000,140.000,20.500
0.284,25.000,38.500,140.000,21.000
0.285,25.000,38.000,140.500,21.500
0.286,24.500,38.000,140.500,22.000
0.287,24.500,37.500,140.500,22.000
0.288,24.500,37.500,140.500,22.000
0.289,24.500,37.500,140.000,22.000
0.290,24.500,38.000,140.000,21.500
0.291,24.000,38.000,139.500,21.000
0.292,24.000,38.500,138.500,20.000
0.293,24.000,38.500,138.000,19.000
0.294,24.000,38.500,137.000,18.000
0.295,24.000,38.500,137.000,17.000
0.296,23.500,38.000,137.000,16.000
0.297,23.500,38.000,137.500,15.500
0.298,23.500,38.000,138.000,15.500
0.299,23.500,38.500,138.500,16.000
0.300,24.000,38.500,138.500,16.500
0.301,24.000,38.500,139.000,18.000
0.302,24.000,38.000,139.500,19.000
0.303,24.000,38.000,139.500,20.000
0.304,23.500,37.500,139.500,20.500
0.305,23.500,37.000,139.500,21.000
0.306,23.000,36.500,139.500,21.000
0.307,22.500,36.500,139.500,21.500
0.308,22.500,36.500,139.500,21.500
0.309,22.500,36.500,140.000,21.500
0.310,22.500,36.500,139.500,21.000
0.311,22.500,36.500,139.000,20.500
0.312,22.500,37.000,138.500,20.000
0.313,22.500,37.000,138.000,19.000
0.314,22.000,37.000,137.500,18.000
0.315,22.000,37.000,137.500,16.500
0.316,22.000,37.000,137.500,16.000
0.317,22.000,37.000,137.500,15.000
0.318,22.000,37.000,138.000,15.000
0.319,22.000,37.500,138.000,15.500
0.320,22.500,37.500,138.500,16.500
0.321,22.500,37.500,138.500,17.500
0.322,23.000,37.500,139.000,18.500
0.323,23.000,37.000,139.000,19.500
0.324,22.500,37.000,139.500,20.000
0.325,22.500,36.500,139.500,20.500
0.326,22.500,36.500,139.500,21.000
0.327,22.000,36.500,139.500,21.000
0.328,22.000,37.000,139.500,21.500
0.329,22.000,37.000,139.500,21.000
0.330,22.000,37.500,139.500,20.500
0.331,22.000,38.000,139.000,20.000
0.332,22.000,38.000,138.000,19.000
0.333,22.000,38.000,137.500,18.000
0.334,22.000,38.000,137.000,17.000
0.335,22.000,38.000,137.000,16.000
0.336,21.500,38.000,137.000,15.000
0.337,21.500,38.000,137.000,14.500
0.338,22.000,38.000,137.000,14.500
0.339,22.000,38.500,137.000,15.000
0.340,22.500,38.500,137.500,16.000
0.341,22.500,38.500,138.000,17.000
0.342,23.000,38.500,138.000,18.000
0.343,23.000,38.000,138.000,19.000
0.344,23.000,38.000,138.500,20.000
0.345,22.500,37.500,139.000,20.500
0.346,22.500,37.500,139.000,20.500
0.347,22.500,37.500,139.000,20.500
0.348,22.500,38.000,139.000,20.500
0.349,22.500,38.000,138.500,20.000
0.350,22.500,38.000,138.000,19.500
0.351,23.000,38.500,137.500,19.000
0.352,23.000,39.000,137.000,18.000
0.353,23.500,39.500,136.500,17.500
0.354,23.500,39.500,136.000,17.000
0.355,23.500,40.000,136.500,16.000
0.356,23.500,40.000,136.500,15.500
0.357,23.500,40.500,137.000,15.000
0.358,23.500,40.500,137.500,15.500
0.359,24.000,41.000,138.000,16.000
0.360,24.500,41.000,138.500,17.000
0.361,24.500,41.000,138.500,18.500
0.362,25.000,41.000,139.000,19.500
0.363,25.000,40.500,139.500,21.000
0.364,25.000,40.500,139.500,22.000
0.365,25.000,40.000,139.500,22.500
0.366,25.000,40.000,139.500,22.500
0.367,24.500,39.500,139.500,22.000
0.368,24.500,39.500,139.000,22.000
0.369,24.500,39.500,139.000,21.500
0.370,24.500,40.000,138.500,21.000
0.371,25.000,40.000,138.500,20.500
0.372,25.500,40.500,138.000,20.000
0.373,26.000,41.000,138.000,19.000
0.374,26.000,41.500,138.000,18.500
0.375,26.000,41.500,138.000,17.500
0.376,26.000,42.000,138.000,17.000
0.377,26.000,42.000,138.500,17.000
0.378,26.000,42.500,138.500,17.000
0.379,26.000,42.500,139.000,17.500
0.380,26.500,42.500,139.000,18.500
0.381,26.500,42.500,139.000,19.500
0.382,26.500,42.500,139.000,20.500
0.383,26.500,42.000,139.000,21.500
0.384,26.500,42.000,139.000,22.500
0.385,26.500,41.500,139.000,23.000
0.386,26.000,41.500,139.000,23.000
0.387,26.000,41.000,138.500,23.500
0.388,25.500,41.000,138.000,23.000
0.389,25.500,41.000,137.500,23.000
0.390,26.000,41.000,137.000,22.000
0.391,26.000,41.000,136.000,21.500
0.392,26.500,41.000,135.500,20.500
0.393,26.500,41.500,135.500,19.500
0.394,26.500,41.500,135.000,18.500
0.395,26.500,42.000,135.000,18.000
0.396,26.500,42.000,135.000,17.000
0.397,26.500,42.500,135.000,16.500
0.398,26.500,42.500,135.000,16.500
0.399,26.500,42.500,135.000,16.500
0.400,26.500,42.000,135.000,17.500
0.401,26.500,41.500,135.000,18.000
0.402,26.500,41.000,134.500,19.000
0.403,26.000,40.000,134.500,19.500
0.404,26.000,39.500,134.000,20.000
0.405,25.000,38.500,134.000,20.000
0.406,24.500,38.000,133.500,20.000
0.407,24.000,37.500,133.000,19.500
0.408,23.500,37.500,132.500,19.000
0.409,23.000,37.000,131.000,18.000
0.410,22.500,36.500,130.000,17.000
0.411,22.000,36.000,128.500,16.000
0.412,21.500,35.500,127.000,14.000
0.413,20.500,34.500,125.500,12.500
0.414,20.000,34.000,124.500,11.000
0.415,19.500,34.000,124.000,9.500
0.416,19.000,34.000,123.500,8.500
0.417,19.000,34.000,124.000,8.500
0.418,19.500,34.500,125.000,9.000
0.419,20.500,35.000,125.500,10.000
0.420,21.000,35.500,126.000,11.500
0.421,22.000,36.000,127.000,13.000
0.422,23.000,36.500,127.500,15.000
0.423,23.500,37.000,128.500,16.500
0.424,24.000,37.000,129.000,18.000
0.425,24.000,37.500,130.000,19.000
0.426,24.500,38.000,131.000,20.000
0.427,25.000,38.500,131.500,21.000
0.428,25.000,39.000,132.000,21.500
0.429,25.500,39.500,132.500,22.000
0.430,26.000,40.500,132.500,22.000
0.431,26.500,41.000,132.000,21.500
0.432,27.000,41.500,132.000,21.500
0.433,27.000,42.000,131.500,20.500
0.434,27.000,42.500,131.000,20.000
0.435,27.000,42.500,131.000,18.500
0.436,26.500,42.500,131.000,17.500
0.437,26.000,42.500,131.000,17.000
0.438,26.000,42.000,131.000,17.000
0.439,25.500,42.000,131.000,17.000
0.440,26.000,42.500,131.500,17.500
0.441,26.000,42.500,131.500,18.500
0.442,26.500,42.500,132.000,20.000
0.443,26.500,42.500,132.000,21.000
0.444,26.500,42.000,132.500,21.500
0.445,26.000,42.000,132.500,22.000
0.446,26.000,41.500,133.000,22.500
0.447,25.500,41.500,133.000,22.500
0.448,25.500,41.500,132.500,22.000
0.449,25.500,41.000,132.000,21.500
0.450,25.500,41.000,131.500,21.000
0.451,25.500,41.500,131.000,20.500
0.452,25.500,41.500,130.000,20.000
0.453,25.500,41.500,129.500,19.000
0.454,25.500,41.500,129.000,17.500
0.455,25.000,41.500,129.000,16.500
0.456,25.000,41.500,128.500,15.500
0.457,24.500,41.500,128.500,15.000
0.458,24.500,41.500,128.500,15.000
0.459,25.000,42.000,128.500,16.000
0.460,25.000,42.000,129.000,17.000
0.461,25.500,42.500,129.000,18.000
0.462,26.000,42.500,129.500,19.500
0.463,26.000,42.000,129.500,20.500
0.464,25.500,42.000,130.000,21.000
0.465,25.000,41.500,130.000,21.500
0.466,25.000,41.000,130.500,22.000
0.467,24.500,40.500,131.000,22.000
0.468,24.500,40.500,131.000,22.000
0.469,24.500,40.500,130.500,21.500
0.470,24.500,40.500,130.000,21.000
0.471,24.500,40.500,129.500,20.500
0.472,24.500,40.500,128.500,20.000
0.473,24.500,41.000,128.000,19.000
0.474,24.000,41.000,127.000,18.000
0.475,24.000,41.000,127.000,17.000
0.476,24.000,41.000,127.000,16.500
0.477,24.000,41.000,127.000,16.000
0.478,24.000,41.000,127.000,16.000
0.479,24.000,41.000,127.500,16.500
0.480,24.000,41.000,127.500,17.000
0.481,24.000,40.500,128.000,18.000
0.482,24.500,40.500,128.000,19.000
0.483,24.500,40.000,128.000,20.000
0.484,24.500,39.500,128.500,20.500
0.485,24.500,39.500,129.000,21.000
0.486,24.500,39.500,129.500,21.000
0.487,24.500,39.500,130.500,21.000
0.488,24.500,40.000,130.500,21.000
0.489,24.500,40.000,130.500,20.500
0.490,24.500,40.000,130.500,20.500
0.491,25.000,40.000,130.000,20.000
0.492,24.500,40.500,129.000,19.000
0.493,24.500,40.500,128.500,18.000
0.494,24.500,40.500,128.000,17.000
0.495,24.000,40.500,127.500,15.500
0.496,24.000,40.500,127.000,14.500
0.497,23.500,40.000,127.000,13.500
0.498,23.500,40.000,127.000,13.500
0.499,23.500,40.000,127.000,13.500
0.500,23.500,39.500,126.500,14.500
0.501,23.500,39.500,126.500,15.500
0.502,24.000,39.500,126.500,16.500
0.503,24.000,39.000,127.000,17.500
0.504,23.500,39.000,127.000,18.500
0.505,23.500,38.500,127.000,19.000
0.506,23.000,38.500,127.000,19.000
0.507,23.000,38.000,127.000,19.000
0.508,22.500,38.000,127.000,19.000
0.509,22.500,38.000,126.500,19.000
0.510,22.500,38.000,126.000,18.500
0.511,23.000,38.000,125.500,18.000
0.512,23.000,38.000,125.000,17.000
0.513,23.000,38.000,124.000,16.000
0.514,23.000,38.000,123.500,15.000
0.515,22.500,38.000,123.500,14.000
0.516,22.500,38.000,123.500,13.000
0.517,22.500,38.000,123.500,12.000
0.518,22.500,38.000,123.500,12.000
0.519,23.000,38.000,123.000,12.500
0.520,23.000,38.000,123.000,13.500
0.521,23.000,38.500,123.000,15.000
0.522,23.500,38.500,123.000,16.000
0.523,23.500,38.500,123.000,17.000
0.524,23.000,38.000,123.000,18.000
0.525,22.500,37.500,123.000,18.000
0.526,22.500,37.000,122.500,18.000
0.527,22.000,36.500,122.500,18.000
0.528,21.500,36.500,122.000,17.500
0.529,21.500,36.500,121.000,17.000
0.530,21.000,36.500,120.000,16.500
0.531,21.000,37.000,119.000,16.000
0.532,21.000,37.000,118.500,15.000
0.533,21.000,37.000,117.500,14.000
0.534,21.000,37.500,117.000,13.000
0.535,20.500,37.500,117.000,12.000
0.536,20.500,37.000,116.500,11.000
0.537,20.000,37.000,116.500,10.000
0.538,20.000,36.500,116.500,10.000
0.539,20.000,36.000,116.500,10.500
0.540,20.000,36.000,116.000,11.000
0.541,20.000,36.000,116.000,11.500
0.542,20.000,35.500,116.000,12.500
0.543,20.000,35.500,116.000,13.500
0.544,20.000,35.500,116.000,14.000
0.545,19.500,35.000,116.500,14.500
0.546,19.500,35.000,117.000,15.000
0.547,19.000,35.000,117.500,15.000
0.548,19.000,35.000,117.500,15.000
0.549,19.000,35.000,117.000,15.000
0.550,18.500,34.500,117.000,14.500
0.551,18.500,34.500,116.000,13.500
0.552,18.000,34.500,115.500,13.000
0.553,18.000,34.500,114.500,12.000
0.554,17.500,34.000,114.000,10.500
0.555,17.000,34.000,114.000,9.500
0.556,16.500,34.000,114.000,8.500
0.557,16.500,34.000,114.000,7.500
0.558,16.000,34.000,114.000,7.500
0.559,16.000,34.000,114.500,8.000
0.560,16.000,34.000,114.500,9.000
0.561,16.500,34.000,115.000,10.500
0.562,17.000,34.000,115.000,11.500
0.563,17.000,33.500,115.000,12.500
0.564,17.000,33.000,115.000,13.500
0.565,16.500,32.500,115.500,14.000
0.566,16.000,32.500,115.500,14.000
0.567,15.500,32.000,115.500,14.000
0.568,15.000,32.000,115.500,13.500
0.569,15.000,32.000,115.500,13.500
0.570,14.500,32.000,114.500,12.500
0.571,14.500,31.500,114.000,12.000
0.572,14.500,31.500,113.000,11.000
0.573,14.000,31.000,112.000,10.000
0.574,13.500,31.000,111.000,9.000
0.575,13.000,30.500,111.000,7.500
0.576,12.500,30.000,110.500,6.500
0.577,12.500,30.000,110.500,6.000
0.578,12.500,30.000,111.000,6.000
0.579,12.500,30.000,111.000,6.500
0.580,13.000,30.000,111.000,7.500
0.581,13.000,30.000,111.500,9.000
0.582,13.000,30.000,111.500,10.500
0.583,13.000,30.000,111.500,11.500
0.584,13.000,29.500,111.500,12.500
0.585,12.500,29.500,111.500,13.000
0.586,12.000,29.000,111.500,13.500
0.587,12.000,29.000,111.500,13.500
0.588,12.000,28.500,111.000,13.000
0.589,11.500,28.500,110.500,13.000
0.590,11.500,28.500,110.000,12.500
0.591,12.000,29.000,109.500,12.000
0.592,12.000,29.000,108.500,11.000
0.593,12.000,29.500,108.000,10.000
0.594,12.000,29.500,107.500,9.000
0.595,12.000,29.000,107.000,8.000
0.596,12.000,29.000,106.500,6.500
0.597,11.500,29.000,106.500,6.000
0.598,12.000,29.000,106.500,6.000
0.599,12.000,28.500,106.500,6.000
0.600,12.500,28.500,106.500,7.000
0.601,13.000,29.000,106.500,8.000
0.602,13.500,29.000,106.500,9.000
0.603,13.500,28.500,106.000,10.500
0.604,13.500,28.500,106.000,11.000
0.605,13.000,28.000,106.000,11.500
0.606,12.500,27.500,106.000,11.500
0.607,12.500,27.500,106.000,11.500
0.608,12.000,27.500,106.000,11.500
0.609,12.000,27.500,106.000,11.000
0.610,12.000,27.500,105.500,10.500
0.611,12.000,27.500,104.500,10.000
0.612,12.000,28.000,104.000,9.000
0.613,12.000,28.000,103.500,8.000
0.614,12.000,28.000,103.000,7.000
0.615,11.500,28.000,102.500,6.000
0.616,11.500,28.000,102.000,5.000
0.617,11.000,28.000,102.000,4.000
0.618,11.000,28.000,102.000,4.000
0.619,11.500,28.000,102.000,4.500
0.620,11.500,28.000,102.500,5.500
0.621,12.000,28.000,102.500,6.500
0.622,12.000,28.000,103.000,7.500
0.623,12.000,28.000,103.500,9.000
0.624,12.000,28.000,103.500,10.000
0.625,12.000,27.500,104.000,10.500
0.626,11.500,27.500,104.500,11.000
0.627,11.500,27.500,105.000,11.000
0.628,11.000,27.500,104.500,11.000
0.629,11.500,27.500,104.500,10.500
0.630,11.500,27.500,104.000,10.000
0.631,11.500,28.000,103.500,9.000
0.632,12.000,28.000,102.500,8.000
0.633,12.000,28.000,102.000,7.000
0.634,12.000,28.000,101.500,6.000
0.635,12.000,28.000,101.000,5.000
0.636,12.000,28.000,101.000,4.000
0.637,12.000,28.500,101.000,3.000
0.638,12.000,28.500,101.000,3.000
0.639,12.500,28.500,101.000,3.500
0.640,13.000,29.000,101.500,4.500
0.641,13.000,29.000,101.500,5.500
0.642,13.500,29.000,101.500,6.500
0.643,13.500,29.000,102.000,8.000
0.644,13.000,29.000,102.500,9.000
0.645,13.000,28.500,102.500,9.500
0.646,13.000,28.500,102.500,10.000
0.647,12.500,28.000,102.500,10.000
0.648,12.500,28.000,102.000,10.000
0.649,12.500,27.500,101.500,9.500
0.650,12.500,27.500,101.000,9.000
0.651,13.000,28.000,100.500,8.500
0.652,13.000,28.000,99.500,7.500
0.653,13.000,28.500,99.000,7.000
0.654,13.000,28.500,98.500,6.000
0.655,13.000,28.500,98.000,5.000
0.656,13.000,29.000,98.000,4.000
0.657,12.500,29.000,98.000,3.500
0.658,12.500,29.000,98.000,4.000
0.659,12.500,29.500,98.000,4.500
0.660,13.000,29.500,98.500,5.500
0.661,13.500,30.000,99.000,6.500
0.662,13.500,30.000,99.500,8.000
0.663,14.000,30.000,100.000,9.000
0.664,14.000,29.500,100.000,10.000
0.665,13.500,29.500,100.500,10.500
0.666,13.500,29.000,101.000,11.000
0.667,13.500,29.000,101.000,11.500
0.668,13.500,29.000,101.000,11.000
0.669,13.500,29.000,100.500,11.000
0.670,13.000,29.000,100.500,10.500
0.671,13.000,29.500,100.000,10.000
0.672,13.000,29.500,99.500,9.000
0.673,12.500,29.000,98.500,8.000
0.674,12.500,29.000,98.000,6.500
0.675,12.000,29.000,98.000,5.500
0.676,12.000,29.000,98.000,4.500
0.677,12.500,29.000,98.000,4.000
0.678,12.500,29.000,98.500,4.500
0.679,13.000,29.500,99.000,5.000
0.680,13.500,29.500,99.000,5.500
0.681,13.500,29.500,99.000,6.500
0.682,13.500,29.000,99.000,7.500
0.683,13.500,29.000,99.000,8.000
0.684,13.000,28.500,99.000,8.500
0.685,12.500,28.000,99.000,9.000
0.686,12.000,27.000,99.000,8.500
0.687,11.500,26.500,98.500,8.500
0.688,10.500,26.000,98.000,8.000
0.689,10.000,25.500,97.000,7.000
0.690,9.000,25.000,96.000,6.500
0.691,8.500,24.500,95.000,6.000
0.692,8.000,24.500,94.000,5.000
0.693,7.500,24.500,93.500,4.500
0.694,7.500,24.000,93.000,3.500
0.695,7.000,24.000,93.000,3.000
0.696,6.500,24.000,93.500,3.000
0.697,6.000,24.000,94.000,3.000
0.698,6.000,24.000,95.000,4.000
0.699,6.000,24.500,96.000,5.500
0.700,6.500,25.500,97.000,7.500
0.701,7.000,26.000,98.500,10.500
0.702,8.000,26.500,100.000,13.000
0.703,8.500,27.500,101.500,16.000
0.704,9.000,28.000,103.500,19.000
0.705,9.500,28.500,105.000,21.500
0.706,10.000,29.500,107.000,24.000
0.707,10.500,30.500,108.500,26.000
0.708,10.500,31.500,110.000,27.500
0.709,11.000,32.500,110.500,29.000
0.710,11.000,33.000,111.000,30.000
0.711,11.000,33.500,111.000,30.500
0.712,11.500,34.500,111.000,30.500
0.713,12.000,35.000,111.500,30.500
0.714,12.500,36.000,111.500,30.500
0.715,13.500,37.000,112.000,30.000
0.716,14.500,38.000,113.000,30.000
0.717,15.500,39.000,113.500,30.000
0.718,17.000,40.000,114.000,30.000
0.719,18.500,41.000,115.000,30.500
0.720,20.500,42.500,115.000,31.000
0.721,22.500,43.500,115.000,31.500
0.722,24.000,44.000,115.000,32.000
0.723,25.500,44.500,115.000,32.000
0.724,26.000,44.500,114.500,32.000
0.725,26.500,44.500,114.500,31.500
0.726,26.500,44.000,114.500,31.000
0.727,26.500,43.500,114.000,30.000
0.728,26.000,43.000,113.000,28.500
0.729,25.500,42.000,112.000,27.000
0.730,24.500,41.500,110.000,25.500
0.731,24.000,40.500,108.500,24.000
0.732,23.000,39.500,106.500,21.500
0.733,22.000,38.500,104.500,19.500
0.734,21.000,37.500,103.000,17.500
0.735,20.000,37.000,102.000,15.000
0.736,19.000,36.000,101.500,13.500
0.737,18.000,35.000,101.000,12.000
0.738,17.500,34.500,100.000,11.000
0.739,17.000,34.000,99.500,10.500
0.740,16.500,33.000,99.000,10.500
0.741,16.000,32.500,98.500,11.000
0.742,15.500,32.000,97.500,11.500
0.743,15.000,31.000,97.000,12.000
0.744,14.000,30.000,96.000,12.000
0.745,13.000,29.000,95.500,12.000
0.746,12.500,28.000,95.000,11.500
0.747,11.500,27.500,95.000,11.500
0.748,11.000,27.000,94.500,11.000
0.749,10.500,26.500,94.000,10.000
0.750,10.500,26.000,93.000,9.500
0.751,10.500,26.000,92.500,8.500
0.752,10.500,26.000,91.500,7.000
0.753,10.500,26.000,90.500,6.000
0.754,10.500,26.000,90.000,4.500
0.755,10.500,26.000,89.500,3.500
0.756,10.000,26.000,89.500,2.500
0.757,10.000,25.500,89.500,2.000
0.758,9.500,26.000,89.500,2.000
0.759,10.000,26.000,90.000,2.500
0.760,10.500,26.500,90.000,3.000
0.761,10.500,27.000,90.000,4.500
0.762,11.000,27.000,90.500,5.500
0.763,11.000,27.000,90.500,7.000
0.764,11.000,26.500,90.500,8.000
0.765,10.500,26.000,91.000,8.500
0.766,10.500,25.500,91.000,8.500
0.767,10.000,25.500,91.000,8.500
0.768,9.500,25.500,91.000,8.000
0.769,9.500,25.500,90.500,7.500
0.770,10.000,26.000,90.000,7.000
0.771,10.000,26.000,89.500,6.500
0.772,10.000,26.000,89.000,5.500
0.773,10.500,26.000,88.000,4.500
0.774,10.000,26.000,87.500,3.500
0.775,10.000,26.000,87.000,2.500
0.776,9.500,26.000,86.500,1.500
0.777,9.500,26.000,86.500,0.500
0.778,9.000,26.000,86.500,0.500
0.779,9.000,26.000,87.000,1.000
0.780,9.000,26.000,87.000,2.000
0.781,9.500,26.500,87.000,3.000
0.782,9.500,26.500,86.500,4.500
0.783,9.500,26.500,86.500,5.500
0.784,9.500,26.000,86.500,6.500
0.785,9.500,26.000,86.500,7.000
0.786,9.000,26.000,87.000,7.000
0.787,9.000,26.000,87.500,7.000
0.788,9.000,26.000,87.500,7.000
0.789,9.000,26.000,87.500,7.000
0.790,9.000,26.000,87.000,7.000
0.791,9.000,26.000,86.500,6.500
0.792,9.000,26.000,85.500,5.500
0.793,9.000,26.500,85.000,5.000
0.794,9.000,26.500,84.500,4.000
0.795,9.000,26.500,84.500,3.000
0.796,9.000,26.500,85.000,2.000
0.797,8.500,26.500,85.500,1.500
0.798,8.500,27.000,85.500,1.500
0.799,8.500,27.000,85.500,1.500
0.800,8.500,27.000,85.500,2.000
0.801,8.500,27.000,85.500,3.000
0.802,9.000,26.500,86.000,4.000
0.803,9.000,26.500,86.000,5.500
0.804,8.500,26.000,86.000,6.000
0.805,8.500,25.500,86.000,6.500
0.806,8.000,25.000,86.000,7.000
0.807,7.500,24.500,86.000,7.000
0.808,7.500,24.000,86.000,6.500
0.809,7.500,24.000,85.500,6.500
0.810,7.500,24.000,85.500,6.000
0.811,7.500,24.000,85.000,5.500
0.812,8.000,24.500,85.000,4.500
0.813,8.000,24.500,84.500,3.500
0.814,7.500,24.500,84.000,2.500
0.815,7.500,24.500,83.500,1.000
0.816,7.000,24.500,83.500,0.000
0.817,7.000,24.500,83.500,-1.000
0.818,7.000,24.500,83.500,-1.000
0.819,7.000,24.500,83.500,-1.000
0.820,7.000,24.500,84.000,0.000
0.821,7.500,24.000,84.000,1.500
0.822,7.500,24.000,84.500,3.000
0.823,8.000,24.000,84.500,4.000
0.824,7.500,24.000,84.500,5.000
0.825,7.500,24.000,85.000,5.500
0.826,7.000,23.500,85.000,6.000
0.827,6.500,23.500,85.500,6.500
0.828,6.500,23.500,86.000,7.000
0.829,6.500,24.000,86.000,7.000
0.830,6.500,24.000,85.500,6.500
0.831,6.500,24.000,85.500,6.000
0.832,7.000,24.500,85.000,5.000
0.833,6.500,24.500,84.500,4.000
0.834,6.500,24.500,84.000,3.000
0.835,6.000,24.500,84.000,2.000
0.836,6.000,24.500,84.000,1.000
0.837,5.500,24.500,84.000,0.500
0.838,5.500,24.500,84.500,0.000
0.839,5.500,24.500,85.000,0.500
0.840,6.000,24.500,85.000,1.500
0.841,6.500,25.000,85.500,2.500
0.842,6.500,25.000,85.500,4.000
0.843,7.000,25.000,86.000,5.500
0.844,7.000,25.000,86.500,6.500
0.845,7.000,24.500,87.000,7.000
0.846,6.500,24.500,87.000,7.500
0.847,6.000,24.500,86.500,7.000
0.848,6.000,24.000,86.000,7.000
0.849,5.500,24.000,85.000,6.000
0.850,5.000,23.500,84.000,5.500
0.851,4.500,23.500,83.000,4.500
0.852,4.500,23.000,82.000,3.500
0.853,4.500,23.000,81.000,2.000
0.854,4.000,22.500,80.000,0.500
0.855,3.500,22.000,79.000,-1.000
0.856,3.000,21.500,78.000,-2.000
0.857,2.000,21.000,77.500,-3.500
0.858,1.500,20.500,77.000,-4.000
0.859,1.500,20.000,77.000,-3.500
0.860,1.500,20.000,77.000,-3.000
0.861,2.000,20.000,77.500,-1.500
0.862,2.500,20.500,78.000,0.500
0.863,3.000,20.500,79.000,2.000
0.864,3.000,21.000,80.000,3.500
0.865,3.000,21.000,81.000,4.500
0.866,3.500,21.500,82.000,5.500
0.867,4.000,22.000,83.000,6.000
0.868,4.500,23.000,83.500,6.500
0.869,5.000,23.500,84.000,7.000
0.870,6.000,24.500,84.000,7.500
0.871,6.500,25.500,84.000,7.500
0.872,7.000,26.000,83.500,7.500
0.873,7.500,27.000,83.500,7.000
0.874,7.500,27.500,83.000,6.500
0.875,8.000,28.000,83.000,6.000
0.876,8.000,28.500,83.500,5.500
0.877,8.000,28.500,84.000,5.500
0.878,8.000,29.000,84.500,5.500
0.879,8.500,29.000,84.500,6.000
0.880,8.500,29.000,85.000,6.500
0.881,8.500,28.500,85.000,7.500
0.882,8.500,28.000,84.500,8.500
0.883,8.000,27.500,84.500,9.000
0.884,7.500,27.000,84.000,9.500
0.885,7.500,26.500,84.000,9.500
0.886,7.000,26.500,84.000,9.500
0.887,6.500,26.000,84.000,9.500
0.888,6.500,26.000,83.500,9.500
0.889,6.500,25.500,82.500,9.000
0.890,6.500,25.500,82.000,8.500
0.891,6.500,25.500,81.500,8.000
0.892,6.500,25.500,81.000,7.000
0.893,6.500,25.500,80.000,6.000
0.894,6.000,25.500,79.500,5.000
0.895,6.000,25.500,79.500,4.000
0.896,5.500,25.500,79.500,3.000
0.897,5.500,25.500,79.500,2.500
0.898,5.500,25.500,80.000,2.500
0.899,5.500,25.000,80.000,3.000
0.900,5.500,25.500,80.500,4.000
0.901,6.000,25.500,80.500,5.500
0.902,6.000,25.500,80.500,6.500
0.903,6.000,25.500,81.000,8.000
0.904,6.000,25.500,81.000,9.000
0.905,6.000,25.000,81.500,9.500
0.906,6.000,25.000,81.500,10.000
0.907,5.500,25.000,81.500,10.000
0.908,5.500,25.000,81.500,9.500
0.909,5.000,25.000,81.500,9.000
0.910,5.000,24.500,81.000,8.500
0.911,5.000,24.500,80.000,8.000
0.912,4.500,25.000,79.500,7.000
0.913,4.500,25.000,78.500,6.000
0.914,4.500,25.000,78.500,5.000
0.915,4.500,25.000,78.000,4.000
0.916,4.000,25.000,78.500,3.000
0.917,4.000,24.500,78.500,2.500
0.918,4.000,24.500,79.000,2.500
0.919,4.000,24.000,79.000,3.000
0.920,4.500,24.000,79.500,3.500
0.921,4.500,24.000,79.500,4.500
0.922,4.500,24.000,79.500,5.500
0.923,4.500,23.500,79.500,6.500
0.924,4.500,23.500,80.000,7.500
0.925,4.000,23.000,80.500,8.000
0.926,4.000,23.000,80.500,8.500
0.927,3.500,22.500,81.000,8.500
0.928,3.500,22.500,81.000,8.500
0.929,3.500,22.500,81.000,8.500
0.930,3.500,22.500,80.500,8.500
0.931,3.500,23.000,80.500,8.000
0.932,3.500,23.000,80.000,7.000
0.933,3.500,23.500,79.500,6.000
0.934,3.000,23.500,79.000,5.000
0.935,2.500,23.500,79.000,4.000
0.936,2.500,23.500,79.000,2.500
0.937,2.000,23.000,79.000,2.000
0.938,2.000,23.000,79.000,2.000
0.939,2.000,23.000,79.000,2.000
0.940,2.500,23.500,79.000,3.000
0.941,3.000,23.500,79.500,4.000
0.942,3.500,23.000,79.500,5.000
0.943,3.500,23.000,80.000,6.500
0.944,3.500,23.000,80.500,7.500
0.945,3.500,23.000,81.000,8.000
0.946,3.500,22.500,81.500,8.500
0.947,3.000,22.500,81.500,8.500
0.948,3.000,22.500,81.000,8.500
0.949,3.000,22.500,81.000,8.000
0.950,3.000,23.000,80.000,7.500
0.951,3.000,23.000,79.500,6.500
0.952,3.000,23.000,78.500,5.500
0.953,3.000,23.000,78.000,4.500
0.954,3.000,22.500,77.500,3.000
0.955,2.500,22.500,77.500,2.000
0.956,2.000,22.000,77.000,1.000
0.957,2.000,22.000,77.000,0.500
0.958,2.000,22.000,77.000,0.500
0.959,2.500,22.500,77.000,1.000
0.960,2.500,22.500,77.000,1.500
0.961,3.000,22.500,77.000,2.500
0.962,3.000,22.500,77.000,3.500
0.963,3.000,22.000,77.000,4.500
0.964,3.000,22.000,77.000,5.000
0.965,2.500,21.500,77.000,5.500
0.966,2.500,21.500,77.500,5.500
0.967,2.500,21.500,78.000,5.500
0.968,2.500,21.500,78.000,5.500
0.969,3.000,21.500,78.000,5.500
0.970,3.000,22.000,77.500,5.000
0.971,3.500,22.000,77.000,4.500
0.972,3.500,22.500,76.500,4.000
0.973,3.500,22.500,76.000,3.000
0.974,3.500,23.000,75.500,2.000
0.975,3.500,23.000,75.000,1.500
0.976,3.500,23.000,75.000,0.500
0.977,3.500,23.500,75.000,0.000
0.978,4.000,23.500,75.500,0.500
0.979,4.000,24.000,76.000,1.000
0.980,4.500,24.000,76.000,2.000
0.981,5.000,24.000,76.500,3.500
0.982,5.500,24.000,77.000,5.000
0.983,5.500,24.000,77.500,6.500
0.984,6.000,24.000,78.000,7.500
0.985,6.000,24.000,78.500,8.000
0.986,6.000,24.000,79.000,8.500
0.987,6.000,24.000,79.500,8.500
0.988,6.000,24.000,80.000,8.500
0.989,5.500,24.000,80.000,8.500
0.990,5.500,24.000,80.000,8.000
0.991,6.000,24.500,79.500,7.500
0.992,6.000,25.000,79.000,7.000
0.993,6.500,25.500,78.500,6.000
0.994,6.500,26.000,78.000,5.500
0.995,6.500,26.000,78.000,4.500
0.996,6.500,25.500,78.500,3.500
0.997,6.000,25.500,78.500,3.000
0.998,6.500,25.000,78.500,2.500
0.999,6.500,25.000,79.000,2.500
1.000,7.000,24.500,79.000,3.000
1.001,7.500,24.500,79.000,4.000
1.002,7.500,24.500,79.500,5.500
1.003,8.000,24.500,80.000,6.500
1.004,7.500,24.500,80.000,7.500
1.005,7.500,24.000,80.500,8.000
1.006,7.000,24.000,80.500,8.500
1.007,7.000,23.500,80.500,8.500
1.008,6.500,23.500,80.000,8.000
1.009,6.500,23.000,79.500,7.500
1.010,6.500,23.000,79.000,7.000
1.011,6.500,23.000,78.000,6.000
1.012,6.000,23.000,77.500,5.500
1.013,6.000,23.000,76.500,4.500
1.014,5.500,23.000,76.000,3.000
1.015,5.000,22.500,75.500,2.000
1.016,5.000,22.500,75.000,1.000
1.017,5.000,22.500,75.500,0.000
1.018,5.000,22.500,75.500,0.000
1.019,5.000,22.500,75.500,0.500
1.020,5.500,23.000,76.000,1.500
1.021,6.000,23.000,76.000,3.000
1.022,6.000,23.000,76.500,4.500
1.023,6.500,23.000,76.500,5.500
1.024,6.500,23.000,77.000,6.500
1.025,6.500,23.000,77.500,7.500
1.026,6.000,22.500,77.500,7.500
1.027,6.000,22.500,77.500,7.500
1.028,5.500,22.000,77.500,7.000
1.029,5.500,21.500,77.000,6.500
1.030,6.000,21.500,76.500,6.000
1.031,6.000,22.000,76.000,5.500
1.032,6.500,22.000,75.500,5.000
1.033,6.500,22.500,75.000,4.500
1.034,6.500,22.500,74.500,4.000
1.035,6.000,22.500,74.000,3.000
1.036,6.000,22.000,74.000,2.000
1.037,6.000,22.000,74.000,1.500
1.038,6.000,22.000,74.000,1.500
1.039,6.500,22.500,74.000,1.500
1.040,7.000,22.500,74.500,2.000
1.041,7.500,22.500,74.500,3.000
1.042,8.000,22.500,75.000,4.500
1.043,8.000,22.500,75.000,5.500
1.044,8.000,22.500,75.500,6.500
1.045,8.000,22.000,75.500,7.500
1.046,8.000,22.000,76.000,8.000
1.047,8.000,21.500,76.500,8.000
1.048,7.500,22.000,76.500,8.000
1.049,7.500,22.000,76.000,8.000
1.050,8.000,22.000,76.000,8.000
1.051,8.000,22.500,75.500,7.500
1.052,8.500,22.500,75.000,7.000
1.053,8.500,23.000,75.000,6.500
1.054,9.000,23.500,75.000,5.500
1.055,9.000,23.500,75.000,4.500
1.056,8.500,23.500,75.000,3.500
1.057,8.500,23.500,75.000,3.000
1.058,8.500,23.500,75.500,3.000
1.059,8.500,23.500,75.500,3.500
1.060,9.000,24.000,76.000,4.500
1.061,9.500,24.500,76.500,6.000
1.062,9.500,24.500,76.500,7.000
1.063,10.000,25.000,77.000,8.500
1.064,10.000,24.500,77.000,9.000
1.065,9.500,24.000,77.000,9.500
1.066,9.500,23.500,77.500,10.000
1.067,9.000,23.500,77.500,10.000
1.068,9.000,23.500,77.500,10.000
1.069,9.000,23.500,77.500,10.000
1.070,9.000,23.500,77.000,9.500
1.071,9.000,23.500,76.500,9.000
1.072,9.000,24.000,76.000,8.500
1.073,9.500,24.000,76.000,7.500
1.074,9.500,24.500,76.000,6.500
1.075,9.500,24.500,76.000,6.000
1.076,9.000,24.500,76.000,5.000
1.077,9.000,24.500,76.000,4.000
1.078,9.000,24.500,76.000,3.500
1.079,9.000,24.500,76.500,4.000
1.080,9.500,24.500,76.500,4.500
1.081,9.500,24.500,77.000,5.500
1.082,10.000,24.500,77.000,7.000
1.083,10.000,24.500,77.500,8.000
1.084,10.500,24.500,77.500,9.000
1.085,10.500,24.000,78.000,9.500
1.086,10.000,24.000,78.000,10.000
1.087,10.000,23.500,78.000,10.000
1.088,10.000,23.500,78.000,10.000
1.089,10.000,23.000,78.000,9.500
1.090,10.000,23.000,77.500,9.500
1.091,10.000,23.500,77.000,8.500
1.092,10.500,23.500,76.000,8.000
1.093,10.500,23.500,75.500,7.000
1.094,10.500,23.500,75.000,6.000
1.095,10.500,23.500,75.000,5.000
1.096,10.000,23.500,75.000,4.000
1.097,10.000,23.000,75.000,3.000
1.098,10.000,23.000,75.000,3.000
1.099,10.000,23.000,75.000,3.000
1.100,10.500,23.000,75.000,3.500
1.101,11.000,23.000,75.500,5.000
1.102,11.500,23.500,75.500,6.000
1.103,11.500,23.500,76.000,7.500
1.104,12.000,23.500,76.500,8.500
1.105,12.000,23.000,77.500,9.000
1.106,12.000,23.000,78.000,9.500
1.107,11.500,23.000,78.000,9.500
1.108,11.500,23.000,78.500,9.500
1.109,11.500,23.000,78.000,9.500
1.110,12.000,23.500,77.500,9.000
1.111,12.000,23.500,77.000,9.000
1.112,12.000,24.000,76.500,8.000
1.113,12.000,24.000,75.500,7.500
1.114,12.000,24.500,75.500,6.000
1.115,11.500,24.500,75.000,5.000
1.116,11.500,24.500,75.000,4.000
1.117,11.500,24.000,75.500,3.000
1.118,11.500,24.500,75.500,3.000
1.119,12.000,24.500,76.000,3.500
1.120,12.500,25.000,76.500,4.500
1.121,12.500,25.000,77.000,6.000
1.122,13.000,25.000,77.000,7.000
1.123,12.500,25.000,77.500,8.500
1.124,12.500,25.000,77.500,9.500
1.125,12.000,24.500,78.000,10.000
1.126,11.500,24.500,78.500,10.000
1.127,11.000,24.000,78.500,10.500
1.128,11.000,24.000,78.500,10.000
1.129,10.500,24.000,78.500,10.000
1.130,11.000,24.000,78.000,9.500
1.131,11.000,24.000,77.000,9.000
1.132,11.000,23.500,76.000,8.000
1.133,11.000,23.500,75.500,7.000
1.134,11.000,23.500,74.500,6.000
1.135,11.000,23.500,74.000,5.000
1.136,10.500,23.500,74.000,4.000
1.137,10.500,23.500,74.500,3.500
1.138,10.500,23.500,74.500,3.500
1.139,11.000,23.500,75.000,3.500
1.140,11.500,23.500,75.000,4.500
1.141,11.500,24.000,75.500,5.000
1.142,11.500,24.000,75.500,6.000
1.143,11.500,24.000,76.000,7.000
1.144,11.500,23.500,76.500,7.500
1.145,11.000,23.500,76.500,8.000
1.146,10.500,23.000,77.000,8.500
1.147,10.000,23.000,77.000,8.500
1.148,10.000,23.000,77.000,8.500
1.149,10.000,23.000,77.000,8.000
1.150,10.000,23.500,76.500,7.500
1.151,10.500,23.500,76.500,7.000
1.152,10.500,23.500,76.000,6.000
1.153,10.500,24.000,75.500,5.000
1.154,10.500,24.000,75.000,4.000
1.155,10.000,24.000,74.500,3.000
1.156,10.000,24.000,74.000,2.000
1.157,10.000,23.500,74.500,1.500
1.158,9.500,23.500,74.500,1.000
1.159,9.500,23.500,74.500,1.000
1.160,10.000,23.500,75.000,2.000
1.161,10.000,23.500,75.000,3.000
1.162,10.000,23.000,75.500,4.000
1.163,10.000,23.000,75.500,5.000
1.164,10.000,22.500,76.000,6.000
1.165,10.000,22.000,76.500,6.500
1.166,9.500,22.000,77.000,6.500
1.167,9.500,22.000,77.000,7.000
1.168,9.500,22.000,77.500,7.000
1.169,9.500,22.000,77.000,6.500
1.170,9.500,22.000,77.000,6.500
1.171,9.500,22.500,76.000,6.000
1.172,9.500,22.500,75.500,5.500
1.173,9.500,23.000,74.500,4.500
1.174,9.500,23.000,74.000,3.500
1.175,9.500,23.000,73.500,2.500
1.176,9.000,23.000,73.500,1.500
1.177,9.000,23.000,73.500,1.000
1.178,9.000,23.000,73.500,0.500
1.179,9.000,23.000,73.500,1.000
1.180,9.000,23.000,74.000,2.000
1.181,9.000,22.500,74.000,3.000
1.182,9.000,22.500,74.000,4.000
1.183,9.000,22.500,74.000,5.000
1.184,8.500,22.000,74.000,5.500
1.185,8.500,21.500,74.000,6.000
1.186,8.000,21.500,74.500,6.000
1.187,7.500,21.500,75.000,6.500
1.188,7.500,21.500,75.000,6.500
1.189,7.500,21.500,75.000,6.500
1.190,7.500,21.500,75.000,6.500
1.191,8.000,22.000,74.500,6.000
1.192,8.000,22.000,73.500,5.500
1.193,8.000,22.500,73.000,4.500
1.194,8.000,22.500,72.500,3.500
1.195,7.500,22.500,72.500,2.500
1.196,7.500,23.000,72.500,2.000
1.197,7.500,23.000,72.500,1.000
1.198,7.500,23.000,73.000,1.000
1.199,7.500,23.000,73.000,1.500
1.200,8.000,23.500,73.000,2.500
1.201,8.000,24.000,73.500,4.000
1.202,8.500,24.000,73.500,5.000
1.203,8.500,24.000,74.000,6.500
1.204,9.000,24.000,74.000,7.000
1.205,9.000,23.500,74.500,8.000
1.206,9.000,23.500,75.000,8.500
1.207,9.000,23.500,75.500,8.500
1.208,8.500,23.000,75.500,8.500
1.209,8.500,23.000,75.000,8.000
1.210,8.500,23.000,74.500,7.500
1.211,8.500,23.500,74.000,7.000
1.212,8.500,23.500,73.500,6.000
1.213,8.500,24.000,73.000,5.000
1.214,8.500,24.000,72.500,4.000
1.215,8.500,23.500,72.500,3.000
1.216,8.000,23.500,72.500,1.500
1.217,8.000,23.500,72.500,1.000
1.218,8.000,23.500,72.500,1.000
1.219,8.500,23.500,73.000,1.500
1.220,9.000,23.500,73.000,2.000
1.221,9.000,23.500,73.500,3.000
1.222,9.500,24.000,74.000,4.500
1.223,10.000,24.000,74.000,6.000
1.224,10.000,24.000,74.500,7.000
1.225,9.500,24.000,75.000,7.500
1.226,9.500,23.500,75.500,8.000
1.227,9.500,23.500,75.500,8.000
1.228,9.000,23.000,75.500,8.000
1.229,9.000,23.000,75.500,8.000
1.230,9.000,23.000,75.500,7.500
1.231,9.500,23.500,75.000,6.500
1.232,9.500,23.500,74.500,6.000
1.233,10.000,23.500,74.000,4.500
1.234,10.000,23.500,73.500,3.500
1.235,10.000,23.500,73.500,2.500
1.236,10.000,23.500,73.500,1.500
1.237,9.500,23.500,73.500,1.000
1.238,9.500,23.500,73.500,1.000
1.239,9.500,23.500,73.000,1.500
1.240,10.000,23.500,73.500,2.000
1.241,10.000,23.500,73.500,3.000
1.242,10.500,23.500,73.500,4.500
1.243,10.500,23.500,74.000,5.500
1.244,10.500,23.500,74.500,6.500
1.245,10.500,23.500,74.500,7.000
1.246,10.500,24.000,75.000,7.500
1.247,10.000,24.000,75.000,7.500
1.248,9.500,24.000,75.000,7.000
1.249,9.000,24.000,74.500,6.500
1.250,9.000,24.000,73.500,6.000
1.251,9.000,24.000,72.500,5.500
1.252,9.000,24.000,72.000,5.000
1.253,9.500,24.500,71.000,4.500
1.254,9.500,24.500,70.500,3.500
1.255,9.500,24.500,70.500,3.000
1.256,9.500,24.500,70.500,2.000
1.257,9.500,24.500,71.000,1.500
1.258,9.500,24.500,71.000,1.500
1.259,9.500,24.500,71.500,2.000
1.260,9.500,24.500,72.000,2.500
1.261,10.000,24.500,72.000,3.500
1.262,10.500,24.500,72.500,4.500
1.263,10.500,24.000,72.500,5.500
1.264,10.500,24.000,72.500,6.500
1.265,10.500,23.500,73.000,7.000
1.266,10.500,23.000,73.500,7.500
1.267,10.000,23.000,73.500,8.000
1.268,10.000,23.000,73.500,8.000
1.269,10.000,23.000,73.500,7.500
1.270,10.000,23.500,73.500,7.500
1.271,10.500,23.500,73.000,7.000
1.272,10.500,24.000,72.500,6.500
1.273,10.500,24.000,72.000,5.500
1.274,10.500,24.000,72.000,4.500
1.275,10.000,24.000,72.500,3.500
1.276,10.000,24.000,72.500,2.500
1.277,10.000,24.000,73.000,1.500
1.278,10.000,24.000,73.500,1.500
1.279,10.000,24.000,73.500,1.500
1.280,10.500,24.500,74.000,2.500
1.281,11.000,24.500,74.500,3.500
1.282,11.500,25.000,75.000,4.500
1.283,12.000,25.000,75.000,6.000
1.284,12.000,25.000,75.500,7.000
1.285,12.000,25.000,76.000,8.000
1.286,12.000,25.000,77.000,8.500
1.287,12.000,25.000,77.500,9.000
1.288,12.000,25.500,77.500,9.000
1.289,12.000,25.500,77.500,9.000
1.290,12.000,25.500,77.000,8.500
1.291,12.000,25.500,76.000,8.000
1.292,12.000,25.500,75.000,7.000
1.293,11.500,25.000,74.000,6.000
1.294,11.000,24.500,73.000,4.500
1.295,10.500,24.000,72.000,2.500
1.296,9.500,23.500,71.000,1.000
1.297,9.000,22.500,70.500,-0.500
1.298,8.500,22.000,69.500,-1.000
1.299,7.500,21.500,69.000,-1.000
1.300,7.000,20.500,69.000,-1.000
1.301,6.000,19.500,68.500,-0.500
1.302,5.500,18.500,68.000,0.000
1.303,4.500,17.500,67.500,1.000
1.304,3.500,16.500,67.500,1.500
1.305,2.500,15.500,67.500,2.500
1.306,2.000,15.000,68.000,3.500
1.307,1.500,15.000,68.500,4.500
1.308,1.500,15.500,69.500,5.500
1.309,1.500,16.000,70.500,6.500
1.310,2.000,16.500,71.000,8.000
1.311,2.500,17.500,71.500,9.000
1.312,3.000,18.500,72.500,10.000
1.313,4.000,20.000,73.500,11.500
1.314,5.000,21.500,75.500,13.500
1.315,6.500,23.500,77.500,15.500
1.316,7.500,25.000,79.500,18.000
1.317,9.000,27.000,82.000,20.000
1.318,10.000,28.500,84.000,22.500
1.319,11.000,30.000,86.000,25.000
1.320,12.000,31.500,88.000,28.000
1.321,13.000,32.500,89.500,31.000
1.322,14.000,33.500,91.000,34.000
1.323,14.500,34.500,93.000,37.000
1.324,15.500,35.500,94.500,39.000
1.325,16.500,36.500,96.000,41.000
1.326,17.000,37.000,97.000,42.000
1.327,18.000,38.000,98.000,42.000
1.328,19.000,38.500,98.000,42.000
1.329,20.500,39.500,98.000,41.500
1.330,22.000,40.500,97.000,40.500
1.331,23.500,41.500,96.500,39.000
1.332,25.500,42.500,95.500,37.500
1.333,27.000,43.500,95.000,35.500
1.334,28.000,44.000,94.000,33.500
1.335,29.000,44.500,93.500,31.000
1.336,29.000,44.000,92.500,29.000
1.337,29.000,43.500,92.000,27.000
1.338,28.500,43.000,91.500,25.500
1.339,28.500,42.500,90.500,25.000
1.340,28.000,42.000,90.000,24.500
1.341,28.000,41.000,89.000,24.500
1.342,27.500,40.000,88.500,24.500
1.343,27.000,39.000,87.500,24.500
1.344,26.000,37.500,87.000,24.500
1.345,25.000,36.500,86.500,24.000
1.346,24.000,35.500,85.500,23.500
1.347,23.000,34.500,85.000,22.500
1.348,22.000,34.000,84.000,22.000
1.349,21.500,33.000,83.000,21.000
1.350,20.500,32.500,82.000,19.500
1.351,20.000,32.000,80.500,18.000
1.352,19.000,31.500,79.000,16.500
1.353,18.500,31.000,78.000,14.500
1.354,17.500,30.000,77.000,12.500
1.355,16.500,29.500,76.500,11.000
1.356,15.500,28.500,75.500,9.000
1.357,15.000,28.000,75.000,8.000
1.358,14.500,27.500,74.500,7.000
1.359,14.000,27.000,73.500,7.000
1.360,13.500,26.500,73.000,7.000
1.361,13.500,26.000,73.000,7.500
1.362,13.500,25.500,72.500,8.500
1.363,13.500,25.500,72.500,10.000
1.364,13.000,25.000,72.500,10.500
1.365,13.000,24.500,72.500,11.000
1.366,12.500,24.500,72.500,11.500
1.367,12.500,24.500,72.500,11.000
1.368,12.500,24.500,72.500,11.000
1.369,13.000,24.500,72.000,10.500
1.370,13.000,24.500,71.500,10.000
1.371,13.500,25.000,71.000,9.500
1.372,13.500,25.000,70.500,9.000
1.373,13.500,25.500,69.500,8.000
1.374,13.500,25.500,69.000,6.500
1.375,13.500,25.500,68.500,5.500
1.376,13.000,25.000,68.500,4.500
1.377,13.000,25.000,68.500,4.000
1.378,12.500,25.000,69.000,3.500
1.379,12.500,25.500,69.000,4.000
1.380,13.000,25.500,69.000,4.500
1.381,13.000,25.500,69.000,5.500
1.382,13.500,25.000,69.000,6.500
1.383,13.500,24.500,69.000,7.500
1.384,13.500,24.000,69.500,8.500
1.385,13.500,24.000,70.000,9.000
1.386,13.500,24.000,71.000,9.500
1.387,13.000,23.500,71.500,10.000
1.388,13.500,23.500,71.500,10.000
1.389,13.500,23.500,71.500,9.500
1.390,13.500,24.000,71.500,9.000
1.391,13.500,24.000,71.000,9.000
1.392,13.500,24.500,70.500,8.500
1.393,13.500,25.000,69.500,8.000
1.394,13.500,25.000,69.000,7.000
1.395,13.500,25.000,69.000,6.000
1.396,13.000,25.000,69.000,5.000
1.397,13.000,24.500,69.000,4.000
1.398,13.000,25.000,69.000,4.000
1.399,13.000,25.000,69.500,4.500
1.400,13.000,25.500,70.000,5.000
1.401,13.000,25.500,70.500,6.000
1.402,13.000,25.000,70.500,7.500
1.403,13.000,24.500,70.500,8.500
1.404,13.000,24.500,70.500,9.500
1.405,13.000,24.000,70.500,10.000
1.406,13.000,23.500,71.000,10.500
1.407,12.500,23.500,70.500,11.000
1.408,12.500,23.500,70.500,11.000
1.409,12.000,23.000,70.000,10.500
1.410,12.000,23.000,69.000,10.000
1.411,11.500,23.000,68.500,9.000
1.412,11.500,23.000,67.500,8.000
1.413,11.500,23.000,67.000,7.000
1.414,11.500,23.000,66.500,5.500
1.415,11.500,23.000,66.500,4.000
1.416,11.000,22.500,66.500,3.000
1.417,11.000,22.500,67.000,2.500
1.418,11.000,23.000,67.500,2.000
1.419,11.500,23.000,68.000,2.500
1.420,12.000,23.000,68.500,3.500
1.421,12.000,23.000,69.000,4.500
1.422,12.500,23.000,69.000,5.500
1.423,12.500,23.000,69.000,6.500
1.424,12.500,23.000,69.000,7.500
1.425,12.000,22.500,69.500,8.000
1.426,11.500,22.000,69.500,8.500
1.427,11.500,22.000,70.000,8.500
1.428,11.500,22.000,70.000,8.500
1.429,11.500,22.000,70.000,8.500
1.430,11.500,22.000,69.500,8.500
1.431,11.500,22.500,69.000,8.000
1.432,11.500,22.500,68.500,7.500
1.433,11.500,23.000,68.000,6.500
1.434,11.500,23.000,67.500,5.500
1.435,11.500,23.500,67.500,4.500
1.436,11.000,23.500,67.500,3.500
1.437,11.500,23.500,68.000,2.500
1.438,11.500,23.500,68.000,2.500
1.439,12.000,23.500,68.500,3.000
1.440,12.000,24.000,68.500,4.000
1.441,12.500,24.000,69.000,5.000
1.442,12.500,24.000,69.000,6.500
1.443,12.500,24.000,69.500,7.500
1.444,12.500,23.500,70.000,8.500
1.445,12.500,23.500,70.500,9.500
1.446,12.000,23.000,71.000,10.000
1.447,12.000,23.000,71.000,10.000
1.448,12.000,23.000,71.000,10.000
1.449,12.000,23.000,70.500,10.000
1.450,12.000,23.500,70.000,9.500
1.451,12.000,23.500,69.500,9.000
1.452,12.000,23.500,68.500,8.000
1.453,11.500,23.500,67.500,7.500
1.454,11.500,23.500,67.000,6.500
1.455,11.500,23.500,66.500,5.500
1.456,11.500,23.500,66.500,5.000
1.457,11.500,23.500,67.000,4.500
1.458,11.500,23.500,67.000,4.500
1.459,12.000,24.000,67.500,5.000
1.460,12.000,24.000,68.000,6.000
1.461,12.500,24.000,68.000,7.000
1.462,12.500,24.500,68.500,8.500
1.463,13.000,24.500,68.500,10.000
1.464,13.000,24.500,69.000,11.000
1.465,13.000,24.500,69.500,11.500
1.466,13.000,24.500,70.000,11.500
1.467,12.500,24.000,70.000,11.500
1.468,12.500,24.000,70.000,11.500
1.469,12.500,24.000,70.000,11.000
1.470,12.500,24.000,69.500,10.500
1.471,12.500,24.000,69.000,9.500
1.472,12.500,24.000,68.000,9.000
1.473,12.500,24.000,67.500,8.000
1.474,12.500,24.000,67.500,7.000
1.475,12.500,24.000,67.500,6.000
1.476,12.500,24.000,67.500,5.000
1.477,12.500,24.000,68.000,4.500
1.478,12.000,24.000,68.000,4.500
1.479,12.000,24.500,68.500,5.000
1.480,12.500,24.500,68.500,5.500
1.481,12.500,24.500,69.000,6.500
1.482,12.500,25.000,69.500,7.500
1.483,12.500,25.000,70.500,9.000
1.484,12.500,24.500,71.000,9.500
1.485,12.000,24.500,71.500,10.500
1.486,12.000,24.000,72.000,10.500
1.487,11.500,23.500,72.500,11.000
1.488,11.500,23.500,72.500,11.000
1.489,11.500,23.500,72.500,11.000
1.490,11.500,23.500,72.000,10.500
1.491,11.500,23.500,71.500,10.000
1.492,11.500,23.500,71.000,9.500
1.493,11.000,24.000,71.000,8.500
1.494,11.000,24.000,70.500,7.500
1.495,11.000,24.500,70.500,6.500
1.496,11.000,24.500,70.000,6.000
1.497,11.000,24.500,70.000,5.000
1.498,11.000,24.500,70.000,5.000
1.499,11.500,24.500,70.500,5.000
1.500,11.500,24.500,70.500,6.000
1.501,12.000,24.500,71.000,7.000
1.502,12.500,24.500,71.500,8.000
1.503,12.500,24.500,71.500,9.500
1.504,12.500,24.500,72.000,10.500
1.505,12.000,24.000,72.000,11.500
1.506,12.000,23.500,72.500,12.000
1.507,12.000,23.500,72.500,12.000
1.508,12.000,23.000,72.500,12.000
1.509,12.000,23.000,73.000,12.000
1.510,12.000,23.500,73.000,12.000
1.511,12.000,23.500,73.000,11.500
1.512,12.000,24.000,72.500,11.000
1.513,12.000,24.000,72.500,10.000
1.514,11.500,23.500,72.000,9.000
1.515,11.500,23.500,71.500,8.000
1.516,11.000,23.000,71.000,7.000
1.517,11.000,23.000,71.000,6.500
1.518,11.000,23.000,70.500,6.500
1.519,11.000,23.000,70.500,6.500
1.520,11.500,23.500,70.500,7.500
1.521,12.000,23.500,70.500,8.500
1.522,12.000,23.500,70.500,9.500
1.523,12.000,23.000,71.000,11.000
1.524,12.500,23.000,71.500,12.000
1.525,12.000,22.500,72.500,12.500
1.526,12.000,22.000,73.000,13.000
1.527,12.000,22.000,73.000,13.500
1.528,11.500,21.500,73.000,13.500
1.529,11.500,21.500,73.000,13.000
1.530,11.500,21.500,72.500,13.000
1.531,11.500,21.500,72.000,12.500
1.532,11.500,22.000,71.500,12.000
1.533,12.000,22.000,71.000,11.000
1.534,12.000,22.500,70.500,10.000
1.535,12.000,22.500,70.500,9.000
1.536,12.000,22.000,70.500,8.000
1.537,12.000,22.500,71.000,7.500
1.538,12.000,22.500,71.500,7.500
1.539,12.000,22.500,72.000,7.500
1.540,12.000,22.500,72.500,8.000
1.541,12.000,22.500,73.000,9.000
1.542,12.000,22.000,73.000,10.000
1.543,12.000,22.000,73.000,11.000
1.544,12.000,21.500,73.500,12.000
1.545,11.500,21.500,73.500,12.500
1.546,11.500,21.500,74.000,13.000
1.547,11.500,21.000,74.000,13.000
1.548,11.000,21.000,74.000,13.000
1.549,11.000,20.500,74.000,12.500
1.550,11.500,20.500,73.500,12.000
1.551,11.500,21.000,73.000,11.500
1.552,11.500,21.000,72.000,11.000
1.553,11.500,21.000,71.500,10.500
1.554,11.500,21.000,70.500,9.000
1.555,11.000,21.000,70.000,8.000
1.556,11.000,21.000,70.000,7.000
1.557,11.000,21.000,70.500,6.000
1.558,11.000,21.000,70.500,6.000
1.559,11.000,21.500,71.000,6.000
1.560,11.500,21.500,71.500,7.000
1.561,12.000,21.500,71.500,8.000
1.562,12.500,22.000,72.000,9.000
1.563,12.500,22.000,72.500,10.500
1.564,12.500,22.000,73.000,11.500
1.565,12.500,22.000,73.000,12.500
1.566,12.500,22.000,73.500,13.000
1.567,12.500,22.000,74.000,13.000
1.568,12.500,22.000,74.500,13.000
1.569,12.500,22.000,74.500,13.000
1.570,12.500,22.000,74.500,12.500
1.571,13.000,22.500,74.000,11.500
1.572,13.000,22.500,73.000,11.000
1.573,13.000,22.500,72.500,10.000
1.574,13.000,23.000,72.000,9.500
1.575,13.000,23.000,71.500,8.500
1.576,13.000,23.500,72.000,8.000
1.577,13.000,23.500,72.000,7.500
1.578,13.500,23.500,72.500,7.500
1.579,13.500,23.500,73.000,8.000
1.580,14.000,24.000,73.000,8.500
1.581,14.500,24.000,73.500,9.500
1.582,15.000,24.000,74.500,11.000
1.583,15.500,24.000,75.000,12.500
1.584,15.500,24.000,75.500,13.500
1.585,15.500,23.500,76.000,14.000
1.586,15.500,23.500,76.500,14.500
1.587,15.500,23.500,76.500,15.000
1.588,15.500,23.500,76.500,15.000
1.589,15.500,23.500,76.000,15.000
1.590,15.000,23.500,75.500,14.500
1.591,15.000,24.000,74.500,13.500
1.592,15.000,24.000,73.500,13.000
1.593,15.000,24.500,73.000,12.000
1.594,15.000,24.500,72.500,11.000
1.595,14.500,24.500,72.500,10.000
1.596,14.500,24.000,72.500,9.000
1.597,14.500,24.000,73.000,8.500
1.598,15.000,24.000,73.000,8.500
1.599,15.000,24.000,73.500,9.000
1.600,15.500,24.000,74.000,9.500
1.601,16.000,24.000,74.500,10.500
1.602,16.000,24.000,74.500,12.000
1.603,16.500,24.500,75.000,13.000
1.604,16.500,24.500,75.000,14.000
1.605,16.000,24.000,75.500,14.500
1.606,16.000,24.000,76.000,15.500
1.607,16.000,24.000,76.000,15.500
1.608,15.500,24.000,76.500,15.500
1.609,15.500,24.000,76.000,15.500
1.610,15.500,24.000,76.000,15.000
1.611,16.000,24.500,75.500,14.500
1.612,16.000,25.000,74.500,14.000
1.613,16.500,25.000,74.000,13.000
1.614,16.500,25.000,73.500,12.000
1.615,16.500,25.000,73.000,11.000
1.616,16.000,25.000,73.000,9.500
1.617,16.000,25.000,73.000,9.000
1.618,16.500,25.000,73.000,8.500
1.619,16.500,25.000,73.500,9.000
1.620,17.000,25.500,73.500,9.500
1.621,17.000,25.500,74.000,10.500
1.622,17.000,25.500,74.000,12.000
1.623,17.000,25.000,74.000,13.000
1.624,16.500,25.000,74.000,14.000
1.625,16.500,24.500,74.500,14.000
1.626,16.000,24.000,74.500,14.500
1.627,16.000,24.000,74.500,14.500
1.628,16.000,24.000,74.500,14.000
1.629,16.000,24.000,74.500,14.000
1.630,16.000,24.000,74.000,13.500
1.631,16.000,24.500,73.500,13.000
1.632,16.000,25.000,73.000,12.500
1.633,16.000,25.000,72.500,11.500
1.634,16.000,25.000,72.000,10.500
1.635,16.000,25.000,72.000,10.000
1.636,16.000,25.000,72.000,9.000
1.637,15.500,25.000,72.000,8.500
1.638,15.500,25.000,72.000,8.000
1.639,15.500,25.000,72.000,8.500
1.640,15.500,25.000,72.000,9.000
1.641,16.000,25.000,72.000,10.000
1.642,16.000,25.000,72.000,11.500
1.643,16.500,25.000,72.500,12.500
1.644,16.500,25.000,72.500,13.500
1.645,16.500,25.000,72.500,14.000
1.646,16.000,24.500,72.500,14.500
1.647,16.000,24.500,73.000,15.000
1.648,15.500,24.000,73.000,14.500
1.649,15.500,24.000,73.000,14.500
1.650,15.500,23.500,72.500,14.000
1.651,15.000,23.500,71.500,13.500
1.652,15.500,24.000,70.500,12.500
1.653,15.500,24.000,69.500,12.000
1.654,15.500,24.000,69.000,11.000
1.655,15.500,24.500,68.000,10.000
1.656,15.000,24.500,68.000,9.000
1.657,15.000,24.500,68.000,8.500
1.658,15.000,24.500,68.500,8.000
1.659,15.000,24.500,69.000,8.500
1.660,15.500,24.500,69.000,9.000
1.661,16.000,24.500,69.500,10.000
1.662,16.000,24.500,69.500,11.000
1.663,16.000,24.000,69.500,12.000
1.664,16.000,24.000,70.000,13.000
1.665,16.000,23.500,70.500,14.000
1.666,15.500,23.500,71.000,14.500
1.667,15.500,23.000,71.000,14.500
1.668,15.500,23.000,71.500,14.500
1.669,15.500,23.000,71.000,14.000
1.670,15.500,23.500,71.000,14.000
1.671,15.500,23.500,70.500,13.500
1.672,16.000,24.000,70.000,13.000
1.673,16.000,24.500,69.500,12.000
1.674,16.000,24.500,69.500,11.500
1.675,15.500,24.500,69.000,10.500
1.676,15.500,24.500,69.500,9.500
1.677,15.500,25.000,69.500,9.000
1.678,15.500,25.000,69.500,8.500
1.679,15.500,25.000,69.500,8.500
1.680,15.500,25.000,70.000,9.000
1.681,15.500,25.000,70.500,10.000
1.682,16.000,25.000,71.000,11.000
1.683,16.000,25.000,71.500,12.500
1.684,15.500,25.000,72.000,13.500
1.685,15.500,24.500,72.500,14.000
1.686,15.500,24.000,73.000,15.000
1.687,15.500,24.000,73.500,15.500
1.688,15.000,24.000,73.500,15.500
1.689,15.000,24.000,73.500,15.500
1.690,15.000,24.000,73.000,15.000
1.691,15.000,24.000,72.000,14.000
1.692,15.000,24.000,71.000,13.000
1.693,15.500,24.000,70.500,12.500
1.694,15.500,24.500,70.000,11.500
1.695,15.500,24.500,70.000,10.500
1.696,15.000,24.000,70.000,10.000
1.697,15.000,24.000,70.000,9.500
1.698,15.000,24.500,70.500,9.500
1.699,15.000,24.500,70.500,9.500
1.700,15.500,24.500,71.000,10.500
1.701,16.000,24.500,71.000,11.500
1.702,16.000,24.500,71.500,12.500
1.703,16.500,24.500,72.000,13.500
1.704,16.500,24.000,72.500,14.500
1.705,16.500,23.500,72.500,15.000
1.706,16.000,23.500,72.500,15.000
1.707,15.500,23.000,72.500,15.000
1.708,15.500,23.000,72.500,15.000
1.709,15.500,22.500,72.500,14.500
1.710,15.500,23.000,72.500,14.000
1.711,15.500,23.000,72.000,13.500
1.712,15.500,23.000,71.500,12.500
1.713,15.500,22.500,70.500,11.500
1.714,15.000,22.500,70.000,10.000
1.715,15.000,22.500,70.000,9.000
1.716,14.500,22.000,69.500,8.000
1.717,14.500,22.000,69.500,7.500
1.718,14.500,22.000,70.000,7.000
1.719,14.500,22.500,70.000,7.500
1.720,15.000,23.000,70.500,8.500
1.721,15.000,23.000,70.500,9.500
1.722,15.500,23.000,70.500,10.500
1.723,15.500,23.000,71.000,11.500
1.724,16.000,23.000,71.000,12.000
1.725,16.000,22.500,71.000,13.000
1.726,15.500,22.500,71.500,13.000
1.727,15.500,22.500,71.500,13.500
1.728,15.000,22.500,71.500,13.500
1.729,15.000,22.500,71.000,13.000
1.730,15.000,22.500,71.000,12.500
1.731,15.000,22.500,70.000,11.500
1.732,14.500,22.000,69.500,10.500
1.733,14.500,22.000,68.500,9.000
1.734,13.500,21.500,67.500,7.500
1.735,13.000,21.000,66.500,6.000
1.736,12.000,20.500,66.000,4.500
1.737,11.500,19.500,65.500,3.500
1.738,11.000,19.000,65.000,2.500
1.739,10.500,18.000,65.000,2.500
1.740,10.000,17.000,64.500,2.500
1.741,9.500,16.500,63.500,2.500
1.742,9.500,15.500,63.000,3.000
1.743,9.500,15.000,63.000,4.000
1.744,9.500,15.000,63.000,5.000
1.745,9.500,15.000,63.000,5.500
1.746,10.000,15.000,63.500,6.500
1.747,10.000,15.000,64.000,7.000
1.748,10.500,15.500,64.500,7.000
1.749,10.500,16.000,64.500,7.500
1.750,11.000,16.000,64.500,7.000
1.751,11.500,16.500,64.500,7.000
1.752,11.500,17.000,64.000,6.500
1.753,11.500,18.000,63.500,5.500
1.754,12.000,18.500,63.000,4.500
1.755,12.000,19.000,63.500,4.000
1.756,12.000,19.000,64.000,3.500
1.757,12.500,19.500,64.500,3.000
1.758,12.500,20.000,65.000,3.500
1.759,13.000,20.000,65.500,3.500
1.760,13.000,20.500,66.000,4.500
1.761,13.500,21.000,66.500,5.500
1.762,14.000,21.000,66.500,7.000
1.763,14.000,21.000,67.000,8.000
1.764,14.000,20.500,67.000,9.000
1.765,13.500,20.000,66.500,9.500
1.766,13.000,19.500,66.500,9.000
1.767,12.000,19.000,66.000,9.000
1.768,11.000,18.500,65.500,8.000
1.769,10.500,18.000,64.500,7.500
1.770,10.500,17.500,64.000,6.500
1.771,10.500,17.000,63.000,6.000
1.772,10.000,16.500,62.000,5.000
1.773,10.000,16.500,61.000,4.000
1.774,10.000,16.500,60.500,3.000
1.775,9.500,16.500,60.000,2.000
1.776,9.500,16.500,59.500,1.000
1.777,9.000,16.500,59.500,0.500
1.778,9.000,16.500,59.500,0.000
1.779,9.000,16.500,59.500,0.000
1.780,9.000,16.500,59.500,1.000
1.781,9.000,16.500,59.500,1.500
1.782,9.000,16.000,59.500,2.500
1.783,9.500,15.500,59.500,3.500
1.784,9.000,15.000,59.500,4.500
1.785,9.000,14.500,60.000,5.000
1.786,8.500,14.500,60.000,5.000
1.787,8.000,14.000,60.500,5.500
1.788,7.500,14.000,61.000,5.000
1.789,7.500,14.000,60.500,5.000
1.790,7.000,14.000,60.500,4.500
1.791,7.000,14.000,60.000,3.500
1.792,7.000,14.000,59.000,2.500
1.793,7.000,14.000,58.500,2.000
1.794,7.000,14.500,58.500,1.000
1.795,7.000,14.500,58.000,0.000
1.796,7.000,14.500,58.000,-1.000
1.797,6.500,15.000,57.500,-1.500
1.798,6.500,15.000,57.500,-1.500
1.799,6.500,15.000,57.500,-1.500
1.800,6.500,15.500,58.000,-0.500
1.801,7.000,15.500,58.000,0.000
1.802,7.000,15.000,58.000,1.000
1.803,7.000,15.000,58.000,2.000
1.804,7.000,14.500,58.500,3.000
1.805,7.000,14.000,59.000,4.000
1.806,6.500,14.000,59.500,4.500
1.807,6.000,13.500,59.500,5.000
1.808,6.000,13.500,59.500,5.000
1.809,6.000,13.500,59.500,5.000
1.810,6.000,13.500,59.000,4.500
1.811,6.000,13.500,58.500,4.000
1.812,6.000,13.500,58.000,3.000
1.813,6.500,14.000,58.000,2.500
1.814,6.500,14.000,57.500,1.500
1.815,6.500,14.500,57.000,0.000
1.816,6.000,14.500,57.000,-1.000
1.817,6.000,14.000,57.000,-2.000
1.818,6.000,14.000,57.000,-2.000
1.819,5.500,13.500,57.000,-2.000
1.820,5.500,13.500,57.000,-1.500
1.821,6.000,14.000,57.500,-0.500
1.822,6.000,14.000,57.500,1.000
1.823,6.500,14.000,58.000,2.500
1.824,6.500,14.000,58.500,3.500
1.825,7.000,14.000,58.500,4.000
1.826,7.000,13.500,59.000,4.500
1.827,7.000,13.000,59.000,4.500
1.828,6.500,13.000,58.500,4.500
1.829,6.500,13.000,58.000,4.000
1.830,6.500,13.000,57.500,3.500
1.831,7.000,13.500,57.000,3.000
1.832,7.000,13.500,56.500,2.500
1.833,7.500,14.000,56.500,2.000
1.834,7.500,14.000,56.000,1.000
1.835,7.000,14.000,55.500,0.000
1.836,7.000,14.000,55.500,-1.000
1.837,7.000,14.000,55.500,-1.500
1.838,7.000,14.500,55.500,-2.000
1.839,7.500,14.500,56.000,-1.500
1.840,7.500,14.500,56.000,-1.000
1.841,8.000,15.000,56.500,0.500
1.842,8.500,14.500,56.500,1.500
1.843,8.500,14.500,56.000,3.000
1.844,8.500,14.000,56.000,4.000
1.845,8.000,13.500,56.000,4.500
1.846,8.000,13.000,56.000,5.000
1.847,8.000,13.000,56.500,5.500
1.848,8.000,13.500,56.500,5.500
1.849,8.000,13.500,56.000,5.500
1.850,8.500,14.000,56.000,5.500
1.851,8.500,14.500,55.000,5.500
1.852,8.500,14.500,54.500,5.000
1.853,9.000,15.000,54.000,4.000
1.854,9.000,15.000,53.500,3.000
1.855,8.500,15.000,53.000,2.000
1.856,8.500,15.000,53.000,1.000
1.857,8.500,15.000,53.500,0.000
1.858,9.000,15.000,53.500,0.000
1.859,9.000,15.500,54.000,0.000
1.860,9.500,15.500,54.000,1.000
1.861,10.000,16.000,54.500,2.000
1.862,10.500,16.000,54.500,3.000
1.863,10.500,16.000,54.500,4.500
1.864,10.500,16.000,55.000,5.500
1.865,10.500,16.000,55.500,6.500
1.866,10.500,16.000,56.000,7.000
1.867,10.500,16.000,56.500,7.000
1.868,10.500,16.000,57.000,7.000
1.869,10.000,16.000,56.500,6.500
1.870,10.000,16.000,56.000,6.000
1.871,10.000,16.000,55.000,5.500
1.872,10.000,16.500,54.500,4.500
1.873,10.000,16.500,54.000,3.500
1.874,10.500,16.500,53.500,2.500
1.875,10.500,16.500,53.500,1.500
1.876,10.500,16.500,53.500,0.500
1.877,10.500,16.500,53.500,0.500
1.878,10.500,16.500,54.000,0.500
1.879,10.500,16.500,54.000,1.000
1.880,11.000,17.000,54.500,2.000
1.881,11.500,17.000,55.000,3.000
1.882,12.000,17.000,55.500,4.500
1.883,12.500,17.000,56.000,5.500
1.884,12.500,17.000,57.000,7.000
1.885,12.500,17.000,57.500,8.000
1.886,12.500,17.000,58.500,8.500
1.887,12.500,17.000,59.000,9.000
1.888,12.000,17.000,59.500,9.000
1.889,12.000,17.000,59.500,8.500
1.890,12.000,17.000,59.500,8.000
1.891,12.000,17.000,59.000,7.500
1.892,12.500,17.500,58.500,6.500
1.893,12.500,17.500,58.000,6.000
1.894,12.500,18.000,57.500,5.000
1.895,12.500,18.500,57.500,4.000
1.896,12.000,18.500,57.500,2.500
1.897,12.000,18.500,57.500,2.000
1.898,12.000,18.500,57.500,1.500
1.899,12.000,18.500,57.500,1.500
1.900,12.500,18.000,57.500,2.500
1.901,12.500,18.000,57.500,3.500
1.902,13.000,18.500,58.000,5.000
1.903,13.500,18.000,58.000,6.500
1.904,13.500,18.000,58.500,7.500
1.905,13.000,17.500,58.500,8.000
1.906,13.000,17.000,58.500,8.000
1.907,12.500,17.000,58.500,8.000
1.908,12.500,17.000,58.500,7.500
1.909,12.500,16.500,58.000,7.500
1.910,12.500,16.500,57.500,7.000
1.911,12.500,17.000,57.000,6.000
1.912,12.500,16.500,56.000,5.000
1.913,12.000,16.500,55.500,4.000
1.914,11.000,15.500,54.500,2.000
1.915,10.500,15.000,53.500,0.500
1.916,9.500,14.000,53.500,-1.000
1.917,8.500,13.500,53.000,-2.000
1.918,8.000,13.000,53.000,-2.500
1.919,7.500,12.500,53.000,-2.000
1.920,7.500,12.000,53.500,-1.500
1.921,7.500,12.000,54.000,0.000
1.922,7.500,12.000,54.500,1.500
1.923,7.500,12.000,55.500,3.500
1.924,7.500,12.500,56.500,5.500
1.925,7.500,12.500,57.500,7.000
1.926,7.500,13.000,59.000,8.500
1.927,7.500,13.500,60.500,10.000
1.928,7.500,14.500,61.500,12.000
1.929,8.000,16.000,63.000,13.500
1.930,8.500,17.000,64.500,15.000
1.931,9.500,18.500,66.000,16.500
1.932,10.000,19.500,67.000,18.000
1.933,10.500,20.500,68.000,19.000
1.934,11.000,21.500,69.000,20.000
1.935,11.500,22.500,70.000,21.000
1.936,12.000,23.000,71.000,21.500
1.937,12.000,23.500,72.000,22.000
1.938,12.500,24.000,73.500,23.000
1.939,13.500,25.000,75.000,24.000
1.940,14.500,26.000,76.000,25.500
1.941,16.000,27.000,77.500,27.500
1.942,17.500,28.000,79.000,29.500
1.943,19.000,29.000,80.000,31.000
1.944,20.500,30.500,81.500,32.500
1.945,22.500,31.500,83.000,33.500
1.946,24.000,33.000,84.000,34.000
1.947,25.500,34.000,84.500,34.000
1.948,27.000,35.000,84.500,33.000
1.949,28.000,35.500,84.000,32.000
1.950,29.000,35.500,83.000,30.500
1.951,29.500,35.500,81.500,29.000
1.952,30.000,35.500,79.500,27.000
1.953,29.500,35.000,78.000,25.000
1.954,29.000,34.500,76.000,22.500
1.955,28.000,33.500,75.000,20.000
1.956,27.500,33.000,73.500,18.000
1.957,26.500,32.000,73.000,16.000
1.958,25.500,31.000,72.000,15.000
1.959,24.500,30.000,71.000,14.000
1.960,23.500,29.500,70.500,13.500
1.961,23.000,28.500,70.000,14.000
1.962,22.500,28.000,69.500,14.500
1.963,22.500,27.500,69.500,15.000
1.964,22.000,26.500,69.500,15.000
1.965,21.000,26.000,69.500,15.000
1.966,20.000,25.000,69.000,14.500
1.967,19.000,24.000,69.000,14.000
1.968,18.500,23.500,68.500,13.500
1.969,17.500,23.000,67.500,12.500
1.970,17.000,22.500,66.500,12.000
1.971,16.500,22.000,65.500,11.000
1.972,16.000,22.000,64.000,9.500
1.973,16.000,21.500,63.000,8.500
1.974,15.500,21.500,62.000,7.000
1.975,15.000,21.000,61.500,6.000
1.976,14.500,21.000,61.500,4.500
1.977,14.000,21.000,61.500,4.000
1.978,14.000,21.000,62.000,4.000
1.979,14.500,21.000,62.000,4.000
1.980,15.000,21.000,62.000,4.500
1.981,15.000,21.000,62.000,6.000
1.982,15.500,21.000,62.500,7.000
1.983,15.500,20.500,62.500,8.500
1.984,15.500,20.500,62.500,9.000
1.985,15.000,20.500,63.000,9.500
1.986,14.500,20.000,63.000,10.000
1.987,14.000,19.500,63.000,10.000
1.988,14.000,19.500,62.500,9.500
1.989,13.500,19.000,62.500,9.000
1.990,13.500,19.000,62.500,8.500
1.991,13.500,19.000,62.000,8.000
1.992,14.000,19.500,61.500,7.000
1.993,14.000,19.500,61.000,6.000
1.994,14.500,20.000,60.500,5.500
1.995,14.500,20.000,60.500,4.500
1.996,14.500,20.500,60.500,3.500
1.997,14.000,20.500,60.500,3.000
1.998,14.000,20.500,60.500,3.000
1.999,14.000,20.500,60.500,3.000
2.000,14.000,20.500,60.500,3.500
2.001,14.000,21.000,61.000,4.500
2.002,14.500,21.000,61.000,5.500
2.003,14.500,21.000,61.500,7.000
2.004,15.000,21.000,62.000,8.500
2.005,15.000,21.000,63.000,9.500
2.006,15.000,21.000,63.500,10.000
2.007,15.000,21.000,64.000,10.000
2.008,15.000,21.000,64.500,10.000
2.009,14.500,20.500,64.000,9.500
2.010,14.500,20.500,63.500,9.000
2.011,14.000,20.000,62.500,8.000
2.012,14.000,20.000,61.500,6.500
2.013,14.000,20.000,61.000,5.500
2.014,14.000,20.000,60.500,4.500
2.015,14.000,20.000,60.000,3.500
2.016,13.500,20.000,60.000,2.500
2.017,13.500,20.000,60.500,1.500
2.018,13.500,19.500,60.500,1.500
2.019,13.000,19.500,60.500,1.500
2.020,13.000,19.500,61.000,2.500
2.021,13.000,19.500,61.000,3.500
2.022,13.500,19.500,61.000,4.500
2.023,13.500,19.500,61.500,6.000
2.024,13.500,20.000,61.500,7.000
2.025,13.500,19.500,62.000,7.500
2.026,13.500,19.500,62.500,8.000
2.027,13.000,19.500,63.000,8.500
2.028,13.000,19.500,63.000,8.500
2.029,13.000,19.500,63.000,8.500
2.030,12.500,19.500,63.000,8.000
2.031,12.500,19.500,62.500,7.500
2.032,12.000,19.500,61.500,6.500
2.033,12.000,19.500,60.500,5.500
2.034,12.000,19.500,60.000,4.500
2.035,11.500,19.500,59.500,3.500
2.036,11.500,19.500,59.500,2.500
2.037,11.500,19.500,59.500,2.000
2.038,11.500,20.000,59.500,1.500
2.039,12.000,20.000,60.000,1.500
2.040,12.000,20.000,60.000,2.000
2.041,12.500,20.000,60.500,3.000
2.042,12.500,20.000,60.500,4.500
2.043,12.500,20.000,60.500,5.500
2.044,12.000,19.500,61.000,6.500
2.045,12.000,19.500,61.000,7.500
2.046,11.500,19.500,61.500,8.000
2.047,11.000,19.500,61.500,8.000
2.048,11.000,19.500,61.500,8.000
2.049,11.000,19.500,61.500,8.000
2.050,10.500,19.000,61.500,7.500
2.051,11.000,19.000,61.000,7.000
2.052,11.000,18.500,60.500,6.000
2.053,11.000,18.500,59.500,5.000
2.054,11.000,18.500,59.000,4.000
2.055,10.500,18.000,59.000,2.500
2.056,10.500,18.000,58.500,1.500
2.057,10.500,18.000,58.500,1.000
2.058,10.500,18.000,58.500,1.000
2.059,10.500,18.000,59.000,1.000
2.060,11.000,18.500,59.000,1.500
2.061,11.500,18.500,59.000,2.500
2.062,11.500,18.500,59.500,4.000
2.063,12.000,19.000,60.000,5.500
2.064,12.000,19.000,60.500,6.500
2.065,11.500,18.500,61.000,7.500
2.066,11.500,18.500,61.500,8.500
2.067,11.000,18.500,62.000,9.000
2.068,11.000,19.000,62.500,9.000
2.069,11.000,19.000,62.500,9.000
2.070,11.000,19.000,62.000,9.000
2.071,11.500,19.500,62.000,8.500
2.072,11.500,20.000,61.500,8.000
2.073,12.000,20.000,61.000,7.000
2.074,12.000,20.000,60.500,6.000
2.075,12.000,19.500,60.000,5.000
2.076,11.500,19.500,59.500,4.000
2.077,11.000,19.000,59.500,3.000
2.078,11.000,19.000,60.000,3.000
2.079,11.000,19.000,60.000,3.000
2.080,11.500,19.500,60.500,4.000
2.081,12.000,19.500,61.500,5.000
2.082,12.000,20.000,62.000,6.000
2.083,12.000,20.000,62.500,7.500
2.084,12.500,20.000,63.000,8.500
2.085,12.000,20.000,63.000,9.000
2.086,12.000,19.500,63.500,9.500
2.087,11.500,19.500,63.500,9.500
2.088,11.500,19.500,63.000,9.500
2.089,11.500,19.500,63.000,9.500
2.090,11.500,19.500,63.000,9.500
2.091,11.500,20.000,63.000,9.000
2.092,12.000,20.000,62.500,8.500
2.093,12.000,20.500,62.000,8.000
2.094,12.000,20.500,62.000,7.000
2.095,12.000,21.000,61.500,6.000
2.096,11.500,21.000,61.500,5.500
2.097,11.500,21.000,62.000,4.500
2.098,11.500,21.000,62.000,4.500
2.099,11.500,21.000,62.000,4.500
2.100,12.000,21.000,62.500,5.000
2.101,12.500,21.000,62.500,6.000
2.102,12.500,21.000,62.500,7.500
2.103,12.500,20.500,63.000,8.500
2.104,12.500,20.500,63.500,9.500
2.105,12.500,20.500,64.000,10.500
2.106,12.000,20.000,64.000,11.000
2.107,12.000,20.000,64.500,11.500
2.108,11.500,20.000,64.500,11.500
2.109,11.500,20.000,64.500,11.000
2.110,11.500,20.000,64.000,11.000
2.111,11.000,20.500,63.500,10.500
2.112,11.000,20.500,63.000,9.500
2.113,11.000,21.000,62.500,8.500
2.114,11.000,21.000,62.000,7.500
2.115,11.000,20.500,61.500,6.500
2.116,11.000,20.500,61.500,5.500
2.117,11.000,20.500,62.000,4.500
2.118,11.000,20.500,62.500,4.500
2.119,11.500,20.500,63.000,5.000
2.120,12.000,21.000,63.500,6.000
2.121,12.000,21.000,64.000,7.000
2.122,12.500,21.500,64.500,8.500
2.123,12.500,21.500,65.000,10.000
2.124,12.500,21.500,65.000,11.500
2.125,12.500,21.500,65.500,12.000
2.126,12.000,21.000,65.500,12.500
2.127,12.000,21.000,66.000,12.500
2.128,11.500,20.500,65.500,12.500
2.129,11.500,20.500,65.500,12.500
2.130,11.500,20.500,65.000,12.500
2.131,11.500,20.500,64.500,12.000
2.132,11.500,20.500,64.000,11.000
2.133,11.500,20.500,63.500,10.000
2.134,11.500,20.500,63.000,9.000
2.135,11.000,20.500,62.500,7.500
2.136,11.000,20.000,62.500,6.500
2.137,10.500,20.000,62.500,5.500
2.138,10.500,20.000,63.000,5.500
2.139,11.000,20.500,63.500,6.000
2.140,11.000,21.000,64.000,6.500
2.141,11.500,21.500,64.500,8.000
2.142,12.000,21.500,64.500,9.000
2.143,12.000,21.500,65.000,10.000
2.144,11.500,21.500,65.000,11.000
2.145,11.500,21.000,65.000,12.000
2.146,11.000,21.000,65.500,12.000
2.147,11.000,20.500,65.500,12.000
2.148,10.500,20.000,66.000,12.000
2.149,10.500,20.000,65.500,12.000
2.150,10.000,20.500,65.500,11.500
2.151,10.500,20.500,65.000,11.000
2.152,10.500,21.000,64.500,10.500
2.153,10.500,21.500,64.000,10.000
2.154,10.500,22.000,64.000,9.000
2.155,11.000,22.500,64.000,8.500
2.156,11.000,22.500,64.500,7.500
2.157,11.000,22.500,65.000,7.000
2.158,10.500,22.500,65.500,7.000
2.159,10.500,22.500,66.000,7.000
2.160,10.500,22.500,66.000,7.500
2.161,10.500,22.500,66.000,8.000
2.162,10.500,22.000,66.000,9.000
2.163,10.500,21.000,66.000,9.500
2.164,10.000,20.500,65.500,10.000
2.165,9.500,20.000,65.500,10.500
2.166,8.500,19.500,65.500,10.500
2.167,8.000,19.000,65.000,10.500
2.168,7.500,18.500,65.000,10.000
2.169,7.000,18.000,64.000,9.500
2.170,6.500,18.000,63.500,9.000
2.171,6.000,17.500,62.000,7.500
2.172,5.500,17.000,61.000,6.500
2.173,5.500,16.500,60.000,5.000
2.174,5.500,17.000,59.000,4.000
2.175,5.500,17.000,59.000,3.500
2.176,5.500,17.500,59.500,2.500
2.177,6.000,18.500,60.000,2.500
2.178,6.000,19.000,60.500,3.000
2.179,6.500,20.000,61.000,3.500
2.180,7.000,21.000,61.500,5.000
2.181,8.000,21.500,62.500,6.500
2.182,9.000,22.500,63.500,8.500
2.183,10.000,23.000,65.000,10.500
2.184,10.500,23.500,66.000,12.000
2.185,11.000,24.000,67.500,13.500
2.186,11.500,24.500,68.500,14.500
2.187,12.000,25.000,69.500,15.500
2.188,12.500,25.500,70.500,16.000
2.189,13.000,26.500,71.000,16.500
2.190,13.500,27.000,71.000,16.500
2.191,14.000,27.500,71.500,16.000
2.192,14.500,28.500,71.000,16.000
2.193,14.500,29.000,71.000,15.000
2.194,15.000,29.000,70.500,13.500
2.195,14.500,29.000,70.000,12.500
2.196,14.500,28.500,70.000,11.000
2.197,14.000,28.000,69.500,10.000
2.198,14.000,27.500,69.500,9.000
2.199,14.000,27.500,69.500,9.000
2.200,14.000,27.000,69.500,9.500
2.201,14.000,27.000,69.500,10.500
2.202,14.000,27.000,70.000,12.000
2.203,14.500,26.500,70.000,13.000
2.204,14.000,26.000,70.000,14.000
2.205,13.500,25.500,70.000,14.500
2.206,13.000,25.000,70.500,14.500
2.207,12.500,25.000,70.500,14.500
2.208,12.000,25.000,70.500,14.000
2.209,12.000,25.500,70.500,13.500
2.210,12.000,25.500,70.000,13.500
2.211,12.500,26.000,70.000,13.000
2.212,12.500,26.500,69.500,12.500
2.213,13.000,26.500,69.000,12.000
2.214,13.000,26.500,69.000,11.000
2.215,13.000,26.500,69.000,10.000
2.216,12.500,26.000,69.000,9.000
2.217,12.000,26.000,69.000,8.000
2.218,12.000,26.000,69.000,8.000
2.219,12.500,26.000,69.000,8.000
2.220,12.500,26.500,69.000,8.500
2.221,13.500,26.500,69.500,9.500
2.222,14.000,26.500,69.500,11.000
2.223,14.000,26.500,70.000,12.500
2.224,14.000,26.500,70.500,13.500
2.225,14.000,26.500,71.000,14.500
2.226,14.000,26.000,71.500,15.000
2.227,13.500,26.000,72.000,15.500
2.228,13.500,26.000,72.000,15.500
2.229,13.500,26.000,72.500,15.500
2.230,13.500,26.500,72.500,15.500
2.231,13.500,26.500,72.000,15.000
2.232,14.000,27.000,71.500,14.000
2.233,14.000,27.000,71.000,13.000
2.234,14.000,27.000,70.500,12.000
2.235,14.000,27.500,70.000,11.000
2.236,14.000,27.500,69.500,10.000
2.237,14.000,27.500,69.500,9.500
2.238,14.000,27.500,69.500,9.500
2.239,14.000,28.000,70.000,9.500
2.240,14.000,28.000,70.500,10.500
2.241,14.500,28.500,70.500,11.500
2.242,15.000,28.500,71.000,13.000
2.243,15.000,28.500,71.000,14.000
2.244,15.000,28.500,71.500,15.000
2.245,14.500,28.000,71.000,15.500
2.246,14.000,28.000,71.000,16.000
2.247,14.000,27.500,71.000,16.000
2.248,13.500,27.000,71.000,15.500
2.249,13.500,26.500,70.500,15.500
2.250,13.000,26.500,70.000,15.000
2.251,13.000,26.500,69.500,14.500
2.252,13.500,27.000,69.000,13.500
2.253,13.500,27.000,68.000,13.000
2.254,13.500,27.500,67.500,12.000
2.255,13.500,27.500,67.500,11.000
2.256,13.500,27.500,67.500,10.000
2.257,13.500,27.500,67.500,9.000
2.258,13.500,27.500,68.000,8.500
2.259,14.000,27.500,68.000,9.000
2.260,14.000,27.500,68.500,9.500
2.261,14.500,27.500,68.500,10.500
2.262,15.000,28.000,68.500,12.000
2.263,15.000,28.000,69.000,13.000
2.264,15.000,27.500,69.000,14.000
2.265,14.500,27.500,69.500,14.500
2.266,14.000,27.000,69.500,14.500
2.267,14.000,26.500,70.000,15.000
2.268,13.500,26.500,70.500,15.000
2.269,13.500,26.500,70.500,15.000
2.270,14.000,26.500,70.500,14.500
2.271,14.000,26.500,70.500,14.000
2.272,14.500,27.000,70.000,13.500
2.273,14.500,27.500,70.000,13.000
2.274,15.000,28.000,70.000,12.500
2.275,14.500,28.000,70.000,11.500
2.276,14.500,28.000,69.500,10.500
2.277,14.000,28.000,69.000,10.000
2.278,14.000,27.500,69.000,9.500
2.279,14.000,27.500,69.500,9.500
2.280,14.000,27.500,70.000,10.500
2.281,14.500,27.500,70.500,11.500
2.282,15.000,27.500,71.000,13.000
2.283,15.000,27.500,71.500,14.000
2.284,15.500,27.500,72.000,15.000
2.285,15.500,27.000,72.500,15.500
2.286,15.500,26.500,72.500,16.000
2.287,15.500,26.500,73.000,16.000
2.288,16.000,26.500,73.500,16.500
2.289,16.000,27.000,73.500,16.500
2.290,16.000,27.500,74.000,16.500
2.291,16.000,28.000,73.500,16.000
2.292,16.500,28.500,73.500,15.500
2.293,16.500,28.500,73.000,15.000
2.294,17.000,28.500,73.000,14.500
2.295,17.000,28.500,73.000,13.500
2.296,17.000,29.000,73.500,12.500
2.297,17.000,29.000,74.000,11.500
2.298,17.000,29.000,74.000,11.500
2.299,17.000,29.500,74.500,12.000
2.300,17.500,30.000,75.000,12.500
2.301,17.500,30.000,75.000,13.500
2.302,18.000,30.500,75.500,14.500
2.303,18.000,30.500,75.500,16.000
2.304,18.500,30.500,76.000,17.500
2.305,18.500,30.500,76.500,18.500
2.306,18.500,31.000,77.500,19.000
2.307,19.000,31.000,78.000,19.500
2.308,19.000,31.000,78.500,20.000
2.309,19.000,31.000,78.500,20.000
2.310,19.500,31.500,78.500,19.500
2.311,19.500,31.500,78.000,19.000
2.312,19.500,31.500,77.500,18.500
2.313,20.000,32.000,77.000,18.000
2.314,19.500,32.500,77.000,17.500
2.315,19.500,32.500,76.500,16.500
2.316,19.500,32.500,77.000,15.500
2.317,19.000,32.500,77.000,15.000
2.318,19.000,32.500,77.000,15.000
2.319,19.500,33.000,77.500,15.000
2.320,19.500,33.000,78.000,16.000
2.321,20.000,33.500,78.000,17.000
2.322,20.000,33.500,78.000,18.000
2.323,20.000,33.000,78.500,19.000
2.324,20.500,33.000,78.500,20.000
2.325,20.500,32.500,79.000,20.500
2.326,20.500,32.500,79.000,21.000
2.327,20.500,32.500,79.500,21.500
2.328,20.500,32.500,80.000,21.500
2.329,20.500,32.500,80.500,22.000
2.330,20.500,33.000,80.500,21.500
2.331,21.000,33.500,80.000,21.500
2.332,21.000,33.500,79.500,20.500
2.333,21.000,34.000,79.000,19.500
2.334,20.500,34.000,78.500,18.500
2.335,20.500,34.000,78.000,17.000
2.336,20.000,34.000,78.000,16.000
2.337,19.500,33.500,78.000,15.500
2.338,19.500,33.500,78.000,15.000
2.339,20.000,33.000,78.000,15.000
2.340,20.500,33.000,78.000,16.000
2.341,20.500,33.000,78.000,17.000
2.342,21.000,33.000,78.500,18.500
2.343,21.500,33.000,78.500,20.000
2.344,21.500,33.000,79.000,21.000
2.345,21.500,33.000,79.500,21.500
2.346,21.500,33.000,80.000,22.000
2.347,21.500,32.500,80.500,22.500
2.348,21.000,32.500,80.500,22.500
2.349,21.000,32.500,80.500,22.500
2.350,21.000,32.500,80.000,22.000
2.351,21.000,32.500,79.000,21.500
2.352,21.000,32.500,78.500,20.500
2.353,21.000,33.000,78.000,19.500
2.354,21.000,33.000,77.000,18.500
2.355,20.500,33.000,77.000,17.000
2.356,20.000,33.000,77.000,16.000
2.357,20.000,33.000,77.500,15.500
2.358,20.000,33.000,78.000,15.500
2.359,20.000,33.000,78.500,16.000
2.360,20.500,33.000,79.000,16.500
2.361,21.000,33.500,79.000,18.000
2.362,21.500,33.500,79.500,19.000
2.363,21.500,33.500,79.500,20.500
2.364,22.000,33.500,80.000,21.500
2.365,22.000,33.500,80.500,22.000
2.366,21.500,33.000,81.500,22.500
2.367,21.500,33.000,82.000,23.000
2.368,21.500,33.000,82.500,23.000
2.369,21.500,33.000,82.500,22.500
2.370,21.500,33.000,82.500,22.500
2.371,21.500,33.500,82.000,22.000
2.372,21.500,33.500,81.500,21.500
2.373,21.500,34.000,80.500,21.000
2.374,21.500,34.000,80.000,19.500
2.375,21.000,34.000,80.000,18.500
2.376,20.500,33.500,79.500,17.000
2.377,20.500,33.500,79.500,16.000
2.378,20.500,33.500,80.000,15.500
2.379,20.500,33.500,80.000,15.500
2.380,20.500,33.500,80.500,16.500
2.381,21.000,34.000,81.000,17.500
2.382,21.500,34.500,81.000,19.000
2.383,21.500,34.500,81.500,20.000
2.384,21.500,34.500,81.500,21.000
2.385,21.500,34.500,82.000,21.500
2.386,21.500,34.000,82.500,21.500
2.387,21.000,34.000,82.500,21.500
2.388,21.000,33.500,83.000,21.500
2.389,21.000,33.500,83.000,21.000
2.390,21.000,33.500,82.500,21.000
2.391,21.000,33.500,82.000,20.500
2.392,21.000,33.500,81.500,19.500
2.393,20.500,34.000,81.000,19.000
2.394,20.500,34.000,80.500,18.500
2.395,20.500,34.000,80.500,17.500
2.396,20.500,34.000,80.500,17.000
2.397,20.000,34.000,80.500,16.500
2.398,20.000,34.000,81.000,16.000
2.399,20.500,34.500,81.000,16.000
2.400,20.500,34.500,81.500,16.500
2.401,21.000,34.500,81.500,17.000
2.402,21.000,34.500,81.500,18.500
2.403,21.500,34.500,81.000,19.000
2.404,21.500,34.000,81.000,20.000
2.405,21.000,33.500,81.500,20.500
2.406,21.000,33.000,81.500,20.500
2.407,21.000,32.500,81.500,21.000
2.408,20.500,32.500,81.500,21.000
2.409,20.500,32.500,81.500,21.000
2.410,20.000,33.000,81.000,20.500
2.411,20.000,33.000,80.500,20.000
2.412,20.000,33.000,80.000,19.000
2.413,20.000,33.500,79.500,18.500
2.414,20.000,33.500,79.000,17.500
2.415,20.000,33.500,78.500,17.000
2.416,19.500,33.500,78.500,16.000
2.417,19.000,33.500,79.000,15.500
2.418,19.000,33.500,79.000,15.000
2.419,19.000,33.500,79.500,15.500
2.420,19.500,34.000,79.500,16.000
2.421,20.000,34.500,80.000,17.000
2.422,20.500,34.500,80.500,18.500
2.423,20.500,35.000,81.000,19.500
2.424,20.500,34.500,81.500,21.000
2.425,20.500,34.500,82.500,21.500
2.426,20.000,34.000,83.500,22.000
2.427,20.000,34.000,84.000,22.500
2.428,19.500,34.000,84.500,22.500
2.429,19.500,34.000,84.500,22.500
2.430,19.500,34.000,84.000,22.500
2.431,19.500,34.000,84.000,22.000
2.432,19.500,34.500,83.500,21.500
2.433,19.500,34.500,82.500,21.000
2.434,19.500,35.000,82.000,20.000
2.435,19.000,35.000,82.000,19.000
2.436,18.500,35.000,81.500,17.500
2.437,18.500,35.000,81.500,17.000
2.438,18.000,34.500,82.000,16.500
2.439,18.000,34.500,82.000,16.500
2.440,18.500,34.000,82.500,17.000
2.441,18.500,34.000,82.500,17.500
2.442,19.000,33.500,82.500,18.500
2.443,19.500,33.500,82.500,19.500
2.444,19.500,33.000,83.000,20.000
2.445,19.500,33.000,83.000,20.500
2.446,19.000,32.500,83.500,21.000
2.447,19.000,32.000,83.500,21.000
2.448,19.000,32.000,83.500,20.500
2.449,18.500,32.000,83.500,20.500
2.450,19.000,32.000,83.500,20.500
2.451,19.000,32.000,83.000,20.000
2.452,19.000,32.000,82.500,19.500
2.453,19.000,32.000,82.000,19.000
2.454,18.500,32.000,81.500,18.000
2.455,18.500,32.000,81.500,17.000
2.456,18.500,32.000,81.000,16.000
2.457,18.000,32.000,81.500,15.500
2.458,18.500,32.000,81.500,15.000
2.459,18.500,32.000,82.000,15.000
2.460,18.500,32.000,82.000,15.000
2.461,18.500,32.000,82.500,16.000
2.462,19.000,32.000,82.500,17.000
2.463,19.000,31.500,82.500,17.500
2.464,19.000,31.500,83.000,18.500
2.465,19.000,31.000,83.000,19.000
2.466,19.000,31.000,83.000,19.000
2.467,19.000,31.000,83.000,19.500
2.468,18.500,31.000,83.500,20.000
2.469,18.500,31.000,83.500,20.000
2.470,18.500,31.000,83.500,20.000
2.471,18.000,31.000,83.000,19.500
2.472,18.000,31.500,83.000,19.000
2.473,18.000,32.000,82.500,18.500
2.474,18.000,32.000,82.500,17.500
2.475,18.000,32.000,82.000,16.500
2.476,18.000,32.000,82.000,15.500
2.477,17.500,31.500,82.000,14.500
2.478,17.500,31.500,82.000,14.000
2.479,18.000,31.000,82.000,13.500
2.480,18.000,31.000,82.500,14.000
2.481,18.500,30.500,83.000,15.000
2.482,19.000,30.500,83.500,16.000
2.483,19.500,30.500,84.000,17.000
2.484,19.500,30.500,84.000,18.000
2.485,19.500,30.500,84.500,19.000
2.486,19.500,30.500,85.000,19.500
2.487,19.500,30.500,85.000,20.000
2.488,19.000,30.500,85.500,20.500
2.489,19.000,30.500,85.000,20.500
2.490,19.000,30.500,84.500,20.000
2.491,19.000,30.500,83.500,19.500
2.492,18.500,30.500,82.500,19.000
2.493,19.000,31.000,81.500,18.000
2.494,18.500,31.000,81.000,17.000
2.495,18.500,31.000,81.000,16.000
2.496,18.500,31.000,81.500,15.000
2.497,18.500,30.500,81.500,14.000
2.498,18.000,30.500,82.000,13.500
2.499,18.500,31.000,82.500,14.000
2.500,18.500,31.000,82.500,14.500
2.501,19.000,31.000,83.000,15.500
2.502,19.500,31.500,83.500,17.000
2.503,20.000,31.500,83.500,18.000
2.504,20.000,31.500,84.000,19.500
2.505,20.000,31.500,84.500,20.500
2.506,19.500,31.000,84.500,21.000
2.507,19.500,31.000,85.000,21.000
2.508,19.500,31.000,85.000,21.500
2.509,19.000,31.000,84.500,21.500
2.510,19.000,31.000,84.500,21.000
2.511,19.000,31.000,84.000,20.500
2.512,19.000,31.000,83.500,19.500
2.513,18.500,31.000,83.000,18.500
2.514,18.500,31.000,82.500,17.000
2.515,18.500,31.000,82.000,16.000
2.516,18.000,31.000,81.500,14.500
2.517,18.000,30.500,81.500,13.500
2.518,17.500,30.500,81.500,13.000
2.519,17.500,30.500,81.500,13.500
2.520,18.000,30.500,82.000,14.000
2.521,18.000,31.000,82.000,15.500
2.522,18.500,31.000,82.000,17.000
2.523,18.500,31.000,82.500,18.000
2.524,18.500,31.000,82.500,19.000
2.525,18.000,30.500,82.500,19.500
2.526,18.000,30.000,83.000,19.500
2.527,17.500,29.500,83.000,19.500
2.528,17.000,29.000,83.000,19.000
2.529,16.500,29.000,82.500,18.500
2.530,16.000,28.500,82.000,18.000
2.531,15.500,28.500,81.500,17.000
2.532,15.000,28.000,80.500,16.000
2.533,14.500,28.000,80.000,15.000
2.534,14.000,27.500,79.000,14.000
2.535,13.500,27.000,78.500,13.000
2.536,12.500,26.500,78.000,12.000
2.537,12.000,26.000,78.000,11.000
2.538,11.500,26.000,78.500,11.000
2.539,11.500,26.000,78.500,11.500
2.540,11.500,26.000,79.000,12.000
2.541,11.500,26.000,79.500,13.500
2.542,11.500,25.500,80.000,15.000
2.543,11.000,25.500,80.500,17.000
2.544,11.000,25.500,81.500,19.000
2.545,11.000,25.500,83.000,20.500
2.546,11.000,25.500,84.500,22.500
2.547,11.000,26.000,86.000,24.500
2.548,11.500,27.000,88.000,26.000
2.549,12.000,28.000,89.500,28.000
2.550,12.500,29.000,90.500,29.500
2.551,13.000,30.000,91.500,30.500
2.552,14.000,31.000,92.000,31.500
2.553,14.500,32.000,92.500,32.000
2.554,14.500,33.000,92.500,32.500
2.555,15.000,33.500,93.000,33.000
2.556,15.000,34.000,93.500,32.500
2.557,15.000,34.500,94.500,33.000
2.558,15.500,35.000,95.500,33.000
2.559,16.500,36.000,96.500,34.000
2.560,18.000,37.000,97.500,35.500
2.561,19.500,38.500,99.000,37.000
2.562,21.000,39.500,100.000,38.500
2.563,22.500,40.000,101.000,40.000
2.564,24.000,41.000,101.500,41.000
2.565,25.500,42.000,102.000,41.500
2.566,26.500,42.500,102.000,41.000
2.567,27.500,42.500,101.500,40.500
2.568,28.000,42.500,101.000,39.500
2.569,28.500,42.500,100.000,38.000
2.570,28.500,42.000,99.000,36.500
2.571,28.000,41.500,97.500,35.000
2.572,28.000,41.000,96.000,33.000
2.573,27.500,40.500,94.500,30.500
2.574,27.000,39.500,93.000,28.000
2.575,25.500,38.500,91.500,26.000
2.576,24.500,37.500,90.500,23.500
2.577,23.500,36.500,89.500,22.000
2.578,22.500,35.500,89.000,20.500
2.579,21.500,34.500,88.000,20.000
2.580,21.500,34.000,87.500,19.500
2.581,21.000,33.500,87.500,20.000
2.582,21.000,33.500,87.000,20.500
2.583,20.500,33.000,87.000,21.000
2.584,20.000,32.500,86.500,21.000
2.585,19.000,31.500,86.000,21.000
2.586,18.000,31.000,86.000,20.500
2.587,17.000,30.000,85.500,20.000
2.588,16.000,28.500,84.500,19.000
2.589,15.000,27.500,83.500,18.000
2.590,14.000,26.500,82.500,17.000
2.591,13.000,25.500,81.000,16.000
2.592,12.000,25.000,79.500,14.500
2.593,11.500,24.000,78.000,13.000
2.594,10.500,23.000,76.500,11.000
2.595,9.500,22.000,75.500,9.000
2.596,8.500,20.500,74.500,7.500
2.597,7.500,19.500,74.000,6.000
2.598,7.000,18.500,73.500,5.000
2.599,7.000,18.500,73.000,5.000
2.600,7.000,18.500,73.500,6.000
2.601,7.500,19.000,74.000,7.000
2.602,8.000,19.500,74.500,8.500
2.603,8.500,20.000,75.000,10.000
2.604,9.000,20.000,76.000,11.000
2.605,9.500,20.000,77.000,12.000
2.606,9.500,20.500,78.000,13.000
2.607,10.000,21.000,79.000,13.500
2.608,10.000,21.500,80.000,14.000
2.609,10.500,22.000,80.500,14.000
2.610,10.500,22.500,81.000,14.000
2.611,11.000,23.000,81.000,14.000
2.612,11.500,24.000,80.500,13.500
2.613,12.000,24.500,80.500,13.000
2.614,12.500,25.000,80.500,12.500
2.615,12.500,25.500,80.500,12.000
2.616,13.000,26.000,81.000,11.000
2.617,13.000,26.000,81.500,11.000
2.618,13.000,26.000,81.500,10.500
2.619,13.000,26.000,81.500,10.500
2.620,13.000,25.500,81.500,11.000
2.621,13.000,25.500,81.000,11.500
2.622,13.000,25.000,81.000,12.500
2.623,13.000,24.500,81.000,13.500
2.624,13.000,24.000,81.000,14.500
2.625,12.500,24.000,81.000,14.500
2.626,12.500,23.500,81.000,15.000
2.627,12.000,23.000,81.000,15.000
2.628,11.500,22.500,81.000,15.000
2.629,11.000,22.500,80.500,15.000
2.630,11.000,22.500,80.000,14.500
2.631,10.500,22.500,79.500,14.000
2.632,10.500,23.000,78.500,13.500
2.633,10.500,22.500,78.000,12.000
2.634,10.000,22.500,77.000,11.000
2.635,9.500,22.000,76.500,9.500
2.636,9.500,22.000,76.500,8.500
2.637,9.000,22.000,76.500,7.500
2.638,9.000,22.000,77.000,7.000
2.639,9.000,22.000,77.500,7.000
2.640,9.500,22.000,77.500,7.500
2.641,9.500,22.000,78.000,8.500
2.642,10.000,22.000,78.000,9.500
2.643,10.000,22.000,78.000,10.500
2.644,10.000,21.500,78.000,11.500
2.645,10.000,21.000,78.000,12.000
2.646,9.500,21.000,78.500,12.500
2.647,9.500,20.500,78.500,12.500
2.648,9.000,20.500,78.500,12.500
2.649,9.000,20.000,78.500,12.500
2.650,9.000,20.000,78.000,12.000
2.651,9.000,20.500,77.500,11.500
2.652,9.000,20.500,77.000,10.500
2.653,9.000,20.500,76.500,10.000
2.654,9.000,20.500,76.500,9.000
2.655,8.500,20.500,76.000,8.000
2.656,8.500,20.500,76.000,7.000
2.657,8.000,20.500,76.000,6.000
2.658,8.000,20.000,76.000,5.000
2.659,8.000,19.500,76.000,5.000
2.660,8.000,19.500,76.000,5.000
2.661,8.500,19.500,76.000,6.000
2.662,8.500,19.500,76.500,7.000
2.663,8.500,19.000,77.000,8.500
2.664,8.500,19.000,77.500,9.000
2.665,8.000,18.500,77.500,10.000
2.666,7.000,18.000,78.000,10.500
2.667,6.500,18.000,78.000,10.500
2.668,6.500,18.000,78.000,10.500
2.669,6.500,18.000,78.000,10.500
2.670,6.500,18.000,77.500,10.500
2.671,6.500,18.500,77.000,10.500
2.672,6.500,18.500,76.500,9.500
2.673,6.500,18.500,75.500,8.500
2.674,6.500,19.000,75.000,7.500
2.675,6.000,18.500,74.500,6.500
2.676,6.000,18.500,74.000,5.500
2.677,5.500,18.000,74.000,4.500
2.678,5.500,18.000,74.000,4.000
2.679,5.500,17.500,74.000,4.000
2.680,5.500,17.500,74.500,4.000
2.681,5.500,17.500,74.500,5.000
2.682,6.000,17.500,75.000,6.500
2.683,6.000,17.500,75.000,7.500
2.684,6.000,17.000,75.000,8.500
2.685,6.000,17.000,75.500,9.500
2.686,6.000,16.500,75.500,10.000
2.687,5.500,16.500,76.000,10.500
2.688,5.500,16.500,76.000,10.500
2.689,5.000,16.500,76.000,10.500
2.690,5.000,16.500,75.500,10.500
2.691,5.000,16.500,75.500,10.000
2.692,5.000,16.500,74.500,9.000
2.693,4.500,16.500,74.000,8.000
2.694,4.500,16.500,73.000,7.000
2.695,4.000,16.000,72.500,6.000
2.696,3.500,15.500,72.000,4.500
2.697,3.000,15.000,71.500,3.500
2.698,2.500,14.500,71.500,3.000
2.699,2.500,14.500,71.500,3.000
2.700,2.500,14.500,72.000,3.500
2.701,2.500,14.500,72.000,4.000
2.702,3.000,14.500,72.000,5.000
2.703,3.000,14.000,72.000,6.000
2.704,2.500,14.000,72.500,7.000
2.705,2.500,13.500,73.000,7.500
2.706,2.000,13.000,73.500,8.000
2.707,2.000,13.000,73.500,8.000
2.708,1.500,13.000,74.000,8.000
2.709,1.500,13.000,73.500,8.000
2.710,1.000,13.000,73.500,7.500
2.711,1.000,13.000,73.000,7.500
2.712,1.000,13.000,72.500,6.500
2.713,1.000,13.000,71.500,6.000
2.714,0.500,13.500,71.500,5.000
2.715,0.500,13.500,71.500,3.500
2.716,0.500,13.500,71.500,2.500
2.717,0.000,13.500,71.500,2.000
2.718,0.000,13.500,72.000,1.500
2.719,0.000,13.500,72.000,2.000
2.720,0.000,13.500,72.000,2.000
2.721,0.000,13.500,72.500,3.000
2.722,0.000,13.500,72.500,4.000
2.723,0.500,13.500,72.500,5.000
2.724,0.000,13.000,72.500,6.000
2.725,0.000,12.500,73.000,6.500
2.726,-0.500,12.000,73.000,6.500
2.727,-0.500,12.000,73.000,6.500
2.728,-1.000,11.500,73.000,6.000
2.729,-1.000,11.500,72.500,6.000
2.730,-1.000,11.500,72.500,5.500
2.731,-1.000,11.500,71.500,5.000
2.732,-1.000,11.500,71.000,4.000
2.733,-1.500,11.500,70.000,3.000
2.734,-1.500,11.500,69.500,2.000
2.735,-2.000,12.000,69.000,1.000
2.736,-2.000,12.000,68.500,-0.500
2.737,-2.500,12.000,68.500,-1.500
2.738,-2.500,12.000,68.500,-2.000
2.739,-2.500,12.000,68.500,-2.000
2.740,-2.000,12.000,69.000,-1.500
2.741,-2.000,12.000,69.500,-0.500
2.742,-1.500,12.000,70.000,1.000
2.743,-1.500,11.500,70.500,2.500
2.744,-1.500,11.000,70.500,3.500
2.745,-1.500,11.000,71.000,4.000
2.746,-1.500,10.500,71.000,4.500
2.747,-2.000,10.000,71.500,4.500
2.748,-2.000,9.500,71.500,4.500
2.749,-2.500,9.500,71.000,4.500
2.750,-2.500,9.500,70.500,4.000
2.751,-2.500,9.500,70.000,3.500
2.752,-2.500,9.500,69.500,2.500
2.753,-3.000,10.000,69.000,1.500
2.754,-3.000,10.000,68.500,0.500
2.755,-3.500,10.000,68.000,-1.000
2.756,-3.500,10.000,68.000,-1.500
2.757,-3.500,10.000,68.000,-2.500
2.758,-4.000,10.000,68.000,-2.500
2.759,-4.000,10.000,68.500,-2.500
2.760,-4.000,10.500,68.500,-2.000
2.761,-3.500,10.500,69.000,-1.000
2.762,-3.500,10.500,69.500,0.000
2.763,-3.500,10.500,69.500,1.500
2.764,-3.500,10.000,70.000,2.500
2.765,-3.500,10.000,70.000,3.000
2.766,-3.500,9.500,70.500,3.500
2.767,-4.000,9.500,70.500,4.000
2.768,-4.000,9.000,71.000,4.000
2.769,-4.500,9.000,70.500,3.500
2.770,-4.500,9.000,70.500,3.000
2.771,-4.500,9.500,69.500,2.500
2.772,-4.500,9.500,69.000,1.500
2.773,-4.500,9.500,68.000,0.500
2.774,-5.000,9.500,67.500,-0.500
2.775,-5.000,9.500,67.000,-2.000
2.776,-5.000,9.000,67.000,-3.000
2.777,-5.500,9.000,67.000,-4.000
2.778,-5.500,9.000,67.000,-4.500
2.779,-5.500,9.000,67.000,-4.000
2.780,-5.500,9.000,67.000,-3.500
2.781,-5.000,9.500,67.500,-2.500
2.782,-5.000,10.000,68.000,-1.500
2.783,-5.000,10.000,68.500,0.000
2.784,-4.500,10.000,68.500,1.000
2.785,-4.500,9.500,69.000,1.500
2.786,-4.500,9.500,69.500,2.000
2.787,-4.500,10.000,69.500,2.500
2.788,-4.500,10.000,69.500,2.500
2.789,-4.500,10.500,69.500,2.500
2.790,-4.500,10.500,69.000,2.000
2.791,-4.500,10.000,68.500,1.500
2.792,-4.500,10.000,68.000,0.500
2.793,-4.500,10.000,67.000,-0.500
2.794,-5.000,9.500,66.000,-1.500
2.795,-5.000,10.000,65.500,-2.500
2.796,-5.000,10.000,65.500,-3.500
2.797,-5.000,10.000,65.500,-4.500
2.798,-5.000,10.000,65.500,-4.500
2.799,-5.000,10.000,66.000,-4.500
2.800,-5.000,10.000,66.000,-4.000
2.801,-4.500,10.000,66.000,-3.000
2.802,-4.000,10.000,65.500,-2.000
2.803,-3.500,10.000,66.000,-1.000
2.804,-3.500,10.000,66.000,0.500
2.805,-3.500,10.000,67.000,1.500
2.806,-3.500,10.000,67.500,2.000
2.807,-3.000,10.500,68.000,2.500
2.808,-3.000,10.500,68.500,3.000
2.809,-3.000,10.500,69.000,3.000
2.810,-2.500,10.500,68.500,2.500
2.811,-2.500,11.000,68.500,2.000
2.812,-2.000,11.000,68.000,1.500
2.813,-2.000,11.500,67.000,0.500
2.814,-1.500,11.500,66.500,-0.500
2.815,-1.500,11.500,66.500,-1.500
2.816,-1.500,12.000,66.500,-2.500
2.817,-1.500,12.000,66.500,-3.500
2.818,-1.000,12.000,67.000,-3.500
2.819,-1.000,12.500,67.500,-3.000
2.820,-0.500,12.500,68.000,-2.000
2.821,0.500,13.000,68.500,-1.000
2.822,1.000,13.500,69.000,0.500
2.823,1.000,13.500,70.000,2.000
2.824,1.500,13.500,70.500,3.000
2.825,1.500,13.500,71.000,4.000
2.826,2.000,13.500,71.500,4.500
2.827,2.000,13.500,71.500,5.000
2.828,2.000,13.500,72.000,5.000
2.829,2.000,13.500,72.000,5.000
2.830,2.000,14.000,72.000,5.000
2.831,2.000,14.000,71.500,5.000
2.832,2.500,14.500,71.500,4.500
2.833,2.500,14.500,71.000,4.000
2.834,3.000,15.000,70.500,3.500
2.835,3.000,15.000,70.000,2.500
2.836,3.000,14.500,70.000,1.000
2.837,2.500,14.500,69.500,0.500
2.838,3.000,14.500,69.500,0.000
2.839,3.000,15.000,69.500,0.000
2.840,3.500,15.000,69.500,0.500
2.841,3.500,15.000,69.500,1.500
2.842,4.000,15.000,69.500,2.500
2.843,4.000,15.000,69.500,3.500
2.844,4.000,15.000,70.000,4.500
2.845,4.000,15.000,70.000,5.500
2.846,4.000,15.000,70.500,6.500
2.847,4.000,14.500,71.000,7.000
2.848,4.500,14.500,71.000,7.000
2.849,4.500,15.000,71.000,7.000
2.850,5.000,15.500,70.500,6.500
2.851,5.000,16.000,70.000,6.500
2.852,5.000,16.500,69.000,6.000
2.853,5.000,17.000,68.500,5.000
2.854,5.000,17.000,68.000,4.000
2.855,5.000,16.500,67.500,2.500
2.856,4.500,16.500,67.000,1.500
2.857,4.500,16.000,67.500,1.000
2.858,4.500,16.000,67.500,0.500
2.859,4.500,16.500,67.500,0.500
2.860,5.000,16.500,67.500,1.500
2.861,5.500,17.000,68.000,2.500
2.862,6.000,17.000,68.000,4.000
2.863,6.000,17.500,68.500,5.000
2.864,6.000,17.500,69.000,6.500
2.865,6.000,17.500,69.500,7.000
2.866,6.000,17.000,70.000,7.500
2.867,5.500,16.500,70.500,7.500
2.868,5.500,16.500,70.500,7.500
2.869,5.500,16.500,70.500,7.500
2.870,5.000,16.500,70.000,7.000
2.871,5.000,16.500,69.500,6.500
2.872,5.500,16.500,69.000,6.000
2.873,5.500,16.500,68.500,5.000
2.874,5.500,17.000,68.000,4.500
2.875,5.500,17.000,67.500,3.000
2.876,5.000,16.500,67.500,2.500
2.877,5.000,16.500,68.000,1.500
2.878,5.000,16.500,68.500,1.500
2.879,5.000,16.500,69.000,1.500
2.880,5.000,16.500,69.500,2.000
2.881,5.500,17.000,70.000,3.000
2.882,6.000,17.500,70.500,4.500
2.883,6.000,18.000,71.500,6.000
2.884,6.000,18.000,72.000,7.500
2.885,6.000,18.000,72.500,8.500
2.886,6.000,17.500,73.000,9.000
2.887,5.500,17.500,73.000,9.500
2.888,5.500,17.000,73.500,9.500
2.889,5.500,17.000,73.000,9.500
2.890,5.000,16.500,73.000,9.000
2.891,5.500,16.500,72.500,8.500
2.892,5.500,16.500,72.500,8.000
2.893,5.500,17.000,72.000,7.500
2.894,5.500,17.000,72.000,6.500
2.895,5.500,17.000,71.500,5.500
2.896,5.500,17.000,71.500,4.500
2.897,5.500,17.000,72.000,4.000
2.898,5.500,17.000,72.000,3.500
2.899,6.000,17.500,72.500,3.500
2.900,6.000,17.500,72.500,4.500
2.901,6.500,17.500,73.000,5.500
2.902,7.000,17.500,73.500,6.500
2.903,7.500,17.500,74.000,8.000
2.904,7.500,17.500,74.500,9.000
2.905,7.500,17.000,74.500,9.500
2.906,7.500,17.000,75.000,10.000
2.907,7.000,16.500,75.500,10.000
2.908,7.000,16.500,75.500,10.500
2.909,7.000,16.500,75.500,10.500
2.910,6.500,16.500,75.000,10.000
2.911,6.500,16.500,75.000,9.500
2.912,6.500,17.000,74.500,9.000
2.913,6.500,17.000,73.500,8.000
2.914,6.500,17.000,73.000,7.000
2.915,6.500,17.000,73.000,6.000
2.916,6.000,16.500,73.000,4.500
2.917,6.000,16.500,73.000,4.000
2.918,6.000,16.500,73.000,3.500
2.919,6.000,17.000,73.000,3.500
2.920,6.500,17.000,73.500,4.000
2.921,7.000,17.500,74.000,5.000
2.922,8.000,18.000,74.000,6.000
2.923,8.000,18.000,74.500,7.500
2.924,8.500,18.000,75.000,8.500
2.925,8.500,17.500,75.000,9.500
2.926,8.500,17.000,75.500,10.000
2.927,8.000,17.000,76.000,10.500
2.928,8.000,16.500,76.000,11.000
2.929,8.000,16.500,76.000,11.000
2.930,8.500,16.500,76.000,10.500
2.931,8.500,17.000,75.500,10.000
2.932,8.500,17.500,75.000,9.500
2.933,8.500,18.000,74.500,8.500
2.934,8.500,18.000,74.500,7.500
2.935,8.500,18.500,74.000,6.500
2.936,8.500,18.500,74.000,5.500
2.937,8.500,18.500,74.000,5.000
2.938,8.500,18.500,74.500,4.500
2.939,8.500,18.500,74.500,4.500
2.940,9.000,18.500,75.000,5.500
2.941,9.500,19.000,75.500,6.500
2.942,10.000,19.000,75.500,7.500
2.943,10.000,19.000,76.000,8.500
2.944,10.500,18.500,76.500,9.500
2.945,10.500,18.500,77.000,10.000
2.946,10.000,18.000,77.500,10.500
2.947,10.000,18.000,78.000,11.000
2.948,10.000,18.000,78.000,11.000
2.949,10.000,18.000,78.000,11.000
2.950,10.000,18.500,78.000,11.000
2.951,10.000,19.000,77.500,11.000
2.952,10.500,19.000,76.500,10.500
2.953,11.000,19.500,75.500,10.000
2.954,11.000,19.500,75.000,9.000
2.955,11.000,20.000,74.500,8.000
2.956,11.000,20.000,74.000,7.000
2.957,11.000,20.000,74.000,6.500
2.958,10.500,20.000,74.000,6.000
2.959,11.000,20.500,74.500,6.500
2.960,11.000,21.000,75.000,7.500
2.961,12.000,21.500,76.000,8.500
2.962,12.500,22.000,76.500,10.000
2.963,13.000,22.000,77.000,11.500
2.964,13.500,22.000,77.500,13.000
2.965,14.000,22.000,78.500,14.000
2.966,14.000,22.000,79.000,14.500
2.967,14.000,22.000,79.500,15.000
2.968,13.500,22.000,80.000,15.000
2.969,13.500,22.000,80.000,15.000
2.970,13.500,22.500,79.500,14.500
2.971,13.500,22.500,79.000,14.000
2.972,13.500,23.000,78.500,13.000
2.973,13.500,23.000,77.500,12.500
2.974,13.500,23.000,77.000,11.500
2.975,13.500,23.500,77.000,10.500
2.976,13.500,24.000,76.500,9.500
2.977,13.000,24.000,76.500,8.500
2.978,13.000,24.000,76.500,8.000
2.979,13.000,24.000,76.500,8.000
2.980,13.000,24.000,76.000,8.500
2.981,13.500,24.000,75.500,9.000
2.982,13.500,23.500,75.500,10.000
2.983,14.000,23.500,75.500,11.000
2.984,14.000,23.000,75.500,12.000
2.985,14.000,22.500,76.000,13.000
2.986,13.500,22.000,76.500,13.000
2.987,13.000,21.500,76.500,13.500
2.988,13.000,21.000,76.500,13.500
2.989,12.500,21.000,76.500,13.000
2.990,12.500,21.500,76.000,13.000
2.991,12.500,21.500,75.500,12.500
2.992,12.500,22.000,75.000,12.000
2.993,12.500,22.000,75.000,11.000
2.994,12.500,22.500,74.500,10.000
2.995,12.000,22.500,74.000,9.000
2.996,12.000,22.000,74.000,8.000
2.997,12.000,22.000,74.500,7.500
2.998,12.000,22.500,74.500,7.500
2.999,12.500,22.500,75.000,7.500
3.000,12.500,23.000,75.500,8.500
3.001,12.500,23.000,76.000,9.500
3.002,13.000,23.000,76.500,10.500
3.003,13.000,23.000,76.500,12.000
3.004,13.000,23.000,77.000,13.000
3.005,13.000,22.500,77.000,14.000
3.006,13.000,22.500,77.500,15.000
3.007,12.500,22.500,78.000,15.500
3.008,12.500,23.000,78.500,15.500
3.009,13.000,23.000,79.000,16.000
3.010,13.000,23.500,79.000,15.500
3.011,13.000,24.000,79.500,15.500
3.012,13.000,24.500,79.000,15.000
3.013,13.000,24.500,79.000,14.000
3.014,13.000,24.500,78.500,13.500
3.015,13.000,24.500,78.500,12.500
3.016,12.500,24.000,78.000,11.500
3.017,12.000,24.000,78.000,10.500
3.018,11.500,23.500,77.500,10.000
3.019,11.500,23.000,77.500,10.000
3.020,11.500,23.000,77.500,10.000
3.021,11.500,22.500,77.000,10.500
3.022,11.500,22.500,77.000,11.500
3.023,11.000,22.000,77.000,12.500
3.024,11.000,21.500,77.000,13.000
3.025,10.000,21.000,76.500,13.500
3.026,9.500,20.000,76.500,13.500
3.027,8.500,19.500,76.000,13.500
3.028,7.500,18.500,75.500,13.000
3.029,7.000,18.000,75.000,12.500
3.030,7.000,17.500,74.500,12.000
3.031,7.000,18.000,74.000,11.500
3.032,7.500,18.500,74.000,11.000
3.033,8.000,19.000,74.000,10.500
3.034,8.000,19.500,74.000,10.000
3.035,8.500,20.000,74.000,9.000
3.036,8.500,20.500,74.500,8.500
3.037,8.500,20.500,75.500,8.000
3.038,9.000,21.000,76.000,8.500
3.039,9.500,21.500,77.000,9.000
3.040,10.500,22.500,78.000,10.500
3.041,11.500,23.000,79.000,12.000
3.042,12.500,24.000,80.000,14.000
3.043,13.500,24.500,81.000,16.000
3.044,14.000,25.500,82.000,18.000
3.045,14.000,26.000,83.500,19.500
3.046,14.000,26.000,84.000,20.500
3.047,14.000,26.500,85.000,21.500
3.048,14.000,27.000,85.500,22.000
3.049,14.500,27.000,86.000,22.500
3.050,14.500,27.500,85.500,22.500
3.051,14.500,27.500,85.000,22.000
3.052,14.500,27.500,84.500,21.500
3.053,14.000,27.500,83.500,20.500
3.054,14.000,27.000,82.500,19.000
3.055,13.500,26.500,82.000,17.500
3.056,13.000,26.500,81.500,16.500
3.057,12.500,26.000,81.500,15.500
3.058,12.500,26.000,81.500,14.500
3.059,12.500,26.000,81.500,14.500
3.060,12.500,26.000,81.500,15.000
3.061,12.500,26.000,81.500,15.500
3.062,12.500,26.000,81.500,16.500
3.063,13.000,26.000,81.500,18.000
3.064,13.000,26.000,82.000,19.000
3.065,13.000,25.500,82.000,19.500
3.066,13.000,25.500,82.500,20.000
3.067,12.500,25.500,83.000,20.000
3.068,12.500,25.500,83.000,19.500
3.069,12.500,25.000,82.500,19.500
3.070,12.500,25.000,82.000,19.000
3.071,12.500,25.000,81.500,18.500
3.072,12.500,25.000,80.500,17.500
3.073,13.000,25.000,79.500,16.500
3.074,13.000,25.000,79.000,15.500
3.075,12.500,25.000,78.500,14.500
3.076,12.500,25.000,78.500,13.500
3.077,12.500,25.000,79.000,12.500
3.078,12.500,25.000,79.000,12.000
3.079,12.500,25.500,79.000,12.500
3.080,12.500,25.500,79.000,13.000
3.081,13.000,26.000,79.000,14.000
3.082,13.000,26.000,79.500,15.000
3.083,13.500,26.000,79.500,16.000
3.084,13.500,26.000,80.000,17.500
3.085,13.500,25.500,80.500,18.000
3.086,13.000,25.500,80.500,19.000
3.087,13.000,25.000,81.000,19.000
3.088,12.500,25.000,81.000,19.500
3.089,12.500,25.000,81.000,19.500
3.090,12.500,25.000,80.500,19.000
3.091,12.500,25.500,80.000,18.500
3.092,13.000,26.000,80.000,18.000
3.093,13.000,26.500,79.500,17.500
3.094,13.000,27.000,79.000,16.500
3.095,13.000,27.000,79.000,15.500
3.096,13.000,27.000,79.000,14.000
3.097,12.500,27.000,79.000,13.500
3.098,12.500,27.000,79.500,13.000
3.099,12.500,27.000,79.500,13.000
3.100,12.500,27.500,79.500,13.500
3.101,12.500,27.500,79.500,14.000
3.102,12.500,27.000,79.500,15.000
3.103,12.500,26.500,79.500,16.000
3.104,12.500,26.000,79.500,17.000
3.105,12.500,25.500,79.500,17.500
3.106,12.000,25.000,79.500,17.500
3.107,12.000,25.000,79.500,18.000
3.108,12.000,24.500,79.500,17.500
3.109,12.000,24.500,79.500,17.500
3.110,12.000,24.500,79.500,17.000
3.111,12.500,25.000,79.000,16.500
3.112,12.500,25.500,78.500,16.000
3.113,13.000,25.500,77.500,15.000
3.114,13.000,26.000,77.000,14.000
3.115,13.000,26.000,76.500,13.000
3.116,13.000,26.000,76.000,12.000
3.117,12.500,26.000,75.500,11.000
3.118,12.500,26.000,76.000,10.500
3.119,12.500,26.500,76.000,11.000
3.120,12.500,26.500,76.000,11.500
3.121,12.500,26.500,76.500,12.500
3.122,13.000,26.500,76.500,13.500
3.123,13.000,26.500,77.000,15.000
3.124,13.000,26.000,77.500,16.000
3.125,13.000,26.000,77.500,17.000
3.126,12.500,25.500,78.000,17.500
3.127,12.500,25.500,78.000,17.500
3.128,12.500,25.000,78.000,17.500
3.129,12.000,25.000,78.000,17.500
3.130,12.000,25.000,77.500,17.000
3.131,12.000,25.000,76.500,16.000
3.132,12.000,25.000,76.000,15.500
3.133,12.000,25.000,75.000,14.500
3.134,11.500,25.000,74.500,13.000
3.135,11.000,24.500,73.500,12.000
3.136,10.500,24.500,73.000,11.000
3.137,10.500,24.500,73.000,10.000
3.138,10.000,24.500,73.000,10.000
3.139,10.500,24.500,73.000,10.000
3.140,11.000,24.500,73.500,10.500
3.141,11.500,25.000,74.000,11.500
3.142,12.000,25.000,74.500,12.500
3.143,12.000,25.000,75.000,13.500
3.144,12.500,25.000,75.500,15.000
3.145,12.000,25.000,76.000,15.500
3.146,12.000,24.500,76.000,16.000
3.147,11.500,24.000,76.500,16.000
3.148,11.500,24.000,76.000,16.000
3.149,11.000,23.500,75.500,16.000
3.150,10.500,23.500,75.000,15.500
3.151,10.000,23.000,74.000,14.500
3.152,9.500,23.000,72.500,13.500
3.153,9.000,23.000,71.500,12.500
3.154,8.500,22.500,70.500,11.000
3.155,7.500,21.500,69.500,10.000
3.156,6.500,21.000,68.500,8.500
3.157,5.500,20.500,68.000,8.000
3.158,5.000,20.000,67.500,7.500
3.159,4.500,19.500,67.500,8.000
3.160,4.500,19.500,67.500,9.000
3.161,4.500,20.000,68.000,10.500
3.162,4.000,20.000,68.500,12.500
3.163,4.000,20.000,69.500,14.500
3.164,4.000,20.000,70.500,16.000
3.165,4.000,20.500,71.500,18.000
3.166,3.500,21.000,73.000,20.000
3.167,4.000,21.500,74.500,22.000
3.168,4.000,22.000,76.000,24.000
3.169,4.500,23.000,77.500,26.000
3.170,5.500,24.000,78.500,27.500
3.171,6.000,25.000,79.500,29.000
3.172,6.500,26.000,80.500,30.500
3.173,7.000,27.000,81.500,31.500
3.174,7.500,28.000,82.000,32.000
3.175,8.000,28.500,82.500,32.000
3.176,8.000,29.000,83.000,32.000
3.177,8.000,29.500,83.500,32.000
3.178,8.500,30.500,84.000,32.500
3.179,9.500,31.000,84.500,33.000
3.180,10.500,32.000,85.500,34.000
3.181,11.500,33.000,86.000,35.500
3.182,13.000,34.000,86.500,36.500
3.183,14.500,35.000,87.000,38.000
3.184,16.000,36.000,87.500,38.500
3.185,17.500,37.000,88.500,39.000
3.186,19.000,37.500,89.000,39.000
3.187,20.000,38.500,89.000,38.500
3.188,21.000,38.500,89.000,37.500
3.189,21.500,39.000,88.500,36.000
3.190,22.000,39.000,87.500,35.000
3.191,22.000,39.000,86.000,33.500
3.192,22.000,38.500,84.500,31.500
3.193,21.500,38.000,82.500,30.000
3.194,21.000,37.000,81.000,27.500
3.195,20.000,36.500,79.500,25.500
3.196,19.000,35.500,78.500,23.500
3.197,18.000,34.500,77.500,21.500
3.198,17.000,33.500,76.500,20.500
3.199,16.500,32.500,76.000,19.500
3.200,16.000,32.000,75.000,19.000
3.201,15.500,31.000,74.500,18.500
3.202,15.000,30.000,73.500,19.000
3.203,14.500,29.000,73.000,19.000
3.204,14.000,28.000,72.000,19.000
3.205,13.000,27.000,71.500,19.000
3.206,12.500,26.000,71.000,18.500
3.207,11.500,25.500,70.500,18.500
3.208,11.000,25.000,70.000,18.000
3.209,10.500,24.500,69.000,17.500
3.210,9.500,24.000,68.500,16.500
3.211,9.000,23.500,67.500,15.500
3.212,8.500,23.000,66.500,14.000
3.213,8.000,23.000,65.500,12.500
3.214,7.500,22.500,64.500,11.500
3.215,7.000,22.000,63.500,10.000
3.216,6.500,21.500,63.000,8.500
3.217,6.500,21.000,62.500,7.500
3.218,6.500,20.500,62.000,7.000
3.219,6.500,20.500,62.000,6.500
3.220,6.500,20.500,62.000,7.000
3.221,7.000,20.500,62.500,8.000
3.222,7.000,20.500,62.500,9.000
3.223,7.000,20.500,62.500,10.000
3.224,6.500,20.000,63.000,11.000
3.225,6.500,20.000,63.000,11.500
3.226,6.000,19.500,63.000,12.000
3.227,5.500,19.000,63.000,12.000
3.228,5.000,19.000,63.000,12.000
3.229,4.500,18.500,62.500,11.500
3.230,4.500,18.000,62.000,11.000
3.231,4.500,18.000,61.000,10.500
3.232,4.500,18.000,60.500,10.000
3.233,4.500,18.000,60.000,9.000
3.234,4.500,18.000,59.000,8.000
3.235,4.500,18.000,58.500,6.500
3.236,4.000,18.000,58.500,5.500
3.237,3.500,18.000,58.500,4.500
3.238,3.500,18.000,58.500,4.000
3.239,3.500,18.000,58.500,3.500
3.240,3.500,18.000,58.500,4.000
3.241,4.000,18.000,59.000,4.500
3.242,4.000,18.000,59.500,6.000
3.243,4.500,18.000,60.000,7.000
3.244,4.500,17.500,60.000,8.000
3.245,4.500,17.500,60.500,9.000
3.246,4.000,17.000,61.000,9.000
3.247,4.000,17.000,61.500,9.000
3.248,4.000,17.000,61.500,9.000
3.249,4.000,17.000,62.000,9.000
3.250,4.000,17.500,62.000,9.000
3.251,4.000,17.500,61.500,8.500
3.252,4.000,17.500,61.000,7.500
3.253,4.000,17.500,60.500,6.500
3.254,4.000,17.500,60.000,5.500
3.255,3.500,17.500,59.500,4.500
3.256,3.000,17.000,59.000,3.000
3.257,3.000,16.500,59.000,2.000
3.258,2.500,16.500,58.500,1.500
3.259,2.500,16.000,58.500,1.500
3.260,2.500,16.000,58.000,1.500
3.261,2.500,16.000,58.000,2.000
3.262,2.500,16.000,58.000,3.000
3.263,3.000,16.000,58.000,4.500
3.264,2.500,16.000,58.500,5.500
3.265,2.500,16.000,59.000,6.500
3.266,2.000,16.000,59.500,7.000
3.267,1.500,16.000,59.500,7.500
3.268,1.500,15.500,59.500,7.500
3.269,1.500,15.500,59.500,7.000
3.270,1.500,15.500,59.000,6.500
3.271,1.500,15.500,58.500,6.000
3.272,1.500,15.500,57.500,5.000
3.273,1.500,15.500,56.500,4.500
3.274,2.000,16.000,56.000,3.500
3.275,2.000,16.000,55.500,2.000
3.276,1.500,16.000,55.000,1.000
3.277,1.500,15.500,55.000,0.000
3.278,1.500,15.000,55.000,-0.500
3.279,1.500,15.000,55.500,-0.500
3.280,1.500,14.500,55.500,-0.500
3.281,2.000,14.500,55.500,1.000
3.282,2.500,14.500,56.000,2.000
3.283,2.500,14.500,56.500,3.500
3.284,3.000,14.500,56.500,4.500
3.285,2.500,14.500,57.000,5.500
3.286,2.500,14.000,57.000,6.000
3.287,2.000,13.500,57.000,6.000
3.288,1.500,13.500,57.000,6.000
3.289,1.000,13.000,56.500,5.500
3.290,0.500,13.000,56.000,5.000
3.291,0.500,13.000,55.500,4.500
3.292,0.000,12.500,54.500,3.500
3.293,0.000,12.500,53.500,2.500
3.294,0.000,12.500,53.000,1.500
3.295,0.000,12.500,52.500,0.500
3.296,0.000,12.000,52.000,-0.500
3.297,-0.500,12.000,52.000,-1.500
3.298,-0.500,12.000,52.000,-2.500
3.299,-0.500,12.500,52.000,-2.500
3.300,-0.500,12.500,52.000,-2.000
3.301,0.000,13.000,52.000,-1.000
3.302,0.500,13.000,52.500,0.000
3.303,1.000,13.000,52.500,1.500
3.304,1.000,13.000,52.500,2.500
3.305,0.500,13.000,52.000,3.500
3.306,0.500,12.500,52.000,4.000
3.307,0.000,12.500,52.000,4.500
3.308,-0.500,12.500,52.000,4.500
3.309,-1.000,12.000,51.500,4.500
3.310,-1.000,12.000,51.000,4.000
3.311,-1.500,12.000,50.500,3.500
3.312,-1.500,12.500,49.500,3.000
3.313,-1.500,12.500,49.000,2.500
3.314,-1.500,12.500,48.000,1.500
3.315,-1.500,12.500,47.500,0.500
3.316,-1.500,12.500,47.500,-0.500
3.317,-1.500,12.500,47.000,-1.500
3.318,-2.000,12.500,47.000,-2.000
3.319,-2.500,12.500,47.000,-2.000
3.320,-2.000,12.500,47.000,-1.500
3.321,-2.000,13.000,47.000,-1.000
3.322,-1.500,13.000,47.000,0.500
3.323,-1.000,13.500,47.000,2.000
3.324,-1.000,13.500,47.500,3.000
3.325,-1.500,13.000,47.500,4.500
3.326,-2.000,13.000,48.000,5.000
3.327,-2.500,12.500,48.000,5.000
3.328,-3.000,12.000,47.500,5.000
3.329,-3.000,11.500,47.000,4.500
3.330,-3.000,11.500,46.500,4.000
3.331,-3.000,11.500,46.000,3.500
3.332,-3.000,11.500,45.500,2.500
3.333,-3.000,12.000,45.000,1.500
3.334,-3.000,12.000,44.500,0.500
3.335,-3.000,12.000,44.500,-0.500
3.336,-3.500,12.000,44.500,-1.500
3.337,-3.500,12.000,44.500,-2.000
3.338,-3.500,12.000,45.000,-2.500
3.339,-4.000,12.000,45.000,-2.500
3.340,-4.000,12.000,45.500,-2.000
3.341,-3.500,12.000,45.500,-1.000
3.342,-3.500,12.000,45.500,0.500
3.343,-3.000,12.000,46.000,1.500
3.344,-3.000,12.000,46.000,3.000
3.345,-2.500,12.000,46.500,4.000
3.346,-2.500,12.000,46.500,5.000
3.347,-3.000,12.000,46.500,5.000
3.348,-3.500,12.000,46.500,5.000
3.349,-3.500,12.000,46.000,5.000
3.350,-4.000,11.500,45.500,5.000
3.351,-4.000,11.500,45.000,4.500
3.352,-4.000,11.500,44.000,4.000
3.353,-4.000,11.500,43.500,3.000
3.354,-4.000,11.500,42.500,1.500
3.355,-4.000,11.500,42.000,0.500
3.356,-4.000,12.000,42.000,-0.500
3.357,-4.000,12.000,42.500,-1.000
3.358,-3.500,12.500,42.500,-1.000
3.359,-3.500,12.500,43.000,-0.500
3.360,-3.000,12.500,43.000,0.000
3.361,-2.500,12.500,43.000,1.000
3.362,-2.500,12.500,43.000,2.000
3.363,-2.000,12.000,43.000,3.500
3.364,-2.000,12.000,43.000,4.500
3.365,-2.500,11.500,43.500,5.000
3.366,-3.000,11.500,43.500,5.500
3.367,-3.500,11.000,44.000,5.500
3.368,-4.000,11.000,44.000,6.000
3.369,-4.000,11.000,44.000,6.000
3.370,-4.000,11.000,43.500,6.000
3.371,-4.000,11.500,43.500,5.500
3.372,-4.000,11.500,43.000,5.000
3.373,-3.500,12.000,42.500,4.500
3.374,-3.500,12.500,42.000,4.000
3.375,-3.500,13.000,42.000,3.000
3.376,-4.000,13.500,41.500,2.000
3.377,-4.000,13.500,41.500,1.500
3.378,-4.500,13.000,42.000,1.000
3.379,-4.500,13.000,42.000,1.000
3.380,-4.500,13.000,42.500,1.500
3.381,-4.000,13.000,42.500,2.500
3.382,-3.500,13.000,43.000,4.000
3.383,-3.500,13.500,43.500,5.000
3.384,-3.500,13.500,44.000,6.000
3.385,-3.500,13.000,44.000,7.000
3.386,-4.000,13.000,44.500,7.500
3.387,-4.500,12.500,44.500,8.000
3.388,-4.500,12.500,44.500,8.000
3.389,-4.500,12.500,44.500,8.000
3.390,-4.500,12.500,44.000,8.000
3.391,-4.500,12.500,43.500,7.500
3.392,-4.500,12.500,42.500,6.500
3.393,-4.500,12.500,42.000,5.500
3.394,-5.000,12.500,41.500,4.500
3.395,-5.000,12.500,41.000,3.500
3.396,-5.500,12.500,40.500,2.500
3.397,-5.500,13.000,40.500,2.000
3.398,-6.000,12.500,40.500,1.500
3.399,-6.000,12.500,40.500,1.500
3.400,-5.500,12.500,40.500,2.000
3.401,-5.000,12.500,40.500,2.500
3.402,-5.000,12.500,40.500,4.000
3.403,-4.500,12.500,40.500,5.000
3.404,-4.500,12.500,40.500,5.500
3.405,-4.500,12.000,40.500,6.500
3.406,-5.000,12.000,40.500,7.000
3.407,-5.000,11.500,40.500,7.000
3.408,-5.500,11.500,40.500,7.000
3.409,-6.000,11.000,40.000,6.500
3.410,-6.000,11.000,39.000,6.000
3.411,-6.000,11.000,38.000,5.000
3.412,-6.000,11.000,37.000,4.500
3.413,-6.000,11.500,36.000,3.500
3.414,-6.000,12.000,35.500,2.500
3.415,-5.500,12.000,35.000,1.000
3.416,-5.500,12.500,35.000,0.000
3.417,-5.500,12.500,34.500,-1.000
3.418,-5.500,12.500,35.000,-1.500
3.419,-5.500,13.000,35.000,-1.500
3.420,-5.000,13.000,35.000,-1.000
3.421,-5.000,13.000,35.000,0.000
3.422,-4.500,13.000,35.000,1.000
3.423,-4.000,13.500,35.500,2.500
3.424,-3.500,13.500,35.500,3.500
3.425,-3.500,13.000,36.000,4.000
3.426,-4.000,13.000,36.000,5.000
3.427,-4.000,13.000,36.500,5.000
3.428,-4.000,13.000,36.500,5.500
3.429,-4.000,13.000,37.000,5.500
3.430,-3.500,13.500,37.000,5.500
3.431,-3.000,14.000,36.500,5.000
3.432,-2.500,14.000,36.500,4.500
3.433,-2.500,14.500,36.000,4.000
3.434,-2.000,14.500,35.500,3.000
3.435,-2.000,15.000,35.500,2.000
3.436,-2.500,15.000,35.500,1.500
3.437,-2.500,15.000,35.500,0.500
3.438,-2.500,15.000,36.000,0.500
3.439,-2.500,15.000,36.000,0.500
3.440,-2.000,15.500,36.500,1.500
3.441,-2.000,15.500,36.500,2.500
3.442,-1.500,15.500,36.500,3.500
3.443,-1.000,16.000,37.000,5.000
3.444,-1.000,16.000,37.000,6.000
3.445,-1.000,16.000,37.000,7.000
3.446,-1.000,15.500,37.500,7.500
3.447,-1.500,15.500,37.500,8.000
3.448,-1.500,15.000,37.000,8.000
3.449,-2.000,15.000,37.000,7.500
3.450,-2.000,15.000,36.000,7.000
3.451,-2.500,14.500,35.000,6.500
3.452,-2.500,14.500,34.000,5.500
3.453,-3.000,14.500,33.000,4.500
3.454,-3.000,14.000,32.000,3.000
3.455,-3.000,13.500,30.500,2.000
3.456,-3.500,13.000,29.500,0.500
3.457,-4.000,12.500,29.000,-1.000
3.458,-4.500,12.000,28.000,-2.000
3.459,-5.000,11.500,27.500,-2.000
3.460,-5.500,11.000,27.500,-2.000
3.461,-5.500,11.000,27.000,-1.000
3.462,-5.000,11.000,27.500,0.500
3.463,-4.500,11.000,28.000,2.000
3.464,-4.000,11.500,28.500,3.500
3.465,-4.000,11.500,29.500,5.000
3.466,-4.000,11.500,30.000,6.000
3.467,-4.000,11.500,31.000,6.500
3.468,-3.500,12.000,31.500,7.000
3.469,-3.500,12.000,31.500,7.000
3.470,-3.500,12.500,31.500,7.000
3.471,-3.000,13.500,31.500,7.000
3.472,-2.000,14.000,31.000,7.000
3.473,-1.500,15.000,31.000,6.500
3.474,-1.000,15.500,31.000,6.000
3.475,-0.500,16.000,31.000,5.500
3.476,0.000,16.500,31.000,5.000
3.477,0.500,17.000,31.500,4.500
3.478,0.500,17.000,32.000,4.500
3.479,1.000,17.500,32.000,4.500
3.480,1.000,18.000,32.500,5.000
3.481,1.000,18.000,32.500,6.000
3.482,1.000,18.000,32.500,7.000
3.483,1.000,17.500,32.500,7.500
3.484,0.500,17.000,32.500,8.500
3.485,-0.500,16.500,32.500,9.000
3.486,-1.000,16.000,33.000,9.000
3.487,-1.500,15.500,32.500,9.000
3.488,-1.500,15.000,32.500,9.000
3.489,-2.000,15.000,32.000,8.500
3.490,-2.000,14.500,31.000,8.000
3.491,-2.500,14.500,30.000,7.000
3.492,-3.000,14.000,29.000,6.000
3.493,-3.000,14.000,28.000,4.500
3.494,-3.000,14.000,27.000,3.500
3.495,-3.500,14.000,26.500,2.500
3.496,-3.500,14.000,26.500,1.500
3.497,-3.500,14.000,26.500,0.500
3.498,-4.000,13.500,26.000,0.000
3.499,-4.000,13.500,26.000,0.000
3.500,-4.000,13.000,26.000,0.000
3.501,-4.000,13.000,26.000,1.000
3.502,-4.000,13.000,26.000,1.500
3.503,-3.500,12.500,26.000,3.000
3.504,-3.500,12.500,26.500,4.000
3.505,-4.000,12.500,26.500,4.500
3.506,-4.000,12.500,27.000,5.000
3.507,-4.000,12.500,27.500,5.500
3.508,-4.500,12.500,27.500,5.500
3.509,-4.500,12.500,27.500,5.500
3.510,-5.000,12.500,27.000,5.000
3.511,-5.000,12.500,26.000,4.500
3.512,-5.000,12.000,25.000,3.500
3.513,-5.000,12.000,24.500,2.500
3.514,-5.500,12.000,24.000,1.500
3.515,-5.500,12.000,23.500,1.000
3.516,-5.500,12.000,23.500,0.000
3.517,-6.000,12.000,23.500,-0.500
3.518,-6.000,12.000,23.500,-1.000
3.519,-6.000,12.000,23.500,-1.000
3.520,-5.500,12.000,24.000,-0.500
3.521,-5.000,12.000,24.000,0.500
3.522,-5.000,12.500,24.500,1.500
3.523,-5.000,12.500,24.500,3.000
3.524,-5.000,12.500,25.000,4.000
3.525,-5.000,12.000,25.500,4.500
3.526,-5.000,11.500,25.500,5.000
3.527,-5.500,11.500,26.000,5.500
3.528,-5.500,11.500,26.000,5.500
3.529,-5.500,11.500,26.000,5.500
3.530,-5.500,11.500,25.500,5.500
3.531,-5.000,11.500,25.000,5.000
3.532,-5.000,12.000,24.500,4.500
3.533,-5.000,12.000,24.000,3.500
3.534,-4.500,12.500,23.500,3.000
3.535,-5.000,12.500,23.000,2.000
3.536,-5.000,12.500,23.000,1.000
3.537,-5.500,12.000,22.500,0.000
3.538,-5.500,12.000,22.500,-0.500
3.539,-5.500,12.000,22.500,-0.500
3.540,-5.500,11.500,22.500,0.000
3.541,-5.000,11.500,22.500,0.500
3.542,-5.000,11.500,23.000,2.000
3.543,-4.500,11.500,23.500,3.000
3.544,-4.500,11.500,24.000,4.500
3.545,-5.000,11.500,24.500,5.000
3.546,-5.000,11.500,24.500,6.000
3.547,-5.000,11.000,25.000,6.000
3.548,-5.500,11.000,25.000,6.000
3.549,-5.500,10.500,25.000,6.000
3.550,-6.000,10.500,24.500,5.000
3.551,-6.000,10.000,23.500,4.500
3.552,-6.000,10.000,22.500,3.500
3.553,-6.500,9.500,21.500,2.000
3.554,-6.500,9.000,21.000,0.500
3.555,-6.500,9.000,20.000,-1.000
3.556,-7.000,8.500,20.000,-2.000
3.557,-7.000,8.500,19.500,-3.000
3.558,-7.000,9.000,20.000,-3.500
3.559,-7.000,9.000,20.000,-3.000
3.560,-7.000,9.000,20.500,-2.500
3.561,-6.500,9.500,20.500,-1.000
3.562,-6.000,9.500,21.000,0.000
3.563,-6.000,9.500,21.000,1.500
3.564,-5.500,9.000,21.000,3.000
3.565,-6.000,9.000,21.000,3.500
3.566,-6.000,9.000,21.000,4.000
3.567,-6.500,8.500,21.000,4.000
3.568,-6.500,8.500,21.000,4.500
3.569,-6.500,8.500,21.000,4.000
3.570,-6.500,8.500,20.500,4.000
3.571,-6.500,9.000,20.000,4.000
3.572,-6.000,9.000,19.500,3.500
3.573,-6.000,9.500,19.000,3.000
3.574,-6.000,9.500,18.500,2.000
3.575,-6.000,10.000,18.000,1.000
3.576,-6.000,10.000,18.000,0.000
3.577,-6.000,10.000,18.000,-0.500
3.578,-6.000,10.000,18.000,-1.000
3.579,-6.000,10.000,18.000,-0.500
3.580,-5.500,10.000,18.500,0.000
3.581,-5.000,10.000,18.500,1.000
3.582,-4.500,10.000,18.500,2.000
3.583,-4.500,10.000,18.500,3.000
3.584,-4.500,10.000,18.500,4.000
3.585,-4.500,10.000,18.500,4.500
