'Elapsed time','AECG1','AECG2','AECG3','AECG4'
'seconds','uV','uV','uV','uV'
0.000,-352.500,-323.500,-362.500,-376.000
0.001,-352.500,-323.000,-362.500,-376.000
0.002,-352.000,-322.500,-362.000,-376.000
0.003,-351.500,-322.500,-362.000,-376.000
0.004,-351.000,-323.000,-362.500,-376.500
0.005,-351.000,-324.000,-363.500,-377.500
0.006,-351.500,-325.500,-365.000,-379.000
0.007,-352.000,-327.000,-366.500,-380.000
0.008,-353.000,-328.500,-367.500,-381.500
0.009,-353.000,-329.000,-368.000,-381.500
0.010,-352.000,-328.500,-367.000,-380.500
0.011,-350.000,-326.500,-364.500,-378.500
0.012,-347.000,-323.500,-361.500,-375.000
0.013,-344.500,-320.500,-358.000,-372.000
0.014,-342.500,-318.500,-355.500,-369.500
0.015,-342.000,-317.000,-354.500,-368.500
0.016,-343.000,-317.000,-354.500,-368.500
0.017,-345.500,-318.000,-356.000,-369.500
0.018,-349.000,-320.500,-358.000,-372.000
0.019,-352.500,-323.000,-361.000,-374.500
0.020,-355.000,-325.000,-362.500,-376.500
0.021,-355.500,-325.500,-363.500,-377.500
0.022,-355.000,-324.500,-363.000,-377.000
0.023,-354.000,-323.500,-362.000,-376.500
0.024,-353.500,-323.500,-362.000,-376.500
0.025,-354.000,-324.000,-363.000,-378.500
0.026,-355.500,-326.000,-365.000,-380.500
0.027,-356.000,-327.500,-367.000,-382.500
0.028,-355.500,-328.000,-368.000,-383.000
0.029,-353.500,-326.500,-366.500,-381.500
0.030,-350.000,-323.500,-364.000,-379.000
0.031,-346.500,-320.500,-360.500,-375.500
0.032,-344.000,-318.000,-358.000,-373.000
0.033,-343.500,-318.000,-358.000,-373.000
0.034,-345.500,-320.000,-359.500,-375.000
0.035,-349.500,-324.000,-363.500,-378.500
0.036,-354.500,-328.500,-368.000,-382.500
0.037,-358.500,-332.500,-372.000,-386.000
0.038,-360.500,-334.000,-374.000,-387.500
0.039,-359.000,-332.500,-373.000,-386.000
0.040,-354.500,-328.000,-368.000,-381.000
0.041,-348.000,-320.500,-361.000,-373.500
0.042,-340.500,-313.000,-353.500,-366.000
0.043,-334.500,-307.000,-347.000,-360.000
0.044,-330.500,-303.500,-343.000,-357.000
0.045,-328.500,-302.000,-341.500,-355.500
0.046,-326.500,-300.000,-340.000,-354.500
0.047,-323.500,-297.500,-337.000,-352.000
0.048,-320.000,-294.500,-334.000,-349.500
0.049,-319.000,-293.500,-333.500,-348.500
0.050,-321.500,-296.500,-336.500,-352.000
0.051,-328.000,-303.000,-343.000,-358.500
0.052,-335.500,-310.500,-351.000,-365.500
0.053,-341.500,-316.500,-356.500,-371.000
0.054,-345.500,-320.500,-360.500,-374.500
0.055,-349.500,-324.500,-364.500,-377.500
0.056,-353.500,-329.000,-368.500,-381.500
0.057,-358.500,-334.000,-373.000,-385.500
0.058,-363.000,-337.500,-377.000,-389.000
0.059,-365.500,-340.000,-379.000,-391.000
0.060,-366.500,-340.000,-379.000,-391.000
0.061,-367.000,-340.000,-379.500,-391.500
0.062,-369.000,-342.000,-381.500,-393.500
0.063,-373.000,-346.500,-386.000,-398.500
0.064,-378.500,-352.500,-392.000,-404.500
0.065,-383.000,-357.500,-397.000,-410.500
0.066,-384.500,-360.500,-399.500,-413.000
0.067,-383.000,-359.500,-398.000,-412.000
0.068,-379.000,-356.000,-394.000,-408.500
0.069,-374.000,-351.000,-388.500,-403.500
0.070,-368.500,-346.000,-383.500,-398.500
0.071,-364.500,-341.500,-378.500,-394.000
0.072,-361.500,-338.500,-375.500,-391.000
0.073,-360.500,-337.500,-374.500,-389.500
0.074,-361.500,-338.000,-375.500,-390.500
0.075,-363.500,-340.500,-377.500,-392.500
0.076,-366.000,-342.000,-379.500,-394.000
0.077,-366.500,-342.500,-380.000,-394.500
0.078,-365.500,-340.500,-378.500,-392.500
0.079,-363.000,-337.500,-376.000,-389.500
0.080,-359.500,-334.000,-372.000,-385.500
0.081,-355.500,-329.500,-367.500,-381.000
0.082,-351.000,-324.500,-362.500,-376.500
0.083,-346.000,-319.500,-358.000,-372.500
0.084,-341.500,-315.000,-353.500,-369.000
0.085,-338.000,-312.000,-350.500,-366.500
0.086,-337.000,-311.000,-349.500,-366.000
0.087,-338.000,-312.000,-351.000,-368.000
0.088,-340.500,-315.000,-354.000,-371.000
0.089,-343.500,-318.000,-356.500,-374.500
0.090,-345.000,-320.000,-358.500,-376.000
0.091,-345.000,-320.500,-358.500,-376.000
0.092,-344.500,-320.000,-358.000,-375.000
0.093,-345.500,-320.500,-358.500,-375.500
0.094,-349.500,-324.000,-361.500,-378.500
0.095,-356.500,-330.000,-368.000,-384.500
0.096,-364.500,-337.500,-376.000,-391.500
0.097,-371.000,-343.500,-382.000,-397.500
0.098,-374.000,-346.000,-384.500,-399.500
0.099,-373.000,-345.000,-383.000,-398.000
0.100,-370.000,-342.000,-379.500,-394.500
0.101,-366.500,-338.500,-376.000,-391.000
0.102,-363.500,-336.000,-373.500,-388.500
0.103,-361.500,-334.000,-371.500,-386.500
0.104,-360.000,-332.500,-370.000,-385.500
0.105,-358.500,-332.000,-368.500,-385.000
0.106,-357.500,-331.000,-368.000,-384.500
0.107,-356.500,-331.000,-367.500,-384.500
0.108,-356.000,-331.000,-367.500,-384.500
0.109,-355.500,-331.000,-367.500,-385.000
0.110,-355.500,-331.500,-368.500,-385.500
0.111,-355.500,-332.000,-369.000,-386.000
0.112,-355.500,-332.500,-369.500,-386.500
0.113,-356.000,-333.000,-370.000,-387.000
0.114,-356.000,-332.500,-369.500,-386.000
0.115,-355.500,-331.500,-368.500,-384.500
0.116,-355.500,-331.000,-367.500,-383.000
0.117,-356.500,-331.000,-367.000,-382.500
0.118,-357.500,-331.500,-367.500,-382.000
0.119,-358.500,-332.500,-368.000,-382.000
0.120,-360.500,-334.000,-369.500,-383.500
0.121,-362.000,-336.000,-371.500,-385.000
0.122,-363.000,-337.000,-372.500,-386.000
0.123,-361.000,-336.000,-371.500,-385.000
0.124,-356.500,-332.500,-367.500,-381.000
0.125,-350.000,-327.000,-362.500,-376.000
0.126,-345.000,-322.500,-357.500,-371.500
0.127,-341.500,-320.000,-355.500,-370.000
0.128,-340.500,-319.500,-355.500,-370.500
0.129,-340.000,-319.000,-356.000,-371.500
0.130,-339.000,-317.500,-356.000,-371.500
0.131,-337.000,-315.000,-354.500,-370.000
0.132,-334.500,-311.500,-351.500,-367.500
0.133,-331.500,-307.500,-347.500,-363.500
0.134,-328.000,-303.000,-343.000,-359.000
0.135,-325.500,-299.500,-339.000,-355.000
0.136,-324.000,-297.000,-336.000,-352.000
0.137,-324.000,-296.000,-335.000,-350.500
0.138,-324.500,-296.000,-334.500,-349.500
0.139,-325.000,-295.500,-334.000,-348.500
0.140,-324.000,-294.500,-333.000,-347.000
0.141,-323.000,-293.000,-332.000,-345.500
0.142,-322.000,-293.000,-331.500,-345.000
0.143,-321.500,-293.000,-332.000,-345.500
0.144,-321.500,-293.500,-332.500,-346.000
0.145,-320.500,-293.000,-332.000,-346.000
0.146,-319.500,-292.000,-331.500,-346.000
0.147,-318.500,-292.000,-331.500,-346.500
0.148,-319.500,-293.000,-333.000,-348.000
0.149,-321.000,-295.000,-335.000,-350.500
0.150,-321.500,-296.500,-336.500,-352.000
0.151,-321.000,-296.500,-336.500,-352.000
0.152,-319.500,-294.500,-334.000,-350.000
0.153,-317.000,-292.000,-331.000,-347.000
0.154,-315.000,-289.500,-328.000,-344.500
0.155,-314.000,-288.000,-326.000,-342.500
0.156,-314.500,-288.000,-325.500,-342.000
0.157,-316.000,-288.500,-326.000,-342.000
0.158,-317.500,-289.500,-326.500,-342.500
0.159,-318.000,-289.500,-326.500,-342.000
0.160,-318.000,-289.000,-326.000,-342.000
0.161,-318.000,-289.500,-326.500,-342.500
0.162,-319.000,-291.000,-328.500,-344.500
0.163,-320.500,-293.500,-331.500,-347.500
0.164,-321.000,-295.500,-333.500,-349.000
0.165,-319.500,-295.000,-333.500,-348.500
0.166,-316.000,-291.500,-330.500,-345.500
0.167,-310.500,-286.500,-325.500,-341.000
0.168,-305.000,-281.500,-321.000,-336.000
0.169,-301.500,-278.500,-318.000,-333.500
0.170,-300.500,-277.500,-317.000,-332.500
0.171,-300.500,-277.500,-317.000,-332.500
0.172,-299.500,-276.500,-316.000,-331.500
0.173,-297.500,-274.000,-313.500,-328.500
0.174,-294.000,-270.500,-309.500,-325.000
0.175,-291.000,-267.000,-306.000,-321.000
0.176,-290.500,-265.500,-304.000,-319.000
0.177,-293.000,-267.000,-306.000,-320.000
0.178,-299.000,-272.500,-311.000,-325.000
0.179,-307.500,-280.500,-318.500,-333.000
0.180,-317.000,-289.000,-327.000,-341.500
0.181,-325.500,-297.500,-335.000,-349.500
0.182,-332.500,-304.500,-341.500,-356.000
0.183,-337.000,-309.500,-346.500,-361.000
0.184,-340.000,-313.000,-349.500,-363.500
0.185,-340.000,-313.500,-349.500,-364.000
0.186,-336.500,-311.000,-347.000,-361.000
0.187,-330.000,-305.500,-341.000,-354.500
0.188,-322.500,-298.000,-334.000,-347.500
0.189,-317.000,-292.500,-329.000,-342.000
0.190,-316.000,-291.500,-328.500,-341.500
0.191,-321.000,-296.500,-334.000,-347.000
0.192,-330.500,-305.500,-343.500,-356.500
0.193,-340.500,-315.500,-354.000,-367.000
0.194,-348.500,-323.000,-362.500,-375.000
0.195,-352.500,-327.000,-366.500,-378.500
0.196,-352.000,-326.500,-366.500,-378.000
0.197,-349.000,-323.000,-363.500,-375.000
0.198,-345.500,-319.500,-360.000,-371.500
0.199,-344.000,-317.000,-357.500,-369.000
0.200,-344.000,-316.500,-357.000,-369.000
0.201,-345.000,-317.500,-357.500,-370.000
0.202,-347.000,-319.500,-359.500,-372.000
0.203,-349.500,-322.500,-362.500,-375.500
0.204,-353.000,-326.500,-367.000,-380.000
0.205,-356.500,-330.500,-371.000,-384.500
0.206,-358.500,-333.000,-373.500,-387.000
0.207,-359.000,-333.500,-374.000,-388.000
0.208,-357.500,-332.000,-372.500,-386.500
0.209,-355.000,-329.500,-369.500,-384.000
0.210,-352.500,-327.000,-367.000,-382.000
0.211,-351.000,-325.500,-365.500,-381.000
0.212,-351.500,-325.500,-366.000,-381.500
0.213,-353.500,-327.500,-368.000,-383.500
0.214,-356.500,-330.500,-371.000,-386.000
0.215,-360.000,-333.500,-374.000,-389.000
0.216,-362.500,-336.000,-376.000,-390.500
0.217,-364.500,-337.500,-377.500,-391.500
0.218,-365.500,-338.500,-378.000,-391.500
0.219,-366.500,-339.000,-378.500,-392.000
0.220,-367.500,-340.000,-379.500,-392.500
0.221,-368.000,-340.500,-380.000,-393.500
0.222,-367.500,-340.000,-380.500,-394.000
0.223,-366.500,-339.500,-380.000,-394.000
0.224,-366.000,-339.500,-380.500,-394.500
0.225,-366.000,-340.000,-382.000,-396.000
0.226,-367.000,-341.500,-384.000,-398.500
0.227,-368.000,-343.000,-385.500,-400.000
0.228,-367.000,-342.500,-385.500,-400.000
0.229,-364.000,-339.500,-382.500,-397.000
0.230,-359.000,-335.000,-377.500,-392.000
0.231,-353.500,-330.000,-372.500,-386.500
0.232,-348.500,-325.000,-367.500,-381.500
0.233,-345.500,-322.500,-364.500,-378.500
0.234,-345.000,-322.000,-363.000,-377.000
0.235,-346.000,-323.500,-363.000,-377.000
0.236,-347.000,-324.000,-362.500,-376.500
0.237,-347.000,-323.500,-360.500,-374.500
0.238,-344.500,-320.500,-357.000,-371.500
0.239,-342.500,-318.000,-354.000,-369.000
0.240,-343.000,-317.500,-354.000,-369.000
0.241,-346.000,-320.500,-357.000,-373.000
0.242,-351.000,-325.000,-362.000,-378.500
0.243,-354.500,-328.500,-366.000,-382.500
0.244,-355.500,-330.000,-367.500,-384.500
0.245,-354.500,-329.000,-367.500,-384.500
0.246,-353.000,-328.000,-366.500,-384.000
0.247,-353.000,-328.000,-367.000,-385.000
0.248,-353.500,-329.500,-369.000,-387.000
0.249,-356.000,-332.500,-372.000,-390.500
0.250,-360.500,-337.500,-376.500,-395.500
0.251,-367.500,-344.500,-383.000,-402.000
0.252,-374.500,-351.500,-390.000,-409.000
0.253,-381.000,-358.000,-396.000,-415.500
0.254,-385.500,-362.500,-400.000,-419.500
0.255,-389.000,-365.000,-403.500,-423.000
0.256,-391.500,-367.500,-406.000,-425.000
0.257,-394.500,-369.000,-408.500,-427.000
0.258,-397.000,-371.500,-411.000,-429.500
0.259,-400.500,-374.000,-414.000,-431.500
0.260,-402.000,-376.000,-415.500,-433.000
0.261,-399.500,-373.500,-413.000,-430.000
0.262,-390.500,-365.000,-404.500,-421.000
0.263,-374.500,-349.500,-389.000,-405.500
0.264,-353.000,-328.500,-367.500,-384.000
0.265,-328.000,-304.000,-343.000,-359.500
0.266,-301.500,-278.000,-316.500,-333.000
0.267,-274.500,-251.000,-289.000,-305.500
0.268,-246.000,-223.000,-260.000,-276.500
0.269,-216.000,-193.500,-229.500,-246.500
0.270,-184.000,-161.000,-196.500,-213.000
0.271,-148.000,-125.000,-159.000,-175.000
0.272,-106.500,-83.000,-115.500,-131.000
0.273,-60.000,-36.000,-67.000,-81.500
0.274,-10.000,15.000,-15.000,-29.000
0.275,40.500,66.500,37.000,24.000
0.276,88.500,116.500,87.000,75.000
0.277,133.000,162.000,133.000,121.500
0.278,173.000,203.000,174.000,163.000
0.279,209.500,240.000,210.500,200.500
0.280,243.000,273.500,244.000,235.000
0.281,275.000,306.000,276.500,268.000
0.282,305.500,336.500,307.000,299.000
0.283,331.500,362.500,333.000,325.000
0.284,348.500,380.000,350.500,342.000
0.285,353.500,385.000,355.500,346.500
0.286,343.500,375.000,345.500,336.000
0.287,319.000,350.500,320.500,310.000
0.288,282.000,313.000,282.500,271.500
0.289,234.000,265.000,233.500,222.000
0.290,179.500,209.500,177.000,165.000
0.291,120.500,150.500,117.000,104.000
0.292,61.500,90.500,56.500,43.000
0.293,5.000,33.500,-1.500,-16.000
0.294,-47.000,-19.000,-54.500,-69.000
0.295,-92.500,-65.000,-100.500,-116.000
0.296,-131.500,-104.500,-140.500,-156.000
0.297,-165.500,-139.000,-175.000,-191.000
0.298,-196.000,-170.000,-206.500,-222.500
0.299,-224.500,-198.500,-235.500,-251.500
0.300,-250.500,-225.000,-262.500,-278.500
0.301,-273.000,-248.000,-285.500,-301.500
0.302,-290.500,-266.500,-303.500,-319.500
0.303,-303.000,-279.500,-316.500,-332.000
0.304,-311.500,-288.500,-325.500,-341.000
0.305,-317.500,-295.000,-332.000,-347.500
0.306,-322.000,-300.000,-337.000,-352.500
0.307,-325.000,-304.000,-341.000,-357.000
0.308,-327.000,-306.000,-343.500,-359.500
0.309,-326.500,-306.000,-344.000,-360.000
0.310,-324.000,-303.500,-341.500,-358.000
0.311,-319.000,-299.000,-337.000,-353.500
0.312,-313.500,-293.000,-331.500,-348.000
0.313,-310.000,-288.500,-327.000,-343.500
0.314,-307.500,-286.000,-324.000,-341.000
0.315,-307.000,-284.500,-323.500,-340.000
0.316,-307.000,-284.500,-324.000,-340.000
0.317,-308.000,-285.500,-325.000,-341.000
0.318,-309.500,-287.000,-327.000,-343.000
0.319,-311.000,-288.500,-329.000,-344.500
0.320,-311.500,-289.500,-330.000,-345.500
0.321,-311.500,-289.000,-329.500,-345.000
0.322,-310.500,-288.000,-328.500,-344.000
0.323,-310.500,-288.000,-328.500,-344.000
0.324,-313.500,-291.000,-331.000,-347.500
0.325,-320.000,-297.500,-338.000,-354.500
0.326,-330.000,-307.500,-348.000,-365.000
0.327,-341.000,-318.500,-359.000,-376.000
0.328,-351.000,-329.000,-369.000,-386.500
0.329,-359.000,-337.000,-377.000,-394.500
0.330,-364.000,-342.500,-382.000,-399.500
0.331,-365.500,-343.500,-383.500,-400.500
0.332,-363.500,-341.500,-381.000,-398.000
0.333,-359.000,-337.000,-376.500,-393.500
0.334,-354.000,-331.500,-371.000,-388.000
0.335,-349.000,-326.000,-365.000,-383.000
0.336,-344.000,-321.000,-360.000,-377.500
0.337,-339.000,-316.500,-354.500,-372.500
0.338,-334.500,-312.000,-349.500,-367.500
0.339,-331.500,-309.000,-345.500,-364.000
0.340,-329.500,-308.000,-344.000,-362.000
0.341,-329.500,-308.000,-343.500,-362.000
0.342,-329.000,-308.500,-344.000,-362.000
0.343,-327.500,-307.000,-343.500,-361.000
0.344,-323.500,-304.000,-340.500,-358.000
0.345,-318.000,-298.500,-335.500,-353.500
0.346,-312.000,-292.500,-329.000,-347.500
0.347,-306.500,-287.000,-323.500,-342.500
0.348,-303.500,-284.000,-320.500,-339.500
0.349,-303.000,-283.500,-320.000,-339.500
0.350,-306.500,-287.000,-323.500,-343.500
0.351,-314.500,-295.000,-332.000,-351.500
0.352,-327.500,-307.500,-344.500,-364.500
0.353,-341.500,-321.500,-359.000,-378.500
0.354,-353.500,-333.500,-371.000,-390.000
0.355,-361.500,-341.000,-378.500,-397.000
0.356,-365.000,-344.000,-381.500,-399.500
0.357,-364.500,-343.500,-381.000,-398.500
0.358,-362.500,-341.000,-379.000,-396.000
0.359,-358.500,-337.500,-375.500,-392.000
0.360,-354.000,-333.000,-371.000,-387.500
0.361,-349.500,-328.000,-366.500,-382.500
0.362,-345.000,-323.500,-362.000,-378.000
0.363,-342.000,-320.500,-358.500,-374.500
0.364,-340.500,-318.500,-356.500,-373.000
0.365,-339.500,-318.000,-355.500,-372.500
0.366,-339.500,-318.000,-356.000,-373.500
0.367,-340.500,-319.000,-357.000,-375.000
0.368,-341.000,-320.500,-359.000,-376.500
0.369,-342.000,-322.000,-360.000,-378.000
0.370,-342.500,-323.000,-361.000,-379.000
0.371,-342.000,-322.500,-360.500,-378.500
0.372,-339.500,-321.000,-358.500,-376.500
0.373,-336.000,-317.500,-354.500,-372.500
0.374,-331.000,-312.500,-350.000,-367.500
0.375,-324.500,-306.000,-343.500,-361.000
0.376,-316.500,-298.000,-335.500,-353.000
0.377,-307.500,-289.000,-326.500,-343.000
0.378,-299.000,-280.000,-317.500,-334.000
0.379,-293.500,-274.000,-311.500,-328.500
0.380,-293.500,-273.500,-311.000,-328.000
0.381,-298.500,-278.000,-315.500,-333.000
0.382,-306.500,-286.000,-323.500,-341.000
0.383,-315.500,-294.500,-332.000,-349.500
0.384,-323.000,-302.500,-340.000,-358.000
0.385,-329.500,-308.500,-346.500,-364.500
0.386,-333.000,-313.000,-351.000,-369.000
0.387,-335.000,-315.000,-353.500,-371.500
0.388,-335.000,-316.000,-354.500,-372.500
0.389,-335.000,-316.000,-355.000,-372.500
0.390,-335.000,-316.000,-354.500,-372.500
0.391,-335.500,-316.500,-355.000,-373.000
0.392,-338.000,-318.500,-356.500,-374.500
0.393,-340.500,-321.500,-358.500,-376.500
0.394,-342.500,-323.000,-359.500,-377.500
0.395,-343.000,-322.500,-359.000,-376.500
0.396,-341.000,-320.000,-356.000,-374.000
0.397,-338.500,-316.500,-352.000,-370.000
0.398,-335.000,-312.500,-347.500,-366.000
0.399,-332.000,-309.000,-343.500,-362.000
0.400,-329.000,-306.500,-340.500,-359.000
0.401,-327.000,-304.500,-338.500,-357.000
0.402,-325.500,-303.000,-337.500,-355.500
0.403,-323.000,-301.500,-336.500,-354.000
0.404,-319.000,-298.500,-334.500,-351.500
0.405,-314.500,-294.500,-331.000,-348.000
0.406,-310.000,-290.500,-328.000,-345.000
0.407,-307.500,-288.500,-326.000,-343.500
0.408,-307.500,-289.000,-327.000,-345.000
0.409,-309.000,-291.000,-329.000,-347.000
0.410,-310.000,-292.000,-330.000,-348.500
0.411,-309.000,-290.500,-329.000,-347.000
0.412,-306.000,-287.500,-326.000,-344.000
0.413,-302.000,-283.000,-322.000,-340.000
0.414,-298.500,-279.500,-318.000,-336.000
0.415,-297.500,-278.000,-316.000,-333.500
0.416,-299.000,-279.000,-316.000,-333.500
0.417,-302.500,-281.500,-318.000,-335.500
0.418,-306.500,-285.500,-321.000,-338.500
0.419,-310.500,-289.000,-324.000,-341.500
0.420,-313.500,-292.000,-326.500,-344.500
0.421,-317.000,-295.000,-329.500,-347.500
0.422,-320.000,-298.500,-333.000,-351.000
0.423,-323.000,-301.500,-336.000,-354.000
0.424,-324.500,-303.500,-338.500,-356.500
0.425,-324.500,-304.500,-339.500,-357.500
0.426,-323.000,-303.500,-338.500,-356.500
0.427,-320.000,-301.500,-336.500,-354.500
0.428,-316.500,-298.500,-334.000,-351.500
0.429,-313.000,-296.500,-331.500,-349.000
0.430,-311.000,-295.000,-329.500,-347.500
0.431,-309.500,-294.000,-328.500,-346.500
0.432,-308.000,-293.000,-327.500,-345.500
0.433,-307.500,-292.500,-327.000,-345.000
0.434,-308.000,-292.000,-327.000,-345.000
0.435,-309.000,-292.000,-327.000,-345.000
0.436,-309.000,-291.000,-326.500,-344.500
0.437,-308.000,-289.000,-324.000,-342.000
0.438,-306.000,-285.500,-320.500,-338.500
0.439,-302.000,-281.000,-315.500,-334.000
0.440,-296.000,-274.500,-309.000,-327.500
0.441,-288.500,-267.000,-301.000,-319.500
0.442,-280.500,-258.500,-292.000,-311.500
0.443,-273.500,-251.000,-285.000,-304.000
0.444,-269.000,-246.500,-280.500,-300.000
0.445,-269.000,-247.000,-280.500,-301.000
0.446,-274.000,-252.000,-286.000,-306.500
0.447,-283.000,-261.500,-295.500,-316.500
0.448,-293.500,-272.500,-306.500,-328.000
0.449,-303.000,-282.500,-316.500,-337.500
0.450,-309.000,-289.000,-323.000,-344.500
0.451,-311.500,-292.500,-326.500,-347.500
0.452,-312.000,-293.500,-327.000,-348.000
0.453,-311.000,-293.500,-326.500,-347.000
0.454,-309.500,-292.500,-325.500,-345.500
0.455,-307.000,-291.000,-323.500,-343.000
0.456,-304.000,-288.000,-320.500,-339.000
0.457,-299.000,-283.000,-316.000,-334.000
0.458,-293.000,-277.000,-310.000,-327.000
0.459,-286.000,-269.500,-303.000,-320.000
0.460,-279.000,-261.500,-295.500,-312.000
0.461,-271.000,-253.000,-287.000,-303.500
0.462,-264.000,-245.000,-279.000,-295.500
0.463,-258.000,-238.000,-273.000,-289.000
0.464,-254.000,-234.000,-269.000,-285.500
0.465,-253.500,-233.000,-268.500,-285.000
0.466,-256.000,-235.000,-270.500,-287.000
0.467,-259.000,-238.000,-273.500,-290.500
0.468,-262.000,-240.500,-276.000,-293.500
0.469,-263.500,-242.000,-277.500,-295.500
0.470,-264.000,-242.500,-278.000,-296.500
0.471,-263.500,-242.500,-278.500,-297.000
0.472,-263.000,-242.000,-278.000,-296.500
0.473,-261.500,-240.500,-276.500,-295.000
0.474,-260.000,-238.500,-275.000,-292.500
0.475,-258.500,-237.000,-273.000,-290.000
0.476,-257.500,-236.000,-272.000,-288.500
0.477,-257.000,-235.500,-271.000,-287.500
0.478,-257.000,-235.000,-271.000,-286.000
0.479,-257.000,-235.500,-270.500,-285.500
0.480,-257.500,-236.500,-271.500,-286.000
0.481,-259.000,-238.000,-273.000,-287.000
0.482,-260.000,-239.500,-274.500,-288.500
0.483,-259.500,-239.500,-274.500,-288.000
0.484,-257.000,-237.000,-272.500,-286.000
0.485,-253.000,-233.000,-268.500,-282.000
0.486,-247.500,-227.500,-263.500,-277.500
0.487,-242.500,-222.500,-259.000,-273.000
0.488,-238.500,-218.500,-255.000,-269.500
0.489,-235.500,-216.500,-253.000,-267.500
0.490,-235.000,-216.000,-252.500,-267.500
0.491,-236.500,-217.500,-254.000,-269.000
0.492,-238.000,-218.500,-255.000,-270.000
0.493,-238.000,-217.500,-253.500,-269.000
0.494,-235.500,-214.500,-250.000,-265.000
0.495,-231.000,-209.000,-244.000,-259.000
0.496,-226.000,-203.000,-237.500,-252.000
0.497,-220.000,-196.500,-230.500,-245.500
0.498,-214.000,-190.000,-224.000,-238.500
0.499,-207.000,-183.000,-216.500,-231.000
0.500,-198.000,-174.500,-208.500,-222.000
0.501,-188.500,-165.000,-199.500,-213.000
0.502,-179.000,-156.000,-190.500,-204.000
0.503,-171.500,-148.000,-183.000,-196.000
0.504,-166.000,-143.000,-178.500,-191.000
0.505,-164.500,-141.000,-177.000,-189.500
0.506,-167.000,-143.500,-180.000,-192.500
0.507,-172.500,-149.000,-185.500,-198.000
0.508,-177.000,-154.000,-191.000,-203.000
0.509,-178.500,-155.500,-193.000,-204.500
0.510,-174.500,-152.500,-190.000,-201.500
0.511,-167.000,-145.000,-183.000,-194.000
0.512,-158.500,-137.500,-175.000,-186.000
0.513,-153.000,-131.500,-169.000,-179.500
0.514,-150.500,-129.500,-166.000,-176.000
0.515,-151.500,-129.500,-165.500,-175.500
0.516,-153.500,-130.500,-166.000,-175.000
0.517,-155.000,-131.000,-165.500,-175.000
0.518,-155.500,-131.000,-164.500,-173.500
0.519,-155.000,-130.000,-163.000,-172.000
0.520,-154.000,-128.500,-161.500,-170.500
0.521,-152.500,-126.500,-159.500,-168.000
0.522,-150.000,-123.500,-157.000,-165.500
0.523,-147.000,-120.000,-154.000,-163.000
0.524,-143.500,-116.000,-150.500,-159.500
0.525,-140.500,-112.500,-147.500,-156.500
0.526,-137.000,-109.500,-144.500,-154.000
0.527,-134.500,-107.000,-141.500,-151.500
0.528,-131.500,-105.000,-139.500,-149.500
0.529,-128.500,-103.000,-138.000,-147.500
0.530,-125.500,-101.000,-136.500,-145.500
0.531,-122.000,-98.500,-134.500,-143.000
0.532,-117.500,-95.000,-131.000,-139.500
0.533,-112.500,-90.500,-127.000,-135.500
0.534,-108.000,-85.500,-122.500,-131.000
0.535,-103.500,-81.000,-118.000,-127.000
0.536,-100.000,-77.000,-114.500,-124.000
0.537,-97.500,-75.000,-112.500,-122.500
0.538,-98.000,-75.500,-113.000,-123.500
0.539,-101.000,-78.500,-116.500,-127.000
0.540,-106.000,-84.000,-121.500,-132.500
0.541,-112.000,-90.000,-127.000,-138.500
0.542,-117.000,-94.500,-131.500,-143.000
0.543,-120.500,-98.000,-133.500,-145.500
0.544,-121.500,-99.000,-134.000,-146.000
0.545,-120.500,-98.000,-132.500,-145.000
0.546,-118.000,-95.000,-129.000,-141.500
0.547,-113.500,-91.000,-124.500,-137.000
0.548,-108.000,-85.500,-119.000,-132.000
0.549,-103.000,-80.000,-114.000,-127.000
0.550,-98.500,-75.500,-109.500,-122.500
0.551,-95.000,-72.500,-106.500,-120.000
0.552,-93.500,-70.500,-104.500,-118.500
0.553,-92.000,-69.000,-103.000,-117.500
0.554,-90.000,-67.500,-101.500,-116.000
0.555,-88.500,-65.500,-100.000,-114.500
0.556,-87.000,-64.000,-99.000,-113.500
0.557,-88.500,-65.500,-100.500,-115.500
0.558,-96.000,-72.500,-108.500,-123.000
0.559,-110.500,-87.000,-123.500,-138.000
0.560,-132.000,-108.000,-144.500,-159.500
0.561,-156.000,-132.500,-169.000,-184.000
0.562,-178.500,-155.000,-191.500,-206.500
0.563,-195.500,-173.000,-209.500,-224.000
0.564,-206.500,-184.000,-220.500,-235.500
0.565,-211.500,-190.000,-226.500,-241.500
0.566,-213.000,-192.000,-228.500,-243.500
0.567,-212.000,-192.000,-228.500,-243.000
0.568,-210.000,-191.500,-227.500,-242.500
0.569,-209.000,-191.500,-227.500,-242.000
0.570,-209.500,-192.500,-228.000,-243.000
0.571,-211.500,-194.500,-230.500,-245.000
0.572,-215.500,-198.500,-234.000,-248.500
0.573,-220.000,-203.000,-238.500,-253.000
0.574,-225.500,-207.500,-243.000,-257.500
0.575,-230.500,-212.000,-247.500,-261.500
0.576,-235.000,-216.000,-251.500,-265.500
0.577,-239.000,-219.500,-255.000,-269.000
0.578,-244.000,-223.500,-258.500,-272.500
0.579,-249.500,-228.000,-263.500,-277.500
0.580,-255.500,-233.500,-269.500,-283.500
0.581,-260.500,-238.500,-275.000,-289.000
0.582,-264.500,-242.000,-279.500,-293.500
0.583,-267.500,-245.500,-283.500,-297.500
0.584,-270.000,-248.500,-287.500,-302.000
0.585,-273.500,-252.500,-292.500,-307.000
0.586,-277.500,-257.500,-298.000,-313.000
0.587,-281.500,-262.500,-303.000,-318.500
0.588,-285.000,-266.500,-307.000,-322.500
0.589,-287.000,-268.500,-309.000,-325.500
0.590,-288.000,-269.500,-310.000,-326.500
0.591,-287.500,-269.000,-310.000,-327.000
0.592,-287.000,-268.500,-309.000,-326.500
0.593,-286.500,-268.000,-309.000,-326.000
0.594,-287.000,-268.000,-309.000,-326.000
0.595,-288.000,-268.500,-309.500,-326.500
0.596,-290.500,-270.000,-311.000,-327.500
0.597,-293.000,-272.000,-312.000,-329.000
0.598,-296.000,-274.000,-313.500,-330.500
0.599,-298.000,-276.000,-314.500,-331.500
0.600,-298.500,-276.500,-314.000,-332.000
0.601,-297.500,-276.000,-313.000,-331.000
0.602,-296.000,-274.500,-312.000,-330.500
0.603,-295.500,-275.500,-313.000,-331.500
0.604,-299.000,-279.500,-317.500,-336.000
0.605,-306.000,-287.000,-325.500,-344.000
0.606,-314.000,-295.500,-333.500,-352.500
0.607,-320.500,-302.000,-340.000,-359.000
0.608,-324.500,-306.000,-343.500,-362.500
0.609,-326.500,-308.000,-345.500,-364.000
0.610,-327.000,-308.000,-346.000,-364.000
0.611,-326.000,-307.000,-345.000,-363.000
0.612,-324.500,-305.000,-343.500,-361.000
0.613,-322.500,-303.000,-342.000,-358.500
0.614,-321.000,-301.000,-340.000,-356.500
0.615,-320.000,-299.500,-338.500,-354.500
0.616,-319.000,-298.500,-337.500,-353.000
0.617,-319.000,-298.000,-337.000,-353.000
0.618,-319.500,-298.500,-338.000,-353.500
0.619,-319.500,-299.000,-338.500,-354.000
0.620,-319.000,-299.000,-338.500,-354.000
0.621,-319.000,-299.500,-340.000,-355.000
0.622,-321.500,-302.500,-343.000,-358.000
0.623,-326.500,-307.500,-348.000,-363.000
0.624,-332.500,-313.500,-354.500,-369.500
0.625,-339.000,-320.000,-360.500,-376.000
0.626,-344.500,-325.000,-365.500,-381.500
0.627,-348.000,-329.000,-369.000,-385.500
0.628,-350.000,-331.500,-371.000,-388.000
0.629,-351.000,-332.500,-372.500,-389.500
0.630,-351.000,-333.500,-373.500,-391.000
0.631,-351.500,-334.500,-374.500,-392.000
0.632,-352.000,-335.500,-375.000,-392.500
0.633,-353.000,-336.000,-375.500,-393.000
0.634,-354.000,-336.500,-375.500,-393.000
0.635,-354.500,-337.000,-375.500,-393.000
0.636,-354.500,-336.500,-375.500,-392.500
0.637,-353.000,-334.500,-373.500,-391.000
0.638,-350.000,-331.500,-370.500,-387.500
0.639,-345.500,-326.500,-366.000,-383.000
0.640,-340.500,-321.000,-360.000,-377.000
0.641,-335.500,-315.500,-353.500,-371.000
0.642,-331.000,-310.500,-348.500,-366.000
0.643,-328.000,-307.500,-345.000,-363.000
0.644,-327.000,-306.000,-343.500,-362.000
0.645,-327.000,-306.000,-343.500,-362.000
0.646,-328.000,-307.000,-344.500,-363.500
0.647,-330.000,-309.000,-346.500,-365.500
0.648,-332.000,-311.500,-349.000,-368.000
0.649,-335.500,-315.000,-352.000,-371.500
0.650,-338.500,-318.000,-355.000,-374.500
0.651,-340.500,-320.500,-357.500,-376.500
0.652,-340.000,-320.500,-357.500,-376.000
0.653,-337.000,-317.000,-354.500,-373.000
0.654,-331.500,-312.000,-349.500,-367.500
0.655,-326.500,-307.500,-344.500,-362.500
0.656,-325.000,-306.000,-342.500,-360.500
0.657,-328.000,-309.000,-345.500,-363.000
0.658,-335.000,-316.000,-352.000,-370.000
0.659,-343.500,-325.000,-361.000,-378.500
0.660,-351.500,-332.500,-368.500,-386.000
0.661,-356.500,-338.000,-373.500,-391.000
0.662,-359.500,-340.500,-376.000,-393.500
0.663,-360.000,-340.500,-376.500,-393.500
0.664,-359.000,-340.500,-376.500,-393.500
0.665,-358.500,-340.000,-377.000,-394.000
0.666,-358.500,-340.500,-377.500,-394.500
0.667,-357.000,-340.000,-377.500,-395.000
0.668,-354.000,-338.000,-375.500,-393.000
0.669,-349.000,-333.500,-371.500,-388.500
0.670,-343.000,-328.500,-366.500,-383.500
0.671,-338.500,-324.000,-362.500,-378.500
0.672,-335.000,-320.500,-359.000,-375.000
0.673,-332.500,-318.000,-356.000,-372.500
0.674,-331.000,-315.500,-353.000,-369.000
0.675,-329.000,-312.500,-350.000,-366.000
0.676,-327.000,-309.000,-346.500,-362.000
0.677,-325.000,-306.000,-343.500,-358.500
0.678,-325.000,-304.500,-341.500,-357.000
0.679,-327.500,-306.000,-343.500,-358.500
0.680,-333.500,-312.000,-349.500,-364.500
0.681,-342.000,-320.000,-357.500,-373.000
0.682,-349.000,-327.000,-364.500,-380.500
0.683,-353.500,-331.500,-369.000,-385.000
0.684,-355.500,-333.500,-371.500,-387.500
0.685,-356.000,-334.500,-372.500,-388.500
0.686,-355.500,-334.000,-372.500,-388.500
0.687,-353.500,-332.500,-371.000,-387.000
0.688,-351.000,-330.000,-368.500,-384.500
0.689,-347.500,-327.000,-365.500,-381.500
0.690,-344.000,-323.000,-361.000,-377.500
0.691,-339.500,-318.500,-356.000,-373.000
0.692,-335.500,-314.000,-351.500,-368.500
0.693,-334.000,-312.000,-349.000,-366.500
0.694,-334.000,-311.500,-348.500,-366.000
0.695,-335.000,-312.000,-348.500,-366.000
0.696,-333.500,-310.500,-347.000,-364.500
0.697,-330.000,-306.500,-343.000,-360.000
0.698,-324.000,-301.000,-337.500,-354.000
0.699,-318.500,-295.500,-332.500,-348.500
0.700,-315.500,-293.000,-330.000,-345.500
0.701,-317.000,-295.000,-332.000,-347.500
0.702,-322.500,-300.500,-337.500,-353.000
0.703,-330.000,-308.500,-345.500,-361.500
0.704,-338.000,-316.500,-353.000,-369.500
0.705,-344.000,-322.500,-359.000,-375.500
0.706,-346.500,-325.500,-362.000,-378.500
0.707,-346.000,-325.000,-362.000,-378.500
0.708,-342.500,-322.000,-359.000,-375.500
0.709,-338.500,-318.000,-355.000,-372.000
0.710,-335.500,-315.000,-352.000,-369.000
0.711,-334.000,-313.500,-351.000,-368.000
0.712,-335.000,-315.000,-352.000,-369.000
0.713,-338.500,-318.500,-356.000,-372.500
0.714,-344.000,-323.500,-361.500,-377.500
0.715,-348.500,-328.000,-366.500,-382.000
0.716,-351.000,-330.000,-368.500,-383.500
0.717,-349.500,-329.000,-367.000,-381.500
0.718,-346.000,-325.500,-363.000,-377.000
0.719,-342.500,-322.000,-359.000,-372.500
0.720,-341.000,-320.000,-357.000,-370.000
0.721,-341.500,-320.500,-357.500,-370.500
0.722,-343.000,-322.500,-360.000,-372.500
0.723,-346.000,-325.000,-363.000,-375.500
0.724,-349.000,-328.500,-367.500,-380.000
0.725,-352.000,-332.000,-371.500,-384.000
0.726,-354.000,-334.500,-374.000,-387.500
0.727,-354.500,-335.000,-375.000,-389.000
0.728,-353.500,-334.500,-374.000,-388.500
0.729,-351.000,-332.000,-371.000,-386.000
0.730,-347.000,-327.500,-367.000,-382.000
0.731,-341.500,-322.000,-361.000,-376.500
0.732,-335.500,-316.000,-355.000,-370.000
0.733,-331.000,-311.000,-350.000,-365.000
0.734,-329.500,-309.000,-347.500,-362.500
0.735,-332.000,-311.000,-349.000,-364.000
0.736,-337.500,-315.500,-353.500,-368.000
0.737,-343.500,-321.000,-358.000,-373.000
0.738,-349.000,-325.500,-362.500,-377.500
0.739,-352.500,-329.000,-365.500,-380.500
0.740,-354.000,-330.500,-367.000,-382.000
0.741,-354.000,-330.500,-367.000,-382.000
0.742,-352.000,-329.000,-366.000,-381.000
0.743,-349.500,-327.500,-364.500,-379.500
0.744,-347.500,-326.000,-363.000,-378.500
0.745,-346.000,-325.500,-363.000,-378.500
0.746,-347.000,-327.000,-364.500,-380.500
0.747,-349.500,-330.000,-368.500,-384.000
0.748,-354.000,-334.500,-373.500,-389.000
0.749,-357.500,-338.500,-378.000,-393.500
0.750,-358.500,-339.500,-380.000,-395.000
0.751,-356.000,-337.000,-377.500,-392.000
0.752,-350.000,-331.000,-371.000,-386.000
0.753,-343.000,-323.500,-363.500,-378.500
0.754,-337.000,-317.500,-356.500,-372.000
0.755,-334.000,-314.000,-353.000,-368.500
0.756,-334.000,-313.000,-352.000,-367.500
0.757,-335.500,-314.000,-352.500,-368.000
0.758,-338.000,-315.500,-353.500,-369.000
0.759,-340.000,-317.000,-354.500,-370.000
0.760,-342.500,-319.000,-356.000,-371.500
0.761,-344.500,-320.500,-357.500,-373.000
0.762,-345.500,-321.500,-358.500,-374.000
0.763,-345.000,-321.500,-358.500,-374.500
0.764,-343.500,-321.000,-358.000,-373.500
0.765,-342.000,-320.000,-357.000,-373.000
0.766,-342.500,-321.000,-358.000,-374.000
0.767,-346.000,-324.500,-362.000,-378.000
0.768,-351.500,-330.500,-368.000,-384.000
0.769,-358.000,-337.000,-374.500,-390.500
0.770,-364.500,-343.500,-380.500,-396.500
0.771,-369.000,-348.000,-385.000,-401.000
0.772,-371.000,-350.000,-387.500,-402.500
0.773,-370.000,-348.500,-386.500,-401.500
0.774,-366.000,-344.500,-382.500,-397.000
0.775,-361.000,-338.500,-377.500,-391.500
0.776,-356.500,-334.000,-372.500,-387.000
0.777,-354.000,-331.500,-370.500,-384.500
0.778,-354.000,-332.000,-370.500,-384.000
0.779,-354.500,-333.000,-371.500,-384.500
0.780,-355.000,-334.000,-371.500,-384.000
0.781,-354.000,-333.500,-369.500,-382.000
0.782,-352.000,-331.500,-367.000,-379.500
0.783,-350.000,-329.500,-364.500,-377.500
0.784,-349.000,-328.500,-363.500,-376.500
0.785,-348.500,-328.500,-363.500,-377.000
0.786,-348.500,-328.000,-363.500,-377.000
0.787,-348.000,-327.000,-362.500,-376.500
0.788,-345.500,-324.000,-360.500,-375.000
0.789,-342.000,-320.500,-357.000,-371.500
0.790,-338.500,-316.500,-353.500,-368.500
0.791,-336.500,-313.500,-351.000,-366.500
0.792,-335.500,-312.500,-350.000,-365.500
0.793,-336.000,-312.500,-350.500,-366.000
0.794,-338.000,-313.500,-352.000,-367.500
0.795,-340.500,-315.500,-354.000,-369.500
0.796,-344.000,-318.500,-356.500,-372.000
0.797,-346.500,-321.000,-359.000,-374.500
0.798,-348.500,-322.500,-360.000,-376.000
0.799,-349.500,-323.500,-360.500,-376.500
0.800,-349.500,-323.500,-360.500,-376.000
0.801,-348.000,-322.500,-359.000,-375.000
0.802,-345.500,-320.500,-357.000,-372.500
0.803,-343.000,-318.000,-354.500,-370.000
0.804,-342.000,-318.000,-354.500,-370.000
0.805,-344.000,-320.000,-356.500,-372.000
0.806,-347.500,-324.500,-361.000,-376.500
0.807,-350.500,-328.000,-364.500,-380.000
0.808,-351.000,-329.500,-366.000,-381.500
0.809,-349.500,-328.500,-365.500,-381.000
0.810,-347.500,-327.000,-363.500,-379.500
0.811,-345.000,-325.000,-361.500,-377.500
0.812,-342.500,-322.500,-359.500,-375.500
0.813,-341.000,-321.000,-358.000,-374.500
0.814,-342.500,-322.000,-359.000,-375.500
0.815,-347.000,-326.500,-363.000,-379.500
0.816,-353.500,-332.500,-369.000,-386.000
0.817,-360.000,-338.500,-375.500,-392.000
0.818,-365.000,-343.500,-380.500,-396.500
0.819,-368.000,-346.000,-383.500,-399.000
0.820,-369.000,-346.500,-384.000,-399.500
0.821,-367.500,-345.000,-382.000,-397.500
0.822,-364.500,-342.000,-379.000,-394.500
0.823,-362.000,-339.000,-376.000,-391.500
0.824,-360.500,-337.500,-374.500,-390.000
0.825,-361.000,-338.000,-374.500,-390.500
0.826,-362.500,-340.000,-375.500,-392.500
0.827,-364.500,-341.500,-377.000,-394.500
0.828,-365.500,-342.500,-377.500,-395.000
0.829,-364.500,-341.500,-376.500,-394.500
0.830,-363.000,-340.000,-375.000,-393.000
0.831,-360.500,-337.500,-373.000,-391.500
0.832,-358.500,-335.500,-371.500,-389.500
0.833,-356.500,-333.500,-369.500,-388.000
0.834,-355.000,-331.500,-368.000,-386.000
0.835,-354.500,-331.000,-367.000,-385.500
0.836,-356.000,-332.000,-367.500,-385.500
0.837,-358.000,-334.000,-369.000,-387.000
0.838,-361.000,-336.500,-371.000,-389.000
0.839,-363.000,-338.500,-372.000,-390.500
0.840,-363.500,-338.500,-372.000,-390.500
0.841,-362.000,-337.500,-370.500,-389.000
0.842,-359.500,-334.500,-368.000,-386.500
0.843,-355.500,-331.500,-365.000,-383.500
0.844,-352.000,-328.000,-361.500,-380.500
0.845,-348.500,-324.500,-359.000,-377.500
0.846,-345.500,-322.500,-357.000,-375.500
0.847,-343.000,-321.000,-355.500,-374.500
0.848,-341.000,-319.000,-354.000,-373.500
0.849,-338.500,-317.000,-352.000,-371.500
0.850,-334.500,-313.000,-348.500,-368.000
0.851,-330.000,-308.500,-344.000,-363.500
0.852,-325.500,-304.000,-340.000,-359.500
0.853,-322.500,-300.500,-336.500,-356.500
0.854,-321.000,-298.500,-334.500,-354.500
0.855,-319.500,-297.000,-332.000,-352.000
0.856,-317.500,-295.000,-329.500,-349.500
0.857,-315.500,-292.000,-326.500,-346.500
0.858,-314.000,-290.500,-324.500,-344.500
0.859,-314.500,-290.000,-324.500,-344.500
0.860,-317.000,-292.500,-326.500,-346.500
0.861,-321.500,-296.000,-330.000,-349.500
0.862,-325.000,-300.000,-333.500,-353.000
0.863,-327.000,-302.000,-335.000,-355.000
0.864,-326.000,-301.000,-334.000,-354.000
0.865,-322.000,-297.500,-330.500,-350.500
0.866,-316.500,-292.000,-325.500,-345.500
0.867,-310.500,-286.500,-320.500,-340.500
0.868,-307.000,-283.000,-318.000,-338.000
0.869,-306.500,-283.000,-318.500,-338.000
0.870,-309.500,-286.500,-322.000,-341.500
0.871,-314.500,-291.500,-327.500,-346.000
0.872,-321.000,-298.000,-333.000,-352.000
0.873,-327.500,-304.500,-339.000,-357.500
0.874,-333.000,-310.500,-344.500,-362.500
0.875,-336.000,-314.000,-347.000,-365.000
0.876,-335.500,-313.500,-346.500,-364.000
0.877,-331.000,-309.500,-342.500,-359.500
0.878,-325.500,-303.500,-337.000,-353.500
0.879,-319.500,-297.500,-331.500,-348.000
0.880,-314.500,-292.000,-326.000,-342.500
0.881,-308.000,-285.500,-320.000,-336.000
0.882,-300.500,-277.500,-312.500,-328.000
0.883,-292.000,-268.500,-304.000,-320.000
0.884,-284.500,-261.000,-296.500,-313.000
0.885,-279.500,-255.500,-291.500,-308.500
0.886,-277.500,-253.500,-290.000,-307.500
0.887,-278.000,-254.000,-291.000,-309.000
0.888,-279.500,-255.500,-293.000,-311.500
0.889,-279.500,-256.000,-294.000,-312.500
0.890,-277.000,-254.000,-291.500,-310.500
0.891,-272.500,-249.500,-287.000,-306.000
0.892,-268.500,-245.500,-283.000,-302.000
0.893,-268.500,-245.500,-282.000,-301.500
0.894,-272.500,-249.500,-286.000,-305.000
0.895,-280.000,-256.500,-292.000,-311.500
0.896,-287.000,-263.000,-298.000,-317.500
0.897,-292.500,-268.500,-303.000,-322.000
0.898,-298.500,-274.000,-308.000,-327.000
0.899,-306.500,-281.500,-315.000,-334.000
0.900,-316.500,-291.000,-324.500,-343.500
0.901,-327.500,-301.500,-335.000,-353.500
0.902,-336.000,-310.000,-343.500,-362.000
0.903,-341.000,-315.500,-349.000,-367.500
0.904,-344.500,-319.000,-353.000,-371.000
0.905,-347.500,-322.500,-356.500,-375.000
0.906,-350.500,-326.000,-360.500,-379.000
0.907,-353.500,-329.500,-363.500,-382.500
0.908,-354.000,-331.000,-365.000,-384.000
0.909,-353.500,-330.500,-365.000,-383.500
0.910,-351.500,-329.500,-364.000,-382.500
0.911,-350.500,-329.000,-363.500,-382.000
0.912,-351.000,-329.500,-365.000,-383.000
0.913,-352.500,-331.500,-367.000,-385.500
0.914,-354.500,-333.500,-369.000,-387.500
0.915,-355.000,-334.500,-370.000,-388.000
0.916,-354.500,-334.000,-369.500,-387.500
0.917,-353.500,-332.000,-368.000,-386.000
0.918,-352.000,-330.500,-366.500,-384.500
0.919,-351.000,-329.000,-365.000,-383.000
0.920,-350.000,-328.000,-364.000,-382.000
0.921,-350.000,-327.500,-363.500,-381.500
0.922,-349.500,-327.500,-363.500,-381.500
0.923,-349.000,-327.000,-363.000,-381.000
0.924,-346.500,-325.000,-361.000,-379.500
0.925,-342.500,-321.000,-357.000,-376.500
0.926,-337.500,-317.000,-353.000,-372.500
0.927,-334.500,-314.000,-350.000,-370.000
0.928,-334.000,-313.500,-349.500,-369.500
0.929,-336.500,-316.000,-352.000,-372.500
0.930,-341.000,-320.500,-356.000,-376.500
0.931,-346.000,-325.500,-360.500,-381.000
0.932,-351.500,-330.500,-365.000,-385.500
0.933,-356.000,-335.000,-369.000,-389.000
0.934,-359.500,-338.000,-372.000,-391.500
0.935,-363.000,-341.000,-374.500,-393.500
0.936,-366.500,-344.000,-377.500,-395.500
0.937,-369.500,-347.000,-380.000,-397.500
0.938,-372.500,-349.000,-382.000,-398.500
0.939,-374.500,-351.500,-384.500,-400.000
0.940,-376.000,-353.000,-386.000,-401.500
0.941,-377.000,-354.500,-387.500,-403.000
0.942,-377.500,-355.000,-389.000,-404.500
0.943,-377.500,-356.000,-390.000,-406.000
0.944,-377.000,-356.000,-391.500,-407.500
0.945,-376.500,-356.000,-392.000,-409.000
0.946,-375.500,-355.500,-392.000,-409.500
0.947,-374.000,-354.000,-391.000,-409.000
0.948,-372.000,-352.000,-389.500,-408.500
0.949,-370.000,-349.500,-387.000,-406.500
0.950,-367.000,-346.500,-384.000,-404.000
0.951,-364.000,-343.000,-380.000,-400.000
0.952,-360.000,-338.500,-375.500,-395.500
0.953,-355.500,-333.500,-370.500,-390.500
0.954,-351.500,-329.500,-366.000,-385.500
0.955,-348.500,-325.500,-362.000,-381.000
0.956,-346.500,-323.500,-359.000,-377.500
0.957,-347.500,-323.500,-359.000,-377.000
0.958,-349.500,-325.500,-360.500,-378.000
0.959,-351.500,-327.500,-362.000,-379.500
0.960,-352.000,-328.000,-362.500,-380.000
0.961,-350.500,-327.000,-361.500,-378.500
0.962,-348.000,-325.000,-359.000,-376.500
0.963,-346.000,-323.500,-357.500,-374.500
0.964,-345.500,-323.000,-357.000,-374.500
0.965,-346.500,-324.500,-359.000,-376.000
0.966,-349.500,-327.500,-362.000,-379.500
0.967,-353.500,-332.500,-367.500,-384.500
0.968,-359.000,-339.000,-373.500,-390.500
0.969,-365.000,-345.500,-380.000,-397.500
0.970,-370.500,-351.500,-386.500,-404.000
0.971,-376.000,-357.000,-392.500,-410.000
0.972,-381.500,-362.500,-398.000,-415.500
0.973,-386.000,-367.000,-402.500,-420.000
0.974,-388.500,-369.000,-404.000,-422.000
0.975,-388.500,-368.000,-403.000,-420.500
0.976,-385.500,-364.500,-399.000,-416.500
0.977,-381.000,-358.500,-393.500,-410.500
0.978,-373.500,-350.500,-385.500,-402.500
0.979,-363.000,-339.500,-374.500,-391.500
0.980,-349.000,-325.000,-360.000,-377.000
0.981,-331.000,-306.500,-341.500,-358.000
0.982,-308.500,-284.000,-318.500,-335.500
0.983,-282.000,-257.500,-292.000,-308.500
0.984,-253.000,-228.500,-262.500,-279.000
0.985,-222.000,-198.000,-231.000,-248.000
0.986,-190.000,-166.500,-199.000,-216.000
0.987,-156.000,-133.500,-165.500,-181.500
0.988,-119.000,-96.500,-128.500,-144.000
0.989,-77.500,-55.000,-86.500,-101.500
0.990,-31.500,-9.000,-39.500,-54.000
0.991,17.500,41.000,11.000,-3.000
0.992,67.000,91.000,62.000,48.500
0.993,114.000,139.500,110.500,98.000
0.994,157.000,183.000,155.000,143.500
0.995,195.000,221.000,194.000,183.500
0.996,228.500,255.000,229.000,219.000
0.997,259.000,286.500,261.500,251.500
0.998,287.500,315.500,291.500,282.000
0.999,313.000,342.000,319.000,309.500
1.000,333.000,363.000,339.500,330.500
1.001,343.000,373.500,350.500,341.500
1.002,340.000,371.000,347.500,338.000
1.003,322.500,354.000,329.500,320.000
1.004,291.000,323.000,297.500,287.500
1.005,248.000,279.500,253.500,242.500
1.006,195.500,226.500,199.500,188.000
1.007,138.000,168.500,140.500,127.500
1.008,80.000,109.500,80.500,66.500
1.009,24.500,52.500,23.000,8.500
1.010,-26.000,0.500,-30.000,-45.000
1.011,-72.000,-46.500,-78.000,-93.500
1.012,-113.500,-88.500,-121.000,-137.000
1.013,-149.500,-125.500,-159.000,-175.500
1.014,-180.500,-156.500,-191.000,-207.500
1.015,-205.500,-182.000,-217.500,-233.500
1.016,-226.500,-203.000,-239.500,-255.000
1.017,-244.500,-221.500,-258.500,-273.500
1.018,-262.500,-239.500,-276.500,-291.000
1.019,-279.500,-256.500,-293.000,-307.000
1.020,-293.500,-271.000,-307.000,-320.500
1.021,-304.500,-281.500,-317.000,-330.500
1.022,-312.000,-289.500,-324.500,-338.000
1.023,-317.500,-295.500,-329.500,-343.500
1.024,-321.000,-299.000,-333.000,-347.500
1.025,-323.000,-301.500,-335.500,-350.000
1.026,-324.000,-303.500,-337.000,-352.500
1.027,-325.500,-305.500,-339.000,-355.000
1.028,-327.000,-307.500,-341.500,-357.500
1.029,-328.000,-309.500,-343.500,-360.000
1.030,-329.000,-311.000,-344.500,-361.000
1.031,-328.000,-310.000,-343.500,-360.500
1.032,-325.500,-307.500,-340.500,-357.500
1.033,-321.500,-303.000,-336.000,-353.000
1.034,-317.000,-298.000,-331.000,-348.000
1.035,-314.000,-294.500,-327.000,-344.000
1.036,-313.500,-293.000,-325.500,-342.500
1.037,-315.000,-293.500,-326.500,-343.000
1.038,-318.000,-295.500,-328.500,-345.500
1.039,-321.500,-298.500,-331.500,-348.500
1.040,-325.000,-301.500,-334.500,-352.000
1.041,-328.000,-304.000,-337.000,-355.000
1.042,-330.500,-306.500,-340.000,-358.000
1.043,-333.000,-310.000,-343.500,-361.500
1.044,-336.000,-313.500,-347.000,-365.500
1.045,-339.000,-317.000,-351.500,-369.500
1.046,-342.000,-321.000,-355.500,-374.000
1.047,-343.500,-324.000,-358.500,-377.000
1.048,-343.500,-324.500,-359.500,-377.500
1.049,-341.500,-323.500,-358.500,-376.000
1.050,-339.000,-321.500,-356.000,-373.500
1.051,-336.500,-319.500,-354.000,-371.000
1.052,-334.000,-318.000,-352.500,-369.000
1.053,-332.500,-316.500,-350.500,-367.500
1.054,-331.000,-315.000,-349.000,-366.000
1.055,-331.000,-314.500,-348.500,-365.000
1.056,-331.500,-314.500,-348.000,-364.500
1.057,-333.000,-315.000,-348.000,-364.500
1.058,-334.500,-315.500,-348.500,-364.500
1.059,-335.500,-316.000,-349.000,-364.500
1.060,-336.000,-316.000,-348.500,-364.500
1.061,-335.500,-314.500,-347.000,-362.500
1.062,-333.000,-311.500,-343.500,-359.500
1.063,-329.000,-307.500,-339.500,-355.500
1.064,-326.000,-304.500,-336.000,-353.000
1.065,-325.000,-304.500,-336.000,-353.000
1.066,-327.000,-307.000,-338.500,-356.000
1.067,-330.000,-310.500,-342.500,-360.000
1.068,-332.000,-313.000,-344.500,-362.500
1.069,-332.000,-313.000,-345.000,-363.000
1.070,-331.500,-312.000,-344.000,-362.500
1.071,-330.500,-311.000,-343.500,-362.000
1.072,-329.500,-310.000,-342.500,-361.500
1.073,-328.000,-308.500,-341.500,-360.500
1.074,-325.500,-306.000,-339.500,-358.000
1.075,-322.500,-303.000,-336.500,-355.000
1.076,-319.000,-300.000,-333.500,-351.500
1.077,-317.000,-297.500,-331.500,-349.500
1.078,-316.500,-297.000,-330.500,-348.500
1.079,-318.000,-298.000,-331.500,-349.500
1.080,-320.000,-299.500,-333.000,-351.000
1.081,-321.500,-301.500,-334.500,-353.000
1.082,-322.500,-302.000,-335.500,-353.500
1.083,-322.000,-301.500,-335.000,-353.000
1.084,-320.000,-300.500,-333.500,-352.000
1.085,-318.500,-299.000,-332.000,-351.000
1.086,-318.000,-298.500,-331.500,-350.500
1.087,-318.000,-298.500,-331.000,-350.500
1.088,-319.500,-300.000,-332.000,-351.500
1.089,-322.000,-302.500,-334.500,-353.500
1.090,-324.500,-305.000,-337.000,-355.500
1.091,-326.000,-306.500,-338.500,-357.000
1.092,-324.000,-305.000,-336.500,-355.000
1.093,-319.500,-300.500,-332.000,-350.500
1.094,-314.500,-295.500,-326.500,-345.000
1.095,-311.500,-292.500,-323.000,-341.500
1.096,-312.000,-292.500,-323.000,-341.500
1.097,-315.500,-295.500,-326.000,-344.000
1.098,-320.500,-300.000,-330.000,-348.000
1.099,-325.000,-304.000,-335.000,-352.500
1.100,-329.000,-308.000,-339.000,-357.000
1.101,-331.500,-310.500,-342.500,-360.000
1.102,-332.500,-312.000,-344.000,-362.000
1.103,-331.000,-311.000,-343.500,-361.000
1.104,-327.000,-308.000,-340.500,-358.500
1.105,-322.500,-304.000,-336.500,-354.500
1.106,-318.500,-300.500,-333.000,-350.500
1.107,-316.500,-298.500,-331.000,-348.500
1.108,-316.000,-298.500,-330.500,-348.500
1.109,-317.000,-299.500,-331.500,-349.500
1.110,-319.500,-301.500,-333.500,-351.000
1.111,-323.000,-305.000,-336.000,-354.000
1.112,-327.000,-309.000,-340.000,-357.500
1.113,-331.000,-313.000,-343.000,-360.500
1.114,-333.000,-315.000,-345.000,-362.500
1.115,-333.500,-315.500,-345.500,-362.000
1.116,-332.000,-314.000,-343.500,-360.000
1.117,-329.500,-311.500,-341.000,-357.000
1.118,-327.500,-308.500,-338.000,-354.000
1.119,-327.500,-307.500,-336.500,-353.000
1.120,-329.000,-308.500,-337.000,-354.000
1.121,-332.500,-311.500,-340.000,-356.500
1.122,-335.000,-313.500,-342.500,-359.000
1.123,-336.000,-314.500,-343.000,-360.000
1.124,-334.500,-313.500,-342.000,-359.500
1.125,-332.500,-311.500,-340.500,-358.500
1.126,-329.500,-309.500,-339.000,-357.000
1.127,-327.000,-307.500,-337.000,-355.500
1.128,-324.500,-305.500,-335.500,-354.000
1.129,-321.500,-303.500,-333.500,-352.000
1.130,-318.500,-300.500,-331.500,-349.500
1.131,-315.000,-297.500,-328.500,-346.000
1.132,-311.500,-294.500,-326.000,-343.500
1.133,-308.500,-292.000,-324.000,-341.000
1.134,-306.500,-289.500,-322.000,-339.000
1.135,-304.500,-288.000,-320.500,-337.000
1.136,-303.500,-286.500,-319.000,-335.500
1.137,-302.000,-284.500,-317.000,-333.500
1.138,-301.000,-282.500,-315.000,-331.500
1.139,-300.000,-281.000,-313.500,-329.500
1.140,-300.000,-280.000,-312.000,-328.500
1.141,-299.500,-279.500,-311.000,-327.500
1.142,-299.000,-279.000,-310.000,-327.000
1.143,-298.500,-278.000,-309.500,-326.500
1.144,-297.500,-277.500,-308.500,-326.000
1.145,-296.500,-277.000,-308.000,-325.500
1.146,-296.000,-276.500,-307.500,-325.500
1.147,-295.500,-276.000,-307.500,-326.000
1.148,-295.000,-276.000,-307.000,-326.000
1.149,-294.500,-276.000,-306.500,-325.500
1.150,-294.500,-276.500,-306.500,-326.000
1.151,-295.500,-277.500,-308.000,-327.000
1.152,-297.500,-280.000,-309.500,-329.000
1.153,-299.000,-281.500,-311.000,-330.500
1.154,-300.000,-283.000,-312.000,-331.500
1.155,-300.500,-283.500,-312.500,-331.500
1.156,-302.000,-284.000,-313.000,-332.500
1.157,-304.500,-286.000,-315.000,-334.000
1.158,-307.500,-288.500,-317.500,-336.500
1.159,-311.000,-291.000,-320.000,-339.000
1.160,-313.500,-292.500,-321.500,-340.500
1.161,-314.500,-293.000,-322.500,-341.000
1.162,-315.000,-293.000,-322.000,-341.000
1.163,-314.000,-292.000,-321.000,-340.500
1.164,-312.500,-290.500,-319.500,-339.500
1.165,-310.000,-289.000,-317.500,-338.500
1.166,-307.500,-286.500,-316.000,-337.000
1.167,-304.500,-284.500,-314.000,-335.000
1.168,-301.500,-282.500,-312.000,-333.000
1.169,-298.000,-279.500,-309.000,-330.500
1.170,-293.500,-276.000,-305.000,-326.500
1.171,-289.500,-272.000,-300.500,-321.500
1.172,-285.000,-268.000,-295.500,-317.000
1.173,-281.500,-264.500,-291.500,-313.000
1.174,-278.500,-261.500,-288.000,-309.000
1.175,-275.000,-258.000,-284.500,-305.500
1.176,-272.000,-255.000,-281.000,-301.500
1.177,-269.000,-251.500,-277.500,-298.000
1.178,-266.000,-248.500,-274.500,-294.500
1.179,-264.000,-246.000,-272.500,-291.500
1.180,-262.500,-244.000,-271.000,-289.500
1.181,-260.500,-242.000,-269.500,-287.500
1.182,-258.000,-239.500,-267.500,-285.000
1.183,-255.000,-236.000,-264.500,-282.000
1.184,-251.500,-233.000,-261.500,-279.500
1.185,-249.500,-231.500,-260.500,-278.000
1.186,-250.500,-232.000,-261.500,-279.500
1.187,-253.500,-235.000,-264.500,-283.000
1.188,-257.000,-238.500,-268.500,-287.000
1.189,-260.000,-241.500,-272.000,-290.500
1.190,-261.000,-242.500,-273.500,-292.500
1.191,-260.500,-241.500,-273.000,-292.000
1.192,-257.500,-239.000,-271.000,-289.500
1.193,-254.000,-235.500,-267.000,-286.000
1.194,-249.500,-231.000,-262.000,-281.000
1.195,-245.500,-226.000,-257.000,-276.000
1.196,-242.500,-223.000,-253.000,-272.000
1.197,-241.000,-221.000,-251.000,-269.500
1.198,-240.500,-219.500,-249.500,-267.500
1.199,-238.500,-217.500,-247.000,-265.000
1.200,-235.000,-214.000,-243.000,-261.000
1.201,-231.000,-210.000,-239.000,-256.500
1.202,-228.500,-207.500,-237.000,-254.500
1.203,-228.500,-208.000,-237.500,-255.000
1.204,-230.500,-211.000,-241.000,-258.500
1.205,-234.000,-215.000,-244.500,-262.500
1.206,-236.500,-217.500,-247.000,-265.000
1.207,-237.000,-218.500,-247.500,-266.000
1.208,-234.500,-216.500,-245.500,-263.500
1.209,-230.000,-212.000,-241.000,-259.500
1.210,-224.500,-206.500,-235.500,-254.000
1.211,-219.500,-201.500,-231.000,-249.000
1.212,-216.000,-198.000,-227.500,-245.500
1.213,-213.500,-195.000,-225.000,-242.500
1.214,-210.500,-192.000,-222.500,-239.500
1.215,-207.500,-188.500,-219.000,-235.500
1.216,-204.000,-184.000,-214.500,-230.500
1.217,-199.500,-179.500,-210.000,-225.000
1.218,-196.000,-175.500,-205.500,-220.500
1.219,-193.500,-172.000,-202.000,-217.000
1.220,-193.000,-170.500,-200.000,-215.000
1.221,-193.500,-170.500,-200.000,-215.000
1.222,-194.500,-171.000,-200.000,-215.000
1.223,-193.000,-169.500,-198.500,-213.500
1.224,-188.000,-165.000,-193.500,-209.000
1.225,-179.500,-157.000,-186.000,-201.500
1.226,-170.000,-148.000,-177.000,-193.000
1.227,-161.500,-140.000,-169.500,-186.000
1.228,-157.000,-135.500,-164.500,-182.000
1.229,-155.000,-133.000,-162.500,-180.000
1.230,-154.500,-132.500,-162.000,-179.500
1.231,-155.500,-133.000,-162.500,-180.000
1.232,-158.000,-135.500,-164.500,-182.000
1.233,-162.500,-139.500,-168.500,-186.000
1.234,-167.000,-144.000,-172.500,-189.500
1.235,-169.500,-146.000,-174.500,-191.500
1.236,-168.000,-145.000,-172.500,-189.500
1.237,-163.500,-140.000,-167.500,-184.000
1.238,-156.500,-133.000,-160.000,-176.500
1.239,-149.000,-125.500,-152.000,-169.000
1.240,-142.500,-119.000,-145.500,-162.000
1.241,-137.000,-113.500,-140.000,-157.000
1.242,-131.500,-108.500,-135.500,-152.500
1.243,-126.000,-103.000,-130.500,-147.500
1.244,-119.500,-97.000,-125.000,-142.000
1.245,-112.500,-90.500,-119.000,-136.500
1.246,-106.000,-84.500,-113.000,-130.500
1.247,-100.500,-79.500,-108.000,-125.500
1.248,-96.000,-75.000,-103.500,-121.000
1.249,-93.000,-72.000,-100.500,-118.000
1.250,-91.500,-70.500,-99.500,-116.500
1.251,-92.000,-71.000,-100.000,-116.500
1.252,-92.500,-71.500,-100.500,-117.000
1.253,-93.500,-72.000,-100.500,-117.000
1.254,-94.500,-72.500,-101.000,-117.500
1.255,-96.500,-74.500,-103.000,-119.500
1.256,-100.500,-78.000,-106.500,-123.000
1.257,-106.500,-83.500,-112.000,-128.500
1.258,-112.500,-89.500,-118.000,-134.500
1.259,-118.500,-95.000,-123.500,-140.000
1.260,-122.000,-98.500,-127.000,-143.500
1.261,-124.000,-100.500,-129.000,-145.500
1.262,-124.500,-101.000,-129.500,-146.500
1.263,-123.500,-101.000,-129.000,-146.000
1.264,-122.500,-100.500,-129.000,-146.500
1.265,-122.500,-101.500,-130.000,-148.000
1.266,-124.500,-104.000,-133.000,-151.000
1.267,-128.000,-108.000,-137.000,-155.000
1.268,-132.500,-112.000,-141.000,-159.500
1.269,-136.000,-115.500,-144.500,-163.000
1.270,-138.500,-118.000,-146.500,-165.500
1.271,-140.000,-119.500,-148.000,-167.500
1.272,-142.000,-121.000,-149.500,-169.500
1.273,-143.500,-123.000,-151.000,-171.500
1.274,-145.500,-125.000,-153.000,-173.500
1.275,-148.000,-127.000,-155.000,-176.000
1.276,-151.000,-129.500,-158.000,-178.500
1.277,-153.500,-132.000,-160.500,-181.000
1.278,-156.000,-134.500,-163.000,-183.000
1.279,-159.000,-137.500,-166.000,-186.000
1.280,-163.000,-142.000,-170.000,-190.000
1.281,-168.000,-147.500,-176.000,-196.000
1.282,-174.500,-154.500,-182.500,-202.500
1.283,-180.500,-160.500,-188.500,-209.000
1.284,-184.000,-164.500,-192.500,-213.000
1.285,-185.500,-166.000,-194.000,-214.500
1.286,-186.000,-166.500,-195.000,-215.000
1.287,-188.000,-168.500,-197.500,-217.500
1.288,-193.000,-174.000,-203.000,-223.500
1.289,-202.000,-182.500,-212.500,-233.000
1.290,-214.000,-194.500,-225.000,-245.000
1.291,-227.500,-208.000,-239.000,-259.000
1.292,-240.500,-221.000,-252.500,-272.500
1.293,-250.500,-231.500,-263.500,-283.500
1.294,-258.000,-238.500,-271.000,-290.500
1.295,-261.500,-242.000,-274.500,-294.000
1.296,-262.000,-242.000,-275.500,-294.500
1.297,-260.500,-240.500,-274.000,-292.500
1.298,-257.500,-237.500,-271.500,-289.500
1.299,-254.500,-234.000,-268.000,-286.000
1.300,-251.000,-230.000,-264.500,-283.000
1.301,-248.500,-227.500,-262.000,-281.000
1.302,-247.500,-227.500,-261.500,-281.500
1.303,-249.000,-229.500,-263.500,-284.500
1.304,-252.500,-233.500,-267.000,-289.000
1.305,-256.500,-238.000,-271.000,-294.000
1.306,-260.500,-243.000,-275.500,-299.000
1.307,-265.500,-248.500,-281.000,-305.000
1.308,-273.000,-257.000,-289.000,-313.000
1.309,-283.500,-268.000,-299.500,-324.000
1.310,-296.000,-281.500,-312.500,-337.000
1.311,-309.000,-294.500,-324.500,-349.000
1.312,-318.500,-305.000,-334.000,-358.000
1.313,-324.500,-310.500,-339.000,-363.500
1.314,-327.000,-312.500,-340.500,-364.500
1.315,-326.500,-311.500,-339.000,-363.000
1.316,-325.500,-309.000,-336.500,-360.500
1.317,-324.500,-307.000,-335.000,-358.500
1.318,-325.500,-306.500,-334.500,-357.500
1.319,-326.500,-306.500,-335.000,-358.000
1.320,-328.000,-307.000,-336.500,-358.500
1.321,-328.500,-307.500,-337.500,-359.000
1.322,-328.500,-308.000,-338.500,-360.000
1.323,-328.500,-308.500,-340.000,-361.000
1.324,-327.500,-308.500,-340.500,-361.500
1.325,-325.500,-307.500,-339.000,-360.500
1.326,-321.000,-303.500,-335.500,-357.000
1.327,-314.500,-297.500,-329.000,-351.500
1.328,-307.500,-291.500,-323.000,-345.500
1.329,-303.000,-287.000,-318.500,-341.500
1.330,-302.500,-287.000,-318.500,-341.500
1.331,-307.500,-292.000,-323.000,-346.500
1.332,-315.500,-299.500,-331.000,-354.000
1.333,-324.000,-307.500,-339.000,-362.500
1.334,-330.500,-313.500,-345.000,-368.000
1.335,-333.500,-316.000,-347.500,-370.000
1.336,-333.000,-314.500,-346.000,-368.500
1.337,-330.500,-311.000,-342.500,-364.500
1.338,-327.500,-307.500,-338.500,-360.000
1.339,-326.000,-305.500,-336.000,-357.500
1.340,-326.000,-305.500,-335.500,-357.000
1.341,-328.000,-307.500,-337.000,-359.000
1.342,-331.500,-311.500,-341.500,-363.000
1.343,-337.500,-317.500,-347.500,-369.000
1.344,-344.000,-325.000,-354.500,-376.500
1.345,-351.000,-332.000,-361.500,-383.000
1.346,-355.000,-336.500,-366.000,-388.000
1.347,-356.000,-337.500,-367.500,-389.000
1.348,-353.500,-335.500,-365.000,-387.000
1.349,-349.000,-331.500,-361.500,-383.500
1.350,-345.000,-327.500,-357.500,-380.000
1.351,-342.000,-325.000,-355.000,-378.000
1.352,-339.500,-323.500,-353.000,-377.000
1.353,-338.000,-322.500,-352.000,-376.500
1.354,-336.500,-321.500,-351.000,-376.000
1.355,-334.000,-319.500,-349.000,-374.000
1.356,-330.000,-315.500,-345.500,-370.500
1.357,-325.000,-310.500,-340.500,-366.000
1.358,-320.000,-304.500,-335.500,-361.000
1.359,-315.000,-299.000,-330.500,-356.000
1.360,-312.500,-295.500,-327.500,-353.000
1.361,-312.000,-294.500,-326.500,-352.000
1.362,-314.000,-296.000,-328.000,-353.500
1.363,-317.500,-299.000,-331.000,-356.500
1.364,-322.000,-303.500,-335.000,-360.500
1.365,-326.000,-308.000,-339.000,-365.000
1.366,-329.500,-311.500,-342.500,-368.500
1.367,-332.000,-314.000,-345.000,-371.000
1.368,-332.500,-314.500,-345.000,-371.500
1.369,-331.000,-313.000,-343.500,-370.000
1.370,-328.500,-310.500,-341.000,-367.500
1.371,-326.500,-308.500,-338.500,-365.500
1.372,-326.000,-307.500,-337.500,-364.500
1.373,-326.000,-307.000,-336.500,-364.000
1.374,-325.000,-306.000,-334.500,-362.500
1.375,-324.000,-304.000,-332.500,-360.000
1.376,-323.000,-302.500,-330.500,-358.000
1.377,-323.000,-302.000,-330.000,-357.500
1.378,-323.500,-302.000,-330.500,-357.500
1.379,-324.000,-302.500,-330.500,-357.500
1.380,-323.500,-301.500,-330.500,-356.500
1.381,-322.500,-301.000,-329.500,-355.500
1.382,-321.500,-300.000,-329.000,-355.000
1.383,-321.500,-300.500,-329.500,-355.500
1.384,-322.500,-302.500,-331.500,-357.000
1.385,-323.500,-304.500,-333.500,-359.500
1.386,-324.500,-305.500,-334.500,-361.000
1.387,-323.500,-305.000,-334.500,-360.500
1.388,-320.500,-302.500,-331.500,-358.000
1.389,-316.000,-298.500,-328.000,-354.500
1.390,-313.500,-296.000,-325.500,-352.000
1.391,-313.000,-296.000,-325.500,-352.000
1.392,-316.000,-298.500,-328.000,-354.500
1.393,-320.000,-302.500,-332.000,-358.500
1.394,-324.000,-306.000,-336.000,-362.000
1.395,-325.500,-307.500,-337.500,-363.500
1.396,-324.000,-306.000,-336.500,-362.000
1.397,-320.500,-302.500,-333.000,-358.500
1.398,-316.500,-298.500,-329.500,-354.500
1.399,-314.000,-296.500,-327.500,-352.500
1.400,-315.500,-297.500,-328.500,-354.000
1.401,-320.000,-301.500,-332.500,-358.000
1.402,-325.500,-307.500,-338.000,-364.000
1.403,-330.000,-312.500,-342.500,-369.000
1.404,-332.000,-315.000,-345.000,-371.500
1.405,-332.000,-315.500,-345.000,-372.000
1.406,-331.500,-315.000,-344.000,-371.500
1.407,-332.000,-315.500,-344.500,-372.500
1.408,-334.000,-317.500,-346.000,-374.500
1.409,-337.000,-320.500,-349.000,-378.000
1.410,-340.000,-323.000,-351.500,-380.500
1.411,-341.000,-324.000,-352.000,-382.000
1.412,-340.000,-323.000,-351.000,-381.000
1.413,-338.000,-321.000,-348.500,-378.500
1.414,-335.000,-318.000,-345.500,-375.500
1.415,-331.500,-314.000,-341.000,-371.000
1.416,-327.000,-309.000,-335.500,-365.000
1.417,-322.000,-304.000,-330.000,-358.500
1.418,-317.500,-299.000,-324.500,-353.000
1.419,-313.500,-295.500,-321.000,-349.000
1.420,-310.500,-292.500,-318.000,-346.000
1.421,-307.500,-289.500,-315.000,-343.000
1.422,-304.500,-287.000,-312.500,-341.000
1.423,-302.500,-285.500,-311.000,-339.000
1.424,-301.500,-285.000,-311.000,-339.000
1.425,-303.000,-286.500,-312.500,-341.500
1.426,-306.500,-290.500,-317.000,-345.500
1.427,-313.000,-297.500,-324.000,-352.500
1.428,-322.500,-306.500,-333.000,-362.000
1.429,-333.500,-317.500,-344.000,-373.000
1.430,-344.000,-327.500,-354.500,-383.500
1.431,-351.500,-335.000,-362.500,-391.500
1.432,-354.000,-337.500,-366.000,-394.500
1.433,-351.500,-335.000,-363.500,-392.000
1.434,-344.500,-328.500,-358.000,-386.000
1.435,-337.500,-321.000,-351.000,-379.500
1.436,-333.000,-316.000,-346.000,-374.000
1.437,-331.000,-314.000,-343.500,-372.000
1.438,-331.000,-313.000,-342.500,-371.000
1.439,-330.500,-312.500,-341.500,-370.000
1.440,-329.500,-311.000,-340.000,-368.500
1.441,-328.500,-310.000,-339.000,-367.500
1.442,-329.000,-310.500,-339.500,-367.500
1.443,-330.500,-312.500,-341.000,-370.000
1.444,-334.000,-315.500,-344.000,-373.000
1.445,-337.500,-319.500,-347.500,-376.500
1.446,-340.000,-322.000,-349.500,-379.000
1.447,-340.500,-322.500,-350.000,-379.500
1.448,-339.000,-322.000,-349.000,-379.000
1.449,-338.000,-321.000,-348.000,-378.000
1.450,-337.500,-321.000,-347.500,-378.000
1.451,-337.000,-321.000,-347.000,-378.000
1.452,-336.500,-320.500,-346.500,-377.500
1.453,-335.500,-319.000,-345.000,-376.000
1.454,-334.500,-317.000,-342.500,-374.000
1.455,-334.000,-316.000,-341.000,-372.500
1.456,-334.500,-315.500,-340.500,-372.000
1.457,-335.000,-315.000,-340.500,-371.500
1.458,-335.500,-315.000,-340.000,-371.500
1.459,-334.500,-314.000,-339.500,-370.500
1.460,-332.500,-312.000,-338.000,-369.000
1.461,-329.000,-309.500,-336.000,-366.500
1.462,-325.000,-307.000,-333.500,-363.500
1.463,-321.500,-304.500,-331.500,-361.000
1.464,-319.000,-303.000,-330.000,-359.000
1.465,-318.000,-303.000,-330.000,-359.000
1.466,-318.500,-304.500,-331.500,-360.500
1.467,-320.000,-306.000,-333.000,-362.500
1.468,-320.500,-307.000,-334.000,-364.000
1.469,-320.500,-307.000,-334.000,-364.500
1.470,-320.000,-306.000,-332.500,-363.500
1.471,-318.000,-303.500,-330.000,-361.000
1.472,-315.500,-301.000,-327.000,-358.500
1.473,-314.500,-299.000,-325.000,-357.000
1.474,-315.500,-299.000,-325.000,-357.000
1.475,-317.500,-300.000,-327.000,-358.500
1.476,-320.500,-302.000,-329.000,-360.500
1.477,-322.000,-303.500,-330.000,-361.500
1.478,-322.500,-303.500,-330.000,-361.500
1.479,-323.000,-304.000,-330.000,-361.500
1.480,-325.000,-306.000,-332.000,-363.500
1.481,-330.000,-311.000,-336.500,-368.000
1.482,-336.500,-318.500,-344.000,-375.500
1.483,-343.000,-325.500,-351.000,-382.500
1.484,-346.500,-330.000,-355.500,-387.500
1.485,-347.000,-331.000,-357.500,-389.500
1.486,-346.000,-331.000,-357.500,-389.500
1.487,-345.500,-330.500,-357.000,-389.500
1.488,-345.000,-330.500,-357.000,-389.000
1.489,-345.000,-329.500,-355.500,-388.000
1.490,-343.500,-328.000,-353.500,-386.000
1.491,-341.500,-325.500,-350.500,-383.000
1.492,-339.000,-322.000,-347.500,-379.500
1.493,-336.000,-318.500,-344.500,-376.000
1.494,-333.000,-315.000,-341.000,-372.500
1.495,-330.000,-311.000,-337.000,-369.000
1.496,-326.500,-307.000,-333.500,-365.500
1.497,-323.500,-303.000,-330.000,-362.000
1.498,-321.000,-300.500,-327.000,-360.000
1.499,-319.500,-299.000,-325.500,-358.500
1.500,-319.000,-298.500,-325.000,-358.500
1.501,-319.000,-299.000,-326.000,-359.000
1.502,-320.500,-301.500,-328.000,-361.000
1.503,-323.500,-305.500,-331.500,-365.000
1.504,-328.000,-310.500,-336.500,-370.000
1.505,-332.500,-316.000,-341.500,-375.000
1.506,-335.000,-319.000,-344.500,-378.000
1.507,-335.000,-320.000,-345.000,-379.000
1.508,-333.000,-318.000,-343.000,-377.000
1.509,-330.000,-315.500,-340.000,-374.500
1.510,-328.500,-313.500,-338.500,-373.000
1.511,-329.000,-314.500,-339.000,-373.500
1.512,-332.000,-317.500,-342.000,-376.500
1.513,-337.000,-322.500,-346.500,-381.500
1.514,-343.000,-329.000,-352.500,-387.000
1.515,-348.500,-334.500,-357.000,-391.500
1.516,-352.500,-338.000,-360.000,-394.500
1.517,-354.000,-339.500,-361.000,-395.000
1.518,-353.500,-338.500,-359.500,-393.000
1.519,-351.000,-335.000,-356.000,-390.000
1.520,-347.000,-330.500,-351.500,-385.500
1.521,-341.000,-324.500,-346.500,-380.500
1.522,-335.500,-319.000,-341.500,-375.500
1.523,-330.500,-314.500,-338.000,-372.000
1.524,-327.000,-311.500,-336.000,-370.500
1.525,-325.500,-310.000,-335.500,-370.000
1.526,-325.000,-310.000,-336.000,-370.500
1.527,-325.000,-310.000,-336.500,-371.000
1.528,-325.000,-310.000,-336.500,-371.500
1.529,-324.000,-309.500,-335.500,-370.500
1.530,-322.500,-308.000,-334.000,-369.000
1.531,-321.000,-306.500,-332.500,-367.500
1.532,-319.500,-305.500,-331.000,-366.500
1.533,-318.500,-305.000,-330.500,-366.000
1.534,-318.000,-304.500,-330.500,-366.000
1.535,-317.500,-304.500,-330.000,-365.500
1.536,-316.500,-303.000,-328.500,-364.000
1.537,-314.000,-300.500,-325.500,-361.000
1.538,-311.500,-297.500,-322.000,-357.500
1.539,-310.500,-296.000,-320.000,-355.000
1.540,-312.000,-297.000,-320.500,-356.000
1.541,-317.000,-302.000,-325.000,-360.500
1.542,-324.000,-308.000,-331.000,-367.000
1.543,-330.500,-314.500,-337.500,-373.500
1.544,-336.500,-320.500,-343.000,-379.000
1.545,-341.500,-325.500,-348.000,-384.500
1.546,-346.000,-330.500,-353.000,-389.000
1.547,-349.500,-334.000,-357.000,-393.000
1.548,-352.000,-336.500,-360.000,-396.000
1.549,-352.500,-338.000,-361.000,-397.000
1.550,-352.000,-337.500,-361.000,-397.000
1.551,-350.000,-336.000,-359.500,-395.500
1.552,-346.500,-332.500,-356.000,-392.000
1.553,-341.500,-327.500,-350.500,-387.000
1.554,-335.000,-320.500,-343.500,-380.000
1.555,-328.500,-313.500,-336.000,-373.000
1.556,-323.500,-308.000,-331.000,-368.000
1.557,-323.000,-307.000,-330.000,-367.000
1.558,-327.000,-310.500,-334.000,-371.000
1.559,-333.500,-317.000,-340.500,-377.500
1.560,-340.500,-323.500,-347.500,-384.000
1.561,-344.500,-327.500,-352.000,-388.500
1.562,-345.500,-328.500,-353.000,-390.000
1.563,-343.000,-327.000,-351.000,-388.000
1.564,-339.000,-323.500,-347.500,-384.500
1.565,-334.500,-320.000,-343.500,-380.500
1.566,-331.500,-318.000,-341.000,-378.500
1.567,-330.000,-317.000,-339.000,-377.000
1.568,-328.000,-315.000,-337.000,-375.000
1.569,-323.500,-311.000,-332.500,-371.000
1.570,-317.500,-304.500,-326.000,-364.000
1.571,-311.000,-297.500,-318.500,-357.000
1.572,-308.000,-293.500,-314.500,-353.000
1.573,-310.000,-294.500,-316.000,-354.500
1.574,-317.500,-301.500,-323.000,-361.500
1.575,-327.500,-310.500,-332.500,-370.500
1.576,-336.000,-318.500,-341.000,-378.500
1.577,-340.500,-323.000,-345.000,-382.500
1.578,-340.000,-322.500,-345.000,-382.000
1.579,-336.500,-319.000,-341.500,-378.500
1.580,-331.000,-313.500,-336.500,-373.000
1.581,-325.000,-307.000,-330.500,-367.000
1.582,-319.000,-300.500,-325.000,-361.500
1.583,-314.000,-295.500,-320.000,-356.500
1.584,-310.000,-291.500,-316.500,-353.500
1.585,-308.500,-290.500,-315.000,-353.000
1.586,-309.500,-292.500,-317.000,-355.000
1.587,-313.000,-297.000,-321.000,-359.500
1.588,-317.500,-302.000,-325.500,-364.500
1.589,-321.500,-306.500,-330.000,-369.000
1.590,-325.000,-310.500,-334.000,-373.500
1.591,-328.500,-314.500,-338.000,-377.000
1.592,-332.000,-318.000,-341.500,-380.500
1.593,-334.500,-320.500,-344.500,-383.000
1.594,-336.500,-322.000,-346.000,-384.500
1.595,-337.000,-322.500,-346.500,-385.000
1.596,-337.500,-322.000,-346.500,-385.000
1.597,-338.500,-322.000,-346.500,-385.000
1.598,-339.500,-322.000,-347.000,-385.500
1.599,-341.000,-323.000,-347.000,-386.000
1.600,-341.500,-323.000,-346.500,-385.500
1.601,-340.000,-322.000,-345.000,-384.500
1.602,-337.000,-319.000,-341.500,-381.500
1.603,-331.500,-314.000,-336.500,-377.000
1.604,-324.500,-307.500,-330.000,-371.000
1.605,-316.000,-300.500,-323.000,-364.000
1.606,-308.000,-293.500,-316.000,-357.500
1.607,-301.000,-287.000,-310.000,-351.500
1.608,-296.000,-282.500,-305.000,-347.500
1.609,-292.500,-279.500,-302.000,-344.500
1.610,-291.000,-277.500,-300.000,-343.000
1.611,-290.000,-277.000,-299.000,-342.000
1.612,-289.500,-276.500,-298.500,-342.000
1.613,-290.000,-277.000,-299.000,-342.000
1.614,-292.000,-278.500,-300.000,-343.000
1.615,-295.000,-281.000,-302.000,-345.500
1.616,-299.000,-284.500,-304.500,-348.000
1.617,-302.500,-287.500,-307.500,-350.500
1.618,-305.000,-290.000,-309.000,-352.000
1.619,-306.000,-290.500,-309.500,-351.500
1.620,-304.500,-289.000,-308.000,-350.000
1.621,-301.500,-285.500,-305.000,-346.500
1.622,-296.500,-281.000,-300.500,-342.000
1.623,-290.500,-275.500,-295.500,-337.000
1.624,-285.000,-270.500,-291.000,-333.000
1.625,-282.500,-268.000,-288.500,-330.500
1.626,-282.500,-268.000,-289.000,-331.500
1.627,-285.500,-270.500,-291.500,-334.000
1.628,-289.000,-274.000,-295.500,-338.000
1.629,-292.500,-277.500,-299.000,-342.000
1.630,-294.500,-279.500,-301.500,-344.500
1.631,-296.000,-281.000,-303.500,-346.000
1.632,-296.000,-281.000,-304.000,-346.500
1.633,-294.500,-279.500,-302.500,-345.500
1.634,-290.500,-276.500,-299.500,-342.000
1.635,-286.000,-271.000,-294.500,-336.500
1.636,-281.000,-266.000,-289.000,-331.000
1.637,-277.000,-261.000,-284.000,-325.500
1.638,-275.000,-258.000,-280.000,-321.500
1.639,-273.000,-256.000,-277.000,-318.500
1.640,-271.500,-254.000,-274.500,-316.000
1.641,-270.000,-253.000,-273.500,-314.500
1.642,-270.000,-253.000,-273.500,-314.500
1.643,-271.500,-255.500,-276.500,-317.500
1.644,-275.000,-259.500,-281.000,-322.000
1.645,-280.000,-264.000,-286.500,-327.500
1.646,-285.500,-270.000,-293.000,-334.500
1.647,-291.500,-276.000,-299.500,-341.500
1.648,-297.500,-282.000,-305.500,-348.000
1.649,-303.000,-287.500,-310.500,-353.500
1.650,-307.500,-292.000,-315.000,-358.000
1.651,-310.500,-295.000,-318.000,-360.500
1.652,-311.500,-296.000,-318.500,-361.000
1.653,-310.000,-294.500,-316.500,-359.500
1.654,-306.500,-291.000,-313.000,-355.500
1.655,-302.000,-286.500,-308.000,-350.000
1.656,-296.000,-280.000,-301.500,-343.500
1.657,-289.500,-272.500,-294.000,-335.500
1.658,-282.500,-265.500,-286.500,-328.000
1.659,-278.500,-260.500,-282.000,-323.000
1.660,-278.000,-260.000,-281.500,-322.500
1.661,-282.000,-264.000,-286.000,-326.500
1.662,-289.000,-271.000,-294.000,-334.500
1.663,-297.000,-280.000,-302.500,-343.500
1.664,-304.000,-287.000,-310.500,-351.000
1.665,-308.500,-292.000,-315.000,-356.500
1.666,-309.500,-293.000,-316.500,-358.000
1.667,-307.500,-291.500,-314.500,-356.500
1.668,-303.500,-287.500,-310.500,-353.500
1.669,-298.000,-282.500,-305.500,-349.000
1.670,-293.000,-278.500,-301.500,-345.500
1.671,-292.000,-277.500,-301.000,-345.000
1.672,-296.000,-282.500,-305.000,-349.500
1.673,-305.000,-291.500,-314.000,-358.500
1.674,-316.000,-303.500,-325.000,-369.500
1.675,-327.500,-314.500,-335.500,-380.000
1.676,-337.000,-323.500,-344.000,-388.000
1.677,-343.000,-329.500,-349.000,-393.000
1.678,-347.500,-333.500,-353.000,-396.500
1.679,-352.000,-337.500,-357.500,-401.000
1.680,-357.500,-342.500,-363.000,-406.500
1.681,-362.500,-347.000,-368.000,-411.500
1.682,-364.500,-349.000,-370.500,-413.500
1.683,-363.500,-348.000,-370.000,-413.000
1.684,-361.000,-346.000,-368.000,-411.000
1.685,-358.500,-343.500,-366.000,-409.000
1.686,-357.000,-342.000,-364.500,-407.500
1.687,-356.500,-341.500,-363.500,-407.000
1.688,-355.500,-340.500,-362.500,-406.500
1.689,-353.500,-339.000,-360.500,-404.500
1.690,-350.000,-335.500,-357.000,-401.000
1.691,-345.500,-331.000,-352.500,-396.000
1.692,-341.500,-327.500,-348.000,-391.500
1.693,-338.500,-324.500,-344.500,-388.500
1.694,-337.000,-322.500,-342.000,-386.000
1.695,-335.000,-320.000,-339.500,-383.000
1.696,-331.500,-316.000,-335.500,-379.000
1.697,-327.000,-311.500,-330.500,-374.500
1.698,-323.000,-307.500,-326.500,-370.500
1.699,-321.500,-306.000,-325.000,-369.000
1.700,-323.000,-307.500,-327.000,-370.500
1.701,-327.000,-312.500,-332.000,-375.500
1.702,-332.000,-318.000,-337.500,-381.000
1.703,-335.000,-322.000,-342.000,-385.500
1.704,-335.500,-322.500,-343.000,-386.500
1.705,-333.000,-320.500,-341.000,-385.000
1.706,-330.000,-317.000,-337.500,-382.000
1.707,-328.000,-315.000,-335.500,-380.500
1.708,-328.000,-315.500,-335.500,-380.500
1.709,-330.000,-317.000,-337.000,-382.000
1.710,-332.000,-320.000,-339.500,-384.500
1.711,-334.500,-323.000,-342.000,-387.000
1.712,-336.500,-325.500,-344.000,-389.000
1.713,-338.000,-327.500,-345.000,-390.000
1.714,-340.500,-330.000,-347.000,-391.500
1.715,-344.000,-333.000,-349.500,-394.000
1.716,-349.000,-337.500,-354.000,-398.000
1.717,-355.000,-342.500,-359.500,-403.500
1.718,-361.000,-348.000,-365.000,-409.000
1.719,-366.500,-352.500,-370.500,-414.000
1.720,-370.000,-355.500,-374.000,-417.500
1.721,-371.000,-356.500,-375.500,-419.000
1.722,-369.500,-355.500,-374.500,-418.500
1.723,-366.500,-352.500,-372.500,-416.500
1.724,-362.500,-349.500,-370.000,-414.000
1.725,-358.500,-345.500,-366.500,-410.500
1.726,-351.500,-339.000,-360.500,-405.000
1.727,-341.500,-329.500,-351.000,-395.000
1.728,-327.000,-315.500,-337.000,-381.500
1.729,-310.000,-299.000,-319.500,-364.000
1.730,-290.000,-279.500,-299.500,-343.500
1.731,-269.000,-258.500,-277.500,-321.500
1.732,-246.000,-235.500,-253.500,-297.000
1.733,-221.500,-210.500,-227.500,-270.500
1.734,-195.000,-183.000,-199.500,-242.000
1.735,-166.000,-153.000,-169.000,-210.500
1.736,-133.500,-119.500,-134.500,-175.000
1.737,-96.000,-81.000,-95.000,-135.000
1.738,-53.000,-37.000,-49.500,-89.500
1.739,-4.500,12.000,0.500,-38.500
1.740,47.000,64.000,54.000,15.000
1.741,99.000,117.000,108.000,69.500
1.742,149.500,168.000,159.500,121.000
1.743,196.000,216.000,207.500,169.500
1.744,239.500,260.000,252.000,214.000
1.745,280.500,301.500,293.500,255.500
1.746,319.000,340.000,332.500,294.500
1.747,353.000,374.500,367.500,329.500
1.748,379.500,401.500,394.500,356.500
1.749,394.500,416.500,409.000,371.000
1.750,394.000,416.500,409.000,370.500
1.751,379.000,401.500,393.500,355.000
1.752,351.500,373.500,366.000,327.000
1.753,313.500,335.500,327.500,288.500
1.754,268.000,289.000,281.000,242.000
1.755,216.500,237.000,229.000,189.000
1.756,163.000,183.000,174.000,134.000
1.757,109.500,128.500,118.500,78.000
1.758,57.500,75.000,64.500,23.000
1.759,7.000,23.500,12.000,-29.500
1.760,-40.500,-24.500,-37.500,-79.500
1.761,-84.000,-68.500,-82.500,-125.000
1.762,-123.000,-108.500,-123.500,-167.000
1.763,-157.500,-144.000,-160.000,-204.000
1.764,-188.000,-175.000,-192.000,-237.000
1.765,-214.500,-202.000,-219.500,-265.500
1.766,-237.000,-225.000,-243.000,-289.500
1.767,-255.000,-243.000,-261.000,-308.500
1.768,-268.500,-256.500,-274.500,-322.000
1.769,-277.500,-265.500,-283.500,-331.000
1.770,-282.500,-270.500,-288.500,-336.000
1.771,-284.500,-272.500,-290.000,-337.500
1.772,-285.000,-272.500,-290.000,-337.000
1.773,-285.000,-272.000,-289.000,-336.000
1.774,-285.500,-272.500,-289.500,-336.000
1.775,-288.000,-274.500,-291.500,-337.500
1.776,-291.500,-278.000,-294.500,-340.500
1.777,-295.500,-281.500,-298.500,-344.000
1.778,-299.500,-285.500,-302.000,-347.500
1.779,-302.500,-288.000,-304.500,-350.000
1.780,-303.000,-288.500,-305.000,-350.000
1.781,-300.500,-286.000,-302.000,-347.500
1.782,-295.500,-281.500,-297.500,-342.500
1.783,-290.000,-276.500,-292.500,-338.500
1.784,-287.500,-274.500,-291.000,-337.000
1.785,-289.500,-277.000,-293.500,-339.500
1.786,-295.500,-284.000,-300.500,-347.000
1.787,-303.500,-293.000,-309.000,-356.000
1.788,-311.000,-301.000,-317.000,-364.000
1.789,-315.000,-305.500,-321.000,-368.500
1.790,-315.500,-307.000,-322.000,-369.500
1.791,-314.000,-306.000,-320.500,-368.000
1.792,-312.000,-303.500,-318.000,-365.000
1.793,-309.500,-301.000,-315.000,-362.000
1.794,-307.500,-298.500,-312.500,-359.000
1.795,-307.500,-297.000,-311.000,-357.500
1.796,-309.000,-298.000,-312.500,-358.000
1.797,-312.500,-301.000,-315.500,-361.000
1.798,-317.000,-304.000,-319.000,-364.500
1.799,-320.000,-306.500,-322.000,-367.500
1.800,-321.500,-308.000,-323.000,-369.500
1.801,-322.000,-308.000,-323.000,-370.000
1.802,-321.500,-307.500,-322.500,-369.500
1.803,-320.000,-306.000,-321.500,-368.500
1.804,-318.000,-304.500,-319.500,-366.500
1.805,-314.500,-301.500,-316.500,-364.000
1.806,-310.000,-297.500,-312.500,-360.000
1.807,-303.000,-291.000,-306.500,-354.500
1.808,-294.500,-283.500,-299.000,-347.000
1.809,-286.500,-276.500,-292.500,-340.500
1.810,-280.500,-271.000,-287.500,-335.500
1.811,-276.500,-267.500,-284.000,-332.000
1.812,-274.000,-265.000,-281.500,-329.500
1.813,-272.000,-263.000,-279.000,-327.000
1.814,-271.500,-262.500,-278.000,-325.500
1.815,-273.500,-264.000,-279.500,-326.500
1.816,-278.500,-268.000,-283.500,-330.500
1.817,-285.000,-274.500,-289.500,-336.500
1.818,-293.000,-281.500,-296.500,-343.500
1.819,-301.000,-289.000,-304.000,-350.500
1.820,-308.000,-295.500,-310.500,-357.000
1.821,-312.500,-300.500,-314.500,-361.500
1.822,-315.000,-302.500,-316.500,-363.500
1.823,-315.500,-303.000,-317.000,-364.000
1.824,-315.500,-303.000,-316.500,-363.500
1.825,-315.000,-302.500,-316.000,-363.500
1.826,-315.000,-302.000,-316.000,-363.000
1.827,-314.500,-301.000,-316.000,-363.000
1.828,-313.500,-299.500,-315.000,-362.000
1.829,-311.000,-297.500,-313.500,-360.500
1.830,-309.000,-296.000,-312.500,-359.500
1.831,-308.000,-295.500,-312.500,-359.500
1.832,-308.500,-296.000,-313.500,-360.500
1.833,-309.500,-297.000,-314.500,-361.500
1.834,-309.500,-297.000,-314.000,-361.000
1.835,-308.000,-296.000,-312.500,-359.500
1.836,-306.000,-293.500,-310.000,-357.000
1.837,-304.000,-292.000,-308.000,-355.000
1.838,-302.000,-290.500,-306.500,-353.000
1.839,-299.500,-288.500,-304.500,-350.500
1.840,-295.500,-285.000,-301.000,-347.000
1.841,-291.000,-280.000,-295.500,-341.500
1.842,-286.000,-275.500,-290.500,-336.500
1.843,-282.000,-271.500,-286.000,-332.500
1.844,-279.500,-269.500,-283.000,-330.000
1.845,-279.000,-269.500,-282.500,-329.500
1.846,-280.500,-271.500,-284.500,-331.500
1.847,-284.500,-275.500,-288.500,-336.000
1.848,-290.000,-282.000,-295.000,-342.500
1.849,-297.000,-289.500,-303.000,-350.500
1.850,-304.500,-297.500,-311.500,-358.500
1.851,-310.000,-303.000,-317.500,-365.000
1.852,-313.000,-306.000,-321.000,-368.000
1.853,-313.500,-306.000,-321.000,-368.000
1.854,-311.000,-303.000,-318.000,-364.500
1.855,-306.500,-298.000,-312.500,-359.000
1.856,-300.500,-291.500,-305.500,-352.500
1.857,-295.000,-285.000,-298.500,-345.500
1.858,-290.000,-280.000,-293.000,-340.500
1.859,-286.500,-276.000,-289.000,-336.500
1.860,-284.000,-273.000,-285.500,-333.000
1.861,-281.500,-270.500,-282.500,-330.500
1.862,-279.500,-269.000,-280.500,-328.500
1.863,-279.500,-269.000,-280.500,-329.000
1.864,-282.500,-272.000,-283.500,-332.000
1.865,-288.000,-278.000,-289.500,-338.500
1.866,-295.500,-285.000,-296.500,-346.500
1.867,-301.000,-291.000,-302.500,-353.000
1.868,-303.500,-294.000,-305.000,-356.000
1.869,-303.000,-293.500,-304.500,-355.500
1.870,-301.500,-292.000,-303.500,-354.500
1.871,-301.000,-291.500,-303.500,-354.000
1.872,-302.500,-293.000,-305.000,-355.500
1.873,-305.500,-295.500,-307.500,-358.500
1.874,-308.500,-298.500,-310.500,-361.000
1.875,-310.000,-300.000,-312.000,-362.000
1.876,-310.500,-299.500,-311.500,-361.500
1.877,-309.000,-297.500,-309.500,-359.000
1.878,-307.000,-295.000,-307.000,-356.500
1.879,-305.000,-293.000,-304.500,-353.500
1.880,-303.000,-290.500,-302.500,-351.000
1.881,-300.000,-288.000,-299.500,-348.000
1.882,-296.000,-284.500,-296.000,-344.500
1.883,-291.500,-280.000,-291.500,-340.000
1.884,-286.500,-275.500,-287.000,-335.500
1.885,-282.500,-272.000,-284.000,-332.500
1.886,-280.500,-270.500,-282.500,-330.500
1.887,-280.000,-270.500,-283.000,-331.000
1.888,-281.000,-272.000,-285.000,-333.000
1.889,-282.500,-274.500,-288.000,-335.000
1.890,-283.500,-276.000,-289.500,-336.500
1.891,-284.000,-276.500,-290.500,-337.000
1.892,-283.500,-275.500,-289.500,-336.000
1.893,-282.500,-273.500,-288.000,-334.000
1.894,-280.000,-270.500,-285.000,-331.000
1.895,-277.000,-267.500,-281.500,-327.500
1.896,-274.500,-264.500,-278.500,-324.500
1.897,-272.500,-261.500,-276.000,-322.000
1.898,-270.500,-259.500,-273.500,-320.000
1.899,-268.500,-257.000,-270.500,-317.500
1.900,-266.000,-254.000,-267.500,-315.000
1.901,-262.000,-250.500,-264.000,-311.000
1.902,-257.500,-246.000,-259.500,-306.500
1.903,-253.000,-242.500,-255.500,-302.500
1.904,-251.000,-241.000,-254.000,-300.500
1.905,-251.500,-242.000,-255.000,-301.500
1.906,-254.500,-246.000,-258.500,-305.000
1.907,-258.500,-251.000,-263.500,-310.000
1.908,-263.500,-256.500,-269.000,-316.000
1.909,-269.000,-262.500,-275.000,-322.000
1.910,-275.000,-268.500,-280.500,-328.000
1.911,-279.500,-273.000,-284.500,-332.000
1.912,-282.500,-275.500,-286.000,-333.500
1.913,-283.000,-275.500,-285.500,-333.000
1.914,-282.000,-274.500,-283.500,-331.000
1.915,-281.000,-272.500,-281.000,-329.000
1.916,-279.000,-269.500,-278.000,-326.000
1.917,-276.000,-266.000,-274.500,-322.500
1.918,-272.000,-261.000,-270.000,-317.500
1.919,-266.500,-255.500,-264.000,-312.000
1.920,-260.500,-249.000,-258.000,-306.000
1.921,-255.000,-243.000,-252.000,-300.000
1.922,-250.000,-238.500,-247.000,-295.500
1.923,-247.000,-235.500,-244.500,-292.500
1.924,-245.000,-234.000,-242.500,-291.000
1.925,-243.000,-232.500,-241.000,-289.500
1.926,-240.500,-230.000,-239.000,-287.500
1.927,-237.000,-227.000,-236.500,-285.000
1.928,-234.000,-224.000,-234.000,-283.000
1.929,-232.000,-222.000,-232.500,-281.500
1.930,-231.500,-221.500,-232.000,-281.500
1.931,-230.500,-221.000,-231.500,-281.500
1.932,-227.500,-218.500,-229.500,-279.500
1.933,-222.000,-214.000,-224.500,-274.500
1.934,-214.500,-206.500,-217.500,-266.500
1.935,-206.500,-198.500,-209.500,-258.500
1.936,-200.000,-192.000,-203.000,-251.500
1.937,-197.000,-188.000,-199.000,-247.500
1.938,-197.500,-188.000,-198.500,-247.000
1.939,-202.000,-191.000,-201.500,-250.000
1.940,-208.000,-196.500,-207.000,-255.000
1.941,-213.500,-201.500,-211.500,-260.000
1.942,-216.000,-204.000,-214.500,-262.500
1.943,-217.000,-205.000,-215.000,-263.500
1.944,-217.500,-206.000,-216.000,-264.500
1.945,-219.500,-208.000,-218.500,-267.000
1.946,-222.500,-211.000,-221.500,-270.500
1.947,-225.000,-214.000,-224.500,-274.000
1.948,-225.500,-215.000,-225.500,-275.500
1.949,-223.000,-213.000,-224.000,-274.000
1.950,-218.000,-209.000,-220.000,-270.000
1.951,-213.000,-205.000,-216.000,-266.000
1.952,-210.000,-202.000,-213.500,-263.500
1.953,-209.500,-201.500,-212.500,-262.500
1.954,-210.000,-202.000,-213.000,-262.500
1.955,-210.500,-201.500,-212.500,-261.500
1.956,-209.000,-199.500,-210.000,-258.500
1.957,-205.000,-195.000,-205.000,-253.000
1.958,-199.000,-188.500,-199.000,-246.500
1.959,-193.500,-182.500,-192.500,-240.000
1.960,-189.000,-177.500,-187.500,-234.500
1.961,-184.500,-173.000,-183.000,-230.000
1.962,-180.000,-168.500,-178.500,-225.500
1.963,-176.000,-164.500,-175.500,-222.000
1.964,-174.500,-164.000,-175.000,-221.500
1.965,-177.000,-167.000,-178.500,-225.000
1.966,-181.500,-171.500,-183.500,-229.500
1.967,-184.500,-174.500,-187.000,-233.000
1.968,-183.500,-173.500,-186.000,-232.000
1.969,-178.000,-168.000,-180.500,-226.500
1.970,-170.000,-159.500,-172.500,-218.000
1.971,-162.000,-151.500,-164.500,-210.000
1.972,-156.000,-145.000,-158.000,-203.000
1.973,-151.500,-140.000,-153.000,-197.500
1.974,-149.000,-136.500,-149.500,-194.000
1.975,-147.500,-134.500,-147.500,-191.500
1.976,-147.000,-133.000,-146.000,-190.000
1.977,-146.000,-132.000,-145.000,-188.500
1.978,-143.500,-129.000,-142.500,-185.500
1.979,-138.500,-124.500,-138.500,-181.500
1.980,-132.500,-118.500,-132.500,-175.500
1.981,-126.000,-112.000,-127.000,-170.000
1.982,-119.500,-106.000,-121.500,-164.500
1.983,-114.000,-101.000,-117.000,-160.000
1.984,-109.500,-97.500,-113.500,-156.500
1.985,-108.500,-97.000,-112.500,-155.500
1.986,-110.500,-100.000,-115.500,-158.500
1.987,-117.000,-106.500,-121.500,-164.500
1.988,-124.500,-114.500,-128.500,-172.000
1.989,-131.500,-121.000,-134.500,-178.000
1.990,-134.500,-123.000,-136.500,-179.500
1.991,-131.000,-119.500,-132.000,-175.000
1.992,-121.000,-109.000,-121.500,-164.000
1.993,-106.000,-94.000,-106.500,-149.000
1.994,-90.500,-77.500,-90.500,-132.500
1.995,-78.000,-64.500,-77.500,-120.000
1.996,-71.000,-56.500,-70.000,-112.500
1.997,-68.000,-53.000,-67.000,-109.500
1.998,-68.000,-52.000,-66.000,-109.000
1.999,-68.500,-52.000,-65.500,-109.000
2.000,-69.500,-53.000,-65.500,-109.500
2.001,-71.000,-54.500,-67.000,-111.000
2.002,-74.000,-57.500,-69.500,-113.500
2.003,-78.000,-61.500,-73.000,-117.500
2.004,-81.500,-65.500,-76.500,-121.500
2.005,-83.000,-68.000,-79.000,-124.000
2.006,-82.000,-67.500,-78.500,-124.000
2.007,-78.500,-64.500,-75.500,-121.000
2.008,-73.500,-60.000,-71.000,-117.000
2.009,-69.000,-56.000,-67.000,-112.500
2.010,-65.000,-53.000,-64.500,-109.500
2.011,-63.500,-52.000,-63.500,-109.000
2.012,-64.000,-53.000,-64.500,-110.000
2.013,-66.500,-55.500,-67.500,-113.000
2.014,-70.000,-59.500,-71.000,-116.500
2.015,-75.000,-64.000,-75.500,-121.000
2.016,-79.500,-68.000,-79.500,-125.000
2.017,-83.000,-71.000,-82.500,-128.000
2.018,-85.000,-73.000,-84.500,-129.500
2.019,-86.000,-73.500,-84.500,-129.500
2.020,-86.500,-73.500,-84.500,-129.500
2.021,-87.500,-74.000,-86.000,-131.000
2.022,-90.500,-77.000,-89.500,-134.500
2.023,-94.500,-81.000,-94.000,-139.500
2.024,-98.000,-84.500,-98.500,-144.500
2.025,-101.500,-88.000,-102.000,-148.500
2.026,-103.500,-90.000,-105.000,-152.000
2.027,-105.500,-92.000,-107.000,-154.500
2.028,-107.500,-94.000,-109.000,-157.000
2.029,-110.500,-97.000,-112.000,-160.500
2.030,-115.000,-102.000,-117.000,-166.000
2.031,-122.500,-110.000,-125.000,-174.000
2.032,-132.500,-120.500,-135.500,-184.500
2.033,-145.000,-132.500,-147.500,-196.500
2.034,-157.000,-144.500,-159.500,-208.000
2.035,-167.000,-154.500,-169.000,-217.500
2.036,-174.000,-161.000,-175.500,-223.500
2.037,-178.500,-165.000,-179.000,-226.500
2.038,-180.500,-167.000,-180.500,-228.000
2.039,-182.000,-168.500,-182.000,-229.000
2.040,-184.000,-170.500,-184.000,-231.500
2.041,-187.500,-174.500,-188.000,-235.000
2.042,-192.000,-179.500,-193.000,-240.500
2.043,-198.000,-185.500,-199.000,-247.000
2.044,-204.000,-192.000,-205.500,-253.500
2.045,-209.500,-198.000,-211.500,-260.000
2.046,-215.000,-204.000,-217.500,-266.500
2.047,-220.000,-209.500,-223.500,-272.500
2.048,-224.000,-214.000,-228.000,-277.500
2.049,-227.000,-217.000,-231.500,-281.000
2.050,-229.000,-219.000,-233.500,-283.000
2.051,-231.000,-221.000,-235.500,-285.000
2.052,-233.500,-223.000,-237.500,-287.000
2.053,-236.000,-226.000,-240.500,-290.000
2.054,-239.500,-229.500,-244.000,-293.000
2.055,-243.500,-233.000,-247.500,-296.000
2.056,-247.500,-237.000,-251.500,-299.500
2.057,-252.500,-241.500,-256.000,-304.000
2.058,-258.500,-247.500,-262.000,-309.000
2.059,-265.500,-254.000,-268.500,-315.500
2.060,-272.000,-260.500,-274.500,-321.000
2.061,-277.500,-266.000,-279.500,-326.000
2.062,-280.500,-269.500,-283.000,-329.500
2.063,-281.000,-270.500,-284.500,-331.000
2.064,-279.000,-269.500,-283.000,-330.000
2.065,-275.500,-266.500,-280.500,-327.500
2.066,-271.000,-262.500,-276.500,-324.000
2.067,-267.000,-259.000,-273.000,-320.500
2.068,-264.500,-256.500,-270.000,-318.000
2.069,-263.000,-254.500,-268.500,-317.000
2.070,-263.000,-254.500,-268.500,-317.000
2.071,-265.000,-256.000,-270.500,-319.000
2.072,-269.500,-260.000,-275.000,-323.000
2.073,-276.000,-266.000,-281.000,-329.000
2.074,-283.500,-273.000,-288.500,-336.000
2.075,-291.000,-279.500,-295.500,-342.500
2.076,-296.500,-284.500,-300.500,-347.500
2.077,-299.500,-287.500,-303.500,-350.000
2.078,-299.500,-287.500,-304.000,-350.000
2.079,-297.000,-285.500,-301.500,-348.000
2.080,-293.000,-282.000,-298.000,-344.500
2.081,-288.500,-278.000,-294.500,-341.000
2.082,-285.500,-275.500,-291.500,-338.500
2.083,-283.500,-274.500,-291.000,-338.000
2.084,-283.500,-275.000,-291.500,-338.500
2.085,-284.000,-276.000,-293.000,-340.500
2.086,-284.000,-276.500,-294.500,-341.500
2.087,-283.500,-277.000,-295.000,-342.500
2.088,-283.500,-277.500,-295.500,-343.000
2.089,-284.500,-279.000,-296.500,-344.500
2.090,-287.500,-282.000,-299.000,-347.500
2.091,-291.500,-286.500,-303.000,-351.000
2.092,-297.500,-292.000,-307.500,-356.000
2.093,-303.500,-298.000,-313.000,-361.000
2.094,-310.000,-303.500,-317.500,-366.000
2.095,-315.000,-307.000,-321.000,-369.000
2.096,-317.500,-308.500,-322.000,-369.500
2.097,-317.500,-307.000,-320.500,-367.500
2.098,-315.500,-304.000,-317.500,-364.000
2.099,-313.000,-300.500,-314.500,-360.500
2.100,-311.000,-298.000,-312.000,-357.500
2.101,-310.000,-297.000,-311.000,-356.500
2.102,-309.500,-297.000,-311.000,-356.500
2.103,-310.000,-297.500,-312.000,-358.000
2.104,-310.000,-298.000,-313.000,-359.000
2.105,-309.000,-298.000,-313.000,-359.500
2.106,-307.000,-296.500,-311.500,-358.500
2.107,-304.500,-294.000,-310.000,-357.000
2.108,-302.500,-292.000,-308.000,-355.500
2.109,-300.500,-291.000,-307.000,-355.000
2.110,-299.500,-290.000,-306.500,-354.500
2.111,-298.000,-289.500,-305.500,-353.500
2.112,-296.000,-287.500,-303.500,-352.000
2.113,-293.000,-285.000,-300.500,-349.000
2.114,-290.500,-283.000,-297.500,-346.000
2.115,-289.500,-281.000,-296.000,-344.000
2.116,-289.000,-281.000,-295.500,-343.500
2.117,-289.500,-281.000,-296.000,-343.500
2.118,-289.500,-280.500,-296.000,-343.000
2.119,-288.500,-279.500,-295.000,-341.500
2.120,-286.500,-276.500,-292.500,-338.500
2.121,-283.500,-273.500,-289.500,-335.000
2.122,-281.000,-271.000,-287.000,-332.500
2.123,-280.500,-270.500,-286.000,-332.000
2.124,-282.500,-272.500,-288.000,-334.000
2.125,-286.000,-276.500,-292.000,-338.500
2.126,-291.000,-281.500,-297.000,-343.500
2.127,-296.000,-286.500,-301.500,-348.500
2.128,-299.000,-290.000,-305.000,-352.000
2.129,-300.500,-292.000,-306.500,-354.000
2.130,-300.500,-291.500,-306.500,-353.500
2.131,-299.500,-290.500,-305.000,-352.500
2.132,-298.500,-289.500,-304.000,-351.500
2.133,-299.000,-289.500,-304.500,-352.000
2.134,-301.500,-291.500,-306.500,-353.500
2.135,-304.000,-293.500,-308.000,-355.000
2.136,-304.000,-293.000,-307.000,-354.000
2.137,-301.000,-289.500,-303.500,-350.000
2.138,-296.000,-284.500,-298.500,-345.000
2.139,-292.000,-280.000,-294.000,-340.500
2.140,-288.500,-276.500,-290.500,-337.000
2.141,-286.500,-274.500,-288.500,-335.000
2.142,-285.000,-273.000,-288.000,-334.000
2.143,-284.000,-272.500,-288.000,-334.000
2.144,-284.500,-273.000,-288.500,-335.000
2.145,-285.000,-274.500,-289.500,-336.500
2.146,-286.500,-276.000,-291.500,-338.500
2.147,-289.000,-279.000,-294.500,-342.000
2.148,-292.500,-283.500,-298.500,-346.000
2.149,-296.500,-288.000,-303.000,-350.500
2.150,-299.000,-291.000,-306.500,-354.000
2.151,-300.500,-293.000,-308.000,-355.500
2.152,-300.500,-293.000,-308.000,-355.000
2.153,-300.000,-292.000,-306.500,-353.500
2.154,-299.500,-291.000,-304.500,-351.500
2.155,-298.500,-289.500,-302.500,-349.000
2.156,-298.000,-288.500,-300.000,-346.500
2.157,-298.000,-287.500,-298.500,-344.000
2.158,-298.500,-287.000,-297.500,-342.500
2.159,-299.500,-287.000,-297.500,-342.000
2.160,-301.000,-288.500,-299.000,-343.000
2.161,-302.500,-289.500,-300.500,-344.000
2.162,-303.500,-290.500,-301.500,-345.000
2.163,-303.500,-291.000,-302.500,-345.500
2.164,-303.500,-291.000,-303.500,-346.500
2.165,-303.000,-291.500,-304.000,-347.000
2.166,-302.500,-291.500,-304.500,-348.000
2.167,-300.500,-290.500,-304.000,-347.500
2.168,-298.500,-289.000,-302.500,-347.000
2.169,-297.000,-288.000,-302.000,-346.500
2.170,-296.500,-288.000,-302.500,-347.500
2.171,-298.500,-290.000,-305.000,-350.000
2.172,-301.000,-292.500,-308.000,-353.000
2.173,-303.000,-294.000,-310.000,-355.000
2.174,-304.500,-295.000,-311.500,-356.500
2.175,-306.500,-296.000,-312.500,-357.500
2.176,-308.500,-297.500,-314.000,-359.000
2.177,-311.000,-299.500,-315.500,-360.500
2.178,-312.000,-300.000,-315.500,-360.000
2.179,-310.500,-298.000,-313.000,-357.500
2.180,-307.000,-294.500,-309.000,-353.500
2.181,-303.500,-291.000,-305.000,-349.000
2.182,-301.500,-289.000,-302.500,-346.500
2.183,-301.000,-289.000,-301.500,-345.500
2.184,-301.000,-289.500,-301.500,-346.000
2.185,-300.500,-289.500,-301.000,-346.000
2.186,-299.500,-288.500,-300.500,-345.500
2.187,-297.500,-287.000,-299.000,-344.000
2.188,-295.000,-284.500,-297.000,-342.000
2.189,-292.000,-282.000,-295.000,-340.000
2.190,-290.000,-280.000,-292.500,-338.000
2.191,-288.000,-278.000,-290.500,-336.500
2.192,-286.000,-276.000,-289.000,-334.500
2.193,-284.000,-274.500,-287.000,-332.500
2.194,-282.500,-273.500,-286.000,-331.000
2.195,-281.500,-272.500,-285.000,-330.000
2.196,-281.500,-273.000,-285.500,-330.000
2.197,-283.000,-274.000,-286.000,-330.500
2.198,-285.000,-276.000,-288.000,-332.000
2.199,-287.500,-279.000,-290.000,-334.000
2.200,-291.000,-282.000,-293.000,-337.000
2.201,-295.000,-286.000,-297.500,-341.000
2.202,-298.500,-289.500,-301.500,-345.000
2.203,-302.500,-293.500,-306.000,-349.500
2.204,-306.500,-297.500,-310.500,-353.500
2.205,-311.500,-302.000,-315.500,-358.500
2.206,-315.500,-307.000,-320.000,-363.500
2.207,-319.000,-310.500,-323.500,-367.000
2.208,-320.500,-312.500,-326.000,-369.500
2.209,-320.500,-312.500,-326.500,-370.000
2.210,-320.000,-312.000,-326.500,-370.000
2.211,-319.000,-311.500,-326.000,-369.500
2.212,-318.500,-311.000,-325.500,-369.500
2.213,-318.500,-311.000,-325.000,-369.000
2.214,-318.000,-310.500,-324.000,-367.500
2.215,-316.000,-308.500,-321.500,-364.500
2.216,-312.500,-304.000,-317.000,-360.000
2.217,-306.500,-298.000,-310.500,-353.000
2.218,-300.500,-291.000,-304.000,-346.000
2.219,-295.500,-285.000,-297.500,-340.000
2.220,-292.000,-281.000,-293.500,-336.000
2.221,-291.500,-279.500,-292.000,-334.500
2.222,-292.500,-280.500,-293.000,-335.500
2.223,-294.500,-282.500,-294.500,-337.500
2.224,-295.000,-283.500,-296.000,-338.500
2.225,-294.000,-283.000,-295.500,-338.500
2.226,-292.500,-282.000,-295.000,-338.500
2.227,-292.000,-282.500,-295.500,-339.000
2.228,-293.500,-284.500,-298.000,-341.500
2.229,-296.500,-288.000,-301.500,-345.000
2.230,-300.000,-292.000,-304.500,-348.000
2.231,-302.500,-294.000,-306.000,-349.000
2.232,-303.500,-295.000,-306.500,-349.000
2.233,-305.000,-296.000,-307.000,-349.000
2.234,-308.000,-298.500,-309.000,-350.500
2.235,-312.500,-303.000,-313.000,-354.000
2.236,-317.500,-307.500,-317.500,-358.000
2.237,-321.500,-311.000,-320.500,-361.000
2.238,-323.000,-312.000,-321.000,-361.500
2.239,-322.000,-311.000,-320.000,-360.000
2.240,-320.000,-308.500,-317.500,-357.000
2.241,-318.000,-306.500,-315.000,-355.000
2.242,-317.000,-306.000,-314.500,-354.500
2.243,-317.500,-306.000,-315.000,-355.000
2.244,-318.000,-307.000,-316.000,-356.500
2.245,-317.500,-307.000,-316.500,-357.000
2.246,-315.000,-305.000,-315.000,-356.000
2.247,-311.000,-301.500,-311.500,-353.000
2.248,-306.000,-296.500,-307.000,-349.000
2.249,-300.500,-291.500,-302.500,-344.500
2.250,-295.500,-287.000,-298.000,-340.500
2.251,-291.500,-283.500,-295.000,-337.500
2.252,-288.500,-281.000,-292.500,-335.000
2.253,-287.000,-279.500,-291.000,-333.000
2.254,-287.000,-279.000,-290.000,-332.000
2.255,-288.000,-279.500,-290.000,-332.000
2.256,-290.500,-281.000,-291.000,-333.000
2.257,-294.000,-284.500,-294.000,-335.500
2.258,-299.000,-288.500,-298.000,-339.000
2.259,-304.500,-293.500,-303.000,-344.000
2.260,-309.500,-298.000,-307.500,-348.500
2.261,-312.000,-300.500,-310.000,-350.500
2.262,-311.500,-300.000,-309.500,-350.000
2.263,-307.500,-296.500,-305.500,-346.500
2.264,-302.000,-292.000,-301.000,-342.000
2.265,-297.500,-288.000,-297.000,-338.000
2.266,-295.000,-286.000,-295.000,-336.000
2.267,-295.500,-286.500,-295.500,-337.000
2.268,-298.000,-289.500,-299.000,-340.000
2.269,-303.000,-294.500,-304.000,-345.500
2.270,-309.500,-300.500,-310.000,-352.000
2.271,-315.500,-307.000,-316.500,-358.500
2.272,-321.000,-312.500,-322.000,-363.500
2.273,-324.000,-316.000,-325.000,-366.500
2.274,-324.000,-316.000,-325.000,-366.500
2.275,-322.000,-313.500,-322.500,-363.500
2.276,-318.500,-310.000,-318.500,-359.500
2.277,-315.000,-306.000,-314.500,-355.000
2.278,-312.500,-303.000,-311.500,-352.000
2.279,-311.000,-301.500,-310.000,-350.500
2.280,-311.000,-301.000,-309.500,-350.000
2.281,-311.000,-301.000,-309.500,-350.500
2.282,-310.500,-300.500,-309.000,-349.500
2.283,-308.500,-298.500,-307.500,-348.000
2.284,-306.000,-297.000,-305.500,-346.000
2.285,-304.500,-296.000,-304.500,-345.000
2.286,-304.000,-296.000,-304.000,-345.000
2.287,-305.000,-297.000,-305.000,-346.000
2.288,-307.000,-299.000,-307.000,-348.000
2.289,-309.500,-301.500,-309.500,-350.500
2.290,-311.000,-303.000,-311.000,-352.500
2.291,-311.000,-303.000,-311.000,-352.000
2.292,-309.500,-301.500,-309.500,-350.500
2.293,-308.000,-300.000,-308.000,-349.000
2.294,-307.500,-299.500,-306.500,-347.500
2.295,-307.000,-299.000,-306.000,-346.500
2.296,-307.000,-298.500,-305.000,-345.500
2.297,-306.500,-297.500,-304.000,-344.500
2.298,-305.500,-296.000,-302.500,-342.500
2.299,-303.500,-293.500,-301.000,-340.000
2.300,-301.000,-291.000,-298.500,-337.500
2.301,-298.500,-288.000,-296.000,-334.500
2.302,-296.500,-286.500,-294.000,-333.000
2.303,-297.000,-286.500,-294.500,-333.500
2.304,-300.500,-290.000,-298.000,-337.500
2.305,-307.000,-297.000,-305.000,-345.000
2.306,-316.000,-305.500,-314.000,-354.500
2.307,-324.000,-313.500,-322.000,-362.500
2.308,-329.000,-319.000,-327.000,-368.500
2.309,-331.500,-322.000,-329.500,-371.000
2.310,-332.500,-323.000,-330.500,-372.000
2.311,-333.000,-323.500,-331.000,-372.500
2.312,-333.500,-323.500,-331.000,-372.500
2.313,-333.000,-323.000,-330.500,-372.000
2.314,-330.500,-320.500,-328.500,-370.000
2.315,-326.500,-316.500,-324.500,-366.000
2.316,-321.000,-311.000,-319.500,-360.500
2.317,-314.500,-305.000,-313.000,-354.000
2.318,-308.500,-298.500,-307.000,-347.500
2.319,-303.500,-293.500,-301.500,-342.000
2.320,-300.000,-290.000,-298.000,-338.500
2.321,-298.000,-288.000,-296.500,-337.000
2.322,-298.000,-288.000,-296.500,-337.500
2.323,-298.000,-288.500,-297.000,-338.500
2.324,-298.500,-289.500,-297.500,-339.500
2.325,-299.000,-290.000,-298.500,-340.000
2.326,-299.500,-290.500,-299.000,-341.000
2.327,-300.000,-291.500,-300.000,-341.500
2.328,-300.500,-292.500,-300.500,-342.000
2.329,-301.000,-293.000,-301.000,-342.000
2.330,-302.000,-293.500,-301.500,-342.000
2.331,-303.500,-295.000,-302.500,-343.000
2.332,-305.500,-297.000,-304.000,-344.500
2.333,-307.500,-299.000,-306.000,-346.000
2.334,-310.000,-301.000,-308.000,-347.500
2.335,-312.000,-303.000,-309.500,-349.000
2.336,-313.000,-303.500,-310.000,-349.000
2.337,-312.500,-303.500,-309.000,-348.000
2.338,-311.000,-301.500,-307.000,-345.500
2.339,-308.000,-299.000,-304.000,-343.000
2.340,-306.500,-297.500,-302.500,-341.000
2.341,-307.000,-299.000,-304.000,-343.000
2.342,-310.500,-303.000,-308.000,-347.500
2.343,-315.500,-308.000,-313.500,-353.000
2.344,-320.000,-312.500,-318.500,-358.000
2.345,-323.000,-315.000,-321.500,-361.500
2.346,-324.000,-316.000,-322.500,-363.000
2.347,-324.000,-316.000,-322.500,-363.500
2.348,-323.500,-315.500,-322.000,-363.500
2.349,-323.000,-314.500,-321.000,-363.000
2.350,-322.000,-313.500,-319.500,-361.500
2.351,-320.000,-311.500,-317.000,-359.000
2.352,-317.500,-309.500,-314.000,-356.000
2.353,-316.000,-307.500,-311.000,-353.500
2.354,-315.000,-307.000,-309.500,-351.500
2.355,-315.500,-307.500,-309.500,-351.000
2.356,-317.000,-309.000,-310.500,-352.000
2.357,-318.500,-310.500,-312.000,-353.000
2.358,-319.500,-311.500,-313.000,-353.000
2.359,-318.000,-310.500,-312.000,-351.500
2.360,-315.500,-307.500,-309.000,-349.000
2.361,-311.500,-304.000,-305.500,-345.000
2.362,-307.000,-299.500,-301.500,-341.500
2.363,-302.500,-294.500,-297.000,-337.000
2.364,-297.500,-289.500,-293.000,-333.000
2.365,-293.000,-285.000,-289.500,-329.500
2.366,-289.500,-281.500,-286.500,-327.000
2.367,-287.000,-279.000,-284.000,-325.000
2.368,-285.500,-277.500,-282.000,-323.500
2.369,-285.000,-277.000,-281.500,-323.000
2.370,-286.500,-278.000,-282.500,-324.500
2.371,-289.500,-281.000,-285.000,-327.500
2.372,-294.500,-285.500,-289.500,-332.500
2.373,-301.000,-292.000,-295.500,-339.000
2.374,-309.500,-300.500,-304.000,-347.500
2.375,-319.500,-310.000,-313.500,-357.000
2.376,-329.000,-319.500,-322.500,-365.500
2.377,-336.000,-326.000,-328.500,-372.000
2.378,-339.500,-329.500,-331.500,-374.500
2.379,-339.000,-329.000,-331.000,-373.500
2.380,-335.500,-326.000,-327.500,-370.000
2.381,-331.000,-321.500,-324.000,-366.000
2.382,-327.000,-318.000,-321.000,-363.000
2.383,-324.500,-316.500,-319.500,-361.500
2.384,-323.000,-315.500,-319.500,-361.500
2.385,-322.000,-315.000,-318.500,-361.000
2.386,-320.000,-313.500,-317.000,-359.500
2.387,-317.000,-310.500,-314.000,-357.000
2.388,-313.500,-307.500,-310.500,-353.500
2.389,-311.500,-306.000,-308.500,-351.500
2.390,-311.000,-306.500,-308.000,-351.000
2.391,-312.500,-308.500,-309.500,-352.500
2.392,-313.500,-310.500,-310.000,-353.000
2.393,-312.500,-309.500,-309.000,-352.000
2.394,-309.500,-306.500,-306.000,-348.500
2.395,-305.500,-302.500,-301.500,-344.000
2.396,-302.000,-298.500,-297.500,-340.000
2.397,-299.000,-294.500,-293.500,-336.000
2.398,-295.500,-290.000,-289.500,-332.500
2.399,-292.000,-286.000,-285.500,-329.000
2.400,-290.000,-283.000,-282.500,-326.500
2.401,-289.500,-281.500,-281.500,-326.000
2.402,-290.000,-282.000,-281.500,-326.500
2.403,-291.000,-282.500,-282.500,-327.500
2.404,-291.000,-282.500,-282.500,-328.000
2.405,-289.500,-281.500,-282.000,-327.500
2.406,-287.500,-279.500,-280.000,-326.000
2.407,-285.000,-277.500,-278.000,-324.000
2.408,-283.000,-275.500,-276.000,-322.500
2.409,-281.500,-274.500,-275.500,-322.000
2.410,-282.500,-275.500,-277.000,-323.000
2.411,-284.500,-278.500,-280.000,-326.000
2.412,-287.500,-281.500,-283.500,-329.000
2.413,-289.000,-283.500,-285.500,-330.500
2.414,-288.500,-282.500,-284.500,-329.000
2.415,-285.000,-279.000,-280.500,-324.500
2.416,-278.500,-272.000,-274.000,-317.500
2.417,-271.500,-265.000,-266.500,-310.000
2.418,-266.000,-259.000,-261.000,-304.500
2.419,-263.000,-256.500,-258.500,-302.000
2.420,-261.000,-255.000,-257.000,-300.500
2.421,-258.500,-252.500,-254.500,-297.500
2.422,-254.500,-249.000,-250.500,-293.500
2.423,-250.500,-244.500,-246.000,-289.000
2.424,-247.500,-242.000,-243.000,-286.000
2.425,-248.000,-242.000,-243.000,-286.000
2.426,-251.500,-245.500,-246.000,-289.500
2.427,-258.500,-252.000,-252.000,-296.000
2.428,-267.500,-261.000,-260.500,-305.000
2.429,-277.500,-271.000,-270.500,-315.000
2.430,-287.000,-280.000,-280.000,-324.500
2.431,-294.000,-287.500,-287.000,-331.500
2.432,-298.500,-291.500,-291.500,-336.000
2.433,-300.500,-293.500,-293.000,-338.000
2.434,-300.000,-293.000,-292.500,-337.000
2.435,-298.000,-290.500,-289.500,-334.000
2.436,-293.500,-285.500,-284.500,-329.000
2.437,-286.500,-278.500,-277.500,-321.500
2.438,-278.000,-269.500,-268.500,-312.500
2.439,-268.500,-260.000,-259.500,-303.000
2.440,-260.000,-251.500,-251.500,-295.000
2.441,-255.500,-247.000,-247.500,-291.500
2.442,-257.500,-249.000,-249.500,-294.000
2.443,-265.000,-257.000,-257.500,-302.000
2.444,-275.000,-267.500,-268.000,-313.000
2.445,-284.500,-277.000,-277.500,-323.000
2.446,-290.500,-284.000,-284.000,-330.000
2.447,-293.500,-287.000,-287.000,-333.500
2.448,-294.000,-288.000,-288.000,-335.000
2.449,-293.000,-287.500,-287.500,-334.500
2.450,-292.000,-286.500,-287.000,-333.500
2.451,-290.000,-285.000,-285.500,-332.000
2.452,-288.500,-283.500,-284.500,-330.000
2.453,-288.500,-283.000,-284.000,-329.000
2.454,-289.500,-284.000,-284.000,-329.500
2.455,-291.500,-285.500,-285.000,-330.000
2.456,-292.500,-286.000,-285.500,-330.000
2.457,-291.500,-285.000,-283.500,-328.000
2.458,-288.000,-281.500,-279.500,-324.000
2.459,-283.500,-277.000,-274.500,-318.500
2.460,-279.000,-272.500,-269.000,-313.000
2.461,-276.500,-269.000,-265.500,-309.500
2.462,-276.000,-268.500,-265.000,-309.000
2.463,-278.000,-270.500,-266.500,-311.000
2.464,-281.000,-273.500,-270.000,-314.500
2.465,-285.000,-277.000,-274.000,-319.000
2.466,-288.500,-281.000,-278.000,-323.500
2.467,-292.000,-284.500,-282.000,-327.500
2.468,-294.500,-287.500,-285.000,-330.500
2.469,-295.000,-288.500,-286.500,-332.000
2.470,-294.500,-288.500,-287.000,-332.500
2.471,-294.500,-289.000,-287.500,-333.000
2.472,-295.500,-290.500,-289.500,-334.500
2.473,-298.500,-294.000,-293.000,-337.500
2.474,-303.000,-298.000,-297.000,-341.500
2.475,-307.500,-302.500,-301.500,-346.000
2.476,-312.000,-306.500,-305.500,-350.000
2.477,-315.500,-310.000,-308.500,-353.500
2.478,-319.000,-313.500,-311.500,-356.500
2.479,-322.500,-316.500,-314.500,-359.500
2.480,-325.500,-319.000,-316.500,-362.000
2.481,-328.000,-321.000,-318.500,-364.000
2.482,-329.000,-322.000,-319.500,-365.000
2.483,-328.500,-321.500,-319.500,-365.000
2.484,-327.000,-321.000,-318.500,-364.500
2.485,-325.500,-319.500,-317.500,-363.500
2.486,-323.500,-318.000,-316.000,-362.500
2.487,-322.000,-316.500,-314.000,-361.000
2.488,-319.500,-314.000,-312.000,-358.500
2.489,-317.500,-312.000,-309.500,-357.000
2.490,-317.000,-311.000,-308.500,-356.000
2.491,-317.500,-312.000,-309.500,-357.000
2.492,-320.500,-314.500,-312.000,-360.000
2.493,-323.500,-318.000,-315.500,-363.000
2.494,-327.000,-321.500,-319.000,-366.500
2.495,-330.000,-324.500,-322.000,-369.500
2.496,-331.500,-326.500,-324.000,-371.000
2.497,-331.000,-326.000,-323.500,-370.500
2.498,-328.500,-323.500,-320.500,-367.000
2.499,-325.500,-320.000,-317.000,-363.000
2.500,-322.500,-317.000,-314.000,-359.500
2.501,-321.000,-315.500,-312.000,-358.000
2.502,-322.000,-316.000,-313.000,-358.500
2.503,-325.000,-319.000,-316.000,-362.000
2.504,-330.000,-324.500,-321.500,-367.500
2.505,-336.000,-330.500,-327.000,-374.000
2.506,-340.500,-335.500,-331.000,-378.500
2.507,-342.000,-337.500,-332.500,-380.500
2.508,-341.500,-337.000,-332.000,-380.000
2.509,-340.000,-336.000,-330.500,-379.000
2.510,-338.500,-335.000,-329.500,-378.000
2.511,-338.500,-334.500,-329.500,-378.000
2.512,-339.500,-335.000,-330.000,-379.000
2.513,-340.500,-335.500,-330.500,-379.500
2.514,-341.000,-335.500,-331.000,-379.500
2.515,-341.000,-335.000,-330.500,-379.000
2.516,-340.500,-334.000,-330.000,-378.000
2.517,-340.500,-333.500,-329.500,-377.500
2.518,-340.500,-333.500,-330.000,-377.500
2.519,-341.500,-334.000,-331.500,-379.000
2.520,-343.000,-335.500,-333.500,-381.000
2.521,-344.000,-337.000,-335.000,-382.500
2.522,-343.000,-337.000,-335.500,-383.000
2.523,-340.000,-334.500,-333.000,-381.000
2.524,-334.000,-329.500,-328.000,-376.000
2.525,-325.500,-321.500,-320.000,-368.000
2.526,-314.500,-311.000,-309.500,-357.500
2.527,-302.000,-298.000,-296.500,-344.500
2.528,-287.500,-283.500,-281.500,-329.500
2.529,-272.500,-268.000,-265.000,-313.500
2.530,-256.000,-251.500,-248.000,-296.000
2.531,-238.500,-233.500,-229.000,-277.500
2.532,-219.500,-214.000,-208.500,-256.500
2.533,-198.000,-192.000,-186.000,-233.500
2.534,-174.500,-167.500,-161.000,-208.000
2.535,-148.000,-140.500,-133.000,-179.500
2.536,-117.000,-109.500,-100.000,-146.000
2.537,-80.500,-72.500,-62.000,-107.000
2.538,-38.000,-29.000,-17.500,-61.500
2.539,10.000,19.500,32.000,-11.500
2.540,61.000,71.500,85.000,42.000
2.541,113.500,124.000,138.000,96.000
2.542,164.500,175.500,190.500,148.000
2.543,213.500,225.000,240.000,197.500
2.544,259.500,271.000,286.000,244.000
2.545,301.000,312.500,328.000,286.000
2.546,337.000,349.000,364.500,322.500
2.547,366.000,378.500,394.500,352.500
2.548,386.500,399.000,415.000,373.000
2.549,396.000,408.000,424.000,382.000
2.550,391.500,403.500,419.000,376.500
2.551,373.000,384.000,399.000,357.000
2.552,340.500,351.000,366.000,323.000
2.553,296.500,306.000,320.500,277.000
2.554,242.500,252.000,266.000,222.000
2.555,184.000,193.500,207.000,162.500
2.556,126.000,135.000,148.000,103.500
2.557,71.000,80.000,92.500,47.500
2.558,20.500,29.500,40.500,-4.500
2.559,-26.500,-18.000,-7.500,-52.500
2.560,-69.500,-61.500,-52.000,-97.000
2.561,-107.500,-100.000,-91.500,-137.000
2.562,-140.500,-133.500,-125.500,-171.000
2.563,-167.500,-161.000,-153.500,-199.500
2.564,-189.500,-183.000,-176.000,-223.000
2.565,-207.000,-201.000,-194.000,-241.500
2.566,-221.500,-216.000,-209.000,-257.000
2.567,-234.500,-229.000,-222.000,-270.500
2.568,-247.500,-242.500,-235.000,-283.500
2.569,-260.000,-255.500,-247.500,-296.500
2.570,-272.500,-268.000,-259.500,-308.500
2.571,-282.000,-278.000,-269.000,-318.000
2.572,-289.000,-285.000,-276.000,-325.000
2.573,-292.000,-289.000,-279.500,-329.000
2.574,-293.000,-289.500,-281.000,-330.000
2.575,-291.500,-288.500,-280.000,-329.500
2.576,-289.000,-286.000,-277.500,-327.000
2.577,-286.000,-283.000,-274.500,-324.000
2.578,-283.500,-280.000,-271.500,-321.500
2.579,-281.000,-277.500,-269.000,-319.000
2.580,-278.000,-274.500,-266.500,-316.500
2.581,-275.500,-272.000,-264.000,-314.500
2.582,-273.000,-270.000,-262.500,-313.000
2.583,-272.000,-269.500,-262.000,-312.500
2.584,-272.500,-271.000,-263.500,-314.000
2.585,-274.500,-273.000,-265.500,-316.000
2.586,-276.500,-275.500,-268.500,-318.500
2.587,-279.000,-278.000,-271.000,-321.000
2.588,-281.500,-280.500,-273.000,-323.500
2.589,-283.000,-282.500,-275.000,-325.000
2.590,-285.000,-285.000,-276.500,-326.500
2.591,-288.000,-288.000,-279.500,-329.000
2.592,-292.000,-292.000,-283.000,-332.500
2.593,-296.500,-297.000,-287.000,-336.500
2.594,-300.500,-300.500,-290.500,-339.500
2.595,-302.000,-302.500,-291.500,-341.000
2.596,-301.000,-301.000,-290.500,-339.000
2.597,-298.500,-297.500,-287.000,-336.000
2.598,-296.000,-294.000,-284.000,-333.000
2.599,-295.000,-292.500,-283.000,-331.500
2.600,-296.000,-292.500,-283.500,-332.500
2.601,-298.000,-294.500,-286.000,-335.000
2.602,-300.500,-297.000,-288.500,-337.500
2.603,-303.000,-299.500,-291.000,-340.500
2.604,-305.500,-302.000,-293.500,-343.000
2.605,-308.500,-305.000,-296.000,-346.500
2.606,-311.000,-308.000,-299.000,-349.500
2.607,-312.000,-310.000,-300.500,-351.500
2.608,-311.500,-310.000,-299.500,-351.500
2.609,-309.000,-307.500,-297.000,-349.500
2.610,-305.500,-305.000,-293.500,-346.000
2.611,-302.500,-302.000,-290.000,-343.000
2.612,-300.000,-300.000,-287.000,-340.500
2.613,-299.000,-299.000,-285.500,-338.500
2.614,-298.500,-298.000,-285.000,-337.500
2.615,-298.500,-298.000,-284.500,-337.000
2.616,-298.500,-297.500,-284.500,-337.000
2.617,-299.000,-297.500,-285.000,-337.000
2.618,-300.500,-298.500,-286.500,-338.000
2.619,-302.500,-300.000,-289.000,-340.000
2.620,-304.500,-302.000,-291.500,-342.000
2.621,-306.000,-303.500,-293.000,-343.500
2.622,-307.000,-304.000,-294.000,-344.500
2.623,-306.500,-304.000,-293.500,-344.500
2.624,-306.000,-303.500,-293.000,-344.500
2.625,-305.000,-303.000,-292.000,-344.000
2.626,-304.000,-302.500,-291.500,-343.500
2.627,-303.500,-303.000,-292.000,-344.000
2.628,-304.500,-304.500,-293.000,-345.500
2.629,-307.500,-307.000,-295.500,-348.000
2.630,-311.000,-310.500,-299.000,-351.500
2.631,-314.500,-314.000,-302.500,-354.000
2.632,-316.500,-315.500,-304.000,-355.500
2.633,-315.500,-314.500,-303.000,-354.000
2.634,-312.000,-310.500,-299.500,-350.000
2.635,-307.500,-306.000,-294.500,-345.000
2.636,-303.500,-302.000,-290.000,-341.000
2.637,-301.500,-299.500,-288.000,-338.500
2.638,-300.500,-298.000,-287.000,-337.500
2.639,-299.500,-297.000,-285.500,-336.500
2.640,-297.000,-294.500,-283.000,-334.000
2.641,-293.500,-291.500,-279.500,-330.500
2.642,-290.000,-288.500,-277.000,-328.000
2.643,-288.500,-287.500,-276.500,-327.000
2.644,-289.500,-289.000,-278.000,-329.000
2.645,-292.500,-293.000,-281.500,-332.500
2.646,-297.000,-298.000,-286.500,-337.000
2.647,-302.000,-303.000,-291.000,-342.000
2.648,-305.500,-307.000,-294.500,-345.500
2.649,-307.000,-308.500,-295.500,-347.000
2.650,-306.500,-308.000,-294.000,-346.000
2.651,-304.000,-305.500,-291.500,-343.500
2.652,-301.500,-303.000,-288.500,-341.000
2.653,-300.000,-301.000,-286.500,-339.000
2.654,-300.500,-301.500,-286.500,-339.000
2.655,-303.500,-304.000,-288.500,-341.000
2.656,-307.000,-307.000,-291.500,-344.000
2.657,-309.500,-309.000,-293.500,-345.500
2.658,-310.000,-309.000,-293.000,-345.000
2.659,-308.000,-306.500,-290.500,-342.000
2.660,-303.500,-302.000,-286.000,-337.000
2.661,-298.000,-296.000,-280.000,-331.500
2.662,-292.500,-290.000,-274.000,-325.500
2.663,-287.000,-284.500,-269.000,-320.500
2.664,-282.000,-280.000,-264.500,-316.000
2.665,-277.500,-276.000,-260.500,-312.000
2.666,-274.000,-273.000,-257.500,-309.500
2.667,-273.000,-272.000,-257.000,-309.000
2.668,-275.000,-274.500,-260.000,-312.000
2.669,-280.000,-280.000,-265.500,-318.000
2.670,-285.500,-285.500,-271.500,-324.500
2.671,-289.500,-290.000,-276.000,-328.500
2.672,-289.500,-290.500,-276.500,-329.500
2.673,-286.500,-287.500,-273.500,-326.500
2.674,-281.500,-282.500,-268.000,-321.000
2.675,-275.500,-276.500,-262.000,-315.000
2.676,-270.500,-271.500,-257.000,-309.500
2.677,-269.000,-269.500,-255.000,-307.000
2.678,-271.500,-272.000,-257.500,-309.000
2.679,-277.500,-278.000,-263.500,-314.500
2.680,-285.000,-285.500,-271.500,-322.000
2.681,-291.000,-291.500,-278.000,-328.000
2.682,-293.000,-294.000,-280.500,-330.000
2.683,-291.500,-293.000,-280.000,-329.000
2.684,-289.000,-291.000,-278.000,-327.000
2.685,-288.000,-290.000,-276.500,-326.000
2.686,-288.500,-290.500,-277.000,-326.500
2.687,-289.500,-291.500,-277.500,-327.000
2.688,-290.000,-292.000,-277.500,-327.000
2.689,-288.500,-291.000,-276.500,-326.000
2.690,-286.500,-289.000,-274.500,-324.000
2.691,-283.000,-286.000,-272.000,-321.000
2.692,-279.500,-282.500,-269.000,-318.000
2.693,-277.000,-280.000,-266.000,-315.500
2.694,-275.500,-278.000,-264.000,-313.000
2.695,-274.500,-277.000,-262.500,-311.500
2.696,-274.500,-276.000,-261.500,-310.500
2.697,-274.500,-275.500,-260.500,-309.500
2.698,-275.000,-275.500,-260.000,-309.000
2.699,-275.500,-275.500,-259.500,-309.000
2.700,-276.000,-275.500,-259.000,-308.000
2.701,-275.000,-274.500,-258.000,-307.500
2.702,-274.000,-273.500,-256.500,-306.000
2.703,-272.500,-272.500,-255.000,-304.500
2.704,-271.000,-271.000,-253.500,-303.500
2.705,-269.500,-270.000,-252.500,-303.000
2.706,-269.000,-270.000,-253.000,-303.000
2.707,-268.500,-270.000,-253.500,-303.500
2.708,-267.000,-269.000,-253.000,-303.000
2.709,-263.500,-266.000,-250.500,-300.500
2.710,-259.500,-262.000,-247.000,-296.500
2.711,-256.000,-258.500,-244.000,-293.500
2.712,-255.500,-257.500,-243.500,-292.500
2.713,-258.000,-260.000,-245.500,-294.500
2.714,-262.500,-263.500,-249.000,-298.000
2.715,-265.000,-266.000,-251.000,-299.500
2.716,-265.000,-266.000,-250.500,-299.000
2.717,-263.000,-263.500,-248.000,-296.000
2.718,-260.000,-260.500,-245.500,-293.000
2.719,-258.500,-259.000,-243.500,-290.500
2.720,-259.000,-259.000,-243.500,-290.500
2.721,-261.000,-261.000,-245.500,-292.500
2.722,-263.000,-263.000,-247.500,-294.500
2.723,-264.500,-264.500,-248.500,-296.000
2.724,-264.000,-264.500,-248.500,-296.000
2.725,-262.500,-264.000,-247.500,-295.500
2.726,-261.500,-263.500,-246.500,-295.000
2.727,-261.000,-263.500,-246.000,-295.000
2.728,-259.500,-263.500,-245.000,-294.500
2.729,-257.000,-262.000,-242.500,-292.500
2.730,-253.000,-258.500,-238.500,-288.500
2.731,-248.000,-254.500,-233.500,-283.500
2.732,-244.000,-250.500,-229.000,-278.500
2.733,-240.500,-246.500,-226.000,-275.000
2.734,-237.500,-243.500,-223.000,-271.500
2.735,-234.500,-240.000,-220.000,-268.000
2.736,-230.500,-235.000,-215.500,-263.500
2.737,-225.000,-229.000,-210.500,-258.000
2.738,-219.500,-222.500,-204.500,-252.000
2.739,-215.000,-217.000,-199.500,-247.500
2.740,-213.000,-215.000,-198.000,-246.000
2.741,-215.000,-217.500,-200.500,-248.500
2.742,-221.000,-223.500,-207.000,-255.500
2.743,-227.500,-230.500,-214.500,-263.000
2.744,-232.500,-236.000,-220.500,-268.500
2.745,-234.000,-238.500,-223.000,-271.000
2.746,-232.500,-238.000,-222.500,-270.500
2.747,-228.500,-235.000,-219.000,-267.000
2.748,-222.500,-229.000,-212.500,-261.000
2.749,-216.000,-222.000,-205.500,-253.500
2.750,-210.000,-216.500,-199.000,-247.500
2.751,-206.500,-212.500,-194.500,-243.000
2.752,-205.500,-210.500,-192.500,-240.500
2.753,-205.500,-210.500,-192.000,-240.000
2.754,-207.500,-211.000,-192.500,-240.500
2.755,-209.500,-212.000,-193.500,-241.500
2.756,-210.500,-212.500,-194.000,-242.000
2.757,-210.500,-211.000,-192.500,-241.000
2.758,-208.500,-209.000,-190.500,-238.500
2.759,-205.500,-206.000,-187.500,-235.000
2.760,-202.000,-203.000,-184.000,-231.500
2.761,-198.500,-199.000,-180.000,-228.000
2.762,-194.000,-195.000,-175.500,-223.500
2.763,-189.000,-190.500,-171.000,-219.000
2.764,-184.000,-186.500,-166.500,-215.000
2.765,-180.500,-183.000,-163.500,-212.500
2.766,-178.000,-181.000,-161.500,-211.000
2.767,-176.000,-179.500,-160.500,-210.000
2.768,-174.500,-178.000,-159.500,-209.000
2.769,-172.000,-176.000,-158.500,-208.000
2.770,-169.500,-173.500,-157.000,-206.500
2.771,-166.000,-170.500,-154.500,-204.000
2.772,-162.500,-167.500,-151.500,-201.000
2.773,-158.500,-163.500,-148.000,-197.000
2.774,-154.500,-159.500,-144.000,-192.500
2.775,-150.500,-155.000,-139.000,-187.500
2.776,-146.000,-150.000,-133.500,-181.500
2.777,-141.000,-144.000,-127.000,-175.000
2.778,-135.500,-138.000,-120.500,-168.000
2.779,-130.500,-132.500,-114.500,-161.500
2.780,-125.500,-127.500,-109.000,-156.500
2.781,-122.000,-123.500,-105.000,-152.000
2.782,-119.000,-120.500,-102.000,-149.000
2.783,-117.000,-118.000,-99.500,-147.000
2.784,-114.500,-116.000,-97.000,-144.500
2.785,-111.500,-113.000,-94.000,-141.500
2.786,-106.500,-108.500,-89.500,-137.500
2.787,-101.000,-103.000,-84.500,-132.000
2.788,-95.500,-98.000,-79.500,-127.000
2.789,-91.500,-94.500,-76.500,-124.000
2.790,-91.000,-94.000,-76.000,-124.000
2.791,-94.000,-97.000,-79.000,-127.000
2.792,-99.500,-102.000,-83.500,-132.000
2.793,-105.000,-107.500,-88.500,-136.500
2.794,-109.000,-111.500,-92.500,-140.000
2.795,-110.500,-113.000,-94.000,-141.000
2.796,-109.500,-111.500,-93.500,-139.500
2.797,-106.000,-108.000,-90.000,-136.000
2.798,-100.000,-102.000,-84.500,-130.000
2.799,-93.000,-94.500,-77.000,-122.500
2.800,-86.000,-87.000,-70.000,-115.000
2.801,-79.000,-80.000,-63.000,-108.000
2.802,-72.500,-74.000,-56.500,-102.000
2.803,-67.500,-69.000,-51.500,-97.000
2.804,-63.000,-65.500,-47.500,-93.500
2.805,-60.500,-63.000,-45.000,-91.500
2.806,-60.000,-63.000,-45.000,-91.000
2.807,-61.500,-64.500,-46.000,-93.000
2.808,-63.500,-67.000,-48.500,-95.500
2.809,-65.000,-69.000,-50.000,-97.500
2.810,-65.500,-69.500,-50.500,-98.000
2.811,-65.000,-69.000,-50.000,-98.000
2.812,-65.000,-69.000,-50.500,-98.000
2.813,-67.000,-70.500,-52.500,-100.000
2.814,-70.500,-74.000,-55.500,-103.500
2.815,-75.000,-77.500,-59.500,-107.500
2.816,-78.500,-81.000,-62.500,-110.000
2.817,-81.500,-83.000,-64.500,-112.000
2.818,-83.000,-84.500,-65.500,-113.000
2.819,-85.500,-86.000,-67.500,-115.000
2.820,-88.000,-89.000,-70.500,-118.000
2.821,-91.500,-92.500,-74.500,-122.500
2.822,-95.000,-96.500,-79.000,-127.000
2.823,-98.000,-100.500,-83.500,-131.500
2.824,-101.000,-104.000,-87.500,-136.000
2.825,-103.500,-107.500,-91.500,-140.000
2.826,-106.000,-110.500,-95.000,-144.000
2.827,-109.000,-113.500,-98.500,-147.500
2.828,-111.000,-116.500,-101.500,-151.000
2.829,-113.000,-119.000,-104.500,-154.000
2.830,-115.000,-121.000,-106.500,-156.000
2.831,-116.000,-122.500,-108.000,-157.500
2.832,-118.000,-123.500,-109.500,-158.500
2.833,-119.500,-125.000,-110.500,-159.500
2.834,-122.500,-127.000,-112.000,-161.000
2.835,-126.000,-130.500,-114.500,-163.000
2.836,-132.000,-135.500,-120.000,-168.000
2.837,-140.500,-143.500,-127.500,-175.500
2.838,-151.500,-153.500,-138.000,-186.000
2.839,-163.500,-164.500,-150.000,-198.000
2.840,-174.500,-175.500,-161.500,-209.500
2.841,-184.000,-185.000,-171.500,-219.500
2.842,-191.500,-193.000,-180.000,-228.000
2.843,-197.500,-199.000,-186.000,-234.000
2.844,-201.500,-203.500,-190.500,-239.000
2.845,-204.000,-207.000,-193.500,-242.000
2.846,-205.500,-208.500,-195.000,-243.500
2.847,-205.000,-209.500,-195.000,-244.000
2.848,-204.500,-209.500,-194.500,-244.000
2.849,-206.000,-211.000,-196.000,-245.500
2.850,-210.000,-215.500,-200.500,-249.500
2.851,-217.000,-223.000,-208.000,-257.000
2.852,-226.500,-232.500,-217.500,-267.000
2.853,-237.000,-243.000,-229.000,-278.000
2.854,-247.000,-253.000,-239.500,-288.500
2.855,-255.000,-261.000,-248.000,-297.000
2.856,-260.000,-266.500,-253.500,-302.000
2.857,-262.000,-268.000,-256.000,-303.500
2.858,-262.000,-267.500,-255.500,-303.000
2.859,-261.000,-266.500,-255.000,-301.500
2.860,-262.000,-266.500,-255.500,-301.500
2.861,-265.000,-269.000,-258.500,-304.000
2.862,-270.000,-274.000,-263.500,-309.000
2.863,-275.500,-280.000,-270.000,-315.000
2.864,-280.500,-285.000,-275.500,-320.000
2.865,-282.500,-288.000,-278.500,-323.500
2.866,-282.000,-287.500,-278.500,-323.500
2.867,-279.500,-285.500,-276.500,-322.000
2.868,-276.000,-282.000,-273.000,-319.000
2.869,-273.000,-279.500,-270.000,-316.500
2.870,-272.000,-278.500,-269.000,-315.500
2.871,-273.000,-279.000,-270.000,-316.500
