'Elapsed time','AECG1','AECG2','AECG3','AECG4'
'seconds','uV','uV','uV','uV'
0.000,-55.500,254.000,486.500,432.000
0.001,-54.500,254.500,485.500,431.500
0.002,-54.000,255.000,485.500,432.000
0.003,-53.500,255.000,485.000,431.500
0.004,-52.500,255.000,485.500,432.000
0.005,-51.500,254.500,485.000,431.000
0.006,-51.000,254.500,485.500,431.500
0.007,-50.000,253.500,485.500,430.500
0.008,-49.500,254.000,486.000,430.500
0.009,-49.000,253.500,485.500,430.000
0.010,-48.500,254.000,486.500,430.500
0.011,-48.000,253.500,486.000,429.500
0.012,-48.000,254.000,486.500,430.000
0.013,-47.500,253.500,485.500,429.500
0.014,-47.000,254.000,486.000,430.000
0.015,-46.000,253.500,485.000,429.000
0.016,-45.500,254.000,485.000,429.000
0.017,-44.000,254.000,483.500,428.000
0.018,-42.500,254.500,483.500,428.500
0.019,-41.000,255.000,482.000,428.000
0.020,-39.500,255.500,482.000,428.500
0.021,-38.500,255.500,481.000,428.500
0.022,-37.500,256.000,481.500,430.000
0.023,-37.000,256.000,480.500,430.000
0.024,-36.500,256.500,481.000,430.500
0.025,-35.500,256.000,480.000,430.000
0.026,-35.000,256.500,480.000,430.500
0.027,-34.000,256.000,479.000,429.000
0.028,-33.500,256.500,479.000,429.000
0.029,-32.500,255.500,477.000,427.000
0.030,-32.000,255.500,476.500,426.000
0.031,-31.500,254.500,475.000,424.000
0.032,-31.500,254.500,474.500,423.000
0.033,-31.000,253.000,473.500,421.500
0.034,-30.500,253.000,473.500,421.000
0.035,-29.500,252.000,472.500,419.500
0.036,-29.000,251.500,473.000,419.000
0.037,-28.000,250.500,472.000,417.500
0.038,-27.000,250.500,472.500,417.500
0.039,-25.500,249.500,472.000,416.000
0.040,-25.000,250.000,472.500,416.500
0.041,-23.500,250.000,471.500,415.500
0.042,-22.500,250.500,472.500,416.000
0.043,-21.000,251.000,472.500,415.500
0.044,-20.000,252.000,474.500,416.500
0.045,-18.500,252.000,475.000,416.500
0.046,-17.000,252.500,476.500,417.000
0.047,-15.500,252.000,476.500,416.000
0.048,-14.500,252.000,477.000,416.000
0.049,-13.500,251.500,476.500,414.500
0.050,-13.000,251.000,476.500,414.500
0.051,-12.500,250.000,475.500,413.000
0.052,-11.500,250.000,475.500,413.000
0.053,-10.500,249.000,474.500,411.500
0.054,-10.000,249.000,474.500,411.500
0.055,-9.000,247.500,473.000,410.000
0.056,-7.500,247.000,473.000,410.500
0.057,-6.000,245.500,471.500,409.500
0.058,-4.000,244.500,472.000,409.500
0.059,-2.000,243.000,471.000,408.500
0.060,-0.500,242.000,471.000,408.500
0.061,1.500,240.500,470.000,407.500
0.062,3.500,240.000,470.000,407.500
0.063,5.000,238.500,469.500,406.500
0.064,6.500,238.500,470.000,406.500
0.065,7.500,238.000,469.000,405.500
0.066,8.500,238.500,469.000,406.000
0.067,9.500,238.000,468.000,404.500
0.068,11.000,238.500,468.000,404.500
0.069,12.500,238.000,466.500,403.000
0.070,14.000,238.500,466.000,402.000
0.071,15.500,237.500,465.000,400.500
0.072,17.000,237.000,465.000,400.000
0.073,18.000,236.000,464.500,398.500
0.074,20.000,235.000,465.000,398.500
0.075,21.000,233.500,464.500,397.500
0.076,22.500,233.500,464.500,397.500
0.077,24.000,232.500,463.500,396.500
0.078,25.500,233.000,463.500,396.500
0.079,27.000,232.500,462.500,395.500
0.080,28.000,232.500,462.500,396.000
0.081,29.000,232.000,461.500,395.000
0.082,30.000,232.500,462.000,395.000
0.083,31.000,232.000,462.000,394.500
0.084,32.000,232.500,463.500,395.000
0.085,33.000,232.000,464.000,395.000
0.086,34.000,232.500,466.000,396.000
0.087,34.500,232.500,466.000,396.000
0.088,35.000,233.000,467.500,397.000
0.089,35.500,233.000,467.000,396.500
0.090,35.500,233.500,467.500,397.000
0.091,35.500,233.000,466.000,395.500
0.092,36.000,233.000,466.000,395.000
0.093,36.000,232.000,464.500,393.000
0.094,37.000,232.000,464.500,392.500
0.095,38.000,231.000,463.500,391.000
0.096,39.000,231.500,463.500,391.000
0.097,40.000,231.000,463.000,389.500
0.098,41.500,231.500,463.000,389.500
0.099,42.500,231.500,462.500,388.500
0.100,44.000,232.500,462.500,389.000
0.101,45.500,232.500,461.000,388.000
0.102,47.000,233.500,460.500,388.000
0.103,48.500,233.000,459.000,387.000
0.104,50.000,234.000,458.500,387.000
0.105,51.500,234.000,457.000,386.000
0.106,53.000,234.500,456.500,386.000
0.107,54.500,234.500,455.500,385.000
0.108,55.500,235.500,456.000,385.000
0.109,56.500,236.000,455.500,384.000
0.110,57.500,236.500,456.000,383.500
0.111,58.000,236.500,455.500,381.500
0.112,59.000,237.500,455.500,380.500
0.113,60.000,237.500,454.500,378.000
0.114,61.000,238.500,454.500,377.000
0.115,62.000,238.500,453.500,375.500
0.116,63.000,239.500,454.000,375.000
0.117,64.000,239.500,453.000,374.000
0.118,65.000,240.000,453.000,374.500
0.119,66.000,239.500,451.500,374.000
0.120,67.000,239.500,451.500,375.000
0.121,67.500,238.500,450.500,374.500
0.122,69.000,238.500,450.500,375.000
0.123,69.500,237.500,449.500,374.500
0.124,71.000,237.000,449.500,375.000
0.125,72.500,236.000,449.000,374.500
0.126,74.500,236.000,449.500,375.500
0.127,75.500,235.500,449.500,376.000
0.128,77.000,236.500,450.500,377.500
0.129,78.000,236.500,450.500,378.000
0.130,79.500,238.000,451.000,379.000
0.131,80.000,238.500,450.500,379.000
0.132,80.500,239.500,451.000,379.500
0.133,81.000,239.500,450.000,379.000
0.134,82.000,240.000,450.000,379.500
0.135,83.000,240.000,448.500,379.500
0.136,84.000,240.500,449.000,380.000
0.137,85.000,240.500,448.500,380.000
0.138,86.000,241.500,449.500,381.500
0.139,87.000,242.000,449.500,382.500
0.140,88.500,243.500,450.500,384.000
0.141,90.000,244.000,451.000,385.000
0.142,92.000,245.500,452.500,387.000
0.143,94.000,246.500,453.000,388.000
0.144,96.500,248.000,454.500,390.500
0.145,98.500,248.500,455.000,392.000
0.146,100.500,249.500,456.500,394.000
0.147,101.500,249.500,456.500,395.500
0.148,102.500,250.000,457.000,397.500
0.149,102.500,249.500,456.000,398.500
0.150,103.500,250.000,455.500,400.000
0.151,103.500,250.000,453.500,400.000
0.152,104.000,250.500,452.500,400.500
0.153,104.000,250.000,450.000,399.500
0.154,105.000,249.500,448.500,399.500
0.155,105.000,248.500,446.000,398.000
0.156,106.000,248.500,444.000,397.500
0.157,106.000,247.000,441.000,395.500
0.158,107.000,246.500,438.500,395.000
0.159,107.500,245.000,435.000,393.000
0.160,108.500,244.500,431.500,391.500
0.161,109.000,242.500,426.000,388.500
0.162,109.500,241.000,420.500,385.500
0.163,109.500,238.000,413.500,380.500
0.164,110.000,235.500,407.000,376.000
0.165,110.000,232.000,398.500,369.500
0.166,110.000,228.500,390.500,363.000
0.167,109.000,224.500,381.500,356.000
0.168,109.000,221.500,374.500,350.000
0.169,108.000,217.500,366.500,343.500
0.170,108.000,215.000,360.500,338.000
0.171,107.500,212.500,354.500,332.000
0.172,107.500,210.500,350.000,327.500
0.173,107.000,208.500,345.500,322.500
0.174,107.500,207.000,342.500,318.500
0.175,108.000,205.500,339.500,314.000
0.176,109.500,205.000,339.000,312.000
0.177,110.500,204.500,339.000,310.000
0.178,112.500,206.500,342.500,311.000
0.179,114.000,208.500,347.000,312.000
0.180,117.000,213.000,354.000,315.000
0.181,119.000,217.000,361.500,317.500
0.182,122.000,222.500,370.500,321.500
0.183,124.000,227.000,379.000,324.000
0.184,126.500,232.500,388.500,328.000
0.185,128.500,237.500,396.500,330.500
0.186,130.500,243.000,405.000,334.500
0.187,132.000,247.000,412.000,338.000
0.188,133.500,252.000,419.500,342.000
0.189,134.500,255.500,425.000,345.000
0.190,135.000,259.000,430.500,349.000
0.191,134.500,261.000,434.000,351.500
0.192,134.500,263.000,438.000,354.000
0.193,134.000,263.500,440.000,355.500
0.194,133.500,264.500,442.500,357.500
0.195,132.500,264.000,443.500,358.500
0.196,131.500,264.000,445.000,360.500
0.197,129.500,262.500,444.500,361.500
0.198,127.500,262.000,444.000,362.500
0.199,124.500,260.500,442.500,362.000
0.200,122.000,259.500,441.000,362.000
0.201,119.500,257.500,438.500,360.500
0.202,117.000,256.500,437.000,360.000
0.203,114.000,254.500,434.500,358.500
0.204,112.000,253.500,432.500,358.500
0.205,110.000,251.000,430.000,357.500
0.206,108.000,249.500,428.000,358.000
0.207,105.500,247.500,425.000,357.000
0.208,103.500,246.000,423.000,357.000
0.209,100.500,243.500,420.000,356.000
0.210,98.500,242.000,418.500,356.500
0.211,95.500,240.000,416.000,356.000
0.212,93.500,239.000,414.500,356.000
0.213,91.500,237.000,412.500,355.500
0.214,90.500,235.500,411.500,355.500
0.215,89.000,233.000,410.000,355.000
0.216,88.000,232.000,409.500,355.000
0.217,87.000,230.000,408.000,354.000
0.218,86.500,229.000,407.500,354.000
0.219,85.500,228.000,406.000,353.000
0.220,85.500,227.500,405.500,353.000
0.221,85.000,227.000,404.000,352.000
0.222,85.000,227.000,403.500,352.000
0.223,85.000,226.500,402.500,351.000
0.224,85.000,227.000,402.500,351.000
0.225,84.500,226.500,401.500,350.000
0.226,84.000,226.500,401.000,349.500
0.227,83.000,225.500,399.500,347.500
0.228,82.500,225.500,399.000,347.000
0.229,81.500,224.500,397.000,345.000
0.230,81.000,224.000,395.500,344.000
0.231,80.000,222.500,393.500,342.500
0.232,79.500,222.000,393.000,341.500
0.233,78.500,220.500,391.500,340.000
0.234,78.000,220.000,391.000,339.500
0.235,77.000,218.500,389.500,337.500
0.236,76.500,217.500,389.000,337.000
0.237,76.000,216.000,388.000,335.000
0.238,76.000,215.500,388.000,334.500
0.239,75.500,214.500,387.000,333.500
0.240,76.000,214.000,387.500,333.000
0.241,76.500,213.000,387.000,331.500
0.242,77.000,213.000,387.000,331.000
0.243,77.500,213.000,386.000,330.000
0.244,78.500,213.500,386.000,329.500
0.245,79.000,213.000,384.500,328.500
0.246,79.500,213.500,384.000,328.500
0.247,79.500,213.000,382.500,327.500
0.248,79.500,213.500,382.500,327.000
0.249,79.000,213.000,382.000,326.000
0.250,79.000,213.000,382.500,326.000
0.251,79.000,212.500,381.500,325.000
0.252,79.500,212.500,382.000,325.000
0.253,79.500,212.000,381.000,323.500
0.254,80.000,211.500,380.500,323.000
0.255,80.500,210.500,379.000,321.500
0.256,81.000,210.500,379.000,320.500
0.257,81.000,210.000,378.000,319.000
0.258,82.000,210.500,378.000,318.500
0.259,82.000,210.500,377.000,317.500
0.260,83.000,211.000,377.000,317.000
0.261,83.000,211.500,375.500,316.000
0.262,83.500,212.500,375.500,316.000
0.263,83.500,212.500,374.000,315.500
0.264,84.000,213.500,374.000,315.500
0.265,84.000,213.500,373.000,314.500
0.266,85.000,214.000,373.000,314.000
0.267,85.500,214.000,372.000,313.000
0.268,86.500,214.000,372.000,312.500
0.269,87.000,213.500,371.500,311.000
0.270,88.000,213.000,371.500,310.500
0.271,88.500,212.500,371.000,308.500
0.272,89.500,212.500,371.000,308.000
0.273,89.500,212.000,370.500,307.000
0.274,90.000,212.500,370.500,307.500
0.275,90.500,213.000,369.500,307.500
0.276,91.000,214.000,369.000,308.500
0.277,91.000,214.500,367.000,308.500
0.278,91.000,215.500,366.500,309.500
0.279,91.000,215.500,364.500,309.000
0.280,91.500,215.500,364.000,309.000
0.281,92.000,215.000,362.500,308.000
0.282,93.000,214.500,362.500,308.000
0.283,94.000,214.000,362.000,307.500
0.284,96.000,213.500,363.000,307.500
0.285,97.000,213.000,362.500,306.500
0.286,98.500,212.500,363.000,306.500
0.287,99.500,212.000,362.500,305.500
0.288,100.500,212.000,362.000,305.500
0.289,100.500,211.500,361.000,304.500
0.290,101.500,211.500,360.500,304.000
0.291,102.500,211.500,359.000,303.000
0.292,103.500,212.000,359.000,303.500
0.293,104.500,212.000,358.000,303.000
0.294,106.000,213.000,358.000,303.500
0.295,107.000,213.000,357.000,303.000
0.296,108.500,213.500,357.500,304.000
0.297,110.000,213.500,357.000,304.000
0.298,111.500,214.000,358.000,304.500
0.299,112.500,213.500,358.000,304.500
0.300,114.500,214.000,359.000,305.500
0.301,116.000,213.500,359.000,305.500
0.302,118.000,213.500,359.500,306.000
0.303,119.000,213.500,359.500,306.000
0.304,121.000,214.000,360.500,307.000
0.305,122.000,213.500,360.000,307.000
0.306,123.500,214.000,360.500,308.000
0.307,124.500,214.000,360.000,308.500
0.308,125.500,214.500,360.000,310.000
0.309,126.500,214.000,359.000,310.000
0.310,127.500,214.000,358.500,311.000
0.311,128.000,213.000,357.500,311.500
0.312,128.500,212.500,357.000,312.500
0.313,129.000,211.000,355.500,312.000
0.314,130.000,210.000,354.500,312.500
0.315,130.000,208.000,352.000,311.500
0.316,130.500,207.000,350.500,311.500
0.317,130.500,205.000,348.000,310.500
0.318,130.500,203.500,346.000,310.000
0.319,129.500,201.500,343.000,309.000
0.320,129.000,199.500,341.000,308.500
0.321,128.000,197.000,338.000,308.000
0.322,127.000,195.500,336.000,308.000
0.323,126.500,194.000,334.000,308.000
0.324,127.000,194.000,334.000,310.000
0.325,128.000,194.500,334.000,311.500
0.326,130.500,197.500,336.500,315.000
0.327,133.500,201.000,339.000,318.000
0.328,137.500,206.500,343.000,322.000
0.329,141.000,211.500,346.000,324.000
0.330,145.000,217.000,350.000,326.500
0.331,148.500,221.000,352.000,327.000
0.332,152.500,225.500,354.000,327.500
0.333,156.000,228.500,354.000,326.000
0.334,159.500,231.000,354.500,324.500
0.335,162.500,232.000,353.000,321.000
0.336,165.500,232.500,351.500,318.500
0.337,167.500,231.000,348.500,314.500
0.338,169.500,230.000,346.000,312.000
0.339,170.000,227.000,343.000,308.500
0.340,170.500,225.000,341.500,307.000
0.341,170.000,222.000,339.000,305.500
0.342,170.000,220.000,338.000,305.000
0.343,169.500,217.500,336.000,303.500
0.344,170.000,216.000,334.500,303.500
0.345,170.500,214.000,332.000,302.000
0.346,172.000,213.000,330.500,302.000
0.347,173.500,211.500,328.000,300.500
0.348,175.500,211.500,327.000,299.500
0.349,177.000,210.500,325.000,298.000
0.350,179.000,211.000,324.500,296.500
0.351,180.500,210.500,323.500,294.500
0.352,182.500,211.000,323.500,293.000
0.353,184.000,211.000,322.500,291.000
0.354,185.500,211.500,323.000,289.500
0.355,186.500,211.500,322.500,287.000
0.356,187.500,212.000,323.000,285.500
0.357,187.000,211.500,322.500,283.500
0.358,187.500,212.000,322.500,282.500
0.359,187.000,211.500,322.000,280.500
0.360,187.000,211.500,322.500,279.500
0.361,187.000,210.500,321.500,277.500
0.362,188.000,210.500,321.000,277.000
0.363,188.500,209.500,319.000,275.500
0.364,189.500,209.500,318.500,274.500
0.365,190.500,208.500,316.500,272.500
0.366,192.000,208.500,315.000,271.500
0.367,193.000,207.500,313.000,269.000
0.368,194.500,207.000,311.500,267.500
0.369,195.500,206.000,309.500,265.000
0.370,197.000,205.500,308.000,263.000
0.371,197.500,204.000,306.000,261.000
0.372,199.000,204.000,305.500,259.500
0.373,199.500,203.000,304.000,257.500
0.374,201.000,203.000,303.500,256.000
0.375,201.500,202.500,302.000,254.500
0.376,203.000,202.500,301.500,254.000
0.377,204.000,202.500,300.500,253.000
0.378,206.000,203.500,300.500,252.500
0.379,207.500,203.500,299.500,252.000
0.380,210.000,204.500,299.000,252.000
0.381,211.500,204.500,297.500,251.000
0.382,214.000,205.500,297.000,251.000
0.383,215.500,206.000,296.000,250.500
0.384,217.500,206.500,295.500,250.500
0.385,218.000,206.500,294.500,249.500
0.386,219.500,207.000,294.500,249.000
0.387,220.500,206.500,293.000,247.500
0.388,222.000,206.500,292.500,247.000
0.389,222.500,205.500,290.500,245.000
0.390,224.000,205.500,289.000,244.000
0.391,225.000,204.500,287.500,242.500
0.392,226.500,204.000,286.500,241.500
0.393,227.000,203.000,284.500,240.500
0.394,228.500,202.500,284.000,240.500
0.395,229.000,201.500,283.000,239.500
0.396,230.500,201.500,283.000,239.500
0.397,231.000,200.500,282.000,238.500
0.398,231.500,200.000,281.500,238.500
0.399,231.500,198.500,280.500,237.500
0.400,232.500,198.500,280.500,237.500
0.401,232.500,197.500,279.000,236.000
0.402,234.000,197.500,278.500,235.500
0.403,234.500,197.000,276.500,234.500
0.404,235.500,197.500,276.000,234.500
0.405,236.000,197.500,274.500,233.500
0.406,237.500,198.000,273.500,234.000
0.407,238.500,198.000,272.000,233.500
0.408,240.000,198.000,271.500,233.500
0.409,241.000,197.500,270.500,232.500
0.410,243.000,197.500,270.000,232.500
0.411,244.000,196.500,269.000,232.000
0.412,246.000,196.500,269.000,231.500
0.413,247.500,195.500,268.500,230.500
0.414,249.500,195.000,268.500,230.500
0.415,251.000,194.500,268.000,230.000
0.416,253.500,194.000,268.500,230.000
0.417,254.500,193.000,268.000,230.000
0.418,256.500,192.500,269.000,230.500
0.419,257.500,191.000,268.500,230.000
0.420,259.500,190.000,269.000,230.500
0.421,260.000,188.500,268.500,230.500
0.422,261.500,187.500,269.000,231.000
0.423,262.000,186.500,268.500,230.500
0.424,263.500,186.500,269.000,231.000
0.425,264.500,185.500,268.500,231.000
0.426,266.000,186.000,269.000,232.000
0.427,267.500,185.500,269.000,232.000
0.428,269.500,186.000,269.500,232.500
0.429,270.500,185.000,269.000,232.000
0.430,273.000,185.000,269.000,232.500
0.431,274.500,184.500,268.500,232.000
0.432,277.000,185.000,269.500,232.000
0.433,278.500,185.000,269.500,232.000
0.434,280.000,185.500,271.000,232.500
0.435,281.000,186.000,272.000,232.500
0.436,282.000,187.500,274.000,234.000
0.437,282.500,188.500,275.000,234.500
0.438,283.500,189.500,277.000,236.500
0.439,284.000,190.000,278.500,237.000
0.440,285.000,191.000,280.000,238.500
0.441,285.500,191.500,280.000,239.000
0.442,287.000,192.000,281.000,240.000
0.443,288.000,191.500,280.500,239.500
0.444,289.500,192.000,281.000,240.000
0.445,290.000,191.500,280.000,239.500
0.446,291.000,191.500,280.000,239.500
0.447,291.000,191.000,279.500,239.500
0.448,292.500,191.500,280.500,240.000
0.449,293.000,192.500,280.500,240.000
0.450,294.500,194.000,281.500,240.500
0.451,295.500,195.500,281.500,240.500
0.452,297.000,197.500,282.500,241.500
0.453,297.500,199.000,283.000,241.500
0.454,299.500,201.000,283.500,242.000
0.455,300.000,202.500,283.500,241.500
0.456,302.000,204.000,283.500,242.000
0.457,302.500,204.500,283.000,241.500
0.458,304.500,205.000,283.500,241.500
0.459,305.000,205.000,283.000,240.500
0.460,307.000,206.000,283.500,241.000
0.461,307.500,205.500,283.500,240.500
0.462,309.500,205.500,284.000,240.500
0.463,310.000,205.000,284.000,239.500
0.464,312.000,204.500,284.500,239.500
0.465,313.500,203.000,284.500,238.500
0.466,316.000,202.500,285.000,238.500
0.467,317.500,201.000,285.000,237.500
0.468,320.000,200.500,285.500,238.000
0.469,321.500,199.500,285.500,237.500
0.470,324.000,199.500,286.000,237.500
0.471,325.000,199.000,285.500,237.000
0.472,326.500,199.000,286.000,237.500
0.473,327.000,198.500,286.000,237.500
0.474,328.500,198.500,287.000,238.000
0.475,328.500,198.000,287.000,238.000
0.476,329.500,198.500,287.500,239.000
0.477,329.500,198.500,287.500,239.000
0.478,330.500,199.000,288.000,239.500
0.479,331.000,199.000,288.000,239.500
0.480,332.000,200.000,288.500,240.500
0.481,332.500,200.500,288.000,240.500
0.482,334.000,202.000,288.500,241.500
0.483,334.000,202.500,288.500,241.500
0.484,335.500,204.000,289.000,242.000
0.485,335.500,204.500,288.500,241.500
0.486,337.000,205.000,289.000,241.500
0.487,337.500,205.000,288.000,241.000
0.488,338.500,205.000,288.000,240.500
0.489,339.000,204.000,287.000,239.500
0.490,340.500,204.000,287.000,239.500
0.491,341.000,203.000,285.500,238.500
0.492,342.000,202.500,285.000,238.500
0.493,342.500,201.500,284.000,238.000
0.494,343.500,201.000,284.000,238.000
0.495,343.500,200.500,283.000,238.000
0.496,344.000,200.000,282.500,238.500
0.497,343.500,199.500,281.500,238.000
0.498,343.500,199.000,282.000,238.500
0.499,343.000,198.500,281.000,238.000
0.500,343.500,198.000,281.000,238.500
0.501,343.500,197.500,280.000,238.000
0.502,344.000,197.500,279.500,238.000
0.503,343.500,197.000,278.500,237.500
0.504,344.000,197.000,278.000,237.500
0.505,344.000,196.500,277.000,236.500
0.506,345.000,196.500,277.000,236.000
0.507,345.000,195.500,276.500,235.000
0.508,345.500,195.000,276.500,235.000
0.509,345.500,193.500,276.000,234.000
0.510,346.000,193.000,276.500,234.000
0.511,345.500,191.500,276.000,233.000
0.512,346.000,190.500,276.000,232.500
0.513,345.500,189.000,275.000,231.000
0.514,346.500,188.500,274.500,231.000
0.515,346.500,187.000,273.500,230.000
0.516,348.000,187.000,273.000,230.000
0.517,349.000,186.000,271.500,229.500
0.518,350.500,186.500,271.000,230.000
0.519,351.500,186.500,270.000,230.000
0.520,353.000,187.500,270.000,230.500
0.521,353.000,188.000,269.000,231.000
0.522,354.500,189.000,269.000,231.500
0.523,354.500,189.000,268.500,232.000
0.524,355.500,190.000,268.500,232.500
0.525,355.500,190.000,268.000,232.500
0.526,356.500,190.000,268.000,233.500
0.527,356.500,190.000,267.500,233.000
0.528,357.500,190.500,267.500,233.500
0.529,357.000,190.500,267.000,233.000
0.530,357.500,191.000,267.000,233.000
0.531,357.500,190.500,265.500,232.500
0.532,358.000,191.000,265.000,232.000
0.533,358.000,191.000,263.500,231.000
0.534,359.000,191.000,262.500,230.500
0.535,359.500,190.500,261.000,229.000
0.536,360.500,191.000,260.500,229.000
0.537,360.500,190.500,259.000,228.000
0.538,361.000,190.500,259.000,228.000
0.539,361.000,190.000,258.000,227.500
0.540,362.000,190.500,258.500,228.000
0.541,361.500,190.000,258.000,227.500
0.542,362.000,189.500,258.500,228.000
0.543,361.500,189.000,258.500,227.500
0.544,362.000,188.500,258.500,227.500
0.545,361.500,188.000,258.000,227.000
0.546,362.000,188.500,258.500,227.000
0.547,361.000,188.500,258.500,226.500
0.548,361.500,189.500,258.500,226.500
0.549,361.000,190.000,258.000,226.500
0.550,361.500,191.000,258.000,227.000
0.551,361.500,191.500,257.000,226.500
0.552,362.000,192.500,257.000,226.500
0.553,362.000,192.500,255.500,226.000
0.554,363.500,193.000,255.000,225.500
0.555,363.500,192.500,254.000,224.500
0.556,365.000,193.000,253.500,224.000
0.557,365.500,192.500,252.500,222.500
0.558,367.000,192.000,252.000,222.500
0.559,367.500,191.000,250.500,221.500
0.560,369.000,190.500,250.000,222.000
0.561,369.500,189.000,249.000,221.500
0.562,370.500,188.500,248.500,221.500
0.563,370.000,187.000,247.000,220.500
0.564,371.000,186.500,246.500,220.000
0.565,370.500,185.000,245.500,219.000
0.566,371.000,185.000,245.000,218.500
0.567,370.000,185.000,244.500,217.000
0.568,370.500,186.000,244.500,216.500
0.569,369.500,186.500,243.500,216.000
0.570,370.000,187.500,244.000,215.500
0.571,369.500,188.500,243.500,214.500
0.572,370.000,189.500,243.500,214.000
0.573,369.000,190.000,243.000,212.500
0.574,369.500,190.500,243.000,211.500
0.575,369.000,190.500,242.500,209.500
0.576,370.000,191.000,243.000,208.500
0.577,370.500,190.500,243.000,207.500
0.578,372.500,191.000,243.500,207.000
0.579,373.500,191.000,243.000,206.000
0.580,375.500,192.000,243.500,205.500
0.581,376.500,191.500,243.000,205.000
0.582,378.000,192.000,243.500,205.000
0.583,378.500,191.500,242.500,204.000
0.584,379.500,192.000,243.000,204.000
0.585,380.000,191.500,242.500,203.500
0.586,381.000,192.500,243.000,203.500
0.587,381.000,192.500,243.000,203.000
0.588,382.000,193.500,243.500,203.000
0.589,382.000,194.000,243.000,202.500
0.590,382.500,195.500,243.500,202.500
0.591,382.000,196.000,243.000,202.000
0.592,382.000,197.000,243.000,201.500
0.593,381.500,197.500,242.000,200.500
0.594,381.500,198.500,242.000,200.000
0.595,381.000,199.000,241.000,199.000
0.596,382.000,200.000,241.000,199.000
0.597,381.500,200.000,240.000,198.500
0.598,382.500,201.000,240.500,199.000
0.599,382.500,201.000,240.000,199.000
0.600,383.500,201.000,240.500,199.500
0.601,383.000,200.500,240.000,199.500
0.602,384.000,200.500,240.500,200.000
0.603,383.500,199.500,240.000,199.500
0.604,384.000,199.000,240.500,199.000
0.605,383.000,197.500,239.500,198.000
0.606,383.500,197.000,239.500,197.500
0.607,382.500,195.500,239.000,196.500
0.608,383.000,195.000,238.500,196.000
0.609,382.000,194.000,237.500,195.500
0.610,382.500,193.500,237.500,195.500
0.611,382.000,193.000,237.000,195.000
0.612,382.500,193.500,236.500,195.000
0.613,381.500,193.000,235.500,194.500
0.614,381.500,193.000,235.000,194.500
0.615,380.500,192.500,234.000,194.000
0.616,381.000,192.500,233.500,193.500
0.617,380.000,192.000,232.500,193.000
0.618,381.000,192.000,232.500,192.500
0.619,380.500,191.500,232.000,191.500
0.620,381.500,191.500,231.500,191.000
0.621,381.500,191.000,230.500,189.500
0.622,382.500,191.500,230.500,189.500
0.623,382.500,191.000,230.000,188.500
0.624,383.500,191.000,230.500,188.500
0.625,383.500,190.000,230.500,187.500
0.626,384.000,190.000,231.000,188.000
0.627,384.000,189.000,231.000,187.500
0.628,384.500,189.000,231.000,187.500
0.629,384.000,188.000,230.500,187.000
0.630,384.500,188.000,230.500,187.000
0.631,384.000,187.500,229.500,186.500
0.632,384.500,188.000,230.000,187.000
0.633,383.500,187.500,229.500,186.500
0.634,384.000,187.500,230.000,186.500
0.635,383.500,186.500,230.000,186.000
0.636,384.500,186.000,230.500,186.500
0.637,384.000,185.000,230.500,186.000
0.638,384.500,184.500,231.000,186.000
0.639,384.500,184.000,231.000,186.000
0.640,385.500,183.500,231.500,186.500
0.641,385.500,183.000,231.500,186.000
0.642,386.000,183.000,232.500,186.500
0.643,386.000,182.500,232.500,186.500
0.644,386.500,183.000,233.000,186.500
0.645,386.000,183.000,232.500,186.000
0.646,386.500,183.500,233.000,186.500
0.647,385.500,183.500,232.500,186.000
0.648,385.500,184.500,232.500,185.500
0.649,384.500,185.000,232.000,184.500
0.650,384.000,186.500,232.000,184.000
0.651,382.500,187.000,231.000,183.000
0.652,382.500,188.000,231.000,182.500
0.653,381.000,188.000,230.000,181.000
0.654,381.000,189.000,230.500,181.000
0.655,380.000,189.000,230.000,180.000
0.656,380.000,189.500,230.000,180.000
0.657,379.500,189.500,230.000,179.500
0.658,380.000,190.500,230.000,179.500
0.659,380.000,191.000,229.500,179.000
0.660,381.000,192.500,229.500,179.500
0.661,381.500,193.500,228.500,179.000
0.662,382.500,195.000,228.500,179.500
0.663,382.500,196.000,227.500,179.000
0.664,383.500,197.500,227.000,179.000
0.665,383.500,198.000,226.000,178.000
0.666,384.000,199.000,225.500,178.000
0.667,384.000,199.000,225.000,177.000
0.668,384.500,200.000,225.000,177.000
0.669,384.000,200.500,224.500,176.000
0.670,384.500,202.000,224.500,176.000
0.671,384.000,202.500,224.000,175.500
0.672,384.000,203.000,224.000,175.500
0.673,383.500,203.000,223.500,174.500
0.674,383.500,203.500,223.000,174.000
0.675,382.500,203.000,222.000,173.000
0.676,382.500,203.000,222.000,172.000
0.677,382.000,202.500,221.000,171.000
0.678,382.500,203.000,221.000,170.500
0.679,382.000,202.500,220.500,169.500
0.680,382.500,203.000,220.500,170.000
0.681,382.500,202.500,220.000,169.500
0.682,383.500,202.000,220.000,170.000
0.683,383.000,201.000,219.500,169.500
0.684,384.000,201.000,219.500,169.500
0.685,383.500,200.000,219.000,169.000
0.686,384.000,200.000,219.500,169.000
0.687,383.500,199.500,218.500,168.000
0.688,384.000,199.500,218.500,167.000
0.689,383.500,199.500,217.500,165.500
0.690,384.000,199.500,217.500,164.500
0.691,383.500,199.000,216.500,163.000
0.692,384.000,199.500,216.000,162.000
0.693,383.500,199.000,215.000,160.500
0.694,384.000,199.000,215.000,159.500
0.695,383.000,198.500,214.000,158.500
0.696,383.500,198.500,213.500,158.000
0.697,382.500,198.500,212.500,156.500
0.698,382.500,198.500,212.000,156.000
0.699,381.000,198.000,211.000,154.500
0.700,381.000,197.500,210.000,153.500
0.701,379.500,196.000,208.500,152.500
0.702,378.500,194.500,208.000,152.000
0.703,376.500,192.000,206.500,151.000
0.704,375.000,190.000,206.000,151.000
0.705,372.500,187.000,205.500,151.000
0.706,371.500,185.000,206.500,152.000
0.707,370.000,183.500,208.000,152.500
0.708,370.500,183.500,211.000,154.500
0.709,371.000,185.000,214.500,156.500
0.710,373.000,188.000,219.000,159.500
0.711,374.000,191.500,223.500,162.500
0.712,377.000,196.000,228.000,165.500
0.713,378.500,200.000,231.000,167.000
0.714,381.000,204.500,234.000,169.000
0.715,382.000,207.500,235.000,169.500
0.716,384.000,210.500,236.500,169.500
0.717,384.500,212.000,236.500,168.000
0.718,386.500,212.500,236.000,166.000
0.719,386.500,212.000,234.000,163.000
0.720,387.000,211.000,232.000,160.500
0.721,385.500,209.000,228.500,157.500
0.722,385.000,207.500,226.000,155.000
0.723,383.000,205.000,223.000,152.500
0.724,382.500,203.500,221.000,151.500
0.725,380.500,201.500,218.500,150.000
0.726,380.500,200.500,218.000,149.500
0.727,379.000,199.000,217.000,149.000
0.728,379.500,198.500,217.000,149.500
0.729,378.500,198.500,217.000,149.500
0.730,379.000,199.500,218.000,150.500
0.731,378.500,200.500,218.000,151.000
0.732,379.000,202.000,218.500,151.500
0.733,378.500,202.500,218.500,151.500
0.734,379.500,203.000,218.500,152.000
0.735,379.000,203.000,218.000,151.500
0.736,379.500,203.000,218.000,151.500
0.737,379.000,202.000,217.000,151.500
0.738,379.500,202.000,217.000,152.000
0.739,379.500,201.500,216.000,152.000
0.740,380.500,201.500,216.000,153.000
0.741,380.500,201.000,215.000,153.000
0.742,382.000,201.500,215.000,154.000
0.743,382.000,201.500,214.500,154.500
0.744,383.000,202.000,214.500,155.000
0.745,382.500,201.500,213.500,155.000
0.746,383.500,202.000,213.000,155.500
0.747,383.000,201.500,211.500,155.000
0.748,383.500,202.000,211.000,155.000
0.749,382.500,201.500,209.500,154.500
0.750,383.000,202.000,209.000,154.500
0.751,382.500,202.000,208.500,154.000
0.752,383.000,202.500,208.500,154.000
0.753,382.500,202.500,208.000,153.500
0.754,383.500,203.000,208.000,153.000
0.755,383.000,202.500,207.500,152.500
0.756,383.500,202.000,207.500,152.500
0.757,382.500,201.000,207.000,152.000
0.758,383.000,200.500,207.500,152.500
0.759,382.500,199.500,207.000,152.500
0.760,383.500,198.500,207.500,153.500
0.761,383.500,196.500,207.000,153.500
0.762,384.500,196.000,207.000,154.500
0.763,384.500,195.000,206.000,154.500
0.764,386.000,195.000,206.000,154.500
0.765,386.000,194.500,205.000,154.000
0.766,387.000,195.500,205.000,154.000
0.767,387.000,195.500,204.500,153.500
0.768,388.000,197.000,204.500,154.000
0.769,387.500,197.500,204.500,154.000
0.770,388.000,198.000,204.500,154.500
0.771,388.000,198.000,204.000,154.000
0.772,389.000,198.000,204.500,154.000
0.773,388.500,197.500,203.500,153.000
0.774,389.000,197.000,203.500,153.000
0.775,388.500,196.000,203.000,152.500
0.776,389.000,196.000,203.000,152.500
0.777,389.000,195.500,202.500,152.500
0.778,390.000,196.500,203.000,153.000
0.779,390.000,196.500,203.000,153.500
0.780,391.000,198.000,204.000,155.000
0.781,391.500,198.500,204.000,156.000
0.782,392.500,199.500,204.500,157.000
0.783,392.000,200.000,204.500,157.500
0.784,393.000,201.000,205.500,158.500
0.785,392.500,201.000,205.000,158.000
0.786,392.500,201.500,205.500,158.500
0.787,391.000,201.000,204.500,157.500
0.788,391.000,200.500,204.500,157.500
0.789,390.000,199.500,203.000,156.500
0.790,390.000,199.000,202.500,156.000
0.791,389.000,197.500,201.000,155.000
0.792,389.000,197.000,200.500,154.500
0.793,388.500,196.000,199.000,153.500
0.794,389.000,196.000,198.000,153.000
0.795,388.500,195.000,196.500,152.000
0.796,389.000,195.500,195.500,151.500
0.797,388.500,195.000,194.500,150.000
0.798,389.500,195.500,194.000,149.000
0.799,389.000,195.500,193.000,148.000
0.800,389.500,196.000,193.500,147.000
0.801,389.000,196.500,193.500,146.000
0.802,389.500,197.500,194.500,146.000
0.803,388.500,198.000,194.500,145.000
0.804,388.500,198.500,195.000,145.000
0.805,388.000,198.000,194.500,144.500
0.806,389.000,198.500,195.000,144.000
0.807,389.000,198.000,194.000,143.000
0.808,390.000,198.000,194.000,142.500
0.809,390.000,197.000,193.500,141.000
0.810,391.000,197.000,193.000,140.500
0.811,391.000,196.000,192.500,139.000
0.812,392.000,196.000,192.000,138.500
0.813,392.000,195.000,191.500,137.500
0.814,393.000,194.500,191.500,137.000
0.815,392.500,193.500,191.500,136.000
0.816,393.500,193.000,192.000,136.000
0.817,393.000,192.500,192.000,136.000
0.818,394.000,192.000,192.500,136.500
0.819,394.000,191.500,192.500,136.500
0.820,395.000,191.500,193.000,137.000
0.821,394.500,191.000,193.000,137.000
0.822,395.500,191.000,193.500,137.000
0.823,395.500,191.000,193.000,136.500
0.824,396.500,191.500,193.000,136.500
0.825,396.500,191.500,192.000,135.500
0.826,397.500,192.000,191.500,135.500
0.827,397.000,192.000,190.500,134.500
0.828,398.000,192.500,190.000,133.500
0.829,398.000,192.000,188.500,132.000
0.830,399.000,192.000,188.000,131.000
0.831,398.500,191.000,187.000,129.500
0.832,399.500,190.500,186.500,128.500
0.833,399.000,189.500,186.000,127.000
0.834,400.000,189.000,186.000,126.500
0.835,399.500,188.000,186.000,125.500
0.836,400.000,187.500,186.500,125.000
0.837,399.500,187.000,186.500,124.500
0.838,400.000,187.000,187.500,125.000
0.839,399.500,187.000,188.000,124.500
0.840,400.000,187.000,189.000,125.000
0.841,399.500,187.000,189.000,124.500
0.842,400.000,187.000,190.000,125.000
0.843,399.500,186.500,189.500,124.500
0.844,399.500,186.500,189.500,124.500
0.845,398.000,186.000,188.500,123.500
0.846,398.000,186.000,188.000,123.000
0.847,397.000,185.500,186.500,122.000
0.848,397.000,185.000,185.500,121.000
0.849,396.000,184.000,184.000,119.500
0.850,396.500,183.500,183.500,118.500
0.851,395.500,182.500,182.000,117.500
0.852,395.500,182.000,182.000,116.500
0.853,395.000,180.500,181.000,115.500
0.854,395.000,180.000,180.500,115.000
0.855,394.500,179.000,180.000,113.500
0.856,395.000,179.000,179.500,113.000
0.857,395.000,178.000,179.000,112.000
0.858,395.500,178.500,179.500,112.000
0.859,395.500,178.000,179.500,111.500
0.860,396.000,178.500,180.000,111.500
0.861,395.500,178.000,180.000,111.000
0.862,396.000,178.500,180.000,111.000
0.863,395.500,178.500,180.000,110.000
0.864,396.000,179.000,180.000,110.000
0.865,395.500,179.000,179.000,109.000
0.866,395.500,179.000,179.000,108.000
0.867,394.500,178.500,177.500,107.000
0.868,394.500,178.500,177.000,106.000
0.869,393.500,178.000,176.000,104.500
0.870,394.000,177.500,175.500,104.000
0.871,393.000,176.500,174.500,102.500
0.872,393.000,175.500,174.000,102.000
0.873,391.500,174.000,173.000,101.000
0.874,391.000,173.000,173.000,100.500
0.875,389.500,171.000,172.500,100.000
0.876,389.500,170.000,172.500,99.500
0.877,388.500,168.500,172.000,99.000
0.878,389.000,167.500,172.000,99.500
0.879,388.000,166.000,171.000,99.000
0.880,388.500,165.000,170.500,99.500
0.881,387.500,163.500,169.000,99.000
0.882,388.000,163.000,168.000,99.000
0.883,387.500,161.500,166.500,98.500
0.884,388.000,161.000,165.500,98.500
0.885,388.000,160.000,164.000,98.000
0.886,389.000,159.500,163.000,98.000
0.887,389.500,159.000,162.000,97.500
0.888,390.500,159.000,161.500,97.000
0.889,390.000,159.000,160.000,96.500
0.890,391.000,159.500,159.500,95.500
0.891,390.500,159.500,158.000,94.500
0.892,390.500,160.000,157.500,93.500
0.893,390.000,159.500,156.000,92.500
0.894,389.500,160.000,155.500,92.000
0.895,388.000,159.500,154.500,91.000
0.896,387.500,159.500,154.000,90.500
0.897,386.000,159.000,153.500,90.000
0.898,385.000,159.000,153.000,90.000
0.899,383.000,158.000,152.500,89.500
0.900,382.000,158.000,152.500,90.000
0.901,380.000,157.500,152.000,90.000
0.902,379.000,157.500,152.500,91.000
0.903,377.000,157.000,152.000,91.000
0.904,376.000,157.500,153.000,92.000
0.905,374.500,157.000,153.000,92.000
0.906,373.500,157.500,154.000,93.000
0.907,371.500,157.000,154.500,93.000
0.908,370.500,157.000,156.000,93.000
0.909,368.500,156.000,156.500,93.000
0.910,368.000,155.500,157.500,93.000
0.911,366.500,154.500,157.500,93.000
0.912,366.500,154.000,158.000,93.500
0.913,365.500,153.000,158.000,93.500
0.914,365.500,152.500,159.000,94.500
0.915,364.500,151.000,159.500,95.500
0.916,364.500,150.500,161.000,97.000
0.917,363.500,149.500,161.500,98.500
0.918,363.500,148.500,163.000,100.500
0.919,363.000,147.000,163.000,102.000
0.920,363.000,146.000,163.000,103.500
0.921,362.000,144.500,161.500,104.500
0.922,362.000,143.000,160.500,105.500
0.923,361.000,141.500,158.500,105.500
0.924,361.000,141.000,156.500,106.000
0.925,360.000,140.000,154.000,105.500
0.926,360.500,139.500,152.000,105.000
0.927,360.000,138.500,149.000,103.000
0.928,360.500,138.000,146.000,101.500
0.929,360.000,136.500,142.000,99.000
0.930,361.000,135.500,138.500,96.500
0.931,360.500,134.000,133.500,93.000
0.932,361.000,132.500,129.000,90.000
0.933,359.500,130.000,123.500,86.000
0.934,359.000,127.500,118.000,81.500
0.935,357.000,124.500,111.000,76.500
0.936,356.000,121.500,104.000,71.000
0.937,354.000,118.000,96.500,64.500
0.938,353.000,115.500,89.500,59.000
0.939,351.000,112.500,82.500,53.000
0.940,350.500,110.500,76.500,48.000
0.941,349.500,108.500,70.500,43.000
0.942,349.000,107.000,66.000,38.500
0.943,347.500,105.500,61.500,34.000
0.944,347.500,104.500,58.000,30.000
0.945,347.000,103.000,54.500,26.000
0.946,347.500,102.500,52.000,23.500
0.947,347.500,101.500,50.500,21.500
0.948,348.500,102.000,51.500,21.000
0.949,349.000,103.000,53.500,21.500
0.950,350.500,106.000,58.000,23.500
0.951,351.500,109.500,64.000,26.000
0.952,354.000,115.000,71.500,29.500
0.953,355.000,120.000,79.500,32.500
0.954,357.500,126.500,89.000,36.000
0.955,358.500,132.500,98.500,39.500
0.956,360.500,139.500,108.500,43.500
0.957,362.000,145.000,118.000,47.500
0.958,364.500,151.000,127.500,52.000
0.959,365.500,155.500,135.000,55.500
0.960,367.500,159.500,142.500,59.500
0.961,368.000,162.500,147.500,62.500
0.962,369.500,165.000,152.000,65.000
0.963,369.500,166.500,155.000,67.000
0.964,370.500,168.000,157.500,69.500
0.965,370.000,169.000,159.500,71.500
0.966,370.000,170.500,162.000,74.500
0.967,369.000,171.000,164.500,77.000
0.968,369.000,172.000,167.000,79.500
0.969,368.000,172.000,168.500,82.000
0.970,367.500,172.500,170.500,84.000
0.971,366.000,173.000,171.500,85.500
0.972,365.500,174.000,172.500,86.500
0.973,363.500,174.500,173.000,87.000
0.974,363.000,175.500,174.000,87.500
0.975,361.500,176.000,174.000,87.500
0.976,360.500,176.500,175.000,88.000
0.977,359.000,176.500,175.000,88.500
0.978,358.000,177.000,176.000,90.000
0.979,357.000,176.500,176.000,90.500
0.980,357.500,176.500,176.000,92.000
0.981,357.500,175.500,175.000,92.500
0.982,358.500,175.000,175.000,93.500
0.983,359.000,174.500,174.000,94.000
0.984,361.000,174.500,174.500,95.500
0.985,361.500,174.000,174.000,96.000
0.986,362.500,174.000,174.500,97.500
0.987,362.500,173.500,174.500,98.000
0.988,363.000,174.000,175.000,98.500
0.989,363.000,173.500,175.000,98.500
0.990,364.000,174.000,175.000,98.500
0.991,364.000,173.500,175.000,98.000
0.992,365.000,174.000,175.000,97.500
0.993,364.500,173.500,175.000,96.500
0.994,365.500,174.000,175.500,96.500
0.995,365.000,173.500,175.500,96.000
0.996,365.000,173.500,176.000,96.500
0.997,364.500,173.000,176.000,96.500
0.998,364.500,173.000,177.000,97.000
0.999,364.000,173.000,177.000,97.000
1.000,365.000,173.000,177.500,97.000
1.001,365.000,172.500,177.500,96.500
1.002,366.500,172.500,177.500,96.500
1.003,366.500,172.000,177.000,95.500
1.004,367.500,172.000,177.500,95.000
1.005,367.000,171.500,177.000,94.000
1.006,367.500,171.500,177.500,93.500
1.007,366.500,171.000,177.000,92.500
1.008,366.500,171.000,177.500,91.500
1.009,366.000,170.500,177.500,90.500
1.010,366.000,171.000,178.000,89.500
1.011,365.000,170.500,177.500,88.000
1.012,365.000,170.500,178.000,87.500
1.013,364.000,170.500,178.000,86.500
1.014,364.500,170.500,178.000,86.000
1.015,364.000,170.500,177.000,85.500
1.016,364.500,170.500,177.000,85.500
1.017,364.000,169.500,175.500,85.000
1.018,364.500,169.500,175.000,85.500
1.019,364.000,168.500,174.000,85.500
1.020,364.500,167.500,174.000,85.500
1.021,364.500,166.500,173.000,85.500
1.022,365.500,166.000,173.000,85.500
1.023,365.500,165.000,172.500,85.000
1.024,366.000,165.000,173.000,85.000
1.025,366.000,164.500,173.000,84.000
1.026,367.000,164.500,173.500,83.500
1.027,367.500,164.000,173.000,83.000
1.028,369.000,164.000,173.500,83.000
1.029,370.000,163.500,173.000,82.500
1.030,371.500,164.000,173.500,82.000
1.031,372.000,163.500,173.000,81.500
1.032,373.500,163.500,173.000,81.500
1.033,374.000,163.000,173.000,80.500
1.034,375.000,163.000,173.000,80.000
1.035,375.500,162.500,172.500,79.000
1.036,376.500,162.000,172.500,78.500
1.037,376.500,161.000,171.500,77.500
1.038,377.500,160.500,171.000,77.000
1.039,378.000,159.000,170.000,76.000
1.040,379.000,158.500,169.500,76.000
1.041,379.500,157.500,169.000,75.000
1.042,380.500,157.000,169.000,75.000
1.043,380.000,156.500,168.500,75.000
1.044,381.000,156.500,169.000,75.500
1.045,380.500,156.000,169.500,75.500
1.046,381.000,156.500,170.000,76.500
1.047,380.000,156.000,170.500,76.500
1.048,380.000,157.000,171.000,77.000
1.049,379.500,157.000,171.000,77.000
1.050,380.000,158.000,171.500,76.500
1.051,379.500,158.000,171.500,75.500
1.052,380.000,158.500,171.500,75.000
1.053,379.500,158.000,171.000,74.000
1.054,380.500,158.500,171.000,73.500
1.055,380.500,158.500,170.000,73.000
1.056,381.500,159.000,169.500,73.000
1.057,381.500,159.000,169.000,73.000
1.058,383.000,160.000,168.500,73.500
1.059,383.000,160.500,168.000,74.000
1.060,384.000,161.500,168.000,75.000
1.061,384.500,162.000,168.000,75.500
1.062,385.500,163.000,168.500,77.000
1.063,386.000,163.500,168.000,77.500
1.064,387.000,163.500,168.000,78.500
1.065,387.000,163.000,167.500,78.000
1.066,388.000,162.500,167.500,78.000
1.067,388.000,161.500,166.500,77.500
1.068,389.500,160.500,166.000,77.000
1.069,390.000,159.000,165.000,76.000
1.070,391.000,158.000,164.500,75.500
1.071,391.000,156.500,163.500,74.500
1.072,392.000,156.000,163.500,74.500
1.073,391.000,155.000,162.500,74.000
1.074,391.000,155.000,162.500,73.500
1.075,390.000,154.500,161.500,73.000
1.076,390.000,155.000,160.500,73.000
1.077,389.000,154.500,159.000,72.500
1.078,389.000,154.000,157.500,72.500
1.079,388.000,153.000,155.500,71.500
1.080,387.500,152.500,154.000,71.000
1.081,386.500,151.000,152.000,70.500
1.082,386.000,150.500,150.500,70.000
1.083,385.000,149.000,148.500,69.500
1.084,384.500,148.000,147.000,69.500
1.085,382.500,146.000,144.500,69.000
1.086,381.000,144.000,142.500,69.000
1.087,379.000,142.000,140.500,69.000
1.088,378.000,141.000,140.000,70.000
1.089,376.500,140.000,140.000,71.500
1.090,376.500,141.500,142.000,73.500
1.091,377.000,143.500,144.500,76.000
1.092,379.000,147.000,148.500,79.500
1.093,381.000,150.500,152.500,82.000
1.094,384.500,155.000,156.500,85.000
1.095,387.000,158.500,159.500,87.000
1.096,391.000,162.500,162.000,88.000
1.097,394.000,165.000,163.000,88.000
1.098,398.000,167.000,163.000,87.500
1.099,400.000,167.000,161.000,85.500
1.100,402.500,167.000,159.000,83.500
1.101,403.500,165.500,156.000,80.500
1.102,404.500,163.500,152.500,78.000
1.103,404.000,160.500,149.000,76.000
1.104,403.000,157.500,146.000,74.500
1.105,401.000,154.000,142.500,73.500
1.106,399.500,151.000,140.500,73.000
1.107,396.500,148.000,138.000,72.500
1.108,395.000,145.500,136.500,72.500
1.109,393.000,143.000,135.000,72.000
1.110,392.500,141.500,134.000,72.000
1.111,391.500,140.000,133.000,71.500
1.112,392.000,139.500,132.500,71.500
1.113,391.500,138.500,132.000,71.000
1.114,392.500,139.000,132.500,70.500
1.115,392.000,138.500,132.000,70.000
1.116,393.000,139.000,132.000,70.000
1.117,392.500,138.500,131.500,69.500
1.118,393.000,139.000,131.500,69.000
1.119,392.500,138.500,130.500,68.500
1.120,392.500,138.500,130.000,68.000
1.121,392.000,137.500,129.000,67.000
1.122,392.500,137.500,128.500,66.500
1.123,392.000,137.000,127.500,65.000
1.124,392.500,137.000,127.000,64.500
1.125,392.500,137.000,126.000,63.000
1.126,394.000,137.000,125.500,62.000
1.127,394.500,137.000,124.500,60.500
1.128,396.000,137.500,124.000,59.500
1.129,396.500,137.000,123.500,58.000
1.130,398.000,137.000,123.500,57.000
1.131,398.000,136.500,123.000,55.000
1.132,399.000,136.000,122.500,54.000
1.133,399.000,135.000,122.000,52.000
1.134,399.500,134.500,121.500,51.000
1.135,399.500,133.500,120.500,49.500
1.136,400.500,133.000,119.500,48.000
1.137,400.500,132.500,118.000,46.500
1.138,401.500,132.000,117.000,45.500
1.139,401.500,131.500,115.500,44.500
1.140,402.500,131.500,114.500,44.500
1.141,402.000,131.000,113.000,44.000
1.142,402.500,131.000,112.000,44.000
1.143,401.000,130.500,110.500,43.500
1.144,400.500,131.000,109.500,43.500
1.145,399.000,130.500,107.500,42.500
1.146,398.500,131.000,107.000,42.000
1.147,397.000,130.500,106.000,41.500
1.148,396.500,131.000,106.000,41.000
1.149,395.500,130.500,105.500,40.000
1.150,396.000,130.500,105.500,39.500
1.151,395.500,130.500,105.500,39.000
1.152,396.500,130.500,105.500,39.500
1.153,396.000,130.000,105.000,39.500
1.154,397.000,130.000,104.500,39.500
1.155,396.500,129.000,103.500,39.000
1.156,397.000,129.000,103.000,38.500
1.157,397.000,128.500,102.000,38.000
1.158,397.500,128.500,101.500,38.000
1.159,397.500,128.000,100.500,38.000
1.160,398.000,128.000,100.000,38.000
1.161,397.000,127.500,99.000,37.500
1.162,397.500,127.500,98.500,37.000
1.163,397.000,127.000,97.500,36.000
1.164,398.000,127.000,97.000,35.000
1.165,397.500,127.000,96.000,34.000
1.166,398.000,127.000,95.500,33.500
1.167,397.500,127.000,94.500,32.500
1.168,397.500,127.000,94.000,32.500
1.169,396.500,127.000,93.000,32.500
1.170,396.500,127.000,92.000,32.500
1.171,395.500,126.500,90.500,32.000
1.172,395.500,126.500,89.500,32.000
1.173,394.500,126.000,88.000,32.000
1.174,394.500,126.000,87.000,31.500
1.175,393.500,125.500,85.500,31.000
1.176,394.000,125.500,85.000,31.000
1.177,393.000,125.000,84.000,30.500
1.178,393.500,125.000,83.500,30.500
1.179,392.500,124.500,83.000,30.000
1.180,393.000,124.500,83.000,30.000
1.181,392.500,124.000,82.500,29.500
1.182,393.000,124.000,82.500,29.500
1.183,392.500,124.000,82.000,29.000
1.184,393.000,124.000,82.000,29.500
1.185,393.000,124.000,81.500,29.500
1.186,394.000,124.500,81.500,30.000
1.187,394.000,124.500,81.000,30.500
1.188,395.000,125.000,81.000,30.500
1.189,395.000,125.000,80.500,30.500
1.190,396.000,125.500,80.500,30.500
1.191,396.000,125.500,80.000,30.000
1.192,397.000,126.000,80.500,30.000
1.193,396.500,126.000,81.000,30.000
1.194,397.000,126.000,82.000,31.000
1.195,396.000,126.000,82.500,31.500
1.196,396.000,126.000,84.000,32.500
1.197,395.000,125.500,85.000,33.500
1.198,395.500,125.500,86.000,34.000
1.199,394.500,125.000,87.000,34.500
1.200,395.000,124.500,88.500,35.000
1.201,394.500,124.000,89.500,35.000
1.202,395.000,123.500,91.000,35.500
1.203,394.500,122.500,92.000,36.000
1.204,395.000,122.000,93.000,36.500
1.205,394.500,120.500,94.000,36.500
1.206,395.000,120.000,95.500,37.000
1.207,394.500,119.500,96.500,37.000
1.208,395.000,119.500,97.500,37.500
1.209,394.000,119.500,98.500,37.500
1.210,394.500,120.000,99.500,37.500
1.211,394.000,120.500,99.500,37.000
1.212,394.000,121.000,100.000,37.000
1.213,393.500,120.500,100.000,36.500
1.214,394.000,121.000,100.500,36.500
1.215,393.000,120.500,100.000,35.500
1.216,393.500,120.500,100.000,35.500
1.217,392.500,120.500,99.000,35.000
1.218,393.000,120.500,99.000,36.000
1.219,392.500,120.500,99.000,36.500
1.220,393.500,121.500,99.000,38.000
1.221,393.000,122.500,99.000,39.000
1.222,393.500,123.500,99.500,40.500
1.223,392.000,124.500,99.500,41.500
1.224,392.000,126.000,100.000,42.500
1.225,390.500,126.500,100.500,43.000
1.226,390.000,127.500,101.000,44.000
1.227,388.500,127.500,101.000,44.000
1.228,388.000,128.000,101.000,44.500
1.229,387.000,127.000,101.000,44.000
1.230,387.500,126.500,101.000,44.000
1.231,387.000,125.500,101.000,44.000
1.232,387.500,125.000,101.000,44.000
1.233,386.500,124.500,101.500,44.000
1.234,387.000,125.000,102.500,44.500
1.235,386.500,125.000,103.000,45.000
1.236,387.000,125.500,104.500,45.500
1.237,386.500,126.000,105.000,46.000
1.238,387.500,126.500,106.000,46.500
1.239,387.000,126.000,106.500,46.500
1.240,388.000,126.500,107.000,47.000
1.241,387.500,126.000,106.500,47.000
1.242,388.000,126.000,106.500,47.500
1.243,387.500,125.000,106.000,47.500
1.244,388.000,125.000,106.000,48.000
1.245,387.500,124.000,105.000,47.500
1.246,388.500,124.000,105.000,47.500
1.247,389.000,123.000,104.000,47.000
1.248,390.000,122.500,104.000,46.500
1.249,390.500,121.500,104.000,46.000
1.250,391.500,121.000,104.000,46.000
1.251,391.500,120.500,103.500,45.500
1.252,392.000,120.500,103.500,45.500
1.253,391.500,119.500,103.500,45.000
1.254,391.500,119.500,103.500,45.500
1.255,390.500,118.500,102.500,45.000
1.256,391.000,118.000,102.000,45.500
1.257,390.000,117.000,100.500,45.000
1.258,390.500,116.000,99.000,45.500
1.259,390.500,115.000,97.500,45.000
1.260,391.500,114.500,97.000,45.000
1.261,391.500,114.000,96.000,44.500
1.262,392.500,114.000,96.000,44.000
1.263,392.500,113.500,95.500,43.500
1.264,393.500,113.500,96.000,44.000
1.265,393.500,113.500,96.000,43.500
1.266,394.000,113.500,96.500,44.000
1.267,393.500,113.500,96.500,44.000
1.268,394.000,113.500,97.000,44.000
1.269,394.000,113.500,96.500,44.000
1.270,394.500,114.000,97.000,43.500
1.271,394.500,114.000,96.500,43.000
1.272,395.500,114.500,97.000,43.000
1.273,395.500,114.500,97.000,42.500
1.274,396.500,115.000,97.000,42.000
1.275,396.500,115.500,97.000,41.500
1.276,397.000,116.500,97.000,41.500
1.277,396.500,117.500,96.500,41.000
1.278,397.500,119.000,96.500,41.000
1.279,397.000,120.000,96.000,40.500
1.280,398.000,121.500,96.000,41.000
1.281,398.000,122.000,95.500,41.500
1.282,399.500,123.500,96.000,42.500
1.283,399.500,123.500,95.500,43.000
1.284,401.000,123.500,96.000,43.500
1.285,401.000,123.000,95.500,43.500
1.286,401.500,122.500,95.500,44.000
1.287,401.000,121.500,95.000,43.500
1.288,401.500,121.500,95.500,43.500
1.289,400.500,121.000,95.000,43.500
1.290,400.500,121.000,95.500,44.000
1.291,399.500,120.500,95.000,44.000
1.292,399.500,121.000,95.000,44.000
1.293,399.000,121.000,94.500,44.000
1.294,399.000,121.500,94.500,44.500
1.295,398.500,122.000,94.500,44.500
1.296,399.000,123.000,94.500,45.000
1.297,398.500,123.000,94.500,45.000
1.298,398.500,124.000,95.000,45.500
1.299,397.500,124.000,95.000,46.000
1.300,397.500,124.000,95.000,46.500
1.301,396.000,123.500,94.500,47.000
1.302,395.000,123.500,94.000,48.000
1.303,393.500,123.000,93.000,48.500
1.304,393.000,123.000,92.500,49.000
1.305,391.500,122.500,92.000,49.500
1.306,391.500,123.000,92.000,50.000
1.307,390.000,123.000,92.000,50.000
1.308,390.000,123.500,92.000,50.500
1.309,389.500,123.000,92.000,50.000
1.310,389.500,123.500,92.000,50.500
1.311,389.000,123.000,91.500,50.000
1.312,389.500,123.500,91.000,50.000
1.313,389.000,123.000,90.000,49.500
1.314,390.000,123.500,89.500,49.500
1.315,390.500,124.000,88.500,49.000
1.316,392.000,125.000,88.500,49.000
1.317,393.000,126.000,88.000,49.000
1.318,395.000,127.500,88.000,49.500
1.319,396.000,128.000,88.000,49.500
1.320,397.500,129.500,88.000,50.000
1.321,398.500,129.500,87.500,50.000
1.322,400.000,130.000,87.500,50.500
1.323,400.000,129.500,87.000,51.000
1.324,400.500,129.500,86.500,51.000
1.325,400.000,129.000,86.000,51.000
1.326,400.500,129.000,86.000,51.000
1.327,399.500,129.000,85.000,50.500
1.328,399.500,129.500,85.000,50.500
1.329,398.500,129.000,84.000,49.500
1.330,398.500,129.500,83.500,49.000
1.331,397.000,129.000,83.000,48.500
1.332,397.000,129.500,83.000,48.000
1.333,395.500,129.000,82.500,47.500
1.334,396.000,129.000,82.500,47.500
1.335,395.000,128.000,82.500,47.000
1.336,395.500,128.000,83.000,47.000
1.337,394.500,127.000,83.000,46.500
1.338,395.000,126.000,83.000,46.000
1.339,394.500,125.000,82.000,45.000
1.340,395.000,124.500,81.500,44.500
1.341,394.000,123.000,80.000,44.000
1.342,394.000,122.500,78.500,44.000
1.343,392.500,122.000,77.500,43.500
1.344,392.500,122.000,77.000,43.500
1.345,391.500,122.000,76.500,43.500
1.346,391.500,123.000,77.000,44.000
1.347,390.500,123.500,77.500,44.000
1.348,391.000,125.000,78.000,44.500
1.349,390.500,126.000,78.500,44.000
1.350,391.000,127.000,79.500,44.000
1.351,391.000,127.000,80.000,43.000
1.352,392.000,127.000,80.500,42.500
1.353,391.500,126.000,81.000,41.500
1.354,392.500,125.500,82.000,41.000
1.355,392.500,124.000,82.000,40.500
1.356,393.000,123.500,83.000,40.500
1.357,392.500,122.000,83.000,40.000
1.358,392.500,121.500,84.000,40.000
1.359,392.000,121.000,84.000,40.000
1.360,392.000,120.500,84.500,40.500
1.361,391.500,120.000,84.500,40.500
1.362,392.000,119.500,85.000,41.000
1.363,392.000,119.000,85.000,40.500
1.364,393.000,118.500,85.000,40.500
1.365,393.000,117.000,84.500,39.500
1.366,394.000,116.000,84.000,39.000
1.367,394.000,114.500,83.000,37.500
1.368,395.000,113.000,82.000,36.500
1.369,395.000,111.000,80.500,35.000
1.370,395.500,109.500,79.000,34.500
1.371,395.500,108.000,77.500,33.000
1.372,396.000,106.500,76.000,32.500
1.373,395.500,105.000,74.000,31.500
1.374,396.000,104.500,73.000,31.000
1.375,395.500,103.500,72.000,30.000
1.376,397.000,103.500,72.000,30.000
1.377,397.000,103.000,72.000,30.500
1.378,398.000,103.500,72.500,31.500
1.379,398.000,103.500,73.000,32.500
1.380,398.500,103.500,74.000,33.500
1.381,398.000,103.000,74.000,34.000
1.382,398.500,103.000,75.000,34.500
1.383,397.500,103.000,75.000,35.000
1.384,397.000,103.000,75.000,35.500
1.385,396.000,103.000,75.000,35.500
1.386,395.500,103.500,75.000,36.000
1.387,394.500,103.500,74.500,36.000
1.388,395.000,104.000,74.500,36.500
1.389,394.000,104.000,74.500,36.500
1.390,394.500,104.500,74.500,36.500
1.391,393.500,105.000,74.500,36.500
1.392,393.500,106.000,74.500,36.000
1.393,392.500,106.500,73.500,35.500
1.394,392.500,107.500,73.500,35.500
1.395,391.500,108.000,73.000,35.000
1.396,392.000,109.500,73.000,35.500
1.397,391.500,110.000,73.000,35.500
1.398,392.500,111.000,73.500,36.500
1.399,392.500,111.000,73.500,37.000
1.400,394.500,111.500,73.500,37.500
1.401,395.000,111.500,73.000,38.000
1.402,396.500,112.000,73.000,38.500
1.403,397.000,112.000,72.500,38.500
1.404,398.500,112.500,72.500,38.500
1.405,398.500,112.000,72.000,38.500
1.406,399.500,112.500,72.000,38.000
1.407,399.000,112.000,71.500,37.500
1.408,400.000,112.000,72.000,37.500
1.409,399.500,112.000,71.500,37.000
1.410,400.000,112.000,72.000,37.000
1.411,399.000,112.000,72.000,36.500
1.412,399.000,112.500,72.500,36.000
1.413,398.000,112.500,72.500,35.500
1.414,398.000,113.000,73.000,35.500
1.415,396.500,113.000,73.500,35.500
1.416,396.000,113.500,74.000,35.500
1.417,394.500,113.000,74.000,35.500
1.418,394.000,113.500,74.500,36.000
1.419,392.500,113.000,74.000,36.000
1.420,392.500,113.500,74.000,36.500
1.421,392.000,113.000,73.500,36.500
1.422,392.500,112.500,73.000,36.500
1.423,392.000,111.500,72.500,36.500
1.424,393.000,111.000,72.000,36.000
1.425,393.000,110.000,71.000,35.500
1.426,394.000,109.000,70.500,34.500
1.427,394.000,107.500,69.500,33.500
1.428,394.500,106.500,69.000,33.000
1.429,394.500,105.500,68.500,32.500
1.430,395.000,104.500,68.000,32.000
1.431,394.000,104.000,67.500,31.500
1.432,394.500,104.000,67.500,32.000
1.433,393.500,104.000,67.000,32.000
1.434,393.500,104.500,67.000,32.000
1.435,392.500,105.000,66.500,32.000
1.436,393.000,106.500,66.500,32.500
1.437,392.000,107.000,66.000,32.500
1.438,392.500,107.500,65.500,32.500
1.439,392.000,108.000,64.500,32.000
1.440,392.500,108.500,64.500,32.000
1.441,391.500,108.500,64.000,31.500
1.442,391.500,109.000,64.500,32.000
1.443,390.000,109.000,65.000,32.000
1.444,389.500,110.000,65.500,32.000
1.445,388.000,110.000,66.000,31.500
1.446,387.000,110.500,66.000,31.500
1.447,385.500,110.500,66.000,31.000
1.448,384.500,111.000,66.000,30.500
1.449,383.000,110.500,65.500,29.500
1.450,383.000,110.500,65.500,29.000
1.451,382.500,109.500,65.000,28.500
1.452,383.500,109.500,65.000,28.000
1.453,383.500,108.500,64.500,27.000
1.454,385.000,108.000,64.000,26.000
1.455,385.500,106.500,63.500,25.000
1.456,387.000,105.500,63.500,24.000
1.457,387.000,103.500,62.500,23.000
1.458,388.000,102.000,62.500,22.500
1.459,387.500,100.500,61.500,22.000
1.460,388.000,99.000,61.500,21.000
1.461,387.500,97.500,61.500,20.000
1.462,387.500,97.000,61.500,19.500
1.463,386.500,96.500,61.000,19.000
1.464,386.000,96.500,61.000,18.500
1.465,384.500,96.000,60.000,17.500
1.466,384.000,96.000,59.000,16.500
1.467,382.000,95.500,57.500,15.500
1.468,381.500,95.500,56.500,15.500
1.469,380.000,96.000,55.500,15.000
1.470,380.000,97.500,56.500,16.000
1.471,379.500,99.000,58.500,17.000
1.472,381.000,102.500,61.500,19.500
1.473,381.500,105.500,64.500,21.500
1.474,384.000,109.500,68.000,24.500
1.475,385.000,113.000,71.000,26.500
1.476,387.500,116.000,74.500,28.500
1.477,389.500,118.500,76.500,29.500
1.478,392.000,121.000,78.500,30.000
1.479,394.000,122.500,79.500,29.500
1.480,396.500,123.000,79.500,28.000
1.481,398.000,122.500,78.500,26.000
1.482,399.500,121.000,77.000,23.000
1.483,399.000,118.500,74.500,20.000
1.484,399.000,116.000,71.500,17.500
1.485,396.500,113.000,68.000,15.000
1.486,395.000,109.500,65.000,13.500
1.487,391.500,106.000,61.500,12.000
1.488,389.500,103.000,58.500,11.500
1.489,386.500,100.000,56.000,11.000
1.490,385.000,98.500,54.000,10.500
1.491,382.500,97.500,53.000,10.500
1.492,381.500,98.000,53.500,10.500
1.493,380.000,99.000,54.000,10.500
1.494,379.500,101.500,55.500,11.000
1.495,378.000,103.500,56.500,11.000
1.496,377.500,106.000,58.000,11.500
1.497,376.000,108.000,59.000,12.000
1.498,376.000,110.000,60.000,12.500
1.499,374.500,111.000,60.500,13.000
1.500,374.500,112.500,61.000,13.500
1.501,373.000,113.000,60.500,13.500
1.502,373.000,114.000,60.500,14.000
1.503,372.000,115.000,60.000,14.500
1.504,372.000,116.000,60.000,15.000
1.505,371.000,116.000,59.500,15.500
1.506,371.500,117.000,60.000,16.000
1.507,371.000,117.000,60.000,16.500
1.508,372.000,117.000,60.000,16.500
1.509,371.500,116.500,60.000,16.500
1.510,372.000,115.500,59.500,16.000
1.511,371.500,114.000,59.000,15.500
1.512,372.000,113.000,58.500,15.000
1.513,371.000,111.500,57.500,14.500
1.514,371.000,111.000,57.000,14.500
1.515,370.500,109.500,56.500,14.500
1.516,370.500,109.000,56.000,15.500
1.517,370.000,108.500,55.000,16.000
1.518,371.000,108.000,54.500,17.000
1.519,371.000,107.500,54.000,18.000
1.520,372.500,107.500,53.500,19.000
1.521,373.000,107.500,52.500,19.500
1.522,375.000,107.500,52.500,20.500
1.523,375.500,107.000,52.000,21.500
1.524,377.000,107.000,52.000,22.000
1.525,377.000,106.000,51.500,22.500
1.526,378.000,106.000,52.000,23.500
1.527,378.000,105.000,51.500,23.500
1.528,378.500,105.000,52.000,24.000
1.529,378.000,104.500,51.500,24.000
1.530,377.500,104.500,52.000,24.500
1.531,376.000,104.000,52.000,24.500
1.532,375.500,104.500,52.000,25.000
1.533,374.000,104.500,52.000,25.500
1.534,373.500,105.000,52.500,26.500
1.535,372.000,104.500,52.500,27.000
1.536,372.000,105.000,53.000,27.500
1.537,371.000,104.500,52.500,28.000
1.538,371.500,105.000,52.500,29.000
1.539,371.000,104.500,52.000,29.500
1.540,371.500,105.000,52.000,30.000
1.541,371.000,104.500,51.500,30.500
1.542,371.500,104.500,51.500,30.500
1.543,371.000,104.000,51.500,30.500
1.544,371.500,104.000,51.000,30.500
1.545,371.000,103.000,50.500,29.500
1.546,371.500,102.500,50.000,29.000
1.547,371.500,102.000,49.500,28.500
1.548,372.500,102.000,49.000,28.000
1.549,372.500,102.000,48.000,27.000
1.550,373.000,102.500,48.000,27.000
1.551,373.000,103.000,47.500,26.500
1.552,373.500,103.500,47.000,26.000
1.553,373.000,103.500,46.500,25.500
1.554,373.500,104.000,46.500,25.500
1.555,372.500,103.500,46.000,24.500
1.556,372.500,103.500,46.000,24.500
1.557,371.000,103.000,46.000,24.000
1.558,370.500,103.000,46.000,24.000
1.559,369.000,102.500,46.500,24.000
1.560,368.500,103.000,47.000,25.000
1.561,367.000,103.500,48.000,25.500
1.562,366.500,104.000,49.500,26.500
1.563,365.000,104.500,51.000,27.000
1.564,365.000,104.500,52.000,27.500
1.565,364.000,104.000,52.000,27.500
1.566,364.000,104.000,52.500,27.000
1.567,363.000,103.500,52.500,26.000
1.568,363.000,103.500,53.000,25.000
1.569,362.000,103.000,53.000,24.000
1.570,362.000,103.500,53.500,23.500
1.571,361.000,103.500,53.500,23.000
1.572,360.500,104.000,54.000,22.000
1.573,359.500,104.000,54.000,21.000
1.574,359.000,104.000,54.500,20.000
1.575,358.000,103.000,54.000,19.000
1.576,358.500,103.000,54.000,18.500
1.577,358.000,102.000,53.500,18.000
1.578,358.500,101.000,53.000,17.500
1.579,358.000,100.000,52.500,17.000
1.580,359.000,99.000,52.500,17.000
1.581,358.500,98.500,52.500,16.500
1.582,359.000,98.500,53.000,16.000
1.583,358.000,99.000,53.500,15.500
1.584,358.000,100.000,54.500,15.500
1.585,357.000,101.000,55.000,15.500
1.586,357.000,101.500,55.500,15.500
1.587,356.000,101.500,55.500,15.500
1.588,356.000,102.000,55.500,15.500
1.589,355.000,101.500,55.000,15.500
1.590,355.500,102.000,55.000,15.500
1.591,354.500,101.500,55.000,15.500
1.592,355.000,102.000,55.000,15.500
1.593,354.000,101.500,55.000,15.000
1.594,354.000,102.000,55.000,15.000
1.595,353.000,102.000,55.000,14.000
1.596,353.000,102.500,55.000,14.000
1.597,352.000,103.000,55.000,14.000
1.598,352.000,103.500,55.500,14.500
1.599,351.000,104.000,55.500,14.500
1.600,351.500,104.500,56.000,15.000
1.601,351.000,104.000,56.000,15.000
1.602,351.000,104.000,56.000,15.000
1.603,350.500,103.500,56.500,15.000
1.604,351.000,103.000,57.000,15.000
1.605,350.500,102.000,58.000,14.500
1.606,351.500,102.000,59.000,14.000
1.607,352.000,101.500,59.500,13.500
1.608,353.000,101.500,60.500,13.500
1.609,353.000,101.000,61.000,13.500
1.610,354.000,101.500,61.500,13.000
1.611,354.000,101.500,61.000,12.500
1.612,354.500,102.000,61.000,12.000
1.613,354.500,102.000,60.500,11.500
1.614,355.500,102.500,60.500,11.000
1.615,355.000,103.000,60.000,10.000
1.616,355.500,103.500,59.500,10.000
1.617,354.500,103.500,59.000,9.500
1.618,354.500,103.500,59.000,9.000
1.619,353.000,103.000,59.000,9.000
1.620,352.000,103.000,59.500,9.000
1.621,350.500,102.500,59.500,9.000
1.622,350.000,102.000,60.000,9.000
1.623,349.000,101.000,60.000,8.500
1.624,349.000,100.000,60.500,8.500
1.625,348.500,99.000,61.000,8.500
1.626,349.000,98.500,61.500,8.500
1.627,349.000,97.500,62.000,9.000
1.628,349.000,97.500,63.000,9.500
1.629,348.000,97.500,63.500,10.000
1.630,348.000,98.000,64.000,10.500
1.631,347.000,98.000,64.000,10.500
1.632,347.000,99.000,64.500,10.000
1.633,346.500,99.500,64.500,9.500
1.634,346.500,100.000,64.500,8.500
1.635,345.500,100.000,64.000,7.000
1.636,345.500,100.000,63.500,6.000
1.637,345.000,100.000,63.000,5.000
1.638,345.000,100.000,63.000,4.000
1.639,344.500,99.500,62.500,3.500
1.640,345.000,99.500,62.500,3.000
1.641,344.500,99.000,61.500,3.000
1.642,344.500,98.500,61.000,3.000
1.643,344.000,97.500,60.000,2.500
1.644,344.500,97.000,59.000,2.500
1.645,343.500,95.500,58.000,2.500
1.646,343.000,95.000,57.000,2.500
1.647,341.500,94.500,56.000,2.500
1.648,341.000,94.000,55.500,2.500
1.649,339.000,93.500,54.500,2.000
1.650,337.500,94.000,54.000,2.000
1.651,335.500,94.500,53.000,2.000
1.652,334.000,95.500,53.000,2.000
1.653,332.000,96.500,53.000,2.000
1.654,331.500,97.500,53.500,2.000
1.655,330.000,98.500,53.500,2.500
1.656,329.500,99.500,54.500,3.500
1.657,328.500,100.000,54.500,4.500
1.658,328.500,100.500,55.500,6.500
1.659,328.000,100.000,56.500,8.500
1.660,328.000,100.500,58.000,11.000
1.661,327.500,100.500,59.500,14.000
1.662,328.000,101.000,61.500,17.000
1.663,327.500,101.500,63.500,19.500
1.664,328.500,102.500,65.000,23.000
1.665,328.500,103.500,66.500,26.000
1.666,329.500,104.500,67.500,28.500
1.667,329.500,104.500,68.000,30.500
1.668,330.500,105.000,68.000,32.500
1.669,330.000,105.000,67.000,33.000
1.670,330.500,105.000,65.500,33.000
1.671,329.500,104.000,63.500,32.500
1.672,329.500,103.500,61.000,31.000
1.673,328.500,102.500,58.500,29.500
1.674,328.000,101.500,56.000,27.500
1.675,326.500,99.500,52.500,25.000
1.676,326.000,97.000,49.000,22.500
1.677,324.500,94.000,44.500,19.500
1.678,324.000,91.000,39.500,16.000
1.679,322.500,87.500,33.000,11.500
1.680,322.000,83.500,26.000,7.000
1.681,320.500,79.000,18.000,1.500
1.682,319.500,75.000,9.500,-4.000
1.683,318.000,70.000,0.000,-10.000
1.684,317.000,65.000,-9.000,-16.000
1.685,315.500,60.000,-17.500,-21.500
1.686,315.000,55.500,-25.000,-27.000
1.687,313.500,51.000,-32.000,-32.000
1.688,313.500,47.000,-38.000,-37.000
1.689,313.000,43.500,-43.000,-41.500
1.690,313.000,40.500,-47.500,-46.000
1.691,312.000,38.500,-50.500,-50.000
1.692,312.500,37.500,-53.000,-53.000
1.693,312.000,37.500,-53.000,-54.500
1.694,313.000,39.000,-51.000,-54.500
1.695,313.000,41.500,-47.000,-52.500
1.696,314.000,46.000,-40.500,-49.500
1.697,314.500,51.000,-32.500,-45.000
1.698,316.000,57.500,-23.500,-40.000
1.699,316.500,64.000,-13.000,-35.000
1.700,318.500,71.500,-3.000,-30.500
1.701,320.000,78.500,7.500,-26.000
1.702,322.000,86.000,17.500,-22.000
1.703,323.000,92.000,26.500,-18.000
1.704,324.500,98.000,35.500,-14.000
1.705,325.000,102.000,42.500,-10.000
1.706,326.000,106.000,49.000,-6.500
1.707,325.500,108.500,53.500,-3.500
1.708,326.000,111.000,57.500,-1.000
1.709,325.500,112.500,60.000,1.500
1.710,326.000,114.500,62.500,4.000
1.711,325.000,115.500,64.500,6.000
1.712,325.500,117.000,66.500,8.500
1.713,324.500,118.000,68.000,10.500
1.714,325.000,119.000,69.500,13.000
1.715,324.500,119.500,71.000,15.000
1.716,324.500,119.500,72.000,17.000
1.717,324.000,119.500,72.500,18.000
1.718,325.000,119.500,73.000,19.500
1.719,325.000,118.500,73.500,20.000
1.720,325.500,118.000,73.500,21.000
1.721,325.500,116.500,73.500,21.500
1.722,326.000,115.500,73.500,22.500
1.723,325.500,114.500,73.000,23.500
1.724,325.500,113.500,73.000,24.500
1.725,324.500,112.500,72.500,25.500
1.726,324.000,112.500,72.000,26.500
1.727,323.000,111.500,71.500,27.500
1.728,323.000,111.000,72.000,28.000
1.729,322.000,109.500,72.000,28.500
1.730,321.500,109.000,72.500,29.000
1.731,320.500,107.500,72.500,29.000
1.732,320.500,106.500,73.000,29.500
1.733,319.500,105.000,73.500,30.000
1.734,319.500,104.500,74.000,30.500
1.735,318.500,103.500,74.500,31.000
1.736,318.000,103.500,75.000,32.000
1.737,317.000,103.000,75.500,32.500
1.738,316.000,103.500,76.500,33.500
1.739,314.500,103.500,77.000,34.000
1.740,314.000,104.500,77.500,34.500
1.741,312.500,104.500,77.000,34.500
1.742,312.000,105.000,77.000,34.500
1.743,311.000,105.000,76.000,33.500
1.744,311.500,105.500,75.500,33.000
1.745,311.000,105.500,74.500,31.500
1.746,311.000,106.000,74.500,31.000
1.747,310.500,106.000,74.000,30.000
1.748,311.000,106.500,74.000,29.500
1.749,310.500,107.000,74.000,29.000
1.750,311.000,108.000,74.000,28.500
1.751,311.000,108.500,74.500,28.000
1.752,311.500,109.500,75.000,28.000
1.753,311.500,110.500,75.500,28.000
1.754,312.500,111.500,76.000,28.000
1.755,312.500,112.500,76.500,28.000
1.756,313.500,114.000,77.500,28.500
1.757,313.500,115.000,77.500,28.000
1.758,314.000,116.500,78.000,28.000
1.759,313.500,117.500,78.000,27.000
1.760,313.500,118.000,78.000,26.500
1.761,312.500,118.000,77.500,26.000
1.762,312.500,118.500,77.500,25.500
1.763,311.000,118.000,77.000,25.500
1.764,311.000,118.000,77.000,25.500
1.765,309.500,118.000,77.000,25.500
1.766,309.500,118.000,77.500,26.000
1.767,308.500,118.000,78.000,26.500
1.768,309.000,118.000,79.000,26.500
1.769,308.000,118.000,80.000,26.500
1.770,308.500,118.000,81.500,26.500
1.771,307.500,117.500,82.500,26.000
1.772,307.500,117.500,83.500,26.000
1.773,306.500,116.500,83.500,25.000
1.774,306.500,115.500,83.500,24.000
1.775,306.000,114.500,82.500,23.000
1.776,306.000,113.500,82.000,22.000
1.777,305.000,112.500,80.500,21.000
1.778,305.500,111.500,79.500,20.500
1.779,305.500,110.500,78.000,19.500
1.780,306.000,110.500,77.500,19.500
1.781,306.000,110.000,76.500,19.000
1.782,307.000,110.500,77.000,19.000
1.783,307.500,110.500,77.000,18.500
1.784,308.000,111.000,77.500,19.000
1.785,308.000,111.500,78.000,19.500
1.786,308.000,112.500,79.500,20.500
1.787,307.500,113.500,80.000,21.500
1.788,308.000,115.000,81.000,22.500
1.789,307.500,116.000,82.000,23.500
1.790,307.500,117.000,82.500,24.500
1.791,306.500,117.500,83.000,25.000
1.792,306.500,118.000,83.000,25.000
1.793,305.500,117.500,83.000,24.500
1.794,305.500,117.500,82.500,24.500
1.795,305.000,116.500,82.000,23.500
1.796,305.500,116.500,81.500,23.500
1.797,306.000,116.500,81.000,23.000
1.798,307.000,117.500,81.500,23.000
1.799,307.500,118.000,81.000,23.000
1.800,308.000,119.500,81.000,23.500
1.801,308.000,120.500,80.000,23.500
1.802,308.000,121.500,80.000,24.500
1.803,307.500,122.000,79.000,25.000
1.804,307.000,122.500,78.500,26.000
1.805,306.000,122.500,78.000,26.500
1.806,305.500,123.000,77.500,27.000
1.807,304.500,122.500,77.000,27.500
1.808,304.500,122.500,76.500,28.000
1.809,303.500,122.000,76.000,28.500
1.810,303.500,122.000,75.500,29.000
1.811,302.500,121.000,75.000,29.000
1.812,302.500,121.000,74.500,29.500
1.813,302.000,120.000,74.000,29.500
1.814,302.000,120.000,74.000,30.000
1.815,301.000,120.000,74.000,30.500
1.816,301.500,120.000,74.500,31.000
1.817,300.500,120.000,75.000,31.000
1.818,301.000,120.500,75.500,31.500
1.819,300.500,121.000,76.000,32.000
1.820,300.500,121.500,77.000,32.500
1.821,300.000,121.500,78.000,33.000
1.822,300.000,122.000,78.500,34.000
1.823,299.500,121.500,79.000,34.500
1.824,299.500,122.000,79.000,35.000
1.825,299.000,121.500,79.000,35.000
1.826,299.500,121.000,79.000,35.000
1.827,299.000,120.500,78.500,35.000
1.828,299.500,120.000,78.000,35.000
1.829,299.500,119.500,77.000,34.500
1.830,300.000,119.500,77.000,34.500
1.831,299.500,119.000,76.500,34.000
1.832,299.500,118.500,77.000,34.500
1.833,298.500,118.000,77.000,34.000
1.834,298.500,117.500,77.500,34.000
1.835,298.000,116.500,78.000,33.500
1.836,298.000,116.000,79.000,33.500
1.837,297.000,115.500,80.000,33.500
1.838,297.000,115.500,81.000,34.000
1.839,296.000,115.000,82.000,34.500
1.840,295.500,115.000,82.500,35.000
1.841,294.000,115.000,82.500,35.000
1.842,293.000,115.000,82.500,35.500
1.843,290.500,114.000,82.000,35.000
1.844,289.000,113.500,81.500,35.000
1.845,286.000,112.000,80.000,34.500
1.846,283.500,110.000,79.000,33.500
1.847,280.000,107.500,77.000,32.500
1.848,278.000,105.000,76.000,31.500
1.849,275.500,103.000,75.000,31.000
1.850,275.000,102.500,75.000,31.500
1.851,274.500,103.000,76.500,33.000
1.852,276.000,106.000,79.500,36.000
1.853,277.500,109.500,83.500,39.500
1.854,280.500,115.000,88.000,44.000
1.855,282.500,120.000,91.500,47.500
1.856,285.500,125.000,94.500,50.500
1.857,288.000,128.500,96.500,52.000
1.858,291.000,132.000,97.500,53.000
1.859,293.000,134.000,97.000,52.000
1.860,296.500,135.500,96.000,51.000
1.861,298.500,135.500,94.000,48.500
1.862,301.000,135.500,92.000,46.000
1.863,302.000,134.000,89.000,43.500
1.864,303.000,132.500,86.000,41.000
1.865,301.500,130.000,83.000,38.500
1.866,300.000,127.500,80.500,37.000
1.867,297.000,124.500,78.000,35.500
1.868,294.500,122.000,75.500,35.000
1.869,291.000,119.000,73.500,34.500
1.870,288.500,117.000,72.000,34.000
1.871,286.000,115.000,70.500,33.500
1.872,285.000,114.500,69.500,33.500
1.873,284.000,114.000,69.000,33.000
1.874,284.000,115.000,69.500,33.500
1.875,284.000,116.000,69.500,33.000
1.876,284.500,117.000,69.500,33.500
1.877,284.500,117.500,69.500,33.000
1.878,284.500,118.500,69.500,33.500
1.879,283.500,119.000,69.000,33.500
1.880,283.500,120.000,69.000,33.500
1.881,282.000,120.000,68.500,33.500
1.882,281.500,120.500,68.500,34.000
1.883,280.500,121.000,67.500,33.500
1.884,280.500,121.500,67.000,33.500
1.885,279.500,121.500,66.500,33.500
1.886,279.500,121.500,66.000,33.500
1.887,279.500,121.500,65.000,33.500
1.888,280.000,121.500,64.500,33.500
1.889,280.500,120.500,63.500,32.500
1.890,281.500,120.500,63.000,32.000
1.891,281.500,119.500,61.500,31.000
1.892,282.500,118.500,60.500,30.000
1.893,282.500,117.000,59.000,28.500
1.894,283.500,116.000,58.000,27.500
1.895,283.500,115.000,57.000,27.000
1.896,284.000,114.500,56.500,27.000
1.897,283.500,114.000,55.500,27.500
1.898,283.500,114.000,55.000,28.000
1.899,282.500,113.500,54.500,28.500
1.900,282.500,113.500,54.000,29.000
1.901,281.000,113.000,53.500,29.000
1.902,280.500,113.000,53.500,29.500
1.903,279.000,113.000,54.000,30.000
1.904,278.500,113.500,54.500,30.500
1.905,277.500,113.500,55.000,31.000
1.906,277.500,114.000,55.500,31.500
1.907,277.000,114.000,56.000,32.000
1.908,277.000,114.500,56.500,32.500
1.909,276.500,114.500,56.000,33.000
1.910,276.500,115.500,56.000,33.000
1.911,275.000,116.000,55.000,33.000
1.912,274.500,117.000,54.000,33.000
1.913,272.500,117.000,53.000,33.000
1.914,271.500,118.000,52.500,32.500
1.915,269.500,118.000,51.500,32.500
1.916,269.000,119.000,51.500,32.500
1.917,268.000,119.000,51.000,32.500
1.918,267.500,120.000,51.500,32.500
1.919,266.500,121.000,51.000,32.500
1.920,266.500,122.000,51.500,33.000
1.921,265.500,123.000,51.000,33.500
1.922,265.000,124.000,51.500,34.000
1.923,264.500,124.000,51.500,34.500
1.924,264.500,124.000,52.000,35.500
1.925,264.000,123.500,52.000,35.500
1.926,264.000,123.000,52.500,36.000
1.927,263.500,121.500,52.500,36.000
1.928,263.500,121.000,53.000,36.000
1.929,262.500,120.000,52.500,36.000
1.930,262.000,120.000,52.500,36.000
1.931,260.500,119.500,52.000,36.000
1.932,260.000,119.500,51.500,36.500
1.933,258.500,119.000,51.000,36.500
1.934,258.500,119.500,51.000,37.500
1.935,258.000,119.000,51.000,38.000
1.936,258.500,119.500,51.500,39.000
1.937,258.000,119.000,52.000,39.500
1.938,259.000,119.000,52.500,40.000
1.939,259.500,118.500,52.500,40.500
1.940,260.500,118.500,53.000,41.000
1.941,261.000,118.500,52.500,41.000
1.942,262.500,119.000,52.500,41.500
1.943,262.500,119.000,52.500,42.000
1.944,263.500,120.000,53.000,43.000
1.945,263.500,120.500,53.500,44.000
1.946,264.000,122.000,54.500,45.500
1.947,263.500,123.000,55.000,46.000
1.948,263.500,124.000,56.000,46.500
1.949,262.500,124.500,56.500,46.500
1.950,262.000,125.500,57.000,47.000
1.951,261.000,125.500,57.000,46.500
1.952,261.000,126.500,57.000,46.000
1.953,260.000,127.000,57.000,45.500
1.954,260.000,128.500,57.500,45.500
1.955,259.000,129.000,57.500,45.000
1.956,259.500,130.000,58.500,45.500
1.957,259.000,130.500,59.500,46.000
1.958,259.000,131.500,61.500,47.500
1.959,258.500,132.000,63.500,48.500
1.960,259.500,132.500,65.500,49.500
1.961,259.500,132.500,66.500,50.500
1.962,260.000,133.000,68.000,52.000
1.963,259.500,133.000,68.500,53.000
1.964,259.500,133.500,69.000,54.000
1.965,259.000,133.500,69.000,54.500
1.966,259.000,134.000,69.000,55.000
1.967,258.000,134.000,69.500,55.000
1.968,258.000,135.000,70.500,56.000
1.969,257.500,135.500,71.500,56.500
1.970,258.000,137.000,73.500,57.500
1.971,257.500,138.000,75.000,58.000
1.972,258.000,139.500,76.500,59.000
1.973,258.000,140.000,77.000,59.000
1.974,258.500,141.000,78.000,60.000
1.975,258.000,141.000,78.000,60.000
1.976,258.500,141.000,78.500,60.500
1.977,258.000,140.000,79.000,60.500
1.978,258.500,140.000,80.000,60.500
1.979,258.000,139.000,80.500,61.000
1.980,258.000,138.500,81.000,61.500
1.981,257.500,138.000,81.500,62.000
1.982,257.000,138.000,82.500,63.000
1.983,255.500,138.000,82.500,63.500
1.984,254.500,139.000,83.500,64.500
1.985,253.000,140.000,84.000,65.000
1.986,252.000,141.000,85.000,65.500
1.987,250.000,142.000,85.500,65.500
1.988,249.500,144.000,86.500,65.500
1.989,248.500,145.000,87.000,65.500
1.990,248.500,147.000,88.000,66.000
1.991,248.000,148.000,88.500,65.500
1.992,248.500,149.500,89.500,66.000
1.993,248.000,150.500,89.500,66.500
1.994,248.500,152.000,90.500,67.000
1.995,248.000,152.500,90.500,67.000
1.996,248.000,153.500,91.500,67.500
1.997,247.000,153.500,91.500,67.500
1.998,247.500,154.000,92.000,68.000
1.999,247.000,154.000,92.500,68.500
2.000,247.000,154.500,93.500,69.000
2.001,246.500,154.500,94.500,69.500
2.002,247.000,155.000,96.000,71.000
2.003,246.500,155.000,97.000,72.500
2.004,246.500,155.500,98.500,74.000
2.005,245.500,155.500,99.000,75.000
2.006,245.500,155.500,100.000,76.000
2.007,244.500,155.000,100.000,77.000
2.008,243.500,155.000,100.500,78.000
2.009,242.000,154.500,100.500,78.000
2.010,241.000,154.500,101.000,78.500
2.011,239.500,154.500,101.000,78.500
2.012,239.000,155.000,101.500,78.500
2.013,238.000,154.500,101.000,78.000
2.014,238.000,155.000,101.000,77.500
2.015,238.000,154.500,100.500,77.000
2.016,238.500,155.000,100.500,77.000
2.017,238.500,154.500,100.500,77.000
2.018,239.000,154.500,100.500,77.000
2.019,239.500,154.000,100.000,76.500
2.020,240.000,153.500,100.000,77.000
2.021,240.000,153.000,100.000,77.000
2.022,241.000,152.500,100.000,77.000
2.023,241.000,152.000,100.000,77.000
2.024,242.000,152.500,100.000,77.000
2.025,242.500,152.000,99.500,77.000
2.026,243.000,152.500,99.000,77.000
2.027,243.000,152.500,98.000,76.500
2.028,243.500,153.000,97.000,76.500
2.029,243.000,153.000,96.000,76.500
2.030,243.500,153.500,95.500,76.500
2.031,243.000,153.000,94.500,76.500
2.032,243.500,153.000,93.500,76.500
2.033,243.000,152.500,92.500,76.000
2.034,242.500,152.000,91.500,76.000
2.035,241.500,151.000,90.500,75.500
2.036,241.500,151.000,90.000,76.000
2.037,240.500,150.500,89.000,75.500
2.038,240.500,150.500,88.000,76.000
2.039,239.500,150.000,87.000,76.000
2.040,240.000,150.500,87.000,76.500
2.041,239.500,150.500,86.500,76.500
2.042,240.000,151.000,86.500,77.500
2.043,240.000,151.000,86.000,77.500
2.044,240.500,151.000,86.500,78.000
2.045,240.500,151.000,86.500,78.000
2.046,241.500,151.000,87.000,78.500
2.047,241.000,151.000,87.500,78.500
2.048,241.000,151.500,87.500,78.500
2.049,240.000,151.000,87.500,78.500
2.050,240.000,151.500,87.000,78.500
2.051,238.500,151.500,86.500,77.500
2.052,238.000,152.500,86.000,77.500
2.053,237.000,152.500,85.500,77.000
2.054,237.000,153.500,86.000,77.000
2.055,236.500,154.000,86.000,77.000
2.056,236.500,155.000,86.500,77.500
2.057,236.000,155.500,87.000,77.500
2.058,236.000,156.500,87.000,78.000
2.059,235.000,156.500,87.000,77.500
2.060,235.000,157.000,87.500,77.500
2.061,234.000,157.000,87.500,77.500
2.062,234.500,157.000,88.500,77.500
2.063,234.000,157.000,88.500,77.500
2.064,234.000,157.500,89.500,78.000
2.065,233.500,157.000,90.000,78.000
2.066,233.500,157.500,91.000,78.000
2.067,232.500,157.500,91.000,78.000
2.068,232.000,158.000,91.000,78.000
2.069,230.500,158.000,91.000,78.000
2.070,230.000,158.500,91.500,78.500
2.071,229.000,159.000,91.500,78.500
2.072,228.500,160.000,91.500,79.000
2.073,227.000,160.500,91.500,78.500
2.074,226.500,161.500,91.500,78.500
2.075,225.000,162.000,91.000,78.000
2.076,225.000,162.500,91.000,78.000
2.077,224.000,162.500,90.000,78.000
2.078,224.000,163.000,90.000,78.000
2.079,223.500,163.000,89.500,77.500
2.080,224.000,163.500,89.500,78.000
2.081,223.500,163.000,89.000,78.000
2.082,223.500,163.500,89.500,78.000
2.083,222.500,163.500,89.500,78.000
2.084,222.500,164.000,90.500,78.500
2.085,221.500,164.000,90.500,78.500
2.086,221.500,165.000,91.500,79.000
2.087,221.000,165.500,91.500,79.000
2.088,221.000,166.500,92.000,79.500
2.089,221.000,167.000,91.500,79.500
2.090,221.000,168.000,92.000,80.000
2.091,220.500,168.000,91.500,80.000
2.092,220.500,169.000,91.500,80.000
2.093,220.000,168.500,91.000,80.000
2.094,220.000,168.500,90.500,80.000
2.095,219.000,167.500,90.000,79.500
2.096,219.000,167.000,90.000,79.500
2.097,218.500,166.000,90.000,79.500
2.098,219.000,166.000,90.000,79.500
2.099,218.500,165.000,89.500,79.500
2.100,219.000,165.000,89.500,80.000
2.101,218.500,164.500,89.500,80.000
2.102,219.500,164.500,89.500,80.500
2.103,219.000,164.000,89.000,80.500
2.104,219.500,164.500,89.000,80.500
2.105,219.500,164.000,89.000,80.500
2.106,220.000,164.500,89.500,81.000
2.107,219.500,164.500,90.000,81.000
2.108,220.000,164.500,91.000,81.500
2.109,220.000,163.500,91.500,81.000
2.110,220.500,163.500,92.000,81.000
2.111,220.000,163.000,92.500,81.000
2.112,220.000,163.500,93.000,81.000
2.113,219.500,163.000,93.000,80.500
2.114,219.500,163.500,93.500,80.500
2.115,219.500,163.500,93.500,80.500
2.116,220.000,164.000,93.500,80.500
2.117,220.000,164.000,93.000,80.500
2.118,220.500,164.500,93.000,80.500
2.119,220.500,164.500,93.000,80.000
2.120,221.000,165.000,94.000,81.000
2.121,221.000,165.000,94.000,81.500
2.122,222.000,165.500,95.000,82.500
2.123,221.500,166.000,95.000,83.000
2.124,221.500,167.500,96.000,83.500
2.125,220.500,168.000,96.000,83.500
2.126,220.500,168.500,96.000,83.500
2.127,219.500,168.500,96.000,83.000
2.128,219.000,169.500,96.000,82.500
2.129,218.000,169.500,95.500,82.000
2.130,218.000,169.500,95.500,82.000
2.131,217.500,169.000,95.500,82.000
2.132,218.000,169.500,96.000,82.000
2.133,218.000,169.000,96.000,82.000
2.134,218.500,170.000,96.500,83.000
2.135,217.500,170.000,96.500,83.000
2.136,217.500,171.000,97.500,84.000
2.137,216.500,172.000,97.500,84.000
2.138,216.000,173.000,97.500,84.000
2.139,215.500,173.000,97.000,84.000
2.140,215.500,173.500,97.000,84.000
2.141,215.000,173.500,96.000,83.500
2.142,215.500,174.500,96.000,84.000
2.143,215.500,175.000,96.000,84.500
2.144,216.000,176.500,96.500,85.500
2.145,216.000,177.000,96.500,86.500
2.146,216.500,178.500,97.500,87.500
2.147,216.000,179.500,98.000,88.500
2.148,216.000,180.500,99.000,89.000
2.149,215.500,181.000,99.500,89.000
2.150,215.500,182.000,100.500,89.000
2.151,215.000,182.000,101.000,88.000
2.152,215.000,182.500,102.000,88.000
2.153,214.500,182.000,102.500,87.000
2.154,215.000,182.500,103.500,87.000
2.155,214.500,182.000,104.000,86.500
2.156,214.500,182.500,104.500,87.000
2.157,214.000,182.000,105.000,87.000
2.158,214.500,182.500,105.500,88.000
2.159,214.000,182.500,106.000,88.500
2.160,214.000,183.000,106.500,89.500
2.161,213.500,182.500,107.000,90.000
2.162,213.500,182.500,107.500,90.500
2.163,213.500,181.500,107.000,90.500
2.164,214.000,181.000,107.000,91.000
2.165,213.500,179.500,106.500,91.000
2.166,214.000,178.500,106.000,91.000
2.167,213.500,176.500,105.500,90.500
2.168,214.000,175.500,105.500,90.500
2.169,213.000,173.500,105.500,90.000
2.170,212.500,172.500,106.000,90.000
2.171,210.500,171.500,107.000,89.500
2.172,209.500,171.000,108.000,89.500
2.173,208.000,170.000,109.000,89.500
2.174,207.500,170.000,110.000,90.000
2.175,206.000,169.000,110.000,89.500
2.176,206.000,169.000,111.000,90.000
2.177,205.500,168.500,111.000,89.500
2.178,205.500,168.000,111.000,89.500
2.179,205.500,167.500,110.000,89.500
2.180,205.500,167.500,110.000,89.500
2.181,205.000,167.500,109.500,89.000
2.182,205.500,168.000,109.500,89.500
2.183,205.000,168.000,110.000,89.500
2.184,206.000,169.000,110.500,90.000
2.185,206.000,169.500,111.000,90.000
2.186,206.500,170.500,112.000,90.000
2.187,206.500,171.000,112.000,90.000
2.188,207.500,172.000,112.500,89.500
2.189,207.000,172.000,112.000,88.500
2.190,207.000,173.000,111.500,88.000
2.191,205.500,173.500,110.500,87.000
2.192,204.500,174.500,110.000,86.500
2.193,203.000,174.500,109.500,86.000
2.194,202.000,175.500,109.000,86.000
2.195,200.500,175.500,108.500,85.500
2.196,200.000,175.500,108.500,86.000
2.197,199.000,174.500,108.000,85.500
2.198,198.500,174.000,107.500,85.000
2.199,198.000,172.500,106.500,84.500
2.200,198.500,172.000,106.000,84.500
2.201,198.500,170.500,105.500,84.000
2.202,200.000,170.000,105.500,84.000
2.203,200.500,168.500,105.500,83.500
2.204,202.000,168.000,106.000,84.000
2.205,202.500,167.000,106.000,84.000
2.206,203.500,166.000,106.500,84.500
2.207,203.000,164.500,106.000,84.500
2.208,203.500,164.000,106.500,84.500
2.209,203.000,162.500,106.000,83.500
2.210,202.500,162.000,106.000,83.500
2.211,201.500,160.500,105.500,82.500
2.212,201.000,160.000,105.000,82.000
2.213,200.000,159.500,104.000,81.500
2.214,200.000,159.500,104.000,81.000
2.215,199.000,159.000,103.500,80.000
2.216,198.500,159.500,104.000,80.500
2.217,197.500,160.000,104.000,80.500
2.218,197.000,160.500,105.000,81.500
2.219,196.000,160.500,105.500,82.000
2.220,195.500,161.000,106.500,83.000
2.221,194.000,160.500,106.500,83.500
2.222,193.500,160.000,107.000,84.500
2.223,192.500,159.000,106.500,84.500
2.224,191.500,158.000,106.000,84.500
2.225,190.000,156.500,105.500,84.500
2.226,188.500,155.500,104.500,84.500
2.227,186.500,154.000,103.500,84.500
2.228,184.500,153.500,102.500,85.000
2.229,182.000,153.000,102.500,85.500
2.230,180.500,154.500,104.000,87.000
2.231,179.500,156.000,106.000,88.500
2.232,180.500,159.500,110.000,91.500
2.233,182.000,163.500,114.500,94.000
2.234,185.000,168.500,120.000,97.500
2.235,188.000,173.000,124.500,100.000
2.236,191.500,177.500,129.000,102.500
2.237,195.000,181.500,132.500,104.500
2.238,198.500,185.000,135.500,106.000
2.239,201.000,187.500,137.500,106.500
2.240,203.500,189.500,139.000,106.500
2.241,204.500,190.500,139.000,106.000
2.242,206.000,191.000,139.500,105.000
2.243,205.500,189.500,138.500,103.000
2.244,205.000,187.500,137.500,101.500
2.245,203.500,184.500,135.500,100.000
2.246,202.000,181.000,133.500,98.500
2.247,199.500,177.000,130.500,97.000
2.248,197.000,174.000,128.500,96.000
2.249,194.500,170.500,125.500,95.000
2.250,192.500,168.500,123.500,94.000
2.251,191.000,167.000,121.500,93.500
2.252,190.000,167.000,120.500,93.000
2.253,189.500,167.500,119.500,93.000
2.254,189.500,168.500,119.500,93.500
2.255,189.500,169.000,119.500,93.500
2.256,190.000,170.500,120.000,94.500
2.257,189.500,171.000,119.500,95.000
2.258,190.000,172.000,120.000,96.000
2.259,189.500,172.500,119.500,96.500
2.260,190.000,173.500,119.500,97.500
2.261,189.500,173.000,119.000,98.000
2.262,190.000,173.500,118.500,98.000
2.263,190.000,172.500,117.500,98.000
2.264,191.000,172.500,116.500,98.000
2.265,191.000,171.500,115.500,97.500
2.266,192.500,171.000,115.000,97.500
2.267,193.000,170.000,114.000,96.500
2.268,194.000,169.500,113.500,96.000
2.269,194.000,168.000,113.000,95.500
2.270,194.000,167.500,112.500,95.000
2.271,193.000,166.000,112.000,94.500
2.272,193.000,165.500,112.500,94.500
2.273,192.000,164.000,112.000,94.500
2.274,192.000,163.500,112.500,95.000
2.275,191.000,162.500,112.500,95.000
2.276,191.000,161.500,113.000,95.000
2.277,190.500,160.000,113.000,95.000
2.278,190.500,159.000,113.000,95.500
2.279,190.000,158.000,113.000,95.500
2.280,190.500,157.500,114.000,96.500
2.281,190.500,156.500,114.000,97.500
2.282,191.000,157.000,115.000,99.000
2.283,191.000,156.500,115.500,100.000
2.284,192.000,157.500,116.500,101.000
2.285,191.500,157.500,116.500,101.000
2.286,192.000,158.500,116.500,102.000
2.287,192.000,158.500,116.000,102.000
2.288,192.000,159.500,116.000,102.500
2.289,191.000,160.000,115.500,102.500
2.290,191.000,160.000,115.500,102.500
2.291,190.500,159.500,115.000,102.500
2.292,191.000,159.500,114.500,103.000
2.293,191.000,159.000,113.500,102.500
2.294,191.500,159.500,113.000,102.500
2.295,191.500,159.000,112.500,102.000
2.296,192.500,159.500,112.500,102.000
2.297,192.500,160.000,112.000,101.000
2.298,193.000,161.000,112.000,101.000
2.299,193.000,161.000,112.000,100.500
2.300,193.500,162.000,112.500,100.500
2.301,193.500,162.000,113.000,100.000
2.302,194.500,162.500,113.500,100.500
2.303,194.000,162.500,114.000,101.000
2.304,194.500,163.000,114.500,101.500
2.305,194.000,162.500,114.500,102.000
2.306,193.500,163.000,115.000,102.500
2.307,192.500,162.500,114.500,102.000
2.308,192.000,162.500,115.000,102.500
2.309,191.000,162.000,114.500,102.000
2.310,191.000,162.000,115.000,102.000
2.311,190.000,161.500,115.500,101.500
2.312,190.500,161.500,116.500,101.500
2.313,190.000,161.000,117.000,100.500
2.314,190.500,161.500,118.000,100.500
2.315,190.000,161.500,119.000,100.000
2.316,190.000,162.500,120.500,100.000
2.317,189.500,163.500,121.500,100.000
2.318,190.000,164.500,123.000,100.000
2.319,190.000,165.500,124.000,100.000
2.320,190.500,167.000,125.000,100.000
2.321,191.000,167.500,125.500,99.500
2.322,192.000,169.000,126.500,99.500
2.323,192.500,170.000,127.000,99.000
2.324,193.500,171.000,127.500,99.000
2.325,194.000,171.000,127.500,98.500
2.326,194.500,172.000,128.000,98.000
2.327,194.500,172.500,128.000,97.500
2.328,195.500,173.000,128.000,97.500
2.329,195.500,173.000,127.500,96.500
2.330,195.500,173.000,127.500,96.500
2.331,195.000,172.500,127.000,96.500
2.332,195.000,172.500,127.500,96.500
2.333,194.500,171.500,127.500,96.000
2.334,194.500,171.000,128.000,95.500
2.335,194.500,170.500,128.500,95.000
2.336,194.500,170.500,129.500,95.500
2.337,194.500,170.000,129.500,95.000
2.338,195.500,170.000,130.000,95.500
2.339,195.500,170.000,130.500,95.500
2.340,196.000,170.000,131.000,96.000
2.341,196.000,169.500,131.000,96.000
2.342,196.500,170.000,131.000,97.000
2.343,196.500,169.500,131.000,97.000
2.344,197.000,170.000,131.500,98.000
2.345,197.000,169.500,131.500,98.000
2.346,197.500,169.500,131.500,98.000
2.347,197.500,169.000,131.000,97.500
2.348,198.000,169.000,130.500,97.000
2.349,197.500,168.000,129.500,96.000
2.350,197.500,167.500,128.500,95.500
2.351,197.000,167.000,127.500,94.500
2.352,197.500,167.000,127.000,94.000
2.353,196.500,167.000,126.000,93.500
2.354,196.500,167.000,126.000,93.500
2.355,196.000,167.000,125.500,92.500
2.356,196.000,167.000,126.000,92.500
2.357,195.500,166.500,126.000,92.500
2.358,195.500,167.000,126.500,92.500
2.359,195.500,166.500,126.500,92.500
2.360,195.500,167.000,127.000,93.000
2.361,195.000,167.500,127.000,93.500
2.362,195.000,168.500,127.500,94.500
2.363,194.500,169.000,127.000,95.500
2.364,194.500,171.000,127.000,97.000
2.365,194.000,172.000,126.500,98.000
2.366,194.000,173.000,126.500,99.000
2.367,193.000,173.500,125.500,99.000
2.368,193.000,174.000,125.000,99.500
2.369,192.000,174.000,124.000,99.000
2.370,192.000,174.500,123.500,99.500
2.371,191.500,174.500,123.000,99.000
2.372,191.500,175.000,123.000,99.500
2.373,190.500,175.000,122.000,99.500
2.374,190.500,175.500,122.000,100.000
2.375,190.000,176.000,121.500,100.000
2.376,190.500,177.000,121.500,101.500
2.377,190.500,177.500,122.000,102.500
2.378,191.500,178.500,123.000,104.500
2.379,192.000,179.500,124.000,106.000
2.380,193.000,180.500,125.500,108.000
2.381,193.500,181.000,126.000,109.500
2.382,194.500,182.000,127.000,111.500
2.383,195.000,181.500,127.000,112.500
2.384,196.000,181.500,127.000,114.000
2.385,196.000,181.000,126.000,114.500
2.386,196.000,180.500,125.000,115.500
2.387,195.500,179.500,123.000,116.000
2.388,195.000,179.000,121.500,116.000
2.389,193.500,178.000,119.500,115.500
2.390,192.500,177.500,118.000,115.000
2.391,191.000,176.500,115.500,114.000
2.392,190.500,176.500,113.500,112.500
2.393,189.000,175.500,111.000,110.500
2.394,188.500,174.500,108.500,108.000
2.395,187.500,172.500,105.000,105.000
2.396,187.000,170.500,101.000,102.000
2.397,186.000,167.500,95.500,97.500
2.398,185.500,164.000,89.500,93.500
2.399,184.000,160.000,82.500,88.000
2.400,183.500,155.500,74.500,82.500
2.401,182.500,151.000,66.000,76.000
2.402,182.000,147.000,57.500,70.000
2.403,181.000,142.500,49.000,63.500
2.404,180.500,139.000,42.000,58.000
2.405,179.500,135.000,35.000,53.000
2.406,179.500,132.500,29.500,48.500
2.407,179.000,129.500,24.000,44.000
2.408,179.000,127.500,19.500,39.500
2.409,178.000,125.500,15.000,35.000
2.410,178.000,124.500,11.500,31.000
2.411,177.500,123.500,8.500,28.000
2.412,177.500,124.000,8.000,26.500
2.413,177.500,125.000,9.000,26.000
2.414,178.000,128.000,13.000,28.000
2.415,178.500,131.500,19.000,31.000
2.416,180.000,137.000,28.500,35.500
2.417,181.000,142.500,38.500,40.000
2.418,182.500,149.000,50.000,45.000
2.419,183.500,155.000,61.000,49.500
2.420,185.000,161.000,72.000,54.000
2.421,186.000,166.500,81.500,57.000
2.422,187.500,171.500,90.000,60.500
2.423,188.500,175.000,97.000,62.500
2.424,190.500,179.000,103.000,65.500
2.425,191.500,182.000,108.000,67.500
2.426,192.500,184.500,112.500,70.000
2.427,193.000,186.500,115.500,71.500
2.428,194.000,188.000,118.000,73.500
2.429,194.500,189.000,120.000,75.000
2.430,195.000,190.000,122.000,76.500
2.431,195.500,190.000,123.500,78.000
2.432,196.000,190.000,125.000,80.500
2.433,196.000,189.500,126.000,82.000
2.434,196.500,189.000,127.000,84.000
2.435,196.000,188.500,127.000,84.500
2.436,196.000,188.000,127.500,85.500
2.437,195.500,187.500,127.000,85.500
2.438,195.500,188.000,127.000,86.000
2.439,195.000,187.500,126.500,86.000
2.440,195.000,188.000,126.000,86.000
2.441,194.500,187.500,125.500,86.000
2.442,194.500,187.000,125.000,87.000
2.443,194.000,186.000,124.500,87.000
2.444,194.500,185.500,124.500,88.000
2.445,194.500,184.500,124.500,88.500
2.446,194.500,184.000,125.000,90.000
2.447,194.000,182.500,125.000,91.500
2.448,194.000,182.000,126.000,93.500
2.449,193.000,181.000,126.500,94.500
2.450,192.500,181.000,127.500,96.500
2.451,191.500,180.000,128.000,97.500
2.452,191.500,180.000,128.500,99.000
2.453,190.500,179.500,129.000,100.000
2.454,190.500,179.500,130.000,101.500
2.455,190.000,179.500,130.500,102.000
2.456,190.000,180.500,132.000,103.000
2.457,189.500,180.500,133.000,103.500
2.458,189.500,181.000,134.500,104.500
2.459,189.000,180.500,135.000,104.500
2.460,189.000,181.000,136.000,104.500
2.461,189.000,180.500,135.500,104.500
2.462,189.000,181.000,135.500,104.000
2.463,189.000,180.500,135.000,103.000
2.464,189.000,181.000,134.500,102.500
2.465,188.000,180.500,133.500,101.500
2.466,188.000,181.000,133.500,101.000
2.467,187.500,180.500,132.500,100.000
2.468,187.500,181.000,132.500,99.500
2.469,187.000,181.000,132.000,98.500
2.470,187.500,182.000,132.500,98.500
2.471,187.500,182.000,132.000,98.000
2.472,188.000,183.000,132.500,97.500
2.473,188.000,183.000,132.500,97.000
2.474,188.500,184.000,133.500,96.500
2.475,188.000,184.000,134.000,96.000
2.476,188.000,184.500,135.500,96.500
2.477,187.000,184.500,136.500,96.500
2.478,187.000,185.000,138.000,97.000
2.479,186.000,184.500,139.000,97.000
2.480,186.000,184.500,140.000,97.000
2.481,186.000,184.000,140.000,96.500
2.482,186.000,184.500,140.500,96.500
2.483,186.000,184.000,140.500,96.000
2.484,186.500,184.500,141.500,96.500
2.485,186.500,184.500,141.500,96.000
2.486,187.000,185.000,141.500,96.500
2.487,187.000,185.000,141.500,96.500
2.488,187.000,185.500,142.000,97.000
2.489,186.500,185.000,142.000,96.500
2.490,187.000,185.000,142.500,96.500
2.491,187.000,184.500,142.000,96.000
2.492,187.500,185.000,142.000,96.000
2.493,187.500,184.500,141.500,95.000
2.494,188.500,185.000,141.500,95.000
2.495,189.000,184.500,141.000,94.500
2.496,190.000,184.500,141.500,95.000
2.497,190.500,184.000,141.000,94.500
2.498,191.000,184.500,141.500,95.000
2.499,191.000,184.000,141.500,95.000
2.500,191.500,184.500,142.000,95.500
2.501,191.000,184.500,142.500,96.000
2.502,191.500,185.000,143.000,96.500
2.503,191.000,185.000,143.500,97.000
2.504,191.500,185.500,144.000,98.000
2.505,191.000,185.000,144.000,98.500
2.506,191.000,185.500,144.500,99.000
2.507,190.500,185.500,144.500,99.000
2.508,190.500,186.000,145.000,99.500
2.509,190.000,186.000,145.500,99.500
2.510,190.000,186.500,146.500,99.500
2.511,189.500,187.000,147.000,99.000
2.512,189.500,187.500,148.500,99.000
2.513,189.000,187.500,149.000,98.500
2.514,189.000,188.000,149.500,98.500
2.515,188.500,187.500,149.500,98.000
2.516,189.000,188.000,150.500,98.000
2.517,188.500,187.500,150.500,98.000
2.518,189.000,187.500,151.000,98.000
2.519,189.000,186.500,151.000,98.000
2.520,189.500,186.500,151.500,98.500
2.521,189.500,185.500,151.500,98.500
2.522,190.500,185.500,152.000,99.000
2.523,190.000,185.500,152.000,99.500
2.524,190.500,186.000,153.000,100.500
2.525,190.000,186.500,153.000,101.000
2.526,190.000,187.500,154.000,102.000
2.527,190.000,187.500,154.500,102.000
2.528,190.000,188.500,154.500,102.000
2.529,190.000,188.000,154.000,101.500
2.530,190.500,188.500,154.500,101.500
2.531,190.000,188.500,154.000,100.500
2.532,190.000,189.000,154.500,100.500
2.533,189.500,188.500,154.000,100.000
2.534,189.000,188.500,153.500,100.000
2.535,188.500,187.500,153.000,99.500
2.536,188.500,187.500,153.000,99.500
2.537,188.500,187.000,153.000,99.500
2.538,189.500,187.000,153.500,100.000
2.539,190.000,187.000,154.000,100.500
2.540,191.500,187.500,155.500,101.500
2.541,192.000,187.500,156.000,102.000
2.542,192.500,188.500,157.000,102.500
2.543,192.500,188.500,157.500,103.000
2.544,192.500,189.000,158.000,103.500
2.545,192.000,189.000,157.500,103.500
2.546,191.500,189.500,157.500,104.000
2.547,191.000,189.000,157.000,104.000
2.548,190.500,189.500,157.000,103.500
2.549,189.500,189.000,156.500,102.500
2.550,189.000,189.000,156.500,102.000
2.551,188.000,188.000,156.500,101.000
2.552,188.000,187.500,156.500,100.000
2.553,187.500,186.500,156.000,98.500
2.554,187.500,186.000,156.000,97.500
2.555,187.500,184.500,155.500,96.000
2.556,188.000,184.000,155.000,95.000
2.557,188.000,183.000,155.000,93.500
2.558,189.000,183.500,155.500,93.000
2.559,189.500,183.000,156.500,92.500
2.560,190.500,184.000,158.000,92.500
2.561,190.500,184.000,158.500,92.500
2.562,191.500,185.000,160.000,93.000
2.563,192.000,184.500,160.000,92.500
2.564,193.000,185.000,161.000,93.000
2.565,193.000,184.500,160.500,92.500
2.566,193.500,184.500,161.000,92.500
2.567,193.500,183.500,161.000,91.500
2.568,194.000,184.000,162.000,91.000
2.569,193.500,183.500,162.000,90.000
2.570,193.500,184.000,163.000,90.000
2.571,192.500,184.000,163.500,89.500
2.572,192.500,185.000,164.500,90.000
2.573,192.000,185.000,165.500,90.000
2.574,192.000,186.000,167.000,90.500
2.575,191.500,186.000,168.000,90.500
2.576,191.500,186.500,169.500,91.000
2.577,191.500,186.500,170.000,90.500
2.578,192.000,187.000,171.000,90.500
2.579,191.500,186.500,171.500,90.500
2.580,192.000,186.000,172.500,90.500
2.581,191.500,185.500,172.500,90.000
2.582,192.000,185.000,173.500,90.500
2.583,191.500,184.000,174.000,90.500
2.584,192.000,184.000,174.500,91.000
2.585,192.000,183.000,174.500,91.000
2.586,192.500,182.500,175.000,91.000
2.587,192.000,181.500,175.000,90.500
2.588,192.000,181.000,175.500,90.500
2.589,191.500,179.500,175.000,89.500
2.590,191.500,179.000,175.500,89.000
2.591,191.000,177.500,175.000,88.500
2.592,191.000,177.000,175.500,88.000
2.593,190.000,175.500,175.500,87.500
2.594,190.000,174.500,176.000,87.500
2.595,189.500,172.500,176.000,87.000
2.596,190.000,171.500,176.500,87.000
2.597,189.500,170.000,176.000,87.000
2.598,190.000,169.000,175.500,87.000
2.599,190.000,167.500,175.000,87.000
2.600,190.500,167.000,174.500,87.000
2.601,190.500,166.500,173.500,86.500
2.602,191.500,166.500,173.000,86.000
2.603,191.500,166.000,172.000,85.500
2.604,192.000,166.000,171.000,85.000
2.605,192.000,165.500,169.000,84.000
2.606,191.500,165.500,168.000,83.500
2.607,190.000,164.500,166.500,82.500
2.608,189.000,163.500,165.000,82.000
2.609,186.500,161.500,163.500,81.500
2.610,185.500,160.000,162.500,81.000
2.611,184.000,158.500,161.500,81.000
2.612,183.500,158.500,162.500,82.000
2.613,183.500,159.000,164.000,83.500
2.614,185.000,162.000,167.500,86.000
2.615,186.500,165.000,171.000,89.000
2.616,188.500,170.000,175.000,92.000
2.617,190.500,174.000,179.000,95.000
2.618,192.500,178.500,182.500,97.500
2.619,194.500,182.000,184.500,99.500
2.620,196.500,186.000,186.000,100.500
2.621,198.000,188.500,186.000,100.500
2.622,200.000,190.500,185.500,99.500
2.623,201.000,190.500,183.500,97.000
2.624,202.500,190.000,180.500,95.000
2.625,202.000,188.000,177.000,92.000
2.626,202.000,186.000,173.000,89.000
2.627,200.500,182.500,169.000,86.500
2.628,199.000,179.000,165.000,85.000
2.629,196.500,175.500,161.500,84.000
2.630,194.000,172.500,158.500,84.000
2.631,191.500,169.500,155.500,83.500
2.632,189.500,168.000,153.500,84.000
2.633,187.500,167.000,151.500,83.500
2.634,186.500,167.000,151.000,83.500
2.635,185.500,166.500,150.000,83.500
2.636,185.000,167.500,149.500,83.500
2.637,184.500,167.500,149.000,83.000
2.638,185.000,168.500,149.000,83.000
2.639,184.500,168.500,148.500,83.000
2.640,185.000,169.000,148.500,83.500
2.641,185.500,169.000,148.000,83.500
2.642,186.000,169.000,148.000,84.000
2.643,186.000,168.500,148.000,84.500
2.644,187.000,168.500,148.000,85.500
2.645,187.000,168.000,148.000,86.000
2.646,187.000,168.500,148.000,86.500
2.647,186.500,168.500,148.000,86.000
2.648,186.500,168.500,148.000,86.000
2.649,185.500,168.000,148.000,85.000
2.650,185.500,168.000,148.000,84.500
2.651,184.500,167.500,148.000,84.000
2.652,184.500,167.500,149.000,84.000
2.653,183.500,167.500,149.500,84.000
2.654,183.500,168.000,150.500,84.500
2.655,183.000,168.000,150.500,84.500
2.656,183.000,169.000,151.500,85.000
2.657,182.500,169.000,151.500,85.500
2.658,183.000,169.500,152.000,86.500
2.659,183.000,169.500,152.500,87.500
2.660,184.000,170.000,154.000,89.000
2.661,184.000,170.000,154.500,89.500
2.662,185.000,170.500,156.000,91.000
2.663,185.000,170.500,156.500,91.500
2.664,185.500,171.000,157.500,92.500
2.665,185.000,171.000,157.500,92.500
2.666,185.000,172.000,158.000,93.000
2.667,184.000,172.000,158.000,93.000
2.668,183.500,172.500,159.000,93.000
2.669,182.500,172.500,159.500,92.500
2.670,181.500,173.000,160.500,92.500
2.671,180.500,173.500,161.000,92.500
2.672,179.500,174.500,162.500,93.000
2.673,178.500,175.000,163.500,93.500
2.674,178.500,175.500,164.500,94.000
2.675,177.500,175.500,165.000,94.500
2.676,177.500,176.500,166.000,95.000
2.677,177.000,176.500,166.500,96.000
2.678,177.000,176.500,168.000,97.000
2.679,177.000,176.500,169.000,98.000
2.680,177.500,177.000,170.500,99.500
2.681,177.500,176.500,171.500,101.000
2.682,178.500,177.000,172.500,102.500
2.683,178.500,177.000,173.500,103.500
2.684,179.500,177.000,174.500,104.500
2.685,179.500,177.000,174.500,105.000
2.686,180.000,177.000,175.000,106.000
2.687,179.500,177.000,174.500,106.000
2.688,180.000,177.000,175.000,106.000
2.689,180.000,177.000,174.500,105.500
2.690,180.500,177.500,175.000,105.500
2.691,180.500,177.500,174.500,105.000
2.692,181.000,178.000,175.500,104.500
2.693,181.000,178.000,175.500,104.000
2.694,181.500,178.000,176.500,104.500
2.695,181.000,177.500,177.000,104.500
2.696,181.000,177.500,178.000,105.000
2.697,180.500,177.000,178.500,105.000
2.698,181.000,177.500,179.500,106.000
2.699,180.500,177.500,180.000,106.500
2.700,181.000,178.000,181.000,107.500
2.701,180.500,177.500,181.500,108.000
2.702,181.000,178.000,183.000,109.500
2.703,181.000,178.000,183.500,110.000
2.704,181.500,178.500,184.500,111.500
2.705,181.000,178.500,185.000,112.000
2.706,181.500,179.500,186.000,112.500
2.707,181.500,180.000,186.500,112.500
2.708,182.000,181.500,187.000,113.000
2.709,182.000,182.000,187.000,113.000
2.710,183.000,183.000,187.500,113.000
2.711,183.000,183.000,187.500,113.000
2.712,183.500,183.500,187.500,113.000
2.713,183.000,183.500,187.000,112.500
2.714,182.500,183.500,187.000,112.000
2.715,181.500,182.500,186.500,111.500
2.716,181.500,182.500,187.000,111.000
2.717,181.000,181.500,186.500,110.000
2.718,181.000,181.000,186.500,109.500
2.719,180.500,180.500,186.500,108.500
2.720,180.500,180.500,186.500,108.500
2.721,180.000,180.000,186.500,107.500
2.722,180.000,180.000,186.500,107.500
2.723,179.500,180.000,186.500,107.500
2.724,179.000,180.000,187.000,107.500
2.725,178.500,180.000,187.000,107.500
2.726,178.000,180.500,188.000,108.000
2.727,177.500,180.000,188.500,108.000
2.728,177.000,181.000,190.000,108.500
2.729,176.500,181.000,191.000,108.500
2.730,176.500,182.000,193.000,109.000
2.731,175.500,182.500,194.000,108.500
2.732,175.500,183.500,195.000,109.000
2.733,174.500,184.000,195.000,108.500
2.734,175.000,184.500,195.000,109.000
2.735,174.500,184.000,194.500,109.000
2.736,175.000,184.500,195.000,109.500
2.737,175.000,184.000,195.000,109.500
2.738,175.500,184.500,196.000,110.500
2.739,175.000,184.000,196.500,111.500
2.740,175.500,184.000,197.500,112.500
2.741,175.000,184.000,197.500,113.000
2.742,175.500,184.500,198.000,114.000
2.743,175.000,184.500,198.000,114.500
2.744,175.500,185.500,198.000,115.000
2.745,175.500,186.000,198.000,115.000
2.746,176.000,187.000,198.000,115.500
2.747,175.500,187.000,198.000,115.500
2.748,175.500,188.000,198.000,116.000
2.749,175.000,188.000,198.000,116.000
2.750,175.000,188.500,198.000,116.500
2.751,174.000,188.500,197.500,116.500
2.752,174.000,189.000,198.000,117.000
2.753,173.500,188.500,197.500,117.000
2.754,174.000,189.000,197.500,117.500
2.755,174.000,188.500,197.500,117.500
2.756,174.500,189.000,197.500,118.000
2.757,174.500,188.000,197.000,118.000
2.758,175.500,188.000,197.000,118.500
2.759,176.000,186.500,196.000,118.500
2.760,177.000,186.000,195.000,119.000
2.761,177.000,184.500,193.500,118.500
2.762,178.000,183.500,193.000,119.000
2.763,178.500,182.500,192.000,118.500
2.764,179.000,182.000,191.500,119.000
2.765,179.000,181.000,191.000,118.500
2.766,179.500,180.500,190.500,119.000
2.767,179.500,179.500,189.500,118.500
2.768,180.000,179.500,189.500,119.000
2.769,179.500,179.000,188.000,119.000
2.770,179.500,179.000,187.500,119.000
2.771,179.500,178.500,186.500,118.000
2.772,180.000,178.500,185.500,118.000
2.773,180.000,178.000,184.500,117.000
2.774,180.500,178.500,184.000,116.500
2.775,180.000,178.500,183.500,116.000
2.776,180.500,179.000,184.000,116.000
2.777,180.500,179.500,184.000,116.000
2.778,181.000,180.000,185.000,116.500
2.779,181.000,180.000,185.500,117.000
2.780,181.500,180.500,186.500,118.000
2.781,181.500,180.000,186.500,118.000
2.782,182.000,180.500,187.500,119.000
2.783,182.000,180.000,188.000,119.500
2.784,183.000,180.000,189.000,120.500
2.785,183.000,180.000,189.000,121.500
2.786,183.500,180.000,190.000,122.500
2.787,183.500,179.500,190.000,123.500
2.788,184.000,180.000,191.000,124.500
2.789,184.000,179.500,191.000,125.000
2.790,185.000,179.500,191.500,125.500
2.791,185.000,179.500,191.000,125.500
2.792,185.000,180.000,191.500,125.500
2.793,184.500,180.500,191.500,125.500
2.794,184.500,181.000,191.500,125.500
2.795,183.500,181.500,191.500,125.500
2.796,183.500,182.500,192.000,126.000
2.797,183.500,182.500,192.500,126.500
2.798,184.000,183.000,193.000,127.500
2.799,184.000,183.000,193.500,128.000
2.800,184.500,183.500,194.000,129.000
2.801,184.000,183.500,194.500,130.000
2.802,184.500,184.000,195.500,131.500
2.803,183.500,183.500,195.500,132.500
2.804,183.500,184.000,196.500,133.500
2.805,182.000,184.000,197.000,134.500
2.806,181.500,185.000,197.500,135.500
2.807,180.500,185.500,198.000,136.000
2.808,180.000,187.000,199.000,137.000
2.809,179.500,187.500,199.500,137.500
2.810,179.500,188.500,200.500,137.500
2.811,179.500,188.500,200.500,137.500
2.812,179.500,189.000,201.500,137.500
2.813,179.500,188.500,202.000,137.000
2.814,179.500,189.000,203.000,137.000
2.815,179.000,188.500,203.500,136.000
2.816,179.000,188.500,204.500,136.000
2.817,178.500,188.000,204.500,136.000
2.818,178.000,188.500,205.500,136.500
2.819,177.500,188.500,206.000,136.500
2.820,177.500,189.500,207.000,137.500
2.821,177.000,190.500,207.500,137.500
2.822,176.500,192.000,208.000,138.500
2.823,175.500,192.500,208.500,139.000
2.824,175.500,194.000,209.000,140.000
2.825,174.500,194.500,209.000,140.000
2.826,174.000,196.000,209.500,140.500
2.827,173.000,196.000,209.500,140.500
2.828,173.500,197.000,210.000,140.500
2.829,173.000,197.500,210.000,140.000
2.830,173.000,198.500,211.000,140.000
2.831,172.500,199.000,211.000,139.000
2.832,172.000,200.500,212.000,138.500
2.833,171.000,201.000,212.000,137.500
2.834,170.500,202.000,213.000,137.500
2.835,169.500,202.500,213.000,136.500
2.836,169.500,203.500,213.500,136.500
2.837,169.000,203.500,213.000,136.500
2.838,169.000,204.500,213.500,137.000
2.839,169.000,204.500,213.500,137.000
2.840,170.000,205.500,214.500,138.000
2.841,170.000,206.000,215.000,138.500
2.842,171.000,207.500,216.500,139.500
2.843,171.500,208.500,217.000,140.500
2.844,172.000,210.000,218.500,142.000
2.845,172.000,211.000,219.000,142.500
2.846,172.500,212.500,220.000,143.000
2.847,172.000,213.000,220.000,143.000
2.848,172.500,213.500,220.000,142.500
2.849,172.000,213.000,219.500,141.500
2.850,172.000,212.500,219.000,141.500
2.851,171.500,211.500,218.000,140.500
2.852,171.500,211.000,218.000,140.500
2.853,171.000,210.000,217.000,140.000
2.854,171.000,210.000,217.000,140.500
2.855,170.500,210.000,217.000,140.500
2.856,171.000,210.500,217.500,141.000
2.857,170.500,211.000,217.500,141.500
2.858,171.000,211.500,218.000,142.500
2.859,170.500,211.500,218.000,142.500
2.860,171.500,212.500,218.500,143.000
2.861,171.500,212.000,218.000,143.000
2.862,172.500,212.500,218.000,144.000
2.863,173.000,212.000,217.500,144.000
2.864,174.000,212.000,217.500,144.500
2.865,174.500,211.000,216.500,144.500
2.866,176.000,211.000,216.500,145.000
2.867,176.000,209.500,215.500,144.500
2.868,177.000,208.500,215.500,144.500
2.869,177.000,206.500,214.500,144.000
2.870,178.000,206.000,214.500,143.500
2.871,178.000,204.500,214.500,143.000
2.872,178.000,205.000,215.000,142.500
2.873,177.500,205.000,215.000,142.500
2.874,177.500,206.000,216.000,142.500
2.875,176.500,206.500,216.500,142.500
2.876,176.000,207.500,216.500,142.500
2.877,174.500,207.000,216.000,142.500
2.878,173.500,207.500,215.500,142.500
2.879,172.500,206.500,214.000,141.500
2.880,172.000,206.500,213.500,141.500
2.881,171.000,205.500,212.500,141.000
2.882,171.000,205.500,212.500,141.500
2.883,170.500,205.000,212.500,141.000
2.884,171.000,205.000,213.000,141.500
2.885,170.500,205.000,213.000,141.000
2.886,170.000,205.000,213.500,141.500
2.887,169.000,204.500,213.500,141.000
2.888,169.000,205.000,214.500,141.000
2.889,168.000,204.500,214.500,141.000
2.890,168.000,205.000,216.000,141.500
2.891,167.500,205.000,216.500,141.500
2.892,168.000,206.000,218.000,142.000
2.893,168.000,206.000,218.500,142.000
2.894,169.000,206.500,219.500,142.000
2.895,169.000,206.500,220.000,142.000
2.896,169.500,207.000,221.000,142.000
2.897,169.500,207.000,221.500,142.000
2.898,170.000,207.500,222.500,142.500
2.899,169.500,207.500,222.500,142.500
2.900,169.500,208.000,223.000,142.500
2.901,169.000,207.500,223.000,142.500
2.902,169.000,208.000,223.000,142.500
2.903,168.000,208.000,222.500,142.000
2.904,168.500,208.500,222.500,142.000
2.905,168.000,208.000,222.000,141.500
2.906,169.000,208.500,222.000,141.500
2.907,169.000,208.000,221.000,140.500
2.908,169.500,208.000,220.500,140.000
2.909,169.500,207.000,219.500,138.500
2.910,170.000,206.500,219.000,137.500
2.911,169.500,205.000,218.000,136.500
2.912,170.000,205.000,217.500,135.500
2.913,169.500,204.000,216.500,134.500
2.914,169.500,204.000,215.500,134.500
2.915,169.000,203.500,214.500,133.500
2.916,169.000,204.000,213.500,133.500
2.917,168.500,204.000,212.500,133.000
2.918,169.000,204.500,212.000,133.500
2.919,168.500,204.500,211.000,133.000
2.920,169.000,205.000,210.500,133.000
2.921,168.500,204.500,209.500,133.000
2.922,168.500,205.000,209.500,133.000
2.923,168.000,205.000,208.500,132.500
2.924,168.500,205.000,208.500,132.500
2.925,168.000,205.000,208.500,132.000
2.926,168.000,205.000,209.000,132.000
2.927,168.000,205.000,209.500,131.500
2.928,168.500,205.500,211.000,131.500
2.929,168.500,205.500,211.500,131.000
2.930,169.000,206.000,212.500,131.000
2.931,169.000,206.000,212.500,130.500
2.932,170.000,206.500,213.000,130.500
2.933,170.000,206.000,212.500,129.500
2.934,170.000,206.500,212.500,129.000
2.935,169.500,206.000,211.500,128.500
2.936,170.000,206.000,211.000,128.000
2.937,169.500,205.500,210.000,127.000
2.938,169.000,205.500,210.000,126.500
2.939,168.500,205.500,209.500,126.000
2.940,168.000,206.000,209.500,126.500
2.941,167.500,206.000,209.500,126.500
2.942,167.000,207.000,210.000,127.000
2.943,166.500,207.500,210.500,127.500
2.944,166.500,208.000,211.000,128.500
2.945,166.000,208.000,211.500,128.500
2.946,165.500,209.000,212.000,129.000
2.947,164.500,209.000,212.000,128.500
2.948,164.500,209.500,213.000,128.500
2.949,163.500,210.000,213.000,128.000
2.950,163.500,211.000,213.500,127.500
2.951,163.000,211.000,213.000,127.000
2.952,163.000,212.000,213.500,127.000
2.953,163.000,212.000,213.000,126.500
2.954,164.000,212.500,213.000,126.000
2.955,164.000,212.000,212.500,125.000
2.956,165.000,211.500,212.000,124.500
2.957,165.000,210.500,211.000,123.000
2.958,166.000,210.500,210.500,122.500
2.959,166.000,210.000,209.000,121.500
2.960,166.500,210.000,209.000,121.000
2.961,167.000,210.000,208.500,121.000
2.962,168.000,211.000,208.500,122.000
2.963,168.500,211.000,208.500,122.500
2.964,169.500,212.000,209.000,123.000
2.965,169.500,212.000,208.500,123.500
2.966,170.500,213.000,209.000,124.000
2.967,171.000,213.000,208.500,124.000
2.968,172.000,213.500,208.000,124.500
2.969,172.500,213.500,207.000,124.000
2.970,173.000,214.500,207.000,124.500
2.971,173.000,214.500,206.500,124.500
2.972,173.000,215.000,207.000,125.000
2.973,172.500,215.000,207.000,125.500
2.974,172.000,215.500,208.000,126.500
2.975,171.000,215.000,208.500,127.000
2.976,171.000,215.500,209.500,128.000
2.977,170.000,215.000,210.000,128.500
2.978,170.000,215.000,211.500,130.000
2.979,169.000,214.500,211.500,130.500
2.980,168.000,214.500,212.500,131.500
2.981,166.500,214.000,212.000,132.000
2.982,166.000,213.500,212.500,133.000
2.983,165.500,212.500,212.000,133.500
2.984,165.500,211.500,212.000,135.000
2.985,165.000,210.000,211.500,135.500
2.986,165.500,209.500,212.000,136.000
2.987,166.000,208.500,211.500,136.500
2.988,166.500,208.000,211.500,137.000
2.989,166.500,207.000,211.000,136.500
2.990,166.500,206.500,211.000,137.000
2.991,166.000,205.500,210.000,136.500
2.992,165.500,205.000,210.000,136.000
2.993,163.500,204.000,209.000,135.500
2.994,162.000,203.000,208.500,135.500
2.995,159.500,201.500,207.500,135.000
2.996,157.500,201.000,207.500,136.000
2.997,156.000,200.500,208.000,137.500
2.998,155.500,202.000,210.000,140.500
2.999,155.500,204.000,213.000,144.000
3.000,157.000,208.000,217.500,148.500
3.001,158.500,212.000,222.000,152.500
3.002,162.000,217.000,227.500,157.500
3.003,165.000,221.500,231.500,161.000
3.004,169.000,226.500,236.000,164.500
3.005,172.500,230.000,239.000,166.000
3.006,176.000,233.500,241.500,167.500
3.007,179.000,235.500,242.500,167.000
3.008,181.500,237.000,243.500,166.000
3.009,182.500,237.000,242.500,164.000
3.010,183.000,236.000,241.500,162.000
3.011,182.500,234.000,239.500,159.000
3.012,181.500,232.000,237.500,157.000
3.013,179.500,229.000,235.000,154.500
3.014,177.500,225.500,233.000,153.500
3.015,175.000,221.500,230.500,152.000
3.016,173.000,218.500,228.500,151.500
3.017,170.500,215.500,226.500,151.000
3.018,168.500,213.500,226.000,151.500
3.019,167.000,211.500,225.000,152.000
3.020,166.000,211.000,225.000,152.500
3.021,164.500,210.500,225.000,153.000
3.022,164.500,211.500,225.500,154.000
3.023,163.500,211.500,225.000,154.000
3.024,163.500,212.500,225.000,154.000
3.025,163.000,212.500,224.000,153.000
3.026,163.500,213.000,223.500,152.500
3.027,164.000,213.000,222.000,151.500
3.028,164.500,214.000,221.500,151.000
3.029,165.000,214.000,220.000,150.000
3.030,165.500,215.000,220.000,150.000
3.031,166.000,215.500,219.500,150.000
3.032,167.000,216.500,220.500,150.000
3.033,167.500,217.000,220.500,150.000
3.034,169.000,217.500,221.500,150.000
3.035,169.500,217.500,221.500,150.000
3.036,170.000,217.500,221.500,150.000
3.037,170.500,216.500,221.000,150.000
3.038,171.000,216.500,221.500,150.000
3.039,171.000,215.500,221.000,149.500
3.040,171.000,214.500,221.500,149.500
3.041,170.500,213.000,221.000,149.500
3.042,170.500,212.500,221.500,149.500
3.043,170.000,211.500,221.500,149.000
3.044,169.500,211.500,222.000,149.500
3.045,169.000,210.500,221.500,149.000
3.046,169.000,210.500,222.000,149.500
3.047,168.500,210.000,222.000,149.500
3.048,168.500,210.000,222.500,149.500
3.049,168.000,209.500,222.000,149.000
3.050,168.500,210.000,222.000,149.000
3.051,168.000,209.500,221.500,148.500
3.052,168.500,210.000,221.500,148.000
3.053,169.000,209.500,220.500,147.000
3.054,169.500,210.000,220.500,146.500
3.055,170.000,210.000,220.000,145.500
3.056,170.500,210.000,220.000,145.500
3.057,171.000,209.000,220.000,144.500
3.058,171.500,209.000,221.000,144.500
3.059,171.500,208.000,221.000,144.000
3.060,172.000,208.500,221.500,144.000
3.061,172.000,208.000,221.500,144.000
3.062,172.000,208.000,221.500,145.000
3.063,171.500,208.000,221.000,145.000
3.064,172.000,209.000,221.000,146.000
3.065,171.500,209.000,220.500,146.500
3.066,172.000,210.000,221.000,148.000
3.067,172.000,210.500,221.000,149.000
3.068,172.500,211.500,222.500,151.500
3.069,172.500,212.500,223.000,153.000
3.070,173.500,213.500,224.500,155.000
3.071,173.500,213.500,225.000,156.500
3.072,173.500,214.000,225.500,158.000
3.073,173.000,213.500,225.500,158.500
3.074,173.500,213.000,225.000,159.500
3.075,173.000,212.000,224.000,159.500
3.076,173.000,211.000,223.500,159.500
3.077,172.000,209.000,222.000,158.500
3.078,172.000,208.000,220.500,158.000
3.079,171.500,206.500,218.000,157.000
3.080,171.000,205.000,216.500,156.000
3.081,170.500,203.000,213.500,154.500
3.082,170.000,201.500,211.000,153.000
3.083,168.500,199.000,207.000,150.500
3.084,168.000,197.000,203.000,147.500
3.085,166.000,194.000,197.500,143.500
3.086,165.000,191.500,192.000,139.500
3.087,163.500,188.000,185.000,134.000
3.088,162.500,184.500,178.000,128.500
3.089,161.500,180.500,170.000,121.500
3.090,160.500,177.000,162.000,115.000
3.091,159.500,172.500,153.500,108.000
3.092,159.000,169.000,146.000,102.500
3.093,157.500,165.000,138.000,96.500
3.094,157.500,162.000,131.500,91.500
3.095,156.500,159.000,125.000,86.500
3.096,156.500,157.000,120.000,82.000
3.097,156.000,154.500,114.500,77.000
3.098,156.000,153.000,111.000,73.500
3.099,156.000,151.500,108.500,70.500
3.100,156.500,152.000,108.000,69.000
3.101,156.500,152.500,108.500,69.000
3.102,158.000,155.000,112.500,70.500
3.103,159.000,158.000,117.500,73.000
3.104,161.000,163.000,125.000,77.000
3.105,162.500,168.000,133.000,80.500
3.106,165.000,175.000,142.500,85.000
3.107,166.500,181.500,152.000,88.500
3.108,168.000,189.000,162.000,93.000
3.109,169.000,195.500,171.500,97.000
3.110,170.500,202.500,180.500,101.500
3.111,171.000,208.000,188.500,105.500
3.112,172.000,214.000,196.500,109.500
3.113,172.500,218.000,202.500,113.000
3.114,173.500,221.500,207.500,116.500
3.115,173.500,223.000,211.500,119.500
3.116,174.500,224.500,215.000,122.000
3.117,174.500,225.000,218.000,124.500
3.118,175.000,225.500,221.000,127.000
3.119,175.000,225.000,223.000,129.500
3.120,175.500,225.000,225.500,132.500
3.121,175.500,224.500,227.000,135.500
3.122,175.500,224.500,228.500,138.500
3.123,175.000,224.000,229.000,140.500
3.124,175.000,224.500,229.500,143.000
3.125,174.500,224.000,229.000,144.000
3.126,174.500,224.000,229.000,145.500
3.127,174.500,223.500,228.000,146.000
3.128,174.500,223.500,228.500,146.500
3.129,174.500,222.500,228.000,147.000
3.130,175.000,222.500,228.000,147.500
3.131,174.500,222.000,227.500,148.000
3.132,174.500,222.000,227.500,149.000
3.133,173.500,221.500,226.500,150.000
3.134,173.500,222.000,226.500,151.500
3.135,172.500,221.500,225.500,152.500
3.136,172.500,221.500,225.000,154.000
3.137,172.000,221.000,224.000,154.500
3.138,172.500,221.500,224.000,156.000
3.139,172.500,221.000,223.000,156.500
3.140,173.500,221.000,223.000,157.500
3.141,173.500,220.500,222.500,158.000
3.142,174.000,220.000,222.500,158.500
3.143,173.500,219.000,222.000,158.500
3.144,173.000,218.500,222.500,158.500
3.145,172.000,217.000,222.000,158.000
3.146,171.500,217.000,222.000,157.500
3.147,171.000,216.000,221.500,156.500
3.148,170.500,216.500,221.500,156.500
3.149,170.000,216.000,221.000,155.500
3.150,170.000,217.000,220.500,155.000
3.151,170.000,217.000,220.000,154.000
3.152,171.000,217.500,219.500,153.500
3.153,171.500,217.500,219.000,152.500
3.154,172.500,218.500,219.000,152.500
3.155,173.000,218.500,218.500,151.500
3.156,174.000,219.500,218.500,151.500
3.157,174.000,219.500,217.500,150.500
3.158,174.500,220.500,218.000,150.500
3.159,174.500,220.500,217.500,150.000
3.160,175.000,221.000,218.000,150.500
3.161,174.500,221.000,217.500,150.000
3.162,174.500,221.500,218.000,150.000
3.163,174.000,221.000,217.500,149.500
3.164,174.000,221.000,217.500,149.000
3.165,173.500,220.000,217.000,148.000
3.166,174.000,219.500,217.000,148.000
3.167,174.000,218.000,216.500,147.000
3.168,174.500,217.000,216.500,146.500
3.169,175.000,215.500,216.000,146.000
3.170,175.500,214.500,216.000,146.000
3.171,176.000,213.500,216.000,145.500
3.172,176.500,213.000,216.500,145.500
3.173,176.500,212.000,216.500,145.000
3.174,177.000,212.000,217.500,145.000
3.175,177.000,211.000,217.000,144.000
3.176,177.500,211.000,217.000,143.500
3.177,177.000,210.500,216.000,143.000
3.178,177.500,210.500,216.000,142.500
3.179,177.000,209.500,215.500,142.000
3.180,177.500,209.500,216.000,142.500
3.181,177.000,208.500,216.000,142.500
3.182,177.500,208.000,216.500,143.500
3.183,177.500,206.500,217.000,143.500
3.184,178.500,206.500,218.000,144.000
3.185,178.500,206.000,218.500,143.500
3.186,179.500,206.500,219.500,144.000
3.187,179.500,206.500,220.000,144.000
3.188,180.000,206.500,221.000,144.500
3.189,180.000,206.500,221.000,144.500
3.190,180.000,206.500,222.000,145.000
3.191,179.000,206.000,222.000,145.000
3.192,179.000,206.500,222.500,145.500
3.193,177.500,206.000,222.500,145.500
3.194,177.000,206.500,223.000,146.500
3.195,175.500,206.500,223.000,146.500
3.196,174.500,207.000,223.000,146.500
3.197,173.500,207.000,222.500,146.500
3.198,173.500,207.500,222.500,146.500
3.199,173.000,207.000,222.000,145.500
3.200,173.000,207.500,222.000,145.500
3.201,173.000,207.500,222.000,145.500
3.202,173.500,209.000,222.500,146.500
3.203,173.500,209.500,223.000,147.000
3.204,174.000,211.000,224.000,148.500
3.205,174.000,212.000,224.500,149.500
3.206,174.500,213.000,225.500,150.500
3.207,174.000,213.500,226.000,151.000
3.208,174.000,214.000,227.000,152.000
3.209,173.500,213.500,227.000,152.000
3.210,173.500,213.500,228.000,152.000
3.211,172.500,212.500,227.500,152.000
3.212,172.000,211.500,228.000,152.000
3.213,170.500,210.000,228.000,152.000
3.214,170.000,208.500,228.500,152.500
3.215,168.500,207.000,228.000,152.500
3.216,168.000,206.000,228.500,153.000
3.217,166.500,204.500,228.500,153.000
3.218,166.500,204.500,229.500,153.500
3.219,165.500,204.000,229.500,154.000
3.220,166.000,204.500,230.500,154.500
3.221,165.500,204.500,230.500,155.000
3.222,166.000,205.500,231.000,155.500
3.223,166.000,205.500,231.500,155.500
3.224,166.500,206.000,232.000,156.000
3.225,166.000,206.000,232.500,156.000
3.226,166.500,206.000,233.000,156.500
3.227,166.000,205.000,233.500,156.500
3.228,166.000,204.500,234.000,157.000
3.229,166.000,203.500,234.000,157.000
3.230,166.000,203.000,234.500,157.500
3.231,166.000,202.000,234.500,157.000
3.232,167.000,202.000,235.000,157.500
