'Elapsed time','AECG1','AECG2','AECG3','AECG4'
'seconds','uV','uV','uV','uV'
0.000,102.000,174.500,240.500,110.500
0.001,102.000,174.500,241.000,111.000
0.002,102.000,174.500,241.000,111.000
0.003,101.500,174.500,241.000,111.000
0.004,101.500,174.000,241.000,111.000
0.005,101.500,173.500,241.000,111.000
0.006,102.000,173.500,240.500,111.000
0.007,102.000,173.500,240.500,111.000
0.008,102.500,173.500,240.000,111.000
0.009,102.500,173.500,240.000,111.000
0.010,103.000,174.000,240.000,111.000
0.011,103.500,174.000,240.500,111.000
0.012,103.500,174.500,240.500,111.500
0.013,104.000,175.000,241.000,111.500
0.014,104.500,175.500,241.500,112.000
0.015,105.000,176.000,242.000,112.000
0.016,105.000,176.500,242.500,112.500
0.017,105.000,176.500,242.500,113.000
0.018,105.500,177.000,243.000,113.000
0.019,105.500,177.500,243.500,113.000
0.020,105.500,178.000,244.000,112.500
0.021,105.500,178.500,244.500,112.500
0.022,106.000,179.000,244.500,112.500
0.023,106.000,179.000,245.000,112.500
0.024,106.000,179.500,244.500,113.000
0.025,106.000,179.500,244.500,113.500
0.026,106.500,179.500,244.000,114.000
0.027,106.500,179.000,243.000,114.500
0.028,106.500,178.500,242.500,115.000
0.029,106.500,178.500,242.000,115.000
0.030,106.500,178.000,241.500,115.500
0.031,106.500,178.000,241.500,116.000
0.032,106.500,177.500,241.500,116.500
0.033,106.500,177.500,241.500,117.000
0.034,106.500,178.000,241.500,118.000
0.035,107.000,178.000,241.500,118.500
0.036,107.000,178.500,241.500,118.500
0.037,107.000,178.500,241.500,118.500
0.038,107.000,178.500,241.500,119.000
0.039,107.000,179.000,241.500,119.000
0.040,107.000,179.000,241.500,119.500
0.041,107.000,179.000,241.500,120.000
0.042,107.000,179.000,241.500,120.500
0.043,107.000,179.000,241.500,120.500
0.044,107.000,179.000,241.500,120.500
0.045,106.500,178.500,241.500,120.000
0.046,106.500,178.000,241.000,119.500
0.047,106.000,178.000,240.500,119.000
0.048,106.000,177.500,240.000,118.500
0.049,106.000,177.500,240.000,118.500
0.050,106.000,177.500,240.000,119.000
0.051,106.000,177.500,239.500,119.500
0.052,106.000,177.000,239.500,120.000
0.053,105.500,177.000,239.500,120.000
0.054,105.500,177.000,239.000,120.500
0.055,106.000,177.000,238.500,121.000
0.056,106.000,177.000,238.000,121.000
0.057,105.500,177.000,237.500,121.500
0.058,105.500,177.000,237.000,122.000
0.059,105.500,177.000,237.000,122.000
0.060,105.000,177.000,236.500,122.500
0.061,105.000,177.000,236.500,123.000
0.062,104.500,177.000,236.000,123.000
0.063,104.500,176.500,236.000,123.000
0.064,104.000,176.000,236.000,123.000
0.065,104.000,175.500,235.500,123.000
0.066,103.500,175.000,235.000,123.000
0.067,103.000,174.500,234.500,123.000
0.068,103.000,174.500,234.000,123.000
0.069,103.000,175.000,234.000,123.500
0.070,102.500,175.000,234.000,123.500
0.071,102.500,175.000,234.000,124.000
0.072,102.000,175.000,233.500,124.000
0.073,102.000,174.500,233.500,124.500
0.074,102.000,174.500,233.000,124.500
0.075,102.000,174.500,233.000,125.000
0.076,102.000,174.500,233.000,125.500
0.077,102.500,174.500,233.000,125.500
0.078,102.500,174.500,233.000,126.000
0.079,102.500,174.500,233.000,126.500
0.080,103.000,174.500,233.500,127.000
0.081,103.000,175.000,233.500,128.000
0.082,103.500,175.000,233.500,129.000
0.083,104.000,175.500,234.000,129.500
0.084,104.500,176.000,234.000,130.500
0.085,104.500,176.000,233.500,130.500
0.086,104.500,175.500,233.500,131.000
0.087,104.500,175.500,233.000,130.500
0.088,103.500,175.000,232.500,130.500
0.089,103.000,174.500,231.500,130.000
0.090,102.500,173.500,230.500,129.500
0.091,101.500,172.500,229.500,129.000
0.092,100.000,171.000,228.000,128.500
0.093,98.500,169.500,226.000,128.000
0.094,96.500,167.500,224.000,127.000
0.095,94.500,165.000,222.500,126.500
0.096,92.500,163.500,220.500,125.500
0.097,91.000,162.000,219.500,125.500
0.098,90.000,161.500,219.000,125.500
0.099,90.000,161.000,219.000,126.000
0.100,90.500,161.500,219.000,126.500
0.101,91.500,162.500,219.500,127.500
0.102,93.000,164.000,221.000,128.500
0.103,95.000,166.000,222.500,130.000
0.104,97.500,168.500,224.500,132.000
0.105,100.000,171.000,227.000,134.000
0.106,102.500,173.500,229.500,136.000
0.107,104.500,176.500,231.500,138.000
0.108,106.500,178.500,233.500,140.000
0.109,108.000,180.500,235.000,141.500
0.110,109.500,181.500,236.000,142.500
0.111,110.000,182.500,236.500,143.500
0.112,110.000,182.500,236.500,143.500
0.113,109.500,182.000,236.000,143.500
0.114,109.000,181.500,235.000,143.500
0.115,108.000,180.500,234.000,143.000
0.116,107.000,179.500,233.000,142.500
0.117,106.000,178.500,232.000,142.000
0.118,105.000,177.500,231.000,141.500
0.119,104.500,176.500,230.000,141.500
0.120,104.000,176.000,229.000,141.000
0.121,104.000,175.500,228.500,140.500
0.122,103.500,175.000,228.000,140.500
0.123,103.500,174.500,228.000,140.500
0.124,103.000,174.500,228.000,140.500
0.125,103.000,174.500,227.500,140.000
0.126,103.000,174.000,227.000,140.000
0.127,103.000,174.000,227.000,140.000
0.128,103.000,173.500,226.500,140.000
0.129,103.000,173.500,226.500,140.000
0.130,102.500,173.500,227.000,140.000
0.131,102.500,173.000,227.000,140.000
0.132,102.500,173.000,227.000,140.000
0.133,103.000,173.500,227.500,140.000
0.134,103.000,173.500,227.500,140.000
0.135,103.000,173.500,227.500,140.500
0.136,103.000,174.000,228.000,141.000
0.137,103.500,174.000,228.000,141.500
0.138,103.500,174.000,228.000,142.500
0.139,103.500,174.000,227.500,143.000
0.140,103.000,174.000,227.500,144.000
0.141,103.000,174.000,227.500,144.500
0.142,103.000,174.500,227.500,145.500
0.143,103.000,174.500,227.500,146.000
0.144,103.000,174.000,227.500,146.500
0.145,103.000,174.000,227.500,146.500
0.146,103.000,173.500,226.500,146.500
0.147,103.000,173.000,226.000,146.000
0.148,103.500,172.500,225.500,145.500
0.149,103.500,172.500,225.500,144.500
0.150,103.000,172.000,225.000,143.500
0.151,103.000,172.000,225.000,143.000
0.152,103.000,172.000,225.000,143.000
0.153,103.000,172.000,225.500,143.500
0.154,103.500,172.000,225.500,144.500
0.155,104.000,172.500,225.500,145.000
0.156,104.000,173.000,226.000,146.000
0.157,104.500,173.000,226.000,147.000
0.158,104.500,173.500,226.000,147.500
0.159,104.500,173.500,226.000,148.500
0.160,104.500,174.000,226.500,149.000
0.161,105.000,174.000,227.000,149.500
0.162,105.000,174.000,227.000,150.000
0.163,105.500,174.000,227.500,150.500
0.164,105.500,173.500,227.500,151.000
0.165,105.500,173.500,227.500,151.000
0.166,105.500,173.500,227.500,151.000
0.167,105.500,173.500,227.000,151.500
0.168,105.500,173.000,227.500,151.500
0.169,105.500,173.000,227.500,151.500
0.170,105.500,172.500,227.500,151.500
0.171,105.500,172.500,227.000,152.000
0.172,106.000,172.000,227.000,152.000
0.173,106.000,172.000,227.000,152.000
0.174,106.000,172.500,227.000,152.500
0.175,106.500,172.500,227.000,153.000
0.176,107.000,173.000,227.500,153.500
0.177,107.000,173.500,227.500,154.000
0.178,107.000,173.500,227.500,154.000
0.179,107.000,173.500,227.500,154.000
0.180,107.000,173.500,227.500,153.500
0.181,107.000,173.500,227.500,153.500
0.182,106.500,173.500,227.000,153.000
0.183,106.500,173.000,227.000,153.000
0.184,106.500,173.000,227.000,153.000
0.185,106.500,172.500,226.500,152.500
0.186,106.000,172.500,226.000,153.000
0.187,106.000,172.000,226.000,153.000
0.188,106.000,172.000,226.000,153.500
0.189,105.500,172.000,225.500,154.000
0.190,105.000,171.500,225.500,154.000
0.191,105.000,171.500,225.000,154.000
0.192,104.500,171.000,225.000,154.000
0.193,104.500,171.000,224.500,154.000
0.194,105.000,170.500,224.000,154.000
0.195,104.500,170.500,223.500,154.000
0.196,104.500,170.000,223.000,154.000
0.197,104.500,169.500,222.500,153.500
0.198,104.000,169.000,222.000,153.500
0.199,104.000,168.500,221.000,152.500
0.200,103.000,167.500,220.000,152.000
0.201,102.500,166.500,218.500,151.000
0.202,101.500,165.000,217.500,150.000
0.203,100.000,163.500,216.000,149.000
0.204,99.000,162.000,214.500,148.000
0.205,97.500,160.500,213.500,147.500
0.206,96.500,159.000,212.000,146.500
0.207,95.500,157.500,210.500,146.000
0.208,94.000,156.500,209.500,145.000
0.209,93.000,155.000,208.500,144.500
0.210,91.500,154.000,207.500,144.500
0.211,90.000,153.000,206.500,144.000
0.212,88.500,152.000,205.500,144.500
0.213,87.500,151.000,204.500,145.000
0.214,86.000,150.000,204.000,146.500
0.215,85.000,149.500,203.500,148.000
0.216,84.500,149.000,204.000,150.000
0.217,84.000,149.000,204.500,152.500
0.218,84.000,149.500,205.000,155.000
0.219,84.000,149.500,206.000,157.000
0.220,84.000,150.000,207.000,159.500
0.221,84.000,150.000,208.000,161.500
0.222,83.500,150.000,208.500,163.000
0.223,83.000,149.500,208.500,164.500
0.224,82.500,149.500,208.500,165.500
0.225,82.000,149.000,208.500,166.500
0.226,82.000,149.000,208.500,167.500
0.227,82.000,149.500,209.000,168.000
0.228,82.500,150.500,209.500,169.500
0.229,84.000,152.500,210.500,170.500
0.230,86.500,154.500,212.500,172.500
0.231,89.500,158.000,215.000,174.500
0.232,93.000,161.500,217.500,177.000
0.233,97.000,165.000,220.000,179.000
0.234,101.000,168.500,223.000,181.000
0.235,104.500,171.500,225.500,182.500
0.236,108.500,175.500,228.000,184.000
0.237,112.500,179.000,231.000,185.500
0.238,116.500,183.000,234.000,187.000
0.239,120.000,186.000,236.500,188.000
0.240,123.000,188.500,238.500,189.000
0.241,124.500,190.000,239.500,189.500
0.242,125.500,190.500,240.000,189.500
0.243,126.000,190.500,239.500,189.000
0.244,125.500,189.500,238.500,188.500
0.245,125.000,188.500,237.000,187.500
0.246,123.500,187.000,235.500,186.500
0.247,122.000,185.500,233.500,185.500
0.248,120.500,183.500,231.500,183.500
0.249,118.500,181.500,229.000,182.000
0.250,116.500,179.500,227.000,180.000
0.251,115.000,177.500,224.500,178.000
0.252,113.000,175.500,222.000,176.000
0.253,111.500,173.500,220.000,174.500
0.254,110.500,172.000,218.500,173.000
0.255,109.500,171.000,217.500,172.000
0.256,109.000,170.000,216.500,171.000
0.257,108.500,169.500,215.500,170.000
0.258,108.000,169.000,215.000,169.500
0.259,107.500,168.500,214.500,168.000
0.260,107.500,168.000,214.000,167.000
0.261,107.000,168.000,213.500,165.500
0.262,107.000,167.500,213.500,165.000
0.263,107.000,167.500,213.500,165.000
0.264,107.000,167.000,213.500,165.500
0.265,107.000,167.000,213.000,166.000
0.266,107.000,167.000,213.000,166.500
0.267,107.000,167.000,212.500,167.000
0.268,106.500,166.500,212.000,167.000
0.269,106.500,166.500,212.000,167.000
0.270,106.000,166.000,211.500,166.500
0.271,106.000,166.000,211.000,166.500
0.272,105.500,166.000,211.000,166.500
0.273,105.500,166.000,211.000,167.000
0.274,106.000,166.000,211.000,167.000
0.275,106.000,166.000,211.000,167.500
0.276,106.500,166.500,211.000,168.000
0.277,106.500,166.500,211.000,168.500
0.278,106.500,167.000,211.000,169.000
0.279,106.500,167.000,211.000,169.500
0.280,107.000,167.000,211.000,170.000
0.281,107.000,167.000,211.000,170.500
0.282,106.500,166.500,210.500,170.500
0.283,106.500,166.500,210.500,170.000
0.284,106.000,166.500,210.000,170.000
0.285,105.500,166.000,209.500,169.500
0.286,105.000,165.500,209.000,169.000
0.287,105.000,165.000,208.500,169.000
0.288,104.500,165.000,208.000,168.500
0.289,104.500,164.500,207.000,168.000
0.290,104.000,164.000,207.000,167.500
0.291,104.000,164.000,206.500,167.000
0.292,104.000,164.000,206.500,167.000
0.293,104.000,164.500,206.500,166.500
0.294,104.000,164.500,207.000,166.500
0.295,104.000,164.500,207.000,166.500
0.296,104.000,165.000,207.500,166.500
0.297,104.000,165.000,207.500,166.500
0.298,104.500,165.000,207.500,166.500
0.299,104.500,165.500,207.500,166.500
0.300,105.000,165.500,207.500,166.500
0.301,105.000,165.000,207.000,166.500
0.302,105.000,165.000,207.000,166.500
0.303,105.000,165.000,206.500,167.000
0.304,105.000,165.000,206.000,167.000
0.305,105.000,164.500,206.000,167.000
0.306,104.500,164.500,205.500,167.000
0.307,104.000,164.000,205.500,166.500
0.308,104.000,164.000,205.000,166.500
0.309,104.000,164.000,205.000,166.500
0.310,104.000,164.000,204.500,166.500
0.311,104.000,163.500,204.500,166.500
0.312,104.500,163.500,204.000,166.000
0.313,104.500,163.500,204.000,166.000
0.314,105.000,164.000,204.000,166.000
0.315,105.000,164.000,204.000,166.500
0.316,105.000,164.000,204.000,166.500
0.317,105.500,164.000,204.000,166.500
0.318,105.500,164.000,204.000,166.500
0.319,105.000,164.000,204.000,166.500
0.320,105.000,164.000,204.000,167.000
0.321,105.000,164.000,204.000,167.000
0.322,104.500,164.000,204.000,167.000
0.323,104.500,164.000,204.000,167.000
0.324,104.500,164.500,204.000,166.500
0.325,104.500,164.500,204.000,166.500
0.326,104.500,164.000,203.500,166.500
0.327,104.500,164.000,203.500,166.000
0.328,104.500,163.500,203.000,166.000
0.329,104.500,162.500,202.500,165.500
0.330,104.000,161.500,202.000,165.000
0.331,104.000,161.000,201.500,165.000
0.332,103.500,160.500,201.000,165.000
0.333,103.500,160.500,201.000,165.500
0.334,103.500,160.500,201.000,165.500
0.335,103.500,161.000,201.500,166.000
0.336,103.500,161.000,201.500,166.500
0.337,103.500,161.500,202.000,167.000
0.338,104.000,161.500,202.000,167.500
0.339,104.000,162.000,202.500,167.500
0.340,104.500,162.000,202.500,168.000
0.341,104.500,162.000,203.000,168.500
0.342,105.000,162.000,203.000,168.500
0.343,105.000,162.000,203.000,169.000
0.344,105.000,162.000,203.000,169.000
0.345,105.000,162.000,202.500,169.000
0.346,104.500,161.500,202.000,168.500
0.347,104.500,161.000,201.500,168.500
0.348,104.000,160.500,201.000,168.500
0.349,104.000,160.000,200.500,168.000
0.350,103.500,159.500,200.000,168.000
0.351,103.500,159.000,200.000,168.000
0.352,104.000,159.000,200.000,168.500
0.353,104.000,159.000,200.500,168.500
0.354,104.500,159.500,200.500,169.000
0.355,105.000,159.500,200.500,169.500
0.356,105.500,160.000,201.000,170.000
0.357,105.500,160.500,201.000,170.500
0.358,106.000,160.500,201.500,170.500
0.359,106.500,161.000,201.500,171.000
0.360,107.000,161.500,202.000,171.500
0.361,107.000,162.000,202.500,172.000
0.362,107.000,162.000,202.500,172.500
0.363,107.000,162.000,203.000,172.500
0.364,107.000,162.000,202.500,173.000
0.365,106.500,162.000,202.500,173.500
0.366,106.500,162.000,202.500,173.500
0.367,106.500,162.000,202.500,173.500
0.368,106.000,162.000,202.500,174.000
0.369,106.000,161.500,202.500,174.000
0.370,106.000,161.000,202.000,173.500
0.371,106.000,161.000,202.000,173.500
0.372,106.000,161.000,202.000,173.500
0.373,106.000,161.000,202.000,174.000
0.374,106.500,161.500,202.500,174.500
0.375,107.000,162.000,203.000,174.500
0.376,107.000,162.500,203.500,175.000
0.377,107.500,163.000,204.000,175.500
0.378,108.000,163.500,204.500,176.000
0.379,108.500,164.000,204.500,176.500
0.380,108.500,164.000,205.000,177.000
0.381,108.500,164.000,205.500,177.500
0.382,108.500,164.000,205.500,178.000
0.383,108.500,164.000,205.500,178.500
0.384,108.500,164.000,205.500,179.000
0.385,108.500,164.000,205.000,179.500
0.386,108.500,163.500,204.500,180.000
0.387,108.500,163.500,204.500,180.000
0.388,108.000,163.500,204.000,180.000
0.389,107.500,163.500,204.500,180.000
0.390,107.500,163.500,204.500,180.500
0.391,107.500,163.500,205.000,180.500
0.392,108.000,164.000,205.000,181.000
0.393,108.500,164.500,205.500,182.000
0.394,108.500,164.500,206.000,182.500
0.395,109.000,165.000,206.000,183.000
0.396,109.000,165.500,206.500,183.500
0.397,109.000,165.500,207.000,184.000
0.398,109.000,166.000,207.000,184.500
0.399,109.000,166.000,207.500,185.000
0.400,109.000,166.000,207.500,185.500
0.401,109.000,166.000,207.500,186.000
0.402,109.000,166.000,207.500,186.500
0.403,109.000,166.000,207.500,186.500
0.404,109.500,166.000,207.500,186.500
0.405,109.500,166.000,207.500,187.000
0.406,109.500,165.500,207.000,187.500
0.407,109.000,165.500,207.000,187.500
0.408,109.000,165.500,207.000,188.000
0.409,109.000,165.500,207.000,188.500
0.410,109.500,165.500,206.500,188.500
0.411,109.500,165.000,206.500,188.500
0.412,110.000,165.000,206.500,189.000
0.413,110.000,165.000,206.500,189.500
0.414,110.000,165.000,206.500,189.500
0.415,110.500,165.000,206.500,190.000
0.416,110.500,165.000,206.500,190.000
0.417,110.500,165.500,206.500,190.500
0.418,110.500,165.500,206.500,190.500
0.419,110.000,166.000,206.500,191.000
0.420,110.000,166.000,206.500,191.500
0.421,110.000,166.000,207.000,191.500
0.422,110.000,166.000,207.000,192.000
0.423,110.000,166.000,207.500,192.500
0.424,109.500,166.000,207.500,192.500
0.425,109.500,165.500,207.500,193.000
0.426,109.500,165.500,207.500,193.000
0.427,109.000,165.000,207.500,193.000
0.428,109.000,165.000,208.000,193.000
0.429,109.000,165.000,208.000,193.000
0.430,108.500,165.000,208.000,193.000
0.431,108.500,164.500,208.000,193.000
0.432,108.500,164.500,208.000,193.000
0.433,108.500,164.500,208.500,193.000
0.434,109.000,165.000,208.500,193.500
0.435,109.000,165.000,209.000,194.000
0.436,109.500,165.500,209.500,194.500
0.437,110.000,166.500,210.500,195.000
0.438,110.500,167.000,211.000,195.500
0.439,111.000,167.500,211.500,196.500
0.440,111.000,168.000,212.000,197.000
0.441,111.000,168.000,212.500,197.500
0.442,111.000,168.000,212.500,198.000
0.443,110.500,168.000,212.500,198.000
0.444,110.000,167.500,212.000,198.000
0.445,109.500,166.500,211.500,197.500
0.446,108.500,165.500,210.500,197.000
0.447,107.500,164.000,209.500,196.000
0.448,106.000,162.000,208.000,194.500
0.449,104.000,159.500,206.000,193.000
0.450,101.500,157.000,204.000,191.500
0.451,99.500,154.500,202.000,190.500
0.452,97.500,152.500,200.000,189.500
0.453,96.500,151.000,199.000,189.000
0.454,95.500,150.000,198.500,189.000
0.455,95.500,150.000,198.500,189.000
0.456,95.500,150.000,199.000,189.500
0.457,96.500,151.000,200.000,190.500
0.458,97.500,152.500,202.000,191.500
0.459,99.500,154.500,203.500,192.500
0.460,101.500,157.000,206.000,194.500
0.461,104.500,159.500,208.500,196.000
0.462,107.000,162.500,211.000,198.000
0.463,109.500,165.000,213.500,199.500
0.464,111.500,167.000,215.000,200.500
0.465,112.500,168.000,216.000,201.500
0.466,113.500,168.500,216.500,201.500
0.467,113.500,169.000,216.500,201.500
0.468,113.500,168.500,216.000,200.500
0.469,112.500,167.500,215.000,199.500
0.470,111.500,166.000,213.500,198.500
0.471,110.500,164.500,212.000,197.000
0.472,109.500,163.000,210.000,196.000
0.473,108.500,161.500,209.000,195.000
0.474,107.500,160.500,208.000,194.500
0.475,107.000,160.000,207.500,194.000
0.476,107.000,159.500,207.500,194.000
0.477,107.000,159.500,207.500,194.000
0.478,107.500,159.500,208.000,194.000
0.479,107.500,160.000,208.500,194.000
0.480,107.500,160.500,208.500,194.000
0.481,107.500,160.500,209.000,194.000
0.482,107.000,160.000,209.000,194.000
0.483,107.000,159.500,208.500,193.500
0.484,106.500,159.000,208.000,192.500
0.485,106.500,158.500,207.500,192.000
0.486,106.500,158.000,207.000,191.000
0.487,106.000,158.000,206.500,190.500
0.488,106.000,157.500,206.500,190.000
0.489,106.000,157.500,206.500,190.000
0.490,105.500,157.500,206.500,189.500
0.491,105.500,157.000,207.000,189.000
0.492,105.500,157.000,207.000,188.500
0.493,105.500,157.000,207.500,188.500
0.494,105.500,157.000,207.500,188.000
0.495,105.500,156.500,208.000,188.000
0.496,105.500,156.500,208.000,187.500
0.497,105.500,156.500,208.000,187.500
0.498,105.500,156.500,208.000,187.500
0.499,105.500,157.000,208.000,187.500
0.500,105.500,157.000,208.000,187.000
0.501,106.000,157.000,208.000,187.000
0.502,106.000,157.000,208.000,187.000
0.503,106.000,157.000,208.500,187.000
0.504,106.000,157.000,208.500,186.500
0.505,106.000,156.500,208.500,186.500
0.506,106.000,156.500,208.500,186.000
0.507,106.000,156.000,208.500,185.500
0.508,105.500,156.000,208.000,185.500
0.509,105.500,156.000,208.000,185.000
0.510,105.500,155.500,208.500,185.000
0.511,106.000,155.500,208.500,185.000
0.512,106.000,155.500,209.000,185.000
0.513,106.000,155.500,209.000,185.500
0.514,106.500,155.500,209.500,185.500
0.515,107.000,156.000,210.000,185.500
0.516,107.000,156.500,210.500,185.500
0.517,107.500,156.500,211.000,186.000
0.518,108.000,157.000,212.000,186.500
0.519,108.500,157.000,212.500,186.500
0.520,108.500,157.500,213.000,187.000
0.521,109.000,157.500,213.500,187.000
0.522,109.000,158.000,214.000,187.000
0.523,109.000,158.000,214.000,187.500
0.524,109.000,158.000,214.500,187.500
0.525,109.000,158.000,214.500,187.500
0.526,109.000,158.000,214.500,187.500
0.527,108.500,157.500,214.500,187.500
0.528,108.500,157.500,214.500,187.500
0.529,108.000,157.000,214.000,187.000
0.530,108.000,156.500,214.000,187.000
0.531,108.000,156.000,213.500,186.500
0.532,108.000,156.000,213.500,186.500
0.533,108.000,156.000,214.000,186.500
0.534,108.500,156.500,214.000,186.500
0.535,108.500,156.500,214.000,187.000
0.536,108.500,156.500,214.500,187.500
0.537,109.000,156.500,214.500,187.500
0.538,109.500,157.000,214.500,188.000
0.539,109.500,157.000,214.500,188.000
0.540,109.500,157.000,215.000,188.000
0.541,109.500,157.000,215.000,188.000
0.542,109.500,157.000,215.000,188.000
0.543,109.500,157.000,215.000,188.000
0.544,109.500,157.000,215.000,188.000
0.545,109.000,157.000,215.000,187.500
0.546,109.000,156.500,214.500,187.500
0.547,108.500,156.500,214.500,187.000
0.548,108.500,156.500,214.500,187.000
0.549,108.000,156.000,214.500,187.000
0.550,108.000,156.000,214.500,187.000
0.551,108.000,155.500,214.000,186.500
0.552,108.000,155.500,214.000,186.500
0.553,108.000,155.500,214.000,186.500
0.554,108.500,155.500,214.000,187.000
0.555,108.500,155.500,214.000,187.000
0.556,108.500,155.500,214.500,187.000
0.557,109.000,155.500,215.000,187.500
0.558,109.000,156.000,215.500,188.000
0.559,109.500,156.500,216.000,188.000
0.560,109.500,157.000,216.500,188.500
0.561,109.500,157.500,216.500,188.500
0.562,109.500,157.500,216.500,189.000
0.563,109.500,157.500,216.500,189.000
0.564,109.500,157.500,216.500,188.500
0.565,109.500,157.000,216.000,188.500
0.566,109.500,156.500,216.000,188.500
0.567,109.000,156.000,215.500,188.500
0.568,108.500,155.500,215.000,188.000
0.569,108.500,155.000,215.000,188.000
0.570,108.500,154.500,214.500,188.000
0.571,108.500,154.500,214.500,188.000
0.572,108.500,154.500,214.500,188.000
0.573,109.000,154.500,214.500,188.000
0.574,109.000,154.500,214.500,188.000
0.575,109.000,155.000,214.500,188.500
0.576,109.000,155.000,215.000,188.500
0.577,109.000,155.500,215.500,189.000
0.578,109.500,155.500,215.500,189.000
0.579,109.500,155.500,216.000,189.500
0.580,109.500,155.500,216.000,189.500
0.581,109.500,155.500,215.500,189.500
0.582,109.500,155.500,215.500,190.000
0.583,109.500,155.500,215.500,190.000
0.584,109.500,155.500,215.500,190.000
0.585,109.500,155.000,215.000,190.000
0.586,109.500,155.000,215.000,190.000
0.587,109.000,155.000,215.000,189.500
0.588,109.000,154.500,215.000,189.500
0.589,109.000,154.500,215.000,189.500
0.590,109.000,154.500,215.000,189.500
0.591,109.000,154.500,215.000,189.500
0.592,109.000,154.500,215.000,189.500
0.593,109.000,154.500,215.000,190.000
0.594,109.500,154.500,215.000,190.500
0.595,109.500,154.500,215.500,191.000
0.596,110.000,155.000,215.500,191.500
0.597,110.500,155.000,215.500,192.000
0.598,110.500,155.500,216.000,192.000
0.599,111.000,155.500,216.000,192.500
0.600,111.000,155.500,216.500,193.000
0.601,111.000,155.500,216.500,193.500
0.602,111.000,155.000,217.000,194.000
0.603,111.000,155.000,217.000,194.000
0.604,110.500,155.000,217.000,194.500
0.605,110.500,155.000,217.000,194.500
0.606,110.500,154.500,217.000,194.500
0.607,110.000,154.500,217.000,194.500
0.608,110.000,154.500,217.000,195.000
0.609,110.000,154.000,216.500,195.000
0.610,110.000,154.000,216.500,195.000
0.611,110.000,153.500,216.000,195.000
0.612,110.000,153.500,216.000,195.000
0.613,110.000,153.000,215.500,194.500
0.614,110.000,153.000,215.000,194.500
0.615,110.500,153.000,215.000,195.000
0.616,111.000,153.500,215.500,195.000
0.617,111.000,154.000,216.000,196.000
0.618,111.500,154.500,216.500,196.500
0.619,112.000,155.000,217.000,197.000
0.620,112.000,155.000,217.500,197.500
0.621,112.000,155.000,217.500,197.500
0.622,111.500,155.000,217.500,198.000
0.623,111.500,154.500,217.500,198.000
0.624,111.500,154.500,217.500,198.000
0.625,111.500,154.500,217.500,198.500
0.626,111.500,154.500,217.500,198.500
0.627,111.500,154.500,217.000,198.500
0.628,111.500,154.500,217.000,198.500
0.629,111.000,154.000,217.000,199.000
0.630,110.500,154.000,216.500,199.000
0.631,110.500,153.500,216.500,199.000
0.632,110.000,153.000,216.500,199.000
0.633,110.000,153.000,217.000,199.500
0.634,110.500,153.000,217.000,199.500
0.635,110.500,153.500,217.000,200.000
0.636,110.500,153.500,217.000,200.000
0.637,111.000,154.000,217.000,200.000
0.638,111.000,154.000,217.500,200.000
0.639,111.000,154.000,217.500,200.000
0.640,111.000,154.000,217.500,200.000
0.641,111.000,154.500,218.000,200.000
0.642,111.000,154.500,218.000,200.000
0.643,111.000,154.000,218.500,200.500
0.644,111.000,154.000,218.500,200.500
0.645,110.500,154.000,218.500,200.500
0.646,110.500,154.000,218.000,200.500
0.647,111.000,154.000,218.000,200.500
0.648,111.000,154.000,217.500,200.500
0.649,111.000,154.000,217.500,200.500
0.650,111.000,153.500,217.000,200.500
0.651,111.000,153.000,216.500,200.500
0.652,111.000,152.500,216.000,200.500
0.653,111.000,152.500,216.000,200.500
0.654,111.000,152.500,216.500,201.000
0.655,111.500,152.500,217.000,201.000
0.656,111.500,153.000,217.500,201.500
0.657,112.000,153.000,218.000,202.000
0.658,112.000,153.500,218.500,202.000
0.659,112.000,153.500,219.000,202.500
0.660,112.000,154.000,219.500,202.500
0.661,112.000,154.000,219.500,202.500
0.662,112.000,154.000,219.500,202.000
0.663,112.000,153.500,219.000,201.500
0.664,111.500,153.000,218.500,201.000
0.665,111.500,153.000,218.000,201.000
0.666,111.500,152.000,217.500,200.500
0.667,111.000,151.500,217.000,200.500
0.668,111.000,151.500,216.500,201.000
0.669,111.000,151.000,216.000,201.000
0.670,110.500,151.000,215.500,201.500
0.671,110.500,151.000,215.500,201.500
0.672,110.500,151.000,215.000,202.000
0.673,110.500,151.000,215.000,202.500
0.674,111.000,151.000,215.000,202.500
0.675,111.000,151.000,215.000,203.000
0.676,111.000,151.000,215.000,203.500
0.677,111.500,151.000,215.000,203.500
0.678,111.500,151.500,215.000,203.500
0.679,111.500,151.500,215.000,204.000
0.680,111.500,151.500,215.500,204.000
0.681,111.500,152.000,215.500,204.000
0.682,111.500,152.000,215.500,204.500
0.683,111.500,151.500,215.500,204.500
0.684,111.000,151.500,215.000,204.500
0.685,111.000,151.500,215.000,204.500
0.686,111.000,151.000,215.000,204.500
0.687,111.000,151.000,214.500,204.500
0.688,111.000,150.500,214.000,204.000
0.689,111.000,150.000,213.500,204.000
0.690,110.500,149.500,213.000,203.500
0.691,110.000,149.000,212.500,203.000
0.692,110.000,148.500,212.000,202.500
0.693,109.500,148.500,211.500,202.500
0.694,109.500,148.500,211.500,202.500
0.695,109.500,148.500,211.500,202.500
0.696,109.500,148.500,211.500,202.500
0.697,109.500,148.500,211.000,202.500
0.698,109.500,148.500,211.000,202.500
0.699,109.500,148.500,211.000,203.000
0.700,109.500,148.500,211.000,203.500
0.701,109.500,148.500,211.000,203.500
0.702,110.000,148.500,211.000,204.000
0.703,110.000,149.000,211.500,204.500
0.704,110.000,149.000,211.500,204.500
0.705,110.000,148.500,211.500,205.000
0.706,109.500,148.500,211.500,205.000
0.707,109.500,148.000,211.000,205.000
0.708,109.500,148.000,211.000,205.000
0.709,109.500,147.500,210.500,205.000
0.710,109.000,147.000,210.000,204.500
0.711,109.000,147.000,209.500,204.500
0.712,109.000,146.500,209.000,204.500
0.713,109.000,146.500,208.500,204.500
0.714,109.000,146.500,208.500,205.000
0.715,109.000,146.500,208.500,205.000
0.716,109.000,147.000,208.500,205.500
0.717,109.000,147.500,209.000,206.000
0.718,109.500,148.000,209.500,206.500
0.719,110.000,148.500,210.000,207.000
0.720,110.000,148.500,210.500,207.500
0.721,110.500,149.000,210.500,208.000
0.722,110.500,149.000,210.500,208.500
0.723,111.000,149.000,210.500,209.000
0.724,111.000,149.000,210.500,209.000
0.725,111.000,149.000,210.500,209.000
0.726,111.000,149.000,210.500,209.000
0.727,110.500,148.500,210.000,209.000
0.728,110.500,148.000,210.000,209.000
0.729,110.500,148.000,209.500,209.000
0.730,110.500,147.500,209.000,209.000
0.731,111.000,147.500,208.500,209.000
0.732,111.000,148.000,208.500,209.000
0.733,111.500,148.000,208.500,209.500
0.734,111.500,148.500,209.000,210.000
0.735,112.000,149.000,209.500,210.500
0.736,112.000,149.500,210.000,211.000
0.737,112.500,150.000,210.500,211.000
0.738,112.500,150.500,211.000,210.500
0.739,112.500,150.500,211.000,210.000
0.740,112.000,150.500,211.000,209.500
0.741,111.500,150.000,211.000,209.500
0.742,111.500,149.500,211.000,209.500
0.743,111.500,149.500,211.000,210.000
0.744,111.500,149.000,210.500,210.500
0.745,111.500,149.000,210.500,211.000
0.746,111.500,148.500,210.000,211.000
0.747,111.500,148.000,209.500,211.500
0.748,111.000,148.000,209.000,211.500
0.749,111.000,147.500,208.500,212.000
0.750,110.500,147.500,208.500,212.500
0.751,110.500,147.000,208.500,212.500
0.752,110.500,147.000,208.000,212.500
0.753,110.500,147.000,208.000,212.500
0.754,110.500,147.000,207.500,212.500
0.755,110.500,147.000,207.500,212.500
0.756,110.500,147.000,207.000,212.500
0.757,110.500,147.000,207.000,212.500
0.758,110.500,147.500,207.000,212.500
0.759,111.000,147.500,207.000,212.500
0.760,111.000,148.000,207.000,212.500
0.761,111.000,148.000,206.500,212.500
0.762,111.000,148.000,206.000,213.000
0.763,111.000,147.500,205.500,213.000
0.764,111.000,147.000,205.000,213.000
0.765,110.500,146.500,204.500,213.500
0.766,110.000,146.000,204.000,213.000
0.767,110.000,145.500,203.500,213.000
0.768,109.500,145.000,203.000,213.000
0.769,109.000,145.000,202.500,212.500
0.770,109.000,145.000,202.000,212.500
0.771,109.000,145.500,202.000,212.500
0.772,109.000,145.500,201.500,212.500
0.773,109.000,146.000,201.500,212.500
0.774,109.000,146.000,201.500,213.000
0.775,109.000,146.500,201.500,213.500
0.776,109.500,147.000,202.000,214.000
0.777,110.000,147.000,202.000,214.500
0.778,110.000,147.500,202.500,215.000
0.779,110.500,147.500,203.000,215.500
0.780,110.000,147.500,203.000,215.500
0.781,110.000,147.000,202.500,215.500
0.782,110.000,146.500,202.500,215.500
0.783,109.500,146.000,202.000,215.000
0.784,109.500,145.500,201.500,215.000
0.785,109.500,145.000,201.000,214.500
0.786,109.500,145.000,200.500,214.500
0.787,109.500,144.500,200.500,214.500
0.788,109.500,144.500,200.000,214.500
0.789,110.000,144.500,200.000,214.000
0.790,110.000,144.500,200.000,214.000
0.791,110.000,144.500,200.000,214.000
0.792,110.000,144.500,200.000,214.000
0.793,110.000,145.000,200.000,214.500
0.794,110.000,145.500,200.500,214.500
0.795,110.500,146.000,200.500,215.000
0.796,110.500,146.000,201.000,215.000
0.797,110.500,145.500,201.000,215.000
0.798,109.500,145.500,201.000,215.000
0.799,109.000,144.500,200.000,214.500
0.800,107.500,143.500,199.000,214.000
0.801,106.000,141.500,197.500,213.000
0.802,103.500,139.000,195.000,211.500
0.803,101.000,136.500,192.500,210.000
0.804,98.500,134.000,190.000,208.500
0.805,96.500,131.500,188.500,207.000
0.806,95.000,130.000,187.000,206.500
0.807,94.000,129.000,186.000,205.500
0.808,93.000,128.500,186.000,205.500
0.809,93.000,129.000,186.500,206.000
0.810,93.500,130.000,187.500,206.500
0.811,95.000,132.000,189.000,207.500
0.812,97.000,134.000,190.500,209.000
0.813,99.500,136.500,192.500,210.500
0.814,102.500,139.000,195.000,212.500
0.815,105.500,142.000,197.500,214.500
0.816,108.000,144.500,199.500,216.500
0.817,110.500,146.500,201.500,218.500
0.818,112.500,148.000,203.500,220.000
0.819,113.500,149.000,204.000,220.500
0.820,113.500,149.000,204.500,221.000
0.821,113.500,148.500,204.000,221.000
0.822,113.000,148.000,203.000,220.500
0.823,112.000,146.500,201.500,219.500
0.824,111.000,145.000,200.000,219.000
0.825,109.500,143.500,198.500,218.000
0.826,108.500,142.500,197.500,217.000
0.827,107.000,141.500,196.500,216.500
0.828,106.500,140.500,195.500,216.000
0.829,105.500,140.000,195.000,215.000
0.830,105.000,139.000,194.500,214.500
0.831,105.000,138.500,193.500,213.500
0.832,104.500,138.000,192.500,212.500
0.833,104.000,137.000,192.000,211.500
0.834,103.500,136.500,191.000,210.500
0.835,102.500,135.500,190.000,209.500
0.836,101.500,134.500,189.000,208.500
0.837,100.500,133.500,188.000,208.000
0.838,99.500,132.500,187.000,207.500
0.839,98.500,131.000,186.500,206.500
0.840,97.500,130.000,185.500,206.500
0.841,96.000,129.000,184.500,206.000
0.842,95.000,127.500,183.500,205.500
0.843,93.500,126.500,182.500,205.500
0.844,92.000,125.000,181.500,205.500
0.845,91.000,124.000,181.000,206.000
0.846,90.000,123.000,180.500,206.500
0.847,88.500,122.500,180.000,207.000
0.848,87.500,121.500,180.000,208.000
0.849,86.500,121.000,179.500,209.500
0.850,85.500,121.000,180.000,211.000
0.851,85.000,121.000,180.000,212.500
0.852,84.500,121.000,180.500,214.500
0.853,84.000,121.000,181.000,216.000
0.854,83.500,121.000,182.000,218.000
0.855,83.000,121.500,182.500,219.500
0.856,82.500,121.500,183.000,221.500
0.857,82.000,122.000,184.000,222.500
0.858,81.500,122.000,184.500,224.000
0.859,81.500,122.500,184.500,225.000
0.860,81.500,123.000,185.000,226.000
0.861,81.500,123.500,186.000,227.000
0.862,82.500,125.000,187.500,229.000
0.863,84.500,127.000,189.500,231.000
0.864,87.000,129.500,192.000,233.000
0.865,90.000,132.500,195.000,235.000
0.866,93.000,135.500,197.500,237.000
0.867,96.500,138.000,200.000,238.000
0.868,100.000,141.000,202.000,239.000
0.869,103.500,143.500,204.000,240.000
0.870,107.500,146.500,206.000,240.500
0.871,111.000,149.500,208.000,241.000
0.872,114.500,152.500,210.000,242.000
0.873,117.500,155.000,212.000,243.000
0.874,119.500,156.500,213.500,243.500
0.875,120.500,157.500,214.500,244.000
0.876,121.000,158.000,214.500,244.000
0.877,120.500,157.500,214.000,244.000
0.878,120.000,157.000,213.000,243.000
0.879,119.000,155.500,212.000,242.500
0.880,118.000,154.500,210.500,241.500
0.881,116.500,152.500,209.000,240.500
0.882,115.000,151.000,207.000,239.000
0.883,113.500,148.500,205.000,237.500
0.884,111.500,146.500,203.000,235.500
0.885,110.000,144.500,200.500,233.500
0.886,108.500,142.500,198.500,231.500
0.887,107.000,140.500,197.000,230.000
0.888,105.500,139.000,195.000,228.500
0.889,104.500,137.500,194.000,227.000
0.890,103.000,136.000,192.500,226.000
0.891,102.500,135.000,192.000,225.000
0.892,101.500,134.500,191.500,224.500
0.893,101.000,134.500,191.000,224.500
0.894,101.000,134.500,191.000,224.000
0.895,101.000,134.500,191.000,224.000
0.896,101.000,134.500,191.500,224.000
0.897,101.000,134.500,191.500,224.000
0.898,101.000,134.500,191.000,223.500
0.899,101.000,134.000,190.500,223.000
0.900,101.000,134.000,190.000,222.500
0.901,100.500,133.500,189.500,222.500
0.902,100.500,133.500,189.500,222.500
0.903,100.500,133.500,189.000,222.500
0.904,100.500,133.500,189.000,222.500
0.905,100.500,133.000,189.000,223.000
0.906,100.500,133.000,188.500,223.000
0.907,100.500,133.000,188.500,222.500
0.908,100.000,133.000,188.500,222.500
0.909,100.000,133.000,188.000,222.000
0.910,100.000,133.000,188.000,222.000
0.911,100.500,132.500,188.500,222.000
0.912,100.500,132.500,188.500,221.500
0.913,100.500,132.500,188.500,221.500
0.914,100.500,133.000,188.500,222.000
0.915,100.500,133.000,189.000,222.000
0.916,100.500,133.000,189.000,222.000
0.917,100.500,133.500,189.000,222.000
0.918,100.500,133.500,189.500,222.000
0.919,100.500,133.500,189.500,222.500
0.920,100.500,133.500,190.000,222.500
0.921,100.500,134.000,190.000,222.500
0.922,100.500,134.000,190.000,223.000
0.923,100.500,134.000,190.000,223.000
0.924,100.000,133.500,190.000,222.500
0.925,100.000,133.500,189.500,222.500
0.926,99.500,133.000,189.500,221.500
0.927,99.500,132.500,189.000,221.000
0.928,99.500,132.000,189.000,219.500
0.929,99.000,131.500,188.500,218.500
0.930,99.000,131.000,188.500,217.500
0.931,98.500,131.000,188.000,217.000
0.932,98.000,131.000,188.000,216.500
0.933,98.000,131.000,188.000,217.000
0.934,98.000,131.000,188.000,217.500
0.935,98.500,131.500,188.000,218.000
0.936,98.500,131.500,188.000,218.500
0.937,99.000,132.000,187.500,219.000
0.938,99.000,132.000,187.500,219.500
0.939,99.000,132.000,187.500,220.000
0.940,99.000,132.000,187.500,220.500
0.941,99.000,132.500,187.500,221.000
0.942,99.000,132.000,187.500,221.500
0.943,99.000,132.000,187.500,222.000
0.944,99.000,132.000,187.500,222.000
0.945,98.500,132.000,187.500,222.000
0.946,98.500,131.500,187.500,222.000
0.947,98.500,131.500,187.500,222.500
0.948,98.000,131.500,187.500,222.500
0.949,98.000,131.000,187.000,222.500
0.950,98.000,131.000,187.000,222.500
0.951,97.500,130.500,186.500,222.000
0.952,97.500,130.000,186.000,221.500
0.953,97.500,129.500,185.500,221.000
0.954,97.000,129.500,185.500,221.000
0.955,97.000,129.500,185.500,220.500
0.956,97.000,129.500,186.000,221.000
0.957,97.000,130.000,186.500,221.000
0.958,97.000,130.000,186.500,221.000
0.959,97.500,130.500,187.000,221.500
0.960,97.500,130.000,187.000,221.500
0.961,97.000,130.000,187.000,221.500
0.962,97.000,129.500,186.500,221.500
0.963,96.500,129.000,186.500,221.000
0.964,96.000,128.000,186.000,221.000
0.965,96.000,127.500,185.500,220.500
0.966,95.500,127.000,184.500,220.000
0.967,95.500,126.500,184.000,220.000
0.968,95.000,126.000,183.500,219.500
0.969,95.000,126.000,183.000,219.000
0.970,94.500,125.500,182.500,219.000
0.971,94.500,125.000,182.000,219.000
0.972,94.000,125.000,182.000,219.000
0.973,94.000,125.000,182.500,219.000
0.974,94.000,125.000,182.500,219.000
0.975,94.500,125.500,183.000,219.500
0.976,94.500,125.500,183.500,219.500
0.977,95.000,126.000,183.500,219.500
0.978,95.000,126.000,183.500,219.500
0.979,95.000,125.500,183.500,219.500
0.980,95.000,125.500,183.500,219.500
0.981,95.000,125.500,183.500,219.500
0.982,94.500,125.500,183.000,219.000
0.983,94.500,125.500,183.000,219.000
0.984,94.000,125.000,182.500,218.500
0.985,94.000,125.000,182.000,218.500
0.986,93.500,124.500,181.500,218.000
0.987,93.000,124.000,181.500,217.500
0.988,92.500,123.500,181.000,217.000
0.989,92.500,123.000,181.000,217.000
0.990,92.500,122.500,181.000,216.500
0.991,92.000,122.500,180.500,216.000
0.992,92.000,122.000,180.500,215.500
0.993,92.000,122.000,180.000,215.500
0.994,92.000,122.000,180.000,215.500
0.995,92.500,122.500,180.500,216.000
0.996,92.500,122.500,180.500,216.000
0.997,93.000,123.000,181.000,216.000
0.998,93.000,123.000,181.000,216.000
0.999,93.500,123.500,181.500,216.000
1.000,93.500,124.000,181.500,216.000
1.001,93.500,124.000,182.000,216.000
1.002,93.500,124.000,181.500,216.000
1.003,93.000,123.500,181.500,216.000
1.004,93.000,123.000,181.500,216.000
1.005,92.500,123.000,181.000,215.500
1.006,92.000,122.500,180.500,215.500
1.007,92.000,122.000,180.000,215.000
1.008,91.500,121.500,179.500,214.500
1.009,91.000,121.000,179.000,214.000
1.010,91.000,121.000,178.500,213.500
1.011,91.000,120.500,178.000,213.000
1.012,91.000,120.500,178.000,213.000
1.013,91.000,120.000,178.000,212.500
1.014,91.000,120.000,178.000,212.500
1.015,91.000,120.000,178.000,212.500
1.016,91.000,120.000,178.000,212.500
1.017,91.000,120.000,178.000,212.500
1.018,91.000,120.000,178.000,212.500
1.019,91.000,120.000,178.000,212.500
1.020,91.000,120.000,178.000,212.500
1.021,91.000,120.000,177.500,212.500
1.022,91.000,119.500,177.000,212.500
1.023,90.500,119.500,177.000,212.500
1.024,90.500,119.000,176.500,212.500
1.025,90.000,119.000,176.500,212.500
1.026,90.000,118.500,176.000,212.500
1.027,90.000,118.000,175.500,212.500
1.028,89.500,117.500,175.000,212.000
1.029,89.500,117.000,174.500,212.000
1.030,89.500,116.500,174.500,212.000
1.031,89.000,116.500,174.000,212.000
1.032,89.500,116.500,174.000,212.000
1.033,89.500,116.500,174.000,211.500
1.034,89.500,116.500,174.000,212.000
1.035,90.000,116.500,174.000,212.000
1.036,90.000,116.500,173.500,212.000
1.037,90.000,116.500,173.500,212.500
1.038,90.000,116.500,173.500,212.500
1.039,90.000,116.000,173.000,212.500
1.040,90.000,116.000,173.000,212.500
1.041,90.000,115.500,172.500,212.500
1.042,89.500,115.500,172.500,212.500
1.043,89.000,115.500,172.500,212.500
1.044,89.000,115.500,172.500,212.500
1.045,89.000,115.000,172.000,212.500
1.046,88.500,114.500,171.500,212.500
1.047,88.500,114.000,171.000,212.000
1.048,88.000,113.500,170.000,211.500
1.049,87.500,113.000,169.500,211.500
1.050,87.000,112.000,169.500,211.500
1.051,86.500,111.500,169.000,211.000
1.052,86.500,111.000,168.500,211.000
1.053,86.500,111.000,168.000,211.000
1.054,86.500,111.000,168.000,211.000
1.055,86.500,110.500,168.000,211.000
1.056,86.500,110.500,168.000,211.000
1.057,86.500,110.500,167.500,211.500
1.058,86.500,110.500,167.500,211.500
1.059,86.500,110.500,167.500,211.500
1.060,86.000,110.500,167.500,211.500
1.061,86.000,110.000,167.000,211.500
1.062,86.000,110.000,167.000,211.500
1.063,85.500,110.000,167.000,211.000
1.064,85.500,110.000,167.000,211.000
1.065,85.000,109.500,167.000,211.000
1.066,85.000,109.000,167.000,211.000
1.067,85.000,109.000,166.500,210.500
1.068,84.500,108.500,166.500,210.500
1.069,85.000,108.500,166.000,210.500
1.070,85.000,108.000,165.500,210.500
1.071,85.000,108.000,165.500,210.500
1.072,85.000,108.000,165.500,211.000
1.073,85.000,108.000,165.500,211.000
1.074,85.500,108.000,166.000,211.500
1.075,85.500,108.500,166.500,212.000
1.076,85.500,109.000,166.500,212.000
1.077,85.500,109.000,166.500,212.500
1.078,86.000,109.000,167.000,212.500
1.079,86.000,109.500,167.000,212.500
1.080,86.000,109.500,167.000,212.500
1.081,86.000,109.000,167.000,212.500
1.082,86.000,109.500,167.000,213.000
1.083,86.000,109.500,167.000,213.000
1.084,85.500,109.000,166.500,213.000
1.085,85.500,109.000,166.500,213.000
1.086,85.500,109.000,166.500,213.000
1.087,85.000,109.000,166.500,213.000
1.088,85.000,109.000,166.500,213.000
1.089,85.000,108.500,166.000,213.000
1.090,85.500,108.500,166.000,213.000
1.091,85.500,108.500,166.000,212.500
1.092,85.500,108.500,166.000,212.500
1.093,85.500,108.500,165.500,212.000
1.094,85.500,108.500,165.500,211.500
1.095,85.500,108.500,165.000,210.500
1.096,85.500,108.000,165.000,210.000
1.097,85.500,108.000,165.000,209.500
1.098,85.500,108.000,165.000,209.500
1.099,85.500,108.500,165.500,209.500
1.100,85.500,108.500,165.500,210.000
1.101,85.500,109.000,165.500,210.500
1.102,85.500,109.000,165.500,211.000
1.103,85.500,108.500,165.000,211.000
1.104,85.000,108.500,164.500,211.500
1.105,84.500,108.000,164.000,211.500
1.106,84.500,107.500,163.500,211.500
1.107,84.000,107.500,163.000,211.000
1.108,84.000,107.000,162.500,210.500
1.109,84.000,107.000,162.000,210.500
1.110,84.000,106.500,161.500,210.000
1.111,84.000,106.000,161.500,210.000
1.112,84.000,106.000,161.000,210.000
1.113,83.500,105.500,160.500,209.500
1.114,83.500,105.500,160.000,209.500
1.115,83.500,105.500,160.000,209.500
1.116,83.500,106.000,160.000,209.500
1.117,83.500,106.000,160.000,209.500
1.118,84.000,106.500,160.500,209.500
1.119,84.000,106.500,160.500,210.000
1.120,84.500,106.500,160.500,210.000
1.121,84.500,106.500,160.500,210.000
1.122,84.500,106.500,160.000,210.000
1.123,84.500,106.500,160.000,209.500
1.124,84.500,106.000,159.500,209.500
1.125,84.500,106.000,159.000,209.000
1.126,84.500,105.500,158.500,209.000
1.127,84.000,105.500,158.000,208.500
1.128,84.000,105.500,157.500,208.500
1.129,83.500,105.000,157.000,208.500
1.130,83.000,104.500,156.500,208.000
1.131,83.000,104.500,156.000,207.500
1.132,82.500,104.000,155.500,207.000
1.133,82.000,104.000,155.500,207.000
1.134,82.000,104.000,155.500,207.000
1.135,82.500,104.000,155.500,207.000
1.136,82.500,104.500,155.500,207.000
1.137,83.000,105.000,155.500,207.500
1.138,83.000,105.500,156.000,207.500
1.139,83.500,106.500,157.000,208.000
1.140,84.000,107.000,157.500,208.500
1.141,84.500,107.500,158.000,209.000
1.142,84.500,108.000,158.500,209.000
1.143,85.000,108.500,158.500,209.000
1.144,85.000,108.500,158.500,209.000
1.145,85.000,108.500,158.000,209.000
1.146,84.500,108.000,157.500,208.500
1.147,84.000,107.500,157.000,208.000
1.148,83.500,107.000,156.000,207.500
1.149,82.500,105.500,155.000,206.500
1.150,81.000,104.000,153.000,205.500
1.151,79.000,102.000,151.000,204.000
1.152,76.500,99.500,148.500,202.500
1.153,73.500,96.500,146.000,201.000
1.154,71.000,93.500,143.500,199.500
1.155,68.500,91.500,141.500,198.000
1.156,67.000,90.000,140.000,197.500
1.157,66.000,89.000,139.500,197.000
1.158,66.000,89.000,140.000,197.000
1.159,66.500,89.500,140.500,198.000
1.160,67.500,91.500,142.000,199.000
1.161,69.500,93.500,143.500,200.000
1.162,71.500,96.000,146.000,202.000
1.163,74.500,99.000,148.500,203.500
1.164,77.000,102.500,151.000,205.500
1.165,80.000,105.500,154.000,207.500
1.166,83.000,108.500,156.500,209.000
1.167,85.000,111.000,158.000,210.500
1.168,87.000,113.000,159.500,211.500
1.169,88.000,114.000,160.000,212.000
1.170,88.500,114.500,160.000,212.000
1.171,88.500,114.500,159.500,212.000
1.172,88.000,114.000,159.000,211.500
1.173,87.000,113.000,158.000,211.500
1.174,86.000,112.000,157.000,211.000
1.175,85.000,110.500,156.000,210.500
1.176,84.000,110.000,155.000,210.500
1.177,83.500,109.000,155.000,210.500
1.178,83.500,108.500,154.500,211.000
1.179,83.500,108.500,154.500,211.000
1.180,83.500,108.500,154.000,211.500
1.181,83.500,108.000,154.000,211.500
1.182,83.500,108.000,154.000,212.000
1.183,83.000,107.500,154.000,212.000
1.184,83.000,107.500,153.500,212.000
1.185,83.000,107.000,153.000,212.000
1.186,82.500,106.500,152.500,211.500
1.187,82.500,106.500,152.500,210.500
1.188,82.000,107.000,152.000,210.000
1.189,82.000,107.000,151.500,209.000
1.190,82.500,107.000,151.000,208.500
1.191,82.500,106.500,151.000,208.500
1.192,82.500,106.500,151.000,209.000
1.193,83.000,107.000,151.000,209.500
1.194,83.000,107.000,151.000,210.000
1.195,83.000,107.500,151.500,211.000
1.196,83.000,107.500,151.500,212.500
1.197,83.500,108.000,152.000,213.500
1.198,83.500,108.500,152.500,215.000
1.199,84.000,109.000,152.500,216.000
1.200,84.000,109.000,153.000,216.500
1.201,84.000,109.000,153.000,217.500
1.202,84.000,109.500,153.000,218.000
1.203,84.000,109.000,152.500,218.000
1.204,84.000,109.000,152.500,218.500
1.205,84.000,109.000,152.000,219.000
1.206,84.000,109.000,151.500,219.000
1.207,83.500,108.500,151.000,219.000
1.208,83.500,108.500,151.000,219.000
1.209,83.000,108.500,150.500,219.500
1.210,83.000,108.500,150.500,219.500
1.211,82.500,108.500,150.500,220.000
1.212,82.500,108.500,150.500,220.000
1.213,82.500,108.500,150.500,220.500
1.214,83.000,108.500,150.500,221.000
1.215,83.000,109.000,150.500,221.500
1.216,83.500,109.000,150.500,222.000
1.217,83.500,109.000,150.500,222.500
1.218,84.000,109.000,150.500,223.000
1.219,84.000,109.500,150.500,223.500
1.220,84.500,110.000,151.000,224.000
1.221,85.000,110.000,151.000,224.500
1.222,85.000,110.500,151.000,225.000
1.223,85.000,110.500,151.000,225.500
1.224,85.000,110.500,151.000,226.000
1.225,85.000,110.500,150.500,226.000
1.226,84.500,110.500,150.500,226.500
1.227,84.500,110.500,150.000,226.500
1.228,84.500,110.000,150.000,227.000
1.229,84.000,110.000,149.500,227.000
1.230,84.000,109.500,149.500,226.500
1.231,83.500,109.500,149.000,227.000
1.232,83.500,109.500,149.000,227.000
1.233,83.500,109.500,149.000,227.000
1.234,84.000,110.000,149.000,227.500
1.235,84.000,110.500,149.500,228.000
1.236,84.000,111.000,149.500,229.000
1.237,84.500,111.000,150.000,229.500
1.238,84.500,111.500,150.000,230.000
1.239,84.500,111.500,150.000,230.000
1.240,84.500,111.500,150.000,230.500
1.241,84.500,111.500,150.000,231.000
1.242,84.500,112.000,150.000,231.500
1.243,84.500,111.500,150.000,231.500
1.244,84.500,111.500,149.500,232.000
1.245,84.500,111.000,149.000,232.000
1.246,84.500,111.000,148.500,232.500
1.247,84.500,110.500,148.000,232.500
1.248,84.500,110.500,148.000,232.500
1.249,84.500,110.500,148.000,232.500
1.250,84.500,110.500,147.500,233.000
1.251,84.000,110.500,147.500,233.000
1.252,84.000,110.500,147.500,233.500
1.253,84.000,110.500,147.500,234.000
1.254,84.000,110.500,147.500,234.500
1.255,84.000,111.000,147.500,235.000
1.256,84.000,111.000,147.500,235.500
1.257,84.500,111.000,148.000,235.500
1.258,84.500,111.000,148.000,236.000
1.259,84.500,111.000,148.000,236.000
1.260,84.500,111.500,148.000,236.500
1.261,84.500,111.500,148.000,237.000
1.262,84.500,111.500,148.000,237.500
1.263,84.500,111.500,148.000,238.000
1.264,84.000,111.500,148.500,238.500
1.265,84.000,111.500,148.500,238.500
1.266,84.000,111.500,148.500,238.500
1.267,84.000,111.500,148.500,239.000
1.268,83.500,111.000,148.500,239.000
1.269,83.500,111.000,148.500,239.000
1.270,83.500,110.500,148.500,239.500
1.271,83.500,110.500,148.500,239.500
1.272,83.500,110.500,148.500,239.500
1.273,83.500,110.500,148.500,240.000
1.274,83.500,110.500,149.000,240.000
1.275,83.500,110.500,149.000,240.500
1.276,84.000,110.500,149.500,241.000
1.277,84.000,110.500,149.500,241.500
1.278,84.000,111.000,150.000,242.000
1.279,84.000,111.000,150.500,242.000
1.280,84.500,111.500,150.500,242.500
1.281,84.500,111.500,151.000,243.000
1.282,84.500,111.500,151.000,243.000
1.283,84.000,111.500,151.500,243.000
1.284,84.000,111.500,151.500,243.500
1.285,84.000,111.000,151.500,243.500
1.286,84.000,111.000,151.500,243.500
1.287,83.500,111.000,151.500,243.500
1.288,83.500,111.000,151.500,243.500
1.289,83.500,111.000,151.000,243.000
1.290,83.500,110.500,151.000,243.000
1.291,83.500,110.500,151.000,243.000
1.292,83.500,110.000,151.000,243.000
1.293,83.500,110.000,151.000,243.000
1.294,83.500,110.000,151.000,243.000
1.295,83.500,110.000,151.000,243.000
1.296,83.500,110.000,151.000,243.000
1.297,83.500,110.000,151.000,243.000
1.298,84.000,110.500,151.500,243.500
1.299,84.500,110.500,151.500,244.000
1.300,84.500,111.000,152.000,244.500
1.301,84.500,111.000,152.000,244.500
1.302,84.500,111.000,152.500,245.000
1.303,84.500,111.000,152.500,245.000
1.304,84.000,110.500,152.500,245.000
1.305,83.500,110.500,152.500,244.500
1.306,83.500,110.500,152.000,244.000
1.307,83.500,110.500,152.000,244.000
1.308,83.500,110.500,152.000,243.500
1.309,84.000,110.500,152.000,243.500
1.310,84.000,110.500,152.000,243.500
1.311,84.000,110.500,152.500,243.500
1.312,84.500,110.500,152.500,243.500
1.313,84.500,110.500,152.500,244.000
1.314,85.000,111.000,153.000,244.500
1.315,85.500,111.000,153.500,245.500
1.316,86.000,111.500,154.500,246.000
1.317,86.000,111.500,155.000,246.000
1.318,86.000,112.000,155.500,246.500
1.319,86.000,112.000,155.500,247.000
1.320,86.500,112.000,156.000,247.000
1.321,86.500,112.000,156.000,247.500
1.322,86.500,112.000,156.000,247.500
1.323,86.500,111.500,156.000,247.500
1.324,86.000,111.500,156.000,247.500
1.325,86.000,111.500,156.000,247.500
1.326,86.000,111.000,156.000,247.500
1.327,85.500,111.000,156.000,247.000
1.328,85.500,111.000,156.500,247.000
1.329,85.500,110.500,156.500,246.500
1.330,85.500,110.500,156.500,246.500
1.331,85.500,110.500,156.500,246.500
1.332,85.500,110.500,156.500,247.000
1.333,85.000,110.500,156.500,247.000
1.334,85.000,110.500,157.000,247.500
1.335,85.000,111.000,157.500,247.500
1.336,85.000,111.500,158.000,248.000
1.337,85.500,112.000,158.500,248.500
1.338,85.500,112.000,159.000,249.000
1.339,85.500,112.500,159.500,249.500
1.340,86.000,112.500,160.000,250.000
1.341,86.000,113.000,160.500,250.000
1.342,86.500,113.000,160.500,250.000
1.343,86.500,113.500,161.000,250.000
1.344,86.500,113.500,161.000,250.000
1.345,87.000,113.500,161.000,250.000
1.346,86.500,113.000,161.000,249.500
1.347,86.500,113.000,160.500,249.500
1.348,86.000,112.500,160.500,249.500
1.349,85.500,112.000,160.500,249.000
1.350,85.000,111.500,160.000,249.000
1.351,85.000,111.000,160.000,248.500
1.352,84.500,110.500,160.000,248.500
1.353,84.500,110.000,160.000,248.000
1.354,84.500,110.000,160.500,248.000
1.355,84.500,110.000,160.500,248.000
1.356,84.500,110.500,161.000,248.500
1.357,85.000,110.500,161.500,249.000
1.358,85.000,111.000,162.000,249.000
1.359,85.000,111.000,162.500,249.500
1.360,85.500,111.500,163.000,250.000
1.361,85.500,112.000,163.500,250.500
1.362,86.000,112.500,164.500,250.500
1.363,86.500,112.500,165.000,251.000
1.364,86.500,112.500,165.500,251.000
1.365,86.500,112.500,165.500,250.500
1.366,87.000,112.000,166.000,250.500
1.367,86.500,112.000,166.000,250.500
1.368,86.500,111.500,166.000,250.500
1.369,86.500,111.500,166.000,250.000
1.370,86.000,111.500,165.500,250.000
1.371,86.000,111.500,165.500,250.000
1.372,86.000,111.000,165.500,249.500
1.373,86.000,111.500,165.500,249.500
1.374,86.500,111.500,166.000,249.500
1.375,87.000,112.000,166.500,250.000
1.376,87.000,112.500,167.000,250.000
1.377,87.500,112.500,168.000,250.000
1.378,88.000,113.000,168.500,250.000
1.379,88.000,113.000,169.000,250.000
1.380,88.000,113.000,169.000,250.000
1.381,88.000,113.000,169.000,250.000
1.382,87.500,112.500,169.000,250.000
1.383,87.500,113.000,168.500,250.000
1.384,87.500,113.000,168.500,250.000
1.385,87.500,113.000,169.000,250.000
1.386,87.000,113.000,169.000,250.000
1.387,87.500,113.500,169.500,250.000
1.388,87.500,113.500,169.500,249.500
1.389,87.500,113.000,169.500,249.500
1.390,87.500,113.000,169.500,249.500
1.391,87.500,113.000,169.500,249.000
1.392,87.500,113.000,170.000,249.000
1.393,87.500,113.000,170.000,249.000
1.394,87.500,113.000,170.500,249.000
1.395,88.000,113.500,170.500,249.000
1.396,88.000,113.500,170.500,249.500
1.397,88.500,114.000,170.500,250.000
1.398,88.500,114.000,170.500,250.000
1.399,88.500,114.500,171.000,250.500
1.400,89.000,114.500,171.000,250.500
1.401,89.000,115.000,171.500,250.500
1.402,89.500,115.000,171.500,250.500
1.403,89.500,115.000,171.500,250.500
1.404,89.500,115.000,172.000,250.000
1.405,89.500,115.000,171.500,250.000
1.406,89.500,115.000,171.500,249.500
1.407,89.500,114.500,171.000,249.000
1.408,89.000,114.000,170.500,248.500
1.409,89.000,113.500,170.500,248.000
1.410,88.500,113.500,170.000,247.500
1.411,88.500,113.000,170.000,247.000
1.412,88.000,112.500,170.000,247.000
1.413,88.000,112.500,170.000,246.500
1.414,88.000,112.500,170.500,246.500
1.415,88.000,112.500,170.500,246.500
1.416,88.000,112.500,171.000,247.000
1.417,88.500,112.500,171.000,247.000
1.418,88.500,113.000,171.500,247.000
1.419,89.000,113.000,172.000,247.000
1.420,89.000,113.000,172.000,247.500
1.421,89.000,113.500,172.000,247.500
1.422,89.000,113.000,172.000,247.500
1.423,89.500,113.000,172.000,247.500
1.424,89.500,113.000,172.000,247.000
1.425,89.500,113.000,172.000,247.000
1.426,90.000,112.500,172.000,247.000
1.427,90.000,112.500,172.000,247.000
1.428,90.000,112.500,172.500,247.000
1.429,90.000,112.500,172.500,247.000
1.430,90.000,113.000,172.500,247.000
1.431,90.000,113.000,172.500,247.000
1.432,90.000,113.000,172.500,247.000
1.433,90.500,113.500,173.000,247.000
1.434,90.500,113.500,173.000,247.500
1.435,91.000,114.000,173.500,247.500
1.436,91.000,114.500,174.000,248.000
1.437,91.000,115.000,174.500,248.000
1.438,91.500,115.500,175.000,248.500
1.439,91.500,116.000,175.000,249.000
1.440,91.500,116.000,175.500,249.000
1.441,91.500,116.000,175.500,249.000
1.442,91.000,115.500,175.000,249.500
1.443,91.000,115.000,175.000,249.000
1.444,90.500,115.000,174.500,249.000
1.445,90.500,114.500,174.000,249.000
1.446,90.000,114.500,174.000,248.500
1.447,90.000,114.000,173.500,248.500
1.448,90.000,114.000,173.000,248.500
1.449,89.500,114.000,172.500,248.500
1.450,89.500,114.000,172.500,248.500
1.451,89.500,114.000,172.500,248.500
1.452,89.500,114.000,172.000,248.500
1.453,89.500,114.000,172.500,248.500
1.454,90.000,114.000,172.500,248.500
1.455,90.000,114.000,172.500,248.500
1.456,90.000,114.500,173.000,249.000
1.457,90.000,114.500,173.000,249.000
1.458,90.000,114.500,173.000,249.500
1.459,90.000,114.500,173.500,250.000
1.460,90.000,114.500,174.000,250.500
1.461,90.000,114.500,174.000,250.500
1.462,90.000,115.000,174.000,251.000
1.463,90.000,115.000,174.000,251.000
1.464,90.000,115.000,174.000,251.500
1.465,90.000,115.000,174.000,251.500
1.466,90.000,115.000,174.000,251.500
1.467,90.000,115.000,173.500,252.000
1.468,90.000,115.000,173.500,252.000
1.469,89.500,114.000,172.500,252.000
1.470,89.000,113.500,171.500,251.500
1.471,88.500,113.000,171.000,251.000
1.472,88.500,112.500,170.000,251.000
1.473,88.500,112.000,170.000,250.500
1.474,89.000,112.000,169.500,250.500
1.475,89.000,112.000,169.500,251.000
1.476,89.000,112.000,169.500,251.000
1.477,89.500,112.000,169.500,251.500
1.478,89.500,112.000,169.500,251.500
1.479,90.000,112.500,169.500,252.000
1.480,90.500,112.500,169.500,252.500
1.481,90.500,112.500,169.000,252.500
1.482,90.000,112.500,169.000,252.500
1.483,90.000,112.000,168.500,252.500
1.484,89.500,112.000,168.500,253.000
1.485,89.000,111.500,168.000,252.500
1.486,89.000,111.000,167.500,252.500
1.487,88.500,111.000,167.000,252.500
1.488,89.000,110.500,167.000,252.500
1.489,89.000,110.500,166.500,252.500
1.490,89.000,110.500,166.000,252.000
1.491,89.000,110.500,165.000,251.500
1.492,89.000,110.000,164.500,251.000
1.493,88.500,110.000,164.000,250.000
1.494,87.500,109.000,163.000,249.000
1.495,86.500,108.000,162.000,248.000
1.496,85.500,106.500,160.000,247.000
1.497,84.000,105.000,158.500,245.500
1.498,82.500,103.000,156.000,244.000
1.499,81.000,100.500,153.500,242.000
1.500,78.500,97.500,150.500,240.500
1.501,75.000,93.500,147.000,238.500
1.502,71.500,89.500,143.000,236.000
1.503,67.500,85.500,139.000,234.000
1.504,63.500,81.500,135.500,232.000
1.505,60.500,78.500,132.500,230.500
1.506,57.500,76.000,130.500,229.500
1.507,55.500,74.000,129.000,229.500
1.508,54.500,73.000,128.500,230.000
1.509,54.000,73.000,129.000,231.500
1.510,54.000,73.500,130.000,234.000
1.511,55.000,75.000,132.000,237.000
1.512,56.500,77.500,134.500,240.500
1.513,58.500,80.500,137.500,244.500
1.514,61.000,83.500,141.000,248.000
1.515,64.000,87.000,144.500,252.000
1.516,66.500,90.000,148.000,255.500
1.517,68.500,93.000,150.500,258.500
1.518,70.000,95.000,152.500,261.000
1.519,71.000,96.000,153.500,263.000
1.520,71.500,96.500,154.500,264.500
1.521,71.500,97.000,154.500,265.500
1.522,71.000,96.500,154.000,266.000
1.523,71.000,97.000,154.000,267.000
1.524,71.500,97.500,154.500,268.000
1.525,72.500,98.500,155.500,269.000
1.526,74.500,100.500,157.000,270.500
1.527,77.000,102.500,158.500,272.000
1.528,80.000,105.000,160.500,273.000
1.529,82.500,107.000,162.000,274.000
1.530,86.000,109.500,164.000,275.000
1.531,90.000,112.500,166.000,276.000
1.532,94.000,115.500,168.500,277.000
1.533,98.000,119.000,171.000,278.000
1.534,101.000,121.500,173.000,279.000
1.535,103.500,123.500,174.500,279.500
1.536,104.500,125.000,175.000,280.000
1.537,105.000,125.500,175.500,279.500
1.538,105.000,125.000,175.000,279.000
1.539,104.500,124.500,174.000,278.000
1.540,103.500,123.500,172.500,277.000
1.541,102.500,122.000,170.500,275.500
1.542,101.000,120.500,168.500,274.000
1.543,99.500,118.500,166.500,272.000
1.544,97.500,116.500,164.000,270.000
1.545,96.000,114.500,162.000,268.000
1.546,94.500,112.500,160.000,266.000
1.547,93.000,110.500,158.000,264.500
1.548,92.000,109.000,156.500,263.000
1.549,91.000,107.500,155.000,261.500
1.550,90.000,106.500,153.500,260.500
1.551,89.000,105.500,152.000,259.000
1.552,88.500,104.500,151.000,258.000
1.553,88.000,103.500,150.000,257.000
1.554,88.000,103.000,149.500,256.500
1.555,88.000,103.000,149.000,256.000
1.556,88.000,103.000,149.000,255.500
1.557,88.000,103.000,149.000,255.500
1.558,88.000,103.500,149.500,256.000
1.559,88.000,103.500,149.500,256.000
1.560,88.000,103.500,149.500,256.000
1.561,88.000,104.000,149.500,256.000
1.562,88.000,104.000,149.500,256.500
1.563,87.500,103.500,149.000,256.500
1.564,87.500,103.500,149.000,256.000
1.565,87.500,103.000,148.500,256.000
1.566,87.500,103.000,148.500,255.500
1.567,87.000,102.500,148.000,255.000
1.568,87.000,102.000,147.500,254.500
1.569,87.000,101.500,147.000,254.000
1.570,87.000,101.500,146.500,253.500
1.571,86.500,101.000,146.000,253.000
1.572,86.500,100.500,146.000,252.500
1.573,86.000,100.500,145.500,252.500
1.574,86.000,100.500,145.500,252.000
1.575,86.000,100.500,145.500,252.000
1.576,86.000,100.500,145.500,251.500
1.577,86.000,100.500,145.000,251.500
1.578,86.000,100.000,145.000,251.000
1.579,85.500,100.000,145.000,251.000
1.580,85.500,99.500,144.500,250.500
1.581,85.500,99.500,145.000,250.500
1.582,85.500,99.500,145.000,250.000
1.583,85.500,99.500,144.500,250.000
1.584,85.500,99.500,144.500,249.500
1.585,85.000,99.000,144.000,249.000
1.586,85.000,99.000,144.000,249.000
1.587,84.500,98.500,143.500,248.500
1.588,84.500,98.500,143.500,248.500
1.589,84.500,98.500,143.000,248.500
1.590,84.500,98.500,143.000,248.000
1.591,84.500,98.500,142.500,248.000
1.592,84.500,98.500,142.500,247.500
1.593,84.500,98.500,142.500,247.000
1.594,85.000,98.500,142.500,247.000
1.595,85.500,98.500,143.000,247.000
1.596,86.000,99.000,143.500,247.000
1.597,86.000,99.000,143.500,247.000
1.598,86.000,99.000,143.500,247.000
1.599,86.000,99.000,143.500,247.000
1.600,86.000,99.000,144.000,247.000
1.601,86.000,99.000,144.000,247.000
1.602,86.000,98.500,143.500,247.000
1.603,85.500,98.500,143.500,246.500
1.604,85.500,98.500,143.500,246.000
1.605,85.000,98.500,143.000,245.000
1.606,85.000,98.500,142.500,244.000
1.607,84.500,98.000,142.500,243.000
1.608,84.000,97.000,141.500,242.500
1.609,84.000,96.500,141.000,241.500
1.610,83.500,96.000,140.500,241.000
1.611,83.500,95.500,139.500,240.500
1.612,83.500,95.000,139.500,240.500
1.613,83.500,95.000,139.000,240.500
1.614,83.500,95.000,139.500,241.000
1.615,84.000,95.500,139.500,241.500
1.616,84.000,96.000,139.500,242.000
1.617,84.500,96.500,140.000,242.000
1.618,84.500,96.500,140.000,242.000
1.619,84.500,97.000,140.000,242.500
1.620,84.500,97.000,140.000,242.000
1.621,84.500,97.000,140.000,242.000
1.622,84.500,97.000,140.000,241.500
1.623,84.500,97.000,139.500,241.000
1.624,84.500,96.500,139.500,241.000
1.625,84.500,96.500,139.000,240.500
1.626,84.500,96.000,139.000,240.500
1.627,84.500,96.000,139.000,240.000
1.628,84.000,96.000,139.000,240.000
1.629,84.000,95.500,139.000,239.500
1.630,84.000,95.500,138.500,239.000
1.631,84.000,95.500,138.500,239.000
1.632,84.000,95.500,138.500,239.000
1.633,84.000,96.000,139.000,239.000
1.634,84.500,96.000,139.500,239.000
1.635,84.500,96.500,139.500,239.000
1.636,84.500,97.000,140.000,239.000
1.637,84.500,97.000,140.000,238.500
1.638,84.500,97.000,140.500,238.500
1.639,84.500,97.000,140.500,238.000
1.640,84.500,97.000,140.500,237.500
1.641,84.500,96.500,140.500,237.000
1.642,84.500,96.500,140.000,236.500
1.643,84.500,96.000,139.500,235.500
1.644,84.500,95.500,138.500,234.500
1.645,84.000,95.500,138.000,233.000
1.646,84.000,95.000,138.000,232.000
1.647,84.500,95.000,137.500,232.000
1.648,84.500,95.000,137.500,232.000
1.649,85.000,95.000,137.500,232.000
1.650,85.000,94.500,137.000,232.000
1.651,84.500,94.500,136.500,232.500
1.652,84.500,94.500,136.000,232.500
1.653,84.500,94.500,135.500,233.000
1.654,84.500,94.500,135.500,233.500
1.655,85.000,94.500,135.500,233.500
1.656,85.000,95.000,136.000,234.000
1.657,85.000,95.000,136.000,234.500
1.658,85.000,95.500,136.500,234.500
1.659,85.000,95.500,136.500,235.000
1.660,85.500,96.000,137.000,235.000
1.661,85.500,96.000,137.000,235.000
1.662,85.500,96.500,137.500,235.000
1.663,85.500,96.500,137.500,235.000
1.664,85.500,96.500,137.500,235.000
1.665,85.500,96.000,137.500,234.500
1.666,85.000,95.500,137.500,234.500
1.667,85.000,95.500,137.000,233.500
1.668,84.500,95.000,136.500,233.000
1.669,84.000,95.000,135.500,232.000
1.670,84.000,94.500,135.000,231.000
1.671,84.000,94.500,134.500,230.500
1.672,84.000,94.500,134.500,229.500
1.673,84.000,94.500,134.500,229.000
1.674,84.000,94.500,134.500,229.000
1.675,84.000,94.500,134.500,229.000
1.676,84.000,94.500,134.500,229.000
1.677,84.000,94.500,134.500,229.000
1.678,84.000,94.500,134.000,229.500
1.679,84.500,94.500,134.000,230.000
1.680,84.500,94.500,134.000,230.500
1.681,84.500,94.500,133.500,230.500
1.682,84.000,94.500,133.500,230.500
1.683,84.000,94.500,133.000,231.000
1.684,83.500,94.500,133.000,230.500
1.685,83.500,94.000,133.000,230.500
1.686,83.500,94.000,132.500,230.500
1.687,83.000,94.000,132.000,230.000
1.688,83.000,93.500,131.500,230.000
1.689,83.000,93.500,131.000,229.500
1.690,83.000,93.000,130.500,229.000
1.691,82.500,92.500,130.000,229.000
1.692,82.500,92.500,129.500,228.500
1.693,83.000,92.000,129.500,228.500
1.694,83.000,92.000,129.500,228.500
1.695,83.500,92.000,129.500,228.500
1.696,83.500,92.500,129.500,228.500
1.697,84.000,92.500,129.500,228.500
1.698,84.500,93.000,129.500,228.500
1.699,84.500,93.000,130.000,228.500
1.700,84.500,93.500,130.000,229.000
1.701,84.500,93.500,129.500,229.000
1.702,84.500,93.500,129.500,229.000
1.703,84.000,93.500,129.000,228.500
1.704,83.500,93.500,129.000,228.000
1.705,83.500,93.000,129.000,227.500
1.706,83.000,93.000,128.500,227.000
1.707,83.000,92.500,128.500,226.500
1.708,83.500,92.500,128.500,226.500
1.709,83.500,92.000,128.500,226.000
1.710,83.500,92.000,128.500,226.000
1.711,84.000,91.500,128.000,225.500
1.712,84.000,91.500,128.000,225.500
1.713,84.000,91.500,128.000,225.500
1.714,84.000,91.500,128.000,225.500
1.715,84.000,91.500,128.000,225.000
1.716,84.000,92.000,128.000,225.000
1.717,84.500,92.000,128.000,225.000
1.718,84.500,92.500,128.500,225.000
1.719,84.500,92.500,128.500,224.500
1.720,84.500,92.500,128.500,224.500
1.721,84.500,92.500,128.000,224.500
1.722,84.500,92.500,128.000,224.000
1.723,84.000,92.000,127.500,223.500
1.724,84.000,92.000,127.500,222.500
1.725,83.500,91.500,127.000,222.000
1.726,83.500,91.500,126.500,221.500
1.727,83.000,91.000,126.000,221.000
1.728,82.500,90.500,125.500,220.000
1.729,82.000,90.000,125.000,219.500
1.730,82.000,90.000,124.500,219.000
1.731,81.500,90.000,124.000,218.500
1.732,81.500,89.500,124.000,218.000
1.733,81.500,89.500,124.000,217.500
1.734,81.500,89.500,124.000,217.500
1.735,81.500,90.000,124.000,217.000
1.736,81.500,90.000,124.500,217.000
1.737,81.500,90.000,124.500,217.000
1.738,82.000,90.500,124.500,217.000
1.739,82.000,90.500,124.500,217.000
1.740,82.000,90.500,124.500,217.000
1.741,81.500,90.500,124.500,216.500
1.742,81.500,90.500,124.000,216.500
1.743,81.000,90.000,124.000,216.000
1.744,80.500,89.500,123.500,215.000
1.745,80.000,89.000,122.500,214.500
1.746,79.500,88.500,122.000,213.500
1.747,79.000,88.000,121.500,212.500
1.748,78.500,87.500,121.000,211.500
1.749,78.500,87.000,120.500,210.500
1.750,78.000,87.000,120.500,209.500
1.751,78.000,86.500,120.000,209.000
1.752,78.000,86.500,120.000,208.500
1.753,78.000,86.500,120.000,208.500
1.754,78.000,86.500,120.500,209.000
1.755,78.000,86.500,120.500,209.000
1.756,78.000,86.500,120.000,209.500
1.757,78.000,86.500,120.000,209.500
1.758,78.000,86.500,119.500,209.000
1.759,78.000,86.000,119.500,209.000
1.760,77.500,86.000,119.000,208.500
1.761,77.000,85.500,118.500,208.000
1.762,77.000,85.500,118.000,207.000
1.763,76.500,85.000,117.500,206.500
1.764,76.500,84.500,116.500,205.500
1.765,76.000,84.000,116.000,205.000
1.766,75.500,83.500,116.000,204.500
1.767,75.000,83.500,115.500,203.500
1.768,75.000,83.500,115.000,203.000
1.769,74.500,83.500,114.500,201.500
1.770,74.000,83.000,114.000,200.500
1.771,74.000,83.000,113.500,198.500
1.772,73.500,82.500,113.500,197.000
1.773,73.500,82.500,113.000,195.500
1.774,73.500,82.000,113.000,195.000
1.775,73.500,82.000,113.000,194.500
1.776,73.500,82.000,112.500,194.000
1.777,73.500,82.000,112.000,194.500
1.778,73.500,82.000,112.000,194.500
1.779,73.500,82.500,112.000,195.000
1.780,73.500,82.500,111.500,195.500
1.781,74.000,82.000,111.500,195.500
1.782,74.000,82.000,111.500,196.000
1.783,74.000,82.000,111.000,196.000
1.784,74.000,82.000,111.000,196.000
1.785,74.000,82.000,111.000,196.000
1.786,74.000,82.000,111.000,195.500
1.787,74.000,81.500,111.000,195.500
1.788,74.000,81.500,111.000,195.000
1.789,73.500,81.500,110.500,194.500
1.790,73.500,81.000,110.500,194.000
1.791,73.000,81.000,110.000,193.000
1.792,73.000,80.500,109.500,192.500
1.793,73.000,80.000,109.000,191.500
1.794,73.000,80.000,108.500,191.000
1.795,73.000,80.000,108.500,190.500
1.796,73.500,80.000,108.500,190.500
1.797,73.500,80.000,108.500,190.000
1.798,73.000,80.500,108.500,190.000
1.799,73.000,80.500,108.500,190.000
1.800,73.500,80.000,108.500,189.500
1.801,73.500,80.000,108.500,189.000
1.802,73.500,80.000,109.000,189.000
1.803,73.500,80.000,109.000,188.500
1.804,73.500,80.000,109.000,188.500
1.805,73.500,80.000,108.500,188.000
1.806,73.500,80.000,108.000,187.500
1.807,73.000,80.000,108.000,187.000
1.808,73.000,79.500,107.500,186.500
1.809,73.000,79.500,107.000,186.000
1.810,72.500,79.000,107.000,186.000
1.811,72.500,79.000,107.000,185.500
1.812,72.500,79.000,107.000,185.500
1.813,73.000,79.500,107.000,185.500
1.814,73.000,79.500,107.500,185.500
1.815,73.500,80.000,107.500,185.500
1.816,73.500,80.000,107.500,185.500
1.817,73.500,80.000,107.500,185.500
1.818,73.500,80.000,107.500,185.500
1.819,73.500,80.000,107.500,185.500
1.820,73.500,80.000,107.500,185.500
1.821,73.500,80.000,107.500,185.000
1.822,73.000,80.000,108.000,185.000
1.823,73.000,80.000,108.000,185.000
1.824,73.000,80.000,108.000,185.000
1.825,72.500,79.500,107.500,185.000
1.826,72.500,79.500,107.500,185.000
1.827,72.500,79.000,107.000,184.500
1.828,72.500,79.000,106.500,184.000
1.829,72.000,79.000,106.500,183.500
1.830,72.000,79.000,106.000,183.000
1.831,72.500,79.000,105.500,182.500
1.832,72.500,79.000,105.500,182.500
1.833,72.500,79.000,105.500,182.000
1.834,73.000,79.500,105.500,182.000
1.835,73.000,79.500,106.000,182.000
1.836,73.500,80.000,106.500,182.500
1.837,73.500,80.500,106.500,182.500
1.838,74.000,81.000,107.000,183.000
1.839,74.500,81.500,107.500,183.000
1.840,74.500,81.500,107.500,183.000
1.841,75.000,82.000,107.500,183.000
1.842,75.000,82.000,107.500,183.500
1.843,74.500,82.000,107.000,183.500
1.844,74.500,81.500,107.000,183.500
1.845,74.000,81.000,106.500,183.500
1.846,73.000,80.500,105.500,183.000
1.847,72.500,79.500,104.500,182.500
1.848,71.500,78.000,103.000,181.500
1.849,69.500,76.000,101.000,180.000
1.850,67.500,73.500,98.500,178.500
1.851,65.500,71.000,96.000,176.500
1.852,63.000,68.000,93.000,175.000
1.853,60.500,65.500,90.500,173.500
1.854,58.500,63.500,89.000,172.500
1.855,57.500,62.000,87.500,172.000
1.856,57.000,61.500,87.500,172.000
1.857,57.000,61.500,87.500,172.500
1.858,58.000,62.000,88.500,173.000
1.859,59.500,64.000,89.500,174.000
1.860,61.500,66.000,91.500,175.500
1.861,63.500,68.500,94.000,177.000
1.862,66.500,71.500,96.500,179.000
1.863,69.500,75.000,99.500,181.000
1.864,72.000,78.000,102.000,183.000
1.865,74.500,81.000,104.500,185.000
1.866,76.500,83.000,106.500,186.500
1.867,78.000,85.000,107.500,187.000
1.868,78.500,85.500,108.000,187.500
1.869,79.000,86.000,107.500,187.000
1.870,78.500,86.000,107.000,186.500
1.871,78.000,85.000,106.000,186.000
1.872,77.000,84.500,105.000,185.500
1.873,76.000,83.000,104.000,185.000
1.874,74.500,82.000,103.500,184.500
1.875,74.000,81.000,102.500,184.500
1.876,73.000,80.500,102.000,184.000
1.877,72.500,79.500,102.000,184.000
1.878,72.000,79.000,101.500,184.000
1.879,72.000,79.000,101.500,184.000
1.880,72.000,78.500,101.500,184.000
1.881,71.500,78.000,101.500,184.000
1.882,71.500,78.000,101.000,184.000
1.883,71.500,77.500,100.500,183.500
1.884,71.500,77.000,100.000,183.500
1.885,71.000,76.500,99.500,183.000
1.886,71.000,76.000,99.000,183.000
1.887,70.500,76.000,98.500,183.000
1.888,70.500,76.000,98.500,182.500
1.889,70.000,75.500,98.000,182.500
1.890,70.000,75.500,98.000,182.500
1.891,69.500,75.500,97.500,182.500
1.892,69.500,75.500,97.500,182.500
1.893,69.500,75.500,97.500,182.500
1.894,69.500,75.500,97.500,182.500
1.895,70.000,75.500,98.000,183.000
1.896,70.000,76.000,98.000,183.500
1.897,70.500,76.000,98.000,184.000
1.898,70.500,76.500,98.500,184.500
1.899,70.500,76.500,99.000,185.000
1.900,71.000,76.500,99.000,185.500
1.901,71.000,76.500,98.500,185.500
1.902,71.000,76.000,98.500,185.500
1.903,71.000,76.000,98.000,185.500
1.904,71.000,76.000,98.000,185.500
1.905,71.000,76.000,97.500,185.500
1.906,71.000,76.000,97.500,185.500
1.907,71.000,76.000,97.000,185.500
1.908,70.500,75.500,97.000,185.500
1.909,70.500,75.500,96.500,186.000
1.910,70.500,75.500,96.500,186.000
1.911,70.500,75.500,96.500,186.500
1.912,70.500,75.500,96.500,187.000
1.913,70.500,76.000,97.000,187.500
1.914,71.000,76.000,97.500,188.000
1.915,71.500,76.500,98.000,189.000
1.916,72.000,76.500,98.500,189.000
1.917,72.000,76.500,98.500,189.500
1.918,72.000,76.500,98.500,190.000
1.919,72.000,76.500,98.500,190.000
1.920,71.500,76.500,98.500,190.500
1.921,71.500,76.500,98.500,191.000
1.922,71.500,76.500,98.500,191.000
1.923,71.500,76.000,98.500,191.500
1.924,71.000,76.000,98.000,192.000
1.925,71.000,75.500,98.000,192.000
1.926,70.500,75.000,97.500,192.000
1.927,70.500,75.000,97.000,192.000
1.928,70.000,75.000,97.000,192.000
1.929,70.000,75.000,97.000,192.000
1.930,70.000,75.000,96.500,192.000
1.931,70.000,75.000,96.500,192.000
1.932,70.000,75.000,96.000,192.000
1.933,70.000,74.500,96.000,192.000
1.934,70.000,74.500,96.000,192.500
1.935,70.000,74.500,96.000,192.500
1.936,70.000,74.500,96.000,192.500
1.937,70.000,75.000,96.000,193.000
1.938,70.000,75.000,96.000,193.500
1.939,70.000,74.500,96.000,194.000
1.940,70.000,74.500,95.500,194.500
1.941,70.000,74.500,95.500,194.500
1.942,70.000,74.500,95.500,195.000
1.943,69.500,74.500,95.500,195.500
1.944,69.500,74.500,95.500,195.500
1.945,69.500,74.500,95.500,195.500
1.946,69.500,74.000,95.000,195.500
1.947,69.000,73.500,95.000,195.000
1.948,69.000,73.500,94.500,195.000
1.949,68.500,73.000,94.000,194.500
1.950,68.500,72.500,93.500,194.500
1.951,68.500,72.500,93.500,194.500
1.952,68.500,72.500,93.500,194.500
1.953,68.500,72.500,93.500,195.000
1.954,69.000,73.000,93.500,195.000
1.955,69.000,73.000,94.000,195.000
1.956,69.000,73.000,94.000,195.500
1.957,69.000,73.000,94.000,195.500
1.958,69.000,73.000,94.000,196.000
1.959,69.000,73.000,94.000,196.000
1.960,69.000,73.500,94.500,196.500
1.961,68.500,73.500,94.500,197.000
1.962,68.500,73.500,94.500,197.000
1.963,68.500,73.500,94.500,197.500
1.964,68.000,73.500,94.500,197.500
1.965,68.000,73.000,94.500,197.000
1.966,68.000,73.000,94.500,197.500
1.967,67.500,73.000,94.500,197.500
1.968,67.500,73.000,94.500,197.000
1.969,67.500,73.000,94.000,197.000
1.970,67.500,73.000,94.000,197.000
1.971,68.000,73.000,93.500,197.000
1.972,68.000,73.000,93.000,196.500
1.973,68.000,72.500,93.000,196.500
1.974,68.000,72.500,93.000,197.000
1.975,68.000,72.500,93.000,197.000
1.976,68.000,73.000,93.000,197.000
1.977,68.000,73.000,93.500,197.500
1.978,68.000,73.000,93.500,197.000
1.979,67.500,73.000,93.500,197.000
1.980,67.500,73.000,93.500,197.000
1.981,67.500,73.000,94.000,197.500
1.982,68.000,73.000,94.500,197.500
1.983,68.000,73.500,94.500,198.000
1.984,68.000,73.000,95.000,198.000
1.985,67.500,73.000,94.500,198.000
1.986,67.500,72.500,94.500,198.000
1.987,67.500,72.500,94.000,197.500
1.988,67.500,72.000,93.500,197.000
1.989,67.000,72.000,93.000,196.500
1.990,67.000,71.500,92.500,195.500
1.991,67.000,71.500,92.000,195.000
1.992,67.000,71.500,91.500,194.000
1.993,67.500,71.500,91.500,193.500
1.994,67.500,71.500,91.500,193.000
1.995,67.000,72.000,91.500,193.000
1.996,67.000,72.000,91.500,193.000
1.997,66.500,72.000,91.500,193.000
1.998,66.500,72.000,91.500,193.500
1.999,66.000,72.000,91.500,194.000
2.000,66.000,72.000,91.500,194.500
2.001,66.000,71.500,91.500,194.500
2.002,66.000,71.500,91.500,194.500
2.003,66.000,71.000,91.000,194.000
2.004,65.500,71.000,90.500,193.000
2.005,65.500,71.000,90.000,192.500
2.006,66.000,70.500,89.500,192.000
2.007,66.000,70.500,89.000,192.000
2.008,66.000,70.500,89.000,191.500
2.009,66.000,71.000,89.000,191.500
2.010,66.000,71.000,89.000,191.500
2.011,66.000,71.000,89.000,191.000
2.012,66.000,71.000,89.000,191.000
2.013,66.500,71.000,89.000,190.500
2.014,66.000,71.000,89.000,190.500
2.015,66.000,71.000,88.500,190.000
2.016,66.000,71.000,88.500,190.000
2.017,66.000,71.500,88.500,190.000
2.018,66.000,71.500,88.500,190.000
2.019,66.000,72.000,88.500,190.000
2.020,66.500,72.000,88.500,190.000
2.021,66.500,72.500,88.500,189.500
2.022,66.500,72.500,88.500,189.500
2.023,66.000,72.500,88.500,189.000
2.024,66.000,72.000,88.000,188.500
2.025,66.000,72.000,87.500,187.500
2.026,66.000,71.500,87.000,186.000
2.027,66.000,71.500,86.500,185.000
2.028,66.000,71.500,86.000,184.500
2.029,66.000,71.500,86.000,184.500
2.030,66.000,71.500,85.500,185.000
2.031,66.500,72.000,85.500,185.500
2.032,67.000,72.500,85.500,186.500
2.033,67.000,73.000,85.500,187.000
2.034,67.500,73.500,85.500,187.500
2.035,67.500,73.500,85.500,188.000
2.036,67.500,74.000,85.500,188.500
2.037,68.000,74.000,85.500,189.000
2.038,68.000,74.500,85.500,189.000
2.039,68.500,74.500,85.500,189.000
2.040,69.000,75.000,85.500,189.500
2.041,69.500,75.000,85.500,189.500
2.042,70.000,75.500,85.500,190.000
2.043,70.500,76.000,85.500,190.000
2.044,70.500,76.000,85.000,190.000
2.045,71.000,76.000,84.500,190.000
2.046,71.000,76.000,84.000,189.500
2.047,71.000,76.000,83.000,189.000
2.048,70.500,75.500,82.000,189.000
2.049,70.000,74.500,81.000,188.500
2.050,70.000,74.000,80.500,188.000
2.051,70.000,73.500,79.500,187.500
2.052,69.500,73.500,79.000,187.500
2.053,69.500,73.500,78.500,187.000
2.054,69.500,73.500,78.000,187.000
2.055,69.500,74.000,77.500,186.500
2.056,69.500,74.000,77.500,186.500
2.057,69.500,74.000,77.000,186.000
2.058,69.500,74.000,76.500,186.000
2.059,69.500,74.000,76.000,186.000
2.060,69.500,74.000,75.500,185.500
2.061,69.000,74.000,74.500,185.500
2.062,69.000,74.000,74.000,185.000
2.063,69.000,74.000,73.000,184.500
2.064,68.500,73.500,72.500,184.000
2.065,68.500,73.500,71.500,183.500
2.066,68.000,73.000,70.500,183.000
2.067,68.000,73.000,69.500,182.000
2.068,68.000,72.500,68.500,181.500
2.069,68.000,72.500,67.500,181.500
2.070,68.000,72.000,67.000,181.000
2.071,67.500,72.000,66.000,181.000
2.072,68.000,72.000,65.500,181.000
2.073,68.000,72.500,65.000,181.000
2.074,68.000,72.500,65.000,181.500
2.075,68.500,73.000,64.500,181.500
2.076,69.000,73.500,64.500,182.000
2.077,69.000,74.000,64.500,182.000
2.078,69.500,74.000,64.500,182.000
2.079,69.500,74.500,64.000,182.500
2.080,70.000,74.500,64.000,182.500
2.081,70.000,75.000,63.500,182.500
2.082,70.000,75.000,63.000,182.500
2.083,70.000,75.500,62.500,182.500
2.084,69.500,75.500,61.500,182.000
2.085,69.500,75.500,61.000,181.500
2.086,69.000,75.500,60.000,181.000
2.087,68.500,75.000,58.500,180.500
2.088,68.500,75.000,57.500,180.000
2.089,68.500,75.000,57.000,179.500
2.090,68.500,74.500,56.500,179.500
2.091,68.500,75.000,56.000,179.000
2.092,69.000,75.000,55.500,179.000
2.093,69.500,75.000,55.000,178.500
2.094,70.000,75.000,55.000,178.500
2.095,70.500,75.500,54.500,179.000
2.096,70.500,75.500,54.500,179.000
2.097,71.000,75.500,54.000,179.000
2.098,71.000,75.500,54.000,179.000
2.099,71.000,76.000,53.500,179.000
2.100,71.000,76.500,53.500,179.000
2.101,71.500,76.500,53.500,179.000
2.102,71.500,77.000,53.500,179.000
2.103,71.500,77.000,53.500,179.500
2.104,71.000,77.500,53.500,179.000
2.105,71.500,77.500,53.000,179.000
2.106,71.500,77.500,53.000,178.500
2.107,72.000,77.500,52.500,178.500
2.108,72.000,77.500,52.000,178.000
2.109,72.500,77.000,51.500,177.500
2.110,72.500,77.000,51.000,177.000
2.111,72.500,77.000,51.000,177.000
2.112,72.500,77.000,51.000,177.000
2.113,72.500,77.500,51.000,177.000
2.114,73.000,77.500,51.000,177.000
2.115,73.500,78.000,51.000,177.500
2.116,74.000,78.500,51.500,178.000
2.117,74.500,79.000,51.500,178.000
2.118,75.000,79.500,52.000,178.500
2.119,75.000,80.000,52.500,178.500
2.120,75.000,80.500,52.500,178.500
2.121,75.000,81.000,53.000,178.500
2.122,75.500,81.500,53.500,178.500
2.123,75.500,82.000,53.500,178.500
2.124,75.500,82.000,54.000,178.500
2.125,75.500,82.500,54.000,178.500
2.126,75.500,82.500,53.500,178.500
2.127,75.500,82.500,53.500,178.000
2.128,75.500,82.000,53.000,177.500
2.129,75.000,81.500,52.500,177.500
2.130,75.000,81.500,52.000,177.000
2.131,75.000,81.000,52.000,176.500
2.132,75.000,81.000,51.500,176.500
2.133,75.500,81.000,51.500,176.000
2.134,76.000,80.500,51.000,175.500
2.135,76.000,80.500,51.000,174.500
2.136,76.000,80.500,50.500,174.000
2.137,76.000,80.000,50.000,173.000
2.138,75.500,79.500,49.000,172.500
2.139,74.500,79.000,48.500,171.500
2.140,74.000,78.000,47.500,170.500
2.141,73.000,77.500,47.000,169.000
2.142,72.500,76.500,46.000,168.000
2.143,71.500,75.500,45.500,166.500
2.144,70.000,74.500,44.500,165.000
2.145,69.000,73.000,43.000,164.000
2.146,68.000,72.000,42.000,162.500
2.147,66.500,71.000,41.000,161.500
2.148,65.500,70.000,40.500,161.000
2.149,65.000,69.500,40.000,160.500
2.150,64.000,69.000,40.000,161.000
2.151,63.000,68.500,40.500,162.000
2.152,62.000,68.500,41.000,163.500
2.153,61.500,68.500,41.500,165.500
2.154,61.000,68.500,42.500,167.500
2.155,60.500,68.500,43.500,169.500
2.156,60.000,69.000,44.500,171.500
2.157,60.000,70.000,46.000,174.000
2.158,60.000,70.500,47.500,175.500
2.159,59.500,71.000,48.500,177.500
2.160,59.500,71.500,50.000,178.500
2.161,59.500,72.000,51.000,179.000
2.162,59.500,72.000,51.500,178.500
2.163,59.500,72.000,52.000,178.000
2.164,60.000,72.500,53.000,178.000
2.165,60.500,73.000,54.000,178.000
2.166,62.000,74.000,55.000,178.500
2.167,63.500,75.500,56.500,179.000
2.168,66.000,77.500,58.500,180.000
2.169,68.500,79.500,60.000,181.000
2.170,71.000,81.500,61.500,181.500
2.171,73.500,84.000,63.500,181.500
2.172,76.000,86.000,65.500,181.500
2.173,79.000,89.000,67.500,181.500
2.174,82.500,91.500,70.000,182.000
2.175,85.500,95.000,72.500,182.500
2.176,89.000,98.000,75.000,183.000
2.177,91.500,100.500,77.000,184.000
2.178,93.500,102.500,79.000,184.500
2.179,95.000,104.000,80.500,185.000
2.180,96.500,105.000,81.500,185.500
2.181,97.000,106.000,82.500,186.000
2.182,97.500,106.500,83.000,186.000
2.183,97.500,106.500,83.500,185.500
2.184,97.000,106.000,83.000,184.500
2.185,96.000,105.500,82.500,183.000
2.186,95.000,104.500,82.000,181.500
2.187,93.500,103.000,80.500,179.500
2.188,92.000,101.500,79.000,177.000
2.189,90.500,100.000,77.000,175.000
2.190,89.500,98.500,75.500,173.000
2.191,88.000,97.500,74.000,171.500
2.192,87.500,96.000,73.000,169.500
2.193,86.500,94.500,72.000,168.000
2.194,86.000,93.500,71.000,166.500
2.195,85.000,92.000,70.000,165.500
2.196,84.000,90.500,69.000,164.000
2.197,82.500,89.500,67.500,162.500
2.198,80.500,87.500,66.000,160.500
2.199,78.000,85.500,64.500,158.500
2.200,75.500,83.000,62.500,156.500
2.201,73.000,80.000,60.500,154.500
2.202,70.500,78.000,58.500,153.000
2.203,68.500,76.000,57.000,151.000
2.204,67.500,74.500,56.500,150.000
2.205,67.000,74.000,56.000,149.000
2.206,67.500,74.000,56.500,149.000
2.207,68.500,75.000,57.500,149.000
2.208,70.000,76.500,59.500,149.500
2.209,72.000,78.500,61.500,150.500
2.210,74.500,81.000,64.000,151.500
2.211,77.500,84.000,67.000,153.500
2.212,80.500,87.500,70.000,155.500
2.213,83.500,90.500,73.000,157.500
2.214,86.000,93.500,75.500,159.000
2.215,88.000,95.500,77.500,160.000
2.216,89.500,97.000,79.000,161.000
2.217,90.500,98.000,79.500,161.500
2.218,90.500,98.500,80.000,162.000
2.219,90.000,98.000,80.000,161.500
2.220,89.500,97.000,79.000,161.000
2.221,88.000,95.500,78.500,160.000
2.222,86.500,94.500,77.000,158.500
2.223,85.000,93.000,76.000,157.000
2.224,84.000,92.000,75.000,156.000
2.225,83.000,91.000,74.500,154.500
2.226,82.000,90.500,74.000,153.500
2.227,81.500,90.000,73.500,152.000
2.228,81.000,89.500,73.500,151.000
2.229,80.500,89.500,73.500,150.000
2.230,80.500,89.500,73.500,149.500
2.231,80.000,89.500,73.500,149.000
2.232,80.000,90.000,74.000,148.500
2.233,80.500,90.000,74.500,148.000
2.234,80.500,90.500,74.500,147.500
2.235,80.500,90.500,74.500,147.000
2.236,80.500,90.000,74.500,147.000
2.237,80.500,90.000,74.500,146.500
2.238,80.500,89.500,74.500,146.500
2.239,80.500,89.000,74.500,146.000
2.240,80.500,89.000,74.500,146.000
2.241,80.000,88.500,74.500,145.500
2.242,80.500,88.500,74.000,145.500
2.243,80.500,88.000,74.000,145.000
2.244,80.500,88.000,73.500,145.000
2.245,80.000,87.500,73.500,145.000
2.246,80.000,87.000,73.000,144.500
2.247,79.500,87.000,73.000,144.000
2.248,79.000,86.500,73.000,144.000
2.249,78.500,86.500,72.500,143.500
2.250,78.500,86.500,72.500,143.500
2.251,78.000,86.500,72.500,143.000
2.252,77.500,86.000,72.500,143.000
2.253,77.500,86.000,72.500,143.000
2.254,77.500,86.000,72.500,143.000
2.255,78.000,86.000,72.500,143.000
2.256,78.000,86.000,72.500,143.000
2.257,78.500,86.500,73.000,143.500
2.258,78.500,86.500,73.000,143.500
2.259,78.500,86.500,73.000,144.000
2.260,78.500,86.500,73.000,144.000
2.261,78.500,87.000,73.000,144.000
2.262,78.500,87.000,73.000,144.000
2.263,78.000,87.000,72.500,143.500
2.264,77.500,87.000,72.000,143.500
2.265,77.500,87.000,72.000,143.000
2.266,77.000,86.500,71.500,143.000
2.267,77.000,86.000,70.500,142.000
2.268,76.500,85.500,69.500,141.500
2.269,76.000,85.000,69.000,141.000
2.270,76.000,84.500,68.000,140.500
2.271,75.500,84.500,67.500,140.000
2.272,75.000,84.000,67.000,139.500
2.273,75.000,84.000,66.500,139.500
2.274,74.500,84.000,66.500,139.500
2.275,74.500,84.000,66.500,139.500
2.276,74.500,84.000,66.500,139.500
2.277,74.000,84.500,66.500,139.000
2.278,74.000,84.500,66.500,138.500
2.279,74.000,84.500,66.500,138.500
2.280,73.500,84.500,66.500,138.000
2.281,73.500,84.000,66.500,138.000
2.282,73.000,83.500,66.000,137.500
2.283,72.500,83.000,65.500,136.500
2.284,72.000,82.500,65.000,136.000
2.285,71.500,82.000,64.500,135.000
2.286,71.000,82.000,64.000,134.000
2.287,70.500,81.500,63.500,133.000
2.288,70.500,81.000,63.000,133.000
2.289,70.000,80.500,62.500,132.500
2.290,69.500,80.000,62.000,133.000
2.291,69.500,80.000,61.500,133.000
2.292,69.500,80.000,61.500,133.500
2.293,69.500,80.000,61.000,133.500
2.294,69.500,80.000,61.000,134.500
2.295,69.500,80.500,61.000,135.000
2.296,69.500,80.500,61.500,136.000
2.297,69.500,80.500,61.500,136.500
2.298,69.500,80.500,61.500,137.000
2.299,69.500,80.500,61.000,137.000
2.300,69.000,80.000,61.000,137.000
2.301,69.000,80.000,61.000,137.000
2.302,69.000,80.000,61.000,137.000
2.303,69.000,79.500,61.000,137.000
2.304,69.000,79.500,61.000,137.000
2.305,68.500,79.500,61.000,137.000
2.306,68.500,79.000,60.500,136.500
2.307,68.000,79.000,60.500,136.000
2.308,68.000,78.500,60.000,136.000
2.309,68.000,78.500,60.000,135.500
2.310,68.000,79.000,60.000,135.000
2.311,68.000,79.000,60.000,134.500
2.312,68.000,79.500,60.000,134.000
2.313,68.000,79.500,60.500,134.000
2.314,68.000,80.000,60.500,134.500
2.315,68.000,80.000,61.000,135.000
2.316,68.000,80.500,61.000,135.500
2.317,68.000,80.000,61.000,135.500
2.318,68.000,80.000,61.000,136.000
2.319,68.000,79.500,60.500,136.500
2.320,67.500,79.000,60.000,136.500
2.321,67.000,78.000,60.000,136.500
2.322,66.000,77.500,59.000,136.500
2.323,65.000,76.500,58.500,136.000
2.324,63.500,75.500,57.500,135.500
2.325,62.500,74.500,56.500,135.000
2.326,61.000,73.500,55.500,134.500
2.327,60.000,73.000,54.500,134.000
2.328,59.000,72.000,54.000,133.500
2.329,58.500,71.500,53.000,133.000
2.330,58.000,71.000,52.500,132.500
2.331,57.500,70.500,52.500,132.500
2.332,57.500,70.500,52.500,133.000
2.333,58.500,71.000,53.000,133.500
2.334,59.000,72.000,54.000,134.000
2.335,60.500,73.000,55.000,135.000
2.336,61.500,74.000,56.500,136.000
2.337,62.500,75.500,57.500,137.000
2.338,63.500,77.000,58.500,138.000
2.339,64.500,78.000,60.000,138.500
2.340,65.000,79.500,61.000,139.500
2.341,66.000,80.500,61.500,140.000
2.342,66.500,81.000,62.500,141.000
2.343,67.000,81.500,63.000,141.500
2.344,67.500,82.000,63.500,142.000
2.345,68.000,82.500,64.000,142.500
2.346,68.000,82.500,64.000,143.000
2.347,67.500,82.500,64.000,143.500
2.348,67.500,82.500,64.000,143.500
2.349,67.500,82.000,64.000,143.500
2.350,67.500,82.000,64.000,143.500
2.351,67.500,82.000,64.000,143.500
2.352,67.500,82.000,64.000,143.500
2.353,67.500,82.500,64.000,143.500
2.354,68.000,82.500,64.000,144.000
2.355,68.000,83.000,64.500,144.500
2.356,68.500,83.500,65.000,145.000
2.357,69.000,83.500,65.500,146.000
2.358,70.000,84.000,66.000,146.500
2.359,70.000,84.500,66.500,147.000
2.360,70.500,84.500,66.500,147.500
2.361,71.000,84.500,66.500,148.000
2.362,71.000,84.000,66.500,148.000
2.363,71.000,83.500,66.500,148.000
2.364,71.000,83.500,66.000,148.000
2.365,71.000,83.500,65.500,148.500
2.366,71.500,83.500,65.500,149.000
2.367,71.500,84.000,65.500,149.500
2.368,72.000,84.500,66.000,150.500
2.369,72.000,84.500,66.000,151.000
2.370,71.500,85.000,66.500,151.500
2.371,71.500,85.000,66.500,152.000
2.372,71.500,85.000,66.500,152.500
2.373,71.500,85.000,67.000,153.000
2.374,72.000,85.000,67.000,153.500
2.375,72.500,85.500,67.500,154.000
2.376,73.000,86.000,68.000,154.500
2.377,73.500,87.000,68.000,155.000
2.378,74.000,87.500,69.000,156.000
2.379,74.500,88.500,69.500,156.500
2.380,74.500,89.000,70.500,157.500
2.381,75.000,89.500,71.000,158.000
2.382,75.000,89.500,72.000,158.500
2.383,74.500,89.500,72.000,159.000
2.384,74.500,89.000,72.000,159.500
2.385,74.500,89.000,72.000,159.500
2.386,74.500,89.000,72.000,159.500
2.387,74.500,89.000,71.500,160.000
2.388,75.000,89.000,71.500,160.500
2.389,75.000,88.500,71.500,161.000
2.390,75.000,88.500,71.500,161.500
2.391,75.000,88.500,71.500,162.000
2.392,75.000,89.000,71.500,162.000
2.393,75.000,89.000,71.500,162.000
2.394,75.000,89.000,72.000,161.500
2.395,75.000,88.500,72.000,161.000
2.396,75.000,88.500,72.000,160.000
2.397,75.000,88.500,72.000,159.500
2.398,75.000,88.500,72.500,159.000
2.399,75.000,88.000,72.500,159.000
2.400,75.000,88.000,72.500,159.500
2.401,75.000,88.000,73.000,160.000
2.402,74.500,88.000,73.000,161.000
2.403,74.500,88.000,73.000,162.000
2.404,74.000,87.500,73.000,162.500
2.405,73.500,87.500,72.500,163.000
2.406,73.500,87.000,72.500,163.000
2.407,73.000,86.500,72.000,163.000
2.408,73.000,86.000,72.000,163.000
2.409,72.500,85.500,72.000,163.000
2.410,72.500,85.000,72.000,163.000
2.411,72.500,84.500,72.000,163.000
2.412,72.500,84.500,72.000,163.000
2.413,72.500,84.000,72.500,163.000
2.414,72.500,84.000,72.500,163.000
2.415,72.000,83.500,73.000,163.000
2.416,72.500,83.500,73.000,162.500
2.417,72.500,83.500,73.500,162.500
2.418,72.500,83.500,73.500,162.500
2.419,72.500,83.500,74.000,162.500
2.420,72.500,83.500,74.000,162.000
2.421,72.500,83.500,74.000,162.000
2.422,72.000,83.000,74.500,161.500
2.423,72.000,83.000,74.500,161.500
2.424,72.000,82.500,74.500,161.000
2.425,72.000,82.500,74.500,160.500
2.426,72.000,82.000,74.500,160.000
2.427,72.000,82.000,74.500,159.000
2.428,72.000,82.000,75.000,158.500
2.429,72.000,82.000,75.000,158.000
2.430,72.000,81.500,75.000,158.000
2.431,72.000,81.500,75.000,158.000
2.432,72.000,81.000,75.000,158.000
2.433,72.000,81.000,75.000,158.500
2.434,72.000,81.500,75.500,159.000
2.435,72.500,81.500,76.000,159.500
2.436,72.500,82.000,77.000,160.500
2.437,73.000,83.000,78.000,161.000
2.438,73.500,83.000,79.000,161.500
2.439,73.500,83.500,80.000,162.000
2.440,73.500,84.000,81.000,162.500
2.441,74.000,84.000,81.500,163.000
2.442,74.000,84.000,82.000,163.000
2.443,74.000,84.000,82.000,162.500
2.444,74.000,83.500,82.500,162.500
2.445,74.000,83.500,82.500,162.000
2.446,74.000,83.000,82.500,161.500
2.447,74.000,83.000,82.500,161.000
2.448,74.000,83.000,83.000,160.500
2.449,74.000,83.000,83.000,160.000
2.450,74.000,83.000,83.500,159.500
2.451,74.000,83.000,84.000,159.000
2.452,74.000,83.000,84.500,158.500
2.453,74.000,83.500,85.500,158.500
2.454,74.500,83.500,86.000,158.500
2.455,74.500,84.000,86.500,158.000
2.456,74.500,84.000,87.000,158.000
2.457,75.000,84.500,87.500,158.000
2.458,75.000,84.500,88.000,158.000
2.459,75.000,85.000,88.500,158.000
2.460,75.500,85.000,89.000,158.000
2.461,75.500,85.000,89.500,157.500
2.462,75.500,85.500,90.000,157.500
2.463,75.500,85.500,90.500,157.000
2.464,76.000,85.500,91.000,157.000
2.465,76.000,85.500,91.500,156.500
2.466,76.000,86.000,92.000,156.500
2.467,76.500,86.000,92.500,156.500
2.468,76.500,86.000,93.500,156.000
2.469,76.500,86.500,94.000,156.000
2.470,76.500,86.500,94.500,155.500
2.471,77.000,86.500,95.000,155.000
2.472,77.500,87.000,95.000,155.000
2.473,77.500,87.000,95.000,154.500
2.474,78.000,87.000,95.000,154.000
2.475,78.500,87.500,95.500,153.500
2.476,79.000,88.000,95.500,153.000
2.477,79.500,88.500,96.000,152.500
2.478,80.000,89.000,96.500,152.000
2.479,80.000,89.500,97.500,151.500
2.480,80.000,90.000,98.500,151.500
2.481,80.500,91.000,99.000,151.500
2.482,80.500,91.500,100.000,151.500
2.483,80.500,91.500,100.500,151.500
2.484,80.500,91.500,100.500,151.000
2.485,80.500,91.500,100.500,150.500
2.486,81.000,91.000,100.500,149.500
2.487,81.000,91.000,100.000,149.000
2.488,81.000,90.500,100.000,148.000
2.489,81.000,90.500,100.000,147.000
2.490,81.500,90.000,100.000,145.500
2.491,81.500,90.000,100.000,145.000
2.492,81.500,90.000,100.500,144.000
2.493,82.000,90.000,101.000,143.500
2.494,82.500,90.500,101.500,143.000
2.495,82.500,91.000,102.000,143.000
2.496,83.000,91.500,102.000,142.500
2.497,83.000,92.000,102.500,142.000
2.498,83.500,92.000,103.000,141.500
2.499,83.500,92.500,103.500,141.000
2.500,83.500,93.000,103.500,141.000
2.501,83.500,93.000,104.000,140.500
2.502,83.500,93.000,104.500,140.500
2.503,83.500,93.000,105.000,140.500
2.504,83.000,93.000,105.500,140.000
2.505,83.500,93.000,105.500,139.500
2.506,83.500,93.000,105.500,139.000
2.507,83.500,93.000,106.000,138.500
2.508,83.500,93.000,106.000,138.000
2.509,83.500,93.000,106.500,137.500
2.510,83.000,93.000,106.500,136.500
2.511,83.000,93.000,107.000,135.500
2.512,83.000,93.000,107.000,134.500
2.513,83.000,93.000,107.500,133.500
2.514,83.000,93.000,108.000,132.500
2.515,83.500,93.000,108.000,131.500
2.516,83.500,93.500,108.000,131.500
2.517,83.500,93.500,108.000,131.000
2.518,83.500,94.000,108.000,131.500
2.519,84.000,94.000,108.000,131.500
2.520,84.000,94.500,108.500,132.000
2.521,84.000,94.500,108.500,132.000
2.522,84.000,94.500,109.000,131.500
2.523,84.000,94.000,109.000,131.000
2.524,83.500,94.000,109.000,129.500
2.525,83.000,93.500,109.000,128.500
2.526,83.000,93.500,109.000,127.500
2.527,83.000,93.500,109.000,127.500
2.528,83.000,93.000,109.000,127.000
2.529,82.500,93.000,108.500,127.000
2.530,82.500,93.000,108.500,127.000
2.531,82.500,93.000,108.000,127.000
2.532,82.500,93.000,108.000,127.500
2.533,82.500,93.000,108.000,127.500
2.534,83.000,93.500,108.500,128.500
2.535,83.500,94.000,108.500,129.000
2.536,84.000,94.500,109.000,129.000
2.537,84.500,95.000,110.000,129.500
2.538,85.000,95.500,110.500,129.500
2.539,85.500,96.000,111.000,129.500
2.540,86.000,96.500,111.500,129.500
2.541,86.000,96.500,112.000,129.500
2.542,86.000,96.500,112.000,129.500
2.543,85.500,96.000,111.500,129.000
2.544,84.500,95.000,110.500,128.500
2.545,83.000,94.000,109.500,127.000
2.546,81.500,92.000,108.000,126.000
2.547,79.000,90.000,105.500,124.000
2.548,77.000,87.500,103.500,122.000
2.549,74.500,84.500,101.000,120.500
2.550,72.000,82.000,98.500,118.500
2.551,70.000,80.000,97.000,117.000
2.552,68.500,79.000,95.500,116.000
2.553,67.500,78.000,95.000,115.500
2.554,67.000,78.000,95.000,115.000
2.555,67.500,79.000,95.500,115.500
2.556,68.000,80.000,96.500,116.500
2.557,69.500,81.500,98.000,118.000
2.558,71.000,84.000,100.000,119.500
2.559,73.500,86.500,102.500,121.500
2.560,76.000,89.500,105.500,123.500
2.561,78.500,92.500,108.500,126.000
2.562,81.000,95.000,111.500,127.500
2.563,83.000,97.500,113.500,129.000
2.564,84.500,99.000,115.000,130.000
2.565,85.500,100.000,115.500,130.500
2.566,86.000,100.500,115.500,130.000
2.567,86.000,100.500,114.500,129.000
2.568,85.000,99.500,113.500,127.500
2.569,83.500,98.000,111.500,126.500
2.570,82.000,96.500,110.000,125.500
2.571,80.500,95.000,108.500,124.500
2.572,79.500,94.000,107.000,124.000
2.573,79.000,93.000,106.000,123.500
2.574,78.500,92.500,106.000,123.500
2.575,78.000,92.000,105.500,124.000
2.576,78.000,92.000,105.500,124.500
2.577,78.000,92.000,105.500,125.000
2.578,78.000,92.000,106.000,125.500
2.579,78.000,92.500,106.000,126.000
2.580,78.000,92.500,106.000,127.000
2.581,78.000,93.000,106.500,127.000
2.582,78.000,93.000,106.500,127.500
2.583,78.000,93.000,106.500,127.500
2.584,77.500,93.000,106.500,128.000
2.585,77.000,92.500,106.000,128.000
2.586,77.000,92.000,106.000,128.000
2.587,76.500,91.500,105.500,127.500
2.588,76.000,91.000,105.000,127.500
2.589,75.500,90.500,104.500,127.000
2.590,75.000,90.000,103.500,127.000
2.591,75.000,89.500,103.000,126.500
2.592,74.500,88.500,102.500,126.000
2.593,74.500,88.500,102.000,125.500
2.594,74.500,88.000,102.000,125.500
2.595,74.500,88.000,101.500,125.500
2.596,74.500,88.000,102.000,126.000
2.597,74.500,88.000,102.000,126.000
2.598,74.500,88.000,102.000,126.000
2.599,74.000,88.500,102.500,126.000
2.600,74.000,88.500,102.500,126.000
2.601,74.000,88.500,103.000,126.000
2.602,73.500,88.000,103.000,126.000
2.603,73.500,88.000,103.000,126.000
2.604,73.500,88.000,103.000,126.000
2.605,73.500,88.000,103.000,126.000
2.606,73.000,87.500,102.500,125.500
2.607,73.000,87.000,102.000,125.000
2.608,72.500,86.500,101.500,125.000
2.609,72.500,86.500,101.500,124.500
2.610,72.500,86.000,101.000,124.000
2.611,72.000,86.000,101.000,124.000
2.612,72.000,85.500,101.000,124.000
2.613,72.000,85.500,101.000,124.000
2.614,72.000,85.500,101.500,124.000
2.615,72.500,85.500,102.000,124.000
2.616,72.500,86.000,102.500,124.000
2.617,72.500,86.000,103.000,124.000
2.618,72.500,86.500,103.500,124.500
2.619,72.500,86.500,103.500,124.500
2.620,72.500,86.500,104.000,124.500
2.621,72.000,86.500,104.500,124.000
2.622,72.000,86.500,104.500,124.000
2.623,72.000,86.500,104.500,123.500
2.624,71.500,86.500,105.000,123.000
2.625,71.500,86.500,105.000,123.000
2.626,71.000,86.000,104.500,122.500
2.627,71.000,86.000,104.500,122.000
2.628,71.000,85.500,104.500,122.000
2.629,71.000,85.500,104.500,122.000
2.630,70.500,85.500,104.000,122.000
2.631,70.500,85.000,104.000,122.000
2.632,70.500,84.500,104.000,122.500
2.633,70.500,84.500,104.000,122.500
2.634,71.000,84.000,104.000,122.500
2.635,71.000,84.000,104.500,123.000
2.636,71.500,84.000,105.000,123.000
2.637,71.500,84.000,105.000,123.000
2.638,71.500,84.000,105.500,123.500
2.639,72.000,84.500,106.000,123.500
2.640,72.000,84.500,106.500,124.000
2.641,71.500,84.500,106.500,124.000
2.642,71.500,84.500,107.000,124.000
2.643,71.500,84.500,107.000,124.500
2.644,71.500,84.500,107.500,124.000
2.645,71.500,84.000,107.500,124.000
2.646,71.000,84.000,107.500,123.500
2.647,71.000,83.500,107.500,123.000
2.648,70.500,83.000,107.500,123.000
2.649,70.500,83.000,107.500,122.500
2.650,70.000,83.000,107.500,122.500
2.651,70.000,82.500,107.500,122.500
2.652,70.000,82.500,107.500,122.500
2.653,70.000,82.500,108.000,123.000
2.654,70.000,82.500,108.500,123.500
2.655,70.000,83.000,109.000,123.500
2.656,70.000,83.500,110.000,124.000
2.657,70.000,83.500,110.500,124.500
2.658,70.000,84.000,111.500,124.500
2.659,70.000,84.000,112.000,124.500
2.660,70.000,84.500,112.500,124.500
2.661,69.500,84.500,113.000,124.000
2.662,69.500,84.500,113.500,123.500
2.663,69.500,85.000,113.500,123.000
2.664,69.000,85.000,113.500,122.000
2.665,69.000,84.500,113.500,121.500
2.666,69.000,84.500,114.000,121.500
2.667,69.000,84.500,114.000,122.000
2.668,69.000,84.000,114.000,122.500
2.669,69.500,84.000,114.000,123.500
2.670,69.500,84.000,114.500,124.000
2.671,69.500,84.000,114.500,125.000
2.672,69.500,84.000,115.000,126.000
2.673,70.000,84.000,115.000,127.000
2.674,70.000,84.000,115.500,128.000
2.675,70.500,84.000,116.000,129.000
2.676,70.500,84.500,116.500,130.000
2.677,70.500,84.500,117.000,130.500
2.678,71.000,84.500,117.000,130.500
2.679,71.000,84.500,117.500,131.000
2.680,71.000,85.000,118.500,131.500
2.681,71.000,85.000,119.000,132.000
2.682,71.000,85.000,120.000,132.500
2.683,71.000,85.000,120.500,132.500
2.684,71.000,85.500,121.000,133.000
2.685,70.500,85.500,121.000,133.000
2.686,70.500,85.000,121.000,133.000
2.687,70.500,85.000,121.500,132.500
2.688,70.500,84.500,121.500,132.500
2.689,70.000,84.000,121.000,132.000
2.690,70.000,84.000,121.000,131.500
2.691,70.000,83.500,121.000,131.500
2.692,69.500,83.000,121.000,131.500
2.693,69.500,83.000,121.000,131.500
2.694,69.500,83.000,121.500,132.000
2.695,69.500,83.000,121.500,132.000
2.696,69.500,83.500,122.000,132.000
2.697,69.000,83.500,122.500,132.500
2.698,69.500,83.500,122.500,132.500
2.699,69.500,84.000,123.000,133.000
2.700,69.500,84.000,123.500,133.000
2.701,69.500,83.500,123.500,133.500
2.702,69.500,83.500,123.500,133.500
2.703,69.500,83.000,123.500,133.500
2.704,69.500,83.000,123.500,134.000
2.705,69.500,82.500,123.500,134.000
2.706,69.500,82.500,123.500,134.000
2.707,69.500,83.000,124.000,134.500
2.708,69.500,82.500,124.000,134.000
2.709,69.000,82.500,124.000,134.000
2.710,69.000,82.000,124.000,133.500
2.711,68.500,82.000,124.000,133.000
2.712,68.500,81.500,124.000,132.000
2.713,68.500,81.500,123.500,131.500
2.714,68.500,81.500,123.500,131.000
2.715,68.500,81.500,123.500,130.500
2.716,68.500,81.500,124.000,130.000
2.717,69.000,81.500,124.000,130.500
2.718,69.000,82.000,124.500,131.000
2.719,69.500,82.000,124.500,131.500
2.720,69.500,82.500,125.000,132.500
2.721,69.500,82.500,125.500,133.000
2.722,69.000,82.500,125.500,134.000
2.723,69.000,82.500,125.500,134.500
2.724,69.000,82.500,125.500,134.500
2.725,68.500,82.500,125.500,134.500
2.726,68.000,82.000,125.000,134.500
2.727,68.000,82.000,125.000,134.000
2.728,67.500,81.500,124.500,133.500
2.729,67.500,81.500,124.000,133.000
2.730,67.500,81.000,123.500,133.000
2.731,67.500,81.000,124.000,132.500
2.732,67.500,80.500,124.000,132.500
2.733,67.500,80.500,124.000,132.000
2.734,67.500,80.500,124.000,132.000
2.735,68.000,80.500,124.000,132.000
2.736,68.000,80.500,124.500,132.000
2.737,68.000,80.500,124.500,132.000
2.738,68.000,81.000,124.500,132.000
2.739,68.000,81.000,125.000,132.000
2.740,68.000,81.500,125.000,132.000
2.741,68.000,81.500,125.500,132.000
2.742,68.500,81.500,125.500,132.000
2.743,68.000,81.500,125.500,132.000
2.744,68.000,81.000,125.500,131.500
2.745,67.500,80.500,125.000,131.500
2.746,67.500,80.000,124.500,131.000
2.747,67.500,80.000,124.500,130.500
2.748,67.000,79.500,124.000,130.000
2.749,67.000,79.500,123.500,129.500
2.750,66.500,79.000,123.500,129.000
2.751,66.500,79.000,123.500,129.000
2.752,66.500,79.000,123.500,128.500
2.753,67.000,79.000,123.500,128.500
2.754,67.000,79.500,124.000,128.500
2.755,67.500,79.500,124.000,128.000
2.756,67.500,79.500,124.000,128.000
2.757,68.000,80.000,123.500,128.000
2.758,68.000,80.000,123.500,128.000
2.759,68.000,80.000,123.500,128.000
2.760,68.000,80.000,123.500,128.000
2.761,68.000,80.000,123.500,128.000
2.762,68.000,80.000,123.500,127.500
2.763,67.500,79.500,123.500,127.000
2.764,67.500,79.500,123.000,126.500
2.765,67.000,79.000,122.500,125.500
2.766,67.000,78.500,122.000,125.000
2.767,66.500,78.000,121.500,124.500
2.768,66.500,77.500,121.000,124.000
2.769,66.000,77.000,120.500,123.500
2.770,66.000,77.000,120.000,123.000
2.771,66.000,77.000,120.000,122.000
2.772,66.000,77.000,119.500,121.500
2.773,65.500,77.000,119.500,120.500
2.774,65.500,77.000,119.000,120.000
2.775,65.500,76.500,118.500,119.000
2.776,65.500,76.500,118.000,118.500
2.777,65.000,75.500,117.000,117.500
2.778,64.000,75.000,116.000,116.000
2.779,63.500,74.000,115.000,114.500
2.780,62.500,73.000,114.000,113.000
2.781,61.000,72.000,112.500,111.000
2.782,60.000,71.000,111.000,109.500
2.783,58.500,70.000,109.500,108.000
2.784,57.500,68.500,108.000,106.000
2.785,56.000,67.000,106.500,105.000
2.786,54.500,66.000,105.000,104.000
2.787,53.000,64.500,103.500,103.000
2.788,52.000,63.000,102.500,103.000
2.789,51.000,62.000,101.500,103.000
2.790,50.000,61.000,100.500,103.500
2.791,49.000,60.500,100.000,104.000
2.792,48.500,60.000,100.000,105.000
2.793,47.500,60.000,100.500,106.000
2.794,47.000,60.000,101.000,107.500
2.795,47.000,60.500,102.000,109.500
2.796,47.000,61.000,103.500,111.000
2.797,46.500,62.000,104.500,112.500
2.798,46.500,62.000,105.500,113.500
2.799,46.000,62.500,106.500,114.000
2.800,45.000,62.500,107.000,115.000
2.801,44.500,62.500,107.500,116.000
2.802,44.000,62.500,108.000,117.500
2.803,44.000,62.500,108.500,118.500
2.804,44.500,63.000,108.500,119.500
2.805,45.000,63.000,108.500,120.500
2.806,46.000,63.500,108.500,121.500
2.807,47.000,64.500,109.500,122.500
2.808,49.000,66.500,110.500,123.500
2.809,51.500,68.500,112.500,125.000
2.810,54.000,71.000,114.500,126.500
2.811,56.500,74.000,116.500,128.000
2.812,59.500,76.500,118.500,129.000
2.813,62.500,79.500,120.500,129.500
2.814,66.000,82.500,122.500,130.500
2.815,70.000,85.500,125.000,131.000
2.816,74.000,89.000,128.000,132.000
2.817,78.000,92.500,130.000,133.000
2.818,81.000,95.500,132.000,133.500
2.819,83.000,97.500,133.500,134.000
2.820,84.500,99.000,134.500,134.500
2.821,85.500,100.000,135.000,134.500
2.822,85.500,100.000,135.000,134.000
2.823,85.000,99.500,134.000,133.500
2.824,84.500,98.500,133.000,132.500
2.825,83.500,97.500,131.500,131.000
2.826,82.500,96.000,129.500,129.000
2.827,81.000,94.000,127.500,127.500
2.828,79.000,92.500,125.500,125.000
2.829,77.000,90.500,123.000,123.000
2.830,75.500,88.500,121.000,121.000
2.831,74.000,87.000,119.500,119.500
2.832,72.500,85.500,118.000,117.500
2.833,71.500,84.500,116.500,116.000
2.834,70.500,83.500,115.500,115.000
2.835,70.000,82.500,114.500,114.000
2.836,69.500,82.500,113.500,113.000
2.837,69.500,82.000,113.000,112.500
2.838,69.500,82.000,112.500,112.000
2.839,69.500,81.500,112.000,111.500
2.840,69.500,81.500,112.000,111.500
2.841,69.500,81.500,112.000,112.000
2.842,69.500,82.000,111.500,112.000
2.843,70.000,82.000,111.500,112.500
2.844,70.000,82.000,111.500,113.000
2.845,70.000,82.000,111.500,113.000
2.846,69.500,82.000,111.500,113.000
2.847,69.500,82.000,111.500,113.000
2.848,69.500,82.000,111.000,112.500
2.849,69.500,82.000,111.000,112.500
2.850,69.000,82.000,110.500,112.000
2.851,69.000,81.500,110.500,111.500
2.852,69.000,81.500,110.000,111.000
2.853,69.000,81.500,109.500,111.000
2.854,69.500,81.500,109.500,110.500
2.855,69.500,82.000,109.500,110.500
2.856,69.500,82.000,109.500,110.000
2.857,70.000,82.500,109.500,110.000
2.858,70.000,82.500,110.000,110.000
2.859,70.000,82.500,110.500,110.500
2.860,70.000,83.000,111.000,110.500
2.861,70.000,82.500,111.000,110.500
2.862,69.500,82.500,111.000,110.500
2.863,69.500,82.500,111.000,110.500
2.864,69.500,82.500,110.500,110.000
2.865,69.500,82.500,110.000,110.000
2.866,69.500,82.000,110.000,109.500
2.867,69.500,81.500,109.500,109.500
2.868,69.000,81.500,109.500,109.000
2.869,69.000,81.500,109.000,109.000
2.870,68.500,81.500,109.000,109.000
2.871,68.500,81.500,109.500,109.000
2.872,68.500,81.500,109.500,109.000
2.873,68.500,81.000,109.500,109.000
2.874,68.500,81.000,109.500,109.000
2.875,68.000,80.500,109.500,108.500
2.876,68.000,80.500,109.500,108.000
2.877,67.500,80.500,109.500,107.500
2.878,67.000,80.500,109.500,107.000
2.879,66.500,80.500,109.500,106.500
2.880,66.500,80.500,110.000,106.000
2.881,66.000,81.000,110.000,106.000
2.882,66.000,81.000,110.500,106.500
2.883,65.500,81.000,110.500,106.500
2.884,65.500,80.500,110.500,107.000
2.885,65.000,80.500,110.500,107.500
2.886,65.000,80.500,110.500,107.500
2.887,64.500,80.000,110.000,107.500
2.888,64.500,80.000,110.000,107.500
2.889,65.000,80.000,110.000,107.000
2.890,65.000,80.500,110.000,107.000
2.891,65.500,80.500,110.000,107.000
2.892,65.500,81.000,110.500,107.000
2.893,65.500,81.000,111.000,107.000
2.894,65.500,81.500,111.000,107.000
2.895,65.500,81.000,111.000,106.500
2.896,65.000,81.000,111.000,106.500
2.897,64.500,80.500,110.500,106.500
2.898,64.000,79.500,110.000,106.000
2.899,62.500,78.000,109.000,105.500
2.900,61.000,76.500,107.500,104.500
2.901,59.000,74.000,105.500,103.000
2.902,56.500,71.500,103.500,101.000
2.903,54.000,69.000,101.500,99.500
2.904,51.500,67.000,99.500,98.000
2.905,50.000,65.500,98.500,97.000
2.906,49.000,64.000,97.500,96.000
2.907,49.000,63.500,97.500,95.500
2.908,49.000,63.500,97.500,94.500
2.909,50.000,64.500,98.500,94.500
2.910,51.500,66.000,99.500,94.000
2.911,53.500,68.000,101.500,94.500
2.912,56.000,70.500,103.500,96.000
2.913,59.000,73.500,106.500,98.000
2.914,61.500,76.500,109.500,100.500
2.915,64.500,79.500,112.500,102.500
2.916,67.000,82.500,115.000,105.000
2.917,69.000,85.000,117.000,106.500
2.918,70.000,86.500,118.500,107.500
2.919,70.500,87.500,119.000,108.000
2.920,70.500,87.500,119.000,108.500
2.921,70.000,86.500,118.500,108.000
2.922,69.000,85.500,117.500,108.000
2.923,68.000,84.000,117.000,107.500
2.924,66.500,83.000,116.000,107.000
2.925,66.000,82.000,115.000,106.000
2.926,65.000,81.500,115.000,105.500
2.927,65.000,81.000,114.500,105.500
2.928,64.500,81.000,114.500,105.000
2.929,64.500,81.000,114.500,104.500
2.930,64.500,80.500,114.500,104.500
2.931,64.500,80.500,114.500,104.000
2.932,65.000,81.000,115.000,104.000
2.933,65.000,81.000,115.500,104.000
2.934,65.500,81.500,116.000,103.500
2.935,65.500,82.000,116.500,104.000
2.936,66.000,82.500,117.500,104.000
2.937,66.000,83.000,118.000,104.000
2.938,65.500,83.000,118.500,104.000
2.939,65.500,83.000,119.000,103.500
2.940,65.000,83.000,119.000,103.500
2.941,64.500,83.000,119.000,103.000
2.942,64.500,83.000,119.000,103.000
2.943,64.500,83.000,119.000,102.500
2.944,64.500,83.000,119.500,102.000
2.945,64.500,82.500,119.500,101.500
2.946,64.500,82.500,119.500,101.000
2.947,64.500,82.500,119.500,100.500
2.948,64.500,82.500,119.500,100.000
2.949,65.000,82.000,120.000,100.000
2.950,65.000,82.000,120.000,99.500
2.951,65.000,82.000,120.500,99.500
2.952,65.500,82.500,120.500,99.000
2.953,65.500,82.500,121.000,98.500
2.954,66.000,83.000,121.500,98.000
2.955,66.500,84.000,122.000,97.500
2.956,67.000,84.500,122.500,97.500
2.957,67.000,85.000,123.000,97.000
2.958,67.000,85.000,123.500,96.500
2.959,67.500,85.500,123.500,96.500
2.960,67.500,86.000,124.000,96.500
2.961,67.500,86.000,124.000,97.000
2.962,67.500,86.000,124.000,97.000
2.963,67.500,86.000,124.500,97.500
2.964,67.500,86.000,124.500,97.500
2.965,67.500,86.000,124.500,97.500
2.966,67.500,86.000,124.500,98.000
2.967,67.500,86.000,124.500,98.000
2.968,67.500,86.000,125.000,98.000
2.969,67.500,86.000,125.000,98.000
2.970,68.000,86.500,125.500,98.000
2.971,68.500,86.500,126.000,98.000
2.972,69.000,87.000,126.000,98.500
2.973,69.000,87.000,126.500,98.500
2.974,69.500,87.500,126.500,98.500
2.975,69.500,87.500,127.000,99.000
2.976,70.000,88.000,127.500,99.000
2.977,70.000,88.000,128.000,99.500
2.978,70.000,88.500,128.500,99.500
2.979,70.000,88.500,129.000,99.500
2.980,70.000,88.500,129.000,99.500
2.981,70.000,88.500,129.500,99.500
2.982,70.500,88.500,130.000,99.000
2.983,70.500,88.500,130.000,99.000
2.984,70.500,88.500,130.500,99.500
2.985,70.500,89.000,130.500,99.500
2.986,71.000,89.000,131.000,100.000
2.987,71.000,89.500,131.500,100.500
2.988,71.500,89.500,131.500,101.000
2.989,71.500,89.500,131.500,101.500
2.990,71.500,90.000,131.500,102.000
2.991,71.500,90.000,132.000,102.000
2.992,71.500,90.000,132.000,102.500
2.993,71.500,90.500,132.000,102.500
2.994,72.000,90.500,132.000,103.000
2.995,72.000,91.000,132.500,103.000
2.996,72.500,91.000,133.000,103.500
2.997,72.500,91.500,133.000,103.500
2.998,72.500,91.500,133.500,103.500
2.999,72.500,92.000,134.000,104.000
3.000,73.000,92.500,134.000,104.000
3.001,73.000,92.500,134.500,104.500
3.002,73.500,93.000,134.500,104.500
3.003,73.500,93.000,135.000,105.000
3.004,73.500,93.000,135.000,105.500
3.005,73.500,93.000,135.000,106.000
3.006,73.500,93.000,135.000,106.000
3.007,73.000,93.000,134.500,106.500
3.008,73.000,93.000,134.500,106.500
3.009,73.000,92.500,134.500,107.000
3.010,73.000,92.500,134.000,107.000
3.011,73.000,93.000,134.000,107.500
3.012,73.000,93.000,134.000,107.500
3.013,73.000,93.000,134.000,107.500
3.014,73.500,93.000,134.500,107.500
3.015,73.500,93.000,134.500,107.500
3.016,74.000,93.500,135.000,107.500
3.017,74.000,94.000,135.000,107.500
3.018,74.000,94.500,135.500,108.000
3.019,74.000,94.500,135.500,108.500
3.020,74.000,95.000,136.000,109.000
3.021,74.000,95.000,136.000,109.500
3.022,74.000,95.500,136.500,110.500
3.023,74.000,95.500,136.500,111.000
3.024,74.000,95.500,136.500,112.000
3.025,74.000,95.500,136.500,113.000
3.026,74.500,95.000,136.500,113.500
3.027,74.500,95.000,136.500,113.500
3.028,74.500,95.000,137.000,113.500
3.029,74.500,95.000,137.000,113.500
3.030,74.500,95.500,137.500,113.000
3.031,75.000,95.500,137.500,113.000
3.032,75.000,95.500,138.000,113.500
3.033,75.500,96.000,138.500,114.000
3.034,76.000,96.000,139.000,115.000
3.035,76.500,96.500,139.500,116.000
3.036,77.000,97.000,139.500,117.000
3.037,77.000,97.500,140.000,117.500
3.038,77.000,97.500,140.000,118.500
3.039,77.000,97.500,140.500,119.000
3.040,77.000,98.000,140.500,119.500
3.041,77.000,97.500,141.000,120.500
3.042,76.500,97.500,141.000,121.000
3.043,76.500,97.500,140.500,121.000
3.044,76.000,97.500,140.000,121.000
3.045,76.000,97.500,140.000,121.000
3.046,76.000,97.000,139.500,121.000
3.047,76.000,97.000,139.500,121.000
3.048,76.000,97.000,139.500,121.000
3.049,76.000,97.000,139.000,120.500
3.050,76.000,97.000,139.000,120.500
3.051,76.000,96.500,139.000,120.500
3.052,76.000,97.000,139.000,120.500
3.053,76.000,97.000,138.500,120.000
3.054,76.500,97.000,138.500,120.000
3.055,76.500,97.000,138.500,120.000
3.056,77.000,97.000,139.000,120.500
3.057,77.000,97.500,139.000,120.500
3.058,77.000,97.500,139.500,120.500
3.059,77.000,98.000,139.500,121.000
3.060,77.000,98.000,140.000,121.000
3.061,77.000,98.500,140.000,121.500
3.062,77.000,99.000,140.500,121.500
3.063,77.000,99.000,140.500,121.500
3.064,77.000,99.000,140.500,121.500
3.065,76.500,98.500,141.000,121.500
3.066,76.500,98.500,141.000,121.500
3.067,76.500,98.500,141.000,121.500
3.068,76.500,98.500,141.000,121.000
3.069,76.500,98.000,141.000,121.000
3.070,76.500,98.000,141.000,121.000
3.071,76.500,98.000,141.000,121.000
3.072,76.500,98.000,141.000,121.000
3.073,77.000,98.000,141.000,121.000
3.074,77.000,98.000,141.500,121.000
3.075,77.000,98.500,142.000,121.000
3.076,77.500,99.000,142.500,121.000
3.077,77.500,99.000,143.000,120.500
3.078,77.500,99.500,143.500,120.500
3.079,78.000,100.000,144.000,120.500
3.080,78.000,100.000,144.500,120.500
3.081,78.000,100.000,145.000,120.500
3.082,78.000,100.000,145.500,120.500
3.083,78.000,100.000,145.500,120.500
3.084,78.000,100.000,145.500,121.000
3.085,78.000,100.000,145.500,121.000
3.086,77.500,100.000,145.500,121.500
3.087,77.500,100.000,145.500,121.500
3.088,78.000,100.500,145.500,122.000
3.089,78.000,100.500,146.000,122.000
3.090,78.000,100.500,146.000,122.000
3.091,78.500,100.500,146.500,121.500
3.092,78.500,100.500,146.500,121.500
3.093,78.500,100.500,146.500,121.000
3.094,79.000,101.000,147.000,121.000
3.095,79.000,101.000,147.500,121.000
3.096,79.500,101.500,148.500,121.000
3.097,80.000,102.000,149.000,121.500
3.098,80.000,102.000,149.500,121.500
3.099,80.000,102.000,150.000,121.500
3.100,80.500,102.500,150.500,121.500
3.101,80.500,102.500,151.000,121.500
3.102,80.000,102.500,151.000,121.500
3.103,80.000,102.500,151.000,121.000
3.104,80.000,102.500,151.000,120.500
3.105,80.000,102.500,151.000,120.500
3.106,80.500,102.000,150.500,120.000
3.107,80.500,102.000,151.000,120.000
3.108,81.000,102.500,151.000,120.000
3.109,81.500,102.500,151.500,119.500
3.110,81.500,102.500,152.000,119.500
3.111,82.000,103.000,152.500,120.000
3.112,82.500,103.000,153.000,120.000
3.113,83.000,103.500,153.500,120.500
3.114,83.000,103.500,154.000,120.500
3.115,83.500,104.000,154.500,121.000
3.116,84.000,104.500,155.000,121.000
3.117,84.500,104.500,155.500,121.000
3.118,85.000,105.500,156.000,121.000
3.119,85.000,106.000,156.500,121.500
3.120,85.000,106.500,156.500,121.500
3.121,85.500,107.000,156.500,122.000
3.122,85.500,107.000,157.000,122.000
3.123,85.500,107.000,157.000,122.000
3.124,85.500,107.000,157.000,122.000
3.125,85.000,107.000,157.000,121.500
3.126,85.000,106.500,157.000,121.000
3.127,85.000,106.500,157.000,120.500
3.128,84.500,106.000,156.500,120.000
3.129,84.500,106.000,156.500,119.500
3.130,84.500,105.500,156.500,119.000
3.131,84.500,105.500,156.000,118.500
3.132,84.500,106.000,156.000,118.500
3.133,84.500,106.000,156.000,118.500
3.134,84.500,106.000,156.500,118.500
3.135,84.500,106.500,156.500,118.500
3.136,84.500,106.500,156.500,118.500
3.137,85.000,107.000,157.000,118.000
3.138,85.000,107.000,157.000,118.000
3.139,85.000,107.500,157.500,118.000
3.140,85.500,107.500,157.500,118.000
3.141,85.500,107.500,157.500,117.500
3.142,85.500,107.500,157.500,117.000
3.143,85.500,107.500,157.500,117.000
3.144,85.500,107.500,157.000,117.000
3.145,85.500,107.500,157.000,117.000
3.146,85.500,107.500,156.500,117.000
3.147,85.500,107.000,156.000,117.500
3.148,85.500,107.000,156.000,117.500
3.149,85.500,107.000,155.500,117.500
3.150,85.500,106.500,155.000,117.500
3.151,86.000,106.500,155.000,117.500
3.152,86.000,106.500,155.000,117.000
3.153,86.000,106.500,154.500,116.500
3.154,86.500,106.500,154.500,116.500
3.155,86.500,106.500,154.500,116.500
3.156,87.000,106.500,155.000,116.500
3.157,87.000,107.000,155.000,116.500
3.158,87.000,107.000,155.000,117.000
3.159,87.000,107.000,155.000,117.000
3.160,87.000,107.500,155.000,117.000
3.161,87.000,107.500,155.000,116.500
3.162,87.000,107.500,155.000,116.000
3.163,87.000,107.500,155.000,115.000
3.164,87.000,107.500,155.000,114.500
3.165,86.500,107.500,154.500,114.500
3.166,86.500,107.000,154.500,114.500
3.167,86.500,107.000,154.000,114.500
3.168,86.500,107.000,154.000,115.000
3.169,86.500,107.000,153.500,115.000
3.170,86.500,107.000,153.500,115.000
3.171,86.500,107.000,153.000,115.000
3.172,86.500,107.500,153.000,115.000
3.173,87.000,107.500,153.500,115.500
3.174,87.000,107.500,153.500,115.500
3.175,87.000,107.500,153.500,116.000
3.176,87.000,107.500,154.000,116.500
3.177,87.500,108.000,154.000,116.500
3.178,88.000,108.500,154.500,117.500
3.179,88.000,109.000,155.000,118.000
3.180,88.500,109.500,155.500,118.500
3.181,89.000,110.000,156.000,119.000
3.182,89.000,110.500,156.000,119.500
3.183,89.000,110.500,155.500,119.500
3.184,88.500,110.500,155.500,120.000
3.185,88.500,110.000,155.000,120.000
3.186,88.000,110.000,155.000,120.000
3.187,88.000,109.500,154.500,120.000
3.188,88.000,109.500,154.500,120.000
3.189,88.000,109.500,154.000,120.000
3.190,88.500,109.500,154.000,119.500
3.191,88.500,110.000,154.000,120.000
3.192,89.000,110.500,154.000,120.000
3.193,89.500,110.500,154.000,120.000
3.194,89.500,111.000,154.500,120.500
3.195,90.000,111.000,154.500,120.500
3.196,90.000,111.500,155.000,120.500
3.197,90.000,112.000,155.000,121.000
3.198,90.000,112.000,155.500,121.000
3.199,90.500,112.500,155.500,121.000
3.200,90.000,112.000,156.000,121.500
3.201,90.000,112.000,156.000,121.500
3.202,89.500,111.500,156.000,121.500
3.203,89.500,111.500,155.500,121.000
3.204,89.000,111.000,155.500,121.000
3.205,88.500,111.000,155.000,121.000
3.206,88.500,111.000,154.500,120.500
3.207,88.000,110.500,154.000,120.000
3.208,88.000,110.500,153.500,120.000
3.209,87.500,110.500,153.000,119.500
3.210,87.500,110.000,153.000,119.500
3.211,87.500,110.000,153.000,119.500
3.212,87.500,110.000,152.500,119.500
3.213,87.500,110.000,152.500,119.500
3.214,88.000,110.500,152.500,120.000
3.215,88.000,111.000,152.500,120.000
3.216,88.000,111.000,153.000,120.500
3.217,88.000,111.000,153.000,121.000
3.218,87.500,111.000,153.000,121.000
3.219,87.500,111.000,153.000,121.500
3.220,87.500,111.000,153.000,121.500
3.221,88.000,111.000,152.500,121.500
3.222,88.000,111.500,152.500,121.000
3.223,88.000,111.500,152.000,120.500
3.224,87.500,111.500,152.000,120.000
3.225,87.500,111.500,152.000,120.000
3.226,87.500,111.000,151.500,120.000
3.227,87.500,111.000,151.500,120.500
3.228,87.500,111.500,151.500,121.000
3.229,88.000,111.500,151.000,121.500
3.230,88.000,112.000,151.000,121.500
3.231,88.000,112.000,150.500,122.000
3.232,88.000,112.500,150.500,122.000
3.233,88.000,112.500,150.000,122.500
3.234,88.000,112.500,150.000,122.500
3.235,88.500,113.000,150.000,123.000
3.236,88.500,113.000,150.500,123.000
3.237,88.500,113.000,150.500,123.000
3.238,88.500,113.500,151.000,123.500
3.239,89.000,114.000,151.500,123.500
3.240,89.500,114.500,152.000,124.000
3.241,90.000,115.000,152.000,124.000
3.242,90.500,115.500,152.500,124.500
3.243,90.500,115.500,152.500,124.500
3.244,90.500,116.000,152.500,125.000
3.245,90.500,116.000,152.000,125.000
3.246,90.000,116.000,152.000,125.000
3.247,90.000,115.500,151.500,124.500
3.248,89.000,115.000,150.500,124.000
3.249,88.500,114.000,149.500,123.500
3.250,87.500,113.000,148.000,122.500
3.251,86.000,111.000,146.500,121.000
3.252,84.000,109.000,144.500,120.000
3.253,82.000,107.000,142.500,119.000
3.254,79.500,105.000,140.500,117.500
3.255,77.500,103.000,138.500,116.500
3.256,75.500,101.500,137.500,116.000
3.257,74.500,100.500,136.500,115.500
3.258,74.000,100.500,136.500,115.500
3.259,74.000,100.500,136.500,116.500
3.260,74.500,101.500,137.500,117.000
3.261,75.500,103.500,138.500,118.500
3.262,77.500,105.500,140.500,120.000
3.263,80.000,108.000,142.500,122.000
3.264,82.500,110.500,145.000,124.000
3.265,85.500,113.500,147.500,126.000
3.266,88.500,116.000,150.000,128.500
3.267,91.000,118.500,152.500,130.000
3.268,92.500,120.500,154.500,132.000
3.269,94.000,122.000,155.500,133.500
3.270,95.000,123.000,156.500,134.000
3.271,95.000,123.000,156.500,134.500
3.272,95.000,123.000,156.000,134.000
3.273,94.000,122.000,155.000,133.500
3.274,93.000,121.500,153.500,132.500
3.275,92.000,120.000,152.500,131.500
3.276,91.000,119.500,151.500,130.500
