'Elapsed time','AECG1','AECG2','AECG3','AECG4'
'seconds','uV','uV','uV','uV'
0.000,-38.500,-25.500,-42.500,-34.500
0.001,-334.500,-222.000,-372.500,-301.500
0.002,-384.500,-255.000,-427.500,-346.500
0.003,-409.500,-271.000,-455.000,-369.000
0.004,-419.000,-277.000,-466.000,-378.000
0.005,-421.500,-278.000,-468.500,-380.500
0.006,-420.500,-277.500,-468.500,-380.500
0.007,-419.000,-276.500,-467.500,-379.500
0.008,-417.500,-275.500,-466.500,-378.500
0.009,-416.000,-275.000,-465.500,-377.500
0.010,-415.000,-274.500,-465.000,-376.500
0.011,-414.500,-274.500,-465.000,-375.500
0.012,-413.500,-274.500,-464.500,-375.000
0.013,-413.000,-274.500,-464.500,-374.500
0.014,-412.500,-275.000,-464.500,-374.000
0.015,-412.000,-275.500,-464.500,-373.000
0.016,-411.500,-275.500,-464.000,-372.500
0.017,-410.500,-275.500,-463.500,-371.500
0.018,-410.000,-274.500,-463.000,-371.000
0.019,-409.000,-273.500,-461.500,-370.000
0.020,-408.000,-272.500,-460.000,-369.500
0.021,-407.000,-271.500,-458.500,-369.000
0.022,-405.500,-270.500,-457.000,-368.500
0.023,-404.500,-269.500,-455.500,-368.500
0.024,-403.500,-269.000,-454.500,-369.000
0.025,-402.500,-268.500,-454.000,-369.500
0.026,-401.500,-268.000,-454.000,-371.000
0.027,-400.500,-268.000,-454.000,-372.500
0.028,-399.500,-268.000,-454.000,-374.000
0.029,-399.000,-268.500,-454.500,-376.000
0.030,-399.000,-269.000,-455.000,-377.000
0.031,-399.000,-269.500,-455.500,-378.000
0.032,-399.500,-270.000,-456.000,-378.500
0.033,-400.000,-270.500,-456.500,-378.500
0.034,-400.000,-270.500,-457.000,-377.500
0.035,-400.500,-270.500,-457.500,-376.500
0.036,-401.000,-270.500,-457.500,-375.000
0.037,-401.000,-270.000,-457.000,-373.500
0.038,-400.500,-269.000,-456.500,-372.000
0.039,-399.500,-268.500,-455.500,-370.500
0.040,-398.500,-267.500,-455.000,-369.000
0.041,-397.500,-266.500,-454.000,-368.000
0.042,-396.500,-266.000,-453.500,-368.000
0.043,-395.500,-266.000,-452.500,-368.500
0.044,-395.000,-265.500,-451.500,-369.000
0.045,-394.000,-265.000,-450.000,-370.000
0.046,-393.500,-264.000,-448.500,-371.000
0.047,-393.000,-263.500,-447.000,-371.500
0.048,-392.500,-262.500,-446.000,-372.500
0.049,-392.000,-262.000,-445.500,-373.000
0.050,-391.500,-262.000,-445.500,-373.500
0.051,-391.500,-262.500,-445.500,-374.000
0.052,-391.000,-263.000,-446.000,-374.000
0.053,-391.000,-263.500,-446.500,-374.000
0.054,-390.500,-264.000,-446.500,-373.500
0.055,-390.500,-264.500,-446.500,-373.000
0.056,-390.000,-264.500,-446.000,-372.000
0.057,-389.500,-264.500,-445.500,-372.000
0.058,-388.500,-264.000,-445.000,-371.500
0.059,-388.000,-263.500,-444.500,-371.500
0.060,-387.000,-263.000,-444.000,-371.500
0.061,-386.000,-262.000,-444.000,-371.500
0.062,-385.500,-262.000,-443.500,-371.500
0.063,-384.500,-261.500,-444.000,-371.500
0.064,-384.000,-261.500,-444.000,-371.000
0.065,-383.500,-261.000,-444.000,-370.500
0.066,-383.000,-261.000,-443.500,-370.000
0.067,-382.500,-260.500,-443.000,-369.000
0.068,-382.500,-259.500,-442.000,-368.000
0.069,-382.500,-259.000,-440.500,-367.000
0.070,-383.000,-258.500,-439.500,-366.500
0.071,-383.500,-257.500,-438.000,-365.500
0.072,-383.500,-257.000,-436.500,-365.000
0.073,-383.500,-257.000,-436.000,-364.500
0.074,-383.500,-257.500,-435.500,-364.500
0.075,-383.500,-258.500,-436.000,-364.500
0.076,-383.000,-260.000,-436.500,-365.000
0.077,-383.000,-261.000,-438.000,-365.500
0.078,-383.000,-262.000,-439.000,-366.000
0.079,-382.500,-262.500,-439.500,-366.500
0.080,-382.500,-263.000,-440.000,-366.500
0.081,-382.000,-262.500,-440.000,-366.500
0.082,-381.500,-262.000,-440.000,-366.000
0.083,-380.500,-261.500,-439.500,-365.500
0.084,-379.000,-260.000,-438.500,-364.500
0.085,-377.000,-259.000,-437.500,-363.000
0.086,-375.500,-257.500,-436.500,-362.000
0.087,-373.500,-256.500,-435.500,-361.500
0.088,-372.500,-256.000,-435.000,-361.000
0.089,-371.500,-256.000,-435.000,-361.000
0.090,-371.000,-256.500,-435.500,-361.500
0.091,-371.000,-256.500,-436.500,-362.000
0.092,-371.000,-256.500,-436.500,-363.000
0.093,-371.000,-256.500,-436.500,-363.000
0.094,-371.000,-256.000,-436.000,-363.500
0.095,-371.000,-255.500,-435.500,-364.000
0.096,-371.000,-255.500,-435.500,-364.500
0.097,-371.000,-256.000,-435.500,-364.500
0.098,-371.000,-256.500,-436.000,-365.000
0.099,-371.500,-257.000,-436.500,-365.500
0.100,-371.500,-257.500,-436.500,-365.500
0.101,-371.500,-257.500,-436.500,-366.000
0.102,-371.500,-257.000,-436.500,-366.500
0.103,-371.500,-256.500,-436.000,-367.000
0.104,-371.500,-256.500,-435.000,-367.500
0.105,-371.500,-256.000,-434.500,-368.500
0.106,-371.500,-256.000,-434.000,-369.000
0.107,-372.000,-256.000,-433.500,-369.000
0.108,-372.000,-256.000,-433.000,-368.500
0.109,-372.000,-256.000,-432.500,-367.500
0.110,-372.000,-255.500,-431.000,-366.000
0.111,-371.500,-254.500,-429.500,-364.000
0.112,-371.000,-254.000,-427.500,-361.500
0.113,-370.000,-253.000,-425.500,-358.500
0.114,-369.500,-252.000,-423.500,-355.500
0.115,-368.500,-251.500,-422.000,-352.500
0.116,-368.000,-250.500,-420.500,-350.000
0.117,-367.000,-250.000,-419.000,-348.000
0.118,-366.000,-249.000,-418.000,-347.000
0.119,-365.000,-248.500,-417.500,-347.000
0.120,-364.000,-247.500,-417.500,-347.500
0.121,-363.000,-246.500,-418.000,-348.500
0.122,-361.500,-245.000,-418.000,-349.000
0.123,-360.000,-244.000,-418.000,-349.000
0.124,-358.000,-242.500,-417.000,-349.000
0.125,-356.000,-241.000,-415.000,-348.000
0.126,-354.500,-240.000,-413.000,-347.500
0.127,-353.000,-239.000,-411.000,-346.000
0.128,-351.500,-238.500,-409.000,-345.000
0.129,-350.000,-238.500,-407.500,-343.500
0.130,-349.500,-238.000,-406.000,-342.000
0.131,-348.500,-238.000,-405.500,-340.000
0.132,-347.500,-238.000,-405.000,-338.500
0.133,-347.500,-238.000,-405.000,-337.000
0.134,-347.000,-238.000,-405.500,-336.500
0.135,-347.000,-238.000,-406.000,-336.500
0.136,-346.500,-238.500,-407.000,-337.500
0.137,-346.000,-238.500,-408.000,-338.500
0.138,-345.500,-238.000,-409.000,-339.500
0.139,-345.000,-238.000,-409.500,-340.000
0.140,-344.000,-237.500,-410.000,-340.500
0.141,-343.500,-237.000,-410.000,-341.000
0.142,-343.000,-237.000,-409.500,-341.000
0.143,-342.500,-237.000,-409.000,-341.000
0.144,-342.500,-237.000,-408.000,-340.500
0.145,-342.500,-237.000,-407.000,-341.000
0.146,-342.500,-237.000,-407.000,-341.500
0.147,-342.500,-237.000,-407.000,-342.000
0.148,-342.500,-237.000,-407.000,-342.500
0.149,-343.000,-237.000,-407.500,-343.000
0.150,-343.500,-237.500,-408.500,-343.500
0.151,-344.000,-238.000,-409.000,-344.000
0.152,-344.500,-238.500,-410.000,-344.500
0.153,-345.000,-240.000,-411.000,-345.000
0.154,-346.000,-241.500,-412.000,-345.500
0.155,-346.500,-243.000,-413.000,-346.000
0.156,-347.000,-244.500,-413.500,-346.000
0.157,-347.500,-245.000,-413.500,-346.000
0.158,-347.500,-246.000,-413.500,-346.500
0.159,-347.500,-246.000,-414.000,-346.500
0.160,-347.500,-246.000,-414.000,-347.000
0.161,-347.500,-246.000,-413.500,-346.500
0.162,-347.500,-245.500,-413.000,-346.500
0.163,-347.500,-245.000,-412.000,-345.500
0.164,-347.000,-244.500,-411.000,-345.000
0.165,-347.000,-243.500,-409.500,-344.000
0.166,-347.000,-243.000,-408.500,-343.500
0.167,-347.000,-243.000,-408.000,-343.000
0.168,-347.000,-242.500,-407.500,-342.500
0.169,-347.000,-243.000,-407.000,-342.500
0.170,-347.000,-243.000,-407.500,-342.500
0.171,-347.500,-243.500,-407.500,-343.000
0.172,-348.000,-243.500,-407.000,-343.000
0.173,-348.500,-243.500,-407.000,-343.500
0.174,-349.000,-243.500,-406.500,-343.500
0.175,-349.500,-243.000,-406.500,-343.500
0.176,-349.500,-243.000,-406.500,-343.500
0.177,-350.000,-243.000,-407.000,-343.500
0.178,-350.000,-242.500,-408.000,-343.500
0.179,-350.000,-242.500,-408.500,-343.000
0.180,-350.000,-242.500,-409.500,-343.000
0.181,-350.000,-242.000,-409.500,-342.000
0.182,-350.000,-242.000,-409.500,-341.500
0.183,-350.000,-242.000,-409.500,-340.500
0.184,-350.000,-242.000,-409.000,-339.500
0.185,-349.500,-241.500,-408.000,-338.500
0.186,-349.500,-241.000,-407.000,-337.500
0.187,-349.000,-240.000,-406.000,-336.500
0.188,-348.000,-239.000,-405.000,-336.000
0.189,-347.500,-238.000,-404.500,-335.000
0.190,-347.500,-237.500,-404.000,-334.500
0.191,-347.500,-237.500,-404.500,-334.500
0.192,-348.000,-238.000,-405.000,-334.500
0.193,-348.000,-238.500,-405.500,-334.500
0.194,-348.500,-239.500,-406.500,-334.500
0.195,-349.000,-240.000,-407.500,-334.500
0.196,-349.500,-240.500,-408.500,-334.500
0.197,-349.500,-241.000,-409.000,-335.000
0.198,-350.000,-241.000,-409.500,-335.500
0.199,-350.000,-240.000,-409.000,-335.500
0.200,-350.000,-239.500,-409.000,-336.000
0.201,-350.000,-239.000,-408.000,-336.000
0.202,-350.000,-238.000,-407.500,-336.000
0.203,-350.000,-237.500,-406.500,-335.500
0.204,-350.000,-237.000,-406.000,-334.500
0.205,-349.500,-236.500,-405.500,-333.500
0.206,-349.500,-236.500,-405.000,-332.500
0.207,-349.500,-236.000,-404.500,-331.500
0.208,-349.000,-236.000,-404.500,-331.000
0.209,-349.000,-236.000,-404.000,-330.500
0.210,-349.000,-235.500,-404.000,-330.500
0.211,-349.000,-235.000,-403.500,-331.000
0.212,-349.500,-233.500,-403.000,-332.000
0.213,-349.500,-233.000,-403.500,-333.500
0.214,-350.000,-232.500,-404.000,-335.000
0.215,-350.000,-233.000,-405.000,-336.000
0.216,-350.000,-233.500,-406.500,-336.500
0.217,-350.000,-234.500,-407.000,-336.500
0.218,-350.000,-235.000,-407.000,-336.000
0.219,-350.000,-236.000,-406.500,-335.000
0.220,-350.000,-236.500,-406.000,-333.000
0.221,-349.500,-237.000,-405.000,-331.000
0.222,-348.500,-237.000,-404.000,-329.000
0.223,-347.500,-236.500,-403.000,-326.500
0.224,-346.000,-236.000,-402.000,-324.500
0.225,-345.500,-235.500,-401.500,-323.500
0.226,-344.500,-235.000,-401.000,-323.000
0.227,-344.500,-234.000,-400.000,-323.000
0.228,-344.500,-233.500,-399.500,-323.500
0.229,-344.500,-233.000,-399.000,-324.000
0.230,-345.000,-232.500,-399.000,-324.500
0.231,-345.500,-232.000,-399.000,-325.000
0.232,-346.000,-232.000,-399.000,-326.000
0.233,-346.500,-232.500,-399.500,-327.000
0.234,-347.500,-233.000,-400.000,-327.500
0.235,-348.000,-233.000,-400.000,-328.000
0.236,-348.500,-233.500,-399.500,-328.000
0.237,-348.500,-234.000,-399.000,-327.500
0.238,-349.000,-234.000,-398.500,-327.000
0.239,-349.000,-234.000,-397.500,-326.500
0.240,-348.500,-234.000,-397.000,-326.000
0.241,-348.500,-234.000,-396.000,-325.500
0.242,-348.000,-233.500,-395.000,-324.500
0.243,-347.500,-233.000,-394.500,-324.000
0.244,-347.000,-232.500,-393.500,-323.000
0.245,-346.500,-232.000,-393.000,-321.500
0.246,-346.000,-231.500,-393.000,-320.500
0.247,-345.500,-231.000,-393.000,-319.500
0.248,-345.000,-231.000,-393.000,-319.000
0.249,-345.000,-231.000,-393.500,-318.500
0.250,-345.000,-231.000,-394.000,-318.500
0.251,-345.000,-231.000,-394.000,-318.000
0.252,-345.000,-231.500,-394.000,-318.000
0.253,-345.500,-232.000,-394.000,-318.000
0.254,-345.500,-232.000,-393.500,-318.000
0.255,-346.000,-232.000,-393.000,-318.000
0.256,-346.000,-232.000,-392.000,-318.000
0.257,-346.500,-231.500,-391.000,-318.000
0.258,-346.500,-231.500,-389.500,-318.500
0.259,-347.000,-231.000,-389.000,-319.000
0.260,-347.000,-231.000,-388.500,-319.500
0.261,-347.000,-231.000,-388.500,-319.500
0.262,-346.500,-231.500,-388.500,-319.500
0.263,-346.000,-232.000,-388.500,-319.000
0.264,-346.000,-232.500,-388.500,-318.500
0.265,-345.500,-233.000,-388.000,-318.000
0.266,-345.000,-233.000,-388.000,-317.500
0.267,-345.000,-233.500,-388.000,-317.000
0.268,-345.000,-233.500,-388.500,-317.000
0.269,-345.000,-233.500,-388.500,-316.500
0.270,-345.500,-233.500,-389.000,-316.500
0.271,-345.500,-232.500,-388.500,-316.500
0.272,-345.500,-232.000,-388.000,-316.000
0.273,-345.500,-231.000,-387.500,-316.000
0.274,-345.000,-230.000,-386.000,-316.000
0.275,-344.500,-229.000,-384.500,-316.000
0.276,-344.000,-228.500,-383.000,-316.000
0.277,-343.500,-228.000,-382.000,-316.000
0.278,-343.000,-227.500,-381.500,-316.000
0.279,-342.500,-228.000,-381.000,-316.000
0.280,-342.000,-228.000,-381.000,-316.000
0.281,-341.500,-228.500,-380.500,-315.500
0.282,-340.500,-229.000,-380.000,-315.500
0.283,-340.000,-229.000,-379.000,-315.000
0.284,-339.500,-228.500,-378.500,-315.000
0.285,-338.500,-228.500,-377.500,-314.500
0.286,-337.500,-228.000,-376.500,-314.500
0.287,-337.000,-227.500,-376.000,-314.000
0.288,-336.000,-227.000,-375.000,-314.000
0.289,-335.500,-226.500,-374.500,-313.500
0.290,-335.000,-226.500,-373.500,-313.500
0.291,-335.000,-226.000,-373.000,-314.000
0.292,-335.000,-226.000,-373.000,-314.000
0.293,-335.000,-225.500,-372.500,-314.000
0.294,-335.000,-225.500,-372.500,-314.500
0.295,-335.000,-225.500,-372.000,-314.500
0.296,-335.000,-225.000,-372.000,-314.000
0.297,-335.000,-225.000,-372.500,-314.000
0.298,-335.000,-225.000,-372.500,-313.500
0.299,-335.500,-225.500,-373.000,-313.000
0.300,-335.500,-226.000,-372.500,-312.000
0.301,-335.500,-227.000,-372.500,-311.500
0.302,-335.500,-227.500,-372.000,-311.000
0.303,-335.000,-227.500,-371.000,-310.000
0.304,-334.500,-227.500,-370.500,-309.500
0.305,-333.500,-226.500,-369.500,-308.500
0.306,-333.000,-226.000,-369.000,-308.000
0.307,-332.500,-225.000,-368.000,-308.000
0.308,-332.500,-224.000,-367.000,-307.500
0.309,-332.500,-223.000,-366.000,-307.000
0.310,-333.000,-222.500,-365.000,-307.000
0.311,-332.500,-222.000,-364.000,-306.500
0.312,-332.500,-222.000,-363.500,-306.500
0.313,-332.000,-222.000,-363.000,-306.000
0.314,-332.000,-222.500,-362.500,-305.500
0.315,-331.500,-223.000,-362.500,-305.500
0.316,-331.000,-223.500,-363.000,-305.500
0.317,-330.500,-224.000,-363.500,-305.500
0.318,-330.500,-225.000,-364.500,-305.500
0.319,-330.500,-226.000,-366.000,-305.500
0.320,-330.500,-227.000,-366.500,-306.000
0.321,-330.000,-227.500,-367.500,-306.000
0.322,-330.000,-227.500,-367.500,-306.500
0.323,-329.500,-227.000,-366.500,-306.500
0.324,-328.500,-226.000,-366.000,-306.500
0.325,-328.000,-225.000,-365.000,-306.500
0.326,-327.000,-224.000,-364.000,-307.000
0.327,-326.000,-223.500,-364.000,-307.500
0.328,-325.500,-223.000,-363.500,-308.000
0.329,-324.500,-223.500,-364.000,-308.500
0.330,-324.000,-223.500,-364.000,-308.500
0.331,-323.500,-224.000,-364.000,-308.000
0.332,-323.000,-224.500,-364.000,-307.500
0.333,-322.500,-224.500,-363.500,-306.000
0.334,-322.500,-224.000,-363.000,-305.000
0.335,-322.000,-223.000,-362.500,-303.000
0.336,-321.500,-222.000,-361.500,-301.000
0.337,-321.000,-220.500,-360.000,-299.000
0.338,-320.500,-219.500,-358.500,-297.000
0.339,-319.500,-218.500,-357.000,-295.500
0.340,-319.000,-218.000,-356.000,-294.000
0.341,-318.000,-217.500,-355.500,-293.500
0.342,-318.000,-217.500,-355.000,-293.500
0.343,-317.500,-217.000,-355.500,-294.000
0.344,-317.500,-217.000,-355.500,-295.500
0.345,-317.500,-216.500,-355.500,-296.500
0.346,-317.500,-216.000,-355.000,-297.500
0.347,-317.500,-215.500,-355.000,-299.000
0.348,-317.000,-215.000,-355.000,-300.000
0.349,-317.000,-215.000,-355.000,-301.500
0.350,-316.500,-215.500,-355.000,-303.000
0.351,-316.000,-216.000,-355.500,-305.000
0.352,-315.000,-216.500,-356.000,-306.500
0.353,-314.500,-217.500,-356.500,-307.500
0.354,-313.500,-218.500,-357.500,-308.000
0.355,-313.000,-219.000,-357.500,-307.500
0.356,-312.500,-220.000,-358.000,-306.500
0.357,-311.500,-220.500,-358.000,-305.500
0.358,-311.000,-220.500,-358.000,-304.500
0.359,-310.500,-220.500,-358.000,-303.000
0.360,-309.500,-220.000,-357.500,-301.500
0.361,-308.500,-219.000,-356.500,-300.000
0.362,-307.500,-218.000,-355.500,-298.500
0.363,-306.500,-217.000,-354.000,-297.500
0.364,-305.500,-215.500,-352.000,-296.000
0.365,-304.500,-214.500,-350.000,-295.500
0.366,-304.000,-213.500,-348.500,-296.000
0.367,-303.500,-213.500,-348.000,-297.000
0.368,-303.000,-213.500,-348.500,-298.500
0.369,-303.000,-214.000,-349.000,-300.000
0.370,-303.500,-214.500,-350.000,-301.500
0.371,-303.500,-215.000,-351.000,-302.500
0.372,-304.000,-215.500,-352.000,-303.000
0.373,-304.500,-216.000,-353.000,-303.000
0.374,-304.500,-216.000,-354.000,-302.500
0.375,-305.000,-216.500,-354.500,-302.500
0.376,-305.000,-216.500,-355.000,-302.000
0.377,-305.500,-216.500,-355.500,-301.500
0.378,-305.500,-216.500,-355.500,-301.000
0.379,-306.000,-216.000,-355.000,-300.500
0.380,-306.000,-216.000,-354.000,-299.500
0.381,-306.000,-215.500,-353.000,-298.500
0.382,-306.000,-215.000,-351.500,-297.500
0.383,-306.000,-214.000,-350.000,-297.000
0.384,-305.500,-213.500,-348.500,-296.000
0.385,-305.500,-213.000,-347.000,-295.500
0.386,-305.000,-212.000,-345.500,-295.000
0.387,-304.500,-211.500,-344.500,-295.000
0.388,-304.000,-211.000,-344.000,-294.500
0.389,-304.000,-211.000,-343.500,-294.500
0.390,-303.500,-211.500,-344.000,-294.500
0.391,-303.500,-212.000,-344.500,-294.000
0.392,-303.500,-212.500,-345.500,-294.500
0.393,-303.500,-213.500,-347.000,-294.500
0.394,-303.000,-214.000,-347.500,-295.000
0.395,-303.000,-214.000,-348.000,-295.000
0.396,-302.500,-213.500,-348.000,-295.000
0.397,-302.500,-213.000,-348.000,-295.000
0.398,-302.000,-212.500,-347.000,-295.000
0.399,-301.500,-211.500,-346.500,-294.500
0.400,-301.000,-210.500,-345.500,-294.500
0.401,-300.000,-209.500,-344.500,-294.000
0.402,-299.500,-208.500,-343.500,-293.500
0.403,-298.500,-208.000,-343.000,-293.000
0.404,-297.500,-208.000,-342.500,-292.500
0.405,-297.000,-207.500,-342.500,-292.000
0.406,-296.500,-207.500,-342.000,-291.500
0.407,-296.000,-207.500,-342.000,-291.000
0.408,-296.000,-207.500,-341.500,-290.500
0.409,-295.500,-206.500,-340.500,-290.500
0.410,-295.500,-205.500,-339.500,-290.500
0.411,-295.500,-205.000,-338.500,-291.000
0.412,-296.000,-204.000,-338.000,-291.000
0.413,-296.000,-204.500,-338.000,-291.000
0.414,-296.500,-205.000,-339.000,-290.500
0.415,-297.000,-206.000,-340.000,-290.500
0.416,-297.500,-207.500,-341.000,-290.000
0.417,-298.000,-208.500,-341.500,-290.000
0.418,-298.000,-209.500,-342.000,-289.500
0.419,-298.500,-210.000,-342.500,-289.500
0.420,-298.000,-210.000,-342.500,-289.000
0.421,-298.000,-210.000,-342.000,-288.500
0.422,-297.000,-209.000,-342.000,-288.500
0.423,-296.500,-208.500,-342.000,-288.000
0.424,-295.500,-207.500,-342.000,-287.500
0.425,-294.500,-206.500,-342.000,-288.000
0.426,-294.000,-206.000,-342.500,-288.000
0.427,-293.000,-205.500,-342.500,-289.000
0.428,-292.500,-205.000,-342.500,-290.000
0.429,-292.000,-204.500,-342.500,-290.500
0.430,-291.500,-204.000,-342.000,-291.000
0.431,-291.500,-203.500,-341.500,-291.000
0.432,-291.500,-203.000,-341.000,-291.000
0.433,-292.000,-202.500,-340.000,-290.500
0.434,-292.500,-202.000,-339.500,-289.500
0.435,-293.000,-202.000,-339.000,-288.500
0.436,-293.500,-202.000,-338.000,-287.000
0.437,-294.000,-201.500,-337.500,-285.500
0.438,-294.500,-201.500,-336.500,-284.000
0.439,-294.500,-201.000,-335.500,-282.000
0.440,-294.500,-201.000,-334.500,-281.000
0.441,-294.500,-201.000,-334.000,-280.000
0.442,-294.000,-201.000,-333.000,-279.500
0.443,-293.500,-201.500,-332.500,-279.000
0.444,-293.000,-202.500,-332.500,-279.000
0.445,-292.500,-203.500,-332.500,-279.500
0.446,-291.500,-204.000,-333.500,-279.500
0.447,-291.000,-204.500,-334.000,-280.000
0.448,-290.000,-204.500,-335.000,-280.500
0.449,-289.500,-204.500,-335.500,-281.000
0.450,-289.500,-204.000,-335.500,-281.500
0.451,-289.000,-203.000,-336.000,-282.000
0.452,-289.000,-202.500,-336.000,-282.500
0.453,-289.000,-202.000,-336.500,-283.500
0.454,-288.500,-202.000,-336.500,-284.500
0.455,-288.500,-202.000,-336.000,-285.000
0.456,-288.000,-201.500,-336.000,-285.500
0.457,-287.500,-201.500,-335.000,-286.000
0.458,-287.000,-201.000,-334.500,-286.000
0.459,-287.000,-200.500,-333.500,-286.000
0.460,-286.500,-200.000,-333.000,-286.000
0.461,-286.500,-200.000,-332.000,-286.000
0.462,-286.000,-199.500,-331.500,-286.000
0.463,-285.000,-199.000,-331.500,-285.500
0.464,-284.500,-199.000,-331.000,-285.500
0.465,-283.500,-199.000,-331.000,-285.000
0.466,-282.500,-198.500,-331.000,-285.000
0.467,-282.000,-198.500,-330.500,-284.500
0.468,-281.000,-198.500,-330.500,-284.500
0.469,-280.500,-198.000,-330.000,-284.000
0.470,-280.000,-198.000,-330.000,-284.000
0.471,-280.000,-198.000,-329.500,-284.000
0.472,-279.500,-198.000,-329.500,-284.000
0.473,-279.500,-198.000,-330.000,-284.000
0.474,-279.500,-198.000,-330.000,-284.000
0.475,-280.000,-198.500,-330.000,-284.000
0.476,-280.000,-198.500,-330.500,-284.000
0.477,-280.500,-199.000,-331.000,-284.000
0.478,-280.500,-199.500,-331.000,-284.000
0.479,-281.000,-199.000,-330.500,-283.500
0.480,-281.000,-199.000,-330.000,-283.000
0.481,-281.000,-198.500,-329.500,-282.500
0.482,-280.500,-198.000,-329.000,-282.000
0.483,-280.000,-197.500,-328.500,-281.500
0.484,-279.000,-197.000,-328.000,-281.000
0.485,-278.000,-196.000,-327.500,-281.000
0.486,-277.000,-195.500,-327.500,-281.000
0.487,-276.000,-195.000,-327.000,-281.000
0.488,-275.500,-194.500,-326.500,-280.500
0.489,-274.500,-194.500,-326.000,-280.000
0.490,-274.000,-194.500,-326.000,-279.500
0.491,-274.000,-194.500,-325.500,-279.000
0.492,-274.000,-195.000,-325.500,-278.500
0.493,-274.000,-196.000,-326.000,-278.000
0.494,-274.000,-196.500,-326.500,-277.500
0.495,-274.000,-197.000,-327.000,-277.000
0.496,-274.000,-197.000,-327.000,-276.500
0.497,-274.000,-197.000,-326.500,-276.000
0.498,-273.500,-196.500,-326.000,-275.000
0.499,-273.000,-195.500,-325.000,-274.500
0.500,-272.500,-195.000,-323.500,-273.500
0.501,-272.000,-194.000,-322.000,-272.500
0.502,-271.500,-193.500,-320.500,-272.000
0.503,-271.000,-193.000,-319.000,-271.500
0.504,-270.000,-192.500,-318.000,-271.500
0.505,-269.500,-192.500,-317.500,-272.500
0.506,-268.500,-193.000,-317.500,-273.500
0.507,-268.000,-193.000,-318.000,-275.000
0.508,-267.000,-193.000,-318.500,-275.500
0.509,-266.000,-193.000,-319.000,-276.000
0.510,-265.000,-193.000,-320.000,-276.000
0.511,-263.500,-193.000,-321.000,-275.500
0.512,-263.000,-193.000,-322.000,-275.000
0.513,-262.500,-193.500,-323.500,-274.000
0.514,-262.000,-194.000,-324.500,-273.500
0.515,-261.500,-194.500,-325.000,-273.500
0.516,-261.500,-194.500,-325.000,-273.000
0.517,-261.000,-194.500,-324.500,-273.000
0.518,-260.000,-194.000,-323.000,-272.500
0.519,-259.000,-192.500,-321.500,-272.000
0.520,-258.500,-191.500,-320.000,-271.500
0.521,-257.500,-190.500,-319.000,-270.500
0.522,-256.500,-189.500,-317.500,-269.500
0.523,-255.000,-189.000,-316.500,-268.500
0.524,-254.000,-188.500,-315.500,-267.500
0.525,-253.000,-188.000,-314.500,-266.000
0.526,-252.000,-188.000,-313.500,-265.000
0.527,-251.000,-188.000,-313.000,-264.000
0.528,-250.000,-188.500,-312.000,-263.000
0.529,-249.500,-188.500,-311.000,-262.000
0.530,-249.000,-188.500,-310.500,-261.000
0.531,-249.000,-188.500,-310.000,-261.000
0.532,-249.000,-188.500,-309.500,-261.000
0.533,-249.000,-188.000,-309.500,-261.500
0.534,-249.500,-188.000,-309.000,-262.500
0.535,-249.500,-187.500,-309.000,-263.000
0.536,-249.500,-187.000,-308.500,-263.000
0.537,-249.500,-187.000,-308.500,-263.000
0.538,-249.000,-186.500,-308.500,-263.000
0.539,-249.000,-186.500,-308.500,-262.500
0.540,-248.000,-186.000,-308.500,-261.500
0.541,-247.500,-186.000,-308.000,-261.000
0.542,-247.000,-186.000,-307.000,-260.000
0.543,-246.000,-186.000,-306.500,-259.000
0.544,-245.500,-185.500,-306.000,-258.000
0.545,-244.500,-185.000,-305.500,-257.500
0.546,-243.500,-184.500,-305.500,-257.500
0.547,-243.000,-184.000,-305.000,-257.500
0.548,-242.500,-183.500,-304.500,-257.500
0.549,-242.000,-183.500,-304.000,-257.500
0.550,-242.000,-183.500,-304.000,-257.500
0.551,-242.000,-184.000,-304.500,-258.000
0.552,-242.000,-184.500,-306.000,-259.000
0.553,-242.000,-184.500,-307.000,-260.000
0.554,-242.000,-185.000,-308.000,-261.500
0.555,-242.000,-185.000,-309.000,-262.500
0.556,-241.500,-185.000,-310.000,-264.000
0.557,-241.500,-184.500,-310.000,-265.000
0.558,-242.000,-184.500,-310.000,-265.500
0.559,-242.000,-184.000,-309.500,-265.000
0.560,-242.000,-183.000,-308.500,-264.500
0.561,-241.500,-182.500,-307.500,-263.500
0.562,-241.500,-182.000,-306.500,-262.000
0.563,-241.000,-181.000,-305.500,-260.000
0.564,-241.000,-180.500,-304.000,-257.500
0.565,-240.500,-179.500,-302.500,-255.500
0.566,-240.000,-178.500,-300.500,-253.000
0.567,-239.500,-178.000,-299.000,-251.000
0.568,-239.000,-177.500,-298.000,-249.500
0.569,-239.000,-177.000,-297.000,-248.500
0.570,-239.000,-177.000,-296.500,-248.500
0.571,-239.000,-177.500,-297.000,-248.500
0.572,-239.000,-178.000,-297.500,-249.500
0.573,-239.000,-179.500,-298.000,-250.000
0.574,-239.500,-180.500,-299.000,-251.000
0.575,-240.000,-181.500,-300.000,-251.500
0.576,-240.000,-182.500,-300.500,-252.000
0.577,-240.000,-182.500,-301.000,-252.500
0.578,-239.500,-181.500,-301.000,-253.000
0.579,-239.500,-180.500,-301.000,-253.000
0.580,-238.500,-179.500,-300.500,-252.500
0.581,-238.000,-178.500,-299.500,-252.500
0.582,-237.500,-177.500,-298.000,-252.500
0.583,-236.500,-176.500,-297.000,-252.000
0.584,-235.500,-176.000,-295.500,-251.500
0.585,-235.000,-175.500,-294.500,-251.500
0.586,-234.500,-175.000,-294.000,-251.000
0.587,-233.500,-174.500,-293.500,-251.000
0.588,-233.000,-174.500,-293.500,-250.500
0.589,-233.000,-174.000,-293.500,-250.500
0.590,-232.500,-173.500,-294.000,-250.500
0.591,-232.500,-173.500,-294.500,-250.500
0.592,-233.000,-173.500,-295.500,-250.500
0.593,-233.000,-173.500,-296.500,-251.000
0.594,-233.500,-174.000,-297.500,-251.000
0.595,-233.500,-174.000,-297.500,-251.000
0.596,-233.500,-174.000,-297.500,-250.500
0.597,-233.500,-173.500,-297.000,-250.500
0.598,-233.000,-173.500,-295.500,-250.500
0.599,-233.000,-173.000,-294.500,-250.500
0.600,-232.500,-172.500,-293.500,-250.000
0.601,-232.000,-172.500,-292.500,-250.000
0.602,-231.000,-171.500,-291.500,-249.500
0.603,-230.000,-171.000,-290.500,-249.000
0.604,-229.000,-170.500,-289.500,-248.500
0.605,-227.500,-170.000,-289.000,-247.500
0.606,-226.500,-169.500,-288.500,-247.000
0.607,-225.500,-169.000,-288.000,-246.500
0.608,-225.000,-169.000,-288.000,-246.000
0.609,-224.500,-169.000,-288.000,-245.500
0.610,-224.000,-169.500,-288.000,-245.000
0.611,-223.500,-169.500,-288.000,-245.000
0.612,-223.000,-169.500,-288.000,-244.500
0.613,-223.000,-169.500,-288.000,-244.500
0.614,-223.000,-169.000,-287.500,-245.000
0.615,-223.000,-169.000,-287.000,-245.000
0.616,-223.500,-169.000,-287.000,-245.500
0.617,-223.500,-169.000,-286.500,-246.500
0.618,-224.000,-169.000,-286.500,-247.000
0.619,-224.500,-169.000,-286.500,-247.500
0.620,-225.000,-169.000,-286.500,-247.500
0.621,-225.000,-169.000,-286.000,-248.000
0.622,-225.000,-169.000,-286.000,-247.500
0.623,-225.000,-169.000,-286.000,-247.500
0.624,-225.000,-169.500,-286.000,-247.000
0.625,-225.000,-170.000,-286.500,-247.000
0.626,-224.500,-170.500,-286.500,-246.500
0.627,-224.500,-171.000,-287.000,-246.000
0.628,-224.500,-171.000,-286.500,-245.000
0.629,-224.000,-170.500,-285.500,-244.500
0.630,-224.000,-170.500,-284.500,-244.000
0.631,-224.500,-170.000,-283.500,-244.000
0.632,-225.000,-170.000,-283.500,-244.000
0.633,-225.500,-170.000,-283.500,-244.500
0.634,-226.500,-170.500,-284.000,-245.000
0.635,-227.500,-171.500,-285.000,-245.000
0.636,-228.500,-172.500,-286.000,-244.500
0.637,-229.500,-173.500,-286.500,-244.000
0.638,-230.000,-174.000,-286.500,-243.000
0.639,-230.000,-174.000,-286.000,-241.000
0.640,-230.000,-174.000,-285.000,-239.000
0.641,-229.500,-173.000,-283.500,-236.500
0.642,-228.500,-172.000,-281.500,-234.000
0.643,-227.500,-170.500,-279.000,-231.500
0.644,-226.000,-168.500,-276.500,-229.000
0.645,-224.500,-166.500,-274.000,-226.500
0.646,-223.000,-164.500,-271.500,-224.500
0.647,-221.000,-162.500,-269.500,-223.000
0.648,-219.500,-161.000,-268.500,-222.500
0.649,-218.000,-160.500,-268.500,-222.000
0.650,-216.500,-160.000,-268.500,-222.000
0.651,-215.000,-159.500,-268.000,-222.000
0.652,-213.500,-159.000,-267.500,-221.500
0.653,-211.500,-158.000,-266.500,-220.500
0.654,-210.000,-157.000,-265.500,-219.500
0.655,-208.500,-156.000,-264.500,-219.000
0.656,-207.500,-155.500,-263.500,-218.500
0.657,-206.500,-155.000,-263.000,-219.000
0.658,-206.000,-154.500,-262.500,-219.500
0.659,-205.000,-154.000,-262.500,-220.000
0.660,-204.500,-154.000,-262.000,-221.000
0.661,-204.000,-153.500,-262.000,-222.500
0.662,-203.000,-153.000,-261.500,-224.500
0.663,-202.500,-152.500,-262.000,-226.000
0.664,-201.500,-152.000,-262.500,-227.500
0.665,-200.500,-152.000,-263.500,-229.000
0.666,-200.000,-152.500,-265.000,-229.500
0.667,-199.500,-152.500,-266.000,-230.000
0.668,-199.000,-153.000,-266.500,-230.000
0.669,-199.000,-153.500,-267.000,-229.500
0.670,-199.000,-153.500,-267.000,-229.500
0.671,-199.000,-153.500,-267.000,-229.500
0.672,-199.500,-154.000,-267.500,-229.500
0.673,-200.000,-155.000,-268.000,-229.500
0.674,-200.500,-156.000,-268.500,-230.000
0.675,-201.000,-157.500,-269.500,-230.000
0.676,-201.500,-158.500,-270.000,-230.500
0.677,-202.000,-159.000,-270.000,-231.000
0.678,-203.000,-159.500,-270.000,-231.500
0.679,-203.500,-159.500,-269.000,-232.500
0.680,-204.500,-159.500,-268.000,-233.000
0.681,-205.000,-159.000,-266.500,-233.500
0.682,-205.500,-159.500,-266.000,-234.000
0.683,-206.000,-159.500,-266.000,-235.000
0.684,-206.000,-160.500,-266.000,-235.500
0.685,-206.000,-161.000,-266.500,-236.500
0.686,-206.000,-161.500,-266.500,-237.000
0.687,-206.000,-162.000,-267.000,-237.500
0.688,-205.500,-162.500,-267.000,-237.500
0.689,-205.000,-163.000,-267.500,-237.500
0.690,-205.000,-163.000,-267.500,-238.000
0.691,-205.000,-163.000,-267.500,-238.000
0.692,-205.000,-163.000,-268.000,-238.500
0.693,-205.000,-163.000,-268.500,-239.500
0.694,-205.500,-163.000,-268.500,-240.000
0.695,-205.500,-163.000,-269.000,-240.500
0.696,-205.500,-162.500,-268.500,-240.500
0.697,-206.000,-162.000,-268.000,-240.000
0.698,-206.000,-162.000,-267.500,-239.500
0.699,-206.500,-161.500,-266.500,-239.000
0.700,-206.500,-161.000,-265.500,-238.000
0.701,-206.500,-160.500,-264.500,-237.000
0.702,-206.000,-160.000,-263.000,-235.500
0.703,-205.000,-159.000,-261.000,-233.500
0.704,-203.500,-158.500,-259.500,-231.000
0.705,-202.500,-157.500,-257.500,-229.000
0.706,-201.000,-157.000,-255.500,-227.500
0.707,-199.500,-156.500,-254.000,-226.500
0.708,-198.000,-156.000,-253.000,-226.500
0.709,-197.000,-156.000,-253.000,-227.000
0.710,-196.000,-156.000,-253.000,-228.000
0.711,-195.500,-156.500,-254.000,-229.000
0.712,-195.500,-157.000,-255.000,-230.000
0.713,-195.500,-158.000,-256.000,-231.500
0.714,-195.500,-158.500,-257.000,-232.500
0.715,-196.000,-159.000,-257.500,-234.000
0.716,-196.000,-159.000,-257.500,-235.000
0.717,-196.000,-158.500,-257.000,-235.500
0.718,-196.000,-158.000,-256.500,-236.000
0.719,-195.500,-157.500,-255.500,-235.500
0.720,-195.000,-157.000,-254.500,-235.000
0.721,-194.000,-156.500,-253.500,-234.500
0.722,-193.500,-156.000,-252.500,-233.500
0.723,-192.500,-155.500,-252.000,-232.500
0.724,-192.000,-155.000,-251.500,-231.500
0.725,-191.000,-155.000,-251.000,-230.500
0.726,-190.500,-154.500,-251.000,-230.000
0.727,-189.500,-154.000,-250.000,-229.000
0.728,-189.000,-153.500,-249.500,-228.500
0.729,-188.500,-153.000,-249.000,-228.000
0.730,-188.500,-153.000,-248.500,-228.000
0.731,-188.000,-153.000,-248.500,-227.500
0.732,-188.000,-153.500,-248.500,-228.000
0.733,-188.000,-154.000,-249.000,-228.000
0.734,-188.000,-154.000,-249.000,-228.500
0.735,-188.000,-154.500,-249.000,-229.000
0.736,-188.000,-154.500,-249.000,-229.500
0.737,-188.000,-154.500,-248.500,-230.000
0.738,-188.000,-154.500,-248.000,-230.500
0.739,-188.000,-154.500,-248.000,-230.500
0.740,-188.000,-154.500,-247.500,-231.000
0.741,-187.500,-154.000,-247.000,-231.000
0.742,-187.000,-154.000,-246.500,-231.000
0.743,-186.500,-153.000,-246.000,-230.500
0.744,-186.000,-153.000,-246.000,-230.000
0.745,-185.500,-152.500,-246.500,-229.000
0.746,-185.000,-152.500,-246.500,-228.500
0.747,-184.500,-153.000,-247.000,-228.000
0.748,-184.000,-153.500,-247.500,-227.500
0.749,-183.500,-154.000,-248.000,-227.000
0.750,-183.000,-154.500,-247.500,-226.500
0.751,-183.000,-154.500,-247.500,-226.000
0.752,-182.500,-154.500,-246.500,-226.000
0.753,-182.500,-154.500,-246.000,-226.000
0.754,-182.500,-154.500,-246.000,-226.500
0.755,-182.500,-154.000,-245.500,-227.000
0.756,-182.500,-153.500,-245.500,-227.500
0.757,-182.000,-152.500,-245.500,-227.500
0.758,-182.000,-152.000,-245.500,-227.500
0.759,-181.500,-152.000,-245.500,-227.500
0.760,-181.000,-151.500,-245.500,-227.000
0.761,-180.000,-151.500,-245.000,-226.000
0.762,-179.500,-151.500,-245.000,-225.000
0.763,-179.000,-151.500,-244.500,-224.000
0.764,-178.500,-151.500,-244.000,-223.500
0.765,-178.500,-151.500,-243.500,-223.000
0.766,-178.000,-151.000,-242.500,-222.500
0.767,-178.000,-151.000,-242.000,-222.000
0.768,-178.000,-150.500,-241.000,-221.500
0.769,-177.500,-150.500,-240.000,-221.500
0.770,-178.000,-150.500,-239.500,-221.500
0.771,-178.000,-151.000,-239.500,-221.500
0.772,-178.000,-152.000,-240.000,-222.000
0.773,-178.500,-153.500,-241.000,-222.500
0.774,-178.500,-154.500,-242.000,-223.500
0.775,-178.000,-155.000,-243.000,-224.000
0.776,-178.000,-155.000,-243.500,-224.000
0.777,-177.500,-154.500,-244.000,-224.500
0.778,-177.000,-154.000,-244.000,-225.000
0.779,-177.000,-153.000,-243.500,-225.500
0.780,-177.000,-152.500,-243.000,-225.500
0.781,-176.500,-152.000,-242.000,-225.000
0.782,-176.500,-151.500,-241.000,-224.500
0.783,-176.500,-151.000,-240.000,-223.500
0.784,-176.000,-151.000,-239.000,-223.000
0.785,-175.500,-151.000,-238.000,-222.500
0.786,-175.000,-151.000,-237.500,-222.000
0.787,-174.500,-151.000,-237.000,-222.000
0.788,-174.000,-151.000,-237.000,-222.000
0.789,-173.500,-151.500,-237.000,-222.000
0.790,-173.000,-151.500,-237.000,-222.000
0.791,-173.000,-151.500,-237.500,-222.500
0.792,-172.500,-151.500,-238.500,-223.000
0.793,-172.500,-152.000,-239.000,-223.000
0.794,-172.500,-152.000,-239.000,-223.500
0.795,-172.500,-151.500,-239.500,-223.500
0.796,-172.000,-151.500,-239.500,-223.000
0.797,-172.000,-151.500,-239.500,-222.500
0.798,-171.500,-151.500,-239.500,-222.000
0.799,-171.500,-151.500,-239.500,-222.000
0.800,-171.000,-151.000,-239.000,-221.000
0.801,-170.500,-150.500,-238.500,-220.500
0.802,-170.500,-149.500,-237.500,-220.000
0.803,-170.000,-149.000,-236.500,-219.000
0.804,-169.500,-148.000,-236.000,-219.000
0.805,-169.000,-147.500,-235.000,-219.000
0.806,-168.500,-147.000,-234.500,-219.500
0.807,-168.000,-146.500,-234.000,-220.000
0.808,-167.000,-145.500,-233.500,-221.000
0.809,-166.500,-145.000,-232.500,-221.500
0.810,-166.000,-144.500,-232.000,-222.000
0.811,-166.000,-144.000,-231.500,-222.000
0.812,-166.000,-144.000,-231.500,-222.000
0.813,-166.500,-144.000,-231.000,-222.000
0.814,-166.500,-144.000,-231.000,-221.500
0.815,-166.500,-144.000,-230.500,-221.500
0.816,-166.500,-144.000,-230.500,-221.000
0.817,-166.500,-144.500,-230.000,-220.500
0.818,-166.500,-144.500,-230.000,-220.000
0.819,-167.000,-144.000,-230.500,-219.000
0.820,-167.000,-143.500,-230.500,-218.500
0.821,-167.000,-142.500,-230.500,-217.500
0.822,-167.000,-142.000,-230.000,-217.000
0.823,-166.500,-141.000,-229.500,-216.500
0.824,-166.500,-140.500,-228.500,-216.000
0.825,-166.000,-140.000,-227.500,-215.500
0.826,-165.500,-140.000,-226.500,-215.000
0.827,-165.000,-139.500,-225.000,-214.500
0.828,-164.500,-139.000,-223.000,-213.500
0.829,-164.000,-138.500,-221.500,-213.000
0.830,-164.000,-137.500,-219.500,-212.500
0.831,-163.500,-137.000,-218.500,-212.500
0.832,-163.500,-136.500,-218.000,-212.500
0.833,-164.000,-136.000,-218.000,-213.000
0.834,-164.000,-136.500,-218.500,-213.000
0.835,-164.000,-137.500,-219.500,-213.500
0.836,-164.500,-138.500,-220.500,-213.500
0.837,-164.500,-140.000,-221.500,-213.500
0.838,-164.000,-141.000,-222.500,-213.000
0.839,-164.000,-142.000,-223.000,-213.000
0.840,-163.500,-142.500,-223.500,-212.000
0.841,-163.500,-142.500,-223.500,-211.500
0.842,-163.000,-142.000,-223.500,-211.000
0.843,-162.500,-140.500,-222.500,-210.000
0.844,-161.500,-139.000,-221.000,-209.000
0.845,-161.000,-137.000,-219.500,-208.000
0.846,-160.000,-135.000,-218.000,-207.500
0.847,-159.000,-133.000,-216.500,-207.000
0.848,-158.500,-131.500,-215.000,-207.000
0.849,-158.500,-130.500,-214.000,-207.000
0.850,-158.000,-130.500,-214.000,-207.000
0.851,-158.000,-131.000,-214.500,-207.000
0.852,-158.000,-132.000,-215.500,-207.000
0.853,-158.500,-133.000,-216.500,-206.500
0.854,-159.000,-134.000,-217.000,-206.500
0.855,-159.500,-135.000,-217.500,-207.000
0.856,-159.500,-135.500,-217.500,-207.000
0.857,-160.000,-135.500,-217.000,-207.000
0.858,-160.000,-135.500,-216.000,-207.000
0.859,-159.500,-135.000,-215.500,-207.000
0.860,-159.000,-134.500,-215.000,-207.000
0.861,-158.500,-134.000,-214.500,-207.000
0.862,-158.000,-133.500,-214.000,-207.000
0.863,-157.500,-133.000,-213.500,-207.500
0.864,-157.000,-132.500,-214.000,-208.500
0.865,-157.000,-132.000,-214.000,-209.500
0.866,-156.500,-131.500,-214.000,-210.500
0.867,-156.500,-131.000,-213.500,-211.000
0.868,-156.500,-130.500,-213.500,-211.500
0.869,-156.500,-130.500,-213.000,-211.500
0.870,-157.000,-131.000,-212.500,-211.500
0.871,-157.500,-131.500,-212.500,-211.000
0.872,-158.000,-132.000,-212.000,-210.000
0.873,-158.500,-133.000,-211.500,-208.500
0.874,-158.500,-133.500,-211.500,-207.000
0.875,-158.500,-134.000,-211.000,-205.500
0.876,-158.500,-134.500,-210.500,-204.000
0.877,-158.000,-134.500,-210.000,-203.000
0.878,-157.500,-134.000,-209.000,-202.000
0.879,-157.000,-133.500,-208.000,-201.500
0.880,-156.500,-133.000,-206.500,-201.500
0.881,-156.000,-132.500,-205.500,-202.000
0.882,-155.500,-132.000,-205.000,-202.500
0.883,-154.500,-131.000,-204.500,-203.000
0.884,-153.500,-130.500,-204.000,-203.500
0.885,-152.500,-130.000,-203.500,-203.500
0.886,-152.000,-130.000,-203.500,-203.500
0.887,-151.000,-130.000,-203.500,-203.500
0.888,-150.000,-130.000,-203.500,-203.500
0.889,-149.500,-130.500,-203.500,-203.500
0.890,-148.500,-131.000,-203.500,-203.000
0.891,-148.000,-131.000,-203.500,-203.000
0.892,-148.000,-131.500,-203.000,-202.500
0.893,-148.000,-131.500,-202.500,-202.500
0.894,-147.500,-131.000,-202.000,-202.000
0.895,-147.500,-131.000,-201.000,-202.000
0.896,-147.500,-130.500,-200.500,-202.000
0.897,-147.000,-130.500,-201.000,-202.500
0.898,-146.500,-130.500,-201.500,-202.500
0.899,-146.000,-131.000,-203.000,-203.000
0.900,-145.500,-131.500,-204.000,-203.000
0.901,-144.500,-131.500,-204.500,-202.500
0.902,-144.000,-131.500,-204.500,-201.500
0.903,-143.500,-131.500,-204.000,-200.500
0.904,-143.000,-131.500,-203.500,-200.000
0.905,-142.000,-131.000,-202.500,-199.000
0.906,-141.500,-131.000,-201.500,-198.000
0.907,-141.000,-130.500,-200.500,-197.000
0.908,-140.500,-130.000,-199.500,-196.000
0.909,-140.000,-129.500,-198.500,-195.000
0.910,-139.500,-129.000,-198.000,-194.000
0.911,-139.500,-128.500,-197.000,-193.500
0.912,-139.500,-128.500,-196.500,-193.000
0.913,-140.000,-128.500,-196.000,-193.000
0.914,-140.500,-128.500,-196.500,-193.500
0.915,-141.000,-128.500,-196.500,-194.000
0.916,-141.500,-128.500,-197.000,-194.500
0.917,-141.500,-128.500,-197.500,-195.000
0.918,-141.000,-128.500,-198.000,-195.000
0.919,-141.000,-128.500,-198.500,-195.500
0.920,-140.500,-129.000,-199.000,-195.500
0.921,-140.000,-129.000,-199.500,-196.000
0.922,-139.000,-129.000,-199.500,-196.000
0.923,-138.500,-129.000,-199.000,-195.500
0.924,-137.500,-128.500,-198.000,-195.500
0.925,-136.500,-127.500,-197.000,-195.500
0.926,-135.500,-126.500,-196.000,-195.000
0.927,-134.500,-126.000,-195.500,-195.000
0.928,-133.500,-125.500,-195.500,-195.500
0.929,-133.000,-125.000,-195.500,-195.500
0.930,-133.000,-124.500,-195.500,-195.500
0.931,-132.500,-124.500,-195.500,-195.500
0.932,-133.000,-124.000,-195.500,-195.500
0.933,-133.500,-124.000,-195.500,-196.000
0.934,-134.000,-123.500,-195.500,-196.000
0.935,-134.500,-123.000,-195.500,-196.500
0.936,-135.000,-123.000,-195.500,-196.500
0.937,-135.000,-122.500,-195.000,-197.000
0.938,-135.500,-122.500,-195.000,-197.500
0.939,-135.500,-122.500,-195.000,-197.500
0.940,-135.500,-122.000,-195.000,-198.000
0.941,-135.000,-122.000,-195.000,-198.500
0.942,-135.000,-121.500,-195.000,-198.500
0.943,-135.000,-121.000,-194.500,-198.000
0.944,-134.500,-120.500,-194.500,-197.500
0.945,-134.500,-120.000,-194.000,-197.500
0.946,-134.000,-120.000,-194.000,-197.000
0.947,-134.000,-119.500,-193.500,-196.500
0.948,-133.500,-119.500,-193.500,-196.500
0.949,-133.500,-120.000,-193.500,-196.500
0.950,-133.000,-120.000,-193.500,-196.500
0.951,-133.000,-120.500,-193.500,-197.000
0.952,-132.500,-120.500,-193.500,-197.500
0.953,-132.500,-120.500,-194.000,-197.500
0.954,-133.000,-120.500,-194.500,-198.000
0.955,-133.000,-120.500,-195.000,-198.000
0.956,-133.000,-121.000,-195.500,-197.500
0.957,-133.000,-121.000,-196.000,-197.000
0.958,-133.000,-121.500,-196.000,-196.500
0.959,-133.000,-121.500,-196.000,-196.000
0.960,-132.500,-121.500,-195.500,-195.000
0.961,-131.500,-121.500,-194.500,-194.500
0.962,-131.000,-120.500,-193.500,-193.500
0.963,-130.500,-120.000,-192.500,-193.000
0.964,-130.000,-119.500,-191.500,-192.000
0.965,-130.000,-119.000,-191.000,-191.500
0.966,-129.500,-118.500,-190.000,-191.000
0.967,-129.500,-118.000,-189.000,-190.500
0.968,-129.000,-117.500,-188.000,-190.000
0.969,-129.000,-117.000,-187.500,-190.000
0.970,-128.500,-117.000,-187.000,-190.000
0.971,-128.500,-117.000,-187.000,-190.000
0.972,-128.500,-117.000,-187.000,-190.500
0.973,-129.000,-117.000,-187.500,-191.000
0.974,-129.000,-117.500,-188.500,-192.000
0.975,-129.500,-117.500,-189.500,-192.500
0.976,-129.500,-118.000,-190.500,-192.500
0.977,-129.500,-118.500,-191.500,-192.500
0.978,-129.000,-118.500,-192.000,-192.000
0.979,-129.000,-118.500,-192.500,-191.500
0.980,-128.500,-118.000,-192.500,-190.500
0.981,-128.000,-117.500,-192.500,-189.500
0.982,-128.000,-116.500,-191.500,-188.500
0.983,-127.500,-116.000,-191.000,-187.500
0.984,-127.500,-115.500,-189.500,-186.000
0.985,-127.500,-114.500,-187.500,-184.500
0.986,-127.500,-114.000,-185.500,-183.000
0.987,-127.000,-113.000,-183.000,-181.500
0.988,-126.500,-112.000,-181.000,-180.500
0.989,-126.000,-111.500,-180.000,-180.000
0.990,-125.500,-111.000,-179.500,-180.000
0.991,-125.000,-111.000,-180.000,-179.500
0.992,-124.500,-111.500,-180.500,-179.500
0.993,-124.000,-112.500,-182.000,-179.500
0.994,-123.500,-113.500,-183.000,-179.000
0.995,-123.000,-114.500,-184.500,-179.000
0.996,-122.500,-115.500,-186.000,-179.000
0.997,-121.500,-116.500,-187.000,-179.500
0.998,-121.000,-116.500,-188.000,-180.000
0.999,-120.500,-116.500,-188.500,-180.500
1.000,-119.500,-116.500,-189.000,-181.000
1.001,-119.000,-115.500,-189.000,-181.500
1.002,-118.000,-114.500,-188.500,-181.500
1.003,-117.000,-113.500,-187.500,-181.000
1.004,-116.000,-112.000,-186.000,-180.000
1.005,-115.000,-111.000,-184.500,-178.500
1.006,-114.000,-110.000,-183.000,-176.500
1.007,-113.500,-109.500,-181.500,-174.500
1.008,-113.000,-109.000,-180.500,-173.000
1.009,-112.500,-109.000,-180.000,-171.000
1.010,-112.500,-109.500,-179.000,-170.000
1.011,-112.500,-109.500,-178.500,-169.000
1.012,-112.000,-109.500,-178.000,-168.500
1.013,-112.000,-109.500,-177.500,-168.500
1.014,-112.500,-109.000,-176.500,-169.000
1.015,-112.500,-108.500,-176.000,-169.500
1.016,-112.500,-108.000,-176.000,-170.000
1.017,-112.500,-108.000,-176.500,-170.500
1.018,-112.000,-108.000,-177.000,-170.500
1.019,-111.500,-108.500,-178.000,-170.500
1.020,-111.000,-109.000,-179.000,-170.500
1.021,-110.500,-109.000,-179.500,-170.500
1.022,-109.500,-109.000,-180.000,-170.500
1.023,-108.500,-109.000,-180.000,-170.500
1.024,-107.500,-108.500,-179.500,-170.500
1.025,-106.500,-108.000,-179.000,-170.500
1.026,-105.500,-107.500,-178.500,-171.000
1.027,-104.500,-106.500,-178.000,-171.500
1.028,-104.000,-106.000,-177.500,-172.000
1.029,-103.500,-105.500,-177.000,-172.000
1.030,-103.500,-105.000,-176.500,-172.500
1.031,-103.000,-105.000,-176.000,-173.000
1.032,-103.000,-105.000,-175.500,-173.500
1.033,-103.000,-105.500,-176.000,-173.500
1.034,-103.000,-106.500,-176.500,-173.500
1.035,-102.500,-107.000,-177.000,-173.500
1.036,-102.000,-108.000,-177.000,-173.000
1.037,-101.000,-108.000,-177.000,-172.000
1.038,-100.500,-107.500,-176.500,-171.500
1.039,-100.000,-107.000,-175.500,-170.500
1.040,-99.500,-106.500,-174.500,-170.000
1.041,-99.000,-106.000,-174.000,-169.500
1.042,-98.500,-105.500,-173.500,-169.000
1.043,-97.500,-105.500,-173.000,-169.000
1.044,-97.000,-105.000,-173.000,-169.000
1.045,-96.500,-104.500,-172.500,-169.000
1.046,-96.000,-104.000,-172.500,-169.000
1.047,-95.000,-103.500,-172.000,-169.000
1.048,-94.500,-103.000,-171.500,-169.000
1.049,-94.000,-102.500,-171.500,-169.000
1.050,-93.500,-102.500,-171.500,-169.000
1.051,-93.000,-102.500,-171.500,-169.000
1.052,-93.000,-102.500,-171.500,-169.000
1.053,-93.000,-103.000,-172.000,-168.500
1.054,-93.000,-103.000,-172.000,-168.500
1.055,-93.000,-103.500,-172.000,-168.000
1.056,-93.000,-103.500,-171.500,-167.000
1.057,-93.000,-103.000,-171.000,-165.500
1.058,-92.500,-103.000,-170.500,-164.500
1.059,-92.500,-102.500,-169.500,-163.000
1.060,-92.000,-102.000,-168.500,-161.500
1.061,-91.000,-101.000,-167.000,-160.500
1.062,-90.500,-100.500,-166.000,-159.500
1.063,-89.500,-99.500,-165.000,-158.500
1.064,-88.500,-99.500,-164.500,-157.500
1.065,-87.500,-99.000,-164.000,-156.500
1.066,-87.000,-99.000,-164.000,-156.000
1.067,-86.000,-99.000,-163.500,-155.000
1.068,-85.500,-99.000,-163.500,-155.000
1.069,-85.000,-99.000,-163.500,-154.500
1.070,-85.000,-99.000,-164.000,-155.000
1.071,-84.500,-99.000,-164.000,-155.500
1.072,-84.500,-99.500,-165.000,-156.000
1.073,-85.000,-99.500,-165.500,-156.500
1.074,-85.000,-100.000,-166.000,-157.000
1.075,-84.500,-100.000,-166.500,-157.000
1.076,-84.500,-100.500,-166.500,-157.000
1.077,-84.000,-100.500,-166.500,-156.500
1.078,-83.000,-101.000,-166.500,-156.000
1.079,-82.500,-101.500,-166.500,-155.500
1.080,-81.500,-101.000,-166.500,-155.500
1.081,-80.500,-100.500,-166.000,-155.000
1.082,-79.500,-99.500,-165.500,-154.500
1.083,-78.500,-98.500,-165.000,-154.000
1.084,-77.500,-97.500,-164.500,-154.000
1.085,-77.000,-96.500,-164.000,-154.000
1.086,-76.500,-95.500,-163.500,-154.000
1.087,-76.000,-95.500,-163.000,-154.000
1.088,-76.000,-95.000,-163.000,-154.000
1.089,-76.000,-95.000,-162.500,-154.000
1.090,-76.000,-95.000,-162.500,-154.000
1.091,-76.000,-94.500,-162.500,-154.000
1.092,-76.000,-94.500,-162.500,-153.500
1.093,-76.000,-94.000,-162.000,-153.500
1.094,-76.000,-93.500,-162.000,-153.500
1.095,-76.000,-93.500,-162.000,-153.500
1.096,-75.500,-93.500,-162.000,-153.500
1.097,-75.500,-94.500,-163.000,-154.000
1.098,-76.000,-95.000,-164.000,-154.500
1.099,-76.000,-96.000,-164.500,-155.000
1.100,-76.000,-97.000,-165.000,-155.500
1.101,-76.000,-97.500,-165.000,-155.500
1.102,-75.500,-97.500,-164.500,-155.500
1.103,-75.000,-97.500,-164.000,-155.500
1.104,-74.500,-97.000,-163.500,-155.000
1.105,-73.500,-96.500,-162.500,-154.000
1.106,-73.000,-96.000,-162.000,-153.500
1.107,-72.500,-95.000,-161.500,-152.500
1.108,-72.000,-94.500,-160.500,-152.000
1.109,-71.500,-94.000,-159.500,-151.000
1.110,-71.500,-93.500,-158.500,-150.000
1.111,-72.000,-93.000,-158.000,-149.000
1.112,-72.000,-93.000,-158.000,-148.500
1.113,-72.500,-93.000,-159.000,-148.500
1.114,-73.000,-93.500,-160.000,-148.000
1.115,-73.000,-93.500,-161.000,-148.000
1.116,-73.000,-93.500,-161.000,-148.000
1.117,-73.000,-93.000,-160.500,-148.000
1.118,-72.500,-92.000,-159.000,-148.000
1.119,-72.500,-91.000,-157.500,-147.500
1.120,-72.500,-90.000,-156.000,-147.500
1.121,-72.500,-89.500,-155.500,-147.500
1.122,-72.500,-89.500,-155.000,-148.000
1.123,-72.500,-89.500,-155.500,-148.500
1.124,-72.000,-89.500,-156.000,-149.000
1.125,-72.000,-89.000,-156.000,-149.500
1.126,-72.000,-89.000,-156.000,-149.500
1.127,-72.500,-88.500,-155.500,-149.500
1.128,-72.500,-88.000,-154.500,-149.000
1.129,-72.500,-87.500,-153.500,-148.500
1.130,-72.500,-87.000,-152.500,-148.000
1.131,-72.500,-86.500,-152.500,-147.500
1.132,-72.500,-86.500,-152.500,-147.500
1.133,-73.000,-86.500,-153.000,-147.500
1.134,-73.000,-87.000,-153.500,-148.000
1.135,-73.000,-87.500,-154.000,-148.000
1.136,-73.000,-88.000,-154.000,-148.500
1.137,-72.500,-88.500,-154.000,-149.000
1.138,-72.500,-89.000,-154.500,-149.500
1.139,-72.000,-89.000,-155.000,-150.000
1.140,-71.000,-89.500,-155.500,-150.500
1.141,-70.500,-90.000,-156.000,-150.500
1.142,-69.500,-90.000,-156.500,-150.500
1.143,-68.500,-90.500,-156.500,-150.500
1.144,-68.000,-91.000,-156.500,-150.500
1.145,-67.500,-91.000,-156.500,-150.500
1.146,-67.500,-91.500,-156.000,-151.000
1.147,-67.500,-91.500,-155.500,-151.500
1.148,-67.500,-92.000,-155.500,-152.000
1.149,-67.500,-92.000,-155.500,-152.500
1.150,-68.000,-92.000,-155.500,-153.000
1.151,-68.500,-92.000,-156.000,-154.000
1.152,-69.000,-92.000,-156.500,-154.500
1.153,-69.500,-92.000,-156.500,-155.000
1.154,-70.500,-92.000,-157.000,-155.500
1.155,-71.500,-92.000,-157.000,-156.000
1.156,-72.000,-92.000,-157.500,-157.000
1.157,-73.000,-92.000,-158.000,-157.500
1.158,-74.000,-92.500,-158.000,-158.000
1.159,-75.000,-92.500,-157.500,-157.500
1.160,-75.500,-92.500,-157.000,-157.000
1.161,-76.000,-93.000,-156.500,-155.000
1.162,-75.500,-93.500,-155.000,-152.000
1.163,-75.000,-93.000,-153.000,-148.000
1.164,-73.500,-92.500,-151.000,-143.500
1.165,-72.500,-92.000,-148.000,-138.500
1.166,-71.000,-91.000,-145.500,-134.000
1.167,-69.500,-90.000,-142.500,-129.500
1.168,-68.000,-88.500,-139.500,-125.500
1.169,-66.000,-87.000,-137.000,-122.500
1.170,-64.500,-85.500,-134.500,-120.500
1.171,-63.000,-83.500,-132.500,-119.500
1.172,-62.000,-81.500,-130.500,-119.000
1.173,-60.500,-79.500,-129.500,-119.000
1.174,-59.500,-78.000,-128.500,-119.500
1.175,-58.500,-77.000,-127.500,-119.500
1.176,-57.500,-75.500,-127.000,-120.000
1.177,-56.000,-74.500,-126.000,-119.500
1.178,-55.000,-73.500,-125.500,-119.500
1.179,-54.000,-72.500,-125.500,-119.500
1.180,-53.000,-72.000,-125.500,-120.000
1.181,-52.000,-71.500,-125.500,-120.000
1.182,-51.000,-71.000,-125.500,-120.500
1.183,-50.000,-70.500,-125.500,-121.000
1.184,-49.000,-70.000,-125.500,-122.000
1.185,-48.000,-70.000,-126.000,-122.500
1.186,-47.500,-69.500,-126.500,-123.000
1.187,-46.500,-69.500,-127.500,-123.500
1.188,-46.000,-70.000,-128.000,-124.000
1.189,-46.000,-70.000,-128.500,-124.500
1.190,-45.500,-70.000,-128.500,-124.500
1.191,-45.500,-70.500,-128.000,-125.000
1.192,-46.000,-71.000,-128.000,-125.000
1.193,-46.000,-71.000,-127.500,-125.500
1.194,-46.000,-71.500,-127.500,-125.500
1.195,-46.500,-72.000,-127.500,-126.000
1.196,-46.500,-72.500,-127.500,-126.000
1.197,-46.500,-73.000,-127.500,-126.500
1.198,-47.000,-73.500,-128.000,-127.000
1.199,-47.000,-74.000,-128.000,-127.500
1.200,-47.500,-74.500,-128.000,-128.000
1.201,-47.500,-74.500,-128.000,-128.500
1.202,-47.500,-74.500,-127.000,-129.000
1.203,-47.500,-74.000,-126.500,-129.500
1.204,-47.500,-73.500,-126.000,-129.500
1.205,-48.000,-73.500,-125.500,-130.000
1.206,-48.000,-74.000,-126.000,-130.000
1.207,-48.000,-75.000,-126.500,-129.500
1.208,-48.500,-76.500,-127.500,-129.500
1.209,-48.500,-78.500,-128.000,-129.000
1.210,-49.000,-80.000,-128.500,-129.000
1.211,-49.500,-81.500,-129.500,-129.000
1.212,-50.000,-82.500,-129.500,-129.500
1.213,-50.000,-83.000,-130.000,-130.000
1.214,-50.500,-83.000,-130.000,-130.000
1.215,-50.000,-82.500,-129.500,-130.000
1.216,-50.000,-81.500,-129.000,-130.000
1.217,-49.500,-80.500,-128.500,-129.500
1.218,-49.000,-79.500,-128.000,-129.500
1.219,-49.000,-79.000,-127.500,-129.000
1.220,-48.500,-78.500,-127.000,-128.500
1.221,-48.500,-78.000,-126.000,-128.500
1.222,-48.000,-77.500,-125.500,-128.500
1.223,-48.000,-76.500,-124.500,-128.000
1.224,-47.500,-76.000,-123.000,-127.500
1.225,-47.000,-75.000,-122.000,-127.500
1.226,-47.000,-74.500,-121.500,-127.000
1.227,-46.500,-74.500,-121.000,-127.000
1.228,-46.500,-74.500,-121.500,-127.000
1.229,-46.000,-75.000,-122.500,-127.000
1.230,-45.500,-75.500,-124.000,-127.500
1.231,-45.000,-76.000,-125.000,-128.000
1.232,-45.500,-76.000,-126.000,-129.000
1.233,-45.500,-76.000,-126.000,-129.500
1.234,-46.000,-76.500,-126.000,-130.000
1.235,-46.500,-76.000,-126.000,-130.000
1.236,-46.500,-76.000,-125.500,-130.000
1.237,-46.500,-76.000,-125.000,-130.000
1.238,-46.000,-75.500,-124.500,-129.500
1.239,-45.500,-75.500,-124.500,-129.500
1.240,-45.500,-75.000,-124.000,-130.000
1.241,-45.000,-74.000,-123.500,-130.500
1.242,-45.000,-73.000,-122.500,-131.000
1.243,-44.500,-72.000,-122.000,-131.000
1.244,-44.000,-71.500,-121.500,-131.000
1.245,-43.500,-71.000,-121.500,-131.000
1.246,-43.500,-71.500,-121.500,-131.000
1.247,-43.500,-71.500,-122.000,-131.000
1.248,-43.000,-71.500,-122.000,-131.000
1.249,-43.000,-72.000,-122.000,-130.500
1.250,-43.500,-71.500,-121.500,-130.500
1.251,-43.500,-71.000,-121.000,-130.000
1.252,-43.500,-70.500,-119.500,-129.500
1.253,-44.000,-70.000,-118.000,-129.000
1.254,-44.000,-69.500,-116.500,-128.500
1.255,-44.500,-69.000,-115.000,-128.000
1.256,-44.000,-68.500,-114.000,-127.500
1.257,-44.000,-68.500,-113.500,-127.000
1.258,-43.500,-68.500,-113.000,-126.500
1.259,-43.000,-68.500,-113.000,-126.500
1.260,-42.500,-68.500,-113.000,-126.500
1.261,-41.500,-69.000,-113.500,-126.000
1.262,-41.000,-69.000,-114.000,-126.000
1.263,-40.000,-69.500,-114.500,-126.000
1.264,-40.000,-70.000,-115.000,-125.500
1.265,-39.500,-70.500,-115.500,-125.500
1.266,-39.500,-70.500,-115.500,-125.500
1.267,-39.000,-70.500,-115.000,-125.500
1.268,-38.500,-69.500,-114.000,-125.500
1.269,-38.000,-69.000,-113.500,-125.500
1.270,-37.500,-68.500,-112.500,-126.000
1.271,-37.500,-68.000,-112.000,-126.000
1.272,-37.000,-68.500,-112.000,-126.500
1.273,-37.500,-68.500,-111.500,-126.500
1.274,-37.500,-69.000,-111.500,-127.000
1.275,-38.000,-69.500,-112.000,-127.000
1.276,-38.500,-70.000,-112.000,-127.000
1.277,-38.500,-70.500,-112.500,-127.500
1.278,-39.000,-71.000,-112.500,-128.000
1.279,-39.000,-71.000,-112.500,-128.500
1.280,-39.000,-71.000,-112.500,-129.500
1.281,-39.000,-70.500,-112.500,-130.000
1.282,-39.000,-70.000,-111.500,-130.500
1.283,-39.500,-69.500,-111.000,-131.000
1.284,-39.500,-68.500,-110.500,-131.500
1.285,-39.500,-68.000,-110.000,-132.000
1.286,-40.000,-68.000,-110.000,-132.500
1.287,-40.000,-67.500,-110.500,-133.000
1.288,-40.000,-67.500,-111.000,-134.000
1.289,-40.000,-67.500,-112.000,-135.500
1.290,-40.000,-67.500,-113.000,-136.500
1.291,-40.500,-67.500,-113.500,-137.000
1.292,-41.000,-67.500,-114.000,-137.000
1.293,-41.500,-67.500,-114.000,-137.000
1.294,-42.000,-67.000,-113.500,-136.000
1.295,-42.500,-67.500,-112.500,-135.000
1.296,-43.000,-67.500,-112.000,-133.500
1.297,-43.000,-68.000,-111.500,-132.000
1.298,-43.500,-68.500,-111.000,-130.500
1.299,-43.500,-69.000,-111.000,-129.000
1.300,-43.500,-69.000,-110.500,-127.500
1.301,-43.500,-69.000,-110.000,-126.000
1.302,-43.500,-68.500,-109.000,-125.000
1.303,-43.000,-67.500,-108.000,-124.500
1.304,-43.000,-66.500,-107.000,-124.500
1.305,-43.000,-65.000,-106.000,-124.500
1.306,-43.000,-64.000,-105.000,-125.000
1.307,-43.000,-63.000,-104.500,-125.000
1.308,-43.000,-62.500,-104.000,-125.500
1.309,-43.000,-62.000,-104.000,-125.500
1.310,-42.500,-62.000,-104.000,-126.000
1.311,-42.500,-62.500,-104.000,-126.000
1.312,-42.000,-63.000,-104.500,-126.500
1.313,-42.000,-64.000,-105.000,-126.500
1.314,-42.000,-64.500,-105.000,-126.500
1.315,-42.000,-65.500,-105.000,-126.000
1.316,-42.000,-66.000,-105.000,-126.000
1.317,-42.500,-66.000,-105.000,-126.500
1.318,-43.000,-66.000,-105.000,-126.500
1.319,-43.500,-65.500,-104.500,-127.000
1.320,-43.500,-65.000,-104.000,-127.500
1.321,-43.500,-64.500,-103.500,-128.000
1.322,-43.000,-64.000,-103.000,-128.000
1.323,-42.500,-64.000,-102.500,-127.500
1.324,-41.500,-64.000,-102.000,-127.000
1.325,-41.000,-64.000,-101.500,-126.500
1.326,-40.500,-64.000,-101.500,-126.500
1.327,-40.000,-63.500,-102.000,-126.000
1.328,-39.500,-63.500,-102.500,-126.000
1.329,-39.000,-62.500,-103.000,-126.000
1.330,-38.500,-62.000,-103.000,-126.000
1.331,-38.500,-60.500,-103.000,-125.500
1.332,-38.000,-59.500,-103.000,-125.500
1.333,-38.000,-59.000,-102.500,-125.000
1.334,-38.000,-59.000,-102.500,-124.500
1.335,-37.500,-59.000,-102.500,-124.500
1.336,-37.500,-59.500,-103.000,-124.000
1.337,-37.000,-60.000,-104.000,-123.500
1.338,-37.000,-60.500,-104.500,-123.000
1.339,-37.000,-60.000,-104.500,-122.500
1.340,-37.000,-59.500,-103.500,-122.000
1.341,-37.000,-58.500,-102.500,-121.000
1.342,-37.000,-57.500,-101.500,-120.500
1.343,-37.000,-57.000,-100.000,-120.000
1.344,-37.000,-57.000,-99.500,-119.500
1.345,-37.000,-57.000,-99.000,-118.500
1.346,-36.500,-56.500,-98.500,-118.000
1.347,-36.500,-56.500,-97.500,-117.500
1.348,-36.000,-56.500,-97.000,-117.500
1.349,-35.500,-56.000,-96.500,-117.500
1.350,-35.500,-56.000,-96.000,-118.000
1.351,-35.000,-55.500,-96.000,-118.000
1.352,-35.000,-55.500,-96.000,-118.500
1.353,-35.000,-55.500,-96.000,-118.500
1.354,-35.000,-55.500,-96.000,-118.500
1.355,-35.000,-55.500,-96.000,-118.000
1.356,-35.500,-55.500,-96.000,-117.000
1.357,-35.500,-55.500,-95.500,-116.500
1.358,-36.000,-55.000,-95.000,-115.500
1.359,-36.500,-55.000,-94.000,-115.000
1.360,-36.500,-54.500,-93.000,-115.000
1.361,-36.500,-54.000,-92.000,-114.500
1.362,-36.500,-53.500,-91.000,-114.500
1.363,-36.000,-53.500,-90.000,-114.000
1.364,-35.500,-53.000,-89.000,-113.500
1.365,-34.500,-52.500,-88.000,-113.000
1.366,-34.000,-52.000,-87.000,-112.500
1.367,-33.500,-51.000,-86.000,-112.000
1.368,-32.500,-50.000,-85.000,-111.500
1.369,-32.500,-49.500,-84.000,-111.500
1.370,-32.500,-49.500,-84.000,-111.500
1.371,-33.000,-50.000,-85.000,-111.500
1.372,-33.500,-50.500,-86.000,-111.500
1.373,-34.000,-51.500,-87.000,-111.500
1.374,-35.000,-52.500,-87.500,-111.500
1.375,-35.500,-53.500,-88.000,-111.500
1.376,-35.500,-54.500,-88.000,-111.000
1.377,-35.500,-55.000,-88.000,-111.000
1.378,-35.500,-55.000,-88.000,-111.000
1.379,-35.500,-55.000,-88.500,-111.500
1.380,-35.000,-55.000,-88.500,-111.500
1.381,-34.500,-54.500,-88.000,-111.500
1.382,-34.000,-54.000,-87.500,-111.500
1.383,-33.000,-53.500,-86.500,-111.500
1.384,-32.500,-53.000,-85.500,-111.000
1.385,-31.500,-52.000,-85.000,-111.500
1.386,-31.000,-51.500,-84.000,-112.000
1.387,-31.000,-51.000,-83.500,-112.500
1.388,-31.000,-50.500,-83.000,-113.500
1.389,-31.000,-50.500,-82.500,-114.500
1.390,-31.500,-50.500,-82.500,-115.500
1.391,-32.000,-50.000,-82.500,-116.000
1.392,-32.500,-50.000,-82.500,-116.500
1.393,-32.500,-50.000,-83.000,-116.500
1.394,-32.500,-50.000,-83.500,-117.000
1.395,-32.500,-50.000,-84.500,-118.000
1.396,-32.000,-50.500,-86.000,-118.500
1.397,-32.000,-51.500,-87.500,-119.000
1.398,-31.500,-52.000,-89.000,-119.500
1.399,-31.000,-53.000,-90.000,-119.000
1.400,-31.000,-53.500,-90.500,-118.000
1.401,-30.500,-53.500,-90.000,-116.500
1.402,-30.500,-53.500,-89.000,-114.500
1.403,-30.000,-53.000,-87.500,-112.500
1.404,-29.500,-52.000,-86.000,-110.500
1.405,-29.500,-51.000,-84.000,-108.000
1.406,-29.000,-50.000,-82.000,-106.000
1.407,-28.000,-48.500,-79.500,-104.000
1.408,-27.500,-47.500,-77.500,-102.000
1.409,-27.000,-46.500,-75.500,-100.500
1.410,-26.500,-46.000,-74.000,-100.000
1.411,-26.000,-46.000,-73.500,-100.500
1.412,-26.000,-46.000,-74.000,-101.500
1.413,-26.000,-46.000,-75.500,-102.500
1.414,-26.500,-46.500,-77.000,-104.000
1.415,-26.500,-46.500,-79.000,-105.000
1.416,-27.000,-46.000,-80.000,-105.500
1.417,-27.000,-46.000,-81.500,-106.000
1.418,-27.500,-46.000,-82.000,-105.500
1.419,-27.500,-45.500,-82.500,-105.000
1.420,-28.000,-45.000,-82.500,-104.500
1.421,-28.000,-45.000,-82.000,-104.000
1.422,-27.500,-45.000,-81.500,-103.000
1.423,-27.000,-45.000,-80.500,-102.500
1.424,-26.000,-45.500,-80.000,-101.500
1.425,-25.000,-46.000,-80.000,-101.500
1.426,-24.000,-46.500,-79.500,-101.500
1.427,-23.000,-46.500,-79.500,-101.500
1.428,-22.000,-46.500,-79.000,-101.500
1.429,-21.000,-46.000,-78.500,-101.500
1.430,-20.500,-45.000,-78.500,-102.000
1.431,-20.000,-45.000,-78.500,-103.000
1.432,-20.000,-45.000,-78.500,-103.500
1.433,-20.000,-45.000,-79.000,-104.500
1.434,-20.000,-45.500,-79.500,-105.000
1.435,-20.000,-45.500,-79.500,-106.000
1.436,-20.000,-45.500,-79.500,-106.500
1.437,-20.000,-45.500,-79.000,-107.000
1.438,-20.000,-45.000,-78.500,-107.000
1.439,-20.000,-44.500,-78.000,-107.000
1.440,-20.000,-44.000,-77.500,-107.000
1.441,-20.500,-43.500,-77.500,-106.500
1.442,-20.500,-43.000,-77.500,-106.500
1.443,-20.500,-42.500,-78.000,-106.500
1.444,-20.500,-42.000,-78.000,-106.000
1.445,-20.500,-41.500,-78.500,-106.000
1.446,-20.000,-42.000,-79.000,-105.500
1.447,-19.500,-42.500,-80.000,-105.000
1.448,-19.000,-43.500,-80.500,-105.000
1.449,-19.000,-45.000,-81.500,-104.500
1.450,-18.500,-46.000,-82.000,-104.500
1.451,-18.000,-47.000,-82.000,-104.500
1.452,-18.000,-47.000,-81.500,-104.000
1.453,-17.500,-46.500,-80.500,-104.000
1.454,-17.500,-46.000,-79.500,-104.000
1.455,-17.000,-45.000,-78.000,-104.000
1.456,-16.500,-44.000,-77.000,-104.000
1.457,-16.500,-43.000,-76.500,-104.500
1.458,-16.500,-43.000,-76.000,-104.500
1.459,-16.500,-42.500,-76.000,-105.000
1.460,-16.500,-42.000,-76.000,-105.500
1.461,-16.000,-41.500,-75.500,-105.500
1.462,-16.000,-41.000,-75.000,-105.500
1.463,-15.500,-40.500,-74.500,-105.500
1.464,-15.500,-40.000,-73.500,-105.000
1.465,-15.000,-39.000,-73.500,-105.000
1.466,-14.500,-38.500,-73.000,-104.500
1.467,-14.000,-38.000,-72.500,-104.500
1.468,-14.000,-37.500,-72.000,-104.500
1.469,-14.000,-37.500,-71.500,-104.500
1.470,-14.000,-37.000,-71.500,-104.500
1.471,-14.000,-37.500,-72.000,-104.500
1.472,-14.500,-37.500,-72.000,-104.500
1.473,-14.500,-37.500,-72.500,-104.500
1.474,-14.500,-38.000,-73.000,-104.500
1.475,-15.000,-38.000,-73.000,-104.000
1.476,-15.000,-38.000,-73.500,-103.500
1.477,-15.000,-38.000,-73.500,-103.500
1.478,-14.500,-38.000,-73.500,-103.000
1.479,-14.500,-37.500,-73.000,-102.500
1.480,-14.000,-37.500,-72.500,-101.500
1.481,-13.500,-37.000,-72.000,-101.000
1.482,-13.500,-37.000,-71.000,-100.000
1.483,-13.000,-37.500,-70.500,-99.500
1.484,-12.500,-37.500,-70.000,-99.000
1.485,-12.000,-38.000,-70.000,-98.500
1.486,-12.000,-38.500,-70.500,-98.500
1.487,-12.000,-39.000,-71.000,-99.000
1.488,-11.500,-39.500,-71.500,-100.000
1.489,-11.500,-40.000,-72.500,-101.500
1.490,-11.500,-40.500,-74.000,-103.000
1.491,-11.500,-41.000,-75.500,-105.000
1.492,-11.500,-41.500,-76.500,-107.000
1.493,-11.500,-41.500,-78.000,-109.000
1.494,-11.500,-41.500,-78.500,-110.500
1.495,-11.500,-41.000,-79.000,-111.500
1.496,-12.000,-40.500,-79.000,-111.500
1.497,-12.000,-40.000,-78.500,-111.500
1.498,-12.000,-39.500,-78.000,-110.500
1.499,-12.000,-39.000,-76.500,-109.500
1.500,-12.000,-38.500,-75.000,-107.500
1.501,-11.500,-37.500,-73.500,-105.500
1.502,-11.000,-36.500,-71.000,-103.000
1.503,-10.500,-35.500,-69.000,-100.500
1.504,-10.000,-35.000,-67.000,-98.000
1.505,-9.500,-34.500,-65.000,-96.500
1.506,-9.500,-34.000,-63.500,-95.500
1.507,-9.500,-34.000,-63.000,-96.000
1.508,-9.500,-34.500,-63.000,-97.500
1.509,-10.000,-35.000,-63.500,-99.000
1.510,-10.500,-36.000,-64.500,-101.000
1.511,-11.000,-36.500,-65.500,-102.500
1.512,-11.500,-37.000,-67.000,-103.500
1.513,-12.000,-37.500,-68.000,-104.000
1.514,-12.500,-37.500,-68.500,-104.000
1.515,-12.500,-37.500,-69.000,-103.500
1.516,-12.500,-37.000,-68.500,-102.500
1.517,-12.500,-36.500,-68.500,-102.000
1.518,-12.500,-36.500,-68.000,-101.000
1.519,-12.000,-36.000,-67.500,-100.000
1.520,-11.500,-35.500,-66.500,-98.500
1.521,-11.000,-35.000,-66.000,-97.500
1.522,-10.500,-35.000,-65.000,-97.000
1.523,-10.000,-35.000,-64.500,-96.500
1.524,-10.000,-35.000,-64.500,-96.000
1.525,-9.500,-35.000,-64.500,-96.500
1.526,-9.500,-35.000,-64.500,-96.500
1.527,-9.000,-34.500,-64.000,-96.500
1.528,-9.000,-34.500,-63.500,-96.500
1.529,-8.500,-34.000,-63.500,-96.500
1.530,-8.000,-34.500,-63.500,-97.000
1.531,-8.000,-34.500,-63.500,-97.000
1.532,-8.000,-35.000,-63.500,-97.000
1.533,-8.000,-35.000,-64.000,-97.500
1.534,-8.000,-35.500,-64.500,-98.000
1.535,-8.500,-35.500,-65.000,-98.000
1.536,-8.500,-35.500,-65.000,-98.000
1.537,-9.000,-35.000,-65.500,-98.000
1.538,-9.000,-35.000,-65.500,-98.000
1.539,-8.500,-34.500,-65.500,-98.000
1.540,-8.000,-34.000,-65.000,-97.500
1.541,-7.500,-33.000,-64.000,-97.000
1.542,-6.500,-32.500,-63.000,-96.500
1.543,-6.000,-31.500,-61.500,-96.000
1.544,-5.000,-31.000,-60.000,-95.500
1.545,-4.000,-30.500,-59.000,-95.000
1.546,-3.500,-30.500,-58.500,-95.000
1.547,-2.500,-30.500,-58.500,-95.500
1.548,-2.500,-31.000,-58.500,-95.500
1.549,-2.000,-31.500,-58.500,-96.000
1.550,-2.000,-31.500,-58.000,-96.000
1.551,-2.500,-32.000,-57.500,-96.000
1.552,-2.500,-32.000,-56.500,-96.500
1.553,-3.000,-31.500,-56.000,-96.500
1.554,-3.500,-31.500,-56.000,-97.000
1.555,-4.000,-32.000,-56.500,-97.500
1.556,-4.000,-32.000,-57.500,-98.000
1.557,-4.500,-32.500,-58.500,-98.000
1.558,-5.000,-33.500,-60.000,-98.000
1.559,-5.000,-34.000,-61.000,-97.500
1.560,-5.000,-34.500,-62.500,-97.000
1.561,-5.000,-34.500,-63.500,-96.500
1.562,-4.500,-35.000,-64.000,-95.000
1.563,-4.000,-34.500,-64.000,-94.000
1.564,-3.500,-34.500,-64.000,-92.500
1.565,-3.000,-33.500,-63.000,-91.000
1.566,-2.500,-33.000,-61.500,-90.000
1.567,-2.000,-31.500,-59.000,-89.000
1.568,-2.000,-30.500,-57.000,-88.000
1.569,-2.000,-30.000,-54.500,-87.500
1.570,-2.500,-29.500,-53.000,-87.000
1.571,-3.000,-30.000,-53.000,-87.000
1.572,-3.000,-31.000,-53.500,-87.500
1.573,-3.500,-32.000,-54.500,-88.500
1.574,-4.000,-33.000,-55.500,-89.000
1.575,-4.000,-34.500,-56.500,-89.500
1.576,-4.000,-35.000,-56.500,-89.500
1.577,-4.000,-35.500,-56.500,-89.000
1.578,-3.500,-35.500,-56.000,-89.000
1.579,-3.000,-35.500,-55.500,-88.000
1.580,-2.500,-34.500,-55.000,-87.500
1.581,-1.500,-33.500,-54.000,-86.500
1.582,-1.000,-32.500,-53.500,-85.500
1.583,0.000,-31.500,-52.500,-85.000
1.584,1.000,-30.500,-51.500,-84.500
1.585,1.500,-29.500,-50.000,-84.000
1.586,2.500,-28.500,-49.000,-84.000
1.587,2.500,-28.000,-48.500,-84.000
1.588,3.000,-27.500,-48.000,-84.000
1.589,3.000,-28.000,-48.000,-84.000
1.590,2.500,-28.500,-48.500,-84.500
1.591,2.500,-30.000,-49.500,-84.500
1.592,2.000,-31.000,-51.000,-84.500
1.593,1.500,-32.500,-51.500,-84.000
1.594,1.500,-33.500,-52.500,-84.000
1.595,1.500,-34.000,-52.500,-84.000
1.596,1.500,-34.000,-53.000,-84.000
1.597,2.000,-34.000,-53.000,-85.000
1.598,2.000,-34.000,-53.500,-86.000
1.599,2.500,-33.500,-53.500,-87.500
1.600,3.000,-33.000,-53.500,-89.000
1.601,3.500,-32.500,-53.500,-90.000
1.602,4.500,-32.000,-53.500,-91.500
1.603,5.500,-31.000,-53.000,-92.000
1.604,6.000,-30.500,-52.000,-91.500
1.605,7.000,-30.000,-51.500,-91.000
1.606,7.000,-29.500,-50.500,-89.500
1.607,7.500,-29.000,-49.500,-88.000
1.608,7.500,-29.000,-49.000,-86.500
1.609,7.000,-29.000,-48.500,-85.000
1.610,7.000,-29.000,-48.000,-84.000
1.611,6.000,-29.500,-47.500,-82.500
1.612,5.500,-29.500,-46.500,-81.500
1.613,4.500,-29.500,-45.500,-81.000
1.614,4.000,-30.000,-45.000,-81.000
1.615,3.000,-29.500,-44.500,-81.500
1.616,3.000,-29.500,-44.000,-82.000
1.617,2.500,-28.500,-44.000,-82.500
1.618,2.500,-28.000,-43.500,-83.000
1.619,2.500,-27.500,-43.500,-83.000
1.620,2.000,-27.000,-43.000,-82.500
1.621,2.500,-27.000,-42.500,-81.500
1.622,2.500,-27.000,-42.000,-80.000
1.623,3.000,-26.500,-41.000,-79.000
1.624,3.500,-27.000,-40.000,-78.500
1.625,4.000,-27.000,-40.000,-78.500
1.626,4.000,-27.500,-40.000,-79.000
1.627,4.500,-28.500,-41.000,-79.500
1.628,4.500,-29.000,-42.500,-80.500
1.629,4.500,-30.000,-44.000,-81.000
1.630,4.500,-30.500,-46.000,-81.000
1.631,4.500,-31.000,-47.000,-81.000
1.632,4.000,-31.000,-47.500,-80.500
1.633,4.000,-30.500,-47.500,-80.000
1.634,3.500,-30.000,-47.000,-79.500
1.635,3.500,-29.000,-46.000,-78.500
1.636,3.000,-28.500,-45.000,-77.000
1.637,3.000,-27.500,-44.000,-76.000
1.638,3.000,-27.000,-43.000,-74.500
1.639,3.000,-26.500,-42.500,-73.500
1.640,3.000,-26.000,-42.000,-73.000
1.641,3.500,-26.000,-41.500,-73.000
1.642,3.500,-25.500,-41.500,-72.500
1.643,4.000,-25.000,-41.000,-72.500
1.644,4.500,-24.000,-40.000,-72.000
1.645,5.000,-23.500,-39.000,-72.000
1.646,5.500,-22.500,-38.000,-71.500
1.647,6.000,-22.500,-37.500,-71.500
1.648,6.500,-22.000,-37.000,-71.500
1.649,7.000,-22.000,-37.000,-71.500
1.650,7.500,-22.500,-37.500,-71.500
1.651,8.000,-22.500,-37.500,-71.500
1.652,8.000,-23.000,-37.500,-72.000
1.653,8.000,-23.000,-37.500,-72.500
1.654,8.000,-24.000,-37.500,-72.500
1.655,7.500,-24.500,-37.500,-73.000
1.656,7.500,-26.000,-37.500,-73.000
1.657,7.000,-27.000,-38.000,-73.500
1.658,7.000,-28.500,-39.000,-73.500
1.659,7.000,-30.000,-40.000,-74.000
1.660,7.500,-31.000,-41.000,-75.000
1.661,7.500,-31.000,-41.500,-75.500
1.662,8.000,-30.500,-41.500,-75.500
1.663,9.000,-30.000,-41.000,-76.000
1.664,9.500,-29.000,-40.500,-76.000
1.665,10.000,-28.500,-40.000,-76.000
1.666,10.500,-28.000,-39.000,-76.000
1.667,11.000,-27.500,-38.500,-76.000
1.668,11.500,-27.000,-37.500,-75.500
1.669,11.500,-26.500,-37.000,-75.500
1.670,11.500,-26.500,-36.000,-75.000
1.671,11.000,-27.000,-35.500,-75.000
1.672,10.500,-27.500,-35.500,-75.000
1.673,9.500,-28.000,-36.000,-75.000
1.674,8.500,-29.000,-36.500,-74.500
1.675,7.000,-29.500,-37.000,-74.000
1.676,6.000,-30.000,-37.000,-73.000
1.677,5.500,-30.000,-36.500,-71.500
1.678,5.500,-29.500,-36.000,-69.500
1.679,6.000,-29.000,-35.000,-67.500
1.680,6.500,-28.000,-34.000,-65.500
1.681,7.500,-26.500,-32.000,-63.500
1.682,8.500,-25.000,-29.500,-61.000
1.683,9.500,-23.000,-26.500,-58.500
1.684,11.000,-21.000,-23.500,-56.000
1.685,12.500,-19.000,-20.500,-54.500
1.686,14.000,-18.000,-18.000,-53.500
1.687,15.000,-17.000,-16.500,-53.000
1.688,16.000,-16.000,-15.500,-53.000
1.689,17.000,-15.000,-15.000,-53.000
1.690,18.000,-14.500,-14.500,-53.000
1.691,18.500,-13.500,-14.000,-53.000
1.692,19.000,-12.500,-14.000,-53.500
1.693,19.000,-12.000,-14.000,-54.500
1.694,19.000,-12.000,-14.000,-56.000
1.695,19.500,-12.500,-14.500,-57.000
1.696,20.000,-13.000,-15.000,-58.500
1.697,20.500,-14.000,-16.000,-59.500
1.698,22.000,-14.500,-16.500,-60.500
1.699,23.000,-15.500,-17.500,-61.500
1.700,24.000,-15.500,-17.500,-62.000
1.701,25.500,-15.000,-17.500,-62.000
1.702,26.500,-14.500,-17.500,-61.500
1.703,27.500,-13.500,-17.000,-60.500
1.704,28.500,-12.000,-17.000,-59.500
1.705,29.500,-11.000,-16.500,-58.000
1.706,30.500,-10.500,-15.500,-56.500
1.707,31.500,-9.500,-14.500,-55.000
1.708,32.000,-9.000,-13.500,-54.000
1.709,32.000,-9.000,-12.500,-53.000
1.710,31.500,-9.500,-12.000,-53.000
1.711,31.000,-10.000,-11.500,-53.500
1.712,30.000,-10.500,-11.000,-54.500
1.713,29.000,-11.500,-11.500,-55.500
1.714,28.000,-12.000,-12.000,-57.000
1.715,27.000,-13.500,-13.500,-58.500
1.716,26.000,-14.500,-15.000,-60.000
1.717,25.000,-16.000,-17.000,-61.000
1.718,24.500,-17.500,-18.000,-62.000
1.719,24.000,-18.500,-19.000,-62.500
1.720,23.500,-19.000,-19.500,-63.500
1.721,23.500,-19.500,-19.500,-64.000
1.722,23.500,-19.500,-19.500,-64.500
1.723,23.000,-20.000,-19.000,-65.000
1.724,23.000,-20.000,-18.500,-65.000
1.725,23.000,-19.500,-18.500,-65.000
1.726,23.000,-19.500,-17.500,-64.500
1.727,23.000,-19.500,-17.000,-63.500
1.728,23.000,-19.500,-16.500,-63.000
1.729,22.500,-20.000,-16.500,-62.000
1.730,22.000,-21.000,-16.500,-61.500
1.731,22.000,-22.000,-17.000,-61.500
1.732,21.500,-22.500,-17.500,-61.000
1.733,21.500,-23.000,-18.000,-61.000
1.734,21.500,-23.000,-18.500,-60.500
1.735,21.000,-22.500,-18.500,-60.000
1.736,20.500,-22.500,-18.000,-60.000
1.737,20.500,-22.000,-17.500,-59.500
1.738,20.000,-22.000,-17.000,-59.500
1.739,20.500,-21.500,-17.000,-59.500
1.740,21.000,-21.000,-16.500,-60.000
1.741,21.500,-20.500,-16.000,-60.000
1.742,22.000,-19.500,-15.000,-60.500
1.743,22.500,-19.000,-14.500,-60.500
1.744,23.000,-18.500,-14.000,-60.500
1.745,23.500,-18.500,-13.500,-60.500
1.746,24.000,-19.000,-14.000,-60.000
1.747,24.000,-19.000,-14.500,-60.000
1.748,24.500,-19.500,-15.000,-59.500
1.749,24.500,-20.000,-15.500,-59.500
1.750,24.000,-20.000,-15.500,-59.000
1.751,24.000,-20.500,-15.500,-59.000
1.752,23.500,-20.500,-15.000,-58.500
1.753,23.500,-20.000,-14.500,-58.500
1.754,23.500,-20.000,-14.500,-58.000
1.755,23.500,-20.000,-14.000,-58.000
1.756,24.000,-20.000,-13.500,-57.500
1.757,24.000,-20.000,-13.000,-57.500
1.758,24.000,-20.500,-13.000,-57.500
1.759,24.000,-21.000,-13.000,-57.500
1.760,24.000,-21.500,-13.000,-57.500
1.761,24.000,-22.000,-13.500,-57.500
1.762,24.500,-22.500,-13.000,-57.500
1.763,25.500,-22.500,-13.000,-57.500
1.764,26.000,-22.000,-12.500,-57.000
1.765,27.000,-22.000,-12.500,-57.000
1.766,27.500,-22.000,-12.000,-57.500
1.767,27.500,-22.000,-12.000,-57.500
1.768,27.500,-22.000,-11.500,-57.500
1.769,27.500,-22.000,-11.000,-57.500
1.770,28.000,-22.000,-10.500,-57.500
1.771,28.000,-22.000,-10.500,-57.500
1.772,27.500,-22.000,-10.500,-57.500
1.773,27.500,-22.000,-10.500,-57.500
1.774,27.000,-22.000,-10.500,-57.500
1.775,26.500,-22.500,-11.000,-58.000
1.776,26.500,-23.000,-11.500,-58.500
1.777,26.000,-23.500,-11.500,-59.500
1.778,26.000,-24.000,-12.000,-60.000
1.779,26.000,-24.500,-12.000,-60.500
1.780,26.000,-24.500,-11.500,-61.000
1.781,26.000,-25.000,-11.000,-61.000
1.782,26.500,-25.000,-10.500,-61.000
1.783,27.000,-25.500,-10.000,-60.500
1.784,27.500,-25.500,-9.000,-60.000
1.785,28.500,-25.000,-8.500,-59.500
1.786,29.000,-25.000,-8.000,-58.500
1.787,29.500,-24.500,-8.000,-58.000
1.788,30.000,-24.500,-8.000,-57.500
1.789,30.000,-24.500,-8.500,-57.000
1.790,30.000,-24.500,-9.000,-56.500
1.791,29.500,-25.000,-10.000,-56.500
1.792,29.500,-25.000,-11.500,-56.000
1.793,29.000,-24.500,-12.500,-56.000
1.794,29.000,-24.500,-13.000,-56.000
1.795,28.500,-24.000,-13.500,-56.000
1.796,28.500,-24.000,-13.500,-56.500
1.797,28.500,-24.000,-14.000,-57.500
1.798,28.500,-24.000,-14.500,-58.500
1.799,28.500,-24.500,-15.000,-59.500
1.800,28.500,-24.500,-15.000,-60.500
1.801,29.000,-24.500,-15.000,-60.500
1.802,29.500,-24.500,-14.000,-60.000
1.803,30.000,-24.000,-13.000,-59.000
1.804,30.500,-23.500,-11.500,-57.500
1.805,31.000,-23.000,-10.000,-55.500
1.806,31.500,-22.500,-8.500,-53.500
1.807,31.500,-21.500,-7.000,-51.500
1.808,32.000,-21.000,-5.500,-49.500
1.809,32.000,-20.500,-4.500,-48.000
1.810,32.000,-20.500,-3.500,-47.500
1.811,32.000,-20.500,-3.000,-47.500
1.812,31.500,-20.500,-3.000,-48.000
1.813,31.000,-21.000,-3.000,-48.500
1.814,31.000,-21.000,-3.000,-49.500
1.815,30.500,-21.500,-3.500,-50.500
1.816,30.500,-22.000,-4.000,-51.500
1.817,30.500,-22.000,-4.000,-52.500
1.818,30.500,-22.000,-4.500,-52.500
1.819,30.500,-21.500,-4.000,-52.500
1.820,30.500,-21.000,-3.500,-52.500
1.821,31.000,-20.500,-3.500,-52.500
1.822,30.500,-20.000,-3.000,-52.500
1.823,30.500,-20.000,-3.000,-52.000
1.824,30.000,-20.000,-2.500,-51.500
1.825,30.000,-20.000,-3.000,-51.500
1.826,30.000,-20.000,-3.000,-51.500
1.827,30.000,-20.500,-3.000,-51.500
1.828,30.500,-21.000,-3.000,-51.500
1.829,31.000,-21.500,-2.500,-52.000
1.830,31.500,-21.500,-2.000,-52.000
1.831,31.500,-22.000,-1.500,-52.000
1.832,31.500,-22.000,-1.500,-52.000
1.833,31.500,-22.500,-1.500,-52.000
1.834,32.000,-23.000,-2.000,-52.000
1.835,32.000,-23.500,-2.500,-52.000
1.836,32.000,-24.000,-3.500,-52.500
1.837,32.500,-24.500,-4.000,-53.000
1.838,33.000,-25.000,-4.500,-53.500
1.839,33.500,-25.000,-4.500,-53.500
1.840,34.000,-25.000,-3.500,-53.500
1.841,34.500,-24.500,-2.500,-53.500
1.842,35.500,-24.000,-1.000,-53.000
1.843,36.500,-23.500,0.000,-52.500
1.844,37.000,-23.000,1.000,-52.000
1.845,38.000,-22.500,2.000,-51.000
1.846,38.500,-21.500,2.500,-50.000
1.847,39.000,-20.500,3.500,-48.500
1.848,39.500,-20.000,4.500,-47.500
1.849,39.500,-19.000,5.500,-46.000
1.850,39.500,-18.500,6.500,-45.500
1.851,39.500,-18.000,6.500,-45.000
1.852,39.500,-18.000,6.500,-45.500
1.853,39.000,-18.500,5.500,-46.000
1.854,39.000,-19.500,4.500,-47.000
1.855,38.500,-21.000,3.000,-48.000
1.856,38.000,-22.500,2.000,-48.500
1.857,38.000,-23.500,1.500,-48.500
1.858,38.000,-24.000,2.000,-48.000
1.859,38.500,-24.500,3.000,-47.000
1.860,39.000,-24.000,4.000,-45.500
1.861,40.500,-23.500,5.000,-44.500
1.862,42.000,-22.500,6.500,-43.000
1.863,43.500,-21.500,7.500,-42.000
1.864,45.000,-20.500,8.500,-41.000
1.865,46.000,-20.000,9.000,-40.500
1.866,46.500,-19.500,9.500,-40.000
1.867,47.000,-19.000,9.500,-39.500
1.868,47.500,-19.000,9.500,-39.000
1.869,48.000,-19.000,9.500,-39.000
1.870,48.500,-19.000,9.000,-38.500
1.871,48.000,-19.000,8.500,-38.500
1.872,47.500,-19.500,8.500,-38.500
1.873,47.000,-19.500,8.000,-38.500
1.874,46.500,-19.000,8.500,-38.500
1.875,46.500,-19.000,9.000,-38.000
1.876,46.000,-19.000,9.500,-37.500
1.877,46.000,-19.000,10.000,-37.500
1.878,45.500,-19.500,10.500,-37.000
1.879,45.500,-19.500,11.000,-37.000
1.880,45.500,-20.000,11.000,-37.000
1.881,45.500,-20.500,11.500,-37.000
1.882,45.500,-20.500,12.000,-37.000
1.883,46.000,-21.000,12.000,-37.000
1.884,47.000,-21.000,11.500,-37.000
1.885,47.500,-21.000,11.000,-37.000
1.886,49.000,-21.000,11.000,-36.500
1.887,49.500,-20.500,11.500,-36.500
1.888,50.500,-20.000,12.000,-36.000
1.889,51.000,-19.500,13.000,-36.000
1.890,51.000,-19.500,14.000,-36.500
1.891,51.000,-19.500,14.500,-36.500
1.892,51.000,-19.500,15.000,-37.000
1.893,51.000,-20.000,15.500,-37.500
1.894,50.500,-20.000,15.000,-38.000
1.895,50.500,-20.500,15.000,-38.000
1.896,50.500,-20.500,15.000,-38.000
1.897,50.500,-20.000,15.000,-38.000
1.898,50.500,-19.500,14.500,-38.000
1.899,51.000,-19.500,14.000,-38.500
1.900,51.000,-19.000,13.500,-39.000
1.901,51.500,-19.000,12.000,-40.000
1.902,51.500,-19.000,10.500,-41.000
1.903,52.000,-19.000,9.500,-42.000
1.904,52.000,-19.500,8.500,-42.000
1.905,52.500,-20.000,8.500,-41.500
1.906,53.000,-20.000,9.000,-40.500
1.907,53.000,-20.000,10.500,-39.000
1.908,53.500,-19.500,12.000,-37.500
1.909,54.000,-19.500,14.000,-35.500
1.910,54.000,-19.500,15.500,-33.500
1.911,54.000,-19.500,17.500,-32.000
1.912,54.000,-19.000,19.000,-30.500
1.913,53.500,-19.000,20.000,-29.000
1.914,53.000,-19.000,21.000,-28.500
1.915,52.500,-19.000,21.500,-28.500
1.916,52.500,-19.000,22.000,-28.500
1.917,52.000,-19.500,22.500,-29.000
1.918,52.000,-19.500,22.500,-29.500
1.919,52.500,-20.000,22.000,-30.500
1.920,53.000,-20.500,21.000,-31.000
1.921,54.000,-21.000,20.500,-31.500
1.922,55.000,-21.500,19.500,-31.500
1.923,56.000,-22.000,19.500,-32.000
1.924,57.000,-22.500,19.000,-31.500
1.925,58.000,-22.500,19.000,-31.500
1.926,58.500,-22.000,19.500,-31.500
1.927,59.500,-21.500,20.000,-31.000
1.928,60.000,-20.500,20.500,-30.500
1.929,60.000,-20.000,21.000,-30.000
1.930,60.500,-19.500,21.500,-30.000
1.931,60.500,-19.500,21.500,-30.500
1.932,61.000,-19.000,21.500,-31.000
1.933,61.500,-19.000,21.000,-31.000
1.934,61.500,-19.000,20.500,-31.500
1.935,61.500,-19.000,20.000,-31.500
1.936,61.500,-19.500,19.500,-31.500
1.937,61.500,-19.000,20.000,-31.500
1.938,61.500,-19.000,20.000,-30.500
1.939,61.500,-19.000,20.500,-30.000
1.940,62.000,-19.000,21.000,-29.000
1.941,62.500,-19.000,21.000,-28.500
1.942,63.000,-18.500,21.500,-27.500
1.943,63.500,-18.500,22.000,-27.000
1.944,64.000,-18.500,22.500,-26.500
1.945,65.000,-18.000,23.000,-26.000
1.946,65.500,-18.000,23.500,-25.500
1.947,66.000,-18.000,23.500,-25.500
1.948,66.500,-17.500,24.000,-25.000
1.949,67.000,-17.000,24.500,-25.500
1.950,66.500,-16.500,24.500,-25.500
1.951,66.500,-16.500,24.500,-26.000
1.952,66.000,-16.500,24.500,-26.500
1.953,65.500,-16.500,24.500,-27.000
1.954,65.500,-17.000,24.500,-27.500
1.955,65.500,-17.500,24.500,-27.500
1.956,65.500,-18.500,24.000,-27.500
1.957,66.000,-19.500,24.000,-27.500
1.958,66.000,-20.500,24.000,-27.000
1.959,66.500,-21.000,24.000,-26.500
1.960,67.000,-21.000,25.000,-26.000
1.961,68.000,-20.500,26.000,-24.500
1.962,69.000,-19.500,27.500,-23.500
1.963,70.000,-18.500,29.000,-22.000
1.964,71.000,-17.500,31.000,-20.500
1.965,71.500,-17.000,32.500,-19.500
1.966,72.000,-16.500,33.500,-18.500
1.967,72.000,-16.500,33.500,-18.000
1.968,72.500,-17.000,33.500,-18.000
1.969,72.500,-17.500,33.000,-18.500
1.970,72.500,-17.500,32.000,-19.000
1.971,72.000,-18.000,31.500,-20.000
1.972,72.000,-18.000,31.500,-21.000
1.973,71.500,-18.000,31.500,-22.500
1.974,71.000,-17.500,31.500,-24.000
1.975,70.500,-17.500,32.000,-25.500
1.976,70.500,-17.500,32.500,-26.000
1.977,70.500,-17.000,33.000,-26.000
1.978,71.000,-17.000,34.000,-26.000
1.979,71.000,-17.000,34.500,-25.000
1.980,71.000,-17.000,34.500,-24.000
1.981,71.500,-18.000,34.500,-23.000
1.982,71.500,-18.500,34.500,-22.000
1.983,72.000,-19.500,34.000,-21.500
1.984,72.500,-20.000,34.000,-21.000
1.985,72.500,-20.500,33.500,-20.500
1.986,72.500,-21.000,33.500,-20.500
1.987,72.500,-20.500,34.000,-21.000
1.988,72.500,-20.000,34.500,-21.000
1.989,72.000,-19.000,35.500,-21.500
1.990,71.500,-18.000,36.500,-21.500
1.991,71.500,-17.500,37.000,-21.500
1.992,71.000,-17.000,37.500,-21.500
1.993,70.000,-17.000,38.000,-21.500
1.994,70.000,-17.000,38.500,-21.500
1.995,69.500,-17.000,39.500,-21.500
1.996,69.500,-17.000,40.000,-21.000
1.997,69.000,-17.000,41.500,-20.000
1.998,69.000,-16.500,42.500,-19.500
1.999,69.000,-16.000,43.500,-19.000
2.000,69.000,-15.500,44.000,-18.500
2.001,69.500,-14.500,44.500,-18.500
2.002,70.000,-14.500,44.000,-18.500
2.003,70.500,-14.500,43.500,-18.000
2.004,71.500,-14.500,42.500,-18.000
2.005,72.500,-15.000,41.500,-18.000
2.006,73.500,-15.500,40.000,-18.000
2.007,74.500,-15.500,39.000,-17.500
2.008,75.500,-15.500,38.500,-17.000
2.009,76.500,-15.000,38.500,-16.500
2.010,77.500,-14.000,39.500,-16.000
2.011,78.500,-13.500,40.500,-15.500
2.012,79.000,-13.000,42.000,-15.000
2.013,79.500,-13.000,43.500,-15.000
2.014,79.500,-12.500,45.000,-15.000
2.015,79.500,-12.500,46.000,-15.500
2.016,80.000,-12.500,47.000,-15.500
2.017,80.000,-12.000,47.500,-16.000
2.018,80.000,-12.000,48.000,-16.500
2.019,80.000,-11.500,48.000,-17.000
2.020,80.000,-11.500,47.500,-18.000
2.021,80.000,-11.000,47.500,-19.000
2.022,80.500,-11.000,47.500,-19.500
2.023,81.000,-10.500,47.500,-19.500
2.024,81.500,-10.000,48.000,-19.500
2.025,81.500,-10.000,48.500,-19.000
2.026,82.000,-9.500,49.000,-18.000
2.027,82.500,-9.500,50.000,-16.500
2.028,83.000,-9.000,51.000,-15.000
2.029,83.500,-9.000,51.500,-13.000
2.030,83.500,-9.000,52.500,-11.500
2.031,84.000,-8.500,53.500,-10.000
2.032,83.500,-8.500,54.500,-9.000
2.033,83.500,-8.500,55.000,-8.000
2.034,83.000,-8.500,56.000,-8.000
2.035,82.500,-9.000,56.500,-8.500
2.036,82.500,-9.000,57.000,-9.000
2.037,82.000,-9.500,57.000,-10.000
2.038,82.000,-10.000,56.500,-10.500
2.039,82.000,-10.500,55.500,-11.500
2.040,82.000,-11.000,54.500,-12.500
2.041,82.500,-11.000,53.500,-13.000
2.042,82.500,-11.000,53.500,-13.000
2.043,82.500,-10.500,53.500,-13.000
2.044,83.000,-9.500,54.000,-13.000
2.045,83.500,-9.000,55.000,-12.500
2.046,83.500,-9.000,55.500,-12.500
2.047,84.000,-9.000,56.000,-12.500
2.048,84.000,-9.000,56.000,-12.500
2.049,84.500,-9.500,56.000,-12.500
2.050,84.500,-10.000,56.000,-12.500
2.051,85.000,-10.500,55.500,-13.000
2.052,85.000,-10.500,55.000,-13.000
2.053,85.000,-10.500,54.500,-13.500
2.054,85.000,-11.000,54.000,-13.500
2.055,84.500,-11.000,54.000,-14.000
2.056,84.500,-10.500,54.000,-14.000
2.057,84.500,-10.500,54.500,-14.000
2.058,84.500,-10.000,55.000,-13.500
2.059,85.000,-9.500,55.500,-13.500
2.060,85.500,-8.500,56.000,-13.500
2.061,86.000,-8.000,57.000,-13.000
2.062,86.500,-7.000,57.500,-13.500
2.063,87.000,-6.000,58.000,-13.500
2.064,87.000,-5.500,58.500,-14.500
2.065,87.500,-5.000,58.500,-15.000
2.066,87.500,-4.500,59.000,-15.500
2.067,87.500,-4.000,59.500,-16.000
2.068,87.500,-3.500,60.000,-16.500
2.069,87.000,-3.000,60.000,-16.500
2.070,87.000,-3.000,60.000,-16.500
2.071,86.500,-3.500,59.500,-16.500
2.072,86.000,-4.000,59.000,-16.000
2.073,85.500,-5.000,58.000,-16.000
2.074,85.000,-5.500,57.500,-15.500
2.075,84.500,-6.500,57.000,-15.000
2.076,84.500,-7.000,57.500,-14.500
2.077,84.500,-7.000,58.000,-14.000
2.078,84.500,-6.500,59.000,-13.500
2.079,85.000,-6.000,60.500,-13.500
2.080,85.000,-6.000,61.500,-14.000
2.081,85.500,-6.000,62.000,-15.000
2.082,86.000,-7.000,62.000,-15.000
2.083,86.500,-8.000,61.500,-15.000
2.084,87.000,-9.000,60.500,-15.000
2.085,87.500,-10.000,59.500,-14.500
2.086,88.000,-10.000,58.500,-14.000
2.087,88.500,-10.000,58.000,-13.500
2.088,89.000,-9.000,58.000,-12.500
2.089,89.500,-7.500,59.000,-12.000
2.090,90.000,-6.000,60.000,-11.000
2.091,90.000,-5.000,61.000,-10.500
2.092,90.000,-4.000,61.500,-10.500
2.093,90.000,-4.000,61.500,-10.500
2.094,90.000,-4.500,61.000,-11.000
2.095,89.500,-5.000,61.000,-11.500
2.096,89.000,-5.500,60.500,-12.500
2.097,88.500,-6.000,60.500,-13.500
2.098,88.000,-6.000,60.500,-14.000
2.099,87.500,-6.000,60.500,-14.000
2.100,87.500,-6.000,61.000,-14.000
2.101,88.000,-5.500,62.000,-14.000
2.102,88.500,-4.500,63.000,-13.500
2.103,89.500,-4.000,65.000,-13.000
2.104,90.500,-3.000,66.500,-12.000
2.105,92.000,-2.500,67.500,-11.500
2.106,93.000,-2.500,68.000,-11.500
2.107,94.000,-2.500,67.500,-11.500
2.108,95.000,-3.000,66.500,-12.000
2.109,95.500,-4.000,65.000,-12.500
2.110,95.500,-5.000,63.500,-14.000
2.111,95.000,-6.000,61.500,-15.500
2.112,94.500,-6.500,59.500,-17.500
2.113,94.500,-6.500,58.000,-19.000
2.114,94.000,-6.500,57.000,-20.500
2.115,94.000,-6.000,56.000,-21.000
2.116,94.000,-5.500,56.000,-21.000
2.117,94.000,-5.000,56.000,-20.000
2.118,94.000,-5.000,56.500,-19.000
2.119,94.000,-5.000,57.000,-17.500
2.120,94.500,-5.500,57.500,-16.000
2.121,94.500,-6.000,58.500,-14.000
2.122,95.000,-6.000,60.500,-12.000
2.123,95.500,-6.000,62.000,-10.500
2.124,96.500,-5.500,64.000,-9.000
2.125,97.500,-5.000,65.500,-7.500
2.126,98.000,-4.500,66.500,-7.000
2.127,98.500,-3.500,67.500,-7.000
2.128,99.000,-3.000,68.000,-7.000
2.129,99.000,-2.500,69.000,-7.500
2.130,98.500,-2.000,69.500,-8.000
2.131,98.500,-1.500,70.000,-8.500
2.132,98.000,-1.500,70.500,-9.000
2.133,98.000,-1.000,71.000,-9.500
2.134,97.500,-1.500,70.500,-9.500
2.135,97.500,-1.500,70.000,-9.500
2.136,97.000,-2.000,69.000,-9.500
2.137,97.000,-2.500,68.500,-9.500
2.138,97.000,-2.500,68.000,-9.000
2.139,97.000,-2.000,68.000,-9.000
2.140,97.000,-1.500,68.500,-8.500
2.141,97.000,-0.500,69.000,-8.500
2.142,97.000,0.000,70.000,-8.000
2.143,97.500,0.500,70.000,-8.000
2.144,98.000,0.500,70.500,-8.500
2.145,98.500,0.500,70.500,-8.500
2.146,99.000,0.500,70.500,-8.500
2.147,99.000,0.000,70.500,-8.500
2.148,99.000,-0.500,70.000,-8.500
2.149,98.500,-1.500,70.000,-9.000
2.150,98.500,-2.000,69.500,-8.500
2.151,98.500,-2.500,69.500,-8.500
2.152,99.000,-3.000,69.500,-8.000
2.153,99.000,-3.000,69.500,-7.000
2.154,99.500,-3.000,69.500,-6.500
2.155,99.500,-3.000,69.500,-6.000
2.156,99.500,-3.000,69.000,-5.500
2.157,100.000,-2.500,69.000,-5.500
2.158,100.000,-2.000,69.500,-5.000
2.159,100.500,-1.000,69.500,-4.500
2.160,101.000,0.000,70.000,-4.000
2.161,101.500,1.500,70.500,-4.000
2.162,102.000,2.000,70.500,-3.500
2.163,102.500,2.500,70.500,-3.500
2.164,102.500,3.000,70.000,-4.000
2.165,102.500,2.500,69.500,-4.500
2.166,102.500,2.500,69.500,-5.000
2.167,102.500,2.000,69.000,-6.000
2.168,102.500,1.500,69.500,-6.500
2.169,102.500,1.000,70.000,-7.000
2.170,102.000,0.500,70.500,-7.000
2.171,101.500,0.000,71.000,-7.500
2.172,101.000,-0.500,71.000,-7.500
2.173,100.500,-1.000,71.000,-7.500
2.174,100.000,-1.500,70.500,-7.500
2.175,99.500,-2.000,70.500,-7.500
2.176,99.000,-2.500,70.000,-7.000
2.177,99.000,-3.000,69.500,-6.500
2.178,98.500,-3.500,69.000,-6.000
2.179,98.500,-4.000,68.000,-5.500
2.180,98.500,-5.000,68.000,-5.000
2.181,98.500,-5.500,67.500,-4.000
2.182,99.000,-5.500,68.000,-3.000
2.183,99.500,-5.000,69.000,-2.000
2.184,100.500,-4.000,70.000,-0.500
2.185,101.500,-3.000,71.500,1.000
2.186,102.500,-2.000,73.000,2.500
2.187,103.500,-1.500,74.500,4.000
2.188,104.500,-0.500,76.000,6.000
2.189,105.500,1.000,77.500,8.500
2.190,106.500,2.000,79.500,11.500
2.191,107.000,4.000,81.500,14.500
2.192,108.000,5.500,83.500,17.500
2.193,108.500,7.500,85.000,20.000
2.194,109.500,9.500,86.500,21.500
2.195,110.000,10.500,87.500,23.000
2.196,110.500,11.500,88.500,24.500
2.197,111.500,12.000,89.500,25.500
2.198,112.500,12.500,90.000,26.500
2.199,114.000,13.000,90.500,27.500
2.200,115.500,13.500,91.000,28.500
2.201,117.500,13.500,91.000,29.000
2.202,119.000,14.000,91.000,29.500
2.203,121.000,14.500,91.000,29.000
2.204,122.000,15.500,91.000,29.000
2.205,123.500,16.500,91.500,28.000
2.206,124.500,17.000,92.500,27.500
2.207,125.500,18.000,93.500,26.500
2.208,126.000,18.500,94.000,25.500
2.209,126.500,18.500,94.500,25.000
2.210,126.500,18.000,94.500,24.000
2.211,127.000,17.500,94.000,23.000
2.212,126.500,17.000,93.500,22.000
2.213,126.500,16.500,93.000,21.500
2.214,126.500,16.000,92.500,21.000
2.215,126.000,16.000,92.500,20.500
2.216,126.000,16.000,92.000,20.500
2.217,126.000,16.000,91.000,20.500
2.218,126.000,16.500,90.500,20.000
2.219,126.000,16.500,89.000,19.000
2.220,126.500,16.500,87.500,18.000
2.221,127.000,16.000,85.500,17.000
2.222,127.000,15.500,83.500,15.500
2.223,127.500,15.000,82.000,14.500
2.224,127.500,14.000,81.000,13.500
2.225,127.500,14.000,81.000,13.000
2.226,127.000,14.000,81.500,12.500
2.227,126.500,14.000,82.000,13.000
2.228,126.000,14.000,82.500,14.000
2.229,125.500,13.500,83.500,15.000
2.230,125.500,13.500,83.500,17.000
2.231,125.000,12.500,83.500,19.000
2.232,124.500,12.000,83.500,21.000
2.233,124.500,11.500,83.500,23.000
2.234,124.000,10.500,83.000,25.000
2.235,123.500,10.000,83.000,26.000
2.236,123.500,9.500,83.500,26.500
2.237,123.000,9.500,83.500,26.500
2.238,123.000,9.500,83.500,26.500
2.239,123.500,10.000,83.500,25.500
2.240,123.500,10.500,83.500,24.500
2.241,124.500,11.000,83.000,23.500
2.242,125.000,11.500,83.000,22.500
2.243,126.000,12.000,83.000,22.000
2.244,126.500,12.500,83.500,21.500
2.245,127.500,13.000,83.500,21.500
2.246,128.000,13.500,83.000,21.500
2.247,128.500,13.500,83.000,21.500
2.248,128.500,13.500,82.500,22.000
2.249,129.000,13.000,82.500,22.500
2.250,129.000,13.000,82.500,23.000
2.251,129.000,12.500,82.500,23.000
2.252,129.000,12.000,82.500,23.500
2.253,129.000,12.000,83.000,24.000
2.254,129.500,11.500,83.000,24.000
2.255,129.000,11.500,83.500,24.500
2.256,129.000,12.000,84.000,24.500
2.257,129.000,12.000,84.000,24.500
2.258,128.500,12.000,83.500,24.500
2.259,128.500,12.000,83.500,24.500
2.260,128.500,12.500,83.000,24.500
2.261,128.500,13.000,83.000,24.500
2.262,128.500,13.500,83.000,24.500
2.263,129.000,13.500,83.500,24.500
2.264,129.500,14.000,84.000,25.000
2.265,130.000,14.500,84.500,25.500
2.266,131.000,14.500,84.500,25.500
2.267,131.500,14.500,84.500,25.500
2.268,132.000,15.000,85.000,25.500
2.269,133.000,15.000,85.500,25.500
2.270,133.500,15.500,86.000,26.000
2.271,134.000,15.500,86.000,26.000
2.272,134.000,15.500,86.500,26.000
2.273,134.000,15.500,86.500,25.500
2.274,134.000,15.000,86.500,25.500
2.275,133.500,14.500,86.500,25.000
2.276,133.500,14.000,86.500,25.000
2.277,133.500,14.000,86.500,25.000
2.278,133.000,14.000,86.000,24.500
2.279,133.000,14.500,86.000,24.500
2.280,133.000,15.000,86.500,24.500
2.281,133.000,16.000,87.000,25.000
2.282,133.500,16.500,88.000,25.000
2.283,133.500,17.500,88.500,25.000
2.284,134.000,18.000,89.000,25.000
2.285,134.500,18.000,89.500,25.000
2.286,134.500,18.000,89.500,25.000
2.287,135.000,18.000,89.500,25.000
2.288,135.500,17.500,90.000,25.000
2.289,136.000,17.500,90.500,25.000
2.290,136.500,17.500,90.500,25.500
2.291,137.000,17.500,91.000,25.500
2.292,137.500,17.000,90.500,25.500
2.293,137.500,17.000,90.000,24.500
2.294,137.500,17.000,89.500,23.500
2.295,137.000,17.000,89.000,22.500
2.296,137.000,17.500,89.000,22.000
2.297,137.500,18.000,89.000,22.000
2.298,137.500,18.500,88.500,22.000
2.299,138.000,19.000,88.000,22.500
2.300,138.000,19.500,87.500,23.000
2.301,138.500,19.500,87.500,24.000
2.302,139.000,20.000,87.500,24.500
2.303,139.000,20.000,88.000,25.500
2.304,139.500,20.500,89.000,26.500
2.305,140.000,20.500,90.000,27.500
2.306,140.500,21.000,91.000,28.500
2.307,141.000,21.000,92.500,29.000
2.308,141.000,21.000,93.500,30.000
2.309,141.500,21.000,94.000,31.000
2.310,141.500,21.000,95.000,31.500
2.311,141.500,21.000,95.500,32.000
2.312,141.500,21.000,95.500,32.500
2.313,141.000,20.500,96.000,32.500
2.314,140.500,20.500,96.000,33.000
2.315,140.500,20.000,96.500,33.000
2.316,140.000,20.000,96.500,33.500
2.317,139.500,19.500,96.500,33.000
2.318,139.500,19.500,96.000,32.500
2.319,139.500,19.000,95.500,31.500
2.320,140.000,18.500,95.000,30.500
2.321,140.000,18.500,93.500,29.500
2.322,140.000,18.000,92.500,28.000
2.323,140.000,18.000,91.000,27.000
2.324,140.500,18.000,89.500,26.500
2.325,141.000,18.500,88.500,26.500
2.326,141.500,19.000,88.000,27.500
2.327,141.500,20.000,88.000,28.500
2.328,142.000,21.000,89.000,29.500
2.329,142.000,22.000,90.000,31.500
2.330,142.000,22.000,91.500,33.000
2.331,142.000,22.000,92.500,35.000
2.332,141.500,22.000,93.500,36.500
2.333,141.000,22.000,94.500,38.000
2.334,140.500,22.000,95.000,39.000
2.335,140.000,22.500,96.500,39.500
2.336,139.500,23.000,97.500,40.000
2.337,139.000,23.500,98.500,39.500
2.338,138.500,23.500,99.000,39.500
2.339,138.500,23.500,99.000,39.000
2.340,138.500,23.500,98.500,39.000
2.341,139.000,23.000,97.500,39.000
2.342,140.000,22.500,97.000,38.500
2.343,141.000,22.000,96.000,38.500
2.344,142.000,21.000,95.500,38.500
2.345,143.000,20.500,95.000,38.000
2.346,144.000,20.000,94.500,38.000
2.347,144.500,20.000,94.500,37.500
2.348,144.500,20.500,94.500,37.000
2.349,145.000,21.000,95.000,36.500
2.350,145.000,22.000,95.500,36.000
2.351,145.000,23.000,95.500,35.500
2.352,144.500,23.000,95.000,35.000
2.353,144.500,23.500,94.000,34.000
2.354,144.000,23.500,92.500,33.500
2.355,144.000,23.500,92.000,32.500
2.356,143.500,23.500,92.000,32.500
2.357,143.000,24.000,92.000,32.500
2.358,142.500,24.000,92.000,32.500
2.359,142.500,24.000,92.000,33.000
2.360,143.000,24.000,92.000,34.000
2.361,143.500,23.500,92.000,34.500
2.362,144.500,23.500,92.000,35.500
2.363,145.000,23.000,92.500,36.000
2.364,146.000,23.000,92.500,36.000
2.365,146.500,23.000,93.000,35.500
2.366,147.000,23.000,93.000,35.000
2.367,147.500,22.500,92.000,34.500
2.368,148.000,22.000,91.500,34.000
2.369,148.000,21.500,90.500,34.000
2.370,148.000,21.000,90.000,34.500
2.371,148.000,20.500,89.000,35.000
2.372,148.500,20.000,88.500,35.500
2.373,148.500,20.000,88.500,36.500
2.374,148.500,20.000,88.500,37.000
2.375,148.500,20.000,88.500,38.000
2.376,148.500,20.000,89.500,39.000
2.377,148.500,20.000,90.000,40.000
2.378,148.500,20.500,90.500,40.500
2.379,148.500,20.500,91.000,41.000
2.380,149.000,21.000,91.500,41.000
2.381,149.500,21.500,92.000,41.000
2.382,150.000,21.500,92.500,40.500
2.383,150.500,22.000,93.500,40.500
2.384,151.000,22.500,94.000,40.500
2.385,151.500,22.500,94.000,40.500
2.386,152.000,22.500,94.000,40.000
2.387,152.000,22.500,94.000,39.000
2.388,152.000,22.500,93.500,38.500
2.389,152.500,22.000,93.500,38.000
2.390,152.500,22.000,93.000,38.000
2.391,152.500,21.500,92.500,38.000
2.392,152.500,21.000,92.000,38.000
2.393,152.000,20.500,91.500,38.000
2.394,152.000,20.000,91.000,38.000
2.395,152.000,19.500,90.000,38.000
2.396,152.500,19.500,89.500,38.500
2.397,152.500,19.000,89.500,39.500
2.398,152.500,18.500,89.500,40.500
2.399,152.500,18.500,90.000,42.000
2.400,152.500,18.500,90.500,43.500
2.401,152.500,18.500,91.000,44.500
2.402,152.500,18.500,91.500,45.500
2.403,152.500,18.500,92.000,46.000
2.404,152.500,18.500,92.000,46.500
2.405,153.000,18.500,92.000,46.500
2.406,153.000,18.500,92.000,46.500
2.407,153.000,18.500,91.500,46.500
2.408,153.000,18.500,91.500,46.000
2.409,153.000,19.000,91.500,45.500
2.410,152.500,19.000,91.000,45.000
2.411,152.500,19.000,91.000,44.000
2.412,152.500,19.000,90.000,43.000
2.413,152.000,18.500,89.500,42.000
2.414,152.000,17.500,88.500,41.000
2.415,151.500,17.000,87.500,40.000
2.416,151.500,16.000,87.000,39.500
2.417,151.500,15.000,86.500,39.500
2.418,152.000,14.500,86.000,39.000
2.419,152.000,14.000,86.000,39.000
2.420,152.500,14.000,85.500,38.500
2.421,153.000,13.500,85.500,38.500
2.422,154.000,14.000,86.000,39.000
2.423,154.500,14.000,86.000,40.000
2.424,155.000,14.500,86.500,41.000
2.425,155.000,15.000,87.500,43.000
2.426,155.500,15.500,88.000,44.500
2.427,156.000,16.000,88.500,46.500
2.428,156.000,16.500,88.500,48.500
2.429,156.500,16.500,88.500,50.000
2.430,157.000,17.000,88.000,51.500
2.431,157.000,17.000,88.000,52.500
2.432,157.000,17.000,88.500,53.500
2.433,156.500,17.000,89.000,54.000
2.434,156.000,16.500,90.000,54.500
2.435,155.500,16.000,90.500,54.000
2.436,155.500,15.500,91.000,54.000
2.437,155.000,15.000,91.000,53.500
2.438,155.000,14.000,91.000,53.000
2.439,155.000,13.500,90.000,53.000
2.440,155.000,13.500,89.500,52.500
2.441,155.500,13.000,88.500,52.500
2.442,155.500,13.500,87.500,52.500
2.443,156.000,14.000,87.000,52.500
2.444,157.000,14.500,87.500,52.500
2.445,157.500,15.500,87.500,52.500
2.446,158.500,16.000,88.000,52.500
2.447,159.000,16.000,88.500,52.500
2.448,159.500,16.000,88.500,53.000
2.449,159.500,15.500,88.500,53.500
2.450,159.500,14.500,88.500,54.000
2.451,159.500,14.500,88.000,54.000
2.452,159.500,14.000,88.000,54.000
2.453,159.000,14.500,87.500,54.000
2.454,159.000,15.000,87.500,53.500
2.455,158.500,15.500,87.500,53.500
2.456,158.500,16.000,87.500,53.000
2.457,158.500,17.000,88.000,53.500
2.458,159.000,17.500,88.500,53.500
2.459,159.500,18.000,89.000,54.000
2.460,160.500,19.000,90.000,54.500
2.461,161.500,19.500,90.500,55.000
2.462,162.500,19.500,91.500,56.000
2.463,163.000,19.500,92.000,56.000
2.464,163.000,18.500,92.500,56.500
2.465,163.500,17.500,92.000,56.000
2.466,163.500,16.000,91.500,56.000
2.467,164.000,14.500,90.000,55.500
2.468,164.500,13.000,89.000,54.500
2.469,164.500,11.500,87.500,54.000
2.470,165.000,11.000,86.500,53.000
2.471,165.000,11.000,86.000,52.500
2.472,165.500,11.500,86.000,52.000
2.473,166.500,12.000,86.000,51.500
2.474,167.000,13.000,86.000,51.500
2.475,167.500,14.000,86.000,51.500
2.476,167.500,15.000,86.000,51.500
2.477,168.000,15.500,86.000,52.000
2.478,168.000,16.000,86.500,52.500
2.479,168.500,16.500,87.000,53.000
2.480,168.500,16.500,87.500,53.500
2.481,169.000,16.500,88.000,54.000
2.482,169.500,17.000,88.500,54.000
2.483,170.000,17.500,89.000,53.500
2.484,170.500,17.500,89.500,53.000
2.485,171.000,18.000,89.500,52.000
2.486,171.500,18.000,90.000,50.500
2.487,171.500,18.500,89.500,49.500
2.488,171.500,18.500,89.500,48.500
2.489,171.500,18.000,89.000,48.500
2.490,172.000,18.000,88.500,49.000
2.491,172.000,17.500,88.000,50.000
2.492,172.000,17.000,88.000,51.000
2.493,171.500,17.000,88.000,52.000
2.494,171.500,16.500,88.000,53.000
2.495,171.000,16.000,88.000,54.000
2.496,171.000,16.000,88.500,54.500
2.497,170.500,16.000,89.000,55.000
2.498,170.500,16.000,89.500,55.500
2.499,170.500,16.000,90.000,55.500
2.500,171.000,16.500,91.000,56.000
2.501,171.000,16.500,91.500,56.000
2.502,171.500,17.000,92.000,55.500
2.503,172.500,17.500,92.500,55.500
2.504,173.000,17.500,92.500,55.500
2.505,174.000,18.000,93.000,55.500
2.506,174.500,18.000,93.500,56.000
2.507,175.000,17.500,93.500,56.500
2.508,175.000,17.500,93.000,57.000
2.509,175.500,17.000,93.000,57.000
2.510,175.000,16.000,92.000,56.500
2.511,175.000,15.000,91.500,56.000
2.512,175.000,14.500,90.500,55.000
2.513,174.500,14.000,89.500,54.500
2.514,174.000,13.500,89.000,54.000
2.515,173.000,13.000,88.000,53.500
2.516,172.500,13.000,88.000,53.500
2.517,172.000,12.500,87.500,53.500
2.518,172.000,12.500,87.500,53.500
2.519,171.500,12.500,88.000,54.000
2.520,172.000,13.000,88.500,54.000
2.521,172.000,13.500,89.000,54.500
2.522,172.500,14.500,90.000,55.000
2.523,173.000,15.500,91.000,55.500
2.524,174.000,16.000,92.000,55.500
2.525,175.000,16.500,92.500,55.500
2.526,175.500,16.500,92.500,55.500
2.527,176.500,16.500,92.000,54.500
2.528,177.500,16.000,91.000,54.000
2.529,178.000,16.000,90.000,53.000
2.530,178.000,15.500,89.000,52.500
2.531,178.000,15.500,88.500,52.000
2.532,177.500,15.000,88.500,52.000
2.533,177.000,15.000,88.000,52.500
2.534,176.500,15.000,88.500,53.500
2.535,176.000,14.500,88.500,54.500
2.536,175.500,14.500,88.500,55.500
2.537,175.000,14.000,88.000,57.000
2.538,174.500,14.000,87.500,58.500
2.539,174.000,14.000,87.500,60.000
2.540,174.000,14.000,87.000,62.000
2.541,174.000,14.000,87.000,63.000
2.542,174.500,14.500,87.000,64.500
2.543,175.000,15.000,87.500,65.000
2.544,176.000,15.500,88.500,65.500
2.545,177.000,16.500,90.000,66.000
2.546,178.000,17.000,91.000,66.500
2.547,179.000,17.500,92.000,66.500
2.548,180.000,17.500,92.500,66.500
2.549,181.000,17.500,92.500,66.500
2.550,182.000,18.000,92.500,66.500
2.551,182.500,18.500,92.500,66.500
2.552,183.000,19.000,92.500,66.000
2.553,182.500,19.000,92.000,65.500
2.554,182.000,18.500,91.500,65.000
2.555,181.500,18.000,91.000,65.000
2.556,180.500,17.500,90.500,65.000
2.557,180.000,16.500,90.000,65.500
2.558,179.500,16.000,89.500,65.500
2.559,179.000,16.000,89.500,66.000
2.560,179.000,16.000,90.000,66.500
2.561,178.500,16.500,91.000,67.000
2.562,178.500,16.500,91.500,67.000
2.563,179.000,17.000,92.500,67.500
2.564,179.500,17.500,93.000,68.000
2.565,180.000,18.000,94.000,68.000
2.566,180.500,18.500,94.000,68.000
2.567,181.000,18.500,94.000,68.000
2.568,181.000,18.500,94.000,68.000
2.569,181.500,18.500,93.500,68.000
2.570,181.500,18.000,93.000,68.000
2.571,182.000,17.000,92.500,68.000
2.572,182.000,16.000,91.500,68.000
2.573,181.500,15.000,91.000,68.000
2.574,181.500,14.500,90.500,68.000
2.575,181.500,14.500,90.500,68.500
2.576,181.500,14.500,91.500,68.500
2.577,182.000,15.000,92.500,69.000
2.578,182.000,15.500,93.500,69.500
2.579,182.500,16.000,94.500,69.500
2.580,183.000,17.000,95.500,69.500
2.581,183.500,17.500,96.500,69.500
2.582,184.500,18.000,97.500,69.500
2.583,185.500,18.500,98.500,69.500
2.584,186.500,19.500,100.000,69.500
2.585,187.500,20.000,101.000,69.500
2.586,189.000,21.000,102.000,69.500
2.587,190.000,21.500,102.500,69.500
2.588,191.000,21.500,102.000,69.500
2.589,192.000,21.000,101.000,70.000
2.590,193.000,20.000,99.500,70.000
2.591,193.500,19.000,97.500,70.500
2.592,193.500,18.000,95.000,70.500
2.593,193.000,17.000,93.500,70.500
2.594,192.500,16.000,92.000,71.000
2.595,192.000,15.500,91.500,71.500
2.596,191.500,14.500,91.500,72.000
2.597,191.500,14.000,92.000,73.000
2.598,191.500,14.000,93.000,74.000
2.599,192.000,14.000,93.500,75.000
2.600,192.500,14.000,94.500,76.000
2.601,193.000,15.000,95.000,77.000
2.602,194.000,16.000,96.000,78.000
2.603,195.000,17.000,97.000,79.000
2.604,195.500,18.500,98.000,80.000
2.605,196.500,19.500,99.000,80.000
2.606,197.500,20.500,99.500,80.500
2.607,198.000,21.000,100.000,80.500
2.608,199.000,21.500,100.500,80.500
2.609,199.500,21.500,101.000,80.500
2.610,199.500,21.500,101.000,80.500
2.611,199.500,21.500,101.000,80.000
2.612,199.500,21.500,101.000,80.000
2.613,199.500,21.000,101.000,79.500
2.614,199.500,20.500,100.500,79.000
2.615,199.000,20.500,100.500,78.500
2.616,199.000,20.000,100.000,78.000
2.617,198.500,19.500,100.000,77.000
2.618,198.500,19.500,99.500,76.500
2.619,198.000,19.500,99.500,75.500
2.620,198.500,19.500,99.000,74.500
2.621,198.500,20.000,99.000,74.500
2.622,199.000,20.000,98.500,74.500
2.623,199.500,20.000,98.500,74.500
2.624,200.500,20.500,98.000,74.500
2.625,201.000,20.500,97.500,74.500
2.626,201.000,21.000,97.000,74.500
2.627,201.500,21.000,96.500,74.000
2.628,201.500,21.000,96.000,73.000
2.629,201.500,21.000,96.000,73.000
2.630,201.500,21.000,96.000,73.000
2.631,201.500,20.500,96.500,73.000
2.632,201.000,20.500,96.500,73.500
2.633,201.000,20.500,97.000,74.500
2.634,200.500,20.000,97.500,75.500
2.635,200.000,20.000,98.000,76.500
2.636,200.000,20.500,98.500,78.000
2.637,200.000,21.000,99.000,79.500
2.638,200.000,21.500,99.500,81.000
2.639,200.500,22.500,100.000,82.500
2.640,201.000,23.000,100.000,83.500
2.641,201.500,22.500,99.000,83.500
2.642,202.000,22.000,97.500,84.000
2.643,202.000,21.000,96.500,84.000
2.644,202.500,20.500,95.500,84.000
2.645,202.500,19.500,95.000,84.500
2.646,203.000,19.000,95.000,84.500
2.647,203.000,18.500,95.000,85.000
2.648,203.500,18.000,95.500,85.000
2.649,203.500,18.000,96.500,85.000
2.650,203.500,18.500,97.500,85.500
2.651,203.500,19.000,98.500,86.000
2.652,203.000,19.500,98.500,86.000
2.653,203.000,20.000,99.000,86.500
2.654,202.500,19.500,98.500,86.500
2.655,202.000,19.500,98.500,86.000
2.656,202.000,19.000,98.000,86.000
2.657,202.000,18.500,98.000,86.000
2.658,202.000,18.000,98.000,86.000
2.659,202.000,17.500,98.000,86.000
2.660,203.000,17.500,98.000,86.500
2.661,203.500,17.000,97.500,86.500
2.662,204.500,17.000,97.500,87.000
2.663,205.500,17.000,97.000,87.500
2.664,206.500,17.500,97.000,87.500
2.665,207.500,18.000,97.000,88.500
2.666,208.500,19.000,97.500,88.500
2.667,209.500,20.000,97.500,89.000
2.668,210.500,21.000,98.000,89.500
2.669,211.000,21.500,98.500,89.500
2.670,211.500,22.500,99.000,89.500
2.671,211.500,23.000,99.500,89.000
2.672,211.500,23.000,100.000,89.000
2.673,211.500,23.000,100.000,89.000
2.674,211.500,23.000,99.500,89.000
2.675,211.000,22.500,99.500,89.000
2.676,211.000,22.000,99.500,89.000
2.677,210.500,21.500,99.000,89.000
2.678,210.500,21.000,98.500,88.500
2.679,210.500,20.500,98.000,87.500
2.680,211.000,19.500,97.000,86.000
2.681,211.000,19.000,96.000,84.500
2.682,211.000,19.000,95.500,83.000
2.683,211.000,19.000,94.500,81.500
2.684,211.000,19.000,94.500,81.000
2.685,211.000,19.000,94.500,81.000
2.686,211.000,19.500,95.000,81.500
2.687,211.000,19.500,95.000,82.500
2.688,211.000,20.000,96.000,83.500
2.689,211.000,20.500,96.500,85.000
2.690,211.000,20.500,97.500,86.500
2.691,211.000,20.000,97.500,88.000
2.692,211.000,18.500,97.000,89.000
2.693,210.500,17.000,96.000,90.000
2.694,209.500,15.500,94.500,91.000
2.695,209.000,13.500,93.000,91.500
2.696,208.000,12.500,92.000,92.500
2.697,208.000,11.500,91.000,93.000
2.698,207.500,11.500,90.500,94.500
2.699,207.500,12.500,91.000,96.500
2.700,208.000,14.000,92.000,99.000
2.701,208.500,16.000,93.500,101.500
2.702,209.500,18.500,96.000,104.500
2.703,210.000,21.000,98.500,107.500
2.704,211.500,23.000,101.500,110.500
2.705,212.500,25.500,104.500,113.500
2.706,214.000,27.500,107.500,116.000
2.707,215.000,29.000,110.000,118.000
2.708,216.000,30.000,111.500,119.000
2.709,217.000,31.000,113.000,119.500
2.710,218.000,32.000,113.500,120.000
2.711,218.500,32.500,114.000,120.500
2.712,219.500,33.500,114.000,120.500
2.713,220.000,34.500,114.000,120.500
2.714,220.500,35.000,113.000,120.000
2.715,221.000,36.000,112.000,118.500
2.716,221.000,36.000,111.000,117.500
2.717,221.000,36.500,110.000,116.500
2.718,221.500,37.000,109.000,115.500
2.719,221.500,37.500,108.500,115.000
2.720,222.000,38.000,109.000,115.000
2.721,223.000,38.500,109.500,115.500
2.722,224.000,39.000,110.500,116.500
2.723,225.000,39.500,111.500,117.500
2.724,226.000,39.000,112.500,118.500
2.725,227.000,38.500,113.000,120.000
2.726,227.500,37.000,113.000,121.000
2.727,228.000,35.500,113.000,121.500
2.728,228.500,34.000,113.000,121.500
2.729,228.500,33.500,112.500,121.000
2.730,228.500,33.000,112.000,119.500
2.731,228.500,33.000,110.500,117.000
2.732,228.500,33.500,109.000,115.000
2.733,228.000,33.500,107.000,112.500
2.734,227.000,34.000,104.500,110.000
2.735,226.500,33.500,102.500,109.000
2.736,225.500,33.500,100.500,108.000
2.737,225.000,33.000,99.000,108.000
2.738,224.000,32.500,98.000,108.500
2.739,223.500,32.000,97.500,109.000
2.740,223.000,32.000,97.500,109.500
2.741,222.500,32.000,98.000,110.000
2.742,222.500,32.500,99.500,111.000
2.743,223.000,33.000,101.000,111.500
2.744,223.000,33.500,102.500,112.000
2.745,223.500,33.500,103.500,112.000
2.746,224.000,34.000,104.500,112.000
2.747,224.000,34.000,105.000,112.000
2.748,224.000,34.500,105.000,112.000
2.749,224.000,34.500,105.000,111.500
2.750,224.000,34.500,105.500,111.000
2.751,224.000,34.500,105.000,111.000
2.752,224.000,34.500,105.000,111.000
2.753,223.500,34.000,104.500,111.000
2.754,223.500,33.500,104.000,111.000
2.755,223.500,33.000,103.500,111.000
2.756,223.500,32.500,103.500,111.500
2.757,223.500,32.500,103.500,112.000
2.758,223.500,32.500,103.500,112.000
2.759,224.000,32.500,104.000,112.500
2.760,224.000,33.000,104.500,112.500
2.761,224.500,33.500,105.500,112.500
2.762,225.000,34.000,106.000,112.500
2.763,225.000,34.500,106.500,112.500
2.764,225.500,34.500,107.000,112.500
2.765,226.000,35.000,106.500,112.000
2.766,226.000,35.000,106.500,111.500
2.767,226.500,35.500,106.500,110.500
2.768,226.500,36.000,106.500,110.000
2.769,226.000,36.500,106.500,109.000
2.770,225.500,36.500,107.000,108.500
2.771,225.000,36.500,106.500,107.500
2.772,224.500,36.000,106.500,106.500
2.773,224.000,35.000,106.500,105.000
2.774,223.500,34.500,107.000,104.500
2.775,223.000,34.000,107.000,104.000
2.776,223.000,34.000,107.000,104.000
2.777,223.000,33.500,106.500,104.500
2.778,223.000,33.000,105.500,105.500
2.779,223.000,32.500,104.000,106.500
2.780,223.000,32.500,102.500,107.500
2.781,223.500,33.500,102.000,109.000
2.782,224.000,34.500,102.000,110.500
2.783,225.000,36.000,103.000,112.000
2.784,225.500,37.500,104.000,113.500
2.785,226.000,38.500,105.000,115.000
2.786,226.000,39.500,105.500,116.000
2.787,226.500,39.500,106.000,116.500
2.788,226.500,39.500,106.000,117.000
2.789,226.000,39.500,106.500,117.500
2.790,226.000,39.500,106.500,117.000
2.791,226.000,39.500,106.500,117.000
2.792,225.500,39.500,106.500,116.500
2.793,225.000,40.000,106.500,116.000
2.794,224.500,40.000,106.500,115.500
2.795,223.500,40.000,107.000,115.000
2.796,223.000,40.500,107.500,115.000
2.797,222.500,41.000,108.000,115.500
2.798,222.000,41.500,109.000,116.000
2.799,222.500,42.000,110.000,116.500
2.800,223.000,43.000,111.000,117.500
2.801,223.500,43.500,112.000,118.000
2.802,224.500,44.000,112.500,119.000
2.803,225.000,44.000,113.000,119.500
2.804,226.000,44.500,113.500,120.000
2.805,226.500,44.500,113.500,120.500
2.806,227.500,44.500,113.000,120.500
2.807,228.500,44.500,112.500,120.500
2.808,229.000,44.500,111.500,119.500
2.809,229.000,44.000,110.500,119.000
2.810,229.500,44.000,110.000,118.500
2.811,230.000,44.000,109.000,118.000
2.812,230.500,44.000,109.000,117.500
2.813,230.500,44.500,108.500,117.000
2.814,231.000,44.500,107.500,116.500
2.815,231.000,44.000,107.000,115.500
2.816,231.000,44.000,106.500,115.000
2.817,231.000,43.500,106.000,114.500
2.818,230.500,43.000,106.000,114.500
2.819,230.500,42.500,105.500,115.000
2.820,230.000,42.500,106.000,115.500
2.821,230.000,42.000,106.500,117.000
2.822,230.000,42.500,107.000,118.500
2.823,230.500,43.000,108.000,120.500
2.824,230.500,43.500,109.500,122.000
2.825,231.000,44.500,111.500,124.000
2.826,231.000,45.500,113.500,125.500
2.827,231.000,46.000,115.500,127.000
2.828,231.000,47.000,117.000,127.500
2.829,231.000,47.000,118.500,127.500
2.830,230.500,47.500,119.000,127.000
2.831,230.500,47.000,119.500,126.000
2.832,230.500,47.000,119.500,125.500
2.833,230.000,46.000,118.500,124.500
2.834,230.000,45.500,117.500,124.000
2.835,229.500,45.000,116.500,123.500
2.836,229.500,44.500,115.500,123.500
2.837,229.000,44.000,114.000,123.500
2.838,229.000,44.000,113.000,123.500
2.839,229.000,44.000,111.500,123.500
2.840,229.000,44.500,110.000,123.500
2.841,229.000,44.500,109.000,124.000
2.842,229.500,44.500,108.500,125.000
2.843,229.500,45.000,109.000,126.000
2.844,230.000,45.000,110.000,126.500
2.845,230.000,45.500,111.500,127.500
2.846,230.000,46.500,113.500,128.000
2.847,230.000,47.000,115.000,128.000
2.848,230.000,47.500,116.500,128.000
2.849,229.500,48.000,117.500,127.500
2.850,229.000,48.000,117.500,127.000
2.851,229.000,47.500,117.500,126.500
2.852,228.500,46.500,116.500,126.000
2.853,228.500,46.000,116.000,125.000
2.854,229.000,45.000,115.000,124.000
2.855,229.000,44.500,114.000,123.500
2.856,229.500,44.500,113.500,123.000
2.857,229.500,45.000,113.000,123.000
2.858,230.000,45.500,113.000,123.000
2.859,230.000,46.000,112.500,123.500
2.860,230.500,46.000,112.500,124.500
2.861,231.000,45.500,112.500,125.000
2.862,231.500,45.500,112.500,126.000
2.863,232.000,45.500,113.000,126.500
2.864,232.500,45.500,113.500,127.000
2.865,233.000,45.500,114.000,127.500
2.866,233.500,46.000,115.000,127.500
2.867,234.000,46.500,115.500,127.500
2.868,234.000,47.000,115.500,127.500
2.869,234.500,47.000,115.500,127.000
2.870,234.500,47.000,115.000,126.500
2.871,234.000,47.000,114.500,126.000
2.872,234.000,47.000,115.000,126.500
2.873,233.500,46.500,115.000,127.000
2.874,233.000,46.500,115.500,128.000
2.875,232.500,46.500,116.000,129.000
2.876,232.500,46.000,116.000,130.000
2.877,232.000,46.000,116.000,131.000
2.878,232.000,46.000,116.500,131.500
2.879,232.000,46.500,116.500,132.000
2.880,232.000,47.000,117.000,132.500
2.881,232.500,48.000,117.500,133.500
2.882,232.500,49.000,118.500,134.500
2.883,232.500,49.500,119.500,135.500
2.884,233.000,50.000,120.500,136.500
2.885,233.000,50.000,121.500,138.000
2.886,233.500,50.000,122.000,139.000
2.887,234.000,50.000,122.500,140.000
2.888,234.000,50.000,123.000,141.000
2.889,234.000,50.000,123.500,141.000
2.890,234.000,50.000,123.500,141.500
2.891,234.000,50.000,124.000,141.000
2.892,234.000,50.500,124.500,141.000
2.893,233.500,50.500,125.000,140.500
2.894,233.500,50.000,125.000,140.000
2.895,233.000,49.500,125.500,139.500
2.896,232.500,49.000,125.000,139.000
2.897,232.000,48.000,124.500,138.000
2.898,232.000,47.500,123.500,137.500
2.899,232.500,47.000,123.000,137.000
2.900,233.000,47.000,123.000,137.000
2.901,234.000,47.500,123.000,137.000
2.902,235.000,48.000,124.000,137.500
2.903,236.500,49.000,124.500,138.000
2.904,237.500,50.000,125.500,138.500
2.905,238.500,51.500,126.500,139.000
2.906,239.500,52.500,128.000,139.500
2.907,240.000,54.000,129.500,140.000
2.908,240.500,55.000,131.000,140.500
2.909,240.500,55.500,132.500,141.000
2.910,240.500,56.000,133.000,141.000
2.911,240.500,56.000,133.500,140.500
2.912,240.000,56.000,134.000,140.500
2.913,239.500,55.500,133.000,139.500
2.914,239.000,55.500,132.000,138.000
2.915,238.500,54.500,130.500,137.000
2.916,238.000,54.000,129.000,135.500
2.917,237.500,53.000,127.500,135.000
2.918,237.000,52.500,126.500,134.500
2.919,236.500,52.000,125.500,134.500
2.920,236.000,51.500,125.500,135.000
2.921,235.500,52.000,126.000,136.000
2.922,235.000,52.500,126.500,137.500
2.923,235.000,53.000,127.500,139.500
2.924,235.000,53.500,128.500,142.000
2.925,235.500,54.000,129.500,144.500
2.926,235.500,54.500,131.000,146.500
2.927,235.500,54.500,132.500,148.500
2.928,235.500,55.000,134.000,150.000
2.929,235.500,55.000,135.000,150.500
2.930,235.500,54.500,135.500,150.000
2.931,235.000,54.500,135.500,149.500
2.932,235.000,54.000,135.000,149.000
2.933,234.500,53.500,134.000,148.000
2.934,234.000,53.000,133.000,147.500
2.935,234.000,52.500,131.500,147.000
2.936,233.500,51.500,130.000,146.500
2.937,233.500,51.000,128.500,146.500
2.938,233.500,50.500,127.500,146.500
2.939,233.500,50.000,127.000,147.000
2.940,234.500,50.500,126.500,147.000
2.941,235.000,50.500,127.000,147.500
2.942,236.000,51.000,127.500,148.000
2.943,236.500,51.500,129.000,148.500
2.944,237.500,52.000,130.500,149.000
2.945,238.000,53.000,132.000,149.500
2.946,238.500,53.500,133.500,149.500
2.947,239.000,54.500,134.500,150.000
2.948,239.500,55.000,135.500,150.000
2.949,240.000,55.500,136.000,150.000
2.950,240.000,55.500,135.500,150.000
2.951,240.000,55.500,135.000,150.000
2.952,239.500,55.000,134.000,149.500
2.953,239.500,54.500,133.000,148.500
2.954,239.000,54.000,132.000,148.000
2.955,238.500,53.500,131.500,147.500
2.956,238.000,53.000,131.000,147.000
2.957,238.000,53.000,130.500,146.500
2.958,238.000,52.500,130.500,146.000
2.959,238.000,51.500,130.000,145.000
2.960,238.000,51.500,130.000,144.500
2.961,238.000,51.000,130.000,144.500
2.962,238.500,51.000,130.500,145.000
2.963,238.500,51.500,131.000,146.000
2.964,239.000,51.500,132.000,147.000
2.965,239.500,52.000,132.500,148.500
2.966,239.500,52.500,133.000,149.500
2.967,240.000,52.500,133.500,151.000
2.968,240.000,52.500,133.000,152.000
2.969,240.000,52.000,133.000,152.500
2.970,240.000,51.500,132.500,153.000
2.971,240.000,50.500,132.000,153.000
2.972,240.000,50.000,131.500,153.000
2.973,240.500,50.000,131.000,152.500
2.974,240.500,50.000,131.000,152.000
2.975,241.000,50.500,131.500,151.500
2.976,241.500,51.500,132.500,151.500
2.977,241.500,52.000,133.000,151.500
2.978,242.000,52.500,134.000,151.500
2.979,242.000,53.000,135.000,152.000
2.980,242.500,53.000,135.500,152.000
2.981,243.000,53.500,135.500,152.000
2.982,243.500,53.500,135.500,151.500
2.983,244.000,54.000,135.500,151.000
2.984,245.000,55.000,135.500,150.500
2.985,246.000,56.000,135.500,150.000
2.986,246.500,57.500,136.000,150.000
2.987,247.000,58.000,136.000,150.000
2.988,247.000,58.500,136.500,151.000
2.989,247.000,58.500,136.500,152.000
2.990,247.000,58.000,136.500,153.000
2.991,246.500,57.500,136.500,154.000
2.992,246.000,57.000,137.000,155.000
2.993,245.500,56.500,137.000,155.500
2.994,244.500,56.000,137.500,156.000
2.995,244.000,55.500,137.500,156.500
2.996,244.000,55.000,137.500,157.000
2.997,244.000,55.000,137.000,157.500
2.998,244.500,55.000,137.000,157.500
2.999,244.500,54.500,137.000,157.500
3.000,245.000,54.500,137.000,157.000
3.001,245.500,54.500,137.000,156.000
3.002,245.500,54.000,136.500,155.000
3.003,246.000,54.000,136.000,153.000
3.004,246.000,53.500,136.000,151.000
3.005,246.000,53.500,135.000,149.500
3.006,246.500,53.500,135.000,148.500
3.007,246.500,53.500,134.500,148.000
3.008,246.500,53.500,134.500,148.000
3.009,246.000,54.000,135.000,148.500
3.010,245.500,54.500,136.000,149.500
3.011,245.000,55.000,137.000,150.500
3.012,244.500,55.000,138.500,152.000
3.013,243.500,55.500,139.500,153.500
3.014,242.500,55.500,141.000,155.000
3.015,242.000,55.500,142.000,156.000
3.016,241.500,55.500,142.500,156.500
3.017,241.500,55.000,143.000,156.500
3.018,241.500,54.500,143.000,156.500
3.019,241.500,54.000,142.500,156.000
3.020,241.500,53.000,142.000,155.500
3.021,242.000,52.000,141.000,155.500
3.022,242.500,51.000,140.500,155.500
3.023,243.500,50.000,139.500,156.000
3.024,244.500,49.000,139.000,156.500
3.025,245.000,48.500,138.000,157.000
3.026,245.500,48.000,137.000,157.000
3.027,245.500,48.000,136.000,157.500
3.028,245.500,48.500,135.500,158.000
3.029,245.500,49.500,135.500,158.500
3.030,245.500,50.500,135.500,159.000
3.031,245.500,51.000,135.500,159.000
3.032,244.500,52.000,136.000,159.000
3.033,244.000,52.000,136.500,159.000
3.034,243.500,52.000,137.000,159.000
3.035,242.500,52.000,137.000,158.500
3.036,241.500,51.500,137.000,158.000
3.037,241.000,51.500,137.000,157.500
3.038,240.500,51.000,137.000,157.500
3.039,240.000,51.000,136.500,157.000
3.040,240.000,50.500,136.000,157.000
3.041,240.000,50.000,135.500,156.500
3.042,240.500,49.500,135.500,156.500
3.043,241.000,49.500,135.000,156.000
3.044,241.500,49.000,135.000,155.500
3.045,241.500,49.500,134.500,155.000
3.046,242.000,50.000,134.500,155.000
3.047,242.500,51.000,135.000,155.000
3.048,243.000,52.000,135.500,156.000
3.049,243.500,52.500,135.500,156.500
3.050,243.500,53.000,136.000,157.500
3.051,243.500,53.000,136.000,159.000
3.052,243.000,53.000,136.000,160.000
3.053,242.500,52.500,136.000,160.500
3.054,242.000,52.000,136.000,161.500
3.055,241.500,51.500,136.000,162.000
3.056,240.500,50.500,136.000,162.500
3.057,240.000,50.000,136.000,162.500
3.058,239.500,49.500,136.000,162.000
3.059,239.500,49.500,136.000,161.500
3.060,239.500,49.500,136.000,160.500
3.061,240.500,50.000,136.000,160.000
3.062,241.000,50.000,136.000,159.000
3.063,242.000,50.500,136.500,158.500
3.064,242.500,50.500,136.000,158.500
3.065,243.500,50.500,136.000,158.000
3.066,244.000,50.500,136.000,158.000
3.067,244.500,51.000,136.000,158.000
3.068,244.500,51.000,136.000,158.500
3.069,244.500,51.000,136.000,158.500
3.070,244.500,51.000,136.000,159.000
3.071,244.000,51.000,136.000,158.500
3.072,243.500,51.000,136.000,158.500
3.073,242.500,50.500,135.500,158.000
3.074,242.000,50.000,135.000,157.500
3.075,241.500,49.500,134.500,157.000
3.076,240.500,49.000,134.000,156.500
3.077,240.000,49.000,134.000,156.500
3.078,239.500,49.500,134.000,156.000
3.079,239.000,49.500,134.500,155.500
3.080,239.000,50.000,135.000,155.500
3.081,239.000,50.000,135.000,156.000
3.082,239.000,49.500,135.500,156.000
3.083,239.500,49.000,136.000,156.500
3.084,240.000,49.000,136.500,157.000
3.085,241.000,48.500,137.000,157.000
3.086,242.000,48.500,137.000,157.500
3.087,242.500,48.500,137.000,157.500
3.088,243.000,48.500,137.000,157.500
3.089,243.000,48.500,136.500,157.500
3.090,242.500,48.000,136.000,157.500
3.091,242.000,48.000,135.000,157.500
3.092,241.500,47.000,134.000,157.500
3.093,240.500,46.500,133.000,157.500
3.094,240.000,46.000,131.500,157.000
3.095,239.500,45.500,130.500,156.500
3.096,239.000,45.000,129.500,156.000
3.097,238.500,44.500,128.500,155.500
3.098,238.500,44.000,128.500,155.000
3.099,238.500,44.000,128.500,154.500
3.100,238.500,44.000,129.000,154.000
3.101,239.000,44.000,129.500,154.000
3.102,239.500,45.000,130.500,154.000
3.103,239.500,45.500,131.000,154.000
3.104,240.500,46.500,131.500,153.500
3.105,240.500,47.000,131.000,152.500
3.106,241.000,47.500,130.500,151.000
3.107,241.500,47.500,130.000,149.500
3.108,241.500,47.500,129.500,148.500
3.109,242.000,47.500,129.500,147.500
3.110,242.000,47.500,130.000,147.500
3.111,242.000,47.500,130.500,147.500
3.112,241.500,47.500,131.500,148.000
