'Elapsed time','AECG1','AECG2','AECG3','AECG4'
'seconds','uV','uV','uV','uV'
0.000,42.500,57.500,37.500,10.500
0.001,42.500,57.500,38.000,10.500
0.002,42.500,57.500,38.500,11.000
0.003,42.500,57.500,38.500,11.000
0.004,42.500,57.500,39.000,11.000
0.005,42.500,57.000,38.500,11.000
0.006,42.000,56.500,38.500,11.000
0.007,42.500,56.000,38.500,10.500
0.008,42.500,55.500,38.500,10.500
0.009,42.500,55.500,38.500,10.500
0.010,42.500,55.500,38.500,10.000
0.011,42.500,55.500,38.500,10.000
0.012,42.500,55.500,39.000,10.000
0.013,42.500,55.500,39.000,10.000
0.014,43.000,55.500,39.500,10.500
0.015,43.000,55.500,40.000,10.500
0.016,43.000,55.500,40.500,10.500
0.017,43.500,55.500,41.000,11.000
0.018,43.500,56.000,41.500,11.000
0.019,43.500,56.000,42.000,11.500
0.020,43.500,56.500,42.500,11.500
0.021,43.500,56.500,43.000,12.000
0.022,43.500,56.500,43.500,12.000
0.023,43.500,56.500,43.500,12.500
0.024,43.500,56.000,43.500,12.500
0.025,43.500,56.000,43.500,12.500
0.026,43.500,55.500,43.500,12.500
0.027,43.000,55.500,43.500,12.500
0.028,43.000,55.500,43.500,12.500
0.029,43.000,55.500,44.000,12.500
0.030,42.500,55.000,44.000,12.500
0.031,42.500,55.000,44.000,12.500
0.032,42.500,55.000,44.000,12.500
0.033,43.000,55.000,44.500,12.500
0.034,43.000,55.000,44.500,12.500
0.035,43.000,54.500,44.500,12.500
0.036,43.000,55.000,45.000,12.500
0.037,43.500,55.000,45.500,13.000
0.038,43.500,55.000,46.500,13.000
0.039,43.500,55.500,47.000,13.500
0.040,43.500,55.500,47.500,13.500
0.041,43.500,55.500,47.500,14.000
0.042,43.500,55.500,48.000,14.500
0.043,43.500,55.500,48.000,15.000
0.044,43.500,55.500,48.500,15.000
0.045,44.000,55.500,48.500,15.500
0.046,44.000,55.000,49.000,15.500
0.047,44.000,55.000,49.000,15.500
0.048,44.000,55.000,49.000,15.500
0.049,44.000,55.000,49.500,15.500
0.050,44.000,55.000,49.500,15.500
0.051,44.000,55.000,49.500,15.500
0.052,44.000,54.500,49.500,15.500
0.053,44.500,54.500,50.000,16.000
0.054,44.500,54.500,50.000,16.000
0.055,45.000,54.500,50.500,16.000
0.056,45.000,54.500,51.000,16.500
0.057,45.500,54.500,51.500,17.000
0.058,45.500,55.000,52.000,17.500
0.059,46.000,55.000,53.000,18.000
0.060,46.000,55.500,53.500,18.500
0.061,46.000,56.000,54.500,19.000
0.062,46.500,56.500,55.000,19.500
0.063,46.500,57.000,55.000,19.500
0.064,46.000,57.000,55.500,20.000
0.065,46.000,57.000,56.000,20.000
0.066,46.000,57.000,56.500,20.000
0.067,45.500,57.000,56.500,20.000
0.068,45.500,56.500,56.500,20.000
0.069,45.500,56.500,56.500,20.000
0.070,45.500,56.000,56.000,19.500
0.071,46.000,55.500,56.000,19.500
0.072,46.000,55.500,56.000,19.500
0.073,46.000,55.500,56.000,19.500
0.074,46.500,55.500,56.500,19.500
0.075,47.000,55.500,57.000,19.500
0.076,47.000,55.500,57.500,20.000
0.077,47.000,56.000,58.000,20.000
0.078,47.500,56.000,58.000,20.500
0.079,47.500,56.000,58.500,20.500
0.080,47.500,56.500,59.000,20.500
0.081,47.500,56.500,59.000,20.500
0.082,47.500,56.500,59.500,21.000
0.083,47.500,57.000,59.500,21.000
0.084,47.500,57.000,60.000,21.500
0.085,47.500,57.000,60.000,21.500
0.086,47.500,57.000,60.000,21.500
0.087,47.000,56.500,60.000,21.500
0.088,47.000,56.500,60.000,21.000
0.089,46.500,56.000,60.000,20.500
0.090,46.500,56.000,59.500,20.500
0.091,46.500,55.500,59.500,20.500
0.092,46.500,55.500,59.500,20.000
0.093,46.500,55.500,60.000,20.500
0.094,46.500,55.500,60.000,20.500
0.095,47.000,55.500,60.500,20.500
0.096,47.000,55.500,60.500,20.500
0.097,47.500,56.000,61.000,20.500
0.098,47.500,56.000,61.500,20.500
0.099,47.500,56.500,61.500,21.000
0.100,47.500,56.500,62.000,21.000
0.101,47.500,57.000,62.500,21.000
0.102,48.000,57.000,62.500,21.000
0.103,48.000,57.000,62.500,21.500
0.104,47.500,56.500,63.000,21.500
0.105,47.500,56.500,63.000,21.500
0.106,47.500,56.500,63.000,21.500
0.107,47.500,56.500,63.000,21.500
0.108,47.500,56.500,63.000,21.500
0.109,47.500,56.000,63.000,22.000
0.110,47.500,56.000,63.000,22.000
0.111,47.500,56.000,63.000,22.000
0.112,48.000,56.000,63.500,22.500
0.113,48.000,56.000,64.000,22.500
0.114,48.500,56.500,64.500,22.500
0.115,49.000,57.500,65.000,23.000
0.116,49.500,58.000,66.000,23.500
0.117,50.500,59.000,67.000,24.000
0.118,51.000,59.500,68.000,24.500
0.119,51.500,60.000,69.000,25.000
0.120,52.000,60.500,69.500,25.000
0.121,52.000,60.500,70.000,25.500
0.122,52.000,60.500,70.000,25.000
0.123,51.500,60.000,69.500,25.000
0.124,50.500,59.000,69.000,24.000
0.125,49.500,57.500,68.000,23.000
0.126,48.500,56.000,66.500,22.000
0.127,47.000,54.000,65.000,21.000
0.128,44.500,51.500,63.000,19.500
0.129,42.500,49.000,61.000,18.000
0.130,40.500,46.000,59.000,17.000
0.131,38.500,44.000,57.000,16.000
0.132,37.000,42.500,56.000,15.000
0.133,36.500,41.500,55.500,14.500
0.134,36.500,41.500,55.500,14.500
0.135,37.000,42.000,56.500,15.000
0.136,38.000,43.000,57.500,16.000
0.137,39.500,45.000,59.500,17.000
0.138,41.500,47.500,62.000,19.000
0.139,43.500,50.500,64.500,21.000
0.140,46.000,53.500,67.500,23.000
0.141,49.000,57.000,70.500,25.000
0.142,52.000,60.500,73.500,27.500
0.143,54.500,63.000,76.000,29.000
0.144,56.000,65.000,77.500,30.000
0.145,57.000,66.000,78.500,30.500
0.146,57.500,66.500,79.000,30.500
0.147,57.000,66.000,79.000,30.500
0.148,56.000,65.500,78.000,29.500
0.149,55.000,64.000,77.000,29.000
0.150,54.000,63.000,76.000,27.500
0.151,52.500,61.500,75.000,26.500
0.152,52.000,60.500,74.000,26.000
0.153,51.000,59.500,73.500,25.500
0.154,51.000,59.000,73.500,25.500
0.155,51.000,58.500,73.500,26.000
0.156,51.000,58.500,74.000,26.000
0.157,51.000,58.500,74.000,26.500
0.158,51.000,58.500,74.500,27.000
0.159,51.000,59.000,75.000,27.500
0.160,51.000,59.000,75.500,28.000
0.161,51.000,59.000,76.000,28.500
0.162,51.000,59.000,76.500,29.000
0.163,51.500,59.000,76.500,29.500
0.164,51.500,59.000,77.000,29.500
0.165,51.500,59.000,77.000,29.500
0.166,51.500,58.500,76.500,29.000
0.167,51.000,58.500,76.500,29.000
0.168,51.000,58.500,76.500,29.500
0.169,51.000,58.000,76.500,29.500
0.170,51.000,58.000,76.000,29.500
0.171,51.000,58.000,76.000,30.000
0.172,51.500,58.000,76.500,30.000
0.173,51.500,58.000,76.500,30.000
0.174,52.000,58.500,77.000,30.000
0.175,52.500,58.500,77.500,30.500
0.176,53.000,59.000,78.000,30.500
0.177,53.500,60.000,78.500,31.000
0.178,53.500,60.500,79.000,31.000
0.179,54.000,60.500,79.000,31.000
0.180,54.000,61.000,79.500,31.000
0.181,54.000,60.500,79.500,31.000
0.182,53.500,60.500,79.500,31.000
0.183,53.500,60.000,79.000,30.500
0.184,53.500,59.500,79.000,30.000
0.185,53.500,59.000,78.500,30.000
0.186,53.000,58.500,78.500,29.500
0.187,53.000,58.500,78.000,29.000
0.188,52.500,58.000,78.000,28.500
0.189,52.500,58.000,78.000,28.500
0.190,52.500,58.000,78.000,28.000
0.191,52.500,58.000,78.000,28.000
0.192,52.500,57.500,78.000,28.000
0.193,52.500,57.500,78.000,28.000
0.194,53.000,57.500,78.500,28.500
0.195,53.000,57.500,78.500,28.500
0.196,53.000,57.000,78.500,29.000
0.197,53.000,57.000,79.000,29.000
0.198,53.000,57.000,79.000,29.500
0.199,53.000,57.500,79.000,30.000
0.200,53.000,57.500,79.000,30.000
0.201,53.000,57.500,79.500,30.000
0.202,53.000,57.500,79.500,30.500
0.203,53.500,57.500,80.000,30.500
0.204,53.500,57.500,80.500,30.500
0.205,53.500,57.500,80.500,30.000
0.206,53.500,57.500,80.500,30.000
0.207,53.000,57.000,81.000,29.500
0.208,53.000,56.500,81.000,29.500
0.209,52.500,56.500,81.000,29.500
0.210,52.500,56.500,81.500,29.500
0.211,52.500,56.000,81.500,29.000
0.212,52.000,56.000,82.000,29.000
0.213,52.000,56.500,82.000,29.000
0.214,52.500,56.500,82.500,29.500
0.215,52.500,56.500,83.000,29.500
0.216,52.500,56.500,83.000,29.500
0.217,52.500,56.500,83.500,29.500
0.218,52.500,56.500,83.500,29.500
0.219,52.500,57.000,83.500,29.500
0.220,52.500,57.000,83.500,29.500
0.221,52.500,56.500,83.500,29.500
0.222,52.500,56.500,83.500,30.000
0.223,52.500,56.500,84.000,30.000
0.224,52.500,56.500,84.000,30.500
0.225,52.500,56.500,84.000,30.500
0.226,52.500,56.500,84.000,30.000
0.227,52.000,56.000,84.000,30.000
0.228,52.000,56.000,84.000,29.500
0.229,52.000,56.000,84.000,29.500
0.230,52.000,56.000,84.000,29.500
0.231,52.000,55.500,84.000,29.500
0.232,51.500,55.500,83.500,29.500
0.233,51.500,55.500,83.500,29.500
0.234,52.000,55.500,84.000,29.500
0.235,52.000,55.500,84.000,30.000
0.236,52.500,55.500,84.500,30.000
0.237,52.500,56.000,85.000,30.500
0.238,52.500,56.000,85.500,30.500
0.239,52.500,56.500,86.000,30.500
0.240,52.500,56.500,86.500,30.500
0.241,52.500,57.000,87.000,31.000
0.242,52.500,56.500,87.500,31.000
0.243,52.500,56.500,87.500,31.500
0.244,52.500,56.000,87.500,31.500
0.245,52.500,55.500,87.000,31.000
0.246,52.500,55.000,87.000,31.000
0.247,52.000,54.500,86.500,31.000
0.248,52.000,54.500,86.500,30.500
0.249,52.000,54.000,86.000,30.500
0.250,51.500,54.000,86.000,30.500
0.251,51.500,54.000,86.000,30.000
0.252,51.500,53.500,86.000,30.000
0.253,51.000,53.500,85.500,30.000
0.254,51.000,53.000,85.500,29.500
0.255,51.000,53.000,85.500,29.500
0.256,51.000,53.000,85.500,29.500
0.257,51.000,53.000,85.500,29.500
0.258,51.000,53.000,86.000,29.500
0.259,51.500,52.500,86.000,29.500
0.260,51.500,52.500,86.000,29.500
0.261,51.500,52.000,86.000,29.500
0.262,51.000,51.500,85.500,29.000
0.263,50.500,51.000,85.000,28.000
0.264,49.500,50.000,83.500,27.000
0.265,48.500,49.000,82.000,25.500
0.266,47.000,47.500,80.500,24.500
0.267,46.000,46.500,79.000,23.000
0.268,44.500,45.000,77.500,21.500
0.269,43.500,43.500,76.500,20.500
0.270,42.000,42.000,75.000,19.000
0.271,41.000,40.500,74.000,18.500
0.272,39.500,39.500,73.000,17.500
0.273,38.500,38.500,72.000,17.500
0.274,37.000,37.500,71.500,17.500
0.275,35.500,36.500,71.000,17.500
0.276,34.500,35.500,71.000,18.500
0.277,33.000,35.000,71.000,19.000
0.278,32.000,34.500,71.500,20.000
0.279,31.500,34.000,72.000,21.500
0.280,30.500,34.000,72.500,23.000
0.281,30.500,34.000,73.500,25.000
0.282,30.000,34.000,74.500,26.500
0.283,29.500,34.500,75.000,28.500
0.284,29.000,34.500,76.000,30.000
0.285,28.500,34.500,77.000,31.500
0.286,28.500,34.500,77.500,33.000
0.287,28.000,34.500,78.000,34.000
0.288,28.000,34.500,79.000,35.000
0.289,27.500,34.500,79.500,36.000
0.290,28.000,35.000,80.000,37.000
0.291,28.500,36.000,81.000,38.500
0.292,29.500,37.500,83.000,40.000
0.293,32.000,40.000,85.000,41.500
0.294,35.000,43.000,88.000,43.500
0.295,38.500,46.500,91.000,46.000
0.296,42.500,50.500,95.000,48.000
0.297,46.500,54.500,98.500,50.500
0.298,51.000,58.500,102.500,52.500
0.299,55.000,62.500,106.500,54.000
0.300,60.000,67.000,110.000,56.000
0.301,64.500,71.000,113.500,58.000
0.302,68.500,75.000,116.500,59.500
0.303,71.500,77.500,119.000,60.500
0.304,73.500,79.000,120.000,60.500
0.305,74.000,79.500,120.000,60.000
0.306,74.000,79.000,119.000,58.500
0.307,73.000,78.000,117.500,57.000
0.308,72.000,76.500,116.000,55.500
0.309,70.000,75.000,114.000,53.500
0.310,68.500,73.000,112.000,51.500
0.311,66.500,71.000,110.000,50.000
0.312,65.000,69.000,108.000,48.000
0.313,63.000,66.500,106.000,46.000
0.314,61.500,65.000,104.500,44.500
0.315,60.000,63.000,103.000,43.000
0.316,58.500,61.500,101.500,41.500
0.317,57.000,60.500,100.500,40.500
0.318,56.000,59.500,99.500,39.500
0.319,55.000,58.500,98.500,39.000
0.320,54.500,57.500,97.500,38.000
0.321,54.000,57.000,97.000,37.500
0.322,53.500,56.500,96.500,37.000
0.323,53.500,56.500,96.500,36.500
0.324,53.500,56.000,96.000,36.500
0.325,53.500,56.000,96.000,36.500
0.326,53.500,56.000,96.000,36.500
0.327,53.500,56.000,96.000,36.500
0.328,54.000,56.000,96.000,36.500
0.329,54.500,56.000,96.000,36.500
0.330,55.000,56.000,96.000,37.000
0.331,55.000,56.500,96.500,37.000
0.332,55.500,56.500,96.500,37.000
0.333,55.500,56.500,96.500,37.000
0.334,55.500,56.000,96.500,37.000
0.335,55.500,56.000,96.500,37.000
0.336,55.500,56.500,97.000,37.000
0.337,55.500,56.500,97.500,37.500
0.338,55.500,56.500,98.000,37.500
0.339,55.500,57.000,98.000,37.500
0.340,56.000,57.000,98.500,37.500
0.341,56.000,57.000,98.500,37.500
0.342,56.000,57.000,98.500,37.500
0.343,56.000,57.000,98.500,37.500
0.344,56.000,57.000,98.500,37.500
0.345,56.000,57.000,98.500,37.500
0.346,56.000,57.000,98.500,37.000
0.347,56.000,57.000,99.000,37.000
0.348,56.000,57.000,99.000,37.000
0.349,55.500,56.500,99.000,37.000
0.350,55.500,56.500,99.000,37.000
0.351,55.500,56.500,99.000,37.000
0.352,55.500,56.500,99.000,37.000
0.353,55.000,56.500,98.500,37.000
0.354,55.000,56.500,98.500,36.500
0.355,54.500,56.500,98.500,36.500
0.356,54.500,56.500,99.000,36.500
0.357,55.000,56.500,99.500,37.000
0.358,55.000,56.500,99.500,37.000
0.359,55.000,57.000,100.000,37.000
0.360,55.500,57.000,100.500,37.500
0.361,55.500,57.000,100.500,37.500
0.362,55.000,56.500,100.500,37.500
0.363,55.000,56.500,100.500,37.500
0.364,55.000,56.500,100.500,37.500
0.365,55.000,56.500,101.000,37.500
0.366,55.000,56.500,101.000,37.500
0.367,55.000,56.500,101.500,37.500
0.368,54.500,56.500,101.500,37.500
0.369,54.500,56.500,101.500,37.500
0.370,54.500,56.500,102.000,37.000
0.371,54.500,56.500,102.000,37.000
0.372,54.500,56.500,102.000,37.000
0.373,54.500,56.500,102.000,37.000
0.374,54.500,56.500,102.000,37.000
0.375,54.500,56.500,102.500,37.500
0.376,55.000,56.500,102.500,37.500
0.377,55.000,57.000,103.000,38.000
0.378,55.000,57.000,103.500,38.000
0.379,55.500,57.500,104.000,38.500
0.380,55.500,57.500,104.000,38.500
0.381,55.500,57.500,104.500,39.000
0.382,55.500,57.500,105.000,39.000
0.383,55.500,57.500,105.500,39.500
0.384,56.000,57.500,106.000,39.500
0.385,56.000,57.500,106.500,39.500
0.386,56.500,57.500,106.500,39.000
0.387,56.500,57.000,107.000,39.000
0.388,56.500,57.000,106.500,39.000
0.389,56.500,57.000,106.500,38.500
0.390,56.500,57.000,106.500,38.500
0.391,56.500,57.000,106.500,38.500
0.392,56.500,57.000,106.500,38.500
0.393,56.500,57.000,106.500,38.500
0.394,56.500,57.000,107.000,38.500
0.395,57.000,57.000,107.500,39.000
0.396,57.000,57.500,108.500,39.000
0.397,57.000,58.000,109.000,39.500
0.398,57.500,58.000,109.500,40.000
0.399,57.500,58.500,110.000,40.000
0.400,57.500,58.500,110.000,40.000
0.401,57.500,58.500,110.500,40.000
0.402,58.000,58.500,110.500,40.000
0.403,58.000,59.000,111.000,40.500
0.404,58.000,59.000,111.000,40.500
0.405,58.000,59.500,111.500,40.500
0.406,58.000,59.500,112.000,40.500
0.407,58.000,60.000,112.000,41.000
0.408,58.500,60.000,112.500,41.000
0.409,58.500,60.500,112.500,41.000
0.410,59.000,60.500,113.000,41.000
0.411,59.500,60.500,113.000,41.000
0.412,59.500,61.000,113.500,41.000
0.413,60.000,61.000,114.000,41.000
0.414,60.500,61.500,114.000,41.000
0.415,60.500,61.500,114.500,41.500
0.416,61.000,61.500,115.000,41.500
0.417,61.000,61.500,115.500,41.500
0.418,61.000,62.000,116.000,42.000
0.419,61.000,62.500,116.500,42.500
0.420,61.000,62.500,117.000,43.000
0.421,61.000,63.000,117.500,43.500
0.422,61.000,63.500,118.000,43.500
0.423,61.000,63.500,118.500,43.500
0.424,61.000,63.500,118.500,43.500
0.425,61.000,63.500,118.500,43.000
0.426,61.000,63.500,118.000,43.000
0.427,61.500,63.500,118.000,42.500
0.428,61.500,63.500,118.000,42.500
0.429,61.500,63.500,118.000,42.000
0.430,61.500,63.500,118.000,42.000
0.431,61.000,63.000,118.000,42.000
0.432,61.000,63.000,118.000,41.500
0.433,60.500,63.000,118.000,41.500
0.434,60.500,63.000,118.000,41.500
0.435,60.500,63.500,118.500,41.500
0.436,61.000,63.500,119.000,41.500
0.437,61.000,64.000,120.000,42.000
0.438,61.500,64.500,120.500,42.500
0.439,62.000,64.500,121.500,43.000
0.440,62.500,65.000,122.000,43.500
0.441,62.500,65.500,122.500,43.500
0.442,62.500,65.500,123.000,44.000
0.443,62.500,66.000,123.000,44.000
0.444,62.500,66.000,123.500,44.500
0.445,62.500,66.000,123.500,44.500
0.446,62.000,66.000,123.500,44.500
0.447,62.000,66.000,123.500,44.000
0.448,62.000,66.000,123.500,44.000
0.449,62.000,66.000,124.000,43.500
0.450,62.000,65.500,124.000,43.500
0.451,62.000,65.500,124.500,43.500
0.452,62.000,65.500,124.500,43.000
0.453,62.000,65.500,125.000,43.000
0.454,62.000,65.500,125.000,43.500
0.455,62.000,66.000,125.000,43.500
0.456,62.000,66.500,125.500,43.500
0.457,61.500,66.500,125.500,44.000
0.458,62.000,67.000,126.500,44.000
0.459,62.000,67.500,127.000,44.500
0.460,62.000,67.500,127.500,44.500
0.461,62.500,68.000,128.500,45.000
0.462,62.500,68.500,129.000,45.500
0.463,62.500,68.500,129.500,45.500
0.464,62.500,69.000,129.500,46.000
0.465,62.500,69.000,130.000,46.000
0.466,62.500,69.000,130.000,46.000
0.467,62.500,69.000,130.000,46.000
0.468,63.000,69.000,130.000,46.000
0.469,63.000,69.000,130.000,46.500
0.470,63.500,69.500,130.500,46.500
0.471,64.000,69.500,130.500,46.500
0.472,64.500,70.000,131.000,46.500
0.473,64.500,70.000,131.000,46.500
0.474,64.500,70.000,131.000,46.500
0.475,64.000,70.000,131.000,46.500
0.476,63.500,70.000,131.000,46.500
0.477,63.000,69.500,131.000,46.000
0.478,62.000,68.500,130.500,45.500
0.479,61.000,67.000,129.500,45.000
0.480,59.500,65.000,128.500,44.500
0.481,57.500,63.000,127.000,43.500
0.482,55.500,61.500,125.500,43.000
0.483,54.000,59.500,124.500,42.500
0.484,53.000,58.500,123.500,42.000
0.485,52.500,58.000,123.500,42.000
0.486,52.500,58.000,123.500,42.000
0.487,52.500,58.500,124.000,42.000
0.488,53.500,59.500,125.500,43.000
0.489,55.000,61.000,126.500,43.500
0.490,57.000,63.000,128.500,44.500
0.491,59.000,65.500,131.000,46.000
0.492,62.000,68.500,133.500,48.000
0.493,65.000,72.000,136.500,49.500
0.494,68.000,75.000,139.500,51.500
0.495,70.500,78.000,142.000,53.500
0.496,72.500,80.500,144.500,54.500
0.497,74.000,82.500,146.000,55.500
0.498,74.500,83.500,147.000,56.000
0.499,74.500,84.000,147.000,56.000
0.500,74.000,83.500,147.000,55.500
0.501,73.000,82.500,146.000,55.000
0.502,72.000,81.000,145.000,54.500
0.503,70.500,79.500,144.000,54.000
0.504,69.500,78.000,143.000,53.500
0.505,68.500,77.000,142.500,53.000
0.506,68.000,76.500,142.000,52.500
0.507,67.500,76.000,142.000,52.500
0.508,67.500,76.000,142.000,52.000
0.509,68.000,76.000,142.500,52.500
0.510,68.000,76.500,143.000,52.500
0.511,68.000,76.500,143.000,53.000
0.512,68.500,76.500,143.500,53.500
0.513,68.500,76.500,143.500,53.500
0.514,69.000,76.500,144.000,53.500
0.515,69.500,76.500,144.000,54.000
0.516,69.500,77.000,144.500,54.500
0.517,70.000,77.000,145.500,54.500
0.518,70.500,77.500,146.000,55.000
0.519,71.000,78.000,146.500,55.500
0.520,71.500,78.500,147.000,56.000
0.521,71.500,79.000,147.500,56.000
0.522,72.000,79.500,148.000,56.000
0.523,72.000,79.500,148.000,56.000
0.524,72.000,79.500,148.500,56.000
0.525,72.000,79.500,148.500,55.500
0.526,72.000,79.500,148.500,55.500
0.527,72.000,79.500,148.000,55.500
0.528,72.500,79.000,148.000,55.000
0.529,72.500,79.000,148.000,55.000
0.530,73.000,79.000,148.500,55.000
0.531,73.000,79.000,148.500,55.000
0.532,73.000,79.500,149.000,55.000
0.533,73.500,79.500,149.000,55.000
0.534,73.500,80.000,149.000,55.000
0.535,74.000,80.000,149.500,55.000
0.536,74.000,80.000,150.000,55.000
0.537,74.500,80.500,150.000,55.500
0.538,74.500,80.500,150.500,55.500
0.539,74.500,80.500,150.500,55.500
0.540,74.500,80.500,150.500,55.500
0.541,74.500,80.500,151.000,55.500
0.542,74.000,81.000,151.000,55.500
0.543,74.000,81.000,151.000,55.000
0.544,74.000,81.000,151.000,55.000
0.545,73.500,80.500,151.000,54.500
0.546,73.500,80.000,151.000,54.000
0.547,73.500,80.000,151.000,53.500
0.548,73.500,79.500,150.500,53.000
0.549,73.000,79.000,150.500,53.000
0.550,73.000,79.000,150.000,52.500
0.551,73.000,79.000,150.000,52.000
0.552,73.000,79.000,150.000,52.000
0.553,73.500,79.500,150.000,51.500
0.554,73.500,79.500,150.500,51.500
0.555,73.500,80.000,151.000,51.500
0.556,74.000,80.500,151.500,51.500
0.557,74.000,81.000,152.000,51.500
0.558,74.000,81.000,152.500,51.500
0.559,74.500,81.500,152.500,51.500
0.560,74.500,82.000,153.000,51.500
0.561,75.000,82.000,153.500,51.500
0.562,75.500,82.500,154.000,52.000
0.563,75.500,82.500,154.500,52.500
0.564,75.500,82.500,154.500,52.500
0.565,75.500,82.500,154.500,52.500
0.566,75.000,82.000,154.500,52.000
0.567,75.000,81.500,154.500,51.500
0.568,75.000,81.500,154.000,51.500
0.569,74.500,81.500,154.000,51.000
0.570,74.500,82.000,154.000,51.000
0.571,74.500,82.000,154.000,51.000
0.572,74.500,82.000,154.000,50.500
0.573,75.000,82.000,154.000,50.500
0.574,75.000,82.000,154.000,50.500
0.575,75.000,82.000,154.500,51.000
0.576,75.500,82.000,154.500,51.000
0.577,76.000,82.000,155.000,51.500
0.578,76.500,82.500,155.500,52.000
0.579,76.500,83.000,156.000,52.500
0.580,77.000,83.500,156.500,53.000
0.581,77.000,83.500,156.500,53.000
0.582,77.500,84.000,157.000,53.000
0.583,77.500,84.000,157.500,53.000
0.584,77.500,84.000,157.500,53.000
0.585,78.000,84.000,157.500,53.000
0.586,78.000,84.000,157.500,53.000
0.587,78.000,84.000,157.500,53.000
0.588,78.000,84.000,157.500,52.500
0.589,78.000,84.000,157.000,52.500
0.590,78.000,84.000,157.000,52.500
0.591,78.500,84.000,157.500,52.500
0.592,78.500,84.000,157.500,52.500
0.593,79.000,84.500,157.500,52.500
0.594,79.500,84.500,158.000,53.000
0.595,79.500,85.000,158.500,53.000
0.596,80.000,85.500,159.000,53.500
0.597,80.000,85.500,159.500,53.500
0.598,80.000,86.000,160.000,54.000
0.599,80.000,86.000,160.000,54.500
0.600,80.000,86.000,160.500,54.500
0.601,79.500,86.500,161.000,54.500
0.602,79.500,86.500,161.500,55.000
0.603,79.500,87.000,161.500,55.000
0.604,79.500,87.000,161.500,55.000
0.605,79.000,87.500,161.500,55.500
0.606,78.500,87.500,161.500,55.500
0.607,78.000,87.500,161.500,55.500
0.608,77.500,87.500,161.500,55.500
0.609,77.000,87.500,161.500,55.000
0.610,77.000,87.500,161.000,55.000
0.611,76.500,87.500,161.000,54.500
0.612,76.500,87.500,161.000,54.500
0.613,76.500,87.500,161.000,54.500
0.614,76.500,87.500,161.000,54.500
0.615,76.500,88.000,161.500,54.500
0.616,77.000,88.000,161.500,54.500
0.617,77.000,88.500,161.500,54.500
0.618,77.000,88.500,162.000,54.500
0.619,77.000,89.000,162.500,55.000
0.620,77.500,89.500,162.500,55.000
0.621,78.000,90.000,163.000,55.000
0.622,78.500,90.000,163.000,55.000
0.623,78.500,90.000,163.000,55.000
0.624,79.000,90.000,163.000,55.000
0.625,79.000,90.000,163.000,54.500
0.626,79.000,90.000,163.000,54.500
0.627,78.500,89.500,163.000,54.500
0.628,78.500,89.500,162.500,54.000
0.629,78.000,89.000,162.500,54.000
0.630,77.500,89.000,162.000,53.500
0.631,77.500,89.000,161.500,53.500
0.632,77.500,88.500,161.500,53.500
0.633,77.500,88.500,161.000,53.000
0.634,77.000,88.500,161.000,53.000
0.635,77.000,89.000,161.000,53.000
0.636,77.000,89.000,161.000,53.000
0.637,77.000,89.500,161.000,53.500
0.638,77.000,90.000,161.000,54.000
0.639,77.500,90.500,161.000,54.500
0.640,77.500,90.500,161.500,54.500
0.641,78.000,91.000,161.500,55.000
0.642,78.000,91.000,161.500,55.000
0.643,78.500,91.500,162.000,55.000
0.644,78.500,91.500,162.000,55.500
0.645,78.500,91.500,162.000,55.500
0.646,78.000,91.500,162.000,55.500
0.647,78.000,91.500,161.500,55.500
0.648,77.500,91.000,161.000,55.000
0.649,77.500,91.000,161.000,55.000
0.650,77.500,91.000,160.500,55.000
0.651,77.500,91.000,160.500,54.500
0.652,78.000,91.000,160.500,54.500
0.653,78.500,91.000,160.500,54.500
0.654,78.500,91.000,160.500,54.500
0.655,79.000,91.000,160.500,54.500
0.656,79.000,91.500,160.500,54.500
0.657,79.000,92.000,160.500,54.500
0.658,79.000,92.000,161.000,55.000
0.659,78.500,92.500,161.000,55.500
0.660,78.500,92.500,161.000,55.500
0.661,78.500,92.500,161.000,56.000
0.662,79.000,92.000,161.000,56.000
0.663,79.000,92.000,160.500,56.000
0.664,79.000,92.000,160.000,56.000
0.665,79.500,92.000,160.000,56.000
0.666,79.500,92.000,160.000,56.000
0.667,79.000,92.000,159.500,56.000
0.668,79.000,91.500,159.000,56.000
0.669,79.000,91.500,159.000,55.500
0.670,78.500,91.000,158.500,55.000
0.671,78.500,91.000,158.000,55.000
0.672,78.000,91.000,158.000,55.000
0.673,78.000,91.000,158.000,54.500
0.674,78.000,91.000,158.000,54.500
0.675,77.500,91.000,158.000,54.500
0.676,78.000,91.500,158.000,54.500
0.677,78.000,91.500,158.500,54.500
0.678,78.000,91.500,158.500,54.500
0.679,78.500,92.000,159.000,55.000
0.680,78.500,92.000,159.000,55.500
0.681,78.500,92.000,159.000,55.500
0.682,78.500,92.000,159.000,56.000
0.683,78.500,92.000,158.500,56.000
0.684,78.500,92.000,158.500,56.000
0.685,78.500,92.000,158.000,56.000
0.686,78.500,91.500,157.500,55.500
0.687,78.000,91.500,157.500,55.500
0.688,78.000,91.500,157.000,55.000
0.689,78.000,91.000,156.500,54.500
0.690,77.500,91.000,156.000,54.500
0.691,77.500,90.500,155.500,54.500
0.692,77.500,90.500,155.000,54.000
0.693,77.500,90.500,155.000,54.000
0.694,78.000,90.500,155.000,54.000
0.695,78.000,91.000,154.500,54.000
0.696,78.000,91.000,154.500,54.000
0.697,78.000,91.500,154.500,54.000
0.698,78.000,91.500,154.500,53.500
0.699,78.000,91.500,154.000,53.500
0.700,78.000,91.500,154.000,53.500
0.701,78.000,91.500,154.000,53.500
0.702,78.000,91.500,154.000,54.000
0.703,78.000,91.500,153.500,54.000
0.704,78.000,91.500,153.500,54.000
0.705,77.500,91.500,153.000,53.500
0.706,77.500,91.000,152.500,53.500
0.707,77.000,90.500,152.000,53.000
0.708,76.500,90.000,151.500,52.500
0.709,76.000,90.000,151.000,52.500
0.710,76.000,89.500,150.500,52.000
0.711,75.500,89.500,150.000,51.500
0.712,75.500,89.000,149.500,51.500
0.713,76.000,89.000,149.000,51.000
0.714,76.000,89.000,148.500,51.000
0.715,76.000,89.500,148.500,51.000
0.716,76.500,89.500,148.500,51.000
0.717,76.500,89.500,148.000,51.000
0.718,76.500,90.000,148.000,51.000
0.719,76.500,90.000,148.000,51.500
0.720,76.500,90.000,147.500,51.500
0.721,76.500,90.500,147.500,51.500
0.722,76.500,90.000,147.500,51.500
0.723,76.500,90.000,147.000,51.500
0.724,76.000,89.500,147.000,51.500
0.725,76.000,89.500,146.500,51.500
0.726,75.500,89.000,146.000,51.500
0.727,75.500,89.000,145.500,51.000
0.728,75.000,89.000,145.500,50.500
0.729,75.000,88.500,145.000,50.500
0.730,75.000,88.500,144.500,50.000
0.731,74.500,88.000,144.500,50.000
0.732,74.500,88.000,144.000,50.000
0.733,74.500,88.000,144.000,50.000
0.734,74.500,88.000,144.000,50.000
0.735,74.500,88.000,144.000,50.000
0.736,74.500,88.000,144.500,50.000
0.737,75.000,88.000,144.500,50.000
0.738,75.000,88.000,144.500,50.500
0.739,75.500,88.000,144.500,50.500
0.740,75.500,88.000,144.500,50.500
0.741,75.500,88.000,144.000,51.000
0.742,75.500,88.000,144.000,51.000
0.743,76.000,88.000,144.000,51.000
0.744,76.000,88.000,143.500,50.500
0.745,76.000,88.000,143.500,50.500
0.746,75.500,87.500,143.000,50.000
0.747,75.500,87.500,142.500,49.500
0.748,75.500,87.000,142.000,49.500
0.749,75.000,87.000,141.500,49.000
0.750,75.000,87.000,141.500,49.000
0.751,75.000,87.000,141.000,48.500
0.752,75.500,87.000,141.000,48.000
0.753,75.500,87.500,141.000,48.000
0.754,76.000,87.500,141.000,48.000
0.755,76.000,88.000,141.000,48.500
0.756,76.000,88.000,141.000,48.500
0.757,76.500,88.500,141.500,48.500
0.758,76.500,89.000,141.500,49.000
0.759,76.500,89.000,142.000,49.000
0.760,76.500,89.500,142.000,49.500
0.761,76.500,89.500,142.000,49.500
0.762,76.500,89.500,142.000,50.000
0.763,76.500,89.000,142.000,50.000
0.764,77.000,89.000,141.500,49.500
0.765,77.000,89.000,141.500,49.500
0.766,77.000,88.500,141.000,49.000
0.767,77.000,88.500,140.500,49.000
0.768,77.000,88.500,140.000,49.000
0.769,77.000,88.000,140.000,49.000
0.770,76.500,88.000,139.500,49.000
0.771,76.500,88.000,139.500,48.500
0.772,76.500,87.500,139.000,48.500
0.773,76.500,87.500,139.000,48.000
0.774,76.500,87.500,139.000,48.000
0.775,76.500,87.500,139.000,47.500
0.776,76.500,87.500,138.500,47.500
0.777,76.500,87.500,138.500,47.500
0.778,76.500,87.500,138.000,47.000
0.779,76.500,87.500,138.000,47.000
0.780,76.500,87.500,138.000,47.000
0.781,76.500,87.500,138.000,47.500
0.782,76.500,87.500,138.000,47.500
0.783,76.500,87.500,137.500,47.500
0.784,76.500,87.500,137.500,47.500
0.785,76.500,87.500,137.000,47.500
0.786,76.500,87.000,136.500,47.000
0.787,76.000,87.000,136.000,47.000
0.788,76.000,86.500,136.000,47.000
0.789,76.000,86.500,135.500,46.500
0.790,76.000,86.000,135.500,46.500
0.791,76.000,86.000,135.500,46.500
0.792,76.000,86.000,135.000,46.500
0.793,75.500,85.500,135.000,46.000
0.794,75.500,85.500,134.500,46.000
0.795,75.500,85.500,134.500,45.500
0.796,75.500,85.500,134.500,45.500
0.797,75.500,86.000,134.500,46.000
0.798,76.000,86.500,135.000,46.000
0.799,76.000,86.500,135.500,46.500
0.800,76.000,87.000,136.000,47.000
0.801,76.500,87.000,136.500,47.500
0.802,76.500,87.500,136.500,48.000
0.803,77.000,87.500,136.500,48.000
0.804,77.000,87.500,137.000,48.500
0.805,77.000,88.000,137.000,48.500
0.806,77.000,87.500,136.500,49.000
0.807,77.000,87.500,136.500,48.500
0.808,76.500,87.000,136.000,48.500
0.809,76.500,87.000,136.000,48.500
0.810,76.000,86.500,135.500,48.500
0.811,76.000,86.500,135.000,48.000
0.812,76.000,86.500,135.000,48.000
0.813,76.500,86.500,135.000,48.500
0.814,76.500,86.500,135.500,48.500
0.815,77.000,87.000,136.000,49.000
0.816,77.500,88.000,136.500,49.500
0.817,78.500,88.500,137.000,50.500
0.818,79.000,89.000,137.500,51.000
0.819,79.500,90.000,138.500,51.500
0.820,80.000,90.500,139.000,52.500
0.821,80.500,91.000,139.500,52.500
0.822,81.000,91.500,140.000,53.000
0.823,81.500,91.500,140.000,53.000
0.824,81.500,92.000,140.500,53.000
0.825,81.500,91.500,140.000,53.000
0.826,81.000,91.000,140.000,52.500
0.827,80.500,90.500,139.000,52.500
0.828,79.500,89.500,138.000,51.500
0.829,78.500,88.500,137.000,51.000
0.830,77.000,87.000,135.000,49.500
0.831,75.500,85.000,133.000,48.500
0.832,73.500,82.500,130.500,47.000
0.833,71.500,80.000,128.000,45.500
0.834,69.000,77.500,126.000,44.000
0.835,67.500,75.500,124.000,43.000
0.836,66.500,74.500,123.000,42.500
0.837,65.500,73.500,122.500,42.000
0.838,65.500,73.500,122.500,42.000
0.839,66.000,74.000,123.000,42.500
0.840,66.500,75.000,124.000,43.000
0.841,68.000,76.500,125.500,44.000
0.842,69.500,78.500,127.000,45.000
0.843,71.500,81.000,128.500,46.000
0.844,74.000,83.500,131.000,47.500
0.845,77.000,86.500,133.500,49.500
0.846,79.500,89.500,135.500,51.000
0.847,82.000,91.500,137.500,52.000
0.848,83.500,93.500,139.000,53.000
0.849,85.000,94.500,139.500,53.000
0.850,85.000,95.000,139.500,52.500
0.851,85.000,94.500,138.500,52.000
0.852,84.000,93.500,137.500,51.000
0.853,82.500,92.500,136.500,50.000
0.854,81.500,91.000,135.000,49.500
0.855,80.500,90.000,134.500,49.000
0.856,79.500,89.500,133.500,48.500
0.857,79.000,88.500,133.500,48.000
0.858,78.500,88.000,133.000,48.000
0.859,78.000,88.000,133.500,47.500
0.860,78.000,88.000,133.500,47.500
0.861,78.000,88.000,133.500,47.500
0.862,78.000,88.000,133.500,47.500
0.863,78.000,88.000,133.000,47.500
0.864,78.000,87.500,133.000,47.500
0.865,78.000,87.500,132.500,47.000
0.866,77.500,87.000,132.000,47.000
0.867,77.000,86.500,131.500,47.000
0.868,77.000,86.500,131.000,46.500
0.869,77.000,86.000,130.500,46.500
0.870,77.000,86.000,130.500,46.000
0.871,77.000,85.500,130.000,46.000
0.872,77.000,85.000,129.500,45.500
0.873,76.500,85.000,129.500,45.500
0.874,76.500,85.000,129.500,45.500
0.875,77.000,85.000,129.500,46.000
0.876,77.000,85.500,130.000,46.000
0.877,77.000,86.000,130.500,47.000
0.878,77.500,86.500,131.000,47.500
0.879,77.500,87.000,131.000,47.500
0.880,77.500,87.500,131.000,48.000
0.881,77.000,87.500,131.000,48.000
0.882,77.000,87.500,131.000,48.000
0.883,76.500,87.000,130.500,47.500
0.884,76.500,86.500,130.000,47.500
0.885,76.000,86.000,130.000,47.000
0.886,76.000,85.500,129.500,47.000
0.887,76.000,85.000,129.000,46.500
0.888,75.500,85.000,129.000,46.500
0.889,75.500,84.500,128.500,46.000
0.890,75.500,84.000,128.000,46.000
0.891,75.500,84.000,127.500,46.000
0.892,75.500,83.500,127.000,45.500
0.893,75.500,83.000,127.000,45.500
0.894,75.500,83.000,126.500,45.500
0.895,75.500,83.000,126.500,45.500
0.896,76.000,83.500,127.000,45.500
0.897,76.000,83.500,127.000,46.000
0.898,76.500,83.500,127.000,46.000
0.899,77.000,83.500,127.000,46.500
0.900,77.000,83.500,126.500,46.500
0.901,77.000,83.500,126.500,46.500
0.902,77.000,83.500,126.000,46.500
0.903,77.000,83.500,125.500,46.000
0.904,77.000,83.500,125.500,46.000
0.905,77.000,83.500,125.000,45.500
0.906,76.500,83.000,124.500,45.500
0.907,76.500,83.000,124.000,45.000
0.908,76.000,82.500,123.000,44.000
0.909,75.500,81.500,122.000,43.500
0.910,75.000,81.000,121.000,42.500
0.911,74.500,80.000,120.000,41.000
0.912,74.000,79.000,118.500,40.000
0.913,73.500,78.000,117.500,38.500
0.914,72.500,77.000,116.000,37.000
0.915,71.500,76.000,114.500,36.000
0.916,70.500,75.000,113.500,35.000
0.917,69.500,74.000,112.000,34.500
0.918,68.000,72.500,111.000,33.500
0.919,67.000,71.500,110.000,33.000
0.920,66.000,71.000,108.500,32.500
0.921,65.000,70.000,107.500,32.000
0.922,64.000,69.000,106.500,31.500
0.923,63.000,68.000,105.500,31.500
0.924,62.000,67.000,104.500,31.500
0.925,61.000,65.500,104.000,31.500
0.926,60.000,64.500,103.500,31.500
0.927,59.000,63.500,103.500,32.500
0.928,58.500,63.000,103.500,34.000
0.929,57.500,63.000,104.000,35.500
0.930,57.000,63.000,104.500,37.000
0.931,57.000,63.500,105.000,38.500
0.932,56.500,63.500,105.500,40.000
0.933,56.000,63.000,105.500,41.500
0.934,55.500,63.000,105.500,43.000
0.935,55.000,63.000,105.500,44.500
0.936,54.500,63.500,106.000,45.500
0.937,54.500,64.000,106.000,46.000
0.938,55.000,64.500,106.500,47.000
0.939,55.500,65.000,107.500,47.500
0.940,56.500,66.000,108.500,48.000
0.941,58.500,67.500,110.000,49.000
0.942,60.500,69.500,112.000,50.500
0.943,63.000,72.000,114.000,52.000
0.944,65.500,74.500,116.000,53.000
0.945,68.500,77.000,118.000,54.000
0.946,71.000,79.500,119.500,54.500
0.947,74.000,81.500,121.000,54.500
0.948,77.000,84.000,122.000,54.500
0.949,80.000,86.000,123.500,54.500
0.950,83.000,88.500,124.500,55.000
0.951,85.500,90.000,126.000,55.000
0.952,87.000,91.500,126.500,55.500
0.953,88.500,92.500,127.000,55.500
0.954,89.500,93.500,127.500,56.000
0.955,90.500,94.000,128.000,56.500
0.956,91.000,95.000,128.500,57.000
0.957,92.000,95.500,128.500,57.000
0.958,92.000,95.500,128.500,57.500
0.959,92.000,95.500,128.000,57.000
0.960,91.500,95.000,127.000,56.500
0.961,90.500,94.000,126.000,55.500
0.962,89.000,92.500,124.500,54.000
0.963,87.500,91.000,123.000,52.500
0.964,86.000,89.500,121.000,51.000
0.965,84.000,87.500,119.000,49.500
0.966,82.500,86.000,117.000,48.000
0.967,81.500,84.500,115.500,47.000
0.968,80.500,83.000,114.000,46.000
0.969,79.500,82.000,113.000,45.000
0.970,78.500,81.000,111.500,44.500
0.971,78.000,80.500,110.500,43.500
0.972,77.500,80.000,110.000,43.000
0.973,77.500,79.500,109.500,42.500
0.974,77.500,79.000,109.000,42.500
0.975,77.500,79.000,109.000,42.500
0.976,77.500,79.500,109.000,42.500
0.977,78.000,79.500,109.500,43.000
0.978,78.000,80.000,109.500,43.000
0.979,78.500,80.000,109.500,43.500
0.980,78.500,80.000,110.000,43.500
0.981,79.000,80.000,110.000,43.500
0.982,79.000,80.500,110.000,44.000
0.983,79.000,80.500,109.500,44.000
0.984,79.000,80.000,109.000,43.500
0.985,79.000,80.000,108.500,43.500
0.986,79.000,80.000,108.000,43.000
0.987,78.500,79.500,107.500,43.000
0.988,78.500,79.500,107.500,42.500
0.989,78.000,79.000,107.000,42.500
0.990,78.000,78.500,107.000,42.500
0.991,78.000,78.000,106.500,42.000
0.992,78.000,78.000,106.500,42.000
0.993,78.500,78.000,106.000,42.000
0.994,79.000,78.000,106.000,42.000
0.995,79.000,78.500,106.500,42.000
0.996,79.500,79.000,106.500,42.500
0.997,80.000,79.500,107.000,43.000
0.998,80.000,79.500,107.000,43.000
0.999,80.000,79.500,107.000,43.000
1.000,80.000,79.500,107.000,43.000
1.001,80.000,79.500,107.000,43.000
1.002,80.000,79.500,106.500,43.000
1.003,79.500,79.500,106.000,42.500
1.004,79.500,79.500,105.500,42.500
1.005,79.500,79.000,105.000,42.000
1.006,79.500,79.000,104.500,42.000
1.007,79.500,78.500,104.500,41.500
1.008,79.500,78.500,104.000,41.500
1.009,79.500,78.000,104.000,41.000
1.010,79.500,77.500,103.500,41.000
1.011,79.500,77.000,103.000,40.500
1.012,79.500,77.000,102.500,40.500
1.013,79.500,77.000,102.000,40.000
1.014,79.500,77.000,101.500,40.000
1.015,80.000,77.000,101.500,40.000
1.016,80.000,77.000,101.500,40.000
1.017,80.500,77.000,101.500,40.500
1.018,80.500,77.500,102.000,41.000
1.019,80.500,78.000,102.000,41.000
1.020,80.500,78.000,102.000,41.500
1.021,80.500,78.000,102.000,41.500
1.022,81.000,78.500,102.000,42.000
1.023,81.000,78.500,102.000,42.000
1.024,81.000,78.500,102.000,42.000
1.025,81.000,78.500,102.000,42.000
1.026,81.000,78.000,101.500,42.000
1.027,81.000,78.000,101.000,42.000
1.028,80.500,77.500,100.500,42.000
1.029,80.500,77.000,100.000,42.000
1.030,80.000,77.000,99.500,41.500
1.031,80.000,76.500,98.500,41.000
1.032,79.500,76.500,98.000,40.500
1.033,79.500,76.000,98.000,40.500
1.034,79.500,76.000,97.500,40.500
1.035,79.500,76.000,97.500,40.500
1.036,79.500,75.500,97.500,40.000
1.037,79.500,75.500,97.000,40.000
1.038,79.500,75.500,97.000,40.000
1.039,80.000,76.000,97.000,40.500
1.040,80.000,76.500,97.000,40.500
1.041,80.000,77.000,97.000,41.000
1.042,80.000,77.500,97.000,41.000
1.043,80.000,77.500,97.000,41.500
1.044,80.000,77.500,96.500,41.500
1.045,80.000,77.500,96.500,41.500
1.046,80.000,77.500,96.000,41.500
1.047,80.000,77.500,95.500,41.500
1.048,80.000,77.000,95.500,41.000
1.049,79.500,76.500,95.000,41.000
1.050,79.500,76.500,94.500,41.500
1.051,79.500,76.000,94.500,41.500
1.052,79.500,76.000,94.000,41.500
1.053,79.500,75.500,94.000,41.500
1.054,79.500,75.500,93.500,41.500
1.055,80.000,75.000,93.500,41.500
1.056,80.000,75.500,93.500,41.500
1.057,80.500,75.500,93.500,41.500
1.058,80.500,76.000,93.500,42.000
1.059,81.000,76.500,94.000,42.500
1.060,81.000,77.000,94.000,42.500
1.061,81.500,77.000,94.000,43.000
1.062,81.500,77.500,94.000,43.000
1.063,81.500,77.500,93.500,43.500
1.064,81.500,78.000,93.500,43.500
1.065,81.500,77.500,93.000,43.500
1.066,81.000,77.500,93.000,43.000
1.067,80.500,77.000,92.500,43.000
1.068,80.500,76.500,92.000,42.500
1.069,80.000,76.000,91.000,42.500
1.070,80.000,75.500,90.500,42.000
1.071,80.000,75.500,90.000,42.000
1.072,80.000,75.500,89.500,42.000
1.073,80.500,75.500,89.000,41.500
1.074,80.500,75.500,89.000,42.000
1.075,80.500,76.000,89.000,42.000
1.076,81.000,76.000,89.500,42.500
1.077,81.000,76.500,89.500,42.500
1.078,81.500,76.500,89.500,42.500
1.079,81.500,76.500,89.500,42.500
1.080,81.500,76.500,89.000,42.500
1.081,81.500,76.500,89.000,42.500
1.082,81.000,76.000,89.000,42.500
1.083,81.000,76.000,88.500,42.500
1.084,81.000,76.000,88.500,42.500
1.085,80.500,76.000,88.000,42.500
1.086,80.000,75.500,88.000,42.500
1.087,80.000,75.500,87.500,42.500
1.088,79.500,75.000,87.000,42.000
1.089,79.000,74.500,86.500,41.500
1.090,78.500,74.000,86.000,41.500
1.091,78.500,73.500,85.500,41.000
1.092,78.500,73.500,85.500,41.000
1.093,78.500,74.000,85.500,41.000
1.094,79.000,74.000,85.500,41.500
1.095,79.500,74.500,85.500,41.500
1.096,80.000,74.500,85.500,42.000
1.097,80.000,74.500,85.500,42.500
1.098,80.000,74.500,85.500,42.500
1.099,80.000,74.500,85.500,43.000
1.100,80.000,74.500,85.000,43.000
1.101,80.000,74.500,85.000,43.000
1.102,80.000,74.500,85.000,43.000
1.103,80.000,74.500,85.000,43.500
1.104,80.000,74.500,84.500,43.500
1.105,80.000,74.500,84.500,43.500
1.106,80.000,74.500,84.000,43.500
1.107,80.000,74.500,83.500,43.500
1.108,80.000,74.500,83.000,43.500
1.109,80.000,74.500,83.000,43.000
1.110,79.500,74.000,82.500,43.000
1.111,79.500,73.500,82.500,42.500
1.112,79.000,73.500,82.000,42.500
1.113,79.000,73.500,81.500,42.500
1.114,79.500,73.500,81.500,42.500
1.115,79.500,73.500,81.500,42.500
1.116,79.500,73.500,81.500,43.000
1.117,80.000,74.000,81.500,43.000
1.118,80.000,74.000,81.500,43.500
1.119,80.000,74.500,81.500,44.000
1.120,80.000,74.500,81.500,44.500
1.121,80.500,75.000,81.500,44.500
1.122,80.000,75.000,81.500,45.000
1.123,80.000,74.500,81.500,45.000
1.124,80.000,74.500,81.000,45.000
1.125,80.000,74.000,81.000,45.000
1.126,79.500,74.000,80.000,44.500
1.127,79.500,73.500,79.500,44.500
1.128,79.500,73.000,79.000,44.500
1.129,79.000,73.000,78.500,44.000
1.130,79.000,72.500,78.000,44.000
1.131,79.500,72.500,78.000,44.000
1.132,79.500,72.500,78.000,44.000
1.133,79.500,72.500,77.500,43.500
1.134,79.500,73.000,77.500,43.500
1.135,79.500,73.000,77.500,43.500
1.136,79.500,73.000,77.000,43.500
1.137,79.000,73.000,77.000,44.000
1.138,79.000,73.000,77.000,44.000
1.139,79.000,73.000,77.000,44.500
1.140,79.000,73.000,76.500,44.500
1.141,79.500,73.000,76.500,44.500
1.142,79.500,73.000,76.500,45.000
1.143,79.500,73.000,76.500,45.000
1.144,79.500,73.000,76.000,45.000
1.145,79.500,73.000,76.000,45.000
1.146,79.000,73.000,75.500,45.000
1.147,78.500,72.500,75.000,45.000
1.148,78.500,72.500,74.500,45.000
1.149,78.000,72.000,74.500,45.000
1.150,78.000,72.000,74.000,45.000
1.151,77.500,71.500,73.500,44.500
1.152,77.500,71.500,73.000,44.500
1.153,77.500,71.000,72.500,44.000
1.154,77.500,71.000,72.500,44.000
1.155,77.500,71.000,72.000,43.500
1.156,77.500,71.000,72.000,43.500
1.157,78.000,71.000,72.000,43.500
1.158,77.500,71.000,71.500,43.500
1.159,77.500,71.000,71.500,43.500
1.160,77.500,71.000,71.500,43.500
1.161,77.500,71.000,71.500,43.500
1.162,77.000,71.500,71.500,44.000
1.163,77.000,71.500,71.500,44.000
1.164,76.500,71.500,71.500,44.000
1.165,76.500,71.500,71.500,44.500
1.166,76.500,71.000,71.000,44.500
1.167,76.500,70.500,70.500,44.000
1.168,76.000,70.500,70.000,44.000
1.169,76.000,70.000,69.500,43.500
1.170,76.000,70.000,69.000,43.000
1.171,76.000,70.000,68.500,43.000
1.172,76.000,70.000,68.000,42.500
1.173,76.000,70.000,67.500,42.500
1.174,76.000,70.000,67.000,42.500
1.175,76.000,70.000,66.500,42.500
1.176,76.500,70.000,66.500,42.500
1.177,76.500,70.000,66.500,42.500
1.178,76.000,70.000,66.500,42.500
1.179,76.000,69.500,66.000,42.500
1.180,75.500,69.000,65.500,42.000
1.181,74.500,67.500,64.500,41.500
1.182,73.000,66.000,62.500,41.000
1.183,71.000,63.500,60.500,39.500
1.184,68.500,61.000,58.000,38.000
1.185,66.000,58.000,55.500,36.000
1.186,63.500,55.000,53.000,34.500
1.187,61.500,53.000,51.000,33.000
1.188,60.500,51.500,49.500,32.500
1.189,60.000,51.000,49.000,32.000
1.190,60.000,51.000,48.500,31.500
1.191,60.500,51.500,49.000,31.500
1.192,61.500,53.000,50.000,32.000
1.193,63.000,54.500,51.500,32.500
1.194,65.500,56.500,53.000,34.000
1.195,68.000,59.500,55.000,35.500
1.196,70.500,62.500,57.500,37.000
1.197,73.500,66.000,60.500,39.000
1.198,76.500,69.500,63.000,40.500
1.199,78.500,72.000,65.000,42.000
1.200,80.000,74.000,66.500,42.500
1.201,81.000,75.000,67.500,42.500
1.202,81.000,75.000,67.000,42.500
1.203,80.500,74.500,66.000,41.500
1.204,79.000,73.000,64.500,40.000
1.205,77.500,71.000,62.500,38.500
1.206,76.000,69.000,60.000,36.500
1.207,74.500,67.000,58.000,35.000
1.208,73.500,65.000,56.500,34.000
1.209,72.500,64.000,55.000,33.000
1.210,72.000,63.000,54.000,32.500
1.211,71.500,62.000,53.000,31.500
1.212,71.000,61.500,52.500,31.500
1.213,71.000,61.000,52.000,31.000
1.214,71.000,61.000,51.500,31.000
1.215,71.000,61.000,51.500,31.000
1.216,70.500,61.000,51.000,31.000
1.217,70.500,61.000,51.000,31.000
1.218,70.500,61.000,51.000,31.500
1.219,71.000,61.000,51.000,32.000
1.220,71.000,61.500,51.500,32.500
1.221,71.000,62.000,52.000,32.500
1.222,71.500,62.000,52.000,33.000
1.223,71.500,62.500,52.000,33.500
1.224,72.000,62.500,52.000,33.500
1.225,72.000,62.500,52.000,33.000
1.226,72.000,62.000,51.500,33.000
1.227,72.000,61.000,51.000,32.500
1.228,72.000,60.500,50.500,32.500
1.229,71.500,60.000,50.000,32.000
1.230,71.500,59.500,49.500,31.500
1.231,71.500,59.500,49.000,31.000
1.232,71.500,59.000,49.000,31.000
1.233,71.500,59.000,48.500,30.500
1.234,71.500,59.000,48.000,30.500
1.235,72.000,59.000,48.000,30.500
1.236,72.000,59.000,48.000,30.500
1.237,72.500,59.500,48.000,30.500
1.238,72.500,59.500,48.000,30.500
1.239,73.000,60.000,48.000,30.500
1.240,73.000,60.500,48.000,31.000
1.241,73.000,60.500,48.000,31.000
1.242,73.000,60.500,48.000,31.000
1.243,73.000,60.500,48.000,31.000
1.244,73.000,60.500,47.500,30.500
1.245,72.500,60.500,47.500,30.500
1.246,72.500,60.000,47.000,30.500
1.247,72.500,60.000,46.500,30.000
1.248,72.000,59.500,46.000,30.000
1.249,72.000,59.500,45.500,29.500
1.250,72.000,59.000,45.000,29.500
1.251,72.000,59.000,44.500,29.000
1.252,72.000,59.000,44.000,29.000
1.253,72.000,59.000,44.000,28.500
1.254,71.500,58.500,43.500,28.500
1.255,71.500,58.500,43.500,28.500
1.256,71.500,58.500,43.500,28.500
1.257,72.000,58.500,43.500,29.000
1.258,72.000,59.000,44.000,29.000
1.259,72.500,59.500,44.500,29.000
1.260,72.500,59.500,44.500,29.500
1.261,72.500,60.000,45.000,29.500
1.262,73.000,60.000,45.000,30.000
1.263,73.000,60.000,44.500,30.000
1.264,73.000,60.000,44.500,30.000
1.265,73.000,59.500,44.000,30.000
1.266,72.500,59.500,43.500,30.000
1.267,72.500,59.500,43.000,30.000
1.268,72.000,59.500,43.000,30.000
1.269,72.000,59.000,42.500,29.500
1.270,72.000,59.000,42.000,29.500
1.271,71.500,59.000,41.500,29.500
1.272,71.500,58.500,41.500,29.000
1.273,71.500,58.000,41.000,29.000
1.274,71.000,58.000,40.500,29.000
1.275,71.000,58.000,40.500,29.000
1.276,71.000,58.000,40.500,29.000
1.277,71.500,58.000,40.500,29.500
1.278,71.500,58.500,40.500,29.500
1.279,72.000,59.000,40.500,30.000
1.280,72.000,59.500,40.500,30.000
1.281,72.000,59.500,40.500,30.000
1.282,72.500,60.000,40.500,30.000
1.283,72.500,60.000,40.500,30.000
1.284,72.500,60.000,40.500,30.000
1.285,72.000,60.000,40.000,30.000
1.286,71.500,60.000,40.000,30.000
1.287,71.500,59.500,39.500,30.000
1.288,71.000,59.500,39.000,30.000
1.289,71.000,59.000,38.500,29.500
1.290,71.000,59.000,38.500,29.500
1.291,71.500,58.500,38.000,29.000
1.292,71.500,58.500,38.000,29.000
1.293,71.500,58.500,38.000,28.500
1.294,72.000,58.500,38.000,28.500
1.295,72.000,59.000,38.000,29.000
1.296,72.000,59.000,38.000,29.000
1.297,72.000,59.000,38.000,29.000
1.298,72.000,59.000,38.000,29.000
1.299,72.000,59.000,38.000,29.000
1.300,72.000,59.500,38.000,29.000
1.301,72.000,59.500,38.000,29.000
1.302,72.500,59.500,38.000,29.000
1.303,72.500,60.000,38.000,29.000
1.304,72.500,60.000,38.000,29.000
1.305,72.500,60.000,38.000,29.500
1.306,72.000,59.500,37.500,29.000
1.307,72.000,59.500,37.000,29.000
1.308,71.500,59.500,37.000,29.000
1.309,71.500,59.500,36.500,29.000
1.310,71.000,59.000,36.000,28.500
1.311,71.000,59.000,36.000,28.500
1.312,71.000,58.500,35.000,28.000
1.313,71.000,58.500,35.000,28.000
1.314,71.000,58.500,34.500,27.500
1.315,71.500,58.500,34.500,27.500
1.316,71.500,59.000,34.500,27.500
1.317,72.000,59.500,35.000,28.000
1.318,72.000,60.000,35.000,28.000
1.319,72.500,60.500,35.500,28.500
1.320,72.500,61.000,35.500,28.500
1.321,72.500,61.000,35.500,29.000
1.322,73.000,61.500,35.500,29.000
1.323,73.000,61.500,35.000,29.500
1.324,73.000,62.000,35.000,29.500
1.325,73.000,62.000,35.000,29.500
1.326,73.500,62.000,35.000,30.000
1.327,73.500,62.000,35.000,30.000
1.328,74.000,62.000,34.500,30.000
1.329,74.000,62.000,34.500,30.000
1.330,74.000,62.000,34.500,30.000
1.331,74.000,62.000,34.000,30.000
1.332,74.000,62.000,34.000,29.500
1.333,74.000,62.000,33.500,29.500
1.334,74.500,62.500,34.000,29.500
1.335,74.500,62.500,34.000,30.000
1.336,75.000,63.000,34.500,30.000
1.337,75.500,63.500,34.500,30.500
1.338,75.500,64.000,35.000,30.500
1.339,75.500,64.000,35.000,31.000
1.340,76.000,64.500,35.500,31.000
1.341,75.500,64.500,35.500,31.000
1.342,75.500,64.500,35.500,31.500
1.343,75.500,65.000,35.500,32.000
1.344,75.500,65.000,35.500,32.000
1.345,75.000,65.500,35.500,32.000
1.346,75.000,65.500,35.000,32.000
1.347,75.000,65.500,35.000,32.000
1.348,75.000,65.500,34.500,32.000
1.349,75.000,65.000,34.000,31.500
1.350,75.000,65.000,33.500,31.500
1.351,75.500,64.500,33.500,31.500
1.352,75.500,64.500,33.500,31.500
1.353,75.500,65.000,33.500,32.000
1.354,76.000,65.000,33.000,31.500
1.355,76.000,65.500,33.000,31.500
1.356,76.000,65.500,33.000,31.500
1.357,76.000,65.500,33.000,32.000
1.358,76.500,66.000,33.500,32.000
1.359,77.000,66.000,34.000,32.000
1.360,77.500,66.500,34.000,32.000
1.361,77.500,67.000,34.500,32.000
1.362,78.000,67.000,34.000,32.000
1.363,78.000,67.500,34.000,32.000
1.364,78.000,67.500,34.000,32.000
1.365,77.500,67.500,34.000,32.500
1.366,77.500,67.500,34.000,32.500
1.367,77.000,67.000,33.500,32.500
1.368,77.000,67.000,33.000,32.000
1.369,76.500,66.500,32.500,32.000
1.370,76.500,66.000,32.000,31.500
1.371,76.000,66.000,32.000,31.500
1.372,76.000,66.000,31.500,32.000
1.373,76.000,66.500,31.500,32.000
1.374,76.000,66.500,31.000,32.000
1.375,76.000,66.500,31.000,32.000
1.376,76.000,66.500,30.500,32.000
1.377,76.500,67.000,30.500,32.000
1.378,76.500,67.000,31.000,32.000
1.379,76.500,67.500,31.000,32.500
1.380,77.000,67.500,31.500,32.500
1.381,77.000,68.000,31.500,32.500
1.382,77.000,68.500,32.000,33.000
1.383,77.000,68.500,32.000,33.000
1.384,77.000,69.000,32.000,33.000
1.385,77.000,69.000,31.500,33.000
1.386,77.500,69.000,31.000,33.000
1.387,77.500,69.000,30.500,32.500
1.388,77.500,68.500,30.000,32.500
1.389,77.000,68.000,29.500,32.500
1.390,77.000,68.000,29.500,32.000
1.391,77.000,67.500,29.000,32.000
1.392,76.500,67.500,29.000,31.500
1.393,76.500,67.500,29.000,32.000
1.394,76.500,68.000,29.000,32.000
1.395,76.500,68.500,29.000,32.500
1.396,76.500,69.000,29.500,32.500
1.397,76.500,69.500,29.500,33.000
1.398,77.000,69.500,30.000,33.000
1.399,77.000,69.500,30.000,33.000
1.400,77.000,69.500,30.000,33.500
1.401,77.000,70.000,30.000,33.500
1.402,77.000,70.000,30.000,34.000
1.403,77.000,69.500,30.000,34.000
1.404,77.000,69.500,29.500,34.000
1.405,77.000,69.000,29.000,34.000
1.406,77.000,68.500,28.500,33.500
1.407,76.500,68.000,27.500,33.500
1.408,76.500,68.000,27.000,33.000
1.409,76.000,67.500,26.500,32.500
1.410,76.000,67.500,26.000,32.000
1.411,75.500,67.500,25.000,31.500
1.412,75.500,67.000,24.500,31.000
1.413,75.500,67.000,24.000,31.000
1.414,75.500,67.500,24.000,31.000
1.415,76.000,68.000,24.000,31.000
1.416,76.500,68.500,24.500,31.500
1.417,77.000,69.000,25.000,31.500
1.418,77.500,69.500,25.500,32.000
1.419,77.500,69.500,25.500,32.000
1.420,77.500,70.000,26.000,32.000
1.421,77.500,70.000,26.000,32.500
1.422,77.500,70.000,26.000,32.500
1.423,77.500,70.000,26.000,32.500
1.424,77.500,70.000,25.500,32.500
1.425,77.500,70.000,25.500,32.500
1.426,77.500,70.000,25.000,32.500
1.427,78.000,70.000,25.000,32.500
1.428,78.000,70.000,24.500,32.500
1.429,78.500,70.500,24.500,32.500
1.430,78.500,70.500,24.500,32.500
1.431,79.000,71.000,24.000,32.500
1.432,79.500,71.500,24.000,33.000
1.433,80.000,71.500,24.000,33.000
1.434,80.000,72.000,24.000,33.500
1.435,80.000,72.000,24.500,33.500
1.436,80.500,72.500,24.500,34.000
1.437,80.500,72.500,24.500,34.500
1.438,80.500,73.000,25.000,34.500
1.439,80.500,73.000,25.000,35.000
1.440,81.000,73.500,25.000,35.000
1.441,81.000,73.500,25.000,35.500
1.442,81.500,74.000,25.000,36.000
1.443,81.500,74.000,25.000,36.000
1.444,82.000,74.500,25.000,36.500
1.445,82.000,74.500,24.500,36.500
1.446,81.500,74.500,24.500,36.500
1.447,81.000,74.500,24.000,36.000
1.448,81.000,74.000,24.000,36.000
1.449,80.500,73.500,23.500,36.000
1.450,80.000,73.000,22.500,35.500
1.451,80.000,73.000,22.000,35.000
1.452,80.000,73.000,22.000,35.000
1.453,80.000,73.000,22.000,35.000
1.454,80.500,73.000,22.000,35.000
1.455,81.000,73.500,22.000,35.500
1.456,81.000,74.000,22.500,35.500
1.457,81.500,74.000,22.500,36.000
1.458,81.500,74.500,22.000,36.000
1.459,81.500,74.500,22.000,36.000
1.460,82.000,74.500,22.000,36.500
1.461,82.000,74.000,21.500,36.500
1.462,82.000,74.000,21.500,36.500
1.463,82.000,74.000,21.000,36.000
1.464,81.500,73.500,20.500,36.000
1.465,81.500,73.000,19.500,35.500
1.466,81.000,72.500,19.000,35.000
1.467,80.500,72.000,18.000,34.500
1.468,80.500,72.000,17.500,34.500
1.469,80.500,71.500,17.000,34.000
1.470,80.500,71.500,16.500,34.000
1.471,80.500,71.500,16.000,34.000
1.472,80.000,71.500,15.500,33.500
1.473,80.000,71.500,15.000,33.500
1.474,80.000,71.500,15.000,33.500
1.475,80.000,71.000,14.500,33.000
1.476,80.000,71.000,14.000,33.000
1.477,80.500,71.000,14.000,33.000
1.478,80.500,71.000,13.500,33.000
1.479,80.500,71.000,13.500,33.000
1.480,80.500,71.000,13.500,33.000
1.481,80.500,71.500,14.000,33.500
1.482,80.500,71.500,14.000,33.500
1.483,80.500,72.000,14.000,33.500
1.484,80.500,72.000,14.000,33.500
1.485,80.500,72.000,14.000,33.500
1.486,80.500,71.500,13.500,33.500
1.487,80.500,71.500,13.500,33.000
1.488,80.500,71.500,13.000,33.000
1.489,80.500,71.500,13.000,33.000
1.490,80.500,71.500,13.000,33.000
1.491,80.500,71.000,12.500,32.500
1.492,80.500,71.000,12.000,32.500
1.493,80.500,70.500,12.000,32.500
1.494,80.000,70.500,11.500,32.500
1.495,80.000,71.000,11.500,32.500
1.496,80.000,71.000,11.500,32.500
1.497,80.000,71.000,12.000,32.500
1.498,80.000,71.500,12.000,33.000
1.499,80.000,71.500,12.000,33.000
1.500,80.000,71.500,12.000,33.500
1.501,80.000,72.000,12.000,33.500
1.502,80.000,72.000,12.000,33.500
1.503,80.000,72.000,12.000,33.000
1.504,80.000,71.500,11.500,33.000
1.505,79.500,71.500,11.500,33.000
1.506,79.500,71.000,11.000,32.500
1.507,79.000,71.000,10.500,32.500
1.508,79.000,71.000,10.000,32.000
1.509,78.500,70.500,9.500,32.000
1.510,78.500,70.500,9.000,31.500
1.511,78.500,70.500,8.500,31.500
1.512,78.500,70.000,8.500,31.500
1.513,78.500,70.000,8.000,31.500
1.514,78.500,70.000,8.000,31.500
1.515,78.500,70.000,8.000,32.000
1.516,79.000,70.000,8.000,32.000
1.517,79.500,70.500,8.000,32.500
1.518,79.500,71.000,8.500,32.500
1.519,80.000,71.000,8.500,32.500
1.520,80.000,71.500,8.500,33.000
1.521,80.500,72.000,9.000,33.000
1.522,80.500,72.500,9.500,33.500
1.523,81.000,73.000,10.000,34.000
1.524,81.000,73.000,10.000,34.500
1.525,81.500,73.500,10.000,34.500
1.526,82.000,73.500,10.000,34.500
1.527,82.000,73.000,10.000,34.500
1.528,81.500,73.000,9.500,34.500
1.529,81.000,72.500,9.000,34.000
1.530,80.500,71.500,8.000,33.500
1.531,79.500,70.000,7.000,33.000
1.532,78.000,68.500,5.500,32.000
1.533,76.000,67.000,3.500,30.500
1.534,74.000,64.500,1.000,29.000
1.535,71.500,62.000,-1.500,27.500
1.536,69.000,59.500,-4.000,26.000
1.537,66.500,57.000,-6.000,25.000
1.538,64.500,55.000,-8.000,23.500
1.539,63.000,53.500,-9.000,22.500
1.540,62.000,52.000,-10.000,22.000
1.541,61.500,51.500,-11.000,21.500
1.542,61.500,51.000,-11.500,21.000
1.543,61.500,51.500,-11.500,20.500
1.544,62.500,52.000,-11.500,20.000
1.545,63.500,52.500,-10.500,20.000
1.546,64.500,54.000,-10.000,20.000
1.547,66.000,55.500,-8.500,20.500
1.548,67.500,57.000,-7.500,21.000
1.549,69.000,58.500,-7.000,21.000
1.550,69.500,59.000,-6.500,21.000
1.551,69.500,59.500,-6.500,20.500
1.552,69.000,58.500,-7.500,20.000
1.553,68.000,57.500,-8.500,19.500
1.554,66.500,56.500,-9.500,19.000
1.555,64.500,55.000,-11.000,18.500
1.556,63.000,53.000,-12.500,18.500
1.557,61.000,51.500,-13.500,18.500
1.558,59.000,50.000,-14.500,19.000
1.559,57.000,48.500,-14.500,19.500
1.560,56.000,48.000,-14.500,21.000
1.561,55.500,47.500,-14.000,23.000
1.562,55.000,48.000,-13.000,24.500
1.563,54.500,48.000,-12.500,26.500
1.564,54.000,48.500,-11.500,28.000
1.565,53.500,48.500,-11.000,29.500
1.566,53.000,48.500,-10.500,30.500
1.567,52.500,48.500,-10.500,31.500
1.568,52.500,48.500,-10.500,32.500
1.569,52.500,49.000,-10.500,33.000
1.570,52.500,49.000,-10.500,33.500
1.571,53.500,50.000,-10.000,34.000
1.572,55.000,51.000,-9.000,34.500
1.573,56.500,53.000,-7.500,35.000
1.574,59.000,55.000,-6.000,36.000
1.575,62.000,57.500,-3.500,37.000
1.576,65.000,60.500,-1.500,38.000
1.577,68.000,63.000,1.000,39.000
1.578,71.000,65.500,3.000,39.500
1.579,74.500,68.500,5.000,40.500
1.580,77.500,71.500,7.500,41.000
1.581,81.000,74.500,9.500,42.000
1.582,84.000,77.000,12.000,43.000
1.583,86.000,79.000,13.500,44.000
1.584,88.000,80.500,14.500,44.500
1.585,89.000,81.500,15.500,45.000
1.586,90.000,82.000,16.000,45.000
1.587,90.000,82.500,16.000,45.000
1.588,90.000,82.000,15.500,44.500
1.589,90.000,81.500,15.000,44.000
1.590,89.000,81.000,13.500,42.500
1.591,88.500,79.500,12.500,41.500
1.592,87.000,78.500,11.000,40.000
1.593,85.500,77.000,9.000,38.500
1.594,84.000,75.000,7.500,37.000
1.595,83.000,73.500,6.000,35.500
1.596,81.500,72.000,4.500,34.000
1.597,80.500,70.500,3.000,32.500
1.598,79.000,69.500,1.500,31.500
1.599,78.000,68.500,0.500,30.500
1.600,77.500,67.500,-0.500,30.000
1.601,77.000,67.000,-1.000,29.500
1.602,76.500,66.500,-1.500,29.000
1.603,76.000,66.000,-2.000,29.000
1.604,75.500,65.500,-2.500,28.500
1.605,75.000,65.000,-3.000,27.500
1.606,74.500,64.500,-3.500,27.000
1.607,74.000,64.500,-4.000,26.500
1.608,73.500,64.000,-4.500,26.500
1.609,73.000,63.500,-5.000,26.000
1.610,72.500,63.500,-5.000,26.000
1.611,72.500,63.500,-5.500,26.000
1.612,72.500,63.500,-5.500,25.500
1.613,72.500,63.500,-5.500,25.500
1.614,73.000,63.500,-5.500,25.000
1.615,73.000,63.500,-5.500,25.000
1.616,73.500,63.500,-5.000,25.000
1.617,73.500,63.500,-5.000,25.000
1.618,74.000,63.500,-4.500,25.000
1.619,74.000,63.500,-4.500,25.000
1.620,74.000,63.500,-4.500,25.000
1.621,74.000,63.500,-4.500,25.000
1.622,73.500,63.500,-5.000,25.000
1.623,73.500,63.500,-5.000,25.000
1.624,73.000,63.500,-5.000,25.000
1.625,72.500,63.000,-5.500,25.000
1.626,72.000,62.500,-5.500,25.000
1.627,72.000,62.500,-6.000,24.500
1.628,72.000,62.000,-6.000,24.000
1.629,71.500,61.500,-6.500,23.500
1.630,71.500,61.500,-6.500,23.000
1.631,71.500,61.000,-7.000,22.500
1.632,71.500,61.000,-7.000,22.500
1.633,71.500,61.000,-7.500,22.500
1.634,71.500,61.000,-7.500,22.500
1.635,71.500,61.000,-7.500,22.500
1.636,72.000,61.500,-7.500,22.500
1.637,72.000,61.500,-7.000,23.000
1.638,72.000,62.000,-7.000,23.000
1.639,72.000,62.500,-6.500,23.500
1.640,72.000,63.000,-6.000,24.000
1.641,72.000,63.000,-5.500,24.500
1.642,72.000,63.000,-5.500,24.500
1.643,72.000,63.000,-5.500,25.000
1.644,71.500,63.000,-5.500,25.000
1.645,71.500,62.500,-5.500,25.000
1.646,71.500,62.500,-5.500,24.500
1.647,71.500,62.500,-5.500,24.500
1.648,71.500,62.500,-5.500,24.000
1.649,71.500,62.500,-6.000,24.000
1.650,71.500,62.500,-6.000,23.500
1.651,71.500,62.500,-6.000,23.500
1.652,71.500,62.500,-6.000,23.500
1.653,71.500,62.500,-6.000,23.500
1.654,71.500,62.500,-5.500,24.000
1.655,72.000,62.500,-5.000,24.000
1.656,72.000,63.000,-4.500,24.500
1.657,72.500,63.000,-4.000,24.500
1.658,72.500,63.000,-4.000,25.000
1.659,73.000,63.000,-3.500,25.000
1.660,73.000,63.500,-3.500,25.500
1.661,73.000,63.500,-3.000,25.500
1.662,73.000,63.500,-3.000,25.500
1.663,73.000,63.500,-3.000,25.000
1.664,73.000,63.500,-3.000,25.000
1.665,73.000,63.500,-3.000,25.000
1.666,73.000,63.500,-3.500,25.000
1.667,73.000,63.500,-3.500,25.000
1.668,72.500,63.500,-3.500,25.000
1.669,72.500,63.000,-3.500,25.000
1.670,72.500,63.000,-4.000,25.000
1.671,72.000,63.500,-4.000,25.000
1.672,72.000,63.500,-4.000,24.500
1.673,72.000,63.500,-3.500,24.500
1.674,72.000,63.500,-3.500,24.500
1.675,72.000,63.500,-3.000,24.000
1.676,72.500,64.000,-2.500,24.500
1.677,73.000,64.500,-2.000,24.500
1.678,73.000,64.500,-1.500,24.500
1.679,73.000,65.000,-1.000,25.000
1.680,73.000,65.000,-0.500,25.500
1.681,73.000,65.500,0.000,26.000
1.682,73.000,65.500,0.500,26.000
1.683,72.500,65.500,0.500,26.000
1.684,72.500,65.500,0.500,26.000
1.685,72.500,65.500,0.500,26.000
1.686,72.500,65.000,0.500,26.000
1.687,72.500,65.000,0.500,25.500
1.688,72.500,65.000,0.500,25.500
1.689,73.000,65.000,0.000,25.000
1.690,73.000,64.500,0.000,25.000
1.691,73.000,64.500,-0.500,25.000
1.692,73.000,64.500,-0.500,24.500
1.693,73.000,64.500,-0.500,24.500
1.694,73.000,64.500,0.000,24.500
1.695,73.000,64.500,0.000,24.500
1.696,73.000,64.500,0.500,24.500
1.697,73.000,65.000,0.500,24.500
1.698,73.000,65.000,1.000,24.500
1.699,73.000,65.500,1.000,24.500
1.700,73.000,66.000,1.500,24.500
1.701,73.000,66.500,2.000,25.000
1.702,73.000,66.500,2.500,25.500
1.703,73.000,66.500,3.000,25.500
1.704,72.500,66.500,3.000,26.000
1.705,72.500,66.500,3.000,26.000
1.706,72.500,66.500,2.500,26.000
1.707,72.500,66.000,2.500,25.500
1.708,72.500,66.000,2.000,25.500
1.709,72.000,66.000,2.000,25.500
1.710,72.000,65.500,2.000,25.500
1.711,72.000,65.500,2.000,25.500
1.712,71.500,65.500,2.000,25.500
1.713,71.500,65.500,2.500,25.500
1.714,72.000,65.500,2.500,25.500
1.715,72.000,66.000,3.000,25.500
1.716,72.500,66.000,3.500,26.000
1.717,73.000,66.500,4.000,26.500
1.718,73.500,67.000,5.000,26.500
1.719,73.500,67.500,5.500,27.000
1.720,73.000,67.500,6.000,27.000
1.721,73.000,67.500,6.000,27.500
1.722,72.500,67.500,6.000,27.500
1.723,72.000,67.000,6.000,27.500
1.724,71.500,67.000,6.000,27.500
1.725,71.500,67.000,5.500,27.500
1.726,71.500,67.000,6.000,27.500
1.727,71.500,67.000,6.000,27.500
1.728,71.500,66.500,6.000,27.500
1.729,71.000,66.500,6.000,27.500
1.730,71.000,66.500,6.000,27.500
1.731,71.000,66.000,6.500,27.000
1.732,71.000,66.000,6.500,27.000
1.733,71.000,65.500,6.500,27.000
1.734,71.000,65.500,6.500,27.000
1.735,71.000,66.000,7.000,27.000
1.736,71.500,66.500,7.000,27.000
1.737,71.500,66.500,7.000,27.500
1.738,71.500,66.500,7.500,27.500
1.739,71.500,66.500,7.500,28.000
1.740,71.500,67.000,8.000,28.000
1.741,71.500,67.000,8.000,28.000
1.742,71.500,67.000,8.500,28.500
1.743,71.500,67.500,8.500,28.500
1.744,71.500,67.500,9.000,28.500
1.745,71.500,67.500,9.000,28.500
1.746,71.500,67.500,9.500,28.500
1.747,71.500,67.500,9.500,28.500
1.748,71.500,67.500,9.500,28.500
1.749,71.500,67.500,10.000,28.500
1.750,71.500,67.500,10.000,28.000
1.751,71.000,67.500,10.000,28.000
1.752,71.000,67.000,9.500,28.000
1.753,71.000,67.000,9.500,28.000
1.754,71.000,67.000,10.000,28.000
1.755,71.000,67.000,10.000,28.500
1.756,71.000,67.500,10.500,28.500
1.757,71.500,67.500,11.000,29.000
1.758,71.500,68.000,11.500,29.000
1.759,71.500,68.000,12.000,29.500
1.760,71.500,68.000,12.500,30.000
1.761,71.500,68.000,12.500,30.000
1.762,71.000,68.000,13.000,30.000
1.763,71.000,68.000,13.000,30.500
1.764,71.000,68.000,13.500,30.500
1.765,71.000,68.000,14.000,31.000
1.766,71.000,68.000,14.000,31.000
1.767,71.000,68.000,14.000,31.000
1.768,70.500,67.500,14.000,31.000
1.769,70.500,67.000,13.500,30.500
1.770,70.500,67.000,13.500,30.500
1.771,70.500,67.000,13.500,30.000
1.772,71.000,67.500,13.500,30.000
1.773,71.000,67.500,14.000,30.000
1.774,71.000,67.500,14.500,30.000
1.775,71.000,67.500,15.000,30.000
1.776,71.000,67.500,15.500,30.000
1.777,71.000,68.000,16.000,30.500
1.778,71.500,68.000,16.500,31.000
1.779,71.500,68.000,17.000,31.500
1.780,71.500,68.000,17.000,31.500
1.781,71.500,68.500,17.000,32.000
1.782,71.500,68.500,17.500,32.000
1.783,71.500,68.000,17.500,32.000
1.784,71.500,68.000,17.500,32.000
1.785,71.000,68.000,18.000,32.000
1.786,71.000,67.500,18.000,32.000
1.787,71.000,67.500,18.000,32.000
1.788,71.000,67.500,18.500,32.000
1.789,71.000,67.500,18.500,32.000
1.790,71.000,67.500,18.500,32.000
1.791,71.000,67.500,18.500,31.500
1.792,71.000,67.500,18.000,31.500
1.793,71.000,67.500,18.500,31.000
1.794,71.000,67.500,18.500,31.000
1.795,71.000,68.000,19.000,31.000
1.796,71.000,68.000,19.500,31.500
1.797,71.000,68.000,20.000,31.500
1.798,71.000,68.500,20.500,32.000
1.799,71.000,68.500,21.000,32.500
1.800,71.000,68.500,21.000,32.500
1.801,71.000,68.500,21.500,33.000
1.802,71.000,68.500,21.500,33.000
1.803,71.000,68.500,21.500,33.000
1.804,71.000,68.500,22.000,33.000
1.805,70.500,68.000,22.000,33.000
1.806,70.500,68.000,22.000,32.500
1.807,70.500,67.500,22.000,32.500
1.808,70.000,67.500,22.000,32.000
1.809,70.000,67.500,22.000,31.500
1.810,69.500,67.000,22.000,31.000
1.811,69.500,67.000,22.000,30.500
1.812,69.500,67.000,22.000,30.500
1.813,69.500,67.000,22.000,30.500
1.814,70.000,67.000,22.000,30.000
1.815,70.000,67.000,22.000,30.000
1.816,70.000,67.500,22.500,30.000
1.817,70.000,67.500,22.500,30.000
1.818,70.000,67.500,22.500,30.000
1.819,70.000,67.500,22.500,30.000
1.820,70.000,68.000,22.500,30.000
1.821,70.000,68.000,23.000,30.000
1.822,70.500,68.000,23.000,30.000
1.823,70.500,68.000,23.500,30.000
1.824,70.500,68.000,23.500,30.000
1.825,70.500,68.000,23.500,29.500
1.826,70.500,67.500,23.000,29.500
1.827,70.000,67.000,23.000,29.000
1.828,69.500,66.500,22.500,28.500
1.829,69.000,66.000,22.500,28.000
1.830,69.000,65.500,22.500,28.000
1.831,69.000,65.500,22.500,27.500
1.832,69.000,65.000,22.500,27.500
1.833,69.000,65.000,22.500,27.000
1.834,69.000,65.000,22.500,26.500
1.835,69.000,64.500,22.500,26.000
1.836,69.000,64.500,22.500,26.000
1.837,69.000,64.500,23.000,26.000
1.838,69.000,64.500,23.000,26.000
1.839,69.500,64.500,23.000,26.000
1.840,69.500,64.500,23.000,26.000
1.841,69.500,64.500,23.500,26.000
1.842,70.000,64.500,24.000,26.000
1.843,70.000,65.000,24.500,26.000
1.844,70.500,65.000,25.000,26.000
1.845,70.500,65.000,25.000,25.500
1.846,70.000,65.000,25.500,25.500
1.847,70.000,65.000,25.500,25.000
1.848,70.000,65.000,25.500,25.000
1.849,70.000,64.500,25.000,24.500
1.850,70.000,64.500,25.000,24.500
1.851,70.000,64.500,25.000,24.000
1.852,70.500,64.500,25.000,24.000
1.853,70.500,64.500,25.000,24.000
1.854,71.000,64.500,25.500,24.500
1.855,71.000,64.500,26.000,24.500
1.856,71.500,65.000,26.000,25.000
1.857,71.500,65.000,26.500,25.500
1.858,72.000,65.500,27.000,25.500
1.859,72.000,65.500,27.500,26.000
1.860,72.500,66.000,28.000,26.500
1.861,72.500,66.500,28.500,26.500
1.862,72.500,66.500,29.000,26.500
1.863,72.500,66.500,29.500,26.500
1.864,72.500,66.500,29.500,26.500
1.865,72.000,66.500,29.500,26.500
1.866,72.000,66.000,29.500,26.500
1.867,72.000,66.000,29.500,26.500
1.868,71.500,66.000,29.500,26.500
1.869,71.500,66.000,29.500,26.500
1.870,71.500,66.000,29.500,26.500
1.871,72.000,66.000,30.000,26.500
1.872,72.500,66.000,30.500,26.500
1.873,73.000,66.500,31.000,26.500
1.874,74.000,67.000,31.500,27.000
1.875,74.500,67.500,31.500,27.000
1.876,75.000,68.000,32.000,27.500
1.877,75.500,68.500,32.500,28.000
1.878,76.000,69.000,33.000,28.000
1.879,76.000,69.000,33.500,28.000
1.880,76.000,69.000,33.500,28.000
1.881,75.500,68.500,33.500,27.500
1.882,74.500,67.500,33.000,27.000
1.883,73.500,66.000,32.000,26.000
1.884,71.500,64.500,30.500,25.000
1.885,69.500,62.000,28.500,23.500
1.886,67.000,59.000,26.000,22.000
1.887,64.000,56.500,24.000,20.500
1.888,62.000,54.000,22.000,19.000
1.889,60.500,52.500,20.500,18.500
1.890,59.500,51.000,19.500,18.000
1.891,59.500,51.000,19.500,17.500
1.892,60.000,51.500,20.000,17.500
1.893,61.000,52.500,21.500,18.000
1.894,63.000,54.000,23.000,19.000
1.895,65.000,56.500,25.500,20.500
1.896,67.500,59.500,28.000,22.000
1.897,70.500,63.000,31.500,24.000
1.898,74.000,66.500,34.500,26.000
1.899,77.000,69.500,37.500,28.000
1.900,79.000,72.500,40.000,29.500
1.901,80.500,74.000,41.500,30.500
1.902,81.500,75.000,42.500,31.000
1.903,81.500,75.500,42.500,31.000
1.904,81.000,75.000,42.500,30.500
1.905,80.500,74.000,41.500,30.000
1.906,79.500,73.000,40.500,29.000
1.907,78.000,71.500,39.500,28.000
1.908,77.000,70.500,38.500,27.500
1.909,76.500,69.500,37.500,26.500
1.910,76.000,68.500,37.000,26.000
1.911,75.500,68.000,36.500,25.500
1.912,75.500,67.500,36.000,25.500
1.913,75.500,67.500,36.000,25.500
1.914,75.500,67.500,36.000,25.500
1.915,75.500,67.500,36.500,25.500
1.916,76.000,68.000,36.500,25.500
1.917,76.000,67.500,37.000,26.000
1.918,76.000,68.000,37.000,26.000
1.919,76.000,68.000,37.000,26.500
1.920,76.500,68.000,37.500,27.000
1.921,76.500,68.000,38.000,27.000
1.922,76.500,68.500,38.500,27.500
1.923,76.500,68.500,38.500,27.500
1.924,76.500,68.500,38.500,27.500
1.925,76.500,68.500,38.500,27.500
1.926,76.500,68.500,38.500,27.500
1.927,76.000,68.000,38.500,27.500
1.928,75.500,68.000,38.000,27.500
1.929,75.500,67.500,38.000,27.500
1.930,75.500,67.000,38.000,27.500
1.931,75.500,67.000,38.000,27.000
1.932,75.500,67.000,38.000,27.000
1.933,76.000,66.500,38.500,27.000
1.934,76.000,66.500,38.500,27.000
1.935,76.000,67.000,38.500,27.500
1.936,76.000,67.000,38.500,27.500
1.937,76.000,67.500,39.000,27.500
1.938,76.500,68.000,39.000,28.000
1.939,76.500,68.000,39.500,28.500
1.940,76.500,68.500,39.500,28.500
1.941,76.500,68.500,40.000,29.000
1.942,76.500,69.000,40.500,29.000
1.943,76.500,69.000,40.500,29.000
1.944,76.500,68.500,41.000,29.000
1.945,76.500,68.500,41.000,29.000
1.946,76.500,68.500,41.000,29.000
1.947,76.500,68.000,41.000,29.000
1.948,77.000,68.000,41.000,29.000
1.949,77.000,68.000,41.000,29.000
1.950,77.500,68.500,41.500,29.000
1.951,77.500,68.500,41.500,29.500
1.952,77.500,69.000,42.000,29.500
1.953,77.500,69.000,42.500,29.500
1.954,77.500,69.000,42.500,29.500
1.955,77.500,69.000,43.000,29.500
1.956,77.500,69.000,43.000,30.000
1.957,77.500,69.000,43.500,30.000
1.958,77.500,69.500,43.500,30.000
1.959,77.000,69.500,44.000,30.000
1.960,77.000,69.500,44.500,30.500
1.961,77.000,70.000,44.500,30.500
1.962,77.000,70.000,45.000,31.000
1.963,77.000,70.000,45.500,31.500
1.964,77.000,70.500,46.000,32.000
1.965,77.000,70.500,46.500,32.000
1.966,77.500,70.500,46.500,32.000
1.967,77.500,70.500,47.000,32.000
1.968,77.500,71.000,47.000,32.000
1.969,77.500,71.000,47.000,32.000
1.970,77.000,71.000,47.000,32.000
1.971,77.000,71.000,47.000,32.000
1.972,77.000,71.000,47.500,32.000
1.973,77.000,71.000,47.500,31.500
1.974,77.000,70.500,48.000,31.500
1.975,77.000,71.000,48.000,31.500
1.976,77.500,71.000,48.500,31.500
1.977,78.000,71.500,49.000,32.000
1.978,78.500,72.000,49.500,32.500
1.979,79.000,72.500,50.000,33.000
1.980,79.500,73.000,50.500,33.500
1.981,80.000,73.500,51.000,34.000
1.982,80.500,73.500,51.500,34.000
1.983,80.500,73.500,51.500,34.500
1.984,80.500,73.500,52.000,35.000
1.985,80.500,73.500,52.000,35.000
1.986,80.500,73.500,52.500,35.000
1.987,80.500,73.500,52.500,35.500
1.988,80.500,73.500,52.500,35.500
1.989,80.000,73.500,52.500,35.500
1.990,80.000,73.500,52.500,35.500
1.991,80.000,73.500,52.500,35.500
1.992,80.500,73.500,52.500,35.500
1.993,80.500,73.500,52.500,35.500
1.994,81.000,74.000,52.500,35.500
1.995,81.000,74.000,53.000,35.500
1.996,81.000,74.500,53.000,35.500
1.997,81.000,74.500,53.500,35.500
1.998,81.000,74.500,54.000,35.500
1.999,81.000,74.500,54.000,35.500
2.000,81.000,75.000,54.500,36.000
2.001,81.000,75.000,55.000,36.000
2.002,81.000,75.000,55.500,36.500
2.003,81.000,75.000,56.000,37.000
2.004,81.500,75.500,56.000,37.000
2.005,81.500,75.500,56.500,37.000
2.006,81.000,75.000,56.500,37.000
2.007,81.000,75.000,56.000,37.000
2.008,81.000,75.000,56.000,37.000
2.009,81.000,75.000,56.000,36.500
2.010,81.000,75.000,56.000,36.500
2.011,81.000,75.000,56.000,36.500
2.012,81.000,75.000,56.500,36.000
2.013,81.000,75.000,56.500,36.000
2.014,81.500,75.000,56.500,36.000
2.015,81.500,75.000,57.000,36.000
2.016,81.500,75.500,57.500,36.500
2.017,82.000,75.500,57.500,37.000
2.018,82.000,76.000,58.000,37.500
2.019,82.500,76.000,58.500,37.500
2.020,82.500,76.000,58.500,38.000
2.021,82.500,76.000,59.000,38.000
2.022,82.500,76.000,59.000,38.500
2.023,82.500,76.500,59.000,38.500
2.024,82.500,76.500,59.500,38.500
2.025,82.500,76.500,59.500,38.500
2.026,82.500,77.000,59.500,38.500
2.027,83.000,76.500,59.500,38.500
2.028,83.000,76.500,59.500,38.500
2.029,83.000,76.000,59.500,38.000
2.030,83.000,75.500,59.000,38.000
2.031,83.000,75.500,59.500,38.000
2.032,83.500,75.500,59.500,38.000
2.033,83.500,75.500,59.500,38.000
2.034,83.500,76.000,60.000,38.000
2.035,83.500,76.000,60.000,38.000
2.036,83.000,76.000,60.000,38.000
2.037,83.000,76.500,60.500,38.500
2.038,83.000,76.500,61.000,38.500
2.039,83.000,77.000,61.000,38.500
2.040,83.500,77.500,61.500,39.000
2.041,83.500,78.000,62.000,39.000
2.042,83.500,78.500,62.000,39.000
2.043,83.500,78.500,62.000,39.000
2.044,83.500,78.500,62.000,39.000
2.045,84.000,78.500,62.000,39.000
2.046,84.000,78.500,62.000,39.000
2.047,84.000,78.000,62.000,39.000
2.048,83.500,78.000,62.000,39.000
2.049,83.500,78.000,62.000,39.000
2.050,83.500,78.000,62.000,39.000
2.051,84.000,78.500,62.000,39.000
2.052,84.000,79.000,62.500,39.500
2.053,84.500,79.500,63.000,40.000
2.054,84.500,79.500,63.500,40.000
2.055,85.000,80.000,64.000,40.500
2.056,85.000,80.000,64.500,41.000
2.057,85.000,80.000,64.500,41.500
2.058,85.500,80.000,65.500,42.000
2.059,85.500,80.000,66.000,42.500
2.060,86.000,80.500,66.500,42.500
2.061,86.000,80.500,67.000,43.000
2.062,86.000,80.500,67.500,43.000
2.063,86.500,80.500,67.500,43.500
2.064,86.500,80.500,68.000,43.500
2.065,86.500,80.500,68.000,44.000
2.066,86.000,80.500,68.000,44.000
2.067,86.000,80.500,68.000,44.000
2.068,86.000,80.500,68.500,44.000
2.069,86.000,80.500,68.500,44.000
2.070,86.500,80.500,68.500,44.000
2.071,86.500,81.000,68.500,44.000
2.072,87.000,81.000,68.500,44.500
2.073,87.000,81.000,68.500,44.500
2.074,87.000,81.500,68.500,45.000
2.075,87.500,81.500,69.000,45.000
2.076,87.500,82.000,69.000,45.500
2.077,88.000,82.500,69.500,45.500
2.078,88.500,83.000,69.500,46.000
2.079,88.500,83.500,70.000,46.000
2.080,88.500,83.500,70.500,46.500
2.081,88.500,84.000,71.000,47.000
2.082,88.500,84.000,71.000,47.000
2.083,88.500,84.500,71.500,47.000
2.084,88.500,84.500,71.500,47.000
2.085,88.500,84.500,72.000,47.000
2.086,88.500,84.500,72.000,47.000
2.087,88.500,84.500,71.500,47.000
2.088,88.500,84.500,71.500,46.500
2.089,88.000,84.500,71.500,46.500
2.090,88.000,84.500,71.500,46.000
2.091,88.000,85.000,71.500,46.000
2.092,88.000,85.000,71.500,46.000
2.093,88.000,85.000,72.000,46.000
2.094,88.500,85.000,72.000,46.500
2.095,88.500,85.500,72.500,47.000
2.096,89.000,86.000,73.500,47.000
2.097,89.500,86.500,74.000,47.500
2.098,89.500,87.000,74.500,48.000
2.099,89.500,87.000,75.000,48.000
2.100,89.000,87.500,75.000,48.000
2.101,89.000,87.500,75.000,48.000
2.102,89.000,87.500,75.000,48.000
2.103,89.000,87.500,75.000,48.000
2.104,89.500,87.500,75.000,48.000
2.105,90.000,87.000,75.000,48.000
2.106,90.000,87.000,75.000,48.000
2.107,90.500,87.000,75.000,48.000
2.108,90.500,87.000,75.000,48.000
2.109,90.500,87.500,75.000,48.000
2.110,90.500,87.500,75.000,47.500
2.111,90.500,87.500,75.000,47.500
2.112,90.500,87.500,75.000,47.500
2.113,90.500,87.500,75.500,47.500
2.114,91.000,87.500,75.500,47.500
2.115,91.000,87.500,76.000,48.000
2.116,91.000,87.500,76.500,48.500
2.117,91.000,88.000,77.000,49.000
2.118,91.500,88.500,77.500,49.500
2.119,92.000,88.500,78.000,49.500
2.120,92.000,89.000,78.500,50.000
2.121,92.500,89.500,78.500,50.500
2.122,93.000,90.000,79.000,50.500
2.123,93.500,90.000,79.000,51.000
2.124,93.500,90.500,79.500,51.000
2.125,93.500,90.000,79.500,51.000
2.126,93.500,90.000,79.500,51.000
2.127,93.500,89.500,79.500,51.000
2.128,93.000,89.500,79.500,50.500
2.129,93.000,89.000,79.500,50.000
2.130,92.500,88.500,79.000,49.500
2.131,92.500,88.500,79.000,49.500
2.132,92.500,88.000,78.500,49.000
2.133,92.500,88.000,78.500,49.000
2.134,92.500,88.500,78.000,49.500
2.135,92.500,88.500,78.500,49.500
2.136,93.000,89.000,78.500,50.000
2.137,93.000,89.500,79.000,50.500
2.138,93.000,89.500,80.000,51.000
2.139,93.500,90.000,80.500,51.500
2.140,93.500,90.500,81.000,52.000
2.141,93.500,90.500,81.000,52.000
2.142,93.500,90.500,81.500,52.000
2.143,93.500,90.500,82.000,52.000
2.144,93.500,91.000,82.000,52.000
2.145,93.500,91.000,82.500,52.000
2.146,93.500,91.000,82.500,52.000
2.147,93.500,91.000,82.000,51.500
2.148,93.500,91.000,82.000,51.500
2.149,93.000,91.000,82.000,51.500
2.150,93.000,90.500,81.500,51.500
2.151,92.500,90.000,81.500,51.000
2.152,92.500,89.500,81.000,51.000
2.153,92.000,89.500,81.000,50.500
2.154,92.000,89.000,80.500,50.500
2.155,91.500,89.000,80.500,50.000
2.156,92.000,89.500,80.500,50.000
2.157,92.000,89.500,80.000,49.500
2.158,91.500,89.000,80.000,49.000
2.159,91.500,88.500,79.000,48.000
2.160,91.000,88.000,78.500,47.000
2.161,90.000,87.000,77.500,46.000
2.162,89.500,85.500,76.000,44.500
2.163,88.500,84.500,75.000,43.500
2.164,87.500,83.500,73.500,42.500
2.165,86.000,82.000,72.500,41.000
2.166,85.000,80.500,71.000,40.000
2.167,83.500,78.500,69.500,38.500
2.168,82.000,77.000,68.000,37.500
2.169,80.500,75.500,67.000,37.000
2.170,79.000,74.000,65.500,36.000
2.171,77.500,73.000,64.500,35.500
2.172,76.000,71.500,63.500,35.000
2.173,74.500,70.500,62.500,35.000
2.174,73.000,69.500,62.000,35.000
2.175,72.000,69.000,61.500,36.000
2.176,71.000,68.500,61.500,37.000
2.177,70.000,68.500,62.000,38.000
2.178,69.500,68.500,63.000,40.000
2.179,69.000,69.000,64.000,42.000
2.180,68.500,69.000,65.000,44.000
2.181,68.500,69.500,66.000,46.000
2.182,68.000,69.500,66.500,47.500
2.183,67.500,69.000,67.000,49.000
2.184,67.000,69.000,67.000,50.000
2.185,66.500,69.000,67.500,51.000
2.186,66.000,68.500,67.500,51.500
2.187,65.500,68.500,67.500,52.000
2.188,66.000,69.000,68.000,52.500
2.189,66.500,70.000,69.000,53.000
2.190,68.000,71.500,70.500,54.000
2.191,70.500,74.000,72.500,55.500
2.192,73.500,77.000,75.000,57.500
2.193,77.000,80.000,77.500,59.000
2.194,80.500,83.500,80.500,61.000
2.195,84.500,87.000,84.000,62.500
2.196,88.500,91.000,87.000,64.000
2.197,92.500,94.500,90.000,65.500
2.198,97.000,98.500,93.500,67.000
2.199,101.000,102.000,96.500,68.500
2.200,105.000,105.500,99.000,70.000
2.201,107.500,108.000,101.000,71.000
2.202,109.500,109.500,102.500,71.500
2.203,110.500,110.000,103.000,72.000
2.204,110.500,110.500,103.000,71.500
2.205,110.500,110.000,102.000,71.000
2.206,109.500,109.000,101.000,70.500
2.207,108.500,108.000,99.500,69.000
2.208,107.500,106.000,97.500,67.500
2.209,106.000,104.500,95.500,66.000
2.210,104.500,102.000,93.500,64.000
2.211,102.500,100.000,91.000,62.000
2.212,101.000,98.000,89.000,60.000
2.213,99.500,96.500,87.000,58.500
2.214,98.000,95.000,85.500,57.000
2.215,97.000,94.000,84.000,55.500
2.216,96.000,93.000,83.000,54.500
2.217,95.500,92.000,82.500,53.500
2.218,95.000,91.500,82.000,53.000
2.219,94.500,91.500,82.000,53.000
2.220,94.000,91.500,81.500,52.500
2.221,94.000,91.500,81.500,52.500
2.222,94.000,91.000,82.000,52.500
2.223,94.000,91.000,82.000,53.000
2.224,94.000,91.000,82.000,53.000
2.225,94.500,91.000,82.000,53.000
2.226,94.500,91.000,82.000,53.000
2.227,95.000,91.000,81.500,52.500
2.228,95.000,91.000,81.000,52.500
2.229,94.500,90.500,80.000,52.000
2.230,94.000,89.500,79.500,51.500
2.231,93.000,88.500,78.500,50.500
2.232,92.000,87.000,77.500,50.000
2.233,90.500,85.500,76.000,48.500
2.234,89.000,83.500,74.500,47.500
2.235,87.000,81.500,72.500,46.500
2.236,85.000,79.500,71.000,45.500
2.237,83.000,78.000,69.500,44.500
2.238,81.500,76.500,68.500,44.000
2.239,80.000,75.500,67.500,43.500
2.240,79.000,75.000,67.500,43.500
2.241,79.000,75.000,67.500,44.000
2.242,79.500,75.500,68.000,44.500
2.243,80.000,76.500,69.000,45.000
2.244,81.500,77.500,70.500,46.000
2.245,83.500,79.500,72.000,47.000
2.246,86.500,82.000,74.500,48.500
2.247,89.000,85.000,77.000,50.500
2.248,92.000,88.000,79.500,52.000
2.249,94.000,90.500,81.500,53.500
2.250,95.500,92.500,83.000,54.500
2.251,97.000,94.000,84.000,55.000
2.252,97.500,94.500,84.500,55.500
2.253,97.500,94.500,84.500,55.000
2.254,97.000,94.000,84.000,55.000
2.255,96.500,93.500,83.000,54.000
2.256,95.500,92.000,82.500,53.500
2.257,94.500,91.000,81.500,53.000
2.258,94.000,90.000,80.500,52.500
2.259,93.000,89.500,80.000,52.000
2.260,92.500,89.000,79.500,51.500
2.261,92.000,88.500,79.500,51.500
2.262,91.500,88.000,79.000,51.500
2.263,91.500,88.000,79.000,51.000
2.264,91.000,88.000,79.000,51.000
2.265,91.000,87.500,79.000,51.000
2.266,91.000,87.000,79.000,50.500
2.267,90.500,87.000,78.500,50.500
2.268,90.500,87.000,78.500,50.000
2.269,90.000,86.500,78.500,50.000
2.270,90.000,86.500,78.500,50.000
2.271,89.500,86.000,78.000,49.500
2.272,89.500,86.000,78.000,49.500
2.273,89.000,86.000,77.500,49.000
2.274,89.000,86.500,78.000,49.000
2.275,89.500,86.500,78.000,49.000
2.276,89.500,86.500,78.000,49.500
2.277,89.500,87.000,78.500,50.000
2.278,90.000,87.000,78.500,50.500
2.279,90.000,87.000,78.500,50.500
2.280,90.000,87.000,78.500,50.500
2.281,90.000,87.000,78.500,50.500
2.282,89.500,87.000,78.500,50.500
2.283,89.500,86.500,78.000,50.000
2.284,89.500,86.500,78.000,50.000
2.285,89.000,86.000,78.000,50.000
2.286,89.000,86.000,78.000,49.500
2.287,89.000,86.000,78.000,49.500
2.288,89.000,85.500,77.500,49.500
2.289,88.500,85.000,77.500,49.000
2.290,88.500,85.000,77.000,49.000
2.291,88.000,84.500,76.500,49.000
2.292,88.000,84.000,76.500,48.500
2.293,88.000,84.000,76.500,48.000
2.294,88.000,83.500,76.000,48.000
2.295,88.000,83.500,76.000,47.500
2.296,88.000,83.500,76.000,47.500
2.297,88.000,83.500,76.000,47.500
2.298,88.000,83.500,76.000,47.500
2.299,88.000,84.000,76.000,47.500
2.300,88.000,84.000,76.000,47.500
2.301,87.500,83.500,76.000,47.500
2.302,87.500,83.500,76.000,47.500
2.303,87.000,83.500,76.000,47.500
2.304,87.000,83.000,75.500,47.500
2.305,86.500,83.000,75.500,47.500
2.306,86.000,82.500,75.500,47.000
2.307,86.000,82.500,75.500,47.000
2.308,85.500,82.000,75.000,47.000
2.309,85.000,81.500,75.000,47.000
2.310,85.000,81.500,75.000,47.000
2.311,85.000,81.500,75.000,47.000
2.312,85.000,81.500,75.000,47.000
2.313,85.000,81.500,75.000,47.500
2.314,85.000,81.000,75.000,47.500
2.315,85.000,81.000,75.500,47.500
2.316,85.000,81.000,75.500,47.500
2.317,85.000,81.000,75.500,47.500
2.318,85.000,81.000,76.000,47.500
2.319,85.000,81.000,76.000,47.500
2.320,84.500,81.000,76.500,47.500
2.321,84.500,81.000,76.500,47.500
2.322,84.000,81.000,76.500,47.500
2.323,84.000,81.000,76.500,47.000
2.324,83.500,80.500,76.000,47.000
2.325,83.500,80.000,75.500,47.000
2.326,83.000,79.500,75.500,46.500
2.327,82.500,79.000,75.000,46.500
2.328,82.000,78.000,74.500,46.000
2.329,81.500,77.500,74.500,46.000
2.330,81.000,77.000,74.000,45.500
2.331,80.500,76.500,73.500,45.000
2.332,80.500,76.000,73.500,45.000
2.333,80.500,76.000,73.500,45.000
2.334,80.000,76.000,73.500,45.000
2.335,80.000,76.000,73.000,45.000
2.336,80.000,76.500,73.000,45.000
2.337,80.000,76.500,73.000,45.500
2.338,80.000,77.000,73.500,45.500
2.339,79.500,77.000,73.500,45.500
2.340,79.500,77.000,74.000,45.500
2.341,79.000,77.500,74.000,45.500
2.342,78.500,77.500,74.000,45.500
2.343,78.500,77.500,74.000,45.500
2.344,78.000,77.000,73.500,45.000
2.345,78.000,77.000,73.500,45.000
2.346,77.500,76.500,73.000,44.500
2.347,77.500,76.000,72.500,44.000
2.348,77.500,75.500,72.500,44.000
2.349,77.000,75.000,72.000,43.500
2.350,77.000,74.500,71.500,43.500
2.351,76.500,74.500,71.000,43.500
2.352,76.500,74.000,71.000,43.500
2.353,76.500,74.000,71.000,43.500
2.354,76.500,74.000,71.000,43.500
2.355,76.500,74.000,71.000,43.500
2.356,76.500,74.000,71.000,43.500
2.357,76.500,74.000,71.000,43.500
2.358,76.000,74.000,71.000,43.500
2.359,76.000,74.000,71.000,43.500
2.360,75.500,74.000,71.500,43.500
2.361,75.500,74.000,72.000,44.000
2.362,75.500,74.500,72.000,44.000
2.363,75.500,74.500,72.000,44.500
2.364,75.500,74.000,72.000,44.500
2.365,75.500,74.000,71.500,44.000
2.366,75.000,73.500,71.500,44.000
2.367,74.500,73.000,71.000,43.500
2.368,74.500,73.000,70.500,43.500
2.369,74.000,72.500,70.500,43.000
2.370,74.000,72.000,70.000,43.000
2.371,73.500,72.000,70.000,43.000
2.372,73.500,72.000,70.000,43.000
2.373,73.500,72.000,70.000,43.500
2.374,73.500,72.000,70.500,43.500
2.375,74.000,72.500,70.500,44.000
2.376,74.000,72.500,71.000,44.000
2.377,74.500,73.000,71.500,44.500
2.378,74.500,73.500,71.500,45.000
2.379,74.000,73.500,71.500,45.000
2.380,74.000,73.500,71.500,45.500
2.381,74.000,73.500,72.000,45.500
2.382,74.500,73.500,72.000,46.000
2.383,74.000,73.500,72.000,46.000
2.384,74.000,73.500,72.000,46.000
2.385,74.000,73.500,72.000,46.000
2.386,74.000,73.000,71.500,45.500
2.387,73.500,73.000,71.500,45.500
2.388,73.500,73.000,71.500,45.500
2.389,73.500,72.500,71.500,45.500
2.390,73.000,72.500,71.500,45.500
2.391,73.000,72.500,72.000,45.500
2.392,72.500,72.000,72.000,45.500
2.393,72.500,72.000,72.000,45.500
2.394,72.500,72.500,72.000,45.500
2.395,73.000,72.500,72.000,46.000
2.396,73.000,73.000,72.500,46.500
2.397,73.000,73.000,73.000,46.500
2.398,73.000,73.000,73.000,47.000
2.399,73.000,73.000,73.500,47.500
2.400,73.500,73.500,74.000,48.000
2.401,73.500,74.000,74.000,48.500
2.402,73.500,74.000,74.500,48.500
2.403,74.000,74.500,74.500,49.000
2.404,74.000,74.500,75.000,49.500
2.405,74.500,74.500,75.000,50.000
2.406,74.500,74.500,75.500,50.000
2.407,74.500,74.500,75.000,50.000
2.408,74.000,74.500,75.000,49.500
2.409,74.000,74.500,74.500,49.500
2.410,73.500,74.500,74.500,49.500
2.411,73.500,74.000,74.500,49.500
2.412,73.500,74.000,74.500,49.000
2.413,73.500,74.000,74.000,49.000
2.414,73.500,74.500,74.500,49.000
2.415,74.000,74.500,74.500,49.000
2.416,74.000,75.000,75.000,49.500
2.417,74.500,75.500,75.500,50.000
2.418,74.500,76.000,76.000,50.000
2.419,74.500,76.000,76.500,50.500
2.420,74.500,76.500,76.500,51.000
2.421,75.000,76.500,77.000,51.500
2.422,75.000,76.500,77.500,51.500
2.423,75.000,76.500,78.000,52.000
2.424,75.500,76.500,78.500,51.500
2.425,75.500,76.500,78.500,51.500
2.426,75.500,76.000,78.500,51.000
2.427,75.000,76.000,78.500,51.000
2.428,74.500,76.000,78.000,50.500
2.429,74.500,75.500,78.000,50.000
2.430,74.000,75.000,77.500,49.500
2.431,74.000,75.000,77.000,49.000
2.432,74.000,75.000,77.000,48.500
2.433,74.000,74.500,77.000,48.000
2.434,74.000,74.500,77.000,48.000
2.435,74.000,74.500,77.000,47.500
2.436,74.000,74.500,77.000,47.500
2.437,74.000,74.500,76.500,47.000
2.438,73.500,74.500,76.500,47.000
2.439,73.500,74.500,77.000,47.000
2.440,73.000,74.500,77.000,46.500
2.441,73.000,74.500,77.500,46.500
2.442,73.000,74.500,77.500,46.500
2.443,73.000,75.000,78.000,46.500
2.444,73.000,75.000,78.000,46.500
2.445,72.500,75.000,77.500,46.000
2.446,72.000,74.500,77.500,45.500
2.447,72.000,74.500,77.000,45.500
2.448,71.500,74.500,77.000,45.000
2.449,71.500,74.000,76.500,44.500
2.450,71.500,73.500,76.500,44.500
2.451,71.000,73.500,76.500,44.000
2.452,71.000,73.000,76.000,43.500
2.453,71.000,73.000,76.000,43.000
2.454,71.000,72.500,75.500,43.000
2.455,71.000,73.000,76.000,42.500
2.456,71.000,73.000,76.000,42.500
2.457,71.500,73.500,76.500,42.500
2.458,71.500,74.000,76.500,42.500
2.459,71.500,74.000,77.000,43.000
2.460,71.500,74.000,77.500,43.000
2.461,71.500,74.500,78.000,43.000
2.462,71.500,74.500,78.000,43.000
2.463,71.500,74.500,78.500,43.000
2.464,71.500,74.500,78.500,43.000
2.465,71.500,74.000,78.500,43.000
2.466,71.500,74.000,78.000,43.000
2.467,71.500,74.000,78.000,42.500
2.468,71.500,73.500,77.500,42.500
2.469,71.000,73.500,77.500,42.000
2.470,71.000,73.000,77.000,41.500
2.471,71.000,72.500,77.000,41.000
2.472,70.500,72.000,77.000,40.500
2.473,71.000,72.000,77.000,40.500
2.474,71.000,72.000,77.000,40.000
2.475,71.500,72.000,77.000,40.000
2.476,71.500,72.500,77.500,40.000
2.477,72.000,72.500,77.500,40.500
2.478,72.500,73.000,78.000,40.500
2.479,72.500,73.500,78.500,41.000
2.480,72.500,74.000,79.000,41.500
2.481,72.500,74.500,79.500,42.000
2.482,72.500,74.500,79.500,42.500
2.483,72.000,74.500,80.000,42.500
2.484,72.000,74.500,80.000,43.000
2.485,72.000,74.500,80.500,43.000
2.486,72.000,74.500,80.500,43.000
2.487,72.000,74.000,80.500,43.000
2.488,72.500,74.000,81.000,43.000
2.489,72.500,74.000,81.000,43.000
2.490,73.000,73.500,80.500,43.000
2.491,73.000,73.500,80.500,43.000
2.492,73.000,73.500,80.000,42.500
2.493,73.000,73.000,80.000,42.500
2.494,73.500,73.500,80.000,42.500
2.495,73.500,73.500,80.000,43.000
2.496,73.500,74.000,80.000,43.000
2.497,74.000,74.000,80.500,43.000
2.498,74.000,74.500,81.000,43.000
2.499,74.000,74.500,81.000,43.000
2.500,74.000,74.500,81.500,43.000
2.501,74.000,75.000,81.500,43.500
2.502,74.000,75.000,81.500,43.500
2.503,74.000,75.000,81.500,44.000
2.504,74.500,75.500,82.000,44.500
2.505,74.500,75.500,82.000,44.500
2.506,75.000,75.500,82.000,44.500
2.507,75.000,75.500,82.000,44.000
2.508,75.000,75.000,82.000,44.000
2.509,75.000,75.000,82.000,43.500
2.510,75.000,75.000,82.000,43.000
2.511,75.500,74.500,82.000,43.000
2.512,75.500,74.500,82.000,43.000
2.513,75.500,75.000,82.000,43.000
2.514,75.500,75.000,82.000,43.000
2.515,75.500,75.000,82.000,43.000
2.516,75.500,75.500,82.000,43.500
2.517,76.000,75.500,82.500,43.500
2.518,76.000,76.000,83.000,43.500
2.519,76.500,76.500,83.500,44.000
2.520,76.500,76.500,83.500,44.000
2.521,77.000,76.500,84.000,44.000
2.522,77.000,77.000,84.000,44.500
2.523,77.000,77.000,84.000,44.500
2.524,77.000,77.000,84.000,44.500
2.525,77.000,77.000,84.000,44.500
2.526,76.500,77.000,84.000,44.500
2.527,76.500,77.000,84.000,44.500
2.528,76.000,76.500,83.500,44.000
2.529,76.000,76.500,83.500,44.000
2.530,75.500,76.500,83.000,44.000
2.531,75.500,76.000,82.500,44.000
2.532,75.500,76.500,82.500,44.500
2.533,76.000,76.500,83.000,44.500
2.534,76.000,76.500,83.000,44.500
2.535,76.000,77.000,83.500,44.500
2.536,76.500,77.500,83.500,45.000
2.537,76.500,77.500,84.000,45.000
2.538,77.000,78.000,84.000,45.500
2.539,77.000,78.500,84.500,46.000
2.540,77.000,79.000,85.000,46.500
2.541,77.000,79.500,85.500,47.000
2.542,77.000,79.500,85.500,47.000
2.543,77.000,80.000,85.500,47.000
2.544,77.000,80.000,85.500,47.000
2.545,77.000,80.000,85.500,47.000
2.546,77.000,79.500,85.000,46.500
2.547,76.500,79.000,84.000,46.000
2.548,76.000,78.500,83.500,46.000
2.549,75.500,77.500,83.000,45.500
2.550,75.000,77.500,82.500,45.500
2.551,74.500,77.000,82.500,45.500
2.552,74.500,77.000,82.500,45.500
2.553,74.500,77.000,82.500,45.500
2.554,74.000,77.000,82.500,45.500
2.555,74.000,77.000,82.500,46.000
2.556,74.000,77.000,83.000,46.000
2.557,74.000,77.500,83.500,46.000
2.558,74.500,77.500,83.500,46.500
2.559,74.500,78.000,84.000,46.500
2.560,75.000,78.000,84.000,47.000
2.561,75.000,78.500,84.500,47.000
2.562,75.000,78.500,84.500,47.500
2.563,75.000,78.500,84.500,47.500
2.564,75.000,79.000,84.500,47.500
2.565,75.000,79.000,84.500,47.500
2.566,75.000,79.000,84.000,47.500
2.567,75.000,79.000,84.000,47.500
2.568,75.000,79.000,84.000,47.500
2.569,75.000,79.000,84.000,47.500
2.570,75.500,79.000,84.000,47.500
2.571,75.500,79.500,84.000,48.000
2.572,76.000,79.500,84.000,48.000
2.573,76.000,80.000,84.000,48.000
2.574,76.000,80.500,84.000,48.000
2.575,76.500,80.500,84.000,48.000
2.576,76.500,81.000,84.000,48.000
2.577,76.500,81.000,84.000,48.000
2.578,76.500,81.000,84.000,48.000
2.579,76.000,80.500,83.500,48.000
2.580,75.500,80.000,83.000,48.000
2.581,74.000,78.500,82.000,47.500
2.582,72.500,76.500,81.000,46.500
2.583,70.500,74.500,79.500,45.500
2.584,68.000,72.000,77.500,44.000
2.585,65.500,69.500,75.000,42.500
2.586,63.000,67.000,73.000,41.500
2.587,61.500,65.500,71.500,40.000
2.588,60.000,64.000,70.500,39.500
2.589,59.500,63.500,69.500,39.000
2.590,59.500,63.000,69.500,38.500
2.591,60.000,63.500,69.500,38.500
2.592,61.000,64.000,70.000,39.000
2.593,62.500,65.500,71.500,39.500
2.594,64.500,67.500,73.500,41.000
2.595,67.000,70.500,76.000,43.000
2.596,70.000,73.500,79.000,45.000
2.597,73.000,77.000,81.500,46.500
2.598,75.500,80.000,84.000,48.000
2.599,77.500,82.000,86.000,49.500
2.600,79.000,83.500,87.500,50.500
2.601,79.500,84.500,88.000,51.000
2.602,80.000,85.000,88.000,51.000
2.603,79.500,84.500,87.500,50.500
2.604,78.500,84.000,87.000,50.000
2.605,77.000,83.000,86.000,49.000
2.606,76.000,82.000,84.500,48.000
2.607,74.500,80.500,83.500,47.500
2.608,73.500,79.000,82.500,47.000
2.609,72.500,78.000,81.500,46.500
2.610,72.500,77.500,81.000,46.000
2.611,72.500,77.000,81.000,46.000
2.612,72.500,76.500,80.500,45.500
2.613,72.500,76.500,80.500,45.500
2.614,72.500,76.500,80.500,45.500
2.615,72.500,76.500,80.500,45.000
2.616,72.500,77.000,80.500,45.500
2.617,73.000,77.000,81.000,45.500
2.618,73.000,77.000,81.000,46.000
2.619,73.000,77.000,81.500,46.000
2.620,73.000,77.000,81.500,46.000
2.621,73.000,77.000,81.500,46.500
2.622,73.000,77.000,81.500,46.500
2.623,73.000,77.000,81.500,46.500
2.624,73.000,77.000,81.500,46.500
2.625,73.000,77.000,81.500,46.500
2.626,73.000,76.500,81.000,46.500
2.627,73.000,76.500,80.500,46.500
2.628,72.500,76.000,80.500,46.000
2.629,72.500,75.500,80.000,46.000
2.630,73.000,75.500,80.000,46.000
2.631,73.000,75.500,80.500,46.000
2.632,73.500,75.500,80.500,46.000
2.633,74.000,75.500,80.500,45.500
2.634,74.000,75.500,80.000,46.000
2.635,74.500,76.000,80.500,46.000
2.636,74.500,76.000,80.500,46.000
2.637,74.500,76.500,80.500,46.000
2.638,74.500,76.500,80.500,46.500
2.639,74.500,76.500,80.500,46.500
2.640,74.500,76.500,80.500,46.500
2.641,74.000,76.000,80.500,46.500
2.642,74.000,76.000,80.500,46.500
2.643,74.000,76.000,80.000,46.500
2.644,74.000,76.000,80.000,46.500
2.645,74.000,76.000,80.000,46.000
2.646,74.000,76.000,80.000,46.000
2.647,74.000,76.000,79.500,45.500
2.648,74.000,75.500,79.500,45.500
2.649,74.000,75.500,79.000,45.000
2.650,73.500,75.500,79.000,45.000
2.651,73.500,75.500,78.500,45.000
2.652,73.000,75.000,78.500,44.500
2.653,73.000,74.500,78.500,44.500
2.654,73.000,74.500,78.500,44.000
2.655,73.000,74.500,78.500,44.000
2.656,73.000,74.500,78.500,44.000
2.657,73.000,74.500,79.000,44.000
2.658,73.500,74.500,79.000,44.000
2.659,73.500,74.500,79.000,44.000
2.660,73.500,75.000,79.500,44.500
2.661,73.500,75.000,80.000,44.500
2.662,74.000,75.500,80.000,45.000
2.663,74.000,75.500,80.500,45.500
2.664,74.000,75.500,80.500,46.000
2.665,74.000,75.500,81.000,46.000
2.666,74.000,75.500,81.500,46.500
2.667,74.000,75.500,81.500,46.500
2.668,73.500,75.500,81.500,46.500
2.669,73.500,75.000,81.500,46.500
2.670,73.500,74.500,81.500,46.500
2.671,73.500,74.500,81.000,46.500
2.672,73.500,74.500,81.000,46.000
2.673,73.500,74.500,81.000,46.000
2.674,73.500,74.500,81.500,46.500
2.675,73.500,74.500,81.500,46.500
2.676,74.000,74.500,81.500,47.000
2.677,74.000,74.500,82.000,47.500
2.678,74.000,75.000,82.500,47.500
2.679,74.000,75.000,82.500,48.000
2.680,74.000,75.000,83.000,48.500
2.681,74.000,75.000,83.500,48.500
2.682,74.000,75.000,83.500,48.500
2.683,74.000,74.500,84.000,48.500
2.684,74.000,74.500,84.000,48.500
2.685,73.500,74.000,83.500,48.000
2.686,73.500,74.000,83.500,48.000
2.687,73.000,73.500,83.000,47.500
2.688,72.500,73.000,83.000,47.000
2.689,72.500,72.500,83.000,46.500
2.690,72.000,72.000,82.500,46.500
2.691,72.000,72.000,82.500,46.000
2.692,72.000,71.500,82.500,45.500
2.693,72.000,71.500,82.500,45.500
2.694,72.000,71.000,82.000,45.500
2.695,72.000,71.000,82.000,45.500
2.696,72.000,71.000,82.000,45.500
2.697,72.000,70.500,82.000,45.500
2.698,72.000,70.500,82.000,45.500
2.699,72.500,70.500,82.000,45.500
2.700,72.500,71.000,82.500,45.500
2.701,73.000,71.000,82.500,45.500
2.702,73.500,71.500,83.000,45.500
2.703,73.500,71.500,83.000,46.000
2.704,73.500,71.500,83.500,46.000
2.705,73.500,72.000,83.500,46.000
2.706,73.500,72.000,83.000,46.000
2.707,73.500,72.000,83.000,45.500
2.708,73.000,71.500,83.000,45.500
2.709,73.000,71.500,83.000,45.000
2.710,72.500,71.000,83.000,45.000
2.711,72.000,70.500,83.000,45.000
2.712,72.000,70.500,82.500,45.000
2.713,72.000,70.500,82.500,44.500
2.714,72.000,70.500,82.500,44.500
2.715,72.000,70.500,83.000,44.500
2.716,72.500,70.500,83.000,44.500
2.717,72.500,70.500,83.500,45.000
2.718,73.000,70.500,83.500,45.000
2.719,73.000,70.500,84.000,45.000
2.720,73.000,71.000,84.000,45.500
2.721,73.000,71.000,84.500,45.500
2.722,73.500,71.000,85.000,45.500
2.723,73.500,71.500,85.000,46.000
2.724,73.500,71.500,85.500,46.000
2.725,73.500,71.000,85.500,46.000
2.726,73.500,70.500,86.000,46.000
2.727,73.500,70.500,86.000,46.000
2.728,73.000,70.000,86.000,46.000
2.729,73.000,70.000,86.000,45.500
2.730,73.000,70.000,86.000,45.500
2.731,73.000,70.000,85.500,45.000
2.732,73.000,70.000,85.500,45.000
2.733,73.000,70.000,86.000,45.000
2.734,73.500,70.000,86.000,45.000
2.735,73.500,70.500,86.000,45.000
2.736,74.000,70.500,86.500,45.500
2.737,74.000,70.500,86.500,45.500
2.738,74.000,70.500,86.500,45.000
2.739,74.000,70.500,87.000,45.000
2.740,74.000,71.000,87.000,45.000
2.741,74.000,71.000,87.500,45.500
2.742,74.000,71.500,87.500,45.500
2.743,74.000,71.500,88.000,45.500
2.744,74.000,71.500,88.000,45.500
2.745,74.000,71.000,88.000,45.500
2.746,73.500,70.500,87.500,45.000
2.747,73.500,69.500,87.500,45.000
2.748,73.000,69.000,87.500,44.500
2.749,73.000,68.500,87.500,44.500
2.750,73.000,68.500,87.500,44.500
2.751,73.000,68.000,87.500,44.500
2.752,73.000,68.000,87.500,44.500
2.753,73.000,68.000,87.500,44.500
2.754,73.500,68.000,88.000,44.500
2.755,73.500,68.500,88.500,45.000
2.756,73.500,68.500,88.500,45.000
2.757,73.500,69.000,89.000,45.000
2.758,73.500,69.000,89.500,45.500
2.759,73.500,69.000,90.000,45.500
2.760,73.000,69.000,90.000,45.000
2.761,73.000,69.000,90.000,45.000
2.762,73.000,69.000,90.000,45.000
2.763,73.000,68.500,89.500,44.500
2.764,73.000,68.500,89.500,44.000
2.765,72.500,68.000,89.000,43.500
2.766,72.500,67.000,88.500,43.000
2.767,72.000,66.500,88.000,42.500
2.768,71.500,66.000,87.500,41.500
2.769,71.500,65.000,87.000,40.500
2.770,70.500,64.000,86.000,39.500
2.771,70.000,63.500,85.000,38.000
2.772,69.000,62.500,84.000,36.500
2.773,68.500,61.000,82.500,35.000
2.774,67.500,60.000,81.500,34.000
2.775,66.500,58.500,80.500,32.500
2.776,65.500,57.500,79.500,31.500
2.777,64.500,56.000,78.500,30.500
2.778,63.500,55.000,77.500,29.500
2.779,62.500,53.500,77.000,29.000
2.780,61.000,52.000,76.000,28.500
2.781,60.000,51.000,75.000,28.000
2.782,58.500,49.500,74.000,27.500
2.783,57.000,48.500,73.500,27.500
2.784,55.000,47.000,72.500,27.500
2.785,53.000,45.500,71.500,27.500
2.786,51.500,44.000,71.000,28.000
2.787,49.500,43.000,70.500,28.500
2.788,48.500,42.500,70.500,30.000
2.789,47.500,41.500,71.000,31.000
2.790,46.500,41.000,71.500,32.500
2.791,45.500,40.000,71.500,34.000
2.792,44.500,39.500,72.000,35.000
2.793,43.500,39.000,72.000,36.500
2.794,43.000,38.500,72.500,37.500
2.795,42.500,38.500,72.500,38.500
2.796,42.000,38.500,73.000,40.000
2.797,42.000,38.500,73.500,41.000
2.798,42.000,38.500,74.000,42.000
2.799,42.500,38.500,75.000,43.000
2.800,43.500,39.500,76.000,44.000
2.801,45.000,41.000,78.000,45.500
2.802,48.000,43.000,80.500,47.500
2.803,51.000,45.500,83.000,49.500
2.804,54.500,48.500,86.000,51.500
2.805,58.000,51.000,89.000,53.000
2.806,61.500,53.500,91.500,55.000
2.807,65.000,56.000,93.500,56.500
2.808,69.500,59.000,96.000,57.500
2.809,73.500,62.000,98.500,59.000
2.810,77.500,65.000,100.500,60.000
2.811,81.000,67.500,102.500,60.500
2.812,83.500,69.500,103.500,61.000
2.813,85.000,70.000,103.500,60.500
2.814,85.500,70.000,103.000,60.000
2.815,85.500,69.500,102.500,59.500
2.816,85.000,68.000,101.000,58.500
2.817,84.500,66.000,99.500,57.000
2.818,83.000,63.500,98.000,55.500
2.819,81.000,61.000,95.500,53.500
2.820,78.500,58.000,92.500,51.000
2.821,76.000,54.500,90.000,48.500
2.822,74.000,51.500,87.000,46.000
2.823,71.500,48.500,84.000,44.000
2.824,69.500,45.500,81.000,42.000
2.825,67.500,43.000,79.000,40.000
2.826,66.000,41.000,76.500,38.500
2.827,64.500,38.500,74.500,37.000
2.828,63.000,36.500,72.500,35.500
2.829,61.500,34.000,70.500,34.500
2.830,60.500,32.000,68.500,33.000
2.831,59.500,30.000,67.000,32.000
2.832,58.500,28.500,65.500,31.000
2.833,58.000,27.000,64.500,30.500
2.834,57.500,25.500,63.500,30.000
2.835,57.000,24.500,63.000,29.500
2.836,57.000,24.000,62.500,29.500
2.837,57.000,23.000,62.500,29.500
2.838,56.500,22.500,62.000,29.000
2.839,56.000,21.500,62.000,29.000
2.840,56.000,21.000,61.500,29.000
2.841,55.500,20.000,61.000,28.500
2.842,55.000,19.000,60.000,28.500
2.843,55.000,18.000,59.500,28.500
2.844,54.500,16.500,58.500,28.000
2.845,54.000,15.500,58.000,28.000
2.846,53.500,14.500,57.000,27.500
2.847,53.000,13.000,56.000,27.000
2.848,52.500,12.000,55.500,26.000
2.849,52.500,11.000,54.500,25.500
2.850,52.000,9.500,53.500,25.000
2.851,52.000,8.500,53.000,25.000
2.852,51.500,7.500,52.500,24.500
2.853,51.000,6.500,51.500,24.000
2.854,50.500,5.500,51.000,23.500
2.855,50.500,5.000,50.500,23.000
2.856,50.000,4.000,50.000,23.000
2.857,50.000,3.500,49.500,23.000
2.858,50.000,3.500,49.500,23.500
2.859,50.000,3.000,49.500,23.500
2.860,50.000,2.500,49.500,23.500
2.861,50.000,2.000,49.500,24.000
2.862,50.000,1.500,49.500,24.000
2.863,49.500,1.000,49.000,23.500
2.864,49.000,0.000,48.000,23.500
2.865,48.500,-1.000,47.500,23.500
2.866,48.000,-2.000,47.000,23.000
2.867,48.000,-2.500,46.500,23.000
2.868,47.500,-3.500,46.500,23.000
2.869,47.000,-4.000,46.000,22.500
2.870,46.500,-5.000,45.500,22.500
2.871,46.500,-5.500,45.000,22.000
2.872,46.000,-6.000,44.500,21.500
2.873,46.000,-7.000,44.000,21.500
2.874,46.000,-7.000,44.000,21.000
2.875,46.000,-7.500,43.500,20.500
2.876,46.000,-8.000,43.500,20.500
2.877,46.000,-8.000,43.000,20.500
2.878,45.500,-8.500,43.000,20.500
2.879,45.500,-8.500,43.000,21.000
2.880,45.500,-9.000,43.000,21.500
2.881,45.500,-9.000,43.000,21.500
2.882,45.500,-9.000,43.500,22.000
2.883,45.500,-9.000,43.500,22.500
2.884,45.000,-9.500,43.500,22.500
2.885,44.500,-10.000,43.000,22.500
2.886,44.000,-10.500,43.000,22.500
2.887,44.000,-11.000,42.500,22.000
2.888,43.500,-11.000,42.500,22.000
2.889,43.000,-11.500,42.000,22.000
2.890,43.000,-12.000,42.000,22.000
2.891,43.000,-12.500,41.500,22.000
2.892,42.500,-13.000,41.000,22.000
2.893,42.500,-14.000,41.000,21.500
2.894,42.000,-14.500,40.500,21.500
2.895,42.000,-15.000,40.000,21.500
2.896,42.000,-15.000,40.000,21.500
2.897,42.000,-15.000,40.500,21.500
2.898,42.000,-15.000,40.500,22.000
2.899,42.000,-15.000,41.000,22.500
2.900,42.000,-15.000,41.500,23.000
2.901,42.000,-15.500,41.500,23.000
2.902,42.000,-16.000,41.500,23.500
2.903,41.500,-16.000,41.500,23.500
2.904,41.500,-16.500,41.500,23.500
2.905,41.500,-16.500,41.500,24.000
2.906,41.000,-17.000,41.500,24.000
2.907,41.000,-17.500,41.000,24.000
2.908,40.500,-17.500,41.000,23.500
2.909,40.500,-18.000,41.000,23.500
2.910,40.500,-18.000,41.000,23.500
2.911,40.500,-18.500,40.500,24.000
2.912,40.500,-18.500,40.500,24.000
2.913,40.500,-18.500,40.500,24.000
2.914,40.500,-18.500,40.000,24.000
2.915,40.500,-18.500,40.000,24.500
2.916,41.000,-18.000,40.500,24.500
2.917,41.500,-17.500,41.000,25.000
2.918,42.000,-16.500,42.000,25.500
2.919,42.500,-16.000,43.000,26.000
2.920,43.000,-15.000,43.500,26.500
2.921,43.500,-15.000,44.500,27.000
2.922,43.500,-14.500,45.000,27.500
2.923,43.500,-14.000,45.500,28.000
2.924,43.000,-14.000,46.000,28.000
2.925,43.000,-14.000,46.000,28.000
2.926,42.500,-14.500,45.500,28.000
2.927,41.500,-15.500,44.500,27.500
2.928,40.500,-17.000,43.500,27.000
2.929,39.500,-18.500,42.000,26.000
2.930,38.000,-21.000,39.500,25.000
2.931,36.000,-23.500,37.000,24.000
2.932,33.500,-27.000,34.500,22.500
2.933,31.000,-30.500,31.500,21.000
2.934,29.000,-33.500,29.000,19.500
2.935,27.000,-36.000,27.500,18.500
2.936,26.000,-37.500,26.500,18.500
2.937,25.000,-38.000,26.500,19.000
2.938,25.000,-37.000,27.500,20.000
2.939,25.500,-36.000,29.000,21.000
2.940,26.500,-34.000,31.000,23.000
2.941,28.500,-31.000,33.000,24.500
2.942,30.500,-28.000,36.000,26.500
2.943,33.500,-24.000,39.500,28.500
2.944,36.500,-20.000,43.500,30.500
2.945,39.500,-15.500,47.500,32.500
2.946,42.000,-12.000,50.500,34.500
2.947,44.000,-8.500,53.500,36.000
2.948,45.500,-6.500,55.500,37.000
2.949,46.500,-5.000,56.500,37.500
2.950,46.500,-4.500,56.500,37.500
2.951,46.500,-5.000,56.000,37.000
2.952,45.500,-6.500,55.000,36.500
2.953,44.500,-7.500,54.000,35.500
2.954,43.000,-9.000,52.500,34.500
2.955,42.000,-10.500,52.000,34.000
2.956,41.000,-11.500,51.000,33.500
2.957,40.500,-12.000,50.500,33.500
2.958,40.000,-12.500,50.500,33.500
2.959,40.000,-13.000,50.500,33.500
2.960,40.000,-13.000,50.500,33.500
2.961,40.000,-13.000,50.500,34.000
2.962,40.000,-13.000,50.500,34.000
2.963,40.000,-12.500,51.000,34.500
2.964,40.000,-12.500,51.500,35.000
2.965,40.000,-12.000,52.000,35.000
2.966,40.000,-12.000,52.000,35.000
2.967,40.000,-11.500,52.500,35.000
2.968,40.000,-12.000,52.500,35.000
2.969,39.500,-12.000,52.500,35.000
2.970,39.000,-12.000,52.500,34.500
2.971,39.000,-12.000,52.500,34.500
2.972,39.000,-12.000,52.500,34.500
2.973,39.000,-11.500,53.000,34.500
2.974,39.000,-11.500,53.000,34.500
2.975,39.000,-11.000,53.500,35.000
2.976,39.000,-10.500,54.000,35.500
2.977,39.000,-10.000,54.500,36.000
2.978,39.000,-9.500,55.000,36.500
2.979,39.000,-9.000,55.500,37.000
2.980,39.000,-8.500,56.000,37.500
2.981,39.500,-8.000,56.500,38.000
2.982,39.500,-7.500,57.000,38.500
2.983,39.500,-7.500,57.000,39.000
2.984,39.500,-7.000,57.500,39.000
2.985,39.500,-6.500,57.000,38.500
2.986,39.500,-6.500,57.000,38.500
2.987,39.000,-6.500,57.000,38.000
2.988,38.500,-7.000,56.500,38.000
2.989,38.500,-7.000,56.500,37.500
2.990,38.500,-7.000,56.500,38.000
2.991,38.500,-7.000,57.000,38.500
2.992,39.000,-7.000,57.500,38.500
2.993,39.000,-6.500,58.000,39.000
2.994,39.000,-6.000,58.000,39.000
2.995,39.500,-6.000,58.500,39.500
2.996,39.500,-5.500,59.000,39.500
2.997,40.000,-5.000,59.500,40.000
2.998,40.000,-4.500,60.000,40.500
2.999,40.000,-4.500,60.500,40.500
3.000,40.000,-4.000,61.000,41.000
3.001,40.000,-3.500,61.500,41.500
3.002,40.000,-3.000,62.000,42.000
3.003,40.000,-3.000,62.500,42.000
3.004,40.000,-2.500,63.000,42.000
3.005,40.000,-2.500,63.000,42.500
3.006,40.000,-2.500,63.000,42.500
3.007,40.000,-2.500,63.000,42.500
3.008,40.000,-2.500,63.000,42.500
3.009,39.500,-2.500,63.000,42.500
3.010,39.500,-2.500,62.500,42.000
3.011,39.000,-3.000,62.500,42.000
3.012,39.000,-3.000,62.500,41.500
3.013,38.500,-3.500,62.500,41.500
3.014,38.500,-3.500,62.500,41.000
3.015,38.500,-3.500,62.500,41.000
3.016,39.000,-3.000,63.000,41.000
3.017,39.000,-2.500,63.500,41.500
3.018,39.500,-2.000,64.000,42.000
3.019,39.500,-1.000,64.500,42.000
3.020,39.500,-0.500,65.000,42.500
3.021,40.000,0.000,65.500,42.500
3.022,40.000,0.500,65.500,42.500
3.023,40.000,0.500,65.500,43.000
3.024,40.000,0.500,66.000,43.000
3.025,40.000,1.000,66.000,43.000
3.026,39.500,0.500,66.000,43.000
3.027,39.500,0.500,65.500,43.000
3.028,39.500,0.000,65.000,43.000
3.029,39.000,-0.500,65.000,42.500
3.030,39.000,-1.000,64.500,42.500
3.031,38.500,-1.000,64.500,42.000
3.032,38.500,-1.000,64.500,42.000
3.033,38.000,-0.500,64.000,42.000
3.034,38.500,0.000,64.000,41.500
3.035,38.500,0.500,64.500,41.500
3.036,38.500,1.000,64.500,42.000
3.037,38.500,1.000,65.000,42.000
3.038,38.500,1.500,65.500,42.000
3.039,39.000,1.500,66.000,42.000
3.040,39.000,2.000,66.500,42.000
3.041,39.000,2.000,66.500,42.500
3.042,39.000,2.500,66.500,42.500
3.043,39.000,2.500,66.500,42.500
3.044,39.000,3.000,66.500,42.500
3.045,39.000,2.500,66.500,42.000
3.046,38.500,2.500,66.500,41.500
3.047,38.500,2.500,66.000,41.500
3.048,38.500,2.000,66.000,41.000
3.049,38.000,2.000,66.000,40.500
3.050,38.000,2.000,66.000,40.500
3.051,38.000,2.000,66.500,40.500
3.052,38.000,2.000,66.500,40.500
3.053,38.000,2.500,66.500,40.500
3.054,38.000,2.500,66.500,41.000
3.055,38.000,3.000,66.500,41.000
3.056,38.500,3.000,67.000,41.000
3.057,38.500,3.500,67.000,41.000
3.058,39.000,3.500,67.500,40.500
3.059,39.000,3.500,67.500,40.500
3.060,39.500,4.000,68.000,40.500
3.061,39.500,4.500,68.500,40.500
3.062,40.000,5.000,68.500,40.500
3.063,40.000,5.000,69.000,40.500
3.064,40.000,5.500,69.000,40.500
3.065,40.000,5.500,69.000,40.500
3.066,40.000,5.500,69.000,40.500
3.067,40.000,5.500,69.000,40.000
3.068,39.500,5.500,68.500,39.500
3.069,39.000,5.000,68.500,39.000
3.070,39.000,5.000,68.500,38.500
3.071,39.000,4.500,68.500,38.000
3.072,39.000,4.500,68.500,38.000
3.073,38.500,4.500,68.000,37.500
3.074,38.500,4.500,68.000,37.500
3.075,38.500,4.500,68.000,37.000
3.076,39.000,5.000,68.500,37.500
3.077,39.500,5.500,69.000,37.500
3.078,39.500,6.000,69.500,38.000
3.079,40.000,6.500,70.000,38.500
3.080,40.000,7.500,71.000,39.000
3.081,40.500,8.000,71.500,39.500
3.082,40.500,8.500,72.000,40.000
3.083,40.500,9.000,72.000,40.000
3.084,40.500,9.000,72.000,40.500
3.085,40.500,8.500,72.000,40.500
3.086,40.500,8.500,72.000,40.500
3.087,40.500,8.000,72.000,40.500
3.088,40.500,8.000,72.500,40.500
3.089,40.500,8.000,72.500,40.000
3.090,40.500,8.000,73.000,40.000
3.091,41.000,8.000,73.000,40.000
3.092,41.000,8.500,73.000,39.500
3.093,41.000,8.500,73.000,39.000
3.094,41.000,8.500,73.500,39.000
3.095,41.500,9.000,74.000,39.000
3.096,42.000,9.000,74.500,39.500
3.097,42.000,9.500,75.000,39.500
3.098,42.500,9.500,75.000,39.500
3.099,42.500,10.000,75.500,40.000
3.100,42.500,10.000,75.500,40.000
3.101,43.000,10.500,76.000,40.000
3.102,43.000,10.500,76.500,40.000
3.103,43.000,10.500,76.500,40.000
3.104,43.000,10.500,77.000,40.000
3.105,43.000,10.000,77.000,40.000
3.106,43.000,10.000,77.000,40.000
3.107,42.500,9.500,77.000,39.500
3.108,42.000,9.000,77.000,39.500
3.109,41.500,9.000,77.000,39.000
3.110,41.500,8.500,77.000,38.500
3.111,41.000,8.500,77.000,38.000
3.112,41.000,8.500,77.500,38.000
3.113,41.000,8.500,77.500,38.000
3.114,41.000,8.500,78.000,38.000
3.115,41.500,8.500,78.500,38.500
3.116,41.500,9.000,79.000,38.500
3.117,41.500,9.000,79.500,39.000
3.118,41.500,9.500,80.000,39.000
3.119,42.000,9.500,80.500,39.500
3.120,42.000,10.000,81.000,39.500
3.121,42.000,10.000,81.500,39.500
3.122,42.000,10.000,81.500,39.500
3.123,42.000,10.000,81.500,39.500
3.124,42.000,10.000,81.500,39.500
3.125,42.000,10.000,81.500,39.500
3.126,42.000,10.000,81.500,39.500
3.127,41.500,10.000,81.500,39.500
3.128,41.500,9.500,81.500,39.000
3.129,41.000,9.500,81.500,38.500
3.130,41.000,9.000,81.500,38.000
3.131,41.000,9.000,81.500,37.500
3.132,40.500,8.500,81.500,37.500
3.133,40.000,8.000,81.000,37.000
3.134,39.500,7.500,80.500,36.500
3.135,39.000,7.000,80.000,36.000
3.136,38.500,6.500,79.500,36.000
3.137,37.500,6.000,79.000,35.500
3.138,37.000,5.500,78.500,35.000
3.139,36.000,4.500,78.000,34.500
3.140,35.000,3.000,77.500,34.000
3.141,34.000,2.000,77.000,33.500
3.142,33.000,1.000,76.500,33.000
3.143,32.500,0.000,76.500,32.500
3.144,32.500,-0.500,76.000,32.000
3.145,32.500,-0.500,76.500,32.000
3.146,32.500,-0.500,76.500,32.500
3.147,33.000,-0.500,77.000,33.000
3.148,33.500,0.000,77.500,33.500
3.149,34.000,1.000,78.500,34.000
3.150,35.000,2.000,79.500,34.500
3.151,36.000,3.000,80.500,35.500
3.152,36.500,4.000,81.500,36.000
3.153,37.500,5.000,82.500,36.500
3.154,38.500,6.000,83.500,37.000
3.155,39.000,7.000,84.500,37.500
3.156,39.500,8.000,85.500,38.000
3.157,40.000,9.000,86.500,38.500
3.158,40.500,10.000,87.500,38.500
3.159,41.000,10.500,88.000,38.500
3.160,41.000,11.000,89.000,38.500
3.161,41.500,11.500,89.500,39.000
3.162,41.500,11.500,90.000,39.000
3.163,41.500,12.000,90.500,39.000
3.164,41.000,11.500,91.000,39.000
3.165,41.000,11.500,91.000,39.000
3.166,40.500,11.500,91.500,39.000
3.167,40.500,11.500,91.500,39.000
3.168,40.000,11.500,91.500,39.000
3.169,40.000,11.500,91.500,38.500
3.170,40.000,11.500,91.500,38.500
3.171,40.000,11.000,91.500,38.500
3.172,40.000,11.000,91.500,38.500
3.173,39.500,10.500,91.500,38.000
3.174,39.500,10.500,92.000,38.000
3.175,39.500,10.500,92.000,38.000
3.176,39.500,11.000,92.500,38.000
3.177,40.000,11.000,93.000,38.500
3.178,40.000,11.500,93.500,38.500
3.179,40.500,11.500,93.500,39.000
3.180,40.500,11.500,94.000,39.000
3.181,40.500,11.500,94.000,39.000
3.182,40.500,12.000,94.500,39.500
3.183,40.500,12.000,95.000,39.500
3.184,40.500,12.000,95.000,39.500
3.185,40.500,11.500,95.500,39.500
3.186,40.500,11.500,95.500,39.500
3.187,40.500,11.500,96.000,39.500
3.188,40.500,11.500,96.000,39.500
3.189,41.000,11.500,96.500,39.500
3.190,41.000,11.000,96.500,39.500
3.191,41.500,11.500,96.500,39.500
3.192,41.500,11.500,96.500,39.500
3.193,41.500,11.500,96.500,40.000
3.194,41.500,11.500,96.500,40.000
3.195,41.500,12.000,97.000,40.500
3.196,42.000,12.500,97.000,40.500
3.197,42.000,12.500,97.500,41.000
3.198,42.500,13.000,98.000,41.500
3.199,42.500,13.500,98.500,42.000
3.200,42.500,13.500,99.000,42.000
3.201,42.500,13.500,99.000,42.500
3.202,42.000,14.000,99.500,43.000
3.203,42.000,14.000,99.500,43.000
3.204,42.000,13.500,99.500,43.000
3.205,42.000,13.500,99.500,43.000
3.206,41.500,13.500,99.500,43.000
3.207,41.500,13.000,99.000,42.500
3.208,41.000,13.000,99.000,42.500
3.209,41.000,13.000,99.000,42.500
3.210,41.000,13.000,99.000,42.000
3.211,40.500,12.500,99.500,42.000
3.212,40.500,12.500,99.500,42.000
3.213,40.500,13.000,99.500,42.000
3.214,41.000,13.000,100.000,41.500
3.215,41.000,13.000,100.000,41.500
3.216,41.000,13.000,100.500,41.500
3.217,41.000,13.500,100.500,41.500
3.218,41.000,13.500,101.000,41.500
3.219,41.000,14.000,101.500,42.000
3.220,41.000,14.000,102.000,42.500
3.221,41.000,14.000,102.000,42.500
3.222,41.000,14.000,102.500,43.000
3.223,41.000,14.000,103.000,43.000
3.224,41.000,14.000,103.000,43.000
3.225,41.000,14.000,103.000,43.000
3.226,41.000,14.000,103.000,43.000
3.227,40.500,14.000,103.000,42.500
3.228,40.000,13.500,103.000,42.500
3.229,40.000,13.500,103.000,42.500
3.230,40.000,13.500,103.000,42.500
3.231,40.000,13.500,103.000,42.500
3.232,40.000,13.000,103.500,42.500
3.233,40.000,13.000,103.500,42.500
3.234,40.000,13.500,104.000,42.500
3.235,40.500,13.500,104.500,42.500
3.236,40.500,13.500,105.000,42.500
3.237,40.500,14.000,105.500,42.500
3.238,41.000,14.000,106.000,42.500
3.239,41.000,14.500,106.500,42.500
3.240,41.500,15.000,107.000,43.000
3.241,41.500,15.500,107.500,43.000
3.242,41.500,15.500,108.000,43.000
3.243,42.000,15.500,108.000,43.000
3.244,42.000,15.500,108.000,43.000
3.245,41.500,15.000,107.500,43.000
3.246,41.500,15.000,107.500,43.000
3.247,41.500,14.500,107.500,43.000
3.248,41.500,14.500,107.500,43.000
3.249,41.500,14.500,108.000,43.000
3.250,41.500,14.500,108.000,43.000
3.251,41.500,14.500,108.000,42.500
3.252,41.500,14.500,108.000,42.500
3.253,41.500,14.500,108.000,42.500
3.254,41.500,14.500,108.000,42.000
3.255,42.000,14.500,108.000,42.000
3.256,42.000,15.000,108.500,42.000
3.257,42.000,15.000,108.500,42.500
3.258,42.000,15.000,109.000,42.500
3.259,41.500,15.500,109.000,42.500
3.260,41.500,16.000,109.500,43.000
3.261,41.500,16.500,110.000,43.000
3.262,41.500,17.000,110.500,43.000
3.263,41.000,17.000,110.500,43.000
3.264,41.000,17.500,111.000,43.000
3.265,41.000,17.500,111.000,43.000
3.266,41.000,18.000,111.000,43.000
3.267,41.500,18.000,111.000,43.000
3.268,41.500,18.500,111.500,43.000
3.269,42.000,19.000,111.500,43.500
3.270,42.500,19.000,112.000,43.500
3.271,42.500,19.500,112.500,43.500
3.272,42.500,20.000,112.500,43.500
3.273,42.500,20.000,113.000,43.500
3.274,42.500,20.500,113.000,43.000
3.275,42.000,20.500,113.000,43.000
3.276,42.000,20.000,112.500,43.000
3.277,41.500,20.000,112.500,43.000
3.278,41.000,19.000,112.500,43.000
3.279,40.000,18.000,111.500,42.500
3.280,39.000,16.500,110.500,42.000
3.281,37.500,14.500,109.000,41.000
3.282,35.500,12.000,107.000,40.000
3.283,33.000,9.500,105.000,38.500
3.284,30.500,6.500,103.000,37.000
3.285,28.500,4.500,101.000,35.500
3.286,27.000,3.000,100.000,34.500
3.287,26.500,2.000,99.000,34.000
3.288,26.000,2.000,99.000,34.000
3.289,27.000,3.000,99.500,34.500
3.290,28.000,4.500,100.500,35.500
3.291,29.500,6.500,102.000,36.500
3.292,31.500,9.000,104.000,38.000
3.293,33.500,11.500,106.500,39.500
3.294,36.000,15.000,109.500,41.500
3.295,38.500,18.500,112.500,43.500
3.296,41.500,22.000,115.500,45.500
3.297,43.500,25.000,118.000,47.500
3.298,46.000,28.000,120.500,49.500
3.299,47.500,30.500,122.500,51.000
3.300,48.500,32.000,124.000,52.000
3.301,49.000,33.000,125.000,52.500
3.302,49.000,33.000,125.000,52.500
3.303,48.000,32.500,124.500,52.000
3.304,47.000,31.500,123.500,51.000
3.305,45.500,30.000,122.500,50.500
3.306,44.500,29.000,121.000,50.000
3.307,43.500,28.000,120.500,49.500
3.308,42.500,27.500,119.500,49.500
3.309,42.000,27.500,119.000,49.500
3.310,41.500,27.500,119.000,49.500
3.311,41.500,27.500,119.000,49.500
3.312,41.500,27.500,119.000,49.500
3.313,41.500,27.500,119.000,49.500
3.314,41.500,27.500,119.000,50.000
3.315,41.500,27.500,119.500,50.000
3.316,41.500,28.000,119.500,50.000
3.317,41.500,28.500,120.000,50.500
3.318,41.500,29.000,120.000,51.000
3.319,42.000,29.500,120.000,51.000
3.320,42.000,30.000,120.500,51.500
3.321,42.000,30.500,120.500,51.500
3.322,41.500,30.500,121.000,52.000
3.323,41.500,30.500,121.000,52.000
3.324,41.000,30.000,120.500,52.000
3.325,40.500,29.500,120.000,52.000
3.326,40.000,29.000,119.500,51.500
3.327,39.500,28.500,119.000,51.000
3.328,39.500,28.000,118.500,50.500
3.329,39.000,28.000,118.500,50.000
3.330,39.000,27.500,118.000,49.000
3.331,39.000,27.500,117.500,48.500
3.332,39.000,27.500,117.500,48.000
3.333,39.000,27.500,117.500,48.000
3.334,39.000,28.000,117.500,48.000
3.335,39.000,28.000,117.500,48.000
3.336,39.000,28.000,118.000,48.000
3.337,39.000,28.500,118.000,48.000
3.338,39.000,28.500,118.000,48.000
3.339,39.000,28.500,118.000,48.500
3.340,39.500,29.000,118.000,48.500
3.341,39.500,29.500,118.500,49.000
3.342,39.500,30.000,118.500,49.000
3.343,39.500,30.500,118.500,49.500
3.344,39.500,30.500,118.500,49.500
3.345,39.000,30.000,118.000,49.000
3.346,38.500,30.000,117.500,49.000
3.347,38.500,30.000,117.500,49.000
3.348,38.500,30.000,117.000,48.500
3.349,38.500,30.000,117.000,48.500
3.350,38.500,30.000,117.000,48.500
3.351,38.500,29.500,117.000,48.500
3.352,38.500,29.500,116.500,48.500
3.353,38.500,29.500,116.500,48.500
3.354,38.500,29.500,116.000,48.500
3.355,39.000,29.500,116.000,48.500
3.356,39.000,30.000,116.000,48.000
3.357,39.000,30.000,116.000,48.500
3.358,39.000,30.000,116.000,48.500
3.359,39.000,30.500,116.500,48.500
3.360,39.000,30.500,116.500,48.500
3.361,38.500,30.500,116.500,48.500
3.362,38.500,30.500,116.500,48.500
3.363,38.000,30.500,116.500,48.500
3.364,38.000,30.500,116.500,48.500
3.365,37.500,30.500,116.500,48.500
3.366,37.500,30.500,116.000,48.500
3.367,37.500,30.000,116.000,48.000
3.368,37.500,30.000,115.500,48.000
3.369,37.000,29.500,115.000,48.000
3.370,36.500,29.500,114.500,47.500
3.371,36.000,29.000,114.000,47.500
3.372,35.500,28.500,114.000,47.000
3.373,35.500,28.500,113.500,47.000
3.374,35.500,28.500,113.500,47.000
3.375,35.500,28.500,113.500,47.000
3.376,36.000,28.500,113.500,47.000
3.377,36.000,28.500,113.500,47.000
3.378,36.000,28.500,113.500,47.000
3.379,36.000,28.500,113.500,47.000
3.380,36.000,28.500,113.500,47.000
3.381,35.500,28.500,113.500,47.000
3.382,35.500,28.000,113.500,47.000
3.383,35.500,28.500,113.500,47.500
3.384,35.500,28.500,113.500,47.500
3.385,35.500,28.500,113.500,47.000
3.386,35.000,28.500,113.500,47.000
3.387,35.000,28.000,113.000,46.500
3.388,34.500,27.500,112.500,46.000
3.389,34.000,26.500,112.000,46.000
3.390,33.500,26.000,111.500,45.500
3.391,33.000,25.500,110.500,45.000
3.392,33.000,25.000,110.000,44.500
3.393,32.500,24.500,109.500,44.000
3.394,32.500,24.500,109.500,44.000
3.395,32.500,24.000,109.000,43.500
3.396,32.500,24.000,109.000,43.500
3.397,32.000,24.000,109.000,43.500
3.398,32.000,23.500,108.500,43.500
3.399,31.500,23.500,108.500,43.000
3.400,31.000,23.000,108.500,42.500
3.401,30.500,22.500,108.000,42.000
3.402,30.000,22.000,107.500,41.500
3.403,29.500,21.500,107.000,40.500
3.404,29.000,21.000,106.000,39.500
3.405,28.000,20.000,105.000,38.500
3.406,27.000,19.000,103.500,37.000
3.407,25.500,17.500,102.000,35.500
3.408,24.000,16.000,100.500,34.000
3.409,22.500,14.500,98.500,32.000
3.410,21.000,13.000,97.000,30.500
3.411,19.500,11.000,95.500,29.500
3.412,18.000,9.500,93.500,28.000
3.413,16.500,7.500,92.000,26.500
3.414,15.000,6.000,91.000,25.500
3.415,13.500,4.500,89.500,25.000
3.416,12.500,3.000,88.500,24.000
3.417,11.000,1.500,87.500,24.000
3.418,9.500,0.500,87.000,24.000
3.419,8.000,-0.500,86.500,24.000
3.420,6.500,-1.500,86.500,24.500
3.421,5.000,-2.500,86.500,25.500
3.422,4.000,-3.000,86.500,27.000
3.423,3.000,-3.000,87.000,28.000
3.424,2.000,-3.000,87.500,29.500
3.425,1.000,-3.500,88.000,31.000
3.426,0.000,-3.500,88.500,32.000
3.427,-0.500,-4.000,88.500,33.000
3.428,-1.500,-4.000,89.000,34.000
3.429,-2.000,-4.000,89.500,34.500
3.430,-2.500,-4.500,90.000,35.500
3.431,-2.500,-4.500,90.500,36.000
3.432,-2.500,-4.500,91.000,36.500
3.433,-2.000,-3.500,92.000,37.000
3.434,-0.500,-2.500,93.500,38.500
3.435,1.500,0.000,96.000,40.500
3.436,5.000,3.000,99.000,42.500
3.437,8.500,6.500,102.500,44.500
3.438,12.500,10.500,106.500,47.000
3.439,16.500,14.000,110.000,49.000
3.440,21.000,18.000,114.000,51.000
3.441,25.500,22.500,117.500,53.000
3.442,30.000,27.000,121.500,55.000
3.443,35.000,31.000,124.500,56.500
3.444,39.000,34.500,127.500,57.500
3.445,42.000,37.500,129.500,58.000
3.446,44.000,39.000,130.000,58.000
3.447,44.500,39.500,130.500,57.500
3.448,44.500,39.000,129.500,56.500
3.449,43.500,38.000,128.500,54.500
3.450,42.500,36.000,127.000,53.000
3.451,40.500,34.000,125.000,51.000
3.452,39.000,32.000,123.000,49.000
3.453,36.500,30.000,121.000,47.000
3.454,34.500,27.500,118.500,45.000
3.455,32.000,25.500,116.500,43.000
3.456,30.000,23.500,114.000,41.500
3.457,28.500,21.500,112.500,39.500
3.458,26.500,20.000,111.000,38.000
3.459,25.500,18.500,109.500,36.500
3.460,24.500,17.000,108.500,35.500
3.461,23.500,16.000,107.500,35.000
3.462,22.500,15.000,107.000,34.000
3.463,21.500,14.500,106.500,33.500
3.464,21.000,14.000,106.000,33.000
3.465,20.500,13.500,106.000,32.500
3.466,20.000,13.500,105.500,32.500
3.467,19.500,13.000,105.000,32.000
3.468,19.500,13.000,105.000,32.000
3.469,19.500,12.500,104.500,32.000
3.470,19.500,12.500,104.500,32.000
3.471,19.500,12.000,104.500,32.500
3.472,19.500,12.000,104.500,32.500
3.473,19.500,12.000,104.500,32.500
3.474,19.500,12.000,104.500,33.000
3.475,19.500,12.000,104.500,33.000
3.476,19.500,12.000,105.000,33.000
3.477,19.500,12.000,105.000,33.000
3.478,20.000,12.000,105.000,33.000
3.479,20.000,12.000,105.500,33.500
3.480,20.000,12.500,105.500,33.500
3.481,20.500,12.500,106.000,34.000
3.482,20.500,12.500,106.000,34.000
3.483,20.500,12.500,106.000,34.000
3.484,20.500,12.500,106.000,34.000
3.485,20.000,12.500,106.000,34.000
3.486,20.000,12.000,106.000,34.000
3.487,20.000,12.000,105.500,34.000
3.488,19.500,11.500,105.500,34.000
3.489,19.500,11.500,105.500,33.500
3.490,19.000,11.000,105.500,33.500
3.491,19.000,11.000,105.000,33.500
3.492,19.000,11.000,105.000,33.500
3.493,19.000,11.000,105.000,34.000
3.494,19.500,11.500,105.000,34.000
3.495,19.500,11.500,105.000,34.500
3.496,19.500,11.500,105.500,34.500
3.497,19.500,11.500,105.500,34.500
3.498,19.500,11.500,105.500,34.500
3.499,19.500,11.500,105.500,34.500
3.500,19.500,11.500,106.000,35.000
3.501,19.500,11.500,106.000,35.000
