'Elapsed time','AECG1','AECG2','AECG3','AECG4'
'seconds','uV','uV','uV','uV'
0.000,12.500,599.500,321.500,-634.000
0.001,14.000,598.500,320.500,-635.000
0.002,15.500,597.500,319.500,-636.500
0.003,16.500,596.500,318.500,-637.500
0.004,16.500,596.000,317.500,-639.000
0.005,16.000,595.000,316.500,-640.000
0.006,14.500,594.500,316.000,-641.000
0.007,13.000,594.000,315.500,-642.000
0.008,12.000,594.000,315.500,-642.000
0.009,11.500,594.000,315.500,-642.000
0.010,11.500,594.000,316.000,-642.000
0.011,11.000,594.000,316.000,-641.500
0.012,10.500,594.000,316.500,-641.000
0.013,11.500,594.000,317.000,-640.500
0.014,13.000,594.000,317.500,-640.000
0.015,14.500,594.000,318.500,-639.500
0.016,15.000,593.500,319.000,-638.500
0.017,15.000,593.500,319.500,-637.500
0.018,14.000,593.500,320.000,-636.500
0.019,13.500,593.500,321.000,-635.000
0.020,13.500,593.000,322.500,-633.500
0.021,13.500,593.000,324.000,-631.500
0.022,13.000,593.000,325.500,-629.500
0.023,12.000,593.000,327.500,-627.000
0.024,11.000,593.500,329.500,-624.000
0.025,10.000,594.000,331.500,-621.500
0.026,8.500,594.500,333.000,-619.500
0.027,7.000,595.000,334.000,-617.500
0.028,5.500,595.500,335.500,-616.000
0.029,4.500,596.500,336.500,-615.000
0.030,4.000,597.000,337.000,-614.000
0.031,4.500,597.500,337.500,-614.000
0.032,6.000,597.500,337.500,-614.000
0.033,7.500,597.000,337.000,-615.000
0.034,8.500,596.500,336.000,-616.500
0.035,8.500,595.500,334.000,-619.000
0.036,8.500,595.000,332.000,-622.000
0.037,9.000,594.000,330.000,-625.000
0.038,9.000,594.000,328.500,-628.500
0.039,8.500,594.000,327.000,-632.000
0.040,7.500,594.500,325.500,-635.000
0.041,6.500,595.000,324.500,-637.500
0.042,5.500,595.000,324.000,-639.000
0.043,5.000,596.000,324.000,-640.000
0.044,4.500,596.500,324.500,-640.000
0.045,5.000,597.000,325.000,-640.000
0.046,5.500,598.000,326.000,-639.500
0.047,6.500,598.500,326.500,-639.000
0.048,8.000,599.000,327.000,-638.500
0.049,9.000,599.500,327.500,-638.000
0.050,9.000,599.500,328.000,-637.500
0.051,8.500,599.500,328.000,-637.000
0.052,7.500,599.500,327.500,-637.000
0.053,7.500,599.500,327.500,-637.000
0.054,7.500,599.000,326.500,-637.500
0.055,7.500,598.500,326.000,-638.500
0.056,7.500,598.000,325.500,-639.000
0.057,7.500,597.000,325.500,-640.500
0.058,7.000,596.000,325.000,-641.500
0.059,7.000,595.500,324.500,-642.500
0.060,7.000,594.500,324.000,-643.500
0.061,7.500,593.500,323.500,-644.500
0.062,8.000,592.500,323.000,-645.500
0.063,8.000,591.500,322.000,-646.000
0.064,8.000,591.000,321.500,-646.500
0.065,7.500,590.500,320.500,-647.000
0.066,7.000,590.000,320.500,-647.500
0.067,7.000,590.000,320.000,-648.000
0.068,7.000,589.500,320.000,-648.000
0.069,6.500,589.500,320.000,-648.000
0.070,6.500,589.500,320.000,-648.500
0.071,6.000,589.500,320.000,-648.500
0.072,6.000,589.000,319.500,-648.500
0.073,7.000,588.500,319.500,-648.500
0.074,9.000,588.000,319.000,-649.000
0.075,10.500,588.000,319.000,-649.000
0.076,11.500,587.500,319.000,-649.000
0.077,12.500,587.500,319.000,-649.500
0.078,13.000,587.000,319.000,-649.500
0.079,13.500,587.000,319.000,-649.500
0.080,14.500,587.000,319.500,-650.000
0.081,14.500,586.500,319.000,-650.500
0.082,13.500,586.000,319.000,-651.000
0.083,11.500,585.500,318.500,-651.500
0.084,8.000,585.000,318.500,-652.000
0.085,5.000,584.500,318.000,-652.500
0.086,3.500,584.500,318.000,-652.500
0.087,4.500,584.000,317.500,-652.500
0.088,7.500,584.000,317.500,-652.500
0.089,10.500,584.000,317.500,-653.000
0.090,13.500,584.000,318.000,-653.000
0.091,15.500,584.500,318.000,-652.500
0.092,16.500,585.000,318.500,-652.500
0.093,17.000,585.000,319.000,-652.000
0.094,17.000,585.500,319.500,-652.000
0.095,16.500,585.500,319.500,-652.000
0.096,16.000,585.000,319.500,-652.000
0.097,15.500,584.500,319.500,-652.500
0.098,15.500,584.000,319.000,-653.000
0.099,14.500,583.000,319.000,-653.500
0.100,12.500,582.500,318.500,-654.500
0.101,11.000,582.000,318.500,-655.000
0.102,10.000,581.500,318.000,-655.500
0.103,10.500,581.000,318.000,-656.500
0.104,12.000,581.000,317.500,-657.000
0.105,13.500,580.500,317.500,-657.000
0.106,15.000,580.500,317.500,-657.000
0.107,16.000,581.000,317.500,-657.000
0.108,16.500,581.000,318.000,-657.000
0.109,15.500,581.500,318.500,-656.500
0.110,14.500,581.500,318.500,-656.000
0.111,14.500,581.500,318.500,-656.000
0.112,14.000,581.500,318.500,-656.500
0.113,14.000,581.500,318.500,-657.000
0.114,13.000,581.500,318.500,-657.500
0.115,13.000,581.500,318.500,-658.000
0.116,13.500,581.000,318.500,-658.500
0.117,15.000,581.000,318.500,-659.000
0.118,15.500,581.000,319.000,-659.000
0.119,15.500,580.500,319.000,-659.500
0.120,15.000,580.500,319.000,-659.500
0.121,14.500,579.500,319.000,-660.000
0.122,15.000,579.000,319.000,-660.000
0.123,16.000,578.500,318.500,-660.500
0.124,17.000,578.500,318.000,-660.500
0.125,17.500,578.000,317.500,-661.000
0.126,17.000,578.000,317.500,-661.000
0.127,17.000,577.500,317.000,-661.000
0.128,16.500,577.500,317.000,-661.500
0.129,16.000,577.500,316.500,-661.000
0.130,16.000,577.500,317.000,-661.000
0.131,16.000,578.000,317.000,-660.000
0.132,15.500,578.000,317.500,-659.000
0.133,14.500,578.500,318.000,-658.000
0.134,12.500,578.500,318.500,-657.500
0.135,10.500,578.500,319.000,-657.000
0.136,8.500,578.000,319.000,-657.000
0.137,7.000,578.000,319.000,-657.000
0.138,7.000,577.000,319.500,-657.500
0.139,8.000,576.500,319.000,-658.000
0.140,10.500,575.500,319.000,-659.000
0.141,13.000,575.000,318.500,-660.000
0.142,15.000,574.500,318.500,-661.000
0.143,15.500,574.000,318.000,-661.500
0.144,14.500,574.000,317.500,-662.000
0.145,13.000,573.500,317.500,-662.000
0.146,11.500,573.500,317.000,-661.500
0.147,10.000,573.500,317.000,-661.500
0.148,9.000,573.500,317.000,-661.000
0.149,7.000,573.500,317.000,-661.000
0.150,5.000,573.500,317.000,-661.000
0.151,4.000,573.500,317.000,-661.000
0.152,4.000,573.500,317.500,-661.000
0.153,5.500,573.500,318.000,-661.000
0.154,8.000,573.500,318.000,-661.500
0.155,10.000,573.000,318.500,-661.500
0.156,11.500,572.500,318.500,-661.500
0.157,12.000,572.000,318.500,-661.500
0.158,12.500,571.000,318.000,-661.500
0.159,13.000,570.500,317.500,-662.000
0.160,14.000,569.500,317.500,-662.500
0.161,14.000,569.000,317.000,-663.000
0.162,14.000,569.000,317.000,-663.500
0.163,14.500,569.000,316.500,-664.000
0.164,15.500,569.000,316.500,-664.500
0.165,16.500,569.000,316.500,-665.000
0.166,17.500,569.000,316.500,-665.500
0.167,18.000,569.000,316.500,-665.500
0.168,18.000,569.000,317.000,-665.500
0.169,18.000,569.500,317.000,-665.500
0.170,18.000,569.500,317.500,-665.500
0.171,17.500,569.500,317.500,-665.500
0.172,17.000,569.000,317.000,-665.500
0.173,15.500,568.000,317.000,-666.000
0.174,13.500,567.500,317.000,-666.500
0.175,11.000,567.500,317.000,-667.000
0.176,8.500,567.000,317.000,-667.000
0.177,7.000,567.000,316.500,-667.500
0.178,6.500,566.500,316.500,-668.000
0.179,8.500,566.500,316.500,-668.000
0.180,11.000,566.000,316.000,-668.500
0.181,14.000,566.000,316.000,-668.500
0.182,16.000,565.500,316.000,-669.000
0.183,17.500,565.500,316.000,-669.000
0.184,17.500,565.000,315.500,-669.000
0.185,17.500,565.000,316.000,-668.500
0.186,17.000,565.000,316.000,-668.000
0.187,17.000,565.000,316.500,-667.500
0.188,16.500,565.500,317.000,-667.000
0.189,15.000,566.000,317.500,-666.500
0.190,14.000,566.500,318.000,-666.000
0.191,12.500,567.000,318.000,-665.500
0.192,12.500,567.000,318.500,-665.500
0.193,13.000,567.500,318.500,-665.500
0.194,14.000,568.000,319.000,-665.500
0.195,14.500,568.000,319.500,-665.500
0.196,13.000,568.500,320.000,-665.500
0.197,11.000,568.500,320.500,-665.500
0.198,9.500,568.500,320.500,-665.000
0.199,8.500,568.500,321.000,-665.000
0.200,9.000,568.000,321.000,-665.000
0.201,10.000,568.000,321.000,-665.000
0.202,12.000,568.000,321.000,-665.000
0.203,13.500,567.500,321.000,-665.000
0.204,15.000,568.000,321.500,-665.500
0.205,15.500,568.000,321.000,-665.500
0.206,16.000,568.000,321.000,-666.000
0.207,15.500,567.500,320.500,-666.500
0.208,14.500,567.000,320.000,-666.500
0.209,13.500,566.500,320.000,-667.000
0.210,14.000,566.500,320.000,-667.000
0.211,15.500,566.500,320.500,-667.000
0.212,17.000,566.500,320.500,-667.000
0.213,18.000,566.500,321.000,-667.500
0.214,18.000,566.500,321.500,-667.500
0.215,17.500,566.500,321.500,-667.500
0.216,17.500,567.000,322.000,-667.000
0.217,17.500,567.000,322.000,-667.000
0.218,17.500,567.000,322.500,-666.500
0.219,17.000,567.000,322.500,-666.500
0.220,16.500,566.500,322.500,-666.500
0.221,16.500,566.000,322.000,-667.000
0.222,17.000,566.000,321.500,-667.500
0.223,18.000,565.500,321.000,-668.000
0.224,18.500,565.500,320.500,-668.500
0.225,18.500,565.000,320.500,-668.500
0.226,18.000,565.000,320.000,-668.500
0.227,16.500,564.500,320.000,-668.000
0.228,15.500,564.500,320.000,-667.500
0.229,15.000,564.000,320.500,-667.500
0.230,15.500,564.000,320.500,-667.000
0.231,15.500,564.500,321.000,-666.500
0.232,15.500,564.500,321.500,-666.000
0.233,15.000,565.000,322.000,-666.000
0.234,14.500,565.500,322.000,-666.500
0.235,15.000,565.500,322.000,-667.000
0.236,16.000,565.500,321.500,-667.500
0.237,18.000,565.000,321.500,-668.000
0.238,21.000,564.500,321.500,-668.000
0.239,23.500,564.000,321.500,-668.000
0.240,26.000,563.500,321.500,-668.000
0.241,27.500,563.500,322.000,-668.000
0.242,28.000,563.000,322.000,-667.500
0.243,27.500,563.000,322.000,-667.500
0.244,26.000,563.000,322.000,-667.500
0.245,24.000,563.000,322.500,-668.000
0.246,21.500,563.000,322.500,-668.000
0.247,18.500,563.000,322.000,-667.500
0.248,16.500,563.000,322.500,-667.500
0.249,15.500,563.500,322.500,-667.500
0.250,16.000,564.000,323.000,-667.000
0.251,16.000,564.000,323.500,-666.500
0.252,16.000,564.000,323.500,-666.500
0.253,15.500,564.000,324.000,-666.000
0.254,15.000,564.000,324.500,-666.000
0.255,14.500,564.000,325.000,-666.000
0.256,14.000,563.500,325.000,-666.500
0.257,14.500,563.500,325.000,-666.500
0.258,14.500,563.500,325.500,-666.500
0.259,15.000,563.500,325.500,-666.500
0.260,15.500,563.500,326.000,-667.000
0.261,17.000,563.500,326.000,-667.000
0.262,18.000,563.500,326.000,-667.500
0.263,18.500,563.000,326.000,-667.500
0.264,18.500,563.000,325.500,-668.000
0.265,17.000,563.000,325.500,-667.500
0.266,16.000,563.000,325.500,-667.000
0.267,15.000,563.000,326.000,-666.500
0.268,14.500,563.000,326.500,-665.500
0.269,14.500,563.000,326.500,-665.000
0.270,14.000,563.000,327.000,-664.500
0.271,13.500,563.000,327.000,-664.000
0.272,13.500,563.000,327.500,-663.500
0.273,14.000,563.000,327.500,-663.500
0.274,15.500,563.000,327.500,-664.000
0.275,16.000,563.000,327.500,-664.000
0.276,16.500,563.000,328.000,-664.500
0.277,17.000,563.000,328.000,-664.500
0.278,18.000,563.500,328.500,-664.500
0.279,19.500,563.000,328.500,-664.500
0.280,20.000,563.000,328.500,-665.000
0.281,20.000,562.500,328.500,-665.500
0.282,19.000,562.000,328.000,-666.000
0.283,18.000,561.500,328.000,-667.000
0.284,17.500,561.000,327.500,-667.500
0.285,17.000,561.000,327.500,-668.000
0.286,16.000,560.500,327.000,-668.500
0.287,14.500,560.000,326.500,-668.000
0.288,14.000,559.500,326.500,-667.500
0.289,13.500,559.500,326.000,-667.000
0.290,13.500,559.000,326.000,-666.000
0.291,13.500,558.500,326.000,-665.500
0.292,14.000,558.500,326.000,-665.000
0.293,14.500,558.500,326.000,-665.000
0.294,14.500,559.000,327.000,-665.000
0.295,15.000,560.500,328.000,-665.000
0.296,15.000,561.500,329.500,-665.000
0.297,14.500,562.500,330.500,-664.500
0.298,13.500,564.000,331.500,-664.500
0.299,11.000,564.500,332.000,-664.000
0.300,7.000,565.000,332.000,-664.000
0.301,2.500,565.000,332.000,-663.500
0.302,-1.500,565.000,332.000,-663.500
0.303,-3.500,565.000,332.000,-663.500
0.304,-3.500,565.000,332.000,-663.500
0.305,-2.500,565.500,332.500,-664.000
0.306,-1.000,565.500,332.500,-664.000
0.307,0.500,565.000,332.500,-664.500
0.308,2.500,565.000,332.000,-665.000
0.309,4.500,564.500,332.000,-665.000
0.310,7.000,564.000,331.500,-665.500
0.311,8.500,564.000,331.500,-666.000
0.312,9.500,564.000,331.500,-666.000
0.313,9.000,563.500,331.000,-666.500
0.314,8.000,563.500,331.000,-667.000
0.315,6.500,563.000,330.500,-668.000
0.316,4.500,563.000,330.500,-668.500
0.317,3.000,562.500,330.500,-669.500
0.318,1.500,562.000,330.500,-670.000
0.319,0.000,562.000,330.500,-670.500
0.320,0.000,561.500,330.000,-670.500
0.321,1.000,561.500,330.000,-671.000
0.322,2.000,561.000,329.500,-671.000
0.323,3.500,561.000,329.500,-671.500
0.324,5.000,561.000,329.000,-672.000
0.325,6.000,561.000,328.500,-672.500
0.326,6.500,561.000,328.000,-673.000
0.327,6.500,560.500,328.000,-673.000
0.328,5.500,560.500,327.500,-673.000
0.329,4.500,560.500,327.500,-672.500
0.330,3.000,561.000,328.000,-672.500
0.331,1.000,561.000,328.000,-672.500
0.332,-1.000,561.000,328.000,-672.500
0.333,-3.000,561.000,327.500,-672.500
0.334,-3.000,560.500,327.500,-672.500
0.335,-2.500,560.500,327.000,-673.000
0.336,-1.500,560.000,327.500,-673.000
0.337,0.000,560.000,327.500,-673.000
0.338,1.000,560.000,328.000,-673.000
0.339,1.000,560.000,328.000,-673.500
0.340,-0.500,560.000,328.500,-673.500
0.341,-2.000,560.000,329.000,-674.000
0.342,-3.000,560.000,328.500,-674.000
0.343,-2.000,560.000,328.500,-674.500
0.344,0.000,560.000,328.000,-674.500
0.345,2.000,560.000,327.500,-674.500
0.346,3.500,560.000,327.500,-675.000
0.347,6.000,560.000,327.500,-675.000
0.348,8.500,559.500,327.500,-675.000
0.349,10.500,559.500,327.500,-674.500
0.350,11.500,559.500,327.500,-674.500
0.351,10.500,559.500,327.500,-674.500
0.352,8.500,559.500,328.000,-675.000
0.353,7.000,559.500,328.000,-675.000
0.354,6.000,560.000,328.000,-675.500
0.355,6.000,560.000,328.000,-676.000
0.356,7.000,560.000,328.000,-676.000
0.357,9.500,560.000,328.000,-676.500
0.358,12.000,560.000,328.000,-677.000
0.359,13.500,560.000,328.000,-677.500
0.360,15.000,560.000,328.000,-677.500
0.361,16.000,560.000,328.000,-678.000
0.362,16.500,560.000,328.000,-678.000
0.363,16.500,560.000,328.500,-678.000
0.364,15.500,560.000,328.500,-678.000
0.365,14.500,560.500,329.000,-678.500
0.366,13.500,560.500,329.000,-678.500
0.367,12.000,560.000,329.500,-678.500
0.368,10.500,560.000,329.500,-678.500
0.369,8.500,560.000,329.500,-678.500
0.370,6.500,560.000,330.000,-678.000
0.371,6.000,560.500,330.000,-677.500
0.372,6.000,560.500,330.500,-676.500
0.373,7.000,560.500,330.500,-676.000
0.374,8.500,560.500,331.000,-675.500
0.375,10.000,560.000,331.000,-675.500
0.376,10.500,559.500,331.500,-675.500
0.377,9.500,559.500,331.500,-675.000
0.378,8.500,559.000,331.500,-675.000
0.379,7.500,559.000,331.500,-674.500
0.380,6.500,559.000,332.000,-674.500
0.381,6.000,559.000,332.000,-674.500
0.382,6.000,558.500,332.000,-674.500
0.383,6.500,558.500,332.000,-675.000
0.384,8.000,558.000,332.000,-675.500
0.385,10.000,558.000,332.000,-676.000
0.386,11.500,558.000,332.000,-676.500
0.387,12.500,557.500,332.000,-676.500
0.388,13.000,557.500,332.000,-676.000
0.389,14.000,557.500,332.500,-675.500
0.390,15.000,558.000,332.500,-674.500
0.391,15.500,558.000,333.000,-673.000
0.392,15.500,558.500,333.500,-672.000
0.393,15.500,558.500,333.500,-671.500
0.394,14.500,558.500,334.000,-671.000
0.395,13.000,559.000,334.000,-671.000
0.396,11.500,558.500,334.500,-671.000
0.397,9.500,558.000,334.500,-671.000
0.398,9.000,557.500,334.500,-671.500
0.399,9.500,557.000,334.500,-671.500
0.400,10.500,557.000,335.000,-672.000
0.401,11.500,556.500,335.000,-671.500
0.402,12.500,556.000,335.000,-671.500
0.403,12.500,556.000,335.000,-671.500
0.404,12.000,556.000,334.500,-671.500
0.405,10.500,556.000,334.500,-671.500
0.406,8.500,556.000,334.500,-671.500
0.407,7.500,556.000,334.500,-671.500
0.408,7.000,556.000,335.000,-671.000
0.409,7.000,556.500,335.000,-671.000
0.410,7.500,556.500,335.000,-670.500
0.411,7.500,556.500,335.000,-670.000
0.412,7.000,556.500,335.500,-669.500
0.413,6.500,556.500,335.500,-669.000
0.414,5.500,557.000,336.000,-668.500
0.415,5.500,557.000,336.500,-668.500
0.416,6.500,557.000,336.500,-668.500
0.417,7.500,557.000,336.500,-668.500
0.418,8.000,556.500,336.500,-669.000
0.419,8.000,556.000,336.500,-669.000
0.420,6.500,556.000,336.500,-669.000
0.421,5.500,555.500,336.500,-669.000
0.422,5.000,555.500,337.000,-669.000
0.423,5.500,555.500,337.000,-669.000
0.424,6.500,555.500,337.000,-668.500
0.425,6.500,555.000,336.500,-668.500
0.426,6.000,555.000,337.000,-668.000
0.427,5.500,555.000,337.000,-668.000
0.428,5.000,555.000,337.000,-667.500
0.429,5.000,555.000,337.000,-667.500
0.430,5.000,555.000,337.000,-667.500
0.431,5.500,555.000,337.000,-667.500
0.432,6.000,554.500,336.500,-667.500
0.433,7.000,554.500,336.500,-668.000
0.434,8.000,554.000,336.500,-668.000
0.435,9.000,554.000,336.500,-668.500
0.436,10.000,553.500,336.500,-668.500
0.437,10.000,553.500,337.000,-669.000
0.438,10.000,553.000,337.000,-669.000
0.439,9.500,553.000,336.500,-669.500
0.440,8.500,552.500,336.500,-669.500
0.441,7.000,552.000,336.000,-669.500
0.442,5.000,551.500,336.000,-669.500
0.443,3.000,551.000,336.500,-670.000
0.444,2.000,551.000,336.500,-670.000
0.445,2.000,551.000,336.500,-670.000
0.446,3.000,551.000,336.500,-670.500
0.447,4.500,551.000,336.500,-670.500
0.448,5.500,551.000,336.500,-670.500
0.449,7.000,551.000,336.500,-670.000
0.450,8.000,551.500,336.500,-669.500
0.451,9.000,551.500,336.500,-669.500
0.452,9.500,552.000,337.000,-669.000
0.453,10.000,552.500,337.500,-668.500
0.454,11.000,552.500,337.500,-668.500
0.455,11.500,552.000,338.000,-668.000
0.456,11.500,552.000,338.000,-668.000
0.457,11.500,551.500,338.000,-668.000
0.458,11.000,551.500,338.000,-668.000
0.459,10.500,551.500,338.000,-668.000
0.460,10.500,551.000,338.500,-668.000
0.461,9.500,551.000,338.500,-668.000
0.462,9.000,551.000,338.000,-668.500
0.463,7.500,550.500,338.000,-668.500
0.464,6.000,550.500,338.000,-668.500
0.465,4.500,550.500,338.000,-669.000
0.466,3.500,550.000,338.000,-669.000
0.467,3.000,550.000,338.000,-669.000
0.468,3.500,550.500,338.000,-668.500
0.469,5.500,550.500,338.500,-668.500
0.470,7.500,551.000,339.000,-667.500
0.471,9.500,551.500,339.500,-667.000
0.472,12.000,551.500,340.000,-666.500
0.473,14.000,551.500,340.000,-666.000
0.474,15.500,551.500,340.500,-665.500
0.475,14.500,551.500,341.000,-665.000
0.476,12.000,551.500,341.000,-664.500
0.477,9.500,551.500,341.000,-664.500
0.478,6.500,551.500,341.500,-664.500
0.479,4.500,551.500,341.500,-665.000
0.480,4.000,551.500,341.500,-665.000
0.481,5.500,551.500,341.500,-665.500
0.482,7.500,551.500,342.000,-665.500
0.483,10.000,551.500,342.000,-666.000
0.484,12.000,551.500,342.000,-665.500
0.485,14.000,551.000,342.500,-665.500
0.486,16.000,551.000,343.000,-665.000
0.487,17.500,551.000,343.000,-664.500
0.488,18.500,551.500,343.500,-664.000
0.489,18.500,551.500,343.500,-663.500
0.490,17.000,552.000,344.000,-663.500
0.491,15.000,552.000,344.000,-663.000
0.492,13.500,552.000,344.000,-663.000
0.493,13.000,552.000,344.000,-662.500
0.494,14.000,552.000,344.000,-662.500
0.495,16.000,551.500,344.000,-662.000
0.496,18.000,551.500,344.500,-662.000
0.497,18.500,552.000,344.500,-661.500
0.498,18.000,552.000,345.000,-661.500
0.499,17.500,552.000,345.500,-661.500
0.500,17.500,552.000,345.500,-661.500
0.501,18.500,552.000,345.500,-661.500
0.502,20.500,552.000,345.000,-662.000
0.503,23.000,552.000,345.000,-662.000
0.504,25.500,551.500,345.000,-662.000
0.505,27.500,551.500,345.000,-662.000
0.506,29.500,551.500,345.000,-662.000
0.507,31.000,551.500,344.500,-662.000
0.508,32.000,551.500,345.000,-661.500
0.509,32.500,552.000,345.000,-661.000
0.510,32.000,552.000,345.500,-660.500
0.511,30.500,552.500,346.000,-659.500
0.512,28.500,552.500,346.500,-659.000
0.513,26.500,553.000,347.000,-658.000
0.514,25.500,553.000,347.500,-657.500
0.515,25.000,553.500,348.000,-657.000
0.516,25.500,553.500,348.500,-656.500
0.517,26.500,553.500,348.500,-656.500
0.518,26.500,553.500,348.500,-657.000
0.519,25.000,553.500,349.000,-657.000
0.520,23.000,553.500,349.000,-657.000
0.521,21.500,553.500,349.000,-656.500
0.522,21.000,553.500,349.000,-656.500
0.523,21.000,553.500,349.000,-656.500
0.524,21.500,553.500,349.000,-656.000
0.525,21.500,553.500,349.000,-656.000
0.526,21.500,553.500,349.500,-655.500
0.527,21.500,553.500,349.500,-655.500
0.528,22.000,553.500,349.500,-655.000
0.529,23.000,553.500,349.500,-655.000
0.530,24.000,553.000,349.500,-654.500
0.531,25.000,553.500,350.000,-653.500
0.532,25.000,553.500,350.500,-653.000
0.533,24.000,554.000,350.500,-652.500
0.534,23.000,554.000,350.500,-652.500
0.535,22.000,554.000,351.000,-652.500
0.536,21.500,554.000,351.000,-652.500
0.537,21.000,554.000,351.000,-652.500
0.538,20.500,553.500,351.000,-652.000
0.539,19.500,553.500,351.000,-652.000
0.540,18.500,553.000,351.000,-652.000
0.541,17.000,553.000,351.500,-652.000
0.542,16.000,553.000,352.000,-652.000
0.543,15.500,553.000,352.000,-652.000
0.544,15.500,553.000,352.500,-652.000
0.545,16.000,553.500,352.500,-652.000
0.546,15.500,553.500,352.500,-652.000
0.547,15.000,553.500,352.500,-652.000
0.548,14.000,553.500,353.000,-651.500
0.549,13.000,553.500,353.000,-651.000
0.550,13.000,553.500,353.000,-650.500
0.551,15.000,554.000,353.000,-650.000
0.552,18.500,554.000,353.000,-650.000
0.553,21.500,554.000,353.500,-649.500
0.554,23.500,553.500,353.500,-649.000
0.555,23.500,553.500,353.500,-649.000
0.556,22.500,553.500,353.500,-648.500
0.557,21.500,553.500,353.500,-648.500
0.558,21.000,553.500,354.000,-648.000
0.559,22.500,553.000,354.000,-648.000
0.560,24.500,553.000,354.000,-648.000
0.561,26.500,553.000,354.000,-648.000
0.562,27.500,553.000,354.000,-648.000
0.563,27.000,553.500,354.000,-648.500
0.564,25.500,554.000,354.500,-648.000
0.565,24.000,554.000,354.500,-648.000
0.566,23.000,554.500,355.000,-648.000
0.567,23.000,555.000,355.000,-647.500
0.568,24.500,555.000,355.500,-647.000
0.569,26.000,555.500,355.500,-646.500
0.570,27.000,556.000,356.000,-646.000
0.571,27.000,556.000,356.000,-646.000
0.572,25.500,556.500,356.500,-645.500
0.573,23.000,557.000,357.000,-645.500
0.574,21.000,557.500,357.000,-645.000
0.575,19.000,557.500,357.500,-644.500
0.576,17.500,558.000,358.000,-644.000
0.577,16.000,558.500,358.500,-644.000
0.578,16.000,558.500,359.500,-643.500
0.579,16.500,558.500,359.500,-643.500
0.580,17.000,558.500,360.000,-643.000
0.581,17.500,558.500,360.000,-643.000
0.582,16.500,558.000,360.000,-643.000
0.583,14.500,558.000,360.000,-643.000
0.584,13.000,558.000,360.000,-643.000
0.585,11.500,557.500,359.500,-643.500
0.586,11.500,558.000,359.500,-643.500
0.587,12.500,558.000,359.500,-643.500
0.588,14.000,558.500,360.000,-643.000
0.589,15.000,558.500,360.000,-643.000
0.590,14.000,559.000,360.500,-642.500
0.591,12.500,559.500,360.500,-642.000
0.592,10.500,560.000,361.000,-641.500
0.593,9.500,560.000,361.500,-641.000
0.594,10.500,560.500,361.500,-641.000
0.595,12.500,560.500,361.500,-640.500
0.596,15.000,560.500,361.500,-640.500
0.597,17.000,560.500,361.500,-640.500
0.598,17.500,560.500,361.500,-640.000
0.599,16.500,560.000,361.000,-640.000
0.600,14.500,560.000,361.000,-640.000
0.601,12.500,559.500,360.500,-640.000
0.602,11.000,559.500,360.500,-639.500
0.603,10.500,560.000,361.000,-639.000
0.604,10.500,560.500,361.000,-638.500
0.605,11.500,560.500,361.500,-638.000
0.606,12.000,561.000,362.500,-637.500
0.607,11.500,561.500,363.000,-637.500
0.608,10.000,562.000,363.000,-637.000
0.609,8.500,562.500,363.500,-636.000
0.610,7.500,562.500,364.000,-635.500
0.611,6.000,563.000,364.500,-635.000
0.612,5.000,563.500,365.000,-634.000
0.613,3.000,564.500,365.500,-633.500
0.614,1.500,565.000,366.000,-633.500
0.615,0.000,565.500,366.500,-633.500
0.616,-1.000,565.500,366.500,-633.500
0.617,-0.500,566.000,366.500,-633.000
0.618,1.500,566.000,366.500,-633.000
0.619,3.500,566.000,367.000,-633.000
0.620,6.000,566.500,367.000,-633.000
0.621,8.000,566.500,367.500,-633.000
0.622,9.500,566.500,367.500,-633.000
0.623,10.000,566.500,367.000,-633.500
0.624,9.000,566.500,367.000,-633.500
0.625,8.000,566.500,366.500,-633.500
0.626,6.500,567.000,366.500,-633.000
0.627,6.000,567.500,366.500,-633.000
0.628,5.000,567.500,367.000,-632.000
0.629,4.000,568.000,367.000,-631.500
0.630,2.500,568.500,367.500,-630.500
0.631,1.000,569.000,368.000,-630.000
0.632,-0.500,569.500,368.500,-629.000
0.633,-1.500,570.500,369.500,-627.500
0.634,-2.500,571.000,370.000,-627.000
0.635,-2.000,571.500,371.000,-626.000
0.636,-1.000,571.500,371.000,-625.500
0.637,1.000,571.500,371.000,-625.500
0.638,4.000,571.500,371.000,-625.500
0.639,6.500,571.000,370.500,-626.000
0.640,8.500,571.000,370.500,-626.500
0.641,9.500,571.000,370.500,-626.500
0.642,9.000,571.000,371.000,-626.500
0.643,8.500,571.500,371.500,-626.500
0.644,8.000,572.000,372.000,-626.500
0.645,7.500,572.500,372.500,-626.500
0.646,5.500,573.000,373.000,-626.500
0.647,3.000,573.500,373.500,-626.000
0.648,0.500,574.500,374.000,-625.500
0.649,-1.500,575.000,374.500,-625.000
0.650,-3.000,576.000,374.500,-624.500
0.651,-4.000,576.500,375.000,-624.000
0.652,-4.000,577.000,375.000,-623.500
0.653,-3.000,577.500,375.500,-623.000
0.654,-1.000,578.000,376.000,-623.000
0.655,1.000,578.500,376.000,-623.000
0.656,2.500,578.500,376.500,-623.000
0.657,3.000,578.500,376.500,-623.000
0.658,3.500,578.500,377.000,-623.000
0.659,3.500,578.500,377.000,-623.000
0.660,3.500,579.000,377.500,-623.000
0.661,2.500,579.000,377.500,-623.000
0.662,2.000,579.500,377.500,-622.500
0.663,1.000,580.000,377.500,-622.500
0.664,1.000,580.000,377.500,-622.000
0.665,2.000,580.500,377.500,-622.000
0.666,3.000,581.000,377.500,-621.500
0.667,4.000,581.500,377.500,-621.500
0.668,5.000,582.000,378.000,-621.000
0.669,5.500,582.500,378.000,-620.500
0.670,5.000,583.000,378.500,-620.000
0.671,3.500,583.500,379.000,-619.500
0.672,2.000,583.500,379.500,-619.000
0.673,1.000,584.000,380.000,-618.500
0.674,1.500,584.500,381.000,-617.500
0.675,2.500,585.000,381.500,-617.000
0.676,3.500,585.500,382.000,-616.500
0.677,4.500,586.000,382.500,-616.500
0.678,4.500,586.500,383.000,-616.000
0.679,4.500,586.500,383.000,-616.000
0.680,4.500,587.000,383.500,-616.000
0.681,4.000,587.500,383.500,-616.000
0.682,4.000,587.500,383.500,-616.000
0.683,4.000,588.000,384.000,-616.000
0.684,3.500,588.000,384.000,-616.000
0.685,3.500,588.500,384.500,-616.000
0.686,3.500,589.000,384.500,-616.000
0.687,4.000,589.500,384.500,-615.500
0.688,5.500,590.000,385.000,-615.500
0.689,8.000,590.500,385.500,-615.000
0.690,10.000,591.500,386.000,-614.500
0.691,12.000,592.000,387.000,-614.000
0.692,12.500,592.500,387.500,-613.500
0.693,12.500,593.000,388.500,-612.500
0.694,12.500,593.500,389.000,-612.500
0.695,12.000,593.500,389.500,-612.000
0.696,11.500,594.000,389.500,-611.500
0.697,11.000,594.500,390.000,-611.500
0.698,9.500,595.000,390.500,-611.000
0.699,7.500,595.500,391.000,-611.000
0.700,4.000,596.000,391.000,-610.500
0.701,-0.500,596.000,391.500,-610.500
0.702,-4.500,596.500,391.500,-610.000
0.703,-8.000,597.000,391.500,-610.000
0.704,-9.500,597.000,392.000,-609.500
0.705,-9.500,597.500,392.500,-609.500
0.706,-8.000,598.000,393.000,-609.000
0.707,-4.500,599.000,394.000,-608.000
0.708,-0.500,599.500,394.500,-607.500
0.709,3.000,600.500,395.000,-607.000
0.710,5.500,601.000,395.500,-606.500
0.711,6.500,601.500,396.000,-606.500
0.712,6.500,602.000,396.500,-606.000
0.713,6.500,602.000,396.500,-606.000
0.714,6.500,602.500,397.000,-605.500
0.715,6.000,602.500,397.000,-605.500
0.716,5.500,602.500,397.000,-605.500
0.717,4.000,602.500,397.000,-605.500
0.718,2.000,602.500,397.000,-606.000
0.719,1.000,602.500,397.000,-606.000
0.720,0.000,602.500,397.500,-606.500
0.721,0.500,603.000,398.000,-606.500
0.722,1.000,603.500,398.500,-606.000
0.723,2.000,604.000,399.000,-605.500
0.724,3.000,604.500,399.500,-605.000
0.725,3.500,605.000,400.000,-604.500
0.726,4.000,605.500,400.500,-604.000
0.727,3.500,606.000,401.000,-604.000
0.728,3.000,607.000,401.500,-603.500
0.729,2.000,607.500,402.000,-603.000
0.730,1.500,608.000,402.500,-602.000
0.731,1.500,608.500,403.000,-601.500
0.732,1.500,609.000,403.500,-601.000
0.733,1.000,609.500,404.500,-600.500
0.734,0.500,610.000,405.000,-600.000
0.735,-1.000,611.000,405.500,-600.000
0.736,-1.500,611.500,406.000,-600.000
0.737,-1.000,612.000,407.000,-599.500
0.738,0.000,612.500,407.500,-599.500
0.739,1.500,613.000,408.500,-599.500
0.740,2.000,613.000,408.500,-600.000
0.741,2.500,613.500,409.000,-600.000
0.742,2.500,613.500,409.000,-600.500
0.743,3.000,614.000,409.000,-601.000
0.744,3.500,614.000,409.000,-601.000
0.745,4.000,614.000,409.000,-601.000
0.746,5.000,614.000,408.500,-601.000
0.747,5.000,614.500,408.500,-601.000
0.748,5.000,614.500,408.500,-601.000
0.749,4.500,615.000,408.500,-601.000
0.750,4.500,615.000,408.000,-600.500
0.751,5.500,615.000,408.000,-600.500
0.752,7.500,615.000,408.000,-600.500
0.753,8.500,615.000,408.000,-600.000
0.754,8.500,615.000,408.000,-600.000
0.755,8.000,615.500,408.500,-599.500
0.756,6.500,616.500,409.500,-599.000
0.757,5.500,618.000,410.500,-598.000
0.758,5.500,619.500,412.000,-597.500
0.759,5.500,621.500,413.500,-596.500
0.760,5.500,623.000,414.500,-595.500
0.761,4.000,625.000,415.500,-595.000
0.762,2.000,626.000,416.500,-594.500
0.763,0.000,627.500,417.500,-594.000
0.764,-1.000,628.500,418.500,-593.500
0.765,-1.500,629.000,419.000,-593.000
0.766,-2.000,630.000,419.500,-592.500
0.767,-3.000,630.500,420.000,-592.000
0.768,-3.500,631.000,420.500,-592.000
0.769,-3.500,631.500,420.500,-591.500
0.770,-3.500,631.500,420.500,-591.000
0.771,-4.000,632.000,421.000,-590.500
0.772,-4.500,632.500,421.500,-590.500
0.773,-6.000,633.000,422.000,-590.500
0.774,-6.500,633.500,422.500,-590.000
0.775,-6.000,634.000,423.000,-590.000
0.776,-4.000,634.500,423.500,-589.500
0.777,-1.500,635.000,424.000,-589.500
0.778,0.500,635.500,424.500,-589.500
0.779,2.000,635.500,424.500,-589.500
0.780,3.500,635.500,424.500,-589.500
0.781,4.500,635.500,424.500,-589.500
0.782,5.000,635.500,425.000,-589.500
0.783,5.500,635.500,425.000,-590.000
0.784,5.000,636.000,425.500,-590.000
0.785,4.000,636.500,426.000,-589.500
0.786,3.000,637.000,426.000,-589.500
0.787,2.500,637.500,426.500,-589.000
0.788,2.000,638.000,427.000,-588.500
0.789,2.000,638.500,427.000,-588.000
0.790,2.500,639.500,428.000,-587.500
0.791,1.500,640.500,428.500,-587.000
0.792,0.500,641.000,429.500,-586.000
0.793,-0.500,642.000,430.000,-586.000
0.794,0.000,642.500,430.500,-585.500
0.795,1.000,643.000,431.000,-585.000
0.796,2.000,643.500,431.500,-585.000
0.797,3.000,644.000,432.000,-584.500
0.798,3.500,644.500,432.500,-584.500
0.799,4.500,644.500,433.000,-584.000
0.800,5.500,645.000,433.500,-583.500
0.801,6.500,645.500,434.000,-583.500
0.802,8.500,646.000,434.500,-583.000
0.803,10.500,646.000,434.500,-583.000
0.804,12.500,646.500,435.000,-582.500
0.805,14.000,647.000,435.000,-582.500
0.806,14.500,647.500,434.500,-582.000
0.807,14.500,648.000,435.000,-581.500
0.808,14.000,649.000,435.000,-581.000
0.809,12.500,650.000,436.000,-580.000
0.810,11.000,651.000,436.500,-579.500
0.811,10.500,652.000,437.500,-578.500
0.812,11.000,653.000,438.000,-578.000
0.813,12.500,654.000,439.000,-577.000
0.814,14.000,655.000,440.000,-576.500
0.815,14.000,655.500,440.500,-575.500
0.816,13.500,656.500,441.500,-575.000
0.817,12.500,657.000,442.000,-574.500
0.818,12.500,657.500,442.500,-574.000
0.819,12.000,658.000,443.000,-574.000
0.820,10.000,658.500,443.500,-574.000
0.821,6.500,659.000,444.000,-574.500
0.822,2.500,659.000,444.000,-574.500
0.823,0.500,659.500,443.500,-575.500
0.824,1.000,659.500,443.000,-576.500
0.825,3.500,659.000,442.500,-578.000
0.826,7.000,659.000,441.500,-579.000
0.827,10.000,658.500,440.500,-580.500
0.828,11.500,658.500,439.500,-581.500
0.829,11.000,658.500,439.000,-581.500
0.830,9.000,659.000,439.500,-581.500
0.831,7.000,659.500,440.000,-580.500
0.832,6.000,660.000,441.000,-579.500
0.833,5.000,660.500,442.000,-578.000
0.834,4.000,661.000,443.500,-576.500
0.835,4.000,662.000,444.500,-575.000
0.836,4.000,662.000,445.500,-573.500
0.837,5.500,662.500,446.500,-572.500
0.838,6.500,662.500,448.000,-571.000
0.839,7.000,663.000,449.000,-569.000
0.840,7.000,664.000,450.500,-567.000
0.841,7.000,665.000,452.000,-564.500
0.842,8.000,666.500,453.500,-562.000
0.843,9.500,667.500,455.500,-559.500
0.844,10.500,668.500,457.500,-556.500
0.845,10.500,669.500,460.000,-553.000
0.846,9.500,670.500,462.000,-550.000
0.847,8.000,671.000,464.000,-547.500
0.848,7.000,672.000,466.000,-545.000
0.849,7.000,673.500,467.500,-542.500
0.850,8.000,674.500,469.000,-540.500
0.851,9.000,675.500,470.500,-538.500
0.852,10.000,676.500,471.500,-537.000
0.853,9.500,677.000,472.500,-536.500
0.854,7.500,677.500,473.000,-536.500
0.855,5.500,678.000,473.000,-537.000
0.856,3.500,678.000,472.500,-538.500
0.857,3.500,677.500,471.500,-540.500
0.858,4.000,677.500,470.000,-543.000
0.859,5.000,677.500,469.000,-545.500
0.860,5.500,678.000,467.500,-548.500
0.861,6.000,678.500,466.000,-551.500
0.862,6.500,680.000,465.000,-554.000
0.863,6.500,681.500,464.500,-555.500
0.864,6.500,683.500,464.500,-556.500
0.865,6.000,685.000,465.000,-556.500
0.866,6.000,686.500,465.500,-556.000
0.867,6.000,688.000,467.000,-555.000
0.868,6.500,690.000,468.500,-553.500
0.869,6.500,691.500,470.000,-552.000
0.870,6.500,693.500,471.500,-550.000
0.871,7.000,694.500,472.500,-549.000
0.872,7.000,695.500,473.000,-548.000
0.873,8.000,696.000,473.500,-547.500
0.874,8.500,696.500,474.000,-547.000
0.875,9.000,697.000,474.500,-547.000
0.876,9.500,697.000,474.500,-547.000
0.877,10.000,697.000,474.500,-547.500
0.878,10.000,697.000,474.500,-548.000
0.879,10.000,697.000,474.500,-548.500
0.880,9.500,697.000,474.000,-549.000
0.881,8.000,697.000,474.000,-549.500
0.882,6.500,697.000,473.500,-549.500
0.883,5.500,697.000,473.500,-549.500
0.884,5.000,697.500,473.500,-549.500
0.885,5.000,697.500,473.500,-549.500
0.886,5.000,698.000,474.000,-549.500
0.887,5.000,698.000,474.000,-549.500
0.888,5.000,698.000,474.000,-549.500
0.889,4.500,698.500,473.500,-549.000
0.890,4.500,698.500,473.500,-549.000
0.891,5.000,698.500,474.000,-548.500
0.892,4.500,699.000,474.000,-548.000
0.893,3.500,699.500,474.500,-547.500
0.894,2.000,700.000,475.000,-547.000
0.895,0.000,700.500,475.000,-546.500
0.896,-1.500,701.000,475.500,-546.500
0.897,-2.000,702.000,476.000,-546.000
0.898,-2.000,702.500,476.500,-546.000
0.899,-0.500,703.500,477.000,-545.500
0.900,1.500,704.000,477.500,-545.500
0.901,3.000,704.500,477.500,-545.000
0.902,4.000,705.000,478.000,-545.000
0.903,3.500,705.000,478.500,-544.500
0.904,2.000,705.500,478.500,-544.000
0.905,0.500,706.000,479.000,-543.000
0.906,-0.500,706.500,479.500,-542.500
0.907,-1.000,707.000,480.000,-542.000
0.908,-1.500,707.500,480.500,-541.500
0.909,-1.500,708.000,481.000,-541.000
0.910,-2.000,709.000,482.000,-540.500
0.911,-2.500,709.500,482.500,-540.000
0.912,-3.500,710.000,483.000,-539.000
0.913,-4.000,711.000,483.500,-538.500
0.914,-4.500,711.500,484.000,-538.500
0.915,-3.500,712.500,484.500,-538.000
0.916,-2.500,713.500,485.500,-537.500
0.917,-1.000,714.500,486.500,-537.000
0.918,0.500,715.000,487.500,-536.500
0.919,0.500,715.500,488.000,-536.000
0.920,0.500,716.000,489.000,-535.500
0.921,0.500,716.500,489.500,-535.000
0.922,1.500,716.500,490.000,-534.500
0.923,3.000,717.000,490.500,-534.500
0.924,4.000,717.500,491.000,-534.000
0.925,4.500,718.000,491.000,-533.500
0.926,4.000,718.500,491.500,-533.500
0.927,3.500,719.000,491.500,-533.000
0.928,3.500,719.500,491.500,-533.000
0.929,4.500,720.000,491.500,-532.500
0.930,5.500,720.500,492.000,-532.000
0.931,7.000,721.500,492.500,-531.500
0.932,7.500,722.500,493.500,-530.500
0.933,7.000,723.500,494.500,-530.000
0.934,5.000,724.500,495.000,-529.000
0.935,2.500,725.000,495.500,-529.000
0.936,0.000,726.000,496.000,-528.500
0.937,-3.000,726.500,497.000,-528.000
0.938,-6.000,727.000,497.500,-527.500
0.939,-8.000,727.000,497.500,-527.000
0.940,-7.000,727.000,498.000,-527.000
0.941,-4.000,727.000,498.000,-527.000
0.942,0.000,727.000,498.000,-527.500
0.943,2.500,727.500,498.500,-527.500
0.944,4.000,728.500,499.000,-527.000
0.945,4.000,729.000,499.000,-526.500
0.946,5.000,730.000,499.500,-526.000
0.947,6.000,730.500,500.000,-525.500
0.948,7.000,731.500,500.500,-524.500
0.949,7.500,732.500,501.000,-523.500
0.950,7.000,733.000,501.500,-523.000
0.951,6.500,734.000,502.500,-522.500
0.952,6.000,734.500,503.000,-521.500
0.953,5.500,735.500,503.500,-521.000
0.954,5.500,736.000,504.000,-520.000
0.955,5.500,737.000,504.500,-519.500
0.956,6.000,737.000,505.000,-519.500
0.957,6.000,737.500,505.500,-519.000
0.958,5.000,737.500,505.500,-519.000
0.959,3.500,737.500,506.500,-518.500
0.960,1.500,738.000,507.000,-518.500
0.961,0.500,738.000,507.500,-518.000
0.962,-0.500,738.500,508.000,-518.000
0.963,-1.500,739.000,508.000,-517.500
0.964,-2.500,739.500,508.500,-517.500
0.965,-3.500,740.000,508.500,-517.500
0.966,-4.500,740.500,508.500,-517.000
0.967,-4.500,741.000,508.500,-516.500
0.968,-4.000,741.000,508.500,-516.500
0.969,-3.000,741.500,508.500,-516.000
0.970,-1.000,741.500,509.000,-515.500
0.971,1.000,742.500,509.000,-515.000
0.972,2.500,743.000,510.000,-514.500
0.973,3.500,744.000,510.500,-514.000
0.974,3.500,745.000,511.000,-513.000
0.975,2.500,745.500,511.500,-512.500
0.976,1.500,746.000,512.000,-512.500
0.977,0.500,746.500,512.000,-512.000
0.978,-0.500,746.500,512.500,-512.000
0.979,-1.500,746.500,512.500,-511.500
0.980,-3.000,746.500,512.500,-511.500
0.981,-4.500,747.000,512.500,-511.000
0.982,-5.500,747.000,512.500,-511.000
0.983,-6.000,747.000,513.000,-510.500
0.984,-6.500,747.500,513.000,-510.500
0.985,-6.500,748.000,513.500,-510.000
0.986,-7.500,748.500,514.500,-509.500
0.987,-9.000,749.500,515.000,-508.500
0.988,-10.000,750.000,515.500,-508.000
0.989,-11.000,750.500,516.000,-507.500
0.990,-11.000,751.000,516.000,-506.500
0.991,-9.500,752.000,516.500,-505.500
0.992,-7.500,752.500,517.500,-504.500
0.993,-5.000,753.500,518.000,-504.000
0.994,-3.000,754.500,519.000,-503.500
0.995,-1.500,755.000,519.500,-503.000
0.996,-0.500,755.500,520.000,-503.000
0.997,-0.500,755.500,520.000,-503.000
0.998,-1.500,755.500,520.000,-502.500
0.999,-2.000,755.500,520.000,-502.500
1.000,-2.500,756.000,520.500,-502.000
1.001,-2.000,756.000,521.000,-502.000
1.002,-1.000,756.500,521.000,-501.500
1.003,-0.500,757.000,521.000,-501.500
1.004,-1.500,757.500,521.500,-501.500
1.005,-3.500,758.000,521.500,-501.000
1.006,-7.000,759.000,522.000,-500.500
1.007,-10.000,760.000,523.000,-499.500
1.008,-11.000,760.500,523.500,-498.500
1.009,-11.000,761.500,524.000,-498.000
1.010,-9.000,762.000,524.500,-497.000
1.011,-6.500,762.000,524.500,-496.500
1.012,-3.500,762.000,525.000,-496.000
1.013,-2.000,762.000,525.000,-495.500
1.014,-2.000,762.500,525.000,-495.000
1.015,-3.500,763.000,525.500,-494.500
1.016,-4.500,763.500,526.000,-493.500
1.017,-4.500,764.000,526.500,-493.000
1.018,-3.500,764.500,527.000,-493.000
1.019,-2.500,765.000,527.000,-493.000
1.020,-2.000,765.000,527.500,-493.000
1.021,-3.500,765.000,527.500,-493.000
1.022,-6.000,765.500,527.500,-492.500
1.023,-7.500,766.000,528.000,-492.000
1.024,-6.500,767.000,528.500,-491.500
1.025,-4.000,767.500,529.500,-490.500
1.026,-2.000,768.500,530.000,-490.000
1.027,-0.500,769.000,530.500,-489.500
1.028,-0.500,770.000,530.500,-489.000
1.029,-1.500,770.500,531.000,-488.000
1.030,-2.500,771.000,531.500,-487.500
1.031,-3.000,770.500,531.500,-487.000
1.032,-3.500,770.500,531.500,-487.000
1.033,-3.000,770.500,532.000,-486.500
1.034,-2.000,770.500,532.000,-486.000
1.035,-0.500,771.000,532.500,-485.500
1.036,0.500,771.500,532.500,-485.500
1.037,1.000,772.000,533.000,-485.000
1.038,0.500,772.500,533.000,-485.000
1.039,1.500,773.000,533.500,-484.500
1.040,2.500,773.500,533.500,-484.500
1.041,3.500,774.000,534.000,-484.000
1.042,3.500,774.500,534.500,-483.500
1.043,3.000,774.500,535.000,-483.000
1.044,2.500,775.000,535.500,-482.500
1.045,1.500,775.500,535.500,-482.000
1.046,1.000,776.000,535.500,-482.000
1.047,1.000,776.500,536.000,-482.000
1.048,2.000,777.500,536.000,-481.500
1.049,4.000,778.000,536.500,-481.000
1.050,6.000,778.500,536.500,-480.500
1.051,6.500,779.000,537.000,-479.500
1.052,6.000,779.500,537.500,-478.500
1.053,5.000,780.000,538.000,-477.500
1.054,4.000,780.500,538.000,-477.000
1.055,2.500,781.000,538.500,-476.000
1.056,2.000,782.000,539.000,-475.500
1.057,2.000,782.500,540.000,-474.500
1.058,2.000,783.000,540.500,-474.000
1.059,2.500,783.500,541.000,-474.000
1.060,2.000,783.500,541.500,-473.500
1.061,1.500,784.000,542.000,-473.500
1.062,1.000,784.500,542.000,-473.000
1.063,0.500,785.000,542.500,-472.500
1.064,1.000,785.500,542.500,-472.000
1.065,3.000,786.000,543.000,-471.500
1.066,6.500,786.500,543.000,-471.000
1.067,10.500,787.000,543.500,-470.000
1.068,13.500,788.000,544.500,-469.500
1.069,14.500,789.000,545.500,-468.500
1.070,14.000,790.000,546.500,-467.500
1.071,12.500,791.000,547.500,-466.500
1.072,10.500,792.000,548.500,-465.500
1.073,9.500,792.500,549.000,-465.000
1.074,9.500,793.500,549.500,-464.500
1.075,10.500,794.000,550.000,-463.500
1.076,11.500,794.500,550.000,-463.500
1.077,12.500,795.000,549.500,-463.000
1.078,12.500,795.000,549.000,-462.500
1.079,12.500,795.500,549.000,-462.000
1.080,12.500,796.000,549.000,-461.000
1.081,13.000,796.500,549.000,-460.500
1.082,12.500,797.000,549.500,-460.000
1.083,11.500,797.500,550.000,-460.000
1.084,10.500,798.000,551.000,-459.500
1.085,9.000,798.500,551.500,-459.000
1.086,7.500,799.000,552.000,-458.500
1.087,6.500,800.000,552.000,-458.000
1.088,6.000,800.500,552.500,-458.000
1.089,6.000,801.000,553.000,-457.000
1.090,5.500,802.000,553.500,-456.000
1.091,4.500,803.000,554.500,-455.000
1.092,3.500,804.000,555.500,-454.000
1.093,2.500,805.000,556.500,-453.000
1.094,1.500,805.500,557.000,-452.500
1.095,0.500,806.000,557.500,-451.500
1.096,-1.000,806.500,557.500,-451.000
1.097,-1.500,807.000,558.000,-450.500
1.098,-2.500,807.500,559.000,-449.500
1.099,-2.500,808.000,559.500,-449.000
1.100,-1.000,809.000,560.500,-448.500
1.101,1.000,809.500,561.000,-448.500
1.102,3.500,810.500,561.000,-448.000
1.103,6.000,811.000,561.500,-448.000
1.104,8.000,812.000,562.000,-447.500
1.105,9.500,812.500,562.000,-447.000
1.106,10.000,813.500,562.500,-446.000
1.107,9.500,814.000,562.500,-445.000
1.108,9.000,814.500,563.000,-444.500
1.109,8.000,815.500,563.500,-443.500
1.110,6.500,816.500,564.000,-442.500
1.111,6.000,817.500,564.500,-442.000
1.112,6.500,818.000,565.000,-441.000
1.113,8.500,819.000,566.000,-440.000
1.114,11.500,820.000,566.500,-439.000
1.115,14.000,821.000,567.500,-438.000
1.116,15.500,822.000,568.000,-437.500
1.117,16.500,822.500,568.500,-436.500
1.118,16.000,823.000,569.000,-436.000
1.119,15.500,823.500,569.500,-435.500
1.120,15.500,824.000,569.500,-435.500
1.121,15.000,824.500,570.000,-435.500
1.122,15.000,824.500,570.000,-435.000
1.123,14.000,824.500,570.000,-435.000
1.124,13.000,825.000,570.500,-434.500
1.125,11.000,826.000,570.500,-434.000
1.126,8.500,827.000,571.000,-433.000
1.127,6.000,828.000,571.500,-432.000
1.128,3.500,829.000,572.000,-431.500
1.129,2.500,829.500,572.000,-431.000
1.130,2.500,830.500,572.500,-430.500
1.131,2.500,831.000,572.500,-430.000
1.132,2.500,831.500,572.500,-429.500
1.133,1.500,832.000,573.000,-429.000
1.134,0.000,833.000,573.000,-428.500
1.135,-1.500,833.500,573.500,-428.500
1.136,-2.000,834.500,574.000,-428.000
1.137,-1.000,834.500,574.000,-428.000
1.138,0.500,834.500,574.000,-428.000
1.139,1.500,834.500,573.500,-428.000
1.140,1.500,834.000,573.500,-428.500
1.141,1.500,834.500,573.500,-428.500
1.142,1.500,834.500,573.500,-428.500
1.143,2.500,835.000,574.000,-428.000
1.144,4.000,835.500,574.000,-428.000
1.145,5.500,836.000,574.000,-427.500
1.146,6.500,836.500,574.000,-427.500
1.147,6.000,837.000,574.000,-427.000
1.148,5.000,837.500,574.000,-427.000
1.149,4.000,838.000,574.000,-426.500
1.150,4.500,839.000,574.500,-426.500
1.151,5.000,840.000,575.000,-426.000
1.152,6.000,841.000,575.500,-425.500
1.153,8.000,842.000,576.000,-425.000
1.154,10.000,843.000,576.000,-424.500
1.155,11.500,843.500,576.000,-424.000
1.156,11.000,844.500,576.500,-423.500
1.157,10.000,844.500,576.500,-423.500
1.158,8.000,844.500,576.500,-423.000
1.159,6.000,845.000,576.500,-423.000
1.160,4.500,845.000,576.500,-422.500
1.161,4.000,845.000,577.000,-422.500
1.162,5.000,845.000,577.000,-422.000
1.163,6.000,845.500,577.000,-422.000
1.164,8.000,846.000,577.500,-422.000
1.165,9.500,846.500,577.500,-421.500
1.166,11.000,847.000,578.000,-421.000
1.167,12.000,847.500,578.000,-421.000
1.168,11.500,848.000,578.000,-420.500
1.169,10.500,848.000,578.000,-420.000
1.170,9.000,849.000,578.000,-419.500
1.171,8.000,849.500,578.500,-418.500
1.172,8.000,849.500,579.000,-418.500
1.173,8.000,850.000,579.500,-418.000
1.174,7.500,850.500,579.500,-417.500
1.175,7.000,851.000,580.000,-417.500
1.176,5.500,851.500,580.500,-417.000
1.177,4.500,851.500,580.500,-417.000
1.178,4.000,852.000,581.000,-417.000
1.179,3.500,853.000,581.500,-416.500
1.180,3.000,853.500,581.500,-416.500
1.181,3.000,854.000,582.000,-416.500
1.182,3.500,854.000,582.000,-416.000
1.183,4.000,854.500,582.000,-416.000
1.184,4.500,855.000,582.000,-415.500
1.185,5.000,855.500,582.000,-415.500
1.186,5.500,856.000,582.500,-415.000
1.187,6.000,856.500,582.500,-414.500
1.188,5.500,857.000,583.000,-414.000
1.189,5.000,858.000,583.500,-413.000
1.190,4.500,858.500,584.000,-412.500
1.191,4.000,859.500,584.500,-412.000
1.192,3.500,860.000,584.500,-411.500
1.193,3.500,861.000,585.000,-411.000
1.194,2.500,861.500,585.500,-410.500
1.195,2.000,862.000,586.000,-410.000
1.196,0.500,862.500,586.500,-409.500
1.197,-1.000,863.000,587.000,-409.000
1.198,-2.000,863.500,587.500,-408.500
1.199,-3.000,863.500,587.500,-408.500
1.200,-3.000,863.500,587.500,-408.500
1.201,-2.500,864.000,587.500,-408.500
1.202,-2.500,864.500,587.500,-408.500
1.203,-2.500,864.500,587.500,-408.000
1.204,-2.500,865.000,587.500,-408.000
1.205,-3.000,865.500,587.500,-407.500
1.206,-4.000,866.000,588.000,-407.000
1.207,-5.000,866.500,588.000,-406.500
1.208,-6.000,866.500,588.000,-406.000
1.209,-7.000,867.000,588.000,-406.000
1.210,-7.500,866.500,587.500,-405.500
1.211,-6.500,866.500,587.500,-405.500
1.212,-5.000,866.500,587.500,-405.000
1.213,-2.000,866.000,587.000,-405.000
1.214,0.500,866.000,587.000,-404.500
1.215,2.500,865.500,587.000,-404.500
1.216,3.000,865.500,587.500,-404.500
1.217,2.000,866.000,588.000,-404.000
1.218,0.500,867.000,588.500,-404.000
1.219,-2.000,868.500,589.500,-403.500
1.220,-4.000,870.000,590.500,-402.500
1.221,-5.000,871.500,591.500,-402.000
1.222,-5.000,873.000,592.500,-401.000
1.223,-5.500,874.500,593.000,-400.000
1.224,-5.500,876.000,594.000,-398.500
1.225,-5.500,877.000,594.500,-398.000
1.226,-5.000,878.000,595.500,-397.000
1.227,-5.500,879.000,596.000,-396.000
1.228,-6.000,879.500,596.500,-395.000
1.229,-7.000,880.500,597.000,-394.500
1.230,-7.500,881.000,597.000,-394.000
1.231,-8.000,881.000,597.000,-394.000
1.232,-8.500,881.000,596.500,-394.000
1.233,-8.000,881.000,596.500,-393.500
1.234,-6.000,881.500,596.500,-393.500
1.235,-3.000,881.500,596.500,-393.500
1.236,-1.000,882.000,597.000,-393.500
1.237,0.500,882.500,597.500,-393.000
1.238,0.500,883.000,598.000,-392.500
1.239,0.000,883.500,598.000,-392.500
1.240,-1.000,883.500,598.000,-392.000
1.241,-1.500,884.000,598.000,-391.500
1.242,-2.500,884.000,598.500,-391.000
1.243,-3.000,884.500,598.500,-390.500
1.244,-3.000,885.000,599.000,-390.000
1.245,-3.500,885.500,599.000,-390.000
1.246,-3.500,886.000,599.000,-389.500
1.247,-3.500,886.500,599.500,-389.000
1.248,-2.500,887.000,599.500,-388.500
1.249,-1.000,887.500,600.500,-388.000
1.250,-0.500,888.500,601.000,-387.500
1.251,-0.500,889.000,601.500,-386.500
1.252,-2.500,890.000,602.000,-386.000
1.253,-5.000,890.500,602.500,-385.500
1.254,-7.500,891.000,603.000,-385.000
1.255,-8.500,891.500,603.500,-384.000
1.256,-8.500,892.000,604.000,-383.500
1.257,-7.000,892.500,604.500,-383.000
1.258,-5.500,893.000,605.000,-382.500
1.259,-4.000,893.500,605.500,-382.500
1.260,-3.000,894.000,606.000,-382.500
1.261,-3.000,894.500,606.500,-382.500
1.262,-4.000,895.000,606.500,-382.500
1.263,-5.500,895.500,606.500,-382.500
1.264,-6.000,896.000,606.500,-383.000
1.265,-6.000,896.500,607.000,-382.500
1.266,-5.500,897.000,607.500,-382.000
1.267,-5.000,898.000,608.000,-381.500
1.268,-3.500,898.500,608.500,-381.000
1.269,-2.500,899.000,609.000,-380.000
1.270,-2.500,900.000,609.500,-379.500
1.271,-3.500,901.000,610.000,-378.500
1.272,-5.000,901.500,610.500,-378.000
1.273,-5.500,902.500,611.500,-377.500
1.274,-6.000,903.500,612.000,-377.000
1.275,-6.000,904.500,613.000,-376.500
1.276,-6.500,905.000,613.500,-376.000
1.277,-6.500,905.500,614.000,-375.500
1.278,-6.000,905.500,614.000,-375.500
1.279,-5.500,905.500,614.000,-375.500
1.280,-5.000,905.500,614.500,-375.500
1.281,-4.500,905.500,614.500,-375.500
1.282,-4.000,906.000,614.500,-375.500
1.283,-4.000,906.000,615.000,-375.000
1.284,-5.000,906.500,615.000,-374.500
1.285,-6.500,907.000,615.500,-374.000
1.286,-8.000,907.500,615.500,-373.500
1.287,-8.500,908.000,615.500,-373.500
1.288,-8.000,908.500,615.500,-373.000
1.289,-6.500,909.000,615.500,-372.500
1.290,-5.000,910.000,616.000,-372.500
1.291,-4.500,911.000,616.500,-371.500
1.292,-4.500,912.000,617.000,-371.000
1.293,-5.000,913.000,617.500,-370.000
1.294,-5.500,914.500,618.500,-369.000
1.295,-6.000,915.500,619.500,-368.000
1.296,-6.000,916.000,620.500,-367.500
1.297,-5.500,917.000,621.000,-367.000
1.298,-4.500,917.500,622.000,-366.500
1.299,-3.500,917.500,622.500,-366.000
1.300,-3.000,918.000,622.500,-366.000
1.301,-3.000,918.000,622.500,-366.000
1.302,-3.500,918.500,622.500,-366.000
1.303,-3.500,919.000,622.500,-365.500
1.304,-4.500,919.500,623.000,-365.000
1.305,-6.500,920.000,623.500,-364.500
1.306,-9.500,921.000,624.500,-364.000
1.307,-12.000,921.500,625.000,-363.500
1.308,-13.000,922.500,625.000,-363.000
1.309,-12.500,923.000,625.500,-362.500
1.310,-12.000,923.500,625.500,-362.000
1.311,-11.000,924.500,626.000,-361.500
1.312,-10.000,924.500,626.500,-360.500
1.313,-8.500,925.000,626.500,-360.000
1.314,-7.000,925.500,627.000,-360.000
1.315,-5.000,926.000,627.000,-359.500
1.316,-4.500,926.500,627.500,-359.500
1.317,-5.000,926.500,627.500,-359.500
1.318,-6.500,927.000,628.000,-359.000
1.319,-8.000,927.500,628.500,-359.000
1.320,-9.500,927.500,628.500,-358.500
1.321,-10.000,927.500,629.000,-358.500
1.322,-10.000,928.000,629.000,-358.500
1.323,-9.500,928.500,629.000,-358.500
1.324,-8.000,929.000,629.500,-358.500
1.325,-7.500,929.000,629.500,-358.500
1.326,-7.500,929.500,629.500,-358.500
1.327,-8.000,930.000,629.500,-358.500
1.328,-8.500,930.500,629.500,-358.000
1.329,-8.000,931.000,630.000,-357.500
1.330,-7.500,931.500,630.500,-357.000
1.331,-6.500,932.500,631.500,-356.500
1.332,-5.500,933.000,632.000,-356.000
1.333,-4.500,933.500,632.500,-355.500
1.334,-4.000,934.000,633.000,-354.500
1.335,-3.500,934.500,633.500,-354.000
1.336,-3.000,935.000,634.000,-353.500
1.337,-3.000,935.500,634.000,-353.500
1.338,-3.000,936.000,634.500,-353.000
1.339,-3.500,937.000,635.000,-352.500
1.340,-3.500,937.000,635.500,-352.500
1.341,-3.000,937.500,635.500,-352.500
1.342,-1.500,937.500,636.000,-352.500
1.343,-0.500,938.000,636.000,-352.500
1.344,0.000,938.500,636.000,-352.000
1.345,0.500,939.000,636.000,-352.000
1.346,1.000,939.000,636.000,-352.000
1.347,1.000,939.500,636.000,-352.000
1.348,0.500,940.000,636.000,-351.500
1.349,-1.500,941.000,636.500,-351.000
1.350,-2.500,941.500,637.500,-350.500
1.351,-2.500,942.500,638.000,-349.500
1.352,-2.000,943.000,638.000,-349.000
1.353,-1.000,943.500,638.500,-348.500
1.354,2.000,943.500,639.000,-348.500
1.355,5.000,943.500,639.000,-348.000
1.356,6.500,944.000,639.000,-348.000
1.357,6.000,944.000,639.000,-348.000
1.358,4.000,944.000,639.000,-347.500
1.359,1.500,944.000,639.000,-347.500
1.360,0.000,944.500,639.000,-347.500
1.361,-1.000,945.000,639.000,-347.000
1.362,-1.000,945.000,639.500,-347.000
1.363,-1.500,945.500,640.000,-346.500
1.364,-2.000,945.500,640.000,-346.500
1.365,-2.500,946.000,641.000,-346.000
1.366,-2.500,946.000,641.500,-345.500
1.367,-1.500,946.500,642.000,-345.500
1.368,1.000,947.500,642.000,-345.000
1.369,3.500,948.000,642.500,-344.500
1.370,5.500,949.000,643.000,-344.000
1.371,7.000,949.500,643.500,-343.500
1.372,7.000,950.500,644.000,-343.000
1.373,6.000,951.500,644.500,-342.500
1.374,4.500,952.500,645.500,-342.000
1.375,2.500,953.000,646.000,-342.000
1.376,1.000,954.000,646.500,-342.000
1.377,0.500,954.000,647.000,-342.000
1.378,0.500,954.500,647.500,-341.500
1.379,1.000,955.000,648.000,-341.500
1.380,1.500,955.000,648.000,-341.500
1.381,2.000,955.000,648.000,-342.000
1.382,2.500,955.000,648.000,-342.000
1.383,3.000,955.500,647.500,-342.000
1.384,3.500,956.000,647.500,-342.000
1.385,3.500,957.000,647.500,-341.500
1.386,4.000,957.500,648.000,-341.000
1.387,4.500,958.000,648.000,-340.500
1.388,6.000,958.500,648.500,-340.000
1.389,7.500,959.500,649.000,-339.000
1.390,8.000,960.500,650.000,-338.000
1.391,8.500,961.000,650.500,-337.000
1.392,9.500,961.500,651.000,-336.000
1.393,10.500,962.000,651.500,-335.000
1.394,11.000,962.000,652.000,-334.500
1.395,10.500,962.500,652.000,-334.000
1.396,8.500,963.000,652.500,-333.000
1.397,6.000,963.000,653.000,-332.500
1.398,4.500,963.500,653.500,-332.500
1.399,3.500,964.000,653.500,-332.000
1.400,3.500,964.500,653.500,-332.000
1.401,2.500,964.500,654.000,-332.000
1.402,1.000,965.000,654.000,-331.500
1.403,-1.000,965.500,654.500,-331.000
1.404,-3.000,966.000,654.500,-330.500
1.405,-4.500,966.000,655.000,-330.000
1.406,-5.500,966.500,655.000,-329.000
1.407,-6.000,967.500,655.500,-328.500
1.408,-6.500,968.000,656.000,-328.000
1.409,-6.500,969.000,656.500,-327.500
1.410,-6.500,969.500,657.000,-326.500
1.411,-5.500,970.000,657.500,-325.500
1.412,-3.500,971.000,658.000,-324.500
1.413,-2.000,972.000,659.000,-323.500
1.414,-0.500,973.000,659.500,-322.500
1.415,0.000,973.500,660.000,-322.000
1.416,-1.000,974.500,660.500,-321.500
1.417,-3.000,974.500,660.500,-321.000
1.418,-5.000,975.000,661.000,-321.000
1.419,-6.000,975.000,661.000,-320.500
1.420,-6.000,975.500,661.000,-320.000
1.421,-5.000,975.500,661.500,-319.500
1.422,-4.500,976.000,662.000,-319.500
1.423,-3.500,976.000,662.000,-319.000
1.424,-2.500,976.500,662.500,-319.000
1.425,-1.500,977.000,662.500,-318.500
1.426,0.000,977.500,662.500,-318.000
1.427,3.000,978.000,663.000,-318.000
1.428,5.000,979.000,663.000,-317.500
1.429,6.500,979.500,663.500,-316.500
1.430,6.500,980.500,663.500,-316.000
1.431,6.000,981.500,664.000,-315.000
1.432,5.000,982.500,664.500,-314.000
1.433,4.000,983.000,665.500,-313.500
1.434,3.000,984.000,666.000,-312.500
1.435,2.000,984.500,667.000,-312.000
1.436,2.000,985.500,667.500,-311.500
1.437,2.500,985.500,667.500,-311.000
1.438,2.500,986.000,667.500,-311.000
1.439,3.000,986.000,667.000,-311.000
1.440,3.000,986.000,667.000,-311.000
1.441,4.000,986.000,667.000,-310.500
1.442,5.000,986.000,667.500,-310.000
1.443,5.500,986.500,667.500,-309.500
1.444,5.500,987.500,668.000,-309.000
1.445,5.000,988.000,669.000,-308.000
1.446,4.500,988.500,669.500,-307.500
1.447,4.500,989.500,669.500,-307.000
1.448,4.500,990.000,669.500,-306.000
1.449,4.500,990.500,669.500,-305.500
1.450,5.000,991.500,670.000,-305.000
1.451,5.500,992.000,670.500,-304.000
1.452,6.000,993.000,671.500,-303.000
1.453,6.000,994.000,672.000,-302.500
1.454,6.000,995.000,673.000,-302.000
1.455,6.000,995.500,673.500,-301.500
1.456,7.000,996.000,673.500,-301.000
1.457,9.500,996.000,674.000,-300.500
1.458,12.000,996.500,674.500,-300.000
1.459,13.500,996.500,674.500,-299.500
1.460,13.500,997.000,674.500,-299.000
1.461,12.000,997.500,675.000,-298.500
1.462,11.000,998.000,675.000,-298.000
1.463,11.000,998.500,675.500,-298.000
1.464,11.500,999.000,675.500,-297.500
1.465,12.500,999.500,676.000,-297.500
1.466,12.500,1000.000,676.000,-297.000
1.467,11.500,1000.500,676.500,-296.500
1.468,10.500,1001.000,676.500,-296.000
1.469,9.000,1002.000,677.000,-295.500
1.470,7.500,1002.500,677.500,-295.000
1.471,7.000,1003.500,678.000,-294.000
1.472,7.000,1004.000,678.500,-293.500
1.473,7.000,1004.500,679.000,-292.500
1.474,7.000,1005.500,679.500,-292.000
1.475,6.000,1006.000,680.000,-291.000
1.476,4.500,1006.500,680.500,-290.500
1.477,3.500,1007.500,681.000,-290.000
1.478,4.000,1008.000,681.000,-289.000
1.479,5.000,1008.000,681.500,-289.000
1.480,6.500,1008.500,682.000,-288.500
1.481,6.500,1008.500,682.000,-288.000
1.482,6.500,1009.000,682.000,-288.000
1.483,6.000,1009.000,682.000,-287.500
1.484,5.500,1009.500,681.500,-287.000
1.485,4.500,1010.000,681.500,-287.000
1.486,3.000,1010.500,681.500,-286.500
1.487,1.500,1010.500,682.000,-286.000
1.488,1.000,1011.500,682.000,-285.500
1.489,2.000,1012.000,682.500,-285.000
1.490,3.000,1012.500,682.500,-284.500
1.491,3.500,1013.500,683.000,-284.000
1.492,3.500,1014.000,683.500,-283.000
1.493,2.500,1014.500,684.000,-282.500
1.494,2.000,1015.000,684.500,-282.000
1.495,2.000,1015.500,685.500,-281.500
1.496,3.000,1016.000,685.500,-281.000
1.497,4.000,1016.500,686.000,-280.500
1.498,5.000,1017.000,686.000,-280.000
1.499,4.500,1017.000,686.000,-280.000
1.500,3.000,1017.500,686.000,-279.500
1.501,0.500,1017.500,686.000,-279.500
1.502,-1.500,1017.500,686.000,-280.000
1.503,-2.500,1018.000,686.000,-280.000
1.504,-3.500,1018.000,686.000,-279.500
1.505,-5.000,1019.000,686.000,-279.000
1.506,-6.000,1019.500,686.500,-278.500
1.507,-6.000,1020.500,687.000,-277.500
1.508,-5.500,1021.000,687.000,-277.000
1.509,-4.500,1021.500,687.500,-276.000
1.510,-3.000,1022.500,688.000,-275.500
1.511,-0.500,1023.000,688.000,-274.500
1.512,2.500,1023.500,688.500,-273.500
1.513,5.500,1024.500,689.000,-272.500
1.514,7.000,1025.000,689.500,-272.000
1.515,7.000,1025.500,690.000,-271.500
1.516,6.500,1026.000,690.000,-271.000
1.517,6.000,1026.000,690.000,-271.000
1.518,5.500,1026.000,690.500,-271.000
1.519,5.000,1026.000,690.500,-271.000
1.520,4.500,1026.000,690.500,-271.000
1.521,3.000,1026.000,690.500,-271.000
1.522,1.500,1026.500,690.500,-271.000
1.523,0.000,1027.000,690.500,-271.000
1.524,-0.500,1027.000,690.500,-271.000
1.525,0.000,1027.500,690.500,-270.500
1.526,1.500,1027.500,690.500,-270.000
1.527,3.000,1028.000,690.500,-269.500
1.528,3.500,1028.500,691.000,-269.000
1.529,4.000,1029.000,691.500,-268.500
1.530,4.500,1030.000,692.000,-267.500
1.531,4.000,1030.500,692.500,-267.000
1.532,3.000,1031.500,692.500,-266.000
1.533,0.500,1032.000,693.000,-265.500
1.534,-2.500,1032.000,693.000,-265.000
1.535,-4.500,1032.500,693.500,-264.500
1.536,-5.000,1032.500,693.500,-264.000
1.537,-3.500,1032.500,693.500,-263.500
1.538,-2.000,1032.500,693.500,-263.000
1.539,-1.000,1033.000,694.000,-262.500
1.540,-0.500,1033.500,694.500,-262.000
1.541,0.000,1034.000,695.000,-261.500
1.542,1.000,1034.500,695.000,-261.500
1.543,3.000,1034.500,695.000,-261.000
1.544,5.000,1035.000,695.500,-261.000
1.545,6.500,1035.000,695.500,-260.500
1.546,7.000,1035.500,695.500,-260.000
1.547,6.500,1035.500,695.500,-259.500
1.548,5.500,1035.500,695.500,-259.000
1.549,3.500,1036.000,696.000,-258.500
1.550,1.000,1036.500,696.000,-257.500
1.551,-1.000,1037.000,696.500,-256.500
1.552,-1.500,1037.500,696.500,-256.000
1.553,-1.500,1038.000,697.000,-255.000
1.554,-1.500,1038.500,697.500,-254.500
1.555,-1.500,1039.000,697.500,-254.000
1.556,-1.000,1039.000,697.500,-253.500
1.557,0.000,1039.500,697.500,-253.000
1.558,1.500,1039.500,697.500,-252.500
1.559,2.000,1040.000,697.500,-252.000
1.560,1.500,1040.500,698.000,-251.500
1.561,0.500,1041.000,698.000,-251.500
1.562,-0.500,1041.500,698.000,-251.000
1.563,-2.000,1041.500,698.000,-251.000
1.564,-2.500,1041.500,698.000,-251.000
1.565,-2.500,1041.500,698.000,-251.000
1.566,-2.500,1042.000,697.500,-250.500
1.567,-3.000,1042.000,697.500,-250.500
1.568,-4.000,1042.500,698.000,-250.000
1.569,-5.000,1043.000,698.000,-249.500
1.570,-4.500,1043.500,698.500,-248.500
1.571,-3.500,1044.000,699.000,-248.000
1.572,-2.500,1044.000,699.000,-248.000
1.573,-0.500,1044.500,698.500,-247.500
1.574,1.000,1045.000,698.500,-247.500
1.575,2.500,1045.500,699.000,-247.000
1.576,4.000,1046.000,699.000,-246.500
1.577,4.500,1046.500,699.500,-246.000
1.578,5.000,1047.000,700.000,-246.000
1.579,6.000,1047.000,700.500,-245.500
1.580,7.000,1047.500,700.500,-245.500
1.581,8.500,1047.500,701.000,-245.000
1.582,9.500,1047.500,701.000,-245.000
1.583,10.500,1047.500,701.500,-245.000
1.584,11.000,1048.000,701.500,-245.000
1.585,10.500,1048.000,701.500,-244.500
1.586,10.000,1048.500,702.000,-244.000
1.587,9.000,1049.000,702.000,-243.500
1.588,8.000,1049.500,702.500,-243.000
1.589,6.500,1050.500,702.500,-242.000
1.590,5.000,1051.000,703.000,-241.500
1.591,3.500,1051.500,703.500,-241.500
1.592,2.500,1052.500,704.000,-241.000
1.593,1.500,1053.000,704.500,-240.500
1.594,0.500,1053.500,705.000,-240.000
1.595,-1.500,1054.000,705.000,-240.000
1.596,-2.000,1054.500,705.500,-239.500
1.597,-2.500,1055.000,706.000,-239.000
1.598,-2.000,1055.500,706.000,-238.500
1.599,-2.000,1055.500,706.500,-238.500
1.600,-2.000,1055.500,706.000,-238.000
1.601,-2.000,1055.500,706.000,-238.000
1.602,-1.000,1055.500,706.000,-238.000
1.603,0.500,1056.000,706.000,-238.000
1.604,1.500,1056.500,706.500,-237.500
1.605,1.000,1057.000,707.000,-237.000
1.606,-0.500,1058.000,707.000,-237.000
1.607,-3.000,1058.500,707.500,-236.500
1.608,-5.000,1059.000,708.000,-236.000
1.609,-5.500,1059.500,708.500,-236.000
1.610,-4.500,1060.500,708.500,-235.500
1.611,-2.000,1061.000,709.000,-235.500
1.612,0.500,1061.500,709.000,-235.500
1.613,3.000,1062.500,709.000,-235.000
1.614,4.000,1063.000,709.500,-234.500
1.615,3.000,1063.500,709.500,-234.500
1.616,1.000,1064.000,710.000,-234.000
1.617,-1.500,1064.000,710.500,-234.000
1.618,-4.000,1064.500,710.500,-234.000
1.619,-5.500,1064.500,711.000,-234.000
1.620,-5.500,1064.500,711.500,-234.000
1.621,-4.000,1065.000,711.500,-234.000
1.622,-2.000,1065.000,711.500,-234.000
1.623,-1.000,1065.500,712.000,-234.000
1.624,0.000,1065.500,712.000,-234.000
1.625,0.500,1066.000,712.000,-234.000
1.626,1.000,1066.500,712.500,-233.500
1.627,2.000,1067.500,712.500,-233.000
1.628,3.000,1068.000,713.000,-233.000
1.629,4.500,1069.000,713.500,-233.000
1.630,5.500,1069.500,714.000,-232.500
1.631,5.500,1070.000,714.000,-232.500
1.632,5.000,1070.500,714.500,-232.500
1.633,3.000,1070.500,714.500,-232.500
1.634,2.000,1071.000,715.000,-233.000
1.635,2.000,1071.500,715.500,-233.000
1.636,3.000,1072.000,716.000,-233.000
1.637,4.500,1072.500,716.000,-233.000
1.638,5.500,1072.500,716.000,-233.000
1.639,5.000,1073.000,716.000,-233.500
1.640,4.000,1073.000,716.000,-234.000
1.641,2.500,1073.000,716.000,-234.500
1.642,0.500,1073.500,716.500,-234.500
1.643,-0.500,1073.500,716.500,-234.500
1.644,-0.500,1074.000,717.000,-234.500
1.645,0.500,1074.500,717.000,-234.500
1.646,0.500,1075.000,717.000,-234.500
1.647,0.000,1075.000,717.500,-234.000
1.648,0.000,1075.000,717.000,-234.500
1.649,0.500,1075.500,717.000,-234.500
1.650,0.000,1075.500,717.000,-235.000
1.651,-0.500,1075.500,716.500,-235.500
1.652,-1.000,1075.500,716.000,-236.000
1.653,-1.500,1075.000,715.500,-237.000
1.654,-2.000,1074.500,715.000,-237.500
1.655,-1.500,1074.500,714.500,-238.500
1.656,0.000,1074.500,714.000,-238.500
1.657,2.500,1074.500,714.000,-239.000
1.658,4.500,1075.000,714.000,-239.000
1.659,5.500,1075.000,714.500,-238.500
1.660,5.000,1075.500,715.000,-238.000
1.661,4.500,1075.500,715.500,-237.000
1.662,3.500,1075.500,716.500,-236.000
1.663,2.500,1076.000,717.000,-234.500
1.664,1.500,1076.500,718.000,-233.000
1.665,-0.500,1077.500,719.500,-231.000
1.666,-2.000,1078.500,721.000,-228.500
1.667,-3.000,1080.000,723.000,-226.000
1.668,-3.000,1081.000,725.500,-223.000
1.669,-2.000,1082.500,727.500,-220.000
1.670,-0.500,1084.000,730.000,-216.500
1.671,0.000,1085.000,732.500,-213.000
1.672,0.000,1086.000,734.500,-210.000
1.673,0.000,1087.000,736.500,-207.000
1.674,0.500,1088.000,738.000,-204.500
1.675,1.500,1089.000,739.500,-202.000
1.676,2.500,1089.500,741.000,-200.000
1.677,3.000,1090.000,742.000,-198.500
1.678,3.000,1090.000,742.500,-197.500
1.679,3.000,1090.000,743.000,-197.000
1.680,3.000,1090.000,743.500,-196.500
1.681,3.500,1090.000,743.000,-197.000
1.682,2.500,1089.500,742.500,-198.000
1.683,0.500,1089.000,741.000,-200.000
1.684,-2.500,1088.500,739.500,-202.000
1.685,-5.500,1088.500,738.000,-204.500
1.686,-6.500,1088.500,737.000,-207.000
1.687,-6.000,1089.500,736.000,-209.000
1.688,-4.500,1092.000,736.000,-210.500
1.689,-2.500,1094.500,736.500,-211.000
1.690,0.000,1098.000,737.500,-211.000
1.691,1.500,1101.500,739.000,-210.500
1.692,2.500,1104.500,740.500,-209.000
1.693,3.000,1107.000,742.500,-207.500
1.694,3.000,1109.500,744.500,-205.500
1.695,3.000,1111.500,746.500,-204.000
1.696,3.000,1113.000,748.000,-202.500
1.697,2.500,1114.500,749.000,-201.500
1.698,2.000,1115.000,750.000,-200.500
1.699,1.000,1116.000,750.500,-200.000
1.700,0.500,1116.000,751.000,-200.000
1.701,0.500,1116.000,751.000,-200.000
1.702,2.000,1115.500,750.500,-200.500
1.703,4.000,1115.000,750.500,-201.500
1.704,6.500,1114.500,750.000,-202.000
1.705,9.000,1114.000,749.000,-203.000
1.706,11.500,1113.500,748.500,-203.500
1.707,13.000,1113.500,748.000,-203.500
1.708,13.500,1113.500,747.500,-203.500
1.709,13.000,1113.500,747.500,-203.500
1.710,12.500,1114.000,747.500,-202.500
1.711,11.500,1114.000,748.000,-202.000
1.712,10.000,1114.500,748.000,-201.500
1.713,8.500,1115.000,748.500,-200.500
1.714,6.500,1115.500,749.000,-200.500
1.715,5.000,1116.000,749.000,-200.000
1.716,5.000,1116.500,749.500,-200.000
1.717,6.000,1117.000,749.500,-199.500
1.718,7.500,1117.000,750.000,-199.500
1.719,8.500,1117.500,750.000,-199.500
1.720,9.500,1117.500,750.500,-199.000
1.721,9.000,1118.000,751.000,-199.000
1.722,8.000,1118.500,752.000,-198.500
1.723,6.500,1119.500,752.500,-198.000
1.724,6.500,1120.000,753.500,-197.500
1.725,8.000,1121.000,754.000,-197.000
1.726,10.500,1122.000,754.500,-196.500
1.727,12.500,1123.000,755.500,-195.500
1.728,13.500,1124.000,756.000,-195.000
1.729,14.000,1124.500,756.500,-194.000
1.730,14.000,1125.500,757.000,-193.500
1.731,14.500,1126.500,757.500,-193.000
1.732,14.500,1127.500,758.000,-192.000
1.733,15.500,1128.500,758.500,-191.500
1.734,15.500,1129.500,759.000,-190.500
1.735,15.500,1130.500,759.500,-190.000
1.736,15.000,1132.000,761.000,-189.000
1.737,13.000,1133.000,762.000,-188.000
1.738,11.000,1134.000,763.000,-187.000
1.739,9.000,1135.000,764.000,-186.000
1.740,7.500,1136.000,765.000,-185.000
1.741,6.500,1137.000,766.000,-184.000
1.742,6.000,1138.000,767.000,-183.000
1.743,7.000,1139.000,768.000,-181.500
1.744,8.500,1140.500,769.000,-180.500
1.745,10.500,1142.000,770.500,-178.500
1.746,12.000,1144.000,772.000,-177.000
1.747,14.000,1146.500,773.500,-174.500
1.748,15.500,1149.500,776.000,-172.500
1.749,16.500,1152.500,778.500,-170.000
1.750,16.500,1155.500,781.500,-167.000
1.751,15.500,1158.500,784.500,-164.500
1.752,14.500,1161.500,787.500,-161.500
1.753,13.500,1164.500,790.500,-158.500
1.754,14.000,1167.000,793.000,-156.000
1.755,14.500,1169.500,795.500,-154.000
1.756,14.500,1172.000,797.500,-151.500
1.757,13.500,1174.000,800.000,-149.500
1.758,12.500,1176.500,802.500,-147.500
1.759,12.000,1179.000,804.500,-145.500
1.760,12.000,1181.000,807.000,-144.000
1.761,13.000,1183.000,809.000,-142.000
1.762,13.500,1185.000,811.000,-140.000
1.763,13.000,1187.000,813.500,-138.500
1.764,11.000,1189.500,815.500,-136.500
1.765,8.500,1192.000,817.500,-134.500
1.766,6.500,1195.000,820.000,-132.500
1.767,5.500,1197.500,822.000,-130.500
1.768,5.500,1199.500,824.500,-128.500
1.769,6.500,1201.500,827.000,-126.500
1.770,7.500,1203.500,829.000,-124.500
1.771,9.000,1205.000,831.000,-122.000
1.772,9.500,1207.000,833.000,-120.000
1.773,9.000,1208.500,835.000,-118.000
1.774,8.000,1210.500,837.000,-116.000
1.775,7.000,1212.000,839.000,-114.000
1.776,7.000,1214.000,841.000,-112.500
1.777,8.000,1215.500,842.500,-110.500
1.778,9.500,1217.000,844.000,-109.000
1.779,11.000,1218.500,845.000,-107.500
1.780,11.500,1220.000,846.500,-106.000
1.781,11.500,1222.000,848.000,-104.500
1.782,11.000,1224.000,849.500,-103.000
1.783,10.000,1226.000,851.500,-101.500
1.784,9.000,1228.000,853.000,-100.000
1.785,8.000,1230.000,855.000,-98.500
1.786,7.500,1232.000,856.500,-96.500
1.787,8.000,1233.500,858.000,-95.000
1.788,8.500,1235.000,860.000,-93.500
1.789,9.500,1236.500,862.000,-92.000
1.790,11.000,1238.000,863.500,-90.000
1.791,12.500,1239.500,865.500,-88.500
1.792,14.500,1241.500,867.000,-87.000
1.793,17.000,1243.000,868.500,-85.000
1.794,19.000,1245.000,870.500,-83.500
1.795,21.000,1246.500,872.000,-82.500
1.796,22.500,1248.000,874.000,-81.000
1.797,22.500,1249.500,875.500,-79.500
1.798,22.000,1251.000,877.000,-78.000
1.799,20.500,1252.000,878.500,-76.500
1.800,19.000,1253.500,879.500,-75.500
1.801,17.500,1255.000,880.500,-74.500
1.802,16.500,1256.500,882.000,-73.500
1.803,16.000,1258.000,883.000,-72.000
1.804,16.000,1259.500,884.500,-71.000
1.805,15.500,1261.000,885.500,-70.000
1.806,14.500,1262.500,887.000,-69.000
1.807,13.500,1263.500,888.500,-67.500
1.808,13.500,1265.000,889.500,-66.500
1.809,13.500,1266.500,891.000,-64.500
1.810,15.000,1268.000,892.500,-63.000
1.811,16.000,1269.000,894.000,-61.000
1.812,17.000,1270.500,895.500,-59.000
1.813,17.000,1272.000,897.000,-57.500
1.814,16.000,1274.000,899.000,-55.500
1.815,14.000,1275.500,901.000,-53.500
1.816,11.500,1277.500,903.000,-52.000
1.817,10.000,1278.500,905.000,-50.500
1.818,9.500,1279.500,906.000,-49.500
1.819,9.500,1280.500,907.000,-48.500
1.820,9.000,1281.500,908.000,-47.500
1.821,8.500,1282.000,909.000,-46.500
1.822,8.000,1283.000,910.000,-45.000
1.823,7.500,1284.000,911.500,-44.000
1.824,7.500,1284.500,912.500,-43.000
1.825,7.500,1285.500,913.500,-42.000
1.826,7.500,1286.500,915.000,-41.000
1.827,7.500,1287.000,916.000,-40.000
1.828,7.500,1288.000,917.000,-39.000
1.829,8.000,1289.000,918.500,-38.000
1.830,8.000,1290.000,920.000,-36.500
1.831,7.500,1291.000,921.000,-35.000
1.832,7.000,1292.000,922.500,-34.000
1.833,6.000,1293.000,923.500,-32.500
1.834,5.500,1293.500,924.500,-31.500
1.835,5.000,1294.500,925.500,-30.500
1.836,4.500,1295.000,926.500,-29.500
1.837,5.000,1295.500,927.000,-29.000
1.838,7.000,1296.000,928.000,-28.000
1.839,8.500,1296.500,929.000,-27.500
1.840,9.500,1297.000,929.500,-27.000
1.841,9.500,1297.500,930.500,-26.500
1.842,9.000,1298.000,931.000,-25.500
1.843,8.000,1298.500,932.000,-25.000
1.844,7.000,1299.000,932.500,-24.500
1.845,5.500,1299.500,933.000,-24.000
1.846,4.500,1300.500,933.500,-23.500
1.847,3.500,1301.000,934.500,-23.000
1.848,2.500,1302.000,935.500,-22.000
1.849,2.500,1303.000,936.500,-21.000
1.850,2.000,1304.000,938.000,-20.000
1.851,1.500,1305.000,939.000,-18.000
1.852,1.000,1306.500,940.500,-16.500
1.853,0.500,1307.500,942.000,-15.000
1.854,0.000,1308.500,943.500,-13.500
1.855,-1.000,1309.000,944.500,-12.500
1.856,-2.500,1310.000,945.500,-12.000
1.857,-4.500,1310.500,946.500,-11.500
1.858,-7.000,1311.000,947.500,-10.500
1.859,-9.000,1311.500,948.000,-10.000
1.860,-9.500,1311.500,949.000,-9.000
1.861,-8.500,1312.000,949.500,-8.500
1.862,-6.500,1312.500,950.000,-7.500
1.863,-5.000,1313.000,950.500,-7.000
1.864,-3.000,1313.500,951.500,-6.000
1.865,-2.000,1314.500,952.500,-5.000
1.866,-2.000,1315.500,953.000,-4.500
1.867,-3.000,1316.500,954.000,-3.500
1.868,-4.000,1317.500,955.000,-2.500
1.869,-5.000,1318.500,956.000,-1.500
1.870,-5.000,1319.500,956.500,-0.500
1.871,-4.500,1320.000,957.500,1.000
1.872,-3.500,1321.000,958.500,2.500
1.873,-3.000,1321.500,959.500,3.500
1.874,-3.000,1322.500,960.500,4.500
1.875,-4.000,1323.500,962.000,5.500
1.876,-5.000,1324.500,963.000,6.500
1.877,-5.500,1325.500,964.000,7.500
1.878,-6.500,1326.500,965.500,8.000
1.879,-7.000,1327.000,966.500,9.000
1.880,-7.500,1328.000,967.000,10.000
1.881,-7.000,1328.500,968.000,11.000
1.882,-5.500,1329.500,968.500,11.500
1.883,-4.500,1330.000,969.500,12.500
1.884,-3.500,1331.000,970.500,13.500
1.885,-2.000,1332.000,972.000,14.500
1.886,-0.500,1333.500,973.500,16.000
1.887,1.500,1334.500,974.500,17.000
1.888,3.000,1335.500,976.000,18.000
1.889,4.000,1336.500,977.000,19.500
1.890,4.000,1338.000,978.500,20.500
1.891,3.500,1339.000,979.500,22.000
1.892,2.500,1340.500,981.000,23.500
1.893,1.500,1342.000,983.000,25.000
1.894,1.000,1343.500,984.500,26.500
1.895,1.500,1344.500,986.000,28.000
1.896,4.000,1345.500,987.500,29.000
1.897,7.500,1346.500,989.000,30.000
1.898,10.000,1347.500,990.500,31.000
1.899,11.500,1348.500,991.500,32.000
1.900,12.000,1349.500,993.000,32.500
1.901,11.500,1350.500,994.000,33.500
1.902,10.500,1352.000,995.500,35.000
1.903,9.500,1353.500,997.000,36.000
1.904,7.500,1355.000,999.000,37.500
1.905,6.000,1356.500,1000.500,39.500
1.906,4.000,1358.500,1002.500,41.000
1.907,3.000,1360.000,1004.000,42.500
1.908,2.500,1361.500,1005.500,44.000
1.909,2.000,1363.000,1006.500,45.500
1.910,1.500,1365.000,1008.000,47.000
1.911,1.500,1366.500,1010.000,49.000
1.912,1.500,1368.500,1012.000,50.500
1.913,1.000,1370.500,1014.000,52.500
1.914,0.500,1372.500,1016.000,54.500
1.915,0.500,1374.500,1018.500,56.500
1.916,1.500,1376.000,1020.500,58.500
1.917,3.000,1377.500,1022.500,60.000
1.918,4.000,1379.000,1024.500,61.500
1.919,4.000,1380.500,1026.500,63.000
1.920,3.000,1382.500,1028.500,64.500
1.921,1.000,1384.500,1030.500,66.000
1.922,-1.000,1387.000,1032.500,68.000
1.923,-2.000,1389.000,1035.000,70.000
1.924,-2.000,1391.500,1037.500,72.500
1.925,-2.000,1394.500,1040.500,74.500
1.926,-2.000,1397.000,1043.000,77.000
1.927,-2.500,1399.500,1045.500,79.500
1.928,-2.000,1402.500,1048.500,82.000
1.929,-1.500,1405.000,1051.000,84.500
1.930,-1.500,1407.500,1054.000,87.000
1.931,-2.500,1410.500,1056.500,90.000
1.932,-3.500,1413.000,1059.500,92.500
1.933,-3.500,1416.000,1062.500,95.000
1.934,-2.500,1418.500,1065.500,97.500
1.935,-1.000,1421.500,1068.500,100.500
1.936,1.000,1424.500,1071.500,103.000
1.937,2.500,1427.000,1074.500,105.500
1.938,3.000,1429.500,1077.000,107.500
1.939,2.000,1432.000,1080.000,109.500
1.940,0.500,1434.500,1082.500,111.000
1.941,-1.500,1437.000,1085.000,113.000
1.942,-1.500,1439.500,1087.500,115.000
1.943,-0.500,1442.000,1090.000,117.000
1.944,1.000,1444.500,1093.000,119.000
1.945,2.000,1447.000,1095.500,121.500
1.946,2.500,1449.000,1097.500,123.500
1.947,2.500,1451.000,1099.500,125.500
1.948,2.000,1453.000,1101.500,127.500
1.949,2.000,1455.000,1103.000,129.500
1.950,2.500,1457.000,1105.000,131.500
1.951,3.500,1459.500,1107.000,133.500
1.952,5.500,1461.500,1109.000,135.000
1.953,7.500,1464.000,1111.500,136.500
1.954,10.000,1466.000,1113.500,138.000
1.955,11.000,1468.000,1115.500,139.500
1.956,11.000,1469.500,1117.500,140.500
1.957,10.000,1471.500,1119.000,141.500
1.958,9.500,1473.000,1121.000,143.000
1.959,9.500,1474.500,1122.500,144.000
1.960,10.500,1476.500,1124.500,145.000
1.961,11.500,1478.000,1126.000,146.000
1.962,12.000,1480.000,1128.000,147.000
1.963,11.500,1481.500,1129.500,148.000
1.964,10.000,1483.500,1131.500,149.000
1.965,7.500,1485.000,1133.000,150.000
1.966,5.500,1486.500,1134.500,150.500
1.967,4.500,1488.000,1136.000,151.500
1.968,5.000,1489.500,1137.000,152.000
1.969,6.000,1491.500,1138.500,152.500
1.970,7.500,1493.000,1139.500,153.000
1.971,9.000,1495.000,1141.000,154.000
1.972,9.500,1496.500,1142.500,154.500
1.973,8.500,1498.000,1144.000,155.500
1.974,6.500,1499.500,1145.500,156.000
1.975,4.500,1500.500,1147.500,156.500
1.976,3.000,1501.500,1149.000,157.500
1.977,2.500,1503.000,1150.500,158.000
1.978,2.000,1504.500,1152.000,158.000
1.979,2.000,1505.500,1153.000,158.500
1.980,4.000,1507.000,1154.000,158.500
1.981,7.500,1508.500,1155.000,158.500
1.982,11.000,1509.500,1156.000,158.500
1.983,14.000,1511.000,1157.000,159.000
1.984,15.000,1512.000,1158.000,159.000
1.985,15.000,1513.000,1159.500,159.000
1.986,14.500,1514.000,1160.500,159.000
1.987,14.000,1515.500,1161.500,159.000
1.988,13.500,1516.500,1163.000,159.000
1.989,14.000,1518.000,1164.000,159.500
1.990,14.500,1519.000,1165.000,159.500
1.991,15.000,1520.000,1166.000,159.500
1.992,15.000,1521.500,1167.000,160.000
1.993,14.500,1522.500,1168.000,160.000
1.994,14.000,1524.000,1169.500,160.000
1.995,13.000,1525.000,1171.000,160.000
1.996,11.500,1526.500,1172.000,160.000
1.997,10.500,1527.500,1173.500,160.000
1.998,9.500,1528.500,1175.000,159.500
1.999,9.000,1529.000,1176.000,159.500
2.000,9.000,1530.000,1177.000,159.000
2.001,8.500,1530.500,1177.500,158.500
2.002,7.000,1531.000,1178.000,158.000
2.003,5.500,1532.000,1179.000,157.500
2.004,4.500,1532.500,1179.500,157.000
2.005,4.500,1533.500,1180.500,157.000
2.006,4.500,1534.500,1181.000,157.000
2.007,4.000,1535.500,1182.000,156.500
2.008,3.500,1536.000,1183.000,156.500
2.009,3.000,1537.000,1183.500,156.500
2.010,3.000,1538.000,1184.500,156.500
2.011,3.500,1538.500,1185.000,156.500
2.012,4.500,1539.500,1186.000,156.500
2.013,5.000,1540.500,1187.000,156.500
2.014,5.500,1541.500,1188.500,156.500
2.015,4.500,1542.500,1189.500,156.500
2.016,4.000,1543.500,1190.500,156.000
2.017,3.000,1544.000,1191.500,155.500
2.018,3.000,1544.500,1192.500,155.000
2.019,3.000,1545.000,1193.000,154.500
2.020,4.000,1546.000,1193.500,154.000
2.021,4.500,1546.500,1194.000,153.000
2.022,4.500,1547.000,1194.500,152.500
2.023,5.000,1547.500,1195.000,151.500
2.024,5.000,1548.500,1196.000,151.000
2.025,5.000,1549.000,1196.500,150.500
2.026,5.000,1549.500,1197.000,150.000
2.027,5.500,1550.500,1197.500,150.000
2.028,6.000,1551.000,1198.000,150.000
2.029,6.500,1552.000,1198.500,150.000
2.030,6.500,1552.500,1199.000,150.000
2.031,5.500,1553.000,1199.500,150.000
2.032,5.000,1553.500,1200.000,150.000
2.033,3.500,1554.000,1201.000,150.500
2.034,2.000,1555.000,1201.500,150.500
2.035,-0.500,1555.500,1202.500,150.500
2.036,-2.000,1556.500,1203.500,150.500
2.037,-2.500,1557.000,1204.500,150.500
2.038,-2.000,1557.500,1205.500,150.000
2.039,-0.500,1557.500,1206.000,149.500
2.040,1.000,1558.000,1206.500,149.500
2.041,2.500,1558.500,1207.000,149.000
2.042,3.000,1558.500,1207.500,148.500
2.043,3.500,1559.000,1208.000,148.500
2.044,3.500,1559.500,1208.500,148.000
2.045,3.000,1559.500,1209.000,148.500
2.046,3.000,1560.000,1209.500,148.500
2.047,3.500,1560.500,1210.000,148.500
2.048,5.000,1561.500,1210.500,149.000
2.049,7.500,1562.000,1211.000,149.000
2.050,9.500,1562.500,1211.500,149.500
2.051,10.500,1563.000,1212.000,150.000
2.052,11.000,1564.000,1212.500,150.000
2.053,10.500,1565.000,1213.000,150.500
2.054,9.500,1565.500,1214.000,151.000
2.055,9.000,1566.500,1214.500,151.500
2.056,8.500,1567.000,1215.500,151.500
2.057,8.000,1567.500,1216.500,152.000
2.058,7.500,1568.000,1217.000,152.000
2.059,7.500,1568.000,1217.500,152.000
2.060,7.500,1568.000,1217.500,152.000
2.061,7.500,1568.000,1217.500,152.000
2.062,7.000,1568.000,1217.500,152.000
2.063,6.500,1568.000,1217.500,151.500
2.064,6.000,1568.000,1217.500,151.500
2.065,5.500,1568.000,1217.500,152.000
2.066,5.500,1568.500,1218.000,152.000
2.067,5.500,1569.000,1219.000,152.500
2.068,6.000,1569.500,1219.500,152.500
2.069,6.500,1570.000,1220.000,153.000
2.070,7.000,1571.000,1220.500,153.500
2.071,7.500,1571.500,1221.500,154.000
2.072,8.500,1572.500,1222.000,154.000
2.073,9.500,1572.500,1222.500,154.500
2.074,11.000,1573.000,1223.000,154.500
2.075,12.500,1573.500,1223.500,154.500
2.076,15.000,1573.500,1224.000,155.000
2.077,17.000,1573.500,1224.000,155.000
2.078,17.000,1573.500,1224.500,155.000
2.079,15.000,1573.000,1224.500,155.000
2.080,12.500,1573.000,1224.500,154.500
2.081,9.500,1573.000,1225.000,154.500
2.082,8.000,1573.000,1224.500,154.000
2.083,7.500,1573.000,1224.500,154.000
2.084,7.000,1573.000,1224.500,153.500
2.085,7.500,1573.500,1224.500,153.500
2.086,7.500,1574.500,1224.500,153.500
2.087,8.000,1575.000,1225.000,153.500
2.088,8.500,1575.500,1225.500,154.000
2.089,8.500,1576.000,1226.000,154.500
2.090,8.000,1576.500,1226.500,155.000
2.091,7.000,1577.000,1227.000,155.500
2.092,5.000,1577.500,1228.000,155.500
2.093,3.000,1578.000,1228.500,156.000
2.094,2.000,1579.000,1229.500,156.500
2.095,1.000,1579.500,1230.000,157.000
2.096,1.000,1580.000,1230.500,157.000
2.097,-0.500,1580.500,1231.000,157.500
2.098,-2.000,1581.000,1231.500,157.500
2.099,-3.500,1581.000,1232.000,157.500
2.100,-4.000,1581.000,1232.000,157.500
2.101,-4.000,1581.000,1232.000,157.500
2.102,-3.000,1581.000,1232.000,157.500
2.103,-1.000,1581.000,1232.000,157.000
2.104,2.000,1581.000,1232.000,156.500
2.105,5.500,1581.000,1232.000,156.500
2.106,8.000,1581.500,1232.000,156.500
2.107,10.000,1582.000,1232.500,156.500
2.108,10.500,1582.500,1232.500,157.000
2.109,10.500,1582.500,1233.000,157.000
2.110,10.000,1583.000,1233.000,157.500
2.111,9.500,1583.500,1233.500,158.500
2.112,9.500,1584.000,1234.000,159.000
2.113,9.500,1584.500,1234.500,159.500
2.114,10.000,1585.000,1235.000,160.000
2.115,10.000,1585.500,1235.500,160.000
2.116,9.000,1586.000,1236.500,160.500
2.117,6.500,1586.500,1237.000,161.000
2.118,4.000,1586.500,1237.500,161.000
2.119,2.000,1586.000,1237.500,161.500
2.120,1.500,1585.500,1237.000,161.500
2.121,2.000,1585.000,1237.000,161.000
2.122,3.000,1585.000,1237.000,161.000
2.123,4.500,1585.000,1236.500,160.500
2.124,5.500,1585.000,1236.500,160.000
2.125,7.000,1585.500,1236.500,160.000
2.126,7.500,1585.500,1236.500,159.500
2.127,8.000,1585.500,1237.000,159.500
2.128,8.000,1586.000,1237.000,159.500
2.129,7.000,1586.000,1237.500,160.000
2.130,5.500,1586.500,1237.500,160.500
2.131,3.500,1587.000,1237.500,160.500
2.132,1.500,1587.000,1237.500,161.000
2.133,-0.500,1587.000,1237.500,161.000
2.134,-2.000,1587.000,1237.500,161.000
2.135,-3.500,1586.500,1237.500,161.000
2.136,-4.500,1586.500,1237.500,161.000
2.137,-5.500,1586.500,1238.000,160.500
2.138,-6.500,1586.000,1238.000,160.000
2.139,-6.500,1586.000,1237.500,160.000
2.140,-6.000,1585.500,1237.500,159.500
2.141,-5.000,1585.000,1237.000,159.500
2.142,-4.500,1585.000,1237.000,159.500
2.143,-3.500,1584.500,1237.000,159.500
2.144,-3.000,1584.500,1237.000,159.500
2.145,-4.000,1584.500,1237.500,159.000
2.146,-6.000,1584.500,1237.500,159.000
2.147,-8.500,1584.000,1237.500,159.500
2.148,-10.500,1584.000,1237.500,159.500
2.149,-10.000,1583.500,1237.000,159.000
2.150,-8.000,1583.000,1236.500,159.000
2.151,-5.000,1582.500,1235.500,158.500
2.152,-2.000,1581.500,1235.000,158.000
2.153,0.500,1581.000,1234.500,158.000
2.154,1.500,1580.500,1234.000,158.000
2.155,1.000,1580.000,1234.000,158.000
2.156,0.000,1580.500,1234.500,158.500
2.157,-1.500,1581.500,1235.500,159.500
2.158,-3.500,1582.500,1237.000,160.000
2.159,-5.000,1584.000,1238.500,161.000
2.160,-7.000,1585.500,1239.500,161.500
2.161,-9.500,1586.500,1240.500,161.500
2.162,-11.000,1587.000,1240.500,161.500
2.163,-11.500,1587.500,1241.000,161.500
2.164,-10.000,1587.500,1241.000,161.500
2.165,-9.000,1588.000,1241.000,161.500
2.166,-8.000,1588.000,1241.000,161.500
2.167,-8.000,1587.500,1241.000,161.500
2.168,-8.000,1587.500,1241.000,161.500
2.169,-8.500,1587.500,1241.000,161.500
2.170,-9.000,1587.500,1240.500,161.500
2.171,-9.500,1587.000,1240.500,161.500
2.172,-9.000,1586.500,1240.000,161.500
2.173,-8.000,1586.500,1239.500,162.000
2.174,-6.500,1586.000,1239.500,161.500
2.175,-4.500,1585.500,1239.000,161.500
2.176,-3.500,1585.000,1239.000,160.500
2.177,-2.500,1584.500,1238.500,160.000
2.178,-2.500,1584.000,1238.500,159.000
2.179,-2.000,1583.500,1238.500,158.500
2.180,-1.500,1583.000,1238.000,158.000
2.181,-1.000,1582.500,1238.000,157.500
2.182,-0.500,1582.000,1237.500,157.000
2.183,-1.000,1582.000,1237.500,157.000
2.184,-1.500,1582.000,1237.000,156.500
2.185,-2.000,1582.500,1237.000,156.000
2.186,-2.000,1582.500,1237.000,156.000
2.187,-1.500,1583.000,1237.000,156.000
2.188,-1.500,1583.000,1237.500,156.000
2.189,-1.500,1583.000,1237.500,156.000
2.190,-1.000,1583.500,1237.000,156.000
2.191,-1.000,1583.500,1237.000,156.000
2.192,-2.000,1583.000,1237.000,156.000
2.193,-3.000,1583.000,1237.000,156.000
2.194,-3.500,1583.000,1237.000,156.000
2.195,-3.500,1583.000,1237.000,156.000
2.196,-2.000,1583.500,1237.000,156.000
2.197,-1.500,1583.500,1237.500,156.000
2.198,-1.500,1583.500,1237.500,156.000
2.199,-2.000,1583.000,1237.500,155.500
2.200,-2.000,1582.500,1237.500,155.500
2.201,-1.000,1582.000,1237.500,155.000
2.202,0.500,1581.500,1237.000,155.000
2.203,1.500,1581.500,1237.000,155.000
2.204,2.000,1581.500,1237.000,155.000
2.205,2.500,1581.500,1237.000,155.000
2.206,2.500,1581.000,1237.000,155.000
2.207,3.500,1581.000,1237.000,155.500
2.208,4.000,1581.000,1236.500,155.500
2.209,4.500,1580.500,1236.500,155.500
2.210,4.000,1580.500,1236.000,155.500
2.211,3.500,1580.500,1236.000,155.500
2.212,2.500,1580.500,1236.000,156.000
2.213,1.500,1580.500,1236.000,156.000
2.214,1.000,1580.500,1236.000,156.500
2.215,1.000,1580.500,1236.500,157.000
2.216,1.500,1580.500,1236.500,157.000
2.217,2.000,1580.500,1237.000,156.500
2.218,3.000,1580.000,1236.500,156.000
2.219,4.500,1579.500,1236.500,155.500
2.220,5.500,1579.500,1236.500,155.000
2.221,5.000,1579.500,1236.500,155.000
2.222,4.000,1579.500,1236.500,154.500
2.223,2.000,1579.500,1236.500,154.500
2.224,0.500,1579.500,1237.000,154.500
2.225,0.000,1579.000,1237.000,154.500
2.226,0.500,1579.000,1236.500,155.000
2.227,1.500,1579.000,1236.500,155.000
2.228,2.000,1579.000,1236.000,155.500
2.229,2.000,1578.500,1236.000,155.500
2.230,2.000,1578.500,1235.500,156.000
2.231,1.500,1578.500,1235.500,156.000
2.232,1.000,1578.500,1235.500,156.500
2.233,1.000,1578.500,1236.000,156.500
2.234,1.500,1578.500,1236.500,156.500
2.235,1.500,1578.500,1236.500,156.500
2.236,2.500,1578.000,1236.000,156.000
2.237,4.000,1577.500,1235.500,156.000
2.238,6.000,1577.000,1235.000,155.500
2.239,7.500,1577.000,1235.000,155.500
2.240,8.500,1576.500,1234.500,155.000
2.241,8.000,1576.000,1234.500,154.500
2.242,6.500,1575.500,1234.000,154.000
2.243,4.500,1575.000,1234.000,153.500
2.244,3.000,1575.000,1233.500,153.500
2.245,1.500,1575.000,1233.500,153.000
2.246,0.000,1574.500,1233.500,153.000
2.247,-1.000,1574.500,1233.000,153.000
2.248,-1.500,1574.500,1233.000,153.000
2.249,-1.000,1574.000,1232.500,153.000
2.250,-1.500,1574.000,1232.000,153.000
2.251,-2.000,1574.000,1231.500,153.000
2.252,-3.000,1574.000,1231.000,153.500
2.253,-2.500,1574.000,1231.000,153.500
2.254,-2.000,1574.000,1231.000,154.000
2.255,-1.000,1574.000,1231.000,154.500
2.256,-0.500,1574.000,1231.000,154.500
2.257,-1.000,1574.000,1231.000,154.500
2.258,-1.500,1574.000,1231.000,154.500
2.259,-2.000,1573.500,1231.000,154.500
2.260,-2.000,1573.500,1231.000,154.000
2.261,-2.000,1573.000,1231.000,153.500
2.262,-2.500,1572.500,1230.500,153.000
2.263,-3.000,1572.000,1230.000,152.500
2.264,-3.500,1571.500,1229.500,152.000
2.265,-3.000,1571.500,1229.500,151.500
2.266,-1.500,1571.500,1229.000,151.500
2.267,1.000,1571.500,1229.000,151.500
2.268,3.500,1571.500,1229.000,151.500
2.269,6.500,1571.500,1229.000,152.000
2.270,9.000,1571.000,1229.000,152.500
2.271,10.500,1571.000,1229.000,152.500
2.272,9.500,1570.500,1229.000,153.000
2.273,7.500,1570.500,1229.500,153.000
2.274,4.500,1571.000,1229.500,153.000
2.275,2.500,1571.000,1230.000,153.000
2.276,2.500,1571.000,1230.000,153.500
2.277,4.000,1571.000,1230.000,153.500
2.278,4.500,1571.000,1230.000,153.500
2.279,4.500,1571.000,1230.000,153.500
2.280,4.000,1570.500,1230.000,153.500
2.281,2.500,1570.500,1229.500,153.500
2.282,1.500,1570.000,1229.000,153.000
2.283,1.000,1569.500,1228.500,153.000
2.284,-0.500,1569.500,1228.500,152.500
2.285,-1.500,1569.000,1228.000,152.500
2.286,-3.000,1569.000,1228.000,152.500
2.287,-3.500,1569.000,1228.000,152.500
2.288,-2.500,1569.000,1228.500,152.500
2.289,-1.500,1569.000,1228.500,152.500
2.290,0.500,1568.500,1228.000,152.500
2.291,2.500,1568.500,1228.000,152.500
2.292,3.500,1568.500,1228.000,152.500
2.293,4.500,1568.500,1228.500,152.500
2.294,5.000,1569.000,1228.500,152.500
2.295,4.000,1569.000,1228.500,152.500
2.296,2.500,1569.000,1229.000,152.500
2.297,1.000,1569.000,1229.000,152.500
2.298,0.500,1569.000,1229.000,152.000
2.299,1.000,1568.500,1228.500,152.000
2.300,2.500,1568.000,1228.000,151.500
2.301,4.000,1568.000,1228.000,151.500
2.302,5.500,1567.500,1227.500,151.000
2.303,6.000,1567.500,1227.000,151.000
2.304,6.500,1567.500,1226.500,150.500
2.305,6.500,1567.000,1226.000,150.500
2.306,6.000,1567.000,1225.500,151.000
2.307,6.000,1566.500,1225.500,151.000
2.308,5.500,1566.500,1225.000,151.500
2.309,5.000,1566.500,1225.000,151.500
2.310,5.500,1567.000,1225.000,152.000
2.311,6.500,1567.000,1225.000,152.500
2.312,7.000,1567.500,1225.500,152.500
2.313,6.500,1567.500,1225.500,153.000
2.314,5.000,1568.000,1226.000,153.000
2.315,4.000,1568.000,1226.500,153.000
2.316,3.500,1567.500,1226.500,153.000
2.317,3.500,1567.000,1226.500,152.500
2.318,3.500,1566.500,1226.000,152.000
2.319,3.000,1566.000,1225.500,151.500
2.320,2.000,1565.500,1225.000,151.000
2.321,1.000,1565.500,1224.500,150.500
2.322,0.500,1565.500,1224.500,150.000
2.323,-0.500,1565.000,1224.000,149.500
2.324,-2.000,1564.500,1224.000,149.000
2.325,-3.500,1564.500,1224.000,149.000
2.326,-4.500,1564.000,1223.500,148.500
2.327,-4.500,1563.500,1223.500,148.500
2.328,-3.500,1563.500,1223.500,149.000
2.329,-2.000,1563.500,1223.500,149.000
2.330,-0.500,1563.500,1223.000,149.000
2.331,1.500,1563.000,1223.000,149.000
2.332,2.500,1563.000,1222.500,149.000
2.333,4.000,1563.000,1222.500,148.500
2.334,5.000,1562.500,1222.000,148.000
2.335,6.000,1562.000,1221.500,147.500
2.336,7.000,1562.000,1221.000,147.000
2.337,7.000,1561.500,1221.000,146.500
2.338,6.000,1561.000,1220.500,146.500
2.339,5.500,1560.500,1219.500,146.000
2.340,5.500,1560.000,1219.000,145.500
2.341,5.500,1560.000,1219.000,145.000
2.342,6.000,1559.500,1218.500,144.000
2.343,6.500,1559.500,1218.000,144.000
2.344,7.000,1559.000,1218.000,143.500
2.345,7.500,1559.000,1217.500,143.000
2.346,7.500,1559.000,1217.500,143.000
2.347,8.000,1559.000,1217.500,143.000
2.348,8.500,1559.000,1217.500,142.500
2.349,9.000,1559.000,1217.000,142.500
2.350,9.500,1559.000,1217.000,142.500
2.351,10.000,1559.000,1217.000,142.500
2.352,10.000,1558.500,1216.500,143.000
2.353,9.000,1558.500,1216.500,143.000
2.354,7.500,1558.500,1216.500,143.000
2.355,6.000,1558.000,1216.000,143.000
2.356,5.000,1558.000,1215.500,142.500
2.357,4.000,1558.000,1215.500,142.500
2.358,4.000,1557.500,1215.500,142.000
2.359,4.500,1557.000,1215.000,142.000
2.360,4.500,1557.000,1215.000,142.000
2.361,3.500,1556.500,1214.500,141.500
2.362,3.500,1556.000,1214.000,141.000
2.363,4.000,1555.000,1213.500,141.000
2.364,6.000,1554.500,1213.500,140.500
2.365,9.500,1554.000,1213.000,140.500
2.366,13.000,1553.500,1212.500,140.000
2.367,15.500,1553.500,1212.500,140.000
2.368,17.000,1553.000,1212.000,139.500
2.369,17.000,1553.000,1212.000,139.500
2.370,16.000,1553.000,1211.500,139.000
2.371,16.000,1552.500,1211.000,139.000
2.372,17.000,1552.500,1211.000,139.500
2.373,17.500,1553.000,1211.500,140.000
2.374,17.000,1553.000,1211.500,140.000
2.375,16.500,1553.000,1211.500,140.500
2.376,15.500,1553.000,1212.000,140.500
2.377,14.500,1553.500,1212.000,140.500
2.378,13.500,1553.000,1212.000,140.000
2.379,14.000,1553.000,1212.000,140.000
2.380,15.000,1552.500,1211.500,139.500
2.381,17.000,1552.000,1211.000,139.000
2.382,18.500,1551.500,1211.000,138.000
2.383,19.500,1551.500,1210.500,137.500
2.384,19.500,1551.000,1209.500,136.500
2.385,19.000,1550.500,1209.000,135.500
2.386,17.000,1550.500,1208.500,135.000
2.387,14.500,1550.000,1208.000,134.000
2.388,11.500,1549.500,1207.500,133.500
2.389,9.500,1549.500,1207.500,133.000
2.390,7.000,1549.500,1207.500,133.000
2.391,5.500,1549.500,1207.500,132.500
2.392,5.000,1549.500,1207.500,132.500
2.393,4.500,1549.500,1207.500,132.000
2.394,5.000,1549.000,1207.000,131.500
2.395,5.500,1549.000,1207.000,130.500
2.396,6.000,1548.500,1207.000,130.000
2.397,7.000,1548.500,1206.500,129.000
2.398,8.500,1548.000,1206.500,128.000
2.399,10.500,1547.500,1206.000,127.000
2.400,11.000,1547.000,1205.500,126.000
2.401,9.000,1546.000,1205.000,124.500
2.402,5.500,1545.500,1204.500,123.500
2.403,2.500,1545.000,1204.000,122.500
2.404,1.000,1544.500,1203.000,121.500
2.405,0.500,1544.500,1202.500,120.500
2.406,1.500,1544.000,1202.000,120.000
2.407,3.000,1544.000,1201.500,119.500
2.408,5.000,1544.000,1201.000,119.000
2.409,7.500,1544.000,1201.000,119.000
2.410,10.000,1544.000,1201.000,119.500
2.411,12.000,1544.000,1201.000,119.500
2.412,12.000,1544.500,1201.000,119.500
2.413,11.000,1544.500,1201.500,119.500
2.414,10.000,1544.500,1201.500,119.500
2.415,9.000,1544.000,1201.500,119.000
2.416,8.000,1544.000,1201.500,118.500
2.417,7.000,1543.500,1201.500,118.500
2.418,6.000,1543.000,1201.500,118.000
2.419,5.000,1542.500,1201.000,117.500
2.420,4.000,1541.500,1201.000,117.500
2.421,3.000,1541.000,1200.500,117.000
2.422,1.500,1540.500,1200.000,117.000
2.423,0.000,1540.000,1199.500,117.000
2.424,-1.500,1540.000,1199.500,117.000
2.425,-3.000,1539.500,1199.000,117.000
2.426,-4.000,1539.500,1198.500,116.500
2.427,-4.000,1539.000,1198.500,116.000
2.428,-4.000,1539.000,1198.000,116.000
2.429,-3.000,1538.500,1197.500,115.500
2.430,-2.000,1538.500,1197.000,115.500
2.431,0.000,1538.000,1197.000,116.000
2.432,2.500,1538.500,1197.000,116.000
2.433,5.000,1538.500,1197.000,116.500
2.434,7.500,1539.000,1197.500,117.000
2.435,8.500,1539.000,1197.500,117.000
2.436,9.000,1538.500,1197.000,117.000
2.437,10.000,1538.500,1197.000,116.500
2.438,11.500,1538.000,1196.500,116.500
2.439,13.000,1537.000,1196.000,116.000
2.440,13.000,1536.500,1195.500,116.000
2.441,11.000,1536.000,1195.500,115.500
2.442,8.000,1536.000,1195.000,115.500
2.443,5.500,1535.500,1194.500,115.000
2.444,4.000,1535.000,1194.000,115.000
2.445,3.500,1534.500,1193.500,114.500
2.446,3.000,1534.000,1193.000,114.500
2.447,2.500,1534.000,1192.500,114.000
2.448,2.000,1534.000,1192.000,114.000
2.449,1.500,1533.500,1192.000,114.500
2.450,0.500,1533.500,1191.500,114.500
2.451,-1.000,1533.500,1191.500,115.000
2.452,-2.000,1533.000,1191.500,115.500
2.453,-2.500,1533.000,1191.500,116.000
2.454,-3.500,1533.000,1191.500,116.500
2.455,-5.000,1532.500,1191.500,116.500
2.456,-6.500,1532.000,1191.500,116.500
2.457,-7.500,1531.500,1191.000,116.500
2.458,-7.000,1531.000,1190.500,116.500
2.459,-5.000,1530.500,1190.000,116.500
2.460,-3.000,1530.000,1189.500,116.000
2.461,-0.500,1530.000,1189.000,116.000
2.462,2.500,1529.500,1189.000,116.000
2.463,5.500,1529.000,1188.500,115.500
2.464,7.000,1529.000,1188.500,115.500
2.465,7.500,1529.000,1188.500,115.500
2.466,6.000,1529.000,1188.500,115.500
2.467,4.000,1529.000,1188.500,116.000
2.468,3.500,1529.000,1188.000,116.500
2.469,3.000,1529.000,1188.000,117.000
2.470,2.500,1529.500,1188.000,117.500
2.471,2.500,1529.500,1187.500,118.000
2.472,2.500,1529.500,1187.000,118.000
2.473,1.500,1529.000,1186.500,117.500
2.474,0.500,1528.500,1185.000,117.000
2.475,-0.500,1527.500,1183.500,116.000
2.476,-0.500,1526.500,1182.000,114.500
2.477,-1.500,1525.000,1180.500,113.000
2.478,-3.000,1524.000,1179.000,111.500
2.479,-5.000,1522.500,1177.500,110.500
2.480,-7.000,1521.500,1176.500,109.500
2.481,-7.500,1520.500,1175.500,109.000
2.482,-7.000,1519.500,1175.000,108.500
2.483,-5.500,1519.000,1174.500,109.000
2.484,-3.000,1518.500,1174.500,109.500
2.485,0.500,1518.000,1174.000,110.500
2.486,3.000,1517.500,1174.500,111.500
2.487,5.000,1517.500,1175.000,112.500
2.488,5.000,1517.500,1176.000,114.500
2.489,3.500,1518.000,1177.000,117.000
2.490,2.500,1518.500,1178.500,119.500
2.491,1.500,1519.000,1180.000,122.000
2.492,1.000,1519.500,1181.000,124.500
2.493,0.000,1520.000,1182.500,127.000
2.494,-1.500,1520.000,1184.000,129.500
2.495,-2.500,1520.000,1185.000,132.000
2.496,-4.000,1520.000,1186.000,134.500
2.497,-4.500,1520.000,1186.500,137.000
2.498,-5.000,1520.000,1187.500,138.500
2.499,-5.000,1519.500,1188.000,140.500
2.500,-5.000,1519.000,1188.500,142.000
2.501,-4.500,1519.000,1189.000,143.000
2.502,-3.500,1518.500,1189.000,144.000
2.503,-1.000,1518.500,1189.500,144.000
2.504,2.500,1518.000,1189.000,144.000
2.505,5.500,1517.500,1188.000,143.000
2.506,7.500,1516.500,1186.000,141.500
2.507,8.000,1516.000,1184.000,139.000
2.508,7.500,1515.000,1181.500,136.500
2.509,7.000,1514.000,1179.000,133.500
2.510,7.000,1514.000,1176.500,131.000
2.511,8.500,1514.500,1175.000,128.500
2.512,9.500,1515.000,1174.000,126.000
2.513,10.500,1516.000,1173.000,124.500
2.514,10.000,1516.500,1173.000,124.000
2.515,8.000,1517.500,1173.000,123.500
2.516,5.000,1518.000,1173.000,124.000
2.517,3.000,1518.500,1173.500,124.000
2.518,1.500,1519.000,1174.000,124.500
2.519,0.500,1519.500,1174.500,125.000
2.520,0.500,1519.500,1174.500,125.000
2.521,0.500,1519.000,1174.500,125.000
2.522,0.500,1518.500,1174.000,124.500
2.523,0.500,1518.000,1173.500,124.000
2.524,0.000,1517.000,1172.500,124.000
2.525,-0.500,1516.500,1171.500,123.500
2.526,-0.500,1515.500,1170.000,122.500
2.527,0.000,1515.000,1169.000,122.000
2.528,0.000,1514.500,1167.500,121.500
2.529,-0.500,1514.000,1166.500,121.000
2.530,0.000,1513.500,1166.000,120.500
2.531,2.000,1513.500,1165.500,120.000
2.532,4.000,1513.000,1165.000,120.000
2.533,6.000,1513.000,1164.500,119.500
2.534,7.500,1512.500,1164.500,119.000
2.535,8.500,1512.000,1164.000,118.500
2.536,9.500,1511.000,1163.500,118.000
2.537,10.000,1510.500,1163.000,117.500
2.538,10.000,1509.500,1162.500,117.000
2.539,9.500,1509.000,1162.000,116.500
2.540,9.000,1508.500,1161.500,116.000
2.541,9.000,1508.000,1161.000,115.500
2.542,8.500,1507.500,1160.000,115.500
2.543,8.500,1507.000,1159.500,115.000
2.544,9.000,1507.000,1159.000,114.500
2.545,10.000,1506.500,1158.500,114.000
2.546,10.000,1506.500,1158.500,114.000
2.547,9.000,1506.000,1158.000,114.000
2.548,7.500,1506.000,1158.000,113.500
2.549,6.000,1505.500,1157.500,114.000
2.550,4.500,1505.500,1157.000,114.000
2.551,2.500,1505.500,1156.500,113.500
2.552,0.500,1505.000,1156.500,113.500
2.553,-0.500,1504.500,1156.000,114.000
2.554,-0.500,1504.500,1156.000,114.000
2.555,1.500,1504.000,1156.000,113.500
2.556,4.000,1504.000,1155.500,113.500
2.557,6.000,1504.000,1155.000,113.000
2.558,7.500,1503.500,1155.000,112.500
2.559,8.500,1503.500,1154.500,112.000
2.560,8.500,1503.000,1154.000,111.500
2.561,8.500,1502.500,1153.500,111.000
2.562,8.000,1502.000,1153.000,110.500
2.563,8.500,1502.000,1153.000,110.000
2.564,9.000,1501.500,1152.500,109.500
2.565,9.000,1501.500,1152.500,109.500
2.566,7.500,1501.500,1152.500,109.000
2.567,5.500,1501.500,1152.500,109.000
2.568,4.000,1501.500,1152.000,109.000
2.569,4.000,1501.500,1152.000,109.000
2.570,4.500,1501.000,1152.000,109.000
2.571,5.000,1501.000,1152.000,109.000
2.572,4.500,1501.500,1152.000,109.000
2.573,4.000,1501.500,1152.000,109.500
2.574,3.500,1501.500,1151.500,109.000
2.575,3.000,1501.000,1151.500,109.000
2.576,2.000,1500.500,1151.000,109.000
2.577,1.500,1500.000,1150.500,108.500
2.578,1.000,1499.500,1150.000,107.500
2.579,1.500,1499.000,1149.000,107.000
2.580,2.000,1498.500,1148.500,106.500
2.581,1.500,1498.000,1148.000,106.000
2.582,0.000,1497.500,1147.500,105.500
2.583,-2.000,1497.500,1147.500,105.500
2.584,-3.500,1497.000,1147.000,105.500
2.585,-4.500,1497.000,1146.500,105.000
2.586,-5.000,1496.500,1146.000,105.000
2.587,-5.500,1496.500,1145.500,104.500
2.588,-5.500,1496.500,1145.500,104.500
2.589,-6.500,1496.500,1145.500,104.500
2.590,-7.500,1496.500,1145.500,104.000
2.591,-8.000,1496.500,1145.500,104.000
2.592,-8.500,1496.500,1145.000,104.000
2.593,-8.000,1496.000,1144.500,103.500
2.594,-8.000,1495.500,1144.000,103.000
2.595,-8.000,1495.500,1143.500,102.500
2.596,-8.000,1495.000,1143.500,102.000
2.597,-8.500,1494.500,1143.000,101.000
2.598,-8.000,1494.000,1142.500,100.500
2.599,-7.000,1493.500,1142.000,100.000
2.600,-6.500,1493.500,1141.500,99.500
2.601,-6.000,1493.000,1141.000,99.000
2.602,-6.500,1492.500,1140.500,98.500
2.603,-6.000,1492.500,1140.000,98.000
2.604,-4.500,1492.000,1140.000,97.500
2.605,-2.500,1492.000,1139.500,97.000
2.606,-1.500,1492.000,1139.500,97.000
2.607,-2.500,1492.000,1139.500,97.000
2.608,-3.500,1492.000,1139.500,97.000
2.609,-4.500,1492.000,1139.500,97.000
2.610,-6.000,1492.000,1139.500,97.000
2.611,-6.500,1492.000,1139.500,97.000
2.612,-7.000,1492.000,1139.500,97.000
2.613,-7.000,1491.500,1139.000,96.500
2.614,-6.500,1491.000,1138.000,95.500
2.615,-6.000,1490.500,1137.500,94.500
2.616,-5.000,1490.000,1136.500,93.500
2.617,-5.000,1489.000,1135.500,93.000
2.618,-5.500,1488.000,1134.500,92.000
2.619,-6.500,1487.000,1133.500,91.000
2.620,-7.500,1486.000,1132.500,90.000
2.621,-8.000,1484.500,1131.500,89.000
2.622,-7.000,1483.500,1131.000,88.000
2.623,-6.000,1483.000,1130.000,87.500
2.624,-4.500,1483.000,1130.000,87.500
2.625,-3.500,1483.500,1130.000,87.500
2.626,-3.500,1484.000,1130.500,88.000
2.627,-4.000,1485.000,1131.000,88.500
2.628,-4.500,1486.000,1131.500,89.000
2.629,-5.000,1486.500,1132.000,89.500
2.630,-6.000,1487.500,1132.500,90.000
2.631,-7.000,1487.500,1132.500,90.000
2.632,-7.000,1487.500,1132.500,90.000
2.633,-6.000,1487.000,1132.000,90.000
2.634,-5.500,1486.500,1131.500,89.500
2.635,-4.500,1486.000,1131.000,89.000
2.636,-4.000,1485.500,1130.500,88.500
2.637,-3.000,1485.000,1130.500,88.500
2.638,-2.000,1484.500,1130.000,88.000
2.639,-1.500,1484.000,1129.500,87.500
2.640,-1.500,1483.500,1129.000,86.500
2.641,-1.500,1483.000,1128.500,86.000
2.642,-1.500,1482.000,1128.000,85.000
2.643,-1.500,1481.000,1127.000,84.500
2.644,-1.500,1480.500,1127.000,84.000
2.645,-1.000,1479.500,1126.500,83.000
2.646,0.500,1479.000,1126.000,83.000
2.647,2.000,1478.500,1125.500,82.500
2.648,3.000,1478.000,1125.000,82.000
2.649,3.500,1478.000,1124.500,82.000
2.650,3.500,1477.500,1124.500,82.000
2.651,2.000,1477.500,1124.500,82.000
2.652,0.500,1477.500,1125.000,82.000
2.653,-2.000,1478.000,1125.000,82.000
2.654,-4.500,1478.000,1125.000,82.000
2.655,-6.000,1477.500,1124.500,81.500
2.656,-7.000,1477.500,1124.500,81.500
2.657,-6.500,1477.000,1124.000,81.000
2.658,-4.500,1477.000,1124.000,80.500
2.659,-3.000,1476.500,1123.500,80.000
2.660,-1.500,1476.000,1123.000,79.500
2.661,-1.000,1475.500,1122.500,78.500
2.662,-0.500,1475.000,1122.000,78.000
2.663,0.000,1474.500,1121.500,77.000
2.664,1.000,1474.000,1121.000,76.500
2.665,1.500,1473.500,1120.000,75.500
2.666,2.500,1472.500,1119.500,75.000
2.667,3.000,1472.000,1119.000,75.000
2.668,3.500,1472.000,1118.500,75.000
2.669,5.000,1472.000,1118.000,75.000
2.670,7.000,1472.000,1118.000,75.000
2.671,9.000,1472.000,1118.000,75.000
2.672,10.500,1471.500,1118.000,75.000
2.673,11.000,1471.500,1117.500,75.000
2.674,12.000,1471.000,1117.000,74.500
2.675,12.500,1470.500,1116.500,74.000
2.676,13.000,1470.000,1116.500,74.000
2.677,12.000,1470.000,1116.000,73.500
2.678,10.500,1469.500,1115.500,73.000
2.679,8.500,1469.000,1115.000,72.500
2.680,7.500,1468.000,1114.500,72.000
2.681,5.500,1467.000,1113.500,71.000
2.682,4.000,1466.000,1112.500,70.500
2.683,2.000,1465.500,1111.500,70.000
2.684,1.000,1465.000,1111.000,69.500
2.685,1.000,1464.500,1110.500,69.000
2.686,1.500,1464.000,1110.000,69.000
2.687,3.000,1463.500,1110.000,69.000
2.688,4.000,1463.500,1109.500,68.500
2.689,5.500,1463.000,1109.000,68.500
2.690,7.000,1463.000,1109.000,68.500
2.691,8.000,1462.500,1108.500,68.000
2.692,8.500,1462.500,1108.000,68.000
2.693,8.500,1462.000,1107.500,67.500
2.694,9.000,1461.500,1107.500,67.000
2.695,10.000,1461.000,1107.000,66.500
2.696,11.000,1460.000,1106.500,66.500
2.697,11.500,1459.500,1105.500,66.000
2.698,12.000,1459.000,1105.000,65.000
2.699,12.500,1458.000,1105.000,64.500
2.700,12.500,1457.500,1104.500,63.500
2.701,12.500,1457.500,1104.000,63.000
2.702,12.500,1457.000,1104.000,62.500
2.703,12.500,1456.500,1103.500,62.000
2.704,13.000,1456.500,1103.000,61.500
2.705,13.500,1456.000,1102.500,61.000
2.706,14.000,1455.500,1102.000,61.000
2.707,15.000,1455.000,1101.000,60.500
2.708,15.000,1455.000,1100.500,60.000
2.709,14.000,1454.500,1100.000,60.000
2.710,11.500,1454.000,1099.500,59.500
2.711,9.500,1454.000,1099.000,59.500
2.712,7.500,1453.500,1099.000,59.500
2.713,6.500,1453.500,1098.500,60.000
2.714,6.000,1453.000,1098.500,60.000
2.715,6.500,1453.000,1098.500,59.500
2.716,7.500,1452.500,1098.500,59.500
2.717,7.500,1452.500,1098.500,59.000
2.718,7.000,1452.000,1098.500,59.000
2.719,5.500,1451.500,1098.500,58.500
2.720,4.500,1451.000,1098.000,58.000
2.721,4.000,1450.000,1097.500,57.500
2.722,4.000,1449.500,1097.000,56.500
2.723,4.000,1448.500,1096.000,56.000
2.724,4.000,1448.000,1095.500,55.000
2.725,3.000,1447.500,1095.000,54.500
2.726,2.500,1447.000,1094.000,54.000
2.727,2.500,1447.000,1093.500,53.500
2.728,3.000,1446.500,1093.000,53.500
2.729,4.000,1446.000,1092.500,53.000
2.730,4.500,1445.500,1092.000,52.500
2.731,5.000,1445.000,1091.500,52.500
2.732,5.000,1444.500,1090.500,52.000
2.733,5.000,1444.000,1090.000,52.000
2.734,5.500,1444.000,1090.000,51.500
2.735,5.500,1443.500,1089.500,51.500
2.736,5.000,1443.000,1089.000,51.000
2.737,3.000,1443.000,1088.500,50.500
2.738,0.500,1442.500,1088.500,50.000
2.739,-1.000,1442.000,1088.000,49.000
2.740,-2.500,1441.500,1088.000,48.500
2.741,-3.500,1441.000,1088.000,48.000
2.742,-4.000,1440.500,1087.500,47.500
2.743,-4.500,1440.000,1087.000,47.000
2.744,-3.500,1439.500,1086.500,46.500
2.745,-3.000,1438.500,1085.500,46.500
2.746,-3.000,1438.000,1085.000,46.000
2.747,-4.000,1437.500,1084.500,46.000
2.748,-5.500,1437.000,1084.000,46.000
2.749,-7.500,1436.500,1083.500,45.500
2.750,-9.500,1436.000,1083.000,45.500
2.751,-10.500,1436.000,1082.500,45.000
2.752,-11.000,1435.500,1082.000,45.000
2.753,-11.500,1435.500,1081.500,44.500
2.754,-12.500,1435.500,1081.000,44.500
2.755,-13.500,1435.000,1080.500,44.500
2.756,-14.500,1435.000,1080.000,44.000
2.757,-14.500,1434.500,1079.500,43.500
2.758,-14.000,1434.000,1079.000,43.000
2.759,-12.000,1433.000,1078.500,42.500
2.760,-9.500,1432.500,1078.000,42.000
2.761,-7.000,1432.000,1078.000,41.500
2.762,-4.500,1431.500,1077.500,40.500
2.763,-2.000,1431.000,1077.500,40.000
2.764,0.500,1431.000,1077.000,39.500
2.765,2.000,1431.000,1077.000,39.000
2.766,3.000,1430.500,1076.500,38.500
2.767,2.500,1430.000,1076.000,38.000
2.768,0.500,1429.500,1075.500,37.500
2.769,-1.500,1429.000,1075.000,37.000
2.770,-2.500,1428.500,1074.000,36.500
2.771,-2.500,1428.000,1073.500,36.000
2.772,-1.500,1427.500,1073.000,35.500
2.773,0.500,1427.500,1072.500,35.000
2.774,3.500,1427.000,1072.000,34.500
2.775,5.500,1427.000,1071.500,34.000
2.776,5.500,1426.500,1071.000,33.000
2.777,4.000,1426.000,1070.500,32.500
2.778,1.500,1425.500,1070.000,31.500
2.779,-1.500,1424.500,1069.500,30.500
2.780,-3.000,1424.000,1068.500,29.500
2.781,-4.000,1423.500,1067.500,28.500
2.782,-4.000,1423.000,1067.000,27.500
2.783,-3.500,1422.500,1066.000,26.500
2.784,-2.000,1421.500,1065.000,25.000
2.785,-0.500,1421.000,1064.000,23.500
2.786,1.000,1420.500,1063.500,22.500
2.787,2.000,1420.000,1062.500,21.000
2.788,2.000,1419.500,1061.500,20.500
2.789,2.000,1419.500,1061.000,19.500
2.790,1.000,1419.000,1060.000,19.000
2.791,0.500,1418.500,1059.500,18.500
2.792,1.500,1418.000,1059.000,18.000
2.793,3.500,1417.500,1058.500,17.500
2.794,5.000,1417.500,1058.000,17.000
2.795,6.000,1417.500,1058.000,16.500
2.796,6.500,1417.500,1057.500,16.000
2.797,6.000,1417.000,1057.500,15.500
2.798,5.500,1417.000,1057.000,14.500
2.799,5.000,1416.500,1056.000,13.500
2.800,3.000,1416.000,1055.500,12.500
2.801,1.000,1415.500,1055.000,11.500
2.802,-1.000,1415.000,1054.000,10.500
2.803,-2.000,1415.000,1053.500,10.000
2.804,-3.000,1414.500,1053.000,9.500
2.805,-3.000,1414.500,1052.500,9.000
2.806,-2.000,1414.500,1052.500,9.000
2.807,-0.500,1414.500,1052.000,8.500
2.808,2.500,1414.500,1052.000,8.000
2.809,6.500,1414.000,1051.500,7.500
2.810,10.500,1413.500,1050.500,6.500
2.811,12.500,1413.000,1050.000,6.000
2.812,13.000,1412.500,1049.000,5.500
2.813,12.500,1412.000,1048.500,5.500
2.814,12.500,1412.000,1048.000,5.000
2.815,12.500,1411.500,1048.000,4.500
2.816,13.000,1411.000,1047.500,4.500
2.817,12.500,1411.000,1047.000,4.000
2.818,11.500,1410.500,1046.000,3.000
2.819,9.000,1409.500,1045.500,2.500
2.820,7.000,1409.000,1044.500,1.500
2.821,5.500,1408.000,1043.500,0.500
2.822,4.500,1407.000,1043.000,-1.000
2.823,4.500,1406.500,1042.000,-2.000
2.824,5.000,1406.000,1041.500,-3.000
2.825,6.000,1405.500,1041.000,-3.500
2.826,7.000,1405.500,1040.500,-4.000
2.827,8.000,1405.000,1040.000,-4.500
2.828,8.500,1405.000,1039.500,-4.500
2.829,8.500,1405.000,1039.000,-5.000
2.830,9.000,1405.500,1039.000,-5.000
2.831,9.000,1405.500,1038.500,-5.500
2.832,8.500,1405.500,1038.500,-5.500
2.833,8.000,1406.000,1038.500,-5.500
2.834,6.000,1406.500,1038.500,-5.500
2.835,4.000,1406.500,1038.500,-5.500
2.836,1.000,1406.500,1039.000,-5.500
2.837,-1.500,1406.500,1039.000,-6.000
2.838,-3.500,1406.500,1038.500,-6.500
2.839,-4.500,1406.000,1038.500,-7.000
2.840,-4.500,1405.500,1038.000,-7.500
2.841,-4.000,1404.500,1037.500,-8.500
2.842,-4.500,1404.000,1037.000,-9.500
2.843,-6.000,1403.500,1036.500,-10.000
2.844,-7.500,1403.000,1036.000,-10.500
2.845,-8.000,1402.500,1035.500,-11.000
2.846,-9.000,1402.000,1035.000,-11.500
2.847,-10.500,1402.000,1034.500,-11.500
2.848,-11.500,1401.500,1034.000,-12.000
2.849,-11.500,1401.500,1034.000,-12.000
2.850,-9.500,1401.500,1033.500,-12.500
2.851,-6.000,1401.000,1033.500,-12.500
2.852,-3.000,1400.500,1033.000,-13.000
2.853,-1.500,1400.500,1032.500,-13.000
2.854,-1.500,1400.000,1032.500,-13.500
2.855,-2.500,1400.000,1032.000,-14.000
2.856,-3.000,1400.000,1032.000,-14.000
2.857,-3.500,1400.000,1032.000,-15.000
2.858,-4.500,1399.500,1031.500,-15.500
2.859,-5.500,1399.000,1030.500,-16.000
2.860,-6.500,1398.500,1030.000,-17.000
2.861,-6.500,1398.000,1029.000,-18.000
2.862,-7.000,1397.500,1028.000,-18.500
2.863,-7.500,1396.500,1027.000,-19.500
2.864,-9.000,1396.000,1026.500,-20.500
2.865,-10.000,1395.500,1025.500,-21.000
2.866,-11.000,1395.000,1025.000,-22.000
2.867,-12.000,1394.500,1024.500,-22.500
2.868,-13.000,1394.000,1024.000,-22.500
2.869,-13.000,1394.000,1023.000,-22.500
2.870,-11.500,1393.500,1022.500,-23.000
2.871,-8.500,1393.500,1022.000,-23.000
2.872,-5.500,1393.000,1021.500,-23.500
2.873,-3.000,1393.000,1021.000,-23.500
2.874,-2.000,1392.500,1020.500,-23.500
2.875,-1.000,1392.500,1020.500,-24.000
2.876,0.000,1392.000,1020.000,-24.000
2.877,-0.500,1391.500,1020.000,-24.500
2.878,-2.000,1391.000,1019.500,-25.000
2.879,-3.000,1390.500,1019.000,-25.500
2.880,-4.000,1389.500,1018.000,-26.500
2.881,-4.500,1389.000,1017.500,-28.000
2.882,-4.500,1388.000,1017.000,-29.000
2.883,-4.000,1387.500,1016.000,-30.000
2.884,-3.000,1387.500,1016.000,-30.500
2.885,-2.500,1387.000,1015.500,-30.500
2.886,-2.000,1387.000,1015.500,-31.000
2.887,-2.500,1387.000,1015.000,-31.000
2.888,-3.000,1387.000,1015.000,-31.000
2.889,-3.000,1387.000,1014.500,-31.500
2.890,-2.500,1387.000,1014.500,-31.500
2.891,-2.000,1386.500,1014.000,-31.500
2.892,-1.500,1386.500,1013.500,-32.000
2.893,-1.000,1386.500,1013.500,-32.500
2.894,-1.000,1386.000,1013.000,-32.500
2.895,-1.500,1386.000,1012.500,-33.500
2.896,-2.500,1385.000,1012.000,-34.000
2.897,-3.000,1384.500,1011.500,-34.500
2.898,-2.500,1384.000,1011.000,-35.500
2.899,-1.000,1383.000,1010.500,-36.000
2.900,1.500,1383.000,1010.000,-37.000
2.901,4.000,1382.500,1009.500,-37.500
2.902,5.500,1382.500,1009.000,-38.000
2.903,6.000,1382.500,1008.500,-38.500
2.904,5.500,1382.500,1008.000,-39.000
2.905,5.000,1382.000,1007.500,-39.500
2.906,3.500,1382.000,1007.500,-40.500
2.907,1.500,1382.000,1007.000,-41.000
2.908,-1.500,1381.500,1006.500,-42.000
2.909,-4.500,1381.500,1006.000,-42.500
2.910,-6.500,1381.000,1005.500,-43.000
2.911,-7.500,1381.000,1005.500,-43.000
2.912,-8.000,1381.000,1005.000,-43.500
2.913,-7.500,1381.000,1005.000,-43.500
2.914,-7.000,1381.000,1005.000,-44.000
2.915,-6.500,1381.000,1005.000,-44.000
2.916,-6.000,1381.000,1005.000,-45.000
2.917,-5.500,1381.000,1005.000,-45.500
2.918,-4.500,1380.500,1005.000,-46.000
2.919,-4.500,1380.500,1004.500,-47.000
2.920,-5.500,1380.000,1004.000,-48.500
2.921,-6.000,1379.000,1004.000,-49.500
2.922,-6.000,1378.500,1003.000,-51.000
2.923,-6.000,1378.000,1002.500,-52.500
2.924,-6.000,1377.500,1002.000,-54.000
2.925,-6.000,1377.000,1001.500,-55.000
2.926,-5.000,1376.500,1001.000,-56.000
2.927,-3.500,1376.500,1000.500,-57.000
2.928,-2.000,1376.500,1000.000,-57.500
2.929,-1.000,1376.500,1000.000,-58.500
2.930,0.500,1376.500,1000.000,-59.000
2.931,1.500,1376.500,999.500,-60.000
2.932,1.500,1376.500,999.500,-60.500
2.933,0.000,1377.000,999.500,-61.000
2.934,-2.000,1377.000,999.500,-62.000
2.935,-4.000,1377.000,999.500,-62.500
2.936,-4.500,1377.000,999.500,-63.000
2.937,-4.500,1376.500,1000.000,-63.500
2.938,-3.500,1376.500,999.500,-64.000
2.939,-2.500,1376.000,999.500,-64.500
2.940,-2.500,1376.000,999.500,-65.500
2.941,-2.000,1375.500,999.000,-66.500
2.942,-2.000,1375.000,998.500,-67.500
2.943,-1.000,1374.500,998.000,-68.500
2.944,-1.000,1374.000,997.500,-69.500
2.945,-2.000,1374.000,997.000,-70.500
2.946,-3.500,1374.000,997.000,-71.000
2.947,-5.500,1374.000,997.000,-71.500
2.948,-7.000,1374.000,997.000,-72.000
2.949,-8.000,1374.500,997.000,-72.500
2.950,-8.000,1375.000,996.500,-72.500
2.951,-7.500,1375.500,997.000,-72.500
2.952,-7.500,1375.500,997.000,-72.500
2.953,-8.000,1375.500,997.500,-72.500
2.954,-8.500,1375.500,997.500,-73.000
2.955,-8.500,1375.000,997.000,-73.500
2.956,-7.500,1374.500,996.500,-74.000
2.957,-5.500,1374.000,996.000,-75.000
2.958,-4.500,1373.000,995.000,-75.500
2.959,-3.500,1372.500,994.500,-76.500
2.960,-3.500,1372.000,994.000,-77.000
2.961,-4.500,1371.500,994.000,-77.500
2.962,-5.500,1371.000,993.500,-78.000
2.963,-7.500,1370.500,993.500,-78.000
2.964,-9.000,1370.000,993.000,-78.500
2.965,-9.500,1370.000,992.500,-79.000
2.966,-9.000,1369.500,992.000,-79.500
2.967,-8.000,1369.000,991.000,-80.000
2.968,-7.000,1368.500,990.500,-81.000
2.969,-5.500,1368.000,990.000,-81.500
2.970,-4.000,1368.000,989.500,-82.000
2.971,-2.500,1367.500,989.000,-82.500
2.972,-2.000,1367.500,989.000,-83.000
2.973,-2.500,1367.000,988.500,-83.500
2.974,-3.000,1366.500,988.000,-84.000
2.975,-2.500,1366.500,988.000,-85.000
2.976,-1.000,1366.500,988.000,-85.500
2.977,0.500,1366.000,988.000,-86.000
2.978,1.000,1366.000,987.500,-86.000
2.979,0.500,1366.000,987.500,-86.500
2.980,0.500,1365.500,986.500,-87.000
2.981,1.000,1364.500,986.000,-87.500
2.982,1.500,1364.000,985.500,-88.500
2.983,2.500,1364.000,985.000,-89.000
2.984,3.000,1363.500,984.000,-90.000
2.985,4.000,1363.000,983.500,-90.500
2.986,5.000,1362.500,982.500,-91.000
2.987,5.500,1362.000,982.000,-91.500
2.988,6.500,1362.000,982.000,-92.000
2.989,7.500,1362.000,982.000,-92.000
2.990,7.500,1362.000,982.000,-92.500
2.991,7.500,1362.000,982.000,-92.500
2.992,6.500,1362.000,982.000,-92.500
2.993,5.500,1362.000,982.000,-92.500
2.994,4.000,1361.500,982.000,-93.000
2.995,3.000,1361.500,981.500,-93.500
2.996,2.500,1361.000,981.000,-94.000
2.997,2.500,1360.000,980.500,-94.500
2.998,2.500,1359.500,980.000,-95.000
2.999,2.500,1358.500,979.500,-96.000
3.000,2.500,1358.000,978.500,-96.500
3.001,2.000,1357.500,978.000,-97.500
3.002,1.500,1357.000,977.500,-98.000
3.003,1.500,1356.500,976.500,-99.000
3.004,2.500,1356.000,976.000,-99.500
3.005,4.500,1355.500,975.000,-100.500
3.006,6.500,1354.500,974.000,-101.000
3.007,8.000,1354.000,973.500,-102.000
3.008,9.500,1353.500,972.500,-102.500
3.009,10.500,1353.000,972.000,-103.000
3.010,11.000,1353.000,971.500,-103.000
3.011,11.500,1353.000,971.000,-103.000
3.012,11.500,1353.000,971.000,-103.500
3.013,11.500,1353.000,970.500,-104.000
3.014,10.000,1352.500,970.500,-104.000
3.015,8.500,1352.500,970.000,-105.000
3.016,6.000,1352.000,969.500,-105.500
3.017,3.500,1352.000,969.500,-106.000
3.018,2.000,1351.500,969.000,-106.500
3.019,1.000,1351.000,968.500,-107.500
3.020,0.000,1350.500,968.500,-108.000
3.021,-0.500,1350.000,968.000,-109.000
3.022,-1.000,1349.500,967.500,-110.500
3.023,-1.500,1348.500,967.000,-111.500
3.024,-1.000,1347.500,966.000,-112.500
3.025,0.000,1347.000,965.500,-113.500
3.026,2.000,1346.000,964.500,-114.500
3.027,4.000,1345.500,964.000,-115.500
3.028,6.500,1344.500,963.000,-116.500
3.029,9.500,1344.000,962.000,-117.000
3.030,12.000,1343.000,961.000,-118.000
3.031,15.000,1342.500,960.500,-118.500
3.032,17.500,1342.500,960.000,-119.000
3.033,19.500,1342.500,959.500,-119.500
3.034,20.500,1342.500,959.000,-119.500
3.035,19.500,1342.500,958.500,-120.000
3.036,17.500,1342.500,958.000,-120.500
3.037,15.500,1342.500,957.500,-121.500
3.038,15.000,1342.500,957.500,-122.000
3.039,15.500,1342.000,957.000,-123.000
3.040,17.000,1341.500,956.500,-124.000
3.041,18.500,1341.000,956.000,-125.000
3.042,19.500,1340.500,956.000,-126.000
3.043,19.500,1340.000,955.500,-127.000
3.044,18.500,1339.500,954.500,-128.000
3.045,17.000,1339.000,954.000,-129.000
3.046,15.500,1338.500,953.500,-130.000
3.047,14.500,1338.500,953.000,-130.500
3.048,13.500,1338.500,953.000,-131.000
3.049,12.500,1338.500,953.000,-131.000
3.050,11.000,1338.000,952.500,-131.500
3.051,9.000,1337.500,952.000,-131.500
3.052,6.500,1337.500,952.000,-132.000
3.053,3.500,1337.000,951.500,-132.500
3.054,1.000,1337.000,951.500,-133.000
3.055,-0.500,1336.500,951.500,-133.500
3.056,0.000,1336.500,951.000,-134.000
3.057,1.000,1336.000,951.000,-134.500
3.058,2.500,1335.500,950.500,-135.000
3.059,3.500,1335.000,950.000,-135.500
3.060,3.500,1334.500,949.500,-136.000
3.061,3.000,1334.000,949.000,-136.500
3.062,3.500,1333.500,948.500,-137.000
3.063,5.000,1333.500,948.000,-137.500
3.064,6.500,1333.000,947.500,-138.000
3.065,7.500,1332.500,947.000,-139.000
3.066,7.500,1332.000,946.500,-139.500
3.067,7.000,1331.500,945.500,-140.000
3.068,6.500,1331.000,945.000,-141.000
3.069,6.000,1330.500,944.000,-141.500
3.070,5.000,1330.500,943.500,-142.000
3.071,3.500,1330.000,943.000,-143.000
3.072,1.500,1330.000,942.500,-143.500
3.073,0.000,1330.000,942.500,-144.000
3.074,-0.500,1330.000,942.500,-144.500
3.075,-0.500,1329.500,942.500,-145.000
3.076,0.500,1329.500,942.500,-145.500
3.077,1.000,1329.000,942.000,-146.000
3.078,1.000,1328.000,941.500,-146.500
3.079,1.500,1327.500,941.000,-147.500
3.080,2.500,1326.500,940.000,-148.500
3.081,2.500,1325.500,939.500,-149.500
3.082,1.000,1325.000,938.500,-150.500
3.083,-1.000,1324.000,938.000,-151.000
3.084,-3.000,1323.000,937.000,-151.500
3.085,-4.000,1322.500,936.500,-152.000
3.086,-4.500,1321.500,935.500,-153.000
3.087,-4.000,1320.500,934.000,-153.500
3.088,-2.500,1319.500,933.000,-154.500
3.089,-1.000,1318.000,931.500,-155.500
3.090,1.500,1317.000,930.500,-156.500
3.091,3.500,1316.500,930.000,-157.000
3.092,4.000,1316.500,929.500,-157.500
3.093,4.500,1316.500,930.000,-157.500
3.094,4.000,1317.000,930.000,-157.000
3.095,4.000,1317.500,930.500,-156.500
3.096,4.500,1318.000,931.000,-156.000
3.097,5.500,1318.500,931.500,-156.000
3.098,6.500,1319.000,931.500,-155.500
3.099,7.500,1319.000,931.500,-156.000
3.100,8.000,1319.000,931.500,-156.500
3.101,7.500,1319.000,931.000,-157.000
3.102,6.500,1319.000,930.000,-158.000
3.103,6.000,1318.500,929.500,-159.000
3.104,5.000,1318.000,929.000,-160.000
3.105,4.500,1317.500,928.000,-161.000
3.106,4.000,1317.000,927.500,-162.000
3.107,3.000,1316.500,926.500,-162.500
3.108,1.500,1316.000,925.500,-163.000
3.109,-0.500,1315.000,925.000,-163.500
3.110,-2.500,1314.500,924.500,-164.000
3.111,-4.500,1314.000,924.000,-164.500
3.112,-6.500,1313.500,923.500,-164.500
3.113,-7.000,1313.000,923.000,-165.000
3.114,-7.000,1312.500,922.500,-165.500
3.115,-6.500,1312.000,922.000,-166.500
3.116,-7.000,1311.000,921.500,-167.500
3.117,-7.500,1310.500,921.000,-168.500
3.118,-7.500,1309.500,920.500,-169.500
3.119,-7.000,1309.000,920.000,-170.500
3.120,-6.500,1308.000,919.000,-171.500
3.121,-5.500,1307.000,918.500,-172.500
3.122,-5.500,1306.500,917.500,-173.500
3.123,-6.000,1306.000,917.000,-174.000
3.124,-6.500,1306.000,917.000,-175.000
3.125,-7.000,1305.500,916.500,-175.500
3.126,-7.000,1305.000,916.000,-176.500
3.127,-7.000,1304.500,915.500,-177.000
3.128,-8.500,1304.000,914.500,-178.000
3.129,-10.000,1303.500,914.000,-179.000
3.130,-11.000,1303.500,913.500,-179.500
3.131,-11.000,1303.000,913.000,-179.500
3.132,-9.000,1302.500,912.500,-180.000
3.133,-7.500,1302.000,912.000,-180.500
3.134,-7.000,1301.000,911.000,-181.500
3.135,-8.000,1300.000,910.500,-182.500
3.136,-9.500,1299.000,910.000,-184.000
3.137,-9.000,1298.000,909.000,-185.000
3.138,-8.500,1297.000,908.000,-186.500
3.139,-7.500,1296.000,907.500,-187.500
3.140,-7.500,1295.000,906.500,-189.000
3.141,-8.000,1294.500,905.500,-190.000
3.142,-8.500,1293.500,904.500,-191.500
3.143,-9.500,1293.000,904.000,-192.500
3.144,-9.500,1292.000,903.000,-194.000
3.145,-9.000,1291.500,902.500,-195.500
3.146,-8.000,1290.500,901.500,-196.500
3.147,-6.000,1290.000,901.000,-198.000
3.148,-3.500,1290.000,900.500,-198.500
3.149,-1.500,1289.500,900.000,-199.500
3.150,0.000,1289.500,899.500,-200.000
3.151,0.500,1289.000,899.000,-200.500
3.152,0.000,1289.000,898.500,-201.500
3.153,-1.000,1288.500,898.000,-202.000
3.154,-1.000,1288.500,897.000,-202.500
3.155,-1.000,1288.000,896.500,-203.500
3.156,0.000,1287.500,896.000,-205.000
3.157,0.000,1287.000,895.000,-206.000
3.158,-0.500,1286.500,895.000,-207.000
3.159,-1.000,1286.000,894.500,-208.000
3.160,-0.500,1285.500,894.000,-208.500
3.161,1.000,1285.000,894.000,-209.500
3.162,3.000,1284.500,894.000,-210.500
3.163,4.500,1284.500,893.500,-211.500
