'Elapsed time','AECG1','AECG2','AECG3','AECG4'
'seconds','uV','uV','uV','uV'
0.000,2.000,0.500,4.500,1.000
0.001,21.500,0.500,39.000,13.000
0.002,24.500,0.500,45.500,16.000
0.003,25.000,0.000,48.500,18.000
0.004,23.500,0.000,50.000,19.000
0.005,20.000,0.500,50.000,18.500
0.006,15.500,1.000,49.000,17.000
0.007,10.500,2.000,48.000,15.000
0.008,5.000,3.000,47.000,12.000
0.009,-0.500,4.000,46.000,9.000
0.010,-5.000,5.000,44.500,5.500
0.011,-8.500,5.500,43.500,2.000
0.012,-10.500,6.000,42.000,-1.000
0.013,-10.500,6.000,41.000,-3.000
0.014,-9.500,5.000,40.000,-4.500
0.015,-6.500,4.000,39.500,-5.000
0.016,-2.000,2.000,38.500,-4.500
0.017,3.000,-0.500,38.500,-3.500
0.018,7.500,-3.500,38.000,-2.000
0.019,12.000,-6.000,38.000,-0.500
0.020,15.500,-8.500,38.500,2.000
0.021,18.000,-11.000,39.000,4.000
0.022,19.000,-12.000,39.500,5.500
0.023,19.000,-13.000,40.000,7.000
0.024,17.500,-13.000,40.000,7.500
0.025,14.500,-12.500,40.500,6.500
0.026,11.000,-11.000,40.500,5.000
0.027,6.500,-9.500,40.000,3.000
0.028,1.500,-7.500,40.000,0.000
0.029,-3.500,-6.000,39.500,-3.000
0.030,-7.500,-4.500,38.500,-6.500
0.031,-11.000,-3.000,38.000,-9.000
0.032,-13.000,-2.500,37.000,-11.500
0.033,-13.500,-2.000,36.000,-13.000
0.034,-13.000,-3.000,35.000,-14.000
0.035,-11.500,-4.000,34.500,-14.000
0.036,-8.500,-6.000,33.500,-13.000
0.037,-5.000,-8.000,33.500,-11.500
0.038,-1.500,-10.500,33.000,-9.500
0.039,3.000,-12.000,33.500,-6.500
0.040,7.000,-13.500,34.000,-4.000
0.041,10.500,-14.500,34.500,-1.000
0.042,13.000,-15.500,35.500,1.500
0.043,14.000,-15.500,36.500,4.000
0.044,13.500,-15.000,37.000,5.000
0.045,11.500,-14.000,37.500,5.500
0.046,8.000,-12.500,37.500,5.000
0.047,3.500,-10.500,37.000,3.500
0.048,-1.500,-8.500,36.000,0.500
0.049,-6.000,-6.500,35.000,-2.500
0.050,-10.000,-5.000,34.000,-5.500
0.051,-13.500,-3.500,33.000,-8.500
0.052,-16.000,-2.500,32.000,-11.000
0.053,-17.000,-2.500,31.000,-12.500
0.054,-17.500,-3.000,30.000,-13.500
0.055,-16.500,-4.500,29.500,-14.000
0.056,-14.000,-6.500,29.000,-13.500
0.057,-11.000,-8.500,29.000,-12.000
0.058,-7.500,-11.000,29.000,-10.000
0.059,-3.500,-13.000,29.500,-7.500
0.060,-0.500,-15.000,30.500,-4.500
0.061,2.500,-16.000,31.500,-2.000
0.062,4.000,-16.500,32.500,0.500
0.063,4.500,-16.500,33.500,2.000
0.064,4.000,-16.000,34.000,3.000
0.065,2.000,-14.500,34.500,3.500
0.066,-1.000,-12.500,35.000,2.500
0.067,-5.000,-10.500,35.000,1.000
0.068,-10.000,-8.000,35.000,-1.500
0.069,-15.000,-6.000,34.500,-4.500
0.070,-19.000,-4.500,34.000,-8.000
0.071,-22.500,-3.500,33.000,-11.000
0.072,-24.500,-3.000,32.000,-14.000
0.073,-25.500,-3.000,31.000,-16.000
0.074,-24.500,-3.500,30.500,-17.500
0.075,-22.500,-4.500,30.000,-18.500
0.076,-19.500,-6.000,30.000,-18.000
0.077,-15.500,-8.000,30.000,-17.000
0.078,-11.000,-9.500,30.500,-15.000
0.079,-6.500,-11.500,31.000,-13.000
0.080,-2.500,-13.000,31.500,-10.000
0.081,1.000,-14.000,32.500,-7.500
0.082,2.500,-15.000,33.000,-5.500
0.083,3.000,-15.000,34.000,-4.000
0.084,2.000,-14.500,34.500,-3.000
0.085,-1.000,-13.000,35.000,-3.000
0.086,-5.000,-11.500,35.000,-3.500
0.087,-9.500,-9.500,35.000,-5.000
0.088,-14.500,-7.500,34.500,-7.000
0.089,-19.000,-5.500,34.500,-9.500
0.090,-22.500,-3.500,34.000,-12.000
0.091,-25.000,-1.500,34.000,-14.000
0.092,-26.500,-0.500,33.500,-15.500
0.093,-26.000,0.500,33.500,-16.500
0.094,-24.000,1.000,34.000,-16.500
0.095,-20.500,0.500,34.500,-16.000
0.096,-16.500,-0.500,36.000,-15.000
0.097,-11.500,-1.500,38.000,-13.500
0.098,-6.000,-2.500,39.500,-11.000
0.099,-0.500,-3.500,41.000,-8.500
0.100,4.500,-4.000,41.500,-5.000
0.101,9.000,-5.000,40.500,-2.000
0.102,12.500,-5.500,40.000,1.000
0.103,14.500,-5.500,39.500,3.000
0.104,14.500,-5.000,40.000,3.500
0.105,13.000,-4.000,40.500,3.000
0.106,10.000,-2.000,41.500,2.000
0.107,6.000,0.000,42.000,0.000
0.108,1.500,2.500,42.000,-2.500
0.109,-3.000,4.500,42.000,-5.000
0.110,-6.500,6.500,41.500,-7.500
0.111,-9.500,8.500,41.000,-9.500
0.112,-11.000,9.500,40.500,-11.500
0.113,-11.000,10.000,40.000,-12.500
0.114,-9.500,10.000,39.500,-13.000
0.115,-6.500,9.500,39.000,-13.000
0.116,-2.500,8.500,39.000,-12.000
0.117,2.500,7.000,39.000,-10.000
0.118,7.500,5.500,39.500,-7.500
0.119,12.000,3.500,40.500,-4.500
0.120,15.000,1.500,41.000,-1.500
0.121,17.000,0.000,41.500,1.500
0.122,17.000,-1.000,42.000,4.000
0.123,16.000,-1.500,42.500,5.500
0.124,14.000,-1.500,42.500,6.500
0.125,10.500,-0.500,43.000,6.000
0.126,7.000,1.000,42.500,5.000
0.127,2.500,3.000,42.500,3.500
0.128,-2.000,5.000,42.000,1.000
0.129,-6.500,7.000,41.500,-2.000
0.130,-10.000,9.000,40.500,-5.000
0.131,-13.000,10.500,39.500,-8.000
0.132,-14.500,11.500,38.500,-11.000
0.133,-14.000,11.500,37.500,-13.000
0.134,-12.500,11.000,36.500,-14.500
0.135,-10.000,9.500,35.500,-15.500
0.136,-7.000,7.500,35.000,-15.000
0.137,-3.000,5.000,34.500,-14.000
0.138,1.000,2.500,34.500,-12.000
0.139,5.000,0.000,34.500,-9.000
0.140,8.500,-2.500,34.500,-6.000
0.141,11.500,-4.000,35.000,-3.500
0.142,14.000,-5.500,35.000,-1.000
0.143,15.500,-6.000,35.500,1.000
0.144,15.500,-6.000,35.500,2.500
0.145,14.500,-5.500,35.000,3.500
0.146,11.500,-4.500,35.000,3.500
0.147,8.000,-3.000,34.500,3.500
0.148,4.000,-1.500,33.500,2.500
0.149,0.000,0.500,33.000,2.000
0.150,-3.000,1.500,32.000,1.000
0.151,-4.500,2.500,31.000,0.500
0.152,-5.000,2.500,30.000,0.500
0.153,-4.500,1.500,29.500,1.500
0.154,-2.500,0.500,28.500,3.500
0.155,0.500,-2.000,28.000,6.500
0.156,4.000,-4.500,28.000,10.500
0.157,8.000,-7.500,28.500,15.000
0.158,12.500,-10.500,29.000,20.000
0.159,17.500,-14.000,29.500,25.500
0.160,21.500,-17.000,30.500,31.000
0.161,25.000,-19.500,32.000,36.500
0.162,27.000,-22.000,33.000,41.000
0.163,27.500,-23.500,34.000,44.500
0.164,26.000,-24.500,34.500,47.000
0.165,22.500,-24.500,35.000,48.000
0.166,18.000,-23.500,35.000,47.500
0.167,13.000,-21.500,35.500,44.500
0.168,7.500,-19.000,35.500,40.000
0.169,2.500,-16.500,36.000,34.500
0.170,-2.000,-13.000,36.000,28.000
0.171,-6.000,-10.000,36.500,21.000
0.172,-9.000,-7.000,36.500,14.000
0.173,-11.000,-4.500,37.000,7.000
0.174,-12.500,-3.000,38.000,0.000
0.175,-12.000,-1.500,39.000,-6.000
0.176,-11.000,-0.500,40.000,-10.500
0.177,-8.500,-0.500,41.000,-13.500
0.178,-5.500,-0.500,42.500,-15.000
0.179,-2.000,-1.000,44.000,-15.500
0.180,1.000,-1.000,45.500,-15.000
0.181,3.500,-1.000,46.500,-14.000
0.182,5.000,-1.000,47.500,-13.000
0.183,5.000,-0.500,48.500,-12.000
0.184,4.000,1.000,48.500,-11.500
0.185,1.500,2.500,49.000,-12.000
0.186,-2.500,4.000,48.500,-13.000
0.187,-6.500,6.000,48.000,-15.000
0.188,-11.000,8.000,47.500,-17.500
0.189,-15.000,10.000,47.000,-20.500
0.190,-18.500,11.500,46.000,-23.500
0.191,-21.000,13.000,45.500,-26.000
0.192,-22.000,14.000,44.500,-27.500
0.193,-21.500,14.500,44.000,-28.500
0.194,-20.000,14.500,44.000,-28.500
0.195,-17.000,14.000,44.000,-27.000
0.196,-13.000,13.000,44.000,-25.000
0.197,-8.500,11.500,44.500,-22.000
0.198,-3.500,9.500,45.000,-18.500
0.199,1.000,7.500,46.000,-14.500
0.200,5.000,5.500,47.000,-10.500
0.201,8.000,4.500,48.000,-7.000
0.202,9.500,4.000,49.000,-4.000
0.203,10.500,3.500,50.000,-2.000
0.204,9.500,4.500,50.500,-1.000
0.205,8.000,5.500,50.500,-1.000
0.206,5.000,7.000,50.000,-2.500
0.207,1.500,8.500,50.000,-4.500
0.208,-2.000,10.500,49.000,-7.000
0.209,-5.500,12.500,48.500,-10.000
0.210,-8.000,14.500,47.500,-13.000
0.211,-10.000,16.000,47.000,-15.500
0.212,-11.000,17.000,46.500,-18.000
0.213,-10.500,17.000,46.500,-19.500
0.214,-9.000,17.000,46.500,-20.500
0.215,-6.000,16.000,47.500,-20.500
0.216,-2.000,15.000,49.000,-19.500
0.217,3.000,13.500,50.500,-17.500
0.218,8.500,12.500,51.000,-15.000
0.219,14.500,11.000,51.000,-11.500
0.220,19.500,10.000,50.000,-8.000
0.221,24.000,9.000,49.500,-5.000
0.222,27.500,8.000,49.500,-2.000
0.223,29.000,8.000,50.500,-0.500
0.224,28.500,8.500,51.500,0.500
0.225,27.000,9.500,53.000,0.500
0.226,24.000,11.000,54.000,-0.500
0.227,20.500,13.000,54.500,-1.500
0.228,17.000,15.000,55.000,-3.500
0.229,13.500,17.500,55.000,-5.500
0.230,10.500,19.500,55.000,-7.000
0.231,8.500,21.500,55.000,-9.000
0.232,7.500,22.500,54.500,-10.500
0.233,7.500,23.000,54.500,-11.500
0.234,9.000,23.000,54.000,-12.500
0.235,12.000,22.000,53.500,-12.500
0.236,16.000,20.500,53.000,-11.500
0.237,20.500,18.500,53.000,-10.500
0.238,26.000,16.000,53.000,-8.500
0.239,30.500,14.000,53.500,-6.500
0.240,35.000,12.000,54.000,-4.500
0.241,38.000,10.000,54.000,-2.500
0.242,40.000,9.000,54.500,-1.000
0.243,40.000,8.000,54.500,0.000
0.244,38.500,8.000,54.500,1.000
0.245,35.500,8.500,54.500,0.500
0.246,31.000,9.500,54.000,-0.500
0.247,26.500,11.000,53.500,-2.500
0.248,21.500,13.000,53.000,-5.000
0.249,17.000,14.500,52.000,-8.000
0.250,12.500,15.500,51.000,-11.500
0.251,9.000,16.000,49.500,-14.500
0.252,6.000,16.000,48.000,-17.500
0.253,4.500,15.000,46.500,-20.000
0.254,4.500,14.000,45.000,-22.000
0.255,5.500,12.000,44.000,-22.500
0.256,7.500,10.000,43.500,-22.500
0.257,11.000,7.500,43.000,-21.000
0.258,15.500,5.000,43.000,-19.000
0.259,20.500,3.000,43.500,-16.500
0.260,25.500,1.000,44.000,-14.000
0.261,29.500,-1.000,45.000,-11.500
0.262,32.000,-2.000,45.500,-9.500
0.263,33.500,-2.500,46.000,-8.500
0.264,33.000,-2.500,46.500,-8.000
0.265,31.000,-2.000,46.500,-8.000
0.266,28.000,-0.500,46.500,-9.500
0.267,24.000,1.500,46.500,-11.500
0.268,19.500,3.500,45.500,-14.000
0.269,15.000,5.500,44.500,-17.000
0.270,11.000,7.000,43.500,-20.500
0.271,7.500,8.500,42.500,-23.000
0.272,5.500,9.000,41.500,-25.500
0.273,4.000,9.500,40.500,-27.000
0.274,4.500,9.000,40.000,-28.000
0.275,5.500,8.000,40.000,-27.500
0.276,8.000,7.000,40.000,-26.000
0.277,11.500,5.500,40.500,-24.000
0.278,15.500,4.000,41.500,-20.500
0.279,19.500,3.000,43.000,-17.000
0.280,23.000,1.500,44.500,-13.500
0.281,25.500,0.500,45.500,-10.000
0.282,26.500,0.000,47.000,-7.000
0.283,26.500,0.000,48.000,-4.500
0.284,25.000,0.500,48.500,-3.500
0.285,22.000,1.500,49.000,-3.000
0.286,18.000,3.000,49.000,-3.500
0.287,13.500,5.000,49.000,-4.500
0.288,8.500,7.000,48.500,-6.000
0.289,4.000,9.000,48.000,-8.000
0.290,0.000,11.000,47.500,-10.500
0.291,-3.000,12.500,47.000,-12.500
0.292,-5.000,13.500,46.000,-15.000
0.293,-5.500,13.500,45.500,-16.500
0.294,-4.500,13.000,44.500,-17.000
0.295,-1.500,12.000,44.000,-17.000
0.296,2.500,10.500,44.000,-16.000
0.297,7.500,9.000,44.000,-14.500
0.298,12.500,7.500,44.500,-12.000
0.299,18.000,6.000,45.000,-9.000
0.300,23.000,5.000,46.000,-6.000
0.301,26.500,4.000,47.000,-3.000
0.302,29.500,3.500,48.000,0.000
0.303,30.500,4.000,49.500,2.000
0.304,30.500,5.000,50.500,3.500
0.305,29.000,6.500,51.500,4.000
0.306,26.500,8.000,52.000,4.000
0.307,23.500,10.000,52.500,3.000
0.308,20.000,12.500,52.500,1.500
0.309,17.000,14.500,52.000,-1.000
0.310,13.500,16.500,52.000,-3.000
0.311,11.500,17.500,51.500,-5.000
0.312,10.000,18.500,51.000,-7.000
0.313,9.500,19.000,50.500,-8.500
0.314,10.500,18.500,49.500,-9.500
0.315,12.500,17.500,49.000,-9.500
0.316,15.500,16.000,49.000,-9.000
0.317,19.500,14.000,48.500,-8.000
0.318,23.500,12.000,49.000,-6.000
0.319,27.000,9.500,49.000,-4.000
0.320,29.500,7.500,50.000,-2.000
0.321,32.000,6.000,50.500,0.500
0.322,33.000,5.000,51.000,2.500
0.323,33.500,5.000,52.000,4.000
0.324,32.000,5.000,52.500,5.000
0.325,29.500,6.500,53.000,5.500
0.326,26.500,8.000,53.000,5.500
0.327,23.000,10.500,53.000,4.500
0.328,19.000,13.000,53.000,2.500
0.329,15.500,15.000,52.500,0.500
0.330,12.500,17.000,52.000,-2.000
0.331,10.500,19.000,51.500,-4.000
0.332,10.000,20.000,51.500,-6.000
0.333,10.500,20.500,51.500,-7.000
0.334,12.000,20.500,52.000,-7.500
0.335,15.500,20.000,53.000,-7.000
0.336,19.500,19.000,54.000,-6.500
0.337,24.000,17.000,54.000,-5.000
0.338,29.500,15.000,53.500,-3.000
0.339,35.000,13.000,52.000,0.000
0.340,39.500,11.000,50.500,3.000
0.341,43.500,9.000,49.000,5.500
0.342,45.000,8.000,49.000,7.500
0.343,45.500,7.500,50.000,9.000
0.344,44.500,8.000,51.000,9.500
0.345,42.000,9.000,52.000,9.500
0.346,39.000,10.500,52.500,9.000
0.347,35.500,12.500,53.000,7.500
0.348,31.000,14.500,52.500,5.000
0.349,27.000,16.500,52.500,2.500
0.350,24.000,18.500,52.000,0.000
0.351,21.000,20.000,51.000,-2.000
0.352,19.500,21.000,50.500,-4.000
0.353,18.500,21.500,50.000,-5.500
0.354,19.500,21.500,50.000,-6.000
0.355,21.500,21.000,49.500,-6.000
0.356,24.500,19.500,50.000,-5.000
0.357,28.500,18.000,50.000,-3.000
0.358,33.000,16.000,50.500,-0.500
0.359,37.000,14.000,51.000,2.500
0.360,40.500,12.000,52.000,5.500
0.361,42.500,10.500,52.500,8.000
0.362,43.500,9.500,53.000,10.500
0.363,43.000,9.000,53.500,12.000
0.364,41.000,9.000,54.000,12.500
0.365,38.500,10.000,54.500,12.500
0.366,35.500,11.000,54.500,11.500
0.367,31.500,13.000,54.000,10.000
0.368,28.000,14.500,53.500,7.500
0.369,24.500,16.000,53.000,5.000
0.370,21.500,17.500,52.000,2.000
0.371,19.500,18.500,51.000,-1.000
0.372,18.000,19.000,50.000,-3.500
0.373,18.000,18.500,49.000,-6.000
0.374,19.000,18.000,48.000,-7.000
0.375,21.500,16.500,47.500,-7.500
0.376,25.000,15.000,47.000,-7.000
0.377,29.500,13.000,47.000,-6.000
0.378,34.500,11.000,47.500,-3.500
0.379,39.500,9.000,48.000,-1.000
0.380,44.500,7.000,49.000,2.000
0.381,48.500,5.500,49.500,5.000
0.382,52.000,4.000,50.500,7.500
0.383,54.000,3.500,51.500,9.500
0.384,54.500,3.500,52.000,10.500
0.385,54.000,4.000,52.000,10.500
0.386,52.000,5.500,52.000,9.500
0.387,49.500,7.000,52.000,8.500
0.388,46.500,9.000,51.500,6.500
0.389,44.000,10.500,50.500,4.500
0.390,42.000,12.000,49.500,2.000
0.391,40.500,12.500,48.000,0.000
0.392,40.000,12.500,47.000,-1.500
0.393,40.000,12.000,45.500,-3.000
0.394,41.000,11.500,44.000,-3.000
0.395,43.000,10.000,43.000,-2.500
0.396,46.500,8.000,42.000,-1.500
0.397,50.500,6.000,41.000,0.500
0.398,54.500,4.000,41.500,3.000
0.399,58.500,2.000,42.000,6.000
0.400,62.500,0.500,42.500,9.000
0.401,65.000,-0.500,43.500,12.000
0.402,66.500,-1.000,44.500,14.500
0.403,67.000,-1.000,45.000,16.500
0.404,65.000,0.000,45.500,17.000
0.405,61.500,1.500,45.500,16.500
0.406,56.500,3.500,46.000,15.000
0.407,50.000,6.000,46.000,12.500
0.408,43.500,9.000,46.500,9.000
0.409,37.500,12.000,46.500,6.000
0.410,32.500,14.500,46.000,3.000
0.411,29.000,16.500,45.000,-0.500
0.412,27.000,18.000,44.500,-3.000
0.413,25.500,18.500,43.500,-5.000
0.414,25.500,19.000,42.500,-6.500
0.415,26.500,18.500,42.000,-7.000
0.416,28.000,17.000,42.000,-7.500
0.417,30.000,15.500,42.000,-7.000
0.418,32.500,14.000,42.500,-6.000
0.419,35.000,12.500,43.000,-4.500
0.420,37.000,11.000,44.000,-2.500
0.421,38.500,10.000,45.000,-0.500
0.422,39.000,9.500,46.500,1.000
0.423,38.000,9.500,47.000,2.000
0.424,36.000,10.000,48.000,2.000
0.425,33.000,11.500,49.000,1.500
0.426,29.500,13.500,49.500,0.500
0.427,25.500,15.500,49.500,-2.000
0.428,21.000,18.000,49.500,-4.500
0.429,17.500,20.000,49.000,-7.000
0.430,14.000,22.000,48.500,-9.500
0.431,12.000,23.000,47.000,-11.500
0.432,10.500,23.000,46.000,-13.500
0.433,10.500,23.000,44.500,-15.000
0.434,11.500,21.500,43.000,-16.000
0.435,13.000,20.000,41.500,-16.500
0.436,15.000,18.500,40.500,-16.000
0.437,17.000,16.000,40.000,-15.000
0.438,20.000,14.000,40.000,-13.500
0.439,22.500,12.000,40.000,-11.500
0.440,25.000,10.000,40.500,-9.000
0.441,27.500,9.000,41.000,-6.500
0.442,29.000,8.000,42.500,-4.000
0.443,30.000,8.000,43.500,-2.500
0.444,29.000,8.000,45.000,-1.500
0.445,27.000,9.000,46.500,-2.000
0.446,23.000,10.000,47.500,-3.500
0.447,18.500,11.500,47.500,-5.500
0.448,13.500,12.500,46.000,-8.500
0.449,8.500,14.000,43.000,-12.000
0.450,4.500,15.000,39.500,-15.500
0.451,2.000,15.500,36.500,-19.000
0.452,0.500,15.500,34.500,-22.000
0.453,0.000,15.500,33.000,-24.500
0.454,1.000,15.000,32.500,-26.000
0.455,3.500,13.500,32.000,-26.500
0.456,7.000,12.500,32.000,-26.000
0.457,12.000,11.000,32.500,-24.500
0.458,17.000,9.500,33.000,-22.500
0.459,22.500,8.000,34.000,-19.500
0.460,27.500,6.500,35.000,-16.000
0.461,31.500,5.500,36.000,-13.000
0.462,34.000,5.000,37.000,-10.000
0.463,34.500,4.500,38.000,-8.000
0.464,34.000,5.000,38.500,-7.000
0.465,31.000,6.500,38.500,-6.500
0.466,27.000,8.000,38.500,-7.000
0.467,22.000,9.500,38.500,-8.500
0.468,16.500,11.500,38.000,-11.000
0.469,11.500,13.000,37.000,-13.500
0.470,7.000,14.500,36.000,-16.000
0.471,3.000,15.500,35.000,-19.000
0.472,0.000,16.000,34.000,-21.000
0.473,-2.000,16.000,33.000,-23.000
0.474,-3.000,15.500,32.000,-24.500
0.475,-3.000,14.500,31.500,-24.500
0.476,-2.000,12.500,31.000,-24.000
0.477,0.500,10.000,30.500,-22.500
0.478,3.000,7.500,30.500,-20.500
0.479,6.000,5.000,31.000,-18.000
0.480,8.500,3.000,31.500,-15.500
0.481,10.000,1.000,31.500,-13.000
0.482,10.500,0.000,32.000,-11.000
0.483,9.500,-0.500,32.500,-9.500
0.484,7.500,0.000,33.000,-8.500
0.485,4.000,1.000,33.000,-8.500
0.486,0.500,3.000,33.000,-9.000
0.487,-4.000,5.000,33.000,-10.000
0.488,-8.000,7.500,33.000,-11.500
0.489,-12.000,10.000,33.000,-13.000
0.490,-15.500,12.500,32.500,-15.000
0.491,-18.000,14.000,31.500,-17.000
0.492,-19.500,15.000,31.000,-19.000
0.493,-19.500,15.000,30.000,-20.500
0.494,-18.500,15.000,29.000,-22.000
0.495,-16.500,13.500,28.000,-22.500
0.496,-14.000,12.000,27.500,-22.000
0.497,-10.500,10.000,27.000,-21.000
0.498,-7.000,7.500,26.500,-19.000
0.499,-4.000,5.500,26.500,-16.000
0.500,-1.500,4.000,27.000,-13.500
0.501,0.000,2.500,27.500,-11.000
0.502,1.000,1.500,28.000,-8.500
0.503,1.000,1.000,28.000,-7.000
0.504,0.000,1.500,28.500,-6.000
0.505,-1.500,2.000,28.500,-6.000
0.506,-4.000,3.500,28.500,-6.500
0.507,-7.000,5.500,28.500,-8.000
0.508,-10.500,7.500,28.000,-10.000
0.509,-13.500,10.000,28.000,-12.000
0.510,-16.000,12.000,27.500,-14.500
0.511,-17.500,13.500,27.000,-16.500
0.512,-17.500,15.000,26.000,-18.000
0.513,-16.000,15.500,25.500,-19.500
0.514,-13.500,15.500,25.000,-20.000
0.515,-9.500,15.000,24.500,-19.500
0.516,-5.000,14.000,24.000,-18.000
0.517,-0.500,12.500,24.000,-16.000
0.518,4.000,10.500,24.000,-13.500
0.519,8.000,9.000,24.500,-10.500
0.520,11.000,7.500,25.000,-7.500
0.521,13.000,6.000,26.000,-5.000
0.522,13.500,5.500,26.500,-2.500
0.523,12.000,5.000,27.000,-0.500
0.524,9.500,5.500,27.000,0.500
0.525,5.500,6.000,27.000,0.500
0.526,0.000,7.000,26.500,-0.500
0.527,-6.000,8.500,26.000,-2.500
0.528,-12.000,10.500,25.000,-5.000
0.529,-18.500,12.000,24.000,-7.500
0.530,-23.500,13.000,23.000,-10.500
0.531,-27.500,14.000,21.500,-13.500
0.532,-30.000,14.000,20.500,-16.000
0.533,-31.000,13.500,19.000,-18.000
0.534,-30.000,13.000,17.500,-19.500
0.535,-28.000,11.500,16.500,-20.000
0.536,-24.500,10.000,16.000,-19.500
0.537,-20.500,8.000,16.000,-18.500
0.538,-16.500,5.500,16.000,-16.500
0.539,-12.000,3.500,16.500,-14.000
0.540,-8.000,1.000,16.500,-11.500
0.541,-4.500,-1.500,17.000,-9.500
0.542,-2.500,-3.000,17.500,-7.500
0.543,-1.500,-3.500,18.000,-5.500
0.544,-2.000,-3.500,18.000,-5.000
0.545,-4.500,-3.000,18.500,-5.000
0.546,-8.000,-1.500,18.500,-5.500
0.547,-12.500,0.500,18.000,-7.000
0.548,-17.500,2.500,17.500,-9.500
0.549,-21.500,4.500,17.000,-12.000
0.550,-25.500,6.500,16.500,-14.500
0.551,-28.000,7.500,15.500,-17.000
0.552,-29.000,8.500,14.500,-19.000
0.553,-29.000,8.500,13.500,-20.500
0.554,-27.000,8.000,13.000,-21.500
0.555,-24.000,7.000,12.500,-21.000
0.556,-19.500,5.500,12.500,-20.500
0.557,-15.000,3.500,12.500,-19.000
0.558,-10.000,1.000,12.500,-17.000
0.559,-6.000,-1.000,13.000,-14.500
0.560,-2.000,-3.000,13.500,-12.000
0.561,0.500,-4.500,14.500,-9.500
0.562,2.500,-5.500,15.500,-7.000
0.563,3.500,-6.000,16.000,-5.000
0.564,4.000,-5.500,17.000,-3.500
0.565,3.000,-4.500,17.500,-3.000
0.566,1.500,-3.500,17.500,-3.500
0.567,-2.000,-1.500,17.500,-4.500
0.568,-5.500,1.000,17.500,-6.000
0.569,-10.000,3.000,17.000,-8.000
0.570,-14.000,4.500,16.500,-10.000
0.571,-17.000,6.000,16.000,-12.500
0.572,-18.500,6.500,15.500,-14.500
0.573,-18.500,7.000,16.000,-15.500
0.574,-16.500,6.500,17.000,-16.500
0.575,-13.000,6.000,18.000,-16.500
0.576,-8.500,4.500,19.000,-15.500
0.577,-3.000,3.000,19.500,-14.500
0.578,2.500,1.500,18.500,-12.000
0.579,8.500,-0.500,17.000,-9.500
0.580,13.500,-2.500,15.000,-6.500
0.581,17.000,-4.000,14.000,-4.000
0.582,19.500,-5.500,14.000,-2.000
0.583,20.500,-5.500,14.500,-0.500
0.584,20.000,-5.500,15.000,0.500
0.585,18.000,-4.500,15.500,0.000
0.586,15.500,-3.500,15.000,-1.000
0.587,11.500,-2.000,15.000,-3.000
0.588,7.000,0.000,14.000,-5.500
0.589,3.000,1.500,13.500,-8.500
0.590,-1.000,3.000,12.500,-11.500
0.591,-4.000,3.500,11.000,-14.000
0.592,-6.000,4.000,9.500,-16.500
0.593,-7.000,3.500,8.500,-18.500
0.594,-7.000,2.500,7.500,-19.500
0.595,-5.500,1.000,7.000,-19.500
0.596,-3.000,-1.000,6.500,-19.000
0.597,0.500,-3.500,6.000,-17.500
0.598,4.500,-6.000,6.000,-15.000
0.599,8.500,-8.500,6.500,-13.000
0.600,12.500,-11.000,7.000,-10.500
0.601,15.500,-12.500,7.500,-8.000
0.602,17.000,-13.500,8.000,-6.000
0.603,16.500,-14.000,8.500,-5.000
0.604,14.500,-14.000,9.000,-4.500
0.605,11.500,-13.000,9.500,-4.500
0.606,7.000,-11.500,9.500,-5.500
0.607,2.500,-9.500,10.000,-7.000
0.608,-2.000,-7.000,10.000,-9.000
0.609,-6.000,-5.000,10.000,-11.000
0.610,-9.000,-2.500,9.500,-13.500
0.611,-12.000,-1.000,9.000,-16.000
0.612,-13.500,0.500,8.000,-18.000
0.613,-14.500,1.500,7.500,-19.000
0.614,-14.000,1.500,7.000,-20.000
0.615,-12.500,1.000,6.500,-19.500
0.616,-9.500,0.000,6.500,-18.000
0.617,-6.000,-1.500,7.000,-16.000
0.618,-2.000,-3.500,7.500,-13.000
0.619,2.500,-5.000,8.500,-10.000
0.620,6.000,-7.000,9.500,-7.000
0.621,9.000,-8.000,10.000,-4.000
0.622,11.000,-8.500,11.000,-1.500
0.623,11.500,-8.500,12.000,1.000
0.624,11.500,-7.500,12.500,2.000
0.625,10.000,-6.500,13.000,2.500
0.626,7.500,-4.500,13.000,2.000
0.627,4.000,-3.000,13.000,0.500
0.628,-0.500,-0.500,12.500,-1.500
0.629,-5.000,1.500,12.000,-4.000
0.630,-9.500,3.000,11.500,-7.000
0.631,-14.000,4.000,11.000,-9.500
0.632,-17.000,5.000,10.000,-12.000
0.633,-18.000,4.500,9.000,-14.000
0.634,-18.000,4.000,8.000,-15.000
0.635,-16.000,3.000,7.500,-15.500
0.636,-12.000,1.000,7.000,-14.500
0.637,-7.000,-1.000,6.500,-13.000
0.638,-1.000,-3.000,6.500,-11.000
0.639,5.000,-5.000,7.000,-8.500
0.640,10.500,-7.000,8.000,-5.500
0.641,15.000,-8.500,9.000,-3.000
0.642,18.000,-9.500,10.000,0.000
0.643,19.500,-10.000,11.000,2.000
0.644,20.000,-10.000,12.000,4.000
0.645,18.500,-9.000,12.500,4.500
0.646,16.000,-8.000,12.500,4.000
0.647,13.000,-6.500,12.500,3.000
0.648,9.500,-5.000,12.000,1.000
0.649,6.500,-3.500,11.500,-1.500
0.650,4.000,-2.000,11.000,-4.000
0.651,2.000,-1.000,10.000,-6.500
0.652,1.500,-0.500,9.500,-8.500
0.653,2.500,-0.500,9.000,-10.000
0.654,4.500,-1.000,8.500,-11.000
0.655,7.500,-1.500,8.000,-11.000
0.656,11.500,-3.500,8.000,-10.500
0.657,16.000,-5.500,8.000,-8.500
0.658,21.000,-7.500,8.000,-6.000
0.659,26.000,-9.500,8.500,-3.000
0.660,31.000,-10.500,9.500,1.000
0.661,35.000,-11.500,11.000,4.500
0.662,37.500,-11.500,12.500,7.500
0.663,38.500,-11.000,13.500,10.000
0.664,37.000,-10.500,15.000,11.500
0.665,34.500,-9.500,16.000,11.500
0.666,30.000,-8.000,16.500,11.000
0.667,25.000,-6.500,16.500,9.500
0.668,19.500,-4.500,16.000,7.000
0.669,14.500,-3.000,15.500,4.000
0.670,10.500,-1.500,14.500,1.000
0.671,7.500,-0.500,13.500,-2.000
0.672,5.500,0.000,12.500,-4.500
0.673,5.000,0.000,11.500,-6.500
0.674,6.000,-1.000,11.000,-7.500
0.675,8.000,-2.500,10.000,-8.000
0.676,10.500,-4.000,9.500,-7.500
0.677,13.500,-6.500,8.500,-6.500
0.678,16.500,-8.500,8.500,-4.500
0.679,20.000,-11.000,8.500,-2.500
0.680,22.500,-13.000,9.000,0.000
0.681,24.500,-14.000,9.500,2.500
0.682,25.500,-14.500,10.500,4.500
0.683,26.000,-14.500,11.000,6.000
0.684,25.000,-13.500,11.500,7.000
0.685,23.000,-12.000,12.000,6.500
0.686,19.500,-10.000,12.500,6.000
0.687,15.500,-8.000,12.500,4.500
0.688,11.000,-5.500,12.000,2.000
0.689,6.000,-3.000,11.500,-0.500
0.690,1.500,-1.000,11.000,-3.500
0.691,-2.000,0.500,10.500,-6.000
0.692,-5.000,1.500,10.000,-8.500
0.693,-7.000,1.500,9.500,-11.000
0.694,-7.500,0.500,9.500,-12.500
0.695,-7.000,-1.000,9.500,-13.000
0.696,-5.000,-2.500,9.500,-13.000
0.697,-2.000,-4.500,9.000,-12.000
0.698,2.500,-6.500,7.500,-10.000
0.699,7.000,-8.500,5.500,-7.500
0.700,11.500,-10.500,4.000,-5.000
0.701,14.500,-12.000,4.000,-2.500
0.702,16.000,-13.000,4.500,-0.500
0.703,16.000,-13.000,5.500,1.000
0.704,14.500,-13.000,6.000,2.000
0.705,12.000,-13.000,6.500,1.500
0.706,8.000,-12.000,6.000,0.500
0.707,3.500,-11.000,5.500,-1.500
0.708,-2.000,-10.000,4.500,-4.000
0.709,-7.000,-8.500,4.000,-7.000
0.710,-12.000,-7.000,3.000,-10.000
0.711,-15.500,-6.000,1.500,-13.000
0.712,-18.000,-5.500,0.500,-15.500
0.713,-19.000,-5.500,-1.000,-18.000
0.714,-19.000,-6.000,-2.000,-19.000
0.715,-18.000,-7.000,-2.500,-19.500
0.716,-16.000,-8.500,-3.000,-18.500
0.717,-13.000,-10.000,-3.000,-17.000
0.718,-10.000,-12.000,-3.000,-15.000
0.719,-7.000,-14.500,-2.500,-12.500
0.720,-4.000,-17.000,-2.500,-10.000
0.721,-2.000,-19.000,-2.000,-8.000
0.722,-0.500,-20.500,-1.500,-6.000
0.723,-0.500,-21.500,-1.000,-4.500
0.724,-1.500,-21.500,-0.500,-3.500
0.725,-3.500,-21.000,0.000,-3.500
0.726,-6.500,-19.500,0.000,-4.000
0.727,-10.000,-17.500,0.000,-5.000
0.728,-14.000,-15.500,0.000,-7.000
0.729,-18.500,-13.500,-0.500,-9.000
0.730,-22.000,-11.500,-1.000,-12.000
0.731,-25.500,-9.500,-2.000,-14.500
0.732,-27.500,-9.000,-3.000,-17.500
0.733,-28.000,-8.500,-4.000,-19.500
0.734,-27.000,-9.000,-5.000,-21.000
0.735,-24.500,-10.000,-6.000,-21.500
0.736,-21.000,-11.500,-6.500,-21.000
0.737,-16.000,-13.500,-7.000,-19.500
0.738,-11.500,-15.000,-6.500,-17.000
0.739,-6.500,-17.000,-5.500,-14.000
0.740,-3.000,-18.500,-4.500,-11.000
0.741,0.000,-19.500,-3.000,-8.500
0.742,1.500,-20.000,-1.500,-6.000
0.743,2.000,-20.000,0.000,-4.000
0.744,1.500,-19.500,1.000,-2.500
0.745,0.000,-18.500,2.000,-2.000
0.746,-2.500,-17.000,2.500,-2.500
0.747,-5.500,-15.500,3.000,-4.000
0.748,-9.000,-13.000,3.000,-5.500
0.749,-12.500,-11.000,3.000,-7.500
0.750,-16.000,-9.000,3.000,-9.500
0.751,-18.500,-8.000,2.500,-11.000
0.752,-21.000,-7.000,2.000,-13.000
0.753,-22.000,-7.500,0.500,-14.500
0.754,-22.000,-8.500,-1.000,-15.500
0.755,-21.000,-10.500,-2.500,-15.500
0.756,-19.000,-13.500,-3.500,-15.000
0.757,-15.500,-16.500,-4.500,-13.500
0.758,-11.000,-19.500,-5.500,-11.000
0.759,-6.000,-22.500,-5.500,-8.000
0.760,-1.000,-25.000,-5.000,-4.500
0.761,3.500,-27.000,-4.000,-0.500
0.762,6.500,-28.500,-3.500,3.000
0.763,7.500,-29.500,-2.500,6.000
0.764,7.000,-29.500,-2.500,8.500
0.765,5.500,-29.000,-2.000,10.500
0.766,2.500,-28.000,-2.000,11.500
0.767,-0.500,-26.500,-2.000,12.000
0.768,-4.000,-25.000,-2.000,11.500
0.769,-7.000,-23.500,-2.500,11.500
0.770,-9.500,-22.500,-3.000,11.000
0.771,-11.000,-22.000,-4.000,11.000
0.772,-11.000,-22.500,-5.000,11.500
0.773,-10.500,-23.500,-6.000,12.500
0.774,-8.500,-25.000,-7.000,14.000
0.775,-5.500,-27.500,-8.000,16.000
0.776,-2.000,-30.000,-8.500,19.000
0.777,3.000,-33.000,-8.500,22.500
0.778,7.500,-36.000,-8.000,27.000
0.779,12.500,-38.500,-7.500,31.000
0.780,16.500,-41.000,-6.500,35.000
0.781,19.000,-42.500,-6.000,37.500
0.782,19.500,-43.500,-5.000,39.000
0.783,18.000,-43.000,-4.500,38.500
0.784,15.000,-42.000,-3.500,36.000
0.785,9.500,-39.500,-2.500,32.000
0.786,3.500,-36.000,-2.000,27.000
0.787,-4.000,-32.000,-1.000,20.000
0.788,-12.000,-28.000,-0.500,12.500
0.789,-19.500,-23.000,0.500,4.000
0.790,-27.000,-19.000,1.000,-4.500
0.791,-33.500,-15.000,1.000,-12.000
0.792,-38.000,-12.500,1.000,-19.000
0.793,-41.500,-10.500,0.500,-24.500
0.794,-43.500,-10.000,-0.500,-28.500
0.795,-43.500,-10.000,-1.000,-31.000
0.796,-42.500,-11.000,-2.000,-32.000
0.797,-40.000,-12.500,-2.000,-32.000
0.798,-37.000,-14.000,-2.000,-31.000
0.799,-33.500,-16.000,-2.000,-29.000
0.800,-30.500,-17.500,-1.500,-27.000
0.801,-28.500,-18.500,-1.000,-24.500
0.802,-27.500,-18.500,0.000,-22.500
0.803,-27.000,-18.500,0.500,-21.000
0.804,-28.000,-17.500,1.500,-20.000
0.805,-29.500,-16.000,2.000,-19.500
0.806,-32.500,-14.500,2.000,-20.000
0.807,-36.000,-12.500,2.500,-20.500
0.808,-40.000,-10.500,2.500,-22.000
0.809,-44.500,-8.000,2.000,-23.500
0.810,-48.500,-6.500,1.500,-25.000
0.811,-52.000,-5.000,1.000,-26.500
0.812,-54.000,-4.500,0.500,-28.000
0.813,-55.000,-4.500,0.000,-29.000
0.814,-54.000,-4.500,0.000,-29.500
0.815,-52.000,-5.500,1.000,-29.000
0.816,-48.500,-7.000,1.500,-28.000
0.817,-44.000,-8.000,2.500,-26.000
0.818,-39.000,-10.000,2.000,-23.500
0.819,-33.000,-11.500,1.000,-20.000
0.820,-28.000,-13.000,-0.500,-16.500
0.821,-24.000,-14.500,-1.000,-13.500
0.822,-21.500,-15.000,-1.000,-11.000
0.823,-21.000,-15.000,-0.500,-9.500
0.824,-23.000,-14.500,1.000,-9.000
0.825,-26.000,-13.000,2.000,-9.500
0.826,-30.500,-11.000,3.000,-11.000
0.827,-35.500,-9.000,3.500,-13.000
0.828,-40.500,-6.500,4.000,-15.000
0.829,-44.500,-4.000,4.000,-18.000
0.830,-48.000,-2.000,4.000,-20.500
0.831,-50.000,-0.500,3.500,-23.000
0.832,-51.000,0.500,3.000,-25.000
0.833,-50.500,1.000,2.000,-26.000
0.834,-48.000,1.000,1.500,-26.500
0.835,-45.000,0.000,1.000,-26.000
0.836,-40.500,-1.500,0.500,-25.000
0.837,-35.500,-3.000,0.500,-22.500
0.838,-30.000,-5.000,1.000,-20.000
0.839,-25.500,-7.500,1.000,-17.000
0.840,-21.000,-9.500,1.000,-13.500
0.841,-18.000,-11.500,0.500,-10.500
0.842,-16.000,-13.000,0.000,-8.000
0.843,-15.000,-14.500,-0.500,-6.000
0.844,-16.000,-15.500,-1.500,-4.500
0.845,-18.000,-16.000,-2.500,-4.500
0.846,-21.500,-15.500,-3.500,-5.000
0.847,-25.500,-14.500,-4.000,-6.500
0.848,-30.000,-12.500,-4.500,-9.000
0.849,-34.500,-10.500,-5.000,-12.000
0.850,-39.000,-8.500,-5.500,-15.000
0.851,-42.500,-6.500,-6.000,-18.500
0.852,-45.500,-5.500,-6.500,-21.000
0.853,-47.000,-5.000,-7.000,-23.000
0.854,-47.000,-4.500,-7.500,-24.000
0.855,-46.000,-5.000,-7.000,-24.500
0.856,-44.000,-5.000,-6.500,-23.500
0.857,-40.500,-6.000,-5.500,-22.000
0.858,-37.000,-7.000,-4.500,-20.500
0.859,-33.000,-8.000,-3.500,-18.000
0.860,-29.500,-9.500,-2.500,-16.000
0.861,-27.000,-10.500,-1.500,-13.500
0.862,-25.000,-11.000,-1.000,-12.000
0.863,-24.500,-11.500,-0.500,-10.000
0.864,-26.000,-10.500,0.500,-9.500
0.865,-28.500,-9.500,1.000,-9.000
0.866,-32.000,-7.500,2.000,-9.500
0.867,-37.000,-5.000,2.500,-11.500
0.868,-42.000,-1.500,3.500,-13.500
0.869,-47.000,1.500,4.000,-16.000
0.870,-51.500,5.000,4.500,-19.000
0.871,-54.500,7.000,4.500,-21.000
0.872,-57.000,9.000,5.000,-23.500
0.873,-58.000,10.000,5.000,-25.000
0.874,-58.000,10.000,4.500,-26.000
0.875,-57.000,9.500,4.500,-26.500
0.876,-54.500,8.000,4.000,-26.000
0.877,-51.000,6.500,3.500,-25.000
0.878,-47.000,4.000,3.000,-22.500
0.879,-43.000,1.500,3.000,-20.000
0.880,-39.000,-1.000,2.500,-17.000
0.881,-36.000,-3.500,3.000,-13.500
0.882,-33.500,-5.000,3.000,-11.000
0.883,-32.000,-5.500,3.500,-8.000
0.884,-32.500,-5.500,4.000,-6.500
0.885,-34.000,-5.000,4.500,-5.500
0.886,-36.500,-3.500,5.000,-5.000
0.887,-40.500,-1.500,5.000,-6.000
0.888,-44.500,0.500,5.500,-7.000
0.889,-48.500,3.000,5.500,-9.000
0.890,-52.500,5.000,5.000,-11.500
0.891,-55.500,6.500,4.500,-14.000
0.892,-57.000,7.500,4.000,-16.000
0.893,-57.000,7.500,3.000,-18.000
0.894,-56.000,7.000,2.000,-19.500
0.895,-53.000,6.000,1.500,-20.000
0.896,-49.500,4.500,1.000,-20.000
0.897,-44.500,2.500,0.500,-19.000
0.898,-39.000,0.500,1.000,-17.000
0.899,-33.500,-1.500,1.500,-15.000
0.900,-28.000,-3.000,2.500,-12.000
0.901,-24.000,-4.000,3.500,-9.500
0.902,-21.500,-5.000,4.500,-7.000
0.903,-20.500,-5.000,5.500,-5.500
0.904,-21.000,-4.500,6.500,-4.000
0.905,-22.500,-3.000,7.000,-3.500
0.906,-25.500,-1.500,7.000,-4.500
0.907,-29.000,0.500,7.000,-5.500
0.908,-32.500,2.500,6.500,-8.000
0.909,-36.500,4.000,6.000,-10.500
0.910,-40.000,6.000,5.000,-13.000
0.911,-42.500,7.500,4.500,-15.500
0.912,-44.000,9.000,4.000,-17.500
0.913,-44.000,9.500,3.500,-18.500
0.914,-42.000,10.000,3.000,-19.500
0.915,-38.500,9.500,3.000,-19.000
0.916,-34.000,8.500,3.000,-18.000
0.917,-29.000,7.000,3.000,-16.000
0.918,-24.000,5.500,4.000,-13.500
0.919,-19.000,3.500,4.500,-10.500
0.920,-15.000,2.000,5.500,-7.000
0.921,-11.500,0.500,7.000,-4.000
0.922,-10.000,-0.500,8.000,-1.000
0.923,-9.500,-0.500,10.000,1.000
0.924,-10.500,0.000,11.500,2.500
0.925,-12.500,1.000,13.500,3.000
0.926,-15.500,3.000,14.500,3.000
0.927,-18.500,5.500,14.000,2.500
0.928,-21.500,8.000,12.500,1.500
0.929,-24.000,10.500,10.000,-0.500
0.930,-27.000,12.500,8.000,-2.000
0.931,-29.500,14.500,6.500,-4.000
0.932,-31.500,15.500,5.500,-6.000
0.933,-33.000,16.000,5.000,-8.000
0.934,-32.500,16.000,4.500,-9.000
0.935,-30.500,15.500,4.500,-9.000
0.936,-27.000,14.000,4.000,-8.000
0.937,-21.500,12.500,4.000,-6.500
0.938,-15.500,11.000,4.000,-4.500
0.939,-9.500,9.000,4.500,-2.000
0.940,-4.500,7.500,5.000,0.500
0.941,-0.500,6.000,5.500,3.500
0.942,2.000,5.000,6.500,5.500
0.943,2.500,4.000,7.000,7.500
0.944,1.500,4.000,8.000,8.000
0.945,-1.000,4.500,8.500,8.000
0.946,-4.500,5.500,8.500,7.500
0.947,-9.500,6.500,8.500,5.500
0.948,-14.500,8.000,8.500,3.500
0.949,-20.000,9.500,8.000,0.500
0.950,-25.000,10.500,7.000,-2.500
0.951,-29.500,11.000,6.000,-5.500
0.952,-32.000,11.500,5.000,-8.500
0.953,-33.500,11.500,4.000,-10.500
0.954,-33.500,10.500,3.000,-11.500
0.955,-32.000,9.500,2.500,-12.000
0.956,-29.500,8.500,2.500,-11.000
0.957,-26.500,6.500,2.500,-9.000
0.958,-23.000,4.500,3.500,-6.500
0.959,-19.500,2.500,4.000,-4.000
0.960,-17.000,1.000,5.000,-1.000
0.961,-15.500,-1.000,5.500,2.000
0.962,-15.000,-1.500,6.000,4.000
0.963,-15.500,-2.000,7.000,5.500
0.964,-17.000,-1.500,7.500,6.500
0.965,-19.500,-0.500,8.000,7.000
0.966,-23.000,1.000,8.500,6.500
0.967,-26.500,2.500,9.000,5.500
0.968,-30.500,5.000,9.000,4.000
0.969,-35.000,7.000,8.500,2.000
0.970,-38.500,8.500,8.000,-0.500
0.971,-42.500,10.000,7.500,-2.500
0.972,-45.000,11.000,6.500,-4.500
0.973,-46.500,11.000,5.500,-6.500
0.974,-47.000,10.500,5.000,-7.000
0.975,-45.500,9.500,4.500,-7.500
0.976,-43.000,8.000,4.500,-6.500
0.977,-39.500,5.500,4.500,-5.000
0.978,-35.000,3.000,5.000,-3.000
0.979,-31.000,0.500,5.500,-1.000
0.980,-27.000,-2.000,6.000,1.500
0.981,-24.000,-3.500,6.500,4.000
0.982,-22.000,-4.500,7.000,6.500
0.983,-21.500,-5.000,7.500,8.000
0.984,-23.000,-4.500,8.500,9.500
0.985,-25.500,-3.500,9.000,10.500
0.986,-29.500,-1.500,9.500,10.000
0.987,-34.000,1.000,9.500,9.500
0.988,-38.500,3.500,9.500,7.500
0.989,-43.000,5.500,9.000,5.500
0.990,-47.000,7.500,8.500,3.000
0.991,-50.000,9.000,8.000,0.500
0.992,-51.500,10.500,7.500,-1.500
0.993,-52.000,11.000,6.500,-3.000
0.994,-51.000,10.500,6.000,-3.500
0.995,-49.000,9.500,5.500,-3.500
0.996,-46.000,8.000,5.500,-2.500
0.997,-42.500,6.500,5.500,-1.000
0.998,-38.500,4.500,6.000,1.500
0.999,-34.500,2.500,6.500,4.500
1.000,-31.000,1.000,7.500,7.000
1.001,-28.500,-0.500,8.000,9.500
1.002,-27.000,-1.000,9.000,12.000
1.003,-27.000,-1.000,10.000,13.500
1.004,-27.500,-0.500,10.500,14.500
1.005,-29.000,1.000,11.500,15.000
1.006,-31.500,3.000,12.000,14.500
1.007,-35.000,5.000,12.000,13.000
1.008,-39.000,7.500,12.000,11.000
1.009,-43.500,9.500,12.000,9.000
1.010,-48.000,12.000,12.000,6.500
1.011,-51.500,13.500,11.500,4.500
1.012,-54.000,15.000,11.000,2.500
1.013,-55.000,16.000,11.000,1.000
1.014,-55.000,16.500,10.500,0.500
1.015,-53.000,16.500,10.000,0.000
1.016,-50.000,15.000,9.500,0.500
1.017,-46.000,13.500,9.500,1.500
1.018,-41.500,11.500,9.500,3.500
1.019,-37.000,9.000,10.000,5.500
1.020,-33.000,7.000,10.500,8.000
1.021,-30.000,5.500,11.500,10.500
1.022,-28.000,4.500,12.000,13.000
1.023,-28.000,4.500,13.000,14.500
1.024,-29.500,5.000,14.000,15.500
1.025,-32.500,6.500,14.000,15.500
1.026,-36.500,8.000,14.000,14.500
1.027,-42.000,10.000,13.500,13.000
1.028,-47.000,12.000,13.000,10.500
1.029,-52.000,14.000,12.000,7.500
1.030,-56.500,16.000,11.000,5.000
1.031,-59.500,17.500,10.000,2.000
1.032,-61.500,18.500,9.000,-0.500
1.033,-61.500,19.000,8.000,-3.000
1.034,-60.500,19.000,7.500,-4.500
1.035,-58.000,18.000,7.000,-5.500
1.036,-54.500,17.000,6.500,-5.500
1.037,-49.500,15.500,7.000,-4.500
1.038,-43.500,14.000,7.500,-2.500
1.039,-38.000,12.500,9.000,0.000
1.040,-32.500,11.500,10.500,3.000
1.041,-28.000,10.500,12.500,5.500
1.042,-24.500,10.500,14.500,8.000
1.043,-23.000,10.500,16.500,9.500
1.044,-23.000,11.500,18.500,10.500
1.045,-25.000,12.500,20.500,10.000
1.046,-28.500,14.500,21.000,9.000
1.047,-32.500,16.500,20.500,7.500
1.048,-36.500,18.000,19.000,5.500
1.049,-41.000,20.000,16.500,3.500
1.050,-45.000,21.500,14.000,1.000
1.051,-48.500,23.000,12.000,-2.000
1.052,-51.500,23.500,11.500,-5.000
1.053,-53.500,23.500,11.000,-7.500
1.054,-54.500,23.000,11.000,-9.000
1.055,-53.500,21.500,10.500,-10.000
1.056,-52.000,19.500,10.500,-9.500
1.057,-49.000,17.500,10.500,-8.500
1.058,-46.000,15.000,10.500,-7.000
1.059,-42.500,13.000,11.000,-5.000
1.060,-40.500,11.000,11.500,-3.000
1.061,-39.000,9.000,12.000,-1.000
1.062,-39.000,8.000,13.000,0.500
1.063,-40.500,7.500,13.500,2.000
1.064,-43.500,7.500,14.000,2.500
1.065,-47.000,8.000,14.500,2.500
1.066,-52.000,9.000,14.000,1.000
1.067,-57.500,10.500,13.500,-1.000
1.068,-63.000,12.000,13.000,-3.500
1.069,-68.500,14.000,12.000,-7.000
1.070,-73.000,15.500,11.000,-10.500
1.071,-76.500,16.500,10.000,-13.500
1.072,-79.000,17.500,9.000,-16.000
1.073,-80.000,17.500,8.500,-18.000
1.074,-79.500,17.500,8.000,-19.000
1.075,-77.500,16.500,8.000,-19.500
1.076,-74.500,15.000,8.000,-19.000
1.077,-71.000,13.500,8.500,-17.500
1.078,-67.000,11.000,8.500,-16.000
1.079,-63.000,9.000,9.500,-13.500
1.080,-59.000,7.000,10.000,-11.000
1.081,-56.000,5.500,11.000,-8.500
1.082,-54.000,4.500,11.500,-6.000
1.083,-53.500,4.000,12.000,-4.500
1.084,-55.000,4.000,12.500,-3.500
1.085,-58.000,5.000,13.000,-3.500
1.086,-62.500,6.000,13.000,-4.500
1.087,-67.500,7.500,13.000,-6.000
1.088,-73.000,9.500,12.500,-8.500
1.089,-78.500,11.500,12.000,-11.000
1.090,-83.500,13.500,11.500,-14.000
1.091,-87.500,15.000,11.000,-16.500
1.092,-90.000,16.500,11.000,-18.500
1.093,-91.500,17.000,10.500,-20.500
1.094,-91.500,17.000,10.000,-21.500
1.095,-90.000,16.500,9.500,-21.500
1.096,-87.000,15.000,9.000,-21.000
1.097,-83.000,13.000,8.500,-19.000
1.098,-78.500,10.500,9.000,-16.500
1.099,-74.000,8.500,9.000,-14.000
1.100,-70.500,6.500,10.000,-11.000
1.101,-67.500,5.000,10.500,-8.500
1.102,-66.500,4.000,11.000,-6.500
1.103,-67.000,3.500,11.500,-5.500
1.104,-69.000,3.500,12.000,-5.000
1.105,-72.000,4.000,12.500,-5.000
1.106,-76.500,5.500,12.500,-6.000
1.107,-80.500,7.000,12.500,-7.500
1.108,-85.000,9.000,12.000,-9.000
1.109,-89.000,11.000,11.000,-11.500
1.110,-93.000,13.000,10.000,-14.000
1.111,-95.500,14.500,8.500,-16.500
1.112,-98.000,15.500,7.000,-19.000
1.113,-99.000,16.000,6.000,-21.000
1.114,-98.500,16.000,5.000,-22.500
1.115,-97.000,15.500,4.500,-23.000
1.116,-94.000,14.000,5.000,-22.500
1.117,-90.000,12.000,5.000,-21.500
1.118,-85.000,10.500,6.000,-19.500
1.119,-79.500,8.500,7.000,-16.500
1.120,-75.000,7.000,8.000,-14.000
1.121,-71.000,5.500,9.500,-11.000
1.122,-69.000,4.500,10.500,-8.500
1.123,-68.000,4.000,11.500,-7.000
1.124,-69.000,4.000,12.000,-6.000
1.125,-71.000,4.500,12.000,-6.000
1.126,-74.000,5.500,12.000,-7.000
1.127,-78.000,7.000,11.500,-9.000
1.128,-83.000,8.500,10.500,-11.500
1.129,-87.500,10.000,10.000,-14.500
1.130,-92.000,11.500,9.000,-17.500
1.131,-95.000,12.500,8.000,-20.000
1.132,-97.500,13.000,7.000,-23.000
1.133,-99.000,13.000,6.000,-25.000
1.134,-99.000,12.500,5.000,-26.500
1.135,-98.000,11.500,4.500,-27.500
1.136,-95.500,10.000,3.500,-27.500
1.137,-92.000,8.000,3.000,-26.500
1.138,-88.000,5.500,2.500,-25.500
1.139,-84.000,3.000,2.500,-23.500
1.140,-81.000,0.500,2.500,-21.500
1.141,-78.000,-2.000,3.000,-19.500
1.142,-76.500,-3.500,3.000,-18.000
1.143,-76.500,-5.000,3.500,-17.000
1.144,-78.000,-5.500,3.500,-16.500
1.145,-80.500,-5.500,3.500,-16.500
1.146,-84.500,-4.500,3.500,-18.000
1.147,-89.000,-3.500,3.000,-19.500
1.148,-93.500,-2.000,2.500,-22.000
1.149,-97.500,-0.500,2.000,-25.000
1.150,-101.500,1.000,1.000,-28.000
1.151,-104.500,2.000,0.500,-30.500
1.152,-106.000,2.500,-0.500,-33.000
1.153,-107.000,2.500,-1.000,-35.000
1.154,-106.500,2.000,-1.000,-36.500
1.155,-104.500,0.500,-1.000,-37.000
1.156,-101.500,-1.500,-0.500,-37.000
1.157,-97.500,-4.000,0.500,-36.500
1.158,-93.000,-6.500,0.500,-34.500
1.159,-87.500,-9.000,-0.500,-32.000
1.160,-82.000,-11.000,-2.000,-29.000
1.161,-77.000,-13.000,-3.500,-26.000
1.162,-72.500,-14.500,-4.500,-23.500
1.163,-70.000,-15.000,-5.000,-21.500
1.164,-69.000,-14.500,-4.000,-20.500
1.165,-70.000,-13.500,-3.500,-20.500
1.166,-72.000,-11.500,-2.500,-21.000
1.167,-75.000,-9.500,-2.000,-22.500
1.168,-78.500,-7.000,-1.500,-24.500
1.169,-83.000,-5.000,-1.500,-26.500
1.170,-87.500,-3.000,-2.000,-29.000
1.171,-91.500,-1.500,-2.000,-31.500
1.172,-95.000,-1.000,-3.000,-34.000
1.173,-97.000,-0.500,-3.500,-35.500
1.174,-97.000,-1.000,-4.500,-36.500
1.175,-95.000,-2.000,-5.500,-36.500
1.176,-92.000,-3.500,-6.000,-36.000
1.177,-88.000,-5.500,-6.000,-34.500
1.178,-83.500,-7.500,-6.000,-32.500
1.179,-79.000,-10.000,-5.500,-29.500
1.180,-75.500,-12.000,-5.000,-26.500
1.181,-72.500,-13.500,-4.000,-23.500
1.182,-71.000,-14.500,-3.000,-21.000
1.183,-70.500,-14.500,-2.000,-19.000
1.184,-72.000,-14.500,-1.500,-18.000
1.185,-75.000,-13.500,-1.000,-18.000
1.186,-78.500,-12.500,-1.000,-18.500
1.187,-83.500,-11.000,-1.500,-20.500
1.188,-88.500,-9.500,-2.000,-22.500
1.189,-93.500,-8.000,-3.000,-25.500
1.190,-98.500,-7.000,-4.000,-28.000
1.191,-102.000,-5.500,-5.000,-31.000
1.192,-104.500,-5.000,-6.000,-33.500
1.193,-105.500,-4.500,-7.000,-35.000
1.194,-104.500,-4.500,-8.000,-36.000
1.195,-102.000,-5.500,-8.500,-36.500
1.196,-98.000,-6.500,-8.500,-35.500
1.197,-93.000,-8.000,-8.500,-34.000
1.198,-87.500,-9.500,-8.000,-32.000
1.199,-82.500,-11.000,-7.000,-29.000
1.200,-78.000,-12.500,-6.500,-26.000
1.201,-74.000,-13.500,-5.500,-23.000
1.202,-72.000,-14.500,-4.500,-20.000
1.203,-71.000,-14.500,-3.500,-17.000
1.204,-71.000,-14.000,-3.000,-15.500
1.205,-73.000,-12.500,-2.500,-14.500
1.206,-76.500,-11.000,-2.000,-14.500
1.207,-80.500,-8.500,-1.500,-15.500
1.208,-85.500,-5.500,-1.000,-17.500
1.209,-90.000,-3.000,-1.000,-19.500
1.210,-94.500,0.000,-1.000,-21.500
1.211,-97.500,2.500,-1.000,-23.500
1.212,-99.500,4.500,-1.000,-25.000
1.213,-100.000,5.500,-1.000,-26.000
1.214,-98.500,6.000,-1.000,-26.500
1.215,-96.000,6.000,-1.000,-26.500
1.216,-91.500,5.000,-0.500,-26.000
1.217,-86.500,3.500,0.000,-24.500
1.218,-81.500,2.000,0.500,-22.000
1.219,-76.500,0.000,1.500,-19.500
1.220,-72.500,-2.000,2.500,-16.500
1.221,-69.000,-3.500,3.500,-13.500
1.222,-67.000,-4.500,4.500,-11.000
1.223,-66.000,-4.500,5.500,-9.000
1.224,-66.000,-4.500,6.500,-7.500
1.225,-67.000,-3.500,7.000,-7.000
1.226,-68.500,-2.500,7.500,-7.500
1.227,-71.500,-0.500,7.500,-8.500
1.228,-74.500,1.500,8.000,-10.000
1.229,-77.500,3.500,7.500,-12.000
1.230,-80.500,5.500,7.500,-14.500
1.231,-83.500,7.000,7.000,-16.500
1.232,-85.500,7.500,6.500,-18.500
1.233,-86.500,8.000,6.000,-20.000
1.234,-86.000,8.000,5.500,-21.500
1.235,-84.500,7.000,5.000,-21.500
1.236,-82.000,5.500,4.500,-21.000
1.237,-79.000,3.500,4.500,-20.000
1.238,-75.500,1.000,4.500,-18.000
1.239,-72.000,-1.000,5.000,-15.500
1.240,-69.000,-3.000,6.000,-13.000
1.241,-66.500,-5.000,6.500,-10.000
1.242,-66.000,-6.000,7.500,-8.000
1.243,-66.500,-7.000,8.000,-6.500
1.244,-68.500,-7.000,8.500,-6.000
1.245,-71.500,-6.500,8.500,-6.000
1.246,-75.500,-5.500,9.000,-6.500
1.247,-80.500,-4.000,9.000,-8.500
1.248,-85.500,-2.500,8.500,-10.500
1.249,-90.500,-0.500,8.000,-13.000
1.250,-95.000,1.500,7.500,-15.500
1.251,-99.000,3.000,7.000,-18.000
1.252,-101.500,3.500,6.500,-20.500
1.253,-103.000,4.000,6.000,-22.000
1.254,-103.000,3.500,5.500,-22.500
1.255,-101.000,2.500,5.000,-22.500
1.256,-98.500,1.000,5.000,-22.000
1.257,-94.500,-0.500,5.500,-20.500
1.258,-90.500,-2.500,6.000,-18.500
1.259,-86.500,-4.500,7.500,-16.000
1.260,-83.000,-6.000,9.500,-13.500
1.261,-80.500,-7.500,11.500,-11.000
1.262,-79.000,-8.500,14.000,-9.000
1.263,-78.500,-8.500,15.000,-7.500
1.264,-78.500,-8.000,15.000,-6.000
1.265,-79.500,-7.500,13.500,-5.500
1.266,-81.500,-6.000,12.000,-6.000
1.267,-85.000,-4.000,10.500,-7.500
1.268,-89.500,-2.000,9.500,-10.000
1.269,-94.500,-0.500,9.500,-13.000
1.270,-99.000,1.500,9.000,-16.500
1.271,-103.500,3.000,8.500,-19.500
1.272,-106.500,3.500,8.000,-22.500
1.273,-108.000,4.000,7.000,-25.000
1.274,-108.000,3.500,6.000,-26.500
1.275,-106.500,2.000,5.000,-27.000
1.276,-104.000,0.000,4.500,-27.000
1.277,-101.000,-2.000,4.500,-26.500
1.278,-97.000,-4.500,5.000,-25.000
1.279,-93.000,-7.000,5.500,-22.500
1.280,-89.000,-9.000,7.000,-20.000
1.281,-86.000,-10.500,8.000,-17.500
1.282,-84.000,-11.500,9.000,-15.000
1.283,-83.500,-12.000,10.000,-13.000
1.284,-85.000,-12.000,10.500,-12.000
1.285,-87.500,-11.500,10.500,-11.500
1.286,-91.500,-10.500,10.500,-12.000
1.287,-97.000,-9.500,9.500,-13.000
1.288,-103.000,-8.500,9.000,-15.000
1.289,-109.000,-7.000,8.000,-17.500
1.290,-114.000,-6.000,6.500,-19.500
1.291,-118.000,-5.000,5.000,-22.000
1.292,-120.500,-5.000,3.500,-24.000
1.293,-121.000,-6.000,1.500,-25.000
1.294,-120.000,-7.500,-0.500,-25.500
1.295,-118.000,-9.500,-2.000,-25.000
1.296,-114.500,-12.000,-3.000,-24.000
1.297,-110.000,-15.000,-4.000,-21.500
1.298,-105.500,-17.500,-4.000,-18.500
1.299,-101.000,-20.000,-3.500,-15.500
1.300,-97.000,-22.000,-2.500,-12.000
1.301,-94.000,-23.000,-1.000,-8.500
1.302,-91.500,-23.500,0.500,-5.500
1.303,-90.000,-23.500,2.000,-3.500
1.304,-90.000,-23.000,3.000,-2.000
1.305,-92.000,-22.000,4.000,-1.500
1.306,-95.000,-20.000,4.500,-2.000
1.307,-99.500,-18.000,5.500,-3.000
1.308,-105.000,-15.500,6.000,-5.500
1.309,-110.500,-13.000,6.000,-8.000
1.310,-115.500,-11.000,6.500,-10.500
1.311,-119.000,-9.000,6.500,-12.500
1.312,-121.000,-8.000,6.000,-14.500
1.313,-122.000,-8.000,5.000,-16.000
1.314,-121.500,-8.500,4.000,-17.500
1.315,-120.000,-10.000,3.000,-18.000
1.316,-118.000,-12.000,2.500,-18.000
1.317,-115.500,-13.500,2.500,-17.500
1.318,-113.000,-15.000,3.000,-16.000
1.319,-110.500,-16.500,4.000,-14.500
1.320,-108.500,-17.500,5.500,-12.500
1.321,-107.000,-18.500,7.500,-10.500
1.322,-106.500,-18.500,9.000,-8.500
1.323,-107.000,-18.000,10.000,-7.500
1.324,-109.000,-17.000,11.500,-7.000
1.325,-112.000,-15.500,12.000,-7.000
1.326,-116.500,-13.500,13.000,-7.500
1.327,-121.500,-11.000,13.500,-9.000
1.328,-127.500,-8.500,13.500,-11.000
1.329,-133.000,-5.500,13.500,-13.500
1.330,-137.500,-3.500,13.500,-16.000
1.331,-140.500,-1.500,12.500,-18.500
1.332,-142.500,-0.500,11.500,-20.500
1.333,-143.000,0.000,10.000,-22.000
1.334,-142.000,-1.000,9.000,-23.000
1.335,-140.000,-2.000,7.500,-23.000
1.336,-136.500,-3.500,7.000,-22.500
1.337,-132.500,-5.500,6.500,-21.000
1.338,-128.000,-7.500,6.500,-19.500
1.339,-123.500,-9.500,7.000,-17.000
1.340,-120.000,-11.000,8.000,-14.500
1.341,-116.500,-12.000,9.000,-12.000
1.342,-114.000,-12.500,10.000,-9.500
1.343,-113.000,-12.500,11.000,-7.500
1.344,-112.500,-11.500,12.000,-6.500
1.345,-113.500,-10.500,12.500,-6.000
1.346,-115.500,-8.500,13.000,-6.000
1.347,-118.500,-6.000,13.500,-7.000
1.348,-121.500,-3.500,13.500,-9.000
1.349,-124.500,-1.000,13.500,-11.500
1.350,-127.500,1.500,13.500,-14.000
1.351,-129.500,3.000,13.000,-16.500
1.352,-130.500,4.500,12.500,-19.000
1.353,-130.500,5.000,12.500,-21.500
1.354,-129.500,5.000,12.000,-22.500
1.355,-127.500,4.500,12.000,-23.000
1.356,-124.000,3.000,12.000,-22.500
1.357,-119.000,1.500,12.500,-21.000
1.358,-114.000,-0.500,12.500,-19.000
1.359,-109.000,-2.500,13.000,-16.000
1.360,-104.000,-4.500,14.000,-13.500
1.361,-100.500,-6.000,14.500,-11.000
1.362,-98.000,-8.000,14.500,-9.000
1.363,-97.500,-9.000,15.000,-7.500
1.364,-98.000,-9.500,15.500,-6.500
1.365,-100.500,-9.000,15.500,-6.500
1.366,-103.500,-8.000,16.000,-7.000
1.367,-107.500,-6.500,16.000,-8.000
1.368,-112.000,-4.500,16.500,-9.500
1.369,-115.500,-2.000,16.500,-11.500
1.370,-118.500,-0.500,16.500,-13.500
1.371,-121.000,1.500,16.000,-15.500
1.372,-122.500,2.000,16.000,-17.500
1.373,-123.500,2.500,16.500,-19.500
1.374,-123.500,1.500,16.500,-21.000
1.375,-122.000,0.500,16.000,-21.500
1.376,-119.500,-1.500,15.000,-21.000
1.377,-116.000,-3.500,12.500,-19.500
1.378,-111.500,-6.000,10.500,-17.000
1.379,-106.500,-8.000,9.000,-14.500
1.380,-102.000,-10.500,8.500,-11.500
1.381,-98.000,-12.000,9.500,-9.000
1.382,-95.500,-13.500,11.000,-7.000
1.383,-94.500,-14.000,12.000,-5.500
1.384,-95.000,-14.000,13.000,-4.500
1.385,-97.000,-13.000,14.000,-4.000
1.386,-100.000,-12.000,14.500,-4.500
1.387,-104.000,-10.000,14.500,-6.000
1.388,-108.500,-8.000,14.000,-8.000
1.389,-113.500,-6.000,13.500,-11.000
1.390,-118.000,-4.500,12.500,-14.000
1.391,-122.000,-3.500,11.000,-17.000
1.392,-125.000,-3.000,10.000,-20.000
1.393,-126.000,-3.000,8.500,-22.500
1.394,-125.500,-4.000,7.000,-24.500
1.395,-123.500,-5.000,6.000,-25.500
1.396,-120.000,-7.000,5.000,-25.500
1.397,-115.500,-9.000,4.500,-24.500
1.398,-111.000,-11.000,4.500,-22.500
1.399,-106.000,-13.000,5.000,-20.000
1.400,-102.000,-14.500,5.500,-17.000
1.401,-99.000,-16.000,6.500,-14.500
1.402,-97.000,-17.000,7.500,-11.500
1.403,-96.500,-17.000,8.500,-9.500
1.404,-97.000,-16.500,9.500,-8.000
1.405,-98.500,-15.500,10.500,-7.500
1.406,-101.500,-14.000,11.000,-7.500
1.407,-105.500,-12.000,11.000,-8.000
1.408,-110.000,-10.000,11.000,-9.500
1.409,-115.000,-8.000,10.500,-11.500
1.410,-119.000,-6.000,9.500,-13.500
1.411,-122.500,-5.000,8.500,-16.000
1.412,-124.000,-4.500,7.500,-18.000
1.413,-124.500,-5.000,6.000,-19.500
1.414,-123.000,-6.500,4.500,-20.500
1.415,-120.500,-8.500,3.000,-20.000
1.416,-116.500,-11.000,1.500,-18.500
1.417,-112.000,-14.000,0.500,-16.500
1.418,-107.500,-17.000,0.000,-13.000
1.419,-102.500,-20.500,0.000,-8.500
1.420,-98.000,-23.500,0.000,-4.000
1.421,-94.500,-26.500,0.000,0.500
1.422,-92.000,-29.000,0.500,5.000
1.423,-91.500,-30.500,0.500,9.000
1.424,-92.000,-31.500,1.000,12.500
1.425,-94.000,-32.000,0.500,15.500
1.426,-98.000,-32.500,0.500,17.500
1.427,-102.500,-32.500,-0.500,18.500
1.428,-107.500,-32.500,-1.500,19.000
1.429,-112.500,-32.000,-2.500,19.000
1.430,-116.500,-32.000,-3.500,19.000
1.431,-119.500,-32.000,-5.000,19.000
1.432,-121.000,-32.500,-6.000,19.000
1.433,-121.500,-33.500,-7.500,19.000
1.434,-120.500,-34.500,-8.500,19.000
1.435,-118.500,-35.500,-9.000,19.000
1.436,-115.500,-36.500,-9.500,18.500
1.437,-112.000,-37.500,-9.500,18.000
1.438,-108.000,-38.500,-9.000,17.500
1.439,-104.000,-39.500,-8.000,16.500
1.440,-100.500,-39.500,-6.500,15.000
1.441,-97.500,-39.000,-4.500,13.000
1.442,-95.500,-38.000,-3.000,10.500
1.443,-95.000,-36.500,-1.000,7.500
1.444,-95.500,-34.000,1.000,3.500
1.445,-97.000,-31.000,2.500,0.000
1.446,-99.500,-27.500,4.000,-4.000
1.447,-103.000,-24.000,5.000,-7.500
1.448,-107.000,-20.500,5.500,-11.500
1.449,-110.500,-17.500,5.500,-15.000
1.450,-113.000,-15.000,5.000,-18.500
1.451,-115.000,-13.000,4.000,-22.000
1.452,-115.500,-11.500,3.000,-25.000
1.453,-114.500,-11.000,2.000,-28.000
1.454,-112.500,-11.000,0.500,-30.000
1.455,-109.500,-12.000,-0.500,-30.500
1.456,-105.500,-13.000,-1.000,-30.500
1.457,-100.000,-15.000,-1.500,-29.500
1.458,-94.500,-17.000,-1.500,-27.000
1.459,-88.000,-18.500,-0.500,-24.500
1.460,-82.000,-20.500,0.000,-21.500
1.461,-76.000,-22.000,1.000,-18.000
1.462,-71.000,-23.000,1.500,-15.500
1.463,-66.500,-23.000,2.500,-13.000
1.464,-64.000,-23.000,3.000,-11.000
1.465,-62.500,-22.000,3.000,-9.500
1.466,-62.500,-21.000,3.500,-9.000
1.467,-63.000,-19.000,3.500,-9.500
1.468,-64.500,-17.000,3.000,-10.000
1.469,-66.000,-14.500,2.500,-12.000
1.470,-67.500,-12.500,2.000,-13.500
1.471,-68.000,-11.000,1.500,-16.000
1.472,-68.500,-10.000,0.500,-18.000
1.473,-67.500,-9.500,-0.500,-19.500
1.474,-66.000,-9.500,-1.000,-20.500
1.475,-62.500,-10.500,-1.000,-21.000
1.476,-58.500,-11.500,-0.500,-20.500
1.477,-52.500,-13.000,0.000,-19.000
1.478,-46.500,-14.500,1.000,-17.000
1.479,-40.000,-16.000,1.000,-14.000
1.480,-34.000,-17.500,0.000,-10.500
1.481,-29.500,-19.000,-1.000,-7.000
1.482,-26.000,-19.500,-2.000,-3.500
1.483,-24.500,-20.000,-1.500,-1.000
1.484,-25.000,-19.000,-0.500,0.500
1.485,-27.000,-18.000,0.500,0.500
1.486,-30.500,-16.000,1.500,0.000
1.487,-34.500,-14.000,1.500,-1.500
1.488,-39.000,-11.500,2.000,-3.500
1.489,-43.000,-9.000,1.500,-5.500
1.490,-46.500,-6.500,1.000,-8.000
1.491,-49.000,-5.000,0.500,-10.500
1.492,-50.500,-3.500,-0.500,-12.500
1.493,-50.500,-3.500,-1.500,-14.500
1.494,-48.500,-3.500,-2.500,-15.500
1.495,-45.500,-4.500,-3.000,-15.500
1.496,-41.500,-6.500,-3.500,-14.500
1.497,-36.500,-8.500,-3.500,-13.000
1.498,-31.500,-10.500,-3.000,-10.500
1.499,-27.000,-12.500,-2.500,-8.000
1.500,-23.000,-14.500,-2.000,-5.000
1.501,-20.500,-16.500,-1.000,-2.000
1.502,-19.000,-17.500,-0.500,0.500
1.503,-18.500,-18.000,0.500,2.500
1.504,-19.000,-18.000,1.000,4.000
1.505,-20.500,-17.000,1.500,4.500
1.506,-23.000,-15.500,2.000,4.500
1.507,-25.500,-14.000,2.000,3.500
1.508,-29.000,-12.000,1.500,1.500
1.509,-32.500,-10.000,0.500,-1.000
1.510,-35.500,-8.000,-0.500,-3.500
1.511,-37.500,-6.500,-1.500,-6.500
1.512,-38.500,-5.000,-2.000,-8.500
1.513,-38.500,-4.500,-2.500,-10.000
1.514,-37.000,-4.500,-3.000,-11.000
1.515,-34.000,-5.000,-3.500,-10.500
1.516,-30.500,-6.000,-4.000,-9.500
1.517,-25.500,-7.500,-3.500,-7.000
1.518,-20.000,-9.000,-3.500,-4.500
1.519,-14.000,-11.000,-2.500,-1.500
1.520,-8.500,-12.500,-2.000,2.000
1.521,-4.000,-14.500,-1.500,4.500
1.522,-1.000,-15.500,-0.500,7.000
1.523,1.500,-16.500,0.000,9.000
1.524,2.500,-16.000,0.500,10.000
1.525,2.000,-15.500,1.000,10.500
1.526,-0.500,-13.500,1.500,10.000
1.527,-4.000,-11.500,1.500,8.500
1.528,-8.500,-9.500,1.500,6.500
1.529,-13.000,-7.000,1.000,4.000
1.530,-17.500,-5.000,0.500,1.500
1.531,-21.500,-4.000,-0.500,-1.000
1.532,-24.000,-3.000,-1.500,-3.500
1.533,-24.500,-3.000,-2.000,-5.500
1.534,-24.000,-3.500,-3.000,-6.500
1.535,-22.000,-4.500,-4.000,-7.000
1.536,-18.500,-6.000,-4.500,-6.500
1.537,-14.500,-7.500,-4.500,-5.000
1.538,-10.000,-9.500,-4.000,-2.500
1.539,-5.500,-11.500,-3.500,0.500
1.540,-1.000,-13.000,-2.500,3.500
1.541,3.000,-14.500,-1.500,6.500
1.542,6.000,-15.000,-0.500,9.500
1.543,7.500,-15.500,0.500,12.000
1.544,7.500,-15.500,1.500,13.500
1.545,6.000,-14.500,2.500,14.000
1.546,3.500,-13.000,3.000,13.500
1.547,0.000,-11.000,3.500,12.500
1.548,-3.500,-8.500,3.500,10.500
1.549,-6.500,-6.000,3.500,8.000
1.550,-9.500,-4.000,3.500,6.000
1.551,-11.500,-2.000,3.000,3.500
1.552,-12.500,-1.000,2.500,1.500
1.553,-12.500,-0.500,2.000,-0.500
1.554,-12.000,-0.500,1.000,-1.500
1.555,-10.500,-1.000,0.500,-1.500
1.556,-8.000,-2.500,-0.500,-1.000
1.557,-5.000,-4.000,-0.500,0.500
1.558,-1.000,-5.500,0.000,2.500
1.559,3.000,-7.500,0.500,5.500
1.560,7.000,-9.000,1.500,8.000
1.561,10.000,-10.000,3.000,11.000
1.562,12.500,-10.500,4.000,13.500
1.563,13.500,-10.500,5.500,16.000
1.564,13.500,-9.500,6.500,17.500
1.565,12.500,-8.000,8.000,18.500
1.566,11.000,-5.500,8.500,18.500
1.567,8.500,-3.500,9.000,17.500
1.568,5.500,-1.000,9.500,16.000
1.569,2.500,1.500,9.000,14.000
1.570,-0.500,3.500,8.500,11.000
1.571,-3.000,5.000,7.500,8.500
1.572,-5.000,6.000,6.000,6.000
1.573,-6.500,6.000,5.000,4.000
1.574,-6.500,6.000,4.000,2.500
1.575,-5.000,5.000,3.000,2.000
1.576,-2.000,3.500,2.500,2.500
1.577,2.500,2.000,2.500,4.000
1.578,7.500,0.000,3.000,6.500
1.579,12.500,-2.000,3.500,9.500
1.580,17.000,-4.000,4.500,12.500
1.581,21.000,-5.500,5.500,15.500
1.582,23.500,-6.500,7.000,18.000
1.583,25.000,-7.000,8.000,20.000
1.584,26.000,-7.000,8.500,21.000
1.585,25.500,-6.000,9.000,21.500
1.586,24.500,-5.000,9.000,20.500
1.587,22.500,-3.000,9.000,19.500
1.588,19.500,-1.000,8.500,18.000
1.589,16.000,1.500,8.500,16.000
1.590,12.000,3.500,8.000,14.000
1.591,8.000,5.500,8.000,12.500
1.592,4.500,6.500,8.500,10.500
1.593,2.500,7.500,9.000,9.500
1.594,1.000,7.500,10.000,8.500
1.595,1.000,6.500,10.500,8.500
1.596,2.000,5.500,10.500,9.500
1.597,4.500,3.500,9.500,11.500
1.598,8.500,1.500,7.500,14.000
1.599,13.000,-1.000,5.500,17.000
1.600,17.500,-3.500,4.500,20.000
1.601,21.500,-5.500,4.500,23.000
1.602,24.000,-7.000,5.000,25.000
1.603,24.500,-7.500,6.000,27.000
1.604,23.500,-7.500,7.000,28.000
1.605,20.500,-7.000,7.000,28.000
1.606,16.000,-6.000,7.500,27.500
1.607,11.000,-4.500,7.000,26.500
1.608,5.500,-3.000,7.000,24.500
1.609,0.500,-1.000,6.500,22.500
1.610,-4.500,1.500,6.500,20.000
1.611,-8.000,3.000,6.000,17.500
1.612,-11.000,4.500,5.500,15.500
1.613,-13.000,5.000,5.000,14.500
1.614,-13.500,5.500,5.000,13.500
1.615,-12.500,5.000,4.500,13.500
1.616,-10.000,4.000,4.500,14.500
1.617,-6.000,2.500,4.500,16.500
1.618,-1.500,0.500,5.000,19.000
1.619,3.500,-1.500,5.500,22.500
1.620,8.000,-3.000,6.500,26.000
1.621,11.500,-4.500,7.000,29.000
1.622,14.000,-5.000,8.000,32.000
1.623,14.500,-5.500,8.500,34.500
1.624,13.000,-5.500,9.000,36.000
1.625,10.500,-5.000,9.000,37.000
1.626,6.500,-4.000,9.000,36.500
1.627,2.000,-3.000,8.500,35.000
1.628,-3.000,-1.500,8.000,33.000
1.629,-8.000,0.000,7.000,30.500
1.630,-11.500,1.500,6.000,27.500
1.631,-15.000,2.000,5.000,24.500
1.632,-17.000,2.500,3.500,22.000
1.633,-17.500,2.500,2.000,19.500
1.634,-16.500,1.500,0.500,18.000
1.635,-14.000,0.000,-0.500,17.500
1.636,-10.000,-2.000,-1.000,17.500
1.637,-5.000,-4.000,-1.000,19.000
1.638,1.000,-6.500,-1.000,21.000
1.639,7.500,-8.500,-0.500,23.500
1.640,13.000,-10.500,0.000,26.500
1.641,18.000,-12.000,1.000,29.500
1.642,21.500,-12.500,2.000,33.000
1.643,23.500,-12.500,3.000,35.500
1.644,24.000,-12.000,4.000,38.000
1.645,22.500,-10.500,5.000,39.000
1.646,20.000,-8.500,5.500,39.500
1.647,16.500,-6.000,6.000,39.000
1.648,12.500,-3.500,6.000,38.000
1.649,8.000,-1.500,6.000,36.000
1.650,4.000,1.000,6.000,34.000
1.651,1.000,3.000,5.500,32.500
1.652,-0.500,5.000,5.500,30.500
1.653,-1.000,6.000,5.500,29.500
1.654,0.000,6.500,5.500,29.500
1.655,2.000,6.500,5.500,29.500
1.656,5.500,6.000,6.000,30.500
1.657,9.500,4.500,6.500,32.500
1.658,14.000,3.000,7.000,34.500
1.659,19.000,1.500,8.500,37.500
1.660,23.500,0.000,9.500,40.500
1.661,27.500,-1.500,11.000,43.000
1.662,30.000,-2.000,12.500,46.000
1.663,31.500,-2.000,14.000,48.000
1.664,31.500,-1.000,15.000,49.500
1.665,30.000,0.500,16.000,50.500
1.666,27.000,2.500,16.500,50.500
1.667,23.000,5.000,17.000,49.000
1.668,19.000,7.500,17.000,47.000
1.669,14.000,10.000,16.500,44.500
1.670,9.500,12.500,15.500,42.000
1.671,5.000,14.000,15.000,39.000
1.672,2.000,15.500,14.000,36.500
1.673,-0.500,16.000,13.500,34.500
1.674,-1.000,16.000,12.500,33.000
1.675,-0.500,15.500,12.000,32.500
1.676,1.500,14.500,11.500,32.500
1.677,4.500,13.000,11.500,33.500
1.678,8.500,11.500,11.500,35.500
1.679,12.500,10.000,12.000,38.000
1.680,16.500,8.500,13.000,40.500
1.681,20.000,7.000,14.000,43.000
1.682,22.500,6.500,15.000,45.500
1.683,23.000,6.000,16.000,47.000
1.684,22.500,6.500,16.500,48.500
1.685,20.500,8.000,17.000,48.500
1.686,17.000,9.500,17.500,48.000
1.687,12.500,11.000,17.000,47.000
1.688,7.000,13.000,17.000,44.500
1.689,2.000,14.500,16.000,42.000
1.690,-3.000,16.500,15.500,39.000
1.691,-7.000,18.000,14.500,36.500
1.692,-9.500,19.000,14.000,33.500
1.693,-11.000,20.000,13.500,31.500
1.694,-11.000,20.000,13.000,29.500
1.695,-9.500,20.000,12.500,29.000
1.696,-7.000,19.000,12.500,29.000
1.697,-3.000,17.500,12.500,30.500
1.698,1.500,16.000,13.000,32.000
1.699,6.500,14.000,14.000,34.500
1.700,11.500,12.500,15.000,37.500
1.701,15.500,11.500,16.000,40.000
1.702,18.500,10.500,17.000,42.500
1.703,20.000,10.500,18.000,44.000
1.704,20.000,10.500,18.500,44.500
1.705,19.000,11.500,19.000,44.500
1.706,17.000,12.500,19.000,43.500
1.707,14.500,14.500,19.500,42.000
1.708,11.500,16.500,19.000,39.500
1.709,8.500,18.500,19.000,37.000
1.710,5.500,20.000,18.000,33.500
1.711,3.000,21.500,17.500,30.500
1.712,1.000,22.000,16.500,27.000
1.713,1.000,22.000,15.500,24.000
1.714,2.000,21.500,15.000,22.000
1.715,4.500,20.000,15.000,20.000
1.716,8.000,18.500,15.000,19.500
1.717,12.500,16.500,15.500,20.000
1.718,18.000,14.000,16.000,21.500
1.719,23.500,11.500,15.000,24.000
1.720,29.500,9.500,14.000,27.000
1.721,34.500,7.500,12.500,30.000
1.722,38.000,6.000,12.500,32.500
1.723,40.500,6.000,13.500,34.500
1.724,41.000,6.000,15.000,36.000
1.725,40.000,7.500,17.000,36.500
1.726,38.000,9.000,18.500,36.000
1.727,35.000,11.000,19.500,35.000
1.728,31.000,13.000,20.000,33.000
1.729,26.500,14.500,19.500,30.500
1.730,22.500,15.500,19.000,27.500
1.731,19.500,16.500,18.000,25.000
1.732,17.000,17.000,16.500,22.500
1.733,16.000,17.500,16.000,20.500
1.734,16.500,17.000,15.000,19.500
1.735,18.500,16.000,14.500,19.500
1.736,21.500,14.500,14.000,20.500
1.737,26.000,12.500,14.000,22.500
1.738,31.500,9.500,13.500,25.500
1.739,37.000,6.500,13.500,28.500
1.740,43.000,3.500,13.000,32.000
1.741,47.500,0.500,13.000,35.000
1.742,51.500,-2.000,12.500,38.000
1.743,54.000,-3.000,12.500,40.500
1.744,54.500,-3.500,13.000,42.500
1.745,53.000,-3.000,13.500,43.000
1.746,49.500,-1.500,14.000,42.500
1.747,45.000,1.000,14.500,41.500
1.748,39.000,3.500,15.000,39.500
1.749,33.500,6.000,15.500,37.500
1.750,28.500,8.500,15.500,35.000
1.751,24.000,10.500,15.500,32.500
1.752,21.000,12.500,15.500,30.500
1.753,19.500,13.500,15.500,29.000
1.754,19.000,14.500,16.000,27.500
1.755,19.500,14.500,17.000,27.000
1.756,21.000,14.000,18.000,27.500
1.757,23.500,13.000,18.500,28.500
1.758,27.000,11.500,19.500,30.000
1.759,30.500,9.500,20.500,32.500
1.760,33.500,7.500,21.500,35.000
1.761,36.500,6.000,22.500,37.500
1.762,38.500,5.000,24.000,40.000
1.763,39.500,5.500,25.500,41.500
1.764,39.500,6.500,27.000,42.000
1.765,37.500,8.000,28.500,42.000
1.766,34.500,10.000,29.500,41.000
1.767,30.500,12.500,30.000,39.000
1.768,25.500,15.000,30.000,36.000
1.769,20.500,17.500,30.000,33.000
1.770,16.500,20.000,30.000,29.500
1.771,13.000,22.500,30.000,26.000
1.772,11.000,24.000,30.000,23.000
1.773,10.500,25.000,30.000,21.000
1.774,11.500,25.500,30.500,19.500
1.775,13.500,25.000,30.500,19.500
1.776,17.000,23.500,30.500,20.500
1.777,21.500,21.500,30.500,22.000
1.778,26.500,19.500,31.000,25.000
1.779,32.000,17.000,31.000,28.500
1.780,37.000,14.500,31.500,32.000
1.781,41.000,12.500,32.000,35.000
1.782,44.000,11.000,32.500,38.000
1.783,45.500,10.000,33.500,40.500
1.784,45.500,10.000,34.000,42.000
1.785,44.500,10.500,34.500,42.500
1.786,41.500,11.000,34.500,42.000
1.787,38.000,12.500,34.500,40.500
1.788,33.500,14.000,34.000,38.000
1.789,29.000,16.000,33.500,35.500
1.790,24.000,17.500,33.000,32.500
1.791,20.000,19.000,32.500,30.000
1.792,16.500,20.000,31.500,27.500
1.793,14.500,20.500,30.500,25.500
1.794,13.500,20.000,29.500,24.000
1.795,13.500,19.000,28.500,23.500
1.796,15.000,17.500,28.000,23.500
1.797,17.500,15.500,27.500,25.000
1.798,21.500,13.500,27.500,27.000
1.799,26.000,11.500,28.000,29.500
1.800,30.500,10.000,29.000,32.500
1.801,34.000,8.500,30.000,35.500
1.802,37.000,8.000,31.000,38.500
1.803,38.500,8.000,32.000,40.500
1.804,39.000,8.000,33.000,42.500
1.805,37.500,9.000,33.500,43.000
1.806,34.500,10.500,34.000,43.000
1.807,31.000,12.000,34.000,42.000
1.808,26.500,14.000,34.000,40.000
1.809,22.500,16.000,33.500,37.500
1.810,18.500,17.500,33.000,35.000
1.811,15.000,19.000,32.000,32.500
1.812,13.000,20.000,31.500,30.000
1.813,12.000,20.500,31.000,28.000
1.814,13.000,20.500,30.500,27.000
1.815,15.000,20.000,30.000,27.000
1.816,18.000,19.000,30.000,27.500
1.817,22.500,17.500,30.500,29.000
1.818,27.500,16.000,31.000,31.000
1.819,33.000,14.000,31.500,33.500
1.820,37.500,12.000,32.000,36.500
1.821,41.000,10.500,33.000,39.000
1.822,43.000,9.000,33.500,41.500
1.823,43.500,8.500,34.500,43.500
1.824,42.000,8.000,35.000,45.000
1.825,39.000,8.500,35.500,45.000
1.826,34.500,9.000,36.000,45.000
1.827,29.500,10.500,36.500,43.500
1.828,24.000,12.000,37.000,41.000
1.829,19.000,14.000,37.500,38.500
1.830,15.000,16.000,37.500,35.500
1.831,12.000,18.000,36.000,33.000
1.832,11.000,19.000,34.000,31.000
1.833,11.500,20.000,31.000,29.500
1.834,13.000,20.000,29.000,28.500
1.835,15.500,19.000,27.500,28.000
1.836,18.500,18.000,27.000,28.500
1.837,22.000,17.000,27.500,30.000
1.838,26.000,15.500,29.000,32.000
1.839,30.500,14.000,30.000,35.000
1.840,34.000,12.500,31.500,38.500
1.841,38.000,11.500,33.000,41.500
1.842,41.000,11.000,35.000,44.500
1.843,43.000,11.500,36.500,47.000
1.844,44.500,12.000,37.500,48.500
1.845,44.000,13.000,38.500,49.500
1.846,42.500,14.500,39.000,49.000
1.847,39.500,16.500,39.000,47.500
1.848,35.500,18.500,39.000,45.000
1.849,31.000,21.000,38.500,42.500
1.850,27.500,23.000,38.000,39.500
1.851,24.000,25.000,37.500,37.000
1.852,22.000,26.000,36.500,34.500
1.853,21.000,27.000,36.000,32.500
1.854,21.500,26.500,35.000,31.500
1.855,22.500,26.000,34.500,31.000
1.856,25.000,24.500,34.500,31.500
1.857,28.500,23.000,34.500,32.500
1.858,32.500,21.500,34.500,34.000
1.859,37.000,19.500,35.000,36.500
1.860,41.000,18.000,36.000,39.000
1.861,44.500,17.000,36.500,41.500
1.862,46.500,16.000,37.500,44.000
1.863,47.000,16.000,39.000,46.000
1.864,45.500,16.500,39.500,47.000
1.865,42.500,17.500,40.500,47.500
1.866,38.500,19.500,40.500,47.500
1.867,33.000,21.000,41.000,46.000
1.868,27.500,23.500,41.000,44.500
1.869,21.500,25.500,40.500,42.000
1.870,15.500,27.000,40.000,39.500
1.871,10.500,28.000,39.000,36.500
1.872,7.000,29.000,38.000,34.000
1.873,4.500,29.000,37.000,32.000
1.874,4.500,28.500,36.000,30.500
1.875,6.000,27.500,35.500,29.500
1.876,9.000,26.500,35.500,30.000
1.877,14.000,25.000,35.500,31.500
1.878,19.000,23.000,36.000,33.500
1.879,24.500,21.500,36.500,36.500
1.880,29.000,19.500,37.500,39.500
1.881,32.500,18.500,38.500,42.500
1.882,34.500,18.000,39.500,45.500
1.883,34.500,18.000,40.500,47.500
1.884,33.000,18.500,41.500,49.000
1.885,30.000,20.000,42.500,50.000
1.886,26.000,21.500,43.000,49.500
1.887,21.500,24.000,43.500,48.500
1.888,16.000,26.500,44.000,46.500
1.889,11.000,29.000,44.000,44.000
1.890,6.000,31.000,44.000,41.500
1.891,2.500,33.000,43.500,39.000
1.892,-0.500,34.500,43.000,37.000
1.893,-2.000,35.000,42.500,35.000
1.894,-2.500,35.000,42.000,34.000
1.895,-1.000,34.500,41.500,33.500
1.896,2.000,33.500,41.500,34.000
1.897,5.500,32.000,41.500,35.500
1.898,9.500,30.000,42.000,38.000
1.899,14.000,28.500,42.500,41.000
1.900,18.000,27.000,43.500,44.000
1.901,21.500,25.500,44.500,47.000
1.902,23.500,25.000,45.500,49.500
1.903,24.000,24.500,46.500,51.000
1.904,22.500,24.500,47.000,52.000
1.905,20.000,25.000,47.500,52.500
1.906,15.500,26.000,48.000,52.000
1.907,10.500,27.500,47.500,50.500
1.908,5.000,29.000,47.500,48.500
1.909,-0.500,31.000,47.000,46.000
1.910,-5.500,32.500,46.500,43.000
1.911,-8.500,34.000,45.500,40.500
1.912,-10.500,35.000,45.000,38.000
1.913,-11.000,35.500,44.500,36.000
1.914,-10.000,35.500,44.000,34.500
1.915,-7.000,35.000,43.500,34.000
1.916,-3.000,33.500,43.000,34.000
1.917,2.000,32.000,42.500,35.500
1.918,7.000,29.500,42.500,37.000
1.919,12.500,27.500,42.500,39.500
1.920,17.000,25.500,43.000,42.500
1.921,21.000,24.000,44.000,45.000
1.922,23.500,23.000,44.500,47.500
1.923,25.000,22.500,45.500,49.000
1.924,24.500,23.000,46.000,50.000
1.925,22.500,24.000,46.500,50.000
1.926,19.000,25.000,47.000,49.500
1.927,14.000,26.500,46.500,48.000
1.928,8.500,28.500,46.500,46.000
1.929,3.000,30.000,45.500,43.000
1.930,-2.000,32.000,45.000,40.000
1.931,-6.000,33.500,44.000,37.000
1.932,-9.000,34.500,43.000,34.500
1.933,-10.500,35.000,42.000,32.000
1.934,-10.500,35.000,41.000,30.500
1.935,-9.500,34.000,40.000,30.000
1.936,-7.500,32.500,39.500,30.000
1.937,-4.500,30.500,39.000,31.000
1.938,-1.000,28.000,39.000,33.000
1.939,3.000,26.000,39.000,35.000
1.940,6.500,23.500,39.000,37.500
1.941,10.000,21.500,39.500,39.500
1.942,12.500,19.500,40.000,41.500
1.943,13.500,18.500,41.000,42.500
1.944,14.000,18.000,41.500,43.500
1.945,13.000,18.500,42.500,43.500
1.946,11.000,19.000,43.500,42.500
1.947,8.500,20.000,44.500,40.500
1.948,4.500,21.500,44.500,38.000
1.949,0.500,23.000,44.000,35.500
1.950,-3.000,24.000,42.000,33.000
1.951,-6.000,25.000,39.000,30.000
1.952,-7.500,25.500,36.000,28.000
1.953,-8.000,25.500,34.000,26.000
1.954,-8.000,25.500,33.000,25.000
1.955,-6.500,25.000,33.000,25.000
1.956,-4.000,24.000,33.500,26.000
1.957,0.000,23.000,34.500,27.500
1.958,4.500,21.500,35.500,30.000
1.959,9.500,20.000,37.000,33.000
1.960,14.500,18.000,38.000,36.000
1.961,19.500,16.500,39.500,39.000
1.962,23.000,15.500,41.000,41.500
1.963,25.500,14.500,42.000,44.000
1.964,27.000,14.500,42.500,45.000
1.965,27.000,14.500,43.000,45.000
1.966,26.000,15.500,42.500,44.000
1.967,24.000,16.500,42.000,42.500
1.968,22.000,17.500,41.000,39.500
1.969,19.000,18.500,40.000,36.500
1.970,16.000,20.000,38.500,33.000
1.971,13.000,21.000,37.000,30.000
1.972,11.000,21.500,36.000,27.500
1.973,9.500,22.000,35.000,25.000
1.974,9.000,21.500,34.500,24.000
1.975,9.500,20.500,34.000,23.500
1.976,12.000,19.500,34.000,24.000
1.977,15.000,18.000,34.500,26.000
1.978,19.500,16.000,35.500,28.500
1.979,24.000,14.500,37.000,31.500
1.980,28.500,13.000,38.000,35.000
1.981,32.000,11.500,39.500,38.000
1.982,34.500,11.000,40.500,40.500
1.983,36.000,10.500,42.000,43.000
1.984,35.500,11.000,43.000,44.000
1.985,34.000,12.000,43.500,44.500
1.986,31.000,13.500,44.000,44.000
1.987,27.500,15.500,44.500,43.000
1.988,23.000,18.000,44.500,41.000
1.989,19.000,20.500,44.500,38.500
1.990,15.000,23.000,44.500,36.000
1.991,12.000,25.000,44.000,33.500
1.992,10.000,26.500,44.000,31.500
1.993,9.000,27.000,43.500,30.000
1.994,9.500,27.500,42.500,28.500
1.995,12.000,27.000,42.000,28.500
1.996,15.500,26.000,41.500,28.500
1.997,20.000,24.500,41.500,30.000
1.998,25.500,23.000,41.500,31.500
1.999,30.500,21.500,42.000,34.000
2.000,35.500,19.500,42.500,36.500
2.001,39.500,18.500,43.500,39.000
2.002,42.500,18.000,44.500,41.000
2.003,44.000,18.000,45.500,43.500
2.004,44.500,19.000,47.000,45.000
2.005,43.000,20.500,48.000,46.000
2.006,40.500,22.500,49.000,46.000
2.007,36.500,25.000,49.500,45.000
2.008,31.500,27.500,50.000,43.000
2.009,26.500,30.000,50.000,40.500
2.010,21.500,32.000,49.500,37.500
2.011,17.000,34.000,48.500,35.000
2.012,14.000,35.000,47.500,32.000
2.013,12.500,35.500,46.500,29.500
2.014,12.000,35.500,45.500,27.500
2.015,13.000,34.500,44.500,26.000
2.016,15.000,33.500,44.000,25.500
2.017,18.000,32.000,43.500,26.500
2.018,21.000,30.000,43.500,28.000
2.019,24.000,28.000,43.500,30.000
2.020,26.500,26.000,44.000,32.500
2.021,28.000,24.500,45.000,35.000
2.022,28.500,23.500,45.500,37.500
2.023,28.500,23.000,46.500,39.000
2.024,27.000,23.000,47.500,40.500
2.025,25.000,24.000,48.000,40.500
2.026,21.500,25.500,48.500,40.000
2.027,17.500,27.500,49.000,38.000
2.028,12.500,30.000,49.000,35.500
2.029,7.500,33.000,49.000,32.500
2.030,2.500,35.500,48.500,29.500
2.031,-1.500,37.500,48.000,26.500
2.032,-4.500,39.000,47.500,23.500
2.033,-6.000,40.000,47.000,21.500
2.034,-6.000,40.500,46.500,20.000
2.035,-4.500,40.000,46.000,19.500
2.036,-1.500,39.000,46.000,19.500
2.037,2.500,37.500,46.000,21.000
2.038,7.000,35.500,46.000,22.500
2.039,11.500,33.500,47.000,25.000
2.040,15.500,31.500,47.500,27.500
2.041,18.000,30.000,48.000,30.000
2.042,20.000,29.000,48.500,32.000
2.043,20.000,28.500,49.000,34.000
2.044,18.500,28.500,49.500,35.000
2.045,16.000,29.000,49.500,35.000
2.046,12.000,30.000,49.000,34.500
2.047,6.500,32.000,48.500,33.000
2.048,1.000,34.000,48.000,31.000
2.049,-5.500,36.000,47.000,29.000
2.050,-11.000,38.000,46.500,26.500
2.051,-15.500,39.000,45.500,24.000
2.052,-19.000,40.000,44.500,21.500
2.053,-20.500,40.000,43.500,19.500
2.054,-20.500,40.000,43.000,18.000
2.055,-19.000,39.000,43.000,17.500
2.056,-16.000,38.000,44.000,18.000
2.057,-12.000,36.500,45.000,19.500
2.058,-7.000,35.000,47.000,22.000
2.059,-2.000,34.000,48.000,25.000
2.060,3.500,32.500,48.500,29.000
2.061,8.000,31.500,48.000,33.000
2.062,12.000,31.000,47.500,36.500
2.063,14.000,30.500,47.000,39.500
2.064,14.500,31.000,48.000,41.000
2.065,13.500,32.000,49.000,42.000
2.066,11.000,33.500,50.500,41.500
2.067,7.500,35.500,51.500,40.500
2.068,4.000,38.000,52.000,38.500
2.069,0.500,40.500,52.000,36.000
2.070,-3.000,42.500,52.000,33.500
2.071,-5.000,44.500,51.500,30.500
2.072,-6.500,45.500,50.500,27.500
2.073,-7.000,45.500,50.000,25.000
2.074,-6.000,45.500,49.000,23.500
2.075,-3.500,44.500,48.500,22.500
2.076,0.500,43.500,48.500,23.000
2.077,5.500,41.500,49.000,24.000
2.078,12.000,40.000,49.500,26.500
2.079,18.000,38.000,50.500,29.000
2.080,24.000,36.000,51.500,32.000
2.081,29.000,34.500,52.500,35.000
2.082,32.500,33.000,53.500,37.500
2.083,34.500,32.000,54.000,39.500
2.084,35.000,32.000,54.500,41.000
2.085,34.000,32.000,54.500,41.500
2.086,32.000,32.500,54.500,41.000
2.087,29.500,33.500,54.000,40.000
2.088,26.500,34.500,53.500,38.500
2.089,24.000,36.000,53.000,36.500
2.090,21.000,37.000,52.000,34.000
2.091,18.500,38.000,50.500,32.000
2.092,17.500,38.500,49.500,30.500
2.093,17.000,39.000,49.000,29.500
2.094,18.500,38.500,48.000,29.500
2.095,21.500,37.500,47.500,30.500
2.096,26.000,36.500,47.000,32.500
2.097,31.000,34.500,47.000,36.000
2.098,36.500,32.000,47.500,40.000
2.099,42.000,29.500,48.000,44.500
2.100,47.000,27.000,48.500,49.500
2.101,51.000,24.500,49.500,55.000
2.102,54.500,22.500,50.500,60.000
2.103,56.500,21.000,51.500,65.000
2.104,58.000,20.000,52.500,69.500
2.105,58.000,20.000,53.000,73.000
2.106,57.000,21.000,54.000,76.000
2.107,54.500,22.000,54.500,78.000
2.108,51.000,23.000,55.000,79.500
2.109,47.500,24.000,55.000,80.000
2.110,44.000,25.000,54.500,80.500
2.111,41.000,26.000,54.500,80.000
2.112,38.500,26.500,54.000,79.500
2.113,37.500,26.500,53.500,78.500
2.114,37.000,26.000,53.500,76.500
2.115,37.500,25.500,53.500,74.500
2.116,39.500,25.000,53.500,72.500
2.117,42.000,24.500,54.500,71.000
2.118,45.000,24.000,56.000,69.000
2.119,48.500,23.500,57.500,67.500
2.120,51.500,23.500,59.500,65.500
2.121,54.000,24.000,61.500,63.500
2.122,55.000,25.000,63.000,60.500
2.123,55.500,26.500,64.500,57.500
2.124,55.000,28.500,66.000,54.000
2.125,53.500,30.500,67.000,50.500
2.126,51.000,33.000,68.000,47.000
2.127,48.000,36.000,68.500,43.500
2.128,44.500,39.500,68.500,39.500
2.129,40.500,42.500,68.500,36.000
2.130,37.000,45.500,68.500,32.500
2.131,34.000,48.000,67.500,29.500
2.132,31.500,49.500,67.000,26.500
2.133,30.500,50.500,66.000,24.000
2.134,30.000,51.000,65.000,22.500
2.135,31.000,50.500,64.000,21.500
2.136,32.500,49.500,63.000,21.500
2.137,35.000,48.000,62.500,22.500
2.138,38.500,46.500,62.500,24.000
2.139,42.000,45.000,63.000,26.500
2.140,46.000,43.500,64.000,29.500
2.141,49.000,42.500,65.000,33.000
2.142,51.500,41.500,66.000,36.000
2.143,53.000,41.000,67.000,38.500
2.144,53.000,41.500,67.500,41.000
2.145,51.000,42.500,68.000,42.500
2.146,48.500,44.000,68.000,42.500
2.147,44.500,46.000,68.000,42.000
2.148,39.500,48.000,67.500,41.000
2.149,35.000,50.000,66.500,39.000
2.150,31.000,52.000,65.500,36.500
2.151,27.000,53.500,64.500,34.000
2.152,24.500,55.000,63.500,32.000
2.153,23.500,55.500,62.500,30.000
2.154,23.000,55.500,61.500,28.500
2.155,24.500,55.000,61.000,28.000
2.156,27.000,54.000,60.500,28.500
2.157,30.500,52.500,61.000,29.500
2.158,35.500,51.000,61.500,32.000
2.159,41.000,49.500,62.000,34.500
2.160,46.000,48.000,63.000,37.500
2.161,50.500,47.000,64.000,40.500
2.162,53.500,46.000,65.000,43.500
2.163,55.500,45.500,66.000,45.500
2.164,55.500,46.000,67.000,47.000
2.165,54.000,46.500,67.500,47.500
2.166,51.500,48.000,68.000,47.500
2.167,47.000,49.500,68.000,46.000
2.168,41.500,51.500,67.500,44.500
2.169,36.000,53.500,66.500,42.000
2.170,31.000,55.000,65.500,39.000
2.171,27.500,56.500,64.500,36.500
2.172,25.500,57.500,63.000,34.000
2.173,25.000,58.000,62.000,31.500
2.174,26.000,57.500,60.500,30.000
2.175,27.500,57.000,59.500,29.500
2.176,30.500,56.000,59.000,30.000
2.177,34.500,54.500,59.000,31.500
2.178,39.500,53.000,59.500,34.000
2.179,44.500,51.500,60.000,36.500
2.180,50.000,50.500,61.000,39.500
2.181,54.000,49.000,62.500,42.500
2.182,57.500,48.500,64.000,45.000
2.183,60.000,48.000,65.000,46.500
2.184,60.500,48.000,66.000,48.000
2.185,60.500,49.000,67.000,48.000
2.186,59.000,49.500,67.500,47.000
2.187,56.500,51.000,68.000,45.500
2.188,53.000,52.500,68.000,43.000
2.189,49.500,54.000,68.500,39.500
2.190,45.500,55.500,69.000,36.500
2.191,42.000,57.000,68.500,33.000
2.192,40.000,58.000,68.000,30.500
2.193,39.000,58.500,65.500,28.000
2.194,39.500,58.500,62.500,27.000
2.195,41.500,57.500,59.000,26.500
2.196,44.500,55.000,56.500,27.000
2.197,49.000,52.500,55.000,28.500
2.198,54.500,49.000,54.000,30.500
2.199,60.500,45.500,54.000,33.000
2.200,67.000,42.500,54.000,36.000
2.201,73.000,40.000,54.500,39.500
2.202,77.500,38.000,54.500,43.000
2.203,81.000,36.500,55.000,45.500
2.204,82.500,36.500,55.500,47.500
2.205,81.500,37.000,56.000,48.500
2.206,79.500,38.500,56.500,48.500
2.207,76.000,40.500,57.000,48.000
2.208,71.500,43.000,57.500,46.500
2.209,67.000,45.500,58.000,44.000
2.210,62.500,48.000,58.500,41.500
2.211,59.000,50.500,58.500,38.500
2.212,56.500,52.000,58.500,36.000
2.213,54.500,53.500,58.500,33.500
2.214,54.000,54.500,59.000,32.000
2.215,55.000,54.500,59.000,31.000
2.216,57.000,54.500,59.500,31.000
2.217,60.500,53.000,60.500,32.000
2.218,64.500,51.500,61.000,34.000
2.219,69.000,49.500,61.500,36.500
2.220,73.500,47.500,62.000,39.000
2.221,77.000,45.500,63.000,41.500
2.222,80.000,44.500,64.000,43.500
2.223,81.500,44.000,65.000,45.500
2.224,81.500,44.000,66.000,46.500
2.225,79.500,45.500,67.000,46.500
2.226,76.500,47.000,67.500,45.500
2.227,72.000,49.000,68.000,44.000
2.228,67.000,52.000,68.500,41.500
2.229,62.000,54.500,68.500,39.000
2.230,58.000,57.500,69.000,36.000
2.231,54.500,59.500,68.500,33.500
2.232,52.500,61.500,68.500,31.500
2.233,52.000,62.500,68.000,29.500
2.234,53.500,63.000,68.000,28.000
2.235,56.000,62.500,67.500,27.500
2.236,60.500,61.000,66.500,27.500
2.237,66.000,58.500,66.000,29.000
2.238,72.000,55.500,65.500,31.000
2.239,78.000,52.500,65.500,33.500
2.240,83.500,49.500,65.000,36.500
2.241,88.500,47.000,65.500,40.000
2.242,92.000,45.500,65.500,42.500
2.243,94.000,44.500,66.000,45.000
2.244,94.500,44.000,66.000,46.000
2.245,94.000,45.000,66.500,47.000
2.246,92.000,46.000,67.000,47.000
2.247,89.000,48.000,67.000,46.000
2.248,85.000,50.000,67.000,44.500
2.249,81.000,52.500,67.000,42.500
2.250,77.000,54.500,66.500,40.000
2.251,73.500,56.000,66.000,37.500
2.252,71.500,57.000,65.000,35.500
2.253,70.500,57.000,64.500,33.500
2.254,71.000,56.500,63.500,32.500
2.255,73.000,55.500,62.500,32.500
2.256,76.000,53.500,62.000,33.000
2.257,80.000,51.500,62.000,34.500
2.258,84.500,49.000,62.000,36.500
2.259,90.000,46.500,62.500,39.000
2.260,95.000,44.500,63.500,42.000
2.261,99.500,43.000,65.000,45.000
2.262,102.500,41.500,66.000,48.000
2.263,104.500,41.500,67.500,50.000
2.264,104.500,41.500,68.000,51.500
2.265,103.000,42.000,68.500,52.000
2.266,99.500,43.500,68.500,51.500
2.267,95.000,45.000,68.500,50.500
2.268,90.000,46.500,67.500,48.500
2.269,84.500,48.000,67.000,45.500
2.270,79.000,49.500,65.500,42.500
2.271,75.000,50.500,64.500,39.500
2.272,72.000,51.000,63.000,36.500
2.273,70.500,51.000,62.000,34.500
2.274,70.500,50.500,60.500,33.000
2.275,71.500,50.000,60.000,32.000
2.276,74.000,48.500,59.500,32.500
2.277,78.000,47.000,59.000,34.000
2.278,82.500,45.000,59.500,36.500
2.279,88.000,43.000,60.000,39.000
2.280,93.000,41.000,60.500,42.500
2.281,97.500,40.000,61.500,46.000
2.282,101.000,39.000,62.500,49.000
2.283,103.000,38.500,63.500,51.000
2.284,103.500,39.000,64.500,52.500
2.285,102.000,40.000,65.000,53.500
2.286,99.000,41.500,65.500,53.500
2.287,94.500,43.500,65.500,52.500
2.288,90.000,45.500,65.500,51.000
2.289,85.000,48.000,65.500,49.000
2.290,80.000,50.000,65.000,46.500
2.291,76.000,51.500,64.000,44.000
2.292,72.500,52.000,63.000,41.500
2.293,70.000,52.000,61.500,39.000
2.294,69.000,51.000,59.500,37.500
2.295,68.500,49.500,58.000,36.500
2.296,69.500,47.500,57.000,36.000
2.297,72.000,45.000,56.000,36.500
2.298,75.500,43.000,55.500,38.500
2.299,80.000,40.500,56.000,41.000
2.300,84.000,38.500,56.000,44.000
2.301,87.500,36.500,57.000,47.000
2.302,90.000,34.500,57.500,49.500
2.303,91.000,33.500,58.000,51.500
2.304,90.000,33.000,58.500,53.000
2.305,88.000,32.500,58.500,53.000
2.306,84.500,33.500,58.500,52.500
2.307,80.000,34.500,58.000,51.500
2.308,75.500,35.500,57.500,49.500
2.309,70.500,37.500,56.500,47.000
2.310,66.000,39.000,56.000,44.500
2.311,63.000,40.500,56.000,42.000
2.312,60.500,41.500,56.000,39.500
2.313,59.500,42.500,56.500,37.500
2.314,60.000,42.500,57.000,36.000
2.315,62.000,42.500,57.000,35.000
2.316,65.500,41.500,56.000,35.500
2.317,70.500,39.500,54.500,37.000
2.318,76.000,37.500,52.500,39.500
2.319,82.500,35.500,50.500,42.500
2.320,88.500,33.500,50.000,45.500
2.321,94.000,31.500,51.000,49.000
2.322,97.500,30.500,52.500,52.000
2.323,99.500,30.500,54.000,55.000
2.324,99.500,31.000,55.500,57.000
2.325,98.500,32.500,57.000,58.000
2.326,96.000,34.500,58.000,58.500
2.327,92.000,36.500,59.000,57.500
2.328,87.000,39.000,59.000,56.000
2.329,81.500,41.000,58.500,53.500
2.330,76.000,43.000,57.500,50.500
2.331,71.000,44.500,57.000,48.000
2.332,67.000,45.500,56.000,45.500
2.333,65.000,46.500,55.500,44.000
2.334,64.500,46.500,55.000,43.000
2.335,66.000,46.500,54.500,43.000
2.336,69.500,46.500,54.500,44.000
2.337,74.500,45.500,55.000,46.000
2.338,81.000,44.500,55.500,48.500
2.339,87.500,43.500,56.500,51.500
2.340,93.500,42.500,57.500,55.000
2.341,99.000,41.500,58.500,58.500
2.342,103.000,40.500,59.000,61.000
2.343,105.500,40.500,60.000,63.500
2.344,106.500,40.500,60.500,65.000
2.345,106.000,41.000,60.500,65.000
2.346,104.500,42.500,60.500,64.500
2.347,101.500,44.000,60.000,63.000
2.348,98.500,45.500,59.500,60.500
2.349,95.000,47.500,59.000,58.000
2.350,92.500,49.000,58.000,55.000
2.351,90.500,50.000,57.000,52.000
2.352,89.000,50.500,56.000,49.000
2.353,88.500,51.000,55.000,47.000
2.354,89.000,50.500,54.000,45.000
2.355,89.500,49.000,53.000,44.000
2.356,91.500,47.500,52.000,44.000
2.357,93.500,46.000,51.500,45.000
2.358,96.500,44.000,51.000,47.000
2.359,100.000,42.500,51.500,49.500
2.360,103.500,41.000,51.500,52.000
2.361,106.500,39.500,52.000,55.000
2.362,108.500,39.000,53.000,57.500
2.363,110.000,38.500,53.500,59.500
2.364,109.500,38.500,54.500,60.500
2.365,108.500,39.500,55.000,60.500
2.366,105.500,40.500,55.500,59.500
2.367,102.000,42.000,55.500,58.000
2.368,97.500,43.500,55.500,55.000
2.369,92.500,45.500,54.500,52.000
2.370,88.000,47.000,54.000,49.000
2.371,84.000,49.000,53.000,46.000
2.372,81.500,50.000,52.500,43.000
2.373,80.000,51.000,51.500,40.500
2.374,80.500,51.500,51.000,39.000
2.375,82.000,51.000,50.000,38.000
2.376,85.000,50.000,49.500,38.000
2.377,88.500,48.500,49.000,38.500
2.378,93.000,46.500,49.000,40.000
2.379,97.000,44.500,49.500,42.500
2.380,100.500,42.500,50.000,45.000
2.381,103.500,40.500,51.000,47.500
2.382,105.500,39.500,51.500,50.000
2.383,106.500,38.500,52.500,52.500
2.384,105.500,38.500,53.000,53.500
2.385,103.000,39.000,53.500,54.000
2.386,99.500,40.000,53.500,53.500
2.387,94.500,41.500,53.500,52.500
2.388,88.500,43.500,53.000,50.500
2.389,83.000,46.000,53.000,48.000
2.390,77.500,48.000,52.000,45.000
2.391,72.500,49.500,51.500,42.500
2.392,69.000,51.000,50.500,40.000
2.393,66.500,51.500,49.500,37.500
2.394,65.500,51.500,48.500,36.000
2.395,66.000,51.000,47.500,35.000
2.396,67.500,49.500,47.000,35.000
2.397,70.500,48.000,47.000,36.000
2.398,74.500,46.500,47.000,38.000
2.399,78.500,44.500,48.000,40.500
2.400,83.000,43.500,49.000,43.500
2.401,87.000,42.500,50.000,46.500
2.402,90.000,42.000,51.500,49.000
2.403,91.500,42.000,53.000,51.500
2.404,91.000,42.500,54.000,53.000
2.405,89.000,43.500,54.500,53.500
2.406,85.000,45.000,55.000,53.000
2.407,80.000,46.500,55.000,52.000
2.408,74.500,48.500,54.500,50.000
2.409,68.500,50.500,54.000,47.500
2.410,63.000,52.500,53.000,45.000
2.411,58.000,54.000,52.000,42.000
2.412,53.500,55.500,51.000,39.500
2.413,51.000,56.000,50.000,37.500
2.414,49.500,56.500,49.000,36.000
2.415,50.500,56.000,48.500,35.500
2.416,52.500,55.000,48.000,36.000
2.417,56.500,53.500,48.000,37.500
2.418,60.500,51.500,48.500,39.500
2.419,65.500,49.500,49.000,42.500
2.420,69.500,47.500,49.000,45.000
2.421,72.000,45.500,49.500,47.500
2.422,73.000,43.500,50.000,49.500
2.423,72.000,42.500,50.500,51.000
2.424,69.500,42.000,50.500,52.000
2.425,65.500,42.000,51.000,51.500
2.426,61.000,42.500,51.000,51.000
2.427,56.000,44.000,51.000,49.500
2.428,51.000,45.500,51.500,48.000
2.429,46.000,47.500,52.000,45.500
2.430,41.000,49.500,52.500,43.000
2.431,36.500,51.500,53.500,40.500
2.432,33.500,53.000,53.500,38.500
2.433,31.500,54.000,53.000,37.000
2.434,31.500,54.500,51.500,36.000
2.435,33.000,54.500,49.500,36.500
2.436,35.500,54.000,48.000,37.500
2.437,38.000,53.000,47.500,39.500
2.438,41.500,51.500,48.000,41.500
2.439,44.500,49.500,49.000,44.000
2.440,47.500,47.500,50.000,46.500
2.441,50.000,46.000,51.000,49.000
2.442,51.000,44.500,52.000,50.500
2.443,50.500,43.500,52.500,52.000
2.444,49.000,42.500,52.500,52.500
2.445,45.500,43.000,52.500,52.000
2.446,41.000,43.500,52.500,51.000
2.447,36.000,45.000,52.000,49.500
2.448,30.500,46.500,51.500,47.500
2.449,25.000,49.000,51.000,45.000
2.450,20.500,51.000,50.500,42.500
2.451,16.500,53.000,49.500,40.000
2.452,14.000,55.000,49.000,38.000
2.453,12.000,56.500,48.500,36.500
2.454,11.500,57.000,48.500,35.500
2.455,12.500,57.500,48.000,35.000
2.456,14.500,57.000,48.000,36.000
2.457,18.000,56.000,48.500,37.500
2.458,21.500,54.500,49.500,40.000
2.459,26.000,52.500,50.500,43.000
2.460,30.000,51.500,51.500,46.000
2.461,32.500,50.000,52.500,49.500
2.462,34.500,49.000,53.500,52.000
2.463,34.000,48.500,54.000,54.000
2.464,32.000,48.500,54.500,55.500
2.465,28.500,49.000,54.500,55.500
2.466,23.500,50.000,54.500,55.000
2.467,18.000,51.000,53.500,53.500
2.468,11.500,52.500,52.500,51.000
2.469,5.500,54.000,51.500,48.000
2.470,0.000,56.000,50.500,45.000
2.471,-5.000,57.500,49.500,42.000
2.472,-8.000,58.500,48.000,39.500
2.473,-10.000,58.500,46.500,37.000
2.474,-10.000,58.500,45.500,36.000
2.475,-8.500,57.500,44.500,35.000
2.476,-5.500,56.500,44.000,35.500
2.477,-1.500,54.500,44.000,37.000
2.478,4.000,52.500,44.000,39.000
2.479,9.500,50.500,44.500,41.500
2.480,15.000,49.000,45.500,44.500
2.481,19.000,47.000,46.000,47.500
2.482,22.500,46.000,47.000,50.000
2.483,24.500,45.500,47.500,52.000
2.484,24.500,45.500,48.000,54.000
2.485,23.500,46.000,48.500,54.500
2.486,21.000,47.500,49.000,54.500
2.487,17.500,49.500,49.000,53.500
2.488,13.000,51.500,48.500,52.000
2.489,8.500,54.000,48.500,50.500
2.490,4.000,56.500,48.000,48.500
2.491,0.500,58.500,48.000,46.500
2.492,-2.000,60.500,47.500,45.000
2.493,-3.000,61.500,47.500,43.500
2.494,-3.000,62.000,47.000,43.000
2.495,-1.500,61.500,47.000,43.000
2.496,1.000,60.500,47.000,43.500
2.497,4.500,59.000,47.000,45.000
2.498,8.500,57.000,47.500,47.500
2.499,12.000,55.500,48.000,50.500
2.500,15.000,54.000,49.000,53.500
2.501,17.000,52.500,50.500,57.000
2.502,18.000,51.500,51.500,60.000
2.503,17.000,51.500,53.000,62.500
2.504,15.000,51.500,54.000,64.500
2.505,12.000,52.500,55.000,65.500
2.506,8.000,54.000,55.500,66.000
2.507,3.500,56.000,55.500,65.000
2.508,-1.000,58.000,55.500,63.500
2.509,-6.000,60.500,54.500,60.500
2.510,-11.000,62.000,53.500,57.500
2.511,-15.000,63.500,52.500,54.500
2.512,-18.500,64.500,51.500,52.000
2.513,-20.500,65.000,50.500,49.500
2.514,-21.000,65.000,49.500,48.000
2.515,-20.000,64.500,48.500,47.000
2.516,-18.000,63.500,48.000,47.000
2.517,-15.000,61.500,47.500,47.500
2.518,-11.500,59.500,47.500,49.000
2.519,-8.000,57.000,47.500,51.000
2.520,-4.500,55.000,48.000,53.500
2.521,-1.500,53.000,48.500,56.000
2.522,1.000,51.500,49.500,58.000
2.523,2.000,51.000,50.500,60.000
2.524,2.000,51.000,51.500,61.500
2.525,0.000,51.500,52.000,62.000
2.526,-3.000,52.500,52.000,62.000
2.527,-7.500,54.500,52.000,61.000
2.528,-13.000,56.000,52.000,59.000
2.529,-18.500,58.000,52.000,56.500
2.530,-23.500,60.000,52.000,53.500
2.531,-27.500,61.500,52.500,50.500
2.532,-30.000,63.000,53.000,48.000
2.533,-31.500,64.000,53.000,46.000
2.534,-31.000,64.500,53.000,45.000
2.535,-29.000,64.000,51.500,44.500
2.536,-25.500,63.500,49.000,45.500
2.537,-21.000,61.500,47.000,47.000
2.538,-15.500,59.500,46.000,49.000
2.539,-10.500,57.000,45.500,51.500
2.540,-5.500,55.000,46.500,54.000
2.541,-1.500,53.000,47.500,56.500
2.542,1.500,51.500,48.500,59.000
2.543,3.000,51.000,50.000,61.500
2.544,3.000,51.000,51.000,63.000
2.545,1.500,52.000,51.500,64.500
2.546,-1.500,53.000,52.000,64.500
2.547,-5.000,54.500,52.000,64.000
2.548,-9.500,56.000,52.000,62.000
2.549,-14.000,57.500,51.000,59.500
2.550,-18.000,59.000,50.500,56.500
2.551,-21.000,60.000,49.500,53.500
2.552,-22.500,61.000,48.500,50.500
2.553,-23.000,61.000,47.000,48.000
2.554,-22.500,60.500,46.000,46.500
2.555,-20.500,59.500,45.000,45.500
2.556,-17.000,57.500,44.500,45.500
2.557,-13.000,55.500,44.000,46.000
2.558,-8.000,53.000,44.000,47.500
2.559,-3.500,50.500,44.500,49.500
2.560,1.000,48.000,45.000,52.500
2.561,4.500,46.000,46.000,55.000
2.562,6.500,44.500,46.500,57.000
2.563,7.500,43.500,47.500,59.000
2.564,7.000,43.500,48.000,60.500
2.565,6.000,44.000,48.500,61.000
2.566,3.500,45.500,49.000,61.000
2.567,0.000,47.500,49.500,60.500
2.568,-4.000,49.500,49.000,59.000
2.569,-8.000,51.500,48.500,56.500
2.570,-12.000,53.500,48.000,54.000
2.571,-14.500,55.500,47.000,51.000
2.572,-16.000,57.000,46.500,48.500
2.573,-16.000,58.000,45.500,46.500
2.574,-15.000,58.000,45.000,45.000
2.575,-13.000,57.500,44.500,44.500
2.576,-10.500,56.500,44.500,44.500
2.577,-7.000,54.500,44.500,45.500
2.578,-3.500,52.000,44.500,47.500
2.579,0.500,50.000,45.000,49.500
2.580,4.000,47.500,46.000,52.000
2.581,7.000,46.000,47.000,55.000
2.582,8.500,45.000,48.000,57.500
2.583,9.500,44.500,49.000,59.500
2.584,8.500,44.500,49.500,61.000
2.585,6.500,45.500,50.500,61.500
2.586,3.000,47.000,50.500,61.500
2.587,-2.000,48.500,50.500,60.500
2.588,-7.500,50.000,50.500,58.500
2.589,-13.000,52.000,50.000,55.500
2.590,-18.500,53.500,49.000,52.500
2.591,-23.000,54.500,48.000,49.500
2.592,-27.000,55.000,47.000,46.500
2.593,-29.000,55.000,45.500,44.000
2.594,-30.000,54.500,44.500,42.000
2.595,-29.500,53.000,43.500,41.000
2.596,-27.500,51.500,43.000,41.000
2.597,-24.000,49.500,42.500,41.500
2.598,-20.000,47.500,43.000,43.000
2.599,-15.500,45.000,43.000,45.500
2.600,-11.000,43.000,44.000,48.000
2.601,-6.500,41.000,45.000,50.500
2.602,-3.500,39.500,46.000,53.000
2.603,-1.500,38.500,47.000,55.500
2.604,-1.000,38.500,48.500,57.000
2.605,-2.000,39.000,49.500,57.500
2.606,-4.000,40.000,50.000,57.500
2.607,-7.000,41.500,50.500,56.000
2.608,-11.500,43.000,50.500,54.000
2.609,-16.000,45.000,50.000,51.500
2.610,-20.500,47.000,49.500,48.500
2.611,-24.000,49.000,49.000,45.500
2.612,-27.500,51.000,48.000,43.000
2.613,-29.500,52.000,47.500,41.000
2.614,-30.000,52.500,47.000,39.500
2.615,-28.500,52.000,46.500,38.500
2.616,-26.000,51.000,46.500,39.000
2.617,-22.500,50.000,47.000,40.000
2.618,-18.000,48.000,47.500,42.000
2.619,-13.500,46.000,48.500,44.500
2.620,-9.000,44.500,50.000,47.000
2.621,-5.000,43.000,51.000,50.000
2.622,-2.500,42.000,52.000,52.500
2.623,-1.000,41.500,53.500,54.500
2.624,-0.500,41.500,54.500,56.000
2.625,-2.000,42.000,55.000,56.000
2.626,-4.000,43.000,55.500,55.500
2.627,-7.500,44.500,55.500,54.500
2.628,-11.500,46.500,55.500,52.500
2.629,-15.500,48.500,55.000,49.500
2.630,-19.000,50.500,54.000,47.000
2.631,-22.500,52.000,53.000,44.000
2.632,-25.000,52.500,52.000,41.500
2.633,-27.000,53.000,51.000,39.000
2.634,-27.500,52.500,50.500,37.500
2.635,-27.000,52.000,49.500,36.500
2.636,-25.000,50.500,49.000,36.500
2.637,-22.000,48.500,49.000,37.500
2.638,-18.500,46.500,49.500,39.000
2.639,-14.000,44.000,51.000,41.000
2.640,-10.000,42.000,52.500,43.000
2.641,-6.000,40.000,54.000,45.500
2.642,-3.000,38.500,55.000,47.500
2.643,0.000,37.500,55.000,49.500
2.644,2.000,37.000,54.000,50.500
2.645,2.500,37.000,51.500,51.000
2.646,2.000,37.000,49.500,50.000
2.647,-0.500,38.000,48.000,48.500
2.648,-3.000,39.000,46.500,46.000
2.649,-6.000,40.000,45.500,43.000
2.650,-8.500,41.000,44.000,40.500
2.651,-10.500,41.500,42.000,37.500
2.652,-11.500,41.000,40.500,35.500
2.653,-11.500,40.500,38.500,33.500
2.654,-10.500,39.000,36.000,32.500
2.655,-9.000,37.000,34.500,32.000
2.656,-6.500,34.500,33.000,32.500
2.657,-3.500,32.000,32.500,33.500
2.658,-0.500,29.500,32.500,35.500
2.659,3.000,27.500,33.500,38.000
2.660,6.500,25.500,34.500,41.000
2.661,9.000,24.000,35.500,43.500
2.662,11.000,22.500,37.000,46.500
2.663,11.500,22.000,38.000,48.000
2.664,10.500,22.500,39.500,49.500
2.665,8.000,23.500,40.500,49.500
2.666,4.000,25.500,42.000,49.000
2.667,0.000,28.000,43.000,48.000
2.668,-4.500,31.000,44.500,46.500
2.669,-9.000,34.000,45.000,44.500
2.670,-12.500,36.500,45.500,42.500
2.671,-15.500,38.000,45.000,40.500
2.672,-17.500,39.000,44.500,38.000
2.673,-18.500,39.000,43.500,36.500
2.674,-18.500,39.000,43.000,35.000
2.675,-17.500,38.000,42.000,34.000
2.676,-15.000,37.000,42.000,34.000
2.677,-12.000,35.500,42.500,35.000
2.678,-8.500,34.500,43.500,36.500
2.679,-5.000,33.000,44.500,38.500
2.680,-1.500,31.500,46.000,40.500
2.681,1.000,30.500,47.500,43.000
2.682,2.500,30.000,49.000,45.500
2.683,2.500,29.500,51.000,47.500
2.684,1.500,30.500,52.500,48.500
2.685,-0.500,31.500,53.500,49.000
2.686,-4.000,33.500,54.500,48.500
2.687,-8.000,35.500,55.000,47.500
2.688,-13.000,37.500,55.000,46.000
2.689,-17.500,39.000,54.000,44.000
2.690,-22.000,40.500,53.000,41.500
2.691,-25.500,41.000,51.500,39.500
2.692,-28.500,41.500,50.000,37.000
2.693,-30.000,41.500,49.000,35.500
2.694,-30.500,41.500,48.000,34.500
2.695,-29.500,40.500,48.000,34.000
2.696,-27.500,39.500,48.000,35.000
2.697,-24.500,38.000,48.000,36.000
2.698,-20.000,35.500,48.500,38.500
2.699,-15.500,33.500,49.000,41.000
2.700,-11.500,31.000,49.500,44.000
2.701,-8.500,29.000,50.000,47.000
2.702,-6.500,27.500,50.500,49.500
2.703,-5.500,26.500,51.500,51.500
2.704,-7.000,26.500,52.500,53.500
2.705,-9.500,27.000,53.000,54.000
2.706,-14.000,28.500,53.500,54.500
2.707,-18.500,30.500,54.000,54.000
2.708,-23.500,33.000,54.500,52.500
2.709,-28.000,35.500,54.500,51.000
2.710,-32.000,38.000,54.500,48.500
2.711,-35.500,40.000,53.500,46.000
2.712,-38.000,41.500,53.000,43.500
2.713,-39.500,42.000,52.000,41.500
2.714,-39.500,41.500,50.500,39.500
2.715,-38.500,41.000,50.000,38.500
2.716,-35.500,39.000,49.500,39.000
2.717,-31.500,37.000,49.000,40.000
2.718,-26.500,35.000,49.000,42.000
2.719,-21.500,32.000,49.500,44.500
2.720,-16.500,30.000,50.500,47.500
2.721,-12.500,28.000,51.500,50.000
2.722,-9.500,26.500,52.500,52.500
2.723,-7.500,26.000,53.500,55.000
2.724,-7.500,26.000,54.000,56.000
2.725,-8.500,26.500,55.000,56.500
2.726,-10.500,28.000,55.500,56.500
2.727,-13.000,29.500,56.000,55.500
2.728,-16.000,31.500,56.500,53.500
2.729,-20.000,33.500,56.500,51.500
2.730,-24.000,35.500,56.000,48.500
2.731,-28.000,37.500,56.000,45.500
2.732,-32.000,39.000,55.500,43.000
2.733,-35.500,40.000,55.500,41.000
2.734,-37.000,40.500,55.000,39.500
2.735,-37.500,40.000,55.500,39.000
2.736,-36.500,39.500,55.500,39.500
2.737,-33.500,38.500,56.500,41.500
2.738,-29.500,37.000,57.000,43.500
2.739,-25.000,35.500,58.000,46.500
2.740,-20.500,34.000,59.500,49.500
2.741,-16.500,32.500,60.500,52.500
2.742,-13.500,32.000,61.500,55.500
2.743,-12.000,31.500,63.000,57.500
2.744,-11.500,32.000,64.500,59.500
2.745,-12.500,33.000,66.000,60.500
2.746,-15.000,34.500,68.000,60.500
2.747,-19.000,36.500,69.500,60.000
2.748,-24.000,39.000,71.000,58.000
2.749,-28.500,41.500,71.000,56.000
2.750,-33.000,44.000,70.000,54.000
2.751,-36.000,45.500,68.000,52.000
2.752,-37.500,47.000,65.000,50.500
2.753,-38.000,47.500,63.000,49.500
2.754,-37.500,47.000,62.000,48.000
2.755,-36.000,46.000,61.500,47.500
2.756,-33.500,44.500,61.500,48.000
2.757,-30.000,42.500,61.500,49.000
2.758,-26.000,40.500,62.500,50.500
2.759,-22.000,38.000,63.000,53.500
2.760,-18.500,36.500,64.000,56.500
2.761,-16.000,35.000,65.000,59.500
2.762,-14.500,34.000,65.500,62.500
2.763,-14.000,33.500,66.500,64.500
2.764,-15.500,33.500,67.000,66.000
2.765,-18.000,34.500,67.500,66.500
2.766,-22.000,35.500,67.500,66.000
2.767,-26.500,37.000,68.000,64.500
2.768,-32.000,39.000,67.500,62.500
2.769,-38.000,41.000,67.000,60.000
2.770,-43.000,43.000,66.500,57.000
2.771,-47.000,44.500,66.000,54.500
2.772,-50.000,46.000,65.500,52.000
2.773,-51.500,46.500,65.000,50.500
2.774,-51.500,46.500,64.000,49.000
2.775,-49.500,45.500,63.000,48.000
2.776,-46.500,44.000,62.500,48.000
2.777,-41.500,41.500,62.000,49.000
2.778,-36.000,39.000,61.500,50.000
2.779,-30.500,36.500,61.500,52.000
2.780,-25.000,34.000,62.000,55.000
2.781,-20.000,32.000,62.500,57.500
2.782,-16.500,30.500,63.000,60.000
2.783,-14.500,29.500,64.000,62.500
2.784,-14.000,29.500,65.000,65.000
2.785,-14.500,30.000,66.000,66.000
2.786,-16.500,31.500,66.500,66.500
2.787,-19.500,34.000,67.000,66.000
2.788,-22.500,36.500,67.000,65.000
2.789,-25.500,39.500,67.000,63.000
2.790,-29.000,42.000,67.000,61.000
2.791,-31.000,44.500,67.000,59.500
2.792,-32.000,47.000,66.500,58.000
2.793,-31.500,48.500,66.500,57.500
2.794,-29.500,49.000,66.000,57.000
2.795,-26.000,49.000,66.000,57.500
2.796,-21.000,48.000,66.000,59.000
2.797,-15.000,46.500,66.500,61.000
2.798,-8.000,44.500,67.000,64.000
2.799,-1.500,42.000,67.500,67.500
2.800,5.500,40.000,68.500,71.000
2.801,11.500,38.000,69.500,75.000
2.802,16.000,36.500,71.000,78.500
2.803,19.000,35.500,72.000,81.500
2.804,20.500,35.500,73.000,84.000
2.805,21.000,36.000,74.000,86.500
2.806,20.000,37.000,74.500,88.000
2.807,18.000,38.500,75.000,88.500
2.808,15.500,40.500,75.000,89.000
2.809,12.500,42.000,74.500,88.500
2.810,10.000,44.000,74.000,88.000
2.811,7.500,45.000,73.500,88.000
2.812,6.000,46.000,73.000,88.000
2.813,5.500,46.000,72.500,89.000
2.814,6.000,45.500,72.000,91.000
2.815,8.500,44.000,72.000,93.500
2.816,12.000,42.000,72.000,96.500
2.817,16.000,39.000,72.000,100.500
2.818,21.000,36.000,72.500,105.500
2.819,26.500,32.500,73.000,111.000
2.820,31.500,29.500,74.000,116.500
2.821,36.000,26.500,75.500,122.000
2.822,39.000,24.500,77.000,127.500
2.823,41.000,23.500,78.500,131.500
2.824,40.500,23.500,80.000,134.000
2.825,39.000,24.500,81.500,134.500
2.826,36.000,27.000,83.000,133.500
2.827,31.500,30.000,84.000,131.000
2.828,26.500,33.500,85.500,127.000
2.829,21.000,37.500,86.500,121.500
2.830,16.000,42.000,87.000,115.500
2.831,11.500,46.000,88.000,108.500
2.832,7.500,49.500,88.500,101.500
2.833,5.000,53.000,89.000,94.500
2.834,3.500,55.000,90.000,89.000
2.835,4.000,56.500,90.500,84.000
2.836,5.500,57.500,91.000,81.000
2.837,8.500,57.000,92.000,79.500
2.838,12.000,56.000,92.500,79.000
2.839,16.000,55.000,93.500,80.000
2.840,20.500,54.000,95.000,81.500
2.841,24.000,53.000,96.000,83.000
2.842,27.000,52.500,97.500,84.500
2.843,29.000,52.500,98.500,85.500
2.844,29.000,53.000,99.000,86.000
2.845,28.000,54.000,99.500,86.000
2.846,25.500,55.500,100.000,85.500
2.847,21.500,57.000,99.500,84.000
2.848,16.500,59.500,99.500,82.000
2.849,11.500,61.500,99.000,79.500
2.850,6.500,64.000,98.500,77.000
2.851,2.000,65.500,97.500,73.500
2.852,-1.500,66.500,96.500,71.000
2.853,-3.500,67.000,95.500,68.500
2.854,-4.000,67.000,94.500,67.000
2.855,-2.500,66.000,93.500,67.000
2.856,0.500,64.500,93.000,67.500
2.857,5.000,62.500,92.500,69.000
2.858,10.000,60.500,92.500,71.500
2.859,15.500,58.500,93.000,74.500
2.860,21.000,56.500,93.500,77.500
2.861,26.000,55.000,94.500,80.000
2.862,29.500,53.500,95.500,83.000
2.863,31.500,52.500,96.500,85.500
2.864,31.500,52.000,97.500,87.500
2.865,29.500,52.000,98.500,88.500
2.866,25.500,53.000,100.000,89.000
2.867,21.000,55.000,101.000,88.000
2.868,15.500,56.500,102.000,86.500
2.869,10.000,58.500,102.000,83.500
2.870,5.500,60.500,101.500,81.000
2.871,1.500,61.500,99.500,78.000
2.872,-1.000,62.500,96.500,76.000
2.873,-2.000,62.500,93.500,74.000
2.874,-2.500,62.500,91.000,73.000
2.875,-1.500,62.000,90.000,72.500
2.876,0.000,60.500,89.500,72.500
2.877,2.500,59.000,90.000,73.500
2.878,5.500,57.500,91.000,75.500
2.879,8.500,55.500,92.000,77.500
2.880,11.500,53.500,93.500,80.500
2.881,13.500,52.000,94.500,83.500
2.882,14.500,50.500,96.000,86.000
2.883,14.500,50.000,97.000,88.500
2.884,12.500,50.000,98.000,90.500
2.885,10.000,50.500,99.000,91.000
2.886,5.500,52.000,99.500,91.000
2.887,0.500,53.500,100.000,90.000
2.888,-5.000,55.500,100.000,88.500
2.889,-10.000,57.500,99.500,86.000
2.890,-15.000,59.500,99.000,83.000
2.891,-18.500,61.500,98.500,80.500
2.892,-21.000,62.500,97.500,77.500
2.893,-22.500,63.500,96.500,75.500
2.894,-22.000,64.000,96.000,74.000
2.895,-20.500,64.000,95.500,73.500
2.896,-18.000,63.000,95.500,74.000
2.897,-14.000,62.000,96.000,75.500
2.898,-10.000,61.000,97.000,78.000
2.899,-5.500,59.500,98.500,81.500
2.900,-1.000,58.000,100.000,85.000
2.901,3.000,57.000,101.500,89.000
2.902,6.000,56.000,103.000,92.000
2.903,7.000,56.000,104.500,94.500
2.904,7.500,56.500,106.000,96.500
2.905,6.000,57.000,107.000,97.500
2.906,3.500,59.000,107.500,97.500
2.907,0.000,60.500,108.000,96.500
2.908,-4.000,63.000,108.500,95.000
2.909,-8.500,65.000,108.000,92.500
2.910,-13.500,67.000,107.500,90.000
2.911,-17.500,69.000,107.000,87.000
2.912,-20.500,70.000,106.000,84.000
2.913,-22.500,70.500,105.500,81.500
2.914,-22.500,70.000,104.500,79.500
2.915,-20.500,69.500,104.000,78.500
2.916,-17.500,68.500,103.500,78.500
2.917,-13.000,67.500,104.000,79.500
2.918,-8.000,66.000,104.500,81.500
2.919,-2.500,64.500,105.500,84.500
2.920,2.500,63.500,107.000,87.500
2.921,7.000,62.000,108.000,91.000
2.922,10.000,61.500,109.500,94.000
2.923,11.500,60.500,110.500,96.500
2.924,11.000,60.500,111.500,98.000
2.925,9.000,61.000,112.500,99.000
2.926,6.000,62.000,112.500,98.500
2.927,1.500,64.000,113.000,97.500
2.928,-3.000,65.500,113.000,95.500
2.929,-8.000,68.000,112.500,93.000
2.930,-12.500,70.000,112.000,90.000
2.931,-16.500,71.500,111.000,87.000
2.932,-19.500,72.500,109.500,84.000
2.933,-21.500,72.500,108.500,81.000
2.934,-21.500,72.500,107.500,79.500
2.935,-20.500,71.500,107.000,78.500
2.936,-18.000,70.000,106.500,78.500
2.937,-15.000,68.500,106.500,79.500
2.938,-11.000,66.500,107.000,81.500
2.939,-6.500,65.000,107.500,84.000
2.940,-3.000,63.500,108.500,87.000
2.941,-0.500,62.000,110.000,90.000
2.942,1.500,61.000,111.000,93.000
2.943,1.500,61.000,112.000,95.000
2.944,-0.500,61.000,113.000,96.500
2.945,-3.500,62.000,114.000,97.500
2.946,-8.000,63.500,115.000,97.000
2.947,-13.500,65.000,115.000,96.000
2.948,-19.500,66.500,115.500,94.500
2.949,-24.500,68.500,115.000,92.000
2.950,-29.000,70.000,114.500,89.000
2.951,-32.000,72.000,114.000,86.500
2.952,-33.500,73.000,113.000,83.500
2.953,-33.000,73.500,112.000,81.500
2.954,-31.000,73.000,111.500,80.000
2.955,-28.000,72.000,110.500,79.000
2.956,-23.500,70.500,110.500,79.000
2.957,-18.000,68.500,110.000,79.500
2.958,-12.500,66.500,110.500,80.500
2.959,-7.000,64.000,111.500,82.500
2.960,-1.500,61.500,112.500,85.000
2.961,3.000,59.500,113.500,87.500
2.962,6.500,58.000,115.000,90.500
2.963,9.000,57.000,116.500,93.000
2.964,10.500,56.500,117.500,94.500
2.965,10.000,57.000,118.000,95.500
2.966,8.000,58.500,118.500,95.500
2.967,5.000,60.000,119.000,94.500
2.968,1.000,61.500,119.000,93.000
2.969,-3.500,63.500,118.500,90.500
2.970,-8.000,65.000,117.500,87.500
2.971,-11.500,66.000,116.500,84.500
2.972,-14.500,67.000,115.500,82.000
2.973,-16.000,67.000,114.000,79.500
2.974,-16.000,66.500,113.500,78.500
2.975,-15.000,65.500,113.000,77.500
2.976,-12.000,64.000,113.000,78.000
2.977,-7.500,62.500,113.500,79.000
2.978,-2.500,60.000,114.500,81.000
2.979,3.000,58.000,116.000,83.000
2.980,8.000,56.000,118.500,85.500
2.981,12.000,54.000,120.500,88.000
2.982,14.500,52.500,121.500,90.500
2.983,16.000,52.000,121.500,92.500
2.984,16.500,52.000,120.500,94.000
2.985,15.000,52.000,119.000,95.000
2.986,12.500,53.000,118.000,95.000
2.987,8.500,54.500,117.000,94.000
2.988,4.500,56.000,117.000,92.000
2.989,1.000,58.000,117.000,89.500
2.990,-2.000,59.500,116.500,86.500
2.991,-4.500,60.500,116.000,83.000
2.992,-6.000,61.000,115.000,80.500
2.993,-6.000,61.000,114.000,78.000
2.994,-5.500,61.000,113.000,76.500
2.995,-3.500,60.000,112.500,76.000
2.996,-0.500,59.000,112.000,76.500
2.997,3.500,57.500,112.000,77.500
2.998,8.000,56.000,112.500,80.000
2.999,13.000,54.500,113.500,82.500
3.000,18.000,52.500,114.500,85.500
3.001,21.500,51.000,115.000,88.000
3.002,24.000,49.500,116.000,90.500
3.003,25.000,49.000,116.500,92.000
3.004,24.500,48.500,117.000,93.500
3.005,22.500,49.000,117.500,94.000
3.006,19.500,50.500,118.000,94.500
3.007,15.000,52.000,118.500,94.000
3.008,10.000,54.500,119.000,92.500
3.009,4.500,56.500,118.500,91.000
3.010,0.000,58.500,118.000,89.000
3.011,-4.000,60.500,117.500,86.500
3.012,-6.500,61.500,116.500,84.500
3.013,-7.500,62.000,115.000,82.500
3.014,-7.500,61.500,114.000,81.000
3.015,-6.000,60.500,113.000,80.500
3.016,-4.000,59.000,112.000,81.000
3.017,-0.500,57.500,112.000,82.500
3.018,3.500,55.500,112.500,85.000
3.019,8.500,54.000,113.500,88.500
3.020,13.500,53.000,114.500,92.000
3.021,18.000,52.500,116.000,95.500
3.022,22.000,52.000,117.500,99.000
3.023,24.500,52.000,119.000,102.000
3.024,25.500,53.000,120.000,104.000
3.025,25.000,54.000,121.000,104.500
3.026,23.000,55.500,122.000,104.500
3.027,20.000,57.000,122.000,103.500
3.028,16.000,59.000,121.500,101.500
3.029,12.000,61.000,121.000,99.500
3.030,8.000,63.000,120.000,96.500
3.031,4.500,64.500,119.000,94.000
3.032,1.500,66.000,118.500,91.000
3.033,0.000,66.500,117.500,89.000
3.034,-0.500,67.000,116.500,87.000
3.035,0.500,66.500,115.500,85.500
3.036,2.500,65.000,115.000,85.500
3.037,5.500,63.500,114.500,86.500
3.038,9.000,62.000,114.500,88.000
3.039,13.000,60.000,115.000,90.000
3.040,17.000,58.500,116.000,93.000
3.041,20.500,57.000,117.000,95.500
3.042,22.500,56.500,118.000,98.000
3.043,24.000,56.500,119.000,100.000
3.044,23.500,57.000,120.000,101.500
3.045,22.000,58.500,121.000,102.500
3.046,19.500,60.500,121.500,102.500
3.047,15.500,62.500,122.000,101.500
3.048,11.000,65.000,122.000,100.000
3.049,6.000,68.000,122.000,98.000
3.050,1.000,70.000,121.500,96.000
3.051,-3.500,72.000,121.000,93.500
3.052,-6.500,74.000,120.500,91.500
3.053,-8.500,75.000,120.000,90.000
3.054,-8.500,75.000,119.000,89.000
3.055,-7.000,75.000,118.500,88.500
3.056,-4.000,74.000,118.000,89.000
3.057,-0.500,72.000,118.000,90.500
3.058,4.000,70.000,118.000,92.000
3.059,8.000,67.500,118.000,94.500
3.060,11.000,65.000,119.000,97.000
3.061,13.000,63.000,119.500,99.500
3.062,14.500,61.500,120.500,102.000
3.063,14.500,61.000,121.500,104.000
3.064,13.000,61.000,122.000,106.000
3.065,11.000,62.000,123.000,107.000
3.066,7.500,63.000,123.500,107.000
3.067,3.500,65.000,123.500,106.000
3.068,-1.000,67.000,123.500,104.500
3.069,-5.500,69.000,123.500,102.000
3.070,-9.500,71.000,122.500,99.000
3.071,-13.000,72.500,122.000,95.500
3.072,-15.000,74.000,121.000,92.500
3.073,-16.500,75.000,120.000,90.500
3.074,-16.500,75.500,119.500,88.500
3.075,-15.000,75.500,119.000,88.000
3.076,-12.000,75.000,119.000,88.000
3.077,-8.000,74.000,119.000,89.000
3.078,-3.000,72.500,119.500,90.500
3.079,2.500,71.000,120.000,93.000
3.080,7.500,69.000,121.000,95.500
3.081,12.000,67.500,121.500,98.000
3.082,15.000,66.500,122.500,100.000
3.083,17.000,66.000,123.500,102.000
3.084,18.000,66.000,124.000,103.000
3.085,17.500,66.500,125.000,103.500
3.086,15.500,68.500,125.500,103.500
3.087,12.500,70.500,125.500,102.500
3.088,9.000,73.500,126.000,101.000
3.089,5.000,76.000,126.500,99.000
3.090,1.500,78.500,126.500,97.000
3.091,-2.000,81.000,127.000,94.500
3.092,-4.500,83.000,128.000,91.500
3.093,-6.500,84.500,129.000,89.000
3.094,-7.500,85.000,130.000,87.000
3.095,-7.000,85.500,131.000,85.500
3.096,-5.500,85.000,131.000,85.500
3.097,-2.000,84.000,130.500,86.000
3.098,2.000,82.500,129.000,87.500
3.099,6.000,81.000,127.500,89.500
3.100,9.500,79.000,127.500,92.000
3.101,12.500,77.500,128.000,94.500
3.102,14.000,76.500,129.500,97.000
3.103,14.500,76.000,131.000,99.000
3.104,14.000,75.500,132.000,100.500
3.105,12.000,76.000,133.000,101.000
3.106,9.000,76.500,133.000,100.500
3.107,5.000,78.000,133.000,99.500
3.108,0.500,79.000,132.500,98.000
3.109,-5.000,80.500,131.000,95.500
3.110,-10.000,81.500,129.500,93.000
3.111,-14.500,82.500,128.000,90.500
3.112,-17.500,82.500,126.000,88.000
3.113,-19.000,82.500,124.000,86.500
3.114,-18.500,81.500,122.000,85.500
3.115,-17.000,80.500,121.000,85.000
3.116,-13.500,79.000,120.000,85.500
3.117,-9.500,78.000,119.500,86.500
3.118,-5.000,76.500,120.000,88.500
3.119,-0.500,75.000,121.000,91.000
3.120,3.500,73.500,122.000,93.500
3.121,6.500,72.500,123.000,96.000
3.122,8.500,71.500,124.000,98.000
3.123,9.000,71.000,125.000,99.500
3.124,7.500,71.500,126.000,100.000
3.125,4.500,72.000,127.000,99.500
3.126,0.000,73.500,127.500,98.500
3.127,-6.000,75.500,128.000,96.000
3.128,-13.000,77.500,128.000,93.000
3.129,-20.000,79.000,127.500,90.000
3.130,-26.500,80.500,127.000,87.000
3.131,-32.000,81.500,126.000,84.000
3.132,-35.500,82.500,125.000,81.000
3.133,-38.000,83.000,124.000,79.000
3.134,-38.500,83.500,123.500,77.000
3.135,-37.500,83.000,123.000,76.000
3.136,-36.000,82.000,122.500,76.000
3.137,-33.500,81.000,122.500,76.500
3.138,-30.500,79.500,123.000,78.000
3.139,-27.000,77.500,123.500,79.500
3.140,-23.000,75.500,124.000,82.000
3.141,-20.000,74.000,125.000,84.000
3.142,-17.500,72.500,125.500,86.000
3.143,-16.500,72.000,126.500,87.500
3.144,-16.500,72.000,127.000,88.500
3.145,-18.000,73.000,127.500,89.000
3.146,-20.500,74.000,128.000,88.500
3.147,-23.500,75.500,128.000,87.500
3.148,-27.000,77.000,127.500,86.000
3.149,-30.000,78.500,126.500,84.000
3.150,-33.000,79.500,125.000,81.500
3.151,-35.500,80.500,123.500,79.500
3.152,-37.000,81.000,122.000,77.000
3.153,-37.500,81.500,120.500,75.500
3.154,-37.500,81.000,119.500,74.500
3.155,-36.500,80.500,118.500,74.000
3.156,-34.500,79.000,117.500,74.000
3.157,-31.500,77.000,117.500,75.000
3.158,-27.500,75.000,117.500,76.500
3.159,-23.000,72.500,117.500,78.500
3.160,-19.000,70.500,118.000,81.000
3.161,-15.500,68.500,119.000,83.500
3.162,-13.000,67.000,119.500,85.500
3.163,-11.500,66.000,120.000,87.500
3.164,-11.500,65.500,121.000,88.500
3.165,-12.500,66.000,121.000,89.000
3.166,-15.000,67.000,121.500,89.000
3.167,-18.500,68.500,121.500,88.500
3.168,-23.000,70.500,121.000,87.000
3.169,-27.500,72.500,120.500,84.500
3.170,-32.000,74.500,120.000,82.000
3.171,-36.000,76.000,119.000,79.500
3.172,-39.500,77.000,118.000,76.500
3.173,-41.500,77.500,116.500,74.500
3.174,-42.000,78.000,115.500,73.000
3.175,-41.500,77.500,114.500,72.000
3.176,-39.500,76.000,114.000,72.000
3.177,-36.500,74.500,114.000,73.000
3.178,-32.000,72.500,114.000,74.500
3.179,-27.500,70.500,114.500,77.000
3.180,-23.000,68.500,115.000,79.500
3.181,-19.500,66.500,116.000,82.500
3.182,-17.500,65.000,116.500,85.000
3.183,-17.500,64.000,117.500,87.000
3.184,-18.500,63.500,118.000,88.500
3.185,-21.000,63.500,118.500,89.000
3.186,-25.000,64.500,118.000,88.000
3.187,-29.500,65.500,118.000,87.000
3.188,-34.500,67.500,117.500,85.000
3.189,-39.000,70.000,116.500,83.000
3.190,-43.000,72.000,116.000,81.000
3.191,-46.500,74.500,115.500,78.500
3.192,-48.000,76.000,115.000,76.500
3.193,-49.000,77.000,114.500,75.000
3.194,-48.500,77.500,114.000,74.000
3.195,-47.000,77.000,113.500,74.000
3.196,-44.500,75.500,113.500,74.500
3.197,-41.000,74.000,113.000,75.500
3.198,-37.500,71.500,113.000,78.000
3.199,-34.000,69.000,113.500,80.500
3.200,-30.500,67.000,114.000,83.500
3.201,-28.000,65.000,114.500,86.500
3.202,-26.000,63.000,115.500,89.000
3.203,-25.000,62.000,116.000,91.500
3.204,-25.500,61.500,116.500,93.000
3.205,-27.000,61.500,116.500,93.500
3.206,-29.000,62.500,116.500,93.500
3.207,-32.500,63.500,116.500,93.000
3.208,-36.500,65.000,116.000,91.500
3.209,-40.500,67.000,115.000,89.000
3.210,-44.500,68.500,114.000,86.500
3.211,-48.000,69.500,113.500,84.000
3.212,-50.500,70.000,112.500,81.000
3.213,-52.000,70.500,112.000,79.000
3.214,-52.500,70.000,112.000,77.500
3.215,-51.000,69.000,112.500,77.000
3.216,-49.000,67.500,113.500,77.000
3.217,-45.000,66.000,114.000,78.000
3.218,-40.500,64.000,114.500,80.000
3.219,-34.500,61.500,114.000,82.500
3.220,-28.500,59.500,112.500,86.000
3.221,-23.500,57.500,111.000,89.500
3.222,-19.500,55.500,110.500,92.500
3.223,-17.000,54.500,110.500,95.000
3.224,-16.500,54.500,111.000,96.500
3.225,-18.000,54.500,112.000,97.000
3.226,-20.500,55.500,112.500,97.000
3.227,-23.500,57.000,112.500,95.500
3.228,-27.500,58.500,112.000,93.500
3.229,-31.500,60.500,111.500,90.500
3.230,-35.000,62.000,111.000,88.000
3.231,-37.500,64.000,110.000,85.000
3.232,-38.500,65.000,109.000,82.500
3.233,-38.500,66.000,108.000,80.000
3.234,-37.000,65.500,107.000,78.500
3.235,-34.500,64.500,105.500,77.500
3.236,-30.500,63.000,104.500,77.500
3.237,-26.000,60.500,104.000,78.000
3.238,-21.000,58.000,103.500,79.500
3.239,-15.500,55.500,103.500,81.500
3.240,-10.500,53.000,103.500,84.000
3.241,-6.000,50.500,103.500,86.500
3.242,-2.000,48.500,104.000,88.500
3.243,1.000,47.500,104.000,90.000
3.244,2.000,46.500,104.000,91.000
3.245,2.500,46.500,104.000,91.000
3.246,1.500,47.000,103.500,90.000
3.247,-0.500,47.500,103.000,88.500
3.248,-3.500,49.000,102.000,86.500
3.249,-6.000,50.000,101.000,84.000
3.250,-9.000,51.500,99.500,81.000
3.251,-11.500,52.500,98.500,78.500
3.252,-13.000,53.500,97.000,75.500
3.253,-13.500,54.000,96.000,73.500
3.254,-13.000,54.000,94.500,72.000
3.255,-10.500,53.500,93.500,71.500
3.256,-6.500,52.500,93.000,72.000
3.257,-1.500,51.000,92.500,73.000
3.258,4.500,49.000,92.500,75.000
3.259,10.500,47.000,93.000,78.000
3.260,16.500,45.000,94.000,81.000
3.261,22.000,43.500,94.500,84.000
3.262,26.500,42.500,95.500,87.500
3.263,30.000,41.500,96.500,90.000
3.264,32.000,41.500,97.500,91.500
3.265,32.000,41.500,97.500,92.000
3.266,30.500,42.500,97.500,92.000
3.267,27.500,43.500,97.500,90.500
3.268,23.500,44.500,96.500,88.000
3.269,19.000,46.000,96.000,85.500
3.270,15.000,47.000,95.000,82.500
3.271,12.000,48.500,94.000,80.000
3.272,10.000,49.500,93.000,77.500
3.273,9.000,50.000,92.500,75.500
3.274,9.500,50.000,91.500,74.000
3.275,11.500,50.000,91.500,74.000
3.276,15.000,49.000,91.000,74.500
3.277,20.000,48.000,91.500,76.500
3.278,25.500,46.500,92.000,79.000
3.279,31.500,45.000,93.000,82.000
3.280,36.500,43.500,94.500,85.000
3.281,41.000,42.000,95.500,88.000
3.282,44.500,41.000,96.500,91.000
3.283,46.500,40.000,97.000,93.000
3.284,47.500,40.000,98.000,94.000
3.285,47.000,40.000,98.500,95.000
3.286,45.000,41.000,98.500,94.500
3.287,42.500,42.500,98.500,93.500
3.288,39.000,44.500,98.500,92.000
3.289,35.500,46.500,98.500,90.500
3.290,32.000,49.500,98.500,88.000
3.291,29.500,52.000,98.500,86.000
3.292,28.000,54.000,98.500,84.000
3.293,27.500,55.500,98.500,83.000
3.294,28.500,56.500,99.000,82.000
3.295,30.500,56.500,99.000,82.000
3.296,33.500,55.500,99.000,82.500
3.297,37.500,53.500,99.000,84.000
3.298,42.500,51.000,99.500,86.000
3.299,47.500,49.000,100.500,89.000
3.300,53.000,46.500,101.000,92.000
3.301,58.000,45.000,102.000,95.500
3.302,61.500,44.000,103.000,99.000
3.303,64.500,43.000,104.500,102.500
3.304,65.500,43.500,105.500,104.500
3.305,65.500,44.000,106.000,106.000
3.306,64.000,45.500,106.500,106.500
3.307,62.000,47.000,107.000,106.000
3.308,59.000,49.000,107.000,105.000
3.309,56.500,51.500,106.500,103.500
3.310,54.000,53.500,106.000,101.500
3.311,52.500,55.000,105.000,99.500
3.312,51.500,56.500,104.500,97.500
3.313,51.000,57.500,103.500,95.500
3.314,52.000,58.000,102.500,94.000
3.315,54.000,57.500,102.000,93.500
3.316,57.000,56.500,102.000,93.500
3.317,61.000,55.500,102.000,95.000
3.318,66.000,53.500,102.500,97.000
3.319,71.000,51.500,103.500,100.000
3.320,75.500,49.500,104.000,103.000
3.321,79.500,48.000,105.000,106.000
3.322,82.500,46.500,106.000,109.000
3.323,84.500,45.500,106.500,111.000
3.324,85.000,45.000,107.500,112.500
3.325,84.000,45.500,108.500,113.000
3.326,82.000,46.500,109.500,113.000
3.327,78.500,48.500,110.500,111.500
3.328,74.000,50.500,111.500,109.500
3.329,69.000,53.000,112.000,107.000
3.330,64.500,55.500,111.500,104.500
3.331,61.000,57.500,109.500,102.500
3.332,59.000,59.000,106.500,100.500
3.333,58.000,59.500,104.000,99.500
3.334,58.500,59.000,101.500,98.000
3.335,60.000,58.000,100.500,97.500
3.336,62.500,56.500,100.000,97.500
3.337,66.000,54.500,100.000,98.500
3.338,70.000,52.500,100.500,100.500
3.339,75.000,50.500,101.000,103.000
3.340,80.000,48.500,102.000,106.000
3.341,84.500,47.000,103.000,109.000
3.342,88.500,46.000,104.500,112.000
3.343,90.500,45.500,106.000,115.000
3.344,91.500,45.500,107.000,117.000
3.345,91.000,46.000,108.000,118.500
3.346,88.500,47.500,108.500,119.000
3.347,85.500,49.000,108.500,118.500
3.348,81.000,50.500,108.500,117.000
3.349,77.000,52.500,108.000,115.000
3.350,73.000,54.500,107.500,112.500
3.351,70.000,56.000,106.500,110.000
3.352,68.000,57.000,106.000,108.000
3.353,67.500,57.500,105.000,106.000
3.354,68.000,57.500,104.500,105.000
3.355,69.500,57.000,104.500,104.500
3.356,73.000,56.000,104.500,105.000
3.357,77.000,54.500,104.500,106.500
3.358,82.000,53.000,105.500,109.000
3.359,88.000,51.000,106.000,112.500
3.360,93.500,49.500,107.000,115.500
3.361,98.500,47.500,108.000,119.000
3.362,103.000,46.500,109.000,121.500
3.363,106.000,46.000,110.500,124.000
3.364,107.500,46.000,111.500,125.000
3.365,107.500,46.500,112.000,125.500
3.366,105.500,48.000,112.500,125.500
3.367,102.000,49.500,112.500,124.000
3.368,98.000,51.500,112.000,122.000
3.369,93.500,53.500,111.500,119.500
3.370,89.000,55.000,110.500,116.500
3.371,85.500,56.500,109.500,113.000
3.372,82.500,57.500,108.500,110.000
3.373,80.500,58.000,107.500,107.500
3.374,80.500,58.000,106.500,105.000
3.375,81.500,57.500,105.500,104.000
3.376,84.000,56.500,105.000,103.500
3.377,88.000,54.500,104.500,104.000
3.378,93.500,52.500,104.000,105.500
3.379,99.500,50.000,104.000,107.500
3.380,105.000,47.500,104.000,109.500
3.381,110.500,45.000,104.000,112.000
3.382,114.500,43.500,104.000,114.500
3.383,117.000,42.000,104.500,116.500
3.384,118.000,41.500,104.500,117.500
3.385,117.000,41.500,105.000,118.000
3.386,114.500,42.500,104.500,117.500
3.387,110.500,43.500,104.500,116.000
3.388,105.500,45.000,104.000,114.000
3.389,100.500,47.000,103.500,111.500
3.390,96.000,49.000,103.000,109.000
3.391,92.500,50.500,102.000,106.000
3.392,90.000,51.500,101.000,103.500
3.393,88.500,52.000,100.000,101.000
3.394,88.500,52.000,99.000,99.500
3.395,90.500,51.500,98.500,99.000
3.396,93.500,50.500,98.000,100.000
3.397,97.500,49.000,98.000,101.500
3.398,102.500,47.500,98.500,104.500
3.399,107.500,45.500,99.500,107.500
3.400,112.500,43.500,100.000,111.000
3.401,117.000,41.500,101.500,115.000
3.402,120.000,40.000,102.500,118.500
3.403,121.500,39.000,103.500,121.000
3.404,121.500,38.500,104.000,123.000
3.405,120.000,38.500,104.000,124.000
3.406,117.500,39.000,104.000,124.500
3.407,113.500,40.000,103.500,123.500
3.408,109.000,41.000,103.000,121.500
3.409,104.500,42.500,102.000,119.500
3.410,100.000,44.000,101.000,116.500
3.411,96.500,45.000,99.500,113.000
3.412,94.000,46.000,98.000,110.000
3.413,92.500,46.000,96.500,106.500
3.414,92.500,45.500,95.000,104.000
3.415,93.500,45.000,93.500,102.500
3.416,95.500,43.500,93.000,102.000
3.417,98.500,41.500,92.500,102.500
3.418,102.000,39.000,92.000,104.000
3.419,105.500,36.500,92.500,106.500
3.420,109.500,34.000,92.500,109.000
3.421,112.500,31.500,93.500,111.500
3.422,115.000,29.500,94.000,114.000
3.423,116.500,28.500,94.500,116.000
3.424,116.500,27.500,95.000,117.500
3.425,115.000,28.000,95.500,118.000
3.426,112.000,28.500,95.500,117.500
3.427,108.000,30.000,95.500,116.000
3.428,103.500,32.000,95.500,114.500
3.429,99.000,34.000,95.500,112.000
3.430,94.500,36.500,95.000,109.500
3.431,91.000,38.500,94.500,106.500
3.432,88.000,40.000,94.000,104.000
3.433,86.000,40.500,92.500,101.000
3.434,85.000,40.500,91.500,98.500
3.435,85.000,40.000,90.500,97.000
3.436,87.000,38.500,90.000,96.500
3.437,89.500,37.000,89.500,97.000
3.438,93.000,35.000,89.500,98.500
3.439,97.000,32.500,90.000,101.000
3.440,101.000,30.500,91.000,104.000
3.441,104.000,29.000,91.500,107.000
3.442,107.000,27.500,92.000,110.000
3.443,108.500,27.000,93.000,112.500
3.444,109.000,27.000,93.500,114.000
3.445,108.500,27.500,93.500,114.500
3.446,106.500,28.500,93.500,113.500
3.447,103.500,30.000,93.500,112.000
3.448,99.500,31.500,93.500,109.500
3.449,95.500,33.500,94.000,106.500
3.450,92.000,35.000,94.500,103.000
3.451,88.500,36.500,94.500,99.000
3.452,86.000,37.500,94.500,95.500
3.453,85.000,38.000,93.000,93.000
3.454,85.000,38.000,91.000,91.000
3.455,86.500,37.500,88.000,90.000
3.456,89.500,36.000,85.500,90.000
3.457,92.500,34.500,84.000,91.000
3.458,96.000,33.000,84.000,92.500
3.459,99.000,31.000,85.000,94.500
3.460,101.500,29.000,86.000,97.000
3.461,103.500,27.000,87.500,99.500
3.462,104.500,25.000,88.500,102.000
3.463,104.500,24.000,89.500,104.500
3.464,103.000,24.000,90.500,106.000
3.465,101.000,24.500,91.000,107.500
3.466,97.500,26.000,91.500,108.000
3.467,93.500,27.500,92.000,108.000
3.468,89.000,30.000,92.000,107.000
3.469,84.500,32.000,91.500,105.000
3.470,80.500,34.000,91.000,103.000
3.471,77.000,36.000,90.500,101.000
3.472,74.000,37.000,90.000,98.500
3.473,72.000,38.000,89.000,96.500
3.474,70.500,38.500,88.500,95.000
3.475,70.000,38.000,88.500,94.000
3.476,71.500,37.500,88.000,94.000
3.477,74.000,36.000,88.500,95.500
3.478,78.000,34.500,89.500,97.500
3.479,82.500,33.000,90.500,100.000
3.480,87.000,31.500,92.000,103.500
3.481,91.500,30.500,93.500,106.500
3.482,94.500,30.000,95.000,109.500
3.483,96.000,30.000,96.500,112.000
