'Elapsed time','AECG1','AECG2','AECG3','AECG4'
'seconds','uV','uV','uV','uV'
0.000,-156.500,-27.000,-35.000,28.000
0.001,-155.500,-26.500,-34.000,29.000
0.002,-155.000,-26.500,-34.000,29.000
0.003,-156.000,-27.500,-35.500,27.500
0.004,-158.500,-30.000,-38.000,24.500
0.005,-161.500,-33.500,-42.000,21.000
0.006,-164.500,-37.000,-46.000,17.500
0.007,-166.000,-39.000,-48.500,15.000
0.008,-165.000,-39.000,-48.000,15.500
0.009,-161.500,-35.500,-45.000,18.500
0.010,-156.500,-30.500,-40.000,23.500
0.011,-150.500,-24.500,-34.000,29.500
0.012,-145.000,-18.000,-27.500,36.000
0.013,-141.000,-13.500,-22.500,41.000
0.014,-139.500,-11.500,-20.500,43.000
0.015,-141.500,-12.500,-21.000,42.000
0.016,-146.000,-16.000,-24.500,38.500
0.017,-150.500,-20.500,-28.500,34.500
0.018,-154.000,-23.500,-32.000,31.000
0.019,-155.000,-25.000,-33.000,30.000
0.020,-155.000,-25.000,-33.000,30.500
0.021,-154.000,-24.500,-32.500,31.000
0.022,-154.000,-25.000,-33.000,30.500
0.023,-155.500,-26.500,-34.500,29.000
0.024,-157.500,-30.000,-38.000,26.000
0.025,-160.500,-33.500,-42.000,21.500
0.026,-163.000,-37.000,-46.000,18.000
0.027,-163.500,-38.000,-47.000,17.000
0.028,-161.000,-36.500,-45.500,18.500
0.029,-157.000,-33.000,-42.500,22.000
0.030,-153.000,-29.000,-38.500,25.500
0.031,-149.500,-25.500,-35.500,28.500
0.032,-146.000,-22.000,-32.000,32.000
0.033,-143.000,-18.000,-28.500,35.000
0.034,-140.500,-15.000,-25.500,37.500
0.035,-139.500,-13.500,-24.500,38.500
0.036,-140.500,-14.000,-25.000,38.000
0.037,-143.000,-16.000,-27.500,35.500
0.038,-146.000,-19.000,-30.500,33.000
0.039,-149.500,-22.000,-33.500,30.500
0.040,-152.000,-24.500,-35.500,29.000
0.041,-153.500,-26.000,-36.000,29.000
0.042,-154.500,-27.000,-36.500,29.500
0.043,-155.500,-28.500,-36.500,30.000
0.044,-157.000,-30.000,-37.500,30.000
0.045,-159.000,-32.500,-39.000,29.500
0.046,-160.000,-34.000,-40.000,29.000
0.047,-160.500,-35.000,-40.500,29.000
0.048,-159.500,-34.500,-39.500,30.000
0.049,-157.500,-32.500,-37.500,32.500
0.050,-153.500,-28.500,-33.500,36.000
0.051,-149.000,-23.000,-28.000,41.000
0.052,-143.500,-17.000,-22.500,46.000
0.053,-138.500,-11.000,-17.000,51.000
0.054,-135.000,-7.000,-13.000,54.500
0.055,-134.000,-5.500,-12.000,55.500
0.056,-136.000,-6.500,-13.500,53.500
0.057,-139.500,-10.000,-17.000,50.000
0.058,-143.500,-14.500,-21.500,45.500
0.059,-148.000,-18.500,-26.000,41.500
0.060,-152.000,-22.500,-29.500,38.000
0.061,-154.500,-25.000,-32.000,35.500
0.062,-155.500,-26.500,-33.500,34.500
0.063,-155.500,-27.000,-33.500,34.500
0.064,-155.500,-27.000,-34.000,34.500
0.065,-155.500,-28.000,-35.000,33.500
0.066,-155.500,-28.500,-35.500,33.000
0.067,-154.500,-28.500,-35.500,33.000
0.068,-152.000,-26.500,-34.000,34.500
0.069,-148.500,-24.000,-31.000,37.500
0.070,-145.000,-20.000,-27.500,41.500
0.071,-142.000,-17.000,-24.500,45.000
0.072,-140.500,-14.500,-22.000,47.500
0.073,-141.000,-14.500,-21.500,48.000
0.074,-143.500,-15.500,-22.500,47.000
0.075,-146.000,-17.000,-23.500,45.500
0.076,-146.500,-17.000,-24.000,45.500
0.077,-145.500,-15.500,-22.000,47.500
0.078,-142.500,-12.000,-19.000,51.000
0.079,-139.500,-9.000,-16.000,54.500
0.080,-138.000,-7.500,-14.500,56.000
0.081,-138.500,-8.000,-15.000,55.500
0.082,-140.000,-10.000,-16.500,54.000
0.083,-142.000,-11.500,-18.500,52.000
0.084,-142.500,-13.000,-20.000,51.000
0.085,-142.500,-13.500,-20.500,50.500
0.086,-142.500,-14.000,-21.000,50.000
0.087,-142.000,-14.500,-21.000,49.500
0.088,-141.000,-14.000,-21.000,50.000
0.089,-139.000,-13.000,-20.000,51.500
0.090,-136.000,-10.000,-17.000,54.500
0.091,-132.500,-6.500,-13.500,58.500
0.092,-129.500,-2.500,-9.500,62.500
0.093,-127.000,1.000,-6.500,66.000
0.094,-126.000,2.500,-4.500,68.000
0.095,-127.000,3.000,-4.500,68.500
0.096,-129.000,2.000,-5.000,67.500
0.097,-131.000,0.000,-6.500,66.000
0.098,-133.000,-2.000,-8.500,64.500
0.099,-134.500,-3.000,-9.500,63.000
0.100,-134.500,-3.500,-10.000,63.000
0.101,-133.500,-2.500,-9.500,63.500
0.102,-130.500,0.500,-6.500,66.500
0.103,-126.000,4.000,-2.500,70.500
0.104,-123.000,7.000,0.000,73.000
0.105,-123.000,6.500,-0.500,72.500
0.106,-126.000,2.500,-4.500,68.500
0.107,-129.000,-2.000,-9.000,64.500
0.108,-130.500,-4.000,-11.000,62.500
0.109,-128.500,-2.500,-9.000,64.500
0.110,-123.500,2.500,-4.500,69.500
0.111,-117.000,9.000,2.500,76.500
0.112,-110.500,16.000,9.500,84.000
0.113,-105.500,22.000,16.000,91.000
0.114,-101.500,27.000,20.500,96.000
0.115,-100.500,29.500,23.000,98.500
0.116,-101.000,29.500,23.500,99.000
0.117,-102.000,29.000,23.500,98.500
0.118,-102.500,28.500,23.000,98.000
0.119,-104.000,27.000,22.000,97.000
0.120,-106.000,25.000,20.000,95.000
0.121,-108.000,22.500,17.500,93.000
0.122,-109.500,20.500,16.000,91.500
0.123,-110.000,19.500,14.500,90.500
0.124,-110.500,19.000,14.000,90.000
0.125,-111.000,17.500,12.500,89.000
0.126,-112.000,15.500,10.500,87.000
0.127,-112.000,14.500,9.500,86.000
0.128,-111.000,14.500,9.500,86.000
0.129,-109.000,16.000,11.500,87.500
0.130,-105.000,19.500,15.000,91.500
0.131,-99.000,25.500,21.000,97.500
0.132,-93.000,32.500,28.500,105.000
0.133,-87.000,39.000,35.500,112.000
0.134,-83.000,44.500,40.500,117.000
0.135,-81.500,47.000,43.500,120.500
0.136,-81.000,48.500,45.000,122.000
0.137,-81.000,48.500,45.500,122.500
0.138,-81.500,48.500,45.500,122.500
0.139,-81.500,48.500,45.500,122.500
0.140,-82.000,47.500,45.000,122.500
0.141,-83.000,46.500,43.500,121.500
0.142,-84.500,44.500,41.500,120.000
0.143,-86.000,43.000,40.000,118.000
0.144,-86.500,42.000,38.500,117.000
0.145,-87.000,40.500,37.500,115.000
0.146,-88.000,39.000,35.500,113.500
0.147,-89.000,37.500,34.000,112.000
0.148,-88.500,37.500,33.500,111.500
0.149,-86.500,39.500,35.500,113.500
0.150,-82.500,43.500,39.500,117.500
0.151,-77.500,49.000,45.000,123.000
0.152,-72.500,54.000,50.500,128.500
0.153,-69.500,58.000,54.000,133.000
0.154,-69.000,59.500,55.500,134.000
0.155,-71.500,58.000,54.500,133.000
0.156,-74.500,55.500,52.000,131.000
0.157,-76.500,54.000,50.500,129.500
0.158,-77.000,54.000,50.500,129.500
0.159,-76.500,54.500,51.500,130.500
0.160,-76.500,54.500,51.500,130.000
0.161,-78.500,52.500,49.500,128.500
0.162,-81.500,49.000,46.000,125.000
0.163,-84.500,45.500,42.500,121.500
0.164,-87.000,42.500,39.500,118.500
0.165,-88.000,40.500,37.000,116.000
0.166,-89.000,38.500,35.000,114.000
0.167,-89.500,37.500,33.500,112.500
0.168,-89.500,37.000,33.000,112.000
0.169,-87.000,38.500,34.500,113.500
0.170,-82.500,43.000,39.000,118.000
0.171,-76.500,49.500,45.000,124.500
0.172,-71.000,55.500,51.500,130.500
0.173,-68.500,59.000,55.000,134.000
0.174,-69.500,59.000,55.000,133.500
0.175,-73.000,56.000,52.500,131.000
0.176,-78.000,52.000,48.500,126.500
0.177,-82.500,48.000,44.500,122.500
0.178,-86.500,44.000,41.000,119.000
0.179,-90.000,40.500,37.500,115.500
0.180,-94.000,37.000,33.500,111.500
0.181,-97.500,33.000,29.500,108.000
0.182,-101.000,29.500,26.000,104.000
0.183,-103.500,26.000,22.500,100.500
0.184,-106.000,23.000,19.500,97.500
0.185,-107.500,21.000,17.000,95.000
0.186,-108.500,19.000,15.500,93.500
0.187,-108.000,18.500,15.000,93.000
0.188,-106.500,19.000,15.500,94.000
0.189,-105.500,20.000,16.500,95.000
0.190,-105.500,20.500,16.500,95.000
0.191,-106.500,20.000,15.500,94.500
0.192,-108.500,18.500,14.500,93.000
0.193,-110.500,17.500,13.500,91.500
0.194,-113.000,16.000,12.000,90.000
0.195,-116.500,13.000,9.000,87.000
0.196,-121.500,9.000,5.000,83.000
0.197,-126.500,4.000,0.500,78.500
0.198,-130.500,0.000,-3.500,74.500
0.199,-133.500,-3.000,-6.000,71.500
0.200,-135.500,-5.000,-8.000,70.000
0.201,-136.500,-6.000,-9.500,69.000
0.202,-136.500,-6.500,-9.500,68.500
0.203,-136.000,-6.500,-10.000,68.000
0.204,-137.000,-8.000,-11.500,66.500
0.205,-138.500,-10.000,-14.000,64.000
0.206,-139.500,-12.500,-16.500,61.000
0.207,-140.500,-14.000,-18.000,59.500
0.208,-140.000,-14.000,-18.500,59.000
0.209,-138.500,-13.000,-17.500,60.000
0.210,-137.000,-11.500,-16.000,61.500
0.211,-134.500,-9.000,-13.500,64.500
0.212,-132.500,-6.000,-10.000,67.500
0.213,-130.000,-2.500,-7.000,71.000
0.214,-129.000,-0.500,-4.500,73.000
0.215,-129.500,0.000,-4.000,73.500
0.216,-131.500,-1.500,-5.500,72.500
0.217,-134.500,-4.000,-7.500,70.000
0.218,-137.000,-6.500,-10.500,67.500
0.219,-140.000,-9.500,-13.000,64.500
0.220,-142.500,-12.000,-16.000,61.500
0.221,-145.000,-14.500,-19.000,58.500
0.222,-147.500,-17.000,-21.500,56.000
0.223,-149.000,-19.000,-24.000,53.500
0.224,-149.500,-20.500,-25.000,52.500
0.225,-149.500,-21.500,-26.000,51.500
0.226,-149.500,-22.000,-26.500,51.000
0.227,-149.000,-22.000,-27.000,50.500
0.228,-148.000,-22.000,-27.000,51.000
0.229,-146.000,-20.500,-25.500,52.500
0.230,-144.000,-18.000,-23.500,54.500
0.231,-141.000,-15.000,-20.000,58.000
0.232,-138.000,-11.000,-16.500,61.500
0.233,-136.000,-8.000,-13.000,65.000
0.234,-135.500,-6.500,-11.500,66.500
0.235,-137.000,-7.000,-12.000,66.500
0.236,-139.500,-9.000,-14.000,64.500
0.237,-142.500,-12.000,-16.500,62.000
0.238,-145.000,-14.000,-18.500,60.000
0.239,-146.500,-15.000,-20.000,58.500
0.240,-148.000,-17.000,-22.000,57.000
0.241,-150.000,-19.000,-24.500,55.000
0.242,-153.000,-22.000,-27.500,52.000
0.243,-155.500,-25.000,-30.500,49.000
0.244,-157.000,-27.500,-33.000,46.500
0.245,-158.500,-29.500,-35.000,44.500
0.246,-159.000,-30.500,-36.500,43.000
0.247,-158.500,-31.500,-37.500,42.000
0.248,-157.500,-30.500,-36.500,43.000
0.249,-154.500,-28.500,-34.500,45.000
0.250,-150.500,-24.500,-30.000,49.000
0.251,-145.500,-19.500,-25.000,54.000
0.252,-141.500,-14.500,-20.500,58.500
0.253,-138.500,-11.000,-16.500,62.500
0.254,-137.500,-8.500,-14.000,65.000
0.255,-138.000,-8.500,-13.500,65.000
0.256,-141.000,-10.500,-15.000,63.500
0.257,-145.000,-14.000,-18.000,60.000
0.258,-148.500,-17.500,-21.500,57.000
0.259,-151.000,-20.000,-24.000,54.500
0.260,-153.000,-22.000,-26.000,52.500
0.261,-153.500,-23.000,-27.000,52.000
0.262,-154.000,-23.500,-27.500,51.000
0.263,-154.000,-24.500,-28.500,50.500
0.264,-155.500,-26.500,-30.000,48.500
0.265,-157.000,-29.000,-32.500,46.000
0.266,-158.500,-31.500,-35.000,43.500
0.267,-159.000,-33.000,-36.000,42.500
0.268,-157.500,-32.500,-35.500,43.000
0.269,-154.500,-30.000,-32.500,46.000
0.270,-151.000,-26.500,-29.500,49.000
0.271,-148.500,-23.500,-26.500,52.500
0.272,-145.500,-20.500,-23.000,55.500
0.273,-142.500,-16.500,-19.000,59.500
0.274,-140.000,-13.000,-15.500,63.500
0.275,-139.500,-11.000,-13.500,65.500
0.276,-140.000,-11.000,-13.000,65.500
0.277,-142.000,-12.000,-14.000,64.500
0.278,-143.500,-13.500,-15.500,63.000
0.279,-145.500,-15.000,-17.000,61.500
0.280,-147.500,-17.500,-19.500,59.000
0.281,-150.500,-20.000,-22.000,56.000
0.282,-153.000,-23.500,-25.000,53.000
0.283,-155.500,-26.000,-28.500,50.000
0.284,-158.000,-29.000,-31.500,47.000
0.285,-159.500,-31.000,-33.500,45.000
0.286,-160.500,-32.500,-35.500,43.000
0.287,-160.500,-33.500,-36.500,42.000
0.288,-159.500,-33.000,-36.000,42.500
0.289,-156.500,-31.000,-33.500,45.000
0.290,-153.000,-27.500,-30.000,48.500
0.291,-149.000,-23.500,-26.000,52.500
0.292,-146.000,-20.000,-22.500,56.000
0.293,-145.000,-18.000,-20.000,58.000
0.294,-145.500,-18.500,-20.000,58.000
0.295,-148.000,-20.000,-21.500,56.500
0.296,-151.000,-22.000,-23.500,54.500
0.297,-154.000,-24.500,-26.000,52.500
0.298,-157.000,-26.500,-28.000,50.500
0.299,-159.500,-29.000,-30.500,48.000
0.300,-162.000,-31.000,-32.500,46.000
0.301,-162.500,-32.000,-33.500,45.000
0.302,-161.500,-31.000,-32.500,45.500
0.303,-159.000,-29.000,-30.000,47.500
0.304,-156.500,-27.000,-28.500,49.500
0.305,-156.000,-27.500,-28.500,49.000
0.306,-158.000,-30.000,-31.500,46.500
0.307,-161.000,-33.500,-36.000,42.500
0.308,-163.500,-37.000,-39.500,39.000
0.309,-164.000,-38.000,-40.500,37.500
0.310,-162.500,-37.000,-39.500,39.000
0.311,-159.000,-33.000,-36.000,42.500
0.312,-155.000,-28.500,-31.000,47.500
0.313,-151.500,-24.000,-26.500,52.000
0.314,-149.000,-20.500,-23.500,55.500
0.315,-148.500,-19.000,-21.000,57.000
0.316,-148.500,-18.500,-20.500,58.000
0.317,-149.000,-18.500,-20.000,58.000
0.318,-150.000,-19.500,-21.000,57.500
0.319,-151.000,-20.000,-22.000,56.500
0.320,-152.000,-21.000,-23.000,55.500
0.321,-153.000,-22.000,-24.000,54.500
0.322,-154.000,-23.500,-26.000,53.000
0.323,-155.500,-25.500,-28.000,50.500
0.324,-157.500,-28.000,-30.500,48.000
0.325,-159.000,-30.500,-33.000,45.500
0.326,-160.000,-32.000,-35.500,43.000
0.327,-160.500,-33.500,-37.000,41.500
0.328,-160.500,-34.000,-38.000,40.500
0.329,-160.000,-33.500,-37.500,41.000
0.330,-158.500,-32.000,-36.500,42.000
0.331,-157.000,-30.000,-34.500,44.000
0.332,-155.500,-28.000,-32.000,46.500
0.333,-154.500,-26.500,-30.000,48.500
0.334,-155.500,-26.000,-29.500,49.000
0.335,-158.000,-28.000,-30.500,47.500
0.336,-161.500,-30.500,-33.000,45.000
0.337,-164.500,-33.500,-35.500,42.500
0.338,-166.500,-35.000,-37.000,41.000
0.339,-167.500,-36.000,-37.500,40.500
0.340,-168.000,-36.500,-38.000,40.000
0.341,-169.000,-37.500,-39.000,39.500
0.342,-169.000,-37.500,-39.000,39.500
0.343,-168.000,-37.000,-38.500,39.500
0.344,-166.500,-36.500,-38.000,40.500
0.345,-165.500,-36.000,-38.000,40.500
0.346,-165.000,-36.500,-38.500,40.000
0.347,-164.500,-37.000,-39.000,39.500
0.348,-163.500,-36.500,-39.000,39.500
0.349,-161.000,-35.000,-37.000,41.500
0.350,-158.000,-32.000,-34.000,44.500
0.351,-154.500,-28.000,-30.000,48.500
0.352,-151.500,-24.500,-26.500,52.000
0.353,-149.500,-21.500,-23.500,54.500
0.354,-148.500,-19.500,-21.500,57.000
0.355,-147.500,-18.000,-19.500,58.500
0.356,-147.500,-17.000,-18.500,60.000
0.357,-147.500,-17.500,-18.500,60.000
0.358,-150.000,-19.500,-20.500,58.000
0.359,-154.000,-23.500,-24.500,53.500
0.360,-159.000,-29.000,-30.000,47.500
0.361,-164.000,-34.500,-36.000,42.000
0.362,-168.000,-39.000,-40.000,38.000
0.363,-170.000,-41.500,-42.500,35.500
0.364,-171.000,-43.000,-44.000,33.500
0.365,-172.500,-45.000,-46.000,31.500
0.366,-174.500,-47.500,-48.500,29.000
0.367,-176.000,-49.500,-51.000,26.500
0.368,-175.500,-50.000,-51.500,26.500
0.369,-173.500,-48.500,-50.000,28.000
0.370,-169.500,-44.500,-46.000,32.000
0.371,-165.000,-40.000,-41.500,36.500
0.372,-160.500,-35.000,-37.000,41.000
0.373,-157.000,-31.000,-33.000,45.000
0.374,-156.000,-28.500,-30.500,47.000
0.375,-156.500,-28.500,-30.000,47.000
0.376,-158.500,-29.500,-31.000,46.000
0.377,-160.500,-30.500,-32.500,44.500
0.378,-161.500,-31.500,-33.000,44.000
0.379,-161.000,-30.500,-32.000,44.500
0.380,-160.000,-29.500,-31.500,45.500
0.381,-159.500,-29.500,-31.000,46.000
0.382,-160.500,-30.500,-32.000,45.000
0.383,-161.500,-32.500,-33.500,43.500
0.384,-162.500,-33.500,-35.000,42.000
0.385,-163.000,-35.000,-36.000,40.500
0.386,-163.000,-35.500,-37.000,39.500
0.387,-163.000,-36.500,-38.000,38.000
0.388,-162.500,-36.500,-38.500,37.500
0.389,-161.500,-36.000,-38.000,37.500
0.390,-160.000,-34.500,-36.500,39.000
0.391,-157.500,-32.000,-34.000,41.500
0.392,-155.000,-28.500,-30.500,44.500
0.393,-152.000,-24.500,-26.500,48.500
0.394,-149.500,-21.000,-23.000,52.000
0.395,-149.000,-19.500,-21.000,53.500
0.396,-150.000,-19.500,-21.000,53.500
0.397,-151.500,-21.000,-22.500,52.500
0.398,-152.500,-22.000,-23.000,51.500
0.399,-152.500,-21.500,-22.500,52.000
0.400,-150.500,-20.000,-20.500,53.500
0.401,-148.000,-17.500,-18.000,56.000
0.402,-145.500,-15.500,-16.000,58.000
0.403,-144.000,-14.000,-14.500,59.500
0.404,-143.000,-13.500,-14.500,59.500
0.405,-142.500,-13.500,-15.000,59.000
0.406,-142.500,-14.000,-15.500,58.500
0.407,-141.500,-14.000,-15.000,59.000
0.408,-139.000,-12.500,-13.500,60.500
0.409,-135.000,-9.500,-10.500,63.500
0.410,-130.000,-5.000,-6.500,68.000
0.411,-125.000,0.500,-1.500,73.500
0.412,-119.500,6.500,4.500,79.500
0.413,-114.000,12.500,10.500,85.000
0.414,-109.500,17.500,15.500,90.000
0.415,-107.000,21.500,19.500,93.000
0.416,-106.000,23.000,21.000,94.000
0.417,-106.500,23.000,20.500,93.000
0.418,-108.000,21.500,19.000,91.000
0.419,-109.500,19.500,17.000,88.500
0.420,-110.000,19.000,15.500,87.000
0.421,-109.500,19.000,15.500,86.500
0.422,-109.000,19.000,15.500,86.500
0.423,-110.000,17.500,13.500,85.000
0.424,-113.000,14.500,10.500,82.000
0.425,-116.500,10.000,6.000,78.500
0.426,-119.500,6.500,3.000,76.000
0.427,-121.000,4.500,1.500,75.500
0.428,-119.500,5.500,3.500,78.000
0.429,-116.500,8.500,7.500,83.000
0.430,-112.000,13.000,12.500,89.500
0.431,-107.500,18.000,18.500,96.000
0.432,-103.500,22.500,24.000,101.500
0.433,-100.500,27.000,29.000,107.000
0.434,-98.000,30.500,33.000,110.500
0.435,-97.000,32.500,35.500,112.500
0.436,-98.000,32.500,36.000,112.000
0.437,-99.500,31.500,34.500,110.500
0.438,-101.000,30.000,32.500,108.000
0.439,-101.500,29.000,31.000,106.000
0.440,-102.000,28.500,29.500,104.000
0.441,-102.500,27.500,28.000,102.000
0.442,-104.500,26.000,26.000,99.500
0.443,-107.000,23.000,22.500,96.000
0.444,-110.500,19.000,18.500,92.000
0.445,-114.000,15.000,14.500,88.000
0.446,-117.000,11.500,10.500,84.000
0.447,-119.000,8.500,7.500,81.500
0.448,-120.500,6.500,5.500,79.500
0.449,-121.500,5.000,4.000,78.000
0.450,-122.000,4.500,3.500,77.500
0.451,-121.000,5.500,4.500,78.500
0.452,-119.500,7.500,6.500,80.500
0.453,-118.000,10.000,9.000,83.000
0.454,-117.000,11.500,10.500,84.500
0.455,-118.000,11.500,11.000,85.000
0.456,-120.500,10.000,10.000,83.500
0.457,-124.500,6.500,6.500,80.500
0.458,-129.500,2.000,2.000,76.000
0.459,-135.500,-3.500,-3.500,70.500
0.460,-141.000,-9.500,-9.000,65.000
0.461,-145.500,-14.500,-14.000,60.000
0.462,-149.000,-18.500,-18.000,56.000
0.463,-152.500,-22.000,-22.000,52.000
0.464,-156.000,-26.000,-26.000,47.500
0.465,-160.000,-31.000,-31.500,42.500
0.466,-164.500,-36.000,-36.500,37.500
0.467,-168.000,-40.000,-41.000,33.000
0.468,-170.000,-43.000,-44.000,30.000
0.469,-170.000,-43.500,-45.000,29.500
0.470,-168.500,-42.000,-43.500,31.000
0.471,-165.000,-38.500,-40.000,34.500
0.472,-161.500,-34.500,-36.000,38.500
0.473,-159.000,-31.500,-32.500,41.500
0.474,-159.500,-30.500,-31.500,42.500
0.475,-161.000,-31.500,-32.000,41.500
0.476,-163.500,-33.500,-33.500,40.000
0.477,-165.500,-35.000,-35.000,38.000
0.478,-167.500,-36.500,-36.500,36.500
0.479,-169.500,-38.500,-38.000,34.500
0.480,-171.500,-40.500,-40.000,32.500
0.481,-173.000,-42.500,-41.500,30.500
0.482,-174.500,-44.500,-43.500,28.500
0.483,-176.000,-46.500,-45.000,27.000
0.484,-178.000,-49.000,-47.500,24.500
0.485,-180.000,-51.500,-50.000,21.500
0.486,-182.500,-54.500,-53.500,18.000
0.487,-185.000,-57.500,-56.500,15.000
0.488,-185.500,-59.000,-58.500,13.500
0.489,-185.000,-58.500,-58.000,14.000
0.490,-182.500,-56.500,-56.000,16.500
0.491,-179.500,-53.500,-53.000,19.500
0.492,-177.000,-50.500,-50.000,22.500
0.493,-175.500,-48.000,-47.500,24.500
0.494,-175.000,-47.000,-46.000,26.000
0.495,-176.500,-47.000,-46.500,25.500
0.496,-179.000,-49.000,-48.000,23.500
0.497,-182.500,-52.500,-50.500,21.000
0.498,-186.000,-55.500,-54.000,17.500
0.499,-189.500,-59.000,-57.000,14.500
0.500,-192.000,-62.000,-60.000,12.000
0.501,-194.000,-64.000,-62.500,9.500
0.502,-195.500,-66.000,-64.500,8.000
0.503,-196.500,-67.500,-66.000,6.500
0.504,-197.500,-69.500,-68.000,5.000
0.505,-198.500,-71.000,-69.500,3.500
0.506,-198.500,-71.500,-70.500,3.000
0.507,-196.500,-70.000,-69.500,4.000
0.508,-193.000,-67.500,-67.000,6.500
0.509,-189.500,-64.000,-63.500,10.000
0.510,-186.000,-61.000,-60.500,13.000
0.511,-184.500,-59.000,-58.500,15.000
0.512,-183.500,-57.500,-57.500,16.500
0.513,-182.500,-56.000,-55.500,18.500
0.514,-181.000,-53.500,-53.000,21.000
0.515,-180.000,-51.500,-50.500,23.500
0.516,-179.500,-50.000,-49.000,25.000
0.517,-179.500,-49.500,-48.500,25.500
0.518,-181.000,-50.500,-49.500,24.500
0.519,-184.000,-53.500,-52.000,21.500
0.520,-189.500,-59.500,-58.000,16.000
0.521,-198.000,-67.500,-66.500,7.000
0.522,-208.000,-78.000,-77.000,-4.000
0.523,-218.500,-89.000,-88.500,-15.500
0.524,-228.500,-100.000,-100.000,-27.000
0.525,-238.000,-110.500,-110.500,-37.500
0.526,-246.500,-120.000,-120.500,-47.500
0.527,-254.000,-128.000,-129.000,-56.500
0.528,-259.000,-134.000,-135.000,-62.500
0.529,-260.500,-136.000,-137.500,-65.000
0.530,-257.500,-133.000,-134.500,-62.000
0.531,-249.500,-125.000,-126.000,-54.000
0.532,-238.000,-113.000,-114.000,-41.500
0.533,-224.500,-98.500,-99.000,-26.500
0.534,-209.500,-82.000,-82.000,-9.500
0.535,-192.000,-63.500,-63.000,9.500
0.536,-172.500,-42.500,-42.000,31.000
0.537,-149.500,-19.000,-17.500,55.500
0.538,-123.000,8.500,11.000,84.000
0.539,-93.000,39.000,41.500,115.000
0.540,-61.000,71.000,74.500,148.000
0.541,-27.500,105.500,109.500,183.500
0.542,8.000,141.000,145.500,220.000
0.543,45.000,177.500,183.000,257.500
0.544,83.000,215.500,222.000,297.000
0.545,122.500,255.000,262.000,337.500
0.546,165.500,297.500,305.000,381.000
0.547,212.500,343.500,352.500,429.000
0.548,264.000,395.500,405.000,482.500
0.549,319.500,450.500,461.500,539.000
0.550,375.000,506.500,518.000,596.000
0.551,425.500,558.000,569.500,647.500
0.552,464.500,598.500,610.500,688.000
0.553,488.500,623.500,635.500,713.000
0.554,494.000,631.000,642.500,719.500
0.555,483.000,621.000,631.500,708.500
0.556,457.500,596.500,606.500,683.000
0.557,423.500,562.500,572.500,648.500
0.558,385.500,524.500,534.000,609.500
0.559,345.500,484.000,493.000,568.500
0.560,305.000,442.500,451.500,526.500
0.561,264.500,401.500,410.000,485.000
0.562,226.000,362.000,370.000,444.500
0.563,189.000,324.500,332.000,406.000
0.564,154.000,288.500,295.000,369.000
0.565,118.500,252.000,258.000,331.500
0.566,82.000,214.500,219.500,293.000
0.567,44.000,175.500,179.500,252.500
0.568,5.000,135.500,139.000,212.000
0.569,-33.000,97.500,100.500,173.000
0.570,-67.000,62.500,65.000,138.000
0.571,-96.500,33.000,35.000,107.500
0.572,-122.000,7.500,9.500,82.000
0.573,-144.000,-14.500,-12.500,60.000
0.574,-164.500,-34.000,-32.500,39.500
0.575,-184.000,-52.500,-51.000,21.000
0.576,-201.500,-70.000,-68.500,3.500
0.577,-217.000,-85.000,-83.500,-12.000
0.578,-229.000,-97.000,-96.000,-24.500
0.579,-237.500,-105.500,-104.500,-33.000
0.580,-242.000,-110.000,-109.000,-38.000
0.581,-243.500,-112.000,-110.500,-39.500
0.582,-242.000,-111.000,-110.000,-38.500
0.583,-239.500,-109.000,-108.000,-36.500
0.584,-236.500,-106.000,-105.000,-34.000
0.585,-233.500,-103.500,-103.000,-31.500
0.586,-231.000,-101.500,-101.000,-29.500
0.587,-228.000,-99.000,-99.000,-27.500
0.588,-223.500,-95.500,-95.500,-24.000
0.589,-218.000,-90.000,-90.000,-18.500
0.590,-211.000,-83.000,-83.000,-12.000
0.591,-204.500,-76.000,-76.000,-5.500
0.592,-199.500,-70.000,-70.000,0.500
0.593,-195.500,-65.000,-65.000,5.500
0.594,-192.500,-61.500,-61.000,9.000
0.595,-191.000,-58.500,-58.500,12.000
0.596,-190.000,-57.000,-56.500,13.500
0.597,-190.000,-57.000,-56.000,14.000
0.598,-191.000,-57.500,-56.500,13.500
0.599,-193.000,-59.500,-58.500,12.000
0.600,-196.500,-63.000,-61.500,9.000
0.601,-200.500,-67.500,-66.000,4.500
0.602,-205.000,-72.500,-70.500,-0.500
0.603,-209.000,-76.500,-74.500,-5.000
0.604,-211.500,-79.500,-77.500,-8.000
0.605,-212.000,-81.500,-79.500,-9.500
0.606,-212.000,-82.000,-80.500,-10.500
0.607,-211.500,-83.000,-81.500,-11.500
0.608,-211.000,-83.000,-82.000,-11.500
0.609,-210.000,-82.500,-82.000,-11.000
0.610,-208.000,-81.000,-80.000,-9.500
0.611,-205.500,-78.000,-77.500,-6.500
0.612,-202.000,-74.000,-73.500,-2.500
0.613,-199.000,-69.500,-69.000,2.000
0.614,-196.000,-66.000,-65.000,5.500
0.615,-194.500,-63.500,-63.000,8.000
0.616,-195.500,-63.500,-63.000,8.000
0.617,-198.000,-65.500,-64.500,6.500
0.618,-200.500,-67.500,-66.500,4.500
0.619,-203.000,-70.000,-69.000,2.000
0.620,-205.500,-72.500,-71.000,0.000
0.621,-208.000,-75.000,-73.500,-3.000
0.622,-210.500,-77.500,-76.000,-5.500
0.623,-212.500,-80.000,-78.500,-7.500
0.624,-213.000,-81.000,-80.000,-8.500
0.625,-212.500,-81.500,-80.500,-8.500
0.626,-211.500,-81.000,-80.500,-8.500
0.627,-211.000,-81.000,-80.500,-8.500
0.628,-210.000,-81.000,-80.500,-8.500
0.629,-209.000,-80.000,-80.000,-8.000
0.630,-207.000,-78.000,-78.500,-6.500
0.631,-204.500,-75.000,-75.500,-4.000
0.632,-201.500,-72.000,-72.000,-1.000
0.633,-199.000,-68.500,-68.500,2.500
0.634,-197.500,-66.000,-65.500,5.000
0.635,-196.500,-64.500,-64.000,6.500
0.636,-196.500,-64.500,-63.500,7.000
0.637,-197.500,-65.500,-64.000,6.000
0.638,-199.000,-66.500,-65.500,4.500
0.639,-200.500,-68.000,-66.500,4.000
0.640,-201.000,-68.500,-67.500,3.000
0.641,-202.000,-69.500,-68.000,2.500
0.642,-202.500,-70.500,-69.000,1.500
0.643,-203.500,-71.500,-70.000,0.500
0.644,-204.000,-72.500,-71.000,-1.000
0.645,-205.000,-74.000,-72.500,-2.500
0.646,-205.500,-75.000,-73.500,-4.500
0.647,-206.000,-76.000,-75.000,-5.500
0.648,-205.500,-76.500,-75.500,-6.000
0.649,-204.500,-75.500,-75.000,-5.000
0.650,-202.500,-74.000,-73.000,-3.500
0.651,-199.500,-71.500,-70.500,-0.500
0.652,-196.000,-67.500,-66.500,3.500
0.653,-193.000,-64.000,-62.500,7.000
0.654,-190.500,-61.000,-59.500,10.000
0.655,-190.500,-60.500,-58.500,11.000
0.656,-192.500,-62.000,-59.500,9.500
0.657,-195.500,-64.500,-62.000,7.000
0.658,-197.500,-67.000,-64.000,5.000
0.659,-199.000,-68.000,-65.000,4.000
0.660,-199.000,-68.000,-65.000,4.000
0.661,-198.000,-68.000,-64.500,4.500
0.662,-198.000,-68.000,-64.500,4.500
0.663,-198.500,-68.500,-65.500,3.500
0.664,-199.500,-70.500,-68.000,1.500
0.665,-202.000,-73.500,-71.000,-2.000
0.666,-205.000,-77.500,-75.000,-6.000
0.667,-207.000,-80.000,-78.000,-9.000
0.668,-207.000,-80.500,-79.000,-9.500
0.669,-204.500,-78.500,-77.000,-7.500
0.670,-201.000,-75.000,-74.000,-4.500
0.671,-197.500,-71.500,-70.000,-0.500
0.672,-194.000,-67.500,-66.000,3.500
0.673,-190.500,-63.500,-62.000,7.500
0.674,-189.000,-61.000,-59.000,10.000
0.675,-189.500,-60.500,-58.500,11.000
0.676,-191.000,-62.000,-59.000,9.500
0.677,-193.500,-64.000,-61.000,8.000
0.678,-195.500,-65.500,-62.000,6.000
0.679,-197.000,-67.000,-63.500,5.000
0.680,-198.500,-68.500,-64.500,3.500
0.681,-199.500,-69.500,-66.000,1.500
0.682,-200.500,-71.000,-67.500,0.000
0.683,-201.500,-72.000,-69.000,-1.000
0.684,-202.000,-72.500,-70.500,-2.500
0.685,-202.500,-73.500,-71.500,-4.000
0.686,-203.000,-75.000,-73.000,-5.500
0.687,-203.000,-75.500,-74.000,-6.500
0.688,-202.500,-75.500,-74.500,-6.500
0.689,-200.500,-74.500,-73.500,-5.500
0.690,-198.000,-72.000,-71.500,-3.500
0.691,-195.000,-69.000,-68.500,-0.500
0.692,-192.000,-65.500,-65.000,2.500
0.693,-190.000,-63.000,-62.000,5.500
0.694,-189.500,-61.500,-60.500,7.000
0.695,-191.000,-62.000,-60.500,6.500
0.696,-193.500,-63.500,-62.000,5.000
0.697,-196.000,-65.000,-63.500,3.500
0.698,-197.000,-65.500,-64.500,3.000
0.699,-196.500,-65.000,-64.000,3.500
0.700,-195.500,-64.000,-63.000,4.500
0.701,-194.500,-63.000,-62.000,5.000
0.702,-194.500,-63.000,-62.500,4.500
0.703,-196.000,-65.000,-65.000,2.500
0.704,-198.500,-68.500,-68.500,-1.000
0.705,-201.000,-71.500,-72.000,-4.000
0.706,-202.500,-73.500,-73.500,-6.000
0.707,-201.000,-73.000,-73.500,-6.000
0.708,-198.000,-71.000,-71.000,-4.000
0.709,-194.500,-67.500,-68.000,-1.000
0.710,-190.000,-63.500,-64.000,3.000
0.711,-186.000,-58.500,-59.500,7.500
0.712,-181.500,-53.500,-54.500,12.500
0.713,-178.000,-49.000,-50.000,17.000
0.714,-176.000,-46.000,-47.000,20.000
0.715,-176.500,-45.000,-46.000,21.000
0.716,-179.000,-47.000,-47.500,19.500
0.717,-182.500,-50.000,-50.500,16.500
0.718,-185.000,-52.500,-52.500,14.000
0.719,-186.000,-53.000,-53.500,13.500
0.720,-185.000,-52.500,-53.000,13.500
0.721,-184.000,-52.000,-52.000,14.500
0.722,-183.500,-51.500,-52.000,14.500
0.723,-184.000,-52.500,-53.500,13.000
0.724,-186.000,-55.000,-55.500,11.000
0.725,-188.500,-58.000,-59.000,7.500
0.726,-191.000,-61.500,-62.500,4.500
0.727,-193.000,-64.500,-65.000,1.500
0.728,-194.500,-66.000,-67.000,-0.500
0.729,-194.500,-67.000,-67.500,-1.500
0.730,-193.000,-65.500,-66.500,0.000
0.731,-190.000,-62.500,-63.000,3.000
0.732,-185.000,-57.500,-57.500,8.500
0.733,-180.000,-51.500,-51.500,14.500
0.734,-175.000,-46.000,-45.500,20.500
0.735,-172.000,-41.500,-41.000,25.000
0.736,-169.500,-38.500,-38.000,28.000
0.737,-168.000,-36.000,-35.500,30.500
0.738,-166.500,-34.000,-33.500,32.500
0.739,-165.500,-32.500,-32.000,34.000
0.740,-164.500,-32.000,-31.500,34.500
0.741,-165.500,-33.000,-32.500,33.000
0.742,-167.500,-36.000,-35.000,30.500
0.743,-170.000,-39.000,-38.000,28.000
0.744,-172.000,-41.500,-40.500,25.500
0.745,-173.000,-43.000,-42.500,23.500
0.746,-173.000,-44.000,-43.500,22.500
0.747,-172.000,-44.000,-43.500,22.500
0.748,-170.500,-43.000,-42.500,23.500
0.749,-168.000,-41.500,-41.000,25.500
0.750,-165.000,-38.500,-38.000,28.000
0.751,-162.000,-35.000,-34.500,31.500
0.752,-158.500,-31.500,-31.000,35.500
0.753,-156.000,-28.000,-27.000,39.500
0.754,-153.500,-25.000,-23.500,43.000
0.755,-152.000,-22.500,-21.000,45.500
0.756,-151.500,-21.000,-19.500,47.000
0.757,-151.500,-21.000,-19.500,47.500
0.758,-152.500,-21.500,-19.500,47.000
0.759,-153.000,-22.000,-20.000,46.500
0.760,-153.500,-22.500,-20.500,46.500
0.761,-153.000,-22.500,-20.000,46.500
0.762,-152.500,-22.000,-19.500,47.000
0.763,-151.500,-21.500,-19.000,47.000
0.764,-151.500,-22.000,-19.500,46.500
0.765,-152.500,-23.500,-21.000,45.000
0.766,-154.000,-26.000,-24.000,42.000
0.767,-155.500,-28.000,-26.500,40.000
0.768,-155.000,-29.000,-27.500,39.500
0.769,-153.000,-27.500,-26.000,41.000
0.770,-149.500,-24.000,-23.000,44.000
0.771,-145.000,-19.000,-18.000,49.000
0.772,-140.500,-13.500,-12.500,54.500
0.773,-135.500,-8.000,-6.000,60.500
0.774,-130.500,-2.500,0.000,66.500
0.775,-127.000,2.000,5.000,71.500
0.776,-124.500,5.500,9.000,75.000
0.777,-123.000,7.500,11.000,77.000
0.778,-123.500,7.500,11.500,77.500
0.779,-125.500,5.500,9.500,75.500
0.780,-129.000,2.000,6.000,72.000
0.781,-133.000,-2.000,2.000,68.000
0.782,-136.000,-5.500,-1.500,65.000
0.783,-138.000,-7.500,-4.000,62.500
0.784,-138.500,-8.500,-5.500,61.000
0.785,-138.500,-9.000,-6.000,60.500
0.786,-137.000,-8.000,-5.500,60.500
0.787,-134.000,-6.000,-3.500,62.500
0.788,-130.000,-2.500,-0.500,65.500
0.789,-125.500,1.500,3.500,69.000
0.790,-121.500,6.000,7.500,73.000
0.791,-118.000,9.500,11.500,76.500
0.792,-116.000,12.000,14.000,79.500
0.793,-115.000,13.500,16.000,81.000
0.794,-115.500,14.000,16.000,81.000
0.795,-117.000,13.000,15.000,80.000
0.796,-119.000,11.500,14.000,79.000
0.797,-119.000,11.500,13.500,78.500
0.798,-118.000,13.000,14.500,79.500
0.799,-115.500,15.000,16.500,81.500
0.800,-113.500,17.000,18.500,83.000
0.801,-112.500,18.000,19.000,83.000
0.802,-112.000,18.000,19.000,82.500
0.803,-112.000,17.500,17.500,81.000
0.804,-112.500,16.000,15.500,78.000
0.805,-114.500,13.500,12.000,74.500
0.806,-117.500,9.500,8.000,70.000
0.807,-120.500,5.500,4.000,65.500
0.808,-121.500,3.500,2.000,63.500
0.809,-120.500,4.000,3.000,65.000
0.810,-117.500,6.500,6.500,68.500
0.811,-114.000,10.500,11.000,73.500
0.812,-111.500,13.500,15.000,78.000
0.813,-111.500,14.500,17.500,81.000
0.814,-114.000,13.500,17.500,82.000
0.815,-118.500,11.000,15.500,80.500
0.816,-123.500,6.500,12.000,77.500
0.817,-129.000,2.000,8.000,74.000
0.818,-133.500,-2.500,4.000,70.000
0.819,-137.500,-6.500,0.500,66.000
0.820,-140.500,-9.000,-3.000,62.500
0.821,-142.000,-10.500,-4.500,59.500
0.822,-141.500,-10.500,-5.000,58.500
0.823,-140.000,-9.500,-5.000,57.500
0.824,-139.000,-9.000,-5.500,56.500
0.825,-139.500,-10.500,-7.000,54.000
0.826,-141.500,-13.500,-10.500,50.000
0.827,-144.000,-17.500,-15.000,45.500
0.828,-147.000,-21.000,-19.000,41.500
0.829,-149.000,-23.500,-21.500,39.500
0.830,-149.000,-24.000,-22.000,39.000
0.831,-147.500,-22.500,-20.500,41.000
0.832,-145.500,-19.500,-17.500,44.000
0.833,-143.000,-16.500,-14.500,46.500
0.834,-142.500,-15.000,-12.500,48.000
0.835,-144.000,-16.000,-13.000,47.500
0.836,-148.000,-19.000,-16.500,44.500
0.837,-153.000,-23.500,-20.500,40.000
0.838,-157.500,-28.000,-25.000,35.500
0.839,-160.500,-31.500,-28.000,32.500
0.840,-162.000,-33.000,-30.000,30.500
0.841,-163.000,-34.500,-31.000,29.000
0.842,-164.000,-36.000,-32.500,27.500
0.843,-166.000,-38.000,-35.000,25.500
0.844,-168.000,-40.500,-38.000,22.500
0.845,-170.500,-44.000,-41.500,19.000
0.846,-173.500,-48.000,-45.500,15.000
0.847,-176.500,-51.500,-49.500,11.500
0.848,-177.500,-53.500,-51.500,9.000
0.849,-177.000,-53.500,-51.000,9.500
0.850,-174.500,-51.000,-48.500,11.500
0.851,-170.000,-46.500,-44.000,16.000
0.852,-165.000,-41.000,-38.500,21.500
0.853,-160.000,-35.500,-33.000,26.500
0.854,-157.500,-32.000,-29.500,30.000
0.855,-157.500,-31.500,-28.500,30.500
0.856,-160.500,-33.500,-30.500,28.000
0.857,-164.000,-36.500,-34.000,25.000
0.858,-167.500,-39.000,-36.500,22.000
0.859,-169.500,-41.000,-38.500,19.500
0.860,-171.000,-42.500,-40.500,17.500
0.861,-173.000,-44.500,-42.500,15.500
0.862,-174.500,-46.500,-44.500,13.500
0.863,-176.000,-48.500,-46.000,12.000
0.864,-177.000,-50.000,-48.000,10.000
0.865,-178.000,-51.500,-49.500,8.000
0.866,-179.000,-53.000,-51.000,6.500
0.867,-179.000,-54.000,-52.000,6.000
0.868,-178.500,-54.000,-52.500,6.000
0.869,-177.500,-53.000,-52.000,7.000
0.870,-175.500,-51.500,-50.500,8.500
0.871,-174.000,-49.500,-48.000,10.500
0.872,-172.500,-47.500,-46.000,12.500
0.873,-172.500,-46.500,-45.000,14.000
0.874,-173.000,-46.000,-44.500,14.000
0.875,-175.000,-47.000,-44.500,13.500
0.876,-177.000,-48.000,-45.500,12.500
0.877,-178.000,-49.000,-46.500,12.000
0.878,-178.500,-49.000,-46.500,11.500
0.879,-178.500,-49.000,-46.500,12.000
0.880,-179.000,-49.000,-46.500,11.500
0.881,-180.000,-50.500,-48.000,10.000
0.882,-182.500,-53.000,-50.500,8.000
0.883,-184.500,-56.000,-53.000,5.000
0.884,-187.000,-58.500,-56.000,2.500
0.885,-188.500,-61.000,-59.000,-0.500
0.886,-189.500,-63.000,-61.000,-2.500
0.887,-189.500,-64.500,-62.500,-4.000
0.888,-188.500,-64.000,-63.000,-3.500
0.889,-186.000,-62.000,-61.000,-1.500
0.890,-181.500,-58.000,-57.000,2.500
0.891,-176.500,-53.000,-51.500,7.500
0.892,-172.000,-47.500,-46.500,12.500
0.893,-169.000,-43.500,-42.500,16.500
0.894,-168.000,-41.500,-40.500,18.500
0.895,-169.500,-42.000,-40.500,18.000
0.896,-172.500,-44.500,-43.000,16.000
0.897,-176.000,-47.500,-46.000,12.500
0.898,-179.000,-50.500,-48.500,10.000
0.899,-180.500,-52.000,-50.500,8.500
0.900,-181.000,-53.000,-50.500,7.500
0.901,-181.000,-53.000,-50.500,7.500
0.902,-181.000,-53.500,-51.000,7.000
0.903,-182.000,-54.500,-52.500,6.000
0.904,-184.000,-56.500,-54.500,3.500
0.905,-185.500,-58.500,-57.000,1.500
0.906,-185.000,-59.000,-57.500,0.500
0.907,-182.500,-57.000,-55.500,2.500
0.908,-178.000,-53.500,-52.000,6.000
0.909,-174.500,-50.000,-49.000,9.000
0.910,-173.500,-49.500,-48.000,10.000
0.911,-175.000,-51.000,-49.500,8.500
0.912,-177.000,-52.500,-51.000,7.000
0.913,-178.000,-52.500,-51.000,7.000
0.914,-177.500,-51.500,-50.000,8.500
0.915,-177.000,-50.500,-48.500,10.000
0.916,-177.500,-50.000,-47.500,10.500
0.917,-178.500,-51.000,-48.000,10.000
0.918,-180.500,-52.500,-49.000,9.000
0.919,-182.000,-54.000,-50.000,7.500
0.920,-182.500,-54.500,-50.500,7.000
0.921,-182.500,-55.000,-50.500,7.000
0.922,-182.000,-54.500,-50.500,7.000
0.923,-181.500,-55.000,-50.500,6.500
0.924,-181.500,-56.000,-51.500,5.500
0.925,-182.500,-57.500,-53.000,3.500
0.926,-183.500,-59.500,-55.500,1.000
0.927,-185.000,-62.000,-58.000,-2.000
0.928,-186.500,-64.000,-60.000,-4.000
0.929,-187.500,-65.000,-61.500,-5.000
0.930,-186.000,-64.000,-60.500,-4.000
0.931,-183.000,-60.500,-57.000,-1.000
0.932,-178.000,-55.000,-51.500,4.500
0.933,-173.000,-49.500,-45.500,10.500
0.934,-169.500,-44.500,-40.500,15.500
0.935,-167.500,-42.000,-38.000,18.500
0.936,-168.500,-42.000,-37.500,18.500
0.937,-170.500,-43.500,-39.000,17.000
0.938,-174.000,-46.500,-42.000,14.500
0.939,-177.000,-50.000,-45.000,11.500
0.940,-180.000,-53.000,-48.000,8.500
0.941,-182.500,-55.000,-50.500,6.500
0.942,-183.500,-56.000,-52.000,5.500
0.943,-183.500,-56.500,-52.500,4.500
0.944,-184.000,-57.000,-53.500,3.500
0.945,-185.000,-58.500,-55.000,2.000
0.946,-185.500,-60.000,-57.000,-0.500
0.947,-186.000,-61.000,-58.000,-2.000
0.948,-185.000,-60.500,-58.000,-1.500
0.949,-182.500,-58.500,-56.000,0.000
0.950,-179.000,-55.500,-53.000,3.000
0.951,-175.000,-51.500,-49.000,7.000
0.952,-171.500,-47.500,-45.000,10.500
0.953,-169.500,-44.500,-42.000,13.500
0.954,-169.000,-43.000,-40.500,15.000
0.955,-170.500,-43.000,-41.000,14.500
0.956,-173.000,-44.500,-42.500,13.000
0.957,-175.500,-46.500,-44.000,11.500
0.958,-177.500,-48.000,-45.500,10.000
0.959,-179.000,-49.500,-47.000,8.000
0.960,-180.000,-50.500,-48.500,7.000
0.961,-180.500,-51.500,-49.000,6.000
0.962,-181.000,-52.000,-49.500,5.500
0.963,-181.500,-53.000,-50.500,4.500
0.964,-183.500,-55.500,-53.500,2.000
0.965,-187.000,-59.500,-58.000,-2.500
0.966,-191.500,-65.000,-63.000,-8.000
0.967,-195.000,-70.000,-68.000,-13.000
0.968,-197.000,-72.000,-70.500,-15.500
0.969,-195.000,-71.000,-69.000,-14.000
0.970,-189.500,-66.000,-64.000,-9.000
0.971,-182.500,-58.500,-57.000,-2.500
0.972,-176.500,-52.000,-50.500,4.000
0.973,-173.000,-47.500,-46.500,8.000
0.974,-173.000,-46.500,-45.000,9.500
0.975,-175.000,-47.500,-46.000,8.500
0.976,-177.500,-49.500,-47.500,6.500
0.977,-179.500,-50.500,-49.000,5.000
0.978,-180.500,-51.000,-49.000,4.500
0.979,-180.000,-50.500,-49.000,4.500
0.980,-180.000,-50.500,-48.000,5.000
0.981,-180.000,-51.000,-48.500,4.500
0.982,-181.500,-52.500,-50.000,2.500
0.983,-184.000,-56.000,-53.000,-1.000
0.984,-188.000,-60.500,-58.000,-5.500
0.985,-191.500,-64.500,-62.000,-9.500
0.986,-193.000,-67.000,-65.000,-12.000
0.987,-192.500,-67.000,-65.000,-12.500
0.988,-190.500,-65.500,-63.500,-11.000
0.989,-187.500,-63.000,-61.000,-8.500
0.990,-184.500,-60.000,-57.500,-5.500
0.991,-180.500,-56.000,-53.500,-1.500
0.992,-176.500,-51.500,-49.000,3.000
0.993,-173.000,-47.000,-44.500,7.500
0.994,-170.500,-43.500,-41.000,11.000
0.995,-169.500,-41.500,-39.000,13.500
0.996,-170.000,-41.000,-38.000,14.000
0.997,-171.000,-41.500,-38.500,14.000
0.998,-172.500,-43.000,-39.500,12.500
0.999,-174.500,-45.000,-42.000,11.000
1.000,-177.000,-48.000,-44.500,8.500
1.001,-179.000,-50.500,-47.500,5.500
1.002,-180.500,-52.500,-49.000,4.000
1.003,-181.000,-53.000,-50.000,3.000
1.004,-180.500,-53.500,-50.500,2.500
1.005,-180.000,-53.500,-50.500,2.000
1.006,-180.000,-54.500,-52.000,1.000
1.007,-181.000,-56.500,-54.000,-1.500
1.008,-182.000,-58.000,-55.500,-3.000
1.009,-181.500,-58.500,-56.000,-3.000
1.010,-179.000,-56.000,-53.500,-1.000
1.011,-175.000,-52.500,-49.500,3.000
1.012,-172.000,-48.500,-46.000,6.500
1.013,-170.500,-46.500,-43.500,8.500
1.014,-171.000,-46.000,-43.000,9.000
1.015,-172.500,-46.500,-43.500,8.000
1.016,-174.000,-47.500,-44.500,7.000
1.017,-175.000,-48.000,-45.000,6.500
1.018,-176.000,-48.500,-45.500,5.500
1.019,-177.000,-49.500,-46.500,4.500
1.020,-178.500,-51.000,-48.000,3.000
1.021,-180.000,-52.500,-49.500,1.500
1.022,-182.000,-54.000,-51.500,-0.500
1.023,-183.500,-56.000,-53.500,-3.000
1.024,-185.500,-58.500,-56.000,-5.000
1.025,-187.000,-60.000,-58.000,-7.000
1.026,-188.000,-62.000,-59.500,-9.000
1.027,-188.000,-63.000,-61.000,-10.500
1.028,-187.500,-63.000,-61.000,-11.000
1.029,-185.000,-61.500,-59.500,-9.500
1.030,-181.500,-58.500,-56.500,-7.000
1.031,-177.500,-54.500,-52.000,-3.000
1.032,-173.500,-50.000,-47.500,1.500
1.033,-170.000,-46.000,-43.500,5.500
1.034,-168.500,-43.500,-41.000,8.000
1.035,-168.500,-42.500,-40.500,8.500
1.036,-170.500,-43.500,-41.500,8.000
1.037,-172.000,-45.000,-42.500,6.500
1.038,-173.500,-46.000,-43.500,5.500
1.039,-174.500,-46.500,-44.000,5.000
1.040,-175.000,-47.500,-45.000,4.000
1.041,-176.000,-48.500,-46.000,3.000
1.042,-178.000,-50.500,-48.000,1.000
1.043,-180.000,-53.000,-50.500,-2.000
1.044,-182.000,-56.000,-53.500,-5.000
1.045,-184.000,-58.500,-56.500,-8.000
1.046,-185.000,-60.500,-58.500,-10.000
1.047,-184.000,-60.500,-59.000,-10.000
1.048,-181.000,-58.000,-57.000,-8.000
1.049,-176.500,-54.000,-53.000,-4.500
1.050,-171.000,-48.500,-48.000,0.500
1.051,-166.000,-43.000,-43.000,6.000
1.052,-161.500,-37.500,-37.500,11.500
1.053,-157.000,-32.000,-32.000,16.500
1.054,-153.500,-27.500,-27.000,21.000
1.055,-151.500,-24.500,-24.000,24.500
1.056,-150.500,-23.000,-22.000,26.000
1.057,-150.500,-22.000,-21.000,27.000
1.058,-149.500,-21.500,-20.000,28.000
1.059,-148.000,-19.500,-18.500,29.500
1.060,-145.000,-17.000,-15.500,32.500
1.061,-142.000,-13.500,-12.500,35.500
1.062,-140.000,-12.000,-11.000,37.000
1.063,-139.500,-12.000,-11.000,36.500
1.064,-141.000,-14.000,-13.000,34.500
1.065,-142.500,-16.000,-15.500,32.000
1.066,-143.500,-18.000,-17.500,30.000
1.067,-143.500,-18.500,-18.500,29.500
1.068,-142.000,-18.000,-17.500,30.000
1.069,-139.000,-15.500,-15.500,32.500
1.070,-135.500,-12.500,-12.500,35.500
1.071,-132.500,-9.000,-9.000,38.500
1.072,-129.500,-6.000,-5.500,42.000
1.073,-127.000,-2.000,-1.500,46.000
1.074,-124.000,2.000,2.500,50.000
1.075,-122.000,5.500,6.000,53.500
1.076,-120.500,7.500,8.000,55.500
1.077,-121.000,8.000,8.500,55.500
1.078,-122.000,7.000,8.000,55.000
1.079,-123.000,6.500,7.500,54.000
1.080,-123.000,6.000,7.000,53.500
1.081,-123.000,5.500,6.500,53.000
1.082,-123.500,5.000,6.000,52.500
1.083,-123.500,4.500,5.500,51.500
1.084,-124.500,3.000,4.000,50.000
1.085,-125.000,2.000,3.000,49.000
1.086,-125.000,0.500,1.500,48.000
1.087,-124.000,0.500,1.500,48.000
1.088,-121.500,2.500,3.000,49.500
1.089,-118.000,5.500,6.000,53.000
1.090,-113.500,10.000,10.000,57.000
1.091,-109.000,15.000,15.000,62.000
1.092,-105.000,19.500,19.500,66.000
1.093,-101.500,23.000,23.500,70.000
1.094,-100.000,25.500,26.500,72.500
1.095,-100.500,26.000,27.000,73.000
1.096,-103.000,24.000,25.000,71.000
1.097,-107.500,20.000,21.500,67.000
1.098,-112.500,15.500,16.500,62.500
1.099,-117.500,10.500,11.500,57.500
1.100,-122.500,5.500,7.000,53.000
1.101,-127.000,1.000,2.000,48.500
1.102,-131.000,-4.000,-2.500,44.000
1.103,-135.000,-8.000,-6.500,39.500
1.104,-137.500,-12.000,-10.000,36.000
1.105,-139.500,-14.500,-12.000,33.500
1.106,-140.500,-16.000,-14.000,31.500
1.107,-141.000,-17.500,-15.000,30.000
1.108,-141.000,-18.500,-16.000,29.500
1.109,-141.500,-19.000,-17.000,29.000
1.110,-142.000,-19.500,-17.500,28.500
1.111,-142.500,-20.000,-18.000,28.000
1.112,-143.500,-20.500,-18.500,28.000
1.113,-144.500,-20.500,-18.000,28.000
1.114,-145.500,-20.500,-18.000,28.000
1.115,-147.500,-22.000,-19.500,26.500
1.116,-151.500,-25.500,-22.500,23.500
1.117,-157.000,-30.500,-27.500,18.500
1.118,-163.000,-36.500,-33.000,13.000
1.119,-168.500,-42.000,-38.000,7.500
1.120,-172.500,-46.500,-42.500,2.500
1.121,-176.000,-50.500,-46.000,-1.500
1.122,-178.500,-54.000,-49.500,-5.000
1.123,-180.500,-56.500,-52.000,-7.500
1.124,-181.500,-58.500,-54.000,-9.000
1.125,-182.500,-60.000,-55.500,-11.000
1.126,-184.000,-62.500,-58.000,-13.500
1.127,-186.000,-65.500,-61.000,-16.000
1.128,-187.000,-67.500,-63.500,-18.500
1.129,-187.500,-68.500,-64.500,-19.000
1.130,-186.000,-67.500,-63.500,-18.000
1.131,-183.500,-64.500,-61.000,-15.500
1.132,-180.000,-60.000,-56.500,-11.500
1.133,-176.000,-55.500,-52.000,-6.500
1.134,-173.000,-51.500,-48.000,-2.500
1.135,-171.500,-49.000,-45.500,0.000
1.136,-172.000,-49.000,-45.500,0.000
1.137,-174.500,-51.000,-47.500,-2.000
1.138,-178.000,-54.000,-50.500,-5.500
1.139,-181.500,-57.500,-53.500,-8.500
1.140,-185.000,-61.000,-57.000,-12.000
1.141,-189.000,-65.000,-61.000,-16.000
1.142,-193.000,-69.000,-65.000,-20.000
1.143,-197.000,-73.500,-69.500,-24.500
1.144,-200.500,-77.500,-74.000,-29.000
1.145,-203.500,-81.000,-77.500,-33.000
1.146,-205.000,-83.500,-80.000,-35.500
1.147,-205.000,-84.000,-81.000,-36.500
1.148,-203.500,-84.000,-81.000,-36.500
1.149,-201.500,-82.500,-79.500,-35.000
1.150,-198.500,-80.000,-77.000,-32.500
1.151,-195.000,-76.000,-73.500,-29.000
1.152,-190.500,-71.000,-68.000,-24.000
1.153,-186.000,-65.500,-63.000,-18.500
1.154,-183.500,-62.000,-59.000,-15.000
1.155,-183.500,-61.000,-58.000,-14.000
1.156,-186.000,-62.500,-60.000,-16.000
1.157,-190.000,-65.500,-63.500,-19.000
1.158,-194.000,-69.500,-67.000,-22.500
1.159,-197.500,-72.500,-70.000,-26.000
1.160,-200.000,-75.000,-72.500,-28.500
1.161,-201.500,-77.000,-74.000,-30.000
1.162,-202.500,-78.500,-75.500,-32.000
1.163,-204.000,-80.000,-77.500,-33.500
1.164,-205.000,-82.000,-79.000,-35.500
1.165,-206.500,-83.500,-81.000,-37.000
1.166,-207.000,-85.000,-82.500,-39.000
1.167,-207.000,-86.000,-83.500,-39.500
1.168,-205.500,-85.500,-83.000,-39.000
1.169,-203.500,-83.500,-81.500,-37.500
1.170,-201.000,-81.000,-79.000,-35.000
1.171,-198.500,-78.000,-76.000,-32.500
1.172,-197.000,-76.000,-74.000,-30.500
1.173,-198.000,-76.000,-74.000,-31.000
1.174,-202.000,-79.500,-77.500,-34.500
1.175,-210.000,-86.500,-84.500,-41.500
1.176,-220.000,-96.500,-94.500,-51.500
1.177,-230.500,-107.000,-105.000,-62.000
1.178,-240.500,-117.000,-115.000,-72.000
1.179,-248.500,-125.000,-123.000,-80.500
1.180,-254.000,-131.500,-129.500,-87.000
1.181,-258.000,-135.500,-134.000,-91.500
1.182,-259.500,-137.000,-136.000,-93.500
1.183,-258.000,-136.000,-135.000,-92.500
1.184,-254.000,-132.000,-132.000,-89.000
1.185,-247.500,-126.000,-126.000,-83.500
1.186,-238.500,-118.000,-118.000,-76.000
1.187,-227.000,-107.500,-108.000,-66.000
1.188,-212.500,-93.500,-94.500,-53.000
1.189,-193.500,-75.000,-76.000,-35.000
1.190,-168.500,-50.500,-52.000,-11.000
1.191,-138.500,-20.000,-22.000,19.500
1.192,-104.000,15.000,13.500,55.000
1.193,-67.500,53.000,52.000,94.000
1.194,-30.500,91.500,91.500,134.000
1.195,6.500,129.500,131.000,173.500
1.196,42.000,166.500,169.500,212.500
1.197,77.500,203.000,207.500,251.500
1.198,114.000,240.000,246.500,292.000
1.199,153.000,279.500,288.000,334.500
1.200,195.500,323.000,333.500,381.000
1.201,242.500,370.000,383.000,431.500
1.202,292.500,421.000,435.500,484.500
1.203,342.500,471.500,487.500,537.000
1.204,387.500,517.000,533.500,583.000
1.205,421.500,551.000,567.500,617.000
1.206,440.500,570.000,586.000,634.500
1.207,443.500,573.000,588.000,635.500
1.208,433.000,562.000,575.500,622.000
1.209,412.000,541.000,552.500,598.000
1.210,385.000,513.000,523.500,568.500
1.211,354.000,482.500,491.500,535.500
1.212,322.000,450.500,458.500,502.000
1.213,289.000,417.500,425.000,468.000
1.214,255.000,384.000,391.000,434.000
1.215,220.000,350.000,356.500,399.500
1.216,185.000,315.000,321.500,364.000
1.217,149.500,279.500,286.000,328.000
1.218,113.500,243.500,249.500,291.000
1.219,76.500,206.500,212.500,253.500
1.220,39.500,169.000,174.500,215.500
1.221,3.000,132.500,137.500,178.000
1.222,-32.000,97.000,101.500,142.000
1.223,-64.500,64.000,68.000,108.500
1.224,-93.500,34.000,38.000,78.000
1.225,-120.000,6.500,10.500,50.000
1.226,-143.500,-18.500,-15.000,25.000
1.227,-164.500,-40.500,-37.000,2.500
1.228,-182.000,-59.000,-56.500,-17.000
1.229,-197.000,-74.500,-72.000,-33.000
1.230,-209.000,-87.000,-85.000,-46.000
1.231,-219.000,-96.500,-95.500,-56.000
1.232,-226.000,-103.000,-102.000,-62.500
1.233,-230.000,-106.000,-105.000,-65.500
1.234,-230.500,-105.500,-104.500,-65.000
1.235,-228.500,-102.500,-101.500,-62.000
1.236,-225.500,-99.000,-97.500,-58.500
1.237,-223.000,-96.000,-94.500,-55.500
1.238,-220.500,-93.500,-92.000,-53.000
1.239,-218.500,-91.500,-89.500,-51.000
1.240,-216.500,-89.500,-87.500,-49.000
1.241,-214.500,-87.000,-85.000,-46.500
1.242,-211.500,-84.500,-82.500,-44.000
1.243,-209.000,-82.000,-80.000,-41.500
1.244,-206.500,-80.000,-78.500,-40.000
1.245,-205.500,-79.500,-78.000,-40.000
1.246,-205.000,-80.000,-78.500,-40.500
1.247,-205.000,-80.500,-80.000,-41.500
1.248,-205.000,-81.000,-81.000,-43.000
1.249,-205.000,-81.500,-82.000,-43.500
1.250,-204.500,-81.500,-82.000,-44.000
1.251,-203.500,-80.500,-80.500,-43.000
1.252,-201.500,-78.000,-78.000,-40.500
1.253,-198.500,-74.500,-74.500,-36.500
1.254,-196.000,-71.500,-70.500,-33.000
1.255,-194.500,-69.000,-68.000,-30.500
1.256,-195.500,-68.500,-67.500,-30.000
1.257,-197.500,-70.000,-69.000,-32.000
1.258,-200.500,-72.500,-71.500,-34.500
1.259,-203.500,-75.500,-74.500,-37.500
1.260,-206.500,-78.500,-77.500,-40.500
1.261,-209.000,-81.500,-80.500,-43.500
1.262,-212.000,-84.500,-83.500,-46.500
1.263,-214.000,-87.500,-86.000,-49.500
1.264,-216.000,-90.000,-88.500,-52.000
1.265,-218.000,-92.000,-91.000,-54.500
1.266,-219.500,-94.500,-94.000,-57.000
1.267,-221.000,-96.500,-96.000,-59.000
1.268,-221.000,-97.500,-97.000,-60.000
1.269,-219.500,-97.000,-97.000,-59.500
1.270,-218.000,-95.500,-95.500,-58.000
1.271,-216.000,-93.000,-93.000,-56.000
1.272,-212.500,-89.000,-89.000,-52.000
1.273,-207.000,-83.500,-83.000,-46.000
1.274,-201.500,-76.500,-76.000,-39.000
1.275,-197.000,-71.000,-70.500,-34.000
1.276,-195.500,-68.500,-68.000,-31.500
1.277,-197.500,-69.500,-68.500,-32.500
1.278,-201.500,-73.500,-72.000,-36.000
1.279,-206.000,-77.500,-76.500,-40.500
1.280,-209.000,-81.000,-79.500,-43.500
1.281,-210.500,-82.500,-81.000,-45.000
1.282,-210.500,-83.500,-82.000,-45.500
1.283,-211.000,-84.500,-82.500,-46.000
1.284,-211.500,-85.500,-83.500,-47.000
1.285,-211.500,-86.500,-85.000,-48.500
1.286,-212.000,-87.500,-86.000,-49.500
1.287,-212.500,-89.000,-87.500,-51.000
1.288,-212.500,-90.000,-88.500,-52.500
1.289,-212.500,-90.000,-89.000,-52.500
1.290,-210.500,-88.000,-87.000,-51.000
1.291,-206.500,-84.000,-83.500,-47.500
1.292,-202.000,-79.000,-78.500,-42.500
1.293,-198.000,-74.000,-73.500,-37.000
1.294,-195.000,-70.000,-69.000,-33.000
1.295,-194.000,-68.500,-67.000,-31.500
1.296,-195.500,-69.000,-67.500,-32.000
1.297,-198.500,-71.500,-69.500,-34.500
1.298,-202.000,-75.000,-73.000,-38.000
1.299,-205.500,-78.500,-76.000,-41.000
1.300,-208.000,-81.500,-79.000,-44.000
1.301,-210.000,-83.500,-81.000,-46.500
1.302,-211.500,-85.500,-83.000,-48.500
1.303,-213.500,-87.500,-85.000,-50.500
1.304,-215.500,-90.000,-87.000,-53.000
1.305,-217.500,-92.000,-89.500,-56.000
1.306,-219.500,-95.000,-92.500,-58.500
1.307,-221.000,-97.000,-95.000,-61.000
1.308,-222.000,-99.000,-96.500,-63.000
1.309,-221.500,-98.500,-96.500,-62.500
1.310,-218.500,-96.000,-94.500,-60.000
1.311,-214.000,-91.000,-90.000,-55.500
1.312,-208.000,-84.500,-83.500,-49.000
1.313,-202.000,-78.000,-77.000,-42.500
1.314,-197.500,-72.500,-71.500,-37.000
1.315,-195.000,-69.500,-68.000,-33.500
1.316,-194.500,-68.500,-66.500,-32.000
1.317,-195.500,-68.500,-66.500,-32.500
1.318,-197.000,-70.000,-68.000,-34.000
1.319,-200.000,-72.500,-70.000,-36.500
1.320,-203.000,-75.500,-73.000,-39.500
1.321,-206.000,-79.000,-76.000,-42.500
1.322,-208.000,-81.000,-78.000,-45.000
1.323,-209.500,-83.000,-80.000,-46.500
1.324,-210.000,-84.000,-81.000,-48.000
1.325,-211.000,-85.500,-82.500,-49.500
1.326,-212.500,-87.500,-85.000,-51.500
1.327,-213.500,-90.000,-87.500,-54.000
1.328,-214.000,-91.000,-89.000,-55.500
1.329,-213.500,-91.000,-89.000,-55.500
1.330,-211.500,-89.500,-87.500,-54.000
1.331,-209.000,-87.000,-85.000,-51.500
1.332,-206.000,-83.500,-82.000,-48.000
1.333,-203.000,-79.500,-78.000,-44.500
1.334,-200.500,-76.000,-74.500,-41.000
1.335,-199.500,-74.000,-72.000,-39.000
1.336,-200.000,-74.000,-72.000,-39.000
1.337,-202.500,-76.000,-73.500,-40.500
1.338,-204.500,-78.000,-75.000,-42.000
1.339,-206.000,-79.500,-76.500,-43.500
1.340,-207.000,-80.500,-78.000,-44.500
1.341,-208.500,-82.500,-80.000,-46.500
1.342,-210.500,-84.500,-82.000,-48.500
1.343,-212.000,-86.000,-83.500,-50.000
1.344,-212.500,-86.500,-84.000,-50.500
1.345,-211.500,-86.000,-84.000,-50.500
1.346,-211.000,-86.000,-84.000,-51.000
1.347,-211.000,-86.500,-84.500,-51.500
1.348,-211.000,-88.000,-86.000,-52.500
1.349,-210.500,-88.000,-86.000,-52.500
1.350,-208.500,-86.500,-84.500,-51.000
1.351,-205.000,-83.000,-81.000,-47.500
1.352,-201.000,-79.000,-76.500,-43.500
1.353,-198.000,-75.000,-72.500,-40.000
1.354,-196.000,-71.500,-69.500,-36.500
1.355,-194.500,-69.500,-67.000,-34.000
1.356,-194.000,-67.500,-65.000,-32.500
1.357,-193.500,-67.000,-64.000,-31.500
1.358,-194.500,-67.000,-64.000,-31.500
1.359,-196.000,-68.500,-65.500,-32.500
1.360,-198.500,-71.000,-68.000,-35.000
1.361,-201.500,-74.500,-71.000,-38.000
1.362,-204.500,-77.500,-74.500,-41.500
1.363,-206.500,-80.000,-77.000,-43.500
1.364,-207.000,-81.500,-78.000,-45.000
1.365,-206.500,-82.000,-78.500,-45.500
1.366,-206.500,-82.500,-79.500,-46.500
1.367,-206.000,-83.000,-80.000,-47.000
1.368,-205.000,-83.000,-79.500,-47.000
1.369,-202.500,-81.000,-78.000,-45.500
1.370,-199.000,-77.500,-74.500,-42.000
1.371,-194.000,-72.500,-69.500,-37.000
1.372,-189.000,-67.000,-64.000,-31.000
1.373,-185.000,-61.500,-58.500,-26.000
1.374,-182.000,-57.500,-54.500,-21.500
1.375,-180.000,-54.500,-51.500,-18.500
1.376,-179.500,-53.000,-49.500,-16.500
1.377,-180.000,-53.000,-50.000,-16.500
1.378,-182.500,-55.500,-52.000,-18.500
1.379,-186.500,-59.500,-56.000,-22.500
1.380,-190.500,-63.500,-60.000,-26.500
1.381,-193.000,-66.500,-63.000,-29.500
1.382,-194.500,-68.000,-64.500,-31.000
1.383,-195.000,-69.000,-65.500,-32.000
1.384,-195.000,-69.500,-66.000,-32.500
1.385,-195.000,-70.000,-67.000,-33.000
1.386,-194.500,-70.500,-67.500,-33.500
1.387,-193.000,-70.000,-67.000,-33.000
1.388,-190.000,-68.000,-65.000,-31.000
1.389,-187.000,-66.000,-62.500,-28.500
1.390,-184.500,-63.500,-60.500,-26.000
1.391,-182.000,-61.500,-58.000,-23.500
1.392,-179.500,-59.000,-55.000,-20.500
1.393,-176.500,-55.500,-51.000,-17.000
1.394,-173.500,-52.000,-47.000,-13.000
1.395,-171.500,-49.000,-44.000,-10.000
1.396,-170.500,-47.000,-42.000,-8.000
1.397,-170.000,-46.000,-41.000,-7.000
1.398,-170.000,-46.000,-41.000,-6.500
1.399,-169.500,-45.500,-40.500,-6.000
1.400,-169.000,-45.500,-40.500,-5.500
1.401,-169.000,-45.500,-40.000,-5.500
1.402,-168.500,-45.500,-40.000,-5.000
1.403,-168.000,-45.500,-40.500,-5.500
1.404,-168.000,-46.500,-41.000,-6.000
1.405,-168.000,-47.500,-42.000,-7.000
1.406,-169.000,-49.000,-44.000,-9.000
1.407,-170.000,-51.000,-46.000,-11.000
1.408,-169.000,-51.000,-46.500,-11.000
1.409,-166.500,-49.500,-44.500,-9.000
1.410,-162.500,-45.500,-40.500,-5.000
1.411,-157.000,-40.000,-35.000,0.500
1.412,-151.000,-33.500,-29.000,7.000
1.413,-145.500,-27.000,-22.500,13.500
1.414,-141.000,-21.500,-17.000,19.500
1.415,-139.000,-18.000,-13.500,23.000
1.416,-138.500,-17.000,-12.000,24.500
1.417,-140.000,-17.500,-12.500,24.000
1.418,-142.500,-19.500,-14.000,22.500
1.419,-144.500,-21.500,-16.000,20.500
1.420,-146.000,-23.000,-17.500,18.500
1.421,-147.500,-25.000,-19.000,17.000
1.422,-148.500,-26.500,-20.500,15.500
1.423,-149.500,-28.000,-22.000,14.000
1.424,-150.500,-29.500,-23.500,13.000
1.425,-151.000,-30.500,-25.000,11.500
1.426,-151.500,-31.500,-26.000,10.500
1.427,-150.500,-31.000,-25.500,10.500
1.428,-148.500,-29.500,-24.000,12.000
1.429,-144.500,-26.000,-20.500,15.000
1.430,-139.500,-21.000,-16.000,20.000
1.431,-133.500,-15.000,-10.000,25.500
1.432,-128.000,-9.000,-4.000,32.000
1.433,-122.500,-3.000,2.000,38.000
1.434,-119.000,1.500,6.500,42.500
1.435,-117.000,4.500,9.500,45.500
1.436,-117.000,5.500,11.000,46.500
1.437,-117.500,5.500,11.000,46.500
1.438,-118.500,4.500,10.500,46.000
1.439,-119.000,4.000,10.000,45.500
1.440,-119.500,4.000,10.000,45.500
1.441,-119.000,4.000,10.500,46.000
1.442,-119.000,4.000,10.500,45.500
1.443,-119.500,3.000,9.500,44.500
1.444,-120.500,1.500,8.000,43.000
1.445,-122.000,-0.500,6.500,40.500
1.446,-123.000,-2.000,4.500,38.500
1.447,-123.000,-2.500,3.500,37.500
1.448,-121.000,-1.500,4.500,38.000
1.449,-118.000,1.000,6.500,40.500
1.450,-114.500,4.500,9.500,44.000
1.451,-111.000,8.000,13.000,47.500
1.452,-108.500,11.500,16.500,50.500
1.453,-106.000,15.000,20.000,54.000
1.454,-103.000,18.500,24.000,57.500
1.455,-101.000,22.000,27.500,61.000
1.456,-99.500,24.500,30.000,63.500
1.457,-99.500,24.500,30.500,63.500
1.458,-101.500,23.000,29.000,62.000
1.459,-104.500,20.000,26.500,59.500
1.460,-107.500,17.000,23.000,56.500
1.461,-110.500,14.000,19.500,53.000
1.462,-113.500,10.500,16.000,50.000
1.463,-117.000,6.500,12.500,46.000
1.464,-120.000,3.000,8.500,42.500
1.465,-123.000,-1.000,4.500,38.500
1.466,-125.500,-4.000,1.500,35.000
1.467,-127.000,-6.000,-1.500,32.500
1.468,-127.000,-7.500,-3.000,31.000
1.469,-126.500,-7.500,-3.500,30.500
1.470,-125.000,-6.000,-2.500,31.500
1.471,-122.500,-4.000,0.000,34.000
1.472,-119.500,0.000,4.000,37.500
1.473,-116.500,3.500,7.500,41.500
1.474,-115.500,6.000,10.000,43.500
1.475,-117.000,5.500,9.500,42.500
1.476,-121.000,2.500,6.500,39.500
1.477,-125.500,-2.000,2.500,35.500
1.478,-130.000,-5.500,-1.500,31.500
1.479,-133.000,-9.000,-5.000,28.500
1.480,-135.500,-11.500,-7.500,26.000
1.481,-137.500,-13.500,-9.500,23.500
1.482,-139.500,-15.500,-11.500,21.500
1.483,-141.000,-17.000,-14.000,19.500
1.484,-143.000,-19.500,-16.500,17.000
1.485,-145.000,-22.000,-19.000,14.500
1.486,-147.000,-25.000,-22.500,11.000
1.487,-149.000,-28.000,-25.500,7.500
1.488,-151.000,-30.500,-29.000,4.500
1.489,-153.000,-33.500,-31.500,1.500
1.490,-155.500,-35.500,-34.000,-1.000
1.491,-157.500,-37.500,-36.000,-3.000
1.492,-158.500,-38.500,-37.000,-4.000
1.493,-158.500,-37.500,-36.000,-3.000
1.494,-157.000,-35.000,-33.500,-0.500
1.495,-155.500,-33.000,-31.000,2.000
1.496,-155.500,-32.000,-30.000,3.000
1.497,-157.000,-33.000,-30.500,2.000
1.498,-159.500,-35.500,-32.500,0.000
1.499,-162.000,-37.500,-34.500,-2.500
1.500,-164.000,-39.500,-36.000,-4.000
1.501,-165.500,-41.500,-37.500,-6.000
1.502,-167.500,-43.500,-39.500,-8.000
1.503,-170.000,-46.500,-42.500,-10.500
1.504,-172.500,-49.500,-45.500,-13.500
1.505,-174.500,-52.000,-49.000,-16.500
1.506,-176.500,-54.500,-51.500,-19.000
1.507,-177.500,-56.500,-54.000,-21.500
1.508,-178.500,-58.000,-55.500,-23.000
1.509,-178.000,-58.000,-56.000,-23.000
1.510,-177.000,-57.500,-55.000,-22.500
1.511,-175.000,-55.500,-53.000,-20.500
1.512,-172.000,-52.000,-49.000,-16.500
1.513,-168.500,-48.000,-45.000,-12.500
1.514,-167.000,-45.500,-42.500,-10.000
1.515,-168.500,-46.000,-42.500,-10.000
1.516,-172.000,-48.500,-45.500,-12.500
1.517,-176.000,-52.000,-49.000,-16.500
1.518,-179.500,-55.000,-52.000,-19.500
1.519,-182.000,-57.500,-54.500,-22.500
1.520,-184.000,-59.500,-56.500,-24.000
1.521,-185.500,-61.000,-58.000,-26.000
1.522,-187.000,-63.000,-59.500,-27.500
1.523,-188.000,-64.500,-61.500,-29.000
1.524,-189.500,-66.000,-63.500,-31.000
1.525,-190.000,-67.500,-65.000,-32.500
1.526,-190.000,-68.500,-66.000,-33.500
1.527,-189.500,-68.000,-66.500,-34.000
1.528,-187.500,-67.500,-65.500,-33.500
1.529,-185.500,-66.000,-64.500,-32.000
1.530,-183.500,-64.000,-62.500,-30.000
1.531,-181.000,-61.500,-60.000,-27.500
1.532,-178.000,-58.000,-56.500,-24.000
1.533,-175.000,-54.500,-53.000,-20.000
1.534,-173.000,-51.000,-49.500,-17.000
1.535,-172.500,-49.500,-47.500,-15.000
1.536,-174.500,-50.000,-48.000,-16.000
1.537,-178.500,-53.500,-51.000,-19.500
1.538,-183.000,-57.500,-55.000,-23.000
1.539,-185.500,-60.000,-57.500,-25.500
1.540,-185.500,-60.000,-57.500,-25.500
1.541,-183.500,-58.000,-55.000,-23.000
1.542,-180.500,-56.000,-52.500,-20.500
1.543,-179.000,-55.000,-51.500,-19.500
1.544,-180.000,-56.500,-53.000,-21.000
1.545,-183.000,-59.500,-56.500,-24.500
1.546,-186.500,-63.500,-60.500,-28.500
1.547,-189.000,-67.000,-64.000,-32.000
1.548,-190.000,-69.000,-66.000,-34.000
1.549,-189.500,-69.000,-66.000,-34.000
1.550,-187.500,-67.000,-64.500,-32.500
1.551,-184.000,-63.500,-60.500,-28.500
1.552,-179.500,-58.500,-56.000,-23.500
1.553,-175.500,-53.500,-51.000,-18.500
1.554,-172.500,-49.500,-47.000,-14.500
1.555,-171.500,-47.500,-45.000,-12.500
1.556,-173.000,-48.000,-45.500,-13.000
1.557,-175.500,-50.500,-47.500,-15.500
1.558,-179.000,-53.500,-50.000,-18.000
1.559,-181.500,-56.000,-52.500,-20.500
1.560,-183.500,-58.000,-54.500,-22.500
1.561,-184.500,-58.500,-55.500,-23.500
1.562,-184.000,-58.500,-55.500,-23.000
1.563,-183.500,-58.000,-55.000,-22.500
1.564,-182.500,-58.000,-55.000,-22.500
1.565,-183.000,-58.500,-56.000,-23.500
1.566,-183.500,-60.500,-58.000,-26.000
1.567,-184.000,-62.000,-60.000,-27.500
1.568,-183.500,-62.000,-61.000,-28.500
1.569,-181.500,-61.000,-60.000,-27.500
1.570,-178.500,-58.500,-58.000,-25.500
1.571,-175.500,-55.500,-55.500,-23.000
1.572,-172.500,-52.500,-52.000,-20.000
1.573,-169.500,-49.000,-49.000,-17.000
1.574,-167.500,-46.500,-47.000,-15.000
1.575,-168.000,-46.000,-47.000,-15.500
1.576,-170.500,-48.000,-49.000,-17.500
1.577,-173.500,-50.500,-52.000,-20.500
1.578,-175.500,-52.500,-54.500,-23.500
1.579,-177.000,-54.000,-56.500,-25.500
1.580,-178.500,-55.500,-57.500,-26.500
1.581,-179.500,-57.000,-58.500,-27.500
1.582,-180.000,-58.000,-59.500,-27.500
1.583,-181.000,-59.500,-60.000,-27.500
1.584,-182.500,-61.000,-61.000,-28.000
1.585,-185.000,-64.500,-63.000,-29.500
1.586,-188.500,-68.000,-66.000,-31.500
1.587,-191.000,-71.500,-68.500,-33.500
1.588,-192.500,-73.500,-70.000,-34.500
1.589,-192.000,-73.000,-69.000,-33.500
1.590,-189.000,-70.500,-66.000,-31.000
1.591,-185.000,-66.000,-61.500,-26.500
1.592,-180.500,-61.000,-56.500,-22.000
1.593,-176.000,-55.500,-51.000,-17.000
1.594,-171.500,-50.500,-46.000,-13.000
1.595,-169.500,-47.000,-43.000,-11.000
1.596,-169.500,-46.500,-43.500,-11.500
1.597,-172.500,-49.000,-46.500,-15.500
1.598,-177.000,-53.500,-51.000,-20.000
1.599,-180.000,-56.500,-54.500,-24.000
1.600,-181.000,-57.500,-55.500,-25.000
1.601,-180.500,-57.000,-55.000,-25.000
1.602,-179.500,-56.000,-54.000,-24.000
1.603,-179.000,-55.500,-54.000,-24.000
1.604,-180.000,-57.000,-55.500,-25.500
1.605,-182.500,-60.000,-59.000,-28.500
1.606,-185.500,-64.000,-63.000,-32.500
1.607,-188.000,-67.500,-66.500,-36.000
1.608,-189.000,-69.000,-68.500,-38.000
1.609,-187.500,-68.500,-67.500,-37.000
1.610,-184.000,-65.000,-64.000,-33.500
1.611,-178.500,-59.500,-58.000,-28.000
1.612,-172.500,-53.000,-51.500,-21.500
1.613,-167.500,-47.500,-46.000,-16.000
1.614,-164.500,-43.500,-41.500,-12.000
1.615,-164.000,-41.500,-39.500,-10.000
1.616,-165.500,-43.000,-40.500,-11.000
1.617,-169.500,-46.000,-43.500,-14.000
1.618,-173.500,-50.000,-47.000,-17.500
1.619,-177.000,-53.500,-50.500,-21.000
1.620,-179.500,-55.500,-52.500,-23.000
1.621,-180.500,-57.000,-53.500,-24.500
1.622,-181.000,-58.000,-55.000,-25.500
1.623,-182.500,-59.500,-56.500,-27.500
1.624,-183.500,-61.500,-58.500,-29.500
1.625,-185.000,-63.500,-60.500,-31.500
1.626,-186.000,-65.500,-62.500,-33.500
1.627,-186.000,-66.000,-63.500,-34.500
1.628,-185.000,-65.500,-63.000,-34.000
1.629,-183.500,-64.000,-62.000,-32.500
1.630,-181.500,-62.000,-60.000,-31.000
1.631,-179.000,-59.500,-58.000,-28.500
1.632,-176.000,-56.000,-54.500,-25.000
1.633,-173.000,-51.500,-50.000,-21.000
1.634,-170.000,-48.000,-46.500,-17.000
1.635,-169.500,-46.500,-44.500,-15.500
1.636,-171.500,-47.500,-45.000,-16.000
1.637,-175.000,-50.500,-47.500,-18.500
1.638,-178.000,-53.000,-50.000,-21.500
1.639,-179.500,-54.000,-51.000,-22.500
1.640,-179.500,-54.000,-51.000,-22.500
1.641,-179.500,-54.000,-51.000,-22.500
1.642,-179.500,-54.500,-52.000,-23.000
1.643,-181.000,-56.000,-54.000,-25.000
1.644,-183.000,-58.500,-56.500,-28.000
1.645,-185.000,-61.000,-59.000,-30.500
1.646,-186.500,-63.000,-61.500,-33.000
1.647,-187.500,-65.000,-63.500,-35.000
1.648,-187.500,-66.000,-64.500,-36.000
1.649,-187.000,-65.500,-64.500,-36.000
1.650,-185.000,-64.000,-63.000,-34.500
1.651,-182.500,-61.000,-60.500,-31.500
1.652,-179.000,-57.000,-57.000,-27.500
1.653,-176.000,-53.000,-52.500,-23.500
1.654,-173.000,-49.500,-49.000,-20.000
1.655,-172.000,-47.000,-46.500,-17.500
1.656,-171.500,-46.000,-45.500,-16.500
1.657,-172.000,-46.000,-45.500,-16.500
1.658,-172.500,-46.500,-45.500,-16.500
1.659,-174.000,-47.500,-46.500,-17.500
1.660,-175.500,-49.500,-48.500,-19.500
1.661,-178.000,-52.000,-51.000,-22.000
1.662,-181.000,-55.000,-54.000,-25.000
1.663,-184.000,-58.500,-57.500,-28.500
1.664,-186.500,-62.000,-60.500,-31.500
1.665,-188.000,-64.000,-62.500,-34.000
1.666,-188.500,-65.000,-64.000,-35.500
1.667,-188.000,-65.500,-65.000,-36.000
1.668,-187.000,-65.000,-64.500,-36.000
1.669,-184.500,-63.000,-63.500,-34.500
1.670,-181.500,-60.500,-60.500,-32.000
1.671,-177.500,-56.500,-57.000,-28.000
1.672,-173.500,-52.000,-52.500,-23.500
1.673,-169.000,-47.000,-47.000,-18.500
1.674,-166.000,-42.500,-42.500,-14.000
1.675,-163.500,-39.500,-39.000,-11.000
1.676,-163.500,-38.500,-38.000,-9.500
1.677,-165.000,-39.500,-38.500,-10.500
1.678,-168.000,-42.000,-40.500,-13.000
1.679,-171.000,-45.000,-43.500,-16.000
1.680,-173.000,-47.000,-45.500,-18.500
1.681,-174.500,-48.500,-47.000,-19.500
1.682,-176.000,-50.000,-48.500,-21.500
1.683,-178.000,-52.500,-51.000,-24.000
1.684,-181.000,-55.500,-54.500,-27.500
1.685,-184.000,-59.500,-58.500,-31.000
1.686,-187.000,-63.000,-62.000,-34.500
1.687,-188.000,-65.500,-65.000,-37.500
1.688,-188.000,-66.500,-66.000,-38.000
1.689,-186.000,-65.000,-64.500,-36.500
1.690,-181.500,-61.000,-60.500,-32.500
1.691,-175.000,-55.000,-54.000,-26.500
1.692,-169.000,-48.000,-47.000,-20.000
1.693,-164.000,-42.500,-41.500,-14.500
1.694,-161.500,-39.000,-38.000,-11.000
1.695,-161.500,-38.000,-36.500,-9.500
1.696,-162.500,-38.500,-36.500,-10.000
1.697,-165.000,-40.000,-37.500,-11.000
1.698,-167.000,-41.500,-39.000,-12.000
1.699,-169.000,-43.000,-41.000,-13.500
1.700,-171.000,-45.000,-42.500,-15.500
1.701,-173.000,-47.000,-44.500,-17.000
1.702,-174.000,-48.500,-46.000,-19.000
1.703,-175.000,-49.500,-47.000,-20.000
1.704,-175.500,-50.500,-48.000,-21.500
1.705,-176.000,-51.500,-49.000,-22.500
1.706,-176.500,-52.500,-50.500,-23.500
1.707,-176.500,-53.000,-51.000,-24.500
1.708,-175.500,-53.000,-51.000,-24.500
1.709,-173.500,-51.500,-50.000,-23.000
1.710,-170.000,-48.500,-47.000,-20.500
1.711,-165.500,-44.000,-42.500,-16.500
1.712,-161.000,-39.000,-37.500,-11.500
1.713,-156.000,-33.500,-32.000,-6.000
1.714,-152.500,-28.500,-27.000,-1.000
1.715,-149.500,-25.000,-23.000,3.000
1.716,-148.000,-22.500,-20.000,5.500
1.717,-147.000,-21.500,-18.500,7.000
1.718,-146.500,-20.500,-17.500,8.000
1.719,-146.000,-19.500,-16.500,9.000
1.720,-145.000,-18.500,-15.500,10.500
1.721,-143.500,-17.000,-14.000,12.000
1.722,-142.500,-16.500,-13.000,12.500
1.723,-142.500,-16.500,-13.500,12.000
1.724,-144.000,-18.500,-15.500,10.000
1.725,-146.500,-21.500,-18.500,6.500
1.726,-149.000,-24.500,-21.500,3.500
1.727,-149.500,-25.500,-23.000,2.000
1.728,-147.500,-24.500,-22.000,2.500
1.729,-144.000,-21.500,-19.000,5.000
1.730,-139.000,-17.000,-14.000,10.000
1.731,-132.500,-11.000,-8.000,16.000
1.732,-126.500,-5.000,-1.500,22.000
1.733,-121.500,0.500,4.500,27.500
1.734,-118.500,4.500,8.500,32.000
1.735,-117.000,7.000,11.000,34.000
1.736,-117.500,7.500,11.500,35.000
1.737,-119.000,7.500,11.500,34.500
1.738,-120.000,7.000,11.000,34.000
1.739,-120.000,7.000,11.000,34.500
1.740,-119.500,8.000,12.000,35.500
1.741,-118.500,8.500,13.000,36.500
1.742,-118.000,9.000,13.500,37.000
1.743,-117.500,9.500,13.500,37.000
1.744,-117.500,9.000,13.000,36.500
1.745,-118.500,7.500,11.500,35.000
1.746,-120.000,5.000,9.000,32.500
1.747,-123.500,1.500,5.000,28.500
1.748,-126.500,-2.500,1.000,25.000
1.749,-127.500,-4.500,-1.000,23.000
1.750,-126.000,-3.000,0.500,24.500
1.751,-122.000,1.500,5.000,29.000
1.752,-116.000,8.000,11.000,35.500
1.753,-110.000,15.000,18.000,43.000
1.754,-105.000,20.500,24.000,49.000
1.755,-102.500,23.500,27.000,52.000
1.756,-104.000,23.000,27.000,51.500
1.757,-107.000,20.000,24.000,49.000
1.758,-111.500,16.000,20.500,45.000
1.759,-115.500,12.000,16.500,41.000
1.760,-119.000,8.500,13.000,37.500
1.761,-122.000,5.500,10.000,35.000
1.762,-124.500,3.000,7.000,32.000
1.763,-127.500,-0.500,4.000,29.000
1.764,-130.500,-4.000,0.500,25.500
1.765,-134.000,-8.000,-4.000,21.500
1.766,-137.500,-12.000,-8.500,17.000
1.767,-140.000,-15.500,-12.500,13.500
1.768,-141.500,-18.000,-14.500,11.500
1.769,-141.000,-19.000,-15.500,10.500
1.770,-140.000,-18.000,-15.000,11.000
1.771,-138.500,-16.500,-13.500,12.500
1.772,-137.000,-14.500,-11.000,14.500
1.773,-136.000,-13.000,-9.500,16.000
1.774,-136.500,-12.500,-9.000,16.000
1.775,-140.000,-15.000,-11.500,13.500
1.776,-146.000,-20.000,-17.000,8.500
1.777,-153.000,-26.500,-23.500,2.000
1.778,-159.500,-33.000,-29.000,-4.000
1.779,-163.500,-37.000,-33.000,-7.500
1.780,-166.000,-39.500,-34.500,-9.500
1.781,-167.500,-41.000,-36.000,-11.000
1.782,-169.000,-43.000,-38.000,-13.000
1.783,-171.500,-45.500,-40.500,-16.000
1.784,-174.500,-49.000,-44.000,-19.500
1.785,-178.500,-53.500,-49.000,-24.500
1.786,-183.000,-58.500,-54.000,-30.000
1.787,-186.000,-63.000,-58.500,-35.000
1.788,-188.000,-66.000,-61.500,-38.000
1.789,-188.000,-67.000,-62.500,-39.000
1.790,-186.500,-66.000,-62.000,-38.500
1.791,-184.000,-64.000,-59.500,-36.500
1.792,-181.000,-60.500,-55.500,-33.000
1.793,-177.500,-56.500,-51.500,-29.000
1.794,-174.500,-52.500,-47.000,-25.000
1.795,-172.500,-49.500,-44.000,-22.500
1.796,-172.500,-48.500,-43.000,-21.500
1.797,-173.500,-49.500,-43.500,-22.500
1.798,-176.000,-51.500,-45.500,-24.500
1.799,-179.000,-54.500,-48.500,-27.500
1.800,-182.500,-57.500,-51.500,-30.000
1.801,-185.000,-60.000,-54.000,-32.500
1.802,-186.500,-62.000,-55.500,-34.500
1.803,-187.000,-62.500,-56.000,-35.000
1.804,-186.000,-62.500,-56.000,-35.000
1.805,-185.000,-62.000,-55.500,-35.000
1.806,-184.500,-62.500,-56.000,-35.500
1.807,-185.000,-63.500,-57.500,-37.000
1.808,-186.000,-65.000,-59.500,-39.000
1.809,-186.500,-66.000,-60.500,-39.500
1.810,-185.000,-65.000,-59.500,-38.500
1.811,-182.000,-61.500,-56.500,-35.000
1.812,-177.000,-56.500,-51.000,-30.000
1.813,-172.000,-50.500,-45.000,-23.500
1.814,-168.000,-45.500,-40.000,-18.500
1.815,-167.000,-43.500,-37.500,-16.000
1.816,-169.500,-44.500,-38.500,-17.500
1.817,-174.000,-48.500,-42.000,-21.500
1.818,-179.500,-53.500,-47.000,-26.500
1.819,-183.500,-57.500,-51.000,-31.000
1.820,-186.000,-60.500,-53.500,-33.500
1.821,-186.500,-61.500,-54.500,-34.500
1.822,-186.000,-61.000,-54.500,-34.500
1.823,-184.000,-59.500,-53.500,-33.000
1.824,-182.500,-58.500,-52.000,-32.000
1.825,-181.500,-58.000,-52.000,-32.000
1.826,-183.000,-59.500,-54.000,-34.000
1.827,-185.000,-62.500,-57.500,-37.000
1.828,-187.000,-65.000,-60.000,-40.000
1.829,-187.000,-66.000,-61.000,-41.000
1.830,-186.000,-65.500,-60.500,-40.500
1.831,-184.500,-64.000,-59.000,-39.500
1.832,-184.500,-63.000,-58.500,-39.000
1.833,-186.000,-64.500,-59.500,-40.000
1.834,-189.500,-67.500,-62.500,-43.000
1.835,-195.500,-72.500,-67.000,-47.500
1.836,-202.500,-78.500,-73.000,-54.000
1.837,-209.500,-85.000,-79.500,-60.500
1.838,-216.000,-91.500,-86.500,-67.000
1.839,-222.000,-97.000,-92.500,-72.500
1.840,-227.000,-102.500,-97.500,-77.500
1.841,-231.500,-107.000,-103.000,-82.500
1.842,-236.000,-111.500,-107.500,-87.000
1.843,-239.500,-115.500,-111.500,-91.000
1.844,-241.000,-117.500,-113.500,-93.000
1.845,-240.000,-116.500,-112.500,-93.000
1.846,-235.500,-112.500,-109.000,-89.000
1.847,-227.000,-105.000,-101.000,-81.000
1.848,-213.000,-92.000,-87.500,-68.000
1.849,-194.000,-73.500,-69.000,-49.000
1.850,-169.500,-49.500,-44.500,-24.000
1.851,-141.000,-20.500,-15.500,5.500
1.852,-109.000,12.000,18.000,39.000
1.853,-75.500,47.000,53.500,75.000
1.854,-40.500,83.000,90.000,112.000
1.855,-4.500,120.000,127.500,150.000
1.856,31.000,157.000,165.000,187.500
1.857,67.500,194.000,203.000,225.500
1.858,104.500,232.500,241.500,264.500
1.859,144.500,272.500,282.500,305.500
1.860,187.500,316.000,326.500,350.500
1.861,234.500,363.000,374.000,398.500
1.862,283.500,412.000,424.000,449.000
1.863,331.500,460.500,473.000,498.500
1.864,375.000,503.500,517.000,542.500
1.865,408.500,537.000,550.500,576.000
1.866,428.500,556.500,570.000,595.500
1.867,434.500,562.000,575.000,600.000
1.868,426.500,553.500,566.000,590.500
1.869,408.000,534.500,546.000,570.000
1.870,382.000,507.500,518.500,542.500
1.871,351.500,477.500,487.000,511.000
1.872,320.000,446.000,455.000,479.000
1.873,289.000,415.500,424.000,447.500
1.874,258.500,386.000,394.000,417.000
1.875,228.500,356.500,364.500,387.000
1.876,198.500,327.500,334.500,357.000
1.877,168.500,297.500,304.500,326.500
1.878,138.000,267.000,273.500,295.500
1.879,106.500,234.500,241.000,262.500
1.880,72.500,200.500,206.000,228.000
1.881,37.000,164.500,170.000,191.500
1.882,1.500,129.000,134.000,155.000
1.883,-31.500,95.000,100.000,121.000
1.884,-61.500,64.500,69.500,89.500
1.885,-88.000,37.000,41.500,62.000
1.886,-111.500,12.500,16.500,36.500
1.887,-132.500,-9.500,-6.000,14.500
1.888,-150.500,-28.500,-25.500,-5.000
1.889,-165.000,-44.000,-41.500,-20.500
1.890,-176.500,-55.500,-53.500,-32.500
1.891,-184.500,-64.000,-62.000,-41.500
1.892,-190.500,-70.000,-68.000,-47.500
1.893,-194.500,-74.000,-71.500,-51.500
1.894,-197.000,-75.500,-73.000,-53.000
1.895,-197.500,-75.500,-72.500,-53.500
1.896,-197.500,-75.000,-72.000,-52.500
1.897,-198.000,-74.500,-71.000,-52.500
1.898,-198.500,-74.500,-71.000,-52.500
1.899,-198.500,-74.000,-70.500,-52.500
1.900,-197.000,-72.500,-69.000,-51.000
1.901,-193.500,-69.500,-66.000,-48.000
1.902,-189.000,-65.500,-62.000,-44.000
1.903,-185.000,-61.500,-58.500,-40.000
1.904,-182.500,-59.500,-56.500,-38.000
1.905,-182.000,-59.500,-57.000,-38.500
1.906,-184.000,-62.000,-60.500,-41.500
1.907,-188.000,-67.000,-65.500,-46.000
1.908,-192.500,-72.000,-70.500,-51.500
1.909,-195.500,-75.500,-74.500,-55.500
1.910,-195.500,-76.000,-75.000,-56.000
1.911,-193.500,-74.000,-73.000,-54.000
1.912,-190.000,-70.000,-69.000,-50.500
1.913,-187.000,-66.000,-65.000,-46.500
1.914,-185.500,-63.500,-62.500,-44.000
1.915,-184.500,-61.500,-60.000,-41.500
1.916,-184.000,-60.000,-58.500,-40.000
1.917,-182.500,-58.000,-56.000,-37.500
1.918,-180.500,-55.500,-53.500,-35.000
1.919,-179.500,-54.000,-52.500,-33.500
1.920,-180.000,-55.000,-53.000,-34.000
1.921,-182.500,-57.000,-55.500,-36.500
1.922,-184.500,-59.500,-58.000,-39.000
1.923,-186.500,-61.500,-60.000,-41.000
1.924,-187.500,-63.500,-62.500,-43.500
1.925,-189.500,-66.000,-65.000,-46.000
1.926,-192.000,-69.500,-68.500,-49.500
1.927,-194.500,-72.000,-71.500,-52.500
1.928,-194.500,-73.000,-73.000,-53.500
1.929,-193.000,-72.000,-72.000,-52.500
1.930,-190.000,-70.000,-69.500,-50.000
1.931,-187.000,-67.000,-66.500,-47.500
1.932,-184.000,-64.000,-63.500,-44.500
1.933,-181.500,-60.500,-60.000,-41.500
1.934,-179.000,-57.500,-57.000,-38.500
1.935,-178.000,-56.000,-55.000,-36.500
1.936,-179.000,-55.500,-54.500,-36.000
1.937,-181.000,-57.000,-56.000,-37.000
1.938,-183.500,-59.500,-58.000,-39.000
1.939,-186.000,-62.000,-60.500,-41.000
1.940,-187.500,-64.000,-62.000,-42.500
1.941,-188.500,-65.500,-63.000,-44.000
1.942,-189.500,-66.500,-63.500,-44.500
1.943,-189.500,-67.000,-64.500,-45.000
1.944,-190.000,-67.500,-65.000,-46.500
1.945,-191.000,-69.000,-66.500,-48.000
1.946,-192.000,-71.000,-68.500,-50.000
1.947,-192.500,-72.000,-70.500,-51.500
1.948,-192.000,-72.000,-70.500,-52.000
1.949,-189.500,-70.500,-69.500,-50.500
1.950,-186.500,-67.500,-67.000,-47.500
1.951,-183.000,-64.000,-64.000,-44.000
1.952,-180.500,-61.000,-61.000,-41.000
1.953,-179.000,-59.000,-59.000,-39.000
1.954,-179.000,-58.000,-58.000,-38.000
1.955,-180.000,-58.000,-58.000,-38.500
1.956,-181.500,-59.500,-59.500,-40.000
1.957,-183.500,-61.000,-60.500,-41.500
1.958,-184.500,-61.500,-61.500,-43.000
1.959,-184.500,-61.500,-62.000,-43.500
1.960,-184.000,-61.000,-61.500,-43.500
1.961,-183.500,-61.000,-62.000,-44.000
1.962,-183.500,-61.000,-62.500,-45.000
1.963,-184.000,-61.500,-64.000,-46.500
1.964,-184.000,-62.500,-65.000,-48.000
1.965,-184.000,-63.000,-66.500,-49.500
1.966,-184.500,-64.000,-68.000,-50.500
1.967,-185.000,-65.500,-69.500,-51.500
1.968,-185.500,-66.500,-70.000,-52.000
1.969,-185.500,-67.000,-70.000,-51.000
1.970,-185.000,-66.500,-68.500,-49.000
1.971,-184.000,-65.500,-66.500,-46.000
1.972,-183.000,-64.000,-64.000,-43.000
1.973,-182.000,-62.500,-61.500,-39.500
1.974,-182.000,-61.500,-59.000,-37.000
1.975,-182.500,-61.000,-58.000,-35.500
1.976,-184.000,-62.000,-58.000,-36.000
1.977,-186.000,-63.000,-59.500,-37.500
1.978,-188.500,-64.500,-60.500,-39.500
1.979,-190.000,-66.000,-62.000,-41.500
1.980,-190.500,-66.500,-62.500,-43.000
1.981,-191.000,-66.500,-63.500,-44.500
1.982,-190.500,-66.500,-64.000,-45.500
1.983,-190.000,-66.500,-65.000,-46.500
1.984,-189.500,-66.000,-65.500,-47.500
1.985,-188.000,-65.500,-65.500,-47.500
1.986,-186.500,-64.500,-64.500,-47.000
1.987,-183.500,-62.500,-62.500,-45.000
1.988,-180.000,-60.000,-60.000,-42.500
1.989,-176.500,-57.000,-57.000,-39.000
1.990,-175.000,-55.500,-55.500,-38.000
1.991,-176.500,-56.500,-57.000,-39.000
1.992,-179.500,-59.500,-59.500,-41.500
1.993,-182.000,-61.000,-61.000,-43.500
1.994,-181.500,-60.000,-59.500,-42.000
1.995,-178.000,-56.000,-55.500,-38.000
1.996,-174.500,-51.500,-51.000,-33.500
1.997,-172.500,-48.500,-48.000,-30.500
1.998,-172.500,-48.000,-47.000,-29.500
1.999,-173.500,-48.500,-48.000,-30.500
2.000,-175.500,-50.500,-49.500,-32.000
2.001,-177.500,-53.000,-52.000,-34.000
2.002,-180.000,-55.500,-54.500,-36.500
2.003,-182.500,-58.000,-57.500,-39.000
2.004,-184.500,-60.500,-60.000,-42.000
2.005,-186.000,-62.500,-62.500,-44.500
2.006,-187.500,-65.000,-65.000,-47.000
2.007,-188.000,-66.000,-67.000,-48.500
2.008,-187.500,-66.500,-67.500,-49.500
2.009,-186.000,-65.500,-66.500,-48.500
2.010,-183.000,-63.000,-64.000,-46.000
2.011,-179.500,-59.000,-60.000,-42.500
2.012,-175.500,-54.500,-55.500,-37.500
2.013,-171.500,-50.000,-51.000,-32.500
2.014,-168.000,-45.500,-46.000,-27.500
2.015,-165.500,-42.000,-42.500,-23.500
2.016,-164.500,-40.000,-40.500,-21.000
2.017,-164.500,-39.000,-39.500,-20.500
2.018,-165.500,-40.000,-39.500,-21.000
2.019,-167.500,-41.500,-41.000,-22.500
2.020,-170.000,-43.500,-43.500,-25.000
2.021,-172.500,-46.000,-46.000,-27.500
2.022,-175.000,-48.500,-48.500,-30.000
2.023,-176.500,-50.500,-50.500,-31.500
2.024,-177.500,-52.000,-52.000,-33.000
2.025,-178.500,-53.500,-53.500,-35.000
2.026,-179.500,-55.500,-55.500,-37.000
2.027,-180.500,-57.500,-57.500,-38.500
2.028,-180.000,-58.000,-58.000,-39.500
2.029,-178.000,-56.000,-56.000,-37.500
2.030,-173.500,-52.000,-52.000,-33.500
2.031,-168.000,-46.500,-46.500,-28.000
2.032,-163.000,-40.500,-41.000,-22.500
2.033,-159.000,-36.000,-36.000,-18.000
2.034,-157.000,-33.000,-33.500,-15.000
2.035,-157.000,-32.000,-32.000,-14.000
2.036,-158.000,-32.000,-32.000,-13.500
2.037,-159.000,-32.500,-32.500,-14.000
2.038,-159.500,-32.500,-32.000,-13.500
2.039,-159.500,-32.000,-32.000,-13.500
2.040,-159.500,-32.500,-31.500,-13.000
2.041,-159.500,-32.500,-32.000,-13.500
2.042,-160.000,-33.000,-32.500,-14.000
2.043,-160.000,-33.500,-32.500,-14.500
2.044,-160.000,-34.000,-33.000,-15.000
2.045,-160.500,-35.500,-34.000,-16.500
2.046,-161.000,-37.000,-36.000,-18.000
2.047,-162.500,-39.500,-38.000,-20.500
2.048,-163.500,-41.500,-40.000,-22.500
2.049,-163.500,-42.000,-40.500,-23.500
2.050,-162.000,-40.500,-39.500,-22.000
2.051,-159.000,-37.500,-36.500,-19.000
2.052,-154.500,-33.000,-32.000,-14.500
2.053,-150.000,-27.500,-26.000,-8.500
2.054,-145.000,-21.500,-20.500,-3.000
2.055,-141.500,-17.000,-15.500,2.000
2.056,-139.500,-14.000,-12.500,4.500
2.057,-140.500,-14.000,-12.500,4.500
2.058,-142.000,-15.000,-13.500,3.000
2.059,-143.500,-16.000,-14.500,2.000
2.060,-144.000,-17.000,-15.500,1.000
2.061,-145.000,-18.000,-16.500,0.000
2.062,-146.000,-19.500,-17.500,-1.500
2.063,-146.500,-20.500,-18.500,-2.500
2.064,-147.000,-21.000,-19.000,-3.000
2.065,-147.000,-21.500,-19.500,-3.500
2.066,-147.500,-22.500,-21.000,-5.000
2.067,-147.500,-24.000,-22.000,-6.500
2.068,-147.000,-24.000,-22.500,-6.500
2.069,-144.000,-21.500,-20.500,-4.500
2.070,-140.000,-17.500,-16.000,-0.500
2.071,-134.500,-12.500,-11.000,5.000
2.072,-128.500,-6.500,-5.000,11.000
2.073,-123.000,-0.500,1.500,17.500
2.074,-118.000,5.000,7.000,23.000
2.075,-114.500,9.500,12.000,28.000
2.076,-112.500,12.500,15.000,31.000
2.077,-112.000,14.000,16.500,32.500
2.078,-112.000,14.500,17.500,33.000
2.079,-113.000,14.000,17.000,32.500
2.080,-114.500,12.500,15.500,31.000
2.081,-116.500,10.500,13.500,29.500
2.082,-118.000,9.000,11.500,28.000
2.083,-118.500,8.000,11.000,27.000
2.084,-118.500,8.000,10.500,27.000
2.085,-118.000,8.000,10.500,27.000
2.086,-116.500,8.500,11.000,27.500
2.087,-113.500,10.500,13.000,29.500
2.088,-109.000,14.500,17.000,33.500
2.089,-104.000,18.500,21.000,37.500
2.090,-100.500,21.500,24.000,40.500
2.091,-100.000,22.000,25.000,41.500
2.092,-99.500,22.500,25.500,42.000
2.093,-98.500,24.500,27.500,43.500
2.094,-96.000,28.000,31.000,47.000
2.095,-93.500,32.000,35.000,51.000
2.096,-92.000,34.000,37.500,53.000
2.097,-92.000,34.500,38.000,54.000
2.098,-93.000,34.000,37.500,53.500
2.099,-94.000,33.000,36.500,53.000
2.100,-94.500,32.500,36.000,52.500
2.101,-95.000,32.000,35.500,52.000
2.102,-95.000,31.500,34.500,51.500
2.103,-95.000,31.500,34.000,51.000
2.104,-95.000,31.000,33.000,50.500
2.105,-95.000,30.500,32.000,49.000
2.106,-95.500,29.500,31.000,47.500
2.107,-95.000,29.500,30.500,47.000
2.108,-93.500,30.500,31.000,47.500
2.109,-90.500,33.000,33.500,50.000
2.110,-86.500,36.500,36.500,53.500
2.111,-82.000,41.000,41.000,58.000
2.112,-77.500,45.500,46.000,63.000
2.113,-73.000,50.500,51.000,68.000
2.114,-69.500,55.000,55.500,72.500
2.115,-67.500,58.000,59.000,75.000
2.116,-67.500,58.500,60.000,76.000
2.117,-69.000,58.000,59.000,75.000
2.118,-71.500,56.000,57.500,73.500
2.119,-73.500,54.500,55.500,71.500
2.120,-75.500,52.500,53.500,69.000
2.121,-77.000,50.500,51.500,67.000
2.122,-79.500,48.000,48.500,64.500
2.123,-82.000,44.500,45.500,61.000
2.124,-85.000,41.000,41.500,57.000
2.125,-88.000,37.500,37.500,53.500
2.126,-90.500,34.500,34.500,50.000
2.127,-93.000,31.500,31.000,47.000
2.128,-95.000,28.000,27.500,43.500
2.129,-98.000,24.500,23.500,39.500
2.130,-99.500,22.000,21.000,37.500
2.131,-98.500,23.000,22.000,38.500
2.132,-95.000,27.000,26.500,42.500
2.133,-90.500,32.500,31.500,48.000
2.134,-87.500,37.000,35.500,52.000
2.135,-87.000,38.500,37.000,53.500
2.136,-89.000,37.500,36.000,52.500
2.137,-92.500,34.000,32.500,49.000
2.138,-97.000,30.000,28.500,44.500
2.139,-102.000,25.000,23.500,39.500
2.140,-106.500,20.000,18.500,35.000
2.141,-110.500,16.000,14.500,30.500
2.142,-113.500,13.000,11.000,27.500
2.143,-115.000,10.500,9.000,25.000
2.144,-116.500,8.500,7.000,23.000
2.145,-118.000,6.000,4.000,20.000
2.146,-120.500,2.500,0.500,16.000
2.147,-123.500,-1.500,-3.500,12.000
2.148,-126.000,-5.000,-7.000,8.500
2.149,-126.500,-5.500,-8.000,7.500
2.150,-123.000,-3.000,-5.500,10.000
2.151,-117.500,2.500,0.500,15.500
2.152,-111.500,9.000,7.000,22.000
2.153,-106.500,14.500,13.000,27.500
2.154,-103.500,18.000,17.000,31.500
2.155,-103.500,19.000,18.000,32.500
2.156,-106.000,17.000,17.000,31.000
2.157,-111.000,12.500,12.500,26.500
2.158,-118.500,6.000,6.000,19.500
2.159,-126.000,-1.500,-1.000,12.000
2.160,-132.500,-7.500,-7.000,6.000
2.161,-136.000,-11.500,-11.000,2.000
2.162,-138.000,-13.500,-13.000,-1.000
2.163,-139.500,-15.500,-15.500,-3.000
2.164,-142.000,-18.500,-18.500,-6.500
2.165,-145.000,-22.000,-22.500,-10.500
2.166,-148.500,-26.500,-27.000,-15.000
2.167,-152.000,-30.500,-31.000,-19.500
2.168,-154.000,-34.000,-34.500,-23.000
2.169,-155.500,-36.000,-36.500,-25.000
2.170,-155.500,-36.500,-37.000,-25.500
2.171,-154.000,-35.000,-36.000,-24.000
2.172,-151.000,-32.000,-32.500,-20.500
2.173,-146.500,-27.000,-27.500,-15.000
2.174,-141.500,-21.000,-21.000,-9.000
2.175,-137.500,-16.000,-16.000,-4.000
2.176,-136.000,-13.500,-13.000,-1.500
2.177,-136.500,-13.500,-13.000,-1.500
2.178,-138.500,-15.000,-14.000,-2.500
2.179,-140.000,-17.000,-16.000,-4.500
2.180,-142.000,-18.500,-17.500,-6.500
2.181,-143.000,-20.000,-19.000,-8.000
2.182,-143.500,-21.000,-20.000,-9.000
2.183,-144.000,-22.000,-21.000,-9.500
2.184,-145.500,-23.500,-22.500,-11.500
2.185,-148.000,-26.500,-26.000,-14.500
2.186,-151.500,-30.500,-30.500,-19.000
2.187,-154.500,-34.000,-34.500,-23.000
2.188,-155.000,-36.000,-36.500,-24.500
2.189,-153.500,-34.500,-35.500,-23.000
2.190,-149.000,-30.500,-31.500,-19.000
2.191,-143.500,-24.500,-26.000,-13.000
2.192,-138.000,-19.000,-20.000,-7.500
2.193,-135.000,-14.500,-16.000,-3.000
2.194,-133.000,-12.000,-13.000,-0.500
2.195,-133.000,-10.500,-11.500,1.000
2.196,-134.500,-11.500,-12.500,0.000
2.197,-138.500,-14.000,-15.000,-2.500
2.198,-143.000,-18.500,-19.500,-7.000
2.199,-148.000,-23.500,-24.000,-11.500
2.200,-151.500,-27.000,-28.000,-15.500
2.201,-154.500,-30.000,-30.500,-18.000
2.202,-156.000,-32.000,-32.000,-19.500
2.203,-156.500,-32.500,-33.000,-20.000
2.204,-155.500,-32.500,-33.000,-20.000
2.205,-154.500,-32.000,-33.000,-19.500
2.206,-154.000,-32.000,-33.000,-20.000
2.207,-154.000,-32.500,-34.500,-21.000
2.208,-155.000,-34.000,-36.000,-23.000
2.209,-155.500,-35.000,-37.500,-24.000
2.210,-155.000,-35.000,-37.500,-24.000
2.211,-153.500,-34.000,-36.000,-22.500
2.212,-152.000,-32.000,-34.000,-20.500
2.213,-150.500,-30.000,-32.000,-18.500
2.214,-149.500,-28.000,-30.000,-16.500
2.215,-148.500,-26.000,-28.000,-14.500
2.216,-148.000,-24.500,-26.500,-13.000
2.217,-147.500,-23.000,-25.000,-11.500
2.218,-147.000,-22.500,-24.500,-11.000
2.219,-147.000,-22.500,-24.000,-10.500
2.220,-147.500,-22.500,-24.000,-11.000
2.221,-148.500,-23.500,-25.000,-11.500
2.222,-150.000,-25.500,-27.000,-13.500
2.223,-152.500,-28.000,-29.500,-16.000
2.224,-155.000,-31.000,-32.500,-19.000
2.225,-157.500,-34.000,-36.000,-22.500
2.226,-160.000,-37.500,-39.500,-26.000
2.227,-162.000,-40.000,-42.500,-28.500
2.228,-161.500,-41.000,-43.000,-29.500
2.229,-159.000,-39.000,-41.000,-27.500
2.230,-154.500,-35.000,-37.000,-23.000
2.231,-150.000,-30.000,-32.000,-18.500
2.232,-146.500,-26.500,-28.500,-15.000
2.233,-145.500,-25.000,-26.500,-13.000
2.234,-145.500,-24.000,-25.500,-12.000
2.235,-145.500,-23.000,-24.500,-11.000
2.236,-145.000,-22.000,-23.000,-10.000
2.237,-144.500,-21.000,-22.000,-9.000
2.238,-145.500,-21.500,-22.500,-9.500
2.239,-148.000,-23.500,-24.500,-11.500
2.240,-151.000,-27.000,-27.500,-14.500
2.241,-154.000,-30.000,-31.000,-17.500
2.242,-156.000,-32.000,-33.000,-20.000
2.243,-156.500,-33.000,-34.500,-21.000
2.244,-156.500,-33.500,-35.000,-21.500
2.245,-156.500,-34.000,-36.000,-22.500
2.246,-157.500,-36.000,-38.000,-24.500
2.247,-159.000,-38.000,-40.500,-27.000
2.248,-159.500,-40.000,-42.500,-29.000
2.249,-159.500,-40.500,-43.500,-30.000
2.250,-157.500,-39.000,-42.000,-28.500
2.251,-154.500,-35.500,-39.000,-25.500
2.252,-149.500,-30.500,-33.500,-20.500
2.253,-143.500,-23.500,-27.000,-13.500
2.254,-137.500,-16.500,-20.000,-6.500
2.255,-134.000,-12.000,-15.000,-2.000
2.256,-133.000,-10.000,-13.500,-0.500
2.257,-134.500,-11.000,-14.000,-1.000
2.258,-137.500,-13.000,-16.000,-3.500
2.259,-141.000,-16.500,-19.000,-6.500
2.260,-144.500,-19.500,-22.000,-9.500
2.261,-147.000,-22.000,-24.000,-12.000
2.262,-148.000,-23.500,-25.500,-13.500
2.263,-149.000,-24.500,-26.500,-14.500
2.264,-149.000,-25.500,-27.500,-15.500
2.265,-149.500,-26.000,-28.500,-16.500
2.266,-150.500,-28.000,-30.500,-18.500
2.267,-152.500,-30.500,-33.000,-21.500
2.268,-154.000,-32.500,-35.500,-23.500
2.269,-154.000,-33.000,-36.500,-24.000
2.270,-152.500,-32.000,-35.000,-23.000
2.271,-149.500,-28.500,-32.000,-19.500
2.272,-145.500,-24.000,-27.500,-15.000
2.273,-141.500,-19.500,-23.000,-10.500
2.274,-139.500,-16.500,-19.500,-7.500
2.275,-139.500,-15.500,-19.000,-6.500
2.276,-142.500,-17.500,-21.000,-8.000
2.277,-146.500,-20.500,-24.000,-11.500
2.278,-150.500,-24.000,-27.500,-14.500
2.279,-153.500,-26.500,-30.000,-17.000
2.280,-155.000,-28.000,-31.000,-18.000
2.281,-155.500,-28.500,-32.000,-19.000
2.282,-155.500,-29.000,-32.000,-19.000
2.283,-155.000,-29.000,-32.000,-19.000
2.284,-154.500,-29.000,-32.000,-19.000
2.285,-154.500,-29.500,-33.000,-19.500
2.286,-155.500,-31.500,-34.500,-21.500
2.287,-158.500,-35.000,-38.000,-25.000
2.288,-162.000,-39.000,-42.500,-29.500
2.289,-165.000,-43.000,-46.500,-33.000
2.290,-165.500,-44.000,-47.500,-34.000
2.291,-163.000,-41.500,-45.000,-31.500
2.292,-157.500,-36.000,-39.500,-26.000
2.293,-152.000,-29.500,-33.000,-19.500
2.294,-147.500,-24.000,-27.500,-14.500
2.295,-146.000,-21.500,-25.000,-11.500
2.296,-146.500,-21.500,-24.500,-11.500
2.297,-148.500,-22.500,-25.500,-12.500
2.298,-151.000,-24.500,-27.500,-14.000
2.299,-152.500,-25.500,-28.500,-15.000
2.300,-153.000,-26.500,-29.500,-15.500
2.301,-153.000,-26.500,-29.500,-15.500
2.302,-152.500,-26.500,-30.000,-15.500
2.303,-153.000,-27.000,-30.500,-16.500
2.304,-155.000,-29.500,-33.000,-19.500
2.305,-158.000,-33.000,-37.000,-23.500
2.306,-161.500,-37.000,-41.000,-28.000
2.307,-163.500,-40.000,-44.000,-31.000
2.308,-163.000,-40.500,-44.000,-31.500
2.309,-160.000,-38.500,-41.500,-29.000
2.310,-155.500,-34.500,-37.500,-25.500
2.311,-150.500,-30.000,-33.000,-20.500
2.312,-146.000,-25.000,-28.500,-16.000
2.313,-142.000,-20.500,-24.000,-11.000
2.314,-139.000,-16.500,-20.000,-7.000
2.315,-137.500,-13.500,-17.000,-4.000
2.316,-137.000,-12.500,-15.500,-3.000
2.317,-139.500,-14.000,-17.000,-4.000
2.318,-143.500,-17.500,-20.000,-7.500
2.319,-149.000,-22.500,-25.000,-12.500
2.320,-153.500,-27.500,-29.500,-17.000
2.321,-156.000,-30.000,-32.000,-19.500
2.322,-156.500,-31.000,-33.000,-20.000
2.323,-156.500,-31.000,-33.000,-20.500
2.324,-156.500,-31.500,-33.500,-21.000
2.325,-157.500,-33.000,-35.000,-23.000
2.326,-159.000,-35.500,-38.000,-26.000
2.327,-161.000,-38.500,-41.000,-29.000
2.328,-162.500,-41.000,-43.500,-32.000
2.329,-163.500,-42.500,-45.000,-34.000
2.330,-163.000,-42.500,-45.500,-34.500
2.331,-161.500,-40.500,-44.000,-33.000
2.332,-157.000,-36.000,-39.500,-28.000
2.333,-150.500,-29.000,-32.500,-21.000
2.334,-144.000,-22.000,-25.500,-14.000
2.335,-140.000,-17.000,-20.500,-9.000
2.336,-139.000,-15.500,-19.000,-7.000
2.337,-141.000,-16.500,-20.500,-8.000
2.338,-143.500,-19.000,-23.000,-10.500
2.339,-147.000,-22.000,-26.000,-13.500
2.340,-150.000,-24.500,-29.000,-16.500
2.341,-152.500,-27.000,-31.500,-19.500
2.342,-154.500,-29.000,-33.500,-21.500
2.343,-155.500,-30.000,-35.500,-23.500
2.344,-156.000,-31.000,-36.500,-25.000
2.345,-155.500,-31.500,-37.500,-26.500
2.346,-155.000,-32.000,-38.500,-28.000
2.347,-154.500,-32.500,-39.000,-29.000
2.348,-153.500,-32.000,-39.500,-30.000
2.349,-152.000,-32.000,-39.500,-30.000
2.350,-150.500,-30.500,-38.500,-29.500
2.351,-148.500,-29.000,-37.000,-27.500
2.352,-147.000,-27.500,-34.500,-25.000
2.353,-146.000,-25.500,-32.000,-22.000
2.354,-146.000,-24.500,-30.000,-19.000
2.355,-147.000,-25.000,-29.000,-17.500
2.356,-149.500,-26.000,-29.000,-16.500
2.357,-152.000,-27.500,-29.500,-16.000
2.358,-154.500,-29.500,-30.500,-16.500
2.359,-157.500,-32.000,-32.500,-17.500
2.360,-161.000,-35.500,-35.000,-20.000
2.361,-164.500,-38.500,-37.500,-22.500
2.362,-166.500,-40.500,-39.500,-24.500
2.363,-167.000,-41.000,-40.000,-25.500
2.364,-166.000,-40.000,-40.000,-25.500
2.365,-164.000,-38.500,-39.000,-25.000
2.366,-161.000,-36.000,-37.500,-24.500
2.367,-158.000,-33.500,-36.000,-23.500
2.368,-154.500,-31.000,-34.500,-22.000
2.369,-151.000,-28.500,-32.500,-20.500
2.370,-148.000,-25.500,-30.000,-18.500
2.371,-145.000,-22.500,-27.000,-15.500
2.372,-141.000,-18.500,-23.000,-11.500
2.373,-136.500,-13.500,-18.000,-6.500
2.374,-132.000,-8.000,-12.000,-1.000
2.375,-128.000,-3.000,-7.000,4.500
2.376,-126.000,0.000,-4.000,8.000
2.377,-125.000,1.500,-2.000,9.500
2.378,-124.500,2.500,-1.000,11.000
2.379,-123.000,4.000,1.000,12.500
2.380,-121.000,6.000,3.000,14.500
2.381,-119.500,7.500,4.500,16.000
2.382,-119.500,7.500,4.500,16.000
2.383,-120.500,6.000,3.000,14.500
2.384,-122.000,4.000,1.000,12.500
2.385,-122.500,3.000,0.000,11.500
2.386,-121.000,3.500,0.500,12.000
2.387,-119.000,5.000,2.000,13.500
2.388,-116.000,7.500,4.000,15.500
2.389,-113.000,10.500,6.500,18.000
2.390,-108.500,14.500,10.000,22.000
2.391,-103.000,20.000,15.500,27.500
2.392,-96.500,27.000,23.000,34.500
2.393,-90.000,34.000,30.000,42.000
2.394,-86.000,39.500,35.500,47.000
2.395,-85.500,41.000,37.500,48.500
2.396,-88.500,38.500,35.000,46.500
2.397,-93.500,34.000,31.000,42.000
2.398,-98.000,29.500,26.500,38.000
2.399,-101.500,26.000,23.000,35.000
2.400,-103.500,24.000,21.000,33.000
2.401,-104.500,23.000,20.000,32.500
2.402,-104.500,23.000,20.000,32.500
2.403,-104.000,23.500,20.500,33.000
2.404,-103.000,24.000,21.000,33.000
2.405,-102.500,24.000,21.000,33.500
2.406,-101.500,24.000,21.000,33.500
2.407,-100.000,25.000,21.500,34.000
2.408,-97.500,26.500,22.500,35.500
2.409,-94.500,28.500,24.500,37.500
2.410,-92.500,30.500,26.500,39.500
2.411,-90.000,33.000,29.000,42.000
2.412,-86.000,37.000,33.000,46.500
2.413,-80.000,43.500,39.500,53.000
2.414,-73.500,51.000,47.500,60.500
2.415,-68.500,57.000,54.000,67.000
2.416,-66.000,60.000,57.000,70.000
2.417,-67.500,59.500,56.500,69.500
2.418,-72.000,55.000,52.000,64.500
2.419,-79.500,47.500,45.000,57.000
2.420,-88.000,39.000,36.500,49.000
2.421,-94.500,32.000,29.500,42.000
2.422,-99.000,27.500,25.000,37.500
2.423,-101.500,24.500,22.000,34.500
2.424,-103.000,22.500,19.500,32.500
2.425,-104.500,20.500,17.500,30.000
2.426,-106.000,18.500,15.000,27.500
2.427,-107.500,16.000,12.500,25.000
2.428,-108.500,14.000,10.500,23.000
2.429,-109.500,12.500,8.500,21.000
2.430,-110.000,11.500,8.000,20.000
2.431,-110.000,12.000,8.000,20.000
2.432,-108.500,13.500,9.500,21.500
2.433,-107.000,15.500,12.000,23.000
2.434,-107.000,17.000,13.000,24.000
2.435,-108.000,16.500,13.000,23.500
2.436,-111.500,14.000,10.500,21.500
2.437,-116.500,10.000,6.500,17.500
2.438,-122.000,4.500,1.500,12.500
2.439,-128.000,-1.500,-4.500,7.000
2.440,-134.000,-7.000,-10.000,1.500
2.441,-138.500,-12.000,-14.500,-3.500
2.442,-142.500,-16.000,-19.000,-7.500
2.443,-146.000,-20.500,-23.000,-12.000
2.444,-149.000,-24.000,-26.500,-15.500
2.445,-151.500,-27.500,-30.000,-19.500
2.446,-154.000,-30.500,-33.000,-22.500
2.447,-156.000,-33.000,-36.000,-25.500
2.448,-157.000,-35.000,-38.000,-27.500
2.449,-156.500,-35.000,-38.500,-28.000
2.450,-154.500,-33.500,-37.000,-26.500
2.451,-151.500,-31.000,-35.000,-24.000
2.452,-149.500,-28.500,-32.500,-21.500
2.453,-147.500,-26.000,-30.500,-19.000
2.454,-146.500,-24.000,-28.000,-17.000
2.455,-146.000,-22.500,-26.500,-15.500
2.456,-146.000,-22.000,-25.500,-14.500
2.457,-147.500,-22.500,-26.000,-15.000
2.458,-149.500,-24.000,-27.500,-17.000
2.459,-152.000,-26.500,-30.000,-19.000
2.460,-154.500,-28.500,-32.000,-21.000
2.461,-156.000,-30.000,-33.500,-22.500
2.462,-156.500,-31.000,-34.500,-23.000
2.463,-156.500,-31.000,-34.500,-23.500
2.464,-157.000,-32.000,-35.500,-24.500
2.465,-159.000,-34.000,-38.000,-26.500
2.466,-161.000,-37.000,-41.000,-30.000
2.467,-163.500,-40.000,-44.500,-33.500
2.468,-164.500,-42.000,-46.500,-35.500
2.469,-164.500,-42.000,-47.000,-36.000
2.470,-162.000,-40.000,-45.000,-34.000
2.471,-159.000,-37.000,-42.000,-31.000
2.472,-155.000,-33.000,-38.000,-27.000
2.473,-152.000,-29.000,-34.500,-23.500
2.474,-150.500,-26.500,-31.500,-21.000
2.475,-150.500,-26.000,-30.500,-20.000
2.476,-152.500,-26.500,-31.500,-21.000
2.477,-155.500,-29.000,-33.500,-23.500
2.478,-158.500,-31.000,-35.500,-25.500
2.479,-160.000,-32.500,-37.000,-27.000
2.480,-160.000,-32.000,-36.500,-26.500
2.481,-158.500,-30.500,-35.000,-25.000
2.482,-157.000,-29.500,-34.000,-24.000
2.483,-158.000,-30.500,-35.500,-24.500
2.484,-161.000,-34.000,-39.000,-28.500
2.485,-166.000,-39.500,-44.500,-34.000
2.486,-171.000,-45.000,-50.500,-40.000
2.487,-174.000,-48.500,-54.500,-44.000
2.488,-174.000,-49.500,-55.500,-45.000
2.489,-171.500,-47.500,-53.500,-43.000
2.490,-166.500,-42.500,-48.500,-38.500
2.491,-160.500,-36.500,-42.500,-32.500
2.492,-155.500,-30.500,-36.500,-26.500
2.493,-151.500,-26.000,-31.500,-22.000
2.494,-149.500,-23.000,-28.500,-19.000
2.495,-149.500,-22.500,-28.000,-18.500
2.496,-152.500,-25.000,-30.500,-20.500
2.497,-158.500,-30.500,-36.000,-26.000
2.498,-166.500,-38.000,-43.500,-33.500
2.499,-175.500,-47.000,-52.500,-42.500
2.500,-184.500,-56.000,-61.500,-51.000
2.501,-192.000,-63.500,-69.000,-59.000
2.502,-198.000,-70.000,-76.000,-65.500
2.503,-203.000,-76.000,-81.500,-71.500
2.504,-207.000,-80.500,-86.500,-76.500
2.505,-210.000,-84.500,-91.000,-81.000
2.506,-211.000,-86.000,-92.500,-82.500
2.507,-208.000,-84.000,-90.500,-81.000
2.508,-200.500,-77.500,-84.000,-74.000
2.509,-188.500,-66.500,-72.500,-63.000
2.510,-174.000,-52.000,-58.000,-48.000
2.511,-156.500,-34.500,-40.500,-30.000
2.512,-137.000,-15.000,-20.000,-9.500
2.513,-115.000,8.500,3.500,14.500
2.514,-90.000,34.500,30.500,41.500
2.515,-62.500,63.500,60.000,71.500
2.516,-33.000,94.000,91.500,103.500
2.517,-1.500,126.000,124.500,136.500
2.518,31.500,160.000,158.500,171.000
2.519,66.000,195.000,194.500,207.500
2.520,102.000,231.500,231.500,244.500
2.521,138.000,268.000,269.000,282.000
2.522,175.000,305.500,307.000,320.500
2.523,215.000,345.500,347.500,362.000
2.524,259.500,390.000,393.000,408.000
2.525,307.500,438.000,441.500,457.000
2.526,354.000,485.000,489.000,505.000
2.527,394.500,525.000,529.000,545.500
2.528,423.500,554.000,558.000,574.500
2.529,440.500,570.000,574.000,590.500
2.530,445.000,573.500,577.500,594.000
2.531,437.000,566.000,569.500,585.500
2.532,419.500,548.500,551.500,567.000
2.533,394.000,523.500,526.000,541.000
2.534,363.500,493.500,496.000,511.000
2.535,331.000,462.000,463.500,478.500
2.536,297.500,429.000,430.500,445.000
2.537,264.000,395.500,396.500,411.500
2.538,231.000,362.500,363.000,377.500
2.539,199.000,330.000,330.500,345.000
2.540,168.000,299.000,298.500,313.500
2.541,138.000,268.500,268.000,282.500
2.542,107.500,237.500,236.500,251.000
2.543,76.000,205.500,204.000,218.000
2.544,44.000,173.500,171.000,185.000
2.545,13.500,142.000,139.000,153.000
2.546,-15.000,112.500,109.000,122.500
2.547,-40.500,86.000,82.500,95.500
2.548,-62.500,63.000,58.500,72.000
2.549,-82.000,42.500,38.500,51.000
2.550,-98.500,25.500,21.000,33.500
2.551,-113.000,10.500,5.500,18.000
2.552,-126.000,-2.500,-7.500,5.000
2.553,-138.000,-14.000,-19.000,-6.500
2.554,-148.500,-23.500,-29.000,-16.000
2.555,-158.500,-32.500,-37.500,-25.000
2.556,-167.500,-40.500,-45.500,-33.000
2.557,-174.000,-46.500,-51.500,-39.000
2.558,-178.000,-50.000,-54.500,-42.500
2.559,-178.000,-50.000,-54.500,-43.000
2.560,-175.500,-47.000,-51.500,-40.000
2.561,-171.000,-42.500,-47.000,-36.000
2.562,-166.000,-38.000,-42.500,-32.000
2.563,-162.500,-34.500,-39.000,-28.500
2.564,-160.500,-33.000,-37.500,-27.000
2.565,-160.000,-33.000,-38.000,-27.500
2.566,-161.000,-35.000,-40.000,-29.500
2.567,-163.000,-37.000,-42.500,-32.000
2.568,-163.500,-38.500,-44.000,-33.000
2.569,-161.500,-37.000,-42.500,-32.000
2.570,-156.500,-33.000,-38.500,-27.500
2.571,-151.000,-27.000,-33.000,-22.000
2.572,-146.000,-22.000,-27.500,-16.500
2.573,-143.000,-18.500,-24.000,-13.000
2.574,-142.000,-16.500,-22.000,-11.500
2.575,-142.500,-16.000,-21.000,-11.000
2.576,-143.500,-16.000,-21.000,-11.000
2.577,-144.500,-16.500,-21.000,-11.500
2.578,-146.000,-17.500,-22.000,-12.500
2.579,-149.000,-20.000,-24.500,-15.000
2.580,-153.500,-25.000,-29.500,-19.500
2.581,-160.000,-31.500,-36.500,-26.500
2.582,-166.500,-38.500,-43.500,-33.000
2.583,-171.000,-43.500,-48.500,-38.000
2.584,-172.500,-45.500,-51.000,-39.500
2.585,-173.000,-46.000,-52.000,-40.500
2.586,-172.500,-46.500,-52.500,-41.000
2.587,-172.500,-47.500,-53.000,-41.500
2.588,-172.000,-47.500,-53.500,-42.000
2.589,-171.000,-47.000,-53.000,-41.500
2.590,-169.000,-45.000,-51.500,-40.000
2.591,-166.000,-42.000,-48.500,-37.000
2.592,-162.500,-38.000,-44.500,-33.000
2.593,-158.500,-33.500,-40.500,-28.500
2.594,-155.500,-29.500,-36.500,-24.500
2.595,-153.500,-26.500,-33.500,-21.500
2.596,-152.500,-25.000,-32.000,-20.000
2.597,-153.000,-24.500,-31.500,-19.500
2.598,-153.500,-24.500,-31.000,-19.500
2.599,-153.500,-24.500,-31.000,-19.500
2.600,-153.500,-24.500,-31.000,-19.500
2.601,-153.500,-25.000,-31.500,-20.000
2.602,-155.500,-27.000,-33.500,-22.000
2.603,-159.000,-30.500,-37.000,-26.000
2.604,-163.500,-35.000,-41.500,-30.500
2.605,-167.500,-40.000,-46.500,-35.000
2.606,-170.000,-43.000,-49.500,-38.500
2.607,-171.000,-45.000,-51.500,-40.500
2.608,-170.500,-45.500,-52.000,-40.500
2.609,-169.500,-45.000,-51.500,-40.000
2.610,-167.500,-43.500,-50.000,-39.000
2.611,-166.000,-41.500,-48.500,-37.500
2.612,-163.500,-38.500,-45.500,-35.000
2.613,-161.000,-35.000,-42.000,-31.000
2.614,-158.500,-31.500,-38.000,-27.000
2.615,-156.500,-28.500,-35.000,-24.000
2.616,-155.500,-26.500,-33.000,-22.000
2.617,-155.500,-26.000,-32.500,-21.500
2.618,-156.500,-26.500,-33.000,-22.000
2.619,-157.500,-27.000,-33.500,-22.500
2.620,-158.000,-27.500,-33.500,-22.500
2.621,-158.000,-27.500,-34.000,-23.000
2.622,-159.000,-28.500,-35.000,-24.000
2.623,-159.500,-30.000,-36.000,-25.000
2.624,-160.500,-31.000,-37.500,-26.500
2.625,-162.000,-33.500,-40.000,-29.000
2.626,-165.000,-37.000,-44.000,-32.500
2.627,-169.500,-42.000,-49.000,-37.500
2.628,-172.500,-46.000,-53.500,-41.500
2.629,-174.000,-48.000,-55.000,-43.000
2.630,-172.000,-46.500,-54.000,-41.500
2.631,-168.500,-43.000,-50.000,-38.000
2.632,-163.500,-38.000,-45.500,-33.000
2.633,-158.500,-32.500,-40.000,-27.500
2.634,-154.000,-27.000,-34.500,-22.000
2.635,-151.000,-23.000,-30.500,-18.000
2.636,-149.500,-20.500,-28.000,-15.500
2.637,-149.500,-19.500,-27.500,-15.000
2.638,-151.000,-20.000,-28.000,-15.500
2.639,-152.000,-21.000,-28.500,-16.000
2.640,-153.000,-22.000,-29.500,-17.000
2.641,-154.500,-23.500,-31.000,-18.500
2.642,-156.000,-25.000,-33.000,-20.500
2.643,-157.500,-27.000,-35.000,-22.500
2.644,-158.500,-29.000,-37.000,-24.500
2.645,-159.500,-30.500,-39.000,-26.500
2.646,-160.500,-32.000,-40.500,-28.500
2.647,-161.500,-33.500,-42.500,-30.500
2.648,-162.000,-35.000,-44.000,-32.000
2.649,-161.500,-35.000,-44.000,-32.000
2.650,-159.000,-33.000,-42.500,-30.000
2.651,-155.000,-29.000,-38.500,-26.000
2.652,-150.500,-24.000,-34.000,-21.000
2.653,-146.000,-19.000,-28.500,-16.000
2.654,-142.500,-15.000,-24.500,-11.500
2.655,-141.500,-13.000,-22.000,-9.000
2.656,-143.500,-14.000,-22.500,-9.500
2.657,-147.500,-17.500,-26.000,-12.500
2.658,-152.000,-22.000,-29.500,-16.000
2.659,-155.500,-25.000,-32.500,-19.000
2.660,-156.000,-26.000,-32.500,-19.500
2.661,-155.000,-24.500,-31.500,-18.000
2.662,-153.500,-23.500,-30.000,-17.000
2.663,-153.500,-23.500,-30.000,-17.000
2.664,-154.500,-25.000,-32.000,-19.000
2.665,-156.500,-27.000,-34.500,-21.500
2.666,-158.000,-29.000,-37.000,-23.500
2.667,-158.500,-30.500,-38.500,-25.000
2.668,-158.000,-31.000,-39.000,-25.500
2.669,-157.500,-31.000,-39.500,-25.500
2.670,-156.000,-30.000,-38.500,-24.500
2.671,-154.000,-28.500,-37.000,-22.000
2.672,-151.000,-25.000,-33.500,-18.500
2.673,-147.000,-20.500,-29.000,-14.000
2.674,-143.000,-16.000,-24.000,-9.000
2.675,-140.000,-12.000,-20.000,-5.000
2.676,-139.000,-10.000,-17.500,-3.000
2.677,-140.000,-10.500,-17.500,-2.500
2.678,-142.000,-12.000,-19.000,-4.000
2.679,-144.500,-14.500,-21.000,-6.000
2.680,-147.500,-18.000,-24.000,-9.000
2.681,-151.500,-21.500,-27.500,-12.500
2.682,-154.500,-25.000,-30.500,-15.500
2.683,-156.000,-26.500,-32.000,-17.000
2.684,-155.500,-26.500,-32.500,-17.000
2.685,-155.000,-26.500,-32.000,-16.500
2.686,-155.000,-27.000,-33.000,-17.500
2.687,-156.000,-28.500,-35.000,-19.500
2.688,-157.000,-30.000,-37.000,-21.500
2.689,-156.000,-30.000,-37.000,-21.500
2.690,-153.000,-27.500,-34.500,-19.500
2.691,-147.500,-22.000,-29.000,-14.000
2.692,-140.500,-15.000,-22.000,-7.000
2.693,-134.500,-8.000,-15.000,-0.500
2.694,-131.000,-3.000,-10.000,4.500
2.695,-130.500,-1.500,-8.500,6.500
2.696,-132.000,-2.500,-9.000,6.000
2.697,-134.500,-4.000,-10.500,4.500
2.698,-136.000,-5.500,-12.000,3.500
2.699,-137.000,-6.500,-12.500,3.000
2.700,-137.000,-6.500,-12.500,3.000
2.701,-137.500,-7.000,-12.500,2.500
2.702,-138.000,-7.500,-13.000,2.000
2.703,-138.500,-8.500,-14.000,1.000
2.704,-139.000,-9.500,-15.000,0.000
2.705,-139.500,-10.000,-16.000,-1.500
2.706,-140.000,-11.500,-17.500,-3.000
2.707,-140.000,-12.500,-18.500,-4.000
2.708,-139.500,-12.500,-19.500,-4.500
2.709,-137.500,-12.000,-18.500,-3.500
2.710,-134.000,-9.000,-16.000,-0.500
2.711,-129.000,-4.000,-11.000,5.000
2.712,-123.000,3.000,-5.000,11.500
2.713,-117.500,9.000,1.500,18.000
2.714,-114.500,13.000,5.000,22.000
2.715,-114.500,14.000,6.000,23.000
2.716,-117.000,12.500,5.000,21.500
2.717,-119.500,10.500,3.500,20.000
2.718,-121.500,9.000,2.500,18.500
2.719,-121.500,9.000,2.500,18.500
2.720,-121.000,9.500,3.500,19.500
2.721,-119.500,11.000,4.500,20.500
2.722,-119.000,11.500,5.000,21.000
2.723,-118.500,11.000,5.000,20.500
2.724,-118.500,10.500,4.000,20.000
2.725,-118.500,10.000,3.500,19.000
2.726,-119.000,9.000,2.000,17.500
2.727,-119.000,8.000,0.500,16.500
2.728,-118.500,8.000,0.000,16.000
2.729,-116.000,10.000,2.000,17.500
2.730,-111.000,14.500,6.000,21.000
2.731,-105.000,20.500,11.500,26.500
2.732,-99.000,27.000,17.500,32.500
2.733,-93.000,33.000,23.500,38.000
2.734,-88.000,38.500,29.000,43.000
2.735,-84.500,43.000,33.000,47.000
2.736,-82.500,46.000,35.500,49.000
2.737,-81.500,47.000,36.500,50.000
2.738,-82.000,47.000,36.000,49.500
2.739,-84.500,44.500,34.000,48.000
2.740,-88.000,41.500,31.000,45.500
2.741,-91.500,38.000,28.000,43.000
2.742,-94.000,35.000,26.000,41.500
2.743,-95.500,33.500,25.000,41.500
2.744,-96.500,32.000,25.000,42.000
2.745,-97.500,31.000,24.500,42.500
2.746,-98.000,29.500,24.000,42.500
2.747,-98.500,29.000,23.500,43.000
2.748,-96.500,30.500,25.500,45.500
2.749,-92.000,34.500,30.000,50.000
2.750,-86.000,40.000,35.500,55.500
2.751,-80.500,46.000,41.000,61.000
2.752,-76.500,50.500,45.500,64.500
2.753,-74.000,54.000,48.000,67.000
2.754,-71.500,57.500,51.000,69.000
2.755,-69.000,60.500,53.500,72.000
2.756,-67.000,63.000,56.000,74.000
2.757,-67.000,64.000,56.500,74.000
2.758,-68.500,62.500,55.000,72.500
2.759,-70.500,60.500,52.500,70.500
2.760,-71.500,59.500,51.500,69.500
2.761,-70.000,60.500,53.000,70.500
2.762,-67.500,63.000,55.500,73.000
2.763,-64.500,65.500,58.000,75.500
2.764,-63.500,66.000,59.000,76.000
2.765,-64.500,65.000,57.500,75.000
2.766,-66.000,63.000,55.500,73.000
2.767,-67.000,61.000,53.500,71.500
2.768,-66.500,61.000,53.000,71.000
2.769,-64.500,62.000,54.000,72.500
2.770,-61.000,65.000,56.500,75.000
2.771,-57.000,69.000,60.500,79.000
2.772,-52.500,74.000,65.500,84.000
2.773,-48.500,79.500,70.500,89.500
2.774,-44.500,84.000,75.500,94.500
2.775,-42.000,88.000,79.000,98.000
2.776,-41.500,89.500,81.000,100.000
2.777,-42.500,89.000,80.500,99.500
2.778,-45.000,87.000,78.500,97.500
2.779,-47.000,85.000,77.000,96.000
2.780,-48.500,83.000,75.000,94.500
2.781,-50.500,81.500,73.500,93.000
2.782,-52.500,79.500,71.000,91.000
2.783,-55.000,76.500,68.500,88.500
2.784,-59.000,73.000,64.500,84.500
2.785,-64.000,67.500,59.000,79.000
2.786,-69.000,61.500,52.500,72.500
2.787,-73.000,56.500,47.500,68.000
2.788,-74.500,54.500,45.000,65.500
2.789,-73.500,55.000,45.000,66.000
2.790,-71.000,57.000,47.000,68.000
2.791,-68.000,59.500,49.500,70.500
2.792,-66.000,62.000,51.500,72.500
2.793,-65.500,63.500,53.000,74.000
2.794,-66.000,64.500,54.000,74.500
2.795,-66.500,64.500,55.000,75.000
2.796,-67.500,64.500,55.000,75.000
2.797,-69.000,64.000,55.000,74.500
2.798,-70.000,63.000,54.000,73.500
2.799,-71.500,61.500,53.000,72.000
2.800,-74.000,59.500,50.500,70.000
2.801,-77.000,56.000,47.000,66.500
2.802,-81.500,51.500,42.500,62.500
2.803,-85.500,47.500,38.500,58.000
2.804,-89.000,43.500,34.500,54.500
2.805,-91.500,40.500,31.000,51.500
2.806,-94.500,37.000,28.000,48.000
2.807,-97.500,33.000,23.500,44.000
2.808,-100.500,29.000,19.500,39.500
2.809,-102.500,26.500,16.500,36.500
2.810,-102.500,26.000,16.000,36.500
2.811,-100.000,28.500,18.000,38.500
2.812,-96.000,32.000,22.000,42.500
2.813,-92.000,37.000,27.000,47.500
2.814,-88.500,41.000,31.000,52.000
2.815,-86.500,44.000,34.000,55.000
2.816,-87.000,44.000,34.500,55.500
2.817,-90.500,41.500,32.000,52.500
2.818,-96.500,35.500,26.500,47.000
2.819,-104.500,28.500,19.500,40.000
2.820,-111.500,21.000,12.500,32.500
2.821,-117.000,15.500,7.000,27.000
2.822,-120.500,12.000,3.500,23.500
2.823,-121.500,10.000,1.500,22.000
2.824,-122.000,9.500,0.500,21.000
2.825,-122.000,9.000,0.000,20.500
2.826,-122.000,8.500,-0.500,20.000
2.827,-122.000,7.500,-1.500,19.000
2.828,-122.000,7.000,-2.500,18.000
2.829,-122.000,6.000,-3.500,17.500
2.830,-121.500,6.000,-3.500,17.500
2.831,-120.500,7.000,-2.500,19.000
2.832,-119.000,8.500,-1.000,20.500
2.833,-118.000,10.000,1.000,22.500
2.834,-117.500,11.500,2.500,24.000
2.835,-118.000,12.500,3.500,24.500
2.836,-118.500,12.500,3.500,25.000
2.837,-119.000,12.500,4.000,25.000
2.838,-120.000,12.500,3.500,24.500
2.839,-121.000,11.500,3.000,24.000
2.840,-121.500,11.000,3.000,23.000
2.841,-121.500,11.000,3.000,23.500
2.842,-120.500,11.500,4.000,24.000
2.843,-120.500,11.500,4.000,23.500
2.844,-122.000,9.500,2.000,21.500
2.845,-126.500,5.000,-3.000,17.000
2.846,-132.000,-1.500,-10.000,10.500
2.847,-137.500,-7.500,-16.000,4.500
2.848,-140.500,-11.500,-20.500,0.500
2.849,-141.000,-12.500,-21.500,-1.000
2.850,-139.000,-11.000,-20.500,1.000
2.851,-136.000,-8.000,-17.000,4.500
2.852,-131.500,-3.500,-12.500,9.000
2.853,-126.500,2.000,-6.500,15.000
2.854,-121.500,8.000,-0.500,21.000
2.855,-116.500,13.500,5.500,27.000
2.856,-114.000,17.000,9.000,30.500
2.857,-115.000,17.000,9.500,30.500
2.858,-119.000,13.500,6.500,27.500
2.859,-124.000,8.500,2.000,22.500
2.860,-128.000,5.000,-1.500,19.000
2.861,-129.500,3.000,-3.000,17.500
2.862,-129.500,3.000,-3.000,17.500
2.863,-128.500,4.000,-2.000,18.000
2.864,-128.000,4.000,-2.000,18.500
2.865,-128.500,3.000,-3.000,17.500
2.866,-130.000,1.000,-5.500,15.000
2.867,-132.500,-2.500,-9.000,11.500
2.868,-134.000,-5.000,-12.000,8.500
2.869,-134.500,-6.000,-13.500,7.500
2.870,-133.000,-5.000,-12.500,8.500
2.871,-129.500,-1.500,-9.500,11.500
2.872,-124.500,4.000,-4.000,17.000
2.873,-119.500,10.000,2.000,22.500
2.874,-116.500,14.000,6.000,26.500
2.875,-116.000,15.500,8.000,28.000
2.876,-118.500,14.000,7.000,26.500
2.877,-122.500,10.500,4.000,23.500
2.878,-125.500,8.000,1.500,21.500
2.879,-126.500,7.000,0.500,21.000
2.880,-126.000,7.500,1.500,22.000
2.881,-125.000,8.500,2.000,23.500
2.882,-124.500,9.000,2.000,23.500
2.883,-125.500,7.500,0.500,22.500
2.884,-127.500,5.000,-2.500,19.500
2.885,-130.500,2.000,-5.500,16.000
2.886,-131.500,0.000,-8.000,14.000
2.887,-130.500,0.000,-8.000,14.000
2.888,-127.500,2.500,-6.000,16.500
2.889,-122.500,6.500,-2.000,20.500
2.890,-117.500,11.500,2.500,25.500
2.891,-112.500,16.500,7.000,30.500
2.892,-108.000,21.500,11.500,35.000
2.893,-105.000,25.000,15.000,38.500
2.894,-104.000,27.000,17.000,40.500
2.895,-105.500,26.500,16.500,40.000
2.896,-109.500,23.500,14.000,37.500
2.897,-114.500,19.000,10.000,33.500
2.898,-119.000,14.500,5.500,29.500
2.899,-122.500,11.500,2.500,26.500
2.900,-124.000,9.500,1.000,25.000
2.901,-124.000,9.500,0.500,25.000
2.902,-123.000,10.500,1.500,25.500
2.903,-121.500,12.000,3.000,27.000
2.904,-120.000,13.000,4.000,28.500
2.905,-119.500,13.000,3.500,28.000
2.906,-121.500,10.500,1.000,26.000
2.907,-125.000,6.000,-3.500,21.500
2.908,-129.500,0.500,-9.000,16.500
2.909,-132.500,-3.500,-13.500,12.500
2.910,-133.500,-5.000,-15.000,11.500
2.911,-131.500,-4.000,-14.000,13.000
2.912,-128.500,0.000,-10.500,16.500
2.913,-124.500,4.500,-6.000,21.500
2.914,-121.500,8.500,-2.000,25.500
2.915,-121.000,10.500,0.500,27.500
2.916,-122.500,10.000,0.000,27.000
2.917,-125.500,7.500,-2.000,25.000
2.918,-128.000,5.500,-4.000,23.000
2.919,-129.500,3.500,-5.000,22.000
2.920,-130.500,3.000,-5.500,21.500
2.921,-131.000,2.000,-6.000,21.000
2.922,-131.000,2.000,-6.000,21.000
2.923,-130.000,2.500,-5.500,21.500
2.924,-128.500,3.500,-4.000,23.000
2.925,-127.000,4.500,-3.500,23.500
2.926,-126.500,4.000,-4.000,23.500
2.927,-126.500,3.000,-5.000,22.500
2.928,-126.500,2.500,-6.000,21.500
2.929,-125.500,3.000,-5.500,22.000
2.930,-124.000,4.000,-5.000,23.000
2.931,-123.000,4.500,-4.000,24.500
2.932,-122.000,5.500,-3.000,25.500
2.933,-121.500,7.000,-2.000,26.500
2.934,-120.500,8.500,0.000,28.500
2.935,-119.500,10.000,2.000,30.000
2.936,-119.000,11.500,3.500,31.500
2.937,-118.500,13.000,5.000,33.000
2.938,-118.000,14.500,6.000,34.500
2.939,-117.000,15.500,7.500,36.000
2.940,-116.500,16.000,8.500,37.000
2.941,-116.500,16.000,8.000,36.500
2.942,-118.000,14.000,6.000,35.000
2.943,-120.500,11.500,3.500,33.000
2.944,-123.500,8.500,0.500,30.000
2.945,-126.500,5.000,-3.500,26.500
2.946,-129.500,1.500,-7.500,22.500
2.947,-132.500,-2.500,-11.000,18.500
2.948,-134.500,-5.000,-14.000,15.500
2.949,-135.500,-6.500,-15.000,14.000
2.950,-134.000,-5.500,-14.000,14.500
2.951,-131.500,-3.500,-12.000,17.000
2.952,-129.000,-0.500,-8.500,20.000
2.953,-126.500,2.000,-5.500,23.000
2.954,-125.000,4.500,-3.000,26.000
2.955,-123.500,6.500,-0.500,28.500
2.956,-122.500,8.500,2.000,31.000
2.957,-121.000,10.500,4.000,33.500
2.958,-119.500,12.500,6.000,36.000
2.959,-118.000,14.000,8.000,37.500
2.960,-117.500,14.500,8.500,39.000
2.961,-117.500,14.500,8.500,39.000
2.962,-118.500,14.000,7.500,38.500
2.963,-119.500,12.500,6.000,37.000
2.964,-122.000,10.000,3.500,34.000
2.965,-126.000,5.500,-1.000,29.000
2.966,-132.000,-1.000,-7.500,22.500
2.967,-137.500,-7.500,-14.500,15.500
2.968,-141.500,-12.000,-19.500,11.000
2.969,-141.500,-13.000,-20.500,10.000
2.970,-138.000,-10.000,-18.000,13.000
2.971,-132.000,-4.000,-12.000,19.000
2.972,-124.500,3.500,-4.500,26.500
2.973,-118.000,11.000,3.000,33.500
2.974,-114.500,16.000,8.000,38.500
2.975,-113.500,17.500,10.000,40.500
2.976,-115.500,17.000,9.000,40.000
2.977,-118.000,15.000,7.500,38.500
2.978,-120.000,13.500,6.000,37.500
2.979,-120.500,13.000,5.500,37.000
2.980,-120.500,13.000,6.000,37.500
2.981,-120.000,13.500,6.500,38.500
2.982,-119.000,14.000,7.000,38.500
2.983,-118.500,14.000,7.000,38.500
2.984,-119.500,12.500,5.500,37.000
2.985,-121.500,10.000,2.500,34.000
2.986,-124.500,6.500,-1.000,30.500
2.987,-126.500,3.500,-3.500,27.500
2.988,-127.500,2.500,-5.000,26.000
2.989,-126.000,3.000,-4.500,27.000
2.990,-123.500,5.000,-2.000,29.500
2.991,-120.500,8.000,1.000,32.500
2.992,-118.000,11.000,3.500,35.500
2.993,-117.000,12.500,5.000,37.000
2.994,-117.000,13.500,6.000,38.500
2.995,-117.500,13.500,6.000,38.500
2.996,-119.500,12.500,5.500,38.000
2.997,-121.500,11.000,4.000,37.000
2.998,-123.500,10.000,2.500,36.000
2.999,-124.000,9.000,2.000,35.500
3.000,-124.000,9.000,1.500,35.500
3.001,-123.500,9.500,2.000,36.000
3.002,-123.500,10.000,2.000,36.500
3.003,-123.500,10.000,1.500,36.000
3.004,-124.500,8.500,0.500,34.500
3.005,-125.500,7.000,-1.500,32.500
3.006,-126.500,5.500,-3.500,30.500
3.007,-127.000,4.000,-5.000,29.000
3.008,-126.500,3.500,-5.500,29.000
3.009,-125.000,4.000,-5.000,30.000
3.010,-122.500,6.500,-2.500,32.000
3.011,-118.500,9.500,1.000,35.500
3.012,-114.500,14.000,5.000,40.000
3.013,-111.000,18.500,9.500,44.500
3.014,-109.000,21.000,12.500,47.500
3.015,-110.000,21.500,12.500,48.500
3.016,-113.000,19.500,10.500,46.500
3.017,-116.500,16.500,7.500,44.000
3.018,-119.500,13.500,5.000,41.500
3.019,-121.000,12.500,3.500,40.500
3.020,-120.500,13.000,4.000,41.000
3.021,-119.000,14.500,5.500,42.500
3.022,-117.500,15.500,7.000,43.500
3.023,-117.000,15.500,7.000,43.500
3.024,-118.500,13.500,5.000,41.500
3.025,-121.000,9.500,1.500,38.000
3.026,-124.000,5.500,-3.000,34.000
3.027,-126.500,2.500,-6.000,31.000
3.028,-126.500,1.500,-7.000,30.000
3.029,-124.000,3.500,-5.500,31.500
3.030,-118.500,9.000,-0.500,36.500
3.031,-110.500,16.500,7.000,44.500
3.032,-102.000,25.500,15.500,53.000
3.033,-95.500,33.000,23.000,60.500
3.034,-93.000,36.500,26.500,64.000
3.035,-94.500,36.000,26.000,64.000
3.036,-97.500,33.500,24.000,62.000
3.037,-100.000,32.500,23.000,61.000
3.038,-99.000,33.500,24.000,62.000
3.039,-96.000,36.500,27.500,65.500
3.040,-93.000,40.000,31.000,69.000
3.041,-91.000,42.000,33.000,71.000
3.042,-91.000,42.000,33.000,71.000
3.043,-93.000,39.500,31.000,69.000
3.044,-95.000,37.000,28.500,67.000
3.045,-96.000,35.500,27.000,65.500
3.046,-95.000,36.000,27.500,66.000
3.047,-92.000,38.000,30.000,68.500
3.048,-88.000,41.000,33.000,71.500
3.049,-83.500,45.000,36.500,75.000
3.050,-79.500,49.000,40.000,79.000
3.051,-76.000,52.500,43.000,82.000
3.052,-73.000,56.000,46.500,86.000
3.053,-69.500,59.500,50.000,90.000
3.054,-67.000,63.000,54.000,93.500
3.055,-65.500,65.000,56.500,96.500
3.056,-65.500,65.500,57.500,97.500
3.057,-67.000,65.000,57.000,97.500
3.058,-68.000,64.500,56.500,97.000
3.059,-69.000,63.500,56.000,96.500
3.060,-69.000,63.500,55.500,96.500
3.061,-68.500,63.500,56.000,97.000
3.062,-67.000,64.500,57.500,98.000
3.063,-65.500,66.000,59.000,100.000
3.064,-63.500,67.500,60.500,101.500
3.065,-62.000,68.500,62.000,103.000
3.066,-60.000,69.500,63.000,104.000
3.067,-58.500,70.000,64.000,104.500
3.068,-57.000,70.500,64.500,105.000
3.069,-55.500,71.500,65.000,106.000
3.070,-53.000,73.000,67.000,107.500
3.071,-49.500,76.500,70.000,111.000
3.072,-45.500,81.000,74.500,115.500
3.073,-41.500,86.000,79.500,120.500
3.074,-38.000,90.000,83.500,125.000
3.075,-36.500,92.500,86.500,127.500
3.076,-37.000,93.500,87.500,128.500
3.077,-38.000,93.000,87.500,128.500
3.078,-38.500,92.500,88.000,128.500
3.079,-38.000,93.000,88.500,129.000
3.080,-38.000,93.000,88.500,129.000
3.081,-40.000,90.500,86.500,127.000
3.082,-45.000,86.000,81.500,122.000
3.083,-51.500,79.000,74.500,115.000
3.084,-58.000,72.000,67.500,108.500
3.085,-62.500,67.000,62.500,103.500
3.086,-64.000,64.500,59.500,101.000
3.087,-64.500,63.500,58.500,99.500
3.088,-63.500,63.500,58.500,99.500
3.089,-62.000,64.500,59.000,100.500
3.090,-60.000,66.000,60.000,102.000
3.091,-58.000,67.500,61.500,103.500
3.092,-57.000,68.500,62.500,105.000
3.093,-57.000,69.000,63.000,105.500
3.094,-58.500,68.500,63.000,105.500
3.095,-60.500,67.500,62.000,104.500
3.096,-63.500,65.500,60.000,103.000
3.097,-67.500,62.500,57.000,100.000
3.098,-72.500,58.000,53.000,96.000
3.099,-78.000,53.000,48.000,91.000
3.100,-83.500,48.000,43.000,86.000
3.101,-88.500,42.500,38.000,81.000
3.102,-93.000,38.000,33.500,76.500
3.103,-97.000,33.500,29.500,72.500
3.104,-100.000,30.000,25.500,68.500
3.105,-103.000,26.500,22.500,65.000
3.106,-105.000,23.500,19.500,62.000
3.107,-105.500,21.500,17.500,60.000
3.108,-104.500,22.000,17.000,60.500
3.109,-101.500,24.000,19.000,62.500
3.110,-98.500,26.500,21.500,65.000
3.111,-96.500,28.500,23.000,67.000
3.112,-96.500,28.000,22.500,67.000
3.113,-99.000,26.000,20.500,64.500
3.114,-103.500,23.000,17.500,61.500
3.115,-108.000,19.500,13.500,57.500
3.116,-112.500,16.000,10.000,54.000
3.117,-116.000,12.500,7.000,51.000
3.118,-118.500,10.500,4.500,48.500
3.119,-119.000,10.000,4.500,48.000
3.120,-117.500,11.000,5.500,48.500
3.121,-115.000,13.000,7.000,50.000
3.122,-113.000,15.000,8.500,51.500
3.123,-112.000,16.000,9.000,51.500
3.124,-112.500,15.000,7.500,50.000
3.125,-115.000,12.000,3.500,46.500
3.126,-118.500,8.000,-1.000,42.000
3.127,-121.500,4.500,-4.500,39.000
3.128,-123.000,2.000,-6.500,37.500
3.129,-123.500,1.000,-6.500,38.000
3.130,-122.500,1.000,-5.500,40.000
3.131,-121.500,2.000,-3.500,43.000
3.132,-120.000,4.000,0.000,47.000
3.133,-118.500,6.500,3.500,51.000
3.134,-117.000,9.000,7.000,55.000
3.135,-116.500,10.500,9.500,58.000
3.136,-117.000,11.500,11.500,59.500
3.137,-118.000,11.500,12.000,59.500
3.138,-119.000,11.000,11.500,59.000
3.139,-120.000,11.000,11.500,58.000
3.140,-120.500,10.500,11.000,57.000
3.141,-121.000,10.000,10.000,55.000
3.142,-122.500,9.000,8.000,52.500
3.143,-124.000,7.000,5.500,49.500
3.144,-126.500,4.500,2.000,46.000
3.145,-128.500,2.000,-1.000,42.500
3.146,-130.000,-0.500,-4.000,39.500
3.147,-131.000,-2.000,-6.000,38.000
3.148,-130.000,-2.000,-6.000,38.000
3.149,-127.500,-0.500,-4.500,40.000
3.150,-124.000,3.000,-1.500,43.000
3.151,-120.500,6.500,2.000,46.500
3.152,-117.000,10.000,5.500,50.000
3.153,-114.500,13.000,9.000,53.500
3.154,-112.500,16.000,11.500,56.500
3.155,-112.500,17.500,13.500,58.000
3.156,-114.000,16.500,13.000,58.000
3.157,-116.500,14.500,11.000,56.000
3.158,-120.000,12.000,9.000,53.500
3.159,-123.000,9.000,6.000,50.500
3.160,-127.000,5.000,2.000,46.500
3.161,-132.500,-0.500,-4.000,41.000
3.162,-139.500,-7.500,-11.500,33.500
3.163,-148.000,-16.000,-20.500,24.000
3.164,-157.500,-26.000,-31.000,13.500
3.165,-167.500,-36.500,-42.000,2.500
3.166,-176.500,-46.500,-52.000,-8.000
3.167,-183.500,-54.000,-60.000,-16.000
3.168,-187.500,-59.000,-65.000,-20.500
3.169,-187.500,-59.500,-65.500,-21.000
3.170,-182.000,-55.000,-60.500,-16.000
3.171,-170.500,-43.500,-49.000,-4.000
3.172,-153.500,-26.500,-31.000,14.500
3.173,-131.500,-4.000,-8.000,37.500
3.174,-107.000,21.000,18.000,64.000
3.175,-82.000,47.000,44.500,91.000
3.176,-57.500,73.000,71.000,117.500
3.177,-33.500,98.500,97.000,144.000
3.178,-7.000,125.500,125.000,172.000
3.179,23.000,156.500,156.000,203.500
3.180,56.500,190.500,191.000,239.000
3.181,92.500,227.000,228.000,277.000
3.182,129.000,264.000,265.500,315.000
3.183,165.500,300.500,303.000,353.000
3.184,202.500,338.000,341.000,391.000
3.185,242.000,377.500,381.000,432.000
3.186,286.500,422.000,426.000,477.500
3.187,336.000,471.000,475.500,527.500
3.188,387.500,522.000,527.000,580.000
3.189,437.000,571.500,576.500,630.000
3.190,478.500,613.000,618.500,672.000
3.191,507.500,642.500,648.000,701.500
3.192,521.500,657.000,662.000,716.000
3.193,520.500,656.000,661.000,714.500
3.194,505.000,642.000,646.500,699.500
3.195,479.000,616.500,620.500,673.500
3.196,445.500,583.500,587.500,640.000
3.197,409.000,547.500,551.000,603.500
3.198,373.000,511.000,515.000,567.000
3.199,339.000,477.000,480.500,532.500
3.200,306.500,444.000,447.500,499.500
3.201,275.500,412.500,415.000,467.500
