'Elapsed time','AECG1','AECG2','AECG3','AECG4'
'seconds','uV','uV','uV','uV'
0.000,-45.000,-1009.000,574.500,-156.500
0.001,-46.500,-1011.000,572.000,-160.500
0.002,-48.000,-1013.000,569.500,-164.500
0.003,-49.000,-1014.500,567.000,-168.500
0.004,-49.000,-1015.000,565.500,-171.500
0.005,-48.000,-1014.500,565.500,-173.000
0.006,-46.000,-1013.500,566.000,-173.000
0.007,-44.500,-1012.500,567.500,-172.000
0.008,-43.500,-1011.000,568.500,-170.500
0.009,-43.500,-1010.500,569.500,-168.500
0.010,-43.500,-1010.500,570.500,-166.500
0.011,-44.500,-1010.000,571.000,-164.000
0.012,-45.500,-1010.000,571.500,-161.500
0.013,-46.500,-1010.500,572.000,-159.500
0.014,-47.500,-1011.000,571.500,-158.500
0.015,-49.500,-1013.000,570.500,-159.000
0.016,-52.000,-1015.000,568.000,-161.000
0.017,-55.500,-1018.500,565.000,-164.000
0.018,-59.000,-1022.000,561.000,-168.500
0.019,-62.000,-1026.000,557.000,-173.500
0.020,-65.000,-1029.000,553.000,-178.000
0.021,-67.000,-1031.500,549.500,-182.500
0.022,-68.000,-1033.500,547.000,-186.500
0.023,-69.000,-1035.000,544.500,-190.000
0.024,-69.500,-1036.500,542.500,-193.500
0.025,-70.500,-1037.500,540.500,-197.000
0.026,-71.500,-1038.500,538.500,-199.500
0.027,-72.000,-1039.500,537.500,-201.000
0.028,-72.500,-1040.000,537.500,-201.000
0.029,-73.000,-1040.000,538.000,-199.500
0.030,-73.000,-1039.500,539.500,-196.500
0.031,-73.500,-1039.000,541.000,-193.500
0.032,-74.000,-1038.500,542.000,-190.500
0.033,-75.000,-1038.500,543.000,-188.500
0.034,-76.000,-1039.000,543.000,-187.000
0.035,-77.000,-1040.000,543.000,-186.500
0.036,-78.000,-1040.500,542.000,-187.000
0.037,-79.000,-1041.500,541.000,-188.000
0.038,-80.500,-1042.500,539.500,-189.500
0.039,-82.000,-1044.000,537.500,-192.000
0.040,-83.000,-1046.000,535.500,-195.000
0.041,-84.000,-1047.000,533.000,-198.000
0.042,-84.500,-1048.000,531.000,-201.500
0.043,-84.000,-1049.000,529.500,-204.000
0.044,-83.000,-1049.000,528.500,-206.000
0.045,-82.000,-1048.000,528.500,-207.500
0.046,-80.000,-1047.000,529.500,-207.500
0.047,-78.500,-1045.000,530.500,-206.000
0.048,-77.000,-1043.500,532.500,-204.000
0.049,-76.000,-1042.000,534.500,-201.000
0.050,-75.000,-1041.000,536.500,-198.000
0.051,-75.000,-1040.500,537.500,-195.000
0.052,-76.000,-1040.500,538.000,-192.500
0.053,-78.000,-1041.500,537.500,-191.500
0.054,-80.000,-1042.500,537.000,-191.000
0.055,-82.000,-1044.500,535.500,-191.500
0.056,-84.500,-1046.000,534.000,-192.500
0.057,-86.500,-1048.000,531.500,-194.500
0.058,-88.500,-1050.000,529.000,-197.000
0.059,-90.000,-1052.000,526.500,-200.500
0.060,-91.000,-1053.500,524.000,-203.500
0.061,-92.000,-1055.000,521.500,-207.000
0.062,-92.000,-1056.000,519.500,-210.000
0.063,-91.500,-1056.500,518.500,-213.000
0.064,-91.000,-1056.500,517.500,-214.500
0.065,-89.500,-1055.500,517.500,-215.500
0.066,-88.000,-1054.500,518.000,-215.500
0.067,-86.500,-1053.000,519.500,-214.500
0.068,-84.500,-1051.500,521.000,-212.500
0.069,-83.000,-1049.500,523.000,-209.000
0.070,-82.000,-1048.000,525.000,-205.500
0.071,-81.500,-1047.000,527.000,-202.000
0.072,-81.500,-1046.000,528.500,-199.000
0.073,-82.000,-1045.500,529.500,-196.500
0.074,-82.500,-1045.000,530.500,-194.000
0.075,-82.500,-1044.500,531.500,-192.500
0.076,-82.500,-1044.000,532.000,-191.000
0.077,-82.500,-1043.500,532.500,-190.500
0.078,-82.500,-1043.500,532.000,-191.000
0.079,-82.500,-1043.500,531.000,-192.500
0.080,-83.000,-1044.500,529.500,-194.500
0.081,-83.000,-1045.000,528.000,-196.500
0.082,-83.000,-1045.500,526.500,-199.000
0.083,-82.500,-1046.000,525.500,-202.000
0.084,-82.500,-1047.000,524.500,-204.500
0.085,-82.500,-1047.500,523.000,-206.500
0.086,-82.000,-1048.000,522.000,-208.500
0.087,-81.500,-1047.500,522.000,-208.500
0.088,-80.500,-1046.500,523.000,-207.500
0.089,-79.000,-1045.000,525.000,-204.500
0.090,-78.000,-1043.500,527.000,-201.000
0.091,-78.000,-1043.000,528.500,-198.000
0.092,-79.000,-1043.000,529.000,-195.500
0.093,-80.500,-1044.000,529.500,-194.000
0.094,-82.000,-1045.000,529.000,-193.000
0.095,-84.000,-1046.500,528.000,-193.000
0.096,-87.000,-1049.000,525.500,-195.000
0.097,-90.500,-1052.500,521.500,-199.000
0.098,-95.000,-1057.500,515.500,-205.000
0.099,-100.000,-1063.000,509.000,-212.000
0.100,-105.000,-1068.500,502.000,-219.500
0.101,-108.500,-1072.500,496.500,-226.000
0.102,-109.000,-1074.000,494.000,-229.000
0.103,-106.000,-1071.000,496.000,-228.000
0.104,-98.000,-1064.000,502.500,-222.000
0.105,-86.000,-1052.500,514.500,-211.000
0.106,-70.000,-1037.000,530.500,-196.000
0.107,-52.000,-1018.500,549.000,-177.000
0.108,-32.500,-999.000,569.500,-156.500
0.109,-13.500,-979.000,590.500,-134.500
0.110,5.000,-960.000,611.500,-112.500
0.111,22.000,-941.500,631.000,-90.500
0.112,39.000,-923.500,650.500,-69.500
0.113,56.000,-905.500,669.500,-48.000
0.114,75.500,-885.500,691.000,-25.500
0.115,98.000,-862.000,715.500,0.500
0.116,126.000,-833.500,744.500,31.000
0.117,159.000,-800.000,778.000,65.500
0.118,197.000,-762.500,816.000,104.500
0.119,239.000,-720.000,858.000,147.000
0.120,285.000,-674.500,903.500,192.500
0.121,334.000,-626.000,951.500,240.500
0.122,384.000,-576.000,1001.000,289.500
0.123,435.000,-526.000,1051.000,339.000
0.124,484.500,-476.500,1099.500,387.500
0.125,531.000,-430.000,1145.500,433.000
0.126,572.500,-388.000,1187.500,474.500
0.127,608.500,-351.500,1223.500,511.000
0.128,638.500,-321.000,1254.500,542.500
0.129,663.000,-295.500,1280.000,569.500
0.130,682.000,-275.500,1301.500,592.000
0.131,696.000,-260.500,1317.000,609.500
0.132,704.000,-251.500,1326.500,620.500
0.133,705.000,-249.500,1329.000,624.500
0.134,699.500,-254.000,1325.500,621.500
0.135,689.000,-264.000,1315.500,612.000
0.136,673.000,-279.500,1300.000,596.500
0.137,651.000,-300.500,1278.000,574.500
0.138,623.500,-328.000,1249.500,545.500
0.139,589.500,-362.500,1213.500,508.500
0.140,547.500,-405.000,1169.500,463.000
0.141,497.000,-455.500,1116.500,408.500
0.142,440.000,-513.500,1056.500,346.000
0.143,379.000,-576.000,992.500,279.500
0.144,318.000,-638.000,929.000,213.500
0.145,261.000,-696.000,869.500,151.500
0.146,210.500,-747.500,816.500,97.000
0.147,167.500,-791.500,772.000,51.500
0.148,131.500,-828.000,735.500,14.500
0.149,102.000,-858.000,705.500,-15.000
0.150,77.000,-882.500,681.000,-38.000
0.151,56.000,-903.500,660.500,-57.000
0.152,37.000,-922.000,642.500,-73.500
0.153,20.000,-938.500,626.500,-87.500
0.154,5.000,-953.000,612.500,-100.500
0.155,-8.000,-965.500,600.000,-111.500
0.156,-18.500,-976.000,589.500,-121.500
0.157,-27.500,-984.500,580.500,-130.500
0.158,-35.000,-992.500,572.000,-139.000
0.159,-41.500,-999.000,564.500,-147.000
0.160,-46.500,-1004.500,557.500,-154.500
0.161,-50.500,-1009.500,551.500,-161.500
0.162,-53.500,-1013.500,546.000,-168.000
0.163,-55.500,-1017.000,541.000,-174.000
0.164,-56.500,-1019.000,537.500,-179.000
0.165,-57.000,-1020.500,535.000,-182.500
0.166,-56.500,-1021.000,534.000,-184.000
0.167,-55.500,-1020.000,534.500,-184.000
0.168,-54.000,-1018.500,535.500,-182.000
0.169,-52.500,-1017.000,537.500,-179.000
0.170,-52.000,-1016.000,539.500,-175.500
0.171,-53.000,-1015.500,541.000,-172.500
0.172,-54.500,-1016.500,541.000,-170.000
0.173,-57.500,-1018.500,540.500,-168.500
0.174,-61.000,-1020.500,539.500,-168.000
0.175,-64.000,-1022.500,538.500,-167.500
0.176,-66.500,-1024.000,538.000,-167.000
0.177,-68.500,-1025.000,537.500,-167.000
0.178,-69.500,-1026.000,536.500,-167.500
0.179,-70.000,-1027.000,535.500,-169.000
0.180,-70.500,-1027.500,533.500,-171.500
0.181,-71.000,-1029.000,531.000,-175.000
0.182,-72.000,-1031.000,528.000,-180.000
0.183,-73.000,-1033.000,524.000,-185.000
0.184,-74.000,-1035.000,521.000,-189.500
0.185,-74.000,-1036.000,519.500,-192.500
0.186,-73.500,-1035.500,519.000,-193.500
0.187,-72.000,-1034.500,519.500,-193.000
0.188,-70.500,-1033.000,521.000,-191.000
0.189,-69.500,-1031.000,522.000,-188.500
0.190,-69.000,-1030.000,523.500,-186.000
0.191,-69.500,-1029.500,524.500,-183.500
0.192,-70.000,-1029.500,525.500,-180.500
0.193,-70.500,-1029.500,526.500,-178.000
0.194,-71.000,-1029.000,527.000,-176.000
0.195,-71.000,-1029.000,527.500,-174.500
0.196,-71.500,-1029.500,527.500,-173.500
0.197,-72.000,-1030.000,527.000,-174.000
0.198,-72.000,-1030.500,526.000,-175.000
0.199,-72.500,-1031.000,524.500,-176.500
0.200,-73.000,-1031.500,523.000,-178.500
0.201,-73.000,-1032.500,521.000,-181.000
0.202,-72.500,-1032.500,520.000,-183.500
0.203,-71.500,-1032.000,519.000,-185.500
0.204,-70.000,-1031.000,518.500,-186.500
0.205,-68.500,-1030.000,519.000,-187.000
0.206,-66.500,-1028.500,519.500,-186.500
0.207,-64.500,-1027.000,521.000,-185.500
0.208,-63.000,-1025.500,522.500,-183.500
0.209,-62.000,-1023.500,524.500,-180.500
0.210,-61.000,-1022.000,526.500,-177.000
0.211,-61.000,-1021.000,528.000,-174.000
0.212,-61.500,-1020.500,529.500,-171.000
0.213,-62.500,-1020.500,530.000,-169.000
0.214,-63.500,-1021.000,530.000,-167.500
0.215,-65.000,-1022.000,529.500,-167.000
0.216,-66.500,-1023.000,528.500,-167.000
0.217,-68.000,-1024.000,527.000,-168.000
0.218,-69.500,-1026.000,525.000,-170.000
0.219,-71.500,-1027.500,522.500,-172.500
0.220,-72.500,-1029.000,520.000,-175.500
0.221,-73.500,-1030.500,517.500,-179.000
0.222,-74.000,-1032.000,515.500,-182.000
0.223,-74.000,-1032.500,513.500,-185.000
0.224,-72.500,-1032.000,513.000,-187.000
0.225,-70.500,-1030.500,513.500,-187.000
0.226,-67.500,-1028.000,515.500,-186.000
0.227,-64.500,-1025.500,518.000,-183.500
0.228,-61.500,-1022.500,521.000,-180.000
0.229,-59.500,-1020.500,523.500,-176.500
0.230,-58.500,-1019.000,525.000,-173.000
0.231,-58.500,-1018.000,526.500,-170.500
0.232,-59.000,-1018.000,527.000,-168.000
0.233,-60.000,-1018.000,527.000,-166.000
0.234,-60.500,-1018.500,527.500,-164.000
0.235,-61.000,-1018.500,528.000,-162.500
0.236,-61.000,-1018.000,528.500,-161.500
0.237,-61.000,-1017.500,529.000,-160.500
0.238,-61.000,-1017.500,528.500,-161.000
0.239,-61.500,-1018.000,527.000,-162.500
0.240,-63.000,-1019.000,525.000,-165.000
0.241,-65.000,-1021.000,522.000,-169.000
0.242,-66.500,-1023.000,518.500,-173.000
0.243,-67.500,-1025.000,515.500,-177.000
0.244,-68.500,-1026.000,513.500,-180.500
0.245,-68.000,-1026.500,512.000,-182.500
0.246,-67.000,-1026.000,511.500,-183.500
0.247,-65.000,-1024.500,512.500,-182.000
0.248,-63.000,-1022.000,515.000,-179.500
0.249,-60.500,-1019.500,517.500,-175.500
0.250,-58.500,-1016.500,520.500,-171.000
0.251,-56.500,-1014.000,524.000,-165.500
0.252,-55.500,-1011.500,526.500,-161.000
0.253,-55.000,-1010.500,528.000,-157.500
0.254,-56.000,-1010.000,528.500,-155.500
0.255,-57.000,-1010.500,528.000,-155.000
0.256,-58.500,-1011.500,527.500,-155.000
0.257,-59.500,-1012.000,526.500,-156.000
0.258,-60.000,-1013.000,525.000,-157.000
0.259,-60.500,-1014.000,523.500,-159.000
0.260,-60.500,-1014.500,522.000,-161.000
0.261,-60.000,-1015.000,520.500,-163.500
0.262,-59.500,-1015.000,519.000,-166.000
0.263,-58.500,-1015.000,518.000,-168.000
0.264,-57.000,-1014.500,517.500,-170.000
0.265,-56.000,-1013.500,517.500,-171.500
0.266,-54.500,-1012.500,518.000,-171.500
0.267,-53.500,-1011.000,519.000,-170.500
0.268,-52.000,-1009.500,520.500,-168.000
0.269,-51.000,-1008.000,523.000,-165.000
0.270,-50.500,-1006.500,524.500,-161.500
0.271,-50.500,-1006.000,526.500,-158.000
0.272,-51.000,-1005.500,527.500,-155.000
0.273,-51.500,-1005.500,528.000,-153.000
0.274,-52.500,-1006.000,528.000,-151.500
0.275,-53.000,-1006.000,528.000,-150.500
0.276,-53.500,-1006.000,528.000,-150.000
0.277,-54.500,-1006.500,527.500,-150.000
0.278,-55.000,-1006.500,526.500,-151.000
0.279,-55.500,-1007.500,524.500,-153.000
0.280,-56.000,-1008.500,522.500,-155.000
0.281,-56.000,-1009.000,521.000,-157.500
0.282,-55.500,-1009.000,519.000,-159.500
0.283,-54.500,-1009.000,518.000,-161.500
0.284,-53.000,-1008.000,518.000,-162.500
0.285,-51.000,-1006.500,518.500,-163.000
0.286,-49.000,-1005.000,520.000,-162.500
0.287,-46.500,-1003.000,521.500,-161.000
0.288,-45.000,-1001.000,523.500,-159.000
0.289,-44.000,-999.500,525.000,-156.000
0.290,-43.500,-998.500,527.000,-153.000
0.291,-43.000,-997.000,528.500,-149.500
0.292,-42.000,-995.500,530.500,-146.000
0.293,-41.000,-993.500,532.500,-142.000
0.294,-39.500,-992.000,534.000,-139.000
0.295,-38.500,-991.000,534.500,-137.000
0.296,-38.000,-990.500,534.500,-135.500
0.297,-37.500,-990.000,534.000,-135.000
0.298,-38.000,-990.500,533.500,-135.000
0.299,-38.000,-990.500,533.000,-136.000
0.300,-38.000,-991.000,533.000,-137.000
0.301,-37.500,-990.500,533.000,-138.500
0.302,-37.000,-990.500,533.000,-140.000
0.303,-35.500,-989.500,533.500,-141.000
0.304,-33.500,-988.000,534.500,-141.500
0.305,-30.500,-985.500,536.500,-140.500
0.306,-26.500,-982.000,539.500,-138.000
0.307,-22.500,-978.000,543.500,-134.000
0.308,-18.000,-973.500,548.000,-129.000
0.309,-14.500,-969.500,553.000,-123.000
0.310,-11.500,-965.500,557.500,-117.500
0.311,-9.000,-962.000,561.500,-111.500
0.312,-7.000,-959.000,565.000,-106.500
0.313,-5.500,-957.000,567.500,-102.000
0.314,-5.000,-955.500,569.500,-99.000
0.315,-4.500,-954.500,570.000,-97.000
0.316,-4.000,-954.000,571.000,-95.500
0.317,-3.500,-953.000,571.500,-94.500
0.318,-2.500,-952.000,572.500,-94.000
0.319,-1.500,-951.000,573.000,-93.500
0.320,-0.500,-950.500,573.000,-94.000
0.321,0.500,-949.500,572.500,-95.000
0.322,2.000,-948.500,572.500,-96.000
0.323,4.500,-947.000,573.000,-97.000
0.324,7.500,-944.500,574.000,-96.500
0.325,11.000,-941.500,576.500,-95.500
0.326,15.000,-938.000,579.500,-93.000
0.327,18.500,-934.000,582.500,-89.500
0.328,22.000,-931.000,585.500,-85.500
0.329,24.500,-928.000,589.000,-81.500
0.330,26.500,-925.500,592.000,-77.000
0.331,29.000,-923.000,595.000,-72.000
0.332,31.000,-920.000,598.000,-66.500
0.333,33.500,-917.000,601.500,-61.500
0.334,36.500,-913.500,605.500,-56.000
0.335,39.000,-910.500,609.000,-52.000
0.336,41.000,-908.500,611.000,-49.000
0.337,41.500,-907.500,612.000,-48.000
0.338,41.500,-907.000,611.500,-48.500
0.339,41.000,-907.500,610.500,-49.500
0.340,41.000,-908.000,609.000,-51.500
0.341,41.500,-908.000,608.500,-53.000
0.342,42.500,-907.500,608.000,-54.500
0.343,44.500,-906.500,608.000,-56.000
0.344,46.500,-905.000,608.500,-56.500
0.345,49.000,-903.000,609.500,-56.500
0.346,51.500,-901.000,611.000,-55.500
0.347,54.000,-898.500,613.000,-53.500
0.348,56.000,-896.000,615.500,-50.500
0.349,58.500,-893.500,618.500,-46.000
0.350,60.500,-890.500,622.000,-41.500
0.351,62.000,-888.000,625.000,-36.500
0.352,63.000,-886.500,627.500,-32.500
0.353,63.000,-885.000,629.500,-28.500
0.354,63.500,-884.500,631.000,-26.000
0.355,63.500,-884.000,632.000,-24.000
0.356,63.500,-883.500,632.000,-23.500
0.357,63.000,-883.500,632.000,-23.500
0.358,62.500,-884.000,631.000,-24.500
0.359,62.500,-885.000,629.500,-26.000
0.360,62.000,-886.000,628.000,-28.500
0.361,61.500,-887.000,625.500,-31.500
0.362,61.000,-888.500,623.000,-35.000
0.363,60.500,-889.500,620.500,-38.500
0.364,60.500,-890.500,619.000,-41.500
0.365,60.500,-890.500,617.500,-44.000
0.366,61.500,-890.000,617.000,-45.000
0.367,62.000,-889.500,617.000,-45.000
0.368,62.500,-888.500,617.500,-44.000
0.369,63.000,-887.500,618.500,-42.000
0.370,63.000,-887.500,619.000,-40.000
0.371,61.500,-887.500,619.500,-38.000
0.372,59.500,-889.000,618.500,-37.000
0.373,56.500,-891.000,617.000,-37.000
0.374,53.500,-893.500,615.500,-37.500
0.375,50.000,-896.000,613.500,-39.000
0.376,47.000,-898.500,611.000,-40.500
0.377,44.000,-901.000,608.500,-43.000
0.378,41.500,-904.000,605.000,-46.500
0.379,38.000,-907.500,600.500,-51.000
0.380,34.500,-911.500,595.500,-56.500
0.381,30.500,-916.000,590.000,-63.000
0.382,27.000,-920.000,584.500,-69.500
0.383,24.000,-923.500,580.000,-75.500
0.384,22.000,-926.500,576.000,-80.500
0.385,20.500,-929.000,573.000,-84.000
0.386,20.000,-930.000,571.000,-86.500
0.387,20.000,-930.500,570.500,-87.500
0.388,20.500,-930.500,570.500,-87.000
0.389,20.500,-930.000,571.000,-85.500
0.390,19.500,-930.500,571.000,-84.000
0.391,17.500,-932.000,570.000,-83.000
0.392,14.500,-934.500,568.000,-83.000
0.393,10.500,-937.000,565.500,-84.000
0.394,6.500,-940.500,563.000,-85.500
0.395,2.000,-944.000,560.000,-87.500
0.396,-2.000,-948.000,556.000,-90.500
0.397,-6.500,-952.000,552.000,-94.500
0.398,-11.000,-956.500,547.500,-99.500
0.399,-15.500,-961.500,542.000,-105.000
0.400,-19.500,-966.000,536.000,-112.000
0.401,-23.500,-971.000,530.000,-118.500
0.402,-27.500,-975.000,525.000,-125.000
0.403,-30.000,-978.500,520.000,-131.000
0.404,-32.000,-980.500,516.500,-135.500
0.405,-33.500,-982.500,513.500,-139.000
0.406,-34.000,-983.500,512.000,-141.000
0.407,-34.500,-984.000,511.000,-142.000
0.408,-35.500,-985.000,510.000,-142.500
0.409,-36.500,-985.500,509.500,-142.000
0.410,-38.000,-987.000,508.500,-141.000
0.411,-40.000,-988.500,507.500,-140.500
0.412,-42.500,-990.000,507.000,-139.500
0.413,-44.500,-991.500,506.000,-138.500
0.414,-46.500,-992.500,505.000,-138.000
0.415,-48.000,-994.000,504.000,-138.000
0.416,-50.000,-995.000,502.500,-138.500
0.417,-51.500,-997.000,500.500,-140.000
0.418,-53.500,-999.000,498.000,-142.500
0.419,-55.500,-1001.000,495.000,-146.000
0.420,-57.500,-1003.500,491.500,-150.000
0.421,-59.500,-1006.500,488.000,-155.000
0.422,-61.500,-1009.500,484.000,-160.000
0.423,-63.000,-1011.500,481.000,-164.500
0.424,-64.000,-1013.000,478.500,-168.500
0.425,-64.500,-1013.500,477.000,-171.000
0.426,-64.000,-1013.500,476.500,-172.000
0.427,-64.000,-1013.500,476.500,-172.500
0.428,-63.500,-1013.000,476.500,-172.000
0.429,-63.500,-1012.500,477.500,-170.000
0.430,-63.000,-1012.000,478.500,-167.500
0.431,-63.000,-1012.000,479.500,-164.500
0.432,-63.500,-1012.000,480.000,-161.500
0.433,-65.000,-1012.500,480.500,-160.000
0.434,-66.500,-1013.500,480.000,-159.000
0.435,-68.000,-1014.500,479.500,-159.000
0.436,-69.500,-1015.500,478.000,-159.500
0.437,-71.500,-1017.000,476.500,-161.000
0.438,-73.500,-1018.500,474.000,-163.500
0.439,-75.500,-1020.500,471.500,-166.500
0.440,-77.000,-1022.500,468.500,-170.000
0.441,-78.500,-1024.500,466.000,-173.500
0.442,-79.500,-1026.000,463.500,-177.000
0.443,-79.500,-1027.000,462.000,-180.500
0.444,-78.500,-1027.000,461.000,-182.500
0.445,-77.000,-1026.000,461.000,-183.500
0.446,-75.000,-1024.500,462.000,-183.000
0.447,-73.000,-1023.000,463.500,-181.500
0.448,-71.500,-1021.500,465.000,-179.500
0.449,-71.000,-1020.500,466.500,-177.000
0.450,-71.000,-1020.000,467.500,-174.500
0.451,-72.000,-1020.000,468.000,-172.000
0.452,-73.500,-1020.500,468.000,-170.000
0.453,-75.000,-1021.500,467.500,-169.000
0.454,-77.000,-1023.000,466.500,-168.500
0.455,-78.500,-1024.500,465.500,-168.500
0.456,-80.500,-1026.000,464.000,-169.500
0.457,-82.000,-1027.500,463.000,-170.500
0.458,-83.500,-1029.000,461.500,-172.000
0.459,-84.000,-1030.000,460.000,-174.500
0.460,-84.500,-1031.000,458.500,-177.000
0.461,-84.000,-1031.000,457.000,-179.000
0.462,-82.500,-1031.000,456.500,-181.000
0.463,-81.000,-1030.000,456.000,-182.000
0.464,-79.500,-1029.000,456.000,-183.500
0.465,-78.000,-1028.000,456.000,-184.500
0.466,-77.500,-1027.000,456.000,-185.000
0.467,-77.000,-1026.000,456.500,-184.500
0.468,-76.500,-1025.500,457.500,-183.500
0.469,-76.500,-1024.500,458.000,-181.500
0.470,-76.000,-1023.500,459.500,-179.000
0.471,-75.500,-1022.500,461.000,-175.500
0.472,-75.000,-1021.500,463.000,-172.000
0.473,-75.000,-1020.500,464.500,-169.000
0.474,-75.500,-1020.500,465.500,-167.000
0.475,-76.500,-1020.500,466.000,-166.000
0.476,-78.000,-1022.000,465.000,-166.500
0.477,-80.000,-1023.500,463.000,-168.000
0.478,-81.500,-1025.500,461.000,-170.000
0.479,-83.500,-1027.500,458.000,-173.000
0.480,-85.500,-1029.500,455.000,-176.500
0.481,-87.000,-1031.500,452.500,-180.000
0.482,-87.500,-1033.000,450.500,-183.500
0.483,-88.000,-1033.500,449.000,-186.500
0.484,-87.500,-1033.500,448.000,-189.000
0.485,-86.500,-1033.000,447.500,-190.500
0.486,-85.000,-1032.000,448.000,-190.500
0.487,-82.500,-1030.000,450.000,-189.000
0.488,-80.000,-1027.000,453.000,-185.500
0.489,-77.000,-1024.000,456.500,-181.000
0.490,-74.000,-1021.000,460.500,-176.000
0.491,-72.500,-1018.500,463.500,-171.000
0.492,-71.500,-1017.000,465.500,-167.000
0.493,-72.000,-1017.000,466.500,-165.000
0.494,-73.000,-1017.500,466.500,-163.500
0.495,-74.000,-1018.000,466.500,-163.000
0.496,-74.500,-1018.500,466.000,-163.000
0.497,-75.000,-1019.000,465.500,-164.000
0.498,-76.000,-1020.000,464.000,-165.500
0.499,-77.500,-1022.000,461.500,-168.000
0.500,-79.000,-1024.000,458.500,-172.000
0.501,-81.000,-1026.500,455.000,-176.500
0.502,-83.000,-1029.000,451.500,-182.000
0.503,-85.000,-1032.000,447.000,-187.500
0.504,-86.500,-1034.000,443.500,-192.500
0.505,-86.500,-1034.500,441.500,-195.500
0.506,-85.000,-1033.500,442.000,-195.500
0.507,-81.500,-1031.000,444.500,-192.500
0.508,-78.000,-1027.000,449.000,-187.500
0.509,-74.500,-1023.000,454.000,-182.000
0.510,-73.000,-1020.500,457.500,-177.000
0.511,-73.000,-1019.500,460.000,-173.000
0.512,-74.000,-1019.500,461.000,-170.500
0.513,-76.000,-1020.000,461.500,-169.000
0.514,-77.500,-1020.500,462.000,-167.500
0.515,-79.000,-1021.000,462.500,-166.500
0.516,-79.500,-1021.000,463.000,-166.000
0.517,-80.000,-1021.000,463.000,-165.500
0.518,-79.500,-1021.000,463.500,-166.000
0.519,-79.500,-1021.000,463.000,-167.000
0.520,-80.000,-1021.500,461.500,-169.000
0.521,-80.500,-1022.500,460.000,-172.000
0.522,-81.000,-1023.500,458.000,-175.000
0.523,-81.000,-1024.500,456.000,-178.000
0.524,-80.500,-1024.500,455.000,-181.000
0.525,-80.000,-1024.500,454.000,-183.000
0.526,-79.000,-1024.500,453.500,-184.000
0.527,-78.000,-1024.000,453.500,-184.000
0.528,-77.500,-1023.000,454.500,-183.000
0.529,-76.500,-1022.500,455.500,-181.000
0.530,-76.000,-1021.500,457.000,-178.500
0.531,-76.000,-1021.500,458.000,-175.500
0.532,-76.000,-1021.000,459.500,-172.500
0.533,-76.000,-1020.500,461.000,-170.000
0.534,-76.000,-1020.000,462.000,-167.500
0.535,-76.500,-1020.000,463.000,-166.500
0.536,-77.000,-1020.000,462.500,-166.000
0.537,-77.500,-1020.500,462.000,-166.500
0.538,-78.000,-1021.000,461.000,-168.000
0.539,-78.500,-1021.500,459.500,-169.500
0.540,-78.500,-1022.000,458.500,-172.000
0.541,-79.000,-1023.000,456.500,-175.000
0.542,-79.500,-1024.000,454.500,-178.000
0.543,-80.000,-1025.500,452.500,-181.500
0.544,-80.000,-1026.000,451.000,-184.000
0.545,-80.000,-1026.000,450.000,-186.000
0.546,-79.000,-1025.500,450.500,-186.000
0.547,-78.000,-1025.000,451.500,-185.500
0.548,-77.500,-1024.000,453.000,-184.000
0.549,-77.500,-1023.000,454.000,-182.000
0.550,-77.500,-1022.500,455.500,-179.000
0.551,-78.000,-1022.000,457.000,-176.500
0.552,-78.500,-1021.500,458.500,-173.500
0.553,-79.000,-1021.500,459.500,-171.000
0.554,-79.500,-1021.000,460.500,-169.000
0.555,-80.000,-1021.500,461.000,-168.000
0.556,-80.500,-1022.000,460.500,-167.500
0.557,-81.000,-1022.000,460.000,-168.000
0.558,-81.500,-1022.500,459.500,-168.500
0.559,-81.000,-1022.500,459.000,-170.000
0.560,-80.500,-1023.000,458.000,-172.000
0.561,-80.500,-1023.500,456.000,-174.500
0.562,-80.500,-1024.500,454.000,-177.500
0.563,-80.500,-1025.500,452.000,-180.500
0.564,-79.500,-1026.000,451.000,-183.500
0.565,-78.000,-1025.500,451.000,-185.000
0.566,-76.500,-1024.500,451.500,-185.000
0.567,-75.000,-1023.500,453.000,-184.500
0.568,-73.500,-1022.000,454.500,-182.500
0.569,-72.500,-1020.500,456.500,-180.000
0.570,-72.000,-1019.000,458.500,-176.500
0.571,-72.000,-1018.500,460.000,-173.500
0.572,-72.500,-1018.000,460.500,-171.000
0.573,-74.000,-1018.500,461.000,-169.000
0.574,-75.500,-1019.500,461.000,-168.000
0.575,-77.000,-1020.000,461.000,-167.500
0.576,-78.000,-1020.500,460.500,-167.500
0.577,-78.500,-1021.000,460.500,-167.500
0.578,-79.000,-1021.500,459.500,-168.500
0.579,-79.500,-1022.500,458.500,-170.500
0.580,-80.500,-1023.500,457.000,-173.000
0.581,-81.500,-1025.000,454.500,-176.500
0.582,-82.000,-1026.500,452.500,-180.000
0.583,-82.500,-1027.500,450.500,-184.000
0.584,-82.000,-1027.500,449.000,-187.000
0.585,-81.000,-1027.500,448.000,-189.500
0.586,-79.500,-1026.500,448.000,-190.500
0.587,-77.000,-1025.000,449.000,-190.000
0.588,-75.000,-1023.500,450.000,-188.500
0.589,-73.500,-1022.000,451.500,-186.500
0.590,-72.000,-1020.500,453.500,-183.000
0.591,-70.500,-1018.500,456.000,-179.000
0.592,-69.500,-1017.000,459.000,-174.500
0.593,-69.000,-1015.500,461.500,-170.500
0.594,-69.000,-1014.500,463.500,-167.500
0.595,-70.000,-1014.500,464.500,-165.500
0.596,-71.000,-1015.000,465.000,-164.500
0.597,-72.500,-1015.500,465.000,-164.000
0.598,-74.000,-1016.500,464.500,-164.500
0.599,-76.500,-1018.500,463.000,-166.000
0.600,-78.500,-1020.500,461.000,-168.500
0.601,-80.500,-1022.500,458.500,-172.000
0.602,-81.500,-1024.000,456.500,-175.500
0.603,-81.500,-1025.000,454.500,-178.500
0.604,-80.500,-1025.000,454.000,-181.000
0.605,-79.000,-1024.000,454.000,-182.500
0.606,-76.500,-1023.000,455.000,-182.500
0.607,-75.000,-1022.000,456.000,-182.500
0.608,-74.000,-1021.500,456.500,-182.000
0.609,-74.000,-1021.500,457.000,-181.000
0.610,-74.500,-1021.500,458.000,-179.000
0.611,-75.000,-1021.500,458.500,-177.000
0.612,-76.000,-1022.000,459.000,-175.000
0.613,-77.000,-1022.000,460.000,-173.000
0.614,-77.500,-1021.500,460.500,-171.000
0.615,-78.000,-1021.500,461.000,-170.000
0.616,-78.500,-1022.000,461.500,-169.500
0.617,-79.000,-1022.500,461.000,-170.000
0.618,-79.500,-1023.000,460.000,-171.500
0.619,-80.500,-1024.000,459.000,-173.000
0.620,-80.500,-1024.500,457.500,-175.500
0.621,-81.000,-1025.500,456.000,-178.000
0.622,-80.500,-1025.500,455.000,-180.500
0.623,-79.000,-1025.500,454.000,-182.500
0.624,-78.000,-1025.000,454.000,-184.500
0.625,-76.500,-1024.000,454.000,-186.000
0.626,-75.000,-1023.500,454.500,-187.000
0.627,-73.500,-1022.500,455.500,-186.000
0.628,-72.500,-1021.000,457.500,-184.500
0.629,-71.000,-1019.000,460.000,-181.000
0.630,-70.000,-1017.000,462.500,-177.000
0.631,-69.500,-1015.500,465.000,-173.500
0.632,-70.000,-1015.000,466.500,-170.500
0.633,-71.000,-1015.500,467.000,-168.500
0.634,-73.000,-1016.500,466.500,-167.500
0.635,-74.500,-1017.500,466.500,-167.000
0.636,-75.500,-1018.000,466.500,-166.500
0.637,-76.000,-1018.000,466.500,-167.000
0.638,-76.000,-1018.500,466.000,-168.000
0.639,-76.500,-1019.500,464.500,-170.000
0.640,-77.500,-1021.000,463.000,-172.500
0.641,-77.500,-1022.000,461.500,-175.500
0.642,-77.000,-1022.000,460.500,-178.000
0.643,-76.000,-1021.500,460.000,-180.000
0.644,-75.000,-1021.000,459.500,-182.000
0.645,-74.000,-1021.000,459.500,-183.500
0.646,-73.000,-1020.000,459.500,-184.500
0.647,-72.500,-1019.500,460.500,-184.000
0.648,-71.500,-1019.000,461.500,-183.000
0.649,-71.500,-1018.000,462.500,-181.000
0.650,-71.500,-1017.500,464.000,-178.500
0.651,-72.000,-1017.000,465.500,-175.500
0.652,-72.000,-1016.500,467.500,-172.500
0.653,-72.000,-1015.500,469.500,-169.500
0.654,-71.000,-1014.000,471.500,-166.000
0.655,-70.000,-1013.000,473.500,-163.500
0.656,-69.000,-1012.000,474.500,-162.000
0.657,-69.500,-1012.500,474.500,-162.500
0.658,-70.500,-1013.500,473.000,-164.500
0.659,-72.000,-1015.500,470.500,-167.500
0.660,-73.500,-1017.000,468.500,-170.500
0.661,-74.500,-1018.500,466.500,-174.000
0.662,-74.500,-1019.500,465.000,-177.000
0.663,-74.500,-1019.500,464.000,-180.000
0.664,-74.000,-1019.500,463.500,-182.000
0.665,-72.500,-1018.500,464.000,-183.500
0.666,-71.000,-1017.000,464.500,-183.500
0.667,-69.500,-1015.500,466.000,-182.500
0.668,-68.000,-1014.000,468.500,-180.500
0.669,-66.500,-1012.000,470.500,-177.500
0.670,-66.000,-1011.000,472.500,-174.500
0.671,-66.500,-1010.500,474.000,-172.000
0.672,-68.500,-1011.500,474.000,-171.000
0.673,-70.500,-1013.000,473.000,-171.000
0.674,-73.000,-1015.000,471.500,-171.500
0.675,-74.500,-1016.500,470.000,-172.500
0.676,-76.000,-1017.000,469.000,-173.000
0.677,-76.500,-1017.500,468.500,-173.500
0.678,-76.000,-1017.500,468.500,-173.500
0.679,-76.000,-1017.000,468.500,-174.000
0.680,-75.500,-1017.500,468.000,-175.500
0.681,-75.000,-1018.000,467.500,-177.500
0.682,-74.500,-1018.500,467.500,-179.500
0.683,-73.000,-1018.000,467.500,-181.000
0.684,-71.500,-1017.000,469.000,-182.500
0.685,-69.000,-1015.500,470.500,-182.500
0.686,-66.500,-1013.000,473.000,-181.000
0.687,-63.500,-1010.000,476.500,-178.500
0.688,-60.000,-1006.500,480.500,-174.500
0.689,-56.500,-1002.500,485.000,-169.500
0.690,-53.500,-998.500,490.000,-163.500
0.691,-51.000,-995.000,494.500,-157.500
0.692,-48.500,-992.000,499.000,-151.500
0.693,-46.500,-989.000,503.500,-146.500
0.694,-44.500,-986.500,507.000,-142.000
0.695,-43.000,-984.500,509.500,-139.000
0.696,-42.000,-982.500,512.000,-136.500
0.697,-41.000,-981.500,513.000,-135.500
0.698,-40.500,-981.000,514.000,-135.000
0.699,-40.000,-980.000,514.000,-136.000
0.700,-39.000,-979.500,514.000,-136.500
0.701,-37.500,-978.000,514.500,-137.500
0.702,-35.000,-977.000,515.500,-138.500
0.703,-33.000,-975.500,516.000,-139.500
0.704,-31.500,-974.500,516.500,-140.500
0.705,-30.000,-974.000,516.500,-142.000
0.706,-29.500,-973.500,516.500,-143.000
0.707,-29.000,-973.000,517.000,-143.500
0.708,-28.500,-973.000,517.500,-143.000
0.709,-29.000,-973.500,518.000,-142.500
0.710,-30.000,-974.000,518.500,-141.000
0.711,-31.500,-975.000,518.500,-140.000
0.712,-33.500,-975.500,519.000,-138.500
0.713,-34.500,-976.000,519.500,-136.500
0.714,-35.500,-976.000,521.000,-134.500
0.715,-35.500,-975.500,522.000,-133.000
0.716,-36.000,-975.000,523.000,-132.000
0.717,-36.500,-975.500,522.500,-132.000
0.718,-37.500,-976.500,521.500,-134.000
0.719,-39.000,-978.500,519.500,-136.500
0.720,-40.000,-980.000,517.500,-139.500
0.721,-41.000,-981.500,515.500,-143.000
0.722,-41.500,-982.500,513.500,-146.500
0.723,-41.500,-983.500,512.000,-150.000
0.724,-41.500,-984.000,510.500,-153.000
0.725,-41.500,-984.000,509.500,-155.000
0.726,-41.000,-984.000,509.500,-156.500
0.727,-40.000,-983.500,510.500,-156.500
0.728,-39.000,-982.500,512.500,-155.000
0.729,-37.000,-980.500,515.500,-151.500
0.730,-35.000,-977.500,519.500,-147.000
0.731,-34.000,-975.500,522.500,-142.500
0.732,-33.500,-975.000,524.500,-139.500
0.733,-34.500,-975.000,525.000,-138.000
0.734,-36.500,-976.500,524.500,-138.000
0.735,-38.500,-978.000,523.500,-138.500
0.736,-41.000,-980.000,522.000,-140.500
0.737,-43.500,-982.500,520.000,-143.000
0.738,-46.500,-985.000,518.000,-146.000
0.739,-49.000,-988.000,515.000,-150.000
0.740,-52.000,-991.000,511.500,-154.500
0.741,-55.000,-995.000,507.000,-160.000
0.742,-58.500,-999.500,501.500,-167.000
0.743,-62.500,-1004.500,496.000,-174.000
0.744,-66.000,-1009.000,490.500,-181.000
0.745,-68.500,-1012.000,487.000,-186.000
0.746,-69.500,-1014.000,485.500,-189.000
0.747,-69.500,-1013.500,485.500,-189.500
0.748,-68.000,-1012.000,488.000,-187.000
0.749,-65.500,-1009.000,491.500,-183.000
0.750,-62.500,-1006.000,495.500,-178.000
0.751,-60.500,-1003.000,499.500,-172.500
0.752,-60.000,-1001.500,503.000,-168.000
0.753,-60.000,-1000.500,504.500,-165.500
0.754,-61.000,-1001.000,505.500,-163.500
0.755,-62.500,-1001.500,505.500,-163.000
0.756,-63.500,-1002.500,505.000,-163.500
0.757,-65.000,-1003.500,504.000,-165.000
0.758,-65.500,-1004.500,503.500,-166.000
0.759,-65.500,-1004.500,503.500,-167.500
0.760,-65.000,-1004.500,503.000,-169.000
0.761,-65.000,-1004.500,502.500,-171.500
0.762,-64.500,-1005.000,501.500,-174.000
0.763,-65.000,-1006.000,499.500,-178.000
0.764,-65.500,-1007.000,498.000,-181.500
0.765,-65.500,-1007.500,497.500,-184.000
0.766,-64.500,-1007.000,497.500,-185.000
0.767,-63.000,-1006.000,499.000,-184.500
0.768,-61.000,-1004.000,501.500,-182.500
0.769,-59.500,-1002.000,504.500,-179.500
0.770,-59.000,-1000.500,507.000,-176.000
0.771,-59.000,-1000.000,508.500,-173.500
0.772,-60.500,-1001.000,509.000,-171.500
0.773,-63.000,-1002.500,509.000,-171.000
0.774,-65.000,-1004.000,508.500,-170.500
0.775,-67.000,-1006.000,508.000,-171.000
0.776,-69.000,-1007.500,507.000,-172.000
0.777,-71.000,-1008.500,505.500,-173.500
0.778,-72.500,-1010.000,504.000,-175.500
0.779,-74.000,-1011.500,502.500,-178.000
0.780,-74.000,-1012.500,501.500,-180.500
0.781,-74.000,-1013.000,500.500,-183.500
0.782,-73.000,-1013.500,500.000,-186.000
0.783,-71.500,-1013.000,500.000,-188.500
0.784,-70.000,-1012.000,500.000,-190.500
0.785,-69.000,-1011.500,500.500,-191.500
0.786,-68.000,-1010.500,501.500,-192.000
0.787,-67.500,-1010.000,502.000,-191.500
0.788,-67.000,-1009.500,503.500,-190.500
0.789,-66.500,-1008.500,505.500,-188.500
0.790,-65.500,-1007.000,508.000,-185.000
0.791,-64.500,-1005.500,510.500,-181.500
0.792,-64.500,-1004.500,513.000,-177.500
0.793,-64.500,-1003.500,515.000,-174.500
0.794,-64.500,-1003.000,516.500,-172.500
0.795,-65.500,-1003.000,517.000,-171.500
0.796,-66.000,-1003.000,517.500,-171.500
0.797,-66.000,-1003.000,518.000,-171.500
0.798,-65.000,-1002.500,519.000,-171.500
0.799,-64.000,-1002.000,519.500,-172.000
0.800,-63.000,-1001.500,519.500,-173.000
0.801,-62.000,-1001.500,519.000,-175.000
0.802,-62.000,-1002.500,518.000,-177.500
0.803,-62.000,-1003.500,516.000,-181.000
0.804,-62.500,-1004.500,515.000,-184.000
0.805,-62.000,-1004.500,514.500,-186.500
0.806,-61.000,-1003.500,515.000,-187.000
0.807,-59.500,-1001.500,517.000,-185.500
0.808,-57.000,-999.500,520.000,-183.000
0.809,-55.000,-997.000,523.000,-179.500
0.810,-54.000,-995.500,525.500,-176.000
0.811,-54.500,-995.500,527.500,-173.500
0.812,-56.500,-997.000,527.500,-172.500
0.813,-60.500,-1000.000,525.500,-173.500
0.814,-66.000,-1005.000,521.500,-177.000
0.815,-72.500,-1011.500,516.000,-182.500
0.816,-80.000,-1018.500,509.500,-189.000
0.817,-86.500,-1025.000,503.000,-196.000
0.818,-92.000,-1030.500,497.500,-202.000
0.819,-94.500,-1033.500,494.000,-206.500
0.820,-93.500,-1033.500,494.500,-207.500
0.821,-88.000,-1029.000,498.500,-204.500
0.822,-78.000,-1019.500,507.000,-197.500
0.823,-64.500,-1006.500,520.000,-186.000
0.824,-47.000,-990.500,536.000,-171.500
0.825,-28.000,-971.500,554.500,-154.000
0.826,-7.500,-951.500,574.500,-134.000
0.827,14.000,-930.000,596.500,-112.500
0.828,36.000,-908.000,619.000,-89.500
0.829,57.500,-886.000,642.500,-65.500
0.830,78.500,-863.500,666.000,-41.000
0.831,100.500,-840.500,690.500,-15.000
0.832,125.000,-815.500,717.500,14.000
0.833,153.000,-786.500,748.000,46.000
0.834,185.500,-753.500,783.000,82.500
0.835,222.500,-716.000,822.000,122.500
0.836,263.000,-675.000,864.500,166.000
0.837,307.000,-630.500,910.000,212.000
0.838,352.500,-584.000,957.000,259.000
0.839,400.000,-536.500,1005.000,306.500
0.840,447.500,-489.000,1053.000,354.000
0.841,495.500,-441.500,1100.500,401.000
0.842,542.000,-395.500,1146.500,446.000
0.843,586.000,-352.000,1190.000,488.000
0.844,626.000,-312.500,1229.000,526.500
0.845,660.500,-278.000,1264.000,559.500
0.846,689.500,-248.500,1293.000,588.000
0.847,713.000,-225.000,1317.000,611.000
0.848,729.500,-207.500,1335.000,628.500
0.849,739.500,-197.000,1346.500,640.000
0.850,742.000,-193.500,1351.000,644.500
0.851,737.500,-197.000,1347.500,642.000
0.852,726.500,-207.000,1338.000,633.000
0.853,709.500,-223.500,1321.500,618.000
0.854,687.000,-245.500,1299.500,596.000
0.855,659.000,-274.000,1271.500,568.000
0.856,623.500,-309.000,1236.000,532.500
0.857,581.500,-351.500,1193.500,489.000
0.858,532.000,-400.500,1144.000,437.500
0.859,476.500,-456.500,1088.000,379.000
0.860,416.500,-516.500,1027.500,315.500
0.861,355.000,-578.500,965.000,250.000
0.862,296.000,-638.500,904.000,186.000
0.863,242.500,-693.000,849.000,127.500
0.864,197.000,-740.000,801.500,77.000
0.865,160.000,-778.500,763.000,36.000
0.866,130.500,-808.500,733.000,3.500
0.867,107.500,-832.500,709.000,-21.500
0.868,87.500,-852.000,689.500,-41.500
0.869,70.500,-869.500,672.500,-58.000
0.870,54.500,-885.000,658.000,-71.500
0.871,40.000,-899.000,645.000,-83.500
0.872,27.000,-911.500,633.500,-94.000
0.873,16.000,-922.000,623.500,-103.000
0.874,6.000,-932.000,615.000,-111.000
0.875,-2.500,-940.500,607.000,-118.500
0.876,-10.500,-948.000,599.500,-125.500
0.877,-16.500,-954.500,593.500,-132.000
0.878,-21.500,-959.500,588.500,-137.500
0.879,-25.000,-963.500,584.500,-142.500
0.880,-27.500,-966.500,581.500,-147.000
0.881,-29.000,-969.000,578.500,-151.500
0.882,-31.000,-971.500,575.500,-156.000
0.883,-32.000,-973.500,572.500,-160.500
0.884,-33.000,-975.000,570.500,-165.000
0.885,-33.500,-976.000,569.000,-167.500
0.886,-33.000,-976.000,568.500,-169.000
0.887,-32.500,-976.000,569.000,-169.500
0.888,-32.000,-975.500,570.000,-168.500
0.889,-32.000,-975.000,571.500,-167.000
0.890,-32.500,-974.500,572.500,-165.000
0.891,-33.500,-975.000,573.500,-163.000
0.892,-35.500,-976.000,574.000,-161.500
0.893,-37.500,-977.000,574.000,-160.500
0.894,-39.500,-978.500,574.000,-160.000
0.895,-41.500,-980.000,573.500,-160.000
0.896,-43.000,-981.000,573.000,-160.500
0.897,-44.500,-982.000,572.500,-161.500
0.898,-45.500,-983.000,571.500,-163.000
0.899,-46.500,-984.000,570.500,-165.000
0.900,-47.000,-985.000,569.500,-167.000
0.901,-47.000,-985.500,568.500,-169.500
0.902,-46.000,-985.500,568.000,-171.500
0.903,-44.500,-985.000,568.500,-173.000
0.904,-42.500,-984.000,569.000,-174.500
0.905,-41.000,-983.000,569.500,-175.000
0.906,-39.500,-982.500,570.500,-175.500
0.907,-38.500,-981.500,571.000,-175.500
0.908,-38.000,-981.000,572.000,-175.000
0.909,-37.500,-980.500,573.000,-173.500
0.910,-38.000,-980.500,574.000,-171.500
0.911,-38.500,-980.500,575.500,-169.000
0.912,-39.000,-980.000,577.000,-166.500
0.913,-39.500,-980.500,578.000,-164.500
0.914,-40.500,-980.500,579.000,-163.000
0.915,-41.000,-981.000,579.000,-162.500
0.916,-41.500,-981.500,579.000,-162.500
0.917,-42.500,-982.000,578.500,-163.000
0.918,-43.000,-983.000,578.000,-164.500
0.919,-43.500,-984.000,577.000,-166.500
0.920,-44.000,-984.500,576.000,-168.500
0.921,-44.000,-985.000,575.500,-171.000
0.922,-44.000,-985.500,574.500,-174.000
0.923,-43.500,-986.000,573.500,-176.500
0.924,-43.500,-986.500,572.500,-179.500
0.925,-43.000,-986.500,572.000,-182.000
0.926,-42.500,-986.500,572.000,-183.000
0.927,-41.500,-985.500,573.000,-182.500
0.928,-40.500,-984.500,574.500,-181.000
0.929,-40.000,-983.000,577.000,-178.500
0.930,-39.500,-982.000,579.500,-175.000
0.931,-39.000,-980.500,582.000,-171.000
0.932,-39.000,-979.500,585.000,-167.000
0.933,-39.000,-978.500,587.000,-163.500
0.934,-39.000,-977.500,589.000,-161.000
0.935,-39.500,-977.500,590.000,-159.500
0.936,-39.500,-977.500,590.500,-159.500
0.937,-40.000,-978.000,590.500,-160.000
0.938,-41.000,-979.000,589.500,-162.000
0.939,-42.000,-980.500,588.000,-164.500
0.940,-43.000,-982.000,586.000,-168.000
0.941,-43.500,-983.500,584.500,-171.500
0.942,-43.500,-984.000,583.000,-174.500
0.943,-43.000,-984.500,582.500,-177.500
0.944,-42.500,-984.500,582.500,-180.000
0.945,-41.500,-984.000,582.500,-181.500
0.946,-40.500,-983.000,584.000,-181.500
0.947,-38.500,-981.500,586.000,-180.500
0.948,-37.000,-979.500,589.000,-178.000
0.949,-35.000,-977.500,591.500,-174.500
0.950,-34.000,-976.000,594.000,-171.500
0.951,-33.000,-975.000,596.000,-168.000
0.952,-33.500,-974.500,597.500,-165.000
0.953,-34.500,-974.500,598.500,-163.000
0.954,-35.000,-975.000,599.500,-161.500
0.955,-36.000,-975.000,600.000,-161.000
0.956,-37.000,-975.500,600.500,-161.000
0.957,-37.500,-976.000,600.000,-161.500
0.958,-38.500,-977.000,599.500,-162.500
0.959,-39.500,-978.000,598.500,-164.500
0.960,-40.000,-979.000,597.500,-167.500
0.961,-40.500,-980.500,596.000,-170.500
0.962,-41.000,-981.000,594.500,-174.000
0.963,-41.000,-982.000,593.000,-177.000
0.964,-41.000,-982.000,592.500,-180.000
0.965,-40.000,-981.500,592.500,-181.500
0.966,-38.500,-980.500,593.500,-182.000
0.967,-36.500,-979.000,595.500,-180.500
0.968,-34.500,-976.500,598.000,-178.500
0.969,-32.500,-974.000,601.000,-175.000
0.970,-31.000,-972.000,604.000,-171.000
0.971,-30.500,-971.000,606.500,-167.500
0.972,-30.500,-970.500,608.000,-164.500
0.973,-31.500,-970.500,609.000,-162.500
0.974,-32.500,-971.000,610.000,-161.500
0.975,-34.000,-971.500,610.000,-161.000
0.976,-35.000,-972.000,610.000,-161.000
0.977,-36.500,-973.000,609.000,-162.500
0.978,-38.000,-974.500,607.500,-164.500
0.979,-40.000,-976.000,605.500,-167.000
0.980,-41.500,-978.000,603.500,-170.000
0.981,-42.500,-979.500,601.500,-173.500
0.982,-43.000,-980.500,600.000,-177.000
0.983,-43.000,-981.000,599.000,-180.000
0.984,-42.000,-981.000,599.000,-182.000
0.985,-40.500,-980.000,599.500,-183.000
0.986,-39.000,-978.500,600.500,-183.000
0.987,-37.500,-977.000,602.500,-182.000
0.988,-35.500,-975.000,605.500,-179.500
0.989,-33.500,-972.500,608.500,-175.500
0.990,-32.000,-970.000,612.500,-171.000
0.991,-30.500,-967.500,616.000,-166.500
0.992,-30.000,-966.000,618.500,-162.500
0.993,-30.500,-965.500,620.500,-159.500
0.994,-31.500,-966.000,620.500,-158.500
0.995,-33.000,-967.500,620.000,-159.000
0.996,-35.000,-969.000,619.000,-160.000
0.997,-36.500,-970.500,618.000,-161.000
0.998,-37.000,-971.000,617.000,-162.500
0.999,-37.500,-972.000,616.500,-164.500
1.000,-38.000,-972.500,615.500,-167.000
1.001,-37.500,-972.500,615.000,-169.500
1.002,-37.000,-972.500,614.500,-172.000
1.003,-35.500,-971.500,614.500,-174.000
1.004,-33.000,-970.000,615.500,-175.000
1.005,-30.000,-967.500,617.500,-175.000
1.006,-27.000,-965.000,620.000,-173.500
1.007,-23.500,-962.000,623.500,-171.500
1.008,-20.500,-959.000,626.500,-169.000
1.009,-18.500,-957.000,629.000,-166.500
1.010,-17.000,-955.500,630.500,-164.500
1.011,-17.000,-955.500,631.000,-163.000
1.012,-18.000,-956.000,631.000,-161.500
1.013,-19.000,-956.500,631.500,-160.000
1.014,-19.500,-957.000,632.000,-158.000
1.015,-20.000,-956.500,634.000,-155.500
1.016,-19.500,-955.000,636.500,-152.500
1.017,-18.000,-953.500,640.000,-149.000
1.018,-16.500,-951.000,643.500,-145.500
1.019,-14.000,-948.500,647.500,-143.000
1.020,-12.000,-946.000,650.500,-141.000
1.021,-11.000,-945.000,652.000,-140.500
1.022,-10.500,-945.000,653.000,-141.500
1.023,-9.500,-944.500,653.500,-143.000
1.024,-8.500,-944.000,654.000,-144.500
1.025,-6.500,-942.500,654.500,-145.500
1.026,-4.500,-941.000,656.000,-146.000
1.027,-2.000,-939.000,657.500,-145.000
1.028,1.000,-937.000,660.000,-142.500
1.029,4.000,-934.000,663.500,-139.000
1.030,7.000,-931.000,668.000,-134.000
1.031,10.000,-927.500,673.000,-128.500
1.032,13.000,-924.000,677.500,-123.000
1.033,15.000,-921.500,681.500,-118.000
1.034,17.000,-919.000,685.000,-114.000
1.035,19.000,-916.500,688.000,-110.500
1.036,20.500,-914.500,691.000,-107.500
1.037,22.500,-912.000,693.500,-105.500
1.038,24.000,-910.500,695.500,-104.000
1.039,25.500,-909.500,696.500,-104.000
1.040,27.000,-908.500,697.000,-104.500
1.041,28.000,-908.000,697.000,-106.000
1.042,29.500,-907.000,697.500,-107.500
1.043,31.500,-906.000,698.000,-109.000
1.044,33.500,-904.500,699.000,-109.500
1.045,35.500,-902.500,700.500,-109.500
1.046,38.000,-900.500,702.500,-109.000
1.047,40.000,-898.500,704.500,-107.000
1.048,43.000,-896.000,708.000,-103.500
1.049,46.000,-892.500,712.000,-99.000
1.050,49.500,-889.000,717.500,-92.500
1.051,52.500,-885.000,722.500,-86.500
1.052,55.000,-882.000,727.000,-80.500
1.053,56.500,-879.500,730.500,-76.000
1.054,58.000,-878.000,733.500,-72.500
1.055,59.000,-876.500,735.500,-70.000
1.056,60.000,-875.500,737.000,-68.500
1.057,61.000,-874.500,738.500,-67.500
1.058,62.000,-873.500,739.500,-67.000
1.059,63.000,-872.500,740.500,-67.000
1.060,64.500,-872.000,741.000,-67.500
1.061,65.500,-871.000,741.500,-68.500
1.062,67.000,-870.500,742.000,-70.000
1.063,68.500,-869.500,742.000,-72.000
1.064,70.000,-869.000,742.000,-74.000
1.065,71.500,-868.500,742.000,-75.500
1.066,72.500,-868.000,742.000,-76.000
1.067,73.500,-867.000,743.500,-76.000
1.068,75.000,-865.500,745.500,-74.000
1.069,76.500,-863.500,748.500,-70.500
1.070,78.000,-861.000,752.000,-66.000
1.071,79.500,-858.500,755.500,-61.500
1.072,80.500,-856.500,758.500,-57.000
1.073,81.000,-855.500,761.000,-53.500
1.074,81.000,-854.500,763.000,-50.500
1.075,81.000,-854.000,764.500,-49.000
1.076,80.500,-853.500,765.000,-48.000
1.077,80.000,-854.000,765.000,-48.500
1.078,79.000,-855.500,763.500,-51.000
1.079,77.500,-857.000,762.000,-54.000
1.080,76.000,-859.000,759.500,-57.500
1.081,75.500,-860.000,757.500,-61.000
1.082,75.000,-861.500,756.000,-64.500
1.083,75.000,-862.000,754.500,-68.000
1.084,75.000,-862.500,753.500,-70.500
1.085,75.500,-862.500,753.500,-72.500
1.086,76.500,-862.000,754.000,-73.000
1.087,76.500,-862.000,754.000,-73.000
1.088,76.000,-862.000,754.000,-73.000
1.089,74.500,-863.500,754.000,-73.000
1.090,72.000,-865.000,753.000,-73.000
1.091,69.000,-867.500,752.000,-73.000
1.092,65.500,-870.500,750.500,-73.500
1.093,62.000,-873.500,748.500,-74.000
1.094,58.500,-876.000,746.500,-75.500
1.095,55.000,-879.000,744.500,-77.000
1.096,52.000,-881.500,742.000,-79.500
1.097,49.500,-884.000,739.000,-82.000
1.098,47.500,-886.500,736.500,-85.000
1.099,46.000,-888.000,734.500,-88.000
1.100,45.000,-890.000,732.000,-91.500
1.101,43.500,-892.000,729.500,-96.000
1.102,41.500,-895.000,726.000,-101.000
1.103,38.500,-898.500,721.500,-107.500
1.104,35.000,-902.500,716.500,-114.000
1.105,32.000,-906.000,713.000,-119.000
1.106,30.000,-908.000,710.500,-122.500
1.107,29.000,-909.000,709.000,-124.500
1.108,28.000,-910.000,708.500,-125.500
1.109,26.500,-911.000,708.000,-125.500
1.110,24.500,-912.500,707.500,-125.000
1.111,21.500,-914.500,706.500,-125.000
1.112,18.000,-917.500,705.000,-125.000
1.113,13.500,-921.000,702.500,-126.500
1.114,9.000,-924.500,699.500,-128.500
1.115,4.500,-928.500,696.500,-131.000
1.116,0.500,-932.000,693.500,-134.000
1.117,-3.000,-935.500,690.500,-137.500
1.118,-6.000,-938.500,687.000,-141.000
1.119,-8.000,-941.000,684.500,-145.000
1.120,-9.500,-943.000,682.000,-148.500
1.121,-10.500,-944.500,679.500,-153.000
1.122,-12.000,-946.500,676.500,-157.000
1.123,-13.500,-948.500,673.500,-162.000
1.124,-14.500,-951.000,671.000,-167.000
1.125,-16.000,-952.500,668.500,-170.500
1.126,-17.000,-954.000,666.500,-173.000
1.127,-17.500,-955.000,665.000,-174.500
1.128,-18.500,-955.500,664.500,-174.500
1.129,-19.000,-956.000,664.500,-174.000
1.130,-19.500,-956.000,664.500,-172.500
1.131,-20.500,-957.000,665.000,-170.500
1.132,-22.500,-958.000,664.500,-169.500
1.133,-24.500,-959.500,664.000,-168.500
1.134,-27.000,-961.500,663.000,-168.500
1.135,-29.000,-963.000,662.000,-169.000
1.136,-31.500,-965.000,660.500,-170.000
1.137,-34.000,-967.000,658.500,-172.500
1.138,-36.500,-969.500,655.500,-175.500
1.139,-39.500,-972.500,652.000,-180.000
1.140,-42.000,-975.500,648.500,-184.500
1.141,-44.500,-978.500,644.500,-189.500
1.142,-46.000,-981.000,641.000,-194.000
1.143,-48.000,-983.500,638.500,-199.000
1.144,-49.000,-985.000,636.000,-202.500
1.145,-49.500,-986.000,635.000,-205.000
1.146,-49.000,-985.500,635.000,-206.000
1.147,-47.500,-984.500,636.000,-205.000
1.148,-46.500,-983.000,637.500,-203.500
1.149,-45.500,-981.500,639.000,-201.000
1.150,-45.500,-981.000,640.500,-198.500
1.151,-45.500,-980.500,641.500,-196.000
1.152,-46.500,-980.500,641.500,-194.500
1.153,-47.500,-981.000,641.000,-193.500
1.154,-48.500,-982.000,640.500,-193.000
1.155,-49.500,-982.500,639.500,-192.500
1.156,-51.000,-984.000,638.000,-193.000
1.157,-52.500,-985.500,636.500,-194.500
1.158,-54.000,-987.000,635.000,-196.500
1.159,-56.000,-989.000,633.000,-199.000
1.160,-57.500,-991.000,631.500,-202.000
1.161,-58.500,-992.500,630.000,-205.000
1.162,-59.000,-994.000,628.500,-208.500
1.163,-59.500,-995.500,627.000,-212.000
1.164,-59.500,-996.000,626.500,-214.500
1.165,-59.000,-996.000,626.000,-216.000
1.166,-58.500,-996.000,626.000,-216.500
1.167,-57.500,-995.000,626.500,-216.500
1.168,-57.000,-994.500,627.500,-215.000
1.169,-56.000,-993.000,629.500,-212.500
1.170,-55.500,-992.000,631.500,-209.000
1.171,-54.500,-990.500,634.000,-205.000
1.172,-54.000,-989.000,636.500,-201.500
1.173,-54.000,-988.500,638.000,-198.500
1.174,-54.500,-988.000,639.000,-196.500
1.175,-55.000,-987.500,640.000,-195.000
1.176,-56.000,-988.000,639.500,-194.500
1.177,-57.000,-989.000,639.000,-195.500
1.178,-58.500,-990.000,637.000,-197.500
1.179,-59.500,-991.500,635.000,-200.000
1.180,-60.000,-993.000,633.500,-202.500
1.181,-60.500,-994.000,631.500,-205.500
1.182,-60.500,-994.500,629.500,-209.000
1.183,-60.500,-995.000,628.000,-212.000
1.184,-60.000,-995.500,626.500,-215.000
1.185,-59.000,-995.000,626.000,-216.500
1.186,-58.000,-994.500,626.500,-217.000
1.187,-56.500,-993.000,627.000,-216.500
1.188,-55.000,-992.000,628.500,-215.000
1.189,-54.500,-991.000,629.500,-213.000
1.190,-54.000,-990.500,631.000,-210.500
1.191,-54.500,-990.000,632.000,-208.000
1.192,-55.000,-990.000,633.500,-205.000
1.193,-55.500,-989.500,634.500,-202.500
1.194,-56.000,-989.000,635.500,-200.500
1.195,-55.500,-988.000,637.000,-198.000
1.196,-54.500,-986.500,638.000,-196.500
1.197,-54.000,-986.000,638.500,-196.000
1.198,-54.500,-986.500,637.500,-197.000
1.199,-55.500,-988.000,635.500,-199.500
1.200,-57.000,-989.500,633.500,-203.000
1.201,-58.500,-991.500,630.500,-207.000
1.202,-59.000,-993.000,628.500,-210.500
1.203,-59.500,-993.500,626.500,-213.500
1.204,-59.000,-993.500,625.500,-216.000
1.205,-58.000,-993.000,625.000,-217.000
1.206,-56.500,-992.500,625.500,-217.500
1.207,-55.500,-991.500,626.000,-217.000
1.208,-54.500,-990.000,627.500,-215.000
1.209,-53.000,-988.500,629.500,-212.000
1.210,-52.500,-986.500,631.500,-208.500
1.211,-51.500,-985.500,633.500,-205.000
1.212,-52.000,-985.000,634.500,-202.000
1.213,-53.000,-985.500,634.500,-200.000
1.214,-55.000,-987.000,633.500,-199.500
1.215,-56.500,-988.500,633.000,-199.500
1.216,-58.000,-989.500,632.000,-199.500
1.217,-59.500,-990.000,631.000,-200.500
1.218,-60.500,-991.000,630.000,-201.500
1.219,-61.000,-991.500,629.000,-203.000
1.220,-61.000,-992.000,627.500,-205.500
1.221,-61.000,-992.500,626.000,-208.000
1.222,-60.500,-993.500,624.000,-210.500
1.223,-60.500,-994.000,622.500,-214.000
1.224,-60.500,-995.000,620.500,-216.500
1.225,-60.000,-995.000,619.500,-219.000
1.226,-59.000,-994.000,620.000,-219.500
1.227,-57.000,-992.000,621.500,-218.000
1.228,-54.500,-989.500,624.000,-215.000
1.229,-52.500,-987.000,627.500,-211.000
1.230,-51.000,-985.000,630.500,-206.500
1.231,-50.000,-983.500,632.500,-202.500
1.232,-50.500,-983.000,633.500,-199.500
1.233,-52.000,-983.500,633.000,-198.000
1.234,-53.500,-985.000,632.000,-197.000
1.235,-55.000,-986.000,631.000,-197.500
1.236,-56.000,-987.000,630.000,-198.000
1.237,-57.000,-988.000,628.500,-199.000
1.238,-58.000,-989.000,627.500,-200.500
1.239,-59.000,-990.000,625.500,-202.500
1.240,-60.000,-991.500,623.500,-205.500
1.241,-60.500,-993.000,621.000,-208.500
1.242,-60.500,-994.000,619.000,-212.000
1.243,-60.500,-994.500,617.500,-215.000
1.244,-60.000,-994.500,616.500,-217.000
1.245,-59.500,-994.000,616.000,-218.000
1.246,-58.000,-993.000,616.500,-218.500
1.247,-57.000,-991.500,617.500,-217.500
1.248,-55.500,-990.000,619.000,-215.500
1.249,-54.500,-988.500,620.500,-213.000
1.250,-54.000,-987.500,622.000,-210.000
1.251,-54.000,-987.000,623.000,-207.000
1.252,-54.500,-987.000,624.500,-204.000
1.253,-55.000,-986.500,625.000,-201.500
1.254,-56.000,-986.500,626.000,-199.500
1.255,-57.000,-987.000,626.000,-198.500
1.256,-58.000,-987.500,625.500,-198.500
1.257,-59.500,-988.500,624.500,-200.000
1.258,-61.500,-990.000,622.500,-202.000
1.259,-63.500,-992.000,619.500,-205.000
1.260,-65.000,-994.000,617.000,-208.000
1.261,-66.500,-995.500,614.000,-212.000
1.262,-67.000,-997.000,611.500,-215.500
1.263,-67.000,-997.500,609.500,-218.500
1.264,-66.500,-998.000,608.000,-221.500
1.265,-65.500,-997.000,607.500,-223.000
1.266,-64.000,-996.000,608.000,-223.000
1.267,-62.500,-994.500,608.500,-222.000
1.268,-61.000,-993.000,610.000,-220.000
1.269,-59.500,-991.500,611.500,-217.000
1.270,-58.500,-990.500,613.000,-213.500
1.271,-59.000,-990.000,614.000,-210.500
1.272,-59.500,-990.000,615.000,-207.500
1.273,-60.500,-990.000,615.500,-205.500
1.274,-62.000,-990.500,615.500,-204.000
1.275,-63.000,-991.000,615.000,-203.000
1.276,-64.000,-992.000,614.000,-203.500
1.277,-65.500,-993.000,612.500,-204.500
1.278,-66.500,-994.000,611.000,-206.000
1.279,-68.000,-995.500,608.500,-208.500
1.280,-69.000,-997.000,606.000,-211.500
1.281,-70.000,-998.500,603.000,-214.500
1.282,-70.000,-999.000,601.000,-217.500
1.283,-69.500,-999.500,599.500,-220.000
1.284,-68.500,-999.000,599.000,-221.500
1.285,-67.000,-998.000,599.000,-222.500
1.286,-65.500,-997.000,599.500,-222.500
1.287,-63.500,-995.500,600.500,-221.000
1.288,-62.000,-993.500,602.500,-218.500
1.289,-60.000,-991.500,604.500,-215.500
1.290,-58.500,-989.500,607.000,-211.500
1.291,-57.500,-988.000,609.000,-207.500
1.292,-57.000,-987.000,610.500,-204.000
1.293,-57.500,-986.500,611.500,-201.500
1.294,-58.500,-987.000,611.000,-200.000
1.295,-60.000,-988.000,609.500,-200.000
1.296,-62.000,-989.500,607.500,-201.000
1.297,-64.000,-991.500,605.000,-203.000
1.298,-66.000,-993.500,602.500,-205.500
1.299,-67.000,-995.000,600.000,-208.000
1.300,-68.000,-996.500,598.000,-210.500
1.301,-68.500,-998.000,595.500,-214.000
1.302,-69.000,-999.000,593.000,-217.000
1.303,-69.000,-999.500,591.000,-220.000
1.304,-69.000,-1000.000,589.500,-222.500
1.305,-69.000,-1000.500,588.000,-225.000
1.306,-68.500,-1000.500,587.500,-226.000
1.307,-67.500,-1000.000,587.000,-226.500
1.308,-66.500,-999.000,587.000,-225.500
1.309,-65.500,-997.500,588.000,-223.000
1.310,-64.000,-996.000,589.000,-219.500
1.311,-62.000,-993.500,591.000,-215.000
1.312,-61.000,-991.500,593.500,-210.500
1.313,-61.000,-990.500,595.000,-206.500
1.314,-62.000,-990.500,596.000,-204.500
1.315,-63.500,-991.000,595.500,-203.500
1.316,-65.000,-992.000,595.000,-203.500
1.317,-66.000,-992.500,594.000,-204.000
1.318,-67.000,-993.500,593.500,-205.000
1.319,-67.500,-994.000,592.500,-206.000
1.320,-67.500,-994.500,591.500,-207.500
1.321,-67.500,-994.500,590.500,-209.500
1.322,-67.000,-995.500,589.000,-212.500
1.323,-67.500,-996.500,587.000,-215.500
1.324,-68.000,-997.500,585.000,-219.000
1.325,-68.000,-998.000,583.500,-221.000
1.326,-67.500,-998.000,583.000,-222.500
1.327,-67.000,-997.500,583.000,-222.000
1.328,-66.000,-996.500,583.500,-221.000
1.329,-65.000,-995.500,584.500,-218.500
1.330,-64.000,-994.500,585.500,-215.500
1.331,-64.000,-994.000,586.000,-213.000
1.332,-64.500,-994.000,586.000,-210.500
1.333,-65.500,-994.500,585.500,-209.000
1.334,-67.000,-995.500,585.000,-208.000
1.335,-69.000,-996.500,584.000,-207.500
1.336,-70.500,-997.500,583.000,-207.500
1.337,-71.500,-998.500,582.000,-208.000
1.338,-72.500,-999.000,581.000,-209.500
1.339,-73.000,-999.500,579.500,-211.000
1.340,-73.000,-999.500,577.500,-213.000
1.341,-72.500,-1000.000,576.000,-215.000
1.342,-72.000,-1000.000,574.500,-217.500
1.343,-71.500,-1000.500,572.500,-220.500
1.344,-70.500,-1000.500,571.000,-223.500
1.345,-69.500,-1001.000,570.000,-225.500
1.346,-68.500,-1000.500,569.500,-226.500
1.347,-67.500,-999.500,570.000,-226.000
1.348,-66.000,-998.500,571.000,-224.000
1.349,-65.000,-997.000,572.500,-221.500
1.350,-64.500,-996.000,574.000,-218.000
1.351,-65.000,-995.500,575.000,-215.000
1.352,-66.000,-995.000,576.000,-212.500
1.353,-67.000,-995.000,576.500,-210.000
1.354,-67.500,-995.000,577.000,-208.000
1.355,-68.000,-994.500,577.500,-206.500
1.356,-68.000,-994.000,578.000,-205.000
1.357,-69.000,-994.500,577.500,-205.000
1.358,-70.000,-995.500,576.000,-207.000
1.359,-71.500,-997.500,573.500,-209.500
1.360,-73.500,-999.500,570.500,-213.000
1.361,-74.500,-1001.000,568.000,-216.500
1.362,-75.000,-1002.500,565.500,-220.000
1.363,-75.500,-1003.000,563.500,-223.000
1.364,-75.000,-1003.500,561.500,-226.000
1.365,-74.500,-1003.000,560.500,-228.000
1.366,-73.500,-1002.500,560.500,-228.500
1.367,-72.000,-1001.500,561.000,-228.000
1.368,-71.000,-1000.000,562.000,-226.000
1.369,-69.500,-998.500,564.000,-223.000
1.370,-68.000,-996.500,566.000,-219.000
1.371,-67.500,-995.500,567.500,-215.500
1.372,-67.000,-994.500,569.000,-211.500
1.373,-67.500,-994.000,570.000,-209.000
1.374,-68.000,-994.000,570.000,-207.000
1.375,-69.000,-994.500,570.000,-206.000
1.376,-70.000,-995.000,569.000,-206.500
1.377,-71.000,-996.000,567.500,-207.000
1.378,-72.500,-997.500,565.500,-209.000
1.379,-73.500,-998.500,563.500,-211.000
1.380,-74.500,-999.500,561.500,-213.500
1.381,-75.000,-1000.500,560.000,-216.500
1.382,-74.500,-1001.000,558.000,-219.000
1.383,-74.000,-1001.000,556.500,-221.500
1.384,-73.000,-1001.000,555.000,-224.000
1.385,-72.000,-1001.000,554.000,-225.500
1.386,-71.000,-1000.500,554.000,-226.500
1.387,-70.000,-999.500,554.000,-226.000
1.388,-69.000,-998.500,555.000,-224.000
1.389,-68.500,-997.500,556.500,-221.500
1.390,-68.000,-997.000,558.000,-218.500
1.391,-68.500,-996.500,559.500,-215.500
1.392,-69.500,-996.500,560.500,-213.000
1.393,-70.500,-996.500,560.500,-211.000
1.394,-71.500,-997.000,561.000,-209.500
1.395,-72.500,-997.500,560.500,-208.500
1.396,-73.500,-998.000,560.000,-208.500
1.397,-74.000,-999.000,559.000,-209.000
1.398,-75.000,-999.500,558.000,-210.000
1.399,-75.500,-1000.500,556.500,-212.000
1.400,-75.500,-1001.000,554.500,-214.500
1.401,-75.500,-1001.500,553.500,-216.500
1.402,-74.500,-1001.000,552.000,-219.000
1.403,-73.000,-1000.500,551.500,-220.500
1.404,-71.500,-999.000,551.500,-222.000
1.405,-69.000,-997.500,552.000,-222.000
1.406,-66.000,-995.000,553.500,-221.000
1.407,-63.000,-992.000,555.500,-219.000
1.408,-60.000,-989.500,558.500,-215.500
1.409,-58.000,-987.000,561.000,-211.500
1.410,-56.500,-984.500,564.000,-207.000
1.411,-55.500,-983.000,566.500,-202.500
1.412,-54.500,-981.500,569.000,-198.500
1.413,-53.500,-979.500,572.000,-194.000
1.414,-51.500,-977.000,575.000,-190.000
1.415,-49.000,-974.500,578.000,-185.500
1.416,-46.000,-971.500,581.500,-181.500
1.417,-43.000,-968.000,584.500,-178.000
1.418,-40.000,-965.000,587.000,-175.500
1.419,-37.000,-962.500,589.000,-174.000
1.420,-34.500,-960.500,590.000,-173.500
1.421,-32.500,-959.000,590.500,-174.000
1.422,-31.500,-958.000,590.000,-175.500
1.423,-30.500,-957.500,589.500,-177.500
1.424,-30.000,-957.500,588.500,-180.000
1.425,-29.500,-957.500,587.000,-182.500
1.426,-29.000,-957.500,586.000,-184.000
1.427,-29.000,-957.500,585.000,-185.000
1.428,-29.000,-957.500,584.500,-185.000
1.429,-29.500,-957.500,584.000,-184.000
1.430,-30.000,-958.000,584.000,-183.000
1.431,-31.000,-958.500,584.500,-181.500
1.432,-32.000,-959.000,584.500,-179.500
1.433,-33.000,-959.500,584.000,-179.000
1.434,-35.000,-961.000,582.500,-179.000
1.435,-37.500,-963.000,581.000,-180.500
1.436,-39.500,-965.000,578.500,-182.000
1.437,-41.500,-967.500,576.500,-184.000
1.438,-43.500,-969.500,574.500,-186.000
1.439,-45.500,-971.000,572.000,-188.000
1.440,-47.500,-973.000,570.000,-190.500
1.441,-49.500,-975.500,567.500,-193.500
1.442,-51.500,-977.500,565.000,-197.000
1.443,-53.500,-979.500,562.500,-200.500
1.444,-55.000,-981.000,560.500,-203.000
1.445,-55.000,-980.500,560.500,-204.000
1.446,-54.000,-980.000,561.000,-204.000
1.447,-52.500,-978.500,562.500,-203.000
1.448,-50.000,-976.500,564.000,-201.000
1.449,-47.500,-974.000,566.500,-198.000
1.450,-45.000,-971.500,569.500,-194.000
1.451,-43.500,-969.500,571.000,-191.000
1.452,-43.500,-969.500,571.500,-189.000
1.453,-45.000,-970.500,570.000,-188.500
1.454,-47.000,-972.500,567.500,-190.000
1.455,-50.000,-975.500,564.500,-191.500
1.456,-53.000,-978.000,561.000,-194.000
1.457,-56.500,-981.500,557.500,-197.000
1.458,-60.000,-984.500,554.000,-200.500
1.459,-63.000,-987.000,551.000,-203.500
1.460,-65.500,-989.500,548.500,-207.000
1.461,-67.500,-991.500,546.000,-211.000
1.462,-69.500,-994.000,543.500,-215.000
1.463,-71.000,-996.000,541.000,-219.500
1.464,-72.500,-998.000,538.500,-223.000
1.465,-73.500,-999.500,536.500,-226.500
1.466,-74.000,-1000.000,535.500,-228.500
1.467,-74.000,-1000.000,535.500,-228.500
1.468,-73.000,-999.000,536.500,-227.500
1.469,-72.000,-998.000,538.500,-225.000
1.470,-71.500,-996.500,540.000,-221.500
1.471,-72.000,-996.000,541.500,-218.500
1.472,-73.000,-996.000,542.000,-216.000
1.473,-74.500,-996.500,542.500,-214.000
1.474,-75.500,-996.500,543.000,-212.500
1.475,-75.500,-996.500,543.500,-210.500
1.476,-75.000,-995.500,544.000,-209.500
1.477,-74.500,-995.500,544.000,-209.000
1.478,-75.000,-996.000,543.000,-210.500
1.479,-76.000,-997.500,541.000,-213.000
1.480,-77.500,-1000.000,538.500,-216.500
1.481,-79.000,-1002.000,535.500,-220.500
1.482,-80.000,-1004.000,532.500,-225.000
1.483,-81.000,-1005.500,530.000,-228.500
1.484,-81.000,-1006.000,528.500,-232.000
1.485,-80.500,-1006.000,527.000,-234.000
1.486,-79.500,-1005.000,527.000,-235.000
1.487,-78.000,-1003.500,528.000,-234.000
1.488,-76.500,-1001.500,530.000,-231.500
1.489,-74.500,-999.500,533.000,-228.000
1.490,-72.500,-997.000,536.000,-223.500
1.491,-72.000,-995.500,538.500,-219.500
1.492,-72.500,-995.500,539.500,-216.500
1.493,-74.500,-996.500,539.500,-215.500
1.494,-77.000,-998.000,538.000,-215.500
1.495,-79.500,-1000.500,536.000,-217.000
1.496,-82.000,-1002.500,534.000,-218.500
1.497,-84.500,-1004.500,532.000,-220.000
1.498,-86.000,-1006.000,530.000,-222.500
1.499,-87.000,-1007.500,528.000,-224.500
1.500,-87.000,-1008.000,526.500,-227.000
1.501,-87.000,-1008.500,525.500,-229.500
1.502,-86.500,-1009.000,524.000,-232.500
1.503,-86.500,-1009.000,522.500,-235.500
1.504,-86.000,-1009.500,521.000,-238.000
1.505,-85.500,-1009.500,520.000,-240.000
1.506,-84.500,-1008.500,520.000,-240.500
1.507,-83.000,-1007.000,521.500,-239.500
1.508,-81.500,-1005.000,523.500,-237.500
1.509,-80.000,-1002.500,526.000,-234.000
1.510,-78.500,-1001.000,529.000,-230.000
1.511,-78.000,-999.500,531.000,-226.000
1.512,-78.000,-998.500,533.000,-223.000
1.513,-79.000,-998.500,534.000,-220.500
1.514,-79.500,-998.500,534.500,-219.000
1.515,-80.500,-998.500,535.000,-218.000
1.516,-81.000,-999.000,534.500,-217.500
1.517,-82.000,-999.500,534.000,-218.500
1.518,-82.500,-1000.000,532.500,-220.000
1.519,-83.500,-1001.000,531.000,-222.000
1.520,-84.000,-1002.000,529.500,-224.500
1.521,-85.000,-1003.000,527.500,-227.500
1.522,-85.000,-1004.000,525.500,-231.000
1.523,-85.000,-1004.500,524.000,-234.000
1.524,-84.500,-1005.000,523.000,-236.500
1.525,-84.000,-1004.500,523.000,-238.000
1.526,-82.500,-1003.500,523.500,-238.500
1.527,-81.500,-1002.500,524.500,-237.500
1.528,-80.000,-1001.000,526.500,-235.500
1.529,-79.000,-999.500,528.500,-232.500
1.530,-78.000,-998.500,530.000,-229.500
1.531,-78.500,-998.000,531.500,-226.500
1.532,-80.000,-998.500,531.500,-225.000
1.533,-82.500,-1000.500,530.000,-225.500
1.534,-86.500,-1004.000,527.000,-227.000
1.535,-91.500,-1008.500,523.000,-230.500
1.536,-97.000,-1013.500,517.500,-235.500
1.537,-103.000,-1019.500,512.000,-241.500
1.538,-108.500,-1024.500,506.500,-247.500
1.539,-112.000,-1028.000,502.000,-252.500
1.540,-112.000,-1029.000,500.500,-255.000
1.541,-108.500,-1026.000,503.000,-253.500
1.542,-100.500,-1018.000,510.000,-247.500
1.543,-87.500,-1006.000,521.500,-237.500
1.544,-71.500,-990.000,537.000,-223.000
1.545,-52.500,-971.500,555.500,-205.500
1.546,-32.000,-951.000,575.500,-186.000
1.547,-11.000,-929.500,597.000,-164.500
1.548,10.000,-908.000,618.500,-142.000
1.549,31.000,-886.500,641.000,-119.000
1.550,51.500,-864.500,664.000,-94.500
1.551,73.000,-842.000,687.500,-69.000
1.552,97.000,-817.500,714.000,-40.500
1.553,125.000,-789.000,744.000,-8.500
1.554,157.500,-755.500,779.000,28.000
1.555,195.500,-716.500,818.500,69.500
1.556,238.000,-673.500,862.500,114.500
1.557,284.500,-627.000,910.000,163.000
1.558,333.000,-577.500,960.000,213.500
1.559,383.000,-527.000,1010.500,264.000
1.560,433.500,-476.500,1061.000,314.000
1.561,482.500,-427.500,1109.500,362.000
1.562,529.000,-381.000,1155.500,407.500
1.563,572.000,-338.500,1198.000,448.500
1.564,610.000,-300.500,1235.500,484.500
1.565,642.000,-268.000,1267.500,516.000
1.566,669.000,-241.000,1295.000,542.500
1.567,691.500,-218.000,1318.000,565.000
1.568,709.000,-200.000,1336.500,583.500
1.569,720.500,-187.500,1349.000,596.500
1.570,725.000,-182.500,1355.000,603.500
1.571,721.500,-184.500,1353.500,603.000
1.572,712.000,-193.000,1345.500,596.500
1.573,697.000,-207.500,1332.000,583.000
1.574,676.000,-228.000,1312.000,563.500
1.575,649.000,-254.500,1285.500,537.500
1.576,615.500,-287.500,1252.000,503.500
1.577,575.000,-327.500,1211.000,461.500
1.578,527.000,-375.500,1162.000,411.000
1.579,472.000,-431.500,1105.000,352.000
1.580,411.000,-492.500,1042.000,286.500
1.581,348.000,-556.500,976.500,218.000
1.582,287.000,-619.000,912.500,151.500
1.583,231.500,-675.500,854.000,90.000
1.584,183.500,-725.000,803.500,37.000
1.585,143.500,-766.000,761.500,-6.500
1.586,112.000,-799.000,728.000,-41.500
1.587,86.000,-825.500,701.000,-69.000
1.588,64.500,-847.500,679.500,-91.000
1.589,45.500,-866.500,660.500,-109.500
1.590,28.000,-883.500,644.000,-125.000
1.591,11.500,-899.500,629.000,-138.500
1.592,-3.000,-913.000,616.500,-150.000
1.593,-15.000,-924.500,606.000,-159.500
1.594,-25.500,-934.000,597.000,-167.500
1.595,-33.500,-942.000,590.000,-174.000
1.596,-39.500,-948.000,584.000,-180.000
1.597,-45.000,-953.000,578.500,-185.500
1.598,-49.000,-957.500,574.000,-190.500
1.599,-53.500,-961.500,569.000,-196.500
1.600,-57.500,-965.500,563.500,-203.000
1.601,-61.000,-970.000,557.500,-210.000
1.602,-64.500,-973.500,552.500,-216.500
1.603,-67.500,-977.000,548.000,-222.500
1.604,-69.500,-979.000,545.000,-227.000
1.605,-70.000,-980.000,543.500,-229.500
1.606,-69.500,-980.000,543.500,-230.500
1.607,-68.500,-978.500,545.000,-229.500
1.608,-67.000,-977.000,548.000,-227.000
1.609,-66.000,-975.000,551.000,-223.500
1.610,-65.500,-974.000,554.000,-220.000
1.611,-65.500,-973.000,556.000,-216.500
1.612,-66.000,-972.500,558.000,-213.500
1.613,-67.000,-973.000,559.000,-211.500
1.614,-68.000,-973.500,559.500,-210.500
1.615,-69.500,-974.000,559.500,-210.000
1.616,-71.500,-975.000,559.000,-210.000
1.617,-73.000,-976.000,558.000,-211.500
1.618,-74.500,-977.500,556.000,-214.000
1.619,-76.500,-979.500,554.000,-217.000
1.620,-77.500,-981.500,551.500,-220.500
1.621,-78.500,-983.500,549.000,-225.000
1.622,-79.500,-984.500,546.500,-228.500
1.623,-79.500,-985.500,544.500,-232.000
1.624,-79.000,-985.500,543.500,-235.000
1.625,-78.500,-985.000,543.500,-236.500
1.626,-77.000,-984.000,544.500,-236.500
1.627,-75.500,-982.000,546.000,-235.000
1.628,-74.000,-980.000,548.500,-233.000
1.629,-72.500,-978.000,551.000,-230.000
1.630,-71.500,-976.500,553.000,-226.500
1.631,-71.000,-975.500,555.000,-223.000
1.632,-71.000,-975.000,556.000,-220.500
1.633,-72.000,-975.500,556.500,-219.000
1.634,-73.500,-976.500,556.500,-218.500
1.635,-75.000,-977.500,556.000,-218.000
1.636,-76.500,-978.000,555.500,-218.500
1.637,-77.000,-978.500,555.500,-219.000
1.638,-77.500,-978.500,555.500,-219.500
1.639,-77.500,-978.500,555.000,-221.000
1.640,-77.000,-979.000,554.500,-222.500
1.641,-77.000,-979.000,554.000,-225.000
1.642,-77.000,-979.500,552.500,-228.500
1.643,-77.000,-980.500,551.500,-231.500
1.644,-77.000,-980.500,550.500,-234.500
1.645,-76.000,-980.500,550.500,-236.000
1.646,-74.500,-979.000,551.500,-236.000
1.647,-72.500,-977.000,554.000,-234.500
1.648,-71.000,-975.000,556.500,-232.500
1.649,-69.500,-973.500,559.000,-229.000
1.650,-69.000,-972.000,561.500,-226.000
1.651,-69.000,-971.000,563.000,-222.500
1.652,-69.500,-970.000,564.500,-219.500
1.653,-70.000,-970.000,566.000,-217.500
1.654,-71.000,-970.000,566.500,-216.000
1.655,-71.500,-970.000,567.000,-215.000
1.656,-72.500,-970.500,567.000,-215.000
1.657,-73.500,-971.000,566.500,-216.000
1.658,-74.500,-972.000,565.500,-218.000
1.659,-75.000,-972.500,564.000,-220.000
1.660,-75.500,-973.000,563.000,-223.000
1.661,-76.000,-974.000,561.500,-226.000
1.662,-76.500,-974.500,560.000,-229.000
1.663,-76.500,-975.000,559.000,-232.000
1.664,-76.000,-975.000,558.500,-234.500
1.665,-74.500,-974.000,559.000,-235.000
1.666,-72.000,-972.000,560.500,-234.500
1.667,-69.500,-969.500,563.000,-233.000
1.668,-68.000,-968.000,565.000,-231.000
1.669,-67.000,-966.500,567.000,-228.500
1.670,-67.000,-966.000,569.000,-226.000
1.671,-67.500,-965.500,570.500,-223.500
1.672,-68.500,-965.000,572.000,-220.500
1.673,-69.000,-964.500,573.000,-218.500
1.674,-69.500,-964.500,574.000,-216.500
1.675,-70.000,-964.500,574.500,-215.500
1.676,-70.500,-964.500,574.500,-215.500
1.677,-71.000,-965.000,574.500,-216.000
1.678,-71.500,-966.000,574.000,-217.500
1.679,-72.000,-966.500,573.000,-219.000
1.680,-72.500,-967.000,572.500,-221.500
1.681,-72.000,-967.500,571.500,-224.000
1.682,-71.500,-967.500,571.000,-226.500
1.683,-70.500,-967.500,570.500,-229.000
1.684,-69.500,-967.000,570.000,-231.000
1.685,-68.500,-966.500,570.000,-232.500
1.686,-67.000,-965.500,571.000,-233.000
1.687,-66.000,-964.500,572.000,-232.500
1.688,-64.500,-963.000,573.500,-231.000
1.689,-63.500,-962.000,575.500,-228.500
1.690,-63.000,-961.000,577.500,-226.000
1.691,-63.500,-960.500,579.000,-223.500
1.692,-64.000,-961.000,580.000,-221.500
1.693,-65.500,-961.500,581.000,-220.000
1.694,-66.500,-962.000,581.000,-219.500
1.695,-68.000,-963.000,581.000,-219.500
1.696,-69.500,-964.000,580.500,-220.000
1.697,-70.500,-964.500,580.000,-221.000
1.698,-71.000,-965.500,579.000,-222.500
1.699,-71.500,-966.000,578.000,-224.500
1.700,-71.000,-965.500,578.000,-226.000
1.701,-69.500,-964.500,578.500,-227.000
1.702,-68.000,-963.500,579.000,-228.500
1.703,-66.500,-962.500,579.500,-230.000
1.704,-65.500,-962.000,579.500,-231.500
1.705,-65.000,-961.500,579.500,-233.500
1.706,-64.500,-961.000,579.500,-234.500
1.707,-63.000,-960.500,581.000,-234.000
1.708,-62.000,-959.000,582.500,-232.500
1.709,-60.500,-957.500,585.000,-229.500
1.710,-59.500,-956.000,587.500,-226.000
1.711,-59.000,-954.500,590.000,-223.000
1.712,-59.500,-954.000,591.500,-220.000
1.713,-60.000,-953.500,593.000,-218.000
1.714,-61.000,-953.500,594.000,-216.500
1.715,-62.000,-953.500,594.500,-215.500
1.716,-63.000,-954.000,595.000,-215.500
1.717,-63.500,-954.500,595.000,-216.000
1.718,-64.000,-954.500,594.500,-217.000
1.719,-64.000,-955.000,594.000,-218.500
1.720,-64.500,-955.500,593.500,-220.500
1.721,-64.000,-955.500,592.500,-223.000
1.722,-63.500,-955.500,592.000,-226.000
1.723,-63.000,-955.500,591.500,-228.000
1.724,-61.500,-954.500,592.000,-230.000
1.725,-60.000,-953.000,593.000,-230.500
1.726,-57.500,-951.000,595.000,-230.000
1.727,-55.000,-949.000,597.500,-228.000
1.728,-52.500,-946.500,601.000,-225.000
1.729,-50.500,-944.000,604.500,-221.000
1.730,-49.000,-941.500,607.500,-217.000
1.731,-48.000,-940.000,610.500,-213.000
1.732,-47.500,-938.500,613.000,-209.500
1.733,-47.000,-937.500,615.500,-206.500
1.734,-47.000,-936.500,617.000,-204.000
1.735,-47.000,-935.500,619.000,-202.000
1.736,-47.000,-935.500,619.500,-201.500
1.737,-47.500,-935.500,619.500,-202.000
1.738,-48.000,-936.000,618.500,-203.500
1.739,-48.500,-937.000,616.500,-206.000
1.740,-48.500,-937.500,615.000,-209.000
1.741,-48.000,-937.500,613.500,-211.500
1.742,-47.000,-937.500,613.500,-213.500
1.743,-45.500,-936.000,614.000,-214.500
1.744,-43.000,-934.000,616.000,-214.500
1.745,-40.000,-931.500,619.000,-213.500
1.746,-36.500,-928.500,622.500,-211.500
1.747,-33.500,-925.500,626.500,-208.000
1.748,-30.500,-922.500,631.000,-204.000
1.749,-28.000,-919.500,635.500,-199.500
1.750,-25.500,-916.500,640.000,-194.500
1.751,-23.500,-914.000,644.000,-189.500
1.752,-22.000,-911.500,648.000,-185.000
1.753,-20.500,-909.500,651.500,-181.000
1.754,-19.000,-907.500,655.000,-177.000
1.755,-17.500,-905.000,658.000,-173.500
1.756,-15.500,-902.500,661.000,-170.500
1.757,-13.500,-900.000,664.000,-168.000
1.758,-11.500,-898.000,666.000,-166.500
1.759,-9.000,-896.000,668.000,-166.000
1.760,-6.500,-894.000,669.500,-165.500
1.761,-4.500,-892.500,670.500,-166.500
1.762,-2.000,-891.000,671.000,-167.500
1.763,0.500,-889.500,672.000,-168.500
1.764,2.500,-888.000,673.000,-169.500
1.765,5.000,-886.000,675.000,-169.500
1.766,7.500,-883.500,677.000,-169.000
1.767,10.500,-880.500,680.000,-167.000
1.768,14.000,-877.500,684.000,-163.500
1.769,17.000,-873.500,688.500,-158.500
1.770,20.000,-870.000,693.500,-153.000
1.771,22.000,-867.000,697.500,-147.500
1.772,23.500,-865.000,701.500,-143.000
1.773,24.000,-863.000,704.000,-139.000
1.774,24.500,-862.000,706.500,-136.000
1.775,25.000,-861.000,708.000,-134.000
1.776,25.500,-860.000,709.500,-132.500
1.777,26.000,-859.000,711.000,-131.500
1.778,27.000,-858.500,712.000,-131.500
1.779,27.500,-858.000,712.000,-132.000
1.780,27.500,-858.000,712.000,-134.000
1.781,27.500,-858.500,711.000,-136.500
1.782,27.500,-859.000,710.000,-139.500
1.783,28.500,-858.500,710.000,-141.500
1.784,30.000,-857.000,711.000,-142.500
1.785,33.000,-855.000,713.000,-142.500
1.786,36.000,-852.000,715.500,-141.000
1.787,39.500,-849.000,719.000,-138.500
1.788,42.500,-845.500,723.000,-134.500
1.789,45.000,-842.500,726.500,-130.500
1.790,46.500,-840.500,730.000,-126.000
1.791,47.500,-838.500,733.000,-122.000
1.792,47.500,-838.000,735.000,-119.000
1.793,47.500,-837.500,736.500,-117.000
1.794,46.500,-838.000,737.000,-115.500
1.795,45.500,-838.500,737.000,-115.500
1.796,44.000,-840.000,736.500,-116.000
1.797,42.000,-841.500,735.000,-117.500
1.798,40.000,-843.000,733.500,-120.000
1.799,38.500,-844.500,731.500,-123.000
1.800,37.500,-845.500,730.000,-126.000
1.801,37.500,-846.500,728.500,-128.500
1.802,37.500,-846.500,728.000,-131.000
1.803,38.500,-846.000,727.500,-133.500
1.804,39.500,-845.500,727.500,-135.500
1.805,40.500,-845.500,727.500,-137.500
1.806,41.000,-845.000,727.500,-139.000
1.807,40.500,-845.000,727.500,-139.500
1.808,40.500,-845.000,728.000,-139.000
1.809,40.000,-845.000,729.000,-138.000
1.810,39.000,-845.500,730.000,-136.500
1.811,37.500,-846.500,730.000,-135.000
1.812,35.500,-848.000,730.000,-134.500
1.813,32.500,-850.000,729.000,-134.500
1.814,29.500,-852.500,727.500,-135.000
1.815,26.000,-855.000,726.000,-137.000
1.816,22.500,-857.500,723.500,-139.500
1.817,19.000,-861.000,720.500,-143.000
1.818,15.500,-864.500,716.500,-147.500
1.819,12.000,-868.500,712.000,-152.500
1.820,8.000,-873.000,707.500,-159.000
1.821,4.500,-877.000,702.000,-165.500
1.822,1.000,-881.000,697.500,-172.000
1.823,-2.000,-884.000,693.500,-178.000
1.824,-4.500,-886.500,690.500,-183.500
1.825,-6.500,-889.000,687.500,-187.500
1.826,-8.000,-890.500,685.500,-191.000
1.827,-9.500,-892.000,684.000,-193.500
1.828,-11.000,-893.500,683.500,-194.500
1.829,-12.000,-894.500,683.000,-194.500
1.830,-14.000,-896.000,682.500,-194.000
1.831,-16.500,-897.500,681.500,-193.500
1.832,-19.500,-900.000,680.000,-194.000
1.833,-23.000,-903.000,678.000,-194.500
1.834,-26.000,-905.500,676.000,-196.000
1.835,-29.500,-908.500,674.000,-198.000
1.836,-33.000,-911.000,671.500,-200.500
1.837,-36.500,-914.000,668.500,-204.000
1.838,-40.000,-917.500,665.000,-208.000
1.839,-43.500,-921.000,661.500,-212.500
1.840,-46.500,-924.500,657.500,-218.000
1.841,-50.000,-928.000,653.500,-224.000
1.842,-53.000,-931.500,649.000,-229.500
1.843,-55.000,-934.000,645.500,-235.000
1.844,-56.500,-936.000,643.000,-239.500
1.845,-57.500,-937.500,641.000,-242.500
1.846,-58.000,-938.500,639.500,-245.000
1.847,-58.500,-939.000,639.000,-246.500
1.848,-59.000,-940.000,638.500,-247.500
1.849,-60.000,-940.500,638.500,-247.000
1.850,-61.000,-941.000,639.000,-246.500
1.851,-62.000,-942.000,639.000,-245.500
1.852,-63.500,-943.000,638.500,-245.000
1.853,-66.000,-945.000,637.000,-245.500
1.854,-68.500,-947.000,635.500,-246.500
1.855,-71.000,-949.000,633.500,-247.500
1.856,-73.000,-951.500,632.000,-249.500
1.857,-75.500,-953.500,630.000,-251.500
1.858,-77.500,-955.500,628.000,-254.000
1.859,-80.000,-958.000,625.500,-257.500
1.860,-82.000,-960.000,623.000,-260.500
1.861,-84.000,-962.000,621.000,-264.500
1.862,-86.000,-964.500,618.500,-268.000
1.863,-87.500,-966.500,616.500,-271.500
1.864,-88.500,-968.000,615.000,-274.000
1.865,-89.000,-968.500,614.500,-275.500
1.866,-89.000,-968.500,615.000,-276.500
1.867,-88.500,-968.000,615.500,-276.000
1.868,-88.000,-967.500,617.000,-274.500
1.869,-88.000,-966.500,618.000,-273.000
1.870,-88.000,-966.500,619.000,-271.000
1.871,-88.000,-966.000,620.000,-269.000
1.872,-88.500,-966.000,621.000,-267.000
1.873,-89.500,-966.500,622.000,-265.000
1.874,-90.000,-966.500,622.500,-264.000
1.875,-91.000,-967.000,622.500,-264.000
1.876,-92.500,-967.500,622.000,-264.000
1.877,-93.500,-968.500,621.000,-265.000
1.878,-95.000,-969.500,620.000,-267.000
1.879,-96.000,-971.000,618.000,-269.500
1.880,-97.500,-972.500,616.500,-273.000
1.881,-98.000,-973.500,614.500,-276.500
1.882,-98.500,-974.500,612.500,-280.000
1.883,-98.000,-975.500,611.000,-283.000
1.884,-98.000,-976.000,609.500,-286.000
1.885,-97.500,-976.000,609.000,-288.000
1.886,-97.000,-976.000,608.500,-289.500
1.887,-96.500,-976.000,608.000,-290.000
1.888,-96.500,-976.000,608.500,-289.500
1.889,-96.500,-975.500,609.500,-288.000
1.890,-97.000,-975.000,611.000,-285.500
1.891,-97.000,-974.000,613.000,-282.500
1.892,-98.000,-973.500,614.000,-280.000
1.893,-99.000,-973.500,615.000,-278.500
1.894,-100.000,-974.500,614.500,-277.500
1.895,-101.500,-975.500,614.000,-278.000
1.896,-102.500,-976.500,612.500,-279.000
1.897,-104.000,-977.500,611.500,-280.500
1.898,-105.000,-979.000,610.000,-282.000
1.899,-106.500,-980.000,608.500,-284.000
1.900,-107.000,-981.000,607.000,-286.500
1.901,-107.500,-982.000,606.000,-288.500
1.902,-107.500,-982.500,605.500,-291.000
1.903,-107.000,-982.500,605.500,-293.500
1.904,-106.000,-982.000,606.000,-295.000
1.905,-105.000,-981.000,606.500,-296.000
1.906,-103.500,-979.500,608.000,-296.000
1.907,-102.000,-977.500,610.000,-295.000
1.908,-100.000,-975.500,612.000,-293.000
1.909,-98.500,-973.500,614.500,-289.500
1.910,-97.500,-971.500,617.500,-286.000
1.911,-96.500,-969.500,620.000,-281.500
1.912,-95.500,-968.000,623.000,-277.500
1.913,-95.000,-967.000,625.000,-274.000
1.914,-95.000,-966.500,626.500,-272.000
1.915,-96.000,-967.000,626.000,-272.000
1.916,-98.000,-968.500,625.000,-273.000
1.917,-100.000,-970.500,623.000,-274.500
1.918,-101.500,-972.000,621.500,-277.000
1.919,-103.000,-973.000,619.500,-279.000
1.920,-104.000,-974.000,617.500,-282.000
1.921,-104.500,-975.000,616.000,-285.000
1.922,-104.500,-976.000,614.000,-288.000
1.923,-104.500,-976.000,613.000,-291.000
1.924,-104.000,-976.500,611.500,-294.000
1.925,-103.500,-976.000,611.000,-295.500
1.926,-102.500,-975.500,611.500,-296.500
1.927,-101.500,-974.500,612.000,-296.000
1.928,-100.500,-973.500,613.500,-294.000
1.929,-99.000,-971.500,616.000,-291.500
1.930,-98.000,-970.000,618.000,-288.000
1.931,-98.000,-969.000,620.000,-284.500
1.932,-98.000,-969.000,621.500,-282.000
1.933,-98.500,-969.000,622.500,-280.000
1.934,-99.500,-969.000,623.000,-278.500
1.935,-100.000,-969.000,623.500,-277.000
1.936,-100.500,-969.000,624.000,-276.500
1.937,-101.000,-969.000,624.000,-277.000
1.938,-102.000,-970.000,623.500,-278.000
1.939,-103.000,-970.500,622.500,-280.000
1.940,-103.500,-971.500,621.000,-282.500
1.941,-103.500,-972.000,619.500,-285.000
1.942,-103.000,-972.500,618.000,-288.000
1.943,-102.500,-973.000,617.000,-291.000
1.944,-101.500,-972.500,616.000,-293.500
1.945,-100.500,-972.500,615.500,-295.000
1.946,-99.500,-972.000,615.500,-296.000
1.947,-99.000,-971.000,616.000,-296.000
1.948,-99.000,-970.500,616.500,-295.000
1.949,-99.000,-970.000,617.500,-293.500
1.950,-99.500,-969.500,619.000,-291.000
1.951,-100.000,-969.000,620.000,-288.000
1.952,-100.500,-969.000,621.500,-285.000
1.953,-101.000,-968.500,622.500,-283.000
1.954,-101.000,-968.000,624.000,-280.500
1.955,-101.000,-967.500,625.000,-279.000
1.956,-101.500,-967.000,625.500,-278.000
1.957,-102.000,-967.500,625.000,-278.500
1.958,-103.500,-969.000,624.000,-280.000
1.959,-105.000,-970.500,622.000,-283.000
1.960,-106.000,-972.000,620.000,-286.000
1.961,-106.500,-973.000,618.000,-288.500
1.962,-106.000,-973.000,617.000,-291.500
1.963,-105.000,-972.500,616.500,-293.000
1.964,-103.000,-971.000,617.000,-294.000
1.965,-100.500,-969.000,618.500,-294.500
1.966,-98.500,-967.000,620.000,-294.000
1.967,-97.000,-965.500,621.500,-292.500
1.968,-95.500,-964.000,623.000,-291.000
1.969,-94.500,-962.500,624.500,-288.500
1.970,-94.500,-961.500,626.000,-286.000
1.971,-94.500,-961.500,627.000,-283.500
1.972,-95.500,-962.000,627.000,-281.500
1.973,-96.500,-962.500,627.000,-280.500
1.974,-98.000,-963.500,627.000,-279.500
1.975,-98.500,-963.500,627.000,-279.000
1.976,-99.000,-963.500,627.000,-278.500
1.977,-100.000,-964.000,626.500,-279.500
1.978,-100.500,-965.000,625.000,-281.000
1.979,-101.500,-966.000,623.500,-283.500
1.980,-102.500,-967.000,621.500,-286.000
1.981,-103.000,-968.000,619.500,-289.000
1.982,-103.000,-969.000,618.000,-291.500
1.983,-102.500,-969.000,616.500,-294.000
1.984,-102.000,-969.000,616.000,-295.500
1.985,-100.500,-968.000,616.000,-296.500
1.986,-99.500,-966.500,616.500,-297.000
1.987,-98.500,-965.500,617.500,-296.000
1.988,-98.000,-964.000,618.500,-294.500
1.989,-97.500,-963.500,619.500,-293.000
1.990,-97.500,-963.000,620.500,-290.500
1.991,-98.500,-962.500,621.500,-288.500
1.992,-99.500,-963.000,622.500,-286.500
1.993,-100.500,-963.000,623.000,-284.500
1.994,-101.500,-963.500,623.000,-283.000
1.995,-102.000,-963.500,623.500,-282.000
1.996,-102.500,-963.500,623.500,-281.500
1.997,-103.000,-964.000,622.500,-281.500
1.998,-104.000,-965.000,621.500,-283.000
1.999,-105.000,-966.500,619.500,-286.000
2.000,-106.000,-968.000,617.000,-289.000
2.001,-107.000,-969.000,615.000,-292.000
2.002,-107.000,-969.500,613.000,-295.500
2.003,-107.000,-970.000,611.500,-298.500
2.004,-106.500,-970.000,610.500,-301.000
2.005,-106.000,-969.500,609.500,-303.000
2.006,-105.500,-969.500,609.000,-304.000
2.007,-105.000,-969.000,609.000,-304.500
2.008,-104.000,-968.500,609.000,-303.500
2.009,-103.500,-967.500,610.000,-301.500
2.010,-103.000,-966.500,611.500,-298.500
2.011,-103.000,-965.500,613.000,-295.000
2.012,-103.500,-965.000,614.500,-292.000
2.013,-104.000,-964.500,615.500,-289.500
2.014,-105.000,-964.500,616.500,-287.500
2.015,-106.000,-965.000,616.500,-286.500
2.016,-107.000,-965.000,616.500,-286.500
2.017,-107.500,-966.000,616.000,-287.000
2.018,-108.000,-966.000,615.000,-287.500
2.019,-108.000,-966.000,614.500,-288.500
2.020,-107.500,-966.000,613.500,-290.000
2.021,-107.000,-966.500,612.000,-292.000
2.022,-107.000,-967.000,610.000,-295.500
2.023,-107.500,-968.500,608.000,-299.000
2.024,-108.000,-969.500,605.500,-302.500
2.025,-108.000,-970.000,604.500,-305.000
2.026,-107.500,-970.000,604.000,-306.000
2.027,-106.000,-969.000,605.000,-305.500
2.028,-104.500,-967.500,606.000,-303.500
2.029,-103.000,-965.500,608.000,-300.500
2.030,-102.000,-964.000,610.000,-297.000
2.031,-101.500,-963.000,612.000,-293.500
2.032,-101.500,-962.000,613.500,-290.500
2.033,-102.000,-961.500,614.000,-288.000
2.034,-103.000,-961.500,614.500,-286.000
2.035,-104.000,-961.500,614.500,-285.000
2.036,-104.500,-961.500,614.500,-284.500
2.037,-105.000,-961.500,614.000,-284.500
2.038,-105.000,-962.000,613.500,-285.500
2.039,-106.000,-963.000,611.500,-287.500
2.040,-107.500,-964.500,609.000,-291.000
2.041,-108.500,-966.500,606.000,-295.000
2.042,-109.000,-967.500,603.000,-299.000
2.043,-109.000,-968.500,601.000,-303.000
2.044,-108.000,-968.000,599.500,-305.500
2.045,-106.500,-967.500,598.500,-307.000
2.046,-105.000,-966.000,598.500,-307.000
2.047,-103.500,-964.500,599.500,-306.000
2.048,-102.000,-963.000,601.000,-303.500
2.049,-101.000,-961.500,602.500,-300.500
2.050,-101.500,-961.000,604.500,-297.500
2.051,-102.500,-961.000,605.500,-294.500
2.052,-104.500,-961.500,606.000,-292.500
2.053,-106.500,-962.500,606.000,-291.000
2.054,-108.500,-963.500,606.500,-290.000
2.055,-110.000,-964.500,606.500,-289.000
2.056,-111.000,-964.500,606.500,-288.500
2.057,-110.500,-963.500,607.000,-287.500
2.058,-109.500,-962.500,607.500,-286.500
2.059,-107.500,-961.000,608.500,-286.000
2.060,-106.500,-960.000,608.000,-287.000
2.061,-106.000,-960.500,606.500,-289.000
2.062,-106.500,-961.500,604.000,-292.500
2.063,-107.000,-963.000,601.500,-296.500
2.064,-107.000,-964.000,599.500,-299.500
2.065,-106.500,-964.000,598.000,-301.500
2.066,-106.000,-963.500,598.000,-302.500
2.067,-104.500,-962.500,598.500,-302.000
2.068,-103.500,-961.000,599.500,-300.000
2.069,-102.500,-959.000,601.500,-296.500
2.070,-101.500,-957.500,603.500,-293.000
2.071,-101.000,-956.000,605.500,-289.000
2.072,-101.000,-955.500,606.500,-286.000
2.073,-102.000,-955.500,607.000,-284.000
2.074,-103.000,-956.000,606.500,-282.500
2.075,-104.000,-957.000,606.000,-282.500
2.076,-105.500,-958.000,604.500,-283.000
2.077,-107.000,-959.000,603.000,-284.500
2.078,-108.000,-960.000,601.500,-286.000
2.079,-109.000,-961.000,600.000,-288.000
2.080,-109.500,-962.000,598.000,-290.500
2.081,-110.000,-963.000,596.500,-293.000
2.082,-110.000,-963.500,594.500,-296.000
2.083,-109.500,-963.500,592.500,-298.500
2.084,-109.000,-963.500,591.500,-300.500
2.085,-108.000,-963.000,590.500,-302.000
2.086,-107.000,-962.500,590.500,-302.500
2.087,-106.000,-961.500,591.000,-302.000
2.088,-104.500,-960.500,592.000,-300.500
2.089,-103.500,-959.000,593.500,-298.000
2.090,-103.000,-957.500,595.000,-295.000
2.091,-102.500,-956.500,596.000,-291.500
2.092,-103.000,-956.000,597.000,-288.500
2.093,-103.500,-956.000,597.500,-286.500
2.094,-104.000,-956.000,598.000,-284.500
2.095,-104.500,-955.500,598.000,-283.000
2.096,-105.500,-956.000,597.500,-282.500
2.097,-106.000,-956.500,596.500,-283.000
2.098,-107.000,-957.000,595.000,-284.500
2.099,-108.000,-958.500,593.000,-286.500
2.100,-108.500,-959.500,590.500,-289.000
2.101,-109.000,-960.500,588.000,-292.000
2.102,-109.500,-961.500,585.500,-295.500
2.103,-109.500,-962.000,583.500,-298.000
2.104,-109.500,-962.500,582.500,-300.500
2.105,-108.500,-962.000,582.000,-302.000
2.106,-107.000,-961.000,582.500,-302.000
2.107,-106.000,-960.000,583.500,-301.000
2.108,-104.500,-958.500,585.000,-298.500
2.109,-103.500,-957.000,586.500,-295.500
2.110,-102.500,-955.500,588.500,-292.000
2.111,-103.000,-954.500,589.500,-289.000
2.112,-103.500,-954.500,590.000,-286.500
2.113,-105.000,-955.000,590.000,-285.000
2.114,-106.000,-955.000,590.000,-284.000
2.115,-107.500,-955.500,589.500,-283.000
2.116,-108.000,-956.500,588.500,-283.000
2.117,-109.000,-957.000,587.500,-283.500
2.118,-110.500,-958.500,585.500,-285.500
2.119,-111.500,-960.000,583.000,-288.000
2.120,-112.500,-962.000,580.000,-291.000
2.121,-113.000,-963.000,577.500,-294.000
2.122,-113.500,-964.000,575.000,-297.000
2.123,-112.500,-964.000,573.500,-299.500
2.124,-111.500,-963.000,572.500,-301.000
2.125,-110.000,-962.000,572.500,-302.000
2.126,-108.500,-961.000,573.000,-302.000
2.127,-107.500,-960.000,573.500,-301.000
2.128,-106.500,-959.000,574.000,-300.000
2.129,-106.000,-958.500,575.500,-297.500
2.130,-105.500,-957.500,576.500,-294.500
2.131,-105.500,-956.500,578.000,-291.000
2.132,-105.500,-955.500,579.500,-287.500
2.133,-105.500,-954.500,581.000,-284.500
2.134,-106.000,-954.000,581.500,-282.000
2.135,-106.000,-953.500,581.500,-280.500
2.136,-106.500,-954.000,581.000,-280.000
2.137,-107.500,-954.500,580.000,-280.500
2.138,-108.000,-955.000,578.500,-282.000
2.139,-108.500,-956.000,576.500,-284.000
2.140,-109.000,-957.000,574.500,-286.500
2.141,-109.000,-957.500,573.000,-289.000
2.142,-108.500,-958.000,571.000,-291.500
2.143,-107.500,-957.500,570.000,-293.000
2.144,-106.000,-956.500,570.000,-294.000
2.145,-103.500,-954.500,571.000,-294.000
2.146,-100.500,-951.500,573.000,-292.000
2.147,-97.000,-948.500,575.500,-289.000
2.148,-94.000,-945.000,578.000,-285.500
2.149,-91.000,-942.000,581.000,-281.000
2.150,-89.000,-939.500,584.000,-276.500
2.151,-87.500,-937.000,586.500,-271.500
2.152,-85.500,-934.500,589.500,-266.500
2.153,-84.000,-931.500,593.000,-261.500
2.154,-81.500,-928.500,596.500,-256.500
2.155,-79.000,-925.500,599.500,-252.000
2.156,-77.000,-922.500,602.000,-248.500
2.157,-75.000,-921.000,603.500,-246.500
2.158,-74.000,-920.000,604.000,-246.000
2.159,-73.000,-919.500,603.500,-246.500
2.160,-72.500,-919.000,603.000,-247.500
2.161,-71.500,-918.500,602.000,-249.000
2.162,-70.500,-918.000,601.000,-251.000
2.163,-69.500,-917.500,600.000,-252.500
2.164,-68.500,-917.000,599.500,-254.500
2.165,-67.500,-916.000,598.500,-255.500
2.166,-66.500,-915.000,598.500,-256.000
2.167,-65.000,-914.000,599.000,-255.500
2.168,-64.000,-912.500,600.000,-254.000
2.169,-63.500,-911.500,601.000,-251.500
2.170,-63.500,-911.000,602.000,-249.000
2.171,-64.500,-910.500,603.000,-246.000
2.172,-66.000,-911.500,602.500,-244.000
2.173,-67.500,-912.500,602.000,-242.500
2.174,-69.000,-913.500,601.500,-241.500
2.175,-70.500,-914.000,601.000,-240.500
2.176,-72.000,-915.000,600.000,-240.500
2.177,-73.000,-915.500,598.500,-241.500
2.178,-74.500,-916.500,596.500,-243.000
2.179,-76.000,-918.500,594.000,-246.000
2.180,-77.000,-920.000,591.000,-249.000
2.181,-78.000,-921.500,588.000,-252.500
2.182,-79.000,-923.000,585.500,-256.000
2.183,-79.000,-923.500,583.000,-259.000
2.184,-78.500,-923.500,581.500,-261.500
2.185,-78.000,-923.500,580.000,-263.000
2.186,-77.000,-923.000,579.500,-264.000
2.187,-76.500,-922.500,579.500,-263.500
2.188,-76.000,-922.000,580.000,-262.500
2.189,-75.500,-921.000,580.500,-260.500
2.190,-75.000,-920.500,581.500,-258.000
2.191,-75.000,-920.000,582.000,-255.500
2.192,-76.000,-920.000,581.500,-254.000
2.193,-77.500,-921.000,580.000,-253.500
2.194,-80.000,-922.500,578.000,-253.500
2.195,-82.500,-924.500,575.500,-254.000
2.196,-84.500,-926.000,573.500,-255.000
2.197,-87.000,-928.000,571.500,-256.500
2.198,-89.000,-929.500,569.500,-258.500
2.199,-91.000,-931.500,567.000,-261.000
2.200,-93.500,-934.000,564.000,-264.500
2.201,-96.000,-937.000,560.500,-269.000
2.202,-99.000,-940.500,556.000,-274.500
2.203,-102.500,-944.500,550.500,-281.000
2.204,-105.500,-948.000,546.000,-286.500
2.205,-107.500,-950.500,543.000,-290.500
2.206,-108.500,-951.500,541.500,-292.500
2.207,-107.500,-951.000,541.500,-292.000
2.208,-105.500,-949.000,543.500,-289.000
2.209,-103.000,-946.000,546.000,-285.000
2.210,-101.000,-943.500,549.500,-280.000
2.211,-99.500,-941.500,552.000,-275.500
2.212,-100.000,-940.500,553.500,-272.500
2.213,-100.500,-940.500,554.000,-270.000
2.214,-101.500,-940.500,554.000,-268.500
2.215,-102.500,-941.000,553.500,-267.500
2.216,-103.500,-942.000,552.500,-267.500
2.217,-104.500,-943.000,551.000,-268.500
2.218,-106.000,-944.500,549.000,-270.000
2.219,-107.500,-946.000,546.000,-272.500
2.220,-108.500,-948.000,543.000,-276.000
2.221,-109.500,-949.000,540.500,-279.000
2.222,-109.500,-950.000,538.500,-282.000
2.223,-109.000,-950.000,536.500,-284.500
2.224,-108.500,-950.500,535.000,-287.000
2.225,-108.000,-950.000,534.500,-288.000
2.226,-106.500,-949.000,534.500,-288.500
2.227,-104.500,-947.500,536.000,-287.000
2.228,-103.000,-945.500,537.500,-284.500
2.229,-101.500,-943.500,539.500,-281.500
2.230,-101.500,-942.500,540.500,-278.500
2.231,-102.500,-942.500,541.000,-276.000
2.232,-104.000,-943.500,540.500,-274.000
2.233,-106.000,-944.500,539.500,-273.000
2.234,-108.000,-946.000,538.500,-272.500
2.235,-109.000,-947.000,537.500,-272.000
2.236,-110.000,-947.500,536.000,-272.000
2.237,-111.000,-948.000,535.000,-272.500
2.238,-111.500,-948.500,534.000,-273.500
2.239,-112.000,-949.000,532.000,-275.000
2.240,-113.000,-950.000,530.000,-277.500
2.241,-113.000,-950.500,528.000,-280.000
2.242,-113.000,-951.000,525.500,-283.000
2.243,-112.500,-951.500,524.000,-285.500
2.244,-112.000,-951.500,522.500,-288.000
2.245,-111.000,-951.500,521.500,-290.000
2.246,-109.500,-950.500,521.000,-290.500
2.247,-108.000,-949.000,522.000,-289.500
2.248,-107.000,-947.500,523.000,-287.500
2.249,-105.500,-945.500,525.000,-284.500
2.250,-105.000,-944.000,526.500,-281.000
2.251,-104.500,-943.000,527.500,-277.500
2.252,-105.000,-942.500,528.500,-274.500
2.253,-106.000,-942.500,529.000,-272.000
2.254,-106.500,-942.500,529.500,-270.500
2.255,-107.000,-942.500,529.500,-269.000
2.256,-107.500,-942.500,529.000,-268.500
2.257,-108.000,-942.500,528.500,-269.000
2.258,-109.000,-943.000,527.000,-270.000
2.259,-110.000,-944.000,525.500,-271.500
2.260,-111.000,-945.500,523.000,-274.000
2.261,-112.000,-946.500,521.000,-277.000
2.262,-112.500,-947.500,518.500,-280.000
2.263,-112.500,-948.000,517.000,-282.500
2.264,-111.500,-947.500,516.000,-284.500
2.265,-110.000,-946.000,515.500,-285.500
2.266,-108.000,-944.500,516.000,-285.500
2.267,-106.000,-942.500,517.000,-284.500
2.268,-104.000,-941.000,518.500,-283.000
2.269,-103.000,-939.500,519.000,-280.500
2.270,-102.500,-939.000,520.000,-278.000
2.271,-103.000,-939.000,520.000,-276.000
2.272,-104.500,-939.500,519.000,-275.000
2.273,-107.000,-941.500,517.000,-275.000
2.274,-110.500,-945.000,514.000,-277.000
2.275,-115.000,-949.000,509.500,-280.000
2.276,-120.000,-954.000,504.000,-284.500
2.277,-125.000,-959.000,498.500,-289.500
2.278,-129.500,-963.500,493.500,-293.500
2.279,-132.000,-965.500,491.000,-296.000
2.280,-130.500,-964.500,491.500,-295.000
2.281,-125.000,-959.500,496.500,-290.500
2.282,-115.500,-950.000,505.500,-281.500
2.283,-102.000,-937.500,518.000,-269.000
2.284,-86.000,-921.500,533.500,-254.000
2.285,-68.000,-903.500,551.000,-236.500
2.286,-49.000,-884.500,570.000,-218.000
2.287,-29.500,-865.000,589.000,-198.000
2.288,-10.500,-845.500,608.500,-177.500
2.289,9.000,-826.000,628.000,-156.500
2.290,28.000,-806.500,648.500,-134.000
2.291,49.000,-785.000,670.500,-110.000
2.292,73.000,-760.000,695.500,-82.000
2.293,101.000,-731.500,725.000,-50.500
2.294,133.500,-697.500,759.500,-14.000
2.295,171.000,-659.000,798.500,27.000
2.296,213.000,-616.500,841.500,72.000
2.297,259.000,-570.000,888.500,120.000
2.298,308.000,-521.000,937.500,170.500
2.299,358.000,-470.500,988.000,221.500
2.300,409.000,-420.000,1038.000,272.000
2.301,458.000,-371.000,1086.000,320.500
2.302,504.500,-325.000,1131.000,365.500
2.303,546.500,-283.000,1172.000,406.000
2.304,583.500,-246.000,1207.500,441.000
2.305,615.000,-214.500,1238.000,471.000
2.306,641.500,-188.000,1263.500,497.000
2.307,663.000,-166.000,1285.500,519.000
2.308,680.000,-149.000,1303.000,537.000
2.309,690.500,-137.500,1314.500,550.000
2.310,694.000,-133.000,1320.000,556.500
2.311,691.000,-135.000,1318.500,556.500
2.312,682.000,-143.000,1310.500,550.500
2.313,667.000,-157.000,1297.000,538.500
2.314,647.500,-176.500,1277.500,520.000
2.315,621.500,-202.000,1252.000,494.500
2.316,589.000,-234.500,1218.500,461.500
2.317,548.500,-274.500,1177.000,419.000
2.318,499.500,-323.500,1126.500,367.500
2.319,443.000,-380.500,1068.000,307.500
2.320,381.500,-442.500,1004.000,241.500
2.321,318.500,-506.500,938.000,174.000
2.322,258.000,-568.000,875.000,108.500
2.323,203.500,-624.000,817.000,48.500
2.324,156.500,-672.000,767.000,-3.000
2.325,117.500,-712.000,725.500,-46.000
2.326,86.000,-744.500,692.000,-80.500
2.327,60.000,-771.000,664.500,-108.000
2.328,38.000,-793.500,642.000,-130.000
2.329,18.500,-813.000,622.500,-148.500
2.330,1.500,-829.500,605.500,-163.500
2.331,-13.500,-844.000,591.000,-176.000
2.332,-26.000,-856.000,579.500,-185.500
2.333,-35.500,-865.500,570.000,-193.000
2.334,-43.000,-872.500,563.000,-198.500
2.335,-49.500,-878.500,557.000,-203.000
2.336,-55.500,-883.500,551.000,-207.500
2.337,-61.000,-889.000,545.500,-212.500
2.338,-66.500,-894.500,539.000,-218.500
2.339,-72.000,-900.000,532.500,-225.000
2.340,-76.500,-905.000,526.000,-231.500
2.341,-81.000,-909.500,520.500,-238.000
2.342,-84.000,-913.500,515.000,-244.000
2.343,-86.000,-916.000,511.000,-249.000
2.344,-87.000,-918.000,508.000,-253.000
2.345,-87.000,-918.500,506.000,-255.500
2.346,-87.000,-919.000,505.500,-256.500
2.347,-86.500,-918.500,505.500,-256.500
2.348,-86.000,-918.000,506.000,-255.500
2.349,-86.000,-917.000,507.000,-253.500
2.350,-86.000,-916.500,508.000,-250.500
2.351,-86.500,-916.500,508.500,-248.000
2.352,-87.500,-917.000,509.000,-245.500
2.353,-89.000,-917.500,509.000,-244.000
2.354,-90.500,-918.500,508.500,-243.000
2.355,-92.000,-919.500,507.500,-242.500
2.356,-93.500,-920.000,506.500,-243.000
2.357,-95.000,-921.000,505.000,-244.000
2.358,-96.000,-922.000,503.500,-245.000
2.359,-96.500,-922.500,502.000,-247.000
2.360,-97.000,-923.000,500.500,-249.000
2.361,-97.000,-923.500,499.000,-251.500
2.362,-96.500,-924.000,497.000,-254.000
2.363,-96.000,-924.000,495.500,-256.500
2.364,-96.000,-924.500,494.000,-259.000
2.365,-95.500,-925.000,492.500,-261.000
2.366,-95.500,-925.000,492.000,-262.500
2.367,-94.500,-924.500,491.500,-262.500
2.368,-93.500,-923.500,492.000,-261.000
2.369,-92.500,-922.000,493.500,-258.500
2.370,-91.500,-920.500,495.000,-255.000
2.371,-91.000,-919.500,497.000,-251.000
2.372,-91.000,-919.000,498.000,-248.000
2.373,-91.500,-918.500,499.000,-245.000
2.374,-92.500,-918.500,499.500,-243.000
2.375,-93.000,-918.500,499.500,-241.500
2.376,-94.000,-918.500,499.000,-241.000
2.377,-94.000,-919.000,498.500,-241.500
2.378,-94.500,-919.500,497.500,-242.000
2.379,-95.000,-920.000,496.000,-243.500
2.380,-95.500,-920.500,494.500,-246.000
2.381,-96.500,-921.500,492.500,-249.000
2.382,-97.000,-922.500,490.000,-252.500
2.383,-97.500,-923.500,487.500,-255.500
2.384,-97.500,-924.500,485.500,-258.500
2.385,-97.500,-924.500,484.000,-260.500
2.386,-96.500,-923.500,484.000,-261.000
2.387,-95.000,-922.000,485.000,-260.000
2.388,-93.000,-920.500,486.500,-257.500
2.389,-91.000,-918.500,489.000,-253.500
2.390,-89.000,-916.000,491.000,-249.500
2.391,-87.500,-914.500,493.000,-245.500
2.392,-87.500,-914.000,493.000,-243.500
2.393,-88.500,-914.500,492.500,-242.000
2.394,-90.500,-915.500,491.000,-242.000
2.395,-92.000,-917.000,489.500,-242.000
2.396,-93.500,-918.000,488.000,-242.500
2.397,-94.500,-919.000,487.000,-242.500
2.398,-95.000,-919.500,486.000,-243.500
2.399,-95.500,-920.000,485.500,-244.000
2.400,-94.500,-919.500,485.000,-245.000
2.401,-93.500,-919.500,485.000,-246.000
2.402,-92.500,-919.000,484.500,-247.500
2.403,-91.500,-919.000,484.000,-249.500
2.404,-91.000,-918.500,483.000,-251.000
2.405,-90.500,-918.500,483.000,-252.500
2.406,-89.500,-917.500,483.500,-252.500
2.407,-88.500,-916.500,484.500,-251.500
2.408,-87.500,-915.000,486.000,-249.500
2.409,-86.000,-913.500,488.000,-246.500
2.410,-85.500,-912.000,490.000,-243.000
2.411,-85.000,-911.000,491.500,-239.500
2.412,-85.500,-910.500,492.000,-237.000
2.413,-86.500,-910.500,492.500,-234.500
2.414,-87.500,-910.500,492.500,-233.500
2.415,-88.500,-911.000,492.000,-232.500
2.416,-89.500,-911.500,491.000,-232.500
2.417,-90.500,-912.000,490.000,-233.500
2.418,-91.500,-912.500,488.500,-234.500
2.419,-92.500,-914.000,486.500,-237.000
2.420,-93.000,-915.000,484.500,-239.000
2.421,-93.000,-915.500,483.000,-241.500
2.422,-92.500,-916.000,481.000,-244.000
2.423,-91.500,-916.000,479.500,-246.500
2.424,-90.000,-915.500,479.000,-248.500
2.425,-88.500,-915.000,478.500,-249.500
2.426,-87.000,-913.500,479.000,-249.500
2.427,-85.000,-911.500,480.000,-248.500
2.428,-83.000,-909.500,481.500,-246.000
2.429,-81.500,-908.000,483.500,-243.000
2.430,-81.000,-907.000,485.000,-240.000
2.431,-81.000,-906.000,486.000,-236.500
2.432,-82.000,-906.000,487.000,-233.500
2.433,-83.000,-906.500,487.500,-231.500
2.434,-84.500,-907.000,487.500,-230.000
2.435,-85.000,-907.000,487.500,-229.000
2.436,-85.500,-907.500,487.500,-228.500
2.437,-86.500,-908.000,486.500,-229.000
2.438,-87.000,-908.500,485.000,-230.500
2.439,-87.500,-910.000,483.000,-232.500
2.440,-88.500,-911.000,480.500,-236.000
2.441,-89.500,-912.500,478.000,-239.500
2.442,-90.000,-913.500,475.500,-243.000
2.443,-90.000,-914.500,473.500,-246.000
2.444,-89.500,-914.000,472.500,-247.500
2.445,-87.500,-913.000,473.000,-248.000
2.446,-84.500,-910.500,474.500,-247.000
2.447,-81.500,-907.500,477.000,-244.000
2.448,-78.000,-904.500,479.500,-240.500
2.449,-76.000,-902.000,482.000,-236.500
2.450,-75.000,-900.500,484.000,-233.000
2.451,-75.500,-900.000,485.000,-230.000
2.452,-76.000,-900.000,485.500,-227.500
2.453,-77.000,-900.000,485.500,-225.500
2.454,-78.000,-900.500,485.500,-224.000
2.455,-79.000,-900.500,485.500,-222.500
2.456,-79.500,-900.500,485.500,-222.000
2.457,-80.000,-900.500,485.000,-221.500
2.458,-80.000,-900.500,484.500,-222.000
2.459,-80.500,-901.000,483.000,-223.500
2.460,-80.500,-902.000,481.500,-225.500
2.461,-80.500,-902.500,479.500,-228.500
2.462,-80.500,-903.000,478.000,-231.000
2.463,-79.500,-903.000,476.500,-233.500
2.464,-78.000,-902.500,476.500,-235.000
2.465,-76.500,-901.000,477.000,-235.000
2.466,-74.500,-899.500,478.000,-234.500
2.467,-72.000,-897.000,480.000,-232.500
2.468,-70.000,-895.000,482.000,-229.500
2.469,-68.000,-892.500,484.500,-226.000
2.470,-66.500,-890.500,487.000,-222.000
2.471,-65.500,-888.500,489.000,-217.500
2.472,-64.500,-887.500,490.500,-214.000
2.473,-64.000,-886.000,492.000,-210.000
2.474,-63.500,-885.000,493.500,-207.000
2.475,-63.000,-884.500,494.500,-205.000
2.476,-62.500,-883.500,495.000,-203.500
2.477,-62.000,-883.000,495.000,-202.500
2.478,-61.500,-883.000,495.000,-203.000
2.479,-61.500,-883.500,494.000,-204.000
2.480,-62.000,-884.000,492.500,-206.500
2.481,-62.500,-885.000,490.500,-209.000
2.482,-62.500,-886.000,489.000,-211.500
2.483,-62.000,-885.500,488.500,-213.500
2.484,-60.000,-884.500,488.500,-214.000
2.485,-56.500,-882.000,490.000,-213.000
2.486,-52.500,-878.000,493.000,-210.500
2.487,-48.000,-874.000,497.000,-206.000
2.488,-43.500,-869.500,501.500,-201.000
2.489,-40.500,-866.000,505.500,-196.000
2.490,-38.000,-863.000,509.000,-191.000
2.491,-36.500,-861.000,511.500,-186.000
2.492,-35.000,-859.000,514.500,-181.500
2.493,-33.500,-856.500,517.500,-177.000
2.494,-32.000,-854.500,520.000,-172.500
2.495,-30.500,-852.000,522.500,-169.000
2.496,-29.000,-850.500,524.000,-166.500
2.497,-27.500,-849.000,524.500,-165.000
2.498,-26.000,-848.000,525.000,-164.500
2.499,-24.500,-846.500,525.500,-164.000
2.500,-23.000,-845.000,526.500,-164.000
2.501,-21.000,-843.500,527.000,-163.500
2.502,-18.500,-842.500,527.500,-164.000
2.503,-16.500,-841.000,528.500,-164.000
2.504,-13.500,-839.000,529.500,-164.000
2.505,-10.000,-836.000,531.500,-163.000
2.506,-6.500,-833.000,534.000,-160.500
2.507,-2.500,-829.500,537.000,-157.500
2.508,1.000,-826.000,540.000,-153.500
2.509,4.500,-822.500,543.500,-148.500
2.510,7.000,-819.000,547.000,-143.500
2.511,8.500,-816.500,550.000,-138.500
2.512,10.000,-814.500,553.000,-133.500
2.513,10.500,-813.000,555.000,-130.000
2.514,11.500,-811.500,557.000,-126.500
2.515,12.500,-810.500,558.500,-124.000
2.516,13.500,-809.000,559.500,-122.000
2.517,14.500,-808.000,560.000,-121.000
2.518,15.500,-807.000,560.500,-120.500
2.519,16.000,-806.500,560.500,-121.000
2.520,17.000,-806.000,560.000,-122.000
2.521,17.500,-806.000,559.000,-123.500
2.522,19.000,-805.500,558.500,-124.500
2.523,20.500,-804.000,558.500,-125.500
2.524,22.000,-802.500,559.000,-126.000
2.525,24.500,-801.000,560.000,-126.000
2.526,26.500,-799.000,561.000,-125.000
2.527,28.500,-797.000,563.000,-123.000
2.528,30.500,-795.000,564.500,-120.500
2.529,32.000,-793.500,566.500,-117.500
2.530,33.000,-791.500,568.500,-114.000
2.531,34.000,-790.000,570.500,-110.000
2.532,35.000,-789.000,572.500,-106.000
2.533,35.500,-787.500,574.500,-102.000
2.534,36.500,-786.000,576.500,-99.000
2.535,36.500,-785.000,577.500,-96.500
2.536,36.500,-784.500,577.500,-95.500
2.537,35.500,-785.000,577.000,-96.000
2.538,34.000,-786.000,575.000,-98.000
2.539,32.500,-787.500,572.500,-100.500
2.540,31.000,-789.500,569.000,-104.500
2.541,30.000,-791.500,565.500,-109.000
2.542,29.000,-793.500,561.500,-113.500
2.543,28.500,-795.000,558.500,-117.500
2.544,28.500,-796.000,555.500,-120.500
2.545,29.000,-796.000,554.000,-122.500
2.546,30.000,-795.500,554.000,-123.000
2.547,31.000,-794.500,555.000,-121.500
2.548,32.000,-793.000,556.000,-119.500
2.549,32.000,-792.000,558.000,-117.000
2.550,31.500,-791.500,559.500,-114.000
2.551,30.000,-792.000,560.500,-111.500
2.552,28.000,-793.000,560.500,-110.000
2.553,25.000,-795.000,559.000,-109.500
2.554,22.000,-798.000,557.000,-110.500
2.555,18.000,-801.000,554.000,-112.500
2.556,14.000,-804.500,550.000,-115.500
2.557,10.000,-808.500,546.000,-119.500
2.558,5.500,-812.500,541.000,-124.500
2.559,1.500,-817.000,535.500,-130.000
2.560,-2.500,-821.000,530.500,-135.500
2.561,-5.500,-824.500,525.500,-141.500
2.562,-8.000,-828.000,520.500,-147.500
2.563,-10.000,-830.500,516.500,-152.500
2.564,-11.000,-832.500,513.500,-156.500
2.565,-11.500,-833.500,511.000,-159.500
2.566,-12.000,-834.500,509.000,-162.000
2.567,-13.500,-836.000,507.000,-164.000
2.568,-15.000,-837.500,505.000,-165.500
2.569,-17.500,-839.500,503.500,-166.500
2.570,-20.000,-841.000,501.500,-166.500
2.571,-23.000,-843.000,500.000,-166.000
2.572,-26.000,-845.000,498.500,-165.500
2.573,-29.500,-847.500,496.000,-166.000
2.574,-33.000,-850.500,493.000,-167.000
2.575,-37.000,-854.000,489.500,-169.000
2.576,-40.500,-857.500,486.000,-172.000
2.577,-44.000,-861.000,482.500,-175.000
2.578,-47.500,-864.000,478.500,-179.000
2.579,-51.000,-867.500,474.000,-183.500
2.580,-54.000,-871.000,469.500,-188.500
2.581,-57.500,-874.500,464.500,-194.500
2.582,-60.000,-878.000,459.500,-200.000
2.583,-62.000,-881.500,455.000,-205.500
2.584,-63.500,-883.500,451.500,-210.000
2.585,-64.000,-884.500,449.000,-213.000
2.586,-64.000,-885.000,448.000,-215.000
2.587,-64.500,-885.500,447.000,-215.500
2.588,-65.500,-886.000,446.500,-216.000
2.589,-66.500,-887.000,445.500,-216.000
2.590,-68.500,-888.000,445.000,-215.000
2.591,-70.500,-889.000,444.500,-213.500
2.592,-72.500,-890.500,443.500,-212.500
2.593,-74.500,-892.000,442.500,-212.000
2.594,-77.000,-894.500,440.500,-212.500
2.595,-80.000,-896.500,438.500,-213.500
2.596,-82.500,-899.000,435.500,-215.000
2.597,-85.000,-902.000,432.500,-217.500
2.598,-87.500,-904.500,429.000,-220.500
2.599,-90.000,-907.000,425.500,-224.500
2.600,-91.500,-910.000,421.500,-228.500
2.601,-93.500,-912.000,418.000,-233.000
2.602,-94.500,-914.000,414.500,-237.500
2.603,-95.000,-915.500,412.000,-241.000
2.604,-95.500,-916.000,410.500,-244.000
2.605,-95.000,-916.000,409.500,-246.000
2.606,-94.000,-916.000,409.000,-247.000
2.607,-93.500,-915.500,409.000,-247.000
2.608,-93.500,-915.500,409.000,-245.500
2.609,-94.000,-915.000,409.500,-244.000
2.610,-95.000,-915.000,410.000,-242.000
2.611,-96.000,-915.500,410.000,-240.000
2.612,-97.500,-916.000,410.000,-238.000
2.613,-98.000,-916.000,410.500,-235.500
2.614,-98.500,-915.500,411.000,-234.000
2.615,-99.000,-915.500,411.500,-232.500
2.616,-100.000,-915.500,411.500,-232.000
2.617,-101.000,-916.000,410.500,-232.500
2.618,-102.500,-917.500,408.500,-234.000
2.619,-104.000,-919.000,406.500,-236.500
2.620,-105.500,-920.500,403.500,-239.500
2.621,-106.500,-922.500,401.000,-243.000
2.622,-107.500,-924.000,398.500,-246.500
2.623,-108.000,-925.500,396.000,-250.500
2.624,-108.000,-926.000,394.500,-253.500
2.625,-108.000,-926.500,393.000,-255.500
2.626,-107.000,-926.000,393.000,-256.000
2.627,-106.000,-925.500,393.000,-255.500
2.628,-105.000,-924.500,394.000,-254.000
2.629,-104.000,-923.500,395.500,-251.500
2.630,-103.500,-922.500,396.500,-249.000
2.631,-103.500,-922.000,397.500,-246.000
2.632,-104.000,-922.000,398.500,-243.000
2.633,-104.500,-921.500,399.000,-241.000
2.634,-104.500,-921.500,399.500,-239.000
2.635,-105.000,-921.500,399.500,-237.500
2.636,-105.500,-921.500,399.500,-237.000
2.637,-106.500,-922.500,398.500,-237.000
2.638,-107.500,-923.500,396.500,-238.500
2.639,-109.000,-925.000,394.500,-241.000
2.640,-110.500,-927.000,392.000,-244.000
2.641,-111.500,-928.500,389.000,-247.500
2.642,-112.500,-930.000,386.500,-251.500
2.643,-112.500,-931.000,384.500,-254.500
2.644,-112.000,-931.000,383.500,-257.000
2.645,-110.500,-930.000,383.500,-258.000
2.646,-109.000,-928.500,384.000,-258.000
2.647,-108.000,-927.000,384.500,-257.500
2.648,-107.000,-926.000,385.500,-255.500
2.649,-106.000,-925.000,386.500,-253.500
2.650,-105.500,-924.000,387.500,-250.500
2.651,-105.500,-923.500,389.000,-247.500
2.652,-105.500,-922.500,390.000,-244.000
2.653,-105.500,-922.000,391.000,-241.500
2.654,-105.500,-922.000,392.000,-239.500
2.655,-106.000,-921.500,392.000,-238.000
2.656,-107.000,-922.000,391.000,-238.000
2.657,-108.000,-923.000,390.000,-239.000
2.658,-109.500,-924.500,388.000,-240.500
2.659,-110.500,-926.000,386.000,-243.000
2.660,-111.500,-927.500,384.000,-246.000
2.661,-112.500,-928.500,382.000,-249.000
2.662,-112.500,-929.500,380.000,-252.500
2.663,-112.500,-930.500,378.000,-255.000
2.664,-112.000,-930.500,377.000,-257.500
2.665,-110.500,-929.500,377.000,-258.500
2.666,-109.000,-928.000,377.500,-258.500
2.667,-107.500,-926.500,379.000,-257.000
2.668,-105.500,-924.500,380.500,-255.000
2.669,-104.500,-923.500,382.000,-252.000
2.670,-104.000,-922.500,383.000,-249.500
2.671,-105.000,-923.000,383.500,-247.000
2.672,-106.500,-924.000,383.500,-245.000
2.673,-107.500,-925.000,384.000,-243.500
2.674,-109.000,-925.500,384.000,-242.000
2.675,-109.500,-925.000,384.500,-240.500
2.676,-109.500,-924.500,385.000,-239.500
2.677,-109.000,-924.000,385.500,-238.500
2.678,-109.000,-923.500,385.500,-239.000
2.679,-108.500,-923.000,384.500,-239.500
2.680,-108.500,-923.500,383.500,-241.500
2.681,-109.000,-925.000,381.000,-244.500
2.682,-109.500,-926.000,379.000,-248.000
2.683,-109.500,-927.000,377.000,-251.000
2.684,-109.000,-927.000,375.500,-253.500
2.685,-107.500,-926.500,374.500,-255.500
2.686,-106.000,-925.500,374.000,-256.500
2.687,-104.500,-924.500,374.500,-256.000
2.688,-102.500,-922.500,375.500,-254.500
2.689,-101.000,-921.000,377.000,-252.000
2.690,-100.000,-920.000,378.500,-249.000
2.691,-100.000,-919.500,379.000,-246.500
2.692,-101.000,-920.000,379.500,-245.000
2.693,-102.500,-920.500,379.500,-243.500
2.694,-103.500,-920.500,379.500,-242.500
2.695,-104.000,-920.500,379.500,-241.000
2.696,-105.000,-920.500,379.500,-240.500
2.697,-105.500,-920.500,379.500,-240.000
2.698,-106.500,-921.000,379.000,-240.000
2.699,-107.500,-921.500,378.500,-241.000
2.700,-108.500,-922.500,377.000,-242.500
2.701,-109.500,-924.000,375.000,-244.500
2.702,-110.000,-925.000,373.500,-247.000
2.703,-110.500,-925.500,371.500,-249.500
2.704,-110.500,-926.000,370.000,-252.000
2.705,-110.000,-925.500,369.000,-254.000
2.706,-108.500,-925.000,368.500,-255.000
2.707,-107.500,-924.000,368.500,-255.000
2.708,-106.000,-923.000,369.500,-253.500
2.709,-105.000,-921.500,371.000,-250.500
2.710,-104.000,-920.000,373.000,-247.500
2.711,-104.000,-919.000,375.000,-243.500
2.712,-104.500,-918.500,376.500,-240.500
2.713,-105.000,-918.000,377.500,-237.500
2.714,-105.500,-918.000,378.000,-236.000
2.715,-106.500,-918.500,378.500,-235.000
2.716,-107.500,-919.500,378.000,-235.000
2.717,-109.000,-920.500,377.000,-235.500
2.718,-110.000,-921.500,375.500,-237.000
2.719,-111.500,-923.000,373.500,-239.500
2.720,-112.500,-924.000,371.500,-242.500
2.721,-113.500,-925.500,369.000,-245.500
2.722,-114.000,-926.500,367.000,-249.000
2.723,-114.000,-927.000,365.500,-252.000
2.724,-113.000,-927.000,364.500,-254.000
2.725,-112.000,-926.500,364.000,-255.000
2.726,-110.000,-925.000,364.500,-255.000
2.727,-108.000,-923.000,366.000,-253.500
2.728,-106.000,-921.000,368.000,-251.000
2.729,-104.500,-919.000,370.000,-247.500
2.730,-103.500,-917.500,372.000,-244.000
2.731,-103.500,-917.000,373.500,-240.500
2.732,-104.000,-917.000,374.500,-238.000
2.733,-105.000,-917.500,374.500,-236.500
2.734,-106.000,-917.500,375.000,-235.000
2.735,-106.500,-918.000,375.000,-234.000
2.736,-107.500,-918.500,374.500,-234.000
2.737,-108.000,-919.000,373.500,-234.500
2.738,-109.500,-920.500,371.500,-236.500
2.739,-110.500,-922.000,369.500,-239.000
2.740,-112.000,-923.500,367.000,-242.000
2.741,-113.000,-925.000,365.000,-245.000
2.742,-113.500,-926.000,362.500,-248.500
2.743,-114.000,-927.000,360.500,-252.000
2.744,-114.500,-927.500,359.000,-254.500
2.745,-113.500,-927.000,358.500,-256.000
2.746,-112.500,-926.500,358.500,-256.500
2.747,-110.500,-924.500,360.000,-255.000
2.748,-109.000,-922.500,362.000,-252.500
2.749,-107.500,-920.500,364.500,-249.000
2.750,-107.000,-919.500,366.500,-245.500
2.751,-107.000,-918.500,367.500,-242.500
2.752,-108.000,-918.500,368.500,-240.000
2.753,-109.500,-919.000,368.500,-238.000
2.754,-110.500,-920.000,367.500,-237.000
2.755,-112.000,-921.000,366.500,-237.000
2.756,-113.500,-922.500,365.000,-237.500
2.757,-115.000,-924.000,363.000,-239.000
2.758,-116.000,-925.000,361.000,-240.500
2.759,-117.000,-926.500,359.000,-242.500
2.760,-117.000,-927.000,357.500,-245.000
2.761,-116.500,-927.000,356.500,-247.000
2.762,-115.500,-926.500,356.000,-249.000
2.763,-114.000,-926.000,356.000,-250.500
2.764,-113.000,-925.000,355.500,-252.000
2.765,-112.000,-924.500,355.500,-253.000
2.766,-111.000,-924.000,355.500,-254.000
2.767,-110.000,-923.500,355.500,-253.500
2.768,-109.500,-922.500,357.000,-252.000
2.769,-108.500,-921.000,358.500,-249.500
2.770,-108.000,-920.000,360.500,-246.000
2.771,-108.000,-919.000,362.000,-243.000
2.772,-109.000,-919.000,363.000,-240.000
2.773,-110.000,-919.500,363.000,-238.000
2.774,-111.500,-920.000,362.500,-237.000
2.775,-112.500,-920.500,362.500,-236.000
2.776,-113.000,-921.000,362.000,-236.000
2.777,-113.500,-921.500,361.500,-236.500
2.778,-114.500,-922.500,360.500,-237.500
2.779,-115.000,-923.000,359.000,-239.500
2.780,-116.000,-924.500,356.500,-242.500
2.781,-117.000,-926.000,354.000,-246.000
2.782,-118.000,-927.500,351.500,-250.000
2.783,-118.500,-928.500,349.000,-253.500
2.784,-118.500,-929.000,347.500,-256.000
2.785,-117.000,-928.000,347.500,-257.000
2.786,-115.500,-926.500,348.000,-257.000
2.787,-113.500,-924.500,350.000,-255.000
2.788,-111.000,-922.000,352.500,-252.500
2.789,-109.000,-919.500,355.500,-248.500
2.790,-107.000,-917.000,359.000,-244.000
2.791,-106.000,-915.000,361.000,-239.500
2.792,-106.000,-914.500,362.000,-236.500
2.793,-107.000,-915.000,362.000,-235.000
2.794,-108.500,-916.000,361.500,-234.000
2.795,-110.000,-917.000,360.500,-234.000
2.796,-111.000,-917.500,359.500,-234.000
2.797,-112.500,-918.500,358.500,-235.000
2.798,-113.500,-920.000,356.500,-236.500
2.799,-115.000,-921.500,354.500,-239.000
2.800,-116.000,-922.500,352.500,-242.000
2.801,-117.000,-924.000,350.500,-245.000
2.802,-117.500,-925.000,348.500,-248.000
2.803,-117.500,-926.000,347.000,-251.000
2.804,-117.000,-926.000,346.000,-253.500
2.805,-116.000,-925.500,346.000,-254.000
2.806,-113.500,-923.500,347.000,-253.500
2.807,-111.000,-921.000,349.000,-251.000
2.808,-109.000,-918.500,351.500,-248.000
2.809,-107.000,-916.500,354.000,-244.500
2.810,-106.000,-915.000,356.000,-241.000
2.811,-106.000,-914.000,357.000,-237.500
2.812,-106.500,-914.000,358.000,-235.000
2.813,-108.000,-914.500,358.000,-233.000
2.814,-109.000,-915.000,358.000,-232.000
2.815,-110.000,-916.000,357.500,-231.500
2.816,-111.000,-916.500,357.000,-231.500
2.817,-111.500,-917.000,356.000,-232.000
2.818,-112.500,-918.000,355.000,-233.500
2.819,-113.000,-918.500,353.500,-235.000
2.820,-113.000,-919.000,352.000,-237.500
2.821,-113.000,-920.000,350.500,-240.000
2.822,-113.000,-920.500,349.000,-242.500
2.823,-113.000,-920.500,347.500,-245.500
2.824,-112.500,-921.000,346.500,-247.500
2.825,-111.500,-920.500,346.000,-249.000
2.826,-110.500,-919.500,346.500,-249.000
2.827,-109.000,-918.500,347.500,-248.000
2.828,-107.500,-916.500,349.000,-246.000
2.829,-106.500,-915.000,351.500,-243.000
2.830,-105.500,-913.500,353.500,-239.500
2.831,-105.000,-912.500,355.500,-236.000
2.832,-105.500,-912.000,357.000,-232.500
2.833,-106.000,-912.000,358.000,-230.000
2.834,-107.000,-912.000,358.000,-228.500
2.835,-107.500,-912.000,358.000,-227.500
2.836,-108.500,-912.500,357.500,-227.000
2.837,-109.500,-913.000,357.000,-227.500
2.838,-110.500,-913.500,355.500,-228.500
2.839,-111.500,-914.500,354.000,-230.500
2.840,-112.500,-916.000,351.500,-233.000
2.841,-113.500,-917.500,349.000,-236.500
2.842,-114.000,-919.000,346.500,-240.000
2.843,-114.000,-919.500,345.000,-243.000
2.844,-113.000,-919.500,343.500,-245.500
2.845,-111.500,-919.000,343.000,-247.500
2.846,-110.000,-917.500,343.000,-248.000
2.847,-108.000,-916.000,343.500,-248.000
2.848,-105.500,-914.500,344.000,-246.000
2.849,-103.500,-912.500,345.500,-243.000
2.850,-102.500,-911.000,347.500,-239.500
2.851,-102.000,-910.000,349.000,-235.500
2.852,-103.000,-910.000,350.000,-233.000
2.853,-105.000,-910.500,350.500,-231.000
2.854,-107.500,-911.500,350.000,-230.000
2.855,-109.500,-912.500,350.000,-229.500
2.856,-111.000,-913.500,350.000,-229.500
2.857,-112.500,-914.000,349.500,-229.500
2.858,-113.000,-915.000,348.500,-230.000
2.859,-114.000,-915.500,347.500,-231.500
2.860,-114.500,-916.500,346.000,-234.000
2.861,-115.000,-917.500,344.500,-236.500
2.862,-115.000,-918.500,342.500,-239.500
2.863,-115.000,-918.500,341.000,-242.000
2.864,-114.000,-918.500,341.000,-244.000
2.865,-112.000,-917.000,341.500,-244.000
2.866,-109.500,-914.500,343.000,-243.000
2.867,-107.000,-912.000,345.000,-241.000
2.868,-105.000,-909.500,347.000,-238.500
2.869,-103.000,-907.500,349.000,-235.000
2.870,-102.500,-906.500,350.500,-232.000
2.871,-102.500,-905.500,352.000,-229.000
2.872,-103.000,-905.500,353.000,-226.000
2.873,-103.500,-905.000,354.000,-223.500
2.874,-103.500,-904.500,355.000,-221.000
2.875,-104.000,-904.000,355.500,-219.500
2.876,-104.500,-904.000,355.500,-219.000
2.877,-104.500,-904.000,355.000,-219.000
2.878,-104.500,-904.500,354.500,-219.500
2.879,-104.500,-904.500,353.500,-220.500
2.880,-103.500,-904.000,353.000,-222.000
2.881,-102.500,-904.000,352.000,-223.500
2.882,-101.500,-903.500,351.500,-225.000
2.883,-99.500,-902.500,351.000,-226.000
2.884,-97.500,-901.000,351.000,-227.000
2.885,-95.000,-899.000,352.500,-226.500
2.886,-91.500,-896.000,355.000,-224.500
2.887,-87.500,-892.500,358.500,-221.000
2.888,-84.000,-889.000,362.000,-217.000
2.889,-81.000,-885.500,365.500,-212.500
2.890,-78.500,-882.500,369.000,-207.500
2.891,-76.500,-880.000,372.500,-202.500
2.892,-74.500,-877.500,375.500,-198.000
2.893,-73.500,-875.500,378.500,-193.500
2.894,-72.000,-873.500,380.500,-190.000
2.895,-71.000,-872.000,382.500,-187.000
2.896,-70.000,-870.500,383.500,-185.000
2.897,-69.000,-869.500,384.500,-184.000
2.898,-68.000,-869.000,385.000,-183.500
2.899,-66.500,-868.000,385.000,-183.500
2.900,-65.000,-867.000,385.000,-184.000
2.901,-64.500,-867.000,384.500,-185.500
2.902,-64.000,-867.500,383.500,-188.000
2.903,-64.500,-868.000,381.500,-191.000
2.904,-65.000,-869.000,380.000,-194.000
2.905,-65.000,-869.500,378.500,-196.500
2.906,-64.500,-869.500,377.500,-197.500
2.907,-64.500,-870.000,377.000,-198.000
2.908,-64.000,-869.500,377.500,-197.000
2.909,-63.500,-869.000,378.500,-194.500
2.910,-62.500,-867.500,380.000,-190.500
2.911,-61.500,-866.000,382.500,-186.500
2.912,-61.000,-864.500,385.000,-182.000
2.913,-60.500,-863.500,386.500,-178.500
2.914,-61.000,-863.000,387.500,-176.500
2.915,-61.500,-863.500,387.500,-175.500
2.916,-63.000,-864.000,387.000,-175.500
2.917,-64.500,-865.500,385.500,-176.500
2.918,-66.000,-867.000,383.500,-178.500
2.919,-68.000,-869.000,381.500,-181.500
2.920,-69.500,-871.000,378.500,-184.500
2.921,-70.500,-872.500,376.000,-188.000
2.922,-72.000,-874.500,373.000,-192.000
2.923,-72.500,-875.500,370.500,-195.500
2.924,-72.000,-876.000,369.000,-198.000
2.925,-71.000,-875.500,368.500,-199.000
2.926,-69.500,-874.500,369.000,-199.000
2.927,-68.000,-873.000,370.000,-198.500
2.928,-67.000,-872.000,370.000,-197.500
2.929,-67.000,-872.000,370.500,-196.000
2.930,-68.000,-872.000,370.500,-194.500
2.931,-70.000,-873.500,369.500,-193.500
2.932,-72.500,-875.000,368.500,-193.000
2.933,-75.500,-877.000,367.500,-192.500
2.934,-78.000,-879.000,366.500,-192.500
2.935,-81.000,-881.000,364.500,-193.000
2.936,-83.500,-883.500,362.000,-195.000
2.937,-86.500,-886.000,359.000,-197.500
2.938,-90.000,-889.500,355.000,-201.500
2.939,-93.000,-893.000,351.000,-205.500
2.940,-96.000,-896.500,346.500,-210.500
2.941,-98.500,-899.500,342.000,-215.500
2.942,-100.500,-902.000,338.500,-220.500
2.943,-102.000,-904.000,335.500,-224.500
2.944,-102.000,-904.500,333.500,-227.500
2.945,-101.500,-904.000,333.000,-229.000
2.946,-100.500,-903.000,333.000,-229.000
2.947,-98.500,-901.000,334.500,-228.000
2.948,-96.500,-899.000,336.500,-225.000
2.949,-94.500,-897.000,339.000,-222.000
2.950,-93.000,-895.000,341.500,-218.000
2.951,-92.500,-894.000,343.500,-214.500
2.952,-93.000,-894.000,344.500,-211.000
2.953,-93.500,-894.000,345.000,-209.000
2.954,-94.500,-894.500,345.500,-207.500
2.955,-95.500,-895.000,345.000,-206.500
2.956,-96.000,-896.000,345.000,-206.500
2.957,-97.000,-896.500,344.000,-207.500
2.958,-98.000,-898.000,342.500,-209.000
2.959,-100.000,-899.500,340.000,-212.000
2.960,-102.000,-902.000,337.000,-216.000
2.961,-104.000,-904.000,333.500,-220.000
2.962,-105.000,-906.000,330.500,-224.000
2.963,-105.500,-907.500,328.000,-227.500
2.964,-105.500,-908.000,326.500,-230.500
2.965,-104.500,-908.000,325.500,-232.000
2.966,-103.500,-908.000,325.000,-232.500
2.967,-102.500,-907.500,325.000,-232.500
2.968,-102.000,-907.000,325.500,-231.500
2.969,-101.500,-906.000,326.500,-229.500
2.970,-101.500,-905.000,328.000,-226.500
2.971,-101.500,-904.000,329.500,-223.000
2.972,-101.500,-903.000,331.500,-219.500
2.973,-101.500,-902.000,332.500,-216.500
2.974,-102.000,-901.500,333.500,-214.000
2.975,-103.000,-901.500,333.500,-213.000
2.976,-104.000,-902.000,333.000,-213.000
2.977,-105.000,-902.500,332.000,-213.500
2.978,-106.000,-903.500,330.500,-215.000
2.979,-107.000,-905.000,328.000,-218.000
2.980,-108.000,-906.500,325.000,-221.500
2.981,-108.500,-908.500,321.500,-225.000
