'Elapsed time','AECG1','AECG2','AECG3','AECG4'
'seconds','uV','uV','uV','uV'
0.000,9.000,-0.500,-7.000,-2.500
0.001,75.500,-3.000,-62.500,-19.000
0.002,86.500,-3.500,-72.500,-21.500
0.003,91.500,-3.500,-77.000,-22.500
0.004,93.000,-3.500,-79.000,-22.000
0.005,93.000,-3.500,-80.000,-22.000
0.006,93.000,-3.500,-80.000,-21.500
0.007,92.500,-3.500,-79.500,-21.000
0.008,92.500,-3.500,-79.500,-21.500
0.009,93.000,-4.000,-79.000,-22.000
0.010,93.000,-4.000,-79.000,-22.500
0.011,93.500,-4.500,-78.500,-23.500
0.012,94.000,-5.000,-78.500,-24.500
0.013,95.000,-5.500,-78.500,-25.500
0.014,95.500,-6.000,-78.500,-26.000
0.015,95.500,-6.500,-78.500,-27.000
0.016,96.000,-6.500,-78.500,-27.500
0.017,95.500,-7.000,-78.500,-27.500
0.018,95.000,-7.000,-79.000,-27.500
0.019,94.500,-7.000,-79.500,-27.500
0.020,94.000,-6.500,-80.000,-27.000
0.021,93.500,-6.500,-80.500,-26.500
0.022,92.500,-6.000,-80.500,-26.000
0.023,92.000,-5.500,-81.000,-25.000
0.024,91.500,-5.000,-81.000,-24.500
0.025,91.000,-5.000,-81.000,-23.500
0.026,90.500,-4.500,-81.000,-23.000
0.027,90.000,-4.500,-80.500,-22.500
0.028,90.000,-4.500,-80.500,-22.500
0.029,90.000,-4.500,-80.500,-22.500
0.030,90.500,-5.000,-80.000,-23.000
0.031,91.000,-5.000,-79.500,-23.500
0.032,91.500,-5.000,-79.500,-24.000
0.033,92.500,-5.500,-79.000,-24.500
0.034,93.000,-5.500,-79.000,-25.500
0.035,94.000,-5.500,-78.500,-26.000
0.036,94.500,-5.500,-78.500,-26.500
0.037,95.000,-5.500,-78.500,-26.500
0.038,95.000,-5.500,-78.500,-26.500
0.039,95.000,-5.000,-78.000,-26.000
0.040,94.500,-5.000,-78.000,-25.500
0.041,94.500,-4.500,-78.000,-24.500
0.042,94.000,-4.000,-78.000,-23.500
0.043,93.500,-4.000,-78.000,-23.000
0.044,93.000,-3.500,-78.000,-22.000
0.045,93.000,-3.500,-78.000,-21.500
0.046,93.000,-3.500,-78.000,-21.000
0.047,93.000,-3.500,-78.000,-20.500
0.048,93.500,-3.500,-78.000,-20.500
0.049,94.000,-3.500,-77.500,-21.000
0.050,95.000,-3.500,-77.000,-21.500
0.051,95.500,-4.000,-76.500,-22.000
0.052,96.000,-4.000,-76.000,-23.000
0.053,96.000,-4.500,-75.500,-23.500
0.054,96.500,-4.500,-75.000,-24.000
0.055,96.500,-4.500,-74.500,-24.500
0.056,97.000,-4.500,-74.500,-24.500
0.057,97.000,-4.500,-74.500,-25.000
0.058,96.500,-4.500,-74.500,-24.500
0.059,96.500,-4.500,-74.500,-24.500
0.060,96.000,-4.000,-75.000,-24.000
0.061,95.500,-4.000,-75.000,-23.000
0.062,94.500,-3.500,-75.000,-22.000
0.063,94.000,-3.000,-75.500,-21.000
0.064,93.000,-3.000,-75.500,-20.000
0.065,92.500,-2.500,-75.500,-19.500
0.066,92.000,-2.500,-75.500,-19.000
0.067,91.500,-2.500,-75.500,-19.000
0.068,91.500,-2.000,-75.500,-19.000
0.069,92.000,-2.000,-75.000,-19.000
0.070,92.500,-2.500,-74.500,-19.500
0.071,93.000,-2.500,-74.000,-20.000
0.072,93.500,-2.500,-73.500,-21.000
0.073,94.500,-2.500,-73.000,-22.000
0.074,95.000,-3.000,-72.500,-22.500
0.075,95.500,-3.000,-72.500,-23.000
0.076,96.000,-3.000,-72.500,-23.500
0.077,96.000,-3.000,-72.500,-24.000
0.078,95.500,-3.000,-72.500,-24.000
0.079,95.000,-3.000,-72.500,-23.500
0.080,94.500,-2.500,-72.500,-23.000
0.081,94.000,-2.500,-73.000,-22.500
0.082,93.500,-2.000,-73.000,-22.000
0.083,93.000,-2.000,-73.000,-21.000
0.084,92.500,-1.500,-73.500,-20.500
0.085,92.000,-1.000,-73.500,-19.500
0.086,92.000,-1.000,-73.500,-19.500
0.087,91.500,-0.500,-73.000,-19.000
0.088,91.500,-0.500,-73.000,-19.500
0.089,91.000,-0.500,-73.000,-19.500
0.090,91.000,-1.000,-72.500,-20.500
0.091,91.500,-1.000,-72.500,-21.000
0.092,91.500,-1.000,-72.000,-22.000
0.093,92.000,-1.500,-72.000,-23.000
0.094,92.000,-1.500,-71.500,-23.500
0.095,92.000,-1.500,-71.500,-24.500
0.096,92.500,-2.000,-71.000,-25.000
0.097,92.000,-2.000,-71.000,-25.500
0.098,92.000,-2.000,-71.000,-25.500
0.099,91.500,-1.500,-71.000,-25.500
0.100,91.000,-1.500,-71.000,-25.000
0.101,90.500,-1.000,-71.000,-24.500
0.102,89.500,-1.000,-71.000,-23.500
0.103,89.000,-0.500,-71.000,-23.000
0.104,88.500,0.000,-71.500,-22.500
0.105,87.500,0.000,-71.500,-22.000
0.106,87.000,0.500,-71.500,-21.500
0.107,87.000,0.500,-71.500,-21.500
0.108,87.000,0.500,-71.500,-21.500
0.109,87.000,0.500,-71.000,-22.000
0.110,87.500,0.000,-70.500,-22.500
0.111,87.500,0.000,-70.000,-23.000
0.112,88.500,-0.500,-69.500,-23.500
0.113,89.000,-1.000,-69.000,-24.500
0.114,90.000,-1.000,-69.000,-25.000
0.115,90.500,-1.500,-68.500,-26.000
0.116,91.500,-1.500,-68.500,-26.500
0.117,92.000,-2.000,-68.500,-27.000
0.118,92.500,-2.000,-69.000,-27.500
0.119,93.000,-2.000,-69.000,-27.500
0.120,93.000,-2.000,-69.500,-27.000
0.121,92.500,-2.000,-70.000,-27.000
0.122,92.000,-2.000,-70.000,-26.500
0.123,91.500,-2.000,-70.500,-25.500
0.124,91.000,-1.500,-70.500,-25.000
0.125,90.500,-1.500,-71.000,-24.500
0.126,90.500,-1.500,-71.000,-24.500
0.127,90.000,-1.500,-71.000,-24.500
0.128,90.000,-1.500,-71.000,-24.500
0.129,90.000,-1.500,-71.000,-25.000
0.130,90.500,-1.500,-70.500,-25.500
0.131,90.500,-2.000,-70.500,-26.000
0.132,91.000,-2.000,-70.000,-27.000
0.133,91.500,-2.500,-69.500,-27.500
0.134,92.500,-2.500,-69.000,-28.000
0.135,93.000,-2.500,-68.500,-28.500
0.136,93.500,-3.000,-68.000,-29.000
0.137,94.000,-3.000,-68.000,-29.000
0.138,94.500,-3.000,-68.000,-29.000
0.139,94.500,-3.000,-68.000,-29.000
0.140,94.500,-3.000,-68.500,-28.500
0.141,94.000,-3.000,-69.000,-28.000
0.142,93.500,-3.000,-69.500,-27.500
0.143,93.500,-3.000,-69.500,-27.000
0.144,93.000,-3.500,-70.000,-26.500
0.145,93.000,-3.500,-70.500,-26.000
0.146,93.500,-3.500,-71.000,-25.500
0.147,93.500,-3.500,-71.000,-25.500
0.148,94.000,-4.000,-71.000,-26.000
0.149,95.000,-4.500,-71.500,-26.500
0.150,95.500,-5.000,-71.500,-27.000
0.151,96.500,-5.500,-71.500,-28.000
0.152,97.000,-6.000,-71.500,-29.000
0.153,98.000,-6.500,-71.500,-30.000
0.154,98.500,-7.000,-71.000,-31.000
0.155,99.500,-7.000,-70.500,-31.500
0.156,100.000,-7.000,-70.500,-32.000
0.157,100.000,-6.500,-70.000,-32.000
0.158,100.500,-6.500,-70.000,-32.000
0.159,100.500,-6.000,-69.500,-31.500
0.160,100.000,-5.500,-69.500,-31.000
0.161,99.500,-5.000,-69.500,-30.000
0.162,99.000,-4.000,-69.000,-29.000
0.163,98.500,-3.000,-68.500,-28.000
0.164,97.500,-2.000,-67.500,-26.500
0.165,97.000,-1.000,-67.000,-25.500
0.166,96.500,0.000,-66.000,-24.500
0.167,96.000,0.500,-65.500,-23.500
0.168,96.000,1.000,-65.000,-23.500
0.169,96.000,1.000,-64.000,-23.500
0.170,96.500,1.000,-64.000,-24.000
0.171,97.500,0.500,-63.500,-24.500
0.172,98.500,0.000,-63.000,-25.500
0.173,99.000,-0.500,-63.000,-26.500
0.174,100.000,-0.500,-63.000,-27.000
0.175,101.000,-1.000,-63.000,-28.000
0.176,101.500,-1.000,-63.000,-28.500
0.177,101.500,-1.500,-63.000,-29.000
0.178,101.500,-1.500,-63.500,-29.500
0.179,101.500,-1.500,-64.000,-29.000
0.180,101.000,-1.500,-64.500,-29.000
0.181,100.500,-1.500,-64.500,-28.500
0.182,100.000,-1.000,-65.000,-28.000
0.183,99.500,-1.000,-65.000,-27.000
0.184,99.000,-0.500,-65.000,-26.500
0.185,99.000,-0.500,-65.000,-25.500
0.186,98.500,0.000,-65.000,-25.000
0.187,98.500,0.000,-64.500,-24.500
0.188,98.500,0.000,-64.500,-24.500
0.189,99.000,0.000,-64.000,-24.500
0.190,99.500,0.000,-63.500,-24.500
0.191,100.000,0.000,-62.500,-25.000
0.192,100.500,0.000,-62.000,-25.500
0.193,101.000,0.000,-61.500,-26.000
0.194,101.500,-0.500,-61.000,-27.000
0.195,102.000,-0.500,-60.500,-27.500
0.196,102.000,-0.500,-60.500,-27.500
0.197,102.000,-0.500,-60.000,-28.000
0.198,102.000,-0.500,-60.000,-28.000
0.199,101.500,-0.500,-60.500,-27.500
0.200,101.000,-0.500,-60.500,-27.000
0.201,100.500,-0.500,-60.500,-26.500
0.202,100.000,-0.500,-61.000,-26.000
0.203,99.000,0.000,-61.000,-25.000
0.204,98.500,0.000,-61.000,-24.500
0.205,98.500,0.500,-61.500,-24.000
0.206,98.000,0.500,-61.500,-23.500
0.207,97.500,0.500,-61.500,-23.500
0.208,97.500,0.000,-61.000,-23.500
0.209,97.500,0.000,-60.500,-23.500
0.210,98.000,0.000,-60.000,-24.000
0.211,98.500,-0.500,-59.500,-24.500
0.212,99.500,-0.500,-58.500,-25.000
0.213,100.000,-0.500,-58.000,-26.000
0.214,101.000,-0.500,-57.500,-26.500
0.215,101.500,-0.500,-57.000,-27.000
0.216,102.000,-0.500,-56.500,-27.000
0.217,102.500,0.000,-56.500,-27.500
0.218,102.500,0.000,-56.500,-27.500
0.219,102.000,0.000,-56.500,-27.000
0.220,101.500,0.000,-56.500,-26.500
0.221,101.000,0.500,-57.000,-26.000
0.222,100.500,0.500,-57.000,-25.500
0.223,99.500,1.000,-57.000,-25.000
0.224,99.000,1.000,-57.500,-24.500
0.225,98.000,1.500,-57.500,-24.000
0.226,97.500,1.500,-57.500,-23.500
0.227,97.000,1.500,-57.500,-23.500
0.228,97.000,1.500,-57.500,-23.500
0.229,97.500,1.500,-57.000,-24.000
0.230,98.000,1.500,-56.500,-24.500
0.231,98.500,1.000,-56.000,-25.000
0.232,99.000,1.000,-56.000,-26.000
0.233,99.500,0.500,-55.500,-26.500
0.234,100.000,0.500,-55.000,-27.500
0.235,100.000,0.000,-54.500,-28.000
0.236,100.500,0.000,-54.500,-29.000
0.237,100.500,0.000,-54.500,-29.000
0.238,101.000,-0.500,-54.500,-29.000
0.239,101.000,-0.500,-55.000,-29.000
0.240,100.500,-0.500,-55.500,-28.500
0.241,100.000,0.000,-55.500,-28.000
0.242,99.500,0.500,-56.000,-27.000
0.243,98.500,0.500,-56.000,-26.500
0.244,98.000,1.000,-56.000,-25.500
0.245,97.500,1.000,-56.000,-25.000
0.246,97.000,1.500,-56.000,-24.500
0.247,96.500,1.500,-55.500,-24.500
0.248,96.500,1.500,-55.500,-24.500
0.249,96.500,1.500,-55.000,-24.500
0.250,97.000,1.500,-54.500,-25.000
0.251,97.500,1.500,-54.000,-25.500
0.252,98.500,1.500,-53.500,-26.000
0.253,99.000,1.500,-53.000,-26.500
0.254,100.000,1.500,-52.500,-27.000
0.255,101.000,1.000,-52.500,-27.500
0.256,101.500,1.000,-52.000,-27.500
0.257,102.000,1.000,-52.000,-28.000
0.258,102.000,1.000,-52.000,-27.500
0.259,102.500,1.500,-52.000,-27.500
0.260,102.000,1.500,-52.500,-27.000
0.261,102.000,1.500,-52.500,-26.500
0.262,101.500,2.000,-53.000,-25.500
0.263,101.500,2.000,-53.500,-25.000
0.264,101.000,2.500,-53.500,-24.000
0.265,101.000,2.500,-53.500,-23.500
0.266,100.500,2.500,-54.000,-23.500
0.267,100.500,3.000,-54.000,-23.000
0.268,100.500,3.000,-53.500,-23.000
0.269,101.000,2.500,-53.500,-23.500
0.270,101.500,2.500,-53.500,-24.000
0.271,102.000,2.500,-53.000,-24.500
0.272,103.000,2.000,-53.000,-25.000
0.273,104.000,2.000,-52.500,-26.000
0.274,105.000,1.500,-52.000,-26.500
0.275,106.000,1.500,-52.000,-27.000
0.276,106.500,1.000,-52.000,-27.500
0.277,106.500,1.000,-52.000,-27.500
0.278,106.500,1.000,-52.000,-27.500
0.279,106.500,1.000,-52.000,-27.500
0.280,106.000,1.500,-52.000,-27.000
0.281,105.000,1.500,-52.500,-26.000
0.282,104.000,2.000,-52.500,-25.500
0.283,103.500,2.500,-52.500,-24.500
0.284,102.500,2.500,-53.000,-24.000
0.285,101.500,2.500,-53.000,-23.500
0.286,101.000,3.000,-53.000,-23.000
0.287,101.000,3.000,-53.000,-22.500
0.288,101.000,3.000,-52.500,-22.500
0.289,101.000,3.000,-52.500,-23.000
0.290,101.000,2.500,-52.000,-23.000
0.291,101.500,2.500,-52.000,-24.000
0.292,101.500,2.000,-51.500,-24.500
0.293,102.000,1.500,-51.000,-25.500
0.294,102.500,1.500,-51.000,-26.000
0.295,103.000,1.000,-50.500,-27.000
0.296,103.000,1.000,-50.500,-27.000
0.297,103.000,1.000,-50.500,-27.500
0.298,103.000,1.000,-50.500,-27.500
0.299,103.000,1.000,-51.000,-27.000
0.300,102.500,1.500,-51.000,-26.500
0.301,102.500,1.500,-51.000,-25.500
0.302,102.000,2.000,-51.500,-25.000
0.303,101.500,2.500,-51.500,-24.000
0.304,101.000,2.500,-51.500,-23.500
0.305,100.500,2.500,-51.500,-23.000
0.306,100.500,3.000,-51.500,-22.500
0.307,100.500,3.000,-51.500,-22.000
0.308,101.000,2.500,-51.500,-22.000
0.309,101.000,2.500,-51.000,-22.000
0.310,101.000,2.500,-51.000,-22.500
0.311,101.500,2.500,-50.500,-23.000
0.312,102.000,2.000,-50.000,-24.000
0.313,102.500,2.000,-50.000,-24.500
0.314,103.000,2.000,-49.500,-25.000
0.315,103.500,1.500,-49.000,-26.000
0.316,104.000,1.500,-49.000,-26.000
0.317,104.000,1.500,-49.000,-26.500
0.318,104.000,1.500,-49.000,-26.500
0.319,103.500,2.000,-49.000,-26.000
0.320,103.000,2.000,-49.500,-25.500
0.321,102.000,2.500,-49.500,-25.000
0.322,101.500,2.500,-50.000,-24.500
0.323,100.500,2.500,-50.000,-23.500
0.324,100.000,3.000,-50.000,-22.500
0.325,99.500,3.500,-50.000,-22.000
0.326,99.500,3.500,-49.500,-21.500
0.327,99.500,4.000,-49.500,-21.000
0.328,99.500,4.000,-49.000,-21.000
0.329,100.000,4.000,-48.500,-21.000
0.330,100.500,4.000,-48.000,-21.500
0.331,101.000,3.500,-48.000,-22.000
0.332,101.500,3.500,-47.500,-22.500
0.333,102.500,3.500,-47.000,-23.500
0.334,103.000,3.000,-47.000,-24.000
0.335,103.500,3.000,-46.500,-24.500
0.336,104.000,3.000,-46.500,-25.000
0.337,104.000,3.000,-46.000,-25.500
0.338,104.000,3.000,-46.000,-25.500
0.339,104.000,3.000,-46.000,-25.500
0.340,103.500,3.500,-46.000,-25.000
0.341,102.500,3.500,-46.500,-24.500
0.342,102.000,3.500,-47.000,-24.000
0.343,101.000,4.000,-47.500,-23.000
0.344,100.000,4.000,-48.000,-22.500
0.345,99.500,4.500,-48.000,-22.500
0.346,99.000,4.500,-48.000,-22.000
0.347,99.000,4.500,-48.000,-22.000
0.348,99.500,4.000,-48.000,-22.000
0.349,100.000,4.000,-48.000,-22.500
0.350,100.500,4.000,-47.500,-23.000
0.351,101.500,3.500,-47.500,-24.000
0.352,102.500,3.000,-47.000,-25.000
0.353,103.500,2.500,-47.000,-26.000
0.354,104.500,2.000,-46.500,-26.500
0.355,105.000,1.500,-46.500,-27.500
0.356,105.000,1.500,-46.500,-28.000
0.357,105.000,1.500,-46.500,-28.000
0.358,104.500,1.000,-46.500,-28.000
0.359,104.000,1.000,-47.000,-28.000
0.360,103.500,1.000,-47.500,-28.000
0.361,103.000,1.500,-48.000,-27.500
0.362,102.000,1.500,-48.500,-27.000
0.363,101.000,2.000,-48.500,-26.500
0.364,100.000,2.000,-48.500,-25.500
0.365,99.000,2.500,-48.500,-25.000
0.366,98.500,3.000,-48.500,-24.500
0.367,98.000,3.000,-48.000,-24.000
0.368,97.500,3.500,-48.000,-23.500
0.369,97.500,3.500,-47.500,-23.500
0.370,97.000,3.500,-47.000,-24.000
0.371,97.000,3.500,-46.500,-24.500
0.372,97.500,3.500,-46.000,-25.500
0.373,97.500,3.000,-46.000,-26.000
0.374,98.000,3.000,-45.500,-27.000
0.375,98.500,2.500,-45.500,-27.500
0.376,99.000,2.500,-45.000,-28.000
0.377,99.000,2.500,-45.000,-28.500
0.378,99.000,2.500,-45.000,-28.000
0.379,99.000,3.000,-45.000,-27.500
0.380,98.500,3.000,-44.500,-27.000
0.381,98.000,3.500,-44.500,-26.000
0.382,97.500,4.000,-44.500,-25.000
0.383,97.000,4.000,-44.500,-24.000
0.384,96.500,4.500,-44.500,-23.000
0.385,96.000,5.000,-44.500,-22.000
0.386,95.500,5.000,-44.000,-21.500
0.387,95.500,5.500,-44.000,-21.500
0.388,95.000,5.500,-43.500,-21.500
0.389,95.000,5.500,-43.500,-21.500
0.390,95.500,5.000,-43.000,-22.000
0.391,96.000,5.000,-42.500,-23.000
0.392,97.000,5.000,-42.500,-23.500
0.393,97.500,4.500,-42.000,-24.000
0.394,98.500,4.500,-41.500,-24.500
0.395,99.500,4.000,-41.000,-25.000
0.396,100.000,4.000,-41.000,-25.500
0.397,100.500,4.000,-40.500,-26.000
0.398,100.500,4.000,-41.000,-25.500
0.399,100.500,4.000,-41.000,-25.500
0.400,100.000,4.000,-41.000,-25.000
0.401,99.500,4.500,-41.500,-24.000
0.402,98.500,5.000,-41.500,-23.500
0.403,97.500,5.000,-42.000,-22.500
0.404,96.500,5.500,-42.000,-21.500
0.405,95.500,6.000,-42.000,-21.000
0.406,95.000,6.000,-42.000,-20.500
0.407,94.500,6.500,-41.500,-20.000
0.408,94.000,6.500,-41.500,-20.000
0.409,94.000,6.500,-41.000,-20.500
0.410,94.500,6.500,-40.500,-20.500
0.411,95.000,6.500,-40.000,-21.000
0.412,95.500,6.000,-39.500,-21.500
0.413,96.000,6.000,-39.500,-22.500
0.414,96.000,5.500,-39.000,-23.000
0.415,96.500,5.500,-39.000,-23.500
0.416,96.500,5.000,-39.500,-24.000
0.417,96.000,5.000,-39.500,-24.500
0.418,96.000,4.500,-39.500,-24.500
0.419,95.500,4.500,-40.000,-24.500
0.420,94.500,4.500,-40.000,-24.000
0.421,94.000,4.500,-40.500,-23.500
0.422,93.000,5.000,-40.500,-23.000
0.423,92.000,5.000,-41.000,-22.000
0.424,91.500,5.000,-41.500,-21.500
0.425,91.000,5.000,-41.500,-21.000
0.426,90.500,5.000,-41.500,-21.000
0.427,90.000,5.000,-41.500,-20.500
0.428,90.000,5.000,-41.500,-21.000
0.429,90.000,4.500,-41.000,-21.000
0.430,90.000,4.500,-41.000,-21.500
0.431,90.500,4.000,-40.500,-22.500
0.432,90.500,4.000,-40.000,-23.000
0.433,91.000,3.500,-40.000,-24.000
0.434,91.500,3.500,-40.000,-24.500
0.435,91.500,3.000,-40.000,-25.000
0.436,92.000,3.000,-40.000,-25.500
0.437,92.000,2.500,-40.000,-26.000
0.438,92.000,2.500,-40.000,-26.000
0.439,91.500,2.500,-40.500,-25.500
0.440,91.000,2.500,-41.000,-25.000
0.441,90.500,2.500,-41.000,-24.500
0.442,89.500,2.500,-41.500,-24.000
0.443,88.500,2.500,-42.000,-23.000
0.444,88.000,3.000,-42.000,-22.500
0.445,87.000,3.000,-42.000,-22.000
0.446,86.500,3.000,-42.000,-21.500
0.447,86.000,3.000,-42.000,-21.000
0.448,85.500,3.000,-41.500,-21.000
0.449,85.500,3.000,-41.000,-21.000
0.450,85.500,3.000,-40.500,-21.500
0.451,85.500,3.000,-40.000,-21.500
0.452,86.000,2.500,-39.500,-22.500
0.453,86.500,2.500,-39.000,-23.000
0.454,87.500,2.000,-38.500,-24.000
0.455,88.000,1.500,-38.000,-24.500
0.456,88.500,1.500,-38.000,-25.000
0.457,89.000,1.500,-37.500,-25.500
0.458,89.500,1.500,-37.500,-25.500
0.459,89.000,1.500,-38.000,-25.500
0.460,89.000,1.000,-38.000,-25.000
0.461,88.000,1.500,-38.500,-24.500
0.462,87.500,1.500,-39.000,-24.000
0.463,87.000,1.500,-39.000,-23.000
0.464,86.500,2.000,-39.500,-22.500
0.465,86.000,2.500,-39.500,-21.500
0.466,86.000,2.500,-39.500,-21.000
0.467,85.500,2.500,-39.000,-20.500
0.468,85.500,2.500,-39.000,-20.500
0.469,85.000,2.500,-38.500,-20.500
0.470,85.000,2.500,-38.500,-20.500
0.471,85.500,2.000,-38.000,-21.000
0.472,86.000,2.000,-37.500,-22.000
0.473,86.000,1.500,-37.000,-22.500
0.474,86.500,1.500,-36.500,-23.500
0.475,86.500,1.500,-36.500,-24.000
0.476,86.500,1.000,-36.000,-24.500
0.477,86.500,1.000,-36.000,-25.000
0.478,86.000,1.000,-36.000,-25.000
0.479,85.500,1.000,-36.500,-25.000
0.480,85.000,1.000,-36.500,-24.500
0.481,84.500,1.000,-37.000,-24.000
0.482,84.000,1.000,-37.000,-23.500
0.483,83.000,1.500,-37.000,-23.000
0.484,82.000,1.500,-37.500,-22.000
0.485,81.500,2.000,-37.500,-21.500
0.486,81.500,2.000,-37.500,-21.000
0.487,81.500,2.000,-37.000,-20.500
0.488,81.500,2.000,-37.000,-20.500
0.489,81.500,2.000,-36.500,-21.000
0.490,82.000,1.500,-36.500,-21.000
0.491,82.500,1.000,-36.000,-21.500
0.492,83.000,1.000,-35.500,-22.500
0.493,83.500,0.500,-35.000,-23.000
0.494,84.000,0.000,-35.000,-23.500
0.495,84.500,-0.500,-35.000,-24.000
0.496,84.500,-0.500,-34.500,-24.000
0.497,85.000,-1.000,-34.500,-24.000
0.498,85.000,-1.000,-34.500,-24.000
0.499,84.500,-1.000,-34.500,-23.500
0.500,84.000,-1.000,-35.000,-23.500
0.501,84.000,-0.500,-35.000,-22.500
0.502,83.500,-0.500,-35.500,-22.000
0.503,83.000,0.000,-35.500,-21.500
0.504,82.500,0.500,-35.500,-20.500
0.505,82.000,0.500,-36.000,-20.000
0.506,81.500,0.500,-36.000,-19.500
0.507,81.500,0.500,-35.500,-19.500
0.508,81.500,0.500,-35.500,-19.500
0.509,81.500,0.500,-35.000,-19.500
0.510,81.500,0.000,-34.500,-20.000
0.511,81.500,-0.500,-34.000,-20.500
0.512,82.000,-0.500,-33.500,-21.000
0.513,82.500,-1.000,-33.000,-22.000
0.514,83.000,-1.500,-32.500,-23.000
0.515,83.000,-1.500,-32.500,-23.500
0.516,83.500,-1.500,-32.000,-24.000
0.517,83.500,-1.500,-32.000,-24.500
0.518,83.500,-1.500,-32.000,-24.500
0.519,83.000,-1.500,-32.000,-24.500
0.520,82.500,-1.500,-32.500,-24.500
0.521,81.500,-1.500,-32.500,-24.000
0.522,81.000,-1.000,-33.000,-23.500
0.523,80.000,-1.000,-33.000,-22.500
0.524,79.500,-0.500,-33.000,-22.000
0.525,78.500,-0.500,-33.000,-21.000
0.526,78.000,0.000,-33.000,-20.500
0.527,77.500,0.000,-33.500,-20.500
0.528,77.500,0.000,-33.000,-20.500
0.529,77.500,-0.500,-33.000,-20.500
0.530,77.500,-0.500,-33.000,-21.000
0.531,77.500,-1.000,-32.500,-22.000
0.532,78.000,-1.500,-32.000,-22.500
0.533,78.500,-2.000,-32.000,-23.500
0.534,79.500,-2.500,-31.500,-24.500
0.535,80.000,-2.500,-31.500,-25.000
0.536,80.000,-3.000,-31.500,-25.500
0.537,80.500,-3.000,-31.000,-25.500
0.538,80.000,-3.500,-31.000,-25.500
0.539,80.000,-3.000,-31.500,-25.500
0.540,79.500,-3.000,-31.500,-25.000
0.541,78.500,-3.000,-32.000,-25.000
0.542,78.000,-3.000,-32.500,-24.500
0.543,77.000,-2.500,-33.000,-24.000
0.544,76.000,-2.500,-33.500,-23.500
0.545,75.500,-2.500,-34.000,-22.500
0.546,75.000,-2.500,-34.500,-22.000
0.547,74.500,-3.000,-35.000,-22.000
0.548,74.500,-3.500,-35.000,-22.000
0.549,74.500,-3.500,-35.000,-22.000
0.550,75.000,-4.000,-34.500,-22.000
0.551,75.500,-4.500,-34.500,-22.500
0.552,76.000,-5.000,-34.000,-23.000
0.553,77.000,-5.500,-34.000,-24.000
0.554,77.500,-6.000,-33.500,-24.500
0.555,78.500,-6.500,-33.500,-24.500
0.556,79.000,-6.500,-33.000,-25.000
0.557,79.000,-7.000,-33.000,-25.000
0.558,79.500,-7.000,-33.000,-24.500
0.559,79.000,-7.500,-33.000,-23.500
0.560,78.500,-7.500,-32.500,-22.500
0.561,78.000,-7.500,-32.500,-21.000
0.562,77.000,-7.000,-32.500,-19.500
0.563,76.000,-7.000,-32.500,-18.000
0.564,75.000,-7.000,-32.500,-16.500
0.565,74.000,-7.000,-32.500,-15.500
0.566,73.500,-7.000,-32.500,-14.000
0.567,72.500,-7.000,-32.000,-13.000
0.568,72.000,-7.500,-31.500,-12.000
0.569,72.000,-7.000,-31.000,-11.500
0.570,72.000,-7.000,-30.000,-11.500
0.571,72.000,-6.500,-29.000,-12.000
0.572,72.500,-6.000,-28.500,-13.000
0.573,73.000,-5.000,-27.500,-14.500
0.574,73.500,-4.000,-27.000,-16.000
0.575,74.000,-3.500,-26.000,-17.500
0.576,74.500,-2.500,-25.500,-19.000
0.577,75.000,-2.000,-25.500,-20.000
0.578,75.500,-1.500,-25.000,-20.500
0.579,76.000,-1.000,-25.000,-21.000
0.580,76.000,-0.500,-25.500,-21.000
0.581,75.500,0.000,-25.500,-20.500
0.582,75.000,0.500,-26.000,-20.000
0.583,74.500,0.500,-26.000,-19.500
0.584,74.000,1.000,-26.500,-19.000
0.585,73.500,1.000,-26.500,-18.500
0.586,73.500,1.000,-26.500,-18.000
0.587,73.500,1.000,-26.500,-18.000
0.588,74.000,1.000,-27.000,-18.000
0.589,74.500,1.000,-27.000,-19.000
0.590,75.500,0.500,-27.000,-19.500
0.591,77.000,0.500,-26.500,-21.000
0.592,78.000,-0.500,-26.500,-22.000
0.593,79.500,-1.000,-26.500,-23.000
0.594,80.500,-1.500,-26.500,-24.000
0.595,81.500,-2.000,-26.500,-25.000
0.596,82.500,-2.500,-26.500,-26.000
0.597,83.000,-2.500,-27.000,-26.500
0.598,83.000,-3.000,-27.000,-26.500
0.599,83.500,-3.000,-27.500,-26.500
0.600,83.000,-3.500,-27.500,-26.000
0.601,83.000,-3.500,-28.000,-25.500
0.602,83.000,-3.500,-28.500,-25.000
0.603,82.500,-4.000,-29.000,-24.500
0.604,82.000,-4.000,-30.000,-24.000
0.605,82.000,-4.000,-30.000,-23.500
0.606,82.000,-4.000,-30.500,-23.000
0.607,82.000,-4.500,-30.500,-23.000
0.608,82.000,-4.500,-30.500,-23.000
0.609,82.500,-5.000,-30.500,-23.000
0.610,82.500,-5.500,-30.000,-23.500
0.611,82.500,-5.500,-29.000,-24.000
0.612,83.000,-5.500,-28.500,-25.000
0.613,83.000,-6.000,-28.000,-25.500
0.614,83.500,-6.000,-27.500,-26.000
0.615,83.500,-6.500,-27.000,-26.500
0.616,84.000,-6.500,-27.000,-27.000
0.617,83.500,-6.000,-26.500,-27.000
0.618,83.500,-5.500,-26.000,-26.500
0.619,82.500,-5.000,-25.500,-26.000
0.620,81.500,-4.000,-25.000,-25.500
0.621,80.500,-3.500,-24.500,-24.500
0.622,79.500,-2.500,-24.000,-23.500
0.623,78.500,-1.500,-24.000,-22.500
0.624,77.500,-1.000,-23.500,-21.500
0.625,77.000,-0.500,-23.500,-21.000
0.626,76.500,-0.500,-23.500,-20.500
0.627,76.500,-0.500,-23.500,-20.000
0.628,76.500,-0.500,-23.500,-20.000
0.629,77.000,-0.500,-23.500,-20.000
0.630,77.500,-0.500,-23.000,-20.500
0.631,78.000,-1.000,-23.000,-21.500
0.632,79.000,-1.000,-22.500,-22.000
0.633,79.500,-1.500,-22.500,-23.000
0.634,80.500,-2.000,-22.000,-23.500
0.635,81.000,-2.000,-21.500,-24.000
0.636,81.500,-2.000,-21.500,-24.500
0.637,82.000,-2.000,-21.500,-24.500
0.638,82.000,-2.000,-21.500,-25.000
0.639,82.000,-1.500,-21.500,-24.500
0.640,82.000,-1.500,-21.500,-24.500
0.641,81.500,-1.000,-21.500,-24.000
0.642,81.500,-1.000,-21.500,-23.000
0.643,81.000,-0.500,-21.500,-22.500
0.644,80.500,0.000,-22.000,-22.000
0.645,80.000,0.500,-22.000,-21.500
0.646,79.500,0.500,-22.000,-21.000
0.647,79.000,1.000,-22.000,-20.500
0.648,78.500,1.000,-21.500,-20.500
0.649,78.500,1.000,-21.000,-20.500
0.650,78.500,0.500,-20.500,-21.000
0.651,79.000,0.500,-20.500,-22.000
0.652,79.500,0.000,-20.000,-22.500
0.653,80.000,-0.500,-20.000,-23.500
0.654,81.000,-0.500,-19.500,-24.500
0.655,81.500,-1.000,-19.500,-25.000
0.656,82.500,-1.000,-19.000,-25.500
0.657,83.000,-1.000,-19.000,-26.000
0.658,83.000,-1.500,-19.000,-26.000
0.659,83.000,-1.500,-19.500,-26.000
0.660,83.000,-1.500,-19.500,-25.500
0.661,82.500,-1.000,-19.500,-25.000
0.662,81.500,-1.000,-20.000,-24.500
0.663,81.000,-1.000,-20.000,-23.500
0.664,80.000,-0.500,-20.000,-23.000
0.665,79.500,-0.500,-20.000,-22.500
0.666,79.000,-0.500,-20.000,-22.500
0.667,78.500,-0.500,-20.000,-22.000
0.668,78.500,-0.500,-20.000,-22.500
0.669,78.500,-0.500,-19.500,-22.500
0.670,78.500,-1.000,-19.500,-23.000
0.671,79.500,-1.000,-19.000,-23.500
0.672,80.000,-1.500,-18.500,-24.500
0.673,80.500,-1.500,-18.000,-25.000
0.674,81.000,-2.000,-17.500,-25.500
0.675,81.500,-2.000,-17.500,-26.000
0.676,81.500,-2.000,-17.000,-27.000
0.677,81.500,-2.000,-17.000,-27.000
0.678,81.000,-2.000,-17.500,-27.500
0.679,80.500,-2.000,-17.500,-27.500
0.680,80.000,-2.000,-17.500,-27.000
0.681,79.500,-1.500,-18.000,-26.500
0.682,78.500,-1.500,-18.000,-25.500
0.683,78.000,-1.000,-18.500,-25.000
0.684,77.000,-1.000,-18.500,-24.000
0.685,76.000,-0.500,-18.500,-23.500
0.686,75.000,-0.500,-18.000,-23.000
0.687,74.500,-0.500,-18.000,-22.500
0.688,74.000,-0.500,-17.500,-22.500
0.689,74.000,-0.500,-17.500,-23.000
0.690,74.000,-0.500,-17.000,-23.000
0.691,74.500,-1.000,-16.500,-23.500
0.692,75.000,-1.500,-16.000,-24.500
0.693,75.500,-1.500,-15.500,-25.000
0.694,76.000,-2.000,-15.500,-26.000
0.695,76.500,-2.000,-15.000,-26.500
0.696,77.000,-2.500,-14.500,-26.500
0.697,77.500,-2.500,-14.500,-27.000
0.698,77.500,-2.500,-14.500,-26.500
0.699,77.500,-2.500,-14.500,-26.500
0.700,77.000,-2.500,-14.500,-26.000
0.701,76.500,-2.000,-15.000,-25.500
0.702,76.000,-2.000,-15.000,-25.000
0.703,75.500,-1.500,-15.000,-24.000
0.704,75.000,-1.500,-15.500,-23.500
0.705,74.500,-1.000,-15.500,-22.500
0.706,74.500,-1.000,-15.500,-22.000
0.707,74.000,-1.000,-15.000,-21.500
0.708,74.000,-1.000,-15.000,-21.500
0.709,74.500,-1.000,-14.500,-21.500
0.710,75.000,-1.000,-14.500,-22.000
0.711,75.500,-1.000,-14.000,-22.500
0.712,76.500,-1.500,-13.500,-23.000
0.713,77.500,-1.500,-13.500,-23.500
0.714,78.000,-2.000,-13.000,-24.500
0.715,78.500,-2.000,-12.500,-25.000
0.716,79.000,-2.500,-12.500,-26.000
0.717,79.000,-2.500,-12.500,-26.000
0.718,79.000,-2.500,-12.500,-26.000
0.719,79.000,-2.500,-12.500,-25.500
0.720,79.000,-2.500,-12.500,-25.000
0.721,78.500,-2.000,-13.000,-24.500
0.722,78.000,-1.500,-13.000,-24.000
0.723,77.500,-1.000,-13.000,-23.000
0.724,77.500,-1.000,-13.500,-22.000
0.725,77.500,-0.500,-13.500,-21.500
0.726,77.500,-0.500,-13.500,-21.000
0.727,77.500,-0.500,-13.500,-21.000
0.728,77.500,-1.000,-13.500,-21.000
0.729,78.000,-1.000,-13.000,-21.500
0.730,78.500,-1.500,-13.000,-22.000
0.731,79.000,-2.000,-12.500,-22.500
0.732,79.500,-2.500,-12.000,-23.500
0.733,80.500,-3.000,-12.000,-24.000
0.734,81.500,-3.500,-12.000,-25.000
0.735,82.000,-4.000,-11.500,-25.500
0.736,82.500,-4.000,-11.500,-26.000
0.737,83.000,-4.500,-11.500,-26.500
0.738,83.000,-4.500,-12.000,-26.500
0.739,82.500,-4.500,-12.000,-26.500
0.740,82.000,-4.500,-12.500,-26.500
0.741,81.000,-5.000,-12.500,-26.000
0.742,80.000,-5.000,-13.000,-25.500
0.743,79.000,-5.000,-13.000,-25.000
0.744,78.000,-5.000,-13.500,-24.000
0.745,77.000,-5.000,-13.500,-23.500
0.746,76.500,-5.000,-13.500,-23.000
0.747,76.000,-5.000,-13.500,-23.000
0.748,75.500,-4.500,-13.000,-23.000
0.749,75.500,-5.000,-13.000,-23.000
0.750,76.000,-5.000,-12.500,-23.500
0.751,76.500,-5.000,-12.000,-24.000
0.752,77.000,-5.500,-11.500,-25.000
0.753,77.500,-5.500,-11.500,-25.500
0.754,78.000,-6.000,-11.000,-26.500
0.755,78.500,-6.000,-11.000,-27.000
0.756,78.500,-6.000,-10.500,-27.000
0.757,78.500,-6.000,-10.500,-27.500
0.758,78.500,-6.000,-10.500,-27.000
0.759,78.500,-6.000,-10.500,-27.000
0.760,78.000,-5.500,-10.500,-26.500
0.761,77.500,-5.500,-10.500,-25.500
0.762,77.000,-5.000,-11.000,-25.000
0.763,76.500,-5.000,-11.000,-24.000
0.764,76.000,-5.000,-11.000,-23.500
0.765,76.000,-5.000,-11.500,-23.000
0.766,76.000,-5.000,-11.500,-22.500
0.767,76.000,-5.000,-11.000,-22.500
0.768,76.000,-5.000,-11.000,-22.500
0.769,76.500,-5.500,-10.500,-22.500
0.770,76.500,-5.500,-10.500,-23.000
0.771,77.000,-6.000,-10.000,-23.500
0.772,77.500,-6.500,-9.500,-24.500
0.773,78.000,-6.500,-9.500,-25.000
0.774,78.500,-7.000,-9.000,-26.000
0.775,79.000,-7.000,-9.000,-26.500
0.776,79.500,-7.000,-8.500,-27.000
0.777,80.000,-7.500,-8.500,-27.000
0.778,80.500,-7.500,-8.500,-27.000
0.779,80.500,-7.000,-8.500,-26.500
0.780,80.500,-7.000,-9.000,-26.000
0.781,80.000,-7.000,-9.000,-25.500
0.782,80.000,-6.500,-9.500,-25.000
0.783,79.500,-6.500,-9.500,-24.000
0.784,79.000,-6.000,-9.500,-23.500
0.785,78.500,-6.000,-9.500,-22.500
0.786,78.000,-6.000,-9.500,-22.500
0.787,77.500,-6.000,-9.500,-22.000
0.788,77.000,-6.000,-9.500,-22.000
0.789,77.000,-6.500,-9.000,-22.500
0.790,77.000,-6.500,-9.000,-22.500
0.791,77.500,-6.500,-8.500,-23.000
0.792,78.000,-6.500,-8.000,-23.500
0.793,78.500,-7.000,-8.000,-24.000
0.794,79.000,-7.500,-7.500,-25.000
0.795,79.500,-7.500,-7.000,-25.500
0.796,80.000,-8.000,-7.000,-26.000
0.797,80.500,-8.000,-7.000,-26.500
0.798,80.500,-8.500,-7.000,-27.000
0.799,80.000,-8.500,-7.000,-26.500
0.800,79.500,-8.500,-7.500,-26.500
0.801,79.000,-8.500,-7.500,-26.000
0.802,78.500,-8.500,-8.000,-25.000
0.803,78.000,-8.000,-8.000,-24.500
0.804,77.500,-8.000,-8.500,-23.500
0.805,77.000,-8.000,-8.500,-23.000
0.806,76.500,-8.000,-8.500,-22.500
0.807,76.500,-7.500,-8.000,-22.000
0.808,76.500,-7.500,-8.000,-22.000
0.809,76.500,-7.500,-7.500,-22.500
0.810,77.000,-8.000,-7.000,-22.500
0.811,77.500,-8.000,-6.500,-23.500
0.812,78.500,-8.000,-6.500,-24.000
0.813,80.000,-8.000,-6.000,-25.000
0.814,81.000,-8.000,-5.500,-25.500
0.815,82.000,-8.000,-5.000,-26.000
0.816,82.500,-8.500,-5.000,-26.500
0.817,83.000,-8.500,-5.000,-27.000
0.818,83.000,-8.500,-5.000,-27.000
0.819,83.000,-8.000,-5.500,-27.000
0.820,82.500,-8.000,-5.500,-26.500
0.821,82.000,-8.000,-6.000,-26.000
0.822,81.500,-7.500,-6.000,-25.000
0.823,80.500,-7.000,-6.500,-24.500
0.824,80.000,-7.000,-6.500,-23.500
0.825,80.000,-6.500,-6.500,-23.000
0.826,79.500,-6.500,-6.500,-22.500
0.827,79.500,-6.500,-6.500,-22.500
0.828,79.500,-6.500,-6.500,-22.500
0.829,80.000,-6.500,-6.500,-23.000
0.830,80.000,-6.500,-6.000,-23.500
0.831,80.500,-7.000,-5.500,-24.500
0.832,81.000,-7.000,-5.500,-25.500
0.833,81.500,-7.500,-5.000,-26.000
0.834,82.500,-7.500,-4.500,-27.000
0.835,83.000,-8.000,-4.500,-27.500
0.836,83.500,-8.000,-4.000,-28.000
0.837,84.000,-8.000,-4.000,-28.500
0.838,84.000,-8.000,-3.500,-28.500
0.839,84.500,-8.000,-3.500,-28.500
0.840,84.000,-8.000,-4.000,-28.000
0.841,84.000,-7.500,-4.000,-27.500
0.842,83.500,-7.000,-4.000,-26.500
0.843,83.500,-7.000,-4.500,-25.500
0.844,83.500,-6.500,-4.500,-25.000
0.845,83.000,-6.500,-4.500,-24.000
0.846,83.500,-6.000,-4.500,-23.500
0.847,83.500,-6.000,-4.500,-23.000
0.848,83.500,-6.000,-4.500,-23.000
0.849,84.000,-6.000,-4.000,-23.500
0.850,84.000,-6.000,-3.500,-24.000
0.851,84.500,-6.000,-3.500,-24.500
0.852,85.000,-6.500,-3.000,-25.500
0.853,85.500,-6.500,-2.500,-26.500
0.854,86.000,-7.000,-2.000,-27.000
0.855,86.500,-7.500,-2.000,-28.000
0.856,87.000,-7.500,-1.500,-28.500
0.857,87.500,-8.000,-1.500,-28.500
0.858,87.500,-8.000,-1.500,-28.500
0.859,87.500,-7.500,-1.500,-28.500
0.860,87.000,-7.500,-2.000,-28.000
0.861,86.500,-7.500,-2.000,-27.500
0.862,86.000,-7.000,-2.500,-26.500
0.863,85.000,-6.500,-2.500,-26.000
0.864,84.500,-6.500,-2.500,-25.000
0.865,84.000,-6.000,-2.500,-24.500
0.866,83.000,-6.000,-2.500,-24.000
0.867,83.000,-5.500,-2.000,-23.500
0.868,82.500,-5.500,-2.000,-23.500
0.869,83.000,-5.500,-1.500,-24.000
0.870,83.500,-5.500,-1.500,-24.000
0.871,84.000,-6.000,-1.000,-25.000
0.872,85.000,-6.000,-0.500,-25.500
0.873,85.500,-6.500,-0.500,-26.500
0.874,86.500,-7.000,0.000,-27.500
0.875,87.000,-7.500,0.000,-28.500
0.876,88.000,-8.000,0.000,-29.000
0.877,88.000,-8.500,-0.500,-29.500
0.878,88.500,-8.500,-0.500,-30.000
0.879,88.500,-8.500,-1.000,-30.000
0.880,88.000,-9.000,-1.500,-29.500
0.881,87.500,-9.000,-2.000,-29.000
0.882,87.000,-9.000,-2.000,-28.500
0.883,86.500,-8.500,-2.000,-27.500
0.884,86.000,-8.500,-2.000,-27.000
0.885,85.500,-8.500,-2.000,-26.000
0.886,85.000,-8.000,-2.000,-25.500
0.887,85.000,-8.000,-1.500,-25.000
0.888,85.000,-8.500,-1.000,-25.000
0.889,85.500,-8.500,-1.000,-25.000
0.890,86.000,-9.000,-0.500,-25.000
0.891,87.000,-9.000,0.000,-26.000
0.892,88.000,-9.500,0.500,-26.500
0.893,89.000,-10.000,1.000,-27.000
0.894,89.500,-10.000,1.000,-28.000
0.895,90.500,-10.000,1.500,-28.500
0.896,91.500,-10.500,1.500,-29.000
0.897,92.000,-10.500,1.500,-29.500
0.898,92.000,-10.500,1.500,-29.500
0.899,92.000,-10.500,1.000,-29.500
0.900,92.000,-10.500,1.000,-29.000
0.901,91.500,-10.500,0.500,-28.500
0.902,90.500,-10.500,0.000,-28.000
0.903,90.000,-10.000,-0.500,-27.000
0.904,89.000,-10.000,-0.500,-26.500
0.905,89.000,-10.000,-0.500,-25.500
0.906,88.500,-10.000,-1.000,-25.000
0.907,89.000,-10.000,-1.000,-24.500
0.908,89.500,-10.000,-0.500,-24.500
0.909,90.000,-10.000,-0.500,-24.500
0.910,90.500,-10.000,0.000,-25.000
0.911,91.500,-10.500,0.500,-25.500
0.912,92.000,-10.500,1.000,-26.000
0.913,92.500,-11.000,1.500,-27.000
0.914,93.000,-11.500,1.500,-27.500
0.915,93.500,-11.500,2.000,-28.000
0.916,93.500,-12.000,2.000,-28.500
0.917,93.500,-12.000,2.000,-29.000
0.918,93.500,-12.000,2.000,-29.000
0.919,93.000,-12.000,1.500,-29.000
0.920,92.500,-12.000,1.500,-28.500
0.921,91.500,-12.000,1.000,-28.000
0.922,91.000,-12.000,1.000,-27.500
0.923,90.000,-11.500,1.000,-27.000
0.924,89.500,-11.500,1.000,-26.000
0.925,89.000,-11.500,1.000,-25.500
0.926,88.500,-11.000,1.000,-25.000
0.927,88.000,-11.000,1.000,-24.500
0.928,88.000,-11.000,1.500,-24.500
0.929,88.000,-10.500,1.500,-24.500
0.930,88.500,-11.000,2.000,-25.000
0.931,89.000,-11.000,2.000,-25.500
0.932,89.500,-11.500,2.000,-26.000
0.933,90.000,-11.500,2.000,-27.000
0.934,90.500,-12.000,2.000,-28.000
0.935,91.000,-12.500,2.000,-29.000
0.936,91.500,-12.500,2.000,-29.500
0.937,92.000,-13.000,2.000,-30.000
0.938,92.000,-13.000,1.500,-30.000
0.939,91.500,-13.000,1.500,-30.000
0.940,91.000,-13.000,1.000,-30.000
0.941,91.000,-13.000,0.500,-29.500
0.942,90.500,-12.500,0.000,-29.000
0.943,90.000,-12.500,-0.500,-28.500
0.944,89.500,-12.000,-0.500,-28.000
0.945,89.000,-12.000,-0.500,-27.000
0.946,88.500,-11.500,-0.500,-27.000
0.947,88.500,-11.500,-0.500,-26.500
0.948,88.000,-11.500,-0.500,-26.500
0.949,88.000,-12.000,-0.500,-26.500
0.950,88.000,-12.000,-0.500,-27.000
0.951,88.500,-12.500,0.000,-27.500
0.952,89.000,-13.000,0.000,-28.500
0.953,89.500,-13.500,0.500,-29.500
0.954,90.000,-14.000,0.500,-30.500
0.955,90.000,-14.500,0.500,-31.500
0.956,90.000,-14.500,0.500,-32.000
0.957,90.000,-14.500,0.000,-32.500
0.958,89.500,-15.000,0.000,-33.000
0.959,89.500,-14.500,-0.500,-32.500
0.960,89.000,-14.500,-0.500,-32.500
0.961,88.000,-14.000,-1.000,-32.000
0.962,87.500,-14.000,-1.000,-31.000
0.963,87.000,-13.500,-1.000,-30.000
0.964,86.500,-13.000,-1.000,-29.500
0.965,86.000,-13.000,-1.000,-28.500
0.966,85.500,-13.000,-1.000,-28.000
0.967,85.500,-13.000,-1.000,-28.000
0.968,85.500,-13.000,-1.000,-28.000
0.969,86.000,-13.000,-0.500,-28.000
0.970,86.000,-13.000,0.000,-28.500
0.971,86.500,-13.500,0.500,-29.000
0.972,87.000,-13.500,1.000,-29.500
0.973,87.500,-14.000,1.500,-30.000
0.974,88.000,-14.000,1.500,-31.000
0.975,88.500,-14.500,2.000,-31.500
0.976,89.000,-14.500,2.000,-32.000
0.977,89.500,-15.000,2.000,-32.000
0.978,90.000,-15.000,1.500,-32.500
0.979,90.000,-15.000,1.500,-32.500
0.980,90.000,-15.000,1.000,-32.000
0.981,89.500,-14.500,0.500,-31.500
0.982,89.000,-14.500,0.500,-31.000
0.983,89.000,-14.000,0.000,-30.500
0.984,88.000,-13.500,0.000,-29.500
0.985,87.500,-13.500,0.000,-29.000
0.986,86.500,-13.000,0.000,-28.000
0.987,86.000,-13.000,0.000,-27.500
0.988,85.000,-13.000,0.500,-27.500
0.989,84.500,-13.000,0.500,-27.500
0.990,84.500,-13.000,1.000,-28.000
0.991,84.500,-13.000,1.000,-28.500
0.992,85.000,-13.500,1.500,-29.500
0.993,85.500,-13.500,2.000,-30.500
0.994,86.000,-14.000,2.000,-31.500
0.995,86.500,-14.000,2.000,-32.000
0.996,86.500,-14.500,2.500,-32.500
0.997,87.000,-14.500,2.500,-33.000
0.998,87.000,-14.500,2.000,-33.000
0.999,87.000,-14.500,2.000,-33.000
1.000,87.000,-14.500,1.500,-33.000
1.001,86.500,-14.500,1.500,-32.500
1.002,86.000,-14.500,1.000,-31.500
1.003,85.500,-14.500,1.000,-31.000
1.004,85.000,-14.000,0.500,-30.500
1.005,85.000,-14.000,0.500,-30.000
1.006,84.500,-14.000,0.000,-29.500
1.007,85.000,-14.000,0.000,-29.000
1.008,85.000,-14.000,0.500,-29.000
1.009,85.500,-14.000,0.500,-29.000
1.010,86.500,-14.500,0.500,-29.500
1.011,87.500,-15.000,1.000,-30.000
1.012,88.500,-15.000,1.000,-31.000
1.013,89.500,-15.500,1.500,-32.000
1.014,90.500,-16.000,1.500,-33.000
1.015,91.500,-16.500,1.500,-33.500
1.016,92.000,-17.000,1.500,-34.500
1.017,92.000,-17.500,1.000,-35.000
1.018,92.000,-17.500,1.000,-35.500
1.019,91.500,-17.500,0.500,-35.500
1.020,91.000,-17.500,0.500,-35.500
1.021,90.500,-17.500,0.000,-35.000
1.022,89.500,-17.500,-0.500,-34.000
1.023,88.500,-17.500,-0.500,-33.500
1.024,87.500,-17.000,-0.500,-32.500
1.025,86.500,-17.000,-1.000,-32.000
1.026,86.000,-17.000,-1.000,-31.500
1.027,85.500,-17.000,-1.000,-31.500
1.028,85.000,-17.000,-1.000,-31.500
1.029,85.000,-17.000,-0.500,-31.500
1.030,85.000,-17.500,0.000,-32.000
1.031,85.000,-18.000,0.500,-32.500
1.032,85.500,-18.500,1.000,-33.500
1.033,86.000,-18.500,1.500,-34.500
1.034,86.500,-19.000,1.500,-35.000
1.035,86.500,-19.500,2.000,-35.500
1.036,87.000,-19.500,2.000,-36.000
1.037,87.500,-20.000,2.000,-36.500
1.038,87.500,-20.000,2.000,-36.500
1.039,87.500,-20.000,1.500,-36.500
1.040,87.500,-20.000,1.500,-36.500
1.041,87.000,-20.000,1.000,-36.000
1.042,86.500,-19.500,1.000,-35.000
1.043,86.500,-19.500,0.500,-34.500
1.044,86.000,-19.000,0.500,-33.500
1.045,86.000,-19.000,0.500,-33.000
1.046,86.000,-18.500,0.500,-32.500
1.047,86.000,-18.500,0.500,-32.000
1.048,86.500,-18.500,0.500,-32.000
1.049,87.000,-18.500,1.000,-32.500
1.050,87.500,-19.000,1.000,-33.000
1.051,88.000,-19.500,1.000,-33.500
1.052,89.000,-20.000,1.500,-34.500
1.053,90.000,-20.500,1.500,-35.500
1.054,90.500,-21.000,1.500,-36.500
1.055,91.500,-21.500,1.500,-37.500
1.056,92.000,-22.000,1.500,-38.000
1.057,92.500,-22.000,1.500,-38.500
1.058,93.000,-22.000,1.000,-38.500
1.059,93.000,-22.500,0.500,-38.500
1.060,92.500,-22.500,0.500,-38.500
1.061,92.000,-22.500,-0.500,-38.000
1.062,91.000,-22.000,-0.500,-37.000
1.063,90.500,-22.000,-1.000,-36.500
1.064,89.500,-22.000,-1.000,-36.000
1.065,88.500,-21.500,-1.500,-35.500
1.066,87.500,-21.500,-1.500,-35.500
1.067,87.000,-21.000,-1.000,-35.000
1.068,86.500,-21.000,-1.000,-35.000
1.069,86.500,-21.000,-0.500,-35.500
1.070,86.500,-20.500,0.000,-35.500
1.071,87.000,-20.500,1.000,-36.000
1.072,87.000,-20.000,2.000,-36.000
1.073,87.500,-19.500,3.000,-36.500
1.074,87.500,-19.000,4.000,-37.000
1.075,87.000,-18.500,5.000,-37.000
1.076,87.000,-18.000,6.000,-37.500
1.077,86.500,-18.000,6.500,-37.500
1.078,86.000,-18.000,6.500,-38.000
1.079,85.500,-18.000,6.000,-37.500
1.080,85.000,-18.500,6.000,-37.500
1.081,84.500,-18.500,5.500,-37.000
1.082,84.000,-18.500,5.000,-36.500
1.083,83.500,-18.500,5.000,-35.500
1.084,83.000,-18.500,4.500,-35.000
1.085,82.500,-18.500,4.000,-34.500
1.086,82.000,-19.000,4.000,-34.000
1.087,82.000,-19.000,4.000,-34.000
1.088,81.500,-19.000,4.000,-34.000
1.089,81.500,-19.500,4.000,-34.000
1.090,81.500,-20.000,4.500,-34.500
1.091,82.000,-20.000,4.500,-35.500
1.092,82.500,-20.500,5.000,-36.000
1.093,83.000,-21.000,5.000,-37.000
1.094,83.500,-21.500,5.000,-38.000
1.095,84.500,-21.500,5.000,-39.000
1.096,85.000,-22.000,5.500,-39.500
1.097,85.000,-22.500,5.000,-40.000
1.098,85.000,-23.000,5.000,-40.000
1.099,85.000,-23.000,5.000,-40.000
1.100,84.500,-23.000,4.500,-40.000
1.101,84.000,-23.000,4.000,-39.000
1.102,83.500,-23.000,3.500,-38.500
1.103,83.000,-22.500,3.500,-37.500
1.104,82.500,-22.500,3.000,-37.000
1.105,82.000,-22.000,3.000,-36.500
1.106,82.000,-22.000,3.000,-36.000
1.107,82.000,-22.000,3.000,-35.500
1.108,82.500,-22.000,3.500,-35.500
1.109,83.000,-22.500,3.500,-36.000
1.110,83.500,-22.500,4.000,-36.500
1.111,84.000,-23.000,4.500,-37.000
1.112,84.500,-23.500,5.000,-37.500
1.113,84.500,-24.000,5.500,-38.500
1.114,85.000,-24.000,5.500,-39.500
1.115,85.000,-24.500,6.000,-40.000
1.116,85.000,-24.500,6.000,-40.500
1.117,85.000,-25.000,6.000,-40.500
1.118,85.000,-25.000,5.500,-41.000
1.119,84.500,-25.000,5.000,-40.500
1.120,84.500,-25.000,5.000,-40.500
1.121,84.000,-25.000,4.500,-39.500
1.122,84.000,-24.500,4.000,-39.000
1.123,83.500,-24.500,4.000,-38.000
1.124,83.000,-24.000,3.500,-37.500
1.125,83.000,-24.000,3.500,-36.500
1.126,83.000,-24.000,3.500,-36.000
1.127,82.500,-24.000,3.500,-35.500
1.128,83.000,-24.000,3.500,-35.500
1.129,83.000,-24.000,4.000,-35.500
1.130,83.500,-24.500,4.500,-36.000
1.131,84.500,-24.500,4.500,-36.500
1.132,85.000,-25.000,5.000,-37.000
1.133,85.500,-25.000,5.500,-38.000
1.134,86.000,-25.500,6.000,-39.000
1.135,86.000,-26.000,6.000,-39.500
1.136,86.500,-26.000,6.000,-40.000
1.137,86.500,-26.500,6.500,-40.500
1.138,86.000,-26.500,6.500,-41.000
1.139,85.500,-26.500,6.000,-40.500
1.140,85.000,-26.500,6.000,-40.500
1.141,84.500,-26.000,6.000,-40.000
1.142,83.500,-26.000,5.500,-39.500
1.143,83.000,-26.000,5.500,-38.500
1.144,82.000,-26.000,5.500,-38.000
1.145,81.000,-26.000,5.500,-37.500
1.146,80.500,-26.000,5.500,-37.000
1.147,80.000,-26.000,5.500,-36.500
1.148,80.000,-26.000,5.500,-36.500
1.149,80.500,-26.000,6.000,-36.500
1.150,81.000,-26.000,6.500,-37.000
1.151,81.500,-26.500,6.500,-37.500
1.152,82.000,-27.000,7.000,-38.000
1.153,83.000,-27.000,7.500,-38.500
1.154,83.500,-27.500,7.500,-39.500
1.155,84.000,-28.000,8.000,-40.000
1.156,84.500,-28.000,8.000,-40.500
1.157,84.500,-28.500,8.000,-40.500
1.158,84.500,-28.500,8.000,-40.500
1.159,84.500,-28.000,7.500,-40.000
1.160,84.500,-28.000,7.500,-40.000
1.161,84.000,-27.500,7.000,-39.000
1.162,83.500,-27.500,7.000,-38.500
1.163,83.000,-27.500,6.500,-38.000
1.164,82.500,-27.000,6.500,-37.500
1.165,82.000,-27.000,6.500,-37.000
1.166,82.000,-27.000,6.000,-36.500
1.167,82.000,-27.000,6.000,-36.500
1.168,82.500,-27.000,6.000,-36.500
1.169,82.500,-27.000,6.000,-36.500
1.170,83.000,-27.000,6.500,-37.000
1.171,83.500,-27.500,6.500,-37.500
1.172,84.000,-27.500,7.000,-38.000
1.173,84.500,-27.500,7.000,-38.500
1.174,85.000,-27.500,7.500,-39.500
1.175,85.500,-28.000,7.500,-40.000
1.176,86.000,-28.000,8.000,-40.500
1.177,86.000,-28.000,8.000,-41.000
1.178,86.500,-28.000,8.000,-41.000
1.179,86.500,-28.000,8.000,-41.000
1.180,86.500,-27.500,8.000,-41.000
1.181,86.000,-27.500,7.500,-40.500
1.182,86.000,-27.000,7.500,-39.500
1.183,85.500,-27.000,7.000,-39.000
1.184,85.000,-26.500,7.000,-38.500
1.185,84.500,-26.500,7.000,-37.500
1.186,84.000,-26.000,7.000,-37.000
1.187,84.000,-26.000,7.000,-37.000
1.188,83.500,-25.500,7.000,-36.500
1.189,83.500,-25.500,7.500,-37.000
1.190,84.000,-26.000,7.500,-37.500
1.191,84.000,-26.000,8.000,-38.000
1.192,84.500,-26.000,8.500,-38.500
1.193,85.000,-26.500,8.500,-39.000
1.194,85.500,-26.500,9.000,-39.500
1.195,85.500,-26.500,9.500,-40.000
1.196,86.000,-26.500,9.500,-40.500
1.197,86.000,-26.500,10.000,-40.500
1.198,86.500,-26.500,10.000,-40.500
1.199,86.500,-26.000,10.000,-40.500
1.200,86.500,-26.000,10.000,-40.000
1.201,86.500,-25.500,9.500,-39.500
1.202,86.000,-25.500,9.500,-39.000
1.203,86.000,-25.000,9.500,-38.000
1.204,85.500,-25.000,9.500,-37.000
1.205,85.000,-24.500,9.500,-36.500
1.206,85.000,-24.500,9.500,-36.000
1.207,84.500,-24.000,9.500,-35.500
1.208,84.500,-24.000,9.500,-35.500
1.209,85.000,-24.500,9.500,-35.500
1.210,85.500,-24.500,10.000,-36.000
1.211,86.000,-25.000,10.000,-36.500
1.212,86.500,-25.000,10.500,-37.500
1.213,87.000,-25.500,11.000,-38.000
1.214,87.500,-26.000,11.000,-39.000
1.215,88.000,-26.000,11.500,-39.500
1.216,88.500,-26.000,11.500,-40.000
1.217,88.500,-26.500,11.500,-40.500
1.218,88.500,-26.500,11.500,-40.500
1.219,88.500,-26.500,11.000,-40.500
1.220,88.000,-26.500,11.000,-40.500
1.221,87.500,-26.500,10.500,-40.000
1.222,87.500,-26.500,10.000,-39.500
1.223,87.000,-26.000,10.000,-39.000
1.224,86.500,-26.000,10.000,-38.000
1.225,86.000,-26.000,10.000,-37.500
1.226,85.500,-25.500,10.000,-36.500
1.227,85.500,-25.500,10.000,-36.500
1.228,85.500,-25.500,10.000,-36.500
1.229,85.500,-25.500,10.500,-36.500
1.230,85.500,-25.500,10.500,-37.000
1.231,85.500,-25.500,11.000,-37.500
1.232,86.000,-25.500,11.500,-38.000
1.233,86.500,-26.000,11.500,-39.000
1.234,87.000,-26.000,12.000,-39.500
1.235,87.500,-26.000,12.000,-40.500
1.236,88.000,-26.500,12.500,-40.500
1.237,88.000,-26.500,12.500,-41.000
1.238,88.000,-26.500,12.500,-41.000
1.239,88.000,-26.500,12.500,-40.500
1.240,87.500,-26.000,12.500,-40.000
1.241,87.000,-26.000,12.000,-39.500
1.242,87.000,-25.500,12.000,-39.000
1.243,86.500,-25.000,11.500,-38.000
1.244,86.000,-25.000,11.500,-37.500
1.245,85.500,-24.500,11.000,-37.000
1.246,85.000,-24.500,11.000,-36.500
1.247,84.500,-24.500,11.000,-36.000
1.248,84.000,-24.000,11.500,-36.000
1.249,84.000,-24.000,11.500,-36.000
1.250,84.000,-24.000,12.000,-36.500
1.251,84.000,-24.500,12.000,-37.000
1.252,84.500,-24.500,12.500,-38.000
1.253,85.000,-25.000,13.000,-39.000
1.254,85.500,-25.500,13.000,-39.500
1.255,86.000,-25.500,13.000,-40.500
1.256,86.500,-26.000,13.000,-41.000
1.257,87.000,-26.000,13.000,-41.500
1.258,87.000,-26.500,13.000,-41.500
1.259,86.500,-26.500,13.000,-41.500
1.260,86.500,-26.500,12.500,-41.500
1.261,86.000,-26.000,12.000,-41.000
1.262,85.500,-26.000,12.000,-40.500
1.263,85.000,-26.000,11.500,-40.000
1.264,84.500,-25.500,11.000,-39.500
1.265,84.500,-25.500,11.000,-39.000
1.266,84.000,-25.500,11.000,-38.500
1.267,84.000,-25.500,11.000,-38.500
1.268,84.000,-25.500,11.000,-38.500
1.269,84.000,-25.500,11.000,-39.000
1.270,84.500,-25.500,11.000,-39.500
1.271,84.500,-26.000,11.500,-40.000
1.272,85.000,-26.000,11.500,-40.500
1.273,85.500,-26.500,12.000,-41.500
1.274,86.000,-27.000,12.500,-42.000
1.275,86.500,-27.000,13.000,-43.000
1.276,87.000,-27.500,13.000,-43.000
1.277,87.000,-27.500,13.000,-43.500
1.278,87.500,-27.500,13.000,-43.500
1.279,87.000,-27.500,13.000,-43.500
1.280,87.000,-27.500,12.500,-43.000
1.281,86.500,-27.500,12.000,-42.500
1.282,86.000,-27.500,12.000,-42.000
1.283,85.000,-27.500,11.500,-41.000
1.284,84.500,-27.000,11.500,-40.500
1.285,84.000,-26.500,11.500,-39.500
1.286,83.500,-26.500,11.500,-39.000
1.287,83.000,-26.500,11.500,-38.500
1.288,83.000,-26.500,12.000,-38.500
1.289,83.000,-26.500,12.000,-38.500
1.290,83.000,-27.000,12.500,-39.000
1.291,83.000,-27.000,12.500,-39.500
1.292,83.500,-27.500,13.000,-40.500
1.293,84.000,-28.000,13.000,-41.000
1.294,84.500,-28.500,13.500,-42.000
1.295,85.500,-29.000,13.500,-43.000
1.296,86.000,-29.500,13.500,-43.500
1.297,86.000,-29.500,13.500,-44.000
1.298,86.500,-30.000,13.500,-44.500
1.299,86.000,-30.000,13.000,-44.500
1.300,85.500,-30.000,13.000,-44.000
1.301,85.000,-30.000,12.500,-43.500
1.302,84.000,-29.500,12.500,-43.000
1.303,83.500,-29.500,12.500,-42.000
1.304,82.500,-29.000,12.500,-41.500
1.305,82.000,-29.000,12.500,-40.500
1.306,82.000,-29.000,12.500,-40.000
1.307,82.000,-29.000,12.000,-40.000
1.308,82.000,-29.000,12.000,-40.000
1.309,82.500,-29.500,12.500,-40.000
1.310,83.000,-30.000,12.500,-40.500
1.311,83.500,-30.500,13.000,-41.000
1.312,83.500,-31.000,13.000,-41.500
1.313,84.000,-32.000,13.500,-42.500
1.314,84.500,-32.500,14.000,-43.000
1.315,85.000,-33.000,14.000,-44.000
1.316,85.500,-33.500,14.500,-44.500
1.317,85.500,-34.000,14.500,-44.500
1.318,85.000,-34.000,14.500,-44.500
1.319,85.000,-34.500,14.000,-44.000
1.320,84.500,-34.500,14.000,-43.000
1.321,84.000,-34.500,14.000,-42.000
1.322,83.500,-34.500,14.000,-40.500
1.323,83.000,-34.000,14.500,-39.000
1.324,82.500,-34.000,14.500,-37.500
1.325,81.500,-34.000,15.000,-36.000
1.326,81.000,-34.000,15.500,-34.500
1.327,80.500,-34.000,16.000,-33.000
1.328,80.000,-34.000,16.500,-32.000
1.329,80.000,-34.000,17.500,-31.000
1.330,80.000,-34.000,18.500,-30.500
1.331,80.500,-33.500,19.500,-30.000
1.332,81.000,-33.500,20.500,-30.500
1.333,81.500,-33.500,21.000,-31.500
1.334,82.500,-33.000,22.000,-32.500
1.335,83.500,-32.500,22.500,-34.000
1.336,84.500,-31.500,23.000,-35.000
1.337,85.500,-31.000,23.000,-36.500
1.338,86.000,-30.500,23.500,-37.000
1.339,86.500,-30.000,23.500,-37.500
1.340,86.500,-29.500,23.000,-38.000
1.341,86.500,-29.000,23.000,-37.500
1.342,86.500,-29.000,22.500,-37.500
1.343,86.000,-28.500,22.000,-37.000
1.344,85.500,-28.500,21.500,-36.500
1.345,85.000,-28.500,21.000,-36.000
1.346,85.000,-28.500,21.000,-36.000
1.347,84.500,-28.500,20.500,-36.000
1.348,84.500,-28.500,20.500,-36.500
1.349,84.500,-28.500,20.000,-37.000
1.350,85.000,-29.000,20.000,-37.500
1.351,86.000,-29.500,20.000,-38.500
1.352,87.000,-30.000,20.000,-39.500
1.353,88.000,-30.500,19.500,-41.000
1.354,89.500,-31.000,19.500,-42.000
1.355,90.500,-31.500,19.500,-43.000
1.356,91.000,-32.000,19.500,-43.500
1.357,91.500,-32.500,19.000,-44.000
1.358,92.000,-32.500,19.000,-44.000
1.359,92.500,-33.000,18.500,-44.000
1.360,92.500,-33.000,18.500,-43.500
1.361,92.500,-32.500,18.000,-43.000
1.362,92.000,-32.500,18.000,-42.000
1.363,92.000,-32.000,18.000,-41.500
1.364,91.500,-32.000,17.500,-40.500
1.365,91.000,-32.000,17.500,-40.000
1.366,91.000,-31.500,17.500,-39.000
1.367,90.500,-31.500,17.500,-39.000
1.368,90.500,-32.000,17.500,-39.000
1.369,91.000,-32.000,17.500,-39.000
1.370,91.000,-32.500,17.500,-39.500
1.371,91.500,-32.500,18.000,-40.000
1.372,92.000,-33.000,18.000,-40.500
1.373,92.500,-33.500,18.500,-41.500
1.374,93.000,-34.000,18.500,-42.500
1.375,94.000,-34.500,18.500,-43.000
1.376,94.500,-35.000,18.500,-44.000
1.377,94.500,-35.500,18.500,-44.500
1.378,95.000,-35.500,18.000,-44.500
1.379,95.000,-36.000,18.000,-44.500
1.380,95.000,-36.000,17.500,-44.500
1.381,94.500,-36.000,17.000,-44.000
1.382,94.500,-36.000,17.000,-43.500
1.383,94.000,-36.000,17.000,-42.500
1.384,93.500,-36.000,16.500,-42.000
1.385,93.500,-36.000,16.500,-41.000
1.386,93.500,-36.000,16.500,-40.500
1.387,94.000,-36.000,16.500,-40.500
1.388,94.000,-36.000,16.500,-40.500
1.389,94.500,-36.000,17.000,-40.500
1.390,95.000,-36.000,17.500,-40.500
1.391,95.000,-36.500,18.000,-41.000
1.392,95.500,-36.500,18.500,-41.500
1.393,96.000,-37.000,19.000,-42.500
1.394,96.500,-37.500,19.500,-43.000
1.395,97.000,-37.500,19.500,-43.500
1.396,97.000,-38.000,20.000,-44.000
1.397,97.500,-38.000,20.000,-44.500
1.398,97.500,-38.000,20.000,-45.000
1.399,97.500,-38.000,20.000,-44.500
1.400,97.000,-38.000,20.000,-44.500
1.401,96.500,-38.000,19.500,-44.000
1.402,96.000,-38.000,19.500,-43.000
1.403,95.000,-37.500,19.000,-42.500
1.404,94.000,-37.500,19.000,-41.500
1.405,93.000,-37.000,18.500,-41.000
1.406,92.500,-37.000,18.500,-40.500
1.407,92.000,-37.000,18.500,-40.500
1.408,91.500,-37.000,18.500,-40.000
1.409,91.500,-37.000,18.500,-40.500
1.410,92.000,-37.000,19.000,-40.500
1.411,92.500,-37.000,19.500,-41.000
1.412,93.000,-37.500,20.000,-41.500
1.413,94.000,-37.500,20.500,-42.000
1.414,94.500,-37.500,21.000,-42.500
1.415,95.000,-37.500,21.500,-43.500
1.416,96.000,-37.500,22.000,-43.500
1.417,96.500,-37.500,22.000,-44.000
1.418,96.500,-37.500,22.000,-44.000
1.419,96.500,-37.500,22.000,-44.000
1.420,96.500,-37.500,22.000,-43.500
1.421,96.000,-37.000,21.500,-43.000
1.422,95.500,-37.000,21.500,-42.500
1.423,95.000,-36.500,21.000,-41.500
1.424,94.500,-36.000,21.000,-41.000
1.425,94.000,-35.500,20.500,-40.500
1.426,93.500,-35.500,20.500,-40.000
1.427,93.500,-35.000,20.500,-39.500
1.428,93.000,-35.000,20.500,-39.500
1.429,93.000,-35.000,21.000,-39.500
1.430,93.500,-35.000,21.000,-40.000
1.431,93.500,-35.000,21.500,-40.500
1.432,94.000,-35.000,22.000,-41.000
1.433,94.500,-35.500,22.500,-41.500
1.434,95.500,-35.500,23.000,-42.500
1.435,96.000,-35.500,23.000,-43.000
1.436,96.500,-35.500,23.500,-43.000
1.437,97.000,-35.500,23.500,-43.500
1.438,97.000,-35.500,24.000,-43.500
1.439,97.500,-35.000,24.000,-43.000
1.440,97.000,-35.000,24.000,-42.500
1.441,97.000,-34.500,24.000,-42.000
1.442,96.500,-34.500,24.000,-41.000
1.443,95.500,-34.000,24.000,-40.500
1.444,95.000,-34.000,24.000,-39.500
1.445,94.500,-34.000,24.000,-39.000
1.446,94.000,-34.000,24.000,-38.500
1.447,93.500,-34.000,24.000,-38.500
1.448,93.500,-34.000,24.000,-38.500
1.449,93.500,-34.500,24.000,-39.000
1.450,93.500,-34.500,24.500,-39.500
1.451,94.000,-35.000,24.500,-40.000
1.452,94.500,-35.000,25.000,-40.500
1.453,95.000,-35.500,25.000,-41.500
1.454,96.000,-35.500,25.500,-42.000
1.455,96.500,-35.500,26.000,-43.000
1.456,96.500,-35.500,26.500,-43.000
1.457,97.000,-35.500,26.500,-43.500
1.458,96.500,-36.000,26.500,-43.500
1.459,96.500,-36.000,26.500,-43.500
1.460,95.500,-36.000,26.000,-43.500
1.461,95.000,-36.000,25.500,-43.000
1.462,94.000,-36.000,25.000,-42.000
1.463,93.000,-35.500,25.000,-41.500
1.464,92.000,-35.500,24.500,-40.500
1.465,91.500,-35.500,24.000,-40.000
1.466,90.500,-35.000,24.000,-39.500
1.467,90.000,-35.000,24.000,-39.000
1.468,89.500,-35.000,24.000,-38.500
1.469,89.500,-35.500,24.000,-39.000
1.470,89.500,-35.500,24.000,-39.000
1.471,89.500,-36.000,24.500,-39.500
1.472,90.000,-36.000,24.500,-40.500
1.473,90.500,-36.500,25.000,-41.000
1.474,91.000,-37.000,25.000,-42.000
1.475,91.500,-37.000,25.500,-42.500
1.476,91.500,-37.000,25.500,-43.000
1.477,91.500,-37.000,26.000,-43.000
1.478,91.000,-37.500,25.500,-43.000
1.479,90.500,-37.500,25.500,-43.000
1.480,90.000,-37.000,25.000,-42.500
1.481,89.500,-37.000,25.000,-42.000
1.482,89.000,-37.000,24.500,-41.000
1.483,88.000,-36.500,24.500,-40.000
1.484,87.500,-36.000,24.500,-39.500
1.485,87.000,-36.000,24.500,-38.500
1.486,86.500,-35.500,24.500,-38.000
1.487,86.500,-35.000,24.500,-37.500
1.488,86.500,-35.000,25.000,-37.500
1.489,86.500,-35.000,25.000,-37.500
1.490,86.500,-35.000,25.500,-37.500
1.491,87.000,-35.000,26.000,-38.000
1.492,87.500,-35.000,26.500,-39.000
1.493,88.000,-35.000,27.000,-39.500
1.494,89.000,-35.000,27.500,-40.000
1.495,89.500,-35.500,27.500,-41.000
1.496,90.000,-35.500,28.000,-41.500
1.497,90.000,-35.500,28.000,-42.000
1.498,90.000,-35.500,27.500,-42.000
1.499,90.000,-35.500,27.000,-42.000
1.500,89.500,-35.500,27.000,-41.500
1.501,89.500,-35.000,26.500,-41.000
1.502,89.000,-35.000,26.000,-40.500
1.503,88.500,-35.000,25.500,-40.000
1.504,88.500,-35.000,25.000,-39.500
1.505,88.500,-35.000,24.500,-39.000
1.506,88.500,-35.000,24.000,-39.000
1.507,88.500,-35.000,23.500,-39.000
1.508,89.000,-35.500,23.500,-39.000
1.509,89.500,-36.000,23.500,-39.500
1.510,90.000,-36.500,23.000,-40.000
1.511,90.500,-37.000,23.000,-40.500
1.512,91.000,-37.500,23.000,-41.500
1.513,91.500,-38.000,23.000,-42.500
1.514,92.000,-38.500,23.000,-43.000
1.515,92.500,-39.000,23.000,-44.000
1.516,92.500,-39.000,23.000,-44.500
1.517,92.500,-39.000,23.000,-44.500
1.518,92.000,-39.000,23.000,-44.500
1.519,91.500,-38.500,23.000,-44.500
1.520,91.000,-38.500,23.000,-44.000
1.521,90.000,-38.000,22.500,-43.500
1.522,89.000,-38.000,23.000,-42.500
1.523,88.000,-37.000,23.000,-41.500
1.524,87.000,-36.500,23.500,-40.500
1.525,86.000,-35.500,24.000,-39.000
1.526,85.000,-34.500,24.500,-38.000
1.527,84.000,-34.000,25.500,-37.000
1.528,83.500,-33.000,26.500,-36.500
1.529,83.500,-32.500,27.000,-36.000
1.530,84.000,-32.500,28.000,-35.500
1.531,84.500,-32.500,28.500,-35.500
1.532,85.000,-33.000,29.000,-36.000
1.533,86.000,-33.500,29.500,-36.500
1.534,87.000,-34.000,29.500,-37.000
1.535,88.000,-34.500,30.000,-37.500
1.536,88.500,-35.000,30.000,-38.000
1.537,89.500,-35.000,30.000,-38.500
1.538,90.000,-35.500,29.500,-38.500
1.539,90.500,-35.500,29.500,-38.500
1.540,90.500,-35.500,29.000,-38.500
1.541,90.500,-35.500,28.500,-38.000
1.542,90.500,-35.500,28.500,-37.000
1.543,91.000,-35.500,28.000,-36.500
1.544,91.000,-35.500,27.500,-35.500
1.545,90.500,-35.000,27.500,-34.500
1.546,91.000,-35.000,27.500,-34.000
1.547,91.000,-34.500,27.500,-33.500
1.548,91.000,-34.500,27.500,-33.000
1.549,91.500,-34.500,28.000,-33.000
1.550,92.000,-34.500,28.500,-33.500
1.551,92.500,-34.500,29.000,-34.000
1.552,93.500,-35.000,29.500,-34.500
1.553,94.000,-35.000,30.000,-35.000
1.554,94.500,-35.500,30.500,-36.000
1.555,95.000,-35.500,30.500,-36.500
1.556,95.500,-36.000,30.500,-37.500
1.557,95.500,-36.000,30.500,-38.000
1.558,95.500,-36.000,30.500,-38.000
1.559,95.500,-36.000,30.000,-38.000
1.560,95.000,-36.000,29.500,-37.500
1.561,94.500,-36.000,29.500,-37.000
1.562,94.000,-36.000,29.000,-36.500
1.563,93.000,-35.500,29.000,-35.500
1.564,92.500,-35.500,28.500,-34.500
1.565,92.000,-35.000,28.500,-34.000
1.566,91.500,-35.000,28.000,-33.500
1.567,91.500,-34.500,28.000,-33.000
1.568,91.500,-34.000,28.500,-33.000
1.569,91.500,-34.000,28.500,-33.000
1.570,92.000,-34.000,29.000,-33.000
1.571,92.500,-34.000,29.500,-33.500
1.572,93.000,-34.000,30.000,-34.500
1.573,94.000,-34.000,30.000,-35.000
1.574,94.500,-34.500,30.500,-35.500
1.575,94.500,-34.500,30.500,-36.000
1.576,95.000,-34.500,31.000,-36.500
1.577,95.000,-34.500,31.000,-37.000
1.578,95.000,-34.500,31.000,-37.000
1.579,95.500,-34.500,31.000,-37.000
1.580,95.000,-34.500,31.000,-36.500
1.581,95.000,-34.500,30.500,-36.000
1.582,95.000,-34.500,30.500,-35.500
1.583,95.000,-34.000,30.000,-35.000
1.584,94.500,-33.500,30.000,-34.500
1.585,94.500,-33.000,29.500,-34.000
1.586,94.500,-33.000,29.500,-33.500
1.587,94.500,-32.500,29.000,-33.000
1.588,94.500,-32.500,29.000,-33.000
1.589,95.000,-32.500,29.000,-33.000
1.590,95.500,-33.000,29.000,-33.500
1.591,96.000,-33.000,29.500,-34.000
1.592,97.000,-33.000,29.500,-34.500
1.593,98.000,-33.500,30.000,-35.500
1.594,99.000,-33.500,30.000,-36.000
1.595,100.000,-34.000,30.000,-37.000
1.596,100.500,-34.000,30.000,-37.500
1.597,101.000,-34.500,30.000,-38.000
1.598,101.000,-34.500,30.000,-38.000
1.599,101.000,-34.500,29.500,-38.000
1.600,100.500,-34.500,29.500,-38.000
1.601,100.500,-34.000,29.000,-37.500
1.602,100.000,-34.000,28.500,-37.000
1.603,99.500,-34.000,28.500,-36.500
1.604,99.500,-33.500,28.000,-36.000
1.605,99.000,-33.500,28.000,-35.500
1.606,99.000,-33.500,27.500,-35.000
1.607,99.000,-33.000,27.500,-35.000
1.608,99.500,-33.000,28.000,-34.500
1.609,99.500,-33.000,28.000,-34.500
1.610,100.500,-33.000,28.500,-35.000
1.611,101.000,-33.000,28.500,-35.500
1.612,101.500,-33.500,29.000,-36.000
1.613,102.500,-33.500,29.000,-37.000
1.614,103.000,-34.000,29.000,-38.000
1.615,103.500,-34.500,29.000,-39.000
1.616,104.000,-34.500,29.000,-39.500
1.617,104.500,-35.000,29.000,-40.000
1.618,104.500,-35.000,29.000,-40.000
1.619,104.500,-35.000,28.500,-40.000
1.620,104.500,-35.000,28.000,-39.500
1.621,104.500,-34.500,28.000,-39.000
1.622,104.000,-34.500,27.500,-38.500
1.623,104.000,-34.000,27.500,-37.500
1.624,103.500,-34.000,27.000,-37.000
1.625,103.000,-34.000,27.000,-36.000
1.626,102.500,-34.000,27.000,-35.500
1.627,102.500,-34.000,27.000,-35.000
1.628,102.500,-34.000,27.000,-35.000
1.629,102.500,-34.000,27.500,-35.000
1.630,103.000,-34.000,28.000,-35.500
1.631,104.000,-34.000,28.500,-35.500
1.632,105.000,-34.500,28.500,-36.500
1.633,105.500,-34.500,29.000,-37.000
1.634,106.500,-35.000,29.500,-38.000
1.635,107.500,-35.500,29.500,-39.000
1.636,108.000,-36.000,29.500,-39.500
1.637,108.000,-36.000,29.500,-40.000
1.638,108.000,-36.000,29.500,-40.000
1.639,108.000,-36.000,29.500,-39.500
1.640,107.500,-36.000,29.500,-39.500
1.641,107.000,-36.000,29.000,-39.000
1.642,106.500,-36.000,29.000,-38.000
1.643,106.000,-35.500,29.000,-37.500
1.644,105.500,-35.500,28.500,-37.000
1.645,105.500,-35.500,28.500,-36.500
1.646,105.500,-35.500,28.500,-36.000
1.647,105.500,-35.500,28.500,-35.500
1.648,105.500,-35.500,28.500,-35.500
1.649,106.000,-36.000,28.500,-36.000
1.650,106.500,-36.000,28.500,-36.500
1.651,107.500,-36.500,28.500,-37.000
1.652,108.000,-36.500,29.000,-38.000
1.653,109.000,-37.000,29.000,-39.000
1.654,109.500,-37.000,29.500,-39.500
1.655,110.000,-37.500,29.500,-40.500
1.656,110.500,-37.500,30.000,-41.000
1.657,110.500,-37.500,30.000,-41.000
1.658,110.500,-37.500,30.000,-41.500
1.659,110.000,-37.500,30.000,-41.000
1.660,109.500,-37.500,30.000,-41.000
1.661,108.500,-37.000,29.500,-40.500
1.662,108.000,-37.000,29.500,-39.500
1.663,107.000,-36.500,29.000,-39.000
1.664,106.500,-36.500,29.000,-38.000
1.665,106.000,-36.000,28.500,-37.500
1.666,106.000,-36.000,28.500,-37.000
1.667,105.500,-36.000,28.000,-36.500
1.668,105.500,-36.000,28.000,-36.500
1.669,105.500,-36.000,28.000,-37.000
1.670,106.000,-36.000,28.500,-37.500
1.671,106.500,-36.000,28.500,-38.000
1.672,107.000,-36.500,28.500,-39.000
1.673,108.000,-36.500,29.000,-39.500
1.674,108.500,-37.000,29.000,-40.500
1.675,109.500,-37.500,29.000,-41.500
1.676,110.500,-37.500,29.000,-42.000
1.677,111.000,-37.500,29.000,-42.500
1.678,111.500,-37.500,29.000,-42.500
1.679,112.000,-37.500,29.000,-42.500
1.680,112.000,-37.000,29.000,-42.000
1.681,111.500,-37.000,28.500,-41.500
1.682,111.500,-36.500,28.500,-40.500
1.683,111.000,-36.000,28.000,-39.500
1.684,111.000,-36.000,28.000,-38.500
1.685,110.500,-35.500,28.000,-37.500
1.686,110.500,-35.500,28.000,-37.000
1.687,110.500,-35.500,28.000,-36.500
1.688,110.500,-35.500,28.000,-36.000
1.689,110.500,-35.500,28.500,-36.000
1.690,110.000,-35.500,28.500,-36.500
1.691,110.500,-35.500,29.000,-37.000
1.692,110.500,-35.500,29.500,-37.500
1.693,110.500,-36.000,30.000,-38.000
1.694,111.000,-36.000,30.500,-39.000
1.695,111.500,-36.000,31.000,-39.500
1.696,111.500,-36.000,31.000,-40.000
1.697,111.500,-36.000,31.500,-40.000
1.698,111.500,-35.500,31.500,-40.000
1.699,111.000,-35.500,31.500,-40.000
1.700,110.500,-35.500,31.500,-39.500
1.701,109.500,-35.000,31.000,-39.000
1.702,109.000,-34.500,31.000,-38.000
1.703,108.500,-34.500,30.500,-37.000
1.704,108.000,-34.000,30.500,-36.500
1.705,107.500,-33.500,30.000,-35.500
1.706,107.500,-33.500,30.000,-35.000
1.707,107.500,-33.500,30.000,-35.000
1.708,107.500,-33.500,30.000,-35.000
1.709,108.000,-33.500,30.000,-35.000
1.710,108.000,-34.000,30.000,-35.500
1.711,108.500,-34.000,30.500,-36.000
1.712,109.000,-34.500,30.500,-36.500
1.713,109.500,-34.500,31.000,-37.500
1.714,110.000,-35.000,31.000,-38.000
1.715,110.000,-35.000,31.000,-39.000
1.716,110.000,-35.500,31.000,-39.500
1.717,110.500,-35.500,31.000,-40.000
1.718,110.500,-35.500,31.000,-40.000
1.719,110.000,-35.500,31.000,-40.000
1.720,110.000,-35.000,30.500,-39.500
1.721,109.500,-35.000,30.500,-39.500
1.722,109.000,-35.000,30.000,-38.500
1.723,108.500,-34.500,29.500,-38.000
1.724,108.000,-34.000,29.500,-37.500
1.725,107.500,-34.000,29.000,-36.500
1.726,107.500,-33.500,29.000,-36.000
1.727,107.500,-33.500,29.000,-35.500
1.728,108.000,-33.500,29.500,-35.500
1.729,108.000,-33.500,29.500,-35.500
1.730,108.500,-34.000,30.000,-36.000
1.731,109.000,-34.000,30.500,-36.500
1.732,109.000,-34.500,30.500,-37.000
1.733,109.500,-35.000,31.000,-38.000
1.734,110.000,-35.000,31.000,-38.500
1.735,110.000,-35.500,31.500,-39.000
1.736,110.000,-35.500,31.500,-39.500
1.737,110.000,-36.000,32.000,-39.500
1.738,109.500,-36.000,32.000,-39.500
1.739,109.000,-35.500,32.000,-39.000
1.740,109.000,-35.000,32.000,-38.500
1.741,108.500,-34.500,31.500,-38.000
1.742,107.500,-34.000,31.500,-37.000
1.743,107.000,-33.500,31.500,-36.500
1.744,106.000,-33.000,31.000,-35.500
1.745,105.000,-33.000,31.000,-34.500
1.746,104.500,-32.500,31.000,-34.000
1.747,104.000,-32.500,31.000,-33.500
1.748,103.500,-32.500,31.000,-33.500
1.749,103.000,-32.500,31.500,-33.500
1.750,103.000,-32.500,31.500,-34.000
1.751,103.000,-32.500,32.000,-34.500
1.752,103.000,-32.500,32.000,-35.500
1.753,103.500,-33.000,32.500,-36.500
1.754,103.500,-33.000,32.500,-37.000
1.755,104.000,-33.500,33.000,-38.000
1.756,104.500,-33.500,33.000,-38.500
1.757,104.500,-33.500,33.000,-38.500
1.758,104.500,-33.500,33.000,-38.500
1.759,104.500,-33.500,32.500,-38.500
1.760,104.000,-33.500,32.500,-38.000
1.761,103.000,-33.000,32.000,-37.500
1.762,102.500,-33.000,31.500,-37.000
1.763,101.500,-33.000,31.500,-36.500
1.764,100.500,-32.500,31.000,-36.000
1.765,100.000,-32.500,31.000,-35.000
1.766,99.500,-32.500,31.000,-34.500
1.767,99.500,-32.500,31.000,-34.500
1.768,99.500,-32.500,31.500,-34.500
1.769,99.500,-32.500,31.500,-34.500
1.770,100.000,-32.500,31.500,-35.000
1.771,100.500,-33.000,32.000,-35.500
1.772,101.000,-33.500,32.000,-36.500
1.773,102.000,-33.500,32.500,-37.000
1.774,102.500,-34.000,32.500,-38.000
1.775,103.000,-34.000,33.000,-39.000
1.776,103.500,-34.500,33.000,-39.500
1.777,103.500,-34.500,33.000,-40.000
1.778,103.500,-34.500,33.000,-40.000
1.779,103.000,-34.500,33.000,-40.000
1.780,102.500,-34.500,32.500,-39.500
1.781,102.000,-34.000,32.500,-39.000
1.782,101.500,-34.000,32.000,-38.500
1.783,101.000,-33.500,31.500,-38.000
1.784,100.500,-33.500,31.500,-37.000
1.785,100.500,-33.500,31.000,-36.000
1.786,100.000,-33.000,31.000,-35.500
1.787,100.000,-33.000,31.000,-35.500
1.788,100.500,-33.000,31.500,-35.000
1.789,100.500,-33.500,31.500,-35.500
1.790,101.000,-33.500,32.000,-36.000
1.791,101.500,-33.500,32.000,-36.500
1.792,102.000,-34.000,32.500,-37.500
1.793,102.500,-34.000,33.000,-38.000
1.794,103.000,-34.500,33.000,-39.000
1.795,103.500,-35.000,33.000,-40.000
1.796,104.000,-35.000,33.000,-40.500
1.797,104.500,-35.000,33.000,-41.000
1.798,104.500,-35.000,33.000,-41.000
1.799,105.000,-35.000,33.000,-41.000
1.800,104.500,-35.000,32.500,-40.500
1.801,104.500,-34.500,32.500,-40.000
1.802,103.500,-34.500,32.000,-39.500
1.803,103.000,-34.000,31.500,-38.500
1.804,102.500,-34.000,31.000,-38.000
1.805,102.000,-33.500,31.000,-37.500
1.806,101.500,-33.500,30.500,-37.000
1.807,101.500,-33.500,30.500,-36.500
1.808,102.000,-33.500,30.500,-36.500
1.809,102.000,-34.000,30.500,-36.500
1.810,103.000,-34.000,31.000,-37.000
1.811,103.500,-34.500,31.000,-37.500
1.812,104.500,-34.500,31.500,-38.500
1.813,105.500,-35.000,32.000,-39.000
1.814,106.000,-35.500,32.000,-39.500
1.815,107.000,-35.500,32.500,-40.500
1.816,107.500,-35.500,32.500,-41.000
1.817,108.000,-35.500,32.500,-41.000
1.818,108.500,-35.500,32.500,-41.000
1.819,108.500,-35.500,32.500,-41.000
1.820,109.000,-35.500,32.000,-40.500
1.821,108.500,-35.500,32.000,-40.000
1.822,108.500,-35.000,31.500,-39.500
1.823,108.000,-35.000,31.000,-38.500
1.824,107.500,-35.000,31.000,-38.000
1.825,107.000,-34.500,30.500,-37.500
1.826,107.000,-34.500,30.500,-37.000
1.827,107.000,-34.500,30.500,-36.500
1.828,107.000,-34.000,31.000,-36.500
1.829,107.000,-34.000,31.500,-36.500
1.830,107.500,-34.000,32.000,-36.500
1.831,108.000,-34.000,32.500,-37.000
1.832,108.500,-34.000,33.000,-37.500
1.833,109.500,-34.500,33.000,-38.500
1.834,110.000,-35.000,33.500,-39.500
1.835,111.000,-35.000,33.500,-40.000
1.836,111.500,-35.000,33.500,-40.500
1.837,112.000,-35.500,33.500,-41.000
1.838,112.000,-35.000,33.500,-41.000
1.839,111.500,-35.000,33.500,-41.000
1.840,111.000,-35.000,33.500,-40.500
1.841,110.500,-34.500,33.000,-40.000
1.842,109.500,-34.500,33.000,-39.000
1.843,108.500,-34.000,32.500,-38.000
1.844,107.500,-33.500,32.500,-37.000
1.845,107.000,-33.500,32.500,-36.500
1.846,106.000,-33.000,32.500,-36.000
1.847,105.500,-33.000,32.500,-35.500
1.848,105.000,-33.000,32.500,-35.500
1.849,105.000,-33.000,33.000,-35.500
1.850,105.000,-33.000,33.500,-36.000
1.851,105.500,-33.500,34.000,-36.500
1.852,106.000,-34.000,34.000,-37.000
1.853,106.500,-34.500,34.500,-38.000
1.854,107.500,-34.500,34.500,-38.500
1.855,108.500,-35.000,34.500,-39.500
1.856,109.500,-35.500,34.500,-40.000
1.857,110.000,-35.500,34.500,-40.500
1.858,110.500,-35.500,34.000,-41.000
1.859,110.500,-35.500,34.000,-40.500
1.860,110.000,-35.500,33.500,-40.500
1.861,110.000,-35.000,33.000,-40.000
1.862,109.000,-35.000,33.000,-39.500
1.863,108.500,-34.500,32.500,-38.500
1.864,108.000,-34.500,32.500,-38.000
1.865,107.500,-34.500,32.000,-37.000
1.866,107.000,-34.000,32.000,-36.500
1.867,107.000,-34.000,32.000,-36.000
1.868,107.000,-34.000,32.500,-36.000
1.869,107.000,-34.000,32.500,-36.000
1.870,107.500,-34.000,33.000,-36.000
1.871,108.000,-34.000,33.000,-36.500
1.872,108.000,-34.500,33.500,-37.000
1.873,109.000,-34.500,34.000,-38.000
1.874,109.500,-34.500,34.500,-38.500
1.875,110.000,-35.000,34.500,-39.000
1.876,110.500,-35.000,35.000,-39.500
1.877,110.500,-34.500,35.000,-40.000
1.878,110.500,-34.500,35.000,-39.500
1.879,110.500,-34.000,35.000,-39.500
1.880,110.000,-33.500,35.000,-39.000
1.881,109.500,-33.500,34.500,-38.000
1.882,109.000,-33.000,34.500,-37.500
1.883,108.500,-33.000,34.000,-36.500
1.884,108.000,-33.000,34.000,-36.000
1.885,108.000,-32.500,33.500,-35.000
1.886,107.500,-33.000,33.500,-34.500
1.887,107.500,-33.000,33.000,-34.500
1.888,107.500,-33.000,33.000,-34.500
1.889,107.500,-33.500,33.500,-34.500
1.890,107.500,-33.500,33.500,-34.500
1.891,107.500,-33.500,34.000,-35.500
1.892,107.500,-34.000,34.000,-36.000
1.893,108.000,-34.000,34.500,-37.000
1.894,108.000,-34.000,34.500,-37.500
1.895,108.500,-34.500,35.000,-38.500
1.896,108.500,-34.500,35.000,-39.000
1.897,109.000,-34.500,35.000,-39.500
1.898,109.000,-34.500,35.000,-39.500
1.899,109.000,-34.500,35.000,-39.500
1.900,109.000,-34.500,35.000,-39.000
1.901,109.000,-34.500,34.500,-38.500
1.902,109.000,-34.000,34.500,-37.500
1.903,108.500,-34.000,34.000,-37.000
1.904,108.500,-33.500,33.500,-36.000
1.905,108.000,-33.500,33.500,-35.500
1.906,108.000,-33.000,33.500,-35.000
1.907,107.500,-33.000,33.500,-34.500
1.908,107.500,-32.500,33.500,-34.500
1.909,108.000,-32.500,34.000,-35.000
1.910,108.500,-32.500,34.000,-35.500
1.911,109.000,-32.500,34.500,-36.000
1.912,110.000,-33.000,34.500,-37.000
1.913,110.500,-33.500,35.000,-38.000
1.914,111.500,-33.500,35.000,-39.500
1.915,112.500,-34.000,35.000,-40.500
1.916,113.000,-34.000,35.000,-41.000
1.917,113.500,-34.500,35.000,-41.500
1.918,114.000,-34.500,35.000,-42.000
1.919,114.000,-34.500,35.000,-41.500
1.920,114.000,-34.500,35.000,-41.500
1.921,114.000,-34.500,34.500,-40.500
1.922,113.500,-34.500,34.500,-40.000
1.923,113.500,-34.000,34.000,-39.000
1.924,113.000,-34.000,34.000,-38.500
1.925,113.000,-33.500,33.500,-37.500
1.926,113.000,-33.500,33.500,-37.000
1.927,113.000,-33.500,33.500,-36.500
1.928,113.500,-33.500,33.500,-36.500
1.929,114.000,-33.500,33.500,-36.500
1.930,114.500,-34.000,34.000,-37.000
1.931,115.000,-34.000,34.000,-37.500
1.932,115.500,-34.500,34.500,-38.000
1.933,116.000,-34.500,34.500,-39.000
1.934,116.000,-35.000,35.000,-39.500
1.935,116.500,-35.000,35.000,-40.500
1.936,116.500,-35.500,35.000,-41.000
1.937,116.500,-35.500,35.000,-41.500
1.938,116.500,-35.500,35.000,-41.500
1.939,116.000,-35.500,35.000,-41.500
1.940,115.500,-35.500,34.500,-41.500
1.941,115.000,-35.500,34.500,-41.000
1.942,114.500,-35.500,34.000,-40.500
1.943,113.500,-35.000,33.500,-40.000
1.944,113.000,-35.000,33.500,-39.000
1.945,112.000,-35.000,33.000,-38.500
1.946,111.500,-35.500,32.500,-38.500
1.947,111.000,-35.500,32.500,-38.000
1.948,111.000,-35.500,32.500,-38.000
1.949,111.000,-35.500,33.000,-38.500
1.950,111.000,-36.000,33.000,-39.000
1.951,111.500,-36.000,33.500,-39.500
1.952,112.000,-36.500,33.500,-40.500
1.953,112.500,-36.500,33.500,-41.500
1.954,113.000,-37.000,34.000,-42.000
1.955,113.500,-37.500,34.000,-42.500
1.956,113.500,-37.500,34.000,-43.000
1.957,113.500,-37.500,34.000,-43.500
1.958,113.500,-38.000,34.000,-43.500
1.959,113.500,-38.000,33.500,-43.000
1.960,113.500,-38.000,33.500,-43.000
1.961,113.000,-37.500,33.000,-42.000
1.962,113.000,-37.500,32.500,-41.500
1.963,112.500,-37.500,32.000,-41.000
1.964,112.000,-37.500,31.500,-40.500
1.965,111.500,-37.500,31.000,-40.000
1.966,111.500,-38.000,30.500,-39.500
1.967,111.000,-38.000,30.000,-39.500
1.968,111.000,-38.500,30.000,-39.500
1.969,111.500,-38.500,29.500,-40.000
1.970,112.000,-39.000,29.500,-40.000
1.971,112.500,-39.000,29.500,-40.500
1.972,113.000,-39.000,30.000,-41.000
1.973,113.500,-39.500,30.000,-41.500
1.974,114.000,-39.500,30.500,-42.000
1.975,114.000,-39.500,30.500,-42.500
1.976,114.000,-39.500,31.000,-43.000
1.977,114.000,-39.500,31.000,-43.000
1.978,114.000,-39.500,31.500,-43.000
1.979,113.500,-39.000,31.500,-42.500
1.980,112.500,-38.500,32.000,-42.000
1.981,111.500,-37.500,32.500,-41.000
1.982,110.500,-36.500,33.000,-40.000
1.983,110.000,-35.500,33.500,-38.500
1.984,109.000,-35.000,34.000,-37.500
1.985,108.500,-34.000,34.000,-36.500
1.986,108.000,-34.000,34.000,-36.000
1.987,108.000,-34.000,34.000,-35.500
1.988,108.500,-34.000,34.000,-36.000
1.989,109.000,-34.500,34.000,-36.000
1.990,110.000,-35.000,34.000,-36.500
1.991,111.000,-35.500,34.000,-37.500
1.992,112.000,-36.000,34.000,-38.000
1.993,113.500,-36.500,34.000,-39.000
1.994,114.500,-37.000,34.000,-40.000
1.995,115.500,-37.500,34.000,-41.000
1.996,116.000,-37.500,34.000,-41.500
1.997,116.000,-38.000,33.500,-42.000
1.998,116.000,-38.000,33.500,-42.500
1.999,115.500,-38.000,33.000,-42.500
2.000,115.000,-38.000,32.500,-42.000
2.001,114.000,-38.000,32.500,-41.500
2.002,113.500,-37.500,32.000,-41.000
2.003,112.500,-37.000,31.500,-40.000
2.004,112.000,-37.000,31.000,-39.500
2.005,111.500,-36.500,31.000,-38.500
2.006,111.500,-36.000,31.000,-38.000
2.007,111.500,-35.500,31.000,-37.000
2.008,111.500,-35.500,31.500,-37.000
2.009,111.500,-35.500,31.500,-37.000
2.010,112.000,-35.500,32.000,-37.000
2.011,112.500,-35.500,32.500,-37.500
2.012,113.000,-35.500,33.000,-38.000
2.013,113.500,-35.500,33.500,-39.000
2.014,114.500,-35.500,34.000,-39.500
2.015,115.000,-35.500,34.500,-40.500
2.016,115.500,-36.000,34.500,-41.000
2.017,116.000,-36.000,35.000,-41.500
2.018,116.500,-36.000,35.000,-41.500
2.019,116.500,-36.000,34.500,-41.500
2.020,116.000,-35.500,34.500,-41.000
2.021,116.000,-35.500,34.000,-40.500
2.022,115.500,-35.000,33.500,-40.000
2.023,115.000,-35.000,33.500,-39.000
2.024,114.500,-34.500,33.000,-38.500
2.025,114.000,-34.500,33.000,-37.500
2.026,113.500,-34.000,33.000,-37.000
2.027,113.500,-34.000,33.000,-36.500
2.028,113.000,-34.000,33.000,-36.500
2.029,113.000,-33.500,33.000,-36.500
2.030,113.000,-33.500,33.500,-36.500
2.031,112.500,-33.500,34.000,-37.000
2.032,113.000,-33.500,34.000,-37.500
2.033,113.000,-34.000,34.500,-38.000
2.034,113.500,-34.000,34.500,-39.000
2.035,114.000,-34.000,34.500,-39.500
2.036,114.500,-34.500,34.500,-40.000
2.037,115.000,-34.500,35.000,-40.000
2.038,115.000,-34.000,34.500,-40.000
2.039,115.000,-34.000,34.500,-39.500
2.040,115.000,-33.500,34.500,-39.000
2.041,115.000,-33.000,34.500,-38.500
2.042,114.500,-32.500,34.500,-37.500
2.043,114.000,-32.000,34.500,-36.500
2.044,114.000,-31.500,34.500,-35.500
2.045,113.500,-31.000,34.500,-34.500
2.046,113.500,-31.000,34.500,-34.000
2.047,113.500,-31.000,34.500,-33.500
2.048,114.000,-30.500,34.500,-33.500
2.049,114.500,-30.500,35.000,-33.500
2.050,115.000,-30.500,35.000,-34.000
2.051,115.500,-31.000,35.500,-34.500
2.052,116.000,-31.000,35.500,-35.000
2.053,116.500,-31.000,36.000,-36.000
2.054,117.000,-31.500,36.000,-36.500
2.055,117.000,-31.500,36.000,-37.500
2.056,117.000,-31.500,36.500,-38.000
2.057,117.000,-31.500,36.000,-38.500
2.058,117.000,-31.500,36.000,-38.500
2.059,117.000,-31.500,36.000,-38.500
2.060,116.500,-31.500,35.500,-38.000
2.061,116.000,-31.000,35.500,-37.500
2.062,115.500,-30.500,35.000,-36.500
2.063,115.500,-30.500,34.500,-35.500
2.064,115.000,-30.000,34.500,-34.500
2.065,114.500,-29.500,34.500,-33.500
2.066,114.000,-29.000,34.000,-33.000
2.067,113.500,-29.000,34.000,-32.500
2.068,113.500,-29.000,34.500,-32.500
2.069,113.000,-29.000,34.500,-32.500
2.070,113.000,-29.500,34.500,-32.500
2.071,113.500,-29.500,34.500,-33.000
2.072,113.500,-29.500,35.000,-34.000
2.073,114.000,-30.000,35.500,-34.500
2.074,114.000,-30.000,35.500,-35.500
2.075,114.500,-30.000,36.000,-36.000
2.076,114.500,-30.000,36.000,-36.500
2.077,115.000,-30.000,36.000,-37.000
2.078,115.000,-30.000,36.000,-37.000
2.079,115.500,-30.000,36.000,-37.000
2.080,115.000,-30.000,35.500,-36.500
2.081,115.000,-29.500,35.000,-36.000
2.082,114.000,-29.500,34.500,-35.500
2.083,113.500,-29.000,34.000,-34.500
2.084,112.500,-29.000,33.500,-34.000
2.085,112.000,-29.000,33.000,-33.000
2.086,111.500,-29.000,33.000,-32.500
2.087,111.000,-29.000,32.500,-32.000
2.088,111.000,-29.000,32.500,-31.500
2.089,111.000,-29.000,32.500,-31.500
2.090,111.500,-29.500,33.000,-32.000
2.091,112.000,-30.000,33.000,-32.000
2.092,112.500,-30.500,33.000,-32.500
2.093,113.000,-31.000,33.500,-33.000
2.094,113.500,-31.500,34.000,-33.500
2.095,113.500,-32.000,34.500,-34.000
2.096,113.500,-32.500,34.500,-34.000
2.097,113.500,-33.000,35.000,-33.500
2.098,112.500,-33.000,35.000,-33.000
2.099,112.000,-33.500,35.000,-32.500
2.100,111.000,-33.500,35.000,-31.000
2.101,109.500,-33.500,35.000,-30.000
2.102,108.500,-33.500,35.000,-28.500
2.103,107.000,-33.500,35.000,-26.500
2.104,105.500,-33.500,35.000,-25.000
2.105,104.000,-33.500,35.500,-23.000
2.106,102.500,-33.000,36.000,-22.000
2.107,102.000,-33.000,36.000,-21.500
2.108,101.500,-32.500,36.500,-21.000
2.109,101.500,-32.000,37.000,-21.500
2.110,101.500,-31.500,37.500,-22.500
2.111,102.000,-31.000,38.000,-23.500
2.112,102.500,-30.500,38.500,-25.000
2.113,103.500,-30.000,39.000,-26.500
2.114,104.000,-29.500,39.500,-27.500
2.115,104.500,-29.500,40.000,-29.000
2.116,105.000,-29.000,40.000,-30.000
2.117,105.500,-29.000,40.000,-30.500
2.118,105.500,-29.000,39.500,-31.000
2.119,105.500,-29.000,39.500,-31.000
2.120,105.000,-28.500,39.000,-31.000
2.121,105.000,-28.500,38.500,-31.000
2.122,104.500,-28.500,38.000,-30.500
2.123,104.500,-28.500,37.500,-30.000
2.124,104.000,-28.500,36.500,-29.500
2.125,104.000,-28.500,36.000,-29.000
2.126,103.500,-28.500,35.500,-29.000
2.127,103.500,-28.500,35.000,-29.500
2.128,104.000,-29.000,34.500,-29.500
2.129,104.000,-29.000,34.000,-30.000
2.130,104.500,-29.500,34.000,-31.000
2.131,105.000,-30.000,34.000,-32.000
2.132,105.500,-30.500,34.000,-33.000
2.133,106.000,-31.000,34.000,-34.000
2.134,107.000,-31.500,34.000,-35.000
2.135,107.500,-32.000,34.000,-36.000
2.136,108.000,-32.000,34.000,-36.500
2.137,108.000,-32.500,33.500,-37.000
2.138,108.000,-32.500,33.500,-37.500
2.139,108.000,-33.000,33.500,-37.500
2.140,107.500,-33.000,33.000,-37.000
2.141,106.500,-32.500,32.500,-36.500
2.142,106.000,-32.500,32.000,-36.000
2.143,105.000,-32.500,32.000,-35.000
2.144,104.500,-32.500,31.500,-34.500
2.145,104.000,-32.000,31.000,-34.000
2.146,104.000,-32.000,31.000,-33.500
2.147,103.500,-32.000,31.000,-33.000
2.148,103.500,-32.000,31.000,-33.000
2.149,104.000,-32.500,31.500,-33.000
2.150,104.000,-32.500,31.500,-33.500
2.151,104.500,-33.000,32.000,-34.500
2.152,105.500,-33.500,32.000,-35.500
2.153,106.000,-34.000,32.500,-36.500
2.154,107.000,-34.500,32.500,-37.500
2.155,108.000,-34.500,32.500,-38.000
2.156,108.500,-35.000,32.500,-38.500
2.157,109.000,-35.000,32.500,-39.000
2.158,109.500,-35.000,32.500,-39.000
2.159,109.500,-35.000,32.000,-39.000
2.160,109.000,-35.000,32.000,-39.000
2.161,109.000,-34.500,31.500,-38.500
2.162,108.500,-34.500,31.000,-38.000
2.163,108.000,-34.500,30.500,-37.500
2.164,107.500,-34.000,30.000,-36.500
2.165,107.000,-34.000,30.000,-36.000
2.166,106.500,-34.000,30.000,-35.500
2.167,106.000,-34.000,30.000,-35.000
2.168,106.000,-34.000,30.000,-35.000
2.169,106.000,-33.500,30.500,-35.000
2.170,106.500,-33.500,30.500,-35.500
2.171,107.000,-34.000,31.000,-35.500
2.172,107.500,-34.000,31.500,-36.500
2.173,108.500,-34.000,32.000,-37.000
2.174,109.000,-34.500,32.000,-38.000
2.175,109.500,-34.500,32.500,-38.500
2.176,110.000,-35.000,32.500,-39.000
2.177,110.500,-35.000,32.500,-39.500
2.178,111.000,-35.000,32.500,-39.500
2.179,110.500,-35.000,32.000,-39.500
2.180,110.500,-35.000,32.000,-39.000
2.181,110.000,-35.000,31.500,-39.000
2.182,109.000,-35.000,31.000,-38.500
2.183,108.000,-35.000,30.500,-37.500
2.184,107.500,-34.500,30.500,-37.000
2.185,106.500,-34.500,30.000,-36.500
2.186,106.000,-34.500,29.500,-36.000
2.187,105.500,-34.500,29.000,-36.000
2.188,105.000,-34.500,29.000,-36.000
2.189,105.000,-35.000,29.000,-36.000
2.190,105.000,-35.000,29.500,-36.500
2.191,105.000,-35.000,29.500,-37.000
2.192,105.500,-35.500,30.000,-38.000
2.193,106.000,-35.500,30.000,-38.500
2.194,106.500,-36.000,30.000,-39.500
2.195,107.000,-36.500,30.000,-40.500
2.196,107.000,-36.500,30.000,-41.500
2.197,107.500,-37.000,30.000,-42.000
2.198,107.000,-37.000,30.000,-42.000
2.199,107.000,-37.000,30.000,-42.000
2.200,106.500,-36.500,29.500,-41.500
2.201,105.500,-36.500,29.000,-41.000
2.202,104.500,-36.500,29.000,-40.500
2.203,104.000,-36.000,28.500,-39.500
2.204,103.500,-36.000,28.000,-39.000
2.205,103.000,-35.500,28.000,-38.000
2.206,102.500,-35.000,28.000,-37.500
2.207,102.500,-35.000,28.000,-37.000
2.208,103.000,-35.000,28.000,-37.000
2.209,103.500,-35.000,28.000,-37.500
2.210,104.000,-35.000,28.500,-37.500
2.211,104.500,-35.000,28.500,-38.000
2.212,105.000,-35.500,29.000,-39.000
2.213,105.500,-35.500,29.000,-39.500
2.214,106.000,-36.000,29.500,-40.000
2.215,106.000,-36.500,29.500,-41.000
2.216,106.500,-36.500,30.000,-41.500
2.217,107.000,-36.500,30.000,-41.500
2.218,107.500,-36.500,29.500,-42.000
2.219,107.500,-36.000,29.500,-41.500
2.220,107.500,-36.000,29.000,-41.000
2.221,107.500,-35.500,29.000,-40.500
2.222,107.000,-35.000,28.500,-40.000
2.223,106.500,-34.500,28.500,-39.000
2.224,106.500,-34.500,28.000,-38.000
2.225,106.000,-34.000,28.000,-37.500
2.226,106.500,-33.500,28.000,-37.000
2.227,106.500,-33.500,28.000,-36.500
2.228,107.000,-33.500,28.000,-36.000
2.229,108.000,-33.500,28.000,-36.500
2.230,108.500,-33.500,28.500,-36.500
2.231,109.500,-33.500,29.000,-37.000
2.232,110.500,-34.000,29.000,-38.000
2.233,111.000,-34.000,29.500,-39.000
2.234,112.000,-34.500,30.000,-39.500
2.235,112.500,-35.000,30.000,-40.000
2.236,112.500,-35.000,30.500,-41.000
2.237,113.000,-35.000,30.500,-41.000
2.238,113.000,-35.500,30.500,-41.000
2.239,113.000,-35.500,30.000,-41.000
2.240,112.500,-35.500,29.500,-41.000
2.241,112.000,-35.500,29.000,-40.500
2.242,111.500,-35.000,28.500,-39.500
2.243,110.500,-35.000,28.500,-39.000
2.244,110.000,-34.500,28.000,-38.000
2.245,109.500,-34.500,28.000,-37.500
2.246,109.000,-34.000,28.000,-36.500
2.247,109.000,-34.000,28.000,-36.500
2.248,109.000,-34.000,28.000,-36.000
2.249,109.000,-34.000,28.000,-36.500
2.250,109.500,-34.000,28.500,-36.500
2.251,110.000,-34.000,28.500,-37.000
2.252,110.500,-34.500,29.000,-37.500
2.253,111.500,-35.000,29.500,-38.000
2.254,112.000,-35.000,29.500,-38.500
2.255,113.000,-35.000,30.000,-39.000
2.256,113.500,-35.000,30.500,-39.500
2.257,114.500,-35.000,30.500,-40.000
2.258,115.000,-35.000,30.500,-40.000
2.259,115.000,-35.000,30.500,-39.500
2.260,115.000,-35.000,30.500,-39.000
2.261,114.500,-35.000,30.000,-38.500
2.262,114.000,-34.500,30.000,-38.000
2.263,113.500,-34.500,29.500,-37.000
2.264,113.000,-34.500,29.500,-36.000
2.265,112.000,-34.000,29.500,-35.500
2.266,112.000,-34.000,29.500,-35.000
2.267,111.500,-34.000,29.500,-34.500
2.268,111.500,-34.000,29.500,-34.000
2.269,111.500,-34.000,30.000,-34.000
2.270,112.000,-34.000,30.000,-34.500
2.271,112.500,-34.500,30.500,-34.500
2.272,113.000,-34.500,31.000,-35.500
2.273,113.500,-34.500,31.000,-36.000
2.274,114.000,-35.000,31.500,-36.500
2.275,114.500,-35.000,31.500,-37.500
2.276,115.000,-35.500,31.500,-38.000
2.277,115.500,-35.500,31.000,-38.500
2.278,115.500,-35.500,31.000,-38.500
2.279,115.500,-35.500,30.500,-38.500
2.280,115.500,-35.500,30.500,-38.000
2.281,115.000,-35.500,30.000,-37.500
2.282,114.500,-35.500,29.500,-37.000
2.283,113.500,-35.000,29.500,-36.500
2.284,113.500,-35.000,29.000,-36.000
2.285,113.000,-34.500,28.500,-35.500
2.286,113.000,-34.500,28.500,-35.000
2.287,113.000,-34.500,28.000,-34.500
2.288,113.000,-34.000,28.000,-34.500
2.289,113.500,-34.000,28.500,-34.500
2.290,114.500,-34.500,28.500,-35.000
2.291,115.500,-34.500,29.000,-35.000
2.292,116.500,-34.500,29.500,-36.000
2.293,118.000,-35.000,29.500,-36.500
2.294,119.000,-35.000,30.000,-37.000
2.295,120.500,-35.500,30.000,-37.500
2.296,121.500,-36.000,30.000,-38.000
2.297,122.000,-36.000,30.000,-38.500
2.298,122.500,-36.500,30.000,-38.500
2.299,122.500,-36.500,29.500,-38.000
2.300,122.500,-36.500,29.500,-38.000
2.301,122.000,-36.500,29.000,-37.500
2.302,121.500,-36.000,28.500,-37.000
2.303,121.000,-36.000,28.000,-36.500
2.304,120.500,-36.000,28.000,-35.500
2.305,120.500,-35.500,27.500,-35.000
2.306,120.000,-35.500,27.500,-34.500
2.307,120.000,-35.500,27.500,-34.500
2.308,120.000,-35.500,27.500,-34.500
2.309,120.000,-36.000,27.500,-34.500
2.310,120.500,-36.000,27.500,-34.500
2.311,121.000,-36.500,27.500,-35.000
2.312,121.500,-37.000,28.000,-36.000
2.313,122.500,-37.500,28.000,-36.500
2.314,123.000,-38.000,28.000,-37.000
2.315,124.000,-38.500,28.000,-37.500
2.316,124.500,-38.500,28.000,-38.000
2.317,124.500,-39.000,28.000,-38.500
2.318,124.500,-39.500,27.500,-38.500
2.319,124.500,-39.500,27.500,-38.500
2.320,124.000,-39.500,27.000,-38.500
2.321,123.500,-40.000,26.000,-38.000
2.322,122.500,-40.000,25.500,-37.500
2.323,122.000,-39.500,25.000,-37.000
2.324,121.000,-39.500,24.500,-36.000
2.325,120.500,-39.500,24.500,-35.500
2.326,120.500,-39.500,24.500,-35.000
2.327,120.500,-39.500,24.500,-34.500
2.328,120.500,-39.500,24.500,-34.000
2.329,121.000,-39.500,25.000,-34.000
2.330,121.500,-39.000,25.500,-34.500
2.331,122.000,-39.000,25.500,-35.000
2.332,123.000,-39.000,26.000,-35.500
2.333,123.500,-39.500,26.500,-36.000
2.334,124.500,-39.500,27.000,-36.500
2.335,125.000,-39.500,27.000,-37.500
2.336,125.000,-39.500,27.500,-37.500
2.337,125.000,-39.500,27.500,-38.000
2.338,124.500,-39.500,27.500,-38.000
2.339,124.000,-39.500,27.000,-37.500
2.340,123.000,-39.000,27.000,-37.500
2.341,122.000,-39.000,27.000,-36.500
2.342,121.000,-38.500,26.500,-36.000
2.343,120.000,-38.000,26.500,-35.000
2.344,119.000,-38.000,26.500,-34.500
2.345,118.000,-37.500,26.500,-33.500
2.346,117.000,-37.000,26.500,-33.000
2.347,116.500,-37.000,26.500,-33.000
2.348,116.000,-37.000,26.500,-32.500
2.349,116.000,-37.000,26.500,-33.000
2.350,116.000,-37.000,27.000,-33.500
2.351,116.500,-37.000,27.000,-34.000
2.352,117.000,-37.000,27.500,-34.500
2.353,118.000,-37.500,27.500,-35.000
2.354,118.500,-37.500,27.500,-36.000
2.355,119.500,-37.500,27.500,-37.000
2.356,120.500,-38.000,27.500,-37.500
2.357,121.000,-38.000,27.500,-38.000
2.358,121.500,-38.000,27.500,-38.000
2.359,121.500,-38.000,27.000,-38.000
2.360,121.500,-37.500,27.000,-37.500
2.361,121.000,-37.500,26.500,-37.000
2.362,120.500,-37.000,26.500,-36.000
2.363,120.000,-36.500,26.000,-35.500
2.364,119.500,-36.000,26.000,-34.500
2.365,118.500,-35.500,25.500,-34.000
2.366,118.000,-35.500,25.500,-33.000
2.367,117.000,-35.000,25.500,-32.500
2.368,117.000,-35.000,25.500,-32.500
2.369,116.500,-35.000,25.500,-32.500
2.370,116.500,-35.000,25.500,-33.000
2.371,117.000,-35.000,26.000,-33.500
2.372,117.500,-35.000,26.000,-34.500
2.373,118.500,-35.000,26.000,-35.000
2.374,119.000,-35.000,26.000,-36.000
2.375,119.500,-35.000,26.000,-36.500
2.376,120.000,-35.500,26.000,-37.500
2.377,120.000,-35.500,26.000,-37.500
2.378,120.500,-35.500,25.500,-38.000
2.379,120.000,-35.500,25.500,-38.000
2.380,120.000,-35.500,25.000,-38.000
2.381,119.500,-35.500,24.500,-37.500
2.382,119.500,-35.000,24.000,-37.500
2.383,119.000,-34.500,24.000,-36.500
2.384,118.500,-34.500,23.500,-36.000
2.385,118.000,-34.000,23.500,-35.500
2.386,117.500,-34.000,23.000,-35.000
2.387,117.500,-34.000,23.000,-35.000
2.388,117.500,-34.000,23.000,-35.000
2.389,118.000,-34.500,23.000,-35.000
2.390,118.500,-34.500,23.500,-35.500
2.391,119.000,-34.500,23.500,-36.000
2.392,120.000,-35.000,24.000,-36.500
2.393,120.500,-35.000,24.000,-37.500
2.394,121.500,-35.500,24.500,-38.000
2.395,122.000,-35.500,25.000,-38.500
2.396,122.000,-35.500,25.000,-39.000
2.397,122.500,-35.500,25.000,-39.500
2.398,122.500,-35.500,25.000,-39.500
2.399,122.000,-35.500,25.000,-39.500
2.400,121.500,-35.500,25.000,-39.000
2.401,121.000,-35.500,24.500,-38.500
2.402,120.000,-35.000,24.500,-37.500
2.403,119.500,-35.000,24.000,-37.000
2.404,118.500,-35.000,23.500,-36.000
2.405,118.000,-34.500,23.500,-35.500
2.406,118.000,-34.500,23.000,-35.000
2.407,117.500,-34.500,23.000,-35.000
2.408,117.500,-34.500,23.000,-35.000
2.409,118.000,-34.500,23.500,-35.000
2.410,118.500,-34.500,23.500,-35.500
2.411,119.000,-35.000,24.000,-36.000
2.412,120.000,-35.000,24.500,-36.500
2.413,120.500,-35.500,24.500,-37.000
2.414,121.500,-35.500,24.500,-38.000
2.415,122.000,-36.000,25.000,-38.500
2.416,123.000,-36.500,25.000,-39.500
2.417,123.500,-36.500,25.000,-39.500
2.418,123.500,-37.000,24.500,-40.000
2.419,123.000,-37.000,24.000,-39.500
2.420,123.000,-37.000,24.000,-39.500
2.421,122.500,-37.000,23.500,-39.000
2.422,122.000,-37.000,22.500,-38.500
2.423,121.500,-37.000,22.000,-38.500
2.424,121.500,-37.000,21.500,-38.000
2.425,121.500,-37.500,21.000,-37.500
2.426,121.500,-37.500,20.500,-37.000
2.427,122.000,-37.500,20.500,-37.000
2.428,122.500,-37.500,20.500,-36.500
2.429,122.500,-37.500,20.500,-37.000
2.430,123.500,-37.500,20.500,-37.000
2.431,124.000,-37.500,21.000,-37.500
2.432,125.000,-37.500,21.500,-37.500
2.433,125.500,-37.500,22.000,-38.000
2.434,126.500,-37.500,22.500,-38.500
2.435,127.000,-37.500,22.500,-39.000
2.436,127.500,-37.500,23.000,-39.500
2.437,127.500,-37.000,23.500,-39.500
2.438,127.000,-36.500,23.500,-39.500
2.439,126.500,-36.000,24.000,-39.000
2.440,126.000,-35.000,24.500,-38.500
2.441,125.000,-34.000,24.500,-37.500
2.442,123.500,-33.500,24.500,-36.500
2.443,122.500,-32.500,24.500,-35.500
2.444,121.000,-32.500,24.500,-34.500
2.445,120.500,-32.000,24.500,-33.500
2.446,119.500,-32.000,24.500,-33.000
2.447,119.000,-32.000,24.500,-33.000
2.448,119.000,-32.000,24.500,-33.000
2.449,119.000,-32.000,24.500,-33.000
2.450,119.500,-32.500,24.500,-33.500
2.451,120.000,-32.500,24.500,-34.000
2.452,120.500,-33.000,25.000,-34.500
2.453,121.500,-33.000,25.000,-35.500
2.454,122.000,-33.500,25.500,-36.000
2.455,122.500,-34.000,25.500,-36.500
2.456,122.500,-34.000,25.500,-37.000
2.457,123.000,-34.000,25.500,-37.500
2.458,123.000,-34.000,25.500,-37.500
2.459,122.500,-34.000,25.000,-37.500
2.460,122.500,-33.500,25.000,-37.000
2.461,122.000,-33.500,24.500,-36.500
2.462,121.000,-33.000,24.000,-36.000
2.463,120.500,-33.000,23.500,-35.000
2.464,119.500,-32.500,23.500,-34.500
2.465,119.000,-32.500,23.500,-33.500
2.466,118.500,-32.000,23.500,-33.000
2.467,118.000,-32.000,23.500,-32.500
2.468,117.500,-32.000,24.000,-32.500
2.469,117.500,-31.500,24.000,-32.500
2.470,118.000,-32.000,24.500,-32.500
2.471,118.500,-32.000,24.500,-33.000
2.472,119.000,-32.000,25.000,-33.500
2.473,120.000,-32.500,25.500,-34.500
2.474,120.500,-33.000,25.500,-35.500
2.475,121.500,-33.000,25.500,-36.500
2.476,122.500,-33.500,25.500,-37.000
2.477,123.000,-34.000,25.500,-37.500
2.478,123.500,-34.000,25.000,-37.500
2.479,123.500,-34.000,25.000,-37.500
2.480,123.500,-34.000,24.500,-37.500
2.481,123.000,-34.000,24.000,-37.000
2.482,123.000,-33.500,23.500,-36.500
2.483,122.500,-33.500,23.000,-36.000
2.484,122.500,-33.500,22.500,-35.500
2.485,122.000,-33.000,22.500,-35.000
2.486,121.500,-33.000,22.000,-34.500
2.487,121.000,-33.000,22.000,-34.000
2.488,121.000,-33.000,22.000,-34.000
2.489,120.500,-33.000,22.000,-34.000
2.490,120.500,-33.000,22.500,-34.500
2.491,120.500,-33.000,22.500,-35.000
2.492,121.000,-33.500,23.000,-36.000
2.493,121.500,-33.500,23.000,-36.500
2.494,122.000,-34.000,23.500,-37.500
2.495,122.500,-34.500,23.500,-38.000
2.496,123.000,-34.500,23.500,-39.000
2.497,123.000,-34.500,23.500,-39.500
2.498,123.500,-35.000,23.500,-39.500
2.499,123.500,-35.000,23.000,-39.500
2.500,123.000,-35.000,22.500,-39.500
2.501,122.500,-35.000,22.500,-39.000
2.502,121.500,-35.000,22.000,-38.500
2.503,120.500,-34.500,21.500,-37.500
2.504,119.500,-34.500,21.500,-37.000
2.505,119.000,-34.000,21.000,-36.000
2.506,118.500,-34.000,21.000,-35.500
2.507,118.000,-34.000,21.000,-35.000
2.508,117.500,-34.000,21.000,-35.000
2.509,117.500,-34.000,21.000,-35.000
2.510,118.000,-34.000,21.500,-35.500
2.511,118.500,-34.000,22.000,-36.000
2.512,119.000,-34.500,22.000,-36.500
2.513,119.500,-34.500,22.500,-37.500
2.514,120.500,-35.000,23.000,-38.000
2.515,121.000,-35.500,23.500,-39.000
2.516,121.500,-35.500,23.500,-39.500
2.517,122.000,-35.500,24.000,-40.000
2.518,122.000,-35.500,24.000,-40.000
2.519,122.000,-35.500,24.000,-39.500
2.520,122.000,-35.000,24.000,-39.500
2.521,121.500,-34.500,24.000,-38.500
2.522,121.000,-34.500,23.500,-38.000
2.523,120.500,-34.000,23.500,-37.000
2.524,120.000,-34.000,23.000,-36.500
2.525,119.500,-33.500,23.000,-35.500
2.526,119.500,-33.500,22.500,-35.000
2.527,119.500,-33.500,22.500,-35.000
2.528,119.500,-33.500,22.500,-34.500
2.529,119.500,-33.500,23.000,-34.500
2.530,120.000,-34.000,23.000,-35.000
2.531,120.000,-34.000,23.500,-35.500
2.532,121.000,-34.500,24.000,-36.000
2.533,121.500,-35.000,24.000,-37.000
2.534,122.000,-35.000,24.500,-38.000
2.535,122.000,-35.500,24.500,-38.500
2.536,122.500,-35.500,25.000,-39.000
2.537,122.500,-35.500,25.000,-39.500
2.538,122.500,-35.500,24.500,-39.500
2.539,122.500,-35.500,24.500,-39.500
2.540,122.000,-35.500,24.500,-39.000
2.541,121.500,-35.500,24.000,-38.500
2.542,121.000,-35.500,23.500,-38.000
2.543,121.000,-35.000,23.500,-37.000
2.544,120.500,-35.000,23.000,-36.500
2.545,120.000,-34.500,23.000,-35.500
2.546,119.500,-34.500,23.000,-35.000
2.547,119.500,-34.000,23.000,-34.500
2.548,119.000,-34.000,23.000,-34.500
2.549,119.500,-34.000,23.000,-34.500
2.550,119.500,-34.000,23.500,-34.500
2.551,120.500,-34.000,23.500,-35.000
2.552,121.000,-34.000,24.000,-35.500
2.553,122.000,-34.500,24.000,-36.500
2.554,123.500,-34.500,24.500,-37.000
2.555,124.500,-35.000,24.500,-37.500
2.556,125.000,-35.000,25.000,-38.000
2.557,126.000,-35.000,25.000,-38.500
2.558,126.500,-35.000,25.000,-38.500
2.559,127.000,-35.000,25.000,-38.500
2.560,127.000,-35.000,24.500,-38.000
2.561,127.000,-35.000,24.500,-37.500
2.562,126.500,-35.000,24.000,-36.500
2.563,126.000,-34.500,23.500,-35.500
2.564,125.500,-34.500,23.500,-34.500
2.565,125.000,-34.000,23.000,-33.500
2.566,124.500,-34.000,23.000,-33.000
2.567,124.500,-33.500,23.000,-32.500
2.568,124.500,-33.500,23.000,-32.000
2.569,124.500,-33.000,23.500,-32.000
2.570,124.500,-33.000,23.500,-32.500
2.571,125.000,-33.000,24.000,-32.500
2.572,125.000,-33.000,24.500,-33.000
2.573,125.500,-33.000,24.500,-34.000
2.574,126.500,-33.500,25.000,-34.500
2.575,127.000,-34.000,25.000,-35.500
2.576,127.500,-34.000,25.000,-36.000
2.577,127.500,-34.500,25.000,-36.500
2.578,128.000,-34.500,25.000,-36.500
2.579,128.000,-34.500,24.500,-36.500
2.580,127.500,-34.500,24.500,-36.000
2.581,127.000,-34.500,24.000,-35.500
2.582,126.000,-34.000,24.000,-35.000
2.583,125.000,-33.500,23.500,-34.000
2.584,124.000,-33.500,23.500,-33.000
2.585,123.500,-33.000,23.000,-32.500
2.586,123.000,-32.500,23.500,-31.500
2.587,122.500,-32.000,23.500,-31.500
2.588,122.500,-32.000,23.500,-31.000
2.589,123.000,-31.500,24.000,-31.000
2.590,123.000,-31.500,24.500,-31.500
2.591,123.500,-31.500,25.000,-32.000
2.592,124.000,-32.000,25.500,-32.500
2.593,124.500,-32.000,25.500,-33.000
2.594,125.000,-32.500,26.000,-33.500
2.595,125.500,-32.500,26.000,-34.000
2.596,125.500,-33.000,26.500,-34.500
2.597,125.500,-33.000,26.500,-34.500
2.598,125.500,-33.000,26.000,-34.500
2.599,125.500,-33.000,25.500,-34.500
2.600,125.000,-32.500,25.000,-34.500
2.601,124.000,-32.500,25.000,-34.000
2.602,123.500,-32.500,24.500,-33.000
2.603,122.500,-32.000,24.000,-32.500
2.604,121.500,-31.500,23.500,-31.500
2.605,121.000,-31.500,23.500,-30.500
2.606,120.500,-31.000,23.500,-30.000
2.607,120.500,-31.000,23.500,-29.000
2.608,120.000,-30.500,23.500,-29.000
2.609,120.000,-30.500,24.000,-29.000
2.610,120.500,-30.500,24.500,-29.000
2.611,120.500,-30.500,24.500,-29.500
2.612,121.000,-30.500,25.500,-30.500
2.613,121.500,-30.500,26.000,-31.000
2.614,122.000,-31.000,26.500,-32.000
2.615,122.000,-31.000,27.000,-32.500
2.616,122.500,-31.000,27.500,-33.000
2.617,122.500,-31.000,27.500,-33.500
2.618,122.500,-31.500,27.500,-33.500
2.619,122.000,-31.500,27.500,-33.500
2.620,121.000,-31.500,27.500,-33.500
2.621,120.500,-31.000,27.000,-32.500
2.622,119.500,-31.000,27.000,-32.000
2.623,118.500,-30.500,27.000,-31.000
2.624,118.000,-30.000,27.000,-30.000
2.625,117.500,-29.500,27.000,-29.000
2.626,117.000,-29.500,27.000,-28.500
2.627,116.500,-29.000,27.000,-28.000
2.628,116.000,-29.000,27.500,-28.000
2.629,116.000,-28.500,28.000,-28.000
2.630,116.000,-28.500,28.500,-28.000
2.631,116.000,-28.500,29.000,-28.000
2.632,116.500,-28.500,29.500,-28.500
2.633,116.500,-28.500,30.000,-29.500
2.634,117.000,-28.500,30.500,-30.000
2.635,117.000,-28.500,31.000,-30.500
2.636,117.500,-28.500,31.500,-31.000
2.637,117.500,-28.500,31.500,-31.500
2.638,117.500,-29.000,31.000,-31.500
2.639,117.500,-29.000,31.000,-31.500
2.640,117.000,-29.000,30.500,-31.000
2.641,116.500,-28.500,30.000,-30.500
2.642,116.000,-28.500,30.000,-29.500
2.643,115.000,-28.000,29.500,-29.000
2.644,114.500,-27.500,29.500,-28.000
2.645,114.000,-27.000,29.500,-27.500
2.646,113.500,-26.500,29.500,-26.500
2.647,113.500,-26.000,30.000,-26.000
2.648,113.500,-25.500,30.000,-26.000
2.649,113.500,-25.500,30.500,-26.000
2.650,114.000,-25.000,31.000,-26.000
2.651,114.500,-25.000,31.500,-26.500
2.652,114.500,-25.000,32.000,-27.000
2.653,115.000,-25.500,32.500,-27.500
2.654,115.500,-25.500,33.000,-28.000
2.655,115.500,-26.000,33.000,-29.000
2.656,115.500,-26.000,33.500,-29.000
2.657,116.000,-26.000,33.500,-29.000
2.658,115.500,-26.000,33.500,-29.000
2.659,115.500,-25.500,33.500,-28.500
2.660,115.500,-25.000,33.500,-28.000
2.661,115.000,-25.000,33.000,-27.500
2.662,114.000,-24.500,33.000,-26.500
2.663,113.500,-24.000,33.000,-26.000
2.664,112.500,-23.500,32.500,-25.500
2.665,112.000,-23.500,32.500,-24.500
2.666,111.500,-23.000,32.500,-24.000
2.667,111.000,-22.500,32.500,-23.500
2.668,111.000,-22.500,33.000,-23.500
2.669,111.000,-22.000,33.000,-23.500
2.670,111.000,-22.000,33.500,-23.500
2.671,111.500,-22.000,34.000,-24.000
2.672,112.000,-22.000,34.500,-24.500
2.673,112.500,-22.000,35.000,-25.000
2.674,113.000,-22.000,35.000,-25.500
2.675,114.000,-22.500,35.500,-26.000
2.676,114.500,-22.500,35.500,-27.000
2.677,115.000,-22.500,35.500,-27.500
2.678,115.500,-23.000,35.500,-27.500
2.679,115.500,-23.000,35.000,-28.000
2.680,115.500,-23.000,35.000,-27.500
2.681,115.500,-22.500,34.500,-27.000
2.682,114.500,-22.500,34.500,-26.500
2.683,114.000,-22.500,34.000,-25.500
2.684,113.000,-22.000,33.500,-25.000
2.685,112.500,-22.000,33.500,-24.500
2.686,112.000,-21.500,33.000,-24.000
2.687,112.000,-21.500,33.000,-23.500
2.688,112.000,-21.500,33.500,-23.500
2.689,112.000,-21.500,33.500,-24.000
2.690,112.500,-21.500,34.000,-24.000
2.691,113.500,-21.000,34.500,-24.500
2.692,114.000,-21.000,35.000,-25.000
2.693,114.500,-21.000,35.500,-26.000
2.694,114.500,-21.000,36.000,-26.500
2.695,115.000,-21.500,36.500,-27.500
2.696,115.000,-21.500,36.500,-28.000
2.697,115.500,-21.500,37.000,-28.500
2.698,115.000,-21.500,37.000,-29.000
2.699,115.000,-21.500,37.000,-28.500
2.700,114.500,-21.500,37.000,-28.500
2.701,114.000,-21.000,36.500,-28.000
2.702,113.500,-21.000,36.500,-27.500
2.703,113.000,-20.500,36.000,-26.500
2.704,112.000,-20.500,36.000,-26.000
2.705,111.000,-20.000,35.500,-25.500
2.706,110.500,-20.000,35.500,-25.000
2.707,110.000,-19.500,35.000,-24.500
2.708,109.500,-19.500,35.000,-24.500
2.709,109.500,-19.500,35.000,-24.500
2.710,109.500,-20.000,35.500,-25.000
2.711,109.000,-20.000,35.500,-25.500
2.712,109.500,-20.500,36.000,-26.500
2.713,109.500,-20.500,36.000,-27.500
2.714,109.500,-21.000,36.500,-28.000
2.715,109.500,-21.000,36.500,-29.000
2.716,109.500,-21.500,36.500,-29.500
2.717,109.000,-21.500,36.500,-30.000
2.718,109.000,-21.500,36.000,-30.500
2.719,108.500,-21.500,35.500,-30.500
2.720,108.000,-21.500,35.000,-30.500
2.721,107.500,-21.500,35.000,-30.000
2.722,106.500,-21.500,34.500,-29.500
2.723,106.000,-21.000,34.000,-28.500
2.724,105.500,-21.000,33.500,-28.000
2.725,104.500,-21.000,33.500,-27.000
2.726,104.000,-20.500,33.000,-26.500
2.727,103.500,-21.000,33.000,-26.500
2.728,103.500,-21.000,33.000,-26.000
2.729,103.500,-21.000,33.000,-26.500
2.730,104.000,-21.500,33.000,-26.500
2.731,105.000,-21.500,33.000,-27.000
2.732,105.500,-22.000,33.500,-28.000
2.733,106.500,-22.000,33.500,-28.500
2.734,107.000,-22.000,34.000,-29.500
2.735,107.000,-22.500,34.000,-30.000
2.736,107.500,-22.500,34.000,-30.500
2.737,107.000,-23.000,34.000,-31.000
2.738,107.000,-23.000,33.500,-31.500
2.739,106.500,-23.000,33.500,-31.500
2.740,106.500,-22.500,33.000,-31.000
2.741,105.500,-22.500,33.000,-30.500
2.742,105.000,-22.000,32.500,-30.000
2.743,104.500,-21.500,32.000,-29.500
2.744,104.000,-21.500,32.000,-28.500
2.745,104.000,-21.000,31.500,-28.000
2.746,103.500,-21.000,31.500,-27.000
2.747,103.500,-21.000,31.000,-27.000
2.748,103.500,-20.500,31.000,-26.500
2.749,104.000,-21.000,31.000,-26.500
2.750,104.500,-21.000,31.500,-27.000
2.751,105.000,-21.000,31.500,-27.500
2.752,106.000,-21.500,32.000,-28.000
2.753,106.500,-21.500,32.500,-29.000
2.754,107.500,-22.000,32.500,-30.000
2.755,108.500,-22.500,32.500,-31.000
2.756,109.000,-22.500,33.000,-31.500
2.757,110.000,-23.000,32.500,-32.000
2.758,110.000,-23.000,32.500,-32.500
2.759,110.000,-23.000,32.000,-32.500
2.760,110.000,-23.000,32.000,-32.000
2.761,109.000,-23.000,31.500,-32.000
2.762,108.500,-23.000,31.000,-31.500
2.763,107.500,-23.000,30.500,-30.500
2.764,106.500,-23.000,30.000,-30.000
2.765,106.000,-23.000,30.000,-29.000
2.766,105.000,-23.000,29.500,-28.500
2.767,104.500,-23.000,29.500,-28.000
2.768,104.000,-22.500,30.000,-27.500
2.769,104.000,-22.500,30.000,-27.500
2.770,104.000,-22.500,30.500,-27.500
2.771,104.000,-22.500,30.500,-28.000
2.772,104.500,-22.500,31.000,-28.500
2.773,104.500,-22.500,31.000,-29.000
2.774,105.000,-23.000,31.500,-29.500
2.775,105.000,-23.000,31.500,-30.500
2.776,105.000,-23.500,31.500,-31.000
2.777,104.500,-23.500,31.500,-31.000
2.778,104.000,-24.000,31.000,-31.500
2.779,103.500,-24.000,31.000,-31.000
2.780,103.000,-24.000,30.500,-31.000
2.781,102.000,-23.500,30.500,-30.500
2.782,101.500,-23.500,30.000,-30.000
2.783,101.000,-23.000,30.000,-29.000
2.784,100.500,-23.000,29.500,-28.500
2.785,100.000,-22.500,29.500,-28.000
2.786,99.500,-22.500,29.500,-27.500
2.787,99.000,-22.000,29.500,-27.000
2.788,98.500,-22.500,29.500,-27.000
2.789,98.500,-22.500,29.500,-27.000
2.790,98.500,-22.500,30.000,-27.500
2.791,98.500,-23.000,30.000,-28.000
2.792,99.000,-23.500,30.000,-28.500
2.793,99.000,-23.500,30.500,-29.000
2.794,99.500,-23.500,30.500,-30.000
2.795,99.500,-24.000,30.500,-30.500
2.796,100.000,-24.000,31.000,-31.000
2.797,100.000,-24.000,31.000,-31.500
2.798,100.500,-24.000,31.000,-31.500
2.799,100.000,-24.000,31.000,-31.000
2.800,100.000,-23.500,31.000,-31.000
2.801,99.500,-23.500,31.000,-30.500
2.802,99.000,-23.000,30.500,-29.500
2.803,99.000,-22.500,30.500,-29.000
2.804,98.500,-22.500,30.500,-28.000
2.805,98.000,-22.000,30.500,-27.500
2.806,98.000,-22.000,30.500,-27.000
2.807,97.500,-21.500,30.500,-26.500
2.808,97.500,-21.500,30.500,-26.500
2.809,97.500,-21.500,30.500,-26.500
2.810,98.000,-21.500,31.000,-27.000
2.811,98.500,-21.500,31.500,-27.000
2.812,98.500,-21.500,31.500,-27.500
2.813,99.000,-21.500,32.000,-28.500
2.814,100.000,-22.000,32.500,-29.000
2.815,100.500,-22.000,32.500,-30.000
2.816,100.500,-22.000,33.000,-30.500
2.817,101.000,-22.500,33.000,-31.000
2.818,101.000,-22.500,32.500,-31.500
2.819,101.000,-22.500,32.500,-31.500
2.820,100.500,-22.500,32.000,-31.000
2.821,100.000,-22.000,32.000,-30.500
2.822,99.000,-22.000,32.000,-30.000
2.823,98.000,-21.500,31.500,-29.500
2.824,97.000,-21.500,31.500,-28.500
2.825,96.500,-21.000,31.000,-28.000
2.826,96.000,-21.000,31.000,-27.500
2.827,96.000,-21.000,31.000,-27.500
2.828,96.000,-21.000,31.000,-27.000
2.829,96.500,-21.000,31.500,-27.000
2.830,97.500,-21.000,32.000,-27.500
2.831,98.500,-21.000,32.500,-27.500
2.832,99.500,-21.000,33.000,-28.000
2.833,100.500,-21.000,33.500,-28.500
2.834,101.500,-21.000,34.000,-29.500
2.835,102.000,-21.000,34.500,-30.000
2.836,102.500,-21.000,35.000,-30.500
2.837,102.500,-21.000,35.500,-30.500
2.838,102.500,-21.000,35.500,-30.500
2.839,102.500,-21.000,35.500,-30.500
2.840,102.000,-20.500,35.000,-30.000
2.841,101.500,-20.500,35.000,-29.500
2.842,100.500,-20.500,34.500,-28.500
2.843,99.500,-20.000,34.000,-28.000
2.844,98.500,-20.000,34.000,-27.500
2.845,98.000,-19.500,33.500,-27.000
2.846,97.000,-19.500,33.500,-26.000
2.847,96.500,-19.000,33.500,-25.500
2.848,96.000,-19.000,33.500,-25.500
2.849,96.000,-19.000,34.000,-25.500
2.850,96.000,-19.000,34.000,-25.500
2.851,96.000,-19.000,34.500,-26.000
2.852,96.500,-19.500,35.000,-27.000
2.853,97.000,-19.500,35.000,-27.500
2.854,97.500,-20.000,35.500,-28.500
2.855,98.000,-20.000,36.000,-29.000
2.856,98.500,-20.000,36.500,-30.000
2.857,99.000,-20.000,36.500,-30.000
2.858,99.000,-20.000,36.500,-30.500
2.859,99.000,-20.000,36.000,-30.500
2.860,99.000,-20.000,35.500,-30.000
2.861,98.500,-20.000,35.000,-30.000
2.862,98.000,-20.000,34.500,-29.500
2.863,97.000,-20.000,34.000,-28.500
2.864,96.500,-20.000,33.500,-28.000
2.865,96.000,-19.500,33.500,-27.500
2.866,95.500,-19.500,33.500,-27.000
2.867,95.000,-19.000,33.500,-26.500
2.868,95.000,-19.000,33.500,-26.500
2.869,95.000,-19.000,33.500,-26.500
2.870,95.500,-19.000,33.500,-27.000
2.871,96.000,-19.500,34.000,-27.500
2.872,96.500,-19.500,34.000,-28.000
2.873,97.000,-20.000,34.000,-29.000
2.874,98.000,-20.500,34.000,-29.500
2.875,98.500,-21.000,34.000,-30.500
2.876,99.000,-21.500,34.000,-31.000
2.877,100.000,-22.000,34.000,-31.500
2.878,100.000,-22.000,33.500,-31.500
2.879,100.500,-22.500,33.500,-31.500
2.880,100.000,-22.500,33.000,-31.500
2.881,100.000,-22.500,32.500,-31.000
2.882,99.500,-22.000,32.000,-30.500
2.883,99.000,-22.000,31.500,-29.500
2.884,98.000,-22.000,31.000,-28.500
2.885,97.500,-22.000,30.500,-27.500
2.886,97.000,-22.000,30.000,-27.000
2.887,97.000,-22.000,30.000,-26.500
2.888,97.000,-22.000,29.500,-26.000
2.889,97.000,-22.500,29.500,-26.000
2.890,97.500,-23.000,29.500,-26.000
2.891,98.000,-23.500,30.000,-26.500
2.892,98.500,-23.500,30.000,-27.000
2.893,99.000,-24.000,30.500,-27.500
2.894,99.000,-24.000,31.000,-28.000
2.895,99.000,-24.500,31.500,-28.500
2.896,98.500,-24.500,31.500,-28.500
2.897,98.000,-24.500,32.000,-28.500
2.898,97.000,-25.000,32.000,-28.500
2.899,96.500,-25.000,32.500,-27.500
2.900,95.000,-24.500,33.000,-26.500
2.901,94.000,-24.000,33.500,-25.000
2.902,92.000,-23.500,34.000,-23.000
2.903,90.500,-23.000,34.500,-21.000
2.904,88.500,-22.000,35.000,-19.000
2.905,87.000,-21.500,36.000,-17.500
2.906,85.500,-20.500,37.000,-15.500
2.907,84.500,-20.500,37.500,-14.000
2.908,84.000,-20.000,38.500,-13.500
2.909,83.500,-20.000,39.000,-13.000
2.910,83.500,-19.500,39.500,-13.500
2.911,84.000,-19.500,40.000,-14.500
2.912,84.500,-19.000,40.500,-15.500
2.913,85.500,-18.500,41.000,-17.000
2.914,86.500,-18.000,41.500,-18.500
2.915,87.000,-17.500,42.000,-20.000
2.916,88.000,-17.500,42.500,-21.500
2.917,88.000,-17.000,42.500,-22.000
2.918,88.000,-16.500,43.000,-23.000
2.919,88.000,-16.500,42.500,-23.000
2.920,87.500,-16.000,42.500,-23.000
2.921,87.000,-16.000,42.500,-23.000
2.922,86.500,-16.000,42.000,-22.500
2.923,86.000,-16.000,41.500,-22.000
2.924,85.500,-16.000,40.500,-21.500
2.925,85.000,-16.000,40.000,-21.000
2.926,85.000,-16.000,39.500,-20.500
2.927,85.000,-16.000,38.500,-20.500
2.928,85.500,-16.000,38.500,-21.000
2.929,86.000,-16.500,38.000,-21.500
2.930,87.000,-16.500,38.000,-22.000
2.931,88.000,-17.000,37.500,-23.000
2.932,89.500,-17.500,37.500,-23.500
2.933,90.500,-18.000,37.500,-24.500
2.934,91.500,-18.500,37.500,-25.500
2.935,92.000,-19.000,38.000,-26.000
2.936,92.500,-19.500,38.000,-27.000
2.937,93.000,-20.000,38.000,-27.000
2.938,93.500,-20.500,38.000,-27.500
2.939,93.500,-20.500,37.500,-27.500
2.940,93.500,-20.500,37.500,-27.000
2.941,93.000,-20.500,37.000,-26.500
2.942,93.000,-20.500,37.000,-26.000
2.943,92.500,-20.000,36.500,-25.000
2.944,92.000,-20.000,36.500,-24.500
2.945,92.000,-19.500,36.000,-23.500
2.946,91.500,-19.500,36.000,-23.000
2.947,91.500,-19.000,36.500,-22.500
2.948,91.500,-19.000,36.500,-22.000
2.949,92.000,-19.000,37.000,-22.000
2.950,92.000,-19.000,37.500,-22.500
2.951,92.500,-19.000,37.500,-23.000
2.952,93.000,-19.000,37.500,-23.500
2.953,93.500,-19.500,38.000,-24.500
2.954,94.000,-20.000,38.000,-25.500
2.955,95.000,-20.500,38.000,-26.000
2.956,95.000,-21.000,38.000,-27.000
2.957,95.500,-21.000,38.000,-27.500
2.958,95.500,-21.500,37.500,-28.000
2.959,95.000,-21.500,37.000,-28.000
2.960,94.500,-22.000,36.500,-27.500
2.961,94.000,-22.000,36.000,-27.500
2.962,93.000,-21.500,35.500,-26.500
2.963,92.000,-21.500,35.000,-26.000
2.964,91.500,-21.500,35.000,-25.000
2.965,90.500,-21.500,34.500,-24.500
2.966,90.000,-21.500,34.000,-24.000
2.967,90.000,-21.500,34.000,-23.500
2.968,90.000,-21.500,33.500,-23.000
2.969,90.000,-21.500,34.000,-23.500
2.970,90.500,-21.500,34.000,-23.500
2.971,91.000,-21.500,34.500,-24.000
2.972,91.500,-21.500,34.500,-25.000
2.973,92.500,-22.000,35.000,-25.500
2.974,93.000,-22.000,35.000,-26.500
2.975,94.000,-22.500,35.500,-27.500
2.976,94.500,-22.500,35.000,-28.000
2.977,95.000,-22.500,35.000,-28.500
2.978,95.000,-22.500,35.000,-29.000
2.979,95.000,-22.500,34.500,-29.000
2.980,94.500,-22.000,34.500,-28.500
2.981,94.000,-22.000,34.500,-28.000
2.982,93.000,-21.500,34.000,-27.000
2.983,92.000,-21.000,34.000,-26.000
2.984,91.000,-21.000,33.500,-25.500
2.985,90.000,-20.500,33.000,-24.500
2.986,89.500,-20.500,33.000,-24.000
2.987,88.500,-20.500,33.000,-24.000
2.988,88.500,-20.500,33.000,-24.000
2.989,88.000,-21.000,33.000,-24.000
2.990,88.000,-21.000,33.000,-24.500
2.991,88.500,-21.000,33.500,-25.000
2.992,89.000,-21.500,33.500,-26.000
2.993,89.000,-21.500,34.000,-26.500
2.994,89.500,-22.000,34.500,-27.500
2.995,90.000,-22.000,34.500,-28.000
2.996,90.000,-22.000,35.000,-29.000
2.997,90.500,-22.500,35.000,-29.500
2.998,91.000,-22.500,35.000,-29.500
2.999,91.000,-22.500,34.500,-29.500
3.000,91.000,-22.500,34.000,-29.500
3.001,91.000,-22.000,34.000,-29.000
3.002,91.000,-22.000,33.500,-28.500
3.003,90.500,-22.000,33.500,-27.500
3.004,90.000,-21.500,33.000,-26.500
3.005,89.500,-21.000,33.000,-26.000
3.006,89.000,-21.000,33.000,-25.500
3.007,89.000,-21.000,33.000,-25.000
3.008,89.000,-20.500,33.000,-24.500
3.009,88.500,-20.500,33.000,-24.500
3.010,88.500,-21.000,33.500,-24.500
3.011,88.500,-21.000,33.500,-25.000
3.012,88.500,-21.500,34.000,-26.000
3.013,88.500,-22.000,34.500,-26.500
3.014,89.000,-22.500,34.500,-27.500
3.015,89.000,-22.500,35.000,-28.000
3.016,89.000,-23.000,35.000,-29.000
3.017,89.000,-23.000,35.000,-29.000
3.018,89.000,-23.000,35.000,-29.500
3.019,88.500,-23.500,35.000,-29.500
3.020,88.000,-23.500,35.000,-29.500
3.021,87.000,-23.500,34.500,-29.000
3.022,86.000,-23.000,34.000,-28.500
3.023,85.000,-23.000,33.500,-28.000
3.024,84.000,-23.000,33.000,-27.500
3.025,83.000,-22.500,32.500,-27.000
3.026,82.500,-22.500,32.500,-26.500
3.027,82.000,-22.000,32.000,-26.000
3.028,81.500,-22.000,32.000,-26.000
3.029,81.500,-22.000,32.000,-26.000
3.030,81.500,-22.500,32.000,-26.500
3.031,81.500,-22.500,32.500,-27.000
3.032,82.000,-23.000,32.500,-27.500
3.033,82.500,-23.000,32.500,-28.500
3.034,82.500,-23.500,33.000,-29.500
3.035,83.000,-24.000,33.000,-30.000
3.036,83.000,-24.500,33.000,-31.000
3.037,83.000,-24.500,32.500,-31.500
3.038,82.500,-25.000,32.000,-32.000
3.039,82.000,-25.000,32.000,-32.000
3.040,81.500,-25.000,31.500,-32.000
3.041,80.500,-25.000,31.000,-31.500
3.042,79.500,-24.500,30.500,-30.500
3.043,78.500,-24.500,30.000,-30.000
3.044,78.000,-24.000,30.000,-29.000
3.045,77.500,-23.500,29.500,-28.000
3.046,77.000,-23.500,29.500,-27.500
3.047,77.000,-23.500,29.500,-27.500
3.048,77.000,-23.500,29.500,-27.500
3.049,77.000,-23.500,30.000,-27.500
3.050,77.500,-23.500,30.000,-28.000
3.051,78.000,-23.500,30.500,-28.500
3.052,78.500,-24.000,30.500,-29.000
3.053,79.500,-24.000,31.000,-29.500
3.054,80.000,-24.000,31.000,-30.500
3.055,80.500,-24.500,31.000,-31.000
3.056,81.000,-24.500,31.500,-31.500
3.057,81.500,-24.500,31.500,-32.000
3.058,81.000,-25.000,31.000,-32.000
3.059,81.000,-25.000,31.000,-32.000
3.060,80.500,-25.000,31.000,-31.500
3.061,80.500,-25.000,31.000,-31.000
3.062,80.000,-25.000,30.500,-30.500
3.063,79.000,-24.500,30.500,-29.500
3.064,78.500,-24.500,30.500,-29.000
3.065,78.000,-24.000,30.500,-28.000
3.066,77.500,-23.500,30.500,-27.500
3.067,77.000,-23.500,30.500,-27.000
3.068,77.000,-23.500,30.500,-27.000
3.069,77.500,-23.000,31.000,-27.000
3.070,77.500,-23.000,31.500,-27.000
3.071,78.500,-23.500,32.000,-27.500
3.072,79.000,-23.500,32.500,-28.000
3.073,80.000,-23.500,32.500,-29.000
3.074,80.500,-23.500,33.000,-29.500
3.075,81.500,-24.000,33.000,-30.000
3.076,81.500,-24.000,33.000,-30.500
3.077,81.500,-24.000,33.000,-31.000
3.078,81.500,-24.000,32.500,-31.000
3.079,81.500,-24.000,32.500,-31.000
3.080,81.000,-24.000,32.000,-30.500
3.081,80.500,-24.000,32.000,-30.000
3.082,80.000,-24.000,31.500,-29.500
3.083,79.500,-23.500,31.000,-28.500
3.084,79.000,-23.500,30.500,-28.000
3.085,78.000,-23.500,30.000,-27.500
3.086,77.500,-23.000,30.000,-27.000
3.087,77.000,-23.000,30.000,-26.500
3.088,77.000,-23.000,29.500,-26.500
3.089,76.500,-23.500,29.500,-26.500
3.090,77.000,-23.500,30.000,-27.000
3.091,77.000,-24.000,30.000,-27.500
3.092,78.000,-24.500,30.000,-28.000
3.093,78.500,-25.000,30.000,-29.000
3.094,79.500,-25.500,30.000,-29.500
3.095,80.000,-25.500,30.000,-30.500
3.096,80.500,-26.000,30.000,-31.000
3.097,81.500,-26.000,30.000,-32.000
3.098,82.000,-26.000,30.000,-32.000
3.099,82.000,-26.000,29.500,-32.000
3.100,82.500,-26.000,29.000,-32.000
3.101,82.500,-26.000,29.000,-31.500
3.102,82.000,-25.500,28.500,-31.000
3.103,81.500,-25.500,28.000,-30.000
3.104,81.000,-25.000,27.500,-29.500
3.105,80.500,-25.000,27.000,-29.000
3.106,80.000,-25.000,27.000,-28.500
3.107,79.500,-24.500,26.500,-28.000
3.108,79.500,-25.000,26.500,-28.000
3.109,79.500,-25.000,26.500,-28.000
3.110,79.500,-25.000,26.500,-28.000
3.111,79.500,-25.000,27.000,-28.500
3.112,80.000,-25.000,27.000,-29.000
3.113,80.500,-25.500,27.500,-29.500
3.114,81.000,-25.500,27.500,-30.000
3.115,81.500,-25.500,28.000,-30.500
3.116,81.500,-26.000,28.000,-31.000
3.117,81.500,-26.000,28.000,-31.500
3.118,81.500,-26.500,28.000,-31.500
3.119,81.000,-26.500,27.500,-31.500
3.120,80.500,-26.500,27.500,-31.500
3.121,80.000,-26.500,27.000,-31.000
3.122,79.000,-26.500,26.500,-30.500
3.123,78.000,-26.500,26.500,-30.000
3.124,77.000,-26.500,26.000,-29.000
3.125,76.000,-26.500,26.000,-28.500
3.126,75.000,-26.500,25.500,-28.000
3.127,74.500,-26.500,25.500,-27.500
3.128,74.000,-26.500,25.500,-27.000
3.129,74.000,-26.500,25.500,-27.000
3.130,74.000,-26.500,26.000,-27.000
3.131,74.500,-27.000,26.000,-27.500
3.132,75.000,-27.000,26.500,-28.000
3.133,76.000,-27.000,26.500,-28.000
3.134,77.000,-27.000,27.000,-28.500
3.135,78.000,-27.500,27.000,-29.000
3.136,79.000,-27.500,27.500,-29.500
3.137,80.000,-27.000,27.500,-29.500
3.138,80.500,-27.000,27.500,-30.000
3.139,80.500,-27.000,27.000,-29.500
3.140,81.000,-27.000,27.000,-29.000
3.141,80.500,-26.500,26.500,-28.500
3.142,80.500,-26.500,26.500,-28.000
3.143,80.000,-26.000,26.000,-27.000
3.144,80.000,-26.000,26.000,-26.500
3.145,79.500,-25.500,25.500,-25.500
3.146,79.000,-25.500,25.500,-25.000
3.147,79.000,-25.500,25.500,-24.500
3.148,79.000,-25.000,25.500,-24.500
3.149,79.500,-25.000,25.500,-24.500
3.150,79.500,-25.000,26.000,-25.000
3.151,80.000,-25.000,26.000,-25.500
3.152,80.500,-25.500,26.500,-26.500
3.153,81.000,-25.500,26.500,-27.500
3.154,81.500,-26.000,27.000,-28.500
3.155,82.500,-26.000,27.500,-29.000
3.156,83.000,-26.000,27.500,-29.500
3.157,83.500,-26.000,27.500,-30.000
3.158,84.000,-26.000,27.500,-30.000
3.159,84.000,-25.500,27.500,-30.000
3.160,83.500,-25.500,27.000,-30.000
3.161,83.000,-25.000,26.500,-29.500
3.162,82.000,-25.000,26.500,-29.000
3.163,81.500,-24.500,26.000,-28.000
3.164,81.000,-24.500,25.500,-27.500
3.165,80.500,-24.500,25.500,-27.000
3.166,80.000,-24.000,25.000,-26.500
3.167,80.000,-24.000,25.000,-26.000
3.168,80.000,-24.000,25.000,-25.500
3.169,80.000,-24.000,25.000,-25.500
3.170,80.500,-24.000,25.000,-26.000
3.171,80.500,-24.000,25.000,-26.500
3.172,81.000,-24.500,25.500,-27.000
3.173,81.500,-24.500,25.500,-28.000
3.174,82.000,-24.500,26.000,-29.000
3.175,83.000,-25.000,26.000,-30.000
3.176,83.500,-25.000,26.000,-31.000
3.177,83.500,-25.000,26.000,-31.500
3.178,84.000,-25.000,26.000,-31.500
3.179,83.500,-25.000,25.500,-32.000
3.180,83.500,-25.000,25.000,-31.500
3.181,83.000,-25.000,24.500,-31.500
3.182,82.500,-24.500,24.000,-31.000
3.183,81.500,-24.500,23.500,-30.500
3.184,81.000,-24.000,23.000,-30.000
3.185,80.500,-24.000,23.000,-29.500
3.186,80.000,-24.000,22.500,-29.000
3.187,79.500,-23.500,22.500,-29.000
3.188,79.500,-23.500,22.500,-29.000
3.189,79.500,-24.000,22.500,-29.000
3.190,80.000,-24.000,22.500,-30.000
3.191,80.500,-24.000,23.000,-30.500
3.192,81.000,-24.500,23.000,-31.500
3.193,81.500,-24.500,23.500,-32.500
3.194,82.000,-24.500,23.500,-33.500
3.195,82.500,-25.000,23.500,-34.500
3.196,82.500,-25.500,23.500,-35.500
3.197,82.500,-25.500,23.500,-36.000
3.198,82.500,-25.500,23.500,-36.500
3.199,82.000,-25.500,23.000,-36.500
3.200,81.500,-25.500,22.500,-36.500
3.201,81.000,-25.500,22.000,-36.500
3.202,80.000,-25.000,22.000,-35.500
3.203,79.500,-25.000,21.500,-35.000
3.204,78.500,-24.500,21.500,-34.000
3.205,78.000,-24.000,21.500,-33.000
3.206,77.000,-24.000,21.000,-32.500
3.207,76.500,-24.000,21.000,-32.000
3.208,76.500,-24.000,21.500,-32.000
3.209,76.500,-24.000,21.500,-32.000
3.210,76.500,-24.000,22.000,-32.000
3.211,77.000,-24.500,22.500,-33.000
3.212,77.500,-24.500,22.500,-33.500
3.213,78.000,-25.000,23.000,-34.500
3.214,79.000,-25.500,23.000,-35.500
3.215,80.000,-25.500,23.000,-36.500
3.216,80.500,-26.000,23.000,-37.000
3.217,81.000,-26.000,22.500,-37.500
3.218,81.000,-26.500,22.500,-38.000
3.219,81.000,-26.500,22.000,-38.000
3.220,80.500,-27.000,22.000,-37.500
3.221,80.000,-27.000,21.500,-37.000
3.222,79.500,-27.000,21.000,-36.500
3.223,78.500,-27.000,20.500,-36.000
3.224,77.500,-27.000,20.000,-35.500
3.225,76.500,-27.000,19.500,-35.000
3.226,75.500,-27.000,19.000,-34.500
3.227,75.000,-27.000,19.000,-34.000
3.228,74.500,-27.000,19.000,-34.000
3.229,74.500,-27.000,19.500,-34.000
3.230,74.500,-27.000,20.000,-34.500
3.231,75.000,-27.500,20.000,-35.000
3.232,75.500,-27.500,20.500,-35.500
3.233,76.000,-28.000,21.000,-36.500
3.234,76.500,-28.500,21.000,-37.000
3.235,77.500,-28.500,21.000,-38.000
3.236,78.000,-29.000,21.000,-38.500
3.237,78.500,-29.000,21.000,-39.000
3.238,79.000,-29.000,21.000,-39.500
3.239,79.000,-29.000,20.500,-39.500
3.240,79.000,-29.000,20.500,-39.500
3.241,78.500,-29.000,19.500,-39.500
3.242,78.000,-29.000,19.000,-39.000
3.243,77.500,-29.000,18.500,-38.500
3.244,77.000,-29.000,18.000,-38.000
3.245,76.500,-29.000,18.000,-37.500
3.246,76.000,-28.500,17.500,-37.000
3.247,76.000,-28.500,17.500,-37.000
3.248,75.500,-28.500,18.000,-37.000
3.249,75.500,-28.500,18.000,-37.000
3.250,75.500,-29.000,18.500,-37.000
3.251,75.500,-29.000,18.500,-37.500
3.252,75.500,-29.500,19.000,-38.000
3.253,75.500,-29.500,19.000,-39.000
3.254,76.000,-30.000,19.500,-40.000
3.255,76.000,-30.500,19.500,-40.500
3.256,76.000,-31.000,19.500,-41.500
3.257,76.000,-31.000,20.000,-41.500
3.258,76.000,-31.000,20.000,-42.000
3.259,76.000,-31.000,20.000,-42.000
3.260,76.000,-31.000,19.500,-41.500
3.261,75.500,-30.500,19.500,-41.000
3.262,75.000,-30.500,19.000,-40.500
3.263,74.500,-30.000,18.500,-39.500
3.264,74.000,-30.000,18.500,-39.000
3.265,73.500,-29.500,18.000,-38.000
3.266,72.500,-29.500,18.000,-37.500
3.267,72.000,-29.500,18.000,-37.000
3.268,72.000,-29.000,18.000,-37.000
3.269,72.000,-29.000,18.000,-37.000
3.270,72.000,-28.500,18.500,-37.000
3.271,72.500,-28.500,19.000,-37.500
3.272,73.000,-29.000,19.000,-38.500
3.273,73.500,-29.000,19.500,-39.000
3.274,74.500,-29.500,19.500,-40.000
3.275,75.000,-29.500,19.500,-40.500
3.276,75.500,-30.000,19.500,-41.500
3.277,75.500,-30.000,19.500,-41.500
3.278,76.000,-30.000,19.500,-42.000
3.279,76.000,-29.500,19.000,-42.000
3.280,75.500,-29.500,18.500,-41.500
3.281,75.000,-29.500,18.000,-41.500
3.282,74.500,-29.000,17.500,-41.000
3.283,73.500,-29.000,17.500,-40.500
3.284,73.000,-28.500,17.000,-39.500
3.285,72.500,-28.500,16.500,-39.000
3.286,72.000,-28.500,16.000,-38.500
3.287,71.500,-28.500,16.000,-38.500
3.288,71.500,-28.500,16.000,-38.000
3.289,71.500,-28.500,16.000,-38.500
3.290,71.500,-28.500,16.500,-38.500
3.291,72.000,-28.500,16.500,-39.000
3.292,72.500,-28.500,17.000,-40.000
3.293,73.000,-29.000,17.000,-40.500
3.294,74.000,-29.000,17.500,-41.500
3.295,75.000,-29.000,17.500,-42.500
3.296,76.000,-29.000,17.500,-43.000
3.297,76.500,-29.500,17.500,-43.500
3.298,77.000,-29.500,17.500,-44.000
3.299,77.500,-29.500,17.500,-44.000
3.300,77.500,-29.500,17.000,-44.000
3.301,77.000,-29.500,17.000,-44.000
3.302,76.500,-29.000,16.500,-43.500
3.303,76.000,-29.000,16.500,-42.500
3.304,75.500,-29.000,16.000,-42.000
3.305,75.000,-28.500,16.000,-41.500
3.306,75.000,-28.500,16.000,-41.000
3.307,74.500,-28.500,16.000,-40.500
3.308,74.500,-28.500,16.000,-40.500
3.309,74.500,-29.000,16.000,-41.000
3.310,74.500,-29.000,16.000,-41.500
3.311,74.500,-29.500,16.500,-42.000
3.312,75.000,-30.000,16.500,-42.500
