'Elapsed time','AECG1','AECG2','AECG3','AECG4'
'seconds','uV','uV','uV','uV'
0.000,-7.500,1.500,1.000,6.000
0.001,-7.000,1.500,1.500,5.500
0.002,-7.000,1.500,1.500,5.000
0.003,-6.500,1.500,2.000,5.000
0.004,-6.000,2.000,2.000,5.000
0.005,-5.500,2.500,2.500,5.000
0.006,-4.500,3.000,2.500,5.000
0.007,-4.000,3.000,2.500,5.500
0.008,-4.000,3.000,2.500,5.500
0.009,-3.500,2.500,2.500,5.500
0.010,-3.000,2.500,2.500,5.000
0.011,-2.500,2.000,2.500,4.500
0.012,-2.000,1.500,2.500,4.500
0.013,-1.500,1.500,2.500,4.000
0.014,-1.000,1.500,2.500,4.000
0.015,-0.500,2.000,2.500,3.500
0.016,-0.500,2.000,2.500,3.500
0.017,-0.500,2.000,2.500,3.000
0.018,-0.500,2.500,3.000,3.000
0.019,-0.500,3.000,3.000,3.000
0.020,0.000,3.500,3.500,3.500
0.021,0.000,4.000,3.500,3.500
0.022,0.000,4.500,3.500,3.500
0.023,0.500,4.500,3.000,3.000
0.024,0.500,5.000,2.500,3.000
0.025,0.500,5.000,2.500,2.500
0.026,1.000,5.000,2.000,2.500
0.027,1.000,4.500,2.500,2.500
0.028,1.000,4.000,2.500,2.500
0.029,1.000,3.000,2.500,2.000
0.030,1.000,2.500,2.000,2.000
0.031,1.000,1.500,2.000,2.000
0.032,1.000,1.500,1.500,2.000
0.033,1.000,1.500,1.000,2.000
0.034,1.500,2.000,1.500,2.500
0.035,1.500,2.500,1.500,2.500
0.036,2.000,2.500,1.500,3.000
0.037,2.000,2.500,2.000,2.500
0.038,2.500,2.000,2.000,2.500
0.039,2.500,2.000,2.000,2.000
0.040,2.500,1.500,2.000,1.500
0.041,2.500,1.500,2.000,1.000
0.042,2.500,1.500,2.000,1.000
0.043,2.500,2.000,2.000,0.500
0.044,2.500,2.000,2.000,0.500
0.045,2.500,2.000,2.000,0.500
0.046,2.500,2.000,1.500,0.000
0.047,2.500,1.500,1.500,0.000
0.048,2.000,1.000,1.000,0.000
0.049,2.000,1.000,0.500,0.000
0.050,2.000,1.000,0.500,0.000
0.051,2.000,1.000,0.500,0.500
0.052,2.500,1.500,0.500,0.500
0.053,3.000,2.000,0.500,0.500
0.054,3.000,2.500,0.500,0.500
0.055,3.000,3.000,0.500,0.000
0.056,2.500,3.000,0.500,-0.500
0.057,2.000,3.000,0.500,-1.000
0.058,2.000,3.500,0.500,-0.500
0.059,1.500,3.500,0.000,-0.500
0.060,2.000,3.500,0.000,0.000
0.061,2.500,3.500,0.500,0.500
0.062,2.500,3.500,0.500,0.500
0.063,3.000,3.500,0.500,0.000
0.064,2.500,3.500,0.500,0.000
0.065,2.500,3.000,0.500,0.000
0.066,2.500,2.500,0.500,0.000
0.067,2.500,1.500,0.000,0.000
0.068,2.000,0.500,-0.500,-0.500
0.069,2.000,-0.500,-0.500,-0.500
0.070,2.000,-1.500,-0.500,-1.000
0.071,1.500,-1.500,-0.500,-0.500
0.072,1.500,-1.000,-0.500,-0.500
0.073,2.000,0.000,0.000,0.000
0.074,2.000,0.500,0.500,0.500
0.075,2.000,1.000,1.000,0.500
0.076,2.000,1.000,1.000,0.000
0.077,2.000,0.500,0.500,-0.500
0.078,1.500,0.000,0.500,-1.500
0.079,1.500,-0.500,0.000,-2.000
0.080,1.000,-1.000,0.000,-2.000
0.081,1.000,-1.000,0.500,-1.500
0.082,1.000,-1.000,0.500,-1.000
0.083,1.500,-1.000,0.500,-1.000
0.084,1.000,-1.000,0.000,-0.500
0.085,1.000,-0.500,-0.500,-0.500
0.086,1.000,-0.500,-1.000,-1.000
0.087,0.500,-0.500,-1.000,-1.000
0.088,1.000,0.000,-1.000,-1.500
0.089,1.000,0.500,-1.000,-1.500
0.090,1.000,1.000,-1.000,-1.500
0.091,1.500,1.500,-1.500,-1.000
0.092,1.500,1.500,-1.500,-1.000
0.093,1.500,1.500,-1.500,-1.500
0.094,1.500,1.000,-1.500,-1.500
0.095,1.500,0.500,-2.000,-2.000
0.096,1.500,-0.500,-2.000,-2.500
0.097,1.500,-1.000,-2.000,-2.500
0.098,1.500,-1.500,-2.500,-2.500
0.099,1.000,-1.500,-3.000,-2.500
0.100,0.500,-1.500,-3.000,-2.500
0.101,0.500,-1.500,-3.000,-2.500
0.102,0.500,-1.500,-2.500,-2.500
0.103,0.500,-1.500,-2.000,-3.000
0.104,0.500,-1.500,-1.500,-3.000
0.105,0.500,-2.000,-1.000,-2.500
0.106,0.500,-2.000,-1.000,-2.500
0.107,1.000,-2.000,-0.500,-2.000
0.108,1.000,-2.500,0.000,-2.000
0.109,1.500,-2.500,0.000,-1.500
0.110,1.500,-2.500,0.000,-2.000
0.111,1.500,-2.000,-0.500,-2.000
0.112,1.500,-1.000,-1.000,-2.000
0.113,1.000,-0.500,-1.500,-2.000
0.114,1.000,0.500,-2.000,-1.500
0.115,0.500,1.500,-2.500,-1.500
0.116,1.000,1.500,-2.500,-1.000
0.117,1.000,1.500,-2.000,-1.000
0.118,1.500,1.000,-2.000,-1.000
0.119,1.500,0.500,-1.500,-1.500
0.120,1.500,-0.500,-1.000,-2.000
0.121,1.000,-1.000,-0.500,-2.000
0.122,1.000,-1.000,-0.500,-2.000
0.123,0.500,-1.500,-1.000,-2.500
0.124,0.500,-1.500,-1.000,-2.500
0.125,0.500,-1.500,-1.500,-2.500
0.126,0.500,-2.000,-1.500,-2.000
0.127,0.500,-2.000,-2.000,-2.000
0.128,0.500,-2.500,-2.000,-2.000
0.129,0.500,-3.000,-2.500,-2.000
0.130,0.500,-3.000,-2.500,-2.000
0.131,0.500,-3.500,-2.500,-2.000
0.132,0.500,-3.500,-2.000,-2.000
0.133,1.000,-3.000,-2.000,-2.000
0.134,1.500,-2.500,-1.500,-2.000
0.135,1.500,-2.000,-1.500,-1.500
0.136,1.500,-2.000,-1.500,-1.500
0.137,1.000,-1.500,-1.500,-1.500
0.138,1.000,-1.000,-1.500,-1.500
0.139,1.000,-1.000,-2.000,-1.500
0.140,1.500,-0.500,-1.500,-1.500
0.141,2.000,-0.500,-1.500,-1.000
0.142,2.000,-0.500,-1.500,-1.000
0.143,2.500,-0.500,-1.500,-1.000
0.144,2.000,-0.500,-1.500,-1.500
0.145,1.500,-1.000,-2.000,-2.000
0.146,1.500,-1.500,-2.000,-2.000
0.147,1.000,-1.500,-2.000,-2.000
0.148,1.500,-2.000,-1.500,-2.000
0.149,1.500,-2.000,-1.000,-1.500
0.150,2.000,-2.000,-1.000,-1.000
0.151,2.000,-2.000,-1.000,-1.000
0.152,2.000,-1.500,-1.000,-1.000
0.153,1.500,-1.500,-1.500,-1.000
0.154,1.500,-1.500,-2.000,-1.000
0.155,1.500,-1.500,-2.000,-1.000
0.156,1.500,-1.500,-2.000,-1.000
0.157,1.500,-1.000,-1.500,-0.500
0.158,1.500,-0.500,-1.000,-0.500
0.159,2.000,0.500,-1.000,0.000
0.160,2.000,1.000,-1.000,0.000
0.161,2.000,1.000,-1.000,-0.500
0.162,2.000,0.500,-1.000,-0.500
0.163,2.000,0.000,-1.000,-0.500
0.164,2.000,-0.500,-1.000,-0.500
0.165,2.000,0.000,-1.000,-0.500
0.166,2.000,0.000,-0.500,-0.500
0.167,2.500,0.500,-0.500,-0.500
0.168,2.500,0.500,-1.000,-0.500
0.169,2.500,0.500,-1.000,-0.500
0.170,2.500,0.500,-1.500,-1.000
0.171,2.000,0.500,-1.000,-1.000
0.172,2.000,0.500,-1.000,-1.000
0.173,2.000,1.000,-0.500,-1.000
0.174,2.000,1.000,0.000,-1.000
0.175,2.000,1.000,0.500,-1.000
0.176,2.000,0.500,0.500,-1.000
0.177,1.500,0.000,0.500,-1.000
0.178,1.500,-0.500,0.000,-1.000
0.179,1.000,-1.000,0.000,-1.000
0.180,1.000,-0.500,-0.500,-1.000
0.181,1.000,0.000,-0.500,-1.000
0.182,2.000,0.500,-0.500,-1.000
0.183,2.500,0.500,-0.500,-1.000
0.184,3.000,0.000,0.000,-1.000
0.185,3.000,-0.500,0.000,-0.500
0.186,2.500,-1.000,0.000,-1.000
0.187,2.500,-1.500,0.000,-1.000
0.188,2.000,-1.500,0.000,-1.000
0.189,2.000,-1.000,-0.500,-1.500
0.190,2.000,-0.500,-0.500,-1.500
0.191,2.000,-0.500,-1.000,-1.500
0.192,2.000,-0.500,-0.500,-1.500
0.193,1.500,-0.500,-0.500,-1.500
0.194,1.500,-1.500,-0.500,-1.500
0.195,1.500,-2.000,-0.500,-2.000
0.196,1.500,-2.000,-0.500,-2.000
0.197,1.500,-2.000,-1.000,-2.500
0.198,1.000,-1.500,-1.500,-2.500
0.199,1.000,-1.500,-1.500,-2.500
0.200,1.000,-1.000,-1.500,-2.500
0.201,1.000,-1.000,-1.000,-2.500
0.202,1.500,-1.000,-0.500,-2.000
0.203,1.500,-1.500,0.000,-2.000
0.204,2.000,-1.500,0.500,-1.500
0.205,2.000,-1.500,0.500,-1.500
0.206,2.500,-1.500,0.000,-1.500
0.207,2.500,-1.500,0.000,-1.500
0.208,2.500,-1.500,-0.500,-1.500
0.209,2.000,-1.500,-1.000,-1.500
0.210,2.000,-1.500,-1.000,-1.500
0.211,1.500,-1.500,-1.500,-1.500
0.212,2.000,-1.000,-1.500,-1.500
0.213,2.000,-0.500,-1.500,-1.500
0.214,2.000,-0.500,-1.500,-1.500
0.215,2.500,0.000,-1.000,-1.000
0.216,2.500,0.000,-0.500,-1.000
0.217,2.500,0.000,-0.500,-0.500
0.218,2.000,-0.500,0.000,0.000
0.219,2.000,-1.000,-0.500,-0.500
0.220,2.000,-1.500,-0.500,-0.500
0.221,1.500,-2.000,-1.000,-1.000
0.222,1.500,-2.000,-1.500,-1.500
0.223,1.500,-2.000,-1.500,-1.500
0.224,1.000,-2.000,-1.500,-1.000
0.225,1.000,-2.000,-1.500,-0.500
0.226,1.000,-2.000,-1.500,0.000
0.227,1.000,-1.500,-2.000,0.000
0.228,1.000,-1.500,-1.500,0.500
0.229,1.500,-1.000,-1.500,0.000
0.230,2.000,-0.500,-1.000,0.000
0.231,2.000,0.000,0.000,0.500
0.232,2.000,0.500,0.500,0.500
0.233,2.000,1.500,0.500,0.500
0.234,2.000,1.500,0.000,0.500
0.235,1.500,1.500,0.000,0.500
0.236,1.500,1.000,-0.500,0.500
0.237,2.000,1.000,-0.500,0.500
0.238,2.000,1.000,0.000,0.000
0.239,2.500,1.000,0.000,0.000
0.240,2.000,1.500,0.500,-0.500
0.241,2.000,1.500,0.500,-0.500
0.242,1.500,1.500,0.000,-0.500
0.243,1.500,1.000,-0.500,-0.500
0.244,1.500,1.000,-1.000,0.000
0.245,1.500,0.500,-1.000,0.000
0.246,1.500,1.000,-1.000,0.500
0.247,2.000,1.000,-1.000,1.000
0.248,2.000,1.000,-1.000,1.000
0.249,2.000,1.000,-1.000,0.500
0.250,2.000,1.000,-0.500,0.500
0.251,2.000,0.500,-0.500,-0.500
0.252,1.500,0.000,-0.500,-0.500
0.253,1.500,0.000,-1.000,-1.000
0.254,1.000,0.000,-1.500,-1.000
0.255,1.000,0.000,-2.000,-1.500
0.256,1.000,0.500,-2.000,-1.500
0.257,1.000,0.500,-2.000,-1.500
0.258,1.000,1.000,-1.500,-1.500
0.259,1.000,0.500,-1.000,-1.500
0.260,1.000,0.500,-1.000,-1.500
0.261,1.000,-0.500,-1.000,-1.500
0.262,1.000,-1.500,-1.000,-1.500
0.263,1.000,-3.000,-1.000,-1.500
0.264,1.000,-4.000,-1.000,-1.000
0.265,1.000,-5.000,-1.500,-1.500
0.266,0.500,-6.000,-1.500,-1.500
0.267,0.000,-6.500,-2.000,-2.000
0.268,0.000,-6.500,-2.500,-2.000
0.269,0.000,-5.500,-3.000,-2.000
0.270,0.000,-5.000,-3.000,-2.000
0.271,0.000,-4.000,-2.500,-1.500
0.272,0.000,-3.500,-2.500,-1.500
0.273,0.000,-3.000,-2.000,-2.000
0.274,0.500,-3.000,-2.500,-2.000
0.275,0.500,-3.000,-2.500,-2.500
0.276,0.500,-3.000,-2.500,-3.000
0.277,0.500,-3.000,-2.500,-3.000
0.278,0.500,-3.000,-2.000,-3.000
0.279,0.500,-2.500,-2.000,-2.500
0.280,0.500,-2.000,-2.000,-2.000
0.281,0.000,-1.500,-1.500,-2.000
0.282,0.000,-1.500,-1.500,-2.000
0.283,0.000,-1.500,-1.500,-2.000
0.284,0.500,-1.500,-2.000,-2.000
0.285,0.500,-1.500,-2.000,-2.000
0.286,0.500,-2.000,-2.500,-2.000
0.287,0.500,-2.500,-3.000,-2.000
0.288,0.000,-2.500,-3.500,-2.000
0.289,0.000,-2.000,-3.500,-2.000
0.290,0.500,-1.500,-3.500,-2.000
0.291,0.500,-1.500,-3.000,-2.000
0.292,1.000,-1.500,-3.000,-2.000
0.293,1.000,-1.500,-3.000,-2.000
0.294,0.500,-1.500,-3.000,-2.000
0.295,0.000,-1.500,-3.000,-2.000
0.296,0.000,-1.500,-2.500,-2.000
0.297,-0.500,-1.500,-2.000,-2.000
0.298,0.000,-1.500,-2.000,-1.500
0.299,0.000,-1.500,-1.500,-1.500
0.300,0.000,-1.500,-1.500,-1.000
0.301,0.500,-1.000,-1.500,-1.000
0.302,0.500,-0.500,-1.500,-1.000
0.303,0.500,0.000,-2.000,-0.500
0.304,1.000,0.500,-2.000,-0.500
0.305,1.000,0.500,-2.500,-0.500
0.306,1.000,0.500,-3.000,-0.500
0.307,0.500,0.500,-3.000,-0.500
0.308,1.000,0.000,-3.000,-0.500
0.309,1.000,0.000,-3.000,0.000
0.310,1.000,-0.500,-2.500,0.000
0.311,1.000,0.000,-2.000,0.000
0.312,1.500,0.000,-1.500,0.000
0.313,1.000,0.500,-1.000,-0.500
0.314,1.000,0.500,-0.500,-0.500
0.315,1.000,1.000,-0.500,-0.500
0.316,1.000,0.500,0.000,-0.500
0.317,1.000,0.500,0.000,0.000
0.318,1.500,0.000,0.500,0.000
0.319,1.500,-0.500,0.500,0.500
0.320,1.500,-0.500,0.000,0.500
0.321,1.500,0.000,0.000,0.500
0.322,1.000,0.000,-0.500,0.500
0.323,1.000,0.000,-0.500,1.000
0.324,0.500,0.000,-1.000,0.500
0.325,0.500,0.000,-1.000,0.500
0.326,0.500,0.000,-1.000,0.500
0.327,1.000,0.000,-0.500,0.500
0.328,1.000,0.500,-0.500,1.000
0.329,1.500,1.000,-0.500,1.500
0.330,1.500,2.000,0.000,2.000
0.331,1.500,2.500,0.000,2.500
0.332,1.000,3.000,0.500,2.500
0.333,0.500,3.000,0.000,2.000
0.334,0.500,3.000,0.000,1.500
0.335,0.000,2.500,0.000,1.000
0.336,-0.500,2.500,-0.500,0.500
0.337,-0.500,2.500,-0.500,0.500
0.338,-0.500,2.500,-1.500,0.500
0.339,-0.500,2.500,-2.000,0.000
0.340,0.000,2.000,-2.000,0.000
0.341,0.000,2.000,-1.500,-0.500
0.342,-0.500,1.500,-1.000,-0.500
0.343,-0.500,1.500,-0.500,0.000
0.344,-0.500,1.000,-0.500,0.500
0.345,-0.500,0.500,-1.000,1.000
0.346,-1.000,0.500,-1.500,1.000
0.347,-1.000,0.000,-2.500,1.000
0.348,-1.000,-0.500,-3.000,0.000
0.349,-1.500,-1.000,-3.000,-1.000
0.350,-1.500,-1.500,-3.000,-2.000
0.351,-2.000,-2.000,-3.000,-2.500
0.352,-2.000,-2.000,-3.000,-3.000
0.353,-2.500,-1.500,-3.000,-3.000
0.354,-3.000,-1.000,-3.500,-3.500
0.355,-3.500,-1.000,-4.000,-3.500
0.356,-3.500,-1.000,-4.000,-3.500
0.357,-3.500,-1.000,-4.000,-3.500
0.358,-3.500,-1.000,-3.500,-3.000
0.359,-3.000,-1.500,-3.000,-2.500
0.360,-2.500,-1.000,-3.000,-2.000
0.361,-2.000,-1.000,-3.000,-1.000
0.362,-1.500,-0.500,-3.000,-0.500
0.363,-1.500,0.000,-3.000,0.000
0.364,-1.000,0.500,-3.000,1.000
0.365,-0.500,1.500,-2.000,2.500
0.366,0.500,3.000,-0.500,4.000
0.367,1.500,4.500,1.500,6.000
0.368,3.000,7.000,3.500,9.000
0.369,4.000,9.000,5.000,11.000
0.370,5.000,10.500,6.000,13.000
0.371,6.000,11.000,6.500,14.500
0.372,6.500,10.500,6.000,14.500
0.373,6.500,8.500,5.000,13.500
0.374,6.500,6.500,4.500,12.000
0.375,6.000,4.500,4.000,10.500
0.376,5.000,3.000,3.500,8.500
0.377,4.500,1.500,3.000,6.500
0.378,3.500,0.000,2.000,4.500
0.379,2.500,-1.500,0.500,2.000
0.380,1.000,-3.000,-1.000,-1.000
0.381,-0.500,-4.500,-2.500,-3.500
0.382,-2.000,-6.000,-3.500,-6.000
0.383,-3.000,-7.000,-5.000,-7.500
0.384,-3.500,-7.500,-5.500,-8.000
0.385,-4.000,-7.500,-6.000,-8.000
0.386,-3.500,-6.500,-6.500,-7.500
0.387,-3.000,-5.500,-6.000,-7.000
0.388,-2.500,-4.500,-5.500,-6.000
0.389,-2.000,-3.500,-5.000,-5.500
0.390,-2.000,-2.500,-4.000,-5.000
0.391,-1.500,-2.000,-3.500,-4.000
0.392,-1.000,-1.500,-3.000,-3.500
0.393,-0.500,-1.000,-2.500,-2.500
0.394,0.000,-0.500,-2.500,-1.500
0.395,0.500,-0.500,-2.500,-1.500
0.396,0.500,-0.500,-2.500,-1.000
0.397,0.500,-0.500,-2.500,-1.000
0.398,0.500,-0.500,-3.000,-1.000
0.399,0.500,-0.500,-3.000,-1.500
0.400,0.500,-1.000,-3.000,-1.500
0.401,1.000,-1.500,-3.500,-1.000
0.402,1.500,-1.500,-3.500,-1.000
0.403,1.500,-1.000,-3.500,-0.500
0.404,1.500,-0.500,-3.000,-0.500
0.405,1.500,0.000,-3.500,-0.500
0.406,1.500,0.000,-3.500,-0.500
0.407,1.500,0.000,-3.500,-0.500
0.408,1.000,0.000,-3.500,-1.000
0.409,1.000,-0.500,-3.500,-1.000
0.410,1.000,-0.500,-3.000,-1.500
0.411,1.000,-1.000,-3.000,-1.500
0.412,1.000,-0.500,-3.000,-1.500
0.413,1.000,-0.500,-3.000,-1.500
0.414,1.000,-0.500,-3.000,-1.500
0.415,1.000,-0.500,-3.000,-1.500
0.416,1.000,-0.500,-3.000,-1.500
0.417,0.500,-0.500,-3.000,-1.500
0.418,0.500,-0.500,-3.000,-1.500
0.419,0.500,-0.500,-3.000,-1.500
0.420,0.000,0.000,-3.000,-1.500
0.421,0.000,0.500,-3.000,-1.000
0.422,0.000,1.500,-3.000,-1.000
0.423,0.000,2.500,-3.000,-1.000
0.424,0.500,3.500,-2.500,-1.000
0.425,0.500,4.000,-2.500,-1.000
0.426,0.500,4.500,-2.500,-0.500
0.427,1.000,5.000,-2.500,-0.500
0.428,1.000,5.000,-2.000,0.000
0.429,1.000,5.500,-1.500,0.000
0.430,1.000,6.000,-0.500,0.000
0.431,1.000,6.500,0.000,-0.500
0.432,1.000,6.000,0.000,-1.000
0.433,1.000,6.000,0.000,-1.000
0.434,1.000,6.000,-0.500,-1.500
0.435,0.500,6.000,-0.500,-1.000
0.436,1.000,6.000,-0.500,-1.000
0.437,1.000,6.000,0.000,-0.500
0.438,1.000,5.500,0.500,-0.500
0.439,1.000,5.500,0.500,0.000
0.440,1.500,4.500,0.500,0.000
0.441,1.500,4.000,0.500,0.000
0.442,1.500,4.000,0.500,0.500
0.443,2.000,4.500,1.000,1.000
0.444,3.000,5.000,1.500,1.500
0.445,3.500,5.500,2.000,2.000
0.446,4.500,5.500,2.500,2.500
0.447,5.500,6.000,3.000,3.000
0.448,6.500,6.500,3.500,3.500
0.449,8.000,7.000,4.500,4.000
0.450,9.000,7.500,5.500,4.500
0.451,9.500,8.000,6.500,5.000
0.452,10.000,8.500,7.000,5.500
0.453,10.000,9.000,8.000,6.500
0.454,9.500,9.000,8.500,7.500
0.455,9.500,9.500,9.000,8.500
0.456,9.000,10.000,10.000,10.000
0.457,8.500,10.500,11.000,11.500
0.458,7.500,11.500,11.500,13.000
0.459,6.000,11.500,12.500,14.500
0.460,4.000,11.500,12.500,15.500
0.461,2.000,11.000,12.000,16.000
0.462,0.000,10.500,11.500,17.000
0.463,-2.000,10.000,11.000,17.500
0.464,-4.500,9.500,10.500,18.500
0.465,-7.000,9.000,10.000,19.500
0.466,-9.000,8.500,9.500,20.500
0.467,-11.000,8.000,9.000,21.500
0.468,-13.000,7.500,8.500,22.500
0.469,-15.000,6.500,7.500,23.000
0.470,-17.000,6.000,6.500,23.000
0.471,-19.500,4.500,4.500,23.000
0.472,-22.000,3.500,3.000,22.500
0.473,-25.000,3.000,1.000,21.500
0.474,-27.500,2.000,-0.500,20.500
0.475,-29.500,1.000,-1.500,19.000
0.476,-31.000,0.000,-2.500,18.000
0.477,-31.500,-1.000,-3.000,17.000
0.478,-32.000,-1.000,-3.000,16.000
0.479,-32.000,-1.500,-3.000,15.500
0.480,-32.000,-1.500,-2.500,15.500
0.481,-31.500,-1.000,-2.500,15.500
0.482,-31.000,-0.500,-2.000,15.500
0.483,-29.500,0.000,-2.500,14.500
0.484,-28.000,0.000,-3.000,12.500
0.485,-25.500,0.500,-4.000,10.500
0.486,-23.500,0.500,-5.000,7.500
0.487,-21.500,0.000,-6.500,4.500
0.488,-19.000,-0.500,-8.000,1.500
0.489,-17.000,-1.500,-9.500,-1.500
0.490,-14.500,-2.000,-10.500,-4.000
0.491,-12.000,-2.000,-11.500,-6.000
0.492,-10.000,-2.000,-11.500,-7.500
0.493,-8.000,-1.500,-11.500,-8.500
0.494,-6.500,-0.500,-11.000,-9.000
0.495,-5.500,0.500,-11.000,-9.500
0.496,-4.500,1.000,-10.500,-9.500
0.497,-4.000,1.500,-10.000,-9.500
0.498,-3.500,2.000,-9.500,-9.500
0.499,-2.500,2.000,-9.500,-10.000
0.500,-2.000,1.500,-9.500,-10.000
0.501,-1.500,1.500,-9.500,-10.500
0.502,-1.000,1.500,-10.000,-10.500
0.503,-1.000,1.000,-10.000,-10.500
0.504,-0.500,1.000,-10.000,-10.500
0.505,0.000,1.000,-10.000,-10.500
0.506,0.000,1.000,-9.500,-10.000
0.507,0.000,1.000,-9.500,-10.000
0.508,0.000,1.000,-9.500,-10.000
0.509,-0.500,0.500,-9.500,-10.000
0.510,-0.500,0.500,-9.500,-9.500
0.511,-1.000,0.500,-9.000,-9.000
0.512,-1.000,0.500,-8.000,-8.000
0.513,-0.500,1.000,-7.000,-7.000
0.514,0.000,1.500,-5.500,-6.000
0.515,0.500,2.500,-4.500,-4.500
0.516,1.000,3.000,-4.000,-4.000
0.517,1.000,3.500,-4.000,-3.000
0.518,1.500,4.000,-4.000,-3.000
0.519,1.000,4.500,-4.500,-2.500
0.520,1.000,4.500,-4.500,-2.000
0.521,0.500,5.000,-4.500,-2.000
0.522,0.500,5.000,-3.500,-1.500
0.523,0.500,5.500,-3.000,-0.500
0.524,0.500,6.000,-2.000,0.000
0.525,1.000,6.500,-1.500,0.500
0.526,1.500,7.000,-1.000,0.500
0.527,1.500,7.000,-1.000,1.000
0.528,1.500,7.500,-1.000,1.000
0.529,1.000,7.000,-1.000,1.000
0.530,1.000,6.500,-1.000,1.000
0.531,0.500,6.000,-1.000,0.500
0.532,0.500,5.500,-1.000,0.500
0.533,0.500,5.000,-1.000,0.500
0.534,1.000,5.000,-1.000,0.500
0.535,1.000,5.000,-1.000,1.000
0.536,1.000,5.500,-0.500,1.000
0.537,1.000,6.000,-0.500,1.000
0.538,1.000,6.500,-0.500,1.000
0.539,1.000,7.000,-0.500,1.000
0.540,1.000,7.500,-0.500,1.000
0.541,0.500,7.500,-0.500,1.000
0.542,0.500,7.500,-0.500,1.000
0.543,1.000,7.500,-0.500,1.000
0.544,1.000,7.000,0.000,1.000
0.545,1.000,6.500,-0.500,1.000
0.546,1.000,6.000,-0.500,1.000
0.547,1.000,6.000,-1.000,1.000
0.548,1.000,6.000,-1.000,1.000
0.549,1.500,6.000,-0.500,1.500
0.550,1.500,7.000,0.000,1.500
0.551,1.500,7.500,1.000,1.500
0.552,1.500,8.000,1.500,2.000
0.553,1.500,8.500,2.000,1.500
0.554,1.500,8.000,2.000,1.500
0.555,1.500,8.000,1.500,1.500
0.556,1.500,7.500,1.500,1.500
0.557,1.500,7.500,1.000,1.500
0.558,1.500,8.000,1.000,1.500
0.559,1.500,8.500,0.500,1.500
0.560,1.000,9.000,0.500,2.000
0.561,1.000,9.500,0.000,2.000
0.562,1.000,9.500,-0.500,2.000
0.563,1.000,9.500,-0.500,2.000
0.564,1.000,9.000,-0.500,2.000
0.565,1.000,8.500,-0.500,2.000
0.566,1.000,8.000,-0.500,2.000
0.567,0.500,7.500,-1.000,1.500
0.568,0.000,7.500,-1.000,1.500
0.569,0.000,7.000,-1.500,1.000
0.570,-0.500,7.000,-1.500,0.500
0.571,-1.000,7.000,-1.500,0.000
0.572,-1.500,6.500,-2.000,-0.500
0.573,-1.500,6.500,-2.000,-0.500
0.574,-1.500,6.500,-2.500,0.000
0.575,-1.500,7.000,-2.500,0.500
0.576,-1.500,7.000,-2.500,1.000
0.577,-1.500,7.500,-2.000,1.500
0.578,-1.500,7.000,-1.500,1.500
0.579,-1.500,7.000,-1.000,1.500
0.580,-1.500,6.500,-1.000,1.000
0.581,-2.000,6.000,-1.000,1.500
0.582,-1.500,6.000,-1.500,1.500
0.583,-1.500,6.500,-1.500,1.500
0.584,-1.500,7.000,-1.000,2.000
0.585,-1.500,7.000,-1.000,1.500
0.586,-1.500,6.500,-1.000,1.500
0.587,-1.500,6.000,-1.000,1.500
0.588,-1.500,5.500,-1.000,1.500
0.589,-1.500,5.000,-1.000,1.500
0.590,-1.500,5.000,-1.000,2.000
0.591,-1.000,5.500,-1.000,2.000
0.592,-1.000,5.500,-1.000,2.000
0.593,-1.500,5.500,-1.000,2.000
0.594,-1.500,5.000,-1.000,2.000
0.595,-2.000,4.500,-1.000,2.000
0.596,-2.000,4.000,-0.500,2.000
0.597,-2.000,3.500,0.000,2.000
0.598,-2.000,3.500,0.000,2.500
0.599,-2.000,3.500,0.000,2.500
0.600,-2.000,4.000,-0.500,2.500
0.601,-2.500,4.000,-1.000,2.500
0.602,-2.500,4.500,-1.000,2.500
0.603,-2.500,4.500,-1.000,3.000
0.604,-2.500,4.500,-1.000,3.000
0.605,-2.500,4.500,-1.000,3.000
0.606,-2.500,4.000,-1.000,2.500
0.607,-2.500,4.000,-1.000,2.000
0.608,-3.000,3.500,-1.500,1.500
0.609,-3.500,3.500,-1.500,1.500
0.610,-3.500,3.500,-1.500,1.000
0.611,-3.000,4.000,-1.000,1.500
0.612,-3.000,4.500,-0.500,2.000
0.613,-2.500,5.500,0.000,2.500
0.614,-2.000,6.000,0.000,3.000
0.615,-2.000,6.500,0.000,3.500
0.616,-2.000,6.000,0.000,3.500
0.617,-2.000,6.000,0.000,4.000
0.618,-2.000,5.500,0.500,4.000
0.619,-2.000,5.500,1.000,4.000
0.620,-2.000,5.500,1.000,4.000
0.621,-1.500,5.500,1.500,4.000
0.622,-1.500,5.500,1.000,3.500
0.623,-1.500,5.500,1.000,3.500
0.624,-1.500,5.000,0.500,3.000
0.625,-2.000,4.000,0.000,2.500
0.626,-3.000,3.500,0.500,2.500
0.627,-3.000,3.000,0.500,2.500
0.628,-3.000,2.500,1.000,3.000
0.629,-3.000,2.000,1.500,3.000
0.630,-2.500,1.500,1.500,3.500
0.631,-2.500,1.500,1.000,3.500
0.632,-2.500,1.000,1.000,3.500
0.633,-3.000,1.000,0.500,3.000
0.634,-3.500,1.000,0.000,2.500
0.635,-3.500,1.000,0.500,2.500
0.636,-4.000,1.000,0.500,2.500
0.637,-3.500,1.500,1.000,3.000
0.638,-3.000,2.000,1.500,3.500
0.639,-3.000,2.000,1.500,4.000
0.640,-3.000,2.000,1.500,4.000
0.641,-3.500,1.500,1.000,4.000
0.642,-4.000,1.000,1.000,4.000
0.643,-4.500,0.500,1.000,4.000
0.644,-5.000,0.000,1.000,4.000
0.645,-5.000,0.000,1.000,4.000
0.646,-5.000,0.000,1.000,4.000
0.647,-5.000,0.000,0.500,4.500
0.648,-5.500,-0.500,0.500,4.500
0.649,-6.000,-1.000,0.500,4.500
0.650,-6.000,-1.500,0.500,5.000
0.651,-6.500,-2.000,1.000,5.500
0.652,-6.000,-1.500,1.500,6.000
0.653,-5.500,-1.000,2.000,6.000
0.654,-5.500,-0.500,2.500,6.500
0.655,-5.500,-0.500,3.000,6.500
0.656,-5.500,-1.000,3.000,6.000
0.657,-6.000,-1.500,2.500,6.000
0.658,-6.500,-2.000,2.500,6.000
0.659,-6.500,-2.000,2.500,6.000
0.660,-6.500,-1.500,2.000,6.000
0.661,-6.500,-1.000,1.500,5.500
0.662,-6.500,-0.500,1.500,5.500
0.663,-6.500,0.000,1.000,5.000
0.664,-7.000,0.500,1.000,5.000
0.665,-7.500,1.000,1.000,5.000
0.666,-8.000,1.500,1.000,5.500
0.667,-8.000,2.000,1.500,5.500
0.668,-8.000,2.500,1.500,6.000
0.669,-8.000,2.500,1.500,6.000
0.670,-7.500,2.500,1.500,6.000
0.671,-7.500,2.500,1.500,6.000
0.672,-7.500,2.000,1.500,6.000
0.673,-7.500,1.500,1.500,6.500
0.674,-7.500,1.500,2.000,6.500
0.675,-8.000,1.000,2.000,6.000
0.676,-8.500,1.000,2.000,6.000
0.677,-8.500,1.000,2.500,5.500
0.678,-9.000,1.000,2.000,5.500
0.679,-9.000,1.000,2.000,5.500
0.680,-9.000,1.500,2.500,6.000
0.681,-9.000,2.000,2.500,6.500
0.682,-9.000,2.500,3.000,7.500
0.683,-9.000,3.000,4.000,7.500
0.684,-9.000,3.500,4.500,8.000
0.685,-9.000,3.500,4.500,8.000
0.686,-9.000,4.000,4.500,8.000
0.687,-9.000,4.000,4.000,8.000
0.688,-9.000,3.500,4.000,8.000
0.689,-9.500,3.500,4.000,8.000
0.690,-10.000,3.000,4.000,7.500
0.691,-10.000,2.500,4.000,7.500
0.692,-10.500,2.000,4.000,7.500
0.693,-10.500,2.000,4.000,7.500
0.694,-10.500,3.000,4.000,7.500
0.695,-10.000,3.500,4.000,8.000
0.696,-10.000,4.500,4.000,8.500
0.697,-10.000,5.000,4.500,9.000
0.698,-10.000,5.000,5.000,9.000
0.699,-10.000,5.000,5.500,9.000
0.700,-10.500,4.500,5.500,9.500
0.701,-10.500,4.000,5.000,9.500
0.702,-10.500,4.000,5.000,10.000
0.703,-10.000,4.000,5.000,10.500
0.704,-10.000,4.000,5.000,10.500
0.705,-10.000,4.500,5.000,10.500
0.706,-10.000,4.000,5.000,9.500
0.707,-10.000,4.000,4.500,9.000
0.708,-10.500,3.500,4.000,8.500
0.709,-11.000,3.000,3.500,8.500
0.710,-11.000,3.000,3.500,8.500
0.711,-11.000,2.500,4.000,8.500
0.712,-11.000,2.500,4.500,9.000
0.713,-11.000,2.000,5.000,8.500
0.714,-11.000,1.500,5.500,8.500
0.715,-11.000,0.500,5.500,8.500
0.716,-11.000,0.000,5.500,8.000
0.717,-10.500,-0.500,5.500,8.000
0.718,-10.000,-0.500,5.500,8.000
0.719,-10.000,-0.500,5.000,7.500
0.720,-10.000,-0.500,4.500,7.000
0.721,-10.000,0.000,4.500,7.000
0.722,-10.000,0.000,4.000,6.500
0.723,-10.000,0.500,4.000,6.500
0.724,-10.000,0.500,4.000,6.500
0.725,-9.500,0.500,4.000,6.500
0.726,-9.500,0.500,4.500,7.000
0.727,-9.000,0.000,4.500,7.000
0.728,-9.000,0.500,4.500,7.000
0.729,-8.500,1.000,4.500,7.500
0.730,-8.000,1.500,4.500,7.500
0.731,-7.500,2.000,4.500,7.500
0.732,-7.000,2.000,4.500,7.000
0.733,-7.000,1.500,4.500,6.000
0.734,-7.000,0.500,4.000,5.000
0.735,-7.500,-1.000,4.000,4.500
0.736,-8.000,-1.500,3.500,4.000
0.737,-8.000,-2.000,3.500,4.000
0.738,-7.500,-2.000,3.500,4.000
0.739,-7.000,-1.500,3.500,4.000
0.740,-6.000,-1.000,3.500,4.000
0.741,-5.500,-1.000,3.500,3.500
0.742,-5.000,-0.500,3.500,3.500
0.743,-4.500,0.000,3.500,3.500
0.744,-4.500,0.500,3.500,3.500
0.745,-4.000,1.000,4.000,4.000
0.746,-3.000,1.500,4.000,4.000
0.747,-2.500,2.000,3.500,4.000
0.748,-2.500,2.000,3.500,3.500
0.749,-2.500,2.000,3.000,3.000
0.750,-2.500,2.000,2.500,2.500
0.751,-2.500,2.500,2.500,2.000
0.752,-2.500,2.500,2.500,1.500
0.753,-2.500,2.500,2.500,2.000
0.754,-2.000,3.000,3.000,2.000
0.755,-1.500,3.000,3.000,2.500
0.756,-1.500,3.000,3.500,2.500
0.757,-1.000,3.000,4.000,3.000
0.758,-0.500,3.000,4.500,2.500
0.759,0.000,3.000,4.500,2.500
0.760,0.000,2.500,5.000,2.000
0.761,0.500,2.500,4.500,1.500
0.762,0.500,2.000,4.000,1.500
0.763,0.000,1.500,3.500,1.000
0.764,0.000,1.500,3.000,1.000
0.765,0.000,1.500,2.500,1.000
0.766,0.000,2.000,2.000,1.000
0.767,0.000,2.500,2.000,1.000
0.768,0.500,3.000,1.500,1.000
0.769,0.500,3.500,1.500,0.500
0.770,1.000,4.000,1.500,0.500
0.771,1.000,4.500,1.000,0.500
0.772,1.000,4.500,1.000,0.000
0.773,1.000,4.500,1.000,0.500
0.774,0.500,4.000,0.500,0.500
0.775,0.500,3.500,0.500,0.000
0.776,0.500,3.000,1.000,0.000
0.777,0.500,3.000,1.000,-0.500
0.778,0.500,2.500,1.000,-0.500
0.779,1.000,2.500,1.500,-1.000
0.780,1.000,2.500,1.500,-1.000
0.781,1.000,2.500,1.000,-1.000
0.782,1.000,2.000,1.000,-1.000
0.783,0.500,2.000,1.000,-1.000
0.784,0.500,2.000,0.500,-1.500
0.785,0.500,2.000,0.500,-1.500
0.786,0.500,2.000,0.000,-2.000
0.787,0.500,2.000,-1.000,-2.000
0.788,0.000,1.500,-1.500,-2.500
0.789,-0.500,1.500,-1.500,-2.000
0.790,-1.000,1.500,-1.500,-2.000
0.791,-1.000,1.500,-1.000,-1.500
0.792,-1.000,2.000,-0.500,-1.500
0.793,-0.500,2.500,-0.500,-1.500
0.794,-0.500,2.500,-0.500,-2.000
0.795,0.000,2.500,-0.500,-2.000
0.796,0.000,2.000,-1.000,-2.000
0.797,0.000,1.500,-0.500,-2.000
0.798,0.500,1.500,0.000,-1.500
0.799,0.500,1.500,0.000,-1.000
0.800,1.000,2.000,0.000,-1.000
0.801,1.500,2.500,0.000,-1.000
0.802,1.500,3.000,-0.500,-1.500
0.803,1.500,3.500,-1.000,-2.000
0.804,0.500,3.500,-1.500,-2.000
0.805,0.000,3.000,-1.500,-2.000
0.806,-0.500,3.000,-1.500,-2.000
0.807,-0.500,3.000,-1.500,-2.000
0.808,-0.500,3.500,-1.500,-2.500
0.809,0.000,4.000,-1.500,-3.000
0.810,0.000,4.500,-1.500,-3.000
0.811,0.000,4.500,-1.500,-3.000
0.812,0.000,4.500,-1.500,-2.500
0.813,0.000,4.500,-1.500,-2.500
0.814,0.000,4.500,-1.500,-2.500
0.815,0.500,4.500,-1.500,-2.500
0.816,0.500,4.500,-1.500,-3.000
0.817,0.500,4.500,-1.500,-3.000
0.818,0.500,4.000,-1.000,-3.000
0.819,0.000,3.000,-1.000,-3.000
0.820,-0.500,2.500,-1.000,-2.500
0.821,-0.500,2.000,-1.000,-3.000
0.822,-1.000,2.500,-1.500,-3.000
0.823,-1.000,2.500,-1.500,-3.500
0.824,-1.000,3.000,-1.500,-4.000
0.825,-1.500,3.000,-1.500,-4.000
0.826,-2.000,2.000,-2.000,-4.500
0.827,-2.000,1.500,-2.000,-4.500
0.828,-2.000,0.500,-2.000,-4.500
0.829,-1.500,0.000,-1.500,-4.000
0.830,-1.000,-0.500,-1.000,-3.500
0.831,0.000,0.000,0.000,-2.500
0.832,0.500,0.500,0.500,-1.500
0.833,1.000,1.000,1.000,-0.500
0.834,1.500,1.500,1.500,0.500
0.835,2.000,2.500,2.000,1.500
0.836,3.000,3.500,3.000,3.000
0.837,4.000,5.000,4.500,5.000
0.838,6.000,6.000,6.500,7.500
0.839,7.500,7.500,8.500,9.500
0.840,9.000,8.000,10.000,11.500
0.841,9.500,7.500,10.500,12.000
0.842,9.500,6.500,10.000,11.500
0.843,9.000,5.000,8.500,10.000
0.844,8.000,3.000,7.000,8.000
0.845,6.500,1.500,5.000,5.500
0.846,5.500,0.500,3.500,3.500
0.847,4.000,-1.000,2.000,1.500
0.848,3.000,-2.000,1.000,-0.500
0.849,2.000,-3.000,0.000,-2.500
0.850,1.000,-4.500,-1.000,-4.000
0.851,0.000,-6.000,-2.000,-6.000
0.852,-1.000,-7.000,-2.500,-7.500
0.853,-2.000,-8.000,-3.500,-9.000
0.854,-2.500,-8.000,-4.000,-9.500
0.855,-3.000,-8.000,-4.500,-10.000
0.856,-3.500,-7.500,-4.000,-10.000
0.857,-3.500,-7.000,-4.000,-9.500
0.858,-3.000,-6.500,-3.000,-8.500
0.859,-2.500,-5.500,-2.000,-7.500
0.860,-2.000,-4.500,-1.500,-6.000
0.861,-1.000,-3.500,-0.500,-5.000
0.862,-0.500,-2.500,0.000,-4.000
0.863,0.000,-2.000,0.500,-3.500
0.864,0.500,-2.000,0.000,-3.000
0.865,0.500,-2.000,-0.500,-2.500
0.866,0.500,-2.000,-1.000,-2.500
0.867,0.500,-1.500,-1.500,-2.500
0.868,0.500,-1.000,-2.000,-2.000
0.869,0.500,-0.500,-2.500,-2.000
0.870,0.000,-0.500,-2.000,-2.000
0.871,0.500,-0.500,-1.500,-1.500
0.872,0.500,-0.500,-1.000,-2.000
0.873,1.000,-0.500,-0.500,-2.000
0.874,1.000,-0.500,-0.500,-2.000
0.875,1.000,-0.500,0.000,-2.500
0.876,1.000,-0.500,0.000,-2.500
0.877,0.500,-0.500,0.000,-2.500
0.878,0.500,-0.500,0.000,-2.500
0.879,0.500,-0.500,-0.500,-2.500
0.880,0.500,-1.000,-0.500,-2.500
0.881,0.500,-1.500,-1.000,-3.000
0.882,0.500,-2.500,-1.000,-3.000
0.883,0.500,-3.000,-1.500,-3.000
0.884,0.000,-3.500,-1.500,-3.000
0.885,-0.500,-3.500,-1.500,-2.500
0.886,-0.500,-3.500,-1.500,-2.500
0.887,-1.000,-3.000,-1.500,-2.500
0.888,-1.000,-3.000,-1.500,-3.000
0.889,-1.000,-2.500,-1.500,-3.500
0.890,-0.500,-2.500,-1.000,-3.500
0.891,-0.500,-2.500,-1.000,-3.500
0.892,0.000,-3.000,-0.500,-3.000
0.893,0.000,-3.500,-0.500,-3.000
0.894,0.000,-4.000,-0.500,-3.000
0.895,-0.500,-4.500,-0.500,-3.000
0.896,-0.500,-5.000,-0.500,-3.000
0.897,-1.000,-5.000,-0.500,-3.000
0.898,-0.500,-5.000,0.000,-3.000
0.899,0.000,-5.000,0.500,-3.000
0.900,0.000,-5.000,0.500,-2.500
0.901,0.500,-5.000,0.500,-2.000
0.902,0.500,-5.000,0.500,-2.000
0.903,0.500,-5.000,0.000,-2.000
0.904,0.500,-4.500,0.000,-2.000
0.905,0.500,-4.500,-0.500,-2.500
0.906,0.500,-4.000,-0.500,-2.500
0.907,1.000,-4.000,-0.500,-2.500
0.908,1.000,-4.000,-0.500,-3.000
0.909,1.000,-4.000,-0.500,-3.000
0.910,1.000,-4.000,-0.500,-3.500
0.911,1.000,-4.000,-0.500,-4.000
0.912,1.500,-4.000,-0.500,-4.000
0.913,1.500,-4.000,-0.500,-4.500
0.914,1.500,-4.500,0.000,-4.500
0.915,1.000,-5.000,0.000,-4.500
0.916,0.500,-5.500,0.000,-4.000
0.917,0.000,-5.500,0.000,-4.000
0.918,0.000,-5.500,0.000,-4.000
0.919,0.000,-5.500,0.000,-4.000
0.920,0.000,-5.500,0.000,-4.500
0.921,0.000,-6.500,0.000,-4.500
0.922,-0.500,-7.500,0.000,-4.500
0.923,-0.500,-8.500,0.000,-4.500
0.924,-0.500,-9.000,0.000,-4.000
0.925,0.000,-9.500,0.000,-3.500
0.926,0.500,-9.000,0.000,-3.500
0.927,0.500,-9.000,0.500,-3.000
0.928,0.500,-8.500,0.500,-3.000
0.929,0.500,-8.000,0.500,-3.000
0.930,0.500,-8.500,0.500,-3.000
0.931,0.500,-8.500,0.500,-3.000
0.932,0.500,-8.500,0.500,-3.000
0.933,1.000,-8.000,0.000,-2.500
0.934,1.500,-7.500,0.000,-2.000
0.935,1.500,-7.000,0.000,-2.000
0.936,1.500,-6.000,0.000,-2.000
0.937,1.500,-5.500,0.000,-2.000
0.938,1.500,-5.000,0.000,-2.000
0.939,2.000,-4.500,0.500,-2.000
0.940,2.500,-4.000,0.500,-2.000
0.941,2.500,-3.500,0.500,-2.500
0.942,3.000,-3.000,0.500,-2.500
0.943,2.500,-3.000,0.500,-2.500
0.944,2.000,-3.000,0.500,-2.500
0.945,1.500,-3.500,0.000,-3.000
0.946,1.000,-4.000,0.000,-3.000
0.947,1.000,-4.500,-0.500,-3.000
0.948,0.500,-5.000,-0.500,-3.000
0.949,0.500,-5.000,-0.500,-3.000
0.950,0.500,-4.500,0.000,-2.500
0.951,0.500,-4.500,0.000,-2.500
0.952,0.500,-4.000,0.500,-2.500
0.953,0.500,-4.000,0.500,-2.500
0.954,0.500,-4.000,0.000,-2.500
0.955,0.500,-3.500,0.000,-3.000
0.956,0.500,-3.500,-0.500,-3.000
0.957,0.500,-3.000,-0.500,-3.000
0.958,0.500,-2.000,-0.500,-3.500
0.959,1.000,-1.000,-0.500,-3.500
0.960,1.000,0.000,-0.500,-3.500
0.961,1.000,1.000,-0.500,-3.500
0.962,1.000,1.500,-0.500,-3.500
0.963,1.000,2.000,-1.000,-3.000
0.964,1.000,2.500,-1.000,-3.000
0.965,1.000,2.500,-1.500,-3.000
0.966,1.000,3.000,-1.500,-2.500
0.967,1.000,3.000,-1.000,-2.500
0.968,1.000,2.500,-1.000,-2.500
0.969,1.500,2.500,-0.500,-2.500
0.970,1.500,2.500,0.000,-2.500
0.971,2.000,2.500,0.500,-2.500
0.972,2.000,2.500,1.000,-2.000
0.973,2.000,2.500,1.000,-2.000
0.974,2.500,2.500,1.000,-2.000
0.975,2.500,2.500,0.000,-2.000
0.976,2.000,2.500,-0.500,-2.500
0.977,1.500,2.000,-1.000,-2.500
0.978,1.500,1.500,-1.500,-2.500
0.979,1.000,1.500,-1.500,-3.000
0.980,1.000,2.000,-2.000,-3.000
0.981,1.000,2.000,-2.000,-3.000
0.982,0.500,3.000,-2.000,-3.000
0.983,0.500,3.500,-2.000,-3.500
0.984,0.500,3.500,-2.000,-3.500
0.985,0.000,3.500,-1.500,-3.500
0.986,0.000,3.000,-1.500,-3.500
0.987,0.000,2.500,-1.000,-3.500
0.988,0.000,2.000,-1.000,-3.000
0.989,0.500,1.500,-0.500,-2.500
0.990,0.500,1.500,-0.500,-2.500
0.991,0.500,1.500,-0.500,-2.000
0.992,1.000,1.500,-0.500,-2.000
0.993,1.000,2.000,-0.500,-2.500
0.994,1.000,2.000,-0.500,-2.000
0.995,1.500,3.000,-0.500,-2.000
0.996,1.500,3.500,-0.500,-2.000
0.997,2.000,4.000,0.000,-2.000
0.998,2.000,4.500,0.000,-2.000
0.999,2.000,4.500,-0.500,-2.000
1.000,2.000,4.500,-0.500,-2.500
1.001,1.500,4.000,-1.000,-3.000
1.002,1.000,3.500,-1.000,-2.500
1.003,1.000,3.500,-0.500,-2.000
1.004,1.500,3.500,0.000,-1.500
1.005,1.500,4.000,0.500,-1.000
1.006,2.000,4.000,1.000,-1.000
1.007,2.000,4.000,0.500,-1.000
1.008,2.000,4.000,0.000,-1.500
1.009,1.500,3.000,0.000,-1.500
1.010,1.500,3.000,0.000,-1.500
1.011,1.000,2.500,0.000,-1.500
1.012,1.000,3.000,0.500,-1.500
1.013,1.000,4.000,1.000,-1.000
1.014,1.000,5.000,0.500,-1.000
1.015,1.000,5.500,0.500,-1.000
1.016,1.500,6.000,0.500,-1.000
1.017,1.500,5.500,0.000,-1.500
1.018,2.000,5.000,0.000,-1.500
1.019,2.000,4.500,0.000,-1.500
1.020,2.000,4.500,-0.500,-2.000
1.021,2.000,4.000,-1.000,-2.000
1.022,2.000,4.000,-1.000,-2.000
1.023,1.500,4.000,-1.000,-2.000
1.024,1.500,3.500,-0.500,-2.000
1.025,1.000,3.000,-0.500,-2.000
1.026,1.000,2.500,-0.500,-2.000
1.027,1.000,1.500,-1.000,-2.000
1.028,0.500,1.000,-1.500,-2.000
1.029,0.500,1.000,-1.500,-2.000
1.030,0.500,1.000,-1.500,-1.500
1.031,0.500,1.500,-1.000,-1.000
1.032,1.000,2.500,-0.500,-1.000
1.033,1.000,3.000,0.000,-0.500
1.034,1.500,3.500,0.000,-1.000
1.035,1.500,4.000,0.000,-1.000
1.036,1.500,4.000,0.000,-1.000
1.037,1.000,4.000,-0.500,-0.500
1.038,1.000,4.000,-0.500,0.000
1.039,0.500,4.000,-0.500,0.500
1.040,0.500,4.000,-0.500,0.500
1.041,1.000,4.000,-0.500,0.500
1.042,1.000,3.500,-0.500,0.000
1.043,0.500,3.500,-0.500,-0.500
1.044,0.500,3.000,-0.500,-1.500
1.045,-0.500,2.500,-0.500,-2.500
1.046,-0.500,2.000,-1.000,-3.000
1.047,-1.000,1.500,-1.500,-3.000
1.048,-0.500,1.000,-1.500,-3.000
1.049,0.000,1.500,-1.000,-2.500
1.050,0.500,1.500,-1.000,-2.000
1.051,0.500,2.000,-0.500,-1.500
1.052,0.500,2.000,0.000,-1.500
1.053,0.000,2.000,0.000,-1.500
1.054,-0.500,1.500,0.000,-1.500
1.055,-0.500,1.500,-0.500,-1.500
1.056,-1.000,1.500,-0.500,-1.500
1.057,-1.000,1.500,-0.500,-1.500
1.058,-1.000,2.000,-1.000,-1.500
1.059,-1.000,2.000,-1.000,-1.500
1.060,-1.000,1.500,-1.500,-2.000
1.061,-1.500,1.000,-1.500,-2.000
1.062,-1.500,0.000,-1.500,-2.500
1.063,-1.500,-0.500,-2.000,-2.500
1.064,-1.500,-1.000,-2.000,-2.500
1.065,-1.500,-1.000,-2.000,-2.500
1.066,-1.000,-1.000,-2.000,-2.500
1.067,-1.000,-0.500,-2.000,-2.500
1.068,-1.000,-0.500,-1.500,-2.500
1.069,-1.000,0.000,-1.000,-2.500
1.070,-1.000,0.000,-0.500,-2.500
1.071,-0.500,0.000,0.000,-2.500
1.072,-0.500,0.000,0.000,-3.000
1.073,-0.500,0.000,-0.500,-3.000
1.074,-0.500,0.000,-1.000,-3.000
1.075,0.000,0.500,-1.500,-3.000
1.076,0.000,1.000,-1.500,-3.000
1.077,0.000,1.500,-1.500,-3.000
1.078,0.000,1.500,-1.000,-3.000
1.079,-0.500,1.000,-0.500,-3.500
1.080,-0.500,0.500,0.000,-3.500
1.081,-0.500,0.000,0.000,-3.500
1.082,-0.500,-0.500,-0.500,-3.500
1.083,0.000,0.000,-0.500,-3.000
1.084,0.000,0.500,-0.500,-3.000
1.085,0.000,0.500,-0.500,-3.000
1.086,0.000,0.500,-0.500,-3.000
1.087,0.000,0.500,-0.500,-3.000
1.088,-0.500,0.500,-0.500,-3.000
1.089,-0.500,0.000,-1.000,-3.000
1.090,-0.500,0.000,-1.500,-3.000
1.091,-0.500,-0.500,-1.500,-3.000
1.092,-0.500,-0.500,-1.500,-3.500
1.093,-0.500,-0.500,-1.500,-3.500
1.094,-0.500,-0.500,-1.500,-3.000
1.095,-0.500,0.000,-1.000,-2.500
1.096,-0.500,0.500,-0.500,-2.500
1.097,0.000,1.000,-0.500,-2.500
1.098,0.500,1.000,-0.500,-2.500
1.099,1.000,1.000,-1.000,-2.500
1.100,1.000,1.000,-1.500,-3.000
1.101,1.000,1.500,-2.000,-3.000
1.102,0.500,2.000,-2.000,-3.000
1.103,0.500,3.000,-2.000,-3.000
1.104,0.500,3.000,-1.500,-3.000
1.105,0.500,2.500,-1.500,-3.000
1.106,0.500,1.500,-1.500,-3.000
1.107,0.500,0.000,-2.000,-2.500
1.108,0.500,-1.000,-2.000,-2.500
1.109,0.500,-1.000,-2.000,-2.000
1.110,0.500,-1.000,-1.500,-2.000
1.111,0.500,-0.500,-1.500,-2.000
1.112,0.000,-0.500,-1.000,-2.500
1.113,0.000,-1.000,-0.500,-3.000
1.114,-0.500,-2.000,-0.500,-3.000
1.115,-1.000,-3.000,-0.500,-2.500
1.116,-0.500,-3.000,-0.500,-2.000
1.117,-0.500,-3.500,-0.500,-1.500
1.118,0.000,-3.000,-1.000,-2.000
1.119,0.500,-3.000,-1.500,-2.000
1.120,0.000,-3.000,-2.000,-3.000
1.121,0.000,-3.000,-2.500,-3.000
1.122,-0.500,-2.500,-2.500,-3.500
1.123,-1.000,-2.500,-2.500,-3.000
1.124,-0.500,-2.000,-2.000,-2.500
1.125,-0.500,-1.500,-2.000,-2.000
1.126,0.000,-1.000,-1.500,-1.500
1.127,0.500,-1.000,-1.000,-1.500
1.128,0.500,-1.500,-0.500,-2.000
1.129,0.500,-2.000,-0.500,-2.000
1.130,0.500,-2.500,0.000,-2.500
1.131,0.500,-2.500,0.000,-2.000
1.132,0.500,-3.000,0.000,-2.000
1.133,1.000,-3.000,0.000,-1.500
1.134,1.000,-3.000,0.000,-1.500
1.135,1.000,-3.000,0.000,-1.500
1.136,1.000,-3.000,-0.500,-1.500
1.137,1.000,-3.500,-0.500,-2.000
1.138,1.000,-3.000,-0.500,-2.500
1.139,0.500,-2.500,-0.500,-2.000
1.140,0.500,-2.000,-0.500,-2.000
1.141,0.000,-1.500,-0.500,-1.500
1.142,0.000,-1.000,-0.500,-1.500
1.143,0.000,-1.000,-0.500,-1.500
1.144,0.000,-1.500,0.000,-1.500
1.145,0.500,-2.000,0.000,-2.000
1.146,1.000,-2.000,0.000,-2.000
1.147,1.000,-2.000,0.000,-1.500
1.148,1.500,-2.000,0.000,-1.500
1.149,2.000,-1.500,0.500,-1.000
1.150,2.000,-0.500,1.000,-0.500
1.151,2.500,0.500,1.500,-0.500
1.152,3.500,1.500,2.500,0.000
1.153,4.000,2.500,3.000,0.000
1.154,5.000,3.500,4.500,0.500
1.155,6.000,4.500,5.500,1.000
1.156,6.500,5.000,6.500,1.000
1.157,7.000,5.500,7.500,1.500
1.158,7.500,6.000,8.500,2.000
1.159,8.000,6.500,9.000,2.500
1.160,8.000,7.000,9.500,3.500
1.161,8.000,7.500,10.000,5.000
1.162,8.000,8.000,11.000,6.500
1.163,7.500,8.000,11.500,8.000
1.164,7.000,8.500,12.500,9.500
1.165,6.500,8.500,13.000,10.500
1.166,5.500,8.500,13.000,11.000
1.167,4.000,8.500,13.000,11.500
1.168,2.000,8.500,12.500,12.500
1.169,0.000,8.500,12.500,13.500
1.170,-2.500,8.000,12.500,15.500
1.171,-5.000,7.500,12.500,17.500
1.172,-7.000,7.000,12.500,19.000
1.173,-9.000,6.500,12.000,20.000
1.174,-11.000,6.000,11.500,20.500
1.175,-13.000,5.000,10.500,21.000
1.176,-15.000,4.500,9.500,20.500
1.177,-17.500,3.500,8.500,20.500
1.178,-20.000,2.500,7.000,20.000
1.179,-23.000,1.000,5.500,20.000
1.180,-25.000,-0.500,3.500,19.000
1.181,-27.000,-2.000,2.000,18.500
1.182,-29.000,-3.000,1.000,17.500
1.183,-30.000,-4.000,0.000,17.000
1.184,-31.000,-4.000,-0.500,16.500
1.185,-31.500,-4.000,-1.000,16.000
1.186,-32.000,-4.000,-1.500,16.000
1.187,-32.000,-4.000,-1.500,15.500
1.188,-31.500,-4.500,-1.500,15.000
1.189,-31.000,-5.000,-1.500,14.000
1.190,-30.500,-5.500,-1.500,12.500
1.191,-29.000,-6.000,-1.500,11.000
1.192,-27.500,-6.000,-2.000,9.000
1.193,-25.500,-6.000,-3.000,7.000
1.194,-23.500,-6.500,-4.500,4.000
1.195,-21.000,-7.000,-5.500,1.000
1.196,-18.500,-7.500,-7.000,-2.000
1.197,-16.000,-8.500,-7.500,-5.500
1.198,-13.500,-8.500,-8.500,-8.000
1.199,-11.500,-8.500,-8.500,-10.500
1.200,-9.500,-8.000,-8.500,-11.500
1.201,-8.000,-7.500,-8.500,-12.000
1.202,-7.000,-7.000,-8.500,-12.000
1.203,-6.000,-6.500,-8.000,-11.500
1.204,-5.000,-6.500,-8.000,-11.500
1.205,-4.000,-6.000,-8.000,-11.500
1.206,-3.000,-6.000,-8.000,-11.500
1.207,-2.000,-5.500,-8.000,-11.500
1.208,-1.500,-5.000,-8.000,-12.000
1.209,-1.000,-5.000,-8.000,-12.500
1.210,-1.500,-5.000,-8.000,-13.000
1.211,-1.500,-5.000,-7.500,-13.500
1.212,-2.000,-4.500,-7.000,-13.500
1.213,-2.000,-4.500,-6.500,-13.500
1.214,-2.000,-4.500,-6.000,-13.500
1.215,-1.500,-5.000,-5.500,-13.000
1.216,-1.500,-5.000,-5.500,-12.500
1.217,-1.000,-5.500,-5.500,-12.000
1.218,-1.000,-5.500,-5.000,-11.000
1.219,-0.500,-5.000,-4.500,-10.000
1.220,0.000,-4.500,-4.000,-9.000
1.221,0.000,-3.500,-3.000,-8.000
1.222,0.500,-2.500,-2.000,-7.000
1.223,0.500,-2.000,-1.500,-6.500
1.224,0.500,-2.000,-1.000,-6.000
1.225,-0.500,-2.500,-1.000,-6.000
1.226,-1.000,-3.000,-1.000,-5.500
1.227,-1.500,-3.500,-1.000,-5.000
1.228,-1.500,-4.000,-1.000,-4.500
1.229,-1.000,-3.500,-0.500,-4.000
1.230,-1.000,-3.500,0.000,-3.000
1.231,-1.000,-3.000,0.500,-3.000
1.232,-0.500,-3.000,0.500,-3.000
1.233,-1.000,-2.500,1.000,-2.500
1.234,-1.000,-2.500,1.000,-2.500
1.235,-0.500,-2.000,1.500,-2.000
1.236,-0.500,-2.000,1.500,-1.500
1.237,0.500,-1.500,1.500,-1.000
1.238,1.000,-1.000,1.500,-1.000
1.239,1.000,-1.000,1.000,-1.000
1.240,1.000,-1.000,1.000,-1.000
1.241,1.000,-1.500,0.500,-1.500
1.242,1.000,-2.500,0.500,-1.500
1.243,0.500,-3.000,1.000,-1.500
1.244,0.500,-3.000,1.000,-1.000
1.245,0.500,-2.500,1.000,-1.000
1.246,0.500,-2.000,1.000,-1.000
1.247,1.000,-2.000,1.000,-0.500
1.248,1.000,-1.500,1.000,-0.500
1.249,1.500,-2.000,1.000,0.000
1.250,1.500,-2.000,1.500,0.000
1.251,1.500,-3.000,1.500,-0.500
1.252,1.500,-3.500,1.500,-1.000
1.253,1.000,-4.000,1.500,-1.500
1.254,0.500,-4.500,1.000,-2.000
1.255,-0.500,-4.000,0.500,-2.500
1.256,-0.500,-3.500,0.500,-2.500
1.257,-0.500,-2.000,0.500,-2.500
1.258,-0.500,-1.000,1.000,-2.500
1.259,-0.500,-0.500,1.000,-2.500
1.260,-0.500,0.000,1.000,-2.500
1.261,-0.500,-0.500,0.500,-2.500
1.262,-0.500,-0.500,0.500,-2.500
1.263,-0.500,-1.000,0.000,-2.500
1.264,-0.500,-1.000,0.000,-2.500
1.265,0.000,-0.500,0.500,-2.500
1.266,0.500,0.000,0.500,-2.000
1.267,1.000,1.000,1.000,-1.500
1.268,1.000,1.000,1.000,-1.500
1.269,1.000,1.000,1.500,-1.000
1.270,1.000,1.000,1.500,-1.000
1.271,1.000,0.500,1.500,-1.500
1.272,0.500,0.500,2.000,-1.500
1.273,0.500,0.500,2.000,-1.500
1.274,0.500,0.500,2.000,-1.500
1.275,1.000,0.000,2.000,-1.000
1.276,1.000,-0.500,2.000,-1.000
1.277,0.500,-1.000,1.500,-1.000
1.278,0.500,-1.500,1.000,-1.000
1.279,0.000,-2.000,0.500,-1.500
1.280,-0.500,-2.000,0.500,-2.000
1.281,-0.500,-2.500,0.500,-2.000
1.282,-0.500,-2.000,0.500,-1.500
1.283,-0.500,-2.000,1.000,-1.000
1.284,0.500,-1.500,1.500,-0.500
1.285,0.500,-1.000,1.500,-0.500
1.286,1.000,-0.500,1.500,-0.500
1.287,1.000,-0.500,1.000,-1.000
1.288,0.500,-0.500,0.500,-1.500
1.289,0.000,-0.500,0.000,-2.000
1.290,-0.500,-0.500,-0.500,-2.500
1.291,-1.000,-0.500,-0.500,-3.000
1.292,-1.000,-1.000,-1.000,-3.500
1.293,-1.500,-1.000,-2.000,-4.000
1.294,-2.000,-1.000,-2.000,-4.500
1.295,-2.500,-1.000,-2.500,-4.500
1.296,-2.500,-0.500,-2.000,-4.000
1.297,-2.500,0.000,-1.000,-3.000
1.298,-2.500,0.500,0.000,-2.000
1.299,-1.500,1.500,1.500,-0.500
1.300,-1.000,2.000,2.000,0.500
1.301,0.000,2.500,2.500,1.500
1.302,0.500,3.000,3.000,2.500
1.303,1.500,3.500,3.500,3.500
1.304,2.000,4.000,4.500,4.500
1.305,3.000,5.500,6.000,6.500
1.306,4.000,7.000,7.500,8.500
1.307,5.500,8.500,8.500,11.000
1.308,6.500,10.000,9.000,12.500
1.309,7.000,10.500,9.500,14.000
1.310,7.500,10.000,9.000,14.000
1.311,7.000,9.000,9.000,13.500
1.312,6.500,7.500,8.500,12.000
1.313,6.000,5.500,8.000,10.500
1.314,5.000,4.000,7.000,9.000
1.315,4.000,2.500,6.000,7.500
1.316,2.500,1.000,5.000,5.500
1.317,1.000,-0.500,3.500,3.500
1.318,-0.500,-2.000,2.000,1.000
1.319,-2.000,-3.000,0.500,-2.000
1.320,-3.000,-4.000,-0.500,-4.000
1.321,-3.500,-4.500,-1.000,-5.500
1.322,-4.000,-4.500,-1.500,-6.500
1.323,-4.500,-4.000,-1.500,-6.500
1.324,-5.000,-3.500,-1.500,-6.000
1.325,-5.500,-3.000,-1.000,-5.000
1.326,-6.000,-2.500,-1.000,-4.500
1.327,-5.500,-2.000,-0.500,-4.000
1.328,-5.000,-1.000,0.000,-3.000
1.329,-4.500,0.000,0.000,-2.000
1.330,-3.500,1.000,0.500,-1.000
1.331,-3.000,2.000,1.000,0.000
1.332,-2.500,3.000,1.000,0.500
1.333,-2.500,3.500,1.500,1.000
1.334,-2.500,3.500,2.000,1.000
1.335,-2.500,3.500,2.000,1.000
1.336,-2.500,3.500,2.000,0.500
1.337,-3.000,3.500,2.500,0.500
1.338,-3.000,3.500,3.000,0.500
1.339,-3.000,3.500,3.000,1.000
1.340,-3.500,3.500,3.500,1.000
1.341,-3.500,3.500,3.000,1.000
1.342,-3.500,3.500,3.000,1.000
1.343,-3.500,3.500,3.000,1.000
1.344,-3.000,4.000,3.000,0.500
1.345,-3.500,4.000,2.500,0.500
1.346,-3.500,4.500,2.500,0.500
1.347,-3.500,5.000,2.000,0.500
1.348,-3.500,5.000,1.500,0.500
1.349,-3.500,5.000,1.500,0.500
1.350,-3.500,4.500,1.500,0.500
1.351,-3.000,4.500,2.000,0.500
1.352,-3.000,4.000,2.500,1.000
1.353,-3.000,4.000,3.000,1.000
1.354,-3.500,4.500,3.000,1.500
1.355,-4.000,4.500,3.000,1.500
1.356,-4.000,4.500,3.000,1.500
1.357,-4.000,4.500,3.000,1.500
1.358,-4.000,4.000,3.000,1.500
1.359,-4.000,4.000,3.000,2.000
1.360,-4.000,4.000,3.000,2.500
1.361,-4.000,4.500,3.000,2.500
1.362,-4.000,5.000,3.000,3.000
1.363,-4.000,5.500,3.000,3.000
1.364,-4.500,6.000,3.000,3.000
1.365,-4.500,6.000,3.500,3.000
1.366,-4.500,5.000,4.000,3.500
1.367,-5.000,4.500,4.000,4.000
1.368,-5.000,4.000,4.000,4.500
1.369,-5.500,4.000,3.500,4.500
1.370,-6.000,4.000,3.500,4.500
1.371,-6.000,4.000,3.000,4.500
1.372,-6.500,4.000,3.000,4.000
1.373,-6.500,4.500,3.000,4.000
1.374,-6.500,4.500,3.000,4.000
1.375,-7.000,4.500,3.500,4.500
1.376,-7.000,4.500,4.000,5.000
1.377,-7.000,4.500,4.000,5.000
1.378,-7.000,4.500,4.000,5.000
1.379,-7.000,5.000,3.500,5.000
1.380,-7.500,5.000,3.000,5.000
1.381,-7.500,5.500,3.000,5.000
1.382,-8.000,6.500,2.500,5.000
1.383,-8.000,7.000,2.000,5.000
1.384,-8.000,7.000,2.000,5.000
1.385,-8.000,7.500,2.000,5.000
1.386,-8.500,7.500,2.000,5.000
1.387,-9.000,7.000,1.500,5.000
1.388,-9.000,6.500,1.500,4.500
1.389,-9.500,6.500,1.500,4.500
1.390,-10.000,6.000,2.000,4.500
1.391,-10.000,6.000,2.000,5.000
1.392,-10.000,6.000,2.500,5.500
1.393,-10.000,5.500,3.000,6.500
1.394,-9.500,5.500,3.000,7.000
1.395,-9.000,5.500,3.000,7.000
1.396,-8.500,5.500,3.000,7.000
1.397,-8.500,5.500,2.500,7.000
1.398,-8.500,5.500,2.500,6.500
1.399,-9.000,5.500,2.500,6.500
1.400,-9.500,6.000,3.000,7.000
1.401,-10.000,6.000,3.000,7.000
1.402,-10.000,6.000,3.000,7.000
1.403,-10.000,6.000,2.500,7.000
1.404,-10.000,6.000,2.500,7.000
1.405,-10.000,6.000,2.000,7.000
1.406,-10.000,6.000,2.000,7.000
1.407,-10.000,6.500,2.000,7.000
1.408,-10.000,6.500,2.000,7.500
1.409,-10.000,6.500,2.000,7.500
1.410,-10.000,6.500,2.000,7.500
1.411,-10.500,6.500,2.000,7.500
1.412,-10.500,6.000,2.000,7.000
1.413,-10.500,6.000,2.000,7.000
1.414,-10.500,6.000,2.000,7.000
1.415,-10.500,6.000,2.000,7.500
1.416,-10.000,6.000,2.000,7.500
1.417,-10.500,6.500,2.000,7.500
1.418,-10.500,7.000,2.500,7.500
1.419,-10.500,7.000,2.500,7.500
1.420,-11.000,7.500,3.000,7.000
1.421,-11.000,7.500,3.000,7.000
1.422,-11.000,7.500,3.000,6.500
1.423,-10.500,7.500,3.000,7.000
1.424,-10.000,7.500,3.500,7.000
1.425,-9.500,7.500,4.000,7.500
1.426,-9.000,7.500,4.000,7.500
1.427,-8.500,7.500,4.000,7.500
1.428,-8.000,7.500,4.000,7.500
1.429,-7.500,8.000,3.500,7.000
1.430,-7.500,8.000,3.500,7.000
1.431,-8.000,8.000,3.000,6.500
1.432,-8.000,8.500,3.000,6.500
1.433,-7.500,8.500,3.500,6.500
1.434,-7.500,8.500,3.500,7.000
1.435,-7.000,8.500,3.500,7.000
1.436,-6.500,8.500,3.500,7.000
1.437,-6.000,8.500,3.000,6.500
1.438,-6.000,8.500,3.000,5.500
1.439,-6.000,8.000,2.500,5.000
1.440,-6.000,8.000,2.000,4.500
1.441,-6.000,7.500,1.500,4.500
1.442,-5.500,7.500,1.500,4.500
1.443,-5.000,7.500,2.500,4.500
1.444,-4.500,7.500,3.000,4.500
1.445,-4.000,7.000,3.500,4.500
1.446,-3.500,7.000,4.000,4.000
1.447,-3.500,7.000,4.000,4.000
1.448,-3.500,7.000,3.500,4.000
1.449,-3.500,7.000,3.000,3.500
1.450,-4.000,7.000,3.000,3.500
1.451,-4.000,6.500,3.000,3.000
1.452,-3.500,6.000,3.000,2.500
1.453,-3.000,5.500,3.000,2.000
1.454,-2.500,5.500,3.000,1.500
1.455,-2.000,5.500,3.000,1.000
1.456,-2.000,6.000,3.000,1.000
1.457,-1.500,6.500,3.000,1.000
1.458,-1.500,7.000,3.500,1.500
1.459,-1.000,7.000,4.000,1.500
1.460,-1.000,7.500,4.500,2.000
1.461,-0.500,7.500,4.500,2.000
1.462,0.000,7.500,4.000,2.500
1.463,0.000,7.500,4.000,2.500
1.464,0.000,7.000,4.000,2.000
1.465,0.000,7.000,4.000,2.000
1.466,0.000,7.000,3.500,1.500
1.467,0.000,7.000,3.500,1.500
1.468,0.500,7.000,3.000,1.500
1.469,0.500,7.500,2.500,1.500
1.470,1.000,7.500,2.000,1.500
1.471,1.000,8.000,2.000,1.000
1.472,0.500,8.000,1.500,1.000
1.473,0.000,7.500,1.500,0.000
1.474,-0.500,7.500,1.000,-0.500
1.475,-0.500,7.000,1.000,-1.000
1.476,0.000,6.500,1.500,-1.000
1.477,0.000,6.000,1.500,-1.000
1.478,0.500,6.000,2.000,-0.500
1.479,0.500,6.000,2.500,0.000
1.480,1.000,6.000,2.500,0.000
1.481,0.500,6.000,2.500,0.000
1.482,0.500,6.500,2.000,-0.500
1.483,0.500,6.500,1.500,-0.500
1.484,0.500,6.500,1.500,-1.000
1.485,1.000,6.500,1.500,-1.000
1.486,1.000,7.000,1.500,-1.500
1.487,1.500,7.000,1.500,-1.500
1.488,1.500,7.000,1.500,-1.500
1.489,1.000,7.000,1.000,-2.000
1.490,1.000,6.500,1.000,-2.000
1.491,0.500,6.000,0.500,-2.500
1.492,0.500,5.500,0.500,-2.500
1.493,0.000,5.000,0.000,-3.000
1.494,0.500,4.500,-0.500,-3.000
1.495,0.500,4.500,-0.500,-3.500
1.496,0.500,4.500,-0.500,-4.000
1.497,0.500,4.500,-1.000,-3.500
1.498,0.500,5.000,-0.500,-3.000
1.499,0.500,5.500,-0.500,-2.500
1.500,0.500,5.500,0.000,-2.500
1.501,1.000,5.500,0.000,-2.000
1.502,1.000,5.500,0.500,-2.000
1.503,1.500,5.000,0.500,-2.500
1.504,1.500,5.000,0.000,-2.500
1.505,1.500,4.500,0.000,-2.500
1.506,1.500,4.500,-0.500,-2.500
1.507,1.000,4.000,-1.000,-2.500
1.508,1.000,4.500,-1.000,-2.500
1.509,1.000,4.500,-1.000,-2.500
1.510,1.000,4.500,-0.500,-2.500
1.511,1.000,4.500,-0.500,-2.500
1.512,1.000,4.500,-0.500,-2.500
1.513,1.500,4.500,-0.500,-2.000
1.514,1.500,4.000,-0.500,-2.000
1.515,1.500,3.500,-1.000,-2.500
1.516,1.000,3.000,-1.000,-2.500
1.517,0.500,3.000,-1.000,-3.000
1.518,0.500,2.500,-1.000,-3.500
1.519,0.000,2.500,-1.000,-4.000
1.520,0.500,3.000,-1.000,-4.000
1.521,0.500,3.000,-1.000,-3.500
1.522,1.000,3.500,-1.000,-3.000
1.523,1.000,3.500,-0.500,-3.000
1.524,1.000,3.500,-0.500,-2.500
1.525,0.500,3.500,0.000,-2.500
1.526,0.500,3.500,0.000,-2.500
1.527,0.500,3.500,0.000,-2.500
1.528,0.500,3.500,-0.500,-2.500
1.529,1.000,3.000,-0.500,-2.500
1.530,1.500,2.500,-0.500,-2.500
1.531,1.500,2.000,-0.500,-2.500
1.532,1.500,1.500,-0.500,-3.000
1.533,1.500,1.000,-0.500,-3.000
1.534,1.500,0.500,-0.500,-3.000
1.535,1.500,0.500,-1.000,-3.000
1.536,1.000,0.000,-1.000,-3.000
1.537,1.000,0.000,-1.000,-3.500
1.538,0.500,-0.500,-1.000,-3.500
1.539,0.000,-1.500,-1.500,-4.000
1.540,-0.500,-2.000,-1.500,-4.000
1.541,-0.500,-2.000,-1.500,-4.500
1.542,0.000,-1.500,-1.500,-4.500
1.543,0.500,-1.000,-1.000,-4.500
1.544,1.000,-0.500,0.000,-4.000
1.545,1.500,0.000,0.500,-4.000
1.546,1.000,-0.500,1.000,-4.000
1.547,1.000,-1.500,1.000,-4.000
1.548,1.000,-2.000,0.500,-4.000
1.549,1.000,-3.000,0.000,-4.000
1.550,1.000,-3.000,-0.500,-3.500
1.551,1.000,-3.000,-0.500,-3.000
1.552,1.500,-3.000,0.000,-3.000
1.553,1.500,-3.000,0.000,-3.000
1.554,1.500,-3.500,0.500,-3.500
1.555,1.000,-4.500,0.500,-3.500
1.556,1.000,-4.500,0.000,-4.000
1.557,0.500,-5.000,-0.500,-4.500
1.558,0.500,-5.000,-0.500,-4.500
1.559,0.500,-4.500,-1.000,-4.500
1.560,0.500,-5.000,-1.000,-4.500
1.561,0.500,-5.500,-1.000,-4.500
1.562,0.500,-6.000,-1.000,-4.000
1.563,1.000,-6.500,-0.500,-4.000
1.564,0.500,-6.500,0.000,-4.000
1.565,0.500,-6.000,0.000,-3.500
1.566,0.500,-5.500,0.500,-3.500
1.567,0.000,-5.500,0.000,-3.000
1.568,0.000,-5.500,0.000,-3.000
1.569,0.000,-6.500,-0.500,-3.000
1.570,0.000,-7.000,-0.500,-3.500
1.571,0.000,-8.000,-0.500,-3.500
1.572,0.000,-8.500,-0.500,-3.000
1.573,0.000,-8.500,0.000,-3.000
1.574,0.000,-8.500,0.500,-2.500
1.575,0.000,-8.000,0.500,-2.500
1.576,0.000,-8.000,1.000,-3.000
1.577,0.000,-8.000,1.000,-3.000
1.578,0.000,-8.000,1.000,-3.000
1.579,0.000,-8.000,1.000,-3.500
1.580,0.000,-7.500,1.000,-3.500
1.581,0.000,-8.000,1.000,-3.500
1.582,0.000,-8.500,1.000,-3.500
1.583,0.000,-9.000,1.000,-3.500
1.584,0.000,-9.500,1.000,-3.500
1.585,0.000,-9.500,1.500,-3.500
1.586,0.000,-9.000,1.500,-3.500
1.587,0.500,-8.500,1.500,-3.000
1.588,0.500,-7.500,2.000,-3.000
1.589,1.000,-7.000,1.500,-2.500
1.590,1.000,-6.500,1.500,-2.500
1.591,1.000,-6.500,1.000,-2.500
1.592,1.000,-6.500,0.500,-3.000
1.593,1.000,-7.000,0.000,-3.000
1.594,0.500,-7.000,0.000,-3.000
1.595,0.500,-6.500,0.000,-3.000
1.596,0.500,-6.500,0.000,-2.500
1.597,0.500,-6.500,0.500,-2.500
1.598,0.500,-7.000,1.000,-2.500
1.599,1.000,-7.000,1.000,-2.500
1.600,1.000,-7.000,1.000,-2.500
1.601,1.000,-7.500,0.500,-2.500
1.602,1.000,-7.500,0.000,-2.500
1.603,0.500,-8.000,-0.500,-2.500
1.604,0.500,-8.000,-0.500,-2.500
1.605,0.500,-8.500,-0.500,-3.000
1.606,0.500,-8.500,0.000,-3.000
1.607,0.500,-8.500,0.000,-3.000
1.608,0.500,-8.500,0.500,-3.500
1.609,0.500,-8.500,0.000,-3.000
1.610,0.000,-8.500,0.000,-3.000
1.611,0.000,-9.000,0.500,-2.500
1.612,0.500,-8.500,0.500,-2.000
1.613,1.000,-8.500,1.000,-2.000
1.614,1.500,-8.000,1.000,-2.000
1.615,1.500,-7.500,0.500,-2.500
1.616,1.000,-7.000,0.500,-2.500
1.617,0.500,-7.000,0.000,-3.000
1.618,0.000,-7.000,0.000,-3.000
1.619,0.000,-7.000,0.000,-3.000
1.620,0.500,-7.500,0.000,-3.000
1.621,0.500,-7.000,0.000,-3.500
1.622,1.000,-7.000,-0.500,-3.500
1.623,1.000,-6.500,-0.500,-3.000
1.624,1.000,-6.500,0.000,-3.000
1.625,1.000,-6.000,0.000,-2.500
1.626,1.000,-6.500,0.500,-2.500
1.627,0.500,-6.500,0.500,-2.000
1.628,0.500,-7.000,0.000,-2.000
1.629,0.500,-7.000,0.000,-2.000
1.630,0.500,-7.000,-0.500,-2.000
1.631,0.500,-6.500,-0.500,-2.000
1.632,1.000,-6.000,-0.500,-2.000
1.633,1.500,-6.000,-0.500,-2.000
1.634,1.500,-6.500,-0.500,-2.000
1.635,1.500,-7.000,-0.500,-2.000
1.636,1.500,-7.500,-0.500,-2.000
1.637,1.000,-8.000,0.000,-2.000
1.638,1.000,-8.000,0.500,-1.500
1.639,1.500,-7.500,1.000,-1.000
1.640,1.500,-7.000,1.500,-1.000
1.641,2.000,-6.500,1.500,-1.500
1.642,2.000,-6.000,1.000,-1.500
1.643,2.000,-5.500,1.000,-1.500
1.644,2.000,-5.500,1.000,-1.500
1.645,2.000,-5.500,1.000,-1.500
1.646,1.500,-5.500,1.000,-1.500
1.647,1.000,-5.500,0.500,-2.000
1.648,0.500,-5.500,0.000,-2.500
1.649,0.500,-5.500,-0.500,-3.000
1.650,0.500,-5.500,-0.500,-2.500
1.651,0.500,-5.500,-0.500,-2.000
1.652,0.500,-5.500,-0.500,-2.000
1.653,0.500,-6.000,-0.500,-2.000
1.654,0.500,-6.500,-1.000,-2.000
1.655,0.500,-7.000,-1.500,-2.500
1.656,0.000,-7.500,-1.500,-3.000
1.657,-0.500,-7.500,-1.500,-3.000
1.658,-0.500,-7.000,-1.000,-3.000
1.659,-0.500,-7.000,-0.500,-2.500
1.660,0.000,-7.000,0.500,-2.000
1.661,0.000,-7.500,0.500,-2.000
1.662,0.000,-8.000,0.500,-2.000
1.663,0.500,-8.000,0.500,-2.500
1.664,0.500,-8.000,0.000,-3.000
1.665,0.500,-8.000,0.000,-3.000
1.666,0.000,-7.500,0.000,-3.000
1.667,0.000,-7.000,0.000,-3.000
1.668,0.000,-6.500,0.000,-2.500
1.669,0.000,-6.000,-0.500,-2.500
1.670,0.000,-6.000,-0.500,-3.000
1.671,0.000,-5.500,-1.000,-3.000
1.672,0.000,-5.500,-1.000,-3.500
1.673,0.000,-5.500,-1.500,-4.000
1.674,-0.500,-5.500,-1.500,-4.000
1.675,-0.500,-5.000,-1.500,-4.000
1.676,-0.500,-4.500,-1.500,-4.000
1.677,0.000,-4.000,-2.000,-3.500
1.678,0.500,-3.000,-2.000,-4.000
1.679,1.000,-2.500,-2.000,-4.000
1.680,0.500,-2.500,-2.000,-4.000
1.681,0.500,-2.500,-2.000,-3.500
1.682,0.500,-2.500,-1.000,-3.000
1.683,0.500,-3.000,-0.500,-2.500
1.684,1.000,-3.000,0.500,-2.000
1.685,1.500,-3.000,0.500,-2.500
1.686,1.500,-3.000,0.500,-3.000
1.687,1.000,-3.500,-0.500,-3.500
1.688,0.500,-4.000,-1.000,-3.500
1.689,-0.500,-4.000,-1.500,-3.500
1.690,-0.500,-4.500,-1.500,-3.000
1.691,0.000,-4.000,-1.000,-2.500
1.692,0.500,-3.500,-0.500,-2.500
1.693,1.000,-3.000,-0.500,-3.000
1.694,1.500,-3.000,-0.500,-3.000
1.695,1.000,-3.000,-0.500,-3.500
1.696,1.000,-3.000,-1.000,-3.500
1.697,0.500,-3.500,-1.500,-4.000
1.698,1.000,-4.000,-1.500,-4.000
1.699,1.000,-4.000,-1.500,-4.000
1.700,1.500,-4.000,-1.000,-4.500
1.701,1.500,-4.000,-1.000,-4.000
1.702,1.500,-3.500,-1.000,-4.000
1.703,1.500,-3.000,-0.500,-3.500
1.704,1.500,-2.500,-0.500,-3.000
1.705,1.500,-2.000,-0.500,-2.500
1.706,1.500,-1.500,0.000,-2.500
1.707,2.000,-1.500,0.500,-2.500
1.708,2.000,-1.500,0.500,-3.000
1.709,1.500,-2.000,0.500,-3.000
1.710,1.500,-2.000,0.500,-3.500
1.711,1.000,-2.500,0.500,-3.000
1.712,1.000,-2.500,0.500,-2.500
1.713,0.500,-3.000,0.500,-2.500
1.714,0.500,-3.500,0.500,-2.000
1.715,0.500,-4.000,0.000,-2.000
1.716,0.500,-4.500,0.000,-2.500
1.717,0.000,-5.000,0.000,-2.500
1.718,-0.500,-5.500,0.000,-3.000
1.719,-0.500,-5.000,-0.500,-3.500
1.720,-0.500,-5.000,-0.500,-3.500
1.721,-0.500,-4.500,-1.000,-3.500
1.722,0.000,-4.000,-1.000,-3.000
1.723,0.000,-3.500,-1.500,-3.000
1.724,-0.500,-3.000,-1.500,-3.000
1.725,-0.500,-2.500,-1.000,-3.500
1.726,-0.500,-2.000,-1.000,-3.500
1.727,-0.500,-1.500,-1.500,-4.000
1.728,-1.000,-1.500,-1.500,-4.000
1.729,-1.000,-1.500,-2.000,-4.000
1.730,-1.000,-1.500,-2.000,-4.000
1.731,-1.000,-2.000,-2.000,-4.500
1.732,-1.000,-2.500,-1.500,-4.500
1.733,-1.000,-2.500,-1.500,-4.500
1.734,-1.000,-3.000,-1.500,-4.500
1.735,-1.000,-3.000,-2.000,-4.000
1.736,-1.000,-2.500,-2.500,-4.000
1.737,-1.000,-2.500,-3.000,-4.000
1.738,-1.500,-2.000,-3.000,-4.000
1.739,-1.500,-2.000,-3.000,-4.000
1.740,-1.500,-2.000,-3.000,-4.000
1.741,-1.000,-2.000,-3.000,-4.500
1.742,-1.000,-1.500,-2.500,-4.500
1.743,-1.000,-1.000,-2.500,-4.500
1.744,-1.000,-0.500,-2.500,-4.500
1.745,-1.000,0.000,-2.000,-4.500
1.746,-0.500,0.500,-2.000,-4.000
1.747,-0.500,0.500,-2.500,-3.500
1.748,-0.500,0.500,-2.500,-3.500
1.749,-0.500,0.000,-3.000,-3.500
1.750,-0.500,-0.500,-3.500,-4.000
1.751,-1.000,-1.000,-4.000,-4.500
1.752,-1.500,-1.500,-4.000,-5.000
1.753,-1.500,-2.000,-4.000,-5.000
1.754,-1.000,-2.000,-3.500,-4.500
1.755,-0.500,-2.000,-3.000,-4.500
1.756,0.000,-2.500,-3.000,-4.000
1.757,0.000,-3.000,-3.000,-4.000
1.758,0.000,-3.500,-3.000,-4.500
1.759,-0.500,-4.000,-3.500,-5.000
1.760,-1.000,-5.000,-3.500,-5.500
1.761,-1.000,-5.500,-4.000,-5.500
1.762,-1.000,-5.500,-4.000,-5.500
1.763,-1.000,-6.000,-4.000,-5.500
1.764,-1.000,-6.000,-4.000,-5.500
1.765,-1.000,-6.000,-4.000,-5.000
1.766,-1.000,-6.000,-3.500,-4.500
1.767,-1.000,-5.500,-3.000,-4.000
1.768,-0.500,-5.000,-2.500,-4.000
1.769,0.500,-4.500,-2.500,-3.500
1.770,1.000,-3.500,-2.500,-3.500
1.771,1.000,-3.000,-2.000,-2.500
1.772,1.500,-2.000,-2.000,-2.000
1.773,2.000,-1.000,-1.000,-1.000
1.774,2.500,0.000,0.000,0.500
1.775,3.000,1.000,1.000,2.000
1.776,4.000,2.500,2.500,4.000
1.777,5.500,3.500,3.500,5.500
1.778,6.500,5.000,4.500,7.500
1.779,7.500,6.000,5.000,8.500
1.780,8.000,6.500,5.500,9.000
1.781,8.000,7.000,5.000,9.000
1.782,8.000,6.500,5.000,8.000
1.783,7.500,5.000,4.500,7.000
1.784,7.000,3.500,4.000,5.000
1.785,6.000,1.500,3.000,3.500
1.786,4.500,0.000,1.500,1.000
1.787,3.000,-2.000,-0.500,-1.500
1.788,1.500,-3.000,-2.500,-4.000
1.789,0.000,-4.500,-4.000,-7.000
1.790,-1.500,-6.000,-5.500,-9.500
1.791,-2.500,-7.000,-6.000,-11.000
1.792,-3.000,-7.500,-6.000,-12.000
1.793,-3.000,-8.000,-5.500,-12.500
1.794,-2.500,-7.500,-5.500,-12.000
1.795,-2.500,-7.000,-5.000,-11.000
1.796,-2.000,-6.500,-4.500,-10.000
1.797,-1.500,-6.000,-4.000,-9.000
1.798,-1.000,-5.500,-3.000,-8.000
1.799,-0.500,-5.000,-2.000,-7.500
1.800,0.000,-5.000,-1.500,-7.000
1.801,0.000,-5.000,-1.000,-6.500
1.802,0.000,-5.000,-1.500,-6.000
1.803,-0.500,-5.000,-1.500,-6.000
1.804,-0.500,-5.000,-1.500,-5.500
1.805,-0.500,-5.000,-1.500,-5.000
1.806,0.000,-5.000,-1.000,-4.500
1.807,1.000,-5.000,-0.500,-4.000
1.808,1.500,-4.500,-0.500,-3.500
1.809,2.000,-4.000,-0.500,-3.500
1.810,2.000,-4.000,-0.500,-3.500
1.811,2.000,-4.000,-0.500,-4.000
1.812,1.500,-4.000,-0.500,-4.000
1.813,1.000,-4.500,-1.000,-3.500
1.814,0.500,-4.500,-1.000,-3.500
1.815,0.000,-5.000,-1.000,-3.000
1.816,-0.500,-5.000,-1.500,-3.000
1.817,0.000,-5.000,-1.500,-3.000
1.818,0.500,-4.500,-1.500,-3.000
1.819,1.000,-4.500,-1.500,-3.000
1.820,1.500,-4.500,-1.500,-2.500
1.821,1.500,-4.000,-1.500,-2.500
1.822,2.000,-4.000,-1.000,-2.000
1.823,2.000,-4.000,-0.500,-1.500
1.824,2.000,-4.000,0.000,-1.000
1.825,2.500,-3.500,1.000,-1.000
1.826,3.500,-3.000,2.000,-0.500
1.827,4.500,-2.500,3.000,0.000
1.828,6.000,-2.000,4.000,1.000
1.829,6.500,-1.000,5.000,2.000
1.830,7.500,0.000,6.000,3.000
1.831,7.500,1.000,7.000,4.000
1.832,8.000,1.500,8.000,4.500
1.833,7.500,2.500,8.500,5.500
1.834,7.500,3.000,9.000,6.500
1.835,7.000,3.500,9.500,7.500
1.836,6.000,3.500,9.500,8.500
1.837,5.000,3.500,9.500,9.500
1.838,4.000,3.500,10.000,10.500
1.839,2.500,3.500,10.000,11.500
1.840,0.500,3.500,10.500,12.500
1.841,-1.500,3.500,10.500,14.000
1.842,-3.500,3.000,10.500,15.000
1.843,-6.000,2.500,10.500,16.500
1.844,-8.500,2.000,10.500,18.000
1.845,-10.500,1.000,10.500,19.000
1.846,-12.500,0.000,10.000,20.000
1.847,-15.000,-1.000,9.500,20.000
1.848,-17.000,-2.500,8.500,20.000
1.849,-19.500,-3.500,7.000,20.000
1.850,-22.000,-5.000,5.500,19.500
1.851,-24.500,-6.000,4.000,19.000
1.852,-26.500,-6.500,2.500,18.500
1.853,-28.500,-7.000,0.500,17.500
1.854,-30.000,-7.500,-1.000,16.500
1.855,-31.000,-8.000,-2.000,15.000
1.856,-32.000,-9.000,-3.000,14.000
1.857,-32.500,-9.500,-3.000,13.500
1.858,-33.000,-9.500,-2.500,13.500
1.859,-33.000,-9.500,-1.500,14.000
1.860,-32.000,-9.000,-1.000,14.000
1.861,-31.000,-8.000,-0.500,14.000
1.862,-29.500,-7.500,-0.500,12.500
1.863,-28.000,-7.500,-1.500,10.500
1.864,-26.000,-8.000,-2.500,7.500
1.865,-23.500,-8.500,-3.500,4.500
1.866,-21.500,-9.000,-4.500,1.500
1.867,-19.000,-9.000,-6.000,-1.000
1.868,-17.000,-9.500,-7.500,-3.500
1.869,-14.500,-9.500,-8.500,-5.500
1.870,-12.500,-10.000,-9.500,-7.000
1.871,-10.500,-10.000,-10.000,-8.000
1.872,-9.000,-10.000,-10.000,-8.500
1.873,-7.500,-10.000,-10.000,-9.000
1.874,-6.500,-10.000,-10.000,-10.000
1.875,-6.000,-9.500,-10.000,-10.500
1.876,-5.500,-9.500,-10.500,-11.000
1.877,-5.000,-9.000,-10.000,-11.000
1.878,-4.500,-8.500,-9.500,-11.000
1.879,-3.500,-7.500,-9.000,-10.500
1.880,-3.000,-7.000,-8.500,-10.500
1.881,-2.500,-6.500,-8.500,-10.500
1.882,-2.000,-6.000,-9.500,-11.000
1.883,-2.000,-6.000,-10.000,-12.000
1.884,-2.000,-6.000,-11.000,-12.000
1.885,-2.000,-6.000,-11.000,-12.000
1.886,-2.000,-5.500,-10.500,-12.000
1.887,-2.000,-5.500,-9.500,-11.500
1.888,-1.500,-5.000,-9.000,-11.000
1.889,-1.500,-4.500,-8.500,-11.000
1.890,-1.500,-4.500,-8.000,-10.500
1.891,-1.500,-4.000,-7.500,-10.000
1.892,-1.500,-3.500,-7.000,-9.000
1.893,-1.000,-3.000,-6.000,-8.000
1.894,-1.000,-2.000,-5.000,-6.500
1.895,-0.500,-1.500,-4.500,-5.500
1.896,0.000,-0.500,-4.000,-5.000
1.897,0.500,-0.500,-3.500,-5.000
1.898,1.000,-0.500,-3.000,-5.000
1.899,0.500,-0.500,-2.500,-5.000
1.900,0.500,-1.000,-2.000,-4.500
1.901,0.500,-1.000,-1.500,-3.500
1.902,0.000,-0.500,-0.500,-2.000
1.903,0.500,0.000,-0.500,-1.000
1.904,0.500,1.000,0.000,-0.500
1.905,1.000,1.500,0.000,-0.500
1.906,1.500,2.000,0.500,-0.500
1.907,2.000,2.000,1.000,-0.500
1.908,2.000,1.500,1.000,-0.500
1.909,2.000,1.000,1.000,-0.500
1.910,2.000,0.500,1.000,0.000
1.911,1.500,0.000,1.000,0.000
1.912,1.500,0.000,1.000,0.000
1.913,2.000,0.000,1.000,0.000
1.914,2.000,-0.500,1.000,-0.500
1.915,2.000,-0.500,1.000,-0.500
1.916,2.000,-1.000,1.000,-0.500
1.917,1.500,-1.500,1.000,0.000
1.918,1.500,-2.000,0.500,0.500
1.919,1.500,-2.500,0.000,0.500
1.920,1.000,-3.000,-0.500,0.000
1.921,1.000,-3.000,-0.500,-1.000
1.922,1.000,-3.500,-1.000,-1.500
1.923,1.000,-3.500,-0.500,-2.000
1.924,1.000,-3.500,-0.500,-2.000
1.925,1.500,-3.000,-0.500,-1.500
1.926,1.500,-3.000,-0.500,-0.500
1.927,1.500,-2.500,0.000,0.000
1.928,1.500,-2.500,0.500,0.500
1.929,1.500,-3.000,0.500,0.000
1.930,1.500,-3.500,1.000,-0.500
1.931,1.500,-4.000,1.500,-0.500
1.932,1.500,-4.500,1.500,-1.000
1.933,1.500,-4.000,1.500,-0.500
1.934,1.500,-3.500,1.000,-0.500
1.935,1.500,-2.500,1.000,-0.500
1.936,1.000,-2.500,0.500,-0.500
1.937,1.000,-2.000,0.500,-1.000
1.938,1.000,-2.000,0.000,-1.000
1.939,0.500,-2.000,0.000,-0.500
1.940,0.500,-1.500,-0.500,-0.500
1.941,0.000,-1.000,-0.500,0.000
1.942,0.000,-0.500,-0.500,0.000
1.943,0.000,0.000,-0.500,0.000
1.944,0.500,0.000,-0.500,-0.500
1.945,0.500,-0.500,-0.500,-1.000
1.946,0.000,-1.500,-1.000,-1.500
1.947,-0.500,-2.500,-1.500,-2.000
1.948,-1.000,-3.000,-2.000,-2.000
1.949,-1.500,-3.500,-2.000,-1.500
1.950,-1.500,-3.000,-2.000,-0.500
1.951,-1.000,-2.500,-1.500,0.000
1.952,-0.500,-2.000,-1.000,0.500
1.953,0.000,-2.000,-0.500,0.500
1.954,0.500,-2.000,-0.500,0.500
1.955,0.500,-2.500,0.000,0.500
1.956,0.000,-3.000,0.000,0.500
1.957,0.000,-3.000,0.500,0.500
1.958,-0.500,-2.500,0.500,0.500
1.959,-0.500,-2.000,0.500,-0.500
1.960,-0.500,-2.000,0.500,-1.000
1.961,-1.000,-2.500,0.000,-1.500
1.962,-1.000,-3.000,0.000,-2.000
1.963,-1.500,-2.500,0.000,-2.000
1.964,-1.500,-2.000,1.000,-1.500
1.965,-1.000,-1.500,1.000,-1.000
1.966,-0.500,-1.000,1.500,-0.500
1.967,0.000,-0.500,1.000,-1.000
1.968,0.000,-1.000,0.500,-1.000
1.969,-0.500,-1.500,0.000,-1.000
1.970,-0.500,-2.000,0.000,-1.000
1.971,-1.000,-2.000,0.000,-0.500
1.972,-1.000,-2.000,0.500,-0.500
1.973,-1.000,-2.000,0.500,-0.500
1.974,-1.000,-2.500,0.000,-0.500
1.975,-1.000,-3.500,-0.500,-1.000
1.976,-1.500,-4.500,-1.000,-1.000
1.977,-2.000,-4.500,-1.500,-0.500
1.978,-2.500,-4.500,-1.000,-0.500
1.979,-2.500,-4.500,-0.500,0.000
1.980,-2.500,-4.000,-0.500,0.000
1.981,-2.000,-4.000,0.000,0.000
1.982,-1.500,-4.000,0.000,-0.500
1.983,-1.500,-4.000,0.000,-0.500
1.984,-1.000,-4.500,0.500,-0.500
1.985,-1.000,-4.000,0.500,-0.500
1.986,-1.500,-4.000,0.500,-0.500
1.987,-1.500,-3.500,0.500,-0.500
1.988,-1.500,-3.500,0.000,-0.500
1.989,-1.500,-3.500,0.000,-0.500
1.990,-1.500,-3.500,-0.500,-1.000
1.991,-1.500,-4.000,-0.500,-0.500
1.992,-1.500,-4.500,-0.500,-0.500
1.993,-2.000,-4.500,-0.500,-0.500
1.994,-2.000,-4.500,0.000,-0.500
1.995,-2.000,-4.000,0.000,-0.500
1.996,-2.000,-3.500,0.500,-0.500
1.997,-2.000,-3.000,1.000,-0.500
1.998,-2.000,-2.000,1.000,-0.500
1.999,-2.000,-2.000,1.500,0.000
2.000,-2.000,-2.000,1.500,0.000
2.001,-2.000,-2.000,1.000,0.000
2.002,-2.000,-2.500,1.000,0.000
2.003,-2.000,-3.000,1.000,0.000
2.004,-2.000,-3.500,1.000,0.000
2.005,-2.000,-4.000,1.500,0.500
2.006,-2.000,-4.000,1.500,0.500
2.007,-2.000,-4.000,1.500,0.500
2.008,-2.000,-3.500,1.500,0.500
2.009,-2.000,-3.500,1.500,0.000
2.010,-2.000,-4.000,1.500,0.000
2.011,-2.500,-4.000,1.500,-0.500
2.012,-3.000,-4.500,1.000,-0.500
2.013,-3.500,-5.000,0.500,-1.000
2.014,-4.000,-5.500,0.000,-1.000
2.015,-4.000,-6.000,-0.500,-1.000
2.016,-4.500,-6.000,-0.500,-1.000
2.017,-4.500,-6.000,-0.500,-0.500
2.018,-4.500,-6.000,-0.500,-0.500
2.019,-4.500,-6.000,0.000,0.000
2.020,-4.500,-6.000,0.500,0.500
2.021,-4.500,-6.000,1.000,0.500
2.022,-4.500,-6.000,1.000,1.000
2.023,-4.500,-6.000,1.000,1.000
2.024,-4.500,-6.000,1.000,1.500
2.025,-5.000,-6.500,1.500,1.500
2.026,-5.500,-6.000,1.500,2.000
2.027,-5.500,-6.000,1.500,2.000
2.028,-5.000,-5.500,1.500,2.000
2.029,-5.000,-5.000,1.500,2.000
2.030,-4.500,-5.000,1.500,2.000
2.031,-4.500,-5.500,1.500,2.500
2.032,-4.500,-5.500,1.500,2.500
2.033,-4.500,-6.000,1.500,2.500
2.034,-4.500,-6.500,1.500,2.500
2.035,-4.500,-6.500,1.500,3.000
2.036,-4.500,-6.500,1.500,3.000
2.037,-4.500,-6.500,1.000,3.500
2.038,-4.500,-6.000,1.000,3.500
2.039,-4.500,-6.000,1.500,3.500
2.040,-4.500,-6.000,2.000,4.000
2.041,-4.500,-5.500,2.000,4.000
2.042,-5.000,-5.500,2.500,4.500
2.043,-5.000,-5.000,2.500,4.500
2.044,-5.500,-5.000,2.500,4.000
2.045,-6.000,-4.500,2.500,3.500
2.046,-6.500,-4.500,2.000,3.000
2.047,-6.500,-4.000,2.000,3.000
2.048,-7.000,-4.000,2.000,3.500
2.049,-7.000,-3.500,1.500,4.000
2.050,-7.000,-3.500,1.500,4.000
2.051,-7.000,-3.500,1.500,4.500
2.052,-6.500,-3.500,2.000,4.500
2.053,-6.000,-3.500,2.000,5.000
2.054,-6.000,-3.500,2.000,5.000
2.055,-6.500,-3.500,2.000,5.500
2.056,-7.000,-3.500,2.000,5.500
2.057,-7.000,-4.000,2.000,6.000
2.058,-7.000,-4.500,2.000,5.500
2.059,-7.000,-5.500,2.500,5.500
2.060,-7.000,-6.000,3.000,5.500
2.061,-7.000,-6.000,3.000,5.500
2.062,-7.500,-6.000,3.000,5.500
2.063,-8.000,-5.500,3.000,5.500
2.064,-8.500,-5.500,2.000,5.500
2.065,-8.500,-5.000,1.500,5.000
2.066,-8.500,-4.500,1.000,5.000
2.067,-8.500,-4.000,1.000,5.000
2.068,-8.500,-3.500,1.000,5.500
2.069,-8.000,-2.500,1.500,6.000
2.070,-8.500,-2.000,1.500,6.000
2.071,-9.000,-2.000,1.500,6.000
2.072,-9.500,-2.500,1.500,6.000
2.073,-9.500,-2.500,1.000,6.000
2.074,-9.500,-3.000,1.000,6.000
2.075,-9.500,-2.500,0.500,6.000
2.076,-9.500,-2.500,0.500,6.000
2.077,-9.500,-2.000,1.000,5.500
2.078,-10.500,-2.000,1.000,5.000
2.079,-11.000,-2.500,1.000,5.000
2.080,-11.000,-2.500,1.000,5.000
2.081,-11.000,-2.500,1.000,5.500
2.082,-11.000,-2.500,1.000,6.000
2.083,-10.500,-2.000,1.000,6.000
2.084,-10.500,-2.500,1.000,6.000
2.085,-10.500,-3.000,1.500,5.500
2.086,-10.500,-4.000,1.500,5.500
2.087,-10.500,-5.000,1.500,5.500
2.088,-10.500,-6.000,2.000,5.500
2.089,-10.000,-6.000,2.500,6.000
2.090,-10.000,-6.000,2.500,6.000
2.091,-9.500,-5.500,2.500,6.000
2.092,-9.500,-5.000,2.500,6.000
2.093,-9.500,-5.500,2.500,5.500
2.094,-9.500,-5.500,2.500,5.500
2.095,-10.000,-6.000,2.500,6.000
2.096,-9.500,-6.500,3.000,6.500
2.097,-9.500,-7.000,3.500,7.000
2.098,-9.000,-6.500,4.000,7.000
2.099,-8.500,-6.500,4.000,7.000
2.100,-8.500,-6.000,4.000,6.500
2.101,-8.000,-5.000,3.500,6.500
2.102,-8.000,-4.500,3.000,6.000
2.103,-7.500,-4.000,3.000,6.500
2.104,-7.500,-4.000,3.000,6.500
2.105,-7.500,-4.000,3.500,6.500
2.106,-7.500,-4.000,3.500,6.000
2.107,-7.500,-4.000,3.000,6.000
2.108,-7.500,-4.500,3.000,5.500
2.109,-7.500,-4.000,2.500,5.000
2.110,-7.000,-3.500,2.500,5.000
2.111,-6.500,-3.000,3.000,5.500
2.112,-6.000,-2.000,3.000,5.500
2.113,-5.500,-0.500,3.000,5.500
2.114,-5.500,0.500,3.000,5.000
2.115,-5.000,1.000,3.000,4.500
2.116,-5.000,1.000,2.500,3.500
2.117,-4.500,1.000,2.500,3.000
2.118,-4.500,1.000,2.500,2.500
2.119,-4.000,0.500,3.000,2.500
2.120,-3.500,0.000,3.000,3.000
2.121,-3.000,-0.500,3.500,3.000
2.122,-2.500,-1.000,4.000,3.500
2.123,-2.500,-1.000,4.000,3.500
2.124,-2.000,-1.500,4.000,3.500
2.125,-1.500,-1.500,4.000,3.500
2.126,-1.000,-1.500,3.500,3.000
2.127,-1.000,-1.500,3.000,3.000
2.128,-0.500,-1.500,3.000,2.500
2.129,-0.500,-2.000,3.000,2.500
2.130,-0.500,-2.500,3.500,2.000
2.131,0.000,-3.000,4.000,2.000
2.132,0.000,-3.500,4.500,1.500
2.133,0.000,-4.500,4.000,1.500
2.134,0.000,-4.500,3.500,1.000
2.135,0.000,-4.500,3.000,0.500
2.136,0.000,-4.500,2.000,0.500
2.137,0.500,-4.000,2.000,0.000
2.138,0.500,-3.500,2.000,0.000
2.139,0.500,-3.500,2.000,0.000
2.140,0.500,-4.000,2.000,0.000
2.141,0.500,-4.500,2.000,0.000
2.142,0.500,-5.000,1.500,-0.500
2.143,0.500,-5.000,1.500,-1.000
2.144,0.500,-5.500,1.000,-1.000
2.145,1.000,-5.500,1.000,-1.000
2.146,1.000,-6.000,1.000,-1.000
2.147,1.000,-6.000,1.500,-1.000
2.148,1.500,-6.500,1.500,-1.000
2.149,1.500,-6.500,1.500,-1.500
2.150,2.000,-6.000,1.500,-1.500
2.151,2.000,-5.500,1.500,-1.000
2.152,2.500,-5.000,1.500,-1.000
2.153,3.000,-4.500,1.500,-1.000
2.154,3.000,-4.000,1.500,-0.500
2.155,2.500,-4.500,2.000,-0.500
2.156,2.500,-4.500,2.000,-1.000
2.157,2.500,-5.000,2.000,-1.500
2.158,2.000,-5.500,2.000,-2.500
2.159,2.000,-6.500,2.000,-3.500
2.160,1.500,-7.000,1.500,-4.000
2.161,1.000,-7.500,1.000,-4.000
2.162,1.000,-8.000,0.500,-4.000
2.163,1.000,-8.000,0.000,-3.500
2.164,1.000,-7.500,0.000,-3.000
2.165,1.500,-7.000,0.000,-3.000
2.166,2.000,-6.000,0.000,-3.000
2.167,2.000,-5.500,-0.500,-3.500
2.168,2.000,-5.500,-1.000,-3.500
2.169,1.500,-5.500,-1.500,-3.500
2.170,1.500,-5.500,-2.000,-3.000
2.171,1.500,-5.500,-1.500,-2.500
2.172,2.000,-5.500,-1.000,-2.000
2.173,2.500,-5.000,-0.500,-1.500
2.174,2.500,-5.000,0.000,-1.500
2.175,2.500,-4.500,0.000,-1.500
2.176,2.500,-4.500,-0.500,-1.500
2.177,2.500,-4.500,-0.500,-1.500
2.178,2.500,-4.500,-0.500,-2.000
2.179,2.500,-4.000,-0.500,-2.000
2.180,2.500,-4.000,0.500,-2.000
2.181,3.000,-3.500,0.500,-1.500
2.182,2.500,-3.500,0.500,-1.500
2.183,2.500,-4.000,0.500,-1.500
2.184,2.000,-4.500,0.000,-2.000
2.185,2.000,-5.000,-0.500,-2.000
2.186,1.500,-5.000,-1.000,-2.500
2.187,1.500,-5.000,-1.500,-2.500
2.188,1.500,-5.000,-1.500,-2.500
2.189,1.500,-5.000,-2.000,-2.500
2.190,1.000,-5.000,-2.000,-2.000
2.191,1.000,-5.500,-2.000,-2.000
2.192,1.000,-5.500,-1.500,-1.500
2.193,1.500,-5.500,-1.000,-1.000
2.194,2.000,-5.500,-0.500,-1.000
2.195,2.500,-5.500,0.000,-1.000
2.196,3.000,-5.000,0.000,-1.000
2.197,3.000,-5.000,-0.500,-1.000
2.198,2.500,-4.500,-1.000,-1.000
2.199,2.000,-4.000,-1.000,-1.000
2.200,1.500,-4.000,-1.000,-1.500
2.201,1.000,-3.000,-1.000,-2.000
2.202,1.500,-2.500,-1.000,-2.500
2.203,1.500,-2.000,-1.500,-2.500
2.204,2.000,-2.000,-1.500,-2.500
2.205,2.500,-2.000,-1.500,-2.000
2.206,2.500,-2.000,-1.500,-1.500
2.207,2.500,-2.000,-1.500,-1.000
2.208,2.000,-2.500,-1.000,-0.500
2.209,2.000,-3.000,-1.000,-0.500
2.210,2.000,-3.500,-0.500,-0.500
2.211,2.000,-4.000,-0.500,-1.000
2.212,2.000,-4.000,-0.500,-1.000
2.213,2.000,-4.500,0.000,-1.000
2.214,2.500,-4.500,0.000,-0.500
2.215,2.500,-4.500,0.000,-0.500
2.216,2.500,-4.500,0.000,-0.500
2.217,2.000,-4.500,0.000,-1.000
2.218,2.000,-5.000,0.000,-1.000
2.219,2.000,-5.000,0.000,-1.000
2.220,2.000,-4.500,0.500,-1.000
2.221,2.500,-4.500,1.000,-1.000
2.222,3.000,-4.000,1.000,-0.500
2.223,3.500,-3.500,1.000,-0.500
2.224,3.500,-3.500,1.000,-0.500
2.225,3.500,-4.000,1.000,-0.500
2.226,3.000,-4.500,1.000,-0.500
2.227,3.000,-5.500,1.000,-1.000
2.228,2.500,-5.500,1.000,-1.000
2.229,2.500,-5.500,0.500,-1.000
2.230,2.500,-5.000,0.000,-1.500
2.231,2.500,-4.500,-0.500,-2.000
2.232,2.000,-3.500,-1.000,-2.500
2.233,2.000,-3.000,-1.500,-3.000
2.234,1.500,-3.000,-1.500,-3.500
2.235,1.500,-3.000,-1.500,-4.000
2.236,1.000,-3.000,-1.000,-4.000
2.237,1.000,-3.000,-1.000,-3.500
2.238,1.500,-3.000,-1.000,-3.000
2.239,1.500,-3.000,-0.500,-2.500
2.240,2.000,-2.500,0.000,-2.000
2.241,2.500,-2.000,0.000,-1.500
2.242,2.500,-1.500,0.500,-1.000
2.243,3.000,-0.500,1.000,0.000
2.244,3.000,0.000,1.500,1.500
2.245,3.500,1.000,2.000,3.000
2.246,4.000,3.000,3.500,5.000
2.247,5.500,5.000,5.000,7.500
2.248,7.000,7.000,7.000,9.500
2.249,8.500,8.500,8.500,11.000
2.250,9.500,9.500,9.500,12.000
2.251,10.000,9.500,9.500,12.000
2.252,10.000,7.500,9.000,11.000
2.253,9.000,5.500,8.000,9.500
2.254,8.500,3.000,7.000,8.000
2.255,7.500,1.000,6.000,6.000
2.256,7.000,-0.500,5.000,4.500
2.257,6.500,-1.500,4.500,3.000
2.258,6.000,-2.000,3.500,1.000
2.259,5.000,-3.500,2.500,-1.500
2.260,3.500,-5.000,1.000,-3.500
2.261,2.000,-7.000,-0.500,-6.000
2.262,1.000,-8.000,-1.500,-7.500
2.263,0.500,-8.500,-2.500,-8.500
2.264,0.000,-8.000,-3.000,-8.500
2.265,0.000,-7.000,-3.000,-8.000
2.266,0.500,-6.000,-2.500,-7.000
2.267,0.500,-5.500,-2.000,-6.500
2.268,0.500,-5.000,-1.500,-6.000
2.269,0.500,-4.500,-1.500,-5.500
2.270,0.500,-4.000,-1.000,-5.000
2.271,1.000,-3.000,-1.000,-4.000
2.272,1.500,-2.000,-1.000,-3.500
2.273,2.000,-0.500,-1.000,-2.500
2.274,2.000,0.500,-1.000,-1.500
2.275,2.500,1.000,-1.000,-1.000
2.276,2.500,1.500,-0.500,-0.500
2.277,2.500,1.000,-0.500,-0.500
2.278,3.000,0.500,-0.500,-0.500
2.279,2.500,-0.500,0.000,-0.500
2.280,2.500,-1.000,0.500,-0.500
2.281,2.500,-2.000,0.500,-0.500
2.282,2.000,-2.500,0.500,-1.000
2.283,2.000,-2.500,0.500,-1.000
2.284,1.500,-2.500,0.500,-1.000
2.285,2.000,-2.000,0.500,-1.000
2.286,2.000,-2.000,1.000,-1.000
2.287,2.000,-2.000,1.000,-1.500
2.288,2.000,-2.000,1.000,-2.000
2.289,2.000,-3.000,0.500,-2.500
2.290,1.500,-3.500,0.000,-3.000
2.291,1.000,-4.500,-0.500,-3.000
2.292,1.000,-4.500,-0.500,-2.500
2.293,1.000,-4.000,-0.500,-2.500
2.294,1.500,-3.500,0.000,-2.000
2.295,1.500,-3.000,0.500,-2.000
2.296,2.000,-2.500,0.500,-2.000
2.297,2.500,-2.000,0.500,-2.000
2.298,2.500,-2.500,0.500,-2.000
2.299,3.000,-2.500,0.000,-2.000
2.300,3.000,-3.000,0.000,-2.000
2.301,3.000,-3.000,0.000,-2.000
2.302,3.000,-3.000,0.000,-2.000
2.303,2.500,-3.000,0.000,-2.000
2.304,1.500,-3.000,-0.500,-2.000
2.305,1.000,-3.000,-0.500,-2.500
2.306,0.500,-3.000,-1.000,-2.500
2.307,0.500,-3.000,-1.500,-2.500
2.308,0.500,-2.500,-2.000,-2.500
2.309,1.000,-2.000,-2.000,-2.500
2.310,1.500,-1.500,-1.500,-2.000
2.311,1.500,-0.500,-1.000,-1.500
2.312,2.000,0.000,0.000,-1.500
2.313,2.000,0.000,1.000,-1.000
2.314,2.500,0.000,1.000,-1.000
2.315,2.500,-0.500,1.000,-1.000
2.316,2.500,-0.500,1.000,-1.500
2.317,3.000,-0.500,0.500,-1.500
2.318,3.000,-0.500,0.500,-1.500
2.319,3.000,-1.000,0.500,-1.500
2.320,3.000,-1.000,1.000,-1.500
2.321,2.500,-1.000,1.000,-1.000
2.322,2.500,-1.500,1.000,-1.000
2.323,2.500,-2.000,1.000,-0.500
2.324,2.500,-2.000,0.500,-0.500
2.325,2.500,-1.500,0.500,-0.500
2.326,2.500,-1.500,0.500,-1.000
2.327,2.500,-1.000,1.000,-1.500
2.328,2.500,-0.500,1.000,-1.500
2.329,2.000,-0.500,1.000,-2.000
2.330,2.000,-1.000,1.000,-2.000
2.331,1.500,-1.000,0.500,-2.500
2.332,1.500,-1.500,0.000,-2.500
2.333,1.000,-1.500,-0.500,-3.000
2.334,1.000,-1.500,-1.000,-3.500
2.335,1.000,-1.000,-1.500,-4.000
2.336,0.500,-0.500,-1.500,-4.000
2.337,0.500,0.000,-1.000,-3.500
2.338,0.500,0.500,-0.500,-3.000
2.339,1.000,1.000,-0.500,-2.500
2.340,1.500,1.000,0.000,-2.500
2.341,2.000,1.000,-0.500,-2.500
2.342,2.000,1.000,-1.000,-2.500
2.343,2.000,0.500,-1.500,-2.500
2.344,1.500,0.000,-1.500,-2.500
2.345,1.000,-0.500,-1.000,-2.000
2.346,1.000,-1.000,0.000,-1.000
2.347,1.500,-1.500,0.500,-0.500
2.348,2.000,-1.500,1.000,0.000
2.349,2.000,-1.500,1.000,-0.500
2.350,1.500,-1.500,0.500,-1.500
2.351,1.000,-2.000,-0.500,-2.000
2.352,0.500,-2.000,-1.000,-2.500
2.353,0.500,-2.000,-1.000,-3.000
2.354,0.500,-2.000,-1.000,-3.000
2.355,0.500,-1.500,-1.000,-2.500
2.356,0.500,-1.000,-1.000,-2.500
2.357,0.500,-0.500,-1.000,-2.500
2.358,0.500,-0.500,-1.500,-3.000
2.359,0.000,-1.000,-2.000,-3.500
2.360,-0.500,-1.500,-2.500,-3.500
2.361,-0.500,-2.000,-2.500,-3.500
2.362,-0.500,-2.000,-2.500,-3.500
2.363,-0.500,-2.500,-2.000,-3.000
2.364,-0.500,-2.500,-2.000,-3.000
2.365,-0.500,-2.500,-2.500,-3.000
2.366,-1.000,-3.000,-3.000,-3.000
2.367,-1.500,-3.500,-3.500,-2.500
2.368,-2.000,-3.500,-4.000,-2.500
2.369,-2.000,-4.000,-4.000,-2.000
2.370,-1.500,-3.500,-4.000,-2.000
2.371,-1.000,-3.000,-3.500,-1.500
2.372,-0.500,-2.500,-3.500,-1.500
2.373,0.000,-2.000,-3.000,-1.500
2.374,0.000,-1.500,-3.000,-1.500
2.375,0.000,-1.000,-3.000,-1.500
2.376,-0.500,-1.500,-3.000,-1.500
2.377,-0.500,-2.000,-3.000,-2.000
2.378,-0.500,-2.500,-2.500,-2.000
2.379,-0.500,-3.000,-2.500,-2.000
2.380,-0.500,-3.500,-2.500,-2.000
2.381,-0.500,-4.000,-3.000,-2.000
2.382,-0.500,-4.000,-3.000,-2.000
2.383,-0.500,-4.500,-3.000,-2.500
2.384,-1.000,-5.000,-2.500,-2.500
2.385,-0.500,-5.000,-2.000,-2.000
2.386,-0.500,-5.000,-1.500,-2.000
2.387,0.000,-5.000,-1.500,-1.500
2.388,0.500,-5.000,-1.500,-1.000
2.389,1.000,-4.500,-1.500,-1.000
2.390,1.000,-4.500,-2.000,-1.500
2.391,1.500,-5.000,-2.000,-1.500
2.392,1.500,-5.000,-1.500,-2.000
2.393,1.500,-5.000,-1.000,-2.500
2.394,1.500,-5.000,-1.000,-2.500
2.395,1.500,-5.000,-1.000,-2.500
2.396,1.500,-5.000,-1.000,-2.500
2.397,1.500,-4.500,-0.500,-2.500
2.398,1.000,-5.000,-0.500,-2.500
2.399,1.000,-5.000,-0.500,-2.500
2.400,0.500,-5.000,-0.500,-2.500
2.401,0.500,-5.500,-0.500,-2.500
2.402,0.500,-5.500,-1.000,-2.500
2.403,1.000,-5.500,-1.000,-3.000
2.404,1.000,-5.500,-1.500,-3.000
2.405,1.500,-5.500,-1.500,-3.000
2.406,1.500,-6.000,-1.000,-3.000
2.407,1.000,-6.500,-1.000,-3.000
2.408,1.000,-7.500,-1.000,-3.000
2.409,0.500,-8.000,-1.500,-3.000
2.410,0.000,-8.500,-1.500,-3.000
2.411,-0.500,-8.500,-2.000,-3.500
2.412,-0.500,-8.500,-2.000,-3.500
2.413,-0.500,-8.000,-1.500,-3.500
2.414,0.500,-7.000,-1.000,-3.500
2.415,1.000,-6.500,-0.500,-3.000
2.416,1.500,-6.000,0.000,-2.500
2.417,2.000,-5.500,0.500,-2.500
2.418,1.500,-5.000,0.000,-2.000
2.419,1.000,-5.000,0.000,-2.500
2.420,1.000,-5.000,-0.500,-2.500
2.421,0.500,-5.000,-0.500,-3.000
2.422,0.500,-4.500,-0.500,-3.000
2.423,1.000,-4.000,0.000,-3.000
2.424,1.000,-3.500,-0.500,-2.500
2.425,1.000,-2.500,-1.000,-2.500
2.426,1.000,-2.000,-1.500,-2.500
2.427,1.000,-2.000,-2.000,-2.500
2.428,0.500,-1.500,-3.000,-2.500
2.429,0.500,-1.500,-3.500,-3.000
2.430,0.500,-1.000,-3.500,-3.000
2.431,0.500,-0.500,-3.500,-3.500
2.432,0.500,0.000,-3.000,-3.500
2.433,0.500,1.000,-2.500,-3.500
2.434,0.000,1.500,-2.000,-3.000
2.435,0.000,1.500,-1.500,-2.500
2.436,0.000,1.500,-1.500,-2.500
2.437,0.500,1.000,-2.000,-2.500
2.438,0.500,1.000,-2.500,-2.500
2.439,0.500,0.500,-3.000,-3.000
2.440,0.500,0.000,-3.000,-3.500
2.441,0.000,-0.500,-3.500,-4.000
2.442,-0.500,-1.000,-3.500,-3.500
2.443,-0.500,-1.000,-3.500,-3.500
2.444,-1.000,-1.000,-3.000,-3.000
2.445,-1.000,-0.500,-2.500,-2.500
2.446,-0.500,0.000,-2.000,-2.500
2.447,0.500,0.500,-1.500,-2.500
2.448,1.000,0.500,-1.500,-2.500
2.449,1.500,0.500,-1.500,-2.500
2.450,1.500,0.500,-2.000,-2.500
2.451,1.500,0.000,-2.500,-2.500
2.452,1.500,-0.500,-2.500,-2.500
2.453,1.500,-0.500,-2.500,-2.500
2.454,2.000,-0.500,-1.500,-2.500
2.455,2.500,0.000,-1.000,-2.000
2.456,3.000,1.000,-0.500,-2.000
2.457,3.500,1.500,0.000,-1.500
2.458,4.000,2.500,0.000,-1.000
2.459,5.000,3.500,0.500,-0.500
2.460,5.500,5.000,1.500,0.500
2.461,6.500,6.500,2.000,1.500
2.462,7.500,7.500,3.500,2.000
2.463,8.000,8.000,4.000,3.000
2.464,8.000,8.500,5.000,4.000
2.465,8.500,8.500,5.500,4.500
2.466,8.500,8.500,6.000,5.500
2.467,8.500,9.000,6.500,6.500
2.468,8.500,9.500,7.000,8.000
2.469,8.000,9.500,8.000,9.000
2.470,7.500,10.000,8.500,10.500
2.471,6.000,10.000,9.500,12.000
2.472,4.500,9.500,10.000,13.000
2.473,2.500,9.000,10.000,13.500
2.474,0.000,8.500,10.000,14.500
2.475,-2.000,8.000,9.500,15.000
2.476,-4.500,8.000,9.000,16.500
2.477,-6.500,8.000,8.500,17.500
2.478,-8.500,8.000,8.000,18.500
2.479,-11.000,8.000,7.500,19.500
2.480,-13.500,7.000,7.000,19.500
2.481,-16.500,6.000,5.500,19.500
2.482,-19.000,4.500,4.500,19.000
2.483,-21.500,3.000,3.000,19.000
2.484,-24.000,2.000,1.500,18.500
2.485,-25.500,0.500,0.500,18.000
2.486,-27.000,-1.000,-1.000,17.500
2.487,-28.500,-2.500,-2.000,16.500
2.488,-29.500,-4.000,-3.500,15.500
2.489,-31.000,-5.000,-4.000,14.500
2.490,-32.000,-6.000,-4.500,14.000
2.491,-32.500,-5.500,-4.500,14.000
2.492,-32.500,-4.500,-3.500,14.000
2.493,-31.500,-3.500,-2.500,14.000
2.494,-30.500,-2.500,-2.000,14.000
2.495,-29.000,-2.000,-1.500,13.000
2.496,-27.500,-2.500,-2.000,11.500
2.497,-26.000,-3.500,-3.500,9.000
2.498,-24.500,-4.500,-4.500,6.000
2.499,-22.500,-5.500,-6.000,2.500
2.500,-20.500,-6.000,-7.500,-0.500
2.501,-18.000,-6.500,-8.500,-3.500
2.502,-15.500,-7.000,-9.500,-5.500
2.503,-13.000,-7.500,-10.500,-7.500
2.504,-11.000,-7.500,-11.000,-9.000
2.505,-9.000,-7.500,-11.500,-10.500
2.506,-7.500,-7.500,-12.000,-11.000
2.507,-6.000,-7.500,-11.500,-11.500
2.508,-5.000,-8.000,-11.500,-11.500
2.509,-4.000,-8.000,-11.500,-12.000
2.510,-3.500,-8.500,-11.500,-12.500
2.511,-3.500,-9.000,-11.500,-13.000
2.512,-3.000,-9.000,-11.500,-13.500
2.513,-2.000,-8.500,-12.000,-13.500
2.514,-1.500,-7.500,-12.000,-14.000
2.515,-0.500,-7.500,-12.000,-14.000
2.516,0.500,-7.500,-12.500,-14.000
2.517,0.500,-8.000,-12.000,-13.500
2.518,0.500,-8.500,-11.500,-13.500
2.519,0.000,-9.500,-11.000,-13.000
2.520,0.000,-9.500,-10.000,-12.500
2.521,0.000,-9.500,-9.500,-12.000
2.522,0.500,-9.000,-9.500,-12.000
2.523,1.000,-9.000,-9.500,-11.500
2.524,1.500,-8.500,-10.000,-11.000
2.525,1.500,-8.500,-10.000,-10.000
2.526,2.000,-8.500,-9.500,-9.500
2.527,2.000,-8.000,-8.500,-9.000
2.528,2.500,-7.500,-8.000,-8.500
2.529,2.500,-7.000,-7.500,-7.500
2.530,2.500,-7.000,-7.500,-7.000
2.531,2.000,-6.500,-7.500,-6.000
2.532,2.000,-6.000,-7.000,-5.500
2.533,1.500,-6.000,-6.500,-5.000
2.534,1.000,-5.500,-6.500,-4.500
2.535,1.000,-5.500,-6.000,-4.000
2.536,1.000,-5.000,-5.500,-4.000
2.537,1.000,-4.500,-5.000,-3.500
2.538,1.000,-4.000,-4.500,-3.500
2.539,1.500,-3.500,-4.000,-3.000
2.540,1.500,-3.000,-4.000,-2.500
2.541,2.000,-2.000,-4.000,-2.000
2.542,2.000,-1.000,-4.000,-2.000
2.543,2.000,-0.500,-4.500,-2.000
2.544,2.000,0.000,-5.000,-2.000
2.545,2.500,0.000,-5.000,-2.000
2.546,2.500,0.000,-5.500,-2.000
2.547,2.500,0.000,-6.000,-2.000
2.548,2.500,0.000,-6.000,-2.000
2.549,2.500,0.000,-6.000,-1.500
2.550,2.500,0.500,-6.000,-1.500
2.551,2.500,1.000,-6.000,-1.500
2.552,2.500,1.500,-5.500,-1.500
2.553,2.500,2.000,-5.000,-1.500
2.554,3.000,2.000,-5.000,-1.500
2.555,3.000,2.000,-5.000,-1.500
2.556,3.000,2.000,-5.000,-1.500
2.557,3.000,2.500,-5.000,-1.500
2.558,3.000,2.500,-5.500,-1.500
2.559,2.500,3.000,-5.500,-1.500
2.560,2.500,3.500,-5.500,-1.000
2.561,2.000,4.000,-5.500,-1.000
2.562,2.500,4.500,-5.000,-1.000
2.563,2.500,5.000,-5.000,-1.000
2.564,2.500,5.000,-5.000,-1.500
2.565,2.000,5.000,-5.000,-1.500
2.566,2.000,4.500,-5.000,-1.500
2.567,2.000,4.000,-5.500,-1.000
2.568,1.500,4.000,-5.500,-1.000
2.569,2.000,4.000,-6.000,-0.500
2.570,2.000,4.000,-6.000,-0.500
2.571,2.500,4.500,-5.500,0.000
2.572,2.500,5.000,-5.000,0.000
2.573,3.000,5.000,-4.500,0.500
2.574,3.500,5.500,-4.000,0.500
2.575,3.500,5.500,-4.000,0.500
2.576,3.500,5.500,-4.000,0.500
2.577,3.000,5.500,-4.500,0.500
2.578,2.500,5.500,-4.500,0.500
2.579,1.500,5.500,-5.000,0.500
2.580,1.500,5.000,-5.000,0.000
2.581,1.000,5.000,-5.500,0.000
2.582,1.000,4.500,-5.500,0.000
2.583,1.500,4.000,-5.500,0.000
2.584,1.500,3.500,-5.500,0.000
2.585,1.000,3.500,-5.500,-0.500
2.586,0.500,3.000,-5.500,-1.000
2.587,0.000,3.000,-6.000,-1.000
2.588,0.000,3.000,-5.500,-0.500
2.589,0.000,3.500,-5.500,-0.500
2.590,0.500,4.500,-5.500,0.000
2.591,1.000,5.500,-5.500,0.500
2.592,1.500,6.000,-5.500,0.000
2.593,1.500,6.000,-5.500,0.000
2.594,1.000,6.000,-5.500,0.000
2.595,0.500,5.500,-5.500,0.000
2.596,0.500,5.500,-5.500,0.000
2.597,0.500,5.000,-5.500,0.500
2.598,0.500,5.000,-5.000,0.500
2.599,1.000,5.000,-4.500,0.500
2.600,1.000,4.500,-4.000,0.000
2.601,0.500,4.500,-4.000,-0.500
2.602,0.000,4.000,-3.500,-1.000
2.603,-0.500,3.000,-4.000,-1.000
2.604,-0.500,2.500,-4.000,-1.000
2.605,-0.500,2.000,-4.500,-1.000
2.606,-0.500,1.500,-5.000,-1.000
2.607,0.000,2.000,-5.500,-1.000
2.608,0.000,2.500,-6.000,-1.000
2.609,0.500,3.500,-6.000,-1.000
2.610,0.500,4.000,-5.500,-0.500
2.611,0.500,4.500,-5.500,-0.500
2.612,0.500,5.000,-5.500,-0.500
2.613,0.500,4.500,-5.000,-1.000
2.614,0.500,4.000,-5.000,-1.000
2.615,0.500,3.000,-5.000,-1.000
2.616,0.000,3.000,-4.500,-1.500
2.617,0.000,3.000,-4.500,-1.000
2.618,0.000,3.500,-4.500,-1.000
2.619,0.500,4.500,-4.500,-0.500
2.620,0.500,5.500,-4.500,0.000
2.621,0.500,5.500,-4.500,0.000
2.622,0.500,5.500,-5.000,0.000
2.623,0.000,5.000,-5.500,-0.500
2.624,0.000,4.000,-5.500,-1.000
2.625,0.000,3.500,-5.500,-1.000
2.626,0.500,3.500,-5.500,-1.000
2.627,0.500,4.000,-5.500,-0.500
2.628,1.000,5.000,-5.500,0.000
2.629,1.000,5.500,-5.500,0.500
2.630,0.500,5.500,-5.500,1.000
2.631,0.500,5.000,-5.500,0.500
2.632,0.000,4.500,-5.500,0.500
2.633,0.000,4.000,-5.000,0.000
2.634,0.000,3.500,-4.500,0.000
2.635,0.500,3.500,-4.000,0.000
2.636,0.500,4.000,-3.500,0.500
2.637,0.500,3.500,-3.500,0.500
2.638,0.500,3.500,-3.500,0.500
2.639,0.000,3.000,-3.500,0.500
2.640,0.000,2.500,-4.000,0.500
2.641,-0.500,2.000,-4.000,0.000
2.642,-0.500,1.500,-4.500,0.000
2.643,-1.000,1.500,-5.000,0.000
2.644,-1.000,1.000,-5.500,0.000
2.645,-1.500,0.500,-6.000,0.000
2.646,-2.000,0.000,-6.500,-0.500
2.647,-2.000,-0.500,-7.000,-0.500
2.648,-2.500,-1.000,-7.000,-0.500
2.649,-2.500,-1.000,-6.500,-0.500
2.650,-2.500,-0.500,-6.500,-0.500
2.651,-2.000,0.000,-6.500,-0.500
2.652,-1.500,1.000,-6.500,0.000
2.653,-1.500,1.500,-6.000,0.000
2.654,-1.500,2.000,-6.000,0.000
2.655,-2.000,2.500,-5.500,0.500
2.656,-2.500,3.000,-5.000,0.500
2.657,-2.500,3.000,-4.500,0.500
2.658,-3.000,2.500,-4.500,0.500
2.659,-3.000,1.500,-5.000,0.500
2.660,-3.000,1.000,-5.000,1.000
2.661,-3.000,0.500,-5.500,1.000
2.662,-3.500,0.500,-5.500,1.000
2.663,-3.500,0.000,-5.500,1.000
2.664,-3.500,0.500,-5.000,1.000
2.665,-3.500,0.500,-5.000,1.000
2.666,-3.500,0.000,-5.000,1.000
2.667,-3.500,0.000,-5.000,1.500
2.668,-3.000,0.000,-5.000,1.500
2.669,-3.000,0.500,-5.000,2.000
2.670,-3.000,0.500,-4.500,2.000
2.671,-3.500,0.500,-4.500,2.000
2.672,-4.000,0.500,-4.500,2.000
2.673,-4.500,0.500,-4.500,2.000
2.674,-5.000,0.000,-4.500,2.000
2.675,-5.500,0.000,-4.500,2.500
2.676,-6.000,-0.500,-4.000,2.500
2.677,-6.000,0.000,-4.000,3.000
2.678,-5.500,0.500,-3.500,3.500
2.679,-5.500,1.000,-3.500,3.500
2.680,-5.500,1.000,-3.500,3.500
2.681,-5.500,1.500,-3.500,3.500
2.682,-5.500,1.500,-3.500,3.000
2.683,-6.000,1.500,-4.000,3.000
2.684,-6.000,1.000,-4.000,3.000
2.685,-6.500,1.000,-4.500,3.500
2.686,-6.500,0.500,-5.000,3.500
2.687,-7.000,0.500,-5.000,3.500
2.688,-7.500,0.000,-5.500,4.000
2.689,-7.500,0.000,-5.500,4.000
2.690,-8.000,-0.500,-5.500,4.000
2.691,-8.000,-0.500,-5.000,4.000
2.692,-8.500,-1.000,-5.000,4.000
2.693,-8.500,-1.500,-5.000,3.500
2.694,-9.000,-1.500,-5.000,3.000
2.695,-9.000,-2.000,-5.500,3.000
2.696,-9.000,-2.000,-5.000,2.500
2.697,-9.000,-1.500,-5.000,3.000
2.698,-9.000,-1.000,-4.500,3.000
2.699,-8.500,-0.500,-4.000,3.000
2.700,-8.500,-0.500,-4.000,3.000
2.701,-8.500,-0.500,-4.500,3.000
2.702,-9.000,-1.500,-5.000,3.000
2.703,-9.000,-2.500,-5.500,3.000
2.704,-9.500,-3.000,-5.500,3.000
2.705,-9.500,-3.500,-5.500,3.000
2.706,-10.000,-3.000,-5.500,3.500
2.707,-10.000,-3.000,-5.000,4.500
2.708,-10.000,-2.000,-4.500,6.000
2.709,-9.500,-2.000,-4.000,7.000
2.710,-9.500,-1.500,-3.500,8.000
2.711,-9.000,-1.500,-2.500,8.500
2.712,-8.500,-1.500,-2.000,9.000
2.713,-8.000,-1.500,-1.000,9.000
2.714,-7.500,-1.000,0.000,9.500
2.715,-6.500,-0.500,1.500,11.000
2.716,-5.500,1.000,2.500,13.500
2.717,-4.500,2.500,3.500,16.000
2.718,-3.500,4.500,4.500,18.000
2.719,-2.500,5.500,5.000,19.000
2.720,-2.500,6.000,4.500,18.500
2.721,-2.500,5.500,3.500,17.500
2.722,-3.500,4.500,2.500,16.000
2.723,-4.000,3.000,1.500,14.500
2.724,-4.500,1.500,0.500,13.000
2.725,-5.500,0.000,-0.500,11.000
2.726,-6.000,-1.500,-1.500,8.500
2.727,-7.000,-3.000,-2.000,6.000
2.728,-8.000,-4.500,-3.500,3.000
2.729,-9.500,-6.500,-4.500,0.500
2.730,-10.500,-8.000,-5.500,-1.000
2.731,-11.500,-9.000,-6.000,-2.000
2.732,-12.000,-9.000,-6.000,-2.500
2.733,-12.000,-9.000,-5.500,-2.500
2.734,-12.000,-8.500,-4.500,-2.500
2.735,-11.500,-7.500,-3.500,-2.000
2.736,-11.000,-7.000,-3.500,-2.000
2.737,-10.000,-6.000,-3.500,-1.500
2.738,-9.000,-5.000,-3.500,-1.000
2.739,-8.000,-4.000,-3.500,-0.500
2.740,-7.500,-3.000,-3.000,0.500
2.741,-7.000,-2.500,-2.500,1.500
2.742,-6.500,-2.000,-2.000,2.000
2.743,-6.500,-1.500,-1.500,2.500
2.744,-6.000,-1.500,-1.500,2.000
2.745,-5.500,-1.000,-2.000,2.000
2.746,-5.000,-1.000,-3.000,2.000
2.747,-5.000,-0.500,-3.000,2.500
2.748,-4.500,0.000,-3.000,3.000
2.749,-4.000,0.500,-3.000,3.000
2.750,-4.000,0.500,-2.500,3.500
2.751,-4.000,0.500,-1.500,3.000
2.752,-3.500,-0.500,-1.000,2.500
2.753,-3.500,-1.000,-0.500,1.500
2.754,-3.000,-2.000,-0.500,1.000
2.755,-3.000,-2.000,0.000,1.000
2.756,-2.500,-2.000,0.500,1.000
2.757,-2.500,-2.000,0.500,1.000
2.758,-2.000,-1.500,0.500,1.000
2.759,-2.000,-1.500,0.500,1.000
2.760,-1.500,-1.500,0.500,0.500
2.761,-1.500,-1.500,0.000,0.500
2.762,-1.000,-1.500,-0.500,0.500
2.763,-1.000,-1.500,-0.500,0.500
2.764,-0.500,-1.500,-1.000,0.500
2.765,-0.500,-1.000,-1.000,1.000
2.766,-0.500,-1.000,-1.000,1.000
2.767,-1.000,-1.000,-1.000,1.500
2.768,-1.000,-0.500,-0.500,1.500
2.769,-0.500,0.000,-1.000,2.000
2.770,0.000,0.500,-1.000,2.000
2.771,0.500,0.500,-1.000,2.000
2.772,1.000,1.000,-1.000,2.000
2.773,1.500,1.000,-0.500,1.500
2.774,1.500,1.000,-0.500,1.500
2.775,1.500,1.500,0.000,1.500
2.776,1.500,2.000,0.000,1.000
2.777,1.500,2.500,0.000,1.000
2.778,2.000,3.000,0.000,1.000
2.779,2.000,3.000,0.000,1.000
2.780,2.000,2.000,0.000,1.000
2.781,2.000,1.000,-0.500,0.500
2.782,1.500,0.000,-1.000,0.500
2.783,1.500,-1.000,-1.000,0.000
2.784,1.500,-1.500,-1.500,0.000
2.785,2.000,-1.500,-2.000,0.000
2.786,2.500,-1.000,-2.000,0.000
2.787,2.500,-0.500,-2.000,-0.500
2.788,3.000,0.000,-1.500,-0.500
2.789,3.000,0.000,-1.000,-0.500
2.790,2.500,0.000,-0.500,-1.000
2.791,2.000,0.000,0.000,-1.000
2.792,2.000,0.000,0.500,-1.500
2.793,2.500,0.000,1.000,-1.500
2.794,3.000,0.000,1.500,-1.500
2.795,3.000,0.000,1.500,-1.500
2.796,3.000,0.000,1.500,-1.500
2.797,2.500,-0.500,1.000,-1.500
2.798,2.000,-0.500,0.500,-1.500
2.799,1.500,-0.500,0.500,-1.500
2.800,1.500,0.000,0.000,-1.500
2.801,2.000,0.000,-0.500,-1.500
2.802,2.500,0.500,-1.000,-1.500
2.803,2.500,0.500,-1.500,-2.000
2.804,2.500,0.500,-1.500,-2.000
2.805,2.500,0.500,-2.000,-2.000
2.806,2.000,0.000,-2.000,-2.000
2.807,2.000,0.000,-2.000,-2.000
2.808,2.000,0.000,-1.500,-2.500
2.809,2.500,-0.500,-1.000,-2.500
2.810,2.500,-0.500,-1.000,-2.500
2.811,2.500,-0.500,-0.500,-2.000
2.812,2.500,-0.500,-0.500,-2.000
2.813,2.000,0.000,0.000,-1.500
2.814,2.000,0.000,0.500,-1.500
2.815,2.000,0.000,0.500,-2.000
2.816,2.500,0.000,1.000,-2.000
2.817,2.500,0.000,1.000,-2.500
2.818,3.000,-0.500,1.000,-3.000
2.819,3.000,-0.500,0.500,-3.500
2.820,3.000,-0.500,0.500,-3.500
2.821,2.500,-0.500,0.500,-3.500
2.822,2.500,-0.500,0.000,-3.000
2.823,2.000,-0.500,-0.500,-2.500
2.824,2.000,-0.500,-0.500,-2.000
2.825,2.000,0.000,-1.000,-1.500
2.826,2.500,0.000,-1.000,-1.000
2.827,2.500,0.000,-0.500,-0.500
2.828,3.000,-0.500,0.000,-1.000
2.829,3.000,-1.000,0.500,-1.000
2.830,3.000,-1.000,1.000,-1.500
2.831,3.000,-1.000,1.000,-2.000
2.832,3.000,-1.000,1.000,-2.500
2.833,3.000,-0.500,1.000,-2.500
2.834,3.000,0.000,1.500,-2.500
2.835,3.000,0.500,1.500,-2.500
2.836,3.000,0.500,2.000,-3.000
2.837,3.000,0.500,1.500,-3.000
2.838,3.000,0.500,1.500,-3.000
2.839,2.500,0.500,1.000,-3.000
2.840,2.500,0.500,0.500,-2.500
2.841,2.500,1.000,0.500,-2.000
2.842,2.500,1.500,0.000,-1.500
2.843,3.000,2.000,0.000,-1.500
2.844,3.000,2.500,-0.500,-1.500
2.845,2.500,2.500,-0.500,-1.500
2.846,2.500,2.500,-0.500,-2.000
2.847,2.500,2.000,-1.000,-2.500
2.848,2.000,1.500,-1.000,-2.500
2.849,2.000,1.500,-0.500,-2.500
2.850,2.000,1.000,-0.500,-2.500
2.851,2.500,1.000,0.000,-2.500
2.852,2.500,0.500,0.000,-2.500
2.853,2.500,0.500,0.500,-2.500
2.854,2.500,0.500,0.500,-2.000
2.855,2.000,1.000,0.500,-2.000
2.856,2.000,1.500,0.000,-2.000
2.857,1.500,2.000,0.000,-2.500
2.858,1.500,2.000,0.000,-2.500
2.859,1.500,2.000,0.000,-2.500
2.860,1.500,1.000,0.000,-2.500
2.861,2.000,0.500,0.500,-2.000
2.862,2.500,0.000,0.500,-2.000
2.863,3.000,-0.500,0.000,-2.000
2.864,3.500,-0.500,0.000,-2.000
2.865,3.500,0.000,-0.500,-2.500
2.866,3.000,-0.500,-1.000,-3.000
2.867,2.500,-0.500,-1.000,-3.000
2.868,2.000,-1.000,-1.000,-3.000
2.869,1.500,-1.000,-0.500,-3.500
2.870,1.500,-1.500,-0.500,-3.500
2.871,1.500,-1.500,-0.500,-3.500
2.872,1.500,-1.000,-0.500,-3.500
2.873,1.500,-1.000,0.000,-3.500
2.874,1.500,-1.000,1.000,-3.000
2.875,2.000,-1.000,1.500,-3.000
2.876,2.000,-1.000,2.000,-3.000
2.877,2.000,-1.000,2.000,-3.000
2.878,2.000,-0.500,2.000,-3.000
2.879,2.000,0.000,1.500,-3.000
2.880,2.000,0.500,1.000,-2.500
2.881,2.500,1.500,0.500,-2.000
2.882,3.000,2.000,0.500,-1.500
2.883,3.000,2.000,0.500,-1.500
2.884,3.000,1.500,0.000,-2.000
2.885,3.000,1.000,-0.500,-2.000
2.886,2.500,0.500,-0.500,-2.500
2.887,2.000,0.000,-0.500,-3.000
2.888,2.000,0.000,0.000,-3.000
2.889,2.000,0.000,0.000,-2.500
2.890,2.500,0.000,0.500,-2.500
2.891,2.500,0.000,0.500,-2.500
2.892,2.500,-0.500,0.500,-2.500
2.893,2.000,-0.500,1.000,-3.000
2.894,2.000,-0.500,1.000,-3.500
2.895,2.000,-0.500,1.500,-4.000
2.896,2.000,-0.500,2.000,-4.000
2.897,2.500,-0.500,2.500,-3.500
2.898,2.500,0.000,2.500,-2.500
2.899,2.500,0.000,2.500,-2.000
2.900,2.500,0.500,2.000,-1.500
2.901,2.500,0.500,1.500,-2.000
2.902,2.500,0.500,0.500,-2.500
2.903,2.500,-0.500,0.000,-3.500
2.904,2.000,-2.000,-0.500,-4.500
2.905,1.500,-3.500,-1.000,-4.500
2.906,1.500,-4.500,-1.000,-4.000
2.907,1.500,-5.000,-0.500,-3.000
2.908,2.000,-5.000,-0.500,-2.500
2.909,2.500,-4.500,-0.500,-2.500
2.910,3.000,-4.000,-0.500,-3.000
2.911,3.000,-4.000,-0.500,-3.000
2.912,2.500,-3.500,-0.500,-3.500
2.913,2.500,-3.500,0.000,-3.500
2.914,2.000,-3.500,0.500,-3.500
2.915,2.000,-3.500,1.000,-3.500
2.916,2.000,-3.500,1.000,-3.500
2.917,2.000,-4.000,1.000,-3.500
2.918,2.500,-4.000,1.000,-4.000
2.919,2.500,-4.000,1.000,-4.000
2.920,2.000,-4.000,1.000,-3.500
2.921,1.500,-3.000,0.500,-3.500
2.922,1.500,-2.500,0.500,-3.000
2.923,1.500,-2.000,-0.500,-3.000
2.924,1.500,-2.000,-1.000,-3.000
2.925,1.500,-2.000,-1.500,-3.500
2.926,1.500,-2.500,-2.000,-4.000
2.927,1.500,-2.500,-2.000,-4.000
2.928,1.500,-2.500,-1.500,-4.000
2.929,1.500,-2.500,-1.500,-4.000
2.930,1.500,-2.500,-1.000,-4.000
2.931,1.000,-2.000,-1.000,-3.500
2.932,1.000,-1.500,-0.500,-3.500
2.933,1.000,-1.500,0.000,-3.500
2.934,1.000,-1.500,0.500,-3.500
2.935,1.000,-1.500,0.500,-3.500
2.936,1.500,-1.500,0.500,-3.500
2.937,2.000,-2.000,0.500,-3.500
2.938,2.500,-2.000,0.500,-3.500
2.939,3.000,-2.000,0.500,-3.500
2.940,3.000,-2.000,1.000,-3.500
2.941,3.000,-2.500,1.000,-4.000
2.942,2.500,-3.000,1.000,-4.000
2.943,2.000,-3.000,0.500,-4.000
2.944,1.500,-3.000,0.000,-4.000
2.945,1.000,-3.000,-0.500,-4.500
2.946,1.000,-3.000,-1.000,-4.500
2.947,1.000,-3.000,-1.000,-5.000
2.948,1.500,-3.500,-0.500,-5.500
2.949,1.500,-4.000,-0.500,-5.000
2.950,2.000,-4.500,0.000,-5.000
2.951,2.000,-4.500,0.000,-4.500
2.952,2.000,-4.000,0.000,-3.500
2.953,2.000,-3.500,0.000,-3.500
2.954,2.000,-3.000,0.500,-3.000
2.955,2.000,-3.000,1.000,-3.000
2.956,2.000,-3.500,1.000,-3.500
2.957,2.000,-4.000,1.000,-3.500
2.958,2.000,-4.500,1.000,-3.500
2.959,2.000,-5.000,1.000,-3.500
2.960,2.000,-4.500,0.500,-3.000
2.961,2.000,-3.500,0.500,-3.000
2.962,2.000,-3.000,0.500,-3.000
2.963,2.000,-2.500,0.000,-3.000
2.964,2.000,-2.000,-1.000,-3.500
2.965,1.500,-2.500,-1.500,-3.500
2.966,1.000,-3.000,-1.500,-3.500
2.967,1.000,-3.000,-1.500,-3.500
2.968,1.000,-3.000,-1.000,-3.500
2.969,1.000,-2.500,-0.500,-3.000
2.970,1.500,-2.500,-0.500,-3.000
2.971,2.000,-2.500,0.000,-3.000
2.972,2.000,-2.500,0.000,-3.000
2.973,2.000,-2.500,0.500,-3.000
2.974,2.000,-2.500,1.000,-2.500
2.975,2.500,-1.500,1.500,-2.500
2.976,3.000,-0.500,2.000,-2.500
2.977,3.000,0.500,1.500,-2.500
2.978,3.000,1.500,1.000,-3.000
2.979,3.000,2.000,0.500,-2.500
2.980,2.500,2.500,0.000,-2.500
2.981,1.500,3.000,-0.500,-2.000
2.982,1.500,3.000,-0.500,-2.000
2.983,1.500,3.000,-0.500,-2.000
2.984,1.500,3.000,-0.500,-2.000
2.985,1.500,3.000,-0.500,-2.500
2.986,1.500,2.500,0.000,-3.000
2.987,1.500,2.000,0.000,-3.000
2.988,1.500,2.000,0.500,-3.000
2.989,2.000,2.500,1.000,-2.500
2.990,2.000,2.500,1.500,-2.500
2.991,2.000,2.500,2.000,-2.000
2.992,2.500,2.500,2.500,-2.000
2.993,2.500,2.000,3.000,-2.500
2.994,2.500,2.000,3.500,-2.500
2.995,2.500,2.000,4.500,-2.500
2.996,2.500,2.000,5.000,-2.500
2.997,3.000,2.000,5.000,-2.000
2.998,3.000,2.500,5.000,-2.000
2.999,3.500,2.500,5.000,-1.500
3.000,3.500,2.500,4.500,-1.500
3.001,3.000,2.500,3.500,-1.500
3.002,2.500,2.500,3.000,-1.500
3.003,2.000,2.000,2.500,-1.000
3.004,2.000,2.000,2.000,-1.000
3.005,1.500,2.000,2.000,-1.000
3.006,1.500,2.500,2.000,-1.000
3.007,1.500,3.000,2.000,-1.500
3.008,2.000,3.000,2.000,-1.500
3.009,2.500,3.500,2.000,-1.500
3.010,2.500,3.500,2.500,-2.000
3.011,2.000,3.000,2.500,-2.000
3.012,1.500,3.000,3.000,-2.000
3.013,1.000,3.000,3.500,-2.000
3.014,0.500,3.000,3.500,-2.000
3.015,0.000,3.500,3.500,-2.500
3.016,0.000,3.000,3.500,-2.500
3.017,0.500,3.000,3.500,-2.500
3.018,1.000,2.500,4.000,-2.500
3.019,1.000,2.500,4.000,-2.000
3.020,1.500,2.500,4.000,-2.000
3.021,1.500,2.500,3.500,-1.500
3.022,1.500,3.000,3.000,-1.500
3.023,1.500,3.500,3.000,-1.500
3.024,1.500,4.000,2.500,-2.000
3.025,1.500,4.000,2.000,-2.000
3.026,1.000,4.000,2.000,-2.500
3.027,0.500,4.500,1.500,-2.500
3.028,0.500,4.500,1.500,-2.500
3.029,0.500,5.000,2.000,-2.500
3.030,1.000,5.500,2.500,-2.000
3.031,1.500,6.000,3.000,-2.000
3.032,2.000,6.000,3.500,-1.500
3.033,2.500,6.000,4.000,-1.500
3.034,2.500,6.000,4.000,-2.000
3.035,2.000,6.000,3.500,-2.000
3.036,1.500,6.000,3.000,-2.500
3.037,1.000,5.500,2.500,-3.000
3.038,0.500,5.000,2.500,-3.500
3.039,0.500,4.000,2.000,-3.500
3.040,0.500,3.500,1.500,-3.500
3.041,0.500,3.500,1.500,-3.500
3.042,0.500,3.500,1.000,-3.500
3.043,0.500,4.000,1.000,-3.000
3.044,0.500,4.500,1.500,-3.000
3.045,1.000,5.000,1.500,-2.500
3.046,1.000,5.000,1.500,-2.500
3.047,1.000,5.000,1.500,-3.000
3.048,1.500,5.000,1.500,-3.000
3.049,1.500,5.000,1.000,-3.500
3.050,1.500,5.000,1.000,-4.000
3.051,1.500,4.500,1.000,-4.000
3.052,1.500,4.500,1.500,-4.500
3.053,1.000,4.000,2.000,-4.500
3.054,1.000,4.000,2.500,-4.500
3.055,1.500,4.500,2.500,-4.000
3.056,2.000,5.500,3.000,-3.500
3.057,3.000,6.000,3.500,-3.000
3.058,3.500,6.500,4.000,-2.500
3.059,3.500,6.500,4.000,-2.500
3.060,3.500,6.000,3.500,-2.500
3.061,3.500,6.000,3.000,-3.000
3.062,3.000,5.500,2.500,-3.500
3.063,3.000,5.000,2.000,-4.000
3.064,2.500,4.500,1.500,-4.500
3.065,2.500,4.500,1.000,-5.500
3.066,2.500,4.000,0.500,-5.500
3.067,2.000,3.500,1.000,-5.500
3.068,2.000,3.000,1.000,-5.500
3.069,2.000,2.500,1.500,-5.000
3.070,2.000,2.500,1.500,-4.500
3.071,2.500,2.500,1.500,-4.500
3.072,2.500,2.500,1.500,-5.000
3.073,2.500,3.000,1.000,-5.500
3.074,2.000,3.000,0.500,-6.000
3.075,1.500,3.000,0.000,-6.500
3.076,1.000,3.000,-0.500,-6.500
3.077,1.000,2.500,0.000,-6.500
3.078,0.500,2.000,0.500,-6.500
3.079,1.000,1.500,1.000,-6.000
3.080,1.000,1.500,1.500,-6.000
3.081,1.500,1.000,1.500,-6.000
3.082,1.500,1.000,1.500,-5.500
3.083,1.500,1.500,1.000,-5.500
3.084,2.000,1.500,1.000,-5.500
3.085,2.000,1.000,1.500,-5.000
3.086,2.000,1.000,1.500,-5.000
3.087,2.500,1.500,1.500,-5.000
3.088,2.500,1.500,1.000,-5.000
3.089,2.000,2.000,0.500,-4.500
3.090,2.000,2.000,0.000,-4.500
3.091,1.500,2.000,0.000,-4.500
3.092,1.500,1.500,0.000,-4.500
3.093,1.500,1.500,0.500,-5.000
3.094,2.000,1.000,1.000,-5.000
3.095,2.000,1.000,1.500,-5.000
3.096,2.000,1.500,1.500,-5.000
3.097,1.500,2.000,1.500,-5.000
3.098,1.500,2.000,1.000,-5.000
3.099,1.000,2.000,1.000,-5.000
3.100,0.500,2.000,0.500,-5.000
3.101,0.500,2.000,0.500,-5.000
3.102,1.000,2.000,0.500,-5.000
3.103,1.500,2.000,0.500,-4.500
3.104,1.500,2.000,0.500,-4.000
3.105,2.000,2.000,0.500,-3.500
3.106,2.000,1.500,0.000,-3.500
3.107,1.500,1.500,0.000,-3.500
3.108,1.500,1.000,0.000,-4.500
3.109,1.500,1.500,-0.500,-5.000
3.110,1.500,1.500,-0.500,-5.500
3.111,1.500,2.000,-0.500,-5.500
3.112,2.000,2.500,-0.500,-5.000
3.113,2.500,3.000,0.000,-4.500
3.114,3.000,3.500,1.000,-4.000
3.115,4.000,3.500,2.000,-3.500
3.116,4.500,3.500,2.500,-4.000
3.117,4.500,4.000,3.000,-4.500
3.118,4.500,4.000,3.000,-5.000
3.119,4.500,4.000,3.000,-5.000
3.120,5.000,4.500,3.000,-4.500
3.121,5.500,5.000,3.000,-3.500
3.122,7.000,5.500,4.000,-2.500
3.123,8.000,6.500,4.500,-1.000
3.124,9.000,7.500,5.500,0.000
3.125,10.000,8.500,6.500,1.500
3.126,10.500,9.500,8.000,2.500
3.127,10.500,11.000,9.000,4.000
3.128,10.500,12.000,10.000,5.500
3.129,10.000,12.500,11.500,6.500
3.130,9.500,13.000,12.000,7.500
3.131,9.000,13.500,13.000,9.000
3.132,8.000,13.500,13.500,10.000
3.133,7.000,13.500,14.000,11.000
3.134,5.000,12.500,13.500,12.000
3.135,3.000,11.500,13.000,13.000
3.136,0.500,10.500,12.500,14.000
3.137,-2.500,9.500,11.500,14.500
3.138,-5.000,9.000,11.000,16.000
3.139,-7.500,8.500,10.500,17.000
3.140,-9.500,8.000,10.000,18.000
3.141,-11.500,7.000,10.000,18.500
3.142,-14.000,5.500,9.000,18.500
3.143,-16.500,3.500,8.000,18.000
3.144,-19.000,2.000,6.500,17.500
3.145,-21.500,0.000,5.000,17.000
3.146,-23.500,-1.500,3.500,16.500
3.147,-25.500,-3.000,2.000,16.000
3.148,-27.500,-4.000,1.000,15.000
3.149,-29.000,-5.000,0.000,14.000
3.150,-30.000,-5.000,-0.500,13.500
3.151,-30.500,-5.000,-1.000,12.500
3.152,-30.500,-4.500,-1.000,12.500
3.153,-30.000,-4.000,-0.500,12.000
3.154,-29.500,-3.000,0.500,12.000
3.155,-29.000,-2.500,0.500,11.500
3.156,-28.000,-2.000,1.000,10.000
3.157,-27.000,-1.500,0.500,8.000
3.158,-25.000,-1.000,-0.500,5.500
3.159,-23.000,-1.500,-2.000,2.500
3.160,-21.000,-2.000,-4.000,-0.500
3.161,-18.500,-2.500,-6.000,-3.500
3.162,-16.000,-3.500,-8.500,-6.500
3.163,-14.000,-4.500,-10.000,-9.000
3.164,-12.000,-5.000,-11.500,-11.000
3.165,-10.000,-5.500,-12.500,-13.500
3.166,-9.000,-6.500,-12.500,-15.000
3.167,-8.000,-7.500,-13.000,-16.500
3.168,-7.500,-8.500,-12.500,-17.500
3.169,-7.000,-9.500,-12.500,-18.000
3.170,-6.500,-9.500,-12.000,-18.000
3.171,-5.500,-9.500,-11.500,-18.000
3.172,-4.500,-8.500,-11.500,-17.500
3.173,-3.500,-8.000,-11.000,-17.500
3.174,-2.500,-7.000,-11.000,-17.000
3.175,-2.000,-7.000,-10.500,-16.000
3.176,-2.000,-6.500,-9.500,-15.500
3.177,-1.500,-6.500,-9.000,-14.500
3.178,-0.500,-5.500,-8.000,-14.000
3.179,0.000,-4.500,-6.500,-12.500
3.180,1.000,-3.500,-5.000,-11.000
3.181,2.000,-2.000,-3.500,-8.500
3.182,3.500,0.000,-1.500,-5.500
3.183,5.000,2.500,0.500,-2.500
3.184,6.500,4.000,2.000,0.500
3.185,8.000,5.500,3.000,2.500
3.186,9.000,6.000,3.500,4.000
3.187,9.500,5.000,4.000,4.500
3.188,9.500,4.000,3.500,4.500
3.189,8.500,3.000,3.500,4.000
3.190,7.500,1.500,3.000,3.000
3.191,6.500,0.500,2.500,1.500
3.192,5.500,-0.500,2.000,0.000
3.193,4.500,-1.500,1.500,-1.500
3.194,3.000,-3.000,0.500,-3.500
3.195,1.500,-4.500,-1.000,-5.500
3.196,0.000,-5.500,-2.500,-7.500
3.197,-1.000,-5.500,-4.000,-9.000
3.198,-2.000,-5.500,-4.500,-10.000
3.199,-2.000,-5.000,-5.000,-10.500
3.200,-2.500,-4.000,-4.500,-10.500
3.201,-2.000,-3.500,-4.000,-9.500
3.202,-2.000,-2.500,-3.000,-8.500
3.203,-1.500,-2.000,-2.500,-7.500
3.204,-1.000,-1.500,-2.000,-6.500
3.205,0.000,-1.000,-1.500,-6.000
3.206,1.000,-0.500,-1.000,-5.500
3.207,1.500,0.000,-0.500,-5.000
3.208,2.000,0.500,0.500,-4.500
3.209,2.000,1.000,1.000,-3.500
3.210,2.000,1.500,1.000,-3.000
3.211,1.500,2.000,1.000,-3.000
3.212,1.500,2.000,1.000,-3.000
3.213,1.500,1.500,1.000,-3.000
3.214,1.500,1.000,1.500,-2.500
3.215,2.000,0.500,2.000,-2.000
3.216,2.000,-0.500,2.500,-1.500
3.217,2.000,-0.500,2.500,-1.500
3.218,2.000,-1.000,2.000,-1.500
3.219,2.000,-0.500,1.000,-2.000
3.220,2.000,0.000,0.500,-2.500
3.221,1.500,0.000,-0.500,-2.500
3.222,1.000,0.500,-0.500,-2.500
3.223,0.500,1.000,-0.500,-2.500
3.224,0.500,1.500,-0.500,-3.000
3.225,0.500,1.500,-1.000,-3.500
3.226,0.500,1.000,-1.000,-3.500
3.227,0.500,0.000,-1.000,-3.500
3.228,0.500,-0.500,-1.000,-3.500
3.229,0.000,-1.500,-1.000,-3.000
3.230,-0.500,-2.000,-1.000,-2.500
3.231,-0.500,-2.000,-0.500,-2.500
3.232,0.000,-1.500,-0.500,-2.500
3.233,0.000,-1.000,0.000,-2.500
3.234,0.500,-0.500,0.000,-2.500
3.235,0.500,0.000,0.500,-2.500
3.236,1.000,0.000,1.000,-2.500
3.237,1.000,0.000,1.500,-2.500
3.238,0.500,-0.500,2.000,-2.500
3.239,0.500,-1.000,2.500,-2.500
3.240,0.500,-1.000,2.500,-2.500
3.241,0.500,-1.500,2.500,-2.000
3.242,0.500,-1.500,2.500,-2.000
3.243,1.000,-1.000,2.500,-2.000
3.244,1.000,-0.500,2.500,-1.500
3.245,1.000,0.000,2.500,-1.500
3.246,1.000,0.500,2.500,-2.000
3.247,1.000,1.000,2.500,-2.000
3.248,1.000,1.000,3.000,-1.500
3.249,1.000,1.500,3.000,-1.500
3.250,1.000,2.000,3.000,-1.000
3.251,0.500,2.500,3.000,-1.000
3.252,0.500,2.500,3.500,-0.500
3.253,0.500,2.000,3.500,-0.500
3.254,0.500,1.500,4.000,-0.500
3.255,1.000,1.000,4.500,0.000
3.256,1.000,0.500,5.000,0.000
3.257,1.500,0.000,5.000,0.000
3.258,1.500,-0.500,5.500,0.000
3.259,1.500,-1.000,6.000,0.500
3.260,1.500,-1.500,6.000,0.500
3.261,1.500,-1.500,6.000,0.500
3.262,1.500,-1.500,5.500,1.000
3.263,1.500,-1.500,5.000,1.000
3.264,1.500,-1.000,4.000,1.500
3.265,2.000,-0.500,3.500,2.000
3.266,1.500,0.000,3.000,2.000
3.267,1.500,0.000,3.000,1.500
3.268,1.500,-0.500,3.000,1.500
3.269,1.000,-0.500,3.000,1.500
3.270,1.000,-0.500,3.500,1.000
3.271,1.000,0.000,3.500,1.000
3.272,1.000,0.500,4.000,1.000
3.273,1.000,1.500,4.500,1.000
3.274,1.000,2.500,5.000,1.000
3.275,1.500,2.500,5.000,1.000
3.276,1.000,3.000,5.000,1.000
3.277,1.000,3.000,4.500,1.000
3.278,0.500,3.000,4.000,1.000
3.279,0.500,3.000,3.500,1.000
3.280,0.000,3.000,3.000,1.000
3.281,-0.500,3.000,2.500,1.000
3.282,-0.500,3.000,2.500,1.000
3.283,-0.500,3.000,2.500,1.000
3.284,0.000,3.000,2.500,1.000
3.285,0.000,3.000,2.500,0.500
3.286,0.000,3.500,3.000,1.000
3.287,0.000,4.000,3.500,1.000
3.288,0.000,4.500,4.000,1.000
3.289,0.000,5.500,4.000,1.000
3.290,0.000,5.500,4.500,1.500
3.291,0.500,6.000,4.500,1.500
3.292,1.000,6.000,4.500,2.000
3.293,1.000,6.000,4.500,2.000
3.294,1.000,6.000,4.500,1.500
3.295,1.000,5.500,4.500,1.000
3.296,0.500,5.500,4.500,1.000
3.297,0.000,5.000,4.500,0.500
3.298,-0.500,5.000,4.500,0.500
3.299,-1.000,5.500,4.500,1.000
3.300,-1.000,5.500,5.000,1.500
3.301,-1.000,6.000,5.000,1.500
3.302,-1.000,6.000,5.000,2.000
3.303,-1.000,6.000,5.000,2.000
3.304,-1.500,6.000,4.500,2.000
3.305,-1.500,5.500,4.500,2.000
3.306,-1.500,5.000,4.500,2.000
3.307,-1.500,4.000,5.000,2.500
3.308,-2.000,4.000,5.000,2.500
3.309,-2.000,3.500,5.000,2.500
3.310,-2.000,4.000,5.000,2.500
3.311,-2.000,4.000,5.500,2.500
3.312,-2.000,4.000,5.500,2.500
3.313,-1.500,4.000,6.000,2.500
3.314,-1.500,3.500,6.000,2.500
3.315,-2.000,4.000,6.000,2.500
3.316,-2.000,4.000,6.000,3.000
3.317,-2.500,4.500,5.500,3.000
3.318,-2.500,5.000,5.000,3.000
3.319,-3.000,5.000,4.500,3.000
3.320,-3.000,4.500,4.500,2.500
3.321,-3.000,3.500,4.000,2.000
3.322,-3.500,3.000,3.500,2.000
3.323,-3.500,3.000,3.500,2.000
3.324,-3.500,3.500,3.500,2.500
3.325,-3.500,4.500,4.000,3.000
3.326,-3.000,5.500,4.500,3.500
3.327,-3.000,6.500,5.000,4.000
3.328,-3.000,7.000,5.500,4.500
3.329,-3.000,7.000,5.500,4.500
3.330,-3.500,7.000,5.000,4.500
3.331,-3.500,7.000,5.000,5.000
3.332,-3.500,6.500,5.000,5.500
3.333,-4.000,6.500,5.000,5.500
3.334,-4.000,6.000,5.500,5.500
3.335,-4.000,6.000,5.500,5.500
3.336,-4.500,5.500,6.000,5.000
3.337,-5.000,5.000,5.500,5.000
3.338,-5.000,5.000,5.500,5.500
3.339,-5.000,5.000,5.500,5.500
3.340,-5.000,5.500,5.000,6.000
3.341,-5.000,6.000,5.000,6.000
3.342,-5.500,6.500,4.500,6.500
3.343,-5.500,7.000,4.000,6.500
3.344,-5.500,7.500,4.000,6.500
3.345,-5.500,7.500,3.500,6.500
3.346,-6.000,8.000,3.500,6.500
3.347,-6.000,8.000,3.000,6.500
3.348,-6.500,8.000,3.500,6.000
3.349,-6.500,8.000,3.500,6.000
3.350,-7.000,8.000,3.500,6.000
3.351,-7.500,8.000,4.000,6.000
3.352,-7.500,7.500,4.000,6.000
3.353,-7.500,7.500,4.000,6.000
3.354,-7.500,7.000,4.000,6.000
3.355,-8.000,7.000,4.500,6.500
3.356,-8.000,7.000,5.000,6.500
3.357,-8.000,6.500,5.500,6.500
3.358,-8.000,6.000,6.000,6.500
3.359,-7.500,6.000,6.000,6.500
3.360,-7.500,5.500,5.500,6.500
3.361,-7.500,5.500,5.000,6.500
3.362,-7.500,5.000,4.500,6.500
3.363,-8.000,5.000,4.500,6.500
3.364,-8.000,5.000,4.000,6.500
3.365,-8.000,5.000,4.000,6.500
3.366,-8.000,5.000,4.000,6.500
3.367,-8.000,5.000,4.500,6.500
3.368,-8.000,5.000,4.500,7.000
3.369,-8.000,5.500,5.000,7.500
3.370,-8.000,6.500,5.000,8.000
3.371,-8.000,6.500,5.500,8.500
3.372,-8.000,7.000,5.000,9.000
3.373,-8.000,6.500,5.000,9.000
3.374,-8.000,6.500,5.500,9.000
3.375,-8.000,6.500,5.500,8.500
3.376,-8.000,6.500,6.000,8.000
3.377,-8.000,7.000,6.000,7.500
3.378,-8.500,7.500,5.500,7.500
3.379,-9.000,7.500,5.000,7.000
3.380,-9.500,7.500,4.500,7.000
3.381,-9.500,7.500,4.000,7.000
3.382,-9.500,7.000,4.000,7.000
3.383,-9.500,7.000,4.000,7.000
3.384,-9.500,7.500,4.500,6.500
3.385,-9.500,7.000,4.000,6.500
3.386,-10.000,7.000,4.000,6.000
3.387,-10.000,6.500,3.500,6.000
3.388,-10.000,6.000,3.500,6.000
3.389,-10.000,6.000,3.500,6.000
3.390,-9.500,6.000,4.000,6.000
3.391,-9.000,6.000,4.000,5.500
3.392,-8.500,6.500,4.500,5.500
3.393,-8.500,7.000,4.500,5.500
3.394,-8.000,7.500,4.500,5.000
3.395,-7.500,7.500,4.500,5.000
3.396,-7.500,7.500,5.000,5.000
3.397,-7.000,6.500,5.000,5.000
3.398,-7.000,6.000,5.500,5.000
3.399,-7.000,5.000,5.500,5.000
3.400,-7.000,4.500,5.500,4.500
3.401,-7.000,4.000,5.000,4.500
3.402,-6.500,4.000,5.000,4.500
3.403,-5.500,4.000,5.000,4.500
3.404,-5.000,4.000,5.500,4.000
3.405,-4.500,4.000,5.500,4.000
3.406,-4.500,4.000,5.000,4.000
3.407,-4.500,4.000,5.000,3.500
3.408,-5.000,4.000,5.000,3.500
3.409,-4.500,4.000,5.000,3.500
3.410,-4.500,4.500,5.500,3.500
3.411,-4.000,5.000,6.000,3.500
3.412,-3.500,5.500,6.500,3.000
3.413,-3.000,5.500,6.500,2.500
3.414,-2.500,5.500,6.500,2.000
3.415,-2.500,5.500,6.500,2.000
3.416,-2.000,5.500,6.000,2.000
3.417,-1.500,5.500,5.500,2.000
3.418,-1.500,5.500,5.500,2.500
3.419,-1.000,6.000,5.000,2.500
3.420,-1.000,6.500,5.000,2.000
3.421,-1.000,6.500,5.000,1.500
3.422,-1.000,6.500,5.000,1.500
3.423,-1.000,6.000,5.000,1.000
3.424,-1.000,6.000,5.000,1.000
3.425,-0.500,6.000,5.000,1.500
3.426,0.000,6.500,5.500,1.500
3.427,0.500,6.500,5.500,1.500
3.428,1.000,6.000,6.000,1.000
3.429,1.000,5.500,6.000,1.000
3.430,1.000,4.500,6.000,0.500
3.431,0.500,4.000,5.500,0.000
3.432,0.000,3.500,5.000,0.000
3.433,0.000,3.500,5.000,-0.500
3.434,0.000,4.000,5.500,0.000
3.435,0.500,4.500,6.000,0.000
3.436,1.000,5.000,6.500,0.000
3.437,1.000,5.000,7.000,0.500
3.438,1.000,5.000,6.500,0.500
3.439,1.000,5.000,6.000,0.500
3.440,1.000,5.000,5.500,0.000
3.441,1.000,5.000,4.500,-0.500
3.442,1.000,5.000,4.000,-1.000
3.443,1.000,5.500,3.500,-1.500
3.444,1.000,6.000,3.500,-1.500
3.445,1.000,6.500,3.000,-1.500
3.446,0.500,7.000,3.000,-1.000
3.447,0.500,7.000,3.500,-1.000
3.448,0.500,7.500,3.500,-0.500
3.449,0.500,7.000,4.000,-1.000
3.450,1.000,6.500,4.000,-1.000
3.451,1.500,6.500,4.500,-1.000
3.452,2.000,6.000,4.500,-1.000
3.453,2.500,6.000,5.000,-1.000
3.454,2.500,6.500,5.500,-1.000
3.455,2.500,6.500,5.500,-1.000
3.456,2.500,6.500,5.500,-1.500
3.457,2.000,6.000,5.000,-1.500
3.458,2.000,6.000,4.500,-1.500
3.459,2.000,6.000,4.000,-1.500
3.460,2.000,6.000,3.500,-1.500
3.461,2.500,6.500,3.500,-1.000
3.462,2.500,6.000,3.500,-1.000
3.463,3.000,5.500,4.000,-1.000
3.464,3.000,5.000,4.500,-1.500
3.465,3.500,4.000,5.000,-1.500
3.466,3.500,3.500,5.000,-2.000
3.467,4.000,3.500,4.500,-2.000
3.468,4.000,4.000,4.500,-2.000
3.469,4.000,4.500,4.500,-2.000
3.470,4.000,5.000,4.500,-2.000
3.471,3.500,5.000,4.500,-2.000
3.472,3.500,5.000,4.500,-2.500
3.473,3.500,5.000,4.000,-2.500
3.474,3.500,5.000,3.500,-2.500
3.475,3.000,5.000,3.000,-2.500
3.476,2.500,5.000,2.500,-2.500
3.477,2.000,4.500,2.500,-2.500
3.478,2.000,4.500,2.500,-2.500
3.479,2.000,4.500,2.500,-3.000
3.480,2.000,4.000,2.000,-3.000
3.481,2.500,3.500,2.000,-3.000
3.482,2.500,3.000,1.500,-2.500
3.483,2.500,3.000,1.500,-2.500
3.484,2.500,3.000,1.500,-2.500
3.485,2.500,3.500,1.500,-2.500
3.486,2.500,4.000,1.500,-3.000
3.487,2.500,5.000,1.000,-3.000
3.488,2.500,5.500,1.000,-3.000
3.489,2.500,5.500,1.500,-3.000
3.490,2.500,5.500,2.500,-2.000
3.491,2.500,5.500,3.000,-1.500
3.492,3.000,5.000,4.000,-1.000
3.493,3.500,5.000,4.500,-1.000
3.494,3.500,5.000,5.000,-1.500
3.495,3.500,4.500,4.500,-2.000
3.496,3.500,3.500,4.500,-2.500
3.497,3.000,3.000,4.500,-2.500
3.498,3.000,2.500,4.500,-2.000
3.499,2.500,2.000,4.500,-2.000
3.500,2.500,2.500,4.000,-1.500
3.501,2.500,3.500,4.000,-1.000
3.502,3.000,4.000,3.500,-1.000
3.503,3.000,4.500,3.500,-1.000
3.504,3.000,4.500,4.000,-0.500
3.505,3.000,4.000,4.500,0.000
3.506,3.500,4.000,4.500,0.000
3.507,4.000,4.500,5.000,0.000
3.508,4.000,5.500,5.000,0.000
3.509,4.000,6.000,4.500,-0.500
3.510,4.000,6.000,4.500,-1.000
3.511,3.500,5.500,4.500,-1.000
3.512,3.000,5.000,5.000,-1.500
3.513,2.500,4.000,5.500,-1.500
3.514,3.000,4.000,5.500,-1.500
3.515,3.000,4.000,5.500,-1.000
3.516,3.500,4.500,5.500,-1.000
3.517,4.000,4.500,5.500,-1.000
3.518,4.000,4.500,5.000,-1.500
3.519,4.000,3.500,5.000,-1.500
3.520,3.500,2.000,4.500,-2.000
3.521,3.500,1.000,4.000,-2.500
3.522,3.000,1.000,4.000,-2.500
3.523,3.000,2.000,3.500,-2.000
3.524,3.500,3.500,3.500,-1.500
3.525,3.500,5.000,3.500,-1.000
3.526,3.500,6.000,4.000,-0.500
3.527,3.500,6.000,4.000,-0.500
3.528,3.500,6.000,4.000,-1.000
3.529,3.500,5.500,4.000,-1.500
3.530,3.000,5.500,3.500,-1.500
3.531,3.000,5.000,3.500,-2.000
3.532,3.000,5.000,4.000,-2.000
3.533,3.000,5.000,4.000,-2.000
3.534,3.000,4.500,4.500,-2.000
3.535,3.000,4.500,5.000,-2.000
3.536,3.000,4.500,5.000,-2.000
3.537,3.500,4.500,4.500,-2.000
3.538,3.500,4.500,4.000,-2.500
3.539,3.500,4.000,3.500,-2.500
3.540,3.500,4.000,3.000,-3.000
3.541,3.000,4.000,3.000,-3.000
3.542,3.000,4.000,2.500,-3.000
3.543,3.000,4.000,3.000,-2.500
3.544,3.000,4.500,3.000,-2.500
3.545,3.000,4.500,3.000,-2.500
3.546,3.500,4.500,3.000,-2.500
3.547,4.000,4.000,2.500,-2.500
3.548,4.000,3.500,2.500,-3.000
3.549,3.500,3.500,2.500,-3.500
3.550,3.500,3.000,2.500,-3.500
3.551,3.000,3.000,2.500,-3.500
3.552,3.000,3.000,3.000,-3.500
3.553,3.000,3.000,3.500,-3.000
3.554,3.000,3.000,3.500,-2.500
3.555,3.500,2.500,4.000,-2.500
3.556,4.000,2.500,3.500,-2.500
3.557,4.000,3.000,3.500,-2.500
3.558,4.000,3.000,3.000,-3.000
3.559,3.500,3.000,3.000,-3.000
3.560,3.500,2.500,2.500,-3.000
3.561,3.500,2.500,2.500,-3.000
3.562,3.500,2.500,2.000,-3.000
3.563,3.000,2.500,2.000,-3.000
3.564,3.000,3.000,1.500,-3.000
3.565,3.000,3.500,1.500,-3.000
3.566,3.000,3.500,1.000,-3.500
3.567,3.000,4.000,1.500,-3.500
3.568,3.000,3.500,1.500,-4.000
3.569,3.000,3.000,2.000,-4.000
3.570,3.000,3.000,2.000,-4.000
3.571,3.000,2.500,2.500,-3.500
3.572,3.000,3.000,3.000,-3.500
3.573,3.500,3.000,3.000,-3.000
3.574,3.500,3.000,3.000,-2.500
3.575,3.500,3.000,3.000,-3.000
3.576,3.000,2.500,2.500,-3.500
3.577,2.500,1.500,2.500,-4.500
3.578,2.500,0.500,2.500,-5.000
3.579,2.500,-0.500,2.500,-5.000
3.580,2.500,-1.500,2.500,-5.000
3.581,2.500,-1.500,2.000,-4.500
3.582,3.000,-2.000,2.000,-4.500
3.583,2.500,-3.000,1.500,-4.500
3.584,2.500,-3.500,1.500,-4.500
3.585,2.000,-4.000,1.000,-4.500
3.586,2.000,-4.000,0.500,-4.500
3.587,2.500,-4.000,1.000,-4.000
3.588,3.000,-3.000,1.500,-3.500
3.589,4.000,-2.500,2.000,-3.500
3.590,4.500,-2.000,2.500,-3.500
3.591,4.500,-2.000,3.000,-4.000
3.592,4.500,-2.000,3.000,-4.000
3.593,4.000,-2.000,3.000,-4.000
3.594,4.000,-2.000,3.000,-4.000
3.595,3.500,-1.000,2.500,-4.000
3.596,4.000,-0.500,2.500,-3.500
3.597,4.000,0.500,2.500,-3.000
3.598,4.000,1.000,2.000,-3.500
3.599,4.000,0.500,2.000,-4.000
3.600,3.500,0.500,1.500,-4.500
3.601,3.000,0.000,1.500,-5.000
3.602,2.500,0.000,1.500,-5.000
3.603,2.500,0.000,1.500,-5.000
3.604,2.500,0.500,2.000,-4.500
3.605,2.500,1.000,2.500,-3.500
3.606,3.000,1.500,2.500,-3.000
3.607,3.500,2.000,2.500,-3.000
3.608,4.000,2.000,2.000,-3.500
3.609,4.000,2.500,2.000,-3.500
3.610,4.000,3.000,1.500,-4.000
3.611,3.500,3.500,2.000,-4.000
3.612,3.500,3.500,2.000,-3.500
3.613,3.500,3.500,2.500,-3.500
3.614,3.000,3.000,3.000,-3.000
3.615,3.000,3.000,3.000,-3.500
3.616,2.500,2.000,2.500,-3.500
3.617,2.000,2.000,1.500,-4.000
3.618,2.000,1.500,1.000,-3.500
3.619,1.500,1.500,0.000,-3.000
3.620,2.000,1.500,0.000,-2.500
3.621,2.000,2.000,0.000,-2.500
3.622,2.500,1.500,0.500,-2.500
3.623,3.000,1.000,0.500,-3.000
3.624,2.500,1.000,0.500,-3.000
3.625,2.500,0.500,0.000,-3.500
3.626,2.500,1.000,0.000,-3.500
3.627,2.500,1.500,0.000,-3.000
3.628,2.500,2.000,0.000,-3.000
3.629,3.000,2.500,0.500,-3.000
3.630,3.500,3.000,0.500,-3.500
3.631,3.500,3.000,0.500,-3.500
3.632,3.000,2.500,0.000,-3.500
3.633,3.000,2.500,0.000,-3.000
3.634,2.500,2.000,0.500,-3.000
3.635,2.500,1.500,0.500,-3.500
3.636,2.000,1.000,1.000,-4.000
3.637,1.500,0.500,0.500,-4.500
3.638,1.500,0.000,0.000,-5.000
3.639,1.000,-0.500,-0.500,-5.500
3.640,1.000,-0.500,-1.000,-5.500
3.641,1.000,-0.500,-1.500,-5.000
3.642,1.500,0.500,-1.000,-4.500
3.643,2.000,1.000,-0.500,-3.500
3.644,2.500,1.500,0.000,-3.000
3.645,3.000,1.500,0.500,-2.500
3.646,3.500,2.000,0.500,-1.500
3.647,4.000,2.000,1.000,-1.000
3.648,4.500,2.500,1.500,0.000
3.649,5.000,3.500,2.000,1.500
3.650,6.000,5.000,3.500,3.000
3.651,7.000,6.500,5.500,5.500
3.652,8.500,9.000,7.500,8.000
3.653,10.000,11.000,9.500,10.500
3.654,11.500,12.500,11.500,12.000
3.655,13.000,13.000,12.500,13.000
3.656,13.500,13.500,12.500,13.000
3.657,13.500,13.500,11.500,12.000
3.658,13.000,13.000,10.500,11.000
3.659,12.000,12.500,9.000,9.500
3.660,11.000,11.500,7.500,8.000
3.661,10.000,10.500,6.500,7.000
3.662,9.000,9.000,6.000,5.500
3.663,8.000,7.500,4.500,3.500
3.664,7.000,6.000,3.000,1.000
3.665,5.500,4.500,1.500,-1.500
3.666,4.000,3.000,-0.500,-4.000
3.667,2.500,1.500,-2.500,-6.500
3.668,1.500,0.500,-3.500,-8.000
3.669,0.500,0.000,-4.500,-9.000
3.670,0.000,-0.500,-4.500,-9.000
3.671,-0.500,-0.500,-4.500,-8.500
3.672,-0.500,-0.500,-4.000,-8.000
3.673,-0.500,0.000,-4.000,-7.000
3.674,-0.500,0.000,-3.500,-6.000
3.675,0.000,0.500,-3.500,-5.500
3.676,0.500,1.000,-3.000,-4.500
3.677,1.000,1.500,-3.000,-4.000
3.678,1.500,1.500,-2.500,-3.500
3.679,1.000,2.000,-2.000,-3.000
3.680,1.000,1.500,-1.500,-3.000
3.681,0.500,1.000,-1.500,-3.000
3.682,0.500,0.500,-1.500,-3.000
3.683,0.500,0.000,-1.500,-3.000
3.684,1.000,-0.500,-2.500,-3.000
3.685,1.000,-0.500,-3.000,-3.000
3.686,1.000,0.000,-3.500,-3.500
3.687,1.500,0.500,-3.500,-3.500
3.688,1.500,0.000,-3.000,-3.500
3.689,1.500,0.000,-2.500,-3.500
3.690,2.000,-1.000,-2.500,-3.000
3.691,2.000,-1.500,-2.500,-3.500
3.692,2.000,-2.000,-2.500,-3.500
3.693,1.500,-2.500,-2.500,-4.000
3.694,1.500,-2.500,-2.500,-4.000
3.695,1.500,-2.500,-2.500,-4.000
3.696,1.500,-3.000,-2.000,-4.000
3.697,1.500,-3.000,-1.500,-4.000
3.698,2.000,-3.500,-1.500,-4.000
3.699,2.000,-3.500,-2.000,-3.500
3.700,2.500,-3.500,-2.000,-4.000
3.701,2.500,-3.500,-2.500,-4.000
3.702,3.000,-3.500,-2.500,-4.000
3.703,3.000,-3.000,-2.500,-4.000
3.704,3.500,-3.000,-2.500,-4.000
3.705,3.500,-2.500,-3.000,-4.000
3.706,3.500,-2.000,-3.000,-3.500
3.707,3.000,-1.500,-3.500,-3.000
3.708,3.000,-1.500,-4.000,-2.500
3.709,3.000,-1.500,-4.000,-2.500
3.710,3.000,-2.000,-4.000,-3.000
3.711,3.000,-2.500,-4.000,-3.500
3.712,3.500,-2.500,-4.000,-4.000
3.713,3.500,-2.000,-4.000,-4.000
3.714,3.500,-1.000,-4.000,-3.500
3.715,4.000,0.000,-4.000,-3.000
3.716,4.000,1.000,-3.500,-2.500
3.717,4.000,1.500,-3.500,-2.000
3.718,4.500,1.500,-3.000,-1.500
3.719,4.500,1.500,-3.000,-1.500
3.720,4.000,1.000,-3.000,-1.500
3.721,4.000,1.000,-3.000,-1.500
3.722,3.500,1.000,-3.000,-1.500
3.723,3.500,0.500,-3.000,-1.500
3.724,3.000,0.000,-3.000,-2.000
3.725,3.000,-1.000,-3.500,-2.000
3.726,3.000,-1.500,-4.000,-2.500
3.727,3.000,-1.500,-4.000,-2.500
3.728,3.000,-1.500,-4.000,-2.000
3.729,2.500,-1.000,-4.000,-2.000
3.730,3.000,-1.000,-3.000,-2.000
3.731,3.500,-0.500,-2.500,-1.500
3.732,4.000,-0.500,-1.500,-1.500
3.733,4.000,-0.500,-1.000,-1.500
3.734,4.000,0.000,-1.000,-1.500
3.735,4.000,0.000,-1.000,-1.000
3.736,3.500,0.000,-1.000,-1.000
