'Elapsed time','AECG1','AECG2','AECG3','AECG4'
'seconds','uV','uV','uV','uV'
0.000,-3.000,3.000,66.500,68.500
0.001,-3.000,2.500,66.500,69.000
0.002,-3.000,2.500,66.500,69.000
0.003,-3.000,3.000,67.000,69.500
0.004,-3.000,3.000,67.000,70.000
0.005,-3.000,3.000,67.500,70.000
0.006,-2.500,3.000,67.500,70.500
0.007,-2.500,3.500,68.000,70.500
0.008,-2.500,3.500,68.000,70.500
0.009,-3.000,3.500,68.000,70.500
0.010,-3.500,3.500,68.000,70.500
0.011,-3.500,3.000,67.500,70.500
0.012,-4.000,2.500,67.500,70.500
0.013,-4.000,2.500,67.500,70.500
0.014,-4.000,2.500,67.500,70.500
0.015,-4.000,2.500,67.500,70.500
0.016,-4.000,2.500,67.500,70.000
0.017,-3.500,2.500,68.000,70.000
0.018,-3.500,3.000,68.000,70.500
0.019,-3.000,3.500,68.500,70.500
0.020,-3.000,4.000,68.500,71.000
0.021,-2.500,4.500,69.000,71.500
0.022,-2.500,4.500,69.000,72.000
0.023,-2.500,5.000,69.500,72.500
0.024,-2.500,5.000,70.000,73.000
0.025,-2.500,5.000,70.000,73.500
0.026,-2.500,5.000,70.500,74.000
0.027,-2.500,5.500,70.500,74.000
0.028,-2.500,5.500,70.500,74.500
0.029,-2.500,5.500,70.500,74.500
0.030,-3.000,5.500,70.000,74.000
0.031,-3.000,5.500,70.000,74.000
0.032,-3.500,5.500,69.500,74.000
0.033,-3.500,5.000,69.000,73.500
0.034,-4.000,5.000,69.000,73.500
0.035,-4.000,5.000,69.000,73.500
0.036,-4.500,4.500,69.000,73.500
0.037,-4.500,4.500,68.500,73.000
0.038,-5.000,4.500,68.500,73.000
0.039,-5.000,4.500,68.500,73.000
0.040,-5.000,4.500,69.000,73.000
0.041,-5.000,5.000,69.000,73.000
0.042,-5.000,5.500,69.000,73.000
0.043,-5.000,5.500,69.000,73.000
0.044,-4.500,6.000,69.500,73.000
0.045,-4.500,6.000,69.500,73.000
0.046,-4.500,6.000,69.500,73.500
0.047,-4.500,6.000,69.500,73.500
0.048,-4.500,6.000,70.000,74.000
0.049,-4.500,6.000,70.000,74.000
0.050,-4.500,6.000,70.000,74.000
0.051,-4.500,6.000,70.000,73.500
0.052,-4.500,6.000,70.000,73.500
0.053,-5.000,6.000,69.500,73.000
0.054,-5.000,6.000,69.500,73.000
0.055,-5.500,6.000,69.500,73.000
0.056,-6.000,6.000,69.500,73.000
0.057,-6.000,6.000,70.000,73.500
0.058,-6.000,6.000,70.000,73.500
0.059,-5.500,6.000,70.000,74.000
0.060,-5.500,6.000,70.500,74.000
0.061,-5.000,6.500,71.000,74.500
0.062,-5.000,7.000,71.000,74.500
0.063,-5.000,7.500,71.000,74.500
0.064,-4.500,7.500,71.000,74.500
0.065,-4.500,8.000,71.000,74.500
0.066,-4.500,8.000,71.000,74.500
0.067,-4.500,8.000,71.000,74.500
0.068,-5.000,8.000,71.000,74.500
0.069,-5.000,8.000,71.000,74.500
0.070,-5.500,8.000,71.000,74.500
0.071,-6.000,8.000,70.500,74.500
0.072,-6.000,7.500,70.500,74.000
0.073,-6.500,7.500,70.500,74.000
0.074,-6.500,7.500,70.500,73.500
0.075,-6.500,7.500,70.500,73.500
0.076,-6.500,7.500,70.000,73.000
0.077,-6.500,7.500,70.000,72.500
0.078,-6.500,7.500,69.500,72.000
0.079,-6.500,7.500,69.000,72.000
0.080,-6.500,7.500,69.000,71.500
0.081,-6.000,7.500,69.000,71.500
0.082,-6.000,7.500,69.000,71.500
0.083,-6.500,7.500,69.000,71.500
0.084,-6.500,7.500,69.000,72.000
0.085,-6.500,7.500,69.500,72.500
0.086,-6.500,8.000,70.000,72.500
0.087,-6.500,8.000,70.500,73.000
0.088,-6.500,8.500,70.500,73.000
0.089,-6.000,8.500,71.000,72.500
0.090,-6.000,8.500,70.500,72.500
0.091,-6.000,8.500,70.500,72.000
0.092,-6.000,8.000,70.000,71.500
0.093,-6.500,8.000,69.500,71.500
0.094,-6.500,7.500,69.000,71.000
0.095,-7.000,7.000,68.500,71.000
0.096,-7.500,7.000,68.000,70.500
0.097,-7.500,6.500,67.500,70.000
0.098,-7.500,6.500,67.500,69.500
0.099,-7.500,6.500,67.000,69.500
0.100,-7.500,6.500,67.000,69.000
0.101,-7.500,6.000,66.500,69.000
0.102,-7.500,6.000,66.500,69.000
0.103,-7.500,6.500,66.500,69.000
0.104,-7.500,6.500,66.500,69.000
0.105,-7.500,6.500,66.500,69.000
0.106,-7.500,7.000,66.500,69.000
0.107,-7.500,7.000,66.500,69.000
0.108,-7.500,7.000,66.500,69.000
0.109,-7.500,6.500,66.000,68.500
0.110,-7.500,6.500,66.000,68.000
0.111,-8.000,6.000,65.500,68.000
0.112,-8.000,5.500,65.000,67.500
0.113,-8.000,5.500,65.000,67.000
0.114,-8.000,5.000,64.500,66.500
0.115,-8.000,4.500,64.500,66.000
0.116,-8.000,4.000,63.500,65.500
0.117,-8.000,4.000,63.000,64.500
0.118,-8.000,3.500,62.500,64.000
0.119,-7.500,4.000,62.500,64.000
0.120,-7.000,4.000,62.500,64.000
0.121,-7.000,4.500,63.000,64.000
0.122,-6.500,5.000,63.000,64.000
0.123,-6.500,5.500,63.500,64.000
0.124,-6.500,6.000,63.500,64.000
0.125,-6.500,6.000,63.500,64.000
0.126,-7.000,5.500,63.000,63.500
0.127,-7.000,5.500,63.000,63.500
0.128,-7.000,5.500,62.500,63.500
0.129,-7.000,5.000,62.500,63.000
0.130,-7.000,5.000,62.000,62.500
0.131,-7.500,5.000,61.500,62.500
0.132,-7.500,4.500,61.500,62.000
0.133,-7.500,4.000,61.000,61.500
0.134,-7.500,4.000,60.500,61.000
0.135,-7.500,4.000,60.500,61.000
0.136,-7.000,3.500,60.000,61.000
0.137,-7.000,3.500,60.000,60.500
0.138,-7.000,3.500,60.000,60.500
0.139,-7.000,4.000,60.000,60.500
0.140,-6.500,4.500,60.500,60.500
0.141,-6.000,4.500,61.000,61.000
0.142,-6.000,5.000,61.500,61.000
0.143,-5.500,5.500,61.500,61.500
0.144,-5.000,5.500,61.500,61.500
0.145,-5.000,5.500,61.500,62.000
0.146,-5.000,5.000,61.500,62.000
0.147,-4.500,5.000,61.000,62.000
0.148,-4.500,5.000,61.000,62.000
0.149,-4.500,5.000,61.000,62.000
0.150,-4.500,5.000,60.500,62.000
0.151,-4.500,4.500,60.500,61.500
0.152,-5.000,4.000,60.000,61.500
0.153,-5.000,4.000,60.000,61.000
0.154,-5.000,4.000,59.500,61.000
0.155,-5.000,4.000,59.500,61.000
0.156,-4.500,4.000,59.500,61.000
0.157,-4.500,4.500,59.500,61.500
0.158,-4.000,4.500,60.000,61.500
0.159,-3.500,5.000,60.000,61.500
0.160,-3.500,5.500,60.500,62.000
0.161,-3.000,6.000,60.500,62.000
0.162,-3.000,6.000,61.000,62.500
0.163,-3.000,6.000,61.000,63.000
0.164,-3.000,6.000,61.000,63.000
0.165,-3.000,6.000,61.000,63.000
0.166,-3.500,6.000,60.500,63.000
0.167,-3.500,6.000,61.000,63.000
0.168,-3.500,5.500,60.500,63.000
0.169,-4.000,5.500,60.500,63.000
0.170,-4.000,5.500,60.500,63.000
0.171,-4.000,5.000,60.000,62.500
0.172,-4.000,4.500,60.000,62.500
0.173,-4.000,4.500,59.500,62.000
0.174,-4.000,4.500,59.500,62.000
0.175,-3.500,4.500,59.000,62.000
0.176,-3.500,4.500,59.000,62.500
0.177,-3.500,4.500,59.000,62.500
0.178,-4.000,4.500,59.500,63.000
0.179,-4.000,4.500,59.500,63.000
0.180,-4.000,5.000,59.500,63.000
0.181,-4.000,5.000,59.500,63.000
0.182,-3.500,5.000,59.500,63.000
0.183,-3.500,5.000,59.000,62.500
0.184,-3.500,5.000,59.000,62.500
0.185,-3.000,4.500,59.000,62.500
0.186,-3.000,4.500,59.000,62.000
0.187,-3.000,4.500,59.000,62.000
0.188,-3.000,4.500,59.000,62.000
0.189,-3.500,4.500,58.500,62.000
0.190,-3.500,4.000,58.000,62.000
0.191,-4.000,4.000,58.000,61.500
0.192,-4.000,3.500,57.500,61.000
0.193,-4.500,3.500,57.000,61.000
0.194,-4.500,3.500,56.500,60.500
0.195,-4.500,3.500,56.000,60.500
0.196,-4.500,3.000,56.000,60.500
0.197,-4.500,3.000,56.000,60.000
0.198,-4.500,3.000,56.000,60.000
0.199,-4.000,3.500,56.000,60.000
0.200,-4.000,3.500,56.000,60.500
0.201,-4.000,4.000,56.500,60.500
0.202,-4.000,4.000,56.500,61.000
0.203,-3.500,4.500,56.500,61.000
0.204,-3.500,5.000,57.000,61.500
0.205,-3.000,5.500,57.000,62.000
0.206,-3.000,5.500,57.500,62.000
0.207,-2.500,6.000,57.500,62.000
0.208,-2.500,6.000,57.500,62.000
0.209,-2.500,6.000,57.500,62.000
0.210,-2.500,6.000,57.500,61.500
0.211,-2.500,6.000,57.000,61.500
0.212,-2.500,6.000,57.000,61.000
0.213,-2.000,6.000,56.500,61.000
0.214,-2.000,6.000,56.500,60.500
0.215,-2.000,6.000,56.500,60.500
0.216,-1.500,6.000,56.500,60.500
0.217,-1.500,6.000,56.500,60.500
0.218,-1.500,6.000,56.500,60.500
0.219,-1.500,6.000,56.000,60.500
0.220,-1.500,6.000,56.500,60.500
0.221,-1.500,6.000,56.500,61.000
0.222,-1.500,6.500,57.000,61.000
0.223,-1.000,7.000,57.000,61.500
0.224,-1.000,7.000,57.500,61.500
0.225,-1.000,7.500,58.000,62.000
0.226,-0.500,8.000,58.000,62.500
0.227,-0.500,8.000,58.000,63.000
0.228,-0.500,8.500,58.500,63.000
0.229,-0.500,8.500,58.500,63.500
0.230,-0.500,9.000,58.500,63.500
0.231,-0.500,9.000,58.500,63.500
0.232,-1.000,9.000,58.500,63.000
0.233,-1.000,9.000,58.500,63.000
0.234,-1.000,8.500,58.000,63.000
0.235,-1.000,8.500,58.000,62.500
0.236,-1.000,9.000,57.500,62.500
0.237,-0.500,9.000,57.500,62.500
0.238,0.000,9.500,57.500,62.500
0.239,0.500,9.500,57.500,62.500
0.240,0.500,10.000,57.500,63.000
0.241,1.000,10.000,58.000,63.000
0.242,1.000,10.000,58.000,63.500
0.243,1.500,10.000,58.000,63.500
0.244,1.500,10.500,58.500,64.000
0.245,2.000,11.000,59.000,64.500
0.246,2.000,11.500,59.000,64.500
0.247,2.000,11.500,59.500,65.000
0.248,2.000,12.000,59.500,65.000
0.249,2.000,12.000,59.500,65.000
0.250,2.000,12.000,59.000,65.000
0.251,2.000,12.000,59.000,64.500
0.252,2.000,12.000,58.500,64.500
0.253,1.500,11.500,58.000,64.500
0.254,1.500,11.500,58.000,64.000
0.255,1.000,11.000,57.500,63.500
0.256,1.000,11.000,57.500,63.000
0.257,1.500,11.000,57.500,62.500
0.258,2.000,11.000,57.000,62.500
0.259,2.500,11.500,57.500,62.500
0.260,3.000,12.500,57.500,62.500
0.261,3.500,13.000,58.000,63.000
0.262,4.500,14.000,58.500,63.500
0.263,5.000,15.000,59.500,64.000
0.264,5.500,16.000,60.000,64.500
0.265,6.000,16.500,61.000,65.000
0.266,6.500,17.000,61.500,65.500
0.267,6.500,17.500,62.000,65.500
0.268,6.500,18.000,62.000,65.500
0.269,6.000,17.500,61.500,65.500
0.270,5.500,17.000,60.500,65.000
0.271,4.000,16.000,59.500,64.500
0.272,2.500,14.500,58.000,63.500
0.273,0.500,12.000,56.000,62.000
0.274,-2.000,9.500,53.500,60.500
0.275,-5.000,6.000,50.500,59.000
0.276,-7.500,3.000,48.000,57.000
0.277,-9.500,0.000,45.500,55.500
0.278,-11.000,-2.000,44.000,54.500
0.279,-12.000,-3.500,43.000,54.000
0.280,-12.500,-4.000,42.500,53.500
0.281,-11.500,-3.500,43.000,54.000
0.282,-10.500,-2.000,44.000,55.000
0.283,-8.000,0.500,46.000,56.500
0.284,-5.500,4.000,49.000,58.000
0.285,-2.500,7.500,52.000,60.000
0.286,1.000,12.000,56.000,62.500
0.287,5.000,16.500,59.500,64.500
0.288,8.500,20.500,63.000,67.000
0.289,11.500,24.000,66.000,69.000
0.290,13.500,27.000,68.000,70.500
0.291,15.000,28.500,69.500,71.500
0.292,16.000,29.500,70.500,71.500
0.293,16.000,29.000,70.500,71.500
0.294,15.500,28.500,70.000,71.000
0.295,14.500,27.000,68.500,70.500
0.296,13.000,25.500,67.000,69.000
0.297,12.000,24.000,66.000,68.500
0.298,11.000,22.500,65.000,67.500
0.299,10.500,21.500,64.000,67.000
0.300,10.000,21.000,63.500,67.000
0.301,9.500,20.500,63.500,67.000
0.302,10.000,21.000,64.000,67.500
0.303,10.000,21.000,64.000,68.000
0.304,10.500,21.500,64.000,68.000
0.305,11.000,21.500,64.000,68.500
0.306,11.000,22.000,64.000,69.000
0.307,11.500,22.000,64.000,69.000
0.308,11.500,22.000,64.500,69.000
0.309,11.500,22.500,64.500,69.000
0.310,11.500,22.000,65.000,69.000
0.311,11.500,22.000,65.000,69.000
0.312,11.500,22.000,65.500,68.500
0.313,11.500,22.000,65.500,68.500
0.314,11.500,22.000,65.500,68.000
0.315,11.000,22.000,65.500,68.000
0.316,11.500,22.000,65.500,68.000
0.317,11.500,22.000,66.000,68.000
0.318,11.500,22.500,66.000,68.500
0.319,12.000,23.000,66.500,68.500
0.320,12.500,23.500,66.500,69.000
0.321,12.500,24.000,67.000,69.500
0.322,13.000,24.500,68.000,70.000
0.323,13.500,24.500,68.500,70.500
0.324,13.500,25.000,69.000,71.000
0.325,14.000,25.500,70.000,71.500
0.326,14.000,25.500,70.000,71.500
0.327,14.500,25.500,70.000,72.000
0.328,14.500,25.500,70.000,72.000
0.329,14.500,25.000,69.500,72.000
0.330,14.500,25.000,69.500,72.000
0.331,14.500,25.500,69.500,72.000
0.332,14.500,25.500,70.000,72.000
0.333,14.500,25.500,70.500,72.000
0.334,14.500,25.500,70.500,72.500
0.335,14.500,26.000,71.000,72.500
0.336,14.500,26.000,71.000,72.000
0.337,14.500,26.000,71.000,72.000
0.338,14.500,26.000,71.000,72.000
0.339,14.500,26.000,71.500,72.000
0.340,14.500,26.500,72.000,72.500
0.341,15.000,27.000,72.500,73.000
0.342,15.500,27.500,73.000,73.500
0.343,16.000,28.000,73.500,74.000
0.344,16.000,28.000,74.000,74.500
0.345,16.000,28.500,74.500,74.500
0.346,16.000,28.500,75.000,74.500
0.347,16.000,28.500,75.000,74.500
0.348,16.000,28.500,75.000,74.500
0.349,15.500,29.000,75.000,74.500
0.350,15.500,28.500,75.000,74.500
0.351,15.500,28.500,75.000,74.000
0.352,15.500,28.500,75.000,74.000
0.353,15.500,28.500,75.000,74.000
0.354,15.500,28.500,75.000,74.000
0.355,15.500,28.500,75.000,73.500
0.356,15.500,28.500,75.500,73.500
0.357,15.500,29.000,75.500,73.500
0.358,15.500,29.000,76.000,73.000
0.359,16.000,29.500,76.000,73.500
0.360,16.500,30.000,76.000,73.500
0.361,16.500,30.000,76.500,73.500
0.362,17.000,30.500,76.500,73.500
0.363,17.500,31.000,77.000,74.000
0.364,18.000,31.000,77.500,74.000
0.365,18.500,31.000,77.500,74.000
0.366,18.500,31.000,77.500,74.500
0.367,19.000,31.000,77.500,74.500
0.368,19.000,31.500,77.500,74.500
0.369,19.000,31.500,78.000,74.500
0.370,19.000,31.500,78.500,74.500
0.371,19.000,32.000,78.500,74.500
0.372,19.000,32.000,78.500,75.000
0.373,19.500,32.000,78.500,75.000
0.374,19.500,32.000,78.500,75.000
0.375,20.000,32.000,79.000,75.000
0.376,20.500,32.500,79.000,75.000
0.377,21.000,32.500,79.000,75.000
0.378,21.500,33.000,79.500,75.000
0.379,22.000,33.500,80.000,75.500
0.380,22.500,34.000,80.500,75.500
0.381,23.000,34.500,81.000,76.000
0.382,23.000,35.000,81.500,76.000
0.383,23.000,35.500,82.000,76.500
0.384,23.500,35.500,82.500,77.000
0.385,23.500,36.000,83.000,77.000
0.386,23.500,36.000,83.500,77.000
0.387,23.500,36.000,84.000,77.500
0.388,23.500,35.500,84.000,77.500
0.389,23.500,35.500,84.500,78.000
0.390,24.000,35.000,84.500,78.000
0.391,24.000,35.000,84.500,78.000
0.392,24.000,35.000,84.500,78.000
0.393,24.000,35.000,84.000,77.500
0.394,23.500,35.000,84.000,77.500
0.395,23.500,35.000,83.500,77.000
0.396,23.500,35.500,83.500,77.000
0.397,23.500,35.500,83.500,76.500
0.398,23.500,35.500,83.500,76.500
0.399,23.500,35.500,83.500,77.000
0.400,24.000,35.500,84.000,77.000
0.401,24.500,36.000,84.500,77.500
0.402,25.000,36.500,85.000,78.000
0.403,25.500,37.000,86.000,78.000
0.404,25.500,37.500,86.500,78.500
0.405,25.500,38.000,87.000,79.000
0.406,26.000,38.000,87.500,79.000
0.407,26.000,38.000,88.000,79.500
0.408,26.000,38.500,88.500,79.500
0.409,26.000,38.500,88.500,79.500
0.410,26.000,38.500,88.500,79.500
0.411,26.000,38.500,89.000,79.500
0.412,26.000,39.000,88.500,79.500
0.413,26.500,38.500,88.500,79.500
0.414,26.500,38.500,88.000,79.000
0.415,26.500,38.500,88.000,78.500
0.416,26.500,38.000,87.500,78.000
0.417,26.500,38.000,87.500,78.000
0.418,26.500,38.000,87.500,77.500
0.419,27.000,37.500,88.000,77.500
0.420,27.000,38.000,88.000,77.500
0.421,27.500,38.000,88.500,77.500
0.422,28.000,38.500,88.500,77.500
0.423,28.000,38.500,89.000,77.500
0.424,28.500,39.000,89.000,77.500
0.425,28.500,39.000,89.000,77.500
0.426,28.500,39.000,89.500,77.000
0.427,28.500,39.500,89.500,77.000
0.428,28.500,39.500,89.500,77.000
0.429,28.000,39.500,89.500,76.500
0.430,27.500,39.500,89.000,76.000
0.431,27.000,39.000,88.500,75.500
0.432,26.500,38.000,87.500,74.000
0.433,25.500,37.000,86.500,72.500
0.434,24.500,36.000,85.500,71.000
0.435,23.500,34.500,84.000,69.500
0.436,23.000,33.500,83.000,68.000
0.437,22.000,32.000,82.000,67.000
0.438,20.500,31.000,81.000,66.000
0.439,19.500,30.000,80.000,65.500
0.440,18.500,28.500,79.500,65.000
0.441,17.500,27.500,79.000,65.000
0.442,16.500,26.500,78.500,64.500
0.443,15.000,25.500,78.000,64.500
0.444,14.000,25.000,77.500,64.500
0.445,13.000,25.000,77.500,65.000
0.446,12.500,24.500,78.000,66.000
0.447,12.500,24.500,78.500,67.500
0.448,12.000,25.000,79.500,69.000
0.449,12.000,25.000,81.000,71.000
0.450,11.500,25.500,82.000,72.500
0.451,11.500,25.500,83.000,74.500
0.452,11.000,25.500,83.500,75.500
0.453,10.500,25.500,84.000,77.000
0.454,10.500,25.500,85.000,78.000
0.455,10.000,25.500,85.500,79.000
0.456,10.000,26.000,86.000,80.000
0.457,10.500,26.500,87.000,81.000
0.458,11.000,27.500,88.000,82.000
0.459,12.000,28.500,89.500,83.500
0.460,14.000,31.000,91.500,85.500
0.461,16.500,34.000,94.500,88.000
0.462,20.500,37.500,98.000,90.500
0.463,24.500,42.000,102.000,93.500
0.464,29.000,46.000,106.000,96.500
0.465,33.500,50.000,110.000,99.000
0.466,37.500,54.000,113.500,101.000
0.467,42.000,57.500,117.000,102.500
0.468,46.500,61.500,120.500,104.500
0.469,50.500,65.000,124.000,106.000
0.470,53.500,68.000,126.500,107.000
0.471,56.000,70.500,128.500,108.000
0.472,57.000,71.500,129.000,108.000
0.473,57.500,71.500,129.000,107.500
0.474,57.500,71.500,128.500,107.000
0.475,57.000,70.500,128.000,106.000
0.476,56.500,70.000,127.000,105.000
0.477,55.500,69.000,126.000,103.500
0.478,54.500,67.500,124.500,102.500
0.479,53.500,66.500,123.000,101.000
0.480,52.000,65.000,121.500,99.500
0.481,50.500,63.000,120.000,98.000
0.482,49.000,61.500,118.500,96.500
0.483,48.000,60.000,117.000,95.000
0.484,46.500,59.000,116.000,94.000
0.485,45.500,58.000,115.000,93.000
0.486,45.000,57.000,114.500,92.000
0.487,44.000,56.500,114.000,91.500
0.488,44.000,56.000,113.500,90.500
0.489,43.500,56.000,113.500,90.000
0.490,43.500,56.000,113.000,90.000
0.491,43.500,56.000,113.000,89.500
0.492,43.500,56.000,113.000,89.500
0.493,43.500,56.000,113.500,89.000
0.494,43.000,56.000,113.500,89.000
0.495,43.500,56.500,113.500,89.000
0.496,43.500,56.500,114.000,89.500
0.497,44.000,56.500,114.000,89.500
0.498,44.500,57.000,114.500,90.000
0.499,45.000,57.500,114.500,90.500
0.500,45.500,58.000,115.000,91.000
0.501,46.000,58.500,115.000,91.500
0.502,46.500,59.000,115.500,92.000
0.503,47.000,59.500,116.000,92.000
0.504,47.500,59.500,116.500,92.500
0.505,47.500,60.000,117.000,92.500
0.506,47.500,60.500,117.500,93.000
0.507,47.500,60.500,118.000,93.000
0.508,48.000,60.500,118.500,93.000
0.509,48.000,61.000,118.500,93.000
0.510,48.000,61.000,119.000,93.000
0.511,48.000,61.500,119.000,93.000
0.512,48.000,61.500,119.000,93.000
0.513,48.000,62.000,119.000,93.000
0.514,48.000,62.000,119.000,93.000
0.515,48.000,61.500,119.000,93.000
0.516,47.500,61.500,119.000,93.000
0.517,47.500,61.000,119.000,92.500
0.518,47.500,61.500,119.000,93.000
0.519,47.500,61.500,119.500,93.000
0.520,48.000,62.000,120.000,93.500
0.521,48.000,62.000,120.500,94.000
0.522,48.500,62.500,121.000,94.500
0.523,49.000,63.000,121.500,95.000
0.524,49.500,63.500,122.000,95.500
0.525,50.000,64.000,122.500,96.000
0.526,50.000,64.500,123.000,96.500
0.527,50.500,65.000,123.500,97.000
0.528,50.000,65.000,124.000,97.000
0.529,50.000,65.000,124.000,97.500
0.530,50.000,64.500,123.500,97.500
0.531,49.500,64.500,123.500,97.500
0.532,49.500,64.500,123.500,97.500
0.533,49.500,64.500,123.500,97.500
0.534,49.500,64.500,123.500,97.500
0.535,50.000,64.500,124.000,97.500
0.536,50.000,64.500,124.000,98.000
0.537,50.000,64.500,124.500,98.000
0.538,50.500,65.000,125.000,98.000
0.539,51.000,65.500,125.500,98.500
0.540,51.000,66.000,126.000,98.500
0.541,51.500,66.500,126.000,99.000
0.542,52.000,67.000,126.500,99.500
0.543,52.500,67.000,127.000,100.000
0.544,52.500,67.500,127.500,100.000
0.545,53.000,68.000,128.000,100.500
0.546,53.500,68.500,128.500,101.000
0.547,53.500,69.000,129.000,101.500
0.548,54.000,69.000,129.000,101.500
0.549,54.000,69.000,129.500,101.500
0.550,54.000,69.000,129.500,102.000
0.551,54.000,69.000,129.500,101.500
0.552,54.000,69.000,129.500,101.500
0.553,54.000,68.500,129.500,101.500
0.554,54.000,68.500,129.500,102.000
0.555,54.500,69.000,130.000,102.000
0.556,55.000,69.000,130.000,102.500
0.557,55.500,69.500,130.500,103.000
0.558,56.000,70.000,131.000,103.500
0.559,56.500,71.000,131.500,104.000
0.560,57.500,71.500,132.500,104.500
0.561,58.000,72.500,133.000,105.500
0.562,58.500,73.000,133.500,106.000
0.563,59.000,73.500,134.000,106.500
0.564,59.500,73.500,135.000,107.000
0.565,60.000,74.000,135.500,107.500
0.566,60.500,74.500,136.000,108.000
0.567,61.000,75.000,136.500,108.000
0.568,61.500,75.500,137.000,108.500
0.569,61.500,76.000,137.500,109.000
0.570,61.500,76.500,138.000,109.500
0.571,61.500,76.500,138.500,110.000
0.572,61.500,76.500,138.500,110.000
0.573,61.500,76.500,138.500,110.000
0.574,62.000,76.500,138.500,109.500
0.575,62.000,76.500,138.000,109.000
0.576,62.000,76.500,138.000,109.000
0.577,62.000,76.500,138.000,109.000
0.578,62.500,77.000,138.000,109.000
0.579,63.000,77.500,138.500,109.500
0.580,63.500,78.000,139.000,109.500
0.581,64.000,78.500,139.500,110.000
0.582,64.000,79.000,140.500,111.000
0.583,64.500,80.000,141.000,111.000
0.584,65.000,80.500,142.000,111.500
0.585,65.000,80.500,142.500,112.000
0.586,65.500,81.000,143.000,112.500
0.587,65.500,81.000,143.500,112.500
0.588,66.000,81.000,143.500,113.000
0.589,66.000,81.000,143.500,113.000
0.590,66.500,81.000,143.500,113.000
0.591,66.500,81.000,143.500,113.000
0.592,66.500,80.500,143.000,113.500
0.593,67.000,80.500,143.000,113.500
0.594,67.000,81.000,143.000,113.500
0.595,67.000,81.000,143.000,113.500
0.596,67.000,81.000,143.000,114.000
0.597,67.500,81.500,143.000,114.000
0.598,68.000,81.500,143.000,114.000
0.599,68.000,82.000,143.500,114.500
0.600,68.500,82.500,144.000,115.000
0.601,69.000,83.000,144.500,115.500
0.602,69.500,83.500,145.000,116.000
0.603,69.500,84.000,145.500,116.500
0.604,70.000,84.500,146.000,116.500
0.605,70.000,84.500,146.500,117.000
0.606,70.500,85.000,147.000,117.500
0.607,70.500,85.500,147.500,118.000
0.608,70.500,86.000,147.500,118.500
0.609,70.500,86.000,147.500,118.500
0.610,70.000,86.000,147.500,118.500
0.611,70.000,86.000,147.000,118.500
0.612,70.000,86.000,147.000,119.000
0.613,70.000,86.000,146.500,119.000
0.614,70.000,86.000,146.500,119.000
0.615,70.000,86.000,146.500,119.000
0.616,70.500,86.500,146.500,119.000
0.617,71.000,86.500,146.500,119.500
0.618,71.000,86.500,146.500,119.500
0.619,71.500,86.500,146.500,119.500
0.620,71.500,86.500,147.000,120.000
0.621,72.000,87.000,147.500,120.000
0.622,72.500,87.000,147.500,120.500
0.623,73.000,87.500,148.000,120.500
0.624,73.500,87.500,148.500,121.000
0.625,74.500,88.000,148.500,121.500
0.626,75.000,89.000,149.000,122.000
0.627,76.000,89.500,149.000,122.500
0.628,76.500,90.000,149.500,123.000
0.629,77.000,90.500,149.500,123.500
0.630,77.500,91.000,149.500,124.000
0.631,78.000,91.500,150.000,124.000
0.632,78.500,92.000,150.000,124.500
0.633,78.500,92.000,150.000,124.500
0.634,78.500,92.000,149.500,124.500
0.635,78.000,91.500,149.000,124.500
0.636,77.000,91.000,148.500,124.500
0.637,76.500,90.000,147.500,124.000
0.638,75.000,89.000,146.000,123.000
0.639,73.500,87.500,144.000,121.500
0.640,71.500,85.500,142.000,120.500
0.641,69.500,83.500,140.000,119.500
0.642,67.500,82.000,138.500,119.000
0.643,66.500,80.500,138.000,118.500
0.644,65.500,80.000,138.000,119.000
0.645,66.000,80.500,138.500,119.500
0.646,66.500,81.500,139.500,120.500
0.647,68.000,83.000,140.500,121.500
0.648,69.500,85.000,142.500,123.000
0.649,71.500,88.000,145.000,124.500
0.650,74.500,91.000,148.000,126.500
0.651,77.500,94.000,151.000,128.500
0.652,81.000,97.500,154.000,130.500
0.653,84.000,101.000,156.500,132.500
0.654,86.500,103.500,158.500,134.000
0.655,88.500,105.500,160.000,135.500
0.656,89.500,106.500,160.500,136.000
0.657,90.000,107.500,161.000,136.500
0.658,90.000,107.500,161.000,136.500
0.659,90.000,107.500,160.500,136.500
0.660,89.500,107.000,160.000,136.000
0.661,89.000,106.500,159.500,135.500
0.662,89.000,106.000,159.000,135.500
0.663,88.500,106.000,159.000,135.500
0.664,88.000,106.500,159.000,135.500
0.665,87.500,106.500,159.000,136.000
0.666,87.500,106.500,159.000,136.000
0.667,87.000,107.000,159.000,136.500
0.668,87.000,107.000,159.500,137.000
0.669,87.500,107.500,159.500,137.000
0.670,87.500,108.000,160.000,137.500
0.671,88.000,108.000,160.000,138.000
0.672,88.500,108.500,160.500,138.500
0.673,88.500,109.000,160.500,138.500
0.674,88.500,109.000,160.500,139.000
0.675,88.500,109.500,160.500,139.000
0.676,88.500,109.500,160.500,139.000
0.677,88.500,109.500,160.500,139.500
0.678,89.000,110.000,160.500,139.500
0.679,89.000,110.500,160.500,140.000
0.680,89.500,111.000,161.000,140.000
0.681,90.000,111.500,161.500,140.500
0.682,90.500,112.500,162.000,141.000
0.683,91.000,113.000,163.000,141.500
0.684,92.000,114.000,163.500,142.000
0.685,92.500,114.500,164.000,142.500
0.686,93.000,115.000,164.000,143.500
0.687,93.000,115.000,164.500,144.000
0.688,93.500,115.500,164.500,144.500
0.689,93.500,115.500,164.500,145.000
0.690,93.500,115.500,165.000,145.000
0.691,94.000,115.500,165.000,145.500
0.692,94.500,116.000,164.500,145.500
0.693,94.500,116.000,164.000,145.500
0.694,95.000,116.000,164.000,145.500
0.695,95.500,116.000,163.500,145.500
0.696,96.000,116.000,163.500,145.500
0.697,96.500,116.500,163.500,145.500
0.698,97.000,117.000,163.500,146.000
0.699,97.500,117.500,164.000,146.000
0.700,98.000,118.000,164.500,146.000
0.701,98.500,118.500,164.500,146.500
0.702,99.000,119.000,165.000,147.000
0.703,99.500,119.500,165.000,147.000
0.704,100.000,120.000,165.000,147.000
0.705,100.000,120.500,165.000,147.000
0.706,100.500,120.500,165.000,147.000
0.707,100.500,121.000,165.000,147.000
0.708,100.500,121.000,164.500,147.000
0.709,101.000,121.000,164.500,147.000
0.710,101.000,121.000,164.000,146.500
0.711,100.500,121.000,164.000,146.500
0.712,100.500,121.000,164.000,146.500
0.713,101.000,121.000,163.500,146.000
0.714,101.500,121.000,163.500,146.000
0.715,101.500,121.500,163.500,146.000
0.716,102.000,121.500,163.000,145.500
0.717,102.500,121.500,163.000,145.500
0.718,102.500,121.500,163.000,145.500
0.719,103.000,122.000,162.500,145.500
0.720,103.000,122.500,162.500,145.500
0.721,103.500,122.500,162.500,145.500
0.722,103.500,123.000,163.000,145.500
0.723,104.000,123.000,163.000,146.000
0.724,104.500,123.500,163.000,146.000
0.725,105.000,124.000,163.000,146.500
0.726,105.500,124.500,163.500,146.500
0.727,106.000,124.500,163.500,147.000
0.728,106.500,125.000,163.500,147.000
0.729,106.500,125.000,163.500,147.000
0.730,107.000,125.000,163.000,146.500
0.731,107.000,125.000,163.000,146.500
0.732,107.000,125.000,162.500,146.000
0.733,107.500,125.000,162.500,146.000
0.734,107.500,125.500,162.000,145.500
0.735,108.000,125.500,162.000,145.500
0.736,108.500,125.500,162.000,145.500
0.737,108.500,126.000,162.000,145.500
0.738,109.000,126.500,162.000,145.500
0.739,109.500,127.000,162.500,145.500
0.740,110.000,127.500,162.500,146.000
0.741,110.500,127.500,162.500,146.000
0.742,111.000,127.500,162.000,146.000
0.743,111.000,128.000,162.000,146.000
0.744,111.500,128.000,162.000,146.500
0.745,112.000,128.500,162.000,146.500
0.746,112.500,129.000,162.000,147.000
0.747,113.000,129.500,162.000,147.000
0.748,113.000,129.500,162.000,147.500
0.749,113.500,129.500,162.000,147.500
0.750,113.500,130.000,162.000,147.500
0.751,113.500,130.000,162.000,147.500
0.752,114.000,130.000,162.000,147.500
0.753,114.000,130.000,161.500,147.000
0.754,114.000,130.000,161.000,147.000
0.755,114.000,130.500,160.500,146.500
0.756,114.000,130.500,160.500,146.500
0.757,114.500,131.000,160.000,147.000
0.758,114.500,131.000,160.000,147.000
0.759,115.000,131.500,160.500,147.000
0.760,115.500,132.000,160.500,147.500
0.761,116.000,132.000,160.500,147.500
0.762,116.500,132.500,161.000,147.500
0.763,117.000,133.000,161.000,147.500
0.764,117.000,133.500,161.000,148.000
0.765,117.500,133.500,161.000,147.500
0.766,118.000,134.000,161.000,147.500
0.767,118.500,134.000,161.000,147.500
0.768,119.000,134.500,161.000,148.000
0.769,119.500,134.500,161.000,148.000
0.770,119.500,135.000,161.000,148.000
0.771,120.000,135.000,161.000,148.500
0.772,120.000,135.000,161.000,148.500
0.773,120.000,135.000,160.500,148.000
0.774,120.000,135.000,160.000,148.000
0.775,120.000,135.000,159.500,147.500
0.776,120.000,135.000,159.500,147.500
0.777,120.500,135.500,159.500,147.500
0.778,120.500,135.500,159.000,147.500
0.779,121.000,135.500,159.000,147.000
0.780,121.500,136.000,159.000,147.500
0.781,122.000,136.000,159.500,147.500
0.782,123.000,136.500,159.500,147.500
0.783,123.500,136.500,159.000,148.000
0.784,124.000,136.500,159.000,148.000
0.785,124.000,136.500,159.500,148.000
0.786,124.500,136.500,159.500,148.000
0.787,125.000,137.000,159.500,148.500
0.788,125.000,137.000,159.500,148.500
0.789,125.000,137.000,159.500,148.500
0.790,125.000,137.000,159.000,148.500
0.791,125.000,137.000,158.500,148.500
0.792,125.000,137.000,158.000,148.000
0.793,125.500,137.000,158.000,148.000
0.794,125.500,137.000,157.500,148.000
0.795,125.500,137.000,157.500,148.000
0.796,125.500,137.000,157.500,147.500
0.797,126.000,137.000,157.000,147.500
0.798,126.500,137.500,157.000,147.500
0.799,127.000,137.500,157.500,147.500
0.800,127.000,138.000,157.500,147.500
0.801,127.000,138.000,158.000,148.000
0.802,127.500,138.500,158.000,148.000
0.803,127.500,138.500,158.000,148.500
0.804,128.000,139.000,158.000,149.000
0.805,128.000,139.500,158.000,149.000
0.806,128.500,139.500,158.000,149.000
0.807,129.000,140.000,158.000,148.500
0.808,129.000,140.000,157.500,148.500
0.809,129.000,139.500,156.500,148.000
0.810,129.000,139.000,156.000,147.500
0.811,129.000,138.500,155.500,147.500
0.812,129.000,138.000,155.000,147.500
0.813,129.000,137.500,154.500,147.500
0.814,129.000,137.500,154.500,147.500
0.815,129.000,137.500,154.500,147.500
0.816,129.500,137.500,154.500,147.500
0.817,129.500,137.500,154.000,147.500
0.818,129.500,137.500,154.000,147.000
0.819,130.000,137.500,153.500,147.000
0.820,130.000,137.500,153.000,146.500
0.821,130.000,137.000,152.500,146.500
0.822,130.000,137.000,152.000,146.500
0.823,130.000,137.000,152.000,146.500
0.824,130.500,136.500,151.500,146.500
0.825,130.500,136.500,151.500,146.500
0.826,130.500,136.500,151.500,146.500
0.827,131.000,136.500,151.500,146.500
0.828,131.000,137.000,151.500,146.500
0.829,131.000,137.000,151.500,146.500
0.830,131.000,137.000,151.000,146.500
0.831,130.500,136.500,151.000,146.000
0.832,130.500,136.500,150.500,145.500
0.833,130.000,136.500,150.000,145.500
0.834,130.000,136.500,149.500,145.000
0.835,130.000,136.000,149.000,145.000
0.836,130.000,136.000,148.500,144.500
0.837,130.000,135.500,147.500,144.500
0.838,130.000,135.500,147.000,144.000
0.839,130.000,135.000,147.000,143.500
0.840,130.000,135.000,146.500,143.500
0.841,130.500,135.000,146.500,143.000
0.842,130.500,135.000,146.000,143.000
0.843,131.000,135.500,146.000,143.000
0.844,131.000,135.500,146.000,143.500
0.845,131.500,136.000,146.500,144.000
0.846,131.500,136.000,146.500,144.500
0.847,131.500,136.000,146.500,145.000
0.848,131.500,136.000,146.000,145.000
0.849,131.500,136.000,146.000,145.000
0.850,131.500,135.500,145.500,144.500
0.851,131.500,135.500,145.500,144.500
0.852,131.500,135.000,145.000,144.000
0.853,131.500,135.000,145.000,144.000
0.854,131.500,134.500,144.500,144.000
0.855,131.500,134.500,144.000,144.000
0.856,131.500,134.500,143.500,144.000
0.857,131.500,134.000,143.000,143.500
0.858,131.500,134.000,143.000,143.500
0.859,131.500,134.500,143.000,143.500
0.860,132.000,134.500,143.000,143.500
0.861,132.000,135.000,143.500,144.000
0.862,132.500,135.500,143.500,144.000
0.863,132.500,135.500,143.500,144.000
0.864,132.500,135.500,143.000,144.000
0.865,132.500,135.000,143.000,144.000
0.866,132.500,135.000,142.500,143.500
0.867,132.500,134.500,142.000,143.500
0.868,133.000,134.500,142.000,143.000
0.869,133.500,135.000,142.000,143.000
0.870,133.500,135.000,142.000,143.000
0.871,133.500,135.500,142.000,143.500
0.872,133.500,135.500,142.000,143.500
0.873,133.500,135.000,141.500,143.500
0.874,133.500,134.500,141.000,143.000
0.875,133.000,134.500,140.500,143.000
0.876,133.000,134.000,140.000,142.500
0.877,133.000,134.000,140.000,142.000
0.878,133.000,134.000,139.500,142.000
0.879,133.000,134.000,139.500,141.500
0.880,133.000,134.000,139.500,141.500
0.881,133.000,134.500,139.500,141.500
0.882,133.000,134.500,139.500,141.500
0.883,133.000,135.000,139.500,142.000
0.884,133.500,135.000,140.000,142.000
0.885,133.500,135.500,140.000,142.500
0.886,134.000,135.500,140.000,142.500
0.887,134.500,135.500,140.000,142.500
0.888,134.500,135.500,140.000,142.500
0.889,134.500,135.500,139.500,142.500
0.890,134.500,135.000,139.000,142.500
0.891,134.500,134.500,138.500,142.000
0.892,134.500,134.000,138.000,142.000
0.893,134.000,134.000,138.000,141.500
0.894,134.500,133.500,137.500,141.000
0.895,134.500,133.500,137.500,141.000
0.896,134.000,133.000,137.000,140.500
0.897,134.000,133.000,137.000,140.500
0.898,134.000,133.000,136.500,140.000
0.899,134.000,133.000,136.500,140.000
0.900,134.000,133.000,136.500,139.500
0.901,134.000,133.000,136.500,139.500
0.902,134.000,133.500,136.500,139.500
0.903,134.000,133.500,136.500,139.500
0.904,134.500,133.500,136.500,139.500
0.905,134.500,134.000,136.000,140.000
0.906,135.000,134.000,136.000,140.000
0.907,135.000,134.000,136.000,140.000
0.908,135.000,133.500,136.000,140.000
0.909,135.000,133.500,135.500,140.000
0.910,135.000,133.500,135.000,140.000
0.911,135.000,133.000,134.500,139.500
0.912,135.000,133.000,134.000,139.500
0.913,135.000,132.500,134.000,139.500
0.914,135.000,132.000,133.500,139.000
0.915,135.000,132.000,133.000,138.500
0.916,134.500,132.000,133.000,138.000
0.917,134.500,131.500,132.500,137.500
0.918,134.500,132.000,132.000,137.500
0.919,134.500,132.000,132.000,137.500
0.920,134.000,132.000,132.000,137.500
0.921,134.000,132.000,132.000,137.500
0.922,134.000,132.000,132.000,138.000
0.923,134.000,132.000,132.000,138.000
0.924,134.000,132.000,132.000,138.000
0.925,134.000,132.500,132.000,138.000
0.926,133.500,132.500,131.500,138.000
0.927,133.500,132.500,131.500,138.000
0.928,133.500,132.500,131.500,138.000
0.929,133.500,132.500,131.000,138.500
0.930,133.500,133.000,131.000,138.500
0.931,133.500,133.000,131.000,138.000
0.932,133.500,133.000,131.000,138.000
0.933,133.500,133.000,130.500,138.000
0.934,133.500,133.000,130.500,138.000
0.935,133.500,132.500,130.500,137.500
0.936,133.500,132.500,130.500,137.500
0.937,133.500,132.500,130.000,137.500
0.938,133.500,132.500,130.000,137.000
0.939,133.000,132.500,129.500,137.000
0.940,133.000,132.500,129.500,137.000
0.941,133.500,132.500,129.500,137.500
0.942,133.500,133.000,130.000,138.000
0.943,134.000,133.000,130.000,138.000
0.944,134.500,133.000,130.500,138.500
0.945,135.000,133.000,130.500,139.000
0.946,135.000,133.000,131.000,139.500
0.947,135.000,133.500,131.500,140.000
0.948,135.000,133.500,131.500,140.500
0.949,135.000,133.500,131.500,140.500
0.950,134.500,133.500,131.500,140.500
0.951,134.000,133.500,131.000,140.500
0.952,134.000,133.000,130.500,140.000
0.953,134.000,133.000,130.000,139.500
0.954,134.000,132.500,129.000,139.000
0.955,134.000,132.000,128.000,138.500
0.956,134.500,131.500,127.000,138.000
0.957,134.500,131.000,126.500,138.000
0.958,135.000,131.500,126.500,138.000
0.959,135.000,131.500,126.000,138.000
0.960,135.000,132.000,126.000,138.000
0.961,135.000,132.000,126.500,138.000
0.962,135.000,132.000,126.500,138.000
0.963,134.500,132.000,126.500,138.000
0.964,134.500,132.000,126.500,138.000
0.965,134.000,132.000,126.500,137.500
0.966,133.500,131.500,126.000,137.500
0.967,133.500,131.500,125.500,137.500
0.968,133.500,131.500,125.000,137.000
0.969,133.500,131.500,124.500,137.000
0.970,133.500,131.500,124.500,137.000
0.971,133.500,132.000,124.500,137.000
0.972,133.500,132.000,124.500,137.000
0.973,133.500,131.500,124.000,137.000
0.974,133.000,131.500,123.500,136.500
0.975,133.000,131.000,122.500,136.000
0.976,133.000,130.500,122.000,135.500
0.977,132.500,130.000,121.000,135.000
0.978,132.500,130.000,120.500,135.000
0.979,132.500,129.500,120.000,135.000
0.980,133.000,130.000,120.000,135.000
0.981,133.000,130.000,120.500,135.000
0.982,133.000,130.000,120.500,135.000
0.983,133.000,130.000,120.500,135.500
0.984,133.000,130.000,120.500,135.500
0.985,132.500,130.000,120.500,135.500
0.986,132.500,130.000,120.500,135.500
0.987,133.000,130.500,120.500,135.500
0.988,133.000,130.500,121.000,135.500
0.989,133.500,131.000,121.000,136.000
0.990,134.000,131.500,121.500,136.000
0.991,134.000,131.500,121.500,136.000
0.992,134.000,131.500,121.500,136.000
0.993,134.000,131.500,121.000,136.000
0.994,134.000,131.000,120.500,136.000
0.995,134.000,131.000,120.500,136.000
0.996,134.000,130.500,120.000,135.500
0.997,134.000,130.500,119.500,135.500
0.998,133.500,130.000,119.000,135.000
0.999,133.000,129.500,118.500,134.500
1.000,132.500,129.000,117.500,134.000
1.001,131.500,127.500,116.000,133.500
1.002,130.000,126.000,114.500,132.500
1.003,128.000,124.000,112.500,131.000
1.004,126.500,122.000,110.500,130.000
1.005,125.000,120.500,108.500,128.500
1.006,123.500,119.000,107.500,127.500
1.007,123.000,118.500,106.500,127.000
1.008,123.000,118.000,106.000,127.000
1.009,123.000,118.500,106.000,127.500
1.010,123.500,119.000,106.500,128.000
1.011,124.500,120.000,107.500,129.000
1.012,125.500,121.500,108.500,130.000
1.013,127.500,123.500,110.500,131.500
1.014,129.500,125.500,112.500,133.000
1.015,131.500,128.000,114.500,134.500
1.016,134.000,130.500,116.500,136.000
1.017,135.500,132.000,118.000,137.500
1.018,136.500,133.500,118.500,138.000
1.019,137.500,134.500,119.000,138.500
1.020,138.000,134.500,118.500,138.500
1.021,138.000,134.500,118.000,138.500
1.022,137.500,134.000,117.000,138.500
1.023,137.500,133.500,116.500,138.000
1.024,136.500,132.500,115.500,137.500
1.025,135.500,131.500,114.500,137.000
1.026,134.500,130.500,113.500,136.500
1.027,133.500,130.000,113.000,136.000
1.028,132.500,129.500,112.000,135.500
1.029,132.000,129.000,111.500,135.500
1.030,131.500,128.500,111.000,135.500
1.031,131.500,128.500,110.500,135.000
1.032,131.000,128.500,110.000,135.000
1.033,131.000,128.000,109.500,134.500
1.034,130.500,127.500,109.000,134.500
1.035,130.500,127.000,108.500,134.000
1.036,130.500,126.500,107.500,134.000
1.037,130.500,126.500,107.000,133.500
1.038,130.000,126.000,106.500,133.500
1.039,130.000,126.000,105.500,133.000
1.040,129.500,125.500,105.000,132.500
1.041,129.500,125.000,104.000,132.000
1.042,129.000,124.500,103.000,131.000
1.043,128.500,124.000,102.000,130.000
1.044,128.000,123.000,101.000,129.000
1.045,127.000,122.500,99.500,128.000
1.046,126.000,121.500,98.500,126.500
1.047,125.000,120.000,96.500,125.500
1.048,123.500,119.000,95.000,124.000
1.049,122.000,117.500,93.500,123.000
1.050,120.500,116.000,91.500,122.000
1.051,119.000,114.500,90.000,121.000
1.052,117.000,113.000,88.000,120.000
1.053,115.500,111.500,86.500,119.000
1.054,114.000,110.500,85.000,118.500
1.055,113.000,109.500,84.500,118.500
1.056,112.500,109.000,83.500,118.500
1.057,112.000,108.500,83.500,118.500
1.058,111.000,108.500,83.500,119.500
1.059,110.500,108.500,83.500,121.000
1.060,110.000,108.500,84.000,122.500
1.061,109.500,108.500,84.500,124.000
1.062,109.000,108.500,84.500,125.500
1.063,108.500,109.000,84.500,127.000
1.064,108.000,109.000,85.000,128.500
1.065,107.500,109.000,85.000,129.500
1.066,107.000,109.000,85.000,131.000
1.067,106.500,109.000,85.000,132.000
1.068,106.000,109.000,85.000,132.500
1.069,106.000,109.000,85.000,133.000
1.070,106.000,109.000,85.000,133.500
1.071,106.000,109.500,85.000,133.500
1.072,106.500,110.500,85.500,134.000
1.073,108.000,111.500,86.000,134.000
1.074,110.000,113.000,87.000,135.000
1.075,112.500,115.000,88.500,135.500
1.076,115.000,117.500,90.500,136.500
1.077,118.000,120.000,92.000,137.500
1.078,121.000,122.500,94.000,138.000
1.079,124.000,125.500,95.500,139.000
1.080,127.500,128.000,97.500,139.500
1.081,131.000,131.000,100.000,140.500
1.082,134.000,133.500,101.500,141.500
1.083,136.000,135.500,103.000,142.500
1.084,138.000,137.500,104.500,143.500
1.085,139.000,138.500,105.000,144.500
1.086,140.000,139.500,106.000,145.000
1.087,140.500,140.500,106.500,145.500
1.088,140.500,141.000,107.000,146.000
1.089,140.500,141.000,107.000,146.000
1.090,140.000,140.500,106.000,145.500
1.091,139.000,139.500,105.000,144.500
1.092,138.000,138.500,103.000,143.500
1.093,137.000,136.500,101.000,142.000
1.094,135.000,135.000,98.500,140.000
1.095,133.500,133.000,96.500,138.000
1.096,132.000,131.500,94.500,136.500
1.097,130.500,130.000,92.500,135.000
1.098,129.500,128.500,91.000,133.500
1.099,128.500,127.500,89.500,132.500
1.100,128.000,126.500,88.500,131.500
1.101,127.000,126.000,87.500,130.500
1.102,126.500,125.500,86.500,130.000
1.103,126.000,125.000,86.000,129.500
1.104,126.000,125.000,85.500,129.000
1.105,125.500,125.000,85.000,129.000
1.106,125.500,125.000,84.500,129.000
1.107,125.500,125.000,84.000,129.000
1.108,125.000,125.000,83.500,129.000
1.109,125.000,125.000,83.000,129.000
1.110,124.500,124.500,82.500,128.500
1.111,124.000,124.000,82.000,128.000
1.112,124.000,123.500,81.500,127.500
1.113,123.500,123.500,81.000,127.500
1.114,123.500,123.000,80.500,127.000
1.115,123.500,123.000,80.000,127.000
1.116,123.000,123.000,79.500,127.000
1.117,123.000,122.500,79.000,127.000
1.118,122.500,122.000,78.500,127.000
1.119,122.500,121.500,78.000,126.500
1.120,122.000,121.500,78.000,126.500
1.121,122.000,121.000,77.500,126.500
1.122,121.500,121.000,77.500,126.500
1.123,121.500,121.000,77.000,126.000
1.124,121.500,121.000,76.500,126.000
1.125,121.000,120.500,76.000,126.000
1.126,121.000,120.500,76.000,126.000
1.127,121.000,121.000,75.500,126.000
1.128,121.000,121.000,75.500,125.500
1.129,120.500,120.500,75.000,125.500
1.130,120.500,120.500,74.500,125.000
1.131,120.500,120.000,74.000,124.500
1.132,120.000,119.500,73.000,124.500
1.133,120.000,119.000,72.500,124.000
1.134,119.500,119.000,72.000,124.000
1.135,120.000,118.500,71.500,123.500
1.136,120.000,118.500,71.500,123.000
1.137,119.500,118.000,71.000,123.000
1.138,119.500,118.000,70.500,122.500
1.139,119.000,118.000,70.500,122.500
1.140,119.000,118.000,70.500,122.500
1.141,119.000,118.000,70.000,122.500
1.142,118.500,118.000,70.000,123.000
1.143,118.500,118.500,70.000,123.000
1.144,119.000,118.500,70.000,123.500
1.145,119.000,118.500,70.000,123.500
1.146,119.500,118.500,70.000,123.500
1.147,119.000,119.000,69.500,123.500
1.148,119.000,118.500,69.500,123.500
1.149,118.500,118.500,69.000,123.000
1.150,118.000,118.000,68.500,123.000
1.151,117.500,118.000,67.500,122.500
1.152,117.000,117.500,67.000,122.500
1.153,116.500,117.000,66.500,122.000
1.154,116.500,117.000,66.000,122.000
1.155,116.000,116.500,65.500,122.000
1.156,116.000,116.500,65.000,121.500
1.157,116.000,116.500,64.500,121.500
1.158,116.000,116.500,64.500,121.500
1.159,116.000,116.500,64.500,121.500
1.160,116.000,116.500,64.500,121.500
1.161,116.000,117.000,64.500,121.500
1.162,116.000,117.000,64.500,121.500
1.163,116.000,117.000,64.500,121.500
1.164,116.000,117.000,64.500,121.500
1.165,115.500,117.000,64.500,121.500
1.166,115.500,116.500,64.000,121.500
1.167,115.000,116.000,63.500,121.000
1.168,115.000,115.500,62.500,120.500
1.169,114.500,115.500,62.000,120.000
1.170,114.500,115.000,61.000,120.000
1.171,114.000,114.500,60.500,119.500
1.172,113.500,114.000,60.000,119.000
1.173,113.000,113.500,59.500,119.000
1.174,113.000,113.000,59.000,118.500
1.175,112.500,112.500,59.000,118.500
1.176,112.000,112.500,58.500,118.000
1.177,112.000,112.500,58.000,117.500
1.178,112.000,112.500,58.000,117.500
1.179,112.000,112.500,57.500,117.500
1.180,112.000,112.500,57.000,117.500
1.181,112.500,112.500,57.000,117.500
1.182,112.500,112.500,56.500,117.500
1.183,112.500,112.500,56.000,117.500
1.184,112.500,112.000,56.000,117.000
1.185,112.000,112.000,56.000,117.000
1.186,111.500,112.000,55.500,117.000
1.187,111.500,112.000,55.500,117.000
1.188,111.000,111.500,55.000,117.000
1.189,111.000,111.500,55.000,116.500
1.190,110.500,111.000,54.500,116.500
1.191,110.000,110.500,53.500,116.500
1.192,109.500,110.000,53.000,116.000
1.193,109.000,109.500,52.500,116.000
1.194,109.000,109.500,52.000,116.000
1.195,109.000,109.500,51.500,116.000
1.196,109.000,109.500,51.500,115.500
1.197,109.000,109.500,51.000,115.500
1.198,109.000,109.500,51.000,115.500
1.199,108.500,109.500,51.000,115.500
1.200,108.500,109.500,50.500,115.500
1.201,108.000,109.500,50.500,115.500
1.202,108.000,109.500,50.000,115.500
1.203,108.000,109.500,50.000,115.500
1.204,108.000,109.500,50.000,115.500
1.205,108.000,109.500,49.500,115.500
1.206,108.000,109.500,49.500,115.500
1.207,108.000,109.500,49.500,115.500
1.208,108.500,109.500,49.500,115.500
1.209,108.500,109.500,49.500,115.500
1.210,108.000,110.000,49.000,115.500
1.211,108.000,110.000,49.000,115.500
1.212,107.500,110.000,48.500,115.500
1.213,107.500,110.000,48.000,115.500
1.214,107.500,109.500,48.000,115.000
1.215,107.500,109.500,48.000,115.000
1.216,107.500,109.500,47.500,115.000
1.217,107.000,109.000,47.000,115.000
1.218,107.000,109.000,46.500,115.000
1.219,107.000,109.000,46.000,115.000
1.220,107.000,109.000,45.500,115.000
1.221,107.000,109.000,45.500,115.000
1.222,107.000,109.500,45.500,115.000
1.223,107.000,109.500,45.500,115.000
1.224,107.000,109.500,45.500,115.000
1.225,107.000,109.500,46.000,115.000
1.226,107.000,109.500,46.000,115.000
1.227,107.000,109.500,46.000,115.000
1.228,107.000,109.500,45.500,115.000
1.229,106.500,109.500,45.500,115.000
1.230,106.500,109.500,45.500,115.000
1.231,106.000,109.000,45.000,115.000
1.232,105.500,109.000,44.500,114.500
1.233,105.500,108.500,44.500,114.500
1.234,105.500,108.000,44.000,114.000
1.235,105.000,108.000,43.000,114.000
1.236,105.500,107.500,42.500,114.000
1.237,105.500,107.500,42.000,113.500
1.238,105.000,107.500,42.000,113.000
1.239,105.000,107.500,41.500,113.000
1.240,105.000,108.000,41.500,113.000
1.241,105.000,108.500,41.500,113.000
1.242,105.000,109.000,41.500,113.000
1.243,105.000,109.000,42.000,113.500
1.244,105.000,109.500,42.000,114.000
1.245,105.000,109.500,42.000,114.000
1.246,105.000,109.500,42.000,114.500
1.247,104.500,109.500,42.000,114.500
1.248,104.500,109.000,41.500,114.000
1.249,104.500,109.000,41.500,114.000
1.250,104.500,108.500,41.500,114.000
1.251,104.500,108.000,41.000,114.000
1.252,104.000,107.500,40.500,113.500
1.253,103.500,107.500,40.500,113.500
1.254,103.000,107.000,40.000,113.000
1.255,102.500,107.000,39.500,113.000
1.256,102.500,106.500,39.500,112.500
1.257,102.000,106.500,39.000,112.500
1.258,102.000,106.500,39.000,112.000
1.259,101.500,106.000,38.500,112.000
1.260,101.500,106.000,38.500,112.000
1.261,101.500,106.000,39.000,112.000
1.262,101.500,106.000,39.000,112.500
1.263,101.500,106.000,39.000,112.500
1.264,101.500,106.500,39.500,113.000
1.265,101.000,106.500,39.500,113.000
1.266,101.000,106.500,39.000,113.000
1.267,100.500,106.500,39.000,113.000
1.268,100.500,106.500,39.000,113.000
1.269,100.000,106.500,39.000,113.000
1.270,100.000,106.000,39.000,113.000
1.271,99.500,106.000,39.000,113.000
1.272,99.500,106.000,38.500,113.000
1.273,99.500,105.500,38.500,113.000
1.274,99.500,105.500,38.500,112.500
1.275,99.000,105.000,38.000,112.000
1.276,99.000,105.000,38.000,112.000
1.277,99.000,105.000,37.500,112.000
1.278,98.500,104.500,37.500,111.500
1.279,98.500,104.500,37.500,112.000
1.280,98.500,104.500,37.500,112.000
1.281,98.500,104.500,37.500,112.000
1.282,99.000,104.500,38.000,112.500
1.283,99.000,104.500,38.500,113.000
1.284,99.000,105.000,39.000,113.000
1.285,99.000,105.000,39.000,113.500
1.286,99.000,105.000,39.500,114.000
1.287,99.000,105.000,39.500,114.000
1.288,98.500,105.000,39.500,114.000
1.289,98.500,105.000,39.500,114.000
1.290,98.000,104.500,39.500,114.000
1.291,98.000,104.500,39.000,114.000
1.292,98.000,104.000,39.000,113.500
1.293,97.500,104.000,38.500,113.000
1.294,97.500,103.500,38.000,112.500
1.295,97.500,103.500,37.500,112.500
1.296,97.500,103.500,37.500,112.000
1.297,97.500,103.500,37.000,112.000
1.298,97.500,103.000,37.000,111.500
1.299,97.500,103.000,37.000,111.500
1.300,97.500,103.000,37.000,111.000
1.301,97.500,102.500,37.000,111.000
1.302,98.000,103.000,37.000,111.000
1.303,98.000,103.000,37.000,111.000
1.304,98.000,103.000,37.000,111.000
1.305,97.500,103.000,37.000,111.000
1.306,97.500,103.000,37.000,111.000
1.307,97.000,103.000,37.000,111.000
1.308,97.000,103.000,37.000,110.500
1.309,96.500,102.500,37.000,110.500
1.310,96.000,102.000,36.500,110.000
1.311,95.500,101.500,36.000,109.500
1.312,95.500,101.500,35.500,109.000
1.313,95.000,101.000,35.000,108.500
1.314,95.000,101.000,34.500,108.500
1.315,95.000,100.500,34.000,108.000
1.316,95.000,100.000,34.000,107.500
1.317,95.000,99.500,33.500,107.500
1.318,95.000,99.500,33.500,107.000
1.319,95.000,99.500,33.500,107.000
1.320,95.000,99.500,33.000,107.000
1.321,95.000,99.500,33.000,107.000
1.322,95.000,100.000,33.000,106.500
1.323,95.000,100.000,33.000,106.500
1.324,95.500,100.500,33.000,106.500
1.325,95.500,100.500,33.000,106.500
1.326,95.000,100.500,33.000,106.500
1.327,94.500,100.000,33.000,106.000
1.328,94.500,99.500,32.500,106.000
1.329,94.000,99.000,32.000,105.500
1.330,93.500,98.500,31.500,105.000
1.331,93.500,98.000,30.500,104.000
1.332,93.500,97.500,30.000,103.500
1.333,93.000,96.500,29.000,102.500
1.334,93.000,96.000,28.000,102.000
1.335,92.500,95.500,27.500,101.000
1.336,92.500,95.000,26.500,100.500
1.337,92.000,95.000,26.500,100.500
1.338,92.000,94.500,26.000,100.000
1.339,92.000,94.500,26.000,100.000
1.340,92.000,94.500,25.500,100.000
1.341,92.000,94.500,25.500,100.000
1.342,92.000,95.000,25.500,100.000
1.343,92.000,95.000,25.500,100.000
1.344,92.000,95.000,25.500,100.000
1.345,92.000,95.000,25.000,100.000
1.346,91.500,94.500,25.000,99.500
1.347,91.000,94.500,24.500,99.000
1.348,91.000,94.000,24.500,99.000
1.349,90.500,93.500,24.000,98.500
1.350,90.500,93.500,24.000,98.500
1.351,90.500,93.500,24.000,98.500
1.352,90.500,93.500,24.000,98.500
1.353,91.000,93.500,24.000,98.500
1.354,91.000,93.500,24.000,98.500
1.355,91.000,94.000,24.000,98.500
1.356,91.500,94.000,24.000,98.500
1.357,91.500,94.000,24.000,98.000
1.358,91.500,94.000,23.500,98.000
1.359,91.500,93.500,23.000,97.500
1.360,91.500,93.500,23.000,97.000
1.361,91.000,93.000,22.500,97.000
1.362,90.500,93.000,22.000,96.500
1.363,89.500,92.000,21.500,96.500
1.364,88.500,91.000,20.500,96.000
1.365,87.000,89.500,19.000,95.000
1.366,85.000,87.500,17.000,94.000
1.367,82.500,85.500,15.500,92.500
1.368,80.500,83.500,14.000,91.500
1.369,79.000,82.000,13.000,90.500
1.370,78.000,81.000,12.500,89.500
1.371,77.500,81.000,12.000,89.500
1.372,77.500,81.000,12.500,89.500
1.373,78.000,81.500,13.000,89.500
1.374,79.000,82.500,14.000,90.000
1.375,80.500,84.000,15.000,90.500
1.376,82.000,85.500,17.000,92.000
1.377,84.000,87.500,19.000,93.000
1.378,86.000,89.500,21.000,94.500
1.379,88.000,91.500,22.500,95.500
1.380,90.000,93.500,24.500,96.500
1.381,91.500,95.000,25.500,97.500
1.382,92.500,96.500,26.500,98.000
1.383,93.500,97.000,27.000,98.500
1.384,93.500,97.500,27.000,98.500
1.385,93.500,97.500,26.500,98.000
1.386,93.000,96.500,26.000,97.500
1.387,92.000,95.500,25.000,97.000
1.388,91.500,94.500,24.500,96.500
1.389,90.500,93.500,23.500,96.000
1.390,89.500,92.500,23.000,95.500
1.391,88.500,92.000,23.000,95.000
1.392,87.500,91.000,22.500,94.500
1.393,87.000,90.500,22.000,94.500
1.394,86.500,90.000,21.500,94.000
1.395,86.000,90.000,21.000,94.000
1.396,86.000,90.000,20.500,94.000
1.397,86.500,90.000,20.500,94.000
1.398,87.000,90.500,20.500,94.000
1.399,87.000,90.500,20.500,94.000
1.400,87.500,91.000,20.500,94.500
1.401,87.500,91.000,21.000,94.500
1.402,87.500,91.500,21.000,94.500
1.403,87.500,91.500,21.500,95.000
1.404,87.500,91.500,21.500,95.000
1.405,87.000,91.500,21.500,94.500
1.406,87.000,91.000,21.500,94.500
1.407,86.500,91.000,21.500,94.500
1.408,86.500,91.000,21.500,94.000
1.409,86.000,90.500,21.500,94.000
1.410,86.000,90.500,21.500,94.000
1.411,85.500,90.500,21.500,94.000
1.412,85.500,90.500,21.500,94.000
1.413,85.000,90.500,21.500,94.000
1.414,85.000,90.500,22.000,94.500
1.415,85.500,90.500,22.000,94.500
1.416,85.000,91.000,22.500,94.500
1.417,85.000,91.000,22.500,94.500
1.418,85.000,91.000,22.500,94.500
1.419,85.500,91.000,22.000,94.500
1.420,85.500,91.000,22.000,94.000
1.421,85.500,91.000,22.000,94.000
1.422,86.000,91.500,22.000,94.000
1.423,86.000,91.500,22.500,94.500
1.424,86.000,91.500,22.500,94.500
1.425,86.000,91.500,22.500,94.500
1.426,85.500,91.500,23.000,94.500
1.427,85.500,91.500,23.000,94.500
1.428,85.500,91.500,22.500,94.500
1.429,85.500,91.000,22.500,94.500
1.430,85.000,91.000,22.000,94.500
1.431,85.000,90.500,21.500,94.000
1.432,85.000,90.000,21.500,93.500
1.433,85.000,89.500,21.000,93.000
1.434,84.500,89.000,21.000,93.000
1.435,84.500,89.000,21.000,93.000
1.436,84.500,89.000,21.500,93.500
1.437,84.500,89.000,21.500,93.500
1.438,85.000,89.000,21.500,93.500
1.439,85.000,89.500,21.500,93.500
1.440,85.000,89.500,22.000,94.000
1.441,85.500,90.000,22.500,94.500
1.442,86.000,90.000,23.000,95.000
1.443,86.500,90.500,23.500,95.000
1.444,86.500,90.500,24.000,95.500
1.445,86.500,91.000,24.000,95.500
1.446,86.500,91.000,24.500,95.500
1.447,86.500,91.000,24.500,95.500
1.448,86.500,91.500,24.500,95.500
1.449,86.500,91.500,25.000,95.500
1.450,87.000,91.500,25.000,96.000
1.451,87.000,91.500,25.000,96.000
1.452,87.000,91.500,25.000,96.000
1.453,87.000,91.500,25.000,96.500
1.454,87.000,91.000,25.000,96.500
1.455,87.000,91.000,25.000,96.500
1.456,87.000,91.000,25.000,96.500
1.457,87.000,91.000,25.000,96.500
1.458,87.500,91.000,24.500,96.500
1.459,87.500,91.000,24.500,96.500
1.460,88.000,91.500,24.500,96.500
1.461,88.000,91.500,25.000,96.500
1.462,88.000,92.000,25.000,96.500
1.463,88.000,92.000,25.000,97.000
1.464,88.000,92.000,25.500,97.000
1.465,88.000,92.500,25.500,97.000
1.466,87.500,92.500,25.500,97.000
1.467,87.500,92.500,26.000,97.000
1.468,87.500,92.500,26.000,97.000
1.469,87.500,92.500,26.500,97.000
1.470,87.000,92.000,26.500,97.000
1.471,86.500,91.500,27.000,96.500
1.472,86.000,91.000,27.000,96.000
1.473,85.500,91.000,26.500,95.500
1.474,85.500,91.000,27.000,95.500
1.475,85.500,91.000,27.000,95.500
1.476,85.500,91.000,27.000,95.500
1.477,85.500,91.000,27.000,95.500
1.478,85.500,90.500,26.500,95.500
1.479,85.000,90.000,26.000,95.000
1.480,85.000,90.000,25.500,94.500
1.481,85.000,89.500,25.500,94.000
1.482,85.000,89.000,25.500,93.500
1.483,85.000,89.000,25.500,93.000
1.484,85.000,89.000,25.500,93.000
1.485,85.500,89.500,26.000,93.000
1.486,85.500,89.500,26.000,93.000
1.487,85.000,89.500,26.500,93.000
1.488,85.000,89.500,26.500,93.500
1.489,85.000,89.500,27.000,93.500
1.490,84.500,89.500,26.500,93.000
1.491,84.500,89.000,26.500,92.500
1.492,84.000,88.500,26.000,92.000
1.493,84.000,88.500,26.000,91.500
1.494,83.500,88.500,25.500,91.500
1.495,83.500,88.000,25.000,91.000
1.496,83.000,88.000,25.000,91.000
1.497,83.000,87.500,24.500,91.000
1.498,83.000,87.500,24.500,91.000
1.499,83.000,87.000,24.500,90.500
1.500,83.000,87.000,24.500,90.500
1.501,83.000,87.000,24.500,90.500
1.502,83.000,87.500,25.000,90.500
1.503,83.000,87.500,25.500,90.500
1.504,83.000,88.000,26.000,90.500
1.505,83.000,88.500,26.500,91.000
1.506,83.000,88.500,27.000,91.000
1.507,83.000,88.500,27.000,91.000
1.508,82.500,88.500,27.000,91.000
1.509,82.000,88.500,27.000,90.500
1.510,81.500,88.500,27.000,90.500
1.511,81.000,88.000,26.500,90.000
1.512,80.500,87.000,26.500,90.000
1.513,80.500,86.500,26.000,89.500
1.514,80.500,86.500,26.000,89.500
1.515,80.500,86.000,26.000,89.000
1.516,80.500,86.000,25.500,89.000
1.517,80.500,85.500,25.500,88.500
1.518,80.500,85.500,25.500,88.500
1.519,80.500,85.500,25.500,88.500
1.520,81.000,85.500,26.000,88.000
1.521,81.000,85.500,26.000,88.000
1.522,81.000,85.500,26.000,88.000
1.523,80.500,86.000,26.500,88.000
1.524,80.500,86.000,26.500,87.500
1.525,80.500,86.000,27.000,87.500
1.526,80.500,86.000,27.000,88.000
1.527,80.000,85.500,27.500,88.000
1.528,80.000,85.500,27.500,88.000
1.529,80.000,85.500,27.500,88.500
1.530,80.000,85.500,28.000,88.500
1.531,80.000,85.000,28.000,88.500
1.532,80.000,85.000,28.500,88.500
1.533,80.000,85.000,29.000,88.500
1.534,80.000,85.500,29.500,89.000
1.535,80.000,85.500,30.000,89.500
1.536,80.000,85.500,30.500,89.500
1.537,80.000,86.000,30.500,89.500
1.538,80.500,86.000,30.500,89.500
1.539,80.500,86.000,30.500,89.000
1.540,80.500,85.500,30.500,89.000
1.541,80.000,85.500,30.500,89.000
1.542,80.000,85.500,31.000,89.000
1.543,80.000,85.500,31.000,89.000
1.544,79.500,85.500,31.500,89.000
1.545,79.500,85.500,32.000,89.500
1.546,79.500,85.500,32.500,89.500
1.547,79.000,85.500,33.000,89.500
1.548,79.000,85.000,33.500,89.500
1.549,79.000,85.000,34.000,89.000
1.550,78.500,85.000,34.000,88.500
1.551,78.500,85.000,34.000,88.500
1.552,78.500,84.500,34.000,88.000
1.553,79.000,84.500,33.500,88.500
1.554,79.000,84.500,33.000,88.500
1.555,79.000,84.500,33.000,89.000
1.556,79.000,84.500,32.500,89.500
1.557,79.000,84.500,32.500,90.000
1.558,79.000,84.500,32.500,90.000
1.559,79.000,84.500,33.000,90.500
1.560,79.500,85.000,33.500,91.000
1.561,79.500,85.000,34.000,92.000
1.562,80.000,85.500,34.000,92.500
1.563,80.000,86.000,34.500,93.000
1.564,80.000,86.500,35.000,93.500
1.565,80.000,86.500,35.500,94.000
1.566,80.000,86.500,35.500,94.000
1.567,80.000,86.500,36.000,94.000
1.568,80.000,86.500,36.000,94.000
1.569,80.000,86.500,36.000,94.000
1.570,80.000,86.500,36.000,93.500
1.571,80.000,86.500,36.000,93.500
1.572,80.000,86.000,35.500,93.000
1.573,80.000,86.000,35.500,92.500
1.574,80.000,86.500,35.500,92.500
1.575,80.500,86.500,36.000,92.500
1.576,80.500,87.000,36.000,92.500
1.577,80.500,87.000,36.500,92.500
1.578,80.500,87.000,37.000,92.000
1.579,80.500,87.500,37.500,92.000
1.580,80.500,87.500,37.500,91.500
1.581,80.500,87.500,38.000,91.500
1.582,81.000,88.000,38.500,91.000
1.583,81.000,88.000,39.000,91.000
1.584,81.000,88.000,39.500,91.000
1.585,81.000,88.500,40.000,91.000
1.586,81.000,88.500,40.500,91.000
1.587,80.500,88.500,41.000,90.500
1.588,80.500,88.500,41.500,90.500
1.589,80.500,88.000,41.500,90.500
1.590,81.000,87.500,41.500,90.500
1.591,81.000,87.500,41.500,90.000
1.592,81.000,87.000,41.500,90.000
1.593,81.000,87.000,42.000,90.000
1.594,81.000,87.000,42.000,90.000
1.595,81.000,87.000,42.000,90.000
1.596,81.500,87.000,42.500,90.000
1.597,81.500,87.000,43.000,90.000
1.598,82.000,87.000,43.500,90.500
1.599,82.000,87.000,44.000,90.500
1.600,82.000,87.000,44.500,91.000
1.601,82.000,87.000,44.500,91.500
1.602,82.000,87.000,45.000,91.500
1.603,82.000,87.000,45.500,92.000
1.604,82.500,87.000,45.500,92.000
1.605,82.500,87.500,46.000,92.000
1.606,82.500,87.500,46.500,92.500
1.607,82.500,87.500,47.000,93.000
1.608,82.500,88.000,47.500,93.500
1.609,83.000,88.000,48.000,93.500
1.610,83.000,88.000,48.000,93.500
1.611,83.000,88.000,48.500,93.500
1.612,83.000,87.500,48.500,93.000
1.613,83.000,87.500,48.000,92.500
1.614,83.000,87.000,48.000,92.000
1.615,82.500,86.500,48.000,91.500
1.616,82.500,86.000,47.500,91.000
1.617,82.500,86.000,47.500,90.500
1.618,82.500,86.500,48.000,90.500
1.619,83.000,87.000,48.500,90.500
1.620,83.500,87.500,49.000,90.500
1.621,83.500,87.500,49.500,91.000
1.622,84.000,88.000,50.000,91.000
1.623,83.500,87.500,50.000,91.000
1.624,83.500,87.000,50.500,90.500
1.625,83.000,87.000,50.500,90.000
1.626,83.000,86.500,50.500,90.000
1.627,82.500,86.000,50.500,89.500
1.628,82.000,86.000,50.500,89.000
1.629,82.000,85.500,50.500,89.000
1.630,81.500,85.000,50.500,89.000
1.631,81.000,85.000,50.500,89.000
1.632,81.000,85.000,50.500,89.000
1.633,81.000,84.500,50.500,88.500
1.634,81.000,84.500,51.000,88.500
1.635,81.000,84.000,51.000,88.000
1.636,80.500,84.000,51.000,88.000
1.637,80.500,83.500,50.500,87.500
1.638,80.000,83.000,50.500,86.500
1.639,80.000,82.500,49.500,86.000
1.640,79.500,81.500,49.000,85.000
1.641,78.500,81.000,48.000,84.000
1.642,78.000,80.000,47.000,83.000
1.643,77.000,79.000,46.000,82.000
1.644,76.500,78.000,45.500,81.000
1.645,75.500,77.000,44.500,80.000
1.646,74.500,76.000,44.000,79.500
1.647,73.500,75.000,43.500,78.500
1.648,72.500,73.500,42.500,78.000
1.649,71.000,72.500,41.500,77.000
1.650,69.500,71.000,40.500,76.000
1.651,67.500,70.000,40.000,75.500
1.652,66.500,68.500,39.500,75.500
1.653,65.000,67.500,38.500,75.000
1.654,64.000,66.500,38.000,75.000
1.655,63.000,66.000,38.000,75.000
1.656,62.500,65.500,38.000,75.500
1.657,62.000,65.000,38.500,76.500
1.658,62.000,65.500,39.000,77.500
1.659,62.000,65.500,40.000,79.500
1.660,62.500,66.500,41.500,81.000
1.661,62.500,67.000,43.000,83.500
1.662,62.500,68.000,44.000,85.500
1.663,62.500,68.500,45.500,87.500
1.664,62.500,69.000,47.000,89.500
1.665,63.000,69.500,48.000,91.000
1.666,63.000,70.000,49.000,92.000
1.667,63.000,70.500,50.000,93.000
1.668,63.000,70.500,50.500,93.500
1.669,63.500,71.000,51.500,94.000
1.670,64.000,71.500,52.000,94.500
1.671,65.500,72.500,53.500,95.000
1.672,67.500,74.500,55.000,96.000
1.673,70.000,76.500,57.500,97.000
1.674,72.500,78.500,59.500,98.000
1.675,75.000,81.000,61.500,99.000
1.676,77.500,83.000,63.500,99.500
1.677,80.500,85.500,65.500,100.000
1.678,83.500,88.500,68.000,101.000
1.679,87.000,91.000,70.500,102.000
1.680,90.000,94.000,73.000,103.000
1.681,92.500,96.500,75.500,104.000
1.682,94.500,98.500,77.000,104.500
1.683,96.000,100.000,78.500,105.000
1.684,96.500,100.500,79.500,105.500
1.685,97.000,101.000,80.000,106.000
1.686,97.000,101.000,80.000,106.000
1.687,97.000,100.500,80.000,105.500
1.688,96.000,99.500,79.500,104.500
1.689,95.000,98.000,78.500,103.500
1.690,93.500,96.500,77.000,101.500
1.691,92.000,94.500,75.500,100.000
1.692,90.000,92.000,73.000,98.000
1.693,88.000,90.000,71.000,96.000
1.694,86.000,87.500,69.000,94.000
1.695,84.500,85.500,67.000,92.000
1.696,83.000,83.500,65.500,90.000
1.697,81.500,82.500,64.000,88.500
1.698,80.500,81.000,63.000,87.500
1.699,79.500,80.500,63.000,86.500
1.700,79.000,80.000,62.500,86.000
1.701,78.500,79.500,63.000,85.500
1.702,78.500,79.500,63.000,85.500
1.703,78.500,79.500,63.000,85.500
1.704,78.500,79.500,63.000,85.000
1.705,78.500,79.000,63.500,85.000
1.706,78.500,79.000,63.500,85.000
1.707,78.500,79.000,64.000,84.500
1.708,78.000,79.000,64.000,84.500
1.709,78.000,79.000,64.000,84.500
1.710,77.500,79.000,64.000,84.500
1.711,77.000,78.500,64.000,84.000
1.712,77.000,78.500,64.000,84.000
1.713,76.500,78.000,64.500,83.500
1.714,76.500,78.000,64.500,83.500
1.715,76.500,78.000,65.000,83.000
1.716,76.500,78.000,65.500,82.500
1.717,76.500,78.000,65.500,82.500
1.718,76.500,78.000,66.000,82.500
1.719,76.000,78.000,66.500,82.500
1.720,76.000,77.500,66.500,82.500
1.721,75.500,77.000,66.500,82.000
1.722,75.000,76.500,66.500,81.500
1.723,74.000,75.500,66.000,81.000
1.724,72.500,74.000,65.000,80.000
1.725,71.000,72.500,64.000,79.000
1.726,69.000,70.500,62.500,78.000
1.727,66.500,68.500,61.000,76.500
1.728,64.500,66.500,59.500,75.500
1.729,62.000,64.500,58.000,74.000
1.730,60.500,63.000,57.000,73.000
1.731,59.000,62.000,56.500,72.500
1.732,58.500,61.000,56.000,72.000
1.733,58.000,61.000,56.500,71.500
1.734,58.000,61.500,57.000,71.500
1.735,59.000,62.500,58.500,72.500
1.736,60.500,64.000,60.500,73.500
1.737,62.500,66.500,63.000,75.000
1.738,65.000,69.000,66.000,77.000
1.739,67.500,71.500,68.500,78.500
1.740,69.500,73.500,71.000,80.000
1.741,71.000,75.500,73.000,81.000
1.742,72.500,77.000,74.500,81.500
1.743,73.500,78.000,75.500,82.000
1.744,73.500,78.500,76.000,82.000
1.745,73.000,78.000,76.000,81.500
1.746,72.000,77.000,75.500,81.000
1.747,70.500,75.500,74.500,80.000
1.748,69.500,74.000,73.500,79.500
1.749,68.000,73.000,73.000,78.500
1.750,67.000,72.000,72.500,77.500
1.751,66.000,71.000,72.000,77.000
1.752,65.000,70.500,72.000,76.500
1.753,64.500,70.000,71.500,76.000
1.754,64.000,69.500,71.500,76.000
1.755,64.000,69.000,71.500,76.000
1.756,64.000,69.000,71.500,75.500
1.757,64.000,69.000,71.500,75.500
1.758,64.000,69.000,71.500,75.500
1.759,64.500,68.500,72.000,75.500
1.760,64.500,68.500,72.000,75.000
1.761,64.500,68.000,72.000,74.500
1.762,64.000,68.000,72.000,74.500
1.763,64.000,67.500,72.500,74.500
1.764,63.500,67.500,73.000,74.500
1.765,63.000,67.500,73.500,74.500
1.766,63.000,67.500,74.000,74.500
1.767,62.500,67.500,74.500,74.500
1.768,62.000,67.500,75.000,74.500
1.769,61.500,67.500,75.000,74.000
1.770,61.500,67.500,75.500,74.000
1.771,61.000,67.000,75.500,73.500
1.772,61.000,66.500,76.000,73.500
1.773,60.500,66.500,76.000,73.500
1.774,60.500,66.000,75.500,73.000
1.775,60.000,65.500,75.500,72.500
1.776,60.000,65.000,75.000,72.000
1.777,59.500,65.000,75.000,71.500
1.778,59.500,64.500,75.000,71.500
1.779,59.500,64.000,75.000,71.000
1.780,59.500,64.000,75.000,71.000
1.781,59.500,64.000,75.500,71.000
1.782,59.500,64.000,75.500,71.000
1.783,59.000,64.500,76.500,71.500
1.784,59.000,64.500,77.000,71.500
1.785,59.000,65.000,77.500,71.500
1.786,59.000,65.000,78.000,71.500
1.787,59.000,64.500,78.000,71.000
1.788,59.000,64.000,78.000,71.000
1.789,58.500,64.000,78.000,71.000
1.790,58.500,63.500,78.500,71.500
1.791,58.000,63.500,78.500,71.500
1.792,57.500,63.500,79.000,71.500
1.793,57.500,63.500,79.000,71.000
1.794,57.000,63.000,79.000,70.500
1.795,56.500,63.000,78.500,70.000
1.796,56.500,62.500,78.000,69.500
1.797,56.500,62.000,78.000,69.000
1.798,56.500,62.000,78.000,68.500
1.799,56.000,61.500,78.000,68.500
1.800,56.000,61.500,78.000,68.500
1.801,56.000,61.500,78.500,68.500
1.802,56.000,62.000,79.000,68.500
1.803,56.000,62.000,79.000,68.500
1.804,56.000,62.500,79.500,69.000
1.805,56.500,62.500,80.000,69.000
1.806,56.500,62.500,80.500,69.000
1.807,56.500,62.500,81.000,69.000
1.808,56.000,62.000,81.000,68.500
1.809,55.500,61.500,81.000,68.500
1.810,55.500,61.000,81.000,68.500
1.811,55.500,61.000,81.000,68.000
1.812,55.500,60.500,81.000,68.000
1.813,55.500,60.500,81.500,68.000
1.814,55.500,60.500,82.000,68.000
1.815,56.000,60.500,82.000,68.000
1.816,56.000,61.000,82.500,68.000
1.817,56.000,61.500,83.000,68.000
1.818,56.000,61.500,83.000,68.000
1.819,56.000,61.500,83.500,68.000
1.820,56.000,62.000,84.000,68.000
1.821,56.000,62.000,84.500,68.500
1.822,56.000,62.000,85.000,69.000
1.823,55.500,62.000,85.500,69.000
1.824,55.500,61.500,86.000,69.000
1.825,55.500,61.500,86.500,69.000
1.826,55.500,61.500,87.000,69.000
1.827,55.500,61.500,87.500,69.000
1.828,55.500,61.500,88.000,69.000
1.829,55.000,61.500,88.500,69.500
1.830,55.000,61.500,88.500,69.500
1.831,55.000,61.500,88.500,69.500
1.832,54.500,61.000,88.500,69.500
1.833,54.000,60.500,88.500,69.000
1.834,54.000,60.500,88.500,68.500
1.835,53.500,60.000,88.500,68.500
1.836,53.500,60.000,88.500,68.000
1.837,53.500,60.000,88.500,68.000
1.838,53.500,60.000,88.500,68.000
1.839,53.500,60.000,88.500,68.000
1.840,53.500,60.000,88.500,68.000
1.841,53.500,59.500,88.500,68.000
1.842,53.500,59.500,89.000,68.000
1.843,53.500,59.500,89.500,68.500
1.844,53.500,59.500,90.000,68.500
1.845,53.500,59.500,90.500,69.000
1.846,54.000,59.500,91.500,69.000
1.847,54.000,60.000,92.000,69.500
1.848,54.000,60.000,92.500,69.500
1.849,54.000,60.500,93.000,69.500
1.850,54.000,60.500,93.000,70.000
1.851,54.000,60.500,93.000,70.000
1.852,54.000,60.500,93.500,70.000
1.853,53.500,60.500,93.500,70.000
1.854,53.500,60.000,93.500,69.500
1.855,53.000,60.000,93.500,69.500
1.856,53.000,60.000,94.000,70.000
1.857,53.500,60.000,94.500,70.000
1.858,53.500,60.500,95.000,70.500
1.859,53.500,60.500,95.500,70.500
1.860,53.500,60.500,95.500,70.500
1.861,53.500,60.500,96.000,70.500
1.862,53.500,60.500,96.000,70.500
1.863,54.000,60.500,96.000,70.500
1.864,54.000,61.000,96.000,70.500
1.865,54.000,61.000,96.500,70.500
1.866,54.500,61.000,96.500,71.000
1.867,54.500,61.500,96.500,71.000
1.868,54.500,61.500,97.000,71.500
1.869,54.000,61.500,97.000,71.500
1.870,54.000,62.000,97.500,72.000
1.871,53.500,62.000,98.000,71.500
1.872,53.500,61.500,98.000,71.500
1.873,53.500,61.500,98.500,71.000
1.874,53.000,61.000,98.000,71.000
1.875,53.000,60.500,98.000,70.500
1.876,53.000,60.000,97.500,70.000
1.877,53.000,60.000,97.500,70.000
1.878,52.500,59.500,97.500,69.500
1.879,52.500,59.500,97.500,69.500
1.880,52.000,59.500,97.500,69.500
1.881,52.000,59.500,98.000,70.000
1.882,52.000,59.500,98.000,70.000
1.883,52.000,60.000,99.000,70.500
1.884,52.500,60.500,99.500,71.000
1.885,52.500,60.500,100.000,71.000
1.886,52.500,60.500,100.500,71.000
1.887,52.500,60.500,100.500,71.000
1.888,52.500,60.500,101.000,71.000
1.889,52.500,60.500,101.000,71.000
1.890,52.000,60.000,100.500,71.000
1.891,51.500,60.000,100.500,71.000
1.892,51.000,60.000,100.000,71.000
1.893,50.500,59.500,100.000,70.500
1.894,50.000,59.500,100.000,70.500
1.895,50.000,59.500,100.500,70.500
1.896,50.000,59.500,100.500,70.500
1.897,50.000,60.000,101.000,70.500
1.898,50.000,60.000,101.500,70.500
1.899,50.500,60.500,102.000,70.500
1.900,50.500,60.500,102.000,71.000
1.901,51.000,60.500,102.500,71.000
1.902,51.000,61.000,103.000,71.500
1.903,51.500,61.000,103.000,72.000
1.904,51.500,60.500,103.000,72.000
1.905,51.500,60.500,103.000,72.000
1.906,51.500,60.000,102.500,71.500
1.907,51.500,60.000,102.500,71.500
1.908,51.000,60.000,102.500,71.000
1.909,51.000,60.000,102.500,71.000
1.910,51.000,60.000,102.500,71.000
1.911,51.000,60.000,102.500,71.000
1.912,50.500,59.500,102.500,71.000
1.913,50.000,59.500,102.000,70.500
1.914,50.000,59.000,102.000,70.000
1.915,49.500,59.000,102.000,69.500
1.916,49.500,59.000,102.000,69.000
1.917,50.000,59.000,102.000,68.500
1.918,50.000,59.000,102.000,68.500
1.919,50.000,59.000,102.000,68.000
1.920,50.000,59.000,102.000,68.000
1.921,50.000,58.500,101.500,67.500
1.922,50.000,58.000,101.000,67.500
1.923,50.000,58.000,100.500,67.500
1.924,50.000,58.000,100.500,67.500
1.925,49.500,58.000,100.500,67.500
1.926,49.500,58.500,100.500,67.500
1.927,49.500,58.500,101.000,67.500
1.928,49.500,58.500,101.000,67.500
1.929,49.000,58.000,101.500,67.000
1.930,48.500,57.500,101.000,66.500
1.931,48.500,57.500,101.000,66.000
1.932,48.000,57.000,100.500,65.500
1.933,47.500,56.500,100.000,65.000
1.934,47.000,56.000,100.000,64.500
1.935,47.000,56.000,99.500,64.000
1.936,46.500,55.500,99.000,63.500
1.937,46.500,55.000,98.500,63.000
1.938,46.500,55.000,98.500,62.500
1.939,46.500,54.500,98.500,62.500
1.940,47.000,54.500,98.500,62.000
1.941,47.000,55.000,99.000,62.000
1.942,47.500,55.000,99.000,62.500
1.943,47.500,55.500,99.500,62.500
1.944,47.500,55.500,99.500,63.000
1.945,47.500,55.500,100.000,63.000
1.946,47.500,55.500,100.000,63.000
1.947,47.000,55.000,99.500,63.000
1.948,47.000,55.000,99.500,62.500
1.949,47.000,55.000,99.500,62.500
1.950,47.000,55.000,99.500,62.500
1.951,47.000,55.000,100.000,62.500
1.952,47.000,55.500,100.000,62.000
1.953,47.000,55.500,100.500,62.000
1.954,47.000,55.500,100.500,62.000
1.955,47.000,55.500,100.500,62.000
1.956,47.000,55.500,100.500,62.000
1.957,47.000,56.000,100.500,62.000
1.958,47.500,56.000,101.000,62.000
1.959,47.500,56.500,101.000,62.000
1.960,48.000,56.500,101.500,62.000
1.961,48.000,57.000,101.500,62.000
1.962,48.500,57.000,102.000,62.000
1.963,48.500,57.000,102.000,62.500
1.964,49.000,56.500,102.000,62.500
1.965,49.000,56.500,102.000,62.500
1.966,49.000,56.500,102.000,62.500
1.967,49.000,56.500,101.500,62.500
1.968,49.000,56.000,102.000,62.500
1.969,49.000,56.000,102.000,62.000
1.970,48.500,55.500,102.000,62.000
1.971,48.500,55.500,102.000,62.000
1.972,48.000,55.000,101.500,62.000
1.973,47.500,54.500,101.000,62.000
1.974,47.500,54.000,100.500,62.000
1.975,47.000,53.500,100.500,61.500
1.976,47.000,53.000,100.000,61.500
1.977,46.500,53.000,99.500,61.000
1.978,46.000,52.500,99.000,60.500
1.979,45.500,52.000,98.500,60.500
1.980,45.500,51.500,98.000,60.000
1.981,45.000,51.000,97.500,59.500
1.982,45.000,50.500,97.500,59.000
1.983,44.500,50.000,97.000,58.500
1.984,44.500,50.000,97.000,58.500
1.985,44.500,49.500,97.000,58.500
1.986,44.000,49.000,97.000,58.500
1.987,44.000,49.500,97.500,59.000
1.988,44.000,49.500,98.000,59.500
1.989,44.500,50.500,98.500,60.000
1.990,45.500,51.500,99.500,61.000
1.991,46.000,52.500,100.500,61.500
1.992,46.500,53.500,101.500,62.000
1.993,47.000,54.000,102.000,63.000
1.994,47.500,54.500,102.500,63.000
1.995,48.000,54.500,103.000,63.000
1.996,48.000,55.000,103.500,63.000
1.997,48.500,55.000,104.000,63.000
1.998,49.000,55.500,104.000,63.000
1.999,49.500,55.500,104.500,63.000
2.000,50.000,56.000,105.000,63.000
2.001,50.000,56.500,105.500,63.000
2.002,50.500,57.000,106.000,63.000
2.003,51.000,57.000,106.000,63.500
2.004,51.000,57.500,106.500,63.500
2.005,51.500,57.500,107.000,63.500
2.006,51.500,58.000,107.500,64.000
2.007,51.500,58.500,108.000,64.000
2.008,51.500,58.500,108.000,64.000
2.009,51.500,58.500,108.000,63.500
2.010,51.500,58.500,108.000,63.500
2.011,51.500,58.500,108.500,63.000
2.012,51.500,58.000,108.500,63.000
2.013,51.500,58.000,108.500,62.500
2.014,51.500,58.000,109.000,62.500
2.015,51.500,58.000,109.000,62.500
2.016,51.500,58.500,109.500,62.500
2.017,51.500,58.500,109.500,63.000
2.018,52.000,59.000,110.000,63.000
2.019,52.000,59.000,110.000,63.500
2.020,52.000,59.000,110.500,63.500
2.021,51.500,59.000,110.500,63.500
2.022,51.500,59.500,110.500,63.500
2.023,51.500,59.500,111.000,64.000
2.024,51.500,60.000,111.000,64.500
2.025,51.500,60.500,111.500,64.500
2.026,51.500,61.000,112.000,65.000
2.027,52.000,61.500,112.500,65.000
2.028,52.000,61.500,113.000,65.500
2.029,52.000,61.500,113.500,65.500
2.030,52.000,61.500,114.000,66.000
2.031,52.000,61.500,114.000,66.000
2.032,52.000,61.000,114.000,66.000
2.033,52.000,61.000,114.000,66.000
2.034,52.000,61.000,114.000,66.500
2.035,52.000,61.000,114.000,66.500
2.036,52.000,61.000,114.000,66.500
2.037,52.000,61.000,114.000,66.500
2.038,52.000,61.000,114.000,66.500
2.039,52.000,61.000,114.000,66.500
2.040,52.000,61.000,114.000,66.500
2.041,52.500,61.000,114.500,67.000
2.042,52.500,61.500,115.000,67.000
2.043,53.000,62.000,115.500,67.000
2.044,52.500,62.000,116.000,67.000
2.045,52.500,62.500,116.500,67.500
2.046,52.500,62.500,117.000,67.000
2.047,52.500,62.500,117.000,67.000
2.048,52.500,62.000,117.000,67.000
2.049,52.000,61.500,116.500,66.500
2.050,52.000,60.500,116.000,66.500
2.051,52.000,60.000,115.500,66.000
2.052,51.500,60.000,115.500,66.000
2.053,51.500,59.500,115.500,65.500
2.054,51.500,59.500,115.500,65.500
2.055,51.000,59.500,115.500,65.500
2.056,50.500,59.500,115.000,65.500
2.057,50.500,59.500,115.000,65.000
2.058,51.000,60.000,115.000,65.500
2.059,51.000,60.500,116.000,65.500
2.060,51.500,61.000,116.500,66.000
2.061,52.000,61.500,117.000,66.500
2.062,52.500,62.000,118.000,67.000
2.063,52.500,62.500,118.500,67.500
2.064,52.500,63.000,118.500,68.000
2.065,53.000,63.500,119.000,68.500
2.066,53.000,64.000,119.500,68.500
2.067,53.000,64.500,120.000,69.000
2.068,53.500,64.500,120.000,69.000
2.069,53.500,64.500,120.500,69.500
2.070,53.500,65.000,120.500,70.000
2.071,53.500,65.000,121.000,70.000
2.072,54.000,65.500,121.500,70.000
2.073,54.000,65.500,121.500,70.000
2.074,54.000,66.000,121.500,70.000
2.075,54.000,66.000,121.500,70.000
2.076,54.000,66.000,121.500,69.500
2.077,54.000,66.000,121.500,69.500
2.078,54.000,66.000,121.000,69.000
2.079,54.500,66.000,120.500,69.000
2.080,54.500,66.000,120.500,68.500
2.081,54.500,66.000,120.500,68.500
2.082,54.500,66.000,120.500,68.500
2.083,54.500,65.500,120.500,68.000
2.084,53.500,65.000,120.500,67.500
2.085,52.000,64.000,119.500,67.000
2.086,50.500,62.500,118.500,66.000
2.087,49.000,60.500,117.500,65.000
2.088,47.000,59.000,116.000,64.000
2.089,46.000,57.500,115.000,63.000
2.090,45.000,56.500,114.000,62.500
2.091,44.000,55.500,113.500,61.500
2.092,44.000,55.000,112.500,61.000
2.093,44.000,55.000,112.500,60.500
2.094,44.000,54.500,112.000,60.000
2.095,45.000,55.000,112.000,60.000
2.096,46.000,56.000,113.000,60.000
2.097,48.000,58.000,114.000,61.000
2.098,50.000,60.000,116.000,62.500
2.099,52.500,63.000,118.500,64.000
2.100,55.000,65.500,120.500,66.000
2.101,57.000,67.500,122.500,67.000
2.102,59.000,69.500,124.500,68.500
2.103,60.500,71.000,126.000,69.500
2.104,61.500,72.000,127.000,70.000
2.105,62.000,72.500,127.500,70.500
2.106,62.000,73.000,127.500,70.500
2.107,61.500,72.500,127.000,70.000
2.108,60.500,72.000,126.000,69.500
2.109,60.000,71.000,125.000,69.000
2.110,59.500,70.500,124.500,68.500
2.111,58.500,70.000,123.500,68.000
2.112,58.000,69.500,123.000,67.500
2.113,58.000,69.500,123.000,67.500
2.114,57.500,69.500,122.500,68.000
2.115,57.500,69.500,122.500,68.000
2.116,57.500,70.000,122.000,68.500
2.117,58.000,70.000,122.000,69.500
2.118,58.000,70.500,122.000,70.000
2.119,58.500,71.000,122.000,71.000
2.120,59.000,71.000,122.500,72.000
2.121,59.000,71.500,123.000,73.000
2.122,59.500,72.000,123.500,74.000
2.123,59.500,72.500,124.000,74.500
2.124,60.000,73.000,124.500,75.500
2.125,60.000,73.000,125.000,76.000
2.126,60.000,73.500,126.000,76.000
2.127,60.500,74.000,126.500,76.500
2.128,60.500,74.000,127.000,77.000
2.129,60.500,73.500,127.000,77.500
2.130,60.000,73.500,127.000,78.000
2.131,60.000,73.000,127.000,78.500
2.132,60.000,73.000,127.000,78.000
2.133,59.500,72.500,126.500,78.000
2.134,59.500,72.500,126.500,77.500
2.135,59.000,72.000,126.000,77.000
2.136,59.000,72.000,125.500,77.000
2.137,59.000,72.000,125.000,76.500
2.138,59.000,71.500,125.000,76.000
2.139,59.000,71.500,125.000,76.000
2.140,59.000,72.000,125.000,76.000
2.141,59.500,72.000,125.000,76.500
2.142,60.000,72.500,125.500,76.500
2.143,60.000,72.500,125.500,77.000
2.144,60.500,73.000,126.000,77.000
2.145,60.500,73.500,126.000,77.500
2.146,60.500,74.000,126.500,78.000
2.147,60.500,74.500,126.500,78.000
2.148,60.500,74.500,126.500,78.500
2.149,60.500,74.500,126.000,78.500
2.150,60.000,74.500,126.000,78.500
2.151,60.000,74.000,125.500,78.500
2.152,59.500,73.500,125.000,78.500
2.153,59.000,73.000,124.000,78.500
2.154,59.000,72.500,123.500,78.500
2.155,59.000,72.500,123.500,78.500
2.156,59.000,72.500,123.000,78.500
2.157,59.000,73.000,123.000,78.500
2.158,59.000,73.000,123.000,78.500
2.159,59.000,73.000,123.000,79.000
2.160,59.000,73.500,123.500,79.000
2.161,59.500,74.000,123.500,79.500
2.162,59.500,74.000,124.000,80.000
2.163,59.500,74.000,124.000,80.000
2.164,59.500,74.500,124.000,80.000
2.165,60.000,74.500,124.500,79.500
2.166,60.000,75.000,124.500,79.500
2.167,60.000,75.000,124.500,79.000
2.168,60.000,75.000,124.500,79.000
2.169,60.000,74.500,124.000,78.500
2.170,60.000,74.000,123.500,78.500
2.171,59.500,73.500,123.000,78.500
2.172,59.500,73.500,123.000,78.500
2.173,59.000,73.500,123.000,78.500
2.174,59.000,73.500,123.000,78.500
2.175,59.000,73.500,123.000,78.500
2.176,59.000,73.500,123.000,78.500
2.177,59.000,73.000,122.500,78.500
2.178,59.500,73.000,122.500,78.500
2.179,59.500,73.000,122.500,78.000
2.180,60.000,73.000,122.500,78.000
2.181,60.000,73.000,122.500,78.500
2.182,60.000,73.000,123.000,79.000
2.183,60.500,73.000,123.000,79.500
2.184,60.500,73.500,123.500,80.000
2.185,60.500,73.500,124.000,80.500
2.186,60.500,74.000,124.500,81.000
2.187,60.500,74.500,125.000,81.500
2.188,60.500,74.500,125.500,82.000
2.189,60.000,74.500,125.500,82.000
2.190,59.500,74.500,125.500,82.000
2.191,59.000,74.500,125.500,82.000
2.192,59.000,74.000,125.000,82.000
2.193,58.500,73.500,124.500,81.500
2.194,58.500,73.000,124.000,81.000
2.195,58.000,73.000,123.500,80.500
2.196,58.000,72.500,123.000,80.000
2.197,57.500,72.500,122.500,80.000
2.198,57.000,72.000,122.000,79.500
2.199,56.500,71.500,121.000,79.000
2.200,56.000,70.500,120.500,78.500
2.201,55.500,70.000,120.000,78.500
2.202,55.000,69.500,119.500,78.500
2.203,55.000,69.500,120.000,78.500
2.204,55.000,69.500,120.000,78.500
2.205,55.000,69.500,120.000,79.000
2.206,55.000,70.000,120.000,79.000
2.207,55.000,70.000,120.000,79.000
2.208,54.500,70.000,120.000,79.000
2.209,54.500,70.000,120.000,79.000
2.210,54.500,70.000,120.500,79.500
2.211,54.500,70.000,120.500,79.500
2.212,54.000,70.000,120.500,80.000
2.213,54.000,69.500,120.500,80.000
2.214,53.500,69.000,120.000,79.500
2.215,53.500,68.500,119.500,79.000
2.216,53.000,68.000,119.000,78.500
2.217,52.500,67.500,118.500,78.000
2.218,52.500,67.500,117.500,77.500
2.219,52.000,67.000,117.000,77.000
2.220,52.000,67.000,116.500,76.500
2.221,51.500,66.500,116.000,76.000
2.222,51.000,66.000,115.500,75.000
2.223,50.500,65.500,115.000,74.000
2.224,50.000,64.500,114.000,73.000
2.225,48.500,63.000,113.000,71.500
2.226,47.500,62.000,112.000,70.500
2.227,46.000,60.500,110.500,69.000
2.228,45.000,59.000,109.500,68.500
2.229,43.500,57.500,108.000,67.500
2.230,42.000,56.000,107.000,66.500
2.231,40.000,54.500,105.500,66.000
2.232,38.500,52.500,104.500,65.000
2.233,37.000,51.000,103.500,64.500
2.234,35.500,50.000,102.500,64.000
2.235,34.500,48.500,101.500,63.500
2.236,33.000,47.500,100.500,63.500
2.237,32.000,47.000,100.000,64.000
2.238,31.500,46.500,100.000,65.000
2.239,30.500,46.500,100.000,66.500
2.240,30.000,46.500,101.000,68.500
2.241,29.500,47.000,102.000,70.500
2.242,29.500,47.500,103.000,72.500
2.243,28.500,47.500,104.000,74.000
2.244,28.000,47.500,104.500,75.000
2.245,27.000,47.000,105.000,76.500
2.246,26.000,46.500,105.000,77.500
2.247,25.500,46.500,105.500,79.000
2.248,24.500,46.500,106.000,80.000
2.249,24.000,46.000,106.500,80.500
2.250,24.000,46.000,106.500,81.500
2.251,24.000,46.500,107.000,82.000
2.252,25.000,47.500,108.000,83.000
2.253,27.000,49.000,109.500,84.500
2.254,30.000,51.500,111.500,86.000
2.255,33.500,55.000,114.500,88.000
2.256,37.500,58.500,117.500,90.000
2.257,41.500,62.500,121.000,92.000
2.258,45.500,66.500,124.500,94.000
2.259,50.000,71.000,128.000,96.000
2.260,54.500,75.000,132.000,97.500
2.261,59.000,79.000,135.500,99.500
2.262,62.500,82.000,138.500,101.000
2.263,65.500,84.500,141.000,102.000
2.264,67.500,86.500,142.000,102.500
2.265,68.500,87.000,142.500,102.500
2.266,69.000,87.500,142.500,102.500
2.267,68.500,87.000,142.000,102.000
2.268,67.500,86.000,141.500,101.000
2.269,66.500,84.500,140.000,100.500
2.270,65.000,83.000,138.500,99.000
2.271,63.000,81.000,137.000,97.500
2.272,61.000,79.000,135.000,95.500
2.273,59.000,77.000,132.500,93.500
2.274,57.500,75.000,130.500,91.000
2.275,55.500,73.000,128.500,89.500
2.276,54.000,71.500,126.500,87.500
2.277,52.500,69.500,125.000,86.000
2.278,51.500,68.000,123.500,85.000
2.279,50.500,67.000,122.500,84.000
2.280,50.000,66.000,121.500,83.000
2.281,49.500,65.500,121.000,82.500
2.282,49.000,65.500,120.000,82.000
2.283,49.000,65.000,120.000,82.000
2.284,49.000,65.500,120.000,82.500
2.285,49.000,65.500,120.500,83.000
2.286,49.000,65.500,121.000,83.500
2.287,49.000,65.500,121.500,84.500
2.288,49.000,65.500,121.500,84.500
2.289,49.000,65.500,121.500,85.000
2.290,48.500,65.000,121.500,85.000
2.291,48.000,65.000,121.500,84.500
2.292,48.000,64.500,121.000,84.500
2.293,48.000,64.000,121.000,84.000
2.294,48.000,64.000,120.500,84.000
2.295,48.000,63.500,120.000,83.500
2.296,48.000,63.500,120.000,83.000
2.297,48.000,63.500,119.500,83.000
2.298,48.000,63.500,119.500,83.000
2.299,48.000,63.500,119.500,83.500
2.300,48.000,64.000,119.500,83.500
2.301,48.500,64.000,120.000,84.000
2.302,49.000,64.500,120.500,84.500
2.303,49.500,64.500,121.000,85.000
2.304,50.000,65.000,122.000,85.500
2.305,50.500,65.500,122.500,86.000
2.306,50.500,66.000,123.500,87.000
2.307,51.000,66.500,124.000,87.500
2.308,51.000,67.000,124.500,88.000
2.309,51.000,67.500,125.000,88.500
2.310,51.500,68.000,125.500,88.500
2.311,51.500,68.000,125.500,89.000
2.312,51.500,68.000,125.500,89.000
2.313,51.000,68.000,125.500,89.000
2.314,51.000,67.500,125.500,88.500
2.315,50.500,67.000,125.500,88.500
2.316,50.500,67.000,125.000,88.500
2.317,50.500,66.500,124.500,88.500
2.318,50.000,66.000,124.000,88.500
2.319,50.000,65.500,123.500,88.000
2.320,50.000,65.500,123.000,88.000
2.321,50.500,65.500,123.000,88.000
2.322,50.500,65.500,123.000,88.000
2.323,51.000,66.000,123.500,88.000
2.324,51.000,66.000,124.000,88.500
2.325,51.000,66.000,124.000,88.500
2.326,51.000,66.000,124.500,88.500
2.327,51.000,66.000,124.500,89.000
2.328,51.000,66.000,124.500,89.000
2.329,51.000,65.500,124.500,89.000
2.330,50.500,65.500,124.500,89.000
2.331,50.500,65.000,124.000,89.000
2.332,50.000,64.500,124.000,89.000
2.333,49.500,64.500,123.500,88.500
2.334,49.500,64.000,123.000,88.500
2.335,49.000,63.500,122.500,88.000
2.336,49.000,63.500,122.000,88.000
2.337,49.000,63.500,122.000,87.500
2.338,49.000,63.500,122.000,87.500
2.339,49.000,63.500,122.500,88.000
2.340,49.000,63.500,123.000,88.000
2.341,49.500,64.000,123.500,88.500
2.342,50.000,64.500,124.000,88.500
2.343,50.000,65.000,124.000,88.500
2.344,50.500,65.000,124.500,89.000
2.345,50.500,65.500,124.500,89.000
2.346,50.500,65.500,124.500,89.000
2.347,50.000,65.500,124.500,89.500
2.348,50.000,66.000,125.000,89.500
2.349,49.500,66.000,125.000,90.000
2.350,49.500,66.000,125.500,90.000
2.351,49.500,65.500,125.000,90.000
2.352,49.000,65.000,124.500,89.500
2.353,48.500,64.500,124.500,89.500
2.354,48.000,64.000,124.000,89.000
2.355,47.500,63.500,123.500,88.500
2.356,47.000,63.000,123.500,88.500
2.357,46.500,63.000,123.500,88.000
2.358,46.000,63.000,123.000,87.500
2.359,46.000,63.000,123.000,87.500
2.360,46.000,62.500,123.000,87.000
2.361,46.000,62.500,123.000,87.000
2.362,45.500,62.000,122.500,87.000
2.363,45.500,62.000,122.000,86.500
2.364,45.000,61.500,121.500,86.000
2.365,44.500,61.500,121.000,86.000
2.366,44.500,61.500,121.000,86.000
2.367,44.500,61.500,121.000,86.000
2.368,44.500,61.500,121.000,86.000
2.369,44.500,61.500,121.500,86.500
2.370,44.500,61.500,121.500,86.500
2.371,44.000,61.500,121.500,86.500
2.372,44.000,61.500,121.500,86.500
2.373,43.500,61.500,121.000,86.500
2.374,43.000,61.500,121.000,86.500
2.375,43.000,61.000,121.000,86.500
2.376,43.000,61.000,121.000,86.500
2.377,42.500,61.000,121.000,86.500
2.378,42.500,61.000,121.000,86.000
2.379,42.500,61.000,120.500,86.000
2.380,42.500,61.000,120.500,86.500
2.381,42.500,61.500,120.500,87.000
2.382,43.000,62.000,120.000,87.500
2.383,43.000,62.000,120.000,88.000
2.384,43.500,62.500,120.000,88.000
2.385,43.500,62.500,120.000,88.500
2.386,43.500,62.500,120.000,89.000
2.387,43.500,62.500,120.000,89.000
2.388,43.500,62.500,120.000,89.500
2.389,43.500,62.500,120.000,90.000
2.390,43.000,62.500,120.000,90.500
2.391,42.500,62.000,120.000,90.500
2.392,42.000,62.000,120.000,90.500
2.393,41.500,61.500,119.500,90.500
2.394,41.000,61.500,119.500,90.500
2.395,40.500,61.000,119.500,91.000
2.396,40.500,61.000,119.500,91.000
2.397,40.500,61.000,119.000,91.500
2.398,40.500,60.500,119.000,91.500
2.399,40.000,60.500,118.500,91.500
2.400,40.000,60.000,118.500,92.000
2.401,40.000,60.000,118.000,92.000
2.402,40.000,60.000,117.500,92.000
2.403,40.000,60.000,117.500,92.500
2.404,39.500,60.000,117.500,92.500
2.405,39.500,60.000,117.500,93.000
2.406,40.000,60.500,117.500,93.500
2.407,40.000,61.000,118.000,94.000
2.408,40.500,61.500,118.500,94.500
2.409,40.500,62.000,119.000,95.000
2.410,40.500,62.000,119.500,95.500
2.411,40.500,62.500,119.500,95.500
2.412,40.000,62.000,119.500,96.000
2.413,39.500,62.000,119.500,96.000
2.414,39.000,61.500,119.500,96.000
2.415,39.000,61.500,119.500,96.000
2.416,39.000,61.000,119.000,96.000
2.417,38.500,60.500,119.000,96.500
2.418,38.500,60.500,118.500,96.500
2.419,38.500,60.500,118.500,96.500
2.420,38.500,60.500,118.500,97.000
2.421,38.500,61.000,118.000,97.000
2.422,38.500,61.000,118.000,97.000
2.423,38.000,61.000,118.000,97.000
2.424,38.000,60.500,117.500,97.000
2.425,37.500,60.500,117.000,97.000
2.426,37.000,60.000,117.000,97.000
2.427,36.500,60.000,117.000,97.000
2.428,36.500,60.000,117.000,97.500
2.429,36.000,60.000,117.000,97.500
2.430,36.000,60.000,117.000,98.000
2.431,36.000,60.000,117.500,98.500
2.432,35.500,60.000,117.500,98.500
2.433,35.500,60.000,117.000,98.500
2.434,35.500,60.000,117.000,99.000
2.435,35.500,60.500,117.000,99.000
2.436,35.500,60.500,116.500,98.500
2.437,36.000,60.500,116.500,98.500
2.438,36.000,60.000,116.000,98.500
2.439,36.000,60.000,115.500,98.000
2.440,36.500,59.500,115.500,98.000
2.441,36.500,59.500,115.500,98.000
2.442,36.000,59.500,115.000,98.500
2.443,36.000,59.500,115.000,98.500
2.444,35.500,59.500,115.000,98.500
2.445,35.000,59.000,115.000,98.500
2.446,34.000,58.500,114.500,98.000
2.447,32.500,57.500,113.500,97.500
2.448,31.000,56.000,112.000,96.500
2.449,29.000,54.000,110.500,95.500
2.450,27.000,52.500,109.000,94.500
2.451,25.000,50.500,108.000,94.000
2.452,23.500,49.500,107.000,93.500
2.453,23.000,48.500,106.000,93.000
2.454,22.500,48.000,106.000,93.000
2.455,22.500,48.000,106.000,93.000
2.456,23.000,48.500,106.500,93.500
2.457,24.000,49.000,107.000,94.000
2.458,25.500,50.000,108.000,95.000
2.459,27.000,52.000,109.500,96.000
2.460,29.000,54.000,111.500,97.500
2.461,31.500,56.500,113.500,99.500
2.462,33.000,58.500,115.500,101.000
2.463,34.500,60.500,117.500,102.500
2.464,35.500,61.500,119.000,103.500
2.465,36.500,62.500,120.000,104.000
2.466,36.500,62.500,120.500,104.500
2.467,36.500,62.500,120.000,104.500
2.468,35.500,61.500,119.500,104.000
2.469,34.500,60.500,118.500,103.500
2.470,33.500,59.000,117.500,103.000
2.471,32.500,58.000,116.500,102.500
2.472,31.500,56.500,115.500,102.000
2.473,31.000,56.000,115.000,101.500
2.474,30.000,55.000,114.500,101.500
2.475,30.000,54.500,114.500,101.500
2.476,29.500,54.500,114.000,101.500
2.477,29.500,54.000,114.000,101.500
2.478,29.500,54.000,113.500,101.000
2.479,29.500,54.000,113.500,101.000
2.480,29.500,54.000,113.500,101.500
2.481,29.500,54.000,113.500,101.500
2.482,29.000,54.000,113.500,102.000
2.483,28.500,54.000,114.000,102.000
2.484,28.500,54.000,114.000,102.000
2.485,28.000,54.500,113.500,102.000
2.486,28.000,54.500,113.500,102.000
2.487,28.000,54.500,113.500,101.500
2.488,27.500,54.500,113.500,101.500
2.489,27.500,54.500,113.000,101.000
2.490,27.000,54.000,112.500,101.000
2.491,26.500,53.500,111.500,100.000
2.492,26.000,52.500,110.500,99.500
2.493,25.500,52.000,110.000,99.000
2.494,25.000,51.500,109.000,98.500
2.495,24.000,51.000,109.000,98.500
2.496,24.000,50.500,108.500,98.000
2.497,24.000,50.500,108.500,98.000
2.498,24.000,50.000,108.000,98.000
2.499,24.000,50.000,107.500,97.500
2.500,24.000,49.500,107.500,97.500
2.501,24.000,49.500,107.000,97.500
2.502,24.000,50.000,107.000,97.500
2.503,23.500,50.000,107.500,97.500
2.504,23.500,50.000,107.500,97.500
2.505,23.000,50.000,107.500,97.500
2.506,23.000,50.000,108.000,98.000
2.507,23.000,50.000,108.000,98.000
2.508,23.000,50.000,108.500,98.500
2.509,23.000,50.000,108.500,98.500
2.510,22.500,50.000,108.500,98.500
2.511,22.000,50.000,108.500,98.500
2.512,22.000,49.500,108.000,98.500
2.513,21.000,49.000,107.000,98.000
2.514,20.500,48.500,106.500,98.000
2.515,20.000,48.000,105.500,97.500
2.516,20.000,47.500,105.000,97.000
2.517,20.000,47.000,104.500,96.500
2.518,20.000,47.000,104.500,96.500
2.519,20.000,47.000,104.000,96.000
2.520,19.500,46.500,103.000,95.500
2.521,19.500,46.500,102.500,95.500
2.522,19.000,46.000,102.500,95.000
2.523,18.500,45.500,102.000,95.000
2.524,18.000,45.000,101.500,95.000
2.525,18.000,44.500,101.000,95.000
2.526,18.000,44.000,100.000,95.000
2.527,18.000,44.000,99.500,94.500
2.528,18.000,44.000,99.500,94.500
2.529,18.000,44.000,99.500,94.500
2.530,18.000,44.500,100.000,95.000
2.531,18.000,44.500,100.000,95.000
2.532,18.000,45.000,100.500,95.000
2.533,18.000,45.500,100.500,95.500
2.534,18.000,46.000,100.500,95.500
2.535,18.500,46.500,100.000,96.000
2.536,18.500,47.000,99.000,96.500
2.537,18.500,47.000,98.500,96.500
2.538,18.500,47.000,97.500,97.000
2.539,18.500,47.000,97.000,97.000
2.540,18.000,46.500,96.000,97.000
2.541,18.000,46.500,95.500,97.000
2.542,18.500,46.500,95.000,97.000
2.543,18.500,46.500,94.500,97.000
2.544,18.500,46.500,94.000,97.500
2.545,18.500,46.500,94.000,97.500
2.546,18.500,46.500,93.500,98.000
2.547,18.500,46.500,93.000,98.000
2.548,18.500,46.500,93.000,98.000
2.549,18.000,46.500,92.000,98.000
2.550,17.500,46.500,91.500,97.500
2.551,17.000,46.000,90.500,97.500
2.552,16.500,45.500,90.000,97.000
2.553,16.000,45.000,89.000,96.500
2.554,15.500,44.500,88.500,96.500
2.555,15.500,44.500,88.500,96.000
2.556,15.500,44.500,88.500,96.500
2.557,16.000,45.000,88.500,96.500
2.558,16.500,45.000,88.500,97.000
2.559,16.500,45.500,88.500,97.500
2.560,17.000,46.000,88.500,97.500
2.561,17.000,46.000,88.500,98.000
2.562,17.500,46.500,88.500,98.000
2.563,17.500,46.500,88.500,98.500
2.564,17.500,46.500,88.500,98.500
2.565,17.500,46.500,89.000,99.000
2.566,18.000,46.500,89.500,99.500
2.567,18.000,46.500,90.000,100.500
2.568,18.000,47.000,90.500,101.000
2.569,18.000,47.000,91.000,101.000
2.570,18.000,47.000,91.000,101.500
2.571,17.500,46.500,91.000,101.500
2.572,17.500,46.500,90.500,101.500
2.573,17.000,46.500,90.000,101.500
2.574,17.000,46.500,90.000,101.500
2.575,16.500,46.500,89.500,101.500
2.576,17.000,46.500,89.500,101.500
2.577,17.000,46.500,89.500,101.500
2.578,17.000,46.500,89.500,101.000
2.579,17.000,46.000,89.500,101.000
2.580,17.000,46.000,89.500,101.000
2.581,16.500,46.000,89.500,101.000
2.582,16.500,46.000,89.500,101.500
2.583,16.500,46.000,90.000,101.500
2.584,16.500,46.000,90.500,101.500
2.585,17.000,46.000,91.000,101.500
2.586,17.000,45.500,91.500,101.500
2.587,17.000,45.500,92.000,101.500
2.588,17.000,45.000,92.000,101.500
2.589,17.000,45.000,92.500,101.500
2.590,16.500,44.500,93.000,101.000
2.591,16.500,44.000,93.000,101.000
2.592,16.500,44.000,93.000,101.000
2.593,16.000,43.500,93.500,100.500
2.594,16.000,43.500,93.500,100.000
2.595,15.500,43.500,93.500,100.000
2.596,15.500,43.500,93.500,99.500
2.597,15.500,43.500,93.500,99.000
2.598,15.500,43.500,93.500,99.000
2.599,15.500,43.500,93.500,99.000
2.600,15.500,43.000,93.000,98.500
2.601,16.000,43.000,93.000,98.500
2.602,16.000,43.000,93.500,99.000
2.603,16.000,43.500,93.500,99.000
2.604,16.500,43.500,94.000,99.000
2.605,16.500,44.000,94.000,99.500
2.606,16.500,44.000,94.500,99.500
2.607,16.500,44.000,95.000,99.500
2.608,17.000,44.000,95.500,100.000
2.609,17.000,44.000,96.000,100.500
2.610,17.000,44.500,96.500,101.000
2.611,17.500,45.500,97.000,101.000
2.612,17.500,45.500,97.500,101.000
2.613,17.500,46.000,98.000,101.000
2.614,17.500,46.000,98.000,101.000
2.615,17.500,46.000,98.000,101.000
2.616,17.500,46.000,98.000,101.500
2.617,17.500,45.500,98.000,101.500
2.618,17.500,45.000,98.000,101.500
2.619,17.500,45.000,97.500,101.500
2.620,17.500,44.500,97.500,101.500
2.621,17.500,44.500,97.000,101.500
2.622,17.500,44.500,97.000,101.500
2.623,17.500,44.500,97.000,101.500
2.624,17.500,44.500,97.000,101.500
2.625,17.500,44.500,97.000,101.500
2.626,17.500,44.500,97.000,102.000
2.627,17.000,44.500,97.500,102.000
2.628,17.000,44.500,97.500,102.500
2.629,17.000,44.500,98.000,102.500
2.630,17.000,45.000,98.500,102.500
2.631,17.000,44.500,98.000,102.500
2.632,16.500,44.000,97.500,102.000
2.633,16.500,43.500,97.000,102.000
2.634,16.500,43.000,97.000,101.500
2.635,16.500,43.000,96.500,101.000
2.636,16.500,42.500,96.000,100.500
2.637,16.500,42.000,96.000,100.000
2.638,16.500,42.000,95.500,100.000
2.639,16.500,42.000,95.500,100.000
2.640,17.000,42.500,95.500,100.000
2.641,17.500,43.000,96.000,100.500
2.642,17.500,43.500,96.500,101.000
2.643,18.000,44.000,97.000,101.500
2.644,18.000,44.500,97.500,102.500
2.645,18.500,45.000,98.000,103.000
2.646,18.500,45.000,98.000,103.000
2.647,18.500,45.000,98.000,103.000
2.648,18.500,45.000,98.000,103.500
2.649,18.500,44.500,98.000,103.500
2.650,18.500,44.500,98.500,103.500
2.651,18.500,44.500,98.500,103.500
2.652,18.500,44.000,98.000,103.500
2.653,18.500,44.000,98.000,103.500
2.654,18.500,44.000,97.500,103.000
2.655,18.000,43.500,97.000,103.000
2.656,18.000,43.500,96.500,102.500
2.657,18.000,43.500,96.000,102.500
2.658,18.000,43.000,95.500,102.500
2.659,18.500,43.500,95.500,102.500
2.660,18.500,43.500,96.000,102.500
2.661,19.000,44.000,96.500,102.500
2.662,19.500,44.500,97.000,103.000
2.663,20.000,45.000,97.500,103.500
2.664,20.000,45.500,98.500,104.000
2.665,20.500,46.000,99.000,104.000
2.666,20.500,46.000,99.000,104.500
2.667,20.500,46.000,99.000,104.500
2.668,20.500,46.000,99.000,104.500
2.669,20.500,46.000,98.500,104.500
2.670,20.500,45.500,98.000,104.000
2.671,20.000,45.000,97.500,103.500
2.672,20.000,45.000,97.000,103.500
2.673,19.500,44.500,96.500,103.000
2.674,19.000,44.500,96.500,102.500
2.675,19.000,44.500,97.000,102.500
2.676,18.500,44.000,97.000,102.000
2.677,18.500,44.000,96.500,101.500
2.678,18.500,43.500,96.500,101.500
2.679,18.500,43.500,96.000,101.000
2.680,18.500,43.000,95.500,100.500
2.681,18.500,43.000,95.000,100.500
2.682,19.000,43.000,95.000,100.500
2.683,19.000,43.000,95.000,100.500
2.684,19.000,43.500,95.000,101.000
2.685,19.000,43.500,95.000,101.000
2.686,19.500,44.000,95.500,101.000
2.687,19.500,44.000,95.500,101.000
2.688,19.500,44.500,96.000,101.000
2.689,19.500,45.000,96.500,101.000
2.690,19.500,45.000,96.500,101.000
2.691,19.500,45.000,96.500,101.000
2.692,19.500,45.000,96.500,101.000
2.693,19.500,44.500,96.500,101.000
2.694,19.500,44.500,96.500,100.500
2.695,19.500,44.500,96.000,100.500
2.696,19.500,44.500,96.500,100.500
2.697,19.500,45.000,96.500,100.500
2.698,20.000,45.500,97.000,100.500
2.699,20.500,46.500,98.000,100.500
2.700,20.500,47.000,98.500,101.000
2.701,21.000,47.500,99.000,101.500
2.702,21.500,48.000,99.500,102.000
2.703,22.000,48.500,100.000,102.500
2.704,22.500,49.000,100.500,103.000
2.705,22.500,49.500,100.500,103.000
2.706,22.500,49.000,100.000,102.500
2.707,22.500,49.000,100.000,102.500
2.708,22.500,48.500,99.500,102.500
2.709,22.000,47.500,99.000,102.500
2.710,21.500,47.000,98.500,102.000
2.711,21.000,46.500,98.500,101.500
2.712,21.000,46.000,98.000,101.500
2.713,20.500,46.000,98.000,101.000
2.714,20.500,45.500,97.500,101.000
2.715,20.500,45.500,97.500,101.000
2.716,20.500,45.500,97.500,101.000
2.717,20.000,45.500,97.500,101.000
2.718,20.000,45.500,97.500,101.000
2.719,20.000,45.500,97.500,101.000
2.720,20.000,45.500,97.500,101.000
2.721,20.500,45.500,97.500,101.000
2.722,20.500,45.500,97.500,101.000
2.723,20.500,45.500,97.500,101.000
2.724,20.500,45.000,97.500,101.000
2.725,20.500,44.500,97.000,101.000
2.726,20.000,44.000,97.000,100.500
2.727,20.000,44.000,96.500,100.500
2.728,19.500,43.500,96.000,100.500
2.729,19.500,43.500,96.000,100.500
2.730,20.000,44.000,96.000,100.500
2.731,20.500,44.500,96.500,100.500
2.732,20.500,44.500,97.000,101.000
2.733,21.000,44.500,97.000,100.500
2.734,21.000,44.500,97.000,100.500
2.735,20.500,44.000,97.000,100.500
2.736,20.000,44.000,96.500,100.500
2.737,20.000,44.000,97.000,100.500
2.738,20.000,44.000,97.000,101.000
2.739,20.000,44.000,97.500,101.000
2.740,20.500,44.500,97.500,101.000
2.741,20.500,44.500,97.500,101.500
2.742,21.000,44.500,98.000,101.500
2.743,21.000,44.500,98.000,101.500
2.744,21.500,44.500,97.500,101.500
2.745,21.500,44.500,97.500,101.500
2.746,22.000,44.500,97.000,101.500
2.747,22.000,44.500,97.000,102.000
2.748,22.000,44.500,97.500,102.500
2.749,21.500,45.000,97.500,103.000
2.750,21.500,45.000,97.500,103.500
2.751,21.000,44.500,97.500,103.500
2.752,20.500,44.500,97.500,103.500
2.753,20.500,44.500,97.500,103.500
2.754,20.500,44.500,97.500,103.500
2.755,20.500,44.500,98.000,103.500
2.756,20.500,44.500,98.000,103.500
2.757,20.000,44.000,98.000,104.000
2.758,20.000,44.000,98.000,104.000
2.759,19.500,43.500,97.500,104.000
2.760,19.500,43.000,97.500,104.500
2.761,19.500,43.000,97.000,104.500
2.762,19.500,43.000,97.000,104.000
2.763,19.500,42.500,97.000,104.000
2.764,19.500,42.500,97.000,104.000
2.765,19.500,42.500,97.000,104.000
2.766,19.500,42.500,97.000,104.000
2.767,19.500,42.500,97.000,104.500
2.768,19.500,42.500,97.500,104.500
2.769,19.500,43.000,98.000,105.000
2.770,19.500,43.000,98.000,105.000
2.771,19.500,43.000,98.500,105.500
2.772,19.500,42.500,98.500,105.500
2.773,19.500,42.000,98.000,105.500
2.774,19.000,41.500,97.500,105.000
2.775,18.500,41.000,97.500,105.000
2.776,18.500,41.000,97.500,105.000
2.777,18.500,40.500,97.500,105.000
2.778,18.500,41.000,97.500,105.000
2.779,18.500,41.000,97.500,104.500
2.780,18.000,41.000,97.500,104.500
2.781,18.500,41.000,97.500,104.500
2.782,18.500,41.000,97.000,104.000
2.783,18.500,41.000,97.000,104.000
2.784,18.500,41.000,97.000,104.000
2.785,18.500,41.000,97.000,104.000
2.786,18.500,41.000,96.500,104.000
2.787,18.000,40.500,96.500,103.500
2.788,18.000,40.000,96.500,103.500
2.789,17.500,39.500,96.500,103.500
2.790,17.000,39.000,96.000,103.000
2.791,17.000,38.500,96.000,103.000
2.792,16.500,38.500,95.500,102.500
2.793,16.500,38.000,95.500,102.500
2.794,17.000,38.500,96.000,102.500
2.795,17.500,38.500,96.000,102.500
2.796,18.000,39.000,96.500,102.500
2.797,19.000,39.500,97.000,102.500
2.798,19.000,40.000,97.500,102.500
2.799,19.500,40.500,97.500,102.500
2.800,19.000,40.500,98.000,102.000
2.801,19.000,40.500,97.500,101.500
2.802,18.500,40.000,97.000,101.000
2.803,17.500,39.000,96.000,100.000
2.804,16.500,37.500,94.500,99.000
2.805,15.000,36.000,93.000,98.000
2.806,13.500,34.500,91.500,97.000
2.807,12.000,32.500,90.000,96.000
2.808,10.000,30.000,88.000,94.500
2.809,7.000,27.000,85.500,93.000
2.810,4.000,23.500,83.000,91.000
2.811,0.000,20.000,80.000,89.500
2.812,-3.500,16.500,77.500,88.000
2.813,-6.500,13.500,75.500,87.000
2.814,-9.000,11.500,74.000,87.000
2.815,-11.000,10.000,73.500,87.500
2.816,-12.000,9.500,73.500,88.500
2.817,-13.000,9.500,74.500,90.000
2.818,-13.000,10.000,75.500,92.000
2.819,-12.500,11.000,77.000,94.000
2.820,-12.000,12.000,79.000,96.500
2.821,-10.500,14.000,80.500,98.500
2.822,-9.000,16.000,82.500,101.000
2.823,-7.000,18.000,85.000,103.500
2.824,-5.000,20.500,87.000,106.000
2.825,-3.000,22.500,89.500,108.000
2.826,-1.500,24.500,91.500,110.000
2.827,0.500,26.500,93.500,112.000
2.828,2.500,29.000,95.500,114.000
2.829,5.000,31.000,98.000,116.000
2.830,8.000,34.000,100.500,117.500
2.831,11.000,36.500,102.500,119.000
2.832,13.500,39.000,105.000,120.500
2.833,16.000,41.500,107.000,121.500
2.834,18.500,44.000,109.000,122.500
2.835,21.500,46.500,111.000,123.500
2.836,25.000,49.500,113.000,124.500
2.837,29.000,53.000,115.000,125.500
2.838,32.500,56.500,117.500,126.500
2.839,35.500,59.000,119.500,127.000
2.840,37.500,60.500,120.500,127.500
2.841,38.500,61.500,121.000,127.000
2.842,39.000,61.000,120.500,126.000
2.843,38.500,60.000,120.000,125.000
2.844,37.500,59.000,118.500,124.000
2.845,36.500,57.500,117.000,122.500
2.846,35.000,56.000,115.500,121.000
2.847,33.500,54.500,114.000,120.000
2.848,31.500,53.000,112.000,118.500
2.849,30.000,51.500,110.500,116.500
2.850,28.000,49.500,108.500,115.000
2.851,26.500,48.000,107.000,113.000
2.852,25.500,46.500,105.000,111.000
2.853,24.000,44.500,103.500,109.500
2.854,23.000,43.000,101.500,108.000
2.855,21.500,41.500,100.000,106.500
2.856,20.500,40.000,98.500,105.500
2.857,20.000,39.000,98.000,105.000
2.858,19.500,38.500,97.500,104.500
2.859,19.000,38.000,97.000,104.500
2.860,19.000,38.000,97.000,104.500
2.861,19.000,38.500,97.000,104.000
2.862,19.000,39.000,97.000,104.000
2.863,19.000,39.000,97.000,104.000
2.864,19.000,39.000,97.000,104.000
2.865,19.000,39.000,97.000,104.000
2.866,18.500,38.500,96.500,104.000
2.867,18.000,38.500,96.000,103.500
2.868,18.000,38.000,95.500,103.500
2.869,17.500,37.000,95.000,102.500
2.870,17.500,36.500,94.500,102.000
2.871,17.500,36.500,94.000,101.500
2.872,17.000,36.500,93.500,101.500
2.873,17.000,36.500,93.500,101.000
2.874,17.000,36.500,94.000,101.000
2.875,17.000,36.500,94.000,101.000
2.876,17.000,37.000,94.500,101.000
2.877,17.000,37.000,94.500,101.000
2.878,17.000,37.000,95.000,101.500
2.879,17.000,37.000,95.000,101.500
2.880,17.000,37.000,95.000,101.500
2.881,17.000,37.000,95.500,101.500
2.882,17.500,37.000,95.500,101.500
2.883,17.500,37.000,95.500,102.000
2.884,17.500,37.000,96.000,102.000
2.885,17.000,37.000,96.000,102.000
2.886,17.000,37.000,96.000,102.500
2.887,17.000,37.500,96.500,102.500
2.888,16.500,37.500,96.500,102.500
2.889,16.500,38.000,97.000,102.500
2.890,16.500,38.000,97.000,102.500
2.891,16.000,37.500,96.500,102.500
2.892,15.500,37.000,96.000,102.000
2.893,15.500,36.500,95.000,101.500
2.894,15.000,35.500,93.500,100.500
2.895,15.000,34.500,92.000,99.500
2.896,14.500,34.000,91.000,99.000
2.897,15.000,33.500,90.500,98.500
2.898,15.000,33.500,90.500,98.000
2.899,15.000,33.000,90.500,98.000
2.900,15.000,33.500,90.500,97.500
2.901,14.500,33.500,90.500,98.000
2.902,14.500,34.000,90.500,98.000
2.903,15.000,34.000,91.000,98.500
2.904,15.000,34.500,91.500,99.500
2.905,15.000,35.000,91.500,100.000
2.906,15.000,35.000,91.500,100.000
2.907,15.000,34.500,91.500,100.500
2.908,14.500,34.500,91.500,100.500
2.909,14.500,34.500,91.000,100.000
2.910,14.000,34.000,91.000,100.000
2.911,14.000,34.000,91.000,100.000
2.912,14.000,34.000,91.000,100.000
2.913,14.000,34.000,90.500,100.000
2.914,14.000,34.000,90.500,100.000
2.915,14.000,34.000,90.500,100.000
2.916,14.000,33.500,90.500,100.000
2.917,13.500,33.500,90.000,100.000
2.918,13.500,33.500,89.500,100.000
2.919,13.500,33.000,89.000,100.000
2.920,13.500,33.000,88.500,100.000
2.921,13.500,33.000,88.000,100.000
2.922,13.500,32.500,88.000,100.000
2.923,13.500,32.500,87.500,100.000
2.924,13.500,32.000,87.500,100.000
2.925,13.500,32.000,87.000,100.000
2.926,13.500,32.000,87.000,100.000
2.927,13.500,32.000,87.000,100.000
2.928,13.500,32.500,87.000,100.500
2.929,13.500,32.500,87.500,100.500
2.930,13.500,33.000,88.000,101.000
2.931,13.500,33.000,88.500,101.500
2.932,13.000,33.500,89.000,102.000
2.933,13.000,33.500,89.500,102.000
2.934,13.000,33.500,89.500,102.000
2.935,12.500,33.000,89.000,101.500
2.936,12.000,33.000,89.000,101.500
2.937,12.000,33.000,88.500,101.500
2.938,12.000,33.000,88.000,101.500
2.939,12.000,33.000,88.000,101.500
2.940,12.500,33.000,87.500,101.500
2.941,13.000,33.000,87.500,101.500
2.942,13.000,33.500,87.500,101.500
2.943,13.000,33.500,87.500,101.500
2.944,12.500,33.500,88.000,101.500
2.945,12.500,33.500,88.000,101.500
2.946,12.500,33.500,88.000,102.000
2.947,12.500,33.000,87.500,102.000
2.948,12.000,33.000,87.000,102.000
2.949,12.000,32.500,86.500,102.000
2.950,11.500,32.000,86.500,102.000
2.951,11.500,32.000,86.500,102.000
2.952,11.500,32.000,86.500,102.000
2.953,11.500,32.000,86.500,102.000
2.954,11.500,32.000,86.500,102.000
2.955,11.500,32.000,86.500,102.000
2.956,11.500,32.000,86.500,102.000
2.957,11.500,32.500,86.500,102.000
2.958,11.500,32.500,86.500,101.500
2.959,11.500,32.500,86.500,101.500
2.960,12.000,32.500,86.000,101.500
2.961,12.000,33.000,86.500,101.500
2.962,12.500,33.500,86.500,102.000
2.963,13.000,34.000,87.000,102.500
2.964,13.000,34.500,87.500,102.500
2.965,13.000,34.500,87.500,103.000
2.966,13.000,34.500,87.500,103.000
2.967,13.000,34.500,87.500,103.000
2.968,12.500,35.000,87.500,103.000
2.969,12.000,35.000,87.500,103.000
2.970,12.000,34.500,87.500,103.000
2.971,11.500,34.500,87.000,103.000
2.972,11.000,34.000,86.500,102.500
2.973,11.000,33.500,86.000,102.500
2.974,10.500,33.000,86.000,102.000
2.975,10.500,32.500,85.500,101.500
2.976,10.500,32.500,85.500,101.000
2.977,10.500,32.500,85.000,100.500
2.978,10.500,32.500,85.000,100.000
2.979,10.500,32.500,84.500,99.500
2.980,10.500,32.500,84.500,99.500
2.981,10.500,32.500,84.500,99.500
2.982,10.500,32.500,84.500,99.500
2.983,10.500,33.000,84.500,99.500
2.984,10.500,33.000,84.500,100.000
2.985,10.500,33.000,85.000,100.000
2.986,11.000,33.000,85.000,100.000
2.987,11.000,33.000,85.000,100.500
2.988,11.000,33.000,85.000,100.500
2.989,11.000,33.000,85.500,100.500
2.990,11.000,33.000,85.500,101.000
2.991,11.000,33.000,86.000,101.000
2.992,11.000,33.000,86.500,101.000
2.993,11.000,33.000,86.500,101.000
2.994,10.500,33.000,86.000,100.500
2.995,10.500,32.500,86.000,100.500
2.996,10.500,32.000,85.500,100.000
2.997,10.500,32.000,85.000,99.500
2.998,10.000,32.000,85.000,99.500
2.999,10.000,32.000,85.000,99.000
3.000,10.000,32.000,85.000,99.000
3.001,10.000,32.000,85.000,99.000
3.002,10.000,32.000,85.000,99.000
3.003,10.000,32.000,85.000,99.500
3.004,10.000,32.000,85.000,99.500
3.005,10.000,32.000,85.000,99.500
3.006,10.500,32.000,85.000,99.500
3.007,10.500,32.000,85.500,100.000
3.008,11.000,32.500,85.500,100.000
3.009,11.000,32.500,86.000,100.000
3.010,11.000,32.500,86.000,100.000
3.011,11.000,32.500,86.000,100.000
3.012,10.500,32.500,86.000,100.000
3.013,10.500,32.500,85.500,99.500
3.014,10.000,32.000,85.500,99.500
3.015,10.000,31.500,85.000,99.000
3.016,9.500,31.500,85.000,99.000
3.017,10.000,31.500,85.000,99.000
3.018,10.000,31.500,85.000,99.500
3.019,10.000,32.000,85.000,99.500
3.020,10.000,32.000,85.500,99.500
3.021,10.000,32.500,85.500,99.500
3.022,10.000,32.500,85.500,99.500
3.023,9.500,32.000,85.500,100.000
3.024,9.500,32.000,85.500,100.000
3.025,10.000,32.000,85.500,100.000
3.026,10.000,32.000,85.000,100.000
3.027,10.000,31.500,85.000,100.000
3.028,10.500,31.500,84.500,100.000
3.029,10.500,31.500,85.000,100.000
3.030,10.000,32.000,85.000,100.500
3.031,10.000,32.000,85.500,100.500
3.032,9.500,32.000,85.500,101.000
3.033,9.500,32.000,85.500,100.500
3.034,9.000,31.500,85.500,100.500
3.035,9.000,31.000,85.000,100.000
3.036,9.000,31.000,85.000,100.000
3.037,9.000,30.500,84.500,100.000
3.038,9.000,30.500,84.500,100.000
3.039,9.000,30.000,84.500,100.500
3.040,9.000,30.000,84.500,100.500
3.041,9.000,30.000,84.500,101.000
3.042,9.000,30.000,84.500,101.500
3.043,9.000,30.500,84.500,101.500
3.044,9.500,30.500,85.000,102.000
3.045,9.500,31.000,85.500,102.500
3.046,9.500,31.500,86.000,103.000
3.047,10.000,32.000,87.000,103.500
3.048,10.000,32.500,87.500,104.000
3.049,9.500,32.500,87.500,104.000
3.050,9.500,32.500,87.500,104.000
3.051,9.000,32.000,87.000,103.500
3.052,9.000,31.500,86.500,103.000
3.053,8.500,31.000,86.000,102.500
3.054,8.500,30.500,85.000,102.000
3.055,8.500,30.000,84.500,101.500
3.056,8.500,30.000,84.000,101.000
3.057,8.500,29.500,84.000,101.000
3.058,8.000,29.500,84.000,101.000
3.059,8.000,29.000,83.500,101.000
3.060,8.000,29.000,83.500,101.000
3.061,8.000,29.000,84.000,101.000
3.062,8.000,29.000,84.000,101.000
3.063,8.000,29.000,84.000,101.000
3.064,8.000,29.000,84.000,101.000
3.065,8.000,29.000,84.000,101.000
3.066,8.000,29.000,84.000,101.500
3.067,8.000,28.500,84.000,101.500
3.068,8.000,28.500,84.000,101.500
3.069,7.500,28.000,84.000,101.500
3.070,7.000,28.000,83.500,101.500
3.071,7.000,27.500,83.000,101.500
3.072,6.500,27.000,83.000,101.500
3.073,6.500,27.000,83.000,101.500
3.074,7.000,27.000,83.000,101.000
3.075,7.000,27.000,83.000,101.000
3.076,7.000,27.000,83.000,101.000
3.077,7.000,27.000,82.500,100.500
3.078,7.000,26.500,82.500,100.000
3.079,6.500,26.500,82.000,100.000
3.080,6.500,26.000,81.500,99.500
3.081,6.500,26.000,81.000,99.000
3.082,6.500,26.000,80.500,98.500
3.083,6.500,26.000,80.500,98.500
3.084,6.500,25.500,80.500,98.000
3.085,6.500,25.500,80.000,98.000
3.086,6.500,25.500,80.000,98.500
3.087,6.500,25.500,80.000,98.500
3.088,6.500,25.500,80.000,98.500
3.089,6.500,25.000,79.500,98.500
3.090,6.500,25.000,79.500,98.000
3.091,6.500,25.000,79.000,97.500
3.092,6.500,24.500,79.000,97.000
3.093,6.500,24.500,79.000,97.000
3.094,6.500,24.500,79.000,97.000
3.095,6.500,24.500,79.000,97.500
3.096,7.000,24.000,78.500,97.500
3.097,7.000,24.000,78.500,98.000
3.098,7.500,24.000,78.500,98.000
3.099,7.500,24.000,78.000,98.500
3.100,7.500,24.000,78.000,98.500
3.101,8.000,24.000,78.000,98.500
3.102,8.000,24.000,78.500,98.500
3.103,8.500,24.500,78.500,98.500
3.104,8.500,24.500,79.000,98.500
3.105,8.500,25.000,79.500,99.000
3.106,9.000,25.000,80.000,99.000
3.107,9.000,25.500,80.500,99.000
3.108,9.500,26.000,81.000,99.500
3.109,9.500,26.500,81.000,99.500
3.110,10.000,26.500,81.500,100.000
3.111,10.000,27.000,81.500,100.000
3.112,10.000,27.000,81.500,100.000
3.113,9.500,27.000,81.500,100.000
3.114,9.500,27.000,81.500,100.000
3.115,9.000,27.000,81.500,100.000
3.116,9.000,26.500,81.000,100.000
3.117,8.500,26.500,80.500,99.500
3.118,8.500,26.000,80.500,99.500
3.119,8.500,26.000,80.000,99.500
3.120,8.500,26.000,80.500,99.500
3.121,9.000,26.500,81.000,99.500
3.122,9.000,26.500,81.500,100.000
3.123,9.000,27.000,82.000,100.000
3.124,9.000,27.000,82.000,100.000
3.125,9.000,26.500,82.500,100.500
3.126,9.000,26.500,82.500,100.500
3.127,8.500,26.000,82.000,100.000
3.128,8.500,26.000,81.500,100.000
3.129,8.500,25.500,81.000,99.500
3.130,8.500,25.500,80.500,99.500
3.131,8.500,25.500,80.000,99.000
3.132,8.500,25.500,79.500,99.000
3.133,9.000,25.500,79.500,98.500
3.134,9.000,25.500,80.000,98.500
3.135,9.000,25.000,80.000,98.000
3.136,9.000,25.000,80.000,98.000
3.137,9.000,24.500,80.500,97.500
3.138,8.500,24.500,80.500,97.000
3.139,8.500,24.000,80.000,97.000
3.140,8.000,23.500,80.000,96.500
3.141,8.000,23.500,80.000,96.500
3.142,8.000,23.500,80.000,97.000
3.143,7.500,24.000,80.500,97.000
3.144,8.000,24.000,80.500,97.500
3.145,8.000,24.500,80.500,97.500
3.146,8.000,24.500,81.000,97.500
3.147,8.000,24.500,81.000,98.000
3.148,8.500,24.500,81.500,98.000
3.149,8.500,24.500,81.500,97.500
3.150,8.500,24.500,81.500,97.500
3.151,8.500,24.500,81.500,97.500
3.152,8.500,24.500,82.000,97.000
3.153,8.500,24.500,82.000,97.000
3.154,8.500,24.500,82.000,97.000
3.155,8.500,24.500,82.000,97.000
3.156,8.500,24.500,82.000,96.500
3.157,9.000,24.500,82.000,96.000
3.158,9.000,25.000,82.000,96.000
3.159,9.500,25.000,82.000,96.000
3.160,10.000,25.500,82.500,96.000
3.161,10.500,26.000,83.000,96.000
3.162,10.500,26.000,83.500,96.000
3.163,10.500,26.000,84.000,96.000
3.164,10.500,26.000,84.000,95.500
3.165,10.500,25.500,84.000,95.500
3.166,10.000,25.000,83.500,95.000
3.167,9.500,24.500,83.000,95.000
3.168,8.500,23.000,82.000,94.500
3.169,7.500,21.500,81.000,93.500
3.170,5.500,19.500,79.500,92.500
3.171,3.500,17.000,77.500,91.500
3.172,1.500,14.500,75.500,90.000
3.173,-1.000,12.000,73.500,88.500
3.174,-2.500,10.500,72.000,87.500
3.175,-3.500,9.000,71.000,87.000
3.176,-4.000,9.000,70.500,86.500
3.177,-4.000,9.000,70.500,86.500
3.178,-3.500,9.500,71.000,87.000
3.179,-2.500,10.000,71.500,87.000
3.180,-1.500,11.500,72.500,87.500
3.181,0.500,13.000,74.000,88.500
3.182,2.500,15.500,75.500,90.000
3.183,5.000,18.000,78.000,91.500
3.184,7.500,20.500,80.000,93.500
3.185,9.500,23.000,82.500,94.500
3.186,11.000,24.500,84.000,95.500
3.187,12.000,26.000,85.000,96.000
3.188,13.000,26.500,85.000,96.000
3.189,13.000,26.000,84.500,96.000
3.190,12.500,25.500,83.500,95.000
3.191,11.500,24.500,82.500,94.000
3.192,10.500,23.000,81.500,93.500
3.193,9.000,21.500,80.000,92.500
3.194,8.000,20.500,79.000,91.500
3.195,7.500,19.500,78.500,91.000
3.196,6.500,18.500,77.500,90.500
3.197,6.000,17.500,77.000,90.000
3.198,6.000,17.500,77.000,89.500
3.199,6.000,17.000,76.500,89.000
3.200,6.000,17.000,76.500,89.000
3.201,6.500,17.000,76.000,89.000
3.202,6.500,17.000,76.000,89.000
3.203,6.500,17.000,75.500,89.500
3.204,6.500,17.000,75.500,89.500
3.205,6.500,17.500,75.500,90.000
3.206,6.500,17.500,75.500,90.500
3.207,7.000,18.000,76.000,91.000
3.208,7.000,18.000,76.000,91.500
3.209,7.000,18.500,76.500,91.500
3.210,7.000,18.500,77.000,92.000
3.211,6.500,18.500,77.000,92.000
3.212,6.000,18.500,76.500,91.500
3.213,6.000,18.500,76.000,91.500
3.214,5.500,18.000,75.500,91.500
3.215,5.500,17.500,75.000,91.000
3.216,5.500,17.500,74.500,91.000
3.217,5.500,17.000,74.000,90.500
3.218,5.500,17.000,73.500,90.000
3.219,5.500,16.500,73.000,89.500
3.220,5.000,16.500,73.000,89.500
3.221,5.000,16.500,73.000,90.000
3.222,5.500,16.500,73.000,90.000
3.223,5.500,17.000,73.500,90.500
3.224,5.500,17.000,73.500,90.500
3.225,6.000,17.000,74.000,90.500
3.226,6.000,17.500,74.000,91.000
3.227,6.000,17.500,74.500,91.500
3.228,6.000,17.500,74.500,91.500
3.229,6.000,17.000,74.000,92.000
3.230,6.000,16.500,74.000,92.000
3.231,5.500,16.000,73.500,91.500
3.232,5.000,15.500,73.000,91.500
3.233,4.500,15.000,72.500,91.000
3.234,4.500,14.500,72.000,91.000
3.235,4.000,14.000,71.500,91.000
3.236,4.000,14.000,71.500,91.000
3.237,4.000,13.500,71.000,91.000
3.238,4.000,13.500,71.000,90.500
3.239,4.000,14.000,71.000,90.500
3.240,4.500,14.000,71.000,90.500
3.241,4.500,14.500,71.500,91.000
3.242,5.000,15.000,72.000,91.000
3.243,5.000,15.500,72.500,91.500
3.244,5.500,15.500,73.000,92.000
3.245,5.500,15.500,73.000,92.000
3.246,5.000,15.500,72.500,92.000
3.247,5.000,15.500,72.500,92.000
3.248,4.500,15.000,72.000,92.000
3.249,4.500,14.500,71.000,91.500
3.250,4.500,14.500,70.500,91.500
3.251,4.000,14.000,70.500,91.500
3.252,3.500,13.500,70.000,91.500
3.253,3.500,13.000,69.500,91.500
3.254,3.000,13.000,69.500,91.500
3.255,3.000,13.000,69.500,91.500
3.256,3.000,13.000,69.500,91.500
3.257,3.000,13.000,69.500,91.500
3.258,3.000,13.000,69.500,91.500
3.259,3.000,13.500,69.500,91.500
3.260,3.000,13.500,70.000,91.500
3.261,3.500,13.500,70.000,91.500
3.262,3.500,13.500,69.500,91.500
3.263,3.500,13.500,69.500,91.500
3.264,3.000,13.500,69.000,91.000
3.265,3.000,13.500,68.500,91.000
3.266,2.500,13.000,68.500,90.500
3.267,2.000,13.000,68.000,90.500
3.268,2.000,12.500,68.000,90.500
3.269,2.000,12.500,68.000,90.000
3.270,2.000,12.500,68.000,90.000
3.271,2.000,12.500,68.000,89.500
3.272,1.500,12.500,68.000,89.000
3.273,1.500,12.000,68.000,88.500
3.274,1.000,11.500,67.500,88.000
3.275,0.500,11.000,67.000,87.500
3.276,0.500,10.500,66.500,87.500
3.277,0.500,10.000,66.000,87.000
3.278,0.500,10.000,66.000,87.000
3.279,1.000,10.000,66.000,86.500
3.280,1.500,10.000,65.500,86.500
3.281,1.500,10.000,65.500,86.000
3.282,2.000,10.000,65.500,86.000
3.283,2.000,10.500,65.500,86.000
3.284,2.500,11.000,66.000,86.500
3.285,2.500,11.000,66.500,87.000
3.286,2.500,11.500,67.000,87.500
3.287,2.500,11.500,68.000,88.500
3.288,2.500,12.000,68.500,89.000
3.289,2.500,12.500,69.000,89.000
3.290,2.500,13.000,69.500,89.500
3.291,2.500,13.000,69.500,89.500
3.292,2.000,13.000,69.500,89.000
3.293,2.000,12.500,69.500,89.000
3.294,1.500,12.500,69.500,88.500
3.295,1.500,12.500,69.500,88.500
3.296,1.500,12.500,69.000,88.500
3.297,1.500,12.500,69.000,88.500
3.298,2.000,12.500,68.500,88.500
3.299,2.000,12.000,68.500,88.500
3.300,2.000,12.500,68.500,88.500
3.301,2.000,12.500,68.500,88.500
3.302,2.000,12.000,68.500,88.500
3.303,1.500,12.000,68.000,89.000
3.304,1.500,12.000,68.000,89.000
3.305,1.000,11.500,68.000,89.000
3.306,1.000,11.500,68.000,89.000
3.307,1.500,11.500,68.500,89.000
3.308,1.500,12.000,68.500,89.000
3.309,2.000,12.000,69.000,89.000
3.310,2.000,12.500,69.000,88.500
3.311,1.500,12.500,69.000,88.500
3.312,1.500,12.500,69.000,88.000
3.313,1.500,12.500,69.000,87.500
3.314,1.000,12.500,68.500,87.000
3.315,1.000,12.000,68.000,86.500
3.316,1.500,12.000,68.000,86.000
3.317,1.500,11.500,67.500,85.500
3.318,1.500,11.500,67.000,85.000
3.319,1.500,11.000,66.500,84.500
3.320,1.500,11.000,66.500,84.500
3.321,1.500,11.500,66.000,84.500
3.322,1.500,11.500,66.000,84.500
3.323,2.000,12.000,66.000,85.000
3.324,2.000,12.500,66.500,85.000
3.325,2.500,12.500,66.500,85.000
3.326,2.500,12.500,66.500,85.000
3.327,3.000,13.000,66.500,85.000
3.328,3.000,13.000,66.500,85.500
3.329,3.000,13.000,67.000,85.500
3.330,3.500,13.500,67.500,85.500
3.331,3.500,14.000,67.500,85.500
3.332,3.500,14.000,67.500,85.500
3.333,3.000,14.000,67.500,85.500
3.334,3.000,14.000,67.500,85.000
3.335,3.000,13.500,67.000,85.000
3.336,3.000,13.000,67.000,84.500
3.337,3.000,13.000,66.500,84.500
3.338,3.500,13.500,66.500,84.000
3.339,4.000,14.000,66.500,84.500
3.340,4.500,14.500,67.000,85.000
3.341,5.000,15.000,67.500,85.500
3.342,5.000,15.000,67.500,85.500
3.343,5.500,15.500,68.000,86.000
3.344,6.000,15.500,68.000,86.000
3.345,6.000,15.500,68.000,86.000
3.346,6.500,15.500,68.000,86.500
3.347,6.500,15.500,68.000,86.500
3.348,6.500,15.500,68.500,87.000
3.349,6.000,16.000,69.000,87.000
3.350,6.000,16.000,69.000,87.500
3.351,5.500,16.000,69.000,87.500
3.352,5.500,16.000,69.500,88.000
3.353,5.000,16.000,69.000,88.000
3.354,5.000,15.500,69.000,87.500
3.355,4.500,15.500,69.000,87.500
3.356,4.500,15.000,68.500,87.000
3.357,4.500,15.000,68.000,86.500
3.358,4.500,15.000,67.000,86.000
3.359,4.500,14.500,66.500,86.000
3.360,4.500,14.500,66.500,85.500
3.361,5.000,14.500,66.500,85.500
3.362,5.500,14.500,66.500,86.000
3.363,5.500,15.000,66.500,86.000
3.364,6.000,15.000,66.500,86.500
3.365,6.500,15.000,67.000,87.000
3.366,6.500,15.500,67.500,87.500
3.367,6.500,16.000,68.000,88.000
3.368,7.000,16.000,68.500,88.500
3.369,6.500,16.500,68.500,88.500
3.370,6.500,16.000,68.500,88.500
3.371,6.500,16.000,68.000,88.500
3.372,6.500,16.000,68.000,88.500
3.373,6.500,15.500,67.500,88.000
3.374,6.500,15.500,67.500,88.000
3.375,6.500,15.500,67.000,88.000
3.376,6.500,15.000,67.500,88.000
3.377,6.500,15.000,67.500,88.500
3.378,6.500,15.500,67.500,88.500
3.379,7.000,15.500,67.500,89.000
3.380,7.000,15.500,67.500,89.000
3.381,7.000,15.500,67.500,89.000
3.382,7.000,15.500,67.500,88.500
3.383,6.500,15.500,67.000,88.500
3.384,6.500,15.500,67.000,88.000
3.385,6.500,15.000,66.500,87.500
3.386,6.500,15.000,66.000,87.000
3.387,7.000,15.000,65.500,86.500
3.388,7.000,15.000,65.000,86.000
3.389,6.500,14.500,65.000,85.500
3.390,6.500,14.000,64.000,85.000
3.391,5.500,13.000,63.500,84.000
3.392,4.500,12.000,62.500,82.500
3.393,4.000,11.000,61.000,81.500
3.394,3.000,10.000,60.000,80.000
3.395,2.000,9.000,59.000,79.000
3.396,1.000,8.000,58.000,78.500
3.397,-0.500,7.000,57.000,77.500
3.398,-1.500,6.000,56.000,77.000
3.399,-2.500,5.000,55.000,76.000
3.400,-3.500,4.000,54.500,75.500
3.401,-4.000,3.500,54.000,75.500
3.402,-5.000,3.000,54.000,75.000
3.403,-5.500,2.500,53.500,75.000
3.404,-6.500,2.000,53.500,75.000
3.405,-7.500,1.500,53.500,75.500
3.406,-8.000,1.000,53.500,76.500
3.407,-9.000,0.500,53.500,77.000
3.408,-10.000,0.000,53.500,78.500
3.409,-10.500,-0.500,53.500,79.500
3.410,-11.500,-1.000,53.500,80.500
3.411,-12.000,-1.000,53.500,81.500
3.412,-13.000,-1.500,53.500,82.500
3.413,-14.000,-2.000,53.000,83.000
3.414,-15.000,-2.500,53.000,83.500
3.415,-16.000,-3.500,52.500,84.500
3.416,-16.500,-3.500,52.500,85.000
3.417,-17.000,-3.500,52.500,85.500
3.418,-17.000,-3.500,52.500,86.000
3.419,-16.000,-2.500,53.500,86.500
3.420,-14.500,-1.000,55.500,88.000
3.421,-12.500,1.000,58.000,89.500
3.422,-9.500,4.500,61.000,92.000
3.423,-6.000,7.500,64.500,94.000
3.424,-2.500,11.000,67.500,95.500
3.425,0.500,14.500,70.500,97.000
3.426,3.500,17.000,73.000,98.000
3.427,7.000,20.000,75.000,98.500
3.428,10.000,22.500,77.000,99.000
3.429,13.500,25.000,79.000,99.500
3.430,16.500,27.000,80.500,100.000
3.431,19.000,28.500,82.000,100.000
3.432,20.500,30.000,83.000,100.000
