'Elapsed time','AECG1','AECG2','AECG3','AECG4'
'seconds','uV','uV','uV','uV'
0.000,-3.300,-6.700,3.000,-3.500
0.001,-3.800,-6.700,3.000,-3.500
0.002,-4.400,-6.800,3.200,-3.500
0.003,-5.000,-6.900,3.200,-3.600
0.004,-5.600,-6.900,3.300,-3.700
0.005,-6.200,-6.900,3.400,-3.900
0.006,-6.800,-7.000,3.400,-4.000
0.007,-7.400,-7.100,3.500,-4.200
0.008,-8.000,-7.200,3.500,-4.300
0.009,-8.600,-7.300,3.500,-4.500
0.010,-9.000,-7.400,3.500,-4.600
0.011,-9.400,-7.500,3.600,-4.800
0.012,-9.800,-7.700,3.600,-5.000
0.013,-10.200,-8.000,3.700,-5.300
0.014,-10.500,-8.300,3.800,-5.700
0.015,-10.800,-8.500,3.900,-6.100
0.016,-11.100,-8.800,4.000,-6.300
0.017,-11.400,-9.000,4.200,-6.500
0.018,-11.600,-9.100,4.300,-6.500
0.019,-11.900,-9.300,4.400,-6.600
0.020,-12.200,-9.400,4.500,-6.600
0.021,-12.600,-9.400,4.600,-6.700
0.022,-12.900,-9.300,4.700,-6.600
0.023,-13.200,-9.100,4.800,-6.400
0.024,-13.500,-8.900,4.900,-5.900
0.025,-13.800,-8.800,5.100,-5.300
0.026,-14.200,-8.500,5.100,-4.700
0.027,-14.600,-8.100,5.200,-4.100
0.028,-15.000,-7.700,5.300,-3.600
0.029,-15.300,-7.200,5.400,-3.200
0.030,-15.500,-6.800,5.500,-2.700
0.031,-15.700,-6.500,5.600,-2.200
0.032,-16.000,-6.300,5.700,-1.900
0.033,-16.300,-6.100,5.800,-1.800
0.034,-16.600,-5.800,5.900,-1.800
0.035,-17.000,-5.600,6.000,-1.800
0.036,-17.300,-5.700,6.200,-1.900
0.037,-17.500,-6.200,6.300,-1.900
0.038,-17.700,-7.100,6.400,-2.100
0.039,-17.900,-8.000,6.500,-2.200
0.040,-18.200,-8.800,6.600,-2.400
0.041,-18.300,-9.400,6.600,-2.600
0.042,-18.500,-9.900,6.700,-2.600
0.043,-18.600,-10.500,6.700,-2.700
0.044,-18.800,-11.200,6.800,-2.900
0.045,-18.900,-11.900,6.800,-3.000
0.046,-18.900,-12.300,6.900,-3.200
0.047,-19.000,-12.600,6.900,-3.300
0.048,-18.900,-12.600,6.900,-3.400
0.049,-18.900,-12.400,6.900,-3.400
0.050,-18.700,-12.200,6.800,-3.300
0.051,-18.600,-11.900,6.600,-3.300
0.052,-18.400,-11.400,6.400,-3.200
0.053,-18.200,-10.700,6.300,-3.300
0.054,-17.900,-9.800,6.100,-3.400
0.055,-17.700,-8.800,5.900,-3.500
0.056,-17.400,-8.000,5.800,-3.600
0.057,-17.100,-7.400,5.600,-3.700
0.058,-16.800,-7.000,5.400,-3.800
0.059,-16.400,-6.600,5.200,-3.800
0.060,-16.100,-6.400,5.000,-4.000
0.061,-15.700,-6.100,4.800,-4.100
0.062,-15.300,-6.000,4.700,-4.300
0.063,-14.900,-6.100,4.500,-4.500
0.064,-14.500,-6.400,4.400,-4.600
0.065,-14.100,-6.900,4.200,-4.800
0.066,-13.600,-7.300,4.100,-5.000
0.067,-13.200,-7.800,4.000,-5.200
0.068,-12.800,-8.300,3.900,-5.300
0.069,-12.400,-8.600,3.800,-5.400
0.070,-12.100,-8.900,3.700,-5.400
0.071,-11.800,-9.100,3.600,-5.300
0.072,-11.600,-9.200,3.500,-5.300
0.073,-11.300,-9.300,3.400,-5.300
0.074,-11.100,-9.300,3.200,-5.200
0.075,-10.900,-9.100,3.100,-5.200
0.076,-10.700,-8.900,3.000,-5.200
0.077,-10.500,-8.600,3.000,-5.100
0.078,-10.300,-8.400,2.900,-4.900
0.079,-10.100,-8.100,2.800,-4.700
0.080,-9.900,-7.800,2.700,-4.400
0.081,-9.800,-7.400,2.500,-4.000
0.082,-9.800,-6.900,2.300,-3.600
0.083,-9.700,-6.300,2.200,-3.200
0.084,-9.700,-5.700,2.100,-2.700
0.085,-9.600,-5.200,2.100,-2.200
0.086,-9.400,-4.800,2.000,-1.700
0.087,-9.200,-4.400,1.900,-1.300
0.088,-9.000,-4.000,1.800,-0.900
0.089,-8.700,-3.600,1.800,-0.600
0.090,-8.300,-3.300,1.700,-0.300
0.091,-7.800,-3.000,1.600,-0.100
0.092,-7.200,-2.800,1.500,0.100
0.093,-6.500,-2.600,1.500,0.200
0.094,-5.900,-2.400,1.400,0.200
0.095,-5.200,-2.300,1.300,0.200
0.096,-4.600,-2.200,1.200,0.000
0.097,-4.000,-2.000,1.100,-0.200
0.098,-3.500,-1.900,0.900,-0.400
0.099,-3.000,-1.700,0.800,-0.500
0.100,-2.500,-1.500,0.600,-0.700
0.101,-2.000,-1.400,0.400,-0.800
0.102,-1.500,-1.300,0.300,-0.900
0.103,-1.000,-1.200,0.200,-1.000
0.104,-0.600,-1.100,0.000,-1.000
0.105,-0.300,-1.000,-0.100,-1.000
0.106,0.100,-0.900,-0.200,-1.000
0.107,0.300,-0.700,-0.300,-1.000
0.108,0.600,-0.400,-0.400,-0.900
0.109,0.800,-0.200,-0.500,-0.900
0.110,1.000,0.100,-0.700,-0.800
0.111,1.200,0.200,-0.700,-0.700
0.112,1.400,0.200,-0.800,-0.600
0.113,1.600,0.100,-0.900,-0.500
0.114,1.800,0.000,-1.000,-0.400
0.115,1.900,-0.100,-1.000,-0.400
0.116,2.100,-0.300,-1.100,-0.300
0.117,2.200,-0.600,-1.200,-0.300
0.118,2.300,-0.900,-1.200,-0.200
0.119,2.500,-1.100,-1.300,-0.200
0.120,2.700,-1.300,-1.300,-0.200
0.121,2.800,-1.300,-1.400,-0.200
0.122,2.900,-1.300,-1.400,-0.200
0.123,3.100,-1.300,-1.400,-0.200
0.124,3.200,-1.100,-1.500,-0.300
0.125,3.400,-0.800,-1.600,-0.300
0.126,3.500,-0.300,-1.600,-0.300
0.127,3.700,0.300,-1.700,-0.300
0.128,3.800,0.900,-1.700,-0.300
0.129,3.900,1.500,-1.800,-0.300
0.130,4.000,2.100,-1.800,-0.300
0.131,4.100,2.700,-1.900,-0.300
0.132,4.200,3.200,-1.900,-0.300
0.133,4.300,3.600,-2.000,-0.300
0.134,4.300,3.700,-1.900,-0.300
0.135,4.400,3.600,-1.900,-0.300
0.136,4.400,3.500,-1.900,-0.300
0.137,4.500,3.500,-1.800,-0.300
0.138,4.500,3.700,-1.800,-0.400
0.139,4.500,3.800,-1.800,-0.400
0.140,4.500,3.700,-1.800,-0.400
0.141,4.500,3.400,-1.700,-0.200
0.142,4.500,3.100,-1.700,0.000
0.143,4.400,2.800,-1.700,0.200
0.144,4.300,2.700,-1.700,0.400
0.145,4.200,2.700,-1.700,0.600
0.146,4.200,2.700,-1.700,0.700
0.147,4.100,2.800,-1.700,0.900
0.148,4.000,2.900,-1.700,1.000
0.149,4.000,3.000,-1.600,1.100
0.150,4.000,3.200,-1.600,1.200
0.151,4.000,3.400,-1.700,1.400
0.152,4.000,3.600,-1.800,1.500
0.153,4.100,3.800,-1.800,1.500
0.154,4.200,4.100,-1.900,1.400
0.155,4.400,4.300,-1.900,1.300
0.156,4.500,4.500,-1.800,1.200
0.157,4.500,4.600,-1.900,1.300
0.158,4.500,4.700,-1.900,1.400
0.159,4.400,4.900,-1.900,1.500
0.160,4.400,5.000,-1.900,1.400
0.161,4.300,5.100,-1.800,1.100
0.162,4.300,5.100,-1.800,0.900
0.163,4.200,4.900,-1.700,0.700
0.164,4.100,4.800,-1.700,0.700
0.165,4.000,4.600,-1.600,0.800
0.166,3.900,4.400,-1.600,0.700
0.167,3.700,4.200,-1.500,0.600
0.168,3.600,4.000,-1.400,0.600
0.169,3.400,3.900,-1.300,0.700
0.170,3.300,3.800,-1.200,0.800
0.171,3.100,3.600,-1.100,1.000
0.172,3.000,3.600,-0.900,1.300
0.173,3.000,3.500,-0.800,1.500
0.174,3.000,3.500,-0.600,1.700
0.175,3.000,3.500,-0.300,2.100
0.176,3.200,3.500,-0.100,2.500
0.177,3.300,3.500,0.200,2.900
0.178,3.500,3.500,0.600,3.400
0.179,3.800,3.600,0.900,3.900
0.180,4.100,3.700,1.400,4.400
0.181,4.500,3.900,1.800,4.900
0.182,4.900,4.100,2.200,5.400
0.183,5.300,4.400,2.700,5.900
0.184,5.700,4.700,3.100,6.400
0.185,6.000,4.800,3.600,6.900
0.186,6.300,5.000,4.000,7.400
0.187,6.500,5.100,4.400,7.800
0.188,6.800,5.200,4.900,8.200
0.189,7.000,5.200,5.300,8.500
0.190,7.100,5.100,5.700,8.700
0.191,7.100,5.000,6.000,8.900
0.192,7.100,4.900,6.400,9.000
0.193,7.000,4.900,6.700,9.200
0.194,6.900,4.900,7.000,9.400
0.195,6.800,4.900,7.300,9.500
0.196,6.600,5.000,7.600,9.600
0.197,6.400,5.100,8.000,9.700
0.198,6.100,5.300,8.400,9.700
0.199,5.900,5.500,8.600,9.600
0.200,5.500,5.900,8.900,9.600
0.201,5.200,6.300,9.000,9.600
0.202,5.000,6.500,9.100,9.600
0.203,4.700,6.800,9.100,9.500
0.204,4.500,7.000,9.000,9.300
0.205,4.300,7.200,8.900,9.100
0.206,4.100,7.400,8.700,8.800
0.207,4.000,7.600,8.400,8.500
0.208,4.000,7.800,8.100,8.200
0.209,4.000,7.800,7.700,7.900
0.210,4.100,7.700,7.100,7.600
0.211,4.300,7.500,6.600,7.300
0.212,4.400,7.300,6.000,7.000
0.213,4.400,7.100,5.300,6.700
0.214,4.500,6.800,4.600,6.600
0.215,4.500,6.500,3.800,6.400
0.216,4.600,6.100,3.100,6.200
0.217,4.600,5.700,2.300,6.000
0.218,4.700,5.200,1.500,5.600
0.219,4.800,4.700,0.800,5.100
0.220,5.000,4.100,-0.100,4.600
0.221,5.300,3.500,-0.900,3.900
0.222,5.700,2.700,-1.800,3.100
0.223,6.200,1.800,-2.800,2.100
0.224,6.700,0.700,-3.800,1.000
0.225,7.300,-0.700,-5.000,-0.300
0.226,8.000,-2.500,-6.200,-1.700
0.227,8.800,-4.500,-7.500,-3.300
0.228,9.700,-6.800,-8.900,-5.000
0.229,10.700,-9.400,-10.300,-6.900
0.230,11.600,-12.300,-11.900,-8.900
0.231,12.500,-15.800,-13.500,-11.000
0.232,13.500,-19.600,-15.200,-13.300
0.233,14.500,-23.600,-17.000,-15.600
0.234,15.600,-27.700,-18.900,-18.100
0.235,16.700,-32.100,-20.900,-20.800
0.236,17.600,-36.900,-22.900,-23.600
0.237,18.200,-42.400,-25.000,-26.600
0.238,18.700,-48.300,-27.000,-29.700
0.239,18.900,-54.500,-29.100,-32.900
0.240,19.000,-60.500,-31.000,-36.200
0.241,18.900,-66.500,-32.900,-39.400
0.242,18.300,-72.400,-34.500,-42.600
0.243,17.200,-78.500,-35.900,-45.800
0.244,15.400,-84.600,-37.000,-49.000
0.245,12.900,-90.600,-37.700,-52.200
0.246,9.700,-96.300,-38.000,-55.200
0.247,6.000,-101.500,-38.000,-58.100
0.248,2.000,-106.300,-37.600,-60.700
0.249,-2.100,-110.700,-37.100,-63.000
0.250,-5.800,-114.400,-36.500,-64.900
0.251,-8.900,-117.300,-36.000,-66.300
0.252,-11.100,-119.200,-35.600,-67.200
0.253,-12.400,-119.900,-35.300,-67.600
0.254,-12.800,-119.600,-35.100,-67.500
0.255,-12.600,-118.300,-34.900,-66.800
0.256,-12.100,-116.000,-34.400,-65.600
0.257,-11.500,-112.800,-33.600,-64.000
0.258,-11.100,-108.600,-32.400,-61.800
0.259,-11.200,-103.500,-30.800,-59.200
0.260,-11.700,-97.600,-28.700,-55.900
0.261,-12.700,-91.100,-26.300,-52.200
0.262,-14.000,-84.000,-23.400,-48.300
0.263,-15.600,-76.400,-20.300,-44.100
0.264,-17.400,-68.300,-17.000,-39.800
0.265,-19.400,-59.900,-13.500,-35.400
0.266,-21.600,-51.400,-9.900,-31.000
0.267,-23.800,-43.000,-6.200,-26.500
0.268,-26.100,-34.700,-2.600,-22.100
0.269,-28.600,-26.600,1.100,-17.800
0.270,-31.200,-18.900,4.700,-13.600
0.271,-33.900,-11.600,8.200,-9.700
0.272,-36.800,-4.900,11.600,-6.000
0.273,-39.600,0.900,14.800,-2.600
0.274,-42.300,6.000,17.800,0.400
0.275,-44.800,10.400,20.400,3.100
0.276,-47.000,14.200,22.700,5.500
0.277,-48.700,17.500,24.600,7.600
0.278,-49.800,20.200,26.000,9.400
0.279,-50.100,22.400,26.900,10.900
0.280,-49.400,24.100,27.300,12.100
0.281,-47.800,25.600,27.000,13.000
0.282,-45.200,26.800,26.200,13.600
0.283,-41.500,27.800,24.800,14.000
0.284,-37.000,28.700,22.900,14.200
0.285,-31.700,29.300,20.500,14.400
0.286,-25.900,29.700,17.800,14.400
0.287,-19.700,29.900,15.000,14.200
0.288,-13.400,30.000,12.100,13.900
0.289,-7.100,29.800,9.300,13.500
0.290,-1.100,29.600,6.500,13.100
0.291,4.600,29.000,3.900,12.700
0.292,9.700,28.200,1.500,12.100
0.293,14.100,27.100,-0.600,11.600
0.294,17.900,25.900,-2.400,11.000
0.295,21.100,24.700,-4.000,10.500
0.296,23.700,23.400,-5.300,10.000
0.297,25.700,22.300,-6.400,9.600
0.298,27.100,21.300,-7.300,9.100
0.299,28.000,20.200,-7.900,8.600
0.300,28.400,19.300,-8.300,8.100
0.301,28.500,18.400,-8.600,7.700
0.302,28.300,17.600,-8.700,7.200
0.303,27.800,16.700,-8.700,6.900
0.304,27.200,15.900,-8.700,6.500
0.305,26.500,15.000,-8.600,6.100
0.306,25.700,14.200,-8.500,5.700
0.307,24.700,13.400,-8.400,5.400
0.308,23.600,12.600,-8.200,5.200
0.309,22.600,11.700,-8.000,4.900
0.310,21.600,10.700,-7.800,4.700
0.311,20.700,9.700,-7.600,4.500
0.312,19.800,8.800,-7.400,4.300
0.313,19.000,7.900,-7.100,4.100
0.314,18.100,7.000,-6.900,4.000
0.315,17.200,6.100,-6.600,3.800
0.316,16.400,5.300,-6.300,3.600
0.317,15.600,4.600,-6.000,3.400
0.318,14.800,4.000,-5.700,3.200
0.319,14.100,3.500,-5.400,3.000
0.320,13.300,2.900,-5.100,2.800
0.321,12.300,2.400,-4.700,2.600
0.322,11.400,1.900,-4.400,2.300
0.323,10.400,1.400,-4.000,2.000
0.324,9.400,0.900,-3.700,1.500
0.325,8.500,0.400,-3.300,1.000
0.326,7.600,-0.200,-3.000,0.500
0.327,6.600,-0.700,-2.600,0.100
0.328,5.700,-1.100,-2.300,-0.300
0.329,4.900,-1.400,-1.900,-0.500
0.330,4.200,-1.600,-1.600,-0.800
0.331,3.700,-1.800,-1.200,-0.900
0.332,3.100,-2.100,-0.900,-1.000
0.333,2.500,-2.400,-0.600,-1.000
0.334,1.800,-2.600,-0.400,-1.000
0.335,1.100,-2.700,-0.100,-1.000
0.336,0.500,-2.900,0.100,-0.900
0.337,0.100,-3.200,0.300,-0.700
0.338,-0.100,-3.600,0.400,-0.400
0.339,-0.300,-3.800,0.500,-0.100
0.340,-0.300,-3.800,0.500,0.200
0.341,-0.300,-3.400,0.500,0.300
0.342,0.000,-3.000,0.400,0.300
0.343,0.600,-2.400,0.300,0.200
0.344,1.300,-1.900,0.000,-0.100
0.345,2.100,-1.300,-0.200,-0.500
0.346,3.100,-0.700,-0.500,-1.100
0.347,4.200,0.100,-0.800,-1.900
0.348,5.400,0.700,-0.900,-2.800
0.349,6.500,1.400,-1.000,-3.900
0.350,7.500,2.000,-1.000,-5.000
0.351,8.300,2.700,-0.900,-6.000
0.352,8.800,3.400,-0.700,-6.900
0.353,9.400,3.900,-0.600,-7.400
0.354,10.100,4.300,-0.700,-7.700
0.355,10.700,4.500,-1.000,-7.400
0.356,11.100,4.400,-1.400,-6.800
0.357,10.900,4.100,-1.600,-5.900
0.358,10.200,3.700,-1.600,-4.900
0.359,9.100,3.200,-1.400,-4.000
0.360,7.800,2.500,-1.000,-3.300
0.361,6.400,1.700,-0.700,-2.700
0.362,5.100,1.000,-0.300,-2.200
0.363,3.900,0.300,-0.100,-1.700
0.364,3.000,-0.300,0.100,-1.200
0.365,2.500,-0.800,0.100,-0.800
0.366,2.200,-1.300,0.100,-0.500
0.367,2.100,-1.600,-0.100,-0.400
0.368,2.100,-1.900,-0.300,-0.300
0.369,2.200,-2.100,-0.500,-0.300
0.370,2.300,-2.200,-0.700,-0.300
0.371,2.400,-2.300,-0.700,-0.300
0.372,2.600,-2.400,-0.700,-0.400
0.373,2.700,-2.600,-0.500,-0.500
0.374,2.700,-2.900,-0.400,-0.700
0.375,2.800,-3.200,-0.400,-0.700
0.376,2.800,-3.500,-0.400,-0.800
0.377,2.900,-3.600,-0.400,-0.700
0.378,2.900,-3.800,-0.400,-0.700
0.379,2.800,-3.800,-0.500,-0.700
0.380,2.700,-3.900,-0.500,-0.600
0.381,2.600,-4.000,-0.500,-0.600
0.382,2.700,-4.000,-0.600,-0.600
0.383,2.700,-3.900,-0.600,-0.600
0.384,2.700,-3.800,-0.700,-0.500
0.385,2.600,-3.700,-0.700,-0.500
0.386,2.500,-3.600,-0.800,-0.500
0.387,2.400,-3.500,-0.900,-0.400
0.388,2.300,-3.300,-0.900,-0.500
0.389,2.300,-3.200,-0.900,-0.700
0.390,2.200,-3.100,-0.900,-0.800
0.391,2.100,-3.000,-1.000,-1.000
0.392,1.900,-3.000,-1.000,-1.100
0.393,1.700,-3.000,-1.000,-1.200
0.394,1.600,-3.100,-1.000,-1.300
0.395,1.400,-3.300,-1.000,-1.400
0.396,1.200,-3.500,-0.900,-1.500
0.397,1.100,-3.600,-0.800,-1.600
0.398,0.900,-3.700,-0.800,-1.700
0.399,0.700,-3.800,-0.700,-1.800
0.400,0.500,-3.900,-0.600,-1.900
0.401,0.400,-4.000,-0.600,-1.900
0.402,0.300,-4.200,-0.500,-1.800
0.403,0.200,-4.500,-0.500,-1.800
0.404,0.100,-4.700,-0.500,-1.800
0.405,0.000,-4.800,-0.500,-1.800
0.406,-0.100,-4.800,-0.500,-1.800
0.407,-0.100,-4.800,-0.500,-1.800
0.408,-0.100,-4.800,-0.500,-1.800
0.409,-0.100,-4.800,-0.500,-1.800
0.410,-0.100,-4.700,-0.600,-1.800
0.411,-0.100,-4.700,-0.600,-1.800
0.412,-0.100,-4.700,-0.700,-1.800
0.413,-0.100,-4.700,-0.700,-1.900
0.414,-0.200,-4.700,-0.800,-1.800
0.415,-0.300,-4.800,-0.800,-1.800
0.416,-0.300,-4.900,-0.800,-1.700
0.417,-0.300,-5.000,-0.800,-1.500
0.418,0.000,-5.100,-0.800,-1.400
0.419,0.300,-5.200,-0.800,-1.400
0.420,0.700,-5.200,-0.800,-1.400
0.421,1.100,-5.200,-0.800,-1.500
0.422,1.600,-5.200,-0.900,-1.700
0.423,2.100,-5.100,-0.900,-1.800
0.424,2.600,-5.100,-0.900,-1.900
0.425,3.000,-5.100,-0.900,-2.000
0.426,3.400,-5.200,-1.000,-2.100
0.427,3.700,-5.400,-1.000,-2.100
0.428,4.000,-5.700,-1.100,-2.200
0.429,4.200,-6.100,-1.100,-2.300
0.430,4.100,-6.400,-1.100,-2.300
0.431,3.800,-6.800,-1.100,-2.500
0.432,3.500,-7.100,-1.100,-2.600
0.433,3.400,-7.400,-1.200,-2.800
0.434,3.600,-7.600,-1.300,-2.900
0.435,3.900,-7.700,-1.300,-3.100
0.436,3.900,-7.800,-1.400,-3.300
0.437,3.600,-7.900,-1.400,-3.400
0.438,2.900,-8.000,-1.400,-3.500
0.439,2.200,-8.100,-1.500,-3.600
0.440,1.800,-8.200,-1.600,-3.900
0.441,1.800,-8.300,-1.600,-4.100
0.442,1.900,-8.400,-1.600,-4.300
0.443,1.900,-8.500,-1.600,-4.600
0.444,1.600,-8.700,-1.600,-4.700
0.445,1.400,-9.000,-1.600,-4.800
0.446,1.100,-9.200,-1.600,-4.900
0.447,1.000,-9.600,-1.600,-4.900
0.448,1.000,-9.800,-1.600,-5.000
0.449,1.000,-10.200,-1.700,-5.000
0.450,1.100,-10.500,-1.800,-5.100
0.451,1.100,-10.900,-1.900,-5.100
0.452,1.300,-11.300,-2.100,-5.000
0.453,1.500,-11.600,-2.300,-4.900
0.454,1.800,-11.900,-2.400,-4.800
0.455,2.300,-12.000,-2.500,-4.800
0.456,2.700,-12.200,-2.600,-4.800
0.457,3.200,-12.300,-2.600,-4.900
0.458,3.700,-12.300,-2.700,-5.000
0.459,4.200,-12.200,-2.700,-5.100
0.460,4.700,-12.100,-2.700,-5.100
0.461,5.200,-11.800,-2.800,-5.100
0.462,5.800,-11.600,-2.800,-5.100
0.463,6.200,-11.300,-2.800,-5.200
0.464,6.600,-10.900,-2.900,-5.300
0.465,6.800,-10.500,-2.900,-5.600
0.466,6.900,-10.000,-2.900,-5.800
0.467,7.000,-9.700,-2.900,-6.100
0.468,7.100,-9.500,-2.900,-6.300
0.469,7.100,-9.300,-2.900,-6.500
0.470,7.000,-9.100,-3.000,-6.700
0.471,6.900,-9.100,-3.000,-6.800
0.472,6.800,-9.200,-3.100,-6.900
0.473,6.600,-9.700,-3.100,-7.100
0.474,6.500,-10.300,-3.200,-7.200
0.475,6.300,-10.900,-3.300,-7.300
0.476,6.100,-11.300,-3.300,-7.400
0.477,5.900,-11.600,-3.400,-7.400
0.478,5.800,-11.700,-3.400,-7.300
0.479,5.600,-11.900,-3.500,-7.200
0.480,5.500,-11.900,-3.600,-7.100
0.481,5.400,-11.800,-3.600,-7.000
0.482,5.200,-11.400,-3.800,-6.900
0.483,5.100,-11.000,-3.900,-6.700
0.484,4.900,-10.500,-4.000,-6.600
0.485,4.800,-10.200,-4.100,-6.400
0.486,4.700,-10.000,-4.200,-6.300
0.487,4.600,-9.700,-4.300,-6.300
0.488,4.500,-9.500,-4.200,-6.200
0.489,4.300,-9.300,-4.200,-6.100
0.490,4.200,-9.200,-4.100,-6.000
0.491,4.200,-9.200,-4.100,-5.900
0.492,4.100,-9.300,-4.100,-5.900
0.493,4.200,-9.400,-4.100,-5.900
0.494,4.200,-9.600,-4.000,-5.900
0.495,4.100,-9.800,-4.000,-5.900
0.496,4.100,-9.900,-4.000,-6.000
0.497,4.100,-10.100,-4.000,-6.000
0.498,4.100,-10.200,-4.000,-6.000
0.499,4.000,-10.200,-4.000,-6.000
0.500,3.900,-10.300,-4.000,-6.100
0.501,3.800,-10.400,-4.000,-6.300
0.502,3.500,-10.700,-4.000,-6.400
0.503,3.200,-10.900,-4.100,-6.500
0.504,2.900,-11.000,-4.100,-6.500
0.505,2.700,-11.200,-4.200,-6.400
0.506,2.400,-11.300,-4.300,-6.300
0.507,2.200,-11.500,-4.300,-6.100
0.508,2.000,-11.700,-4.300,-6.100
0.509,1.700,-11.900,-4.400,-6.100
0.510,1.600,-12.100,-4.400,-6.000
0.511,1.500,-12.300,-4.400,-6.000
0.512,1.500,-12.400,-4.500,-6.100
0.513,1.500,-12.600,-4.500,-6.300
0.514,1.500,-12.800,-4.500,-6.500
0.515,1.500,-12.900,-4.500,-6.600
0.516,1.700,-13.000,-4.600,-6.800
0.517,1.900,-13.100,-4.600,-6.700
0.518,2.200,-13.200,-4.700,-6.700
0.519,2.400,-13.200,-4.700,-6.600
0.520,2.700,-13.100,-4.700,-6.600
0.521,3.000,-12.900,-4.700,-6.600
0.522,3.300,-12.600,-4.700,-6.600
0.523,3.600,-12.200,-4.700,-6.400
0.524,3.900,-12.000,-4.700,-6.000
0.525,4.000,-11.900,-4.700,-5.600
0.526,4.100,-11.900,-4.700,-5.200
0.527,4.100,-11.800,-4.700,-4.900
0.528,4.200,-11.600,-4.600,-4.700
0.529,4.100,-11.600,-4.600,-4.600
0.530,3.800,-11.900,-4.700,-4.400
0.531,3.200,-12.700,-4.700,-4.300
0.532,2.600,-13.500,-4.700,-4.300
0.533,2.300,-13.900,-4.700,-4.400
0.534,2.600,-13.600,-4.700,-4.500
0.535,2.900,-13.200,-4.700,-4.700
0.536,2.900,-13.200,-4.700,-4.900
0.537,2.300,-14.000,-4.700,-5.100
0.538,1.200,-15.500,-4.700,-5.300
0.539,0.200,-16.900,-4.700,-5.600
0.540,-0.400,-17.500,-4.700,-5.900
0.541,-0.400,-17.500,-4.600,-6.000
0.542,-0.100,-17.200,-4.600,-6.200
0.543,0.100,-17.000,-4.600,-6.300
0.544,0.200,-16.700,-4.500,-6.400
0.545,0.500,-16.300,-4.500,-6.400
0.546,0.900,-15.400,-4.400,-6.400
0.547,1.600,-14.200,-4.400,-6.500
0.548,2.200,-13.000,-4.400,-6.400
0.549,2.700,-12.000,-4.300,-6.400
0.550,3.100,-11.100,-4.200,-6.300
0.551,3.500,-10.200,-4.200,-6.300
0.552,3.900,-9.200,-4.100,-6.100
0.553,4.200,-8.300,-4.000,-6.000
0.554,4.400,-7.600,-4.000,-5.900
0.555,4.400,-7.200,-3.900,-5.800
0.556,4.300,-7.200,-3.800,-5.700
0.557,4.300,-7.400,-3.700,-5.700
0.558,4.100,-7.900,-3.600,-5.700
0.559,3.900,-8.500,-3.500,-5.700
0.560,3.600,-9.300,-3.400,-5.700
0.561,3.300,-10.200,-3.300,-5.700
0.562,3.000,-11.300,-3.200,-5.700
0.563,2.600,-12.400,-3.200,-5.700
0.564,2.100,-13.700,-3.000,-5.800
0.565,1.600,-14.900,-2.900,-5.900
0.566,1.100,-16.000,-2.800,-6.000
0.567,0.500,-17.000,-2.600,-6.100
0.568,0.000,-17.700,-2.500,-6.200
0.569,-0.500,-18.300,-2.300,-6.200
0.570,-1.100,-18.700,-2.200,-6.200
0.571,-1.700,-19.000,-2.000,-6.200
0.572,-2.200,-18.800,-1.800,-6.300
0.573,-2.600,-18.100,-1.700,-6.300
0.574,-2.800,-17.100,-1.600,-6.200
0.575,-2.900,-16.000,-1.400,-6.100
0.576,-2.900,-15.100,-1.200,-6.000
0.577,-2.900,-14.400,-1.100,-5.900
0.578,-2.900,-13.700,-1.000,-5.800
0.579,-2.800,-13.100,-0.900,-5.800
0.580,-2.600,-12.500,-0.900,-5.800
0.581,-2.500,-12.000,-0.800,-5.700
0.582,-2.400,-11.900,-0.800,-5.700
0.583,-2.400,-11.900,-0.700,-5.700
0.584,-2.500,-12.000,-0.600,-5.800
0.585,-2.800,-12.000,-0.500,-5.900
0.586,-3.100,-12.100,-0.400,-6.000
0.587,-3.400,-12.200,-0.300,-6.100
0.588,-3.900,-12.500,-0.200,-6.100
0.589,-4.400,-12.900,0.000,-6.100
0.590,-5.000,-13.300,0.200,-6.000
0.591,-5.700,-13.800,0.300,-6.000
0.592,-6.200,-14.200,0.400,-5.800
0.593,-6.600,-14.700,0.500,-5.700
0.594,-7.000,-15.100,0.700,-5.500
0.595,-7.200,-15.500,0.800,-5.300
0.596,-7.400,-15.800,1.000,-5.100
0.597,-7.600,-16.000,1.200,-4.900
0.598,-7.600,-16.200,1.300,-4.800
0.599,-7.600,-16.300,1.500,-4.700
0.600,-7.500,-16.400,1.600,-4.500
0.601,-7.400,-16.500,1.600,-4.400
0.602,-7.300,-16.500,1.600,-4.200
0.603,-7.200,-16.500,1.700,-4.100
0.604,-7.200,-16.400,1.700,-4.100
0.605,-7.100,-16.300,1.800,-4.100
0.606,-7.000,-16.100,1.800,-4.200
0.607,-7.000,-15.800,1.800,-4.300
0.608,-7.000,-15.400,1.800,-4.300
0.609,-6.900,-14.800,1.800,-4.300
0.610,-6.800,-13.800,1.800,-4.400
0.611,-6.700,-12.700,1.800,-4.400
0.612,-6.600,-11.600,1.800,-4.400
0.613,-6.500,-10.500,1.800,-4.400
0.614,-6.500,-9.500,1.800,-4.200
0.615,-6.500,-8.400,1.700,-4.000
0.616,-6.500,-7.300,1.700,-3.800
0.617,-6.700,-6.300,1.600,-3.600
0.618,-6.900,-5.300,1.600,-3.400
0.619,-7.100,-4.700,1.600,-3.200
0.620,-7.400,-4.300,1.500,-3.000
0.621,-7.600,-4.400,1.500,-2.900
0.622,-7.900,-4.800,1.600,-2.800
0.623,-8.100,-5.500,1.600,-2.700
0.624,-8.300,-6.500,1.600,-2.700
0.625,-8.300,-7.600,1.600,-2.600
0.626,-8.200,-9.200,1.600,-2.500
0.627,-8.100,-11.300,1.600,-2.500
0.628,-7.800,-13.700,1.600,-2.400
0.629,-7.500,-15.700,1.600,-2.400
0.630,-6.900,-16.700,1.600,-2.500
0.631,-6.100,-16.600,1.600,-2.500
0.632,-5.200,-16.300,1.500,-2.500
0.633,-4.700,-16.700,1.500,-2.400
0.634,-4.700,-17.800,1.400,-2.400
0.635,-4.900,-18.800,1.300,-2.400
0.636,-4.900,-18.200,1.200,-2.300
0.637,-4.400,-15.400,1.100,-2.200
0.638,-3.600,-11.000,1.000,-2.000
0.639,-2.900,-6.600,1.000,-1.900
0.640,-2.700,-3.600,0.900,-1.700
0.641,-3.000,-2.000,0.900,-1.600
0.642,-3.600,-1.000,0.900,-1.500
0.643,-4.100,0.100,0.800,-1.400
0.644,-4.300,1.500,0.800,-1.300
0.645,-4.500,2.400,0.800,-1.200
0.646,-4.600,2.400,0.800,-1.100
0.647,-4.800,1.700,0.800,-1.000
0.648,-4.800,0.700,0.800,-0.900
0.649,-4.600,-0.200,0.800,-0.900
0.650,-4.300,-0.800,0.800,-0.800
0.651,-4.000,-1.400,0.800,-0.800
0.652,-3.600,-2.200,0.700,-0.800
0.653,-3.300,-3.100,0.700,-0.800
0.654,-2.900,-3.600,0.700,-0.800
0.655,-2.600,-3.800,0.600,-0.700
0.656,-2.300,-3.500,0.600,-0.700
0.657,-2.000,-2.900,0.600,-0.700
0.658,-1.800,-2.300,0.500,-0.600
0.659,-1.500,-1.600,0.500,-0.600
0.660,-1.300,-0.800,0.400,-0.500
0.661,-1.100,0.200,0.400,-0.300
0.662,-0.900,1.400,0.300,-0.200
0.663,-0.800,2.600,0.200,-0.200
0.664,-0.500,3.400,0.200,-0.300
0.665,-0.300,4.000,0.200,-0.500
0.666,0.000,4.100,0.200,-0.800
0.667,0.300,4.000,0.300,-1.000
0.668,0.400,3.800,0.300,-1.200
0.669,0.500,3.500,0.400,-1.300
0.670,0.600,3.000,0.400,-1.500
0.671,0.600,2.400,0.400,-1.500
0.672,0.400,1.500,0.400,-1.600
0.673,0.100,0.400,0.400,-1.500
0.674,-0.300,-0.600,0.400,-1.500
0.675,-0.700,-1.600,0.500,-1.400
0.676,-1.100,-2.400,0.500,-1.200
0.677,-1.600,-3.300,0.500,-1.100
0.678,-2.100,-4.000,0.500,-0.900
0.679,-2.700,-4.700,0.500,-0.800
0.680,-3.200,-5.200,0.500,-0.500
0.681,-3.600,-5.600,0.500,-0.300
0.682,-3.900,-5.700,0.400,-0.200
0.683,-4.000,-5.700,0.300,-0.100
0.684,-4.000,-5.400,0.200,0.000
0.685,-4.000,-5.100,0.100,0.100
0.686,-4.000,-4.800,0.100,0.100
0.687,-3.900,-4.400,0.100,0.100
0.688,-3.800,-3.900,0.100,0.000
0.689,-3.600,-3.400,0.100,-0.200
0.690,-3.300,-2.700,0.100,-0.400
0.691,-3.000,-2.100,0.100,-0.600
0.692,-2.600,-1.500,0.100,-0.800
0.693,-2.200,-1.000,0.100,-0.900
0.694,-1.800,-0.700,0.100,-1.000
0.695,-1.400,-0.500,0.100,-1.100
0.696,-1.100,-0.400,0.100,-1.300
0.697,-0.700,-0.300,0.100,-1.400
0.698,-0.200,-0.200,0.100,-1.400
0.699,0.200,-0.200,0.200,-1.400
0.700,0.500,-0.400,0.200,-1.400
0.701,0.700,-0.900,0.300,-1.300
0.702,0.800,-1.500,0.300,-1.200
0.703,0.700,-2.100,0.300,-1.000
0.704,0.500,-2.600,0.300,-0.800
0.705,0.300,-2.800,0.300,-0.400
0.706,-0.200,-3.000,0.300,-0.200
0.707,-0.700,-3.200,0.200,0.000
0.708,-1.200,-3.400,0.200,0.100
0.709,-1.700,-3.500,0.100,0.000
0.710,-2.000,-3.500,0.100,-0.200
0.711,-2.300,-3.400,0.000,-0.300
0.712,-2.400,-3.400,-0.100,-0.300
0.713,-2.400,-3.400,-0.100,-0.400
0.714,-2.400,-3.400,-0.200,-0.400
0.715,-2.400,-3.400,-0.300,-0.400
0.716,-2.300,-3.200,-0.300,-0.500
0.717,-2.200,-2.700,-0.300,-0.500
0.718,-2.100,-2.200,-0.200,-0.500
0.719,-2.000,-1.600,-0.200,-0.500
0.720,-1.800,-1.100,-0.200,-0.500
0.721,-1.700,-0.700,-0.200,-0.400
0.722,-1.500,-0.400,-0.200,-0.400
0.723,-1.300,0.000,-0.200,-0.300
0.724,-1.100,0.300,-0.100,-0.300
0.725,-0.800,0.500,-0.100,-0.300
0.726,-0.500,0.800,-0.100,-0.400
0.727,-0.100,1.100,-0.100,-0.400
0.728,0.300,1.600,0.000,-0.500
0.729,0.800,2.300,0.000,-0.600
0.730,1.200,2.800,0.000,-0.700
0.731,1.500,3.200,0.100,-0.700
0.732,1.800,3.400,0.200,-0.800
0.733,2.000,3.600,0.200,-0.700
0.734,2.200,3.900,0.300,-0.700
0.735,2.200,4.200,0.300,-0.600
0.736,2.100,3.900,0.300,-0.500
0.737,1.800,3.100,0.300,-0.300
0.738,1.400,1.700,0.300,-0.200
0.739,0.900,0.300,0.300,-0.100
0.740,0.400,-0.800,0.200,0.000
0.741,-0.100,-1.700,0.200,0.100
0.742,-0.500,-2.400,0.100,0.200
0.743,-1.000,-3.100,0.100,0.300
0.744,-1.400,-4.000,0.100,0.300
0.745,-1.800,-4.700,0.200,0.300
0.746,-2.000,-5.300,0.200,0.300
0.747,-2.200,-5.500,0.200,0.200
0.748,-2.300,-5.600,0.200,0.200
0.749,-2.400,-5.700,0.200,0.300
0.750,-2.500,-5.700,0.200,0.300
0.751,-2.600,-5.600,0.300,0.200
0.752,-2.500,-5.200,0.400,0.100
0.753,-2.400,-4.700,0.500,-0.100
0.754,-2.300,-3.900,0.500,-0.100
0.755,-2.100,-3.100,0.500,0.000
0.756,-1.900,-2.300,0.500,0.000
0.757,-1.700,-1.500,0.500,-0.100
0.758,-1.500,-0.800,0.500,-0.200
0.759,-1.300,-0.200,0.500,-0.200
0.760,-1.100,0.300,0.500,0.100
0.761,-0.900,0.500,0.500,0.500
0.762,-0.800,0.500,0.500,0.800
0.763,-0.700,0.100,0.600,1.000
0.764,-0.600,-0.500,0.600,0.900
0.765,-0.500,-1.300,0.600,0.700
0.766,-0.500,-2.200,0.700,0.500
0.767,-0.500,-3.000,0.700,0.400
0.768,-0.600,-3.700,0.800,0.200
0.769,-0.800,-4.200,0.900,-0.100
0.770,-1.000,-4.500,1.000,-0.500
0.771,-1.400,-4.800,1.200,-0.900
0.772,-1.800,-5.000,1.300,-1.200
0.773,-2.300,-5.300,1.500,-1.500
0.774,-2.900,-5.700,1.600,-1.900
0.775,-3.600,-6.000,1.800,-2.200
0.776,-4.300,-6.300,2.000,-2.400
0.777,-5.000,-6.500,2.100,-2.400
0.778,-5.600,-6.500,2.300,-2.400
0.779,-6.000,-6.400,2.300,-2.300
0.780,-6.100,-6.200,2.300,-2.300
0.781,-5.800,-6.000,2.200,-2.300
0.782,-5.200,-5.800,2.100,-2.400
0.783,-4.200,-5.700,1.800,-2.800
0.784,-2.800,-5.400,1.600,-3.200
0.785,-1.200,-5.200,1.400,-3.900
0.786,0.600,-5.000,1.100,-4.700
0.787,2.400,-4.700,0.900,-5.500
0.788,4.200,-4.400,0.800,-6.200
0.789,5.700,-4.000,0.900,-6.800
0.790,6.800,-3.400,1.100,-7.400
0.791,7.500,-2.700,1.400,-7.900
0.792,7.900,-2.000,1.700,-8.100
0.793,8.000,-1.400,1.800,-7.800
0.794,7.900,-0.900,1.800,-7.000
0.795,7.600,-0.700,1.600,-5.900
0.796,6.800,-0.400,1.600,-4.700
0.797,5.500,-0.300,1.700,-3.500
0.798,3.700,-0.200,2.000,-2.500
0.799,1.600,-0.200,2.400,-1.600
0.800,-0.600,-0.500,3.000,-0.700
0.801,-2.700,-0.900,3.500,0.100
0.802,-4.500,-1.500,3.900,0.700
0.803,-5.900,-2.100,4.200,1.000
0.804,-7.000,-2.800,4.300,1.200
0.805,-7.800,-3.600,4.300,1.200
0.806,-8.300,-4.500,4.200,1.100
0.807,-8.700,-5.400,4.200,0.800
0.808,-8.900,-6.300,4.100,0.500
0.809,-9.000,-7.100,4.000,0.100
0.810,-9.100,-7.700,4.000,-0.300
0.811,-9.100,-8.000,4.000,-0.700
0.812,-9.200,-8.200,4.000,-1.100
0.813,-9.200,-8.300,4.100,-1.500
0.814,-9.300,-8.300,4.200,-1.700
0.815,-9.300,-8.200,4.200,-1.800
0.816,-9.400,-7.800,4.200,-1.900
0.817,-9.600,-7.100,4.100,-2.000
0.818,-9.900,-6.200,4.100,-2.000
0.819,-10.300,-5.300,4.200,-2.000
0.820,-10.800,-4.400,4.200,-2.000
0.821,-11.100,-3.700,4.400,-1.900
0.822,-11.500,-3.100,4.500,-1.700
0.823,-11.800,-2.500,4.600,-1.700
0.824,-12.100,-2.000,4.700,-1.600
0.825,-12.600,-1.800,4.800,-1.700
0.826,-13.000,-2.000,4.800,-1.800
0.827,-13.500,-2.400,4.900,-1.900
0.828,-13.800,-3.100,5.000,-2.000
0.829,-14.200,-4.000,5.100,-2.000
0.830,-14.800,-5.100,5.200,-2.100
0.831,-15.400,-6.300,5.300,-2.200
0.832,-16.100,-7.400,5.400,-2.500
0.833,-16.600,-8.200,5.500,-2.700
0.834,-16.700,-8.400,5.500,-2.900
0.835,-16.800,-8.300,5.600,-3.100
0.836,-17.000,-8.000,5.700,-3.200
0.837,-17.600,-8.000,5.800,-3.300
0.838,-18.300,-8.000,5.800,-3.300
0.839,-18.900,-7.900,5.900,-3.300
0.840,-19.100,-7.300,5.900,-3.300
0.841,-18.900,-6.200,5.900,-3.300
0.842,-18.500,-4.800,6.000,-3.300
0.843,-18.100,-3.500,6.000,-3.300
0.844,-17.600,-2.400,6.100,-3.200
0.845,-17.100,-1.800,6.200,-3.000
0.846,-16.500,-1.700,6.200,-2.900
0.847,-15.800,-2.000,6.300,-2.800
0.848,-15.300,-2.600,6.400,-2.800
0.849,-15.000,-3.400,6.400,-2.900
0.850,-14.800,-4.400,6.500,-3.100
0.851,-14.700,-5.500,6.500,-3.400
0.852,-14.700,-6.800,6.600,-3.700
0.853,-14.900,-8.400,6.600,-4.000
0.854,-15.400,-10.000,6.700,-4.400
0.855,-16.100,-11.300,6.700,-4.800
0.856,-17.000,-12.000,6.700,-5.000
0.857,-17.800,-12.200,6.700,-5.200
0.858,-18.500,-12.100,6.700,-5.200
0.859,-19.200,-11.900,6.700,-5.200
0.860,-19.900,-11.600,6.600,-5.200
0.861,-20.600,-11.200,6.600,-5.100
0.862,-21.000,-10.600,6.500,-5.000
0.863,-21.300,-9.900,6.400,-4.900
0.864,-21.300,-9.600,6.300,-4.700
0.865,-21.100,-9.700,6.200,-4.500
0.866,-20.700,-10.200,6.100,-4.300
0.867,-20.300,-10.700,5.900,-4.200
0.868,-19.800,-11.300,5.800,-4.100
0.869,-19.200,-12.100,5.600,-4.100
0.870,-18.600,-13.100,5.500,-4.000
0.871,-17.900,-14.300,5.300,-4.000
0.872,-17.300,-15.100,5.200,-4.000
0.873,-16.800,-15.300,5.000,-4.000
0.874,-16.400,-14.700,4.900,-4.100
0.875,-16.100,-13.800,4.700,-4.100
0.876,-15.700,-12.700,4.600,-4.100
0.877,-15.300,-11.600,4.500,-4.100
0.878,-15.000,-10.400,4.300,-4.200
0.879,-14.800,-9.100,4.200,-4.300
0.880,-14.500,-7.700,4.000,-4.400
0.881,-14.100,-6.500,3.900,-4.500
0.882,-13.600,-5.900,3.700,-4.600
0.883,-13.000,-5.700,3.500,-4.700
0.884,-12.300,-5.700,3.300,-5.000
0.885,-11.600,-5.800,3.200,-5.400
0.886,-10.900,-6.000,3.000,-5.900
0.887,-10.300,-6.300,2.900,-6.300
0.888,-9.600,-6.700,2.800,-6.700
0.889,-9.100,-7.100,2.700,-7.000
0.890,-8.800,-7.300,2.600,-7.200
0.891,-8.500,-7.600,2.500,-7.300
0.892,-8.400,-8.000,2.400,-7.500
0.893,-8.300,-8.600,2.300,-7.500
0.894,-8.100,-9.200,2.200,-7.400
0.895,-8.100,-9.700,2.100,-7.200
0.896,-8.000,-10.200,2.100,-6.900
0.897,-8.000,-10.700,2.100,-6.600
0.898,-8.100,-11.400,2.100,-6.300
0.899,-8.100,-11.900,2.100,-6.000
0.900,-8.200,-12.000,2.000,-5.800
0.901,-8.200,-11.500,1.800,-5.600
0.902,-8.000,-10.500,1.700,-5.500
0.903,-7.800,-9.300,1.600,-5.400
0.904,-7.400,-8.200,1.500,-5.200
0.905,-6.800,-7.100,1.400,-5.100
0.906,-6.200,-5.900,1.300,-4.800
0.907,-5.400,-4.600,1.100,-4.600
0.908,-4.400,-3.400,1.000,-4.300
0.909,-3.200,-2.400,0.800,-4.000
0.910,-1.900,-1.700,0.700,-3.800
0.911,-0.700,-1.500,0.500,-3.400
0.912,0.300,-1.400,0.400,-2.900
0.913,1.100,-1.500,0.200,-2.400
0.914,1.800,-1.500,0.100,-1.800
0.915,2.500,-1.700,-0.100,-1.400
0.916,3.000,-2.200,-0.300,-1.200
0.917,3.400,-2.900,-0.400,-1.100
0.918,3.500,-3.700,-0.500,-1.000
0.919,3.400,-4.400,-0.700,-0.900
0.920,3.300,-4.800,-0.800,-0.800
0.921,3.300,-5.000,-0.800,-0.800
0.922,3.200,-5.100,-0.900,-0.900
0.923,3.000,-5.100,-1.000,-0.900
0.924,2.900,-4.900,-1.100,-0.800
0.925,2.800,-4.400,-1.200,-0.800
0.926,2.700,-3.600,-1.300,-0.700
0.927,2.700,-2.800,-1.300,-0.700
0.928,2.600,-1.800,-1.400,-0.600
0.929,2.500,-0.700,-1.400,-0.600
0.930,2.400,0.900,-1.500,-0.600
0.931,2.500,2.900,-1.600,-0.700
0.932,2.700,4.800,-1.600,-1.000
0.933,2.700,5.900,-1.600,-1.500
0.934,2.600,5.800,-1.600,-2.000
0.935,2.400,5.200,-1.700,-2.400
0.936,2.500,4.900,-1.700,-2.800
0.937,3.000,5.800,-1.800,-3.100
0.938,3.700,7.200,-1.900,-3.500
0.939,4.300,8.400,-2.000,-3.800
0.940,4.800,8.500,-2.000,-3.800
0.941,5.000,7.300,-2.000,-3.700
0.942,5.100,5.700,-1.900,-3.300
0.943,5.300,4.100,-1.900,-2.900
0.944,5.500,2.900,-1.800,-2.600
0.945,5.700,1.900,-1.800,-2.300
0.946,5.600,0.900,-1.800,-2.000
0.947,5.400,-0.200,-1.800,-1.700
0.948,5.100,-0.900,-1.700,-1.400
0.949,5.000,-1.100,-1.700,-1.100
0.950,4.800,-1.100,-1.700,-0.800
0.951,4.700,-0.900,-1.800,-0.700
0.952,4.500,-0.700,-1.900,-0.500
0.953,4.300,-0.300,-2.000,-0.400
0.954,4.200,0.300,-2.000,-0.400
0.955,4.100,1.000,-1.900,-0.300
0.956,4.100,1.600,-1.900,-0.300
0.957,4.000,1.900,-2.000,-0.300
0.958,3.900,2.000,-2.000,-0.200
0.959,3.800,2.100,-2.000,-0.100
0.960,3.600,2.100,-2.000,0.100
0.961,3.300,2.100,-1.900,0.300
0.962,3.000,1.900,-1.800,0.600
0.963,2.600,1.600,-1.800,0.800
0.964,2.200,1.200,-1.900,1.000
0.965,2.000,0.900,-1.900,1.100
0.966,2.000,0.800,-2.000,1.100
0.967,2.100,0.600,-2.000,1.100
0.968,2.300,0.400,-1.900,1.000
0.969,2.600,0.000,-1.900,0.900
0.970,2.900,-0.400,-1.800,0.600
0.971,3.400,-0.800,-1.800,0.400
0.972,4.000,-1.200,-1.700,0.100
0.973,4.700,-1.400,-1.700,0.000
0.974,5.300,-1.500,-1.700,-0.200
0.975,5.800,-1.400,-1.600,-0.400
0.976,6.200,-1.200,-1.600,-0.700
0.977,6.500,-0.900,-1.600,-0.900
0.978,6.600,-0.500,-1.500,-1.000
0.979,6.700,0.100,-1.500,-0.800
0.980,6.700,0.800,-1.400,-0.400
0.981,6.600,1.700,-1.400,0.100
0.982,6.400,2.700,-1.400,0.800
0.983,6.200,3.600,-1.400,1.500
0.984,5.900,4.400,-1.400,2.300
0.985,5.800,5.200,-1.300,3.400
0.986,5.600,5.900,-1.300,4.500
0.987,5.400,6.500,-1.200,5.600
0.988,5.200,6.900,-1.200,6.400
0.989,4.900,7.000,-1.100,7.000
0.990,4.600,6.700,-0.900,7.300
0.991,4.300,6.100,-0.700,7.600
0.992,4.000,5.300,-0.500,7.800
0.993,3.600,4.400,-0.300,7.900
0.994,3.300,3.600,0.100,7.900
0.995,3.100,2.900,0.500,7.600
0.996,2.900,2.400,1.000,7.200
0.997,2.700,2.200,1.600,6.800
0.998,2.600,2.200,2.200,6.600
0.999,2.600,2.600,2.800,6.500
1.000,2.600,3.300,3.400,6.500
1.001,2.700,4.200,4.000,6.600
1.002,2.900,5.100,4.500,6.600
1.003,3.100,5.900,5.000,6.800
1.004,3.400,6.500,5.400,7.100
1.005,3.700,6.900,5.800,7.600
1.006,4.000,7.200,6.200,8.200
1.007,4.400,7.400,6.500,8.700
1.008,4.800,7.500,6.900,9.000
1.009,5.200,7.500,7.200,9.300
1.010,5.700,7.500,7.400,9.500
1.011,6.100,7.600,7.700,9.700
1.012,6.500,7.800,7.900,9.800
1.013,6.800,8.100,8.200,9.800
1.014,7.100,8.400,8.400,9.600
1.015,7.300,8.800,8.500,9.200
1.016,7.500,9.200,8.600,8.800
1.017,7.700,9.600,8.700,8.400
1.018,7.800,10.100,8.700,8.000
1.019,7.700,10.300,8.600,7.700
1.020,7.600,10.300,8.500,7.300
1.021,7.400,9.900,8.400,6.900
1.022,7.200,9.300,8.100,6.700
1.023,6.900,8.500,7.800,6.700
1.024,6.500,7.700,7.500,7.000
1.025,6.000,6.700,7.100,7.300
1.026,5.400,5.400,6.700,7.600
1.027,4.800,3.900,6.200,7.800
1.028,4.300,2.300,5.600,7.900
1.029,3.900,1.100,4.900,8.000
1.030,3.600,0.500,4.300,8.100
1.031,3.500,0.500,3.600,8.000
1.032,3.400,0.400,2.800,7.500
1.033,3.400,-0.100,2.000,6.700
1.034,3.300,-1.200,1.100,5.600
1.035,3.400,-2.600,0.200,4.500
1.036,3.800,-3.300,-0.800,3.300
1.037,4.400,-3.300,-1.800,2.100
1.038,5.200,-2.700,-2.900,0.900
1.039,6.200,-2.400,-4.000,-0.500
1.040,7.200,-3.100,-5.200,-2.000
1.041,8.200,-4.800,-6.500,-3.400
1.042,9.200,-7.100,-7.900,-4.900
1.043,10.400,-9.600,-9.400,-6.400
1.044,11.600,-12.000,-10.900,-8.200
1.045,12.800,-14.600,-12.600,-10.000
1.046,13.900,-17.800,-14.400,-12.000
1.047,14.800,-21.700,-16.200,-14.200
1.048,15.800,-26.200,-18.200,-16.500
1.049,16.700,-31.000,-20.200,-19.000
1.050,17.600,-36.200,-22.300,-21.700
1.051,18.400,-41.600,-24.400,-24.700
1.052,19.100,-47.600,-26.500,-27.800
1.053,19.500,-54.000,-28.700,-31.300
1.054,19.800,-60.700,-30.800,-34.900
1.055,19.700,-67.400,-32.800,-38.600
1.056,19.300,-74.000,-34.600,-42.200
1.057,18.400,-80.300,-36.000,-45.600
1.058,16.800,-86.300,-37.200,-48.900
1.059,14.500,-92.100,-38.000,-52.100
1.060,11.600,-97.600,-38.300,-55.300
1.061,7.900,-102.700,-38.300,-58.300
1.062,4.000,-107.200,-38.000,-61.000
1.063,-0.100,-111.000,-37.500,-63.100
1.064,-3.700,-114.100,-36.800,-64.600
1.065,-6.700,-116.400,-36.300,-65.400
1.066,-8.800,-117.900,-35.800,-65.700
1.067,-10.000,-118.300,-35.500,-65.600
1.068,-10.500,-117.500,-35.300,-65.000
1.069,-10.500,-115.600,-34.900,-64.000
1.070,-10.300,-112.600,-34.300,-62.500
1.071,-10.400,-108.700,-33.200,-60.500
1.072,-11.000,-104.100,-31.700,-58.000
1.073,-12.200,-98.800,-29.600,-55.100
1.074,-14.000,-92.700,-27.100,-51.800
1.075,-16.300,-86.000,-24.200,-48.100
1.076,-18.800,-78.800,-20.900,-44.200
1.077,-21.300,-71.200,-17.400,-39.900
1.078,-23.900,-63.400,-13.700,-35.500
1.079,-26.600,-55.400,-9.900,-30.900
1.080,-29.300,-47.400,-6.100,-26.300
1.081,-31.900,-39.300,-2.200,-21.800
1.082,-34.300,-31.400,1.600,-17.400
1.083,-36.400,-23.800,5.300,-13.200
1.084,-38.500,-16.500,9.000,-9.200
1.085,-40.500,-9.600,12.500,-5.400
1.086,-42.400,-3.100,15.800,-1.900
1.087,-44.100,2.700,18.800,1.100
1.088,-45.500,7.900,21.500,3.600
1.089,-46.500,12.300,23.800,5.800
1.090,-46.900,16.100,25.500,7.500
1.091,-46.600,19.400,26.700,9.000
1.092,-45.800,22.400,27.300,10.100
1.093,-44.200,25.200,27.300,11.000
1.094,-41.700,27.500,26.700,11.600
1.095,-38.300,29.400,25.400,12.100
1.096,-34.000,31.000,23.600,12.500
1.097,-29.000,32.400,21.300,12.800
1.098,-23.500,33.600,18.600,13.000
1.099,-17.800,34.500,15.700,13.100
1.100,-11.900,34.800,12.700,13.100
1.101,-6.100,34.400,9.700,13.000
1.102,-0.400,33.300,6.700,12.900
1.103,4.800,31.800,4.000,12.600
1.104,9.600,30.200,1.500,12.200
1.105,13.700,28.500,-0.800,11.600
1.106,17.300,26.500,-2.700,10.900
1.107,20.300,24.200,-4.300,10.100
1.108,22.700,22.000,-5.500,9.400
1.109,24.600,20.000,-6.500,8.700
1.110,25.900,18.500,-7.300,8.000
1.111,26.700,17.400,-7.900,7.300
1.112,27.100,16.500,-8.300,6.700
1.113,27.200,15.700,-8.600,6.100
1.114,27.000,15.000,-8.800,5.700
1.115,26.500,14.400,-9.000,5.400
1.116,25.800,14.000,-9.000,5.200
1.117,25.200,13.600,-8.900,5.100
1.118,24.500,13.200,-8.800,4.900
1.119,23.900,12.700,-8.600,4.700
1.120,23.400,11.900,-8.400,4.500
1.121,23.100,11.000,-8.100,4.300
1.122,22.700,10.000,-7.800,4.200
1.123,22.400,8.900,-7.500,4.000
1.124,22.000,7.700,-7.200,3.800
1.125,21.400,6.400,-6.800,3.400
1.126,20.700,5.200,-6.400,3.100
1.127,19.900,3.800,-6.100,2.700
1.128,19.200,2.300,-5.700,2.400
1.129,18.200,1.000,-5.300,2.000
1.130,16.800,0.100,-4.900,1.600
1.131,15.000,-0.400,-4.500,1.100
1.132,13.100,-0.800,-4.100,0.600
1.133,11.800,-1.200,-3.700,0.100
1.134,11.300,-1.900,-3.300,-0.400
1.135,11.200,-2.500,-3.000,-0.800
1.136,10.500,-2.500,-2.700,-1.200
1.137,8.800,-1.900,-2.300,-1.500
1.138,6.500,-0.700,-2.000,-1.700
1.139,4.300,0.300,-1.800,-2.000
1.140,3.000,0.900,-1.500,-2.100
1.141,2.500,0.800,-1.300,-2.100
1.142,2.400,0.400,-1.100,-2.100
1.143,2.200,0.000,-0.900,-2.000
1.144,1.900,-0.300,-0.700,-1.900
1.145,1.700,-0.400,-0.600,-1.700
1.146,1.900,-0.500,-0.400,-1.500
1.147,2.400,-0.400,-0.300,-1.300
1.148,3.200,0.000,-0.200,-0.900
1.149,3.800,0.800,-0.200,-0.400
1.150,4.300,1.600,-0.100,0.100
1.151,4.900,2.400,0.000,0.500
1.152,5.600,3.300,0.100,0.900
1.153,6.300,4.100,0.100,1.200
1.154,6.800,4.800,0.200,1.400
1.155,7.100,5.300,0.200,1.600
1.156,7.000,5.300,0.100,1.700
1.157,6.800,4.800,0.000,1.700
1.158,6.500,4.100,-0.100,1.700
1.159,6.000,3.200,-0.200,1.500
1.160,5.500,2.300,-0.300,1.400
1.161,4.800,1.100,-0.300,1.100
1.162,4.100,-0.200,-0.400,1.000
1.163,3.400,-1.600,-0.400,0.900
1.164,2.700,-2.600,-0.500,0.800
1.165,2.000,-2.900,-0.500,0.600
1.166,1.500,-2.800,-0.500,0.500
1.167,1.200,-2.600,-0.500,0.500
1.168,0.800,-2.300,-0.500,0.500
1.169,0.500,-2.200,-0.600,0.600
1.170,0.200,-2.000,-0.600,0.700
1.171,0.000,-1.700,-0.600,0.800
1.172,-0.100,-1.300,-0.600,0.800
1.173,0.100,-1.000,-0.600,0.800
1.174,0.300,-0.900,-0.700,0.800
1.175,0.500,-1.000,-0.700,0.900
1.176,0.700,-1.100,-0.700,0.900
1.177,0.900,-1.200,-0.700,0.800
1.178,1.100,-1.200,-0.800,0.500
1.179,1.300,-1.400,-0.800,0.300
1.180,1.500,-1.700,-0.800,-0.100
1.181,1.400,-2.100,-0.800,-0.500
1.182,1.300,-2.500,-0.900,-0.900
1.183,1.100,-2.700,-0.900,-1.400
1.184,1.000,-2.800,-1.000,-1.900
1.185,1.000,-2.700,-1.000,-2.300
1.186,1.100,-2.600,-1.000,-2.800
1.187,1.200,-2.400,-1.000,-3.200
1.188,1.400,-2.200,-1.100,-3.500
1.189,1.700,-1.800,-1.100,-3.700
1.190,2.000,-1.400,-1.100,-3.900
1.191,2.400,-1.100,-1.200,-4.000
1.192,2.800,-0.900,-1.200,-4.100
1.193,3.000,-0.900,-1.300,-4.300
1.194,3.200,-1.000,-1.300,-4.500
1.195,3.300,-1.100,-1.300,-4.500
1.196,3.300,-1.100,-1.300,-4.300
1.197,3.400,-1.100,-1.300,-4.000
1.198,3.300,-1.100,-1.300,-3.500
1.199,3.200,-0.900,-1.300,-3.100
1.200,2.900,-0.400,-1.200,-2.600
1.201,2.700,0.500,-1.200,-2.200
1.202,2.300,1.500,-1.200,-1.700
1.203,2.100,2.300,-1.100,-1.200
1.204,1.900,2.900,-1.100,-0.600
1.205,1.700,3.200,-1.000,0.000
1.206,1.500,3.500,-0.900,0.600
1.207,1.400,3.600,-0.800,1.100
1.208,1.300,3.400,-0.700,1.400
1.209,1.200,2.600,-0.700,1.600
1.210,1.200,1.100,-0.700,1.800
1.211,1.300,-0.800,-0.700,2.000
1.212,1.500,-2.800,-0.700,2.100
1.213,1.700,-4.800,-0.700,2.100
1.214,1.900,-6.800,-0.700,2.000
1.215,2.100,-8.800,-0.800,1.900
1.216,2.400,-10.800,-0.800,1.700
1.217,2.600,-12.500,-0.800,1.500
1.218,2.800,-13.700,-0.900,1.300
1.219,2.900,-14.200,-0.900,1.100
1.220,2.900,-13.900,-1.000,0.900
1.221,2.800,-13.200,-1.000,0.700
1.222,2.600,-12.200,-1.100,0.400
1.223,2.300,-11.000,-1.100,0.200
1.224,2.000,-9.600,-1.100,0.000
1.225,1.700,-8.000,-1.100,-0.300
1.226,1.400,-6.300,-1.100,-0.500
1.227,1.100,-4.700,-1.100,-0.800
1.228,0.700,-3.600,-1.100,-1.000
1.229,0.500,-2.900,-1.000,-1.200
1.230,0.700,-2.600,-1.000,-1.500
1.231,1.300,-2.300,-1.000,-1.700
1.232,2.000,-2.100,-1.000,-2.100
1.233,2.300,-1.900,-1.000,-2.600
1.234,2.000,-2.000,-1.000,-3.000
1.235,1.500,-2.100,-1.000,-3.400
1.236,1.400,-2.200,-1.100,-3.700
1.237,2.200,-2.000,-1.100,-4.000
1.238,3.400,-1.600,-1.100,-4.300
1.239,4.500,-1.100,-1.200,-4.500
1.240,4.900,-0.900,-1.300,-4.800
1.241,4.700,-0.700,-1.300,-4.900
1.242,4.100,-0.600,-1.400,-5.000
1.243,3.700,-0.400,-1.400,-4.900
1.244,3.400,-0.300,-1.500,-4.800
1.245,3.000,-0.600,-1.600,-4.500
1.246,2.300,-1.300,-1.700,-4.100
1.247,1.600,-2.300,-1.800,-3.700
1.248,1.000,-3.300,-1.800,-3.200
1.249,0.600,-4.300,-1.900,-2.500
1.250,0.500,-5.300,-1.900,-1.700
1.251,0.400,-6.300,-2.000,-1.000
1.252,0.300,-7.300,-2.000,-0.400
1.253,0.300,-8.200,-2.100,0.100
1.254,0.400,-8.800,-2.100,0.400
1.255,0.800,-9.100,-2.100,0.600
1.256,1.100,-9.300,-2.200,0.800
1.257,1.400,-9.500,-2.300,0.900
1.258,1.600,-9.600,-2.300,0.900
1.259,1.800,-9.700,-2.400,0.600
1.260,2.000,-9.700,-2.400,0.100
1.261,2.300,-9.600,-2.400,-0.600
1.262,2.500,-9.600,-2.400,-1.300
1.263,2.700,-9.600,-2.500,-1.900
1.264,2.700,-9.500,-2.500,-2.400
1.265,2.700,-9.400,-2.600,-2.800
1.266,2.600,-9.200,-2.600,-3.200
1.267,2.500,-9.100,-2.600,-3.500
1.268,2.300,-9.000,-2.600,-3.600
1.269,2.100,-9.000,-2.700,-3.600
1.270,1.800,-9.000,-2.700,-3.600
1.271,1.500,-9.300,-2.700,-3.600
1.272,1.300,-9.900,-2.700,-3.800
1.273,1.100,-10.700,-2.700,-3.900
1.274,1.100,-11.700,-2.800,-4.000
1.275,1.300,-12.700,-2.700,-4.100
1.276,1.600,-13.400,-2.700,-4.100
1.277,2.000,-14.000,-2.700,-4.100
1.278,2.700,-14.400,-2.700,-4.100
1.279,3.500,-14.700,-2.700,-4.200
1.280,4.700,-14.700,-2.900,-4.200
1.281,6.000,-14.400,-3.000,-4.400
1.282,7.300,-13.800,-3.300,-4.700
1.283,8.600,-13.100,-3.500,-5.000
1.284,9.800,-12.300,-3.800,-5.400
1.285,10.900,-11.700,-4.100,-5.900
1.286,12.000,-11.200,-4.500,-6.400
1.287,13.000,-10.700,-4.800,-7.000
1.288,13.800,-10.200,-4.900,-7.800
1.289,14.300,-9.700,-5.000,-8.600
1.290,14.400,-9.300,-4.900,-9.500
1.291,14.000,-9.000,-4.700,-10.400
1.292,13.500,-8.600,-4.600,-11.100
1.293,13.000,-8.200,-4.500,-11.600
1.294,12.500,-7.700,-4.600,-11.800
1.295,12.100,-7.100,-4.800,-11.700
1.296,11.500,-6.700,-5.100,-11.400
1.297,10.700,-6.400,-5.300,-11.000
1.298,9.500,-6.300,-5.300,-10.600
1.299,8.100,-6.100,-5.100,-10.100
1.300,6.500,-6.000,-4.800,-9.600
1.301,5.100,-6.000,-4.500,-9.100
1.302,3.800,-6.100,-4.100,-8.700
1.303,2.800,-6.400,-3.800,-8.400
1.304,2.100,-6.700,-3.500,-8.000
1.305,1.700,-7.200,-3.400,-7.800
1.306,1.600,-7.600,-3.400,-7.400
1.307,1.800,-8.200,-3.500,-7.100
1.308,2.200,-8.900,-3.700,-6.700
1.309,2.700,-9.800,-3.900,-6.400
1.310,3.200,-10.700,-4.100,-6.100
1.311,3.600,-11.500,-4.300,-5.900
1.312,4.000,-12.000,-4.400,-5.500
1.313,4.200,-12.200,-4.500,-5.100
1.314,4.400,-12.200,-4.600,-4.600
1.315,4.400,-12.100,-4.600,-4.100
1.316,4.300,-11.900,-4.600,-3.600
1.317,4.000,-11.500,-4.600,-3.200
1.318,3.500,-11.100,-4.600,-2.900
1.319,3.000,-10.500,-4.600,-2.600
1.320,2.600,-10.000,-4.700,-2.300
1.321,2.200,-9.800,-4.700,-2.100
1.322,1.800,-9.900,-4.700,-2.200
1.323,1.300,-10.200,-4.800,-2.400
1.324,0.800,-10.500,-4.800,-2.900
1.325,0.500,-10.700,-4.900,-3.400
1.326,0.200,-10.900,-4.900,-3.900
1.327,-0.100,-11.500,-4.900,-4.300
1.328,-0.500,-12.400,-4.900,-4.600
1.329,-0.700,-13.300,-4.900,-4.900
1.330,-0.500,-13.400,-4.800,-5.100
1.331,0.300,-12.800,-4.800,-5.200
1.332,1.100,-12.000,-4.700,-5.100
1.333,1.400,-11.900,-4.600,-4.800
1.334,1.000,-12.900,-4.600,-4.500
1.335,0.400,-14.000,-4.500,-4.200
1.336,0.300,-14.000,-4.500,-3.900
1.337,1.200,-12.200,-4.300,-3.600
1.338,2.900,-9.100,-4.200,-3.400
1.339,4.400,-6.300,-4.200,-3.100
1.340,5.200,-4.800,-4.200,-3.000
1.341,5.000,-4.900,-4.200,-3.100
1.342,4.500,-5.700,-4.300,-3.300
1.343,4.200,-6.300,-4.300,-3.600
1.344,4.100,-6.500,-4.200,-4.000
1.345,4.000,-7.000,-4.200,-4.300
1.346,3.700,-8.000,-4.300,-4.600
1.347,3.200,-9.400,-4.300,-5.000
1.348,2.800,-10.600,-4.200,-5.400
1.349,2.600,-11.500,-4.100,-5.800
1.350,2.600,-12.000,-4.000,-6.200
1.351,2.600,-12.500,-4.000,-6.500
1.352,2.600,-13.100,-4.000,-6.800
1.353,2.500,-13.500,-4.000,-7.100
1.354,2.400,-13.700,-4.000,-7.200
1.355,2.300,-13.600,-3.800,-7.400
1.356,2.200,-13.500,-3.600,-7.500
1.357,2.100,-13.500,-3.500,-7.600
1.358,1.800,-13.800,-3.400,-7.600
1.359,1.600,-14.200,-3.300,-7.600
1.360,1.400,-14.700,-3.100,-7.500
1.361,1.300,-15.300,-3.000,-7.300
1.362,1.100,-16.200,-2.800,-7.200
1.363,1.000,-17.400,-2.700,-7.100
1.364,1.100,-18.600,-2.600,-7.000
1.365,1.200,-19.700,-2.500,-7.100
1.366,1.400,-20.700,-2.400,-7.100
1.367,1.500,-21.500,-2.300,-7.200
1.368,1.600,-22.200,-2.100,-7.300
1.369,1.600,-22.800,-2.000,-7.400
1.370,1.700,-23.200,-1.800,-7.400
1.371,1.700,-23.500,-1.700,-7.400
1.372,1.600,-23.400,-1.600,-7.400
1.373,1.300,-23.100,-1.400,-7.400
1.374,0.800,-22.500,-1.300,-7.300
1.375,0.200,-21.600,-1.000,-7.200
1.376,-0.400,-20.700,-0.900,-7.000
1.377,-1.000,-19.600,-0.800,-6.900
1.378,-1.600,-18.600,-0.600,-6.600
1.379,-2.300,-17.400,-0.500,-6.400
1.380,-3.000,-15.900,-0.400,-6.100
1.381,-3.700,-14.200,-0.300,-5.800
1.382,-4.200,-12.400,-0.200,-5.500
1.383,-4.600,-10.600,-0.100,-5.200
1.384,-4.700,-9.200,0.100,-4.900
1.385,-4.700,-8.000,0.200,-4.700
1.386,-4.600,-7.100,0.300,-4.600
1.387,-4.300,-6.400,0.400,-4.500
1.388,-4.100,-5.900,0.400,-4.400
1.389,-3.700,-5.800,0.500,-4.400
1.390,-3.300,-6.100,0.600,-4.400
1.391,-2.800,-6.700,0.700,-4.500
1.392,-2.400,-7.600,0.800,-4.700
1.393,-2.100,-8.300,0.800,-4.900
1.394,-2.000,-8.900,0.800,-5.200
1.395,-1.900,-9.500,0.900,-5.500
1.396,-1.900,-10.100,1.000,-5.800
1.397,-2.000,-10.800,1.100,-6.000
1.398,-2.100,-11.600,1.200,-6.100
1.399,-2.400,-12.400,1.300,-6.100
1.400,-2.900,-12.900,1.400,-6.100
1.401,-3.500,-13.100,1.400,-6.100
1.402,-4.300,-13.100,1.500,-6.000
1.403,-5.000,-13.100,1.500,-5.700
1.404,-5.700,-13.100,1.500,-5.400
1.405,-6.400,-13.000,1.500,-5.000
1.406,-7.000,-12.700,1.500,-4.600
1.407,-7.600,-12.300,1.400,-4.200
1.408,-8.200,-12.000,1.400,-3.900
1.409,-8.800,-11.800,1.400,-3.600
1.410,-9.100,-11.800,1.400,-3.500
1.411,-9.200,-11.800,1.400,-3.300
1.412,-9.100,-11.800,1.400,-3.100
1.413,-9.000,-11.600,1.400,-2.900
1.414,-8.700,-11.400,1.300,-2.900
1.415,-8.300,-11.100,1.200,-3.000
1.416,-7.700,-10.700,1.200,-3.200
1.417,-6.800,-10.000,1.100,-3.500
1.418,-5.800,-9.100,1.100,-3.800
1.419,-4.600,-8.000,1.000,-4.100
1.420,-3.500,-7.000,1.000,-4.300
1.421,-2.600,-6.000,0.900,-4.600
1.422,-1.700,-5.300,0.800,-4.900
1.423,-0.900,-4.500,0.800,-5.200
1.424,-0.200,-3.900,0.800,-5.400
1.425,0.400,-3.300,0.800,-5.500
1.426,0.700,-2.900,0.800,-5.600
1.427,0.800,-2.800,0.800,-5.600
1.428,0.800,-2.900,0.800,-5.500
1.429,0.700,-3.100,0.700,-5.500
1.430,0.400,-3.000,0.600,-5.300
1.431,0.100,-2.800,0.600,-5.100
1.432,-0.200,-2.500,0.700,-4.900
1.433,-0.300,-2.400,0.700,-4.800
1.434,-0.200,-2.500,0.800,-4.600
1.435,0.000,-2.600,0.800,-4.500
1.436,0.100,-2.400,0.800,-4.300
1.437,0.000,-1.700,0.800,-4.100
1.438,-0.300,-0.900,0.800,-4.100
1.439,-0.600,-0.300,0.800,-4.000
1.440,-0.700,-0.100,0.800,-4.100
1.441,-0.600,-0.200,0.700,-4.100
1.442,-0.400,-0.700,0.600,-4.100
1.443,-0.200,-1.100,0.600,-4.000
1.444,-0.100,-1.500,0.500,-3.900
1.445,0.100,-2.100,0.500,-3.700
1.446,0.300,-2.700,0.400,-3.600
1.447,0.500,-3.300,0.400,-3.300
1.448,0.800,-3.500,0.400,-3.000
1.449,0.900,-3.400,0.400,-2.600
1.450,0.900,-3.000,0.400,-2.200
1.451,0.900,-2.600,0.400,-1.900
1.452,1.000,-2.100,0.300,-1.700
1.453,1.100,-1.400,0.300,-1.400
1.454,1.100,-0.600,0.300,-0.900
1.455,1.000,0.100,0.300,-0.400
1.456,0.800,0.600,0.300,-0.200
1.457,0.600,0.800,0.400,-0.200
1.458,0.300,0.700,0.400,-0.300
1.459,0.100,0.500,0.400,-0.300
1.460,-0.200,0.300,0.500,0.200
1.461,-0.400,-0.100,0.500,0.900
1.462,-0.600,-0.700,0.600,1.600
1.463,-0.700,-1.400,0.500,2.100
1.464,-0.800,-2.000,0.500,2.100
1.465,-0.800,-2.500,0.400,2.000
1.466,-0.700,-2.800,0.300,2.000
1.467,-0.700,-3.000,0.300,2.100
1.468,-0.600,-3.200,0.300,2.200
1.469,-0.500,-3.300,0.300,2.200
1.470,-0.400,-3.300,0.300,2.200
1.471,-0.400,-3.000,0.300,2.100
1.472,-0.300,-2.800,0.300,2.000
1.473,-0.300,-2.600,0.300,1.800
1.474,-0.300,-2.500,0.300,1.600
1.475,-0.400,-2.500,0.300,1.400
1.476,-0.500,-2.600,0.300,1.100
1.477,-0.600,-2.500,0.300,0.800
1.478,-0.700,-2.400,0.300,0.600
1.479,-0.900,-2.300,0.300,0.400
1.480,-1.100,-2.300,0.300,0.200
1.481,-1.300,-2.400,0.300,-0.100
1.482,-1.500,-2.400,0.300,-0.200
1.483,-1.700,-2.100,0.300,-0.400
1.484,-1.800,-1.600,0.300,-0.500
1.485,-1.900,-0.800,0.300,-0.500
1.486,-1.900,0.100,0.300,-0.500
1.487,-1.800,1.100,0.300,-0.600
1.488,-1.700,2.100,0.300,-0.600
1.489,-1.500,3.300,0.200,-0.700
1.490,-1.100,4.400,0.200,-0.700
1.491,-0.600,5.300,0.100,-0.700
1.492,-0.100,5.800,0.100,-0.600
1.493,0.400,5.900,0.100,-0.600
1.494,0.800,5.800,0.100,-0.600
1.495,1.200,5.400,0.000,-0.700
1.496,1.500,4.900,0.000,-0.900
1.497,1.700,4.300,0.000,-1.100
1.498,1.800,3.500,0.100,-1.300
1.499,1.800,2.600,0.100,-1.400
1.500,1.600,1.700,0.100,-1.500
1.501,1.300,1.200,0.200,-1.600
1.502,0.800,0.900,0.200,-1.600
1.503,0.400,0.800,0.200,-1.700
1.504,-0.100,0.900,0.300,-1.600
1.505,-0.500,1.200,0.300,-1.600
1.506,-1.000,1.700,0.400,-1.500
1.507,-1.500,2.600,0.400,-1.500
1.508,-1.900,3.400,0.400,-1.500
1.509,-2.100,4.100,0.400,-1.400
1.510,-2.100,4.300,0.400,-1.400
1.511,-2.000,4.300,0.400,-1.300
1.512,-1.800,4.000,0.300,-1.200
1.513,-1.700,3.500,0.300,-1.000
1.514,-1.600,3.000,0.200,-0.800
1.515,-1.300,2.300,0.100,-0.500
1.516,-1.000,1.500,0.100,-0.300
1.517,-0.600,0.500,0.100,0.100
1.518,-0.200,-0.300,0.000,0.400
1.519,0.200,-1.000,0.000,0.700
1.520,0.500,-1.500,-0.100,1.000
1.521,0.800,-1.600,-0.100,1.200
1.522,1.000,-1.400,-0.100,1.400
1.523,1.200,-0.900,-0.100,1.600
1.524,1.400,-0.300,-0.100,1.800
1.525,1.600,0.200,-0.100,2.000
1.526,1.700,0.900,-0.100,2.100
1.527,1.800,1.800,-0.100,2.100
1.528,1.900,3.000,0.000,2.200
1.529,2.000,3.800,0.100,2.200
1.530,2.000,3.800,0.100,2.200
1.531,2.000,2.700,0.200,2.100
1.532,2.000,1.500,0.200,2.000
1.533,2.000,1.100,0.200,1.900
1.534,2.100,1.900,0.200,1.700
1.535,2.200,3.000,0.300,1.400
1.536,2.200,3.100,0.300,1.200
1.537,2.000,1.300,0.300,1.000
1.538,1.700,-1.900,0.400,0.800
1.539,1.400,-4.800,0.400,0.500
1.540,1.100,-6.300,0.400,0.200
1.541,1.000,-5.900,0.400,-0.300
1.542,1.000,-4.800,0.400,-0.600
1.543,0.900,-3.900,0.500,-0.800
1.544,0.800,-3.600,0.500,-0.900
1.545,0.600,-3.600,0.500,-0.900
1.546,0.500,-3.400,0.500,-1.000
1.547,0.400,-2.900,0.400,-1.000
1.548,0.300,-2.600,0.500,-0.800
1.549,0.300,-2.700,0.500,-0.600
1.550,0.300,-3.000,0.600,-0.300
1.551,0.300,-3.400,0.600,0.000
1.552,0.400,-3.500,0.500,0.200
1.553,0.400,-3.300,0.500,0.300
1.554,0.500,-2.800,0.500,0.500
1.555,0.500,-2.000,0.500,0.800
1.556,0.600,-0.700,0.600,0.900
1.557,0.700,0.900,0.700,0.900
1.558,0.900,2.700,0.800,0.800
1.559,1.000,4.300,0.900,0.800
1.560,1.100,5.700,1.000,0.900
1.561,1.200,7.100,1.100,1.100
1.562,1.200,8.200,1.200,1.400
1.563,1.200,8.900,1.300,1.500
1.564,1.100,9.000,1.400,1.400
1.565,1.100,8.400,1.400,1.200
1.566,1.000,7.200,1.500,1.000
1.567,0.900,5.800,1.600,0.900
1.568,0.800,4.400,1.600,0.900
1.569,0.700,2.900,1.700,0.800
1.570,0.500,1.200,1.700,0.700
1.571,0.300,-0.600,1.800,0.500
1.572,0.200,-2.300,1.800,0.400
1.573,0.100,-3.800,1.900,0.200
1.574,-0.100,-4.700,1.900,0.100
1.575,-0.200,-5.300,2.000,-0.100
1.576,-0.400,-5.500,2.100,-0.300
1.577,-0.600,-5.500,2.200,-0.500
1.578,-0.800,-5.300,2.300,-0.800
1.579,-1.000,-5.000,2.400,-1.000
1.580,-1.300,-4.300,2.400,-1.200
1.581,-1.500,-3.500,2.500,-1.400
1.582,-1.800,-2.700,2.600,-1.500
1.583,-2.200,-2.100,2.600,-1.700
1.584,-2.400,-1.700,2.600,-1.800
1.585,-2.700,-1.700,2.700,-1.800
1.586,-2.800,-2.000,2.700,-1.800
1.587,-3.000,-2.300,2.700,-1.600
1.588,-3.300,-2.700,2.800,-1.300
1.589,-3.500,-3.100,2.800,-0.900
1.590,-3.700,-3.500,2.900,-0.600
1.591,-3.800,-4.000,2.900,-0.300
1.592,-4.000,-4.600,3.000,0.100
1.593,-4.200,-5.200,3.000,0.500
1.594,-4.400,-5.700,3.100,0.900
1.595,-4.700,-6.200,3.100,1.300
1.596,-4.900,-6.600,3.200,1.500
1.597,-5.200,-7.000,3.300,1.600
1.598,-5.400,-7.200,3.400,1.600
1.599,-5.700,-7.400,3.500,1.500
1.600,-6.000,-7.500,3.500,1.300
1.601,-6.300,-7.400,3.600,1.000
1.602,-6.600,-7.300,3.600,0.700
1.603,-7.000,-7.200,3.700,0.200
1.604,-7.300,-7.100,3.700,-0.300
1.605,-7.700,-7.100,3.800,-0.700
1.606,-8.100,-7.100,3.900,-1.000
1.607,-8.500,-7.100,4.000,-1.200
1.608,-8.800,-7.300,4.100,-1.400
1.609,-9.200,-7.600,4.100,-1.500
1.610,-9.500,-8.000,4.200,-1.600
1.611,-9.800,-8.300,4.300,-1.700
1.612,-10.200,-8.600,4.300,-1.800
1.613,-10.500,-8.800,4.400,-1.800
1.614,-10.800,-9.000,4.500,-1.800
1.615,-11.100,-9.100,4.500,-1.900
1.616,-11.300,-9.200,4.600,-1.900
1.617,-11.600,-9.100,4.700,-2.000
1.618,-11.900,-8.800,4.800,-2.100
1.619,-12.200,-8.500,4.800,-2.200
1.620,-12.400,-8.000,4.900,-2.400
1.621,-12.600,-7.700,4.900,-2.600
1.622,-12.800,-7.400,5.000,-2.700
1.623,-12.900,-7.300,5.000,-2.900
1.624,-13.100,-7.100,5.000,-3.000
1.625,-13.300,-7.000,5.000,-3.000
1.626,-13.500,-7.100,5.100,-3.000
1.627,-13.800,-7.700,5.100,-3.000
1.628,-14.100,-8.500,5.200,-3.000
1.629,-14.300,-9.100,5.400,-2.900
1.630,-14.600,-9.100,5.500,-2.800
1.631,-14.800,-8.500,5.600,-2.700
1.632,-15.100,-7.800,5.700,-2.700
1.633,-15.300,-7.800,5.800,-2.700
1.634,-15.600,-8.500,5.800,-2.800
1.635,-15.800,-9.300,5.900,-3.000
1.636,-16.000,-9.200,6.100,-3.200
1.637,-16.300,-7.800,6.200,-3.500
1.638,-16.600,-5.400,6.400,-3.800
1.639,-16.900,-3.300,6.500,-4.100
1.640,-17.200,-2.300,6.500,-4.300
1.641,-17.500,-2.400,6.600,-4.400
1.642,-17.700,-3.000,6.600,-4.500
1.643,-17.900,-3.600,6.600,-4.400
1.644,-18.100,-4.000,6.700,-4.300
1.645,-18.300,-4.600,6.700,-4.100
1.646,-18.400,-5.600,6.800,-3.900
1.647,-18.500,-6.800,6.800,-3.600
1.648,-18.600,-7.800,6.900,-3.300
1.649,-18.700,-8.300,6.900,-3.000
1.650,-18.700,-8.300,6.900,-2.600
1.651,-18.800,-8.200,6.800,-2.300
1.652,-18.700,-8.100,6.600,-2.200
1.653,-18.600,-7.900,6.400,-2.300
1.654,-18.500,-7.400,6.300,-2.700
1.655,-18.300,-6.700,6.200,-3.000
1.656,-18.100,-6.000,6.100,-3.200
1.657,-17.900,-5.600,6.000,-3.100
1.658,-17.700,-5.500,5.800,-2.900
1.659,-17.500,-5.500,5.700,-3.000
1.660,-17.300,-5.700,5.500,-3.500
1.661,-17.100,-5.800,5.300,-4.300
1.662,-16.800,-6.200,5.200,-5.100
1.663,-16.400,-6.800,5.100,-5.500
1.664,-16.000,-7.800,4.900,-5.700
1.665,-15.700,-8.900,4.800,-5.900
1.666,-15.300,-9.900,4.700,-6.100
1.667,-15.000,-10.900,4.600,-6.400
1.668,-14.700,-11.700,4.500,-6.500
1.669,-14.500,-12.500,4.300,-6.500
1.670,-14.200,-13.300,4.200,-6.200
1.671,-13.900,-13.900,4.100,-5.900
1.672,-13.700,-14.200,3.900,-5.500
1.673,-13.400,-14.100,3.800,-5.200
1.674,-13.200,-13.500,3.600,-4.800
1.675,-12.900,-12.800,3.500,-4.200
1.676,-12.600,-12.100,3.300,-3.700
1.677,-12.400,-11.300,3.200,-3.100
1.678,-12.200,-10.400,3.100,-2.700
1.679,-12.000,-9.400,3.000,-2.300
1.680,-11.800,-8.600,2.800,-2.000
1.681,-11.600,-8.100,2.700,-1.700
1.682,-11.300,-8.100,2.600,-1.400
1.683,-11.000,-8.400,2.500,-1.200
1.684,-10.700,-8.800,2.400,-1.100
1.685,-10.500,-9.100,2.300,-1.200
1.686,-10.300,-9.300,2.200,-1.300
1.687,-10.100,-9.600,2.200,-1.500
1.688,-9.800,-9.800,2.200,-1.700
1.689,-9.500,-9.900,2.100,-1.900
1.690,-9.200,-9.600,2.100,-2.000
1.691,-8.900,-9.000,2.100,-2.000
1.692,-8.600,-8.200,2.000,-2.100
1.693,-8.200,-7.400,2.000,-2.200
1.694,-7.800,-6.600,2.000,-2.200
1.695,-7.400,-5.800,1.900,-2.200
1.696,-7.000,-5.000,1.800,-1.900
1.697,-6.500,-4.300,1.700,-1.500
1.698,-6.100,-3.700,1.600,-1.100
1.699,-5.700,-3.100,1.500,-0.800
1.700,-5.300,-2.400,1.400,-0.600
1.701,-4.900,-1.400,1.300,-0.400
1.702,-4.600,-0.300,1.100,-0.200
1.703,-4.200,0.800,1.000,-0.100
1.704,-3.800,1.800,0.900,-0.100
1.705,-3.500,2.800,0.800,-0.200
1.706,-3.200,3.900,0.700,-0.300
1.707,-2.900,5.000,0.500,-0.400
1.708,-2.700,5.800,0.400,-0.500
1.709,-2.400,6.100,0.300,-0.600
1.710,-2.100,5.900,0.200,-0.700
1.711,-1.700,5.300,0.100,-0.700
1.712,-1.400,4.600,0.000,-0.700
1.713,-1.200,3.900,-0.100,-0.500
1.714,-1.000,3.200,-0.200,-0.200
1.715,-0.800,2.300,-0.300,0.100
1.716,-0.600,1.500,-0.400,0.400
1.717,-0.400,1.000,-0.500,0.700
1.718,-0.100,0.800,-0.500,0.900
1.719,0.200,1.000,-0.600,1.100
1.720,0.500,1.400,-0.700,1.100
1.721,0.800,1.800,-0.800,1.000
1.722,1.100,2.200,-1.000,0.900
1.723,1.300,2.700,-1.100,0.700
1.724,1.500,3.000,-1.200,0.500
1.725,1.700,3.100,-1.300,0.400
1.726,1.800,3.000,-1.400,0.300
1.727,2.000,2.500,-1.500,0.300
1.728,2.000,1.600,-1.500,0.200
1.729,2.100,0.300,-1.500,0.200
1.730,2.000,-1.600,-1.400,0.200
1.731,1.800,-3.900,-1.400,0.300
1.732,1.500,-6.000,-1.400,0.500
1.733,1.300,-7.100,-1.300,0.700
1.734,1.300,-7.100,-1.300,1.000
1.735,1.500,-6.200,-1.400,1.100
1.736,1.800,-5.300,-1.400,1.200
1.737,2.400,-4.900,-1.500,1.100
1.738,3.100,-4.800,-1.700,0.900
1.739,4.100,-4.400,-2.000,0.300
1.740,5.300,-3.100,-2.200,-0.600
1.741,6.800,-0.700,-2.600,-1.700
1.742,8.500,2.200,-2.800,-3.100
1.743,10.100,4.900,-2.900,-4.500
1.744,11.500,7.100,-2.900,-6.000
1.745,12.400,8.800,-2.700,-7.400
1.746,13.000,10.300,-2.500,-8.600
1.747,13.300,11.500,-2.300,-9.500
1.748,13.500,12.500,-2.200,-9.800
1.749,13.600,13.100,-2.400,-9.500
1.750,13.500,13.400,-2.700,-8.800
1.751,12.900,13.300,-2.900,-7.900
1.752,11.900,12.900,-2.900,-6.900
1.753,10.300,12.300,-2.700,-5.800
1.754,8.600,11.400,-2.200,-4.600
1.755,6.800,10.400,-1.800,-3.500
1.756,5.300,9.400,-1.400,-2.600
1.757,4.200,8.300,-1.200,-1.900
1.758,3.400,7.300,-1.200,-1.300
1.759,2.900,6.200,-1.300,-0.700
1.760,2.700,5.200,-1.400,0.000
1.761,2.600,4.300,-1.600,0.800
1.762,2.700,3.500,-1.600,1.600
1.763,2.800,2.700,-1.700,2.100
1.764,2.900,1.700,-1.700,2.400
1.765,3.000,0.600,-1.600,2.600
1.766,3.000,-0.500,-1.500,2.900
1.767,3.000,-1.500,-1.400,3.200
1.768,3.000,-2.400,-1.300,3.600
1.769,3.000,-3.400,-1.200,4.000
1.770,3.000,-4.500,-1.200,4.300
1.771,3.000,-5.500,-1.100,4.500
1.772,3.000,-6.100,-1.100,4.600
1.773,3.000,-5.900,-1.100,4.800
1.774,3.100,-5.000,-1.100,4.900
1.775,3.200,-3.600,-1.100,5.000
1.776,3.200,-2.100,-1.100,4.900
1.777,3.300,-0.500,-1.100,4.600
1.778,3.300,1.000,-1.000,4.200
1.779,3.400,2.700,-1.000,3.900
1.780,3.500,4.600,-1.000,3.500
1.781,3.700,6.400,-0.900,3.200
1.782,3.800,7.900,-0.800,2.900
1.783,3.900,8.900,-0.700,2.700
1.784,4.100,9.500,-0.500,2.500
1.785,4.200,9.700,-0.200,2.400
1.786,4.300,9.700,0.100,2.400
1.787,4.400,9.500,0.400,2.400
1.788,4.500,9.200,0.800,2.500
1.789,4.600,8.600,1.300,2.600
1.790,4.800,7.900,1.800,2.800
1.791,4.900,7.200,2.300,3.000
1.792,5.100,6.600,2.800,3.300
1.793,5.300,6.100,3.400,3.600
1.794,5.400,5.800,3.900,3.900
1.795,5.500,5.700,4.400,4.400
1.796,5.700,5.500,4.900,5.000
1.797,5.800,5.400,5.400,5.800
1.798,5.900,5.400,5.800,6.700
1.799,6.000,5.500,6.200,7.600
1.800,6.000,5.800,6.500,8.500
1.801,6.000,6.100,6.900,9.300
1.802,6.000,6.400,7.200,10.100
1.803,6.000,6.500,7.500,10.900
1.804,6.000,6.600,7.700,11.600
1.805,6.100,6.600,7.900,12.200
1.806,6.100,6.700,8.100,12.600
1.807,6.000,6.600,8.300,12.800
1.808,6.000,6.200,8.500,12.800
1.809,6.000,5.400,8.700,12.700
1.810,6.000,4.400,8.800,12.500
1.811,6.000,3.300,8.900,12.200
1.812,5.900,2.300,8.800,11.800
1.813,5.800,1.500,8.700,11.400
1.814,5.700,0.700,8.500,10.900
1.815,5.500,-0.200,8.200,10.500
1.816,5.400,-0.800,7.900,10.100
1.817,5.300,-1.200,7.500,9.600
1.818,5.200,-1.100,7.100,9.100
1.819,5.100,-0.500,6.600,8.500
1.820,5.100,0.400,6.000,7.900
1.821,5.000,1.500,5.400,7.300
1.822,4.900,2.800,4.700,6.600
1.823,4.800,4.100,4.000,5.700
1.824,4.800,5.400,3.200,4.700
1.825,4.800,6.500,2.400,3.500
1.826,4.900,7.500,1.600,2.300
1.827,5.100,8.400,0.800,1.100
1.828,5.400,9.100,-0.100,-0.200
1.829,5.700,9.000,-1.100,-1.600
1.830,6.100,8.000,-2.000,-3.100
1.831,6.500,6.000,-3.100,-4.600
1.832,7.000,3.600,-4.200,-6.100
1.833,7.600,1.700,-5.500,-7.500
1.834,8.300,0.400,-6.800,-8.800
1.835,9.200,-1.000,-8.200,-10.000
1.836,10.100,-3.400,-9.700,-11.400
1.837,11.100,-7.600,-11.200,-12.800
1.838,12.300,-13.100,-12.900,-14.200
1.839,13.400,-18.800,-14.700,-15.800
1.840,14.600,-23.900,-16.600,-17.400
1.841,15.700,-28.100,-18.500,-19.100
1.842,16.800,-32.300,-20.500,-21.200
1.843,17.800,-36.900,-22.600,-23.500
1.844,18.800,-42.300,-24.700,-26.100
1.845,19.700,-48.000,-26.900,-29.000
1.846,20.400,-53.600,-29.100,-31.900
1.847,20.900,-59.300,-31.200,-35.100
1.848,21.000,-65.200,-33.200,-38.400
1.849,20.700,-71.400,-35.000,-42.000
1.850,19.800,-77.700,-36.600,-45.600
1.851,18.200,-84.100,-37.800,-49.100
1.852,15.800,-90.400,-38.700,-52.500
1.853,12.700,-96.600,-39.100,-55.900
1.854,9.000,-102.900,-39.100,-59.200
1.855,4.900,-109.000,-38.800,-62.200
1.856,0.800,-114.600,-38.300,-64.600
1.857,-2.700,-119.500,-37.700,-66.400
1.858,-5.500,-,-37.200,-67.500
1.859,-7.300,-,-36.800,-68.300
1.860,-8.200,-,-36.500,-68.800
1.861,-8.300,-,-36.300,-69.000
1.862,-8.000,-,-35.800,-68.700
1.863,-7.600,-,-35.100,-67.500
1.864,-7.500,-119.300,-34.000,-65.500
1.865,-7.800,-114.200,-32.300,-62.800
1.866,-8.500,-107.800,-30.100,-59.800
1.867,-9.800,-100.400,-27.400,-56.400
1.868,-11.400,-92.300,-24.200,-52.700
1.869,-13.400,-83.500,-20.800,-48.600
1.870,-15.700,-74.200,-17.100,-44.100
1.871,-18.100,-64.500,-13.300,-39.400
1.872,-20.700,-54.300,-9.400,-34.500
1.873,-23.300,-43.900,-5.400,-29.600
1.874,-26.000,-33.500,-1.400,-24.700
1.875,-28.700,-23.700,2.500,-19.800
1.876,-31.500,-14.600,6.400,-15.100
1.877,-34.500,-6.400,10.100,-10.700
1.878,-37.600,1.000,13.600,-6.500
1.879,-40.600,7.600,17.000,-2.700
1.880,-43.500,13.200,19.900,0.800
1.881,-45.900,17.600,22.500,3.800
1.882,-47.800,21.000,24.600,6.500
1.883,-48.900,23.600,26.200,8.800
1.884,-49.100,25.700,27.200,10.600
1.885,-48.200,27.500,27.600,12.100
1.886,-46.300,28.800,27.200,13.200
1.887,-43.200,29.800,26.300,14.000
1.888,-39.100,30.400,24.600,14.600
1.889,-34.000,30.900,22.500,14.900
1.890,-28.100,31.300,19.900,15.000
1.891,-21.800,31.300,17.000,15.000
1.892,-15.200,30.800,13.900,14.700
1.893,-8.600,30.000,10.800,14.200
1.894,-2.200,28.700,7.800,13.600
1.895,3.700,27.500,5.000,13.000
1.896,9.100,26.100,2.400,12.500
1.897,13.800,24.600,0.100,12.000
1.898,17.800,22.900,-2.000,11.600
1.899,21.000,21.300,-3.700,11.100
1.900,23.600,20.000,-5.100,10.700
1.901,25.600,19.300,-6.300,10.300
1.902,26.900,19.100,-7.200,9.900
1.903,27.700,18.900,-7.800,9.600
1.904,28.100,18.700,-8.300,9.300
1.905,28.200,18.500,-8.500,9.000
1.906,28.000,18.500,-8.600,8.600
1.907,27.600,18.500,-8.700,8.200
1.908,27.100,18.400,-8.600,7.700
1.909,26.400,17.800,-8.500,7.100
1.910,25.600,16.500,-8.400,6.500
1.911,24.600,14.600,-8.300,5.800
1.912,23.700,12.600,-8.100,5.200
1.913,22.600,10.500,-7.900,4.500
1.914,21.600,8.400,-7.700,3.900
1.915,20.500,6.300,-7.500,3.300
1.916,19.400,4.100,-7.200,2.700
1.917,18.300,2.000,-6.900,2.200
1.918,17.200,0.400,-6.600,1.700
1.919,16.200,-0.700,-6.200,1.300
1.920,15.200,-1.200,-5.900,0.900
1.921,14.200,-1.300,-5.400,0.800
1.922,13.300,-1.200,-5.100,0.700
1.923,12.300,-0.800,-4.600,0.700
1.924,11.500,-0.300,-4.200,0.700
1.925,10.700,0.400,-3.900,0.800
1.926,9.800,1.300,-3.500,0.800
1.927,9.100,2.200,-3.100,0.900
1.928,8.400,3.000,-2.700,1.000
1.929,7.700,3.500,-2.300,1.000
1.930,7.100,3.800,-2.000,1.100
1.931,6.500,3.900,-1.700,1.200
1.932,6.000,4.000,-1.500,1.300
1.933,5.500,4.200,-1.300,1.400
1.934,5.000,4.400,-1.100,1.400
1.935,4.600,4.600,-0.900,1.300
1.936,4.200,4.600,-0.700,1.300
1.937,3.700,4.400,-0.500,1.200
1.938,3.200,4.000,-0.300,1.100
1.939,2.800,3.600,-0.200,0.900
1.940,2.400,3.300,-0.100,0.700
1.941,2.200,3.300,0.000,0.300
1.942,2.100,3.300,0.100,0.100
1.943,2.000,3.400,0.200,-0.200
1.944,2.000,3.500,0.200,-0.400
1.945,2.000,3.500,0.200,-0.500
1.946,1.900,3.400,0.300,-0.500
1.947,1.900,3.300,0.200,-0.500
1.948,1.800,2.900,0.200,-0.400
1.949,1.800,2.500,0.200,-0.200
1.950,1.900,2.100,0.100,0.200
1.951,2.100,1.500,0.100,0.600
1.952,2.200,0.900,0.000,1.000
1.953,2.400,0.000,-0.100,1.300
1.954,2.400,-1.000,-0.200,1.500
1.955,2.500,-2.100,-0.300,1.800
1.956,2.600,-3.200,-0.400,1.900
1.957,2.600,-4.100,-0.400,2.000
1.958,2.700,-4.800,-0.400,2.000
1.959,2.700,-5.500,-0.400,1.800
1.960,2.800,-5.900,-0.500,1.500
1.961,2.800,-6.100,-0.700,1.200
1.962,2.800,-6.000,-0.800,0.800
1.963,2.800,-5.500,-0.900,0.400
1.964,2.900,-4.700,-1.000,-0.100
1.965,2.900,-3.900,-1.000,-0.700
1.966,2.900,-3.100,-1.000,-1.200
1.967,2.900,-2.400,-1.000,-1.600
1.968,2.800,-1.800,-0.900,-1.800
1.969,2.800,-1.200,-0.900,-1.700
1.970,2.800,-0.700,-0.900,-1.400
1.971,2.800,-0.400,-0.900,-1.100
1.972,2.800,-0.100,-0.900,-0.700
1.973,2.700,-0.100,-0.900,-0.400
1.974,2.700,-0.200,-0.900,0.000
1.975,2.600,-0.400,-0.900,0.400
1.976,2.500,-0.500,-0.900,0.800
1.977,2.500,-0.600,-0.900,1.100
1.978,2.500,-0.500,-0.900,1.300
1.979,2.500,-0.500,-0.900,1.400
1.980,2.500,-0.400,-1.000,1.400
1.981,2.500,-0.500,-1.000,1.300
1.982,2.600,-0.700,-1.000,1.100
1.983,2.600,-1.000,-1.000,0.900
1.984,2.600,-1.300,-1.100,0.700
1.985,2.600,-1.500,-1.100,0.300
1.986,2.600,-1.700,-1.100,-0.100
1.987,2.600,-1.800,-1.100,-0.500
1.988,2.600,-1.900,-1.200,-0.800
1.989,2.600,-2.100,-1.200,-1.100
1.990,2.600,-2.400,-1.200,-1.300
1.991,2.700,-2.800,-1.200,-1.500
1.992,2.700,-3.100,-1.200,-1.700
1.993,2.700,-3.300,-1.200,-1.900
1.994,2.700,-3.500,-1.100,-2.000
1.995,2.700,-3.600,-1.100,-2.100
1.996,2.600,-3.700,-1.000,-2.200
1.997,2.500,-3.900,-0.900,-2.300
1.998,2.500,-4.100,-0.900,-2.300
1.999,2.500,-4.200,-0.800,-2.300
2.000,2.400,-4.100,-0.800,-2.200
2.001,2.400,-3.800,-0.800,-2.000
2.002,2.400,-3.500,-0.900,-1.700
2.003,2.400,-3.200,-0.900,-1.400
2.004,2.300,-2.900,-0.800,-1.100
2.005,2.300,-2.700,-0.800,-0.800
2.006,2.200,-2.300,-0.800,-0.400
2.007,2.000,-2.000,-0.700,-0.100
2.008,1.900,-1.700,-0.700,0.200
2.009,1.800,-1.600,-0.800,0.400
2.010,1.800,-1.800,-0.800,0.700
2.011,1.800,-2.100,-0.800,0.800
2.012,1.800,-2.300,-0.900,0.800
2.013,1.800,-2.500,-0.900,0.800
2.014,1.700,-2.600,-1.000,0.600
2.015,1.600,-2.800,-1.000,0.400
2.016,1.600,-3.100,-1.100,0.100
2.017,1.600,-3.500,-1.200,-0.300
2.018,1.700,-3.900,-1.300,-0.700
2.019,1.800,-4.200,-1.300,-1.100
2.020,1.900,-4.400,-1.300,-1.500
2.021,2.100,-4.600,-1.400,-1.900
2.022,2.200,-4.900,-1.400,-2.300
2.023,2.300,-5.200,-1.400,-2.700
2.024,2.300,-5.500,-1.400,-3.100
2.025,2.400,-5.900,-1.500,-3.400
2.026,2.500,-6.300,-1.500,-3.700
2.027,2.500,-6.700,-1.500,-3.900
2.028,2.600,-7.300,-1.600,-4.100
2.029,2.600,-7.900,-1.600,-4.300
2.030,2.500,-8.300,-1.600,-4.500
2.031,2.500,-8.500,-1.700,-4.500
2.032,2.500,-8.600,-1.700,-4.400
2.033,2.500,-8.900,-1.800,-4.100
2.034,2.500,-9.300,-1.800,-3.800
2.035,2.600,-9.700,-1.900,-3.400
2.036,2.600,-9.600,-2.000,-3.100
2.037,2.600,-9.100,-2.100,-2.800
2.038,2.600,-8.200,-2.100,-2.400
2.039,2.500,-7.200,-2.200,-2.000
2.040,2.500,-6.500,-2.300,-1.700
2.041,2.600,-6.000,-2.300,-1.500
2.042,2.600,-5.500,-2.400,-1.500
2.043,2.700,-4.900,-2.400,-1.500
2.044,2.800,-4.400,-2.400,-1.500
2.045,2.900,-4.200,-2.400,-1.500
2.046,2.900,-4.300,-2.400,-1.600
2.047,3.000,-4.700,-2.500,-1.700
2.048,3.100,-5.200,-2.500,-1.800
2.049,3.200,-5.600,-2.600,-2.100
2.050,3.300,-6.000,-2.600,-2.300
2.051,3.400,-6.500,-2.700,-2.500
2.052,3.500,-6.900,-2.900,-2.700
2.053,3.600,-7.300,-3.000,-2.900
2.054,3.700,-7.500,-3.100,-3.200
2.055,3.700,-7.500,-3.100,-3.400
2.056,3.700,-7.400,-3.200,-3.600
2.057,3.600,-7.300,-3.300,-3.600
2.058,3.600,-7.200,-3.300,-3.600
2.059,3.500,-7.100,-3.400,-3.700
2.060,3.500,-6.900,-3.500,-3.900
2.061,3.400,-6.700,-3.600,-4.200
2.062,3.200,-6.500,-3.700,-4.500
2.063,3.100,-6.500,-3.700,-4.700
2.064,3.000,-6.500,-3.800,-4.800
2.065,3.000,-6.500,-3.800,-4.900
2.066,3.200,-6.500,-3.800,-5.200
2.067,3.300,-6.600,-3.800,-5.300
2.068,3.400,-6.800,-3.800,-5.400
2.069,3.400,-7.000,-3.800,-5.400
2.070,3.500,-7.300,-3.800,-5.300
2.071,3.600,-7.600,-3.900,-5.200
2.072,3.600,-7.900,-3.900,-5.100
2.073,3.700,-8.200,-3.900,-5.100
2.074,3.700,-8.500,-3.900,-5.100
2.075,3.700,-8.700,-3.900,-5.000
2.076,3.700,-8.900,-3.900,-4.900
2.077,3.800,-9.100,-3.900,-4.900
2.078,3.900,-9.100,-4.000,-4.800
2.079,4.000,-9.100,-4.000,-4.800
2.080,4.100,-9.100,-4.000,-4.800
2.081,4.100,-9.100,-4.100,-4.700
2.082,4.200,-9.200,-4.200,-4.600
2.083,4.100,-9.200,-4.300,-4.600
2.084,4.100,-9.200,-4.400,-4.600
2.085,4.100,-9.200,-4.500,-4.600
2.086,4.100,-9.100,-4.600,-4.600
2.087,4.100,-9.100,-4.700,-4.600
2.088,4.100,-9.100,-4.700,-4.600
2.089,4.000,-9.200,-4.800,-4.700
2.090,3.900,-9.100,-4.900,-4.800
2.091,3.800,-9.100,-4.900,-4.900
2.092,3.600,-9.000,-4.900,-4.900
2.093,3.400,-9.100,-4.900,-5.000
2.094,3.300,-9.100,-4.900,-5.100
2.095,3.200,-9.200,-4.900,-5.100
2.096,3.200,-9.300,-4.900,-5.300
2.097,3.100,-9.300,-4.900,-5.500
2.098,3.000,-9.300,-4.900,-5.700
2.099,3.000,-9.300,-4.900,-5.900
2.100,3.100,-9.200,-4.900,-6.100
2.101,3.300,-9.200,-4.900,-6.400
2.102,3.400,-9.100,-4.900,-6.600
2.103,3.600,-9.100,-4.900,-6.800
2.104,3.700,-9.100,-4.900,-6.900
2.105,3.800,-9.100,-4.900,-7.000
2.106,3.900,-9.200,-5.000,-6.900
2.107,4.000,-9.400,-5.000,-6.900
2.108,4.100,-9.600,-5.100,-6.700
2.109,4.200,-9.600,-5.100,-6.600
2.110,4.100,-9.700,-5.100,-6.500
2.111,4.000,-9.700,-5.100,-6.300
2.112,3.900,-9.700,-5.100,-6.000
2.113,3.900,-9.800,-5.100,-5.600
2.114,3.900,-9.900,-5.100,-5.300
2.115,3.800,-10.000,-5.100,-4.900
2.116,3.800,-10.000,-5.100,-4.600
2.117,3.700,-10.000,-5.000,-4.400
2.118,3.700,-10.100,-4.900,-4.200
2.119,3.600,-10.100,-4.900,-4.100
2.120,3.600,-10.300,-4.800,-3.900
2.121,3.700,-10.400,-4.700,-3.700
2.122,3.800,-10.500,-4.600,-3.600
2.123,3.900,-10.600,-4.500,-3.700
2.124,4.000,-10.600,-4.500,-3.900
2.125,4.000,-10.700,-4.400,-4.200
2.126,3.900,-10.800,-4.300,-4.500
2.127,3.800,-10.900,-4.300,-4.700
2.128,3.800,-11.000,-4.200,-4.800
2.129,3.800,-11.100,-4.200,-5.000
2.130,3.600,-11.400,-4.200,-5.200
2.131,3.300,-11.900,-4.100,-5.400
2.132,2.900,-12.400,-4.000,-5.700
2.133,2.700,-12.600,-3.900,-5.800
2.134,2.700,-12.600,-3.800,-5.900
2.135,2.700,-12.400,-3.700,-6.100
2.136,2.600,-12.500,-3.600,-6.300
2.137,2.100,-13.000,-3.500,-6.500
2.138,1.300,-13.800,-3.400,-6.600
2.139,0.600,-14.600,-3.300,-6.800
2.140,0.100,-15.000,-3.100,-7.000
2.141,-0.200,-15.000,-3.000,-7.200
2.142,-0.400,-14.800,-2.800,-7.300
2.143,-0.700,-14.600,-2.600,-7.300
2.144,-1.100,-14.400,-2.300,-7.100
2.145,-1.500,-14.200,-2.100,-6.800
2.146,-1.700,-14.000,-1.900,-6.500
2.147,-1.900,-13.600,-1.700,-6.100
2.148,-2.100,-13.300,-1.500,-5.700
2.149,-2.300,-13.000,-1.300,-5.200
2.150,-2.700,-12.800,-1.200,-4.600
2.151,-3.000,-12.500,-1.100,-4.000
2.152,-3.300,-12.200,-1.000,-3.500
2.153,-3.500,-12.000,-1.000,-3.100
2.154,-3.700,-11.900,-0.800,-2.700
2.155,-3.900,-11.900,-0.700,-2.400
2.156,-4.000,-12.100,-0.600,-2.200
2.157,-4.200,-12.400,-0.500,-2.200
2.158,-4.400,-12.700,-0.400,-2.200
2.159,-4.500,-13.200,-0.300,-2.300
2.160,-4.600,-13.700,-0.100,-2.500
2.161,-4.700,-14.300,0.100,-2.700
2.162,-4.700,-14.800,0.300,-3.000
2.163,-4.700,-15.200,0.500,-3.400
2.164,-4.800,-15.400,0.700,-3.700
2.165,-5.100,-15.500,0.800,-4.000
2.166,-5.400,-15.500,1.000,-4.300
2.167,-5.800,-15.400,1.100,-4.600
2.168,-6.300,-15.400,1.300,-4.800
2.169,-6.700,-15.400,1.500,-5.000
2.170,-7.300,-15.400,1.700,-5.200
2.171,-7.800,-15.300,1.900,-5.200
2.172,-8.400,-15.100,2.000,-5.200
2.173,-8.800,-14.800,2.200,-5.000
2.174,-9.100,-14.400,2.200,-4.800
2.175,-9.200,-13.900,2.300,-4.600
2.176,-9.000,-13.300,2.200,-4.600
2.177,-8.600,-12.500,2.100,-4.600
2.178,-7.800,-11.800,1.800,-4.700
2.179,-6.700,-11.100,1.600,-4.900
2.180,-5.400,-10.300,1.200,-5.300
2.181,-4.000,-9.600,0.900,-6.000
2.182,-2.400,-8.800,0.500,-6.900
2.183,-0.900,-8.000,0.300,-7.800
2.184,0.500,-7.300,0.200,-8.900
2.185,1.600,-6.500,0.200,-10.000
2.186,2.500,-5.600,0.400,-11.000
2.187,3.100,-4.800,0.700,-12.000
2.188,3.500,-4.000,0.800,-12.700
2.189,3.900,-3.400,0.700,-12.900
2.190,4.100,-2.900,0.400,-12.600
2.191,4.100,-2.600,0.200,-11.900
2.192,3.600,-2.300,0.100,-11.000
2.193,2.700,-2.100,0.200,-10.100
2.194,1.400,-2.000,0.500,-9.100
2.195,-0.100,-1.900,0.900,-8.000
2.196,-1.500,-1.900,1.300,-6.900
2.197,-2.700,-1.800,1.700,-5.600
2.198,-3.500,-1.800,1.900,-4.200
2.199,-4.000,-1.700,2.000,-2.800
2.200,-4.200,-1.500,1.900,-1.500
2.201,-4.300,-1.400,1.800,-0.300
2.202,-4.200,-1.400,1.600,0.800
2.203,-4.100,-1.400,1.500,1.800
2.204,-4.000,-1.400,1.300,2.700
2.205,-3.900,-1.500,1.300,3.300
2.206,-3.900,-1.500,1.200,3.700
2.207,-3.900,-1.700,1.200,3.900
2.208,-3.900,-1.800,1.200,3.900
2.209,-3.900,-2.000,1.200,3.800
2.210,-3.800,-2.100,1.100,3.700
2.211,-3.700,-2.100,1.100,3.500
2.212,-3.600,-2.100,1.000,3.300
2.213,-3.500,-2.100,0.900,2.900
2.214,-3.300,-2.100,0.900,2.500
2.215,-3.200,-2.100,0.800,2.000
2.216,-3.000,-2.100,0.800,1.500
2.217,-3.000,-2.100,0.800,1.100
2.218,-3.000,-2.000,0.800,0.700
2.219,-3.100,-1.800,0.800,0.400
2.220,-3.100,-1.600,0.700,0.100
2.221,-3.100,-1.400,0.700,-0.200
2.222,-3.000,-1.200,0.700,-0.400
2.223,-2.900,-1.000,0.700,-0.600
2.224,-2.800,-0.900,0.700,-0.700
2.225,-2.700,-0.800,0.700,-0.700
2.226,-2.600,-0.800,0.600,-0.700
2.227,-2.400,-0.800,0.500,-0.700
2.228,-2.300,-0.900,0.500,-0.700
2.229,-2.100,-1.100,0.400,-0.600
2.230,-2.000,-1.400,0.300,-0.600
2.231,-1.800,-1.800,0.300,-0.500
2.232,-1.600,-2.100,0.300,-0.400
2.233,-1.500,-2.300,0.300,-0.400
2.234,-1.500,-2.200,0.400,-0.500
2.235,-1.400,-2.000,0.400,-0.500
2.236,-1.400,-1.900,0.400,-0.500
2.237,-1.400,-2.200,0.400,-0.400
2.238,-1.400,-2.600,0.400,-0.300
2.239,-1.400,-3.000,0.400,-0.400
2.240,-1.400,-3.100,0.400,-0.500
2.241,-1.500,-2.900,0.500,-0.700
2.242,-1.500,-2.600,0.500,-0.900
2.243,-1.500,-2.300,0.600,-1.100
2.244,-1.400,-2.100,0.700,-1.400
2.245,-1.300,-1.800,0.600,-1.700
2.246,-1.100,-1.500,0.600,-2.100
2.247,-1.000,-1.200,0.500,-2.400
2.248,-0.900,-0.900,0.600,-2.600
2.249,-0.800,-0.800,0.700,-2.600
2.250,-0.800,-0.500,0.700,-2.700
2.251,-0.900,-0.300,0.500,-2.700
2.252,-0.900,-0.100,0.400,-2.700
2.253,-1.000,0.100,0.200,-2.300
2.254,-1.000,0.100,0.200,-1.700
2.255,-1.100,-0.100,0.200,-1.000
2.256,-1.100,-0.200,0.200,-0.800
2.257,-1.100,-0.300,0.200,-1.000
2.258,-1.100,-0.300,0.100,-1.400
2.259,-1.000,-0.300,0.100,-1.500
2.260,-0.900,-0.400,0.000,-0.800
2.261,-0.900,-0.700,0.000,0.500
2.262,-0.800,-0.900,0.000,1.700
2.263,-0.600,-1.100,0.000,2.300
2.264,-0.500,-1.400,-0.100,2.300
2.265,-0.300,-1.500,-0.100,2.000
2.266,-0.100,-1.600,0.000,1.900
2.267,0.000,-1.800,0.100,2.000
2.268,0.100,-2.000,0.200,2.200
2.269,0.200,-2.200,0.200,2.100
2.270,0.400,-2.400,0.300,1.900
2.271,0.500,-2.600,0.300,1.500
2.272,0.500,-2.800,0.300,1.300
2.273,0.500,-2.900,0.300,1.000
2.274,0.300,-3.000,0.300,0.700
2.275,-0.100,-3.000,0.300,0.400
2.276,-0.400,-2.900,0.300,0.000
2.277,-0.700,-2.700,0.300,-0.400
2.278,-1.000,-2.600,0.200,-0.800
2.279,-1.400,-2.400,0.200,-1.200
2.280,-1.800,-2.200,0.100,-1.600
2.281,-2.100,-2.000,0.100,-2.000
2.282,-2.300,-1.800,0.000,-2.300
2.283,-2.400,-1.700,-0.100,-2.700
2.284,-2.500,-1.600,-0.100,-3.000
2.285,-2.600,-1.600,-0.200,-3.300
2.286,-2.500,-1.500,-0.300,-3.500
2.287,-2.500,-1.500,-0.300,-3.800
2.288,-2.400,-1.500,-0.300,-4.000
2.289,-2.300,-1.500,-0.400,-4.100
2.290,-2.100,-1.600,-0.300,-4.200
2.291,-1.800,-1.700,-0.300,-4.300
2.292,-1.400,-1.800,-0.300,-4.200
2.293,-1.000,-1.900,-0.200,-4.100
2.294,-0.600,-1.900,-0.200,-3.900
2.295,-0.200,-1.900,-0.100,-3.500
2.296,0.300,-1.900,-0.100,-3.100
2.297,0.800,-1.800,0.000,-2.700
2.298,1.400,-1.800,0.000,-2.400
2.299,2.100,-1.900,0.100,-2.100
2.300,2.600,-2.000,0.100,-1.800
2.301,2.900,-2.100,0.200,-1.600
2.302,3.100,-2.300,0.200,-1.400
2.303,3.200,-2.400,0.300,-1.200
2.304,3.300,-2.500,0.300,-1.100
2.305,3.400,-2.600,0.400,-1.200
2.306,3.300,-2.700,0.400,-1.300
2.307,3.200,-2.700,0.500,-1.400
2.308,3.100,-2.700,0.500,-1.400
2.309,3.000,-2.700,0.500,-1.400
2.310,3.100,-2.700,0.500,-1.400
2.311,3.200,-2.800,0.600,-1.400
2.312,3.300,-2.800,0.700,-1.400
2.313,3.300,-2.800,0.700,-1.400
2.314,3.200,-2.700,0.800,-1.400
2.315,3.000,-2.600,0.900,-1.300
2.316,2.700,-2.400,0.900,-1.300
2.317,2.400,-2.400,1.000,-1.200
2.318,1.900,-2.600,1.000,-1.100
2.319,1.400,-2.800,1.100,-1.000
2.320,0.900,-3.100,1.200,-0.900
2.321,0.400,-3.200,1.300,-0.800
2.322,0.000,-3.300,1.400,-0.800
2.323,-0.500,-3.300,1.500,-0.700
2.324,-0.900,-3.400,1.600,-0.600
2.325,-1.300,-3.700,1.700,-0.500
2.326,-1.500,-4.000,1.800,-0.500
2.327,-1.700,-4.200,1.900,-0.400
2.328,-1.900,-4.400,2.100,-0.400
2.329,-2.100,-4.600,2.200,-0.300
2.330,-2.200,-4.700,2.400,-0.200
2.331,-2.400,-4.800,2.500,-0.200
2.332,-2.600,-5.000,2.600,-0.200
2.333,-2.900,-5.100,2.700,-0.400
2.334,-3.300,-5.200,2.800,-0.600
2.335,-3.700,-5.300,2.900,-0.700
2.336,-4.200,-5.400,2.900,-0.800
2.337,-4.500,-5.600,3.000,-0.800
2.338,-4.800,-5.800,3.000,-0.900
2.339,-5.200,-6.100,3.100,-1.000
2.340,-5.500,-6.400,3.200,-1.200
2.341,-5.800,-6.600,3.300,-1.300
2.342,-6.100,-6.500,3.300,-1.400
2.343,-6.300,-6.500,3.400,-1.600
2.344,-6.500,-6.400,3.500,-1.700
2.345,-6.600,-6.500,3.600,-1.800
2.346,-7.000,-6.700,3.800,-2.000
2.347,-7.300,-7.000,3.800,-2.200
2.348,-7.800,-7.200,3.900,-2.300
2.349,-8.300,-7.400,4.000,-2.500
2.350,-8.900,-7.700,4.100,-2.700
2.351,-9.400,-7.900,4.100,-2.800
2.352,-10.100,-8.200,4.200,-2.900
2.353,-10.800,-8.500,4.300,-3.000
2.354,-11.500,-8.900,4.300,-3.100
2.355,-12.300,-9.100,4.400,-3.200
2.356,-13.100,-9.200,4.400,-3.300
2.357,-13.900,-9.200,4.500,-3.400
2.358,-14.600,-9.200,4.500,-3.500
2.359,-15.400,-9.200,4.600,-3.600
2.360,-16.100,-9.100,4.700,-3.600
2.361,-16.700,-8.800,4.700,-3.600
2.362,-17.300,-8.500,4.800,-3.600
2.363,-17.800,-8.200,4.900,-3.600
2.364,-18.300,-7.900,5.000,-3.500
2.365,-18.600,-7.800,5.100,-3.300
2.366,-18.800,-7.700,5.300,-3.200
2.367,-19.000,-7.700,5.400,-3.000
2.368,-19.100,-7.600,5.500,-3.000
2.369,-19.300,-7.500,5.700,-3.000
2.370,-19.400,-7.500,5.800,-3.000
2.371,-19.500,-7.500,5.900,-3.000
2.372,-19.600,-7.600,6.100,-3.000
2.373,-19.700,-7.700,6.200,-3.000
2.374,-19.800,-7.700,6.300,-3.000
2.375,-19.900,-7.600,6.400,-3.000
2.376,-20.000,-7.600,6.500,-3.000
2.377,-20.100,-7.600,6.600,-3.000
2.378,-20.200,-7.800,6.700,-2.900
2.379,-20.300,-7.900,6.700,-2.800
2.380,-20.300,-8.100,6.700,-2.700
2.381,-20.500,-8.200,6.600,-2.600
2.382,-20.600,-8.300,6.600,-2.600
2.383,-20.700,-8.300,6.500,-2.600
2.384,-20.700,-8.400,6.400,-2.600
2.385,-20.600,-8.500,6.400,-2.800
2.386,-20.400,-8.700,6.300,-3.000
2.387,-20.200,-8.800,6.300,-3.300
2.388,-19.800,-8.900,6.300,-3.700
2.389,-19.400,-8.900,6.200,-4.000
2.390,-18.900,-9.000,6.100,-4.300
2.391,-18.300,-9.100,6.000,-4.600
2.392,-17.700,-9.300,5.900,-4.800
2.393,-17.100,-9.400,5.800,-5.000
2.394,-16.600,-9.500,5.700,-5.200
2.395,-16.100,-9.600,5.500,-5.200
2.396,-15.600,-9.800,5.300,-5.200
2.397,-15.200,-10.000,5.100,-4.900
2.398,-14.700,-10.200,4.900,-4.700
2.399,-14.400,-10.500,4.700,-4.500
2.400,-14.000,-10.700,4.600,-4.300
2.401,-13.600,-10.900,4.400,-4.100
2.402,-13.300,-11.000,4.200,-4.000
2.403,-13.000,-11.100,4.000,-3.800
2.404,-12.800,-11.100,3.800,-3.600
2.405,-12.500,-11.000,3.600,-3.500
2.406,-12.200,-10.700,3.400,-3.500
2.407,-12.000,-10.300,3.300,-3.500
2.408,-11.700,-9.800,3.200,-3.500
2.409,-11.600,-9.300,3.000,-3.400
2.410,-11.500,-8.800,2.900,-3.400
2.411,-11.400,-8.400,2.800,-3.300
2.412,-11.300,-7.800,2.700,-3.400
2.413,-11.100,-7.300,2.700,-3.400
2.414,-10.900,-6.700,2.700,-3.600
2.415,-10.700,-6.000,2.700,-3.700
2.416,-10.500,-5.400,2.600,-3.800
2.417,-10.200,-4.800,2.400,-3.900
2.418,-9.800,-4.300,2.300,-3.900
2.419,-9.400,-3.900,2.200,-3.900
2.420,-9.000,-3.500,2.100,-3.900
2.421,-8.600,-3.200,2.000,-4.000
2.422,-8.200,-2.800,1.900,-4.000
2.423,-7.800,-2.400,1.800,-3.900
2.424,-7.300,-2.100,1.700,-3.800
2.425,-6.700,-1.800,1.600,-3.500
2.426,-6.000,-1.600,1.400,-3.200
2.427,-5.400,-1.400,1.200,-2.900
2.428,-4.700,-1.200,1.000,-2.500
2.429,-4.100,-1.000,0.800,-2.100
2.430,-3.500,-1.000,0.600,-1.700
2.431,-3.000,-0.900,0.400,-1.200
2.432,-2.500,-0.900,0.300,-0.700
2.433,-2.000,-0.900,0.200,-0.100
2.434,-1.600,-0.600,0.100,0.400
2.435,-1.100,-0.400,0.000,0.800
2.436,-0.800,-0.200,-0.100,1.300
2.437,-0.500,-0.300,-0.200,1.600
2.438,-0.400,-0.500,-0.200,2.000
2.439,-0.200,-0.700,-0.300,2.200
2.440,-0.100,-0.800,-0.400,2.300
2.441,-0.100,-0.700,-0.500,2.300
2.442,0.000,-0.600,-0.700,2.100
2.443,0.000,-0.500,-0.700,1.800
2.444,-0.100,-0.500,-0.800,1.400
2.445,-0.200,-0.500,-0.900,1.100
2.446,-0.300,-0.400,-1.000,0.800
2.447,-0.400,-0.200,-1.100,0.500
2.448,-0.300,0.000,-1.100,0.200
2.449,-0.100,0.200,-1.200,-0.100
2.450,0.100,0.400,-1.200,-0.400
2.451,0.500,0.600,-1.300,-0.500
2.452,0.900,0.800,-1.500,-0.600
2.453,1.500,1.000,-1.600,-0.700
2.454,2.200,1.100,-1.700,-0.700
2.455,2.800,1.200,-1.800,-0.800
2.456,3.200,1.300,-1.800,-0.900
2.457,3.500,1.500,-1.900,-0.800
2.458,3.800,1.800,-2.000,-0.800
2.459,3.900,2.000,-2.000,-0.700
2.460,4.000,2.200,-2.000,-0.800
2.461,4.000,2.400,-1.900,-0.900
2.462,3.800,2.500,-1.900,-1.000
2.463,3.400,2.600,-1.900,-1.100
2.464,3.000,2.700,-1.900,-1.100
2.465,2.800,2.800,-1.800,-1.000
2.466,2.600,2.900,-1.800,-1.100
2.467,2.500,2.900,-1.800,-1.100
2.468,2.400,2.800,-1.800,-1.000
2.469,2.300,2.700,-1.800,-0.700
2.470,2.300,2.600,-1.800,-0.300
2.471,2.300,2.400,-1.700,0.100
2.472,2.500,2.300,-1.700,0.500
2.473,2.700,2.100,-1.600,1.000
2.474,3.000,1.800,-1.600,1.400
2.475,3.300,1.600,-1.600,1.800
2.476,3.500,1.500,-1.600,2.200
2.477,3.700,1.400,-1.600,2.600
2.478,3.900,1.300,-1.600,2.800
2.479,4.100,1.200,-1.600,2.900
2.480,4.200,1.200,-1.600,2.900
2.481,4.300,1.200,-1.700,2.900
2.482,4.300,1.400,-1.700,2.800
2.483,4.300,1.700,-1.700,2.600
2.484,4.200,2.100,-1.700,2.400
2.485,4.100,2.400,-1.700,2.100
2.486,4.000,2.800,-1.700,1.700
2.487,3.800,3.000,-1.600,1.500
2.488,3.600,3.300,-1.600,1.200
2.489,3.400,3.600,-1.500,1.000
2.490,3.300,4.000,-1.400,0.900
2.491,3.200,4.300,-1.300,0.800
2.492,3.200,4.600,-1.100,0.600
2.493,3.300,4.700,-0.900,0.500
2.494,3.500,4.900,-0.700,0.500
2.495,3.800,5.000,-0.400,0.700
2.496,4.100,5.100,-0.100,0.900
2.497,4.500,5.300,0.300,1.200
2.498,4.800,5.400,0.800,1.600
2.499,5.200,5.500,1.400,2.100
2.500,5.500,5.500,2.000,2.600
2.501,5.900,5.500,2.600,3.300
2.502,6.200,5.400,3.100,4.000
2.503,6.400,5.300,3.700,4.700
2.504,6.600,5.300,4.200,5.400
2.505,6.900,5.300,4.800,6.000
2.506,7.000,5.300,5.300,6.500
2.507,7.200,5.300,5.700,7.100
2.508,7.300,5.300,6.100,7.700
2.509,7.300,5.400,6.400,8.200
2.510,7.200,5.400,6.700,8.700
2.511,7.000,5.600,7.000,9.200
2.512,6.800,5.700,7.300,9.700
2.513,6.500,5.800,7.600,10.200
2.514,6.300,5.900,7.900,10.700
2.515,6.000,5.900,8.200,11.100
2.516,5.700,5.900,8.300,11.400
2.517,5.400,6.000,8.400,11.500
2.518,5.200,6.000,8.400,11.500
2.519,4.900,6.000,8.200,11.500
2.520,4.800,6.000,8.000,11.400
2.521,4.800,6.100,7.700,11.100
2.522,4.800,6.100,7.300,10.600
2.523,4.800,6.100,6.700,10.000
2.524,4.900,6.000,6.100,9.200
2.525,4.900,5.800,5.400,8.300
2.526,5.100,5.500,4.700,7.300
2.527,5.200,5.000,3.900,6.400
2.528,5.400,4.400,3.000,5.400
2.529,5.500,3.700,2.000,4.400
2.530,5.400,3.000,1.000,3.300
2.531,5.300,2.200,-0.100,2.200
2.532,5.300,1.200,-1.200,1.100
2.533,5.600,-0.100,-2.300,-0.100
2.534,6.300,-1.800,-3.500,-1.400
2.535,7.100,-3.700,-4.900,-2.800
2.536,7.900,-5.700,-6.400,-4.200
2.537,8.600,-7.800,-8.000,-5.900
2.538,9.100,-10.200,-9.700,-7.600
2.539,9.800,-13.000,-11.600,-9.600
2.540,10.800,-16.500,-13.600,-11.700
2.541,12.100,-20.600,-15.800,-14.200
2.542,13.500,-25.100,-18.100,-17.000
2.543,14.900,-30.200,-20.600,-20.100
2.544,16.000,-35.800,-23.200,-23.400
2.545,17.100,-42.100,-25.800,-27.000
2.546,18.100,-49.000,-28.500,-30.700
2.547,18.800,-56.500,-31.100,-34.700
2.548,19.100,-64.200,-33.500,-38.800
2.549,18.800,-72.000,-35.600,-43.200
2.550,17.400,-79.800,-37.300,-47.600
2.551,15.100,-87.400,-38.500,-51.800
2.552,11.600,-94.900,-39.100,-55.800
2.553,7.400,-102.000,-39.200,-59.500
2.554,2.700,-108.300,-38.700,-62.800
2.555,-1.700,-113.400,-38.000,-65.400
2.556,-5.500,-117.000,-37.300,-67.400
2.557,-8.000,-119.000,-36.800,-68.400
2.558,-9.200,-119.200,-36.400,-68.500
2.559,-9.400,-117.600,-36.000,-67.700
2.560,-9.100,-114.400,-35.300,-66.000
2.561,-9.100,-109.700,-34.100,-63.400
2.562,-9.700,-103.600,-32.200,-60.200
2.563,-11.000,-96.400,-29.500,-56.100
2.564,-12.900,-88.100,-26.200,-51.400
2.565,-15.400,-79.000,-22.300,-46.200
2.566,-18.000,-69.100,-17.900,-40.600
2.567,-20.900,-58.800,-13.300,-34.900
2.568,-23.800,-48.400,-8.600,-28.900
2.569,-27.000,-38.100,-3.800,-23.000
2.570,-30.300,-28.100,0.900,-17.200
2.571,-33.900,-18.700,5.600,-11.700
2.572,-37.500,-10.100,10.100,-6.700
2.573,-41.200,-2.300,14.400,-2.100
2.574,-44.600,4.600,18.300,1.800
2.575,-47.600,10.400,21.700,5.100
2.576,-49.800,15.300,24.500,7.900
2.577,-51.000,19.100,26.500,10.100
2.578,-50.800,22.000,27.600,11.700
2.579,-49.200,24.200,27.800,12.900
2.580,-45.800,25.800,27.100,13.800
2.581,-40.900,26.900,25.400,14.200
2.582,-34.500,27.800,23.000,14.500
2.583,-27.200,28.400,19.900,14.500
2.584,-19.200,28.600,16.400,14.200
2.585,-11.100,28.500,12.600,13.800
2.586,-3.100,28.100,8.800,13.300
2.587,4.300,27.500,5.300,12.700
2.588,10.900,26.900,2.000,12.100
2.589,16.400,26.100,-0.800,11.400
2.590,20.700,25.100,-3.100,10.800
2.591,23.900,24.000,-4.900,10.100
2.592,26.100,22.800,-6.400,9.500
2.593,27.500,21.400,-7.400,8.900
2.594,28.200,19.900,-8.100,8.300
2.595,28.400,18.400,-8.500,7.700
2.596,28.200,16.900,-8.700,7.100
2.597,27.600,15.400,-8.800,6.500
2.598,26.900,14.000,-8.700,6.000
2.599,26.100,12.600,-8.600,5.600
2.600,25.200,11.300,-8.400,5.200
2.601,24.200,10.100,-8.200,4.900
2.602,23.200,8.900,-7.900,4.600
2.603,22.100,7.800,-7.700,4.300
2.604,20.900,6.800,-7.300,4.100
2.605,19.600,5.800,-7.000,3.900
2.606,18.300,5.000,-6.600,3.600
2.607,17.000,4.300,-6.200,3.400
2.608,15.600,3.600,-5.800,3.100
2.609,14.200,3.100,-5.400,2.900
2.610,12.700,2.600,-5.000,2.700
2.611,11.300,2.000,-4.600,2.500
2.612,9.900,1.400,-4.100,2.200
2.613,8.600,0.800,-3.600,1.800
2.614,7.300,0.200,-3.200,1.500
2.615,6.100,-0.300,-2.800,1.100
2.616,4.900,-0.800,-2.400,0.900
2.617,4.000,-1.200,-2.100,0.700
2.618,3.200,-1.500,-1.700,0.500
2.619,2.600,-1.700,-1.300,0.400
2.620,2.100,-1.900,-0.900,0.200
2.621,1.600,-2.000,-0.500,0.000
2.622,1.200,-2.200,-0.200,-0.200
2.623,0.800,-2.400,0.000,-0.400
2.624,0.400,-2.800,0.200,-0.500
2.625,0.200,-3.100,0.400,-0.600
2.626,0.000,-3.300,0.500,-0.600
2.627,-0.100,-3.400,0.600,-0.500
2.628,-0.100,-3.300,0.700,-0.400
2.629,0.000,-3.200,0.600,-0.300
2.630,0.500,-2.900,0.400,-0.200
2.631,1.200,-2.600,0.200,-0.200
2.632,2.100,-2.300,-0.100,-0.300
2.633,3.200,-2.000,-0.400,-0.400
2.634,4.300,-1.600,-0.700,-0.700
2.635,5.500,-1.200,-0.900,-1.100
2.636,6.800,-0.800,-1.300,-1.600
2.637,8.100,-0.400,-1.500,-2.400
2.638,9.400,0.000,-1.700,-3.200
2.639,10.500,0.400,-1.700,-4.100
2.640,11.100,0.800,-1.500,-5.200
2.641,11.400,1.200,-1.200,-6.200
2.642,11.500,1.600,-0.900,-7.000
2.643,11.500,1.900,-0.900,-7.500
2.644,11.600,2.000,-1.100,-7.500
2.645,11.500,2.000,-1.400,-7.100
2.646,11.200,1.800,-1.700,-6.400
2.647,10.400,1.400,-1.800,-5.700
2.648,9.300,1.000,-1.600,-4.900
2.649,8.000,0.400,-1.300,-4.200
2.650,6.600,-0.200,-0.900,-3.500
2.651,5.400,-0.800,-0.700,-2.800
2.652,4.300,-1.300,-0.500,-2.100
2.653,3.600,-1.700,-0.500,-1.600
2.654,3.200,-2.000,-0.500,-1.200
2.655,3.200,-2.300,-0.600,-1.000
2.656,3.200,-2.600,-0.700,-0.700
2.657,3.500,-2.900,-0.900,-0.400
2.658,3.700,-3.300,-1.100,-0.100
2.659,4.000,-3.600,-1.200,-0.100
2.660,4.200,-3.900,-1.200,-0.300
2.661,4.400,-4.300,-1.200,-0.700
2.662,4.500,-4.700,-1.100,-1.000
2.663,4.500,-5.100,-1.100,-1.100
2.664,4.300,-5.500,-1.000,-1.100
2.665,4.200,-5.800,-0.900,-0.900
2.666,3.900,-6.000,-0.800,-0.700
2.667,3.700,-6.000,-0.700,-0.500
2.668,3.500,-6.000,-0.700,-0.300
2.669,3.200,-6.000,-0.700,0.100
2.670,3.000,-6.000,-0.700,0.400
2.671,2.700,-5.900,-0.700,0.600
2.672,2.400,-5.600,-0.700,0.800
2.673,2.200,-5.100,-0.600,0.800
2.674,2.000,-4.500,-0.600,0.900
2.675,1.800,-3.900,-0.600,0.900
2.676,1.700,-3.300,-0.500,0.800
2.677,1.600,-2.900,-0.500,0.600
2.678,1.500,-2.600,-0.600,0.300
2.679,1.500,-2.300,-0.600,-0.100
2.680,1.500,-2.100,-0.600,-0.400
2.681,1.500,-2.100,-0.700,-0.600
2.682,1.500,-2.300,-0.700,-0.800
2.683,1.500,-2.600,-0.800,-1.000
2.684,1.500,-3.000,-0.800,-1.300
2.685,1.600,-3.400,-0.800,-1.500
2.686,1.700,-3.700,-0.800,-1.700
2.687,1.800,-4.100,-0.900,-1.900
2.688,1.900,-4.500,-0.900,-2.000
2.689,1.900,-4.900,-1.000,-2.000
2.690,2.000,-5.400,-1.000,-2.000
2.691,2.000,-5.800,-1.100,-2.000
2.692,2.100,-6.100,-1.100,-2.100
2.693,2.100,-6.300,-1.100,-2.100
2.694,2.200,-6.500,-1.100,-2.200
2.695,2.200,-6.700,-1.100,-2.300
2.696,2.200,-6.800,-1.100,-2.400
2.697,2.200,-7.000,-1.100,-2.500
2.698,2.100,-7.100,-1.100,-2.600
2.699,2.000,-7.200,-1.200,-2.700
2.700,1.900,-7.200,-1.200,-2.800
2.701,1.700,-7.200,-1.200,-3.000
2.702,1.500,-7.300,-1.200,-3.200
2.703,1.300,-7.400,-1.300,-3.400
2.704,1.000,-7.700,-1.300,-3.700
2.705,0.700,-8.000,-1.300,-3.900
2.706,0.200,-8.300,-1.400,-4.100
2.707,-0.300,-8.700,-1.500,-4.200
2.708,-0.600,-9.100,-1.600,-4.200
2.709,-0.800,-9.500,-1.800,-4.100
2.710,-0.700,-9.900,-1.900,-4.000
2.711,-0.500,-10.300,-2.000,-3.900
2.712,-0.100,-10.500,-2.200,-3.700
2.713,0.400,-10.800,-2.300,-3.500
2.714,1.000,-10.900,-2.400,-3.300
2.715,1.600,-11.100,-2.500,-3.100
2.716,2.300,-11.100,-2.600,-3.000
2.717,3.200,-10.900,-2.600,-2.900
2.718,4.100,-10.500,-2.700,-2.800
2.719,4.900,-10.100,-2.700,-2.700
2.720,5.500,-9.600,-2.800,-2.700
2.721,5.900,-9.200,-2.900,-2.700
2.722,6.100,-8.800,-2.900,-2.800
2.723,6.300,-8.300,-3.000,-2.900
2.724,6.400,-7.900,-3.000,-3.100
2.725,6.300,-7.600,-3.000,-3.300
2.726,6.100,-7.400,-3.000,-3.500
2.727,5.700,-7.200,-3.000,-3.700
2.728,5.200,-7.200,-3.100,-3.900
2.729,4.600,-7.200,-3.100,-4.100
2.730,4.300,-7.500,-3.200,-4.300
2.731,4.000,-7.900,-3.200,-4.500
2.732,3.900,-8.300,-3.300,-4.800
2.733,3.700,-8.500,-3.400,-5.200
2.734,3.600,-8.400,-3.500,-5.500
2.735,3.500,-8.300,-3.600,-5.800
2.736,3.700,-8.400,-3.700,-6.000
2.737,4.100,-9.000,-3.800,-6.200
2.738,4.500,-9.800,-3.900,-6.300
2.739,5.000,-10.600,-4.000,-6.400
2.740,5.300,-11.200,-4.100,-6.600
2.741,5.400,-11.400,-4.200,-6.700
2.742,5.600,-11.500,-4.200,-6.900
2.743,5.800,-11.700,-4.200,-7.100
2.744,5.900,-12.000,-4.200,-7.200
2.745,5.900,-12.300,-4.300,-7.400
2.746,5.800,-12.500,-4.300,-7.400
2.747,5.500,-12.600,-4.300,-7.600
2.748,5.300,-12.600,-4.300,-7.700
2.749,5.100,-12.600,-4.400,-7.800
2.750,5.000,-12.600,-4.500,-8.000
2.751,4.900,-12.400,-4.600,-8.300
2.752,4.800,-12.200,-4.700,-8.600
2.753,4.700,-12.100,-4.800,-9.000
2.754,4.800,-12.000,-4.800,-9.400
2.755,5.100,-11.900,-4.800,-9.700
2.756,5.500,-11.800,-4.900,-9.900
2.757,5.900,-11.700,-5.000,-10.100
2.758,6.400,-11.600,-5.100,-10.200
2.759,6.800,-11.500,-5.200,-10.200
2.760,7.200,-11.500,-5.200,-10.100
2.761,7.600,-11.500,-5.200,-9.900
2.762,8.000,-11.500,-5.200,-9.700
2.763,8.400,-11.600,-5.200,-9.300
2.764,8.600,-11.800,-5.200,-8.800
2.765,8.700,-12.000,-5.200,-8.300
2.766,8.700,-12.100,-5.200,-7.800
2.767,8.500,-12.300,-5.200,-7.200
2.768,8.300,-12.500,-5.200,-6.700
2.769,8.100,-12.700,-5.300,-6.100
2.770,7.800,-12.900,-5.300,-5.700
2.771,7.500,-13.200,-5.300,-5.400
2.772,7.100,-13.400,-5.200,-5.300
2.773,6.700,-13.500,-5.200,-5.400
2.774,6.400,-13.400,-5.200,-5.500
2.775,6.000,-13.200,-5.200,-5.800
2.776,5.600,-13.100,-5.200,-6.100
2.777,5.300,-13.100,-5.200,-6.600
2.778,5.000,-13.300,-5.100,-7.100
2.779,4.700,-13.600,-5.100,-7.500
2.780,4.300,-13.800,-5.100,-7.900
2.781,4.000,-13.800,-5.000,-8.100
2.782,3.600,-13.600,-4.900,-8.300
2.783,3.300,-13.300,-4.900,-8.500
2.784,3.000,-12.900,-4.900,-8.600
2.785,2.900,-12.600,-5.000,-8.600
2.786,2.800,-12.500,-5.000,-8.500
2.787,2.800,-12.300,-5.000,-8.500
2.788,2.900,-12.000,-4.900,-8.400
2.789,3.000,-11.800,-4.900,-8.200
2.790,3.400,-11.500,-4.800,-8.100
2.791,3.900,-11.300,-4.800,-7.900
2.792,4.400,-11.300,-4.700,-7.700
2.793,5.000,-11.400,-4.700,-7.500
2.794,5.400,-11.700,-4.600,-7.300
2.795,5.800,-12.000,-4.500,-7.100
2.796,6.100,-12.300,-4.400,-6.900
2.797,6.400,-12.700,-4.200,-6.700
2.798,6.500,-13.100,-4.000,-6.600
2.799,6.500,-13.400,-3.800,-6.400
2.800,6.300,-13.800,-3.600,-6.300
2.801,6.000,-14.000,-3.400,-6.300
2.802,5.500,-14.200,-3.200,-6.200
2.803,4.900,-14.300,-3.000,-6.300
2.804,4.300,-14.300,-2.800,-6.300
2.805,3.600,-14.300,-2.600,-6.400
2.806,2.900,-14.200,-2.300,-6.500
2.807,2.000,-14.000,-2.100,-6.600
2.808,1.100,-13.800,-2.000,-6.700
2.809,0.300,-13.600,-1.900,-6.800
2.810,-0.500,-13.500,-1.800,-6.900
2.811,-1.100,-13.400,-1.700,-6.900
2.812,-1.800,-13.400,-1.500,-7.000
2.813,-2.400,-13.300,-1.300,-7.000
2.814,-3.000,-13.300,-1.100,-6.900
2.815,-3.600,-13.300,-1.000,-6.800
2.816,-4.100,-13.400,-0.900,-6.600
2.817,-4.600,-13.600,-0.800,-6.500
2.818,-5.100,-13.800,-0.700,-6.200
2.819,-5.500,-13.900,-0.500,-6.000
2.820,-5.800,-13.900,-0.400,-5.600
2.821,-6.000,-14.000,-0.200,-5.200
2.822,-6.200,-14.000,-0.100,-4.800
2.823,-6.200,-14.000,0.000,-4.400
2.824,-6.100,-14.000,0.200,-4.000
2.825,-6.000,-13.700,0.300,-3.700
2.826,-5.700,-13.300,0.500,-3.400
2.827,-5.400,-12.800,0.700,-3.200
2.828,-5.100,-12.400,0.900,-3.100
2.829,-4.800,-12.000,1.100,-3.000
2.830,-4.500,-11.600,1.200,-2.900
2.831,-4.200,-11.100,1.400,-2.900
2.832,-3.900,-10.700,1.400,-3.000
2.833,-3.800,-10.200,1.500,-3.000
2.834,-3.700,-9.900,1.500,-3.000
2.835,-3.800,-9.700,1.500,-3.000
2.836,-4.000,-9.400,1.600,-3.000
2.837,-4.100,-9.100,1.700,-3.000
2.838,-4.200,-8.600,1.700,-3.000
2.839,-4.400,-8.300,1.700,-3.000
2.840,-4.700,-7.900,1.700,-3.000
2.841,-4.900,-7.700,1.700,-3.000
2.842,-5.200,-7.600,1.700,-3.000
2.843,-5.400,-7.300,1.600,-3.000
2.844,-5.600,-7.100,1.600,-3.000
2.845,-5.800,-6.800,1.600,-3.000
2.846,-5.900,-6.600,1.500,-3.000
2.847,-6.100,-6.500,1.400,-3.000
2.848,-6.100,-6.300,1.400,-3.000
2.849,-6.100,-6.000,1.400,-3.000
2.850,-6.000,-5.800,1.300,-3.100
2.851,-5.900,-5.600,1.300,-3.200
2.852,-5.800,-5.400,1.300,-3.300
2.853,-5.500,-5.200,1.300,-3.400
2.854,-5.200,-4.900,1.300,-3.500
2.855,-4.900,-4.700,1.300,-3.500
2.856,-4.600,-4.500,1.300,-3.500
2.857,-4.300,-4.300,1.300,-3.500
2.858,-4.000,-4.200,1.400,-3.500
2.859,-3.800,-4.200,1.400,-3.300
2.860,-3.500,-4.100,1.300,-3.100
2.861,-3.200,-4.000,1.300,-2.800
2.862,-3.000,-3.900,1.200,-2.500
2.863,-2.800,-3.800,1.100,-2.200
2.864,-2.600,-3.600,1.100,-1.900
2.865,-2.400,-3.400,1.100,-1.500
2.866,-2.100,-3.200,1.000,-1.200
2.867,-1.800,-2.900,0.900,-0.800
2.868,-1.600,-2.600,0.800,-0.400
2.869,-1.400,-2.200,0.700,0.000
2.870,-1.300,-1.800,0.600,0.200
2.871,-1.100,-1.400,0.600,0.400
2.872,-1.000,-1.000,0.600,0.500
2.873,-0.900,-0.800,0.600,0.600
2.874,-0.900,-0.600,0.600,0.800
2.875,-0.900,-0.600,0.600,0.800
2.876,-1.000,-0.700,0.500,0.800
2.877,-1.200,-0.900,0.500,0.700
2.878,-1.400,-1.100,0.500,0.600
2.879,-1.600,-1.300,0.500,0.500
2.880,-1.800,-1.500,0.500,0.400
2.881,-2.100,-1.700,0.500,0.400
2.882,-2.300,-1.800,0.500,0.400
2.883,-2.500,-1.900,0.600,0.300
2.884,-2.600,-2.000,0.600,0.300
2.885,-2.600,-2.000,0.500,0.300
2.886,-2.600,-1.900,0.500,0.300
2.887,-2.400,-1.900,0.400,0.300
2.888,-2.300,-1.800,0.400,0.300
2.889,-2.000,-1.900,0.400,0.300
2.890,-1.500,-1.900,0.400,0.200
2.891,-0.900,-1.900,0.400,0.200
2.892,-0.400,-1.700,0.300,0.200
2.893,0.100,-1.500,0.300,0.100
2.894,0.500,-1.200,0.200,0.000
2.895,0.900,-1.000,0.200,0.000
2.896,1.200,-0.800,0.200,-0.100
2.897,1.400,-0.500,0.200,0.000
2.898,1.600,-0.200,0.300,0.000
2.899,1.700,0.200,0.300,-0.100
2.900,1.700,0.500,0.300,-0.100
2.901,1.500,0.400,0.300,-0.100
2.902,1.300,0.200,0.400,-0.100
2.903,1.000,-0.300,0.400,-0.100
2.904,0.800,-0.900,0.400,-0.100
2.905,0.400,-1.500,0.400,-0.100
2.906,0.000,-2.200,0.400,-0.100
2.907,-0.400,-3.000,0.400,-0.100
2.908,-0.700,-3.800,0.400,-0.100
2.909,-0.900,-4.400,0.400,-0.100
2.910,-1.000,-4.700,0.400,-0.100
2.911,-1.000,-4.800,0.400,-0.200
2.912,-1.000,-4.700,0.400,-0.300
2.913,-1.100,-4.500,0.400,-0.400
2.914,-1.100,-4.200,0.400,-0.600
2.915,-1.100,-3.700,0.300,-0.800
2.916,-1.000,-3.000,0.200,-1.000
2.917,-0.800,-2.000,0.100,-1.100
2.918,-0.600,-0.800,0.000,-1.300
2.919,-0.400,0.400,0.000,-1.400
2.920,-0.300,1.400,-0.100,-1.500
2.921,-0.100,2.200,-0.100,-1.600
2.922,0.000,2.700,-0.200,-1.600
2.923,0.200,3.200,-0.200,-1.600
2.924,0.300,3.500,-0.100,-1.400
2.925,0.300,3.700,0.000,-1.100
2.926,0.300,3.700,0.000,-0.800
2.927,0.300,3.300,0.100,-0.500
2.928,0.200,2.800,0.200,-0.300
2.929,0.100,2.100,0.200,0.100
2.930,0.000,1.500,0.300,0.400
2.931,0.000,1.000,0.400,0.800
2.932,-0.100,0.600,0.400,1.000
2.933,-0.100,0.300,0.300,1.200
2.934,-0.100,0.000,0.300,1.200
2.935,-0.100,0.000,0.400,1.200
2.936,-0.100,0.100,0.400,1.100
2.937,-0.100,0.400,0.400,1.100
2.938,0.000,0.800,0.400,0.900
2.939,0.000,1.100,0.300,0.700
2.940,0.100,1.300,0.300,0.500
2.941,0.100,1.400,0.200,0.300
2.942,0.200,1.500,0.200,0.100
2.943,0.100,1.500,0.100,-0.100
2.944,0.100,1.400,0.100,-0.200
2.945,0.000,1.100,0.000,-0.400
2.946,0.100,0.500,-0.100,-0.500
2.947,0.100,-0.100,-0.100,-0.600
2.948,0.200,-0.800,-0.100,-0.700
2.949,0.200,-1.400,-0.100,-0.700
2.950,0.200,-2.100,-0.100,-0.700
2.951,0.200,-2.700,0.000,-0.700
2.952,0.100,-3.300,0.100,-0.700
2.953,0.100,-3.800,0.200,-0.700
2.954,0.200,-4.000,0.200,-0.700
2.955,0.300,-3.900,0.300,-0.800
2.956,0.400,-3.600,0.300,-0.800
2.957,0.400,-3.200,0.300,-0.800
2.958,0.500,-2.700,0.400,-0.800
2.959,0.600,-2.100,0.400,-0.800
2.960,0.700,-1.500,0.500,-0.700
2.961,0.800,-0.900,0.500,-0.600
2.962,0.900,-0.300,0.500,-0.500
2.963,1.000,0.200,0.500,-0.300
2.964,1.100,0.400,0.600,-0.100
2.965,1.100,0.300,0.700,0.100
2.966,1.100,-0.100,0.800,0.300
2.967,1.000,-0.700,0.800,0.500
2.968,0.900,-1.300,0.900,0.600
2.969,0.800,-2.000,0.800,0.800
2.970,0.600,-2.700,0.800,0.800
2.971,0.400,-3.500,0.900,0.900
2.972,0.300,-4.200,1.000,1.000
2.973,0.200,-4.800,1.100,1.000
2.974,0.000,-5.300,1.100,0.900
2.975,-0.100,-5.700,1.200,0.800
2.976,-0.200,-6.000,1.300,0.800
2.977,-0.400,-6.200,1.400,0.700
2.978,-0.500,-6.300,1.400,0.800
2.979,-0.600,-6.400,1.500,0.800
2.980,-0.800,-6.300,1.600,0.700
2.981,-0.900,-6.200,1.700,0.700
2.982,-1.000,-6.000,1.800,0.600
2.983,-1.100,-5.800,1.800,0.600
2.984,-1.300,-5.600,1.900,0.600
2.985,-1.300,-5.300,1.900,0.500
2.986,-1.400,-5.000,2.000,0.500
2.987,-1.500,-4.800,2.000,0.500
2.988,-1.600,-4.500,2.000,0.400
2.989,-1.700,-4.200,2.100,0.300
2.990,-1.900,-4.000,2.100,0.200
2.991,-2.100,-3.900,2.200,0.200
2.992,-2.400,-3.800,2.200,0.100
2.993,-2.600,-3.800,2.300,0.100
2.994,-2.900,-3.900,2.300,0.100
2.995,-3.200,-3.900,2.400,0.100
2.996,-3.500,-4.000,2.500,0.000
2.997,-3.800,-4.000,2.700,-0.200
2.998,-4.100,-3.900,2.800,-0.300
2.999,-4.400,-3.800,3.000,-0.400
3.000,-4.700,-3.600,3.000,-0.600
3.001,-5.100,-3.500,3.200,-0.700
3.002,-5.400,-3.500,3.200,-0.900
3.003,-5.800,-3.700,3.300,-1.000
3.004,-6.100,-4.000,3.400,-1.200
3.005,-6.500,-4.500,3.500,-1.300
3.006,-6.900,-5.100,3.600,-1.400
3.007,-7.200,-5.900,3.600,-1.500
3.008,-7.600,-6.800,3.700,-1.700
3.009,-7.900,-7.800,3.800,-1.900
3.010,-8.300,-8.700,3.800,-2.100
3.011,-8.600,-9.500,3.800,-2.200
3.012,-9.000,-10.100,3.900,-2.400
3.013,-9.400,-10.500,4.000,-2.500
3.014,-9.700,-10.800,4.100,-2.700
3.015,-10.100,-11.000,4.200,-2.800
3.016,-10.400,-11.000,4.300,-2.800
3.017,-10.800,-10.900,4.400,-2.800
3.018,-11.100,-10.400,4.500,-2.800
3.019,-11.400,-9.700,4.600,-2.700
3.020,-11.700,-9.000,4.500,-2.700
3.021,-12.000,-8.200,4.500,-2.600
3.022,-12.200,-7.300,4.500,-2.500
3.023,-12.400,-6.500,4.500,-2.400
3.024,-12.600,-5.700,4.600,-2.300
3.025,-12.800,-5.300,4.800,-2.300
3.026,-13.100,-5.200,4.900,-2.300
3.027,-13.400,-5.300,5.000,-2.300
3.028,-13.600,-5.700,5.100,-2.400
3.029,-13.900,-6.400,5.200,-2.400
3.030,-14.200,-7.700,5.300,-2.400
3.031,-14.500,-9.400,5.400,-2.400
3.032,-14.800,-11.000,5.500,-2.400
3.033,-15.100,-11.800,5.600,-2.500
3.034,-15.300,-11.600,5.700,-2.600
3.035,-15.500,-10.900,5.700,-2.700
3.036,-15.800,-10.700,5.900,-2.800
3.037,-16.100,-11.500,6.000,-2.900
3.038,-16.400,-13.100,6.100,-3.000
3.039,-16.800,-14.700,6.200,-3.100
3.040,-17.100,-15.500,6.200,-3.200
3.041,-17.400,-15.400,6.300,-3.400
3.042,-17.700,-14.800,6.300,-3.500
3.043,-18.000,-14.500,6.300,-3.600
3.044,-18.200,-14.700,6.300,-3.700
3.045,-18.400,-15.100,6.400,-3.800
3.046,-18.600,-15.400,6.400,-3.900
3.047,-18.800,-15.500,6.400,-4.000
3.048,-18.900,-15.300,6.400,-4.000
3.049,-18.900,-15.000,6.400,-4.100
3.050,-19.000,-14.500,6.400,-4.200
3.051,-19.100,-13.900,6.400,-4.300
3.052,-19.100,-13.000,6.500,-4.400
3.053,-19.100,-11.900,6.500,-4.200
3.054,-18.900,-10.500,6.500,-3.900
3.055,-18.700,-9.000,6.400,-3.600
3.056,-18.500,-7.600,6.200,-3.500
3.057,-18.300,-6.200,6.000,-3.700
3.058,-18.100,-5.000,5.900,-4.000
3.059,-17.900,-4.000,5.800,-4.100
3.060,-17.800,-3.100,5.600,-3.800
3.061,-17.500,-2.400,5.400,-3.200
3.062,-17.200,-1.900,5.200,-2.700
3.063,-16.800,-1.700,5.000,-2.500
3.064,-16.500,-1.900,4.800,-2.700
3.065,-16.100,-2.300,4.600,-2.900
3.066,-15.700,-3.000,4.400,-3.200
3.067,-15.300,-3.800,4.200,-3.300
3.068,-15.000,-4.600,4.100,-3.400
3.069,-14.700,-5.400,3.900,-3.600
3.070,-14.500,-6.300,3.800,-3.900
3.071,-14.200,-7.300,3.600,-4.200
3.072,-14.000,-8.300,3.500,-4.300
3.073,-13.700,-9.100,3.400,-4.400
3.074,-13.400,-9.800,3.300,-4.500
3.075,-13.100,-10.300,3.200,-4.500
3.076,-12.900,-10.500,3.100,-4.500
3.077,-12.600,-10.600,3.000,-4.500
3.078,-12.300,-10.500,3.000,-4.400
3.079,-12.000,-10.200,2.900,-4.200
3.080,-11.600,-9.600,2.900,-4.100
3.081,-11.300,-8.700,2.800,-3.900
3.082,-10.900,-7.700,2.700,-3.700
3.083,-10.600,-6.500,2.600,-3.400
3.084,-10.300,-5.400,2.500,-3.100
3.085,-9.900,-4.400,2.300,-2.800
3.086,-9.500,-3.500,2.200,-2.400
3.087,-9.000,-2.600,2.100,-2.000
3.088,-8.600,-1.700,2.000,-1.700
3.089,-8.200,-1.100,1.900,-1.400
3.090,-7.900,-0.700,1.800,-1.200
3.091,-7.400,-0.500,1.700,-1.000
3.092,-7.100,-0.500,1.600,-0.800
3.093,-6.700,-0.600,1.600,-0.500
3.094,-6.300,-0.700,1.500,-0.400
3.095,-5.800,-0.900,1.500,-0.300
3.096,-5.300,-1.300,1.400,-0.300
3.097,-4.800,-2.000,1.300,-0.300
3.098,-4.400,-2.800,1.100,-0.400
3.099,-4.000,-3.800,1.000,-0.500
3.100,-3.600,-4.800,0.900,-0.600
3.101,-3.300,-5.800,0.800,-0.700
3.102,-2.900,-6.500,0.700,-0.700
3.103,-2.600,-7.000,0.600,-0.700
3.104,-2.300,-7.200,0.400,-0.600
3.105,-2.100,-7.100,0.300,-0.500
3.106,-1.900,-6.900,0.200,-0.500
3.107,-1.800,-6.500,0.100,-0.600
3.108,-1.700,-6.100,0.000,-0.700
3.109,-1.600,-5.800,-0.100,-0.800
3.110,-1.600,-5.400,-0.100,-0.800
3.111,-1.700,-5.100,-0.100,-0.700
3.112,-1.700,-4.700,-0.200,-0.600
3.113,-1.600,-4.400,-0.300,-0.500
3.114,-1.400,-4.000,-0.500,-0.300
3.115,-0.900,-3.600,-0.700,-0.200
3.116,-0.200,-3.100,-1.000,-0.300
3.117,0.700,-2.400,-1.300,-0.400
3.118,1.800,-1.500,-1.600,-0.800
3.119,3.000,-0.400,-1.900,-1.300
3.120,4.400,0.800,-2.200,-2.000
3.121,5.900,2.000,-2.500,-2.700
3.122,7.400,3.200,-2.800,-3.600
3.123,8.900,4.400,-3.000,-4.600
3.124,10.200,5.500,-3.000,-5.700
3.125,11.100,6.500,-2.900,-6.900
3.126,11.700,7.200,-2.600,-8.000
3.127,12.100,7.800,-2.300,-8.800
3.128,12.500,8.300,-2.200,-9.200
3.129,12.800,8.600,-2.300,-9.200
3.130,12.900,8.900,-2.500,-8.900
3.131,12.800,8.900,-2.700,-8.300
3.132,12.200,8.700,-2.800,-7.400
3.133,11.100,8.500,-2.700,-6.500
3.134,9.700,8.200,-2.500,-5.400
3.135,8.200,7.900,-2.100,-4.300
3.136,6.600,7.500,-1.800,-3.300
3.137,5.200,6.900,-1.400,-2.200
3.138,4.000,6.200,-1.100,-1.200
3.139,3.000,5.300,-1.000,-0.200
3.140,2.300,4.200,-1.000,0.800
3.141,1.900,3.200,-1.000,1.700
3.142,1.800,2.000,-1.200,2.500
3.143,2.000,0.700,-1.300,3.100
3.144,2.100,-0.700,-1.400,3.500
3.145,2.200,-1.900,-1.500,3.900
3.146,2.300,-2.900,-1.500,4.100
3.147,2.300,-3.500,-1.500,4.100
3.148,2.300,-3.800,-1.400,4.100
3.149,2.400,-3.800,-1.400,3.900
3.150,2.400,-3.500,-1.300,3.600
3.151,2.500,-2.900,-1.300,3.300
3.152,2.600,-2.100,-1.300,3.000
3.153,2.700,-1.200,-1.300,2.500
3.154,2.800,-0.200,-1.300,2.000
3.155,2.900,1.000,-1.300,1.500
3.156,3.100,2.100,-1.300,1.200
3.157,3.200,3.200,-1.300,1.300
3.158,3.300,4.200,-1.300,1.500
3.159,3.400,5.000,-1.300,1.500
3.160,3.500,5.800,-1.300,1.300
3.161,3.600,6.400,-1.400,0.900
3.162,3.600,6.800,-1.400,0.500
3.163,3.600,7.000,-1.400,0.400
3.164,3.600,7.200,-1.400,0.400
3.165,3.600,7.300,-1.400,0.500
3.166,3.600,7.300,-1.300,0.500
3.167,3.700,7.200,-1.100,0.500
3.168,3.700,7.100,-1.000,0.400
3.169,3.800,6.900,-0.800,0.400
3.170,3.800,6.700,-0.700,0.500
3.171,3.900,6.500,-0.500,0.700
3.172,4.000,6.300,-0.300,0.900
3.173,4.000,5.800,-0.100,1.100
3.174,4.100,5.300,0.100,1.400
3.175,4.100,4.600,0.400,1.700
3.176,4.100,3.900,0.800,2.200
3.177,4.200,3.200,1.200,2.700
3.178,4.300,2.600,1.600,3.200
3.179,4.400,1.900,2.000,3.800
3.180,4.500,1.300,2.500,4.300
3.181,4.700,1.000,2.900,4.900
3.182,4.900,0.900,3.400,5.500
3.183,5.100,1.000,3.900,6.100
3.184,5.200,1.400,4.200,6.600
3.185,5.400,1.900,4.600,7.000
3.186,5.500,2.400,4.900,7.400
3.187,5.700,2.900,5.300,7.800
3.188,5.800,3.400,5.600,8.100
3.189,5.900,4.000,6.000,8.500
3.190,6.100,4.700,6.300,8.800
3.191,6.300,5.300,6.700,9.100
3.192,6.400,5.800,7.000,9.500
3.193,6.600,6.300,7.300,9.800
3.194,6.600,6.600,7.700,10.200
3.195,6.700,6.900,7.900,10.500
3.196,6.700,7.100,8.200,10.800
3.197,6.700,7.100,8.400,11.000
3.198,6.700,6.900,8.500,11.100
3.199,6.700,6.400,8.600,11.200
3.200,6.600,5.900,8.600,11.100
3.201,6.400,5.300,8.500,11.000
3.202,6.100,4.800,8.400,10.700
3.203,5.800,4.400,8.100,10.300
3.204,5.500,4.000,7.700,9.900
3.205,5.300,3.800,7.300,9.400
3.206,5.200,3.600,6.700,8.800
3.207,4.900,3.600,6.200,8.100
3.208,4.700,3.400,5.500,7.300
3.209,4.500,3.100,4.900,6.400
3.210,4.300,2.500,4.100,5.500
3.211,4.200,1.900,3.400,4.500
3.212,4.100,1.300,2.600,3.600
3.213,4.200,0.700,1.800,2.700
3.214,4.300,0.100,1.100,1.700
3.215,4.600,-0.500,0.200,0.700
3.216,4.900,-1.100,-0.700,-0.300
3.217,5.400,-1.600,-1.700,-1.300
3.218,5.900,-2.000,-2.800,-2.400
3.219,6.600,-2.400,-3.900,-3.500
3.220,7.200,-3.000,-5.200,-4.800
3.221,8.000,-4.200,-6.500,-6.200
3.222,8.900,-5.800,-7.900,-7.700
3.223,9.800,-7.900,-9.500,-9.300
3.224,10.900,-10.300,-11.000,-11.000
3.225,12.100,-13.000,-12.700,-12.700
3.226,13.200,-16.400,-14.500,-14.700
3.227,14.400,-20.500,-16.400,-16.800
3.228,15.600,-25.200,-18.400,-19.100
3.229,16.800,-30.400,-20.500,-21.500
3.230,17.900,-35.400,-22.700,-24.100
3.231,18.800,-40.400,-24.900,-27.000
3.232,19.700,-45.600,-27.200,-30.000
3.233,20.400,-51.500,-29.500,-33.300
3.234,21.000,-58.200,-31.700,-36.800
3.235,21.200,-65.200,-33.800,-40.200
3.236,20.900,-71.800,-35.600,-43.800
3.237,19.900,-77.300,-37.200,-47.300
3.238,18.100,-82.200,-38.400,-50.800
3.239,15.500,-87.200,-39.200,-54.300
3.240,12.200,-92.900,-39.500,-57.600
3.241,8.300,-99.100,-39.500,-60.800
3.242,4.300,-105.300,-39.100,-63.700
3.243,0.400,-110.600,-38.600,-66.200
3.244,-3.000,-115.000,-38.000,-68.200
3.245,-5.600,-118.400,-37.500,-69.600
3.246,-7.200,-121.000,-37.200,-70.500
3.247,-7.800,-,-36.900,-70.700
3.248,-7.800,-,-36.500,-70.200
3.249,-7.400,-121.200,-35.900,-69.200
3.250,-7.100,-118.500,-35.100,-67.500
3.251,-7.200,-114.600,-33.700,-65.100
3.252,-7.700,-109.600,-31.800,-62.100
3.253,-8.900,-103.500,-29.400,-58.500
3.254,-10.400,-96.200,-26.400,-54.400
3.255,-12.300,-87.800,-23.100,-50.000
3.256,-14.500,-78.600,-19.500,-45.400
3.257,-16.800,-68.900,-15.800,-40.600
3.258,-19.200,-59.100,-11.900,-35.700
3.259,-21.600,-49.200,-7.900,-30.800
3.260,-24.200,-39.500,-3.900,-25.800
3.261,-26.800,-30.100,0.200,-20.900
3.262,-29.700,-21.300,4.200,-16.200
3.263,-32.600,-13.200,8.200,-11.800
3.264,-35.600,-5.900,11.900,-7.900
3.265,-38.600,0.400,15.400,-4.300
3.266,-41.400,5.900,18.700,-1.200
3.267,-43.900,10.600,21.600,1.600
3.268,-45.900,14.700,24.100,4.100
3.269,-47.300,18.000,26.000,6.400
3.270,-47.900,20.700,27.400,8.300
3.271,-47.500,23.000,28.100,9.900
3.272,-46.100,24.900,28.000,11.200
3.273,-43.600,26.500,27.300,12.200
3.274,-40.100,27.900,25.900,13.000
3.275,-35.500,28.900,24.000,13.600
3.276,-30.000,29.500,21.500,13.900
3.277,-24.000,29.700,18.800,14.000
3.278,-17.500,29.600,15.700,13.900
3.279,-11.000,29.100,12.500,13.600
3.280,-4.600,28.400,9.300,13.200
3.281,1.500,27.300,6.200,12.700
3.282,7.100,26.000,3.300,12.100
3.283,12.000,24.600,0.800,11.500
3.284,16.300,23.100,-1.500,10.700
3.285,19.700,21.600,-3.500,9.800
3.286,22.400,20.100,-5.100,8.900
3.287,24.400,18.600,-6.400,8.200
3.288,25.900,17.300,-7.300,7.500
3.289,26.900,16.300,-8.000,6.900
3.290,27.400,15.700,-8.400,6.400
3.291,27.700,15.300,-8.700,5.900
3.292,27.600,15.100,-8.900,5.300
3.293,27.300,14.800,-8.900,4.800
3.294,26.800,14.300,-8.900,4.500
3.295,26.200,13.800,-8.700,4.200
3.296,25.400,13.100,-8.500,4.100
3.297,24.600,12.300,-8.300,4.100
3.298,23.700,11.300,-8.100,4.000
3.299,22.700,10.000,-7.800,4.000
3.300,21.700,8.400,-7.600,3.900
3.301,20.700,6.700,-7.200,3.800
3.302,19.700,4.900,-6.900,3.800
3.303,18.800,3.400,-6.600,3.700
3.304,17.800,2.000,-6.300,3.500
3.305,16.700,0.800,-6.000,3.300
3.306,15.700,-0.200,-5.700,3.000
3.307,14.700,-1.100,-5.400,2.600
3.308,13.800,-1.800,-5.100,2.300
3.309,12.900,-2.200,-4.800,2.100
3.310,12.200,-2.400,-4.500,1.800
3.311,11.400,-2.200,-4.200,1.500
3.312,10.600,-1.900,-3.900,1.200
3.313,9.800,-1.500,-3.600,0.900
3.314,9.100,-1.000,-3.300,0.700
3.315,8.300,-0.500,-3.000,0.500
3.316,7.500,0.300,-2.700,0.400
3.317,6.800,1.300,-2.300,0.300
3.318,6.200,2.200,-2.000,0.100
3.319,5.600,3.100,-1.700,0.100
3.320,5.100,3.600,-1.400,0.000
3.321,4.600,3.800,-1.000,0.100
3.322,4.100,3.700,-0.800,0.200
3.323,3.700,3.500,-0.500,0.300
3.324,3.300,3.100,-0.300,0.600
3.325,2.900,2.600,-0.100,0.800
3.326,2.700,1.800,0.100,1.000
3.327,2.500,1.000,0.200,1.200
3.328,2.400,0.200,0.300,1.400
3.329,2.300,-0.400,0.300,1.600
3.330,2.300,-0.800,0.300,1.900
3.331,2.200,-1.000,0.300,2.100
3.332,2.100,-1.100,0.300,2.200
3.333,2.100,-1.400,0.300,2.100
3.334,2.100,-1.800,0.300,2.000
3.335,2.100,-2.100,0.200,1.800
3.336,2.100,-2.100,0.200,1.700
3.337,2.100,-2.000,0.100,1.600
3.338,2.100,-1.700,0.000,1.400
3.339,2.100,-1.500,-0.100,1.100
3.340,2.100,-1.400,-0.100,0.700
3.341,2.100,-1.400,-0.200,0.300
3.342,2.100,-1.400,-0.200,-0.100
3.343,2.200,-1.400,-0.300,-0.400
3.344,2.200,-1.400,-0.400,-0.700
3.345,2.300,-1.400,-0.400,-0.900
3.346,2.300,-1.400,-0.500,-1.200
3.347,2.400,-1.400,-0.500,-1.400
3.348,2.400,-1.500,-0.500,-1.500
3.349,2.500,-1.500,-0.600,-1.500
3.350,2.500,-1.600,-0.600,-1.500
3.351,2.400,-1.700,-0.700,-1.400
3.352,2.400,-1.800,-0.800,-1.300
3.353,2.400,-2.000,-0.800,-1.100
3.354,2.500,-2.200,-0.800,-0.900
3.355,2.600,-2.300,-0.900,-0.600
3.356,2.800,-2.300,-0.900,-0.500
3.357,2.900,-2.400,-1.000,-0.700
3.358,3.000,-2.400,-1.000,-0.800
3.359,3.200,-2.400,-1.100,-0.900
3.360,3.300,-2.300,-1.100,-0.800
3.361,3.400,-2.100,-1.000,-0.600
3.362,3.500,-1.800,-1.000,-0.400
3.363,3.400,-1.400,-1.000,-0.400
3.364,3.400,-1.100,-1.000,-0.600
3.365,3.400,-0.900,-1.000,-0.900
3.366,3.400,-0.900,-1.100,-1.200
3.367,3.500,-1.200,-1.000,-1.400
3.368,3.500,-1.600,-1.000,-1.600
3.369,3.500,-2.100,-0.900,-1.700
3.370,3.400,-2.800,-0.800,-1.900
3.371,3.300,-3.800,-0.800,-2.000
3.372,3.200,-4.800,-0.800,-2.100
3.373,3.000,-6.000,-0.800,-2.200
3.374,2.900,-7.200,-0.900,-2.200
3.375,2.800,-8.200,-0.900,-2.200
3.376,2.700,-8.900,-0.800,-2.100
3.377,2.600,-9.500,-0.800,-2.000
3.378,2.400,-10.000,-0.900,-1.900
3.379,2.300,-10.400,-0.900,-1.700
3.380,2.300,-10.600,-1.000,-1.600
3.381,2.200,-10.400,-1.100,-1.400
3.382,2.100,-9.800,-1.100,-1.300
3.383,2.100,-8.700,-1.100,-1.200
3.384,2.000,-7.300,-1.200,-1.000
3.385,2.000,-5.800,-1.200,-0.800
3.386,2.100,-4.300,-1.200,-0.600
3.387,2.100,-2.800,-1.200,-0.500
3.388,2.100,-1.500,-1.200,-0.400
3.389,2.200,-0.600,-1.100,-0.400
3.390,2.200,-0.300,-1.100,-0.500
3.391,2.100,-0.600,-1.100,-0.500
3.392,2.100,-1.400,-1.100,-0.600
3.393,2.000,-2.500,-1.100,-0.700
3.394,2.000,-3.700,-1.100,-0.800
3.395,2.000,-4.800,-1.000,-0.800
3.396,1.900,-5.800,-1.000,-0.900
3.397,1.900,-6.500,-0.900,-0.800
3.398,1.800,-6.800,-0.900,-0.800
3.399,1.700,-6.800,-0.900,-0.800
3.400,1.700,-6.300,-0.900,-0.900
3.401,1.700,-5.400,-0.900,-1.000
3.402,1.700,-4.400,-0.800,-1.100
3.403,1.800,-3.500,-0.900,-1.200
3.404,1.900,-2.900,-0.900,-1.400
3.405,1.900,-2.500,-1.000,-1.500
3.406,2.000,-2.100,-1.100,-1.700
3.407,2.100,-1.900,-1.200,-2.000
3.408,2.200,-2.100,-1.300,-2.100
3.409,2.200,-2.800,-1.300,-2.300
3.410,2.200,-3.800,-1.300,-2.500
3.411,2.200,-5.000,-1.300,-2.700
3.412,2.200,-6.000,-1.400,-2.800
3.413,2.200,-6.700,-1.400,-2.800
3.414,2.200,-7.200,-1.400,-2.700
3.415,2.300,-7.800,-1.400,-2.600
3.416,2.400,-8.200,-1.400,-2.500
3.417,2.500,-8.300,-1.400,-2.500
3.418,2.600,-8.100,-1.400,-2.400
3.419,2.600,-7.700,-1.400,-2.400
3.420,2.700,-7.300,-1.500,-2.300
3.421,2.700,-7.000,-1.500,-2.300
3.422,2.800,-6.600,-1.600,-2.400
3.423,2.900,-6.100,-1.700,-2.500
3.424,3.000,-5.700,-1.700,-2.600
3.425,3.000,-5.200,-1.800,-2.700
3.426,3.000,-4.800,-1.900,-2.800
3.427,3.000,-4.200,-1.900,-2.900
3.428,3.100,-3.600,-2.000,-2.900
3.429,3.200,-3.200,-2.100,-2.800
3.430,3.300,-3.400,-2.200,-2.700
3.431,3.200,-4.200,-2.200,-2.500
3.432,3.200,-5.100,-2.200,-2.300
3.433,3.200,-5.500,-2.200,-2.100
3.434,3.300,-5.100,-2.300,-1.900
3.435,3.400,-4.400,-2.300,-1.800
3.436,3.400,-4.300,-2.300,-1.700
3.437,3.400,-5.600,-2.400,-1.600
3.438,3.200,-7.800,-2.400,-1.600
3.439,3.000,-10.100,-2.500,-1.600
3.440,2.900,-11.400,-2.500,-1.600
3.441,3.000,-11.700,-2.500,-1.600
3.442,3.000,-11.600,-2.500,-1.600
3.443,3.000,-11.800,-2.500,-1.800
3.444,2.900,-12.500,-2.600,-2.000
3.445,2.900,-13.500,-2.600,-2.300
3.446,2.900,-14.400,-2.700,-2.600
3.447,2.900,-14.900,-2.800,-2.900
3.448,3.000,-15.300,-2.800,-3.200
3.449,3.100,-15.600,-2.800,-3.500
3.450,3.200,-16.000,-2.900,-3.800
3.451,3.300,-16.300,-3.000,-4.000
3.452,3.400,-16.300,-3.200,-4.200
3.453,3.500,-15.700,-3.400,-4.300
3.454,3.700,-14.700,-3.600,-4.500
3.455,3.900,-13.500,-3.700,-4.600
3.456,4.000,-12.100,-3.700,-4.800
3.457,4.100,-10.700,-3.700,-4.900
3.458,4.200,-9.300,-3.700,-4.900
3.459,4.300,-8.000,-3.700,-5.000
3.460,4.400,-6.700,-3.700,-5.000
3.461,4.500,-5.500,-3.700,-4.900
3.462,4.600,-4.600,-3.700,-4.800
3.463,4.500,-4.000,-3.700,-4.700
3.464,4.500,-3.600,-3.800,-4.600
3.465,4.500,-3.400,-3.800,-4.500
3.466,4.400,-3.400,-3.800,-4.300
3.467,4.300,-3.600,-3.800,-4.100
3.468,4.300,-3.900,-3.800,-3.900
3.469,4.200,-4.200,-3.800,-3.700
3.470,4.100,-4.500,-3.900,-3.500
3.471,4.000,-4.900,-3.900,-3.400
3.472,4.000,-5.500,-3.900,-3.400
3.473,3.900,-6.300,-4.000,-3.300
3.474,3.900,-7.200,-4.000,-3.300
3.475,3.800,-8.100,-4.100,-3.300
3.476,3.800,-9.000,-4.100,-3.400
3.477,3.800,-9.700,-4.100,-3.600
3.478,3.800,-10.600,-4.200,-3.900
3.479,3.700,-11.400,-4.300,-4.200
3.480,3.600,-12.100,-4.400,-4.500
3.481,3.600,-12.500,-4.500,-4.700
3.482,3.600,-12.400,-4.600,-4.800
3.483,3.600,-12.100,-4.700,-5.100
3.484,3.600,-11.700,-4.700,-5.300
3.485,3.700,-11.400,-4.700,-5.500
3.486,3.700,-11.000,-4.700,-5.700
3.487,3.700,-10.700,-4.700,-5.900
3.488,3.700,-10.400,-4.700,-5.900
3.489,3.700,-10.200,-4.700,-6.000
3.490,3.700,-10.200,-4.700,-6.000
3.491,3.700,-10.500,-4.800,-5.900
3.492,3.800,-11.100,-4.800,-5.900
3.493,3.800,-11.800,-4.800,-5.900
3.494,3.900,-12.600,-4.700,-5.900
3.495,4.000,-13.300,-4.800,-5.900
3.496,4.100,-13.900,-4.800,-5.900
3.497,4.200,-14.400,-4.900,-6.000
3.498,4.200,-14.800,-5.000,-6.200
3.499,4.200,-15.000,-5.000,-6.400
3.500,4.200,-15.000,-5.100,-6.600
3.501,4.300,-14.600,-5.100,-6.900
3.502,4.400,-13.900,-5.100,-7.200
3.503,4.500,-13.200,-5.100,-7.400
3.504,4.500,-12.400,-5.100,-7.700
3.505,4.400,-11.600,-5.100,-7.700
3.506,4.200,-10.800,-5.100,-7.700
3.507,4.000,-9.900,-5.100,-7.600
3.508,3.800,-9.000,-5.200,-7.300
3.509,3.600,-8.300,-5.200,-7.100
3.510,3.600,-7.900,-5.200,-6.700
3.511,3.500,-7.700,-5.200,-6.300
3.512,3.400,-7.800,-5.100,-5.800
3.513,3.400,-8.000,-5.000,-5.400
3.514,3.200,-8.200,-4.900,-4.900
3.515,3.100,-8.600,-4.900,-4.400
3.516,3.000,-9.200,-4.800,-4.100
3.517,3.000,-10.100,-4.800,-3.800
3.518,3.000,-11.300,-4.800,-3.500
3.519,3.100,-12.300,-4.800,-3.300
3.520,3.200,-13.100,-4.800,-3.100
3.521,3.300,-13.400,-4.800,-3.000
3.522,3.400,-13.300,-4.800,-3.000
3.523,3.500,-13.100,-4.700,-3.200
3.524,3.600,-12.700,-4.700,-3.400
3.525,3.600,-12.100,-4.700,-3.700
3.526,3.600,-11.100,-4.700,-4.000
3.527,3.600,-9.800,-4.600,-4.200
3.528,3.600,-8.500,-4.600,-4.400
3.529,3.600,-7.300,-4.500,-4.600
3.530,3.500,-6.800,-4.400,-4.700
3.531,3.400,-6.800,-4.200,-4.900
3.532,3.200,-6.900,-4.100,-5.100
3.533,3.100,-6.600,-4.000,-5.200
3.534,3.000,-6.000,-3.800,-5.300
3.535,3.000,-5.600,-3.700,-5.400
3.536,2.800,-6.000,-3.500,-5.400
3.537,2.500,-7.400,-3.400,-5.400
3.538,2.000,-9.600,-3.300,-5.400
3.539,1.500,-11.700,-3.200,-5.400
3.540,1.100,-13.200,-3.000,-5.400
3.541,0.900,-14.200,-2.900,-5.300
3.542,0.700,-15.000,-2.800,-5.100
3.543,0.400,-15.900,-2.700,-5.000
3.544,0.100,-16.800,-2.600,-5.000
3.545,-0.200,-17.500,-2.600,-4.900
3.546,-0.400,-17.700,-2.500,-4.900
3.547,-0.600,-17.600,-2.400,-4.800
3.548,-0.800,-17.300,-2.200,-4.700
3.549,-0.900,-17.100,-2.000,-4.600
3.550,-1.200,-17.000,-1.800,-4.500
3.551,-1.400,-16.700,-1.800,-4.300
3.552,-1.500,-16.400,-1.900,-4.300
3.553,-1.700,-15.900,-2.000,-4.200
3.554,-1.800,-15.400,-2.000,-4.200
3.555,-1.900,-14.900,-1.900,-4.100
3.556,-2.000,-14.500,-1.700,-4.100
3.557,-2.100,-14.100,-1.500,-4.200
3.558,-2.200,-13.900,-1.400,-4.400
3.559,-2.300,-13.900,-1.200,-4.600
3.560,-2.400,-14.100,-1.000,-4.800
3.561,-2.600,-14.100,-0.700,-4.900
3.562,-2.800,-14.100,-0.500,-5.000
3.563,-3.100,-14.300,-0.300,-5.000
3.564,-3.300,-14.800,-0.100,-5.000
3.565,-3.700,-15.800,0.100,-5.000
3.566,-4.000,-17.100,0.300,-5.100
3.567,-4.400,-18.400,0.600,-5.200
3.568,-4.900,-19.700,0.800,-5.300
3.569,-5.500,-21.000,1.000,-5.300
3.570,-6.100,-22.400,1.200,-5.300
3.571,-6.800,-23.700,1.300,-5.200
3.572,-7.300,-24.500,1.500,-5.200
3.573,-7.700,-24.400,1.500,-5.100
3.574,-7.700,-23.500,1.500,-5.200
3.575,-7.300,-22.000,1.400,-5.400
3.576,-6.700,-20.200,1.200,-5.800
3.577,-5.800,-18.500,1.000,-6.200
3.578,-4.700,-16.600,0.700,-6.800
3.579,-3.500,-14.600,0.400,-7.400
3.580,-2.100,-12.300,0.100,-8.300
3.581,-0.700,-10.100,-0.100,-9.200
3.582,0.600,-8.100,-0.100,-10.100
3.583,1.600,-6.500,0.100,-11.000
3.584,2.300,-5.200,0.400,-11.800
3.585,2.700,-4.200,0.700,-12.200
3.586,2.900,-3.400,0.900,-12.200
3.587,3.200,-2.900,0.700,-11.700
3.588,3.200,-2.800,0.500,-10.900
3.589,2.800,-3.000,0.400,-9.800
3.590,1.900,-3.500,0.400,-8.700
3.591,0.600,-4.200,0.700,-7.500
3.592,-1.000,-4.900,1.100,-6.500
3.593,-2.700,-5.600,1.500,-5.400
3.594,-4.100,-6.100,1.900,-4.400
3.595,-5.300,-6.700,2.100,-3.500
3.596,-6.200,-7.100,2.200,-2.600
3.597,-6.700,-7.400,2.200,-1.700
3.598,-6.900,-7.400,2.100,-1.000
3.599,-6.800,-7.300,2.000,-0.500
3.600,-6.600,-7.100,1.800,-0.100
3.601,-6.400,-7.000,1.700,0.100
3.602,-6.200,-7.000,1.600,0.200
3.603,-6.100,-7.000,1.600,0.200
3.604,-6.000,-7.000,1.600,0.100
3.605,-5.900,-6.900,1.600,0.000
3.606,-5.800,-6.900,1.600,-0.100
3.607,-5.800,-6.800,1.600,-0.200
3.608,-5.700,-6.800,1.600,-0.300
3.609,-5.600,-6.700,1.500,-0.400
3.610,-5.400,-6.400,1.500,-0.400
3.611,-5.200,-6.000,1.400,-0.500
3.612,-5.000,-5.400,1.400,-0.500
3.613,-4.800,-4.900,1.300,-0.600
3.614,-4.700,-4.400,1.300,-0.600
3.615,-4.600,-3.900,1.200,-0.600
3.616,-4.400,-3.200,1.200,-0.600
3.617,-4.200,-2.300,1.100,-0.600
3.618,-3.900,-1.100,1.100,-0.600
3.619,-3.600,0.100,1.000,-0.500
3.620,-3.300,1.100,0.900,-0.500
3.621,-3.100,1.800,0.800,-0.500
3.622,-2.900,2.500,0.600,-0.400
3.623,-2.700,3.200,0.500,-0.300
3.624,-2.500,3.600,0.500,-0.300
3.625,-2.400,3.800,0.500,-0.200
3.626,-2.300,3.600,0.500,-0.200
3.627,-2.200,3.300,0.500,-0.200
3.628,-2.000,2.900,0.500,-0.200
