'Elapsed time','AECG1','AECG2','AECG3','AECG4'
'seconds','uV','uV','uV','uV'
0.000,7.400,23.400,-5.500,-5.000
0.001,7.600,20.900,-5.100,-5.100
0.002,7.800,18.000,-4.600,-5.600
0.003,7.800,14.800,-4.100,-5.800
0.004,7.800,11.300,-3.600,-5.300
0.005,7.800,7.200,-3.100,-4.200
0.006,7.800,2.800,-2.700,-3.200
0.007,7.700,-1.900,-2.200,-2.900
0.008,7.500,-6.400,-1.700,-3.300
0.009,7.200,-10.200,-1.500,-4.100
0.010,6.900,-13.000,-1.400,-4.900
0.011,6.700,-15.000,-1.500,-5.600
0.012,6.500,-16.400,-1.600,-6.400
0.013,6.400,-17.800,-1.500,-7.300
0.014,6.200,-19.100,-1.200,-8.400
0.015,6.100,-19.900,-1.000,-9.300
0.016,6.200,-19.300,-1.100,-9.700
0.017,6.200,-16.600,-1.500,-9.700
0.018,6.300,-12.200,-2.000,-9.500
0.019,6.200,-7.100,-2.600,-9.100
0.020,5.900,-2.000,-3.000,-8.800
0.021,5.500,2.700,-3.200,-8.700
0.022,5.200,7.200,-3.300,-8.800
0.023,4.800,11.600,-3.200,-9.300
0.024,4.000,15.700,-2.900,-9.900
0.025,2.800,18.600,-2.700,-10.700
0.026,1.200,19.800,-2.400,-11.400
0.027,-0.600,19.100,-2.000,-12.000
0.028,-2.100,17.200,-1.600,-12.500
0.029,-3.400,14.600,-1.100,-12.800
0.030,-4.500,11.700,-0.600,-12.800
0.031,-5.300,8.600,-0.100,-12.300
0.032,-5.700,5.200,0.200,-11.500
0.033,-5.300,1.500,0.400,-10.500
0.034,-4.100,-2.300,0.600,-9.300
0.035,-2.300,-5.800,0.800,-8.000
0.036,-0.300,-8.400,0.900,-6.500
0.037,1.900,-9.800,1.100,-4.900
0.038,4.500,-10.000,1.200,-3.300
0.039,7.400,-9.200,1.300,-2.000
0.040,10.100,-8.300,1.400,-1.400
0.041,11.500,-8.100,1.600,-1.400
0.042,11.400,-8.700,1.800,-2.000
0.043,10.400,-9.400,2.000,-2.900
0.044,9.800,-9.500,2.100,-3.900
0.045,10.300,-8.500,2.000,-5.100
0.046,11.800,-7.000,1.700,-6.500
0.047,13.100,-5.900,1.400,-8.300
0.048,13.000,-5.900,0.900,-10.300
0.049,11.600,-7.300,0.500,-12.200
0.050,9.600,-9.200,0.000,-13.700
0.051,7.900,-11.000,-0.300,-14.600
0.052,6.700,-12.100,-0.600,-15.000
0.053,5.700,-12.500,-0.600,-15.100
0.054,4.600,-12.500,-0.500,-14.700
0.055,3.300,-12.300,-0.300,-14.000
0.056,2.100,-12.000,0.000,-12.700
0.057,1.100,-11.500,0.200,-10.900
0.058,0.500,-10.900,0.300,-8.800
0.059,-0.100,-10.400,0.300,-6.900
0.060,-0.800,-10.200,0.100,-5.300
0.061,-1.300,-10.500,-0.200,-4.200
0.062,-1.700,-11.500,-0.600,-3.500
0.063,-1.800,-13.100,-1.200,-3.000
0.064,-1.600,-15.100,-1.800,-2.700
0.065,-1.200,-17.400,-2.400,-2.700
0.066,-0.600,-19.600,-3.100,-3.200
0.067,0.300,-21.600,-3.800,-4.200
0.068,1.300,-23.100,-4.500,-5.600
0.069,2.300,-24.100,-5.200,-7.100
0.070,3.400,-24.100,-5.800,-8.500
0.071,4.600,-23.100,-6.500,-9.800
0.072,5.900,-21.200,-7.100,-11.200
0.073,7.300,-18.500,-7.800,-12.600
0.074,8.500,-15.700,-8.400,-14.000
0.075,9.600,-13.100,-9.000,-14.900
0.076,10.400,-10.700,-9.500,-15.100
0.077,10.900,-8.600,-9.900,-14.600
0.078,11.300,-6.700,-10.100,-13.400
0.079,11.300,-4.900,-10.200,-11.800
0.080,11.100,-3.500,-10.300,-10.100
0.081,10.300,-2.800,-10.200,-8.200
0.082,9.100,-2.600,-10.100,-6.200
0.083,7.600,-2.600,-9.800,-4.000
0.084,6.000,-2.500,-9.500,-1.700
0.085,4.300,-2.200,-9.200,0.300
0.086,2.700,-1.800,-8.900,1.700
0.087,1.200,-1.600,-8.500,2.600
0.088,-0.200,-1.600,-8.300,3.200
0.089,-1.400,-1.900,-8.200,3.800
0.090,-2.300,-2.500,-8.200,4.200
0.091,-2.500,-3.700,-8.400,3.900
0.092,-2.100,-5.400,-8.700,2.600
0.093,-1.000,-7.500,-9.100,0.600
0.094,0.800,-9.700,-9.400,-1.400
0.095,3.300,-11.900,-9.800,-3.000
0.096,6.100,-13.800,-10.200,-4.500
0.097,9.100,-15.600,-10.600,-6.700
0.098,11.700,-17.300,-10.800,-9.800
0.099,13.600,-18.700,-10.600,-12.800
0.100,14.300,-19.400,-9.900,-14.200
0.101,14.200,-19.200,-8.800,-13.100
0.102,13.400,-18.200,-7.600,-11.000
0.103,12.500,-16.300,-6.300,-10.100
0.104,11.600,-13.600,-5.100,-12.000
0.105,10.600,-10.100,-4.000,-15.900
0.106,9.700,-5.500,-2.800,-19.700
0.107,8.500,-0.100,-1.700,-21.200
0.108,7.200,5.900,-0.700,-20.200
0.109,5.700,11.500,0.100,-18.300
0.110,4.300,16.300,0.600,-16.700
0.111,3.000,19.900,1.000,-15.600
0.112,1.900,22.300,1.300,-14.300
0.113,0.800,24.000,1.800,-12.200
0.114,-0.300,25.000,2.300,-9.300
0.115,-1.400,24.800,2.600,-6.300
0.116,-2.200,22.900,2.700,-4.000
0.117,-2.700,19.300,2.600,-2.100
0.118,-2.900,14.600,2.300,-0.300
0.119,-2.800,9.900,2.000,1.700
0.120,-2.600,6.100,1.700,3.900
0.121,-2.300,3.200,1.600,5.800
0.122,-1.900,0.800,1.600,7.000
0.123,-1.300,-1.100,1.600,7.600
0.124,-0.600,-2.500,1.500,7.800
0.125,0.200,-2.700,1.300,7.700
0.126,0.900,-1.600,1.100,7.500
0.127,1.500,0.300,0.900,7.100
0.128,2.100,2.400,0.800,6.500
0.129,2.700,4.200,0.800,6.000
0.130,3.400,5.800,0.900,5.600
0.131,4.200,7.600,1.000,5.600
0.132,4.900,9.300,1.100,6.000
0.133,5.300,10.800,1.100,6.700
0.134,5.400,11.800,1.000,7.500
0.135,5.700,12.700,0.900,8.400
0.136,6.000,13.700,0.900,9.500
0.137,6.200,14.600,1.000,11.100
0.138,5.900,15.000,1.100,12.700
0.139,5.000,14.500,1.300,14.100
0.140,3.900,13.800,1.400,14.900
0.141,3.400,13.900,1.400,15.000
0.142,3.700,15.200,1.500,14.900
0.143,4.300,16.500,1.600,14.700
0.144,4.300,16.000,1.700,14.600
0.145,3.100,13.000,1.700,14.300
0.146,1.000,8.700,1.700,13.800
0.147,-1.000,5.300,1.900,13.000
0.148,-2.100,4.500,2.400,12.100
0.149,-2.100,5.800,3.100,11.200
0.150,-1.800,8.000,4.000,10.500
0.151,-1.600,10.600,4.900,9.700
0.152,-1.600,14.100,5.800,8.800
0.153,-1.400,19.400,6.500,7.900
0.154,-0.800,26.200,7.400,7.000
0.155,0.200,32.900,8.400,6.400
0.156,1.200,37.600,9.300,5.900
0.157,2.000,39.800,10.200,5.700
0.158,2.700,40.300,11.000,5.600
0.159,3.600,40.100,11.800,5.600
0.160,5.000,39.100,12.900,6.000
0.161,6.600,36.500,14.400,6.900
0.162,8.500,31.600,16.300,8.300
0.163,10.500,25.200,18.600,10.400
0.164,12.500,18.600,21.300,13.400
0.165,14.500,13.700,24.700,17.300
0.166,16.100,11.200,28.800,22.400
0.167,17.000,11.200,33.800,28.700
0.168,17.100,12.900,39.400,36.000
0.169,17.000,15.900,44.900,43.600
0.170,17.500,19.300,49.300,50.300
0.171,19.900,21.900,51.200,54.700
0.172,24.800,22.400,49.400,55.400
0.173,32.100,20.200,43.300,51.800
0.174,40.900,15.300,32.500,43.700
0.175,49.900,8.400,16.900,31.100
0.176,57.900,-0.100,-3.300,14.300
0.177,64.400,-10.400,-27.200,-6.200
0.178,69.600,-23.300,-52.600,-29.000
0.179,74.200,-39.800,-76.500,-52.000
0.180,78.000,-60.800,-96.300,-73.300
0.181,79.900,-86.300,-111.000,-92.500
0.182,77.400,-115.000,-121.400,-110.000
0.183,68.900,-145.100,-128.500,-126.900
0.184,54.400,-174.500,-133.500,-143.400
0.185,37.200,-201.900,-137.400,-159.300
0.186,21.900,-226.900,-141.600,-174.000
0.187,12.700,-248.700,-146.600,-186.600
0.188,10.100,-263.500,-151.200,-194.300
0.189,9.200,-264.000,-151.100,-193.000
0.190,2.900,-241.900,-141.000,-178.600
0.191,-14.100,-193.500,-117.800,-149.600
0.192,-40.800,-124.400,-83.600,-109.400
0.193,-71.100,-47.900,-44.900,-65.000
0.194,-97.000,21.200,-9.300,-23.800
0.195,-112.800,73.100,17.800,8.600
0.196,-117.400,105.300,34.900,30.300
0.197,-112.100,120.900,43.300,42.000
0.198,-99.800,124.900,45.200,46.300
0.199,-83.300,121.600,43.000,46.400
0.200,-64.900,113.700,38.500,45.100
0.201,-46.600,102.800,32.700,43.600
0.202,-30.000,90.200,26.700,41.800
0.203,-16.300,77.100,21.300,38.500
0.204,-6.200,64.000,16.900,33.000
0.205,0.400,51.400,13.800,26.100
0.206,3.800,39.500,11.700,19.800
0.207,4.900,28.700,10.500,15.500
0.208,4.600,19.600,9.700,13.500
0.209,3.600,12.700,9.300,12.800
0.210,2.500,7.900,9.100,12.400
0.211,1.400,5.000,9.000,11.900
0.212,0.700,3.500,8.600,11.400
0.213,0.100,3.000,7.900,11.200
0.214,-0.400,3.600,7.000,11.200
0.215,-1.000,5.100,6.200,11.000
0.216,-2.000,7.400,5.600,10.400
0.217,-3.200,9.800,5.400,9.500
0.218,-4.600,11.900,5.400,8.400
0.219,-5.800,13.200,5.300,7.200
0.220,-6.800,13.500,5.100,5.500
0.221,-7.400,13.000,4.900,3.600
0.222,-7.800,11.900,4.900,1.800
0.223,-8.000,10.400,4.900,0.500
0.224,-7.900,8.600,5.000,-0.200
0.225,-7.200,6.600,5.200,-0.400
0.226,-5.800,4.700,5.400,-0.300
0.227,-4.000,3.200,5.700,0.100
0.228,-2.100,2.400,5.900,0.900
0.229,0.000,2.200,6.000,2.400
0.230,2.000,2.300,6.000,4.200
0.231,4.000,2.400,6.000,5.700
0.232,5.800,2.400,6.000,6.600
0.233,7.200,2.400,5.900,6.900
0.234,8.200,2.000,5.900,7.000
0.235,8.700,1.100,5.900,7.200
0.236,9.100,-0.200,5.800,7.500
0.237,8.800,-1.100,5.700,7.500
0.238,7.700,-0.400,5.500,7.300
0.239,5.800,2.000,5.400,6.800
0.240,3.900,4.600,5.200,6.300
0.241,3.000,5.600,5.000,6.000
0.242,3.600,4.200,4.900,5.800
0.243,4.700,2.100,4.700,5.500
0.244,5.000,1.800,4.700,5.000
0.245,3.500,4.600,4.600,4.300
0.246,0.700,9.500,4.400,3.600
0.247,-1.900,13.500,4.300,2.800
0.248,-3.200,14.500,4.200,2.200
0.249,-3.000,12.300,4.200,2.000
0.250,-2.300,8.900,4.400,2.200
0.251,-2.000,5.700,4.600,2.800
0.252,-2.300,3.200,4.700,3.600
0.253,-2.600,0.600,5.000,4.500
0.254,-2.500,-2.400,5.100,5.300
0.255,-2.200,-5.500,5.400,6.300
0.256,-1.800,-7.500,5.700,7.600
0.257,-1.700,-8.000,6.000,9.100
0.258,-1.900,-7.300,6.200,10.500
0.259,-1.900,-5.900,6.400,11.500
0.260,-1.800,-3.800,6.500,12.100
0.261,-1.700,-0.600,6.500,12.300
0.262,-1.900,4.000,6.500,12.100
0.263,-2.400,9.600,6.400,11.700
0.264,-2.800,15.200,6.200,10.800
0.265,-2.900,19.800,6.000,9.000
0.266,-2.700,23.500,5.800,6.500
0.267,-2.300,26.400,5.600,3.600
0.268,-2.100,28.900,5.400,1.000
0.269,-2.000,30.700,5.200,-1.000
0.270,-2.100,31.300,5.100,-2.300
0.271,-2.000,30.300,5.100,-3.100
0.272,-1.600,27.900,5.100,-4.000
0.273,-0.900,24.600,5.000,-4.700
0.274,0.000,20.900,4.800,-4.900
0.275,0.800,17.300,4.500,-3.700
0.276,1.600,14.100,4.100,-0.800
0.277,2.300,11.200,3.900,3.100
0.278,3.100,8.500,3.800,7.100
0.279,3.800,6.000,3.800,10.300
0.280,4.400,3.900,3.800,12.700
0.281,4.600,2.400,3.800,14.700
0.282,4.300,1.400,3.600,16.600
0.283,3.800,0.400,3.500,18.000
0.284,3.100,-0.800,3.400,18.300
0.285,2.300,-2.400,3.300,17.100
0.286,1.300,-4.300,3.400,14.700
0.287,0.300,-6.400,3.500,11.900
0.288,-0.900,-8.400,3.600,9.200
0.289,-2.000,-10.100,3.600,6.500
0.290,-2.700,-11.300,3.600,3.900
0.291,-3.100,-12.000,3.600,1.400
0.292,-3.000,-12.100,3.700,-0.600
0.293,-2.600,-11.900,3.900,-1.800
0.294,-1.900,-11.600,4.000,-2.300
0.295,-0.900,-11.100,4.000,-2.300
0.296,0.600,-10.100,4.000,-1.500
0.297,2.700,-8.400,3.700,0.100
0.298,5.300,-6.400,3.300,2.500
0.299,8.100,-4.600,2.700,4.800
0.300,10.600,-3.600,2.100,5.700
0.301,12.800,-3.600,1.400,4.900
0.302,14.300,-4.000,0.700,3.500
0.303,15.400,-4.200,0.000,3.000
0.304,15.800,-4.400,-0.500,4.400
0.305,15.800,-5.200,-0.900,7.100
0.306,15.100,-6.800,-1.000,9.300
0.307,13.600,-8.700,-0.900,9.800
0.308,11.300,-9.700,-0.600,8.600
0.309,7.900,-8.800,0.100,7.100
0.310,4.000,-6.100,0.900,6.400
0.311,-0.200,-2.300,2.000,6.800
0.312,-4.100,1.800,2.900,7.800
0.313,-7.100,6.100,3.600,8.500
0.314,-9.100,10.800,3.900,8.600
0.315,-9.900,15.900,3.900,8.400
0.316,-9.400,20.800,3.800,7.900
0.317,-7.800,24.400,3.500,7.500
0.318,-5.300,26.300,3.200,7.000
0.319,-2.500,26.400,2.900,6.500
0.320,0.200,25.100,2.400,6.300
0.321,2.700,22.800,1.900,6.300
0.322,5.000,19.600,1.400,6.300
0.323,7.200,15.400,0.800,6.100
0.324,9.200,10.600,0.300,5.400
0.325,10.700,5.700,-0.200,4.400
0.326,11.500,1.000,-0.800,3.200
0.327,11.700,-3.300,-1.400,2.100
0.328,11.500,-7.200,-2.000,1.100
0.329,11.200,-11.100,-2.500,0.100
0.330,10.900,-14.900,-2.800,-0.800
0.331,10.400,-18.400,-3.100,-1.800
0.332,9.800,-21.900,-3.400,-2.600
0.333,9.200,-25.300,-3.800,-3.400
0.334,8.600,-28.700,-4.100,-3.900
0.335,8.100,-31.800,-4.500,-4.400
0.336,7.900,-34.600,-4.800,-4.900
0.337,7.900,-36.900,-5.000,-5.400
0.338,7.900,-39.000,-5.400,-5.900
0.339,8.100,-41.100,-5.700,-6.400
0.340,8.300,-43.200,-6.100,-6.900
0.341,8.500,-45.300,-6.500,-7.400
0.342,8.700,-46.900,-6.800,-7.900
0.343,8.800,-47.800,-7.100,-8.400
0.344,8.900,-48.000,-7.500,-8.900
0.345,9.000,-47.300,-8.000,-9.300
0.346,9.100,-45.700,-8.700,-9.700
0.347,9.300,-43.000,-9.300,-10.100
0.348,9.300,-39.400,-9.900,-10.600
0.349,9.100,-35.000,-10.300,-11.200
0.350,8.600,-30.100,-10.600,-11.800
0.351,8.100,-25.100,-10.900,-12.400
0.352,8.000,-20.300,-11.200,-12.800
0.353,8.400,-16.200,-11.400,-13.100
0.354,9.300,-13.600,-11.600,-13.300
0.355,10.300,-12.900,-11.600,-13.400
0.356,11.200,-14.100,-11.500,-13.600
0.357,12.000,-16.900,-11.500,-13.700
0.358,12.600,-20.600,-11.700,-13.900
0.359,13.100,-24.900,-11.900,-14.100
0.360,13.500,-29.800,-11.900,-14.300
0.361,13.600,-35.200,-11.700,-14.500
0.362,13.200,-40.500,-11.300,-14.600
0.363,12.400,-44.800,-10.800,-14.700
0.364,11.300,-47.200,-10.400,-14.900
0.365,10.300,-47.500,-10.200,-15.300
0.366,9.200,-46.100,-10.200,-15.600
0.367,8.200,-43.700,-10.300,-15.700
0.368,7.200,-40.800,-10.400,-15.300
0.369,6.200,-37.300,-10.200,-14.600
0.370,5.400,-32.900,-9.900,-13.700
0.371,4.700,-27.700,-9.600,-12.600
0.372,4.300,-22.200,-9.300,-11.100
0.373,4.000,-16.800,-8.900,-9.400
0.374,3.800,-12.300,-8.700,-7.500
0.375,3.800,-8.500,-8.400,-5.700
0.376,3.700,-5.100,-8.200,-4.300
0.377,3.500,-2.100,-7.900,-3.400
0.378,3.300,0.700,-7.800,-3.100
0.379,3.100,2.900,-7.600,-3.100
0.380,3.100,4.200,-7.500,-3.400
0.381,3.400,4.700,-7.300,-3.900
0.382,4.100,4.300,-7.200,-4.800
0.383,4.800,3.400,-7.100,-5.900
0.384,5.500,2.300,-7.000,-7.200
0.385,6.100,0.900,-6.800,-8.400
0.386,6.700,-0.600,-6.700,-9.300
0.387,7.200,-2.500,-6.400,-9.900
0.388,7.800,-4.900,-6.200,-10.500
0.389,8.300,-7.600,-6.000,-11.400
0.390,8.700,-10.700,-5.800,-12.400
0.391,9.100,-14.300,-5.700,-13.000
0.392,9.500,-17.900,-5.500,-12.800
0.393,9.900,-21.300,-5.300,-12.200
0.394,10.200,-24.100,-5.100,-11.600
0.395,10.500,-26.500,-4.900,-11.400
0.396,10.700,-28.500,-4.700,-10.700
0.397,10.700,-30.200,-4.500,-8.400
0.398,10.500,-31.100,-4.300,-4.400
0.399,9.900,-30.300,-4.000,-0.400
0.400,9.000,-27.200,-3.800,1.500
0.401,7.800,-22.200,-3.500,0.400
0.402,6.500,-16.000,-3.300,-1.800
0.403,5.400,-9.800,-3.200,-1.900
0.404,4.300,-3.600,-3.100,1.800
0.405,3.000,2.700,-3.000,8.300
0.406,1.600,9.200,-2.900,14.100
0.407,0.300,15.200,-2.600,16.600
0.408,-0.300,19.500,-2.400,15.600
0.409,-0.300,21.500,-2.200,13.100
0.410,0.400,21.700,-2.100,11.000
0.411,1.300,21.100,-2.000,10.000
0.412,2.200,20.800,-1.900,8.900
0.413,3.300,21.000,-1.700,7.100
0.414,4.800,21.200,-1.500,4.800
0.415,6.500,21.100,-1.200,3.100
0.416,8.100,21.000,-1.000,2.500
0.417,8.900,21.200,-0.900,2.600
0.418,9.000,21.800,-0.900,2.900
0.419,8.400,22.600,-0.800,3.200
0.420,7.500,23.300,-0.900,3.700
0.421,6.700,23.500,-0.900,5.000
0.422,5.700,23.800,-0.800,6.700
0.423,4.600,24.100,-0.700,8.200
0.424,3.200,24.100,-0.700,9.100
0.425,1.900,23.300,-0.600,9.400
0.426,0.800,21.400,-0.700,9.300
0.427,0.300,18.500,-0.900,9.200
0.428,0.100,15.300,-1.000,9.000
0.429,0.000,12.100,-1.200,8.400
0.430,0.100,9.100,-1.100,7.500
0.431,0.200,6.200,-1.000,6.200
0.432,0.500,3.400,-0.700,4.800
0.433,1.300,1.100,-0.400,3.500
0.434,2.200,-0.800,-0.100,2.200
0.435,3.000,-2.000,0.200,1.000
0.436,3.400,-2.900,0.500,-0.100
0.437,3.500,-3.200,0.700,-1.000
0.438,3.600,-2.800,0.800,-1.700
0.439,3.900,-1.800,0.800,-2.400
0.440,4.300,-0.700,0.800,-3.000
0.441,4.400,-0.100,0.800,-3.700
0.442,4.000,-0.300,0.900,-4.200
0.443,3.400,-0.900,0.900,-4.600
0.444,3.200,-1.100,0.900,-4.700
0.445,3.800,-0.200,0.800,-4.600
0.446,5.000,1.400,0.500,-4.200
0.447,6.100,2.800,0.200,-3.500
0.448,6.700,3.200,0.000,-2.500
0.449,6.700,2.200,-0.100,-1.000
0.450,6.400,0.400,-0.100,1.000
0.451,6.200,-1.500,0.000,3.400
0.452,6.000,-3.100,0.000,5.900
0.453,5.600,-4.200,-0.100,8.400
0.454,4.700,-5.300,-0.200,10.900
0.455,3.700,-6.200,-0.300,13.400
0.456,2.800,-7.000,-0.400,16.000
0.457,2.100,-7.200,-0.600,18.300
0.458,1.500,-6.900,-0.700,20.100
0.459,0.900,-6.100,-0.900,20.900
0.460,0.300,-5.600,-1.000,20.500
0.461,-0.100,-5.600,-1.000,19.400
0.462,-0.300,-5.800,-1.100,17.800
0.463,-0.300,-5.700,-1.200,16.000
0.464,-0.400,-4.700,-1.200,14.000
0.465,-0.700,-3.100,-1.300,12.000
0.466,-1.200,-1.300,-1.300,9.800
0.467,-1.800,0.200,-1.200,7.700
0.468,-2.400,1.600,-0.900,5.900
0.469,-3.100,3.400,-0.400,4.500
0.470,-3.900,5.400,0.200,3.300
0.471,-4.800,6.700,0.900,2.400
0.472,-5.600,6.200,1.400,1.700
0.473,-6.000,3.600,1.900,1.500
0.474,-6.100,-0.200,2.200,1.700
0.475,-5.900,-3.800,2.400,2.400
0.476,-5.600,-6.800,2.500,3.300
0.477,-5.100,-9.400,2.500,4.100
0.478,-4.500,-12.000,2.500,4.700
0.479,-3.700,-14.400,2.400,5.000
0.480,-2.800,-15.300,2.200,5.300
0.481,-1.800,-13.500,1.900,5.700
0.482,-0.800,-9.500,1.300,6.200
0.483,0.000,-4.500,0.700,6.600
0.484,0.800,0.000,0.100,6.700
0.485,1.500,3.500,-0.400,6.400
0.486,2.200,6.400,-0.800,5.800
0.487,2.800,9.400,-1.000,5.300
0.488,3.400,12.500,-1.300,4.900
0.489,3.800,15.000,-1.400,4.700
0.490,4.000,16.300,-1.500,4.600
0.491,3.900,16.300,-1.400,4.400
0.492,3.500,15.600,-1.200,4.000
0.493,2.700,14.700,-0.900,3.500
0.494,1.600,13.900,-0.600,3.200
0.495,0.400,13.000,-0.300,3.100
0.496,-0.800,11.600,0.100,3.100
0.497,-1.900,9.700,0.500,3.000
0.498,-2.900,7.700,1.000,2.500
0.499,-3.500,6.200,1.400,2.000
0.500,-3.900,5.700,1.800,1.900
0.501,-3.900,6.100,2.000,2.100
0.502,-3.800,7.100,2.100,2.500
0.503,-3.600,8.500,2.100,2.700
0.504,-3.300,9.900,2.000,2.100
0.505,-2.900,11.600,1.800,1.300
0.506,-2.300,13.400,1.400,0.800
0.507,-1.700,15.200,0.900,1.000
0.508,-1.200,16.400,0.500,2.100
0.509,-1.000,16.900,0.200,3.600
0.510,-1.000,16.600,0.200,5.100
0.511,-1.000,15.700,0.300,6.400
0.512,-1.100,14.700,0.300,7.600
0.513,-1.200,13.500,0.200,8.700
0.514,-1.500,12.100,-0.200,9.700
0.515,-1.900,10.300,-0.600,10.300
0.516,-2.300,8.200,-0.800,10.500
0.517,-2.500,5.900,-0.600,10.300
0.518,-2.500,3.600,-0.300,9.900
0.519,-2.400,1.300,-0.100,9.300
0.520,-2.500,-1.100,0.200,8.400
0.521,-2.500,-3.500,0.300,7.200
0.522,-2.500,-5.700,0.500,5.800
0.523,-2.300,-8.000,0.800,4.500
0.524,-2.100,-10.400,0.900,3.300
0.525,-1.900,-13.200,1.100,2.200
0.526,-2.000,-16.300,1.200,1.200
0.527,-2.000,-19.500,1.200,0.300
0.528,-1.900,-22.400,1.100,-0.300
0.529,-1.500,-24.700,0.900,-0.600
0.530,-1.000,-26.400,0.800,-0.600
0.531,-0.400,-27.600,0.500,-0.400
0.532,0.200,-28.200,0.300,-0.100
0.533,0.900,-28.000,0.200,0.300
0.534,1.600,-26.700,0.100,0.800
0.535,2.500,-23.800,0.000,1.400
0.536,3.200,-19.300,-0.100,2.100
0.537,3.800,-13.700,-0.200,2.800
0.538,4.000,-7.500,-0.200,3.600
0.539,4.200,-1.700,-0.300,4.400
0.540,4.400,3.200,-0.400,5.200
0.541,4.600,6.700,-0.500,6.000
0.542,4.800,8.600,-0.600,6.700
0.543,4.800,8.700,-0.800,7.200
0.544,4.700,7.200,-1.000,7.500
0.545,4.600,4.600,-1.100,7.500
0.546,4.300,1.400,-1.100,7.300
0.547,3.800,-1.500,-1.000,6.900
0.548,3.400,-4.400,-0.800,6.300
0.549,2.800,-7.300,-0.700,5.700
0.550,2.200,-10.500,-0.600,5.200
0.551,1.500,-13.300,-0.500,5.000
0.552,0.600,-14.500,-0.300,5.000
0.553,-0.400,-13.200,-0.200,5.100
0.554,-1.500,-9.400,-0.300,5.300
0.555,-2.500,-4.300,-0.400,5.500
0.556,-3.300,1.200,-0.600,5.900
0.557,-3.900,6.200,-0.600,6.400
0.558,-4.300,10.900,-0.600,7.000
0.559,-4.600,15.600,-0.400,7.400
0.560,-4.600,20.200,-0.200,7.700
0.561,-4.400,24.200,-0.200,7.800
0.562,-3.900,26.600,-0.300,7.700
0.563,-3.000,27.200,-0.500,7.400
0.564,-2.000,26.300,-0.600,6.900
0.565,-1.100,24.600,-0.700,6.100
0.566,-0.200,22.400,-0.700,5.000
0.567,0.700,20.100,-0.500,3.700
0.568,1.500,17.700,-0.300,2.500
0.569,2.100,15.200,-0.200,1.600
0.570,2.400,12.700,-0.100,1.000
0.571,2.400,10.800,0.000,0.500
0.572,2.200,9.600,0.100,-0.200
0.573,1.900,9.300,0.400,-0.900
0.574,1.600,9.700,0.700,-1.700
0.575,1.200,10.600,1.000,-2.100
0.576,0.700,11.700,1.300,-1.900
0.577,0.100,13.100,1.500,-1.200
0.578,-0.700,14.800,1.500,-0.200
0.579,-1.500,16.700,1.500,0.900
0.580,-2.100,18.600,1.400,1.800
0.581,-2.600,20.000,1.200,2.500
0.582,-2.900,20.600,1.000,3.400
0.583,-3.100,20.400,0.700,4.300
0.584,-3.000,19.400,0.400,5.300
0.585,-2.800,18.300,0.200,6.100
0.586,-2.400,16.900,-0.100,6.700
0.587,-1.700,15.000,-0.300,6.900
0.588,-1.000,12.000,-0.400,6.800
0.589,-0.100,7.600,-0.600,6.400
0.590,0.600,2.500,-0.600,5.900
0.591,1.200,-2.400,-0.500,5.400
0.592,1.400,-6.400,-0.500,5.000
0.593,1.500,-9.200,-0.500,4.400
0.594,1.400,-11.300,-0.500,3.600
0.595,1.200,-13.000,-0.600,2.800
0.596,0.900,-14.000,-0.500,2.300
0.597,0.600,-13.700,-0.500,2.500
0.598,0.500,-11.800,-0.400,3.400
0.599,0.900,-8.900,-0.500,4.500
0.600,1.600,-5.900,-0.600,5.000
0.601,2.700,-3.800,-0.600,4.600
0.602,3.800,-2.600,-0.600,3.900
0.603,4.700,-2.100,-0.400,3.800
0.604,5.500,-2.000,-0.200,4.800
0.605,6.400,-2.400,-0.200,6.600
0.606,7.300,-3.900,-0.100,8.300
0.607,7.900,-6.900,-0.100,8.900
0.608,7.700,-11.100,0.000,8.400
0.609,6.400,-15.700,0.100,7.500
0.610,4.300,-20.100,0.200,6.600
0.611,2.100,-23.700,0.200,6.200
0.612,-0.100,-26.700,0.200,6.000
0.613,-2.200,-29.100,0.200,5.700
0.614,-4.500,-31.300,0.300,5.200
0.615,-6.800,-32.900,0.400,4.500
0.616,-8.800,-33.300,0.400,3.900
0.617,-9.800,-31.900,0.400,3.300
0.618,-9.600,-28.700,0.200,2.700
0.619,-8.600,-24.100,0.000,2.100
0.620,-7.100,-18.600,-0.100,1.400
0.621,-5.600,-12.800,-0.200,0.600
0.622,-3.900,-6.800,-0.100,-0.400
0.623,-2.000,-0.500,0.000,-1.400
0.624,0.100,6.000,0.100,-2.400
0.625,2.200,12.200,0.200,-3.300
0.626,4.000,17.400,0.300,-3.900
0.627,5.300,20.700,0.600,-4.300
0.628,6.000,21.700,1.000,-4.400
0.629,6.300,20.400,1.300,-4.400
0.630,6.200,17.300,1.500,-3.800
0.631,5.900,13.100,1.700,-2.700
0.632,5.400,8.300,1.800,-1.000
0.633,4.800,3.000,1.900,0.900
0.634,4.000,-3.200,1.900,2.700
0.635,2.900,-10.500,1.800,4.200
0.636,1.600,-17.800,1.600,5.600
0.637,0.500,-23.100,1.500,7.000
0.638,-0.200,-24.700,1.300,8.200
0.639,-0.200,-23.000,1.000,8.800
0.640,0.100,-20.800,0.600,8.700
0.641,0.100,-21.600,0.100,7.800
0.642,-0.300,-26.300,-0.700,6.500
0.643,-0.600,-31.900,-1.500,5.100
0.644,0.100,-33.700,-2.300,3.600
0.645,2.300,-29.300,-3.100,2.100
0.646,5.500,-20.600,-4.100,0.200
0.647,9.000,-12.800,-5.300,-1.800
0.648,12.300,-9.900,-6.700,-3.900
0.649,15.000,-12.600,-8.100,-5.900
0.650,17.800,-17.700,-9.600,-7.900
0.651,20.600,-21.900,-11.200,-9.800
0.652,23.400,-24.000,-12.900,-11.300
0.653,25.500,-24.900,-14.400,-12.400
0.654,26.400,-25.900,-15.600,-13.100
0.655,26.200,-27.000,-16.300,-13.600
0.656,25.200,-27.300,-16.600,-14.100
0.657,23.500,-26.300,-16.600,-14.500
0.658,20.900,-24.200,-16.300,-14.600
0.659,17.100,-21.700,-15.600,-14.100
0.660,12.100,-19.000,-14.500,-12.800
0.661,6.700,-16.000,-13.000,-11.000
0.662,2.000,-12.700,-11.600,-9.000
0.663,-1.600,-9.500,-10.500,-7.400
0.664,-3.900,-7.100,-9.700,-6.300
0.665,-5.100,-5.700,-9.200,-5.900
0.666,-5.600,-5.100,-8.800,-5.800
0.667,-5.700,-5.000,-8.400,-6.000
0.668,-5.500,-5.100,-8.100,-6.200
0.669,-5.000,-5.600,-7.800,-6.500
0.670,-4.200,-6.700,-7.700,-6.700
0.671,-3.000,-8.000,-7.800,-6.800
0.672,-1.300,-8.900,-8.000,-6.700
0.673,0.700,-9.000,-8.400,-6.400
0.674,2.700,-8.600,-8.800,-5.800
0.675,4.300,-8.100,-9.000,-5.100
0.676,4.900,-7.800,-8.700,-4.400
0.677,4.600,-7.800,-7.900,-3.800
0.678,3.300,-7.800,-6.700,-3.200
0.679,1.700,-7.800,-5.400,-2.600
0.680,0.300,-7.900,-4.100,-1.700
0.681,-0.800,-8.200,-3.100,-0.800
0.682,-1.400,-8.500,-2.100,0.300
0.683,-1.700,-8.400,-1.200,1.400
0.684,-1.900,-7.700,-0.400,2.600
0.685,-2.100,-6.500,0.300,3.700
0.686,-2.200,-5.000,0.900,4.700
0.687,-2.300,-3.400,1.400,5.500
0.688,-2.100,-1.400,1.800,6.100
0.689,-1.800,1.400,2.000,6.600
0.690,-1.200,4.700,2.100,7.100
0.691,-0.600,7.800,2.100,7.300
0.692,0.000,10.000,2.000,7.400
0.693,0.600,11.200,2.000,7.300
0.694,1.100,11.500,2.000,7.100
0.695,1.600,11.400,2.000,6.900
0.696,1.900,11.000,2.100,6.500
0.697,2.000,10.100,2.300,5.700
0.698,1.800,8.500,2.400,4.500
0.699,1.400,6.600,2.600,3.300
0.700,0.900,4.700,2.800,2.700
0.701,0.400,3.500,2.900,3.000
0.702,0.100,2.900,3.100,3.600
0.703,0.100,3.100,3.100,3.900
0.704,0.300,3.800,3.200,3.400
0.705,0.800,5.400,3.300,2.300
0.706,1.800,7.900,3.300,1.400
0.707,3.200,11.500,3.400,1.500
0.708,4.900,15.700,3.500,2.500
0.709,6.800,19.700,3.600,4.000
0.710,8.600,22.700,3.700,5.600
0.711,9.900,24.400,3.900,7.100
0.712,11.100,24.800,4.000,8.600
0.713,12.200,24.400,4.100,10.200
0.714,13.200,23.100,4.100,11.600
0.715,14.100,20.700,4.100,12.800
0.716,14.300,16.400,4.100,13.600
0.717,13.800,10.500,4.200,14.200
0.718,12.500,3.700,4.200,14.700
0.719,10.800,-2.300,4.300,15.100
0.720,9.000,-6.500,4.300,15.100
0.721,7.500,-8.800,4.300,14.700
0.722,6.200,-9.600,4.300,13.900
0.723,4.900,-9.500,4.200,13.200
0.724,3.500,-8.400,4.200,12.700
0.725,2.300,-6.100,4.300,12.400
0.726,1.300,-2.600,4.500,12.100
0.727,0.800,1.700,4.700,11.800
0.728,0.800,5.600,5.200,11.500
0.729,1.200,8.600,5.800,11.400
0.730,1.900,10.700,6.800,11.700
0.731,3.000,12.400,8.100,12.400
0.732,4.500,14.200,9.700,13.600
0.733,6.400,16.000,11.800,15.200
0.734,8.900,17.400,14.300,17.200
0.735,11.700,18.300,17.400,19.900
0.736,14.400,19.100,21.100,23.500
0.737,16.500,21.100,25.600,28.200
0.738,17.600,25.300,31.200,34.000
0.739,17.700,31.900,37.700,40.900
0.740,17.500,39.700,44.100,47.800
0.741,18.700,46.300,48.800,53.500
0.742,22.600,49.300,50.000,56.300
0.743,29.900,47.700,46.200,54.900
0.744,39.700,41.900,36.700,48.500
0.745,50.200,33.200,21.300,36.500
0.746,59.600,22.000,0.000,18.500
0.747,67.300,7.200,-26.300,-5.000
0.748,73.700,-13.000,-54.900,-31.900
0.749,79.600,-39.800,-81.400,-59.100
0.750,84.300,-73.300,-102.500,-83.700
0.751,85.300,-111.700,-117.200,-105.800
0.752,79.600,-152.400,-126.700,-126.500
0.753,65.800,-192.300,-133.000,-146.800
0.754,46.700,-229.300,-137.400,-166.500
0.755,28.800,-262.600,-141.900,-184.700
0.756,18.200,-290.100,-147.700,-199.800
0.757,15.900,-,-152.600,-208.100
0.758,14.900,-,-150.600,-203.900
0.759,5.000,-259.800,-134.300,-182.000
0.760,-18.800,-189.000,-102.000,-142.700
0.761,-51.500,-100.900,-59.700,-93.500
0.762,-82.300,-16.400,-18.300,-45.600
0.763,-102.000,48.300,13.600,-7.300
0.764,-107.800,87.900,33.000,18.500
0.765,-102.000,105.800,41.600,33.300
0.766,-88.500,108.900,42.700,40.400
0.767,-71.200,103.600,39.300,42.500
0.768,-52.900,94.300,33.500,41.700
0.769,-35.900,83.600,26.900,39.100
0.770,-21.900,72.900,20.600,35.500
0.771,-11.700,62.500,15.600,31.200
0.772,-5.600,52.500,12.100,26.700
0.773,-2.800,43.200,10.100,22.300
0.774,-2.100,34.800,9.200,18.100
0.775,-2.600,27.800,8.800,14.400
0.776,-3.100,22.000,8.600,11.400
0.777,-3.100,17.100,8.300,9.000
0.778,-2.100,12.600,7.800,7.300
0.779,-0.700,8.500,7.200,6.000
0.780,0.700,5.000,6.600,4.900
0.781,1.600,2.800,6.000,4.100
0.782,1.900,1.900,5.400,3.500
0.783,1.800,2.300,4.800,3.100
0.784,1.600,3.700,4.400,3.000
0.785,1.300,5.800,4.300,3.000
0.786,0.800,8.400,4.500,3.100
0.787,0.200,11.400,4.800,3.200
0.788,-0.300,14.300,5.100,3.400
0.789,-0.500,16.700,5.200,3.600
0.790,-0.100,17.900,5.200,4.100
0.791,0.700,17.700,5.200,4.600
0.792,1.400,16.100,5.100,5.100
0.793,1.900,13.500,4.900,5.300
0.794,2.100,10.100,4.600,5.400
0.795,2.400,6.200,4.300,5.300
0.796,2.600,2.100,4.000,5.300
0.797,2.900,-2.200,3.900,5.400
0.798,3.100,-6.600,3.800,5.600
0.799,3.000,-10.900,3.700,5.800
0.800,2.700,-14.900,3.600,5.900
0.801,2.400,-18.200,3.500,6.100
0.802,2.000,-20.400,3.400,6.200
0.803,1.500,-21.800,3.200,6.100
0.804,1.100,-23.000,2.800,5.900
0.805,0.800,-24.600,2.400,5.500
0.806,0.500,-26.200,2.100,5.000
0.807,0.400,-27.000,2.000,4.600
0.808,0.300,-25.700,2.000,4.200
0.809,0.400,-22.100,1.800,3.900
0.810,0.500,-16.800,1.300,3.600
0.811,0.600,-10.900,0.900,3.300
0.812,0.700,-5.000,1.100,3.100
0.813,0.700,1.300,2.000,3.000
0.814,0.600,8.400,3.500,2.800
0.815,0.200,16.000,5.100,2.700
0.816,-0.200,23.100,6.300,2.600
0.817,-0.500,28.100,7.300,2.700
0.818,-0.800,30.400,8.300,2.800
0.819,-0.800,30.600,9.400,3.100
0.820,-0.700,29.600,10.400,3.300
0.821,-0.500,27.900,11.000,3.400
0.822,-0.200,25.600,10.900,3.300
0.823,0.200,22.300,10.300,3.100
0.824,0.900,18.500,9.500,3.000
0.825,1.900,14.900,8.900,3.000
0.826,2.900,12.000,8.400,3.100
0.827,3.900,10.200,7.800,3.200
0.828,4.500,9.400,7.000,3.300
0.829,4.800,9.800,6.000,3.300
0.830,4.900,11.300,5.000,3.400
0.831,4.800,13.600,4.200,3.500
0.832,4.500,15.600,3.600,3.800
0.833,3.900,16.600,3.200,4.000
0.834,2.900,16.900,3.000,4.200
0.835,1.600,17.500,2.900,4.200
0.836,0.300,18.900,2.900,4.300
0.837,-0.900,19.400,3.000,4.500
0.838,-2.000,17.200,3.100,4.700
0.839,-3.000,11.900,3.400,4.700
0.840,-3.900,6.400,3.800,4.600
0.841,-4.500,4.300,4.200,4.300
0.842,-4.800,7.100,4.500,4.000
0.843,-4.700,11.200,4.800,3.800
0.844,-4.600,11.000,5.100,3.700
0.845,-4.300,3.400,5.400,3.600
0.846,-4.000,-9.400,5.700,3.500
0.847,-3.500,-21.600,6.000,3.400
0.848,-2.800,-28.700,6.100,3.300
0.849,-2.000,-30.600,5.900,3.100
0.850,-1.100,-30.600,5.600,3.000
0.851,-0.200,-31.600,5.200,2.900
0.852,0.800,-33.200,4.900,2.800
0.853,2.000,-32.800,4.600,2.700
0.854,3.300,-28.600,4.400,2.600
0.855,4.700,-21.500,4.100,2.700
0.856,5.900,-14.100,3.800,2.700
0.857,6.800,-7.900,3.600,2.700
0.858,7.500,-2.700,3.500,2.700
0.859,8.100,2.700,3.400,2.600
0.860,8.600,8.700,3.400,2.500
0.861,8.900,14.400,3.400,2.300
0.862,9.000,18.500,3.300,2.100
0.863,8.600,20.300,3.300,1.900
0.864,7.800,20.400,3.300,1.900
0.865,6.700,19.500,3.300,2.100
0.866,5.400,18.300,3.200,2.300
0.867,4.200,16.400,3.100,2.300
0.868,3.000,13.600,2.900,2.200
0.869,1.700,9.600,2.800,1.900
0.870,0.500,4.700,2.700,1.400
0.871,-0.600,-0.300,2.600,0.900
0.872,-1.200,-5.100,2.200,0.400
0.873,-1.300,-9.200,1.700,-0.200
0.874,-0.800,-12.600,1.000,-0.800
0.875,0.000,-15.300,0.200,-1.400
0.876,1.000,-17.500,-0.600,-1.900
0.877,2.000,-19.100,-1.200,-2.400
0.878,3.200,-19.800,-1.700,-2.700
0.879,4.600,-19.700,-2.300,-3.000
0.880,6.200,-18.900,-3.000,-3.500
0.881,7.900,-18.000,-3.800,-4.100
0.882,9.600,-17.500,-4.900,-4.900
0.883,11.000,-17.500,-6.000,-5.700
0.884,12.300,-18.000,-6.900,-6.500
0.885,13.500,-19.000,-7.800,-7.200
0.886,14.500,-20.400,-8.400,-7.800
0.887,15.400,-22.200,-8.900,-8.200
0.888,16.200,-24.200,-9.300,-8.600
0.889,16.700,-26.300,-9.700,-8.900
0.890,16.900,-28.100,-10.000,-9.300
0.891,16.800,-29.400,-10.200,-9.600
0.892,16.500,-30.200,-10.100,-10.100
0.893,16.100,-30.500,-9.800,-10.600
0.894,15.500,-30.600,-9.400,-11.400
0.895,14.700,-30.600,-9.100,-12.300
0.896,14.000,-30.500,-8.800,-13.100
0.897,13.100,-30.100,-8.700,-14.000
0.898,12.300,-29.600,-8.600,-14.700
0.899,11.300,-28.900,-8.700,-15.300
0.900,10.200,-28.300,-8.800,-15.900
0.901,9.000,-28.100,-9.300,-16.400
0.902,7.900,-28.100,-10.100,-16.900
0.903,7.100,-28.200,-11.100,-17.200
0.904,6.500,-28.400,-12.400,-17.400
0.905,6.200,-28.800,-13.600,-17.400
0.906,6.100,-29.300,-14.600,-17.600
0.907,6.400,-30.100,-15.600,-17.900
0.908,7.400,-31.100,-16.300,-18.300
0.909,8.800,-32.000,-16.800,-18.700
0.910,10.500,-32.700,-17.000,-19.100
0.911,12.000,-33.100,-16.900,-19.300
0.912,13.100,-33.400,-16.400,-19.300
0.913,14.000,-33.800,-15.800,-19.100
0.914,14.700,-34.400,-15.000,-18.900
0.915,15.400,-35.000,-14.100,-18.600
0.916,15.700,-35.300,-13.100,-18.300
0.917,15.300,-35.000,-12.000,-17.900
0.918,14.300,-34.100,-10.900,-17.400
0.919,12.900,-32.900,-9.900,-16.700
0.920,11.500,-31.800,-8.900,-15.800
0.921,10.200,-30.800,-8.100,-14.900
0.922,9.000,-29.900,-7.300,-14.000
0.923,7.700,-29.000,-6.500,-13.100
0.924,6.400,-28.100,-5.700,-12.300
0.925,5.300,-27.200,-5.000,-11.600
0.926,4.500,-26.400,-4.300,-10.900
0.927,4.000,-25.700,-3.600,-10.300
0.928,3.700,-25.000,-2.900,-9.600
0.929,3.400,-24.300,-2.200,-9.000
0.930,3.200,-23.500,-1.500,-8.300
0.931,3.100,-22.700,-1.000,-7.600
0.932,3.000,-21.800,-0.700,-6.800
0.933,3.000,-20.700,-0.800,-6.000
0.934,2.900,-19.200,-0.900,-5.300
0.935,2.800,-17.500,-1.200,-4.700
0.936,2.500,-15.600,-1.400,-4.300
0.937,2.000,-13.800,-1.900,-3.900
0.938,1.200,-12.100,-2.500,-3.500
0.939,0.300,-10.600,-3.100,-3.200
0.940,-0.500,-9.100,-3.600,-3.000
0.941,-1.000,-7.900,-3.600,-2.700
0.942,-1.200,-6.800,-3.400,-2.400
0.943,-1.100,-5.900,-3.100,-2.100
0.944,-0.900,-5.000,-2.800,-1.700
0.945,-0.800,-4.100,-2.500,-1.500
0.946,-0.500,-3.200,-2.100,-1.300
0.947,0.100,-2.300,-1.500,-1.200
0.948,1.200,-1.500,-0.900,-1.100
0.949,2.800,-0.800,-0.200,-0.800
0.950,4.600,0.000,0.300,-0.500
0.951,6.400,1.000,0.700,0.000
0.952,8.100,2.300,1.100,0.500
0.953,9.600,3.600,1.400,1.000
0.954,11.000,4.700,1.700,1.600
0.955,12.100,5.400,1.800,2.100
0.956,12.900,5.700,1.700,2.400
0.957,13.300,5.600,1.600,2.600
0.958,13.500,5.300,1.400,2.600
0.959,13.400,4.900,1.300,2.500
0.960,12.900,4.300,1.300,2.400
0.961,12.100,3.600,1.200,2.400
0.962,10.800,2.900,1.100,2.500
0.963,9.400,2.700,1.000,2.600
0.964,7.900,3.200,1.000,2.700
0.965,6.500,4.200,1.000,2.800
0.966,5.300,5.500,1.000,2.800
0.967,4.300,6.900,1.000,2.900
0.968,3.200,8.300,1.000,3.000
0.969,2.300,10.100,1.000,3.100
0.970,1.400,12.100,1.000,3.100
0.971,0.700,14.000,1.200,2.900
0.972,0.200,15.300,1.400,2.700
0.973,0.100,15.600,1.700,2.300
0.974,0.100,15.200,2.000,1.900
0.975,0.300,14.300,2.200,1.800
0.976,0.600,13.100,2.200,1.800
0.977,0.800,11.700,2.200,2.100
0.978,1.100,9.900,2.100,2.400
0.979,1.300,7.700,2.100,2.600
0.980,1.700,5.500,1.900,2.700
0.981,2.100,3.600,1.600,2.700
0.982,2.700,2.400,1.000,2.700
0.983,3.200,2.000,0.300,2.700
0.984,3.600,2.200,-0.200,2.600
0.985,3.800,2.900,-0.600,2.500
0.986,3.800,4.000,-0.600,2.500
0.987,3.800,5.700,-0.500,2.500
0.988,3.700,7.800,-0.300,2.700
0.989,3.700,10.200,-0.100,2.800
0.990,3.600,12.300,-0.100,2.700
0.991,3.500,14.000,0.100,2.600
0.992,3.400,15.100,0.300,2.400
0.993,3.300,15.600,0.600,2.400
0.994,3.100,15.800,1.000,2.500
0.995,2.800,15.600,1.300,2.800
0.996,2.500,14.900,1.500,2.900
0.997,2.100,13.700,1.500,2.900
0.998,1.600,12.000,1.200,2.700
0.999,1.200,10.000,0.800,2.400
1.000,0.900,8.000,0.400,2.200
1.001,0.600,6.200,0.100,2.000
1.002,0.400,4.600,-0.300,2.000
1.003,0.200,3.200,-0.900,2.100
1.004,0.000,2.100,-1.900,2.100
1.005,-0.200,1.200,-2.800,2.200
1.006,-0.400,0.700,-3.300,2.100
1.007,-0.500,0.600,-3.300,1.900
1.008,-0.600,0.700,-3.100,1.600
1.009,-0.800,0.900,-3.300,1.300
1.010,-0.800,1.000,-3.900,0.900
1.011,-0.800,1.200,-4.600,0.700
1.012,-0.800,1.500,-4.500,0.600
1.013,-0.700,2.000,-3.100,0.700
1.014,-0.600,2.600,-0.800,0.900
1.015,-0.500,3.200,1.400,1.000
1.016,-0.500,3.500,2.800,1.200
1.017,-0.400,3.500,3.500,1.200
1.018,-0.300,3.300,3.900,1.200
1.019,-0.300,2.900,4.400,1.200
1.020,-0.300,2.500,5.100,1.300
1.021,-0.300,2.100,5.500,1.200
1.022,-0.400,1.700,5.300,0.900
1.023,-0.400,1.300,4.600,0.600
1.024,-0.500,0.800,3.900,0.200
1.025,-0.600,0.200,3.500,0.000
1.026,-0.800,-0.400,3.100,0.100
1.027,-1.000,-1.000,2.600,0.200
1.028,-1.200,-1.400,2.000,0.200
1.029,-1.200,-1.500,1.300,0.200
1.030,-1.000,-1.400,0.600,0.100
1.031,-0.400,-1.000,0.100,-0.100
1.032,0.400,-0.700,-0.500,-0.200
1.033,1.700,-0.500,-1.100,-0.300
1.034,3.100,-0.400,-1.900,-0.800
1.035,4.700,-0.600,-2.500,-1.400
1.036,6.200,-0.700,-3.100,-2.200
1.037,7.700,-0.500,-3.600,-2.800
1.038,9.000,0.000,-4.100,-3.000
1.039,10.000,0.700,-4.500,-2.900
1.040,10.700,1.500,-4.800,-2.800
1.041,11.000,2.000,-4.900,-2.900
1.042,10.900,2.100,-4.900,-3.100
1.043,10.200,2.000,-4.500,-3.200
1.044,8.800,1.800,-3.800,-2.900
1.045,6.600,1.700,-2.900,-2.400
1.046,4.000,1.800,-1.900,-1.500
1.047,1.400,2.000,-0.900,-0.700
1.048,-0.900,2.100,0.000,0.000
1.049,-2.700,2.300,0.800,0.500
1.050,-3.700,2.300,1.600,0.600
1.051,-4.200,2.400,2.300,0.600
1.052,-4.100,2.500,2.700,0.500
1.053,-3.800,2.500,2.900,0.400
1.054,-3.200,2.500,3.000,0.400
1.055,-2.700,2.400,3.000,0.500
1.056,-2.200,2.300,3.100,0.600
1.057,-1.800,2.300,3.100,0.600
1.058,-1.400,2.300,3.000,0.600
1.059,-1.000,2.400,2.900,0.700
1.060,-0.600,2.400,2.900,0.900
1.061,-0.400,2.100,2.900,1.200
1.062,-0.300,1.600,2.900,1.600
1.063,-0.200,1.000,2.900,1.800
1.064,-0.100,0.500,2.800,1.800
1.065,0.000,0.000,2.500,1.500
1.066,0.000,-0.300,2.100,1.000
1.067,0.000,-0.600,1.700,0.700
1.068,-0.100,-0.900,1.300,0.600
1.069,-0.200,-1.200,1.200,0.800
1.070,-0.200,-1.300,1.100,1.100
1.071,-0.200,-1.200,1.000,1.200
1.072,-0.200,-0.900,0.900,1.100
1.073,-0.200,-0.400,0.700,0.500
1.074,-0.200,0.200,0.600,-0.200
1.075,-0.100,0.700,0.600,-0.800
1.076,0.000,1.200,0.700,-1.100
1.077,0.000,1.500,0.800,-1.000
1.078,0.000,1.800,0.800,-0.700
1.079,-0.200,1.900,0.900,-0.300
1.080,-0.300,1.800,1.000,-0.100
1.081,-0.300,1.500,1.200,-0.200
1.082,-0.100,1.300,1.300,-0.400
1.083,0.100,1.000,1.300,-0.700
1.084,0.200,0.800,1.200,-0.800
1.085,0.200,0.500,0.900,-0.800
1.086,0.300,0.200,0.600,-0.600
1.087,0.400,-0.200,0.400,-0.300
1.088,0.600,-0.600,0.200,-0.100
1.089,0.700,-0.900,0.000,0.000
1.090,0.700,-1.200,-0.100,-0.100
1.091,0.600,-1.400,-0.100,-0.200
1.092,0.500,-1.700,-0.100,-0.300
1.093,0.500,-2.000,-0.100,-0.300
1.094,0.500,-2.500,0.100,-0.100
1.095,0.500,-2.900,0.200,0.100
1.096,0.400,-3.200,0.300,0.200
1.097,0.400,-3.300,0.400,0.100
1.098,0.400,-3.300,0.400,0.000
1.099,0.500,-3.300,0.400,-0.100
1.100,0.600,-3.300,0.400,-0.300
1.101,0.700,-3.400,0.500,-0.300
1.102,0.800,-3.600,0.700,-0.300
1.103,1.000,-3.700,0.900,-0.300
1.104,1.200,-3.800,1.000,-0.300
1.105,1.300,-4.000,1.000,-0.300
1.106,1.400,-4.100,0.900,-0.300
1.107,1.500,-4.100,0.700,-0.500
1.108,1.600,-4.000,0.500,-0.800
1.109,1.900,-3.800,0.300,-1.300
1.110,2.200,-3.500,0.200,-1.900
1.111,2.600,-3.300,0.200,-2.400
1.112,2.900,-3.000,0.200,-2.800
1.113,3.400,-2.600,0.100,-3.000
1.114,3.900,-2.000,-0.100,-2.900
1.115,4.500,-1.300,-0.400,-2.800
1.116,5.000,-0.600,-0.600,-2.800
1.117,5.300,-0.300,-0.800,-3.000
1.118,5.400,-0.300,-0.900,-3.400
1.119,5.400,-0.500,-1.000,-3.800
1.120,5.500,-0.500,-1.000,-4.000
1.121,5.700,-0.300,-0.900,-3.900
1.122,5.900,-0.200,-1.000,-3.500
1.123,6.200,-0.100,-1.100,-3.000
1.124,6.400,-0.100,-1.300,-2.600
1.125,6.400,-0.200,-1.500,-2.200
1.126,6.500,-0.200,-1.700,-1.800
1.127,6.500,0.000,-1.800,-1.300
1.128,6.600,0.200,-1.900,-0.900
1.129,6.800,0.400,-1.900,-0.600
1.130,6.900,0.500,-1.900,-0.500
1.131,7.000,0.500,-1.900,-0.600
1.132,7.100,0.500,-1.900,-0.800
1.133,7.200,0.500,-1.900,-1.000
1.134,7.400,0.400,-1.900,-1.200
1.135,7.600,0.200,-2.000,-1.400
1.136,8.000,-0.200,-2.000,-1.900
1.137,8.300,-0.600,-2.000,-2.500
1.138,8.600,-0.800,-1.900,-3.100
1.139,8.900,-0.800,-1.800,-3.500
1.140,9.100,-0.800,-1.700,-3.700
1.141,9.200,-1.000,-1.600,-3.600
1.142,9.300,-1.300,-1.600,-3.500
1.143,9.300,-1.500,-1.700,-3.500
1.144,9.300,-1.400,-1.700,-3.600
1.145,9.200,-0.900,-1.800,-3.700
1.146,9.100,-0.200,-1.800,-3.700
1.147,9.100,0.600,-1.700,-3.600
1.148,9.000,1.100,-1.700,-3.500
1.149,9.000,1.300,-1.700,-3.400
1.150,8.800,1.400,-1.700,-3.300
1.151,8.600,1.700,-1.600,-3.300
1.152,8.400,2.100,-1.600,-3.200
1.153,8.400,2.400,-1.500,-3.100
1.154,8.500,2.500,-1.500,-2.900
1.155,8.600,2.400,-1.500,-2.800
1.156,8.700,2.200,-1.600,-2.800
1.157,8.700,1.800,-1.600,-2.800
1.158,8.700,1.400,-1.400,-2.800
1.159,8.600,1.100,-1.300,-2.800
1.160,8.500,0.800,-1.100,-2.800
1.161,8.400,0.400,-0.900,-2.800
1.162,8.300,0.100,-0.800,-2.700
1.163,8.100,-0.100,-0.800,-2.600
1.164,7.900,-0.200,-0.800,-2.400
1.165,7.700,-0.400,-0.700,-2.200
1.166,7.500,-0.600,-0.600,-1.900
1.167,7.300,-0.900,-0.400,-1.600
1.168,7.100,-1.100,-0.300,-1.300
1.169,7.000,-1.100,-0.200,-1.000
1.170,6.800,-0.800,0.000,-0.600
1.171,6.700,-0.200,0.200,-0.300
1.172,6.400,0.400,0.500,0.000
1.173,6.100,1.000,0.800,0.200
1.174,5.900,1.400,1.100,0.300
1.175,5.800,1.900,1.200,0.500
1.176,5.800,2.200,1.300,0.800
1.177,5.700,2.500,1.300,1.100
1.178,5.600,2.400,1.200,1.500
1.179,5.400,2.100,1.000,1.800
1.180,5.300,1.600,0.900,1.900
1.181,5.200,1.100,0.800,1.700
1.182,5.300,0.700,0.700,1.300
1.183,5.600,0.300,0.600,1.000
1.184,5.800,0.000,0.500,0.600
1.185,6.000,-0.500,0.400,0.400
1.186,6.300,-1.200,0.200,0.100
1.187,6.600,-2.100,-0.200,-0.200
1.188,6.900,-3.200,-0.600,-0.600
1.189,7.200,-4.700,-1.300,-1.300
1.190,7.400,-6.300,-2.000,-2.200
1.191,7.400,-7.900,-2.900,-3.100
1.192,7.400,-9.500,-3.800,-3.900
1.193,7.300,-11.000,-4.500,-4.500
1.194,7.400,-12.700,-5.100,-5.000
1.195,7.500,-14.400,-5.600,-5.400
1.196,7.500,-16.100,-6.100,-5.900
1.197,7.600,-17.500,-6.700,-6.700
1.198,7.700,-18.700,-7.100,-7.600
1.199,7.900,-19.800,-7.600,-8.600
1.200,8.000,-20.800,-8.000,-9.400
1.201,8.200,-22.000,-8.600,-10.100
1.202,8.400,-23.100,-9.200,-10.700
1.203,8.600,-24.200,-9.800,-11.300
1.204,8.800,-25.100,-10.200,-12.000
1.205,9.000,-25.600,-10.600,-12.700
1.206,9.100,-25.900,-10.900,-13.200
1.207,9.100,-25.800,-11.200,-13.500
1.208,9.000,-25.300,-11.600,-13.800
1.209,8.600,-24.400,-11.600,-14.100
1.210,8.100,-23.000,-11.300,-14.400
1.211,7.400,-21.400,-10.900,-14.500
1.212,6.800,-19.500,-10.500,-14.200
1.213,6.200,-17.300,-10.400,-13.500
1.214,5.600,-14.700,-10.400,-12.700
1.215,5.100,-12.000,-10.400,-11.900
1.216,4.600,-9.500,-10.200,-11.200
1.217,4.200,-7.500,-9.600,-10.600
1.218,3.800,-6.100,-9.000,-9.900
1.219,3.500,-5.100,-8.400,-9.100
1.220,3.300,-4.200,-8.200,-8.600
1.221,3.600,-3.300,-8.300,-8.300
1.222,4.300,-2.500,-8.500,-8.200
1.223,5.600,-2.100,-8.800,-8.100
1.224,7.200,-2.100,-9.200,-7.900
1.225,8.900,-2.500,-9.600,-7.500
1.226,10.400,-3.300,-9.800,-6.900
1.227,11.200,-4.100,-9.800,-6.500
1.228,11.400,-4.600,-9.200,-6.100
1.229,10.800,-4.900,-8.200,-5.700
1.230,9.800,-4.800,-6.900,-5.100
1.231,8.400,-4.600,-5.600,-4.400
1.232,7.100,-4.200,-4.300,-3.600
1.233,6.000,-3.400,-3.200,-2.900
1.234,5.100,-2.300,-2.200,-2.300
1.235,4.500,-0.900,-1.400,-1.700
1.236,4.000,0.600,-0.600,-0.800
1.237,3.600,2.100,0.000,0.200
1.238,3.200,3.500,0.500,1.400
1.239,2.900,4.800,0.900,2.500
1.240,2.700,6.000,1.200,3.200
1.241,2.500,7.100,1.500,3.600
1.242,2.400,8.000,1.800,3.900
1.243,2.400,8.600,2.000,4.100
1.244,2.400,9.300,2.100,4.300
1.245,2.500,10.000,2.100,4.500
1.246,2.700,11.000,2.000,4.500
1.247,3.000,12.000,1.800,4.400
1.248,3.300,12.800,1.700,4.300
1.249,3.500,13.200,1.600,4.400
1.250,3.800,13.000,1.500,4.600
1.251,4.100,12.600,1.400,4.900
1.252,4.400,12.200,1.300,5.200
1.253,4.600,12.200,1.200,5.400
1.254,4.700,12.700,1.300,5.600
1.255,4.800,13.400,1.400,5.800
1.256,4.900,14.000,1.700,5.800
1.257,4.900,14.300,1.900,6.000
1.258,4.900,14.300,2.000,6.100
1.259,4.700,14.100,2.100,6.300
1.260,4.600,13.700,2.200,6.700
1.261,4.500,13.400,2.400,6.900
1.262,4.500,13.200,2.600,7.100
1.263,4.500,13.000,2.900,7.200
1.264,4.500,12.900,3.200,7.200
1.265,4.400,12.800,3.500,7.100
1.266,4.300,12.800,3.700,7.200
1.267,4.300,12.700,3.800,7.200
1.268,4.400,12.600,3.900,7.200
1.269,4.500,12.600,4.100,7.200
1.270,4.500,12.500,4.300,7.100
1.271,4.400,12.500,4.500,7.100
1.272,4.300,12.700,4.700,7.200
1.273,4.200,12.900,4.900,7.300
1.274,4.100,13.200,5.000,7.400
1.275,3.900,13.500,5.100,7.300
1.276,3.700,13.900,5.200,7.300
1.277,3.400,14.400,5.200,7.200
1.278,3.200,14.700,5.100,7.300
1.279,2.900,15.000,4.900,7.300
1.280,2.700,15.300,4.600,7.400
1.281,2.400,15.400,4.400,7.300
1.282,2.200,15.400,4.200,7.200
1.283,2.000,15.300,4.200,7.100
1.284,1.900,15.100,4.300,7.200
1.285,1.800,14.800,4.600,7.700
1.286,1.900,14.400,5.100,8.300
1.287,2.100,14.000,5.700,9.200
1.288,2.500,13.700,6.700,10.300
1.289,3.200,13.500,8.100,11.800
1.290,4.200,13.400,9.900,13.700
1.291,5.600,13.500,12.200,16.100
1.292,7.100,13.900,15.000,19.000
1.293,8.800,14.800,18.300,22.200
1.294,10.400,16.600,22.200,26.000
1.295,11.600,19.800,27.000,30.700
1.296,12.200,24.700,32.600,36.400
1.297,12.200,31.200,38.700,42.800
1.298,12.100,38.400,44.400,49.200
1.299,13.100,44.600,48.500,54.400
1.300,16.200,48.100,49.800,57.300
1.301,22.200,47.500,47.200,56.900
1.302,30.700,42.700,40.100,52.400
1.303,40.400,34.100,28.100,43.500
1.304,49.600,22.700,11.100,29.600
1.305,57.500,8.800,-10.700,10.700
1.306,63.700,-8.100,-35.900,-11.900
1.307,69.100,-29.000,-61.900,-36.400
1.308,74.100,-54.700,-85.200,-60.200
1.309,78.100,-85.300,-103.500,-81.900
1.310,79.100,-119.400,-116.400,-101.700
1.311,74.600,-154.800,-125.200,-120.500
1.312,63.600,-188.800,-131.100,-138.800
1.313,47.500,-220.000,-135.200,-156.500
1.314,31.000,-247.800,-139.100,-173.200
1.315,19.000,-272.100,-143.900,-188.100
1.316,14.300,-290.200,-149.300,-199.200
1.317,14.200,-,-151.900,-202.700
1.318,11.500,-278.000,-146.100,-193.800
1.319,-0.900,-232.900,-127.000,-169.400
1.320,-25.000,-163.100,-94.800,-131.300
1.321,-55.600,-81.100,-55.200,-86.000
1.322,-84.200,-3.100,-16.700,-42.200
1.323,-103.500,58.400,14.100,-6.400
1.324,-111.000,98.800,34.100,19.000
1.325,-107.700,120.000,44.200,34.500
1.326,-96.800,127.100,46.900,42.600
1.327,-81.400,125.100,44.600,45.800
1.328,-64.100,117.800,39.600,45.800
1.329,-46.800,107.600,33.400,44.000
1.330,-31.300,95.800,27.000,41.000
1.331,-18.600,83.500,21.300,37.200
1.332,-9.400,71.200,16.700,32.900
1.333,-3.800,59.500,13.300,28.400
1.334,-1.200,48.800,10.900,24.100
1.335,-0.800,39.300,9.400,20.100
1.336,-1.400,31.200,8.600,16.600
1.337,-2.400,24.600,8.200,13.700
1.338,-3.200,19.800,7.900,11.300
1.339,-3.500,16.500,7.700,9.400
1.340,-3.500,14.200,7.500,8.000
1.341,-3.200,12.200,7.100,7.000
1.342,-2.800,10.300,6.800,6.200
1.343,-2.300,8.600,6.500,5.600
1.344,-1.900,7.600,6.300,5.200
1.345,-1.400,7.800,6.100,4.900
1.346,-1.100,8.700,6.100,4.900
1.347,-0.800,9.700,6.000,5.000
1.348,-0.500,9.900,5.900,5.100
1.349,-0.200,9.200,5.800,5.200
1.350,0.000,8.200,5.700,5.100
1.351,0.200,7.200,5.500,5.000
1.352,0.300,6.700,5.300,4.600
1.353,0.400,6.600,5.200,4.200
1.354,0.500,6.600,5.100,3.700
1.355,0.600,6.400,5.100,3.300
1.356,0.800,6.200,5.100,3.000
1.357,0.900,6.100,5.000,2.900
1.358,1.000,6.100,4.800,3.000
1.359,1.000,6.300,4.700,3.000
1.360,1.000,6.500,4.700,3.100
1.361,1.000,6.700,4.800,3.200
1.362,1.100,6.600,5.000,3.400
1.363,1.100,6.500,5.200,3.700
1.364,1.100,6.400,5.400,3.900
1.365,0.900,6.300,5.500,4.000
1.366,0.700,6.200,5.700,4.200
1.367,0.500,6.100,5.800,4.600
1.368,0.300,6.000,6.000,5.200
1.369,-0.100,6.000,6.100,6.000
1.370,-0.500,6.100,6.200,6.900
1.371,-1.000,6.200,6.100,7.500
1.372,-1.300,6.300,5.900,7.800
1.373,-1.600,6.200,5.800,7.900
1.374,-1.700,6.100,5.600,7.800
1.375,-1.700,5.700,5.400,7.600
1.376,-1.700,5.300,5.300,7.500
1.377,-1.700,4.900,5.100,7.400
1.378,-1.700,4.400,5.000,7.300
1.379,-1.400,4.000,5.000,7.000
1.380,-1.100,3.600,5.000,6.600
1.381,-0.900,3.200,4.900,6.100
1.382,-0.800,2.900,4.800,5.700
1.383,-0.700,2.600,4.600,5.300
1.384,-0.600,2.400,4.500,5.000
1.385,-0.500,2.300,4.300,4.900
1.386,-0.300,2.500,4.200,4.900
1.387,-0.100,2.800,4.200,5.000
1.388,0.100,3.200,4.200,5.000
1.389,0.200,3.500,4.200,4.900
1.390,0.300,3.700,4.200,4.700
1.391,0.300,3.700,4.300,4.400
1.392,0.300,3.700,4.400,4.000
1.393,0.200,3.600,4.500,3.800
1.394,0.200,3.500,4.600,3.700
1.395,0.000,3.200,4.700,3.700
1.396,-0.200,2.900,4.900,3.500
1.397,-0.300,2.500,5.000,2.800
1.398,-0.500,2.300,5.000,1.500
1.399,-0.600,2.100,4.900,0.200
1.400,-0.800,1.900,4.800,-0.500
1.401,-0.900,1.800,4.800,-0.500
1.402,-1.200,1.700,4.900,-0.200
1.403,-1.300,1.600,5.000,-0.300
1.404,-1.300,1.600,5.100,-1.300
1.405,-1.000,1.700,5.000,-3.100
1.406,-0.300,2.000,4.700,-4.700
1.407,0.900,2.200,4.200,-5.800
1.408,2.500,2.500,3.700,-6.000
1.409,4.300,2.700,3.100,-5.900
1.410,6.200,2.900,2.400,-5.800
1.411,8.000,3.300,1.600,-5.600
1.412,9.500,3.900,0.800,-5.100
1.413,10.800,4.600,0.200,-4.300
1.414,11.600,5.300,-0.200,-3.500
1.415,12.100,5.600,-0.300,-2.800
1.416,12.100,5.500,-0.300,-2.500
1.417,11.300,5.000,0.000,-2.100
1.418,9.500,4.400,0.500,-1.300
1.419,6.800,3.900,1.200,-0.100
1.420,3.700,3.500,2.100,1.300
1.421,0.900,3.100,2.900,2.600
1.422,-1.100,2.800,3.500,3.500
1.423,-2.200,2.300,4.000,4.000
1.424,-2.500,1.600,4.100,4.400
1.425,-2.200,0.800,4.100,4.700
1.426,-1.700,-0.200,3.900,4.900
1.427,-1.000,-1.100,3.600,5.300
1.428,-0.400,-1.900,3.300,6.000
1.429,0.100,-2.600,3.100,6.900
1.430,0.600,-3.600,3.200,7.800
1.431,1.000,-4.800,3.300,8.400
1.432,1.400,-5.900,3.400,8.700
1.433,1.800,-6.500,3.300,8.600
1.434,2.000,-6.600,3.000,8.400
1.435,2.200,-6.700,2.600,8.200
1.436,2.300,-6.900,2.300,8.000
1.437,2.500,-7.000,1.900,7.700
1.438,2.700,-6.400,1.600,7.100
1.439,2.900,-4.700,1.200,6.000
1.440,3.100,-3.100,0.700,4.600
1.441,3.200,-2.600,0.100,3.200
1.442,3.400,-3.800,-0.500,1.700
1.443,3.600,-5.800,-1.000,0.400
1.444,3.900,-6.700,-1.400,-1.100
1.445,4.500,-5.600,-1.900,-2.700
1.446,5.100,-3.200,-2.400,-4.400
1.447,5.700,-1.200,-2.900,-6.000
1.448,6.200,-1.100,-3.400,-7.200
1.449,6.500,-2.800,-3.700,-7.900
1.450,6.800,-5.300,-3.900,-8.300
1.451,7.100,-7.400,-3.900,-8.700
1.452,7.400,-9.400,-3.900,-9.100
1.453,7.700,-11.800,-3.900,-9.800
1.454,8.000,-15.000,-3.900,-10.400
1.455,8.300,-18.500,-3.900,-10.600
1.456,8.600,-21.600,-4.000,-10.500
1.457,8.800,-23.900,-4.100,-9.900
1.458,9.200,-25.600,-4.300,-9.200
1.459,9.600,-27.300,-4.600,-8.400
1.460,10.100,-28.700,-5.000,-7.900
1.461,10.400,-29.600,-5.300,-7.400
1.462,10.600,-29.400,-5.500,-7.000
1.463,10.800,-28.600,-5.700,-6.700
1.464,10.900,-27.800,-6.000,-6.700
1.465,11.000,-27.400,-6.400,-7.100
1.466,11.200,-27.400,-6.900,-7.900
1.467,11.300,-27.500,-7.600,-9.000
1.468,11.400,-27.500,-8.300,-10.100
1.469,11.400,-27.300,-8.900,-11.000
1.470,11.500,-27.400,-9.400,-11.700
1.471,11.500,-27.700,-9.900,-12.400
1.472,11.400,-28.200,-10.300,-13.200
1.473,11.300,-28.700,-10.700,-14.400
1.474,11.200,-29.300,-10.900,-15.600
1.475,11.000,-29.800,-11.000,-16.800
1.476,10.900,-30.300,-11.100,-17.500
1.477,10.700,-30.900,-11.300,-17.700
1.478,10.500,-31.500,-11.600,-17.800
1.479,10.100,-32.000,-11.800,-18.000
1.480,9.700,-32.600,-12.000,-18.300
1.481,9.400,-33.300,-11.900,-18.900
1.482,9.100,-34.100,-11.700,-19.500
1.483,8.900,-34.800,-11.400,-19.900
1.484,8.700,-35.200,-11.100,-20.100
1.485,8.600,-35.400,-11.000,-20.000
1.486,8.300,-35.300,-11.100,-19.800
1.487,8.200,-35.100,-11.300,-19.700
1.488,8.000,-34.800,-11.300,-19.400
1.489,7.900,-34.300,-11.300,-19.200
1.490,7.800,-33.800,-11.100,-18.900
1.491,7.800,-33.200,-10.800,-18.500
1.492,7.900,-32.600,-10.500,-17.900
1.493,7.800,-32.000,-10.100,-17.400
1.494,7.800,-31.400,-9.700,-16.900
1.495,7.600,-30.800,-9.300,-16.700
1.496,7.500,-30.000,-8.800,-16.800
1.497,7.500,-29.300,-8.400,-16.800
1.498,7.600,-28.400,-7.900,-16.800
1.499,7.800,-27.400,-7.300,-16.500
1.500,8.000,-26.400,-6.800,-16.200
1.501,8.100,-25.300,-6.500,-15.800
1.502,8.300,-24.200,-6.200,-15.400
1.503,8.400,-23.000,-6.100,-14.700
1.504,8.700,-21.900,-5.900,-13.600
1.505,8.900,-20.600,-5.700,-12.300
1.506,9.000,-19.300,-5.700,-11.000
1.507,9.000,-17.900,-5.900,-10.200
1.508,9.000,-16.700,-6.100,-9.500
1.509,9.000,-15.700,-6.000,-9.000
1.510,9.100,-15.000,-5.600,-8.400
1.511,9.100,-14.300,-5.000,-7.800
1.512,9.100,-13.600,-4.700,-7.400
1.513,9.100,-12.600,-4.800,-7.300
1.514,9.000,-11.400,-5.200,-7.200
1.515,9.000,-10.100,-5.600,-7.100
1.516,9.000,-8.900,-5.600,-6.900
1.517,8.900,-8.000,-5.300,-6.700
1.518,8.800,-7.500,-4.700,-6.500
1.519,8.600,-7.100,-4.300,-6.600
1.520,8.300,-6.700,-4.000,-6.500
1.521,8.100,-6.200,-3.700,-6.200
1.522,7.900,-5.800,-3.300,-5.700
1.523,7.800,-5.600,-2.800,-4.900
1.524,7.600,-5.400,-2.400,-4.100
1.525,7.500,-5.400,-2.000,-3.300
1.526,7.400,-5.300,-1.600,-2.500
1.527,7.300,-5.300,-1.000,-2.000
1.528,7.100,-5.200,-0.500,-1.600
1.529,6.800,-5.100,-0.200,-1.400
1.530,6.500,-4.800,-0.100,-1.500
1.531,6.300,-4.400,-0.200,-1.600
1.532,6.100,-3.900,-0.300,-1.600
1.533,5.900,-3.600,-0.300,-1.400
1.534,5.800,-3.600,-0.200,-1.000
1.535,5.600,-3.800,-0.100,-0.300
1.536,5.500,-3.900,0.000,0.500
1.537,5.400,-3.800,0.100,1.600
1.538,5.300,-3.700,0.200,2.700
1.539,5.200,-3.500,0.400,3.700
1.540,5.000,-3.200,0.700,4.500
1.541,4.700,-3.100,0.800,5.000
1.542,4.500,-2.800,0.900,5.300
1.543,4.200,-2.700,0.900,5.600
1.544,4.100,-2.800,0.800,5.700
1.545,4.000,-3.100,0.800,5.700
1.546,3.900,-3.600,0.900,5.400
1.547,3.700,-3.900,1.000,4.800
1.548,3.600,-3.900,1.000,3.800
1.549,3.500,-3.600,1.000,2.500
1.550,3.400,-3.100,0.800,1.300
1.551,3.400,-2.600,0.600,0.300
1.552,3.300,-2.100,0.500,-0.200
1.553,3.200,-1.700,0.400,-0.400
1.554,3.100,-1.300,0.400,-0.500
1.555,2.900,-1.000,0.300,-0.600
1.556,2.700,-0.800,0.300,-0.700
1.557,2.500,-0.800,0.300,-0.600
1.558,2.300,-0.800,0.300,-0.300
1.559,2.000,-0.900,0.400,0.200
1.560,1.800,-1.200,0.400,1.000
1.561,1.500,-1.500,0.500,1.800
1.562,1.300,-1.900,0.500,2.500
1.563,1.000,-2.400,0.500,3.200
1.564,0.800,-3.000,0.500,3.800
1.565,0.700,-3.500,0.500,4.300
1.566,0.500,-4.000,0.500,4.500
1.567,0.400,-4.400,0.400,4.300
1.568,0.300,-4.800,0.400,3.700
1.569,0.300,-5.200,0.300,2.700
1.570,0.300,-5.500,0.300,1.600
1.571,0.300,-5.700,0.400,0.300
1.572,0.300,-5.600,0.500,-1.000
1.573,0.300,-5.300,0.600,-2.400
1.574,0.500,-4.800,0.600,-3.900
1.575,0.500,-4.400,0.500,-5.400
1.576,0.600,-4.000,0.400,-6.600
1.577,0.600,-3.800,0.400,-7.400
1.578,0.600,-3.600,0.400,-7.800
1.579,0.500,-3.500,0.400,-7.900
1.580,0.400,-3.400,0.400,-7.800
1.581,0.300,-3.200,0.300,-7.600
1.582,0.300,-3.100,0.100,-7.200
1.583,0.400,-2.900,-0.100,-6.600
1.584,0.500,-2.800,-0.400,-5.800
1.585,0.600,-2.800,-0.700,-4.900
1.586,0.600,-2.800,-0.900,-4.000
1.587,0.500,-3.100,-1.100,-3.200
1.588,0.400,-3.500,-1.200,-2.500
1.589,0.400,-4.000,-1.300,-1.800
1.590,0.400,-4.500,-1.500,-1.000
1.591,0.400,-5.000,-1.700,-0.300
1.592,0.300,-5.400,-1.800,0.400
1.593,0.200,-5.900,-1.900,1.100
1.594,0.000,-6.400,-1.700,2.000
1.595,-0.100,-6.900,-1.500,2.900
1.596,-0.200,-7.300,-1.200,3.600
1.597,-0.200,-7.500,-0.800,3.600
1.598,-0.200,-7.400,-0.400,2.800
1.599,-0.300,-7.200,0.100,1.900
1.600,-0.400,-6.900,0.500,1.500
1.601,-0.500,-6.700,0.900,2.000
1.602,-0.500,-6.500,1.400,2.700
1.603,-0.500,-6.400,1.900,2.800
1.604,-0.500,-6.200,2.300,1.500
1.605,-0.500,-6.000,2.500,-0.700
1.606,-0.600,-5.700,2.200,-2.800
1.607,-0.600,-5.200,1.700,-3.900
1.608,-0.500,-4.700,1.100,-4.200
1.609,-0.500,-4.100,0.900,-4.300
1.610,-0.300,-3.500,1.200,-4.600
1.611,-0.200,-2.900,1.600,-5.100
1.612,0.000,-2.500,1.600,-5.400
1.613,0.100,-2.300,1.000,-5.200
1.614,0.200,-2.400,0.000,-4.600
1.615,0.200,-2.700,-0.800,-3.800
1.616,0.200,-3.100,-1.100,-3.200
1.617,0.200,-3.500,-0.800,-2.700
1.618,0.200,-3.900,-0.200,-1.900
1.619,0.200,-4.300,0.300,-1.000
1.620,0.200,-4.800,0.600,0.000
1.621,0.200,-5.200,0.700,0.800
1.622,0.200,-5.300,0.800,1.400
1.623,0.200,-5.100,0.900,1.800
1.624,0.300,-4.800,1.100,2.100
1.625,0.400,-4.600,1.100,2.300
1.626,0.400,-4.600,1.200,2.400
1.627,0.300,-4.700,1.200,2.400
1.628,0.100,-4.700,1.300,2.300
1.629,-0.100,-4.700,1.200,2.300
1.630,-0.200,-4.800,0.900,2.000
1.631,-0.400,-5.000,0.600,1.300
1.632,-0.500,-5.300,0.400,0.200
1.633,-0.600,-5.600,0.300,-0.800
1.634,-0.600,-6.000,0.300,-1.700
1.635,-0.600,-6.500,0.300,-2.500
1.636,-0.600,-7.200,0.200,-3.200
1.637,-0.500,-7.700,0.200,-4.100
1.638,-0.300,-7.600,0.100,-4.900
1.639,-0.200,-6.900,0.000,-5.200
1.640,-0.100,-6.000,-0.200,-4.700
1.641,0.000,-5.700,-0.500,-3.500
1.642,-0.100,-6.200,-0.900,-2.000
1.643,-0.100,-7.000,-1.200,-0.800
1.644,0.000,-7.100,-1.400,0.200
1.645,0.100,-5.900,-1.600,1.100
1.646,0.200,-3.700,-1.700,2.100
1.647,0.200,-1.600,-1.700,3.000
1.648,0.100,-0.500,-1.700,3.600
1.649,0.100,-0.600,-1.500,3.800
1.650,0.100,-1.000,-1.200,3.600
1.651,0.200,-1.300,-0.900,3.400
1.652,0.300,-1.300,-0.700,3.200
1.653,0.500,-1.400,-0.400,2.900
1.654,0.500,-1.700,-0.100,2.400
1.655,0.500,-2.300,0.200,1.600
1.656,0.400,-2.800,0.600,0.700
1.657,0.400,-3.200,0.800,-0.100
1.658,0.300,-3.600,0.900,-0.800
1.659,0.300,-4.000,0.900,-1.600
1.660,0.200,-4.600,0.900,-2.400
1.661,0.200,-5.100,0.900,-3.200
1.662,0.200,-5.300,0.900,-3.800
1.663,0.200,-5.300,0.900,-4.200
1.664,0.200,-5.100,0.800,-4.700
1.665,0.200,-5.000,0.600,-5.300
1.666,0.200,-5.100,0.200,-6.000
1.667,0.100,-5.300,-0.200,-6.600
1.668,0.000,-5.300,-0.600,-6.900
1.669,-0.100,-5.300,-1.000,-6.900
1.670,-0.300,-5.100,-1.400,-6.600
1.671,-0.400,-4.900,-1.700,-6.200
1.672,-0.400,-4.500,-2.000,-5.800
1.673,-0.300,-4.100,-2.100,-5.400
1.674,-0.200,-3.500,-2.100,-4.800
1.675,0.000,-3.000,-2.000,-4.000
1.676,0.200,-2.500,-1.700,-3.400
1.677,0.500,-2.200,-1.200,-2.800
1.678,0.700,-2.000,-0.600,-2.400
1.679,0.800,-1.800,-0.100,-2.000
1.680,1.000,-1.700,0.400,-1.600
1.681,1.000,-1.700,0.800,-1.200
1.682,1.000,-1.900,1.300,-0.800
1.683,1.100,-2.100,1.800,-0.300
1.684,1.100,-2.400,2.300,-0.100
1.685,1.200,-2.700,2.800,0.100
1.686,1.200,-2.900,3.300,0.200
1.687,1.100,-3.100,3.600,0.300
1.688,1.000,-3.400,3.700,0.600
1.689,0.900,-3.800,3.700,1.200
1.690,1.000,-4.300,3.600,1.700
1.691,1.000,-4.800,3.400,2.000
1.692,1.100,-5.400,3.000,1.800
1.693,1.100,-6.100,2.600,1.300
1.694,0.900,-6.800,2.100,0.900
1.695,0.700,-7.500,1.600,0.700
1.696,0.500,-8.300,1.200,0.500
1.697,0.500,-9.100,0.800,0.000
1.698,0.500,-9.900,0.300,-1.100
1.699,0.600,-10.600,-0.300,-2.200
1.700,0.600,-11.100,-0.800,-2.600
1.701,0.600,-11.500,-1.300,-2.100
1.702,0.600,-11.700,-1.900,-1.300
1.703,0.700,-11.900,-2.500,-1.500
1.704,0.800,-11.900,-3.300,-3.300
1.705,1.000,-11.900,-3.800,-6.300
1.706,1.000,-11.700,-3.700,-9.200
1.707,1.100,-11.200,-2.900,-10.900
1.708,1.200,-10.300,-2.100,-11.400
1.709,1.300,-8.800,-1.800,-11.300
1.710,1.400,-7.100,-2.300,-11.000
1.711,1.500,-5.300,-3.100,-10.600
1.712,1.500,-3.500,-3.100,-9.700
1.713,1.500,-1.700,-1.800,-8.200
1.714,1.600,0.200,0.300,-6.200
1.715,1.800,2.300,2.200,-4.400
1.716,2.000,4.600,3.100,-3.100
1.717,2.200,6.800,2.900,-2.100
1.718,2.300,8.700,2.300,-0.900
1.719,2.400,10.100,1.700,0.200
1.720,2.500,11.100,1.300,1.100
1.721,2.700,12.100,0.800,1.300
1.722,2.700,13.200,-0.100,0.800
1.723,2.700,14.200,-1.100,-0.300
1.724,2.600,14.800,-1.900,-1.300
1.725,2.700,14.600,-2.200,-2.200
1.726,2.900,13.600,-2.200,-2.900
1.727,3.200,12.200,-2.100,-3.600
1.728,3.400,11.000,-2.000,-4.300
1.729,3.400,10.100,-1.900,-4.800
1.730,3.200,9.500,-1.500,-4.800
1.731,2.900,8.900,-1.000,-4.200
1.732,2.800,8.100,-0.500,-3.200
1.733,2.600,7.200,-0.100,-2.100
1.734,2.600,6.300,0.200,-1.000
1.735,2.500,5.700,0.400,-0.200
1.736,2.500,5.300,0.700,0.500
1.737,2.500,5.000,0.900,1.300
1.738,2.500,4.500,1.100,1.900
1.739,2.600,3.800,1.200,2.000
1.740,2.800,3.000,1.100,1.500
1.741,2.900,2.400,1.000,0.400
1.742,3.100,1.900,0.900,-0.900
1.743,3.200,1.500,0.600,-2.100
1.744,3.300,0.700,0.200,-3.400
1.745,3.400,-0.400,-0.100,-4.800
1.746,3.500,-1.600,-0.200,-6.400
1.747,3.600,-2.700,-0.400,-8.000
1.748,3.900,-3.500,-0.800,-9.100
1.749,4.200,-4.500,-1.500,-9.700
1.750,4.600,-5.800,-2.400,-9.900
1.751,4.900,-7.400,-3.400,-10.000
1.752,5.300,-8.900,-4.500,-10.400
1.753,5.600,-9.900,-5.600,-10.800
1.754,6.000,-10.500,-6.700,-11.200
1.755,6.300,-10.800,-7.900,-11.500
1.756,6.600,-11.300,-9.000,-12.100
1.757,7.000,-12.200,-10.000,-13.000
1.758,7.300,-13.200,-10.800,-14.500
1.759,7.600,-14.000,-11.600,-16.400
1.760,7.800,-14.500,-12.400,-18.400
1.761,7.800,-15.000,-13.300,-20.100
1.762,7.700,-15.600,-14.100,-21.700
1.763,7.500,-16.400,-14.800,-23.100
1.764,7.200,-17.400,-15.500,-24.400
1.765,6.800,-18.200,-16.300,-25.600
1.766,6.400,-18.700,-17.100,-26.500
1.767,5.800,-18.900,-17.700,-26.800
1.768,5.200,-18.800,-18.000,-26.300
1.769,4.500,-18.500,-17.600,-24.900
1.770,3.900,-18.000,-16.800,-23.000
1.771,3.200,-17.400,-15.500,-20.900
1.772,2.500,-16.700,-14.200,-18.500
1.773,1.900,-15.800,-12.800,-16.100
1.774,1.300,-14.900,-11.300,-13.400
1.775,0.900,-14.000,-9.600,-10.600
1.776,0.800,-13.100,-7.800,-8.000
1.777,1.200,-12.400,-6.100,-5.800
1.778,2.000,-12.000,-4.700,-4.400
1.779,3.500,-11.700,-3.800,-3.700
1.780,5.500,-11.500,-3.100,-3.400
1.781,7.600,-11.200,-2.500,-3.300
1.782,9.300,-10.900,-1.600,-3.500
1.783,10.200,-10.300,-0.500,-4.400
1.784,10.500,-9.700,0.600,-6.300
1.785,10.500,-9.100,1.000,-9.000
1.786,10.600,-8.400,0.600,-11.700
1.787,11.000,-7.600,-0.300,-13.800
1.788,11.600,-6.300,-1.700,-15.300
1.789,12.500,-4.500,-3.200,-16.300
1.790,13.300,-2.200,-4.700,-16.900
1.791,13.800,0.600,-6.200,-17.000
1.792,14.000,3.300,-7.800,-16.200
1.793,13.800,5.600,-9.200,-14.600
1.794,13.200,7.400,-10.400,-12.800
1.795,11.900,8.800,-11.000,-10.900
1.796,9.900,10.100,-10.700,-8.000
1.797,7.100,11.200,-9.500,-3.200
1.798,4.000,12.300,-7.600,3.200
1.799,1.200,13.200,-5.400,9.500
1.800,-0.900,14.100,-3.300,13.000
1.801,-2.100,14.700,-1.400,12.700
1.802,-2.500,15.200,0.500,10.500
1.803,-2.300,15.500,2.400,9.900
1.804,-1.800,15.800,4.300,13.100
1.805,-1.200,16.000,5.800,19.000
1.806,-0.400,15.900,6.400,24.500
1.807,0.300,15.500,6.300,26.800
1.808,0.900,14.500,6.000,25.700
1.809,1.500,13.200,6.100,23.100
1.810,1.900,11.800,7.000,21.000
1.811,2.100,10.700,7.900,19.700
1.812,2.300,10.000,7.900,18.100
1.813,2.400,9.800,6.500,15.300
1.814,2.500,9.800,4.200,11.600
1.815,2.500,10.200,2.000,7.900
1.816,2.600,11.000,0.700,5.000
1.817,2.500,12.600,0.500,2.900
1.818,2.500,14.400,0.600,0.900
1.819,2.400,16.400,0.500,-1.100
1.820,2.400,18.000,0.000,-3.000
1.821,2.300,19.300,-0.500,-4.100
1.822,2.100,20.400,-0.600,-4.200
1.823,2.000,21.400,-0.200,-3.700
1.824,1.700,22.000,0.500,-2.900
1.825,1.500,22.100,1.000,-2.200
1.826,1.400,21.400,1.400,-1.500
1.827,1.200,20.300,2.000,-0.500
1.828,1.100,19.000,2.900,0.800
1.829,0.900,17.900,4.200,2.400
1.830,0.800,16.900,5.800,3.900
1.831,0.700,15.800,7.500,5.400
1.832,0.600,14.500,8.900,6.600
1.833,0.800,13.200,10.300,7.900
1.834,1.200,12.000,11.800,9.400
1.835,1.900,11.000,13.500,11.200
1.836,2.800,10.500,15.300,13.400
1.837,4.200,10.600,17.100,15.600
1.838,5.800,11.500,19.000,18.000
1.839,7.800,13.400,21.100,21.000
1.840,9.700,16.200,24.100,25.000
1.841,11.200,20.100,28.500,30.400
1.842,11.900,25.600,34.300,37.300
1.843,11.800,32.900,41.100,45.200
1.844,11.900,41.100,47.300,53.000
1.845,14.000,48.100,51.100,58.900
1.846,19.500,50.900,50.600,61.200
1.847,28.600,47.800,44.400,58.400
1.848,39.600,38.800,31.900,49.500
1.849,50.300,25.300,12.700,33.900
1.850,59.100,8.500,-12.900,11.500
1.851,66.000,-12.100,-42.400,-15.900
1.852,71.900,-38.400,-71.200,-45.000
1.853,77.200,-71.600,-94.700,-72.200
1.854,79.400,-111.100,-111.200,-96.500
1.855,75.000,-153.400,-122.000,-119.300
1.856,61.800,-194.300,-129.200,-141.500
1.857,42.700,-231.000,-134.500,-162.700
1.858,24.900,-262.900,-140.000,-181.700
1.859,15.400,-288.800,-146.800,-196.600
1.860,14.300,-,-152.100,-203.200
1.861,12.500,-288.100,-148.000,-194.600
1.862,-1.500,-237.900,-126.700,-165.800
1.863,-30.800,-155.100,-88.300,-119.200
1.864,-66.600,-59.900,-42.600,-65.400
1.865,-95.700,23.800,-2.200,-17.100
1.866,-109.800,81.700,25.000,18.100
1.867,-108.800,113.100,38.500,39.100
1.868,-96.800,124.600,41.600,48.900
1.869,-78.700,124.200,38.400,51.400
1.870,-58.300,117.500,31.900,49.600
1.871,-38.500,107.500,24.100,45.300
1.872,-21.700,95.500,16.600,39.600
1.873,-9.400,82.600,10.300,33.000
1.874,-1.900,69.600,5.900,26.000
1.875,1.400,57.200,3.300,19.100
1.876,2.000,46.100,2.100,12.700
1.877,1.300,36.700,1.700,7.300
1.878,0.600,28.800,1.700,3.100
1.879,0.300,22.200,1.800,-0.100
1.880,0.500,16.700,1.900,-2.300
1.881,1.200,12.400,2.200,-3.700
1.882,1.900,9.100,2.600,-4.300
1.883,2.700,6.700,3.200,-3.900
1.884,3.200,5.000,3.900,-2.500
1.885,3.800,3.600,4.600,-0.400
1.886,4.200,2.400,5.300,2.200
1.887,4.600,1.500,6.000,4.700
1.888,4.700,1.000,6.500,7.100
1.889,4.800,1.100,6.900,9.600
1.890,4.600,1.700,7.100,12.100
1.891,4.500,2.600,7.000,14.200
1.892,4.300,3.500,6.900,15.600
1.893,4.300,4.200,7.000,16.100
1.894,4.300,4.700,7.200,16.000
1.895,4.200,5.000,7.500,15.600
1.896,4.200,5.400,7.900,14.900
1.897,4.100,5.800,8.100,13.500
1.898,4.000,6.000,8.000,11.300
1.899,3.900,5.800,7.900,9.200
1.900,3.800,5.200,7.600,8.200
1.901,3.700,4.400,7.300,8.500
1.902,3.500,3.600,6.800,9.500
1.903,3.400,3.000,5.700,9.800
1.904,3.300,2.600,4.000,8.200
1.905,3.200,2.200,2.400,5.300
1.906,3.100,2.000,1.300,2.400
1.907,3.100,2.100,0.900,0.900
1.908,3.200,2.800,0.800,0.700
1.909,3.400,4.000,0.400,1.100
1.910,3.600,5.400,-0.600,1.000
1.911,3.800,6.700,-1.500,0.400
1.912,3.900,7.600,-1.300,-0.400
1.913,3.900,8.300,0.600,-0.600
1.914,3.800,9.100,3.500,-0.300
1.915,3.700,10.100,6.200,0.300
1.916,3.500,10.800,7.800,0.900
1.917,3.400,10.600,8.200,1.300
1.918,3.200,9.700,8.000,1.900
1.919,3.000,8.400,8.000,2.800
1.920,2.900,7.300,8.100,4.000
1.921,2.700,6.700,7.800,5.000
1.922,2.500,6.500,7.000,5.100
1.923,2.400,6.300,5.900,4.200
1.924,2.300,5.600,4.900,2.600
1.925,2.200,4.300,4.300,0.600
1.926,2.100,2.700,4.000,-1.400
1.927,2.000,1.300,3.700,-3.600
1.928,1.800,0.100,3.400,-6.300
1.929,1.600,-0.900,3.100,-9.500
1.930,1.300,-1.800,3.200,-12.400
1.931,1.200,-2.500,3.500,-14.400
1.932,1.000,-3.100,3.900,-14.900
1.933,0.900,-3.200,4.000,-13.800
1.934,0.700,-2.900,3.900,-11.800
1.935,0.500,-2.500,3.800,-9.100
1.936,0.200,-2.100,3.700,-5.900
1.937,-0.100,-1.700,3.600,-1.900
1.938,-0.100,-0.900,3.600,2.900
1.939,0.000,0.300,3.400,8.000
1.940,0.100,1.600,3.200,12.800
1.941,0.200,2.300,3.000,16.500
1.942,0.300,2.000,2.700,19.000
1.943,0.200,1.200,2.400,20.800
1.944,0.300,0.900,2.100,21.900
1.945,0.500,1.700,1.800,22.500
1.946,0.800,3.500,1.700,22.200
1.947,1.100,5.100,1.500,20.600
1.948,1.400,5.700,1.400,17.700
1.949,1.600,5.100,1.300,13.700
1.950,1.900,4.100,1.100,9.300
1.951,2.100,3.200,1.200,5.200
1.952,2.400,2.500,1.400,1.600
1.953,2.700,1.700,1.800,-1.300
1.954,2.900,0.500,2.300,-3.800
1.955,3.000,-1.100,3.000,-6.000
1.956,3.200,-3.000,3.900,-7.800
1.957,3.400,-4.900,5.100,-8.500
1.958,3.600,-6.700,6.500,-7.900
1.959,3.800,-8.600,7.600,-6.000
1.960,3.900,-10.800,8.400,-3.200
1.961,3.700,-13.200,8.800,-0.100
1.962,3.400,-15.800,8.900,2.900
1.963,3.100,-18.100,8.800,5.700
1.964,2.900,-19.900,8.400,8.400
1.965,2.900,-21.000,7.800,10.800
1.966,3.100,-21.400,6.700,12.900
1.967,3.400,-21.100,5.500,14.100
1.968,3.800,-20.500,4.500,14.400
1.969,4.100,-19.600,3.600,13.900
1.970,4.300,-18.200,3.000,13.100
1.971,4.600,-16.200,2.400,12.100
1.972,4.900,-13.300,1.700,10.900
1.973,5.200,-9.900,1.100,9.300
1.974,5.500,-6.600,0.600,7.300
1.975,5.900,-3.900,0.200,5.300
1.976,6.400,-1.900,-0.400,3.700
1.977,7.000,-0.400,-1.300,2.700
1.978,7.700,0.500,-2.500,2.000
1.979,8.400,0.800,-3.800,1.100
1.980,9.100,0.000,-5.200,0.100
1.981,9.500,-2.200,-6.600,-1.100
1.982,9.900,-5.600,-8.100,-2.300
1.983,10.100,-9.700,-9.800,-3.400
1.984,10.400,-13.700,-11.300,-4.900
1.985,10.700,-17.500,-12.600,-6.700
1.986,10.900,-21.200,-13.600,-8.800
1.987,11.000,-25.000,-14.200,-11.100
1.988,11.200,-29.000,-14.600,-13.400
1.989,11.300,-33.000,-14.700,-15.800
1.990,11.400,-36.500,-14.600,-18.300
1.991,11.600,-39.400,-14.200,-20.500
1.992,11.900,-41.800,-13.800,-22.200
1.993,12.000,-43.700,-13.500,-23.700
1.994,12.100,-45.100,-13.500,-25.300
1.995,12.000,-46.100,-13.800,-27.000
1.996,11.700,-46.800,-14.100,-27.800
1.997,11.500,-47.400,-14.300,-26.700
1.998,11.300,-47.500,-14.500,-23.800
1.999,11.000,-47.000,-14.600,-20.800
2.000,10.800,-45.900,-14.600,-19.700
2.001,10.500,-44.100,-14.500,-21.300
2.002,10.200,-42.300,-14.000,-23.800
2.003,9.800,-40.400,-13.100,-24.200
2.004,9.300,-38.400,-11.900,-20.800
2.005,8.700,-35.700,-10.400,-14.600
2.006,8.100,-32.600,-8.700,-8.800
2.007,7.500,-29.400,-7.200,-5.700
2.008,6.900,-27.100,-5.900,-5.600
2.009,6.500,-26.000,-4.900,-6.700
2.010,6.200,-25.800,-4.300,-7.300
2.011,6.000,-25.800,-4.000,-7.200
2.012,5.900,-25.900,-3.800,-7.500
2.013,5.800,-26.100,-3.700,-9.000
2.014,5.600,-26.800,-3.600,-11.700
2.015,5.400,-27.700,-3.600,-14.500
2.016,5.100,-28.200,-3.800,-16.600
2.017,5.000,-27.400,-3.900,-18.000
2.018,4.900,-25.300,-4.000,-19.300
2.019,5.000,-22.500,-4.200,-21.000
2.020,5.000,-19.800,-4.400,-22.900
2.021,5.000,-17.500,-4.800,-24.300
2.022,5.000,-15.200,-5.400,-24.900
2.023,4.900,-12.700,-6.200,-24.400
2.024,4.700,-10.000,-7.200,-23.100
2.025,4.600,-7.800,-8.200,-21.200
2.026,4.500,-6.300,-9.100,-19.000
2.027,4.500,-5.600,-10.100,-16.100
2.028,4.500,-5.200,-10.800,-12.600
2.029,4.400,-5.000,-11.200,-8.300
2.030,4.200,-4.700,-11.200,-3.400
2.031,4.000,-4.500,-10.700,1.700
2.032,3.800,-4.400,-9.700,6.400
2.033,3.600,-4.000,-8.400,10.300
2.034,3.500,-3.300,-7.000,13.400
2.035,3.400,-2.300,-5.600,15.900
2.036,3.200,-1.100,-4.200,17.800
2.037,3.200,0.300,-2.900,19.100
2.038,3.100,1.800,-1.900,19.600
2.039,3.200,3.500,-1.200,19.100
2.040,3.300,5.100,-0.600,17.600
2.041,3.300,6.300,-0.300,15.600
2.042,3.200,6.900,-0.100,13.400
2.043,3.000,7.100,-0.100,11.300
2.044,2.900,7.600,-0.300,9.300
2.045,3.100,8.600,-0.800,7.200
2.046,3.400,9.800,-1.500,5.100
2.047,3.600,10.700,-2.300,3.400
2.048,3.700,10.800,-3.100,2.300
2.049,3.500,10.300,-3.700,2.100
2.050,3.100,9.500,-4.000,2.600
2.051,2.700,8.700,-3.900,3.500
2.052,2.500,7.700,-3.500,4.500
2.053,2.400,6.300,-3.100,5.500
2.054,2.300,4.400,-2.500,6.500
2.055,2.300,2.500,-1.800,7.300
2.056,2.300,0.700,-0.800,8.000
2.057,2.300,-0.800,0.500,8.300
2.058,2.400,-2.200,1.800,8.200
2.059,2.400,-3.500,2.900,7.900
2.060,2.300,-4.300,3.600,7.600
2.061,2.200,-4.100,3.900,7.400
2.062,2.200,-2.700,4.000,7.200
2.063,2.100,-0.500,4.000,6.900
2.064,2.100,1.800,3.700,6.600
2.065,2.100,3.600,3.000,6.300
2.066,2.100,4.800,1.900,6.000
2.067,2.100,5.700,0.700,5.700
2.068,2.200,6.400,-0.300,5.300
2.069,2.200,6.700,-0.900,4.800
2.070,2.100,6.300,-1.200,4.000
2.071,2.100,4.900,-1.400,3.000
2.072,2.000,2.700,-1.500,1.900
2.073,1.900,0.200,-1.300,0.600
2.074,1.800,-2.100,-0.700,-0.900
2.075,1.700,-3.900,0.000,-2.800
2.076,1.600,-5.200,0.600,-5.000
2.077,1.700,-6.000,0.900,-7.400
2.078,1.700,-6.300,0.800,-9.500
2.079,1.900,-5.800,0.500,-11.400
2.080,1.900,-4.500,0.100,-13.000
2.081,1.900,-2.200,-0.300,-14.500
2.082,1.800,0.500,-1.000,-15.900
2.083,1.600,3.000,-1.800,-16.900
2.084,1.400,5.100,-2.500,-17.200
2.085,1.300,6.700,-2.900,-16.600
2.086,1.300,8.000,-2.800,-15.200
2.087,1.400,9.000,-2.200,-13.400
2.088,1.600,9.400,-1.500,-11.500
2.089,1.600,9.000,-0.700,-9.500
2.090,1.400,7.600,0.200,-7.300
2.091,1.100,5.400,1.300,-4.900
2.092,0.800,3.100,2.300,-2.100
2.093,0.500,1.000,3.100,0.600
2.094,0.300,-0.700,3.600,3.200
2.095,0.100,-2.100,3.800,5.300
2.096,-0.200,-3.300,3.900,6.900
2.097,-0.300,-3.900,3.800,8.000
2.098,-0.400,-3.600,3.400,8.700
2.099,-0.400,-1.900,2.600,9.400
2.100,-0.400,0.800,1.700,10.200
2.101,-0.300,4.200,0.700,10.800
2.102,-0.200,7.600,-0.400,11.100
2.103,-0.100,10.600,-1.900,10.600
2.104,0.000,13.600,-4.000,9.300
2.105,0.100,16.900,-6.200,7.500
2.106,0.200,20.400,-7.900,5.900
2.107,0.200,23.200,-8.600,4.900
2.108,0.300,24.400,-9.000,4.400
2.109,0.400,23.500,-9.600,4.300
2.110,0.500,20.900,-10.900,4.200
2.111,0.500,17.600,-12.100,4.200
2.112,0.400,14.300,-11.800,4.100
2.113,0.400,11.200,-9.400,4.100
2.114,0.500,7.900,-5.600,4.000
2.115,0.500,4.200,-1.800,3.900
2.116,0.400,0.600,0.600,3.500
2.117,0.100,-2.300,1.600,3.000
2.118,-0.300,-3.900,2.100,2.400
2.119,-0.800,-4.300,2.900,1.600
2.120,-1.000,-3.700,3.900,0.700
2.121,-1.100,-2.500,4.600,-0.400
2.122,-0.900,-1.000,4.500,-1.400
2.123,-0.700,1.200,3.900,-2.200
2.124,-0.500,4.000,3.300,-2.600
2.125,-0.300,7.200,3.100,-2.700
2.126,-0.100,10.300,3.100,-2.600
2.127,0.200,12.600,3.200,-2.400
2.128,0.400,13.600,3.000,-2.000
2.129,0.600,13.900,2.800,-1.600
2.130,0.700,13.700,2.600,-1.100
2.131,0.700,13.200,2.500,-0.500
2.132,0.700,12.000,2.200,-0.100
2.133,0.800,9.800,1.600,0.300
2.134,0.800,6.800,1.000,0.600
2.135,0.800,3.700,0.400,0.800
2.136,0.700,1.200,-0.100,0.900
2.137,0.400,-0.900,-0.500,0.800
2.138,0.100,-3.200,-0.800,0.400
2.139,-0.100,-6.300,-0.800,-0.100
2.140,-0.300,-9.400,-0.300,-0.800
2.141,-0.500,-11.100,0.600,-1.200
2.142,-0.500,-10.900,1.800,-1.400
2.143,-0.600,-9.800,2.800,-1.200
2.144,-0.700,-9.800,3.500,-0.800
2.145,-0.800,-12.100,3.800,-0.100
2.146,-0.900,-16.300,3.800,0.800
2.147,-0.900,-20.100,3.600,1.800
2.148,-0.900,-21.900,2.900,3.000
2.149,-0.900,-21.500,1.700,4.100
2.150,-1.000,-20.000,0.200,4.800
2.151,-0.900,-18.400,-1.200,5.000
2.152,-0.600,-16.800,-2.200,4.700
2.153,0.200,-14.600,-3.100,4.000
2.154,1.400,-11.200,-3.900,3.000
2.155,3.000,-7.100,-4.800,1.600
2.156,4.800,-3.100,-5.400,-0.300
2.157,6.500,0.400,-5.400,-2.500
2.158,8.200,3.500,-5.100,-4.500
2.159,9.600,6.500,-4.500,-5.900
2.160,10.600,9.400,-4.000,-6.700
2.161,11.100,11.700,-3.500,-7.100
2.162,11.200,12.900,-2.900,-7.700
2.163,10.600,12.800,-2.200,-8.300
2.164,9.400,12.000,-1.500,-8.600
2.165,7.300,10.900,-1.000,-8.300
2.166,4.300,9.800,-0.800,-7.000
2.167,1.000,8.700,-0.800,-5.000
2.168,-2.000,7.400,-0.600,-2.900
2.169,-4.300,5.800,-0.200,-1.100
2.170,-5.600,4.300,0.200,0.200
2.171,-6.100,3.000,0.300,0.800
2.172,-5.900,2.100,0.300,0.700
2.173,-5.400,1.700,0.500,0.300
2.174,-4.700,1.400,1.200,-0.500
2.175,-4.000,1.200,2.000,-1.300
2.176,-3.200,0.900,2.500,-2.100
2.177,-2.700,0.600,2.500,-2.800
2.178,-2.200,0.300,2.100,-3.400
2.179,-1.900,-0.200,1.400,-3.800
2.180,-1.600,-0.900,0.700,-4.000
2.181,-1.300,-1.800,-0.200,-3.900
2.182,-1.100,-2.600,-1.300,-3.500
2.183,-0.800,-3.100,-2.700,-3.100
2.184,-0.500,-3.300,-3.800,-2.500
2.185,-0.300,-3.400,-4.200,-2.000
2.186,-0.200,-3.500,-3.700,-1.600
2.187,-0.200,-3.400,-2.700,-1.000
2.188,-0.200,-2.500,-1.700,-0.500
2.189,-0.100,-0.600,-0.800,0.200
2.190,-0.100,2.300,0.200,0.900
2.191,0.100,5.400,1.300,1.600
2.192,0.200,7.900,2.400,2.400
2.193,0.400,9.700,3.200,3.400
2.194,0.500,11.100,3.400,4.400
2.195,0.600,12.100,2.900,5.500
2.196,0.800,13.000,2.100,6.500
2.197,0.800,13.100,1.300,7.300
2.198,0.900,12.400,0.400,8.000
2.199,0.900,11.100,-0.500,8.600
2.200,0.900,9.600,-1.300,9.100
2.201,0.900,8.200,-2.200,9.400
2.202,0.700,7.000,-2.900,9.400
2.203,0.500,5.700,-3.600,9.300
2.204,0.300,4.500,-4.200,8.900
2.205,0.200,3.400,-4.600,8.300
2.206,0.300,2.500,-4.700,7.400
2.207,0.300,1.800,-4.500,6.300
2.208,0.400,0.700,-4.200,4.800
2.209,0.300,-0.800,-4.300,3.100
2.210,0.100,-2.500,-4.700,1.400
2.211,-0.100,-3.900,-5.000,0.000
2.212,-0.200,-4.800,-4.800,-0.700
2.213,-0.300,-5.600,-3.800,-0.800
2.214,-0.200,-6.600,-2.100,-0.600
2.215,0.000,-7.400,-0.400,-0.400
2.216,0.100,-7.600,1.100,-0.500
2.217,0.100,-6.500,2.300,-0.800
2.218,0.200,-4.100,3.400,-1.300
2.219,0.300,-1.000,4.700,-1.900
2.220,0.600,2.100,5.800,-2.400
2.221,1.000,5.100,6.500,-3.100
2.222,1.400,8.000,6.500,-3.800
2.223,1.900,11.100,5.800,-4.400
2.224,2.400,14.000,4.800,-4.700
2.225,3.000,16.000,3.700,-4.700
2.226,3.700,16.600,2.600,-4.600
2.227,4.400,15.600,1.500,-4.500
2.228,4.900,13.700,0.200,-4.700
2.229,5.300,11.400,-1.000,-5.000
2.230,5.600,9.200,-2.000,-5.200
2.231,6.000,7.100,-2.600,-4.900
2.232,6.200,4.600,-2.800,-4.000
2.233,6.200,1.600,-2.600,-2.700
2.234,5.900,-1.300,-2.400,-1.200
2.235,5.500,-3.400,-2.100,0.200
2.236,5.200,-4.200,-1.900,1.300
2.237,4.900,-4.000,-1.500,2.300
2.238,4.500,-3.700,-1.000,3.500
2.239,4.100,-3.900,-0.800,4.800
2.240,3.600,-4.200,-1.000,6.200
2.241,3.400,-3.900,-1.800,7.300
2.242,3.500,-2.800,-3.100,8.200
2.243,3.900,-1.800,-4.400,8.800
2.244,4.200,-2.500,-5.800,9.200
2.245,4.200,-5.500,-7.100,9.600
2.246,3.900,-10.100,-8.600,9.900
2.247,3.800,-14.500,-10.100,10.000
2.248,4.000,-17.400,-11.300,9.500
2.249,4.600,-18.900,-11.800,8.300
2.250,5.200,-20.000,-11.500,6.500
2.251,5.800,-21.100,-10.400,4.300
2.252,6.300,-21.500,-8.900,2.000
2.253,6.800,-20.200,-7.300,-0.400
2.254,7.300,-16.500,-5.600,-2.800
2.255,7.900,-11.100,-3.700,-5.100
2.256,8.400,-5.400,-1.500,-7.400
2.257,8.700,-0.500,0.800,-9.400
2.258,9.000,3.700,2.800,-11.100
2.259,9.300,7.600,4.100,-12.400
2.260,9.700,11.500,4.600,-13.400
2.261,10.100,15.000,4.300,-14.000
2.262,10.500,17.100,3.400,-14.400
2.263,10.800,16.900,2.200,-14.800
2.264,11.000,14.400,0.700,-15.200
2.265,11.400,10.200,-1.000,-15.700
2.266,11.700,5.000,-2.800,-16.000
2.267,12.100,-0.500,-4.600,-16.100
2.268,12.400,-6.500,-6.000,-15.900
2.269,12.700,-13.100,-7.100,-15.500
2.270,12.900,-20.300,-7.900,-14.900
2.271,13.100,-27.300,-8.600,-14.400
2.272,13.100,-33.000,-9.300,-13.700
2.273,13.100,-36.900,-10.100,-12.800
2.274,12.800,-39.000,-10.700,-11.900
2.275,12.400,-40.000,-11.400,-10.900
2.276,11.900,-40.300,-12.100,-10.100
2.277,11.300,-40.000,-12.800,-9.700
2.278,10.600,-38.800,-13.600,-9.600
2.279,9.900,-36.400,-14.200,-9.700
2.280,9.100,-33.000,-14.600,-9.900
2.281,8.300,-29.300,-14.600,-10.200
2.282,7.500,-26.000,-14.500,-10.600
2.283,6.800,-23.300,-14.200,-11.100
2.284,6.100,-21.200,-13.800,-11.600
2.285,5.400,-19.800,-13.200,-11.900
2.286,4.600,-18.900,-12.300,-12.100
2.287,3.800,-18.600,-11.200,-12.100
2.288,3.300,-18.500,-10.200,-11.600
2.289,3.200,-18.300,-9.400,-10.500
2.290,3.800,-17.300,-8.800,-9.000
2.291,4.900,-15.200,-8.400,-7.400
2.292,6.700,-12.000,-8.000,-5.800
2.293,8.700,-8.100,-7.500,-4.000
2.294,10.500,-4.000,-6.900,-1.500
2.295,11.900,0.000,-6.200,1.400
2.296,12.300,4.300,-5.500,3.900
2.297,11.800,9.000,-4.800,5.000
2.298,10.600,13.800,-4.200,4.500
2.299,9.100,17.900,-3.900,3.700
2.300,7.700,20.600,-3.800,4.500
2.301,6.400,21.600,-4.200,7.200
2.302,5.200,21.400,-5.000,10.200
2.303,4.100,20.600,-6.300,10.800
2.304,3.200,19.700,-7.800,7.600
2.305,2.300,18.300,-9.000,1.600
2.306,1.600,16.200,-9.500,-4.300
2.307,1.000,13.600,-9.300,-7.700
2.308,0.600,11.000,-9.000,-8.600
2.309,0.400,9.100,-9.100,-8.600
2.310,0.200,7.800,-9.800,-9.200
2.311,0.100,7.100,-10.500,-10.500
2.312,0.000,6.500,-9.900,-11.200
2.313,0.000,6.100,-7.700,-10.300
2.314,0.000,6.400,-4.300,-8.000
2.315,0.000,7.100,-0.700,-5.400
2.316,0.000,8.100,2.100,-3.200
2.317,0.000,8.700,4.100,-1.300
2.318,0.000,8.500,5.900,0.900
2.319,0.100,7.700,7.900,3.500
2.320,0.300,6.700,10.100,6.300
2.321,0.500,6.100,11.700,9.000
2.322,0.700,5.600,12.400,11.200
2.323,1.000,5.200,12.100,13.000
2.324,1.300,4.400,11.200,14.600
2.325,1.700,3.000,10.200,16.100
2.326,2.000,1.300,9.200,17.400
2.327,2.400,-0.600,8.000,18.500
2.328,2.700,-2.100,6.500,19.700
2.329,2.900,-3.200,4.800,20.800
2.330,3.000,-3.800,3.300,21.700
2.331,3.100,-3.900,2.300,22.100
2.332,3.100,-3.700,2.100,21.800
2.333,3.100,-2.800,2.400,21.000
2.334,3.100,-1.100,2.900,20.000
2.335,3.000,1.900,3.300,18.900
2.336,2.900,5.800,3.800,17.800
2.337,2.700,9.400,4.800,16.700
2.338,2.500,11.900,6.100,15.500
2.339,2.400,12.800,7.000,14.300
2.340,2.300,13.100,7.100,13.100
2.341,2.200,14.000,6.200,11.800
2.342,2.200,15.900,4.600,10.400
2.343,2.100,17.500,2.800,9.100
2.344,1.900,17.000,1.200,7.900
2.345,1.600,13.700,-0.700,7.000
2.346,1.300,8.600,-2.900,6.300
2.347,1.000,4.100,-5.200,5.800
2.348,0.800,1.700,-6.700,5.300
2.349,0.900,1.500,-6.700,4.900
2.350,1.200,2.200,-4.800,4.900
2.351,1.700,2.800,-1.600,5.500
2.352,2.500,3.500,2.400,6.900
2.353,3.700,5.100,6.800,9.100
2.354,5.100,8.200,11.700,11.800
2.355,6.900,12.000,17.400,15.100
2.356,8.900,15.800,23.900,19.400
2.357,10.800,19.600,30.900,24.700
2.358,12.200,24.400,38.100,31.200
2.359,12.700,31.100,45.200,38.900
2.360,12.500,39.500,51.900,47.200
2.361,12.300,47.700,57.500,55.100
2.362,13.600,53.000,60.600,61.100
2.363,17.900,53.600,59.400,63.400
2.364,25.600,48.900,52.900,60.900
2.365,35.600,39.800,40.400,52.600
2.366,46.000,27.400,22.000,38.100
2.367,55.000,12.400,-1.900,17.700
2.368,61.900,-5.900,-29.700,-7.800
2.369,67.400,-28.600,-58.600,-35.700
2.370,72.600,-56.700,-84.600,-63.200
2.371,77.100,-90.400,-105.100,-88.200
2.372,78.500,-127.900,-119.700,-110.600
2.373,73.600,-166.400,-129.400,-131.600
2.374,61.300,-202.700,-135.600,-151.900
2.375,43.900,-234.800,-139.700,-170.800
2.376,27.400,-262.500,-143.700,-187.600
2.377,17.700,-284.800,-148.900,-200.900
2.378,15.700,-,-153.700,-208.000
2.379,15.000,-288.000,-152.300,-203.400
2.380,5.900,-248.700,-137.800,-182.100
2.381,-17.100,-178.200,-107.700,-143.800
2.382,-50.200,-89.000,-67.100,-94.600
2.383,-82.900,-1.300,-26.200,-45.000
2.384,-105.700,68.200,6.400,-3.900
2.385,-114.600,112.800,26.800,24.900
2.386,-111.000,134.800,36.300,41.900
2.387,-98.800,140.600,38.200,50.200
2.388,-82.000,136.200,35.500,53.000
2.389,-63.200,125.700,30.400,52.400
2.390,-44.900,111.900,24.400,49.800
2.391,-28.800,96.800,18.800,45.800
2.392,-16.400,81.800,14.600,41.000
2.393,-8.200,67.700,12.300,35.800
2.394,-4.000,54.700,11.700,30.700
2.395,-2.600,43.100,12.300,26.100
2.396,-2.800,33.200,13.100,22.300
2.397,-3.600,25.300,13.800,19.300
2.398,-4.100,19.400,14.400,17.000
2.399,-4.300,14.900,15.000,15.100
2.400,-4.000,11.200,15.400,13.600
2.401,-3.600,7.600,15.500,12.400
2.402,-3.000,4.200,15.400,11.700
2.403,-2.300,1.200,15.400,11.300
2.404,-1.700,-1.600,15.800,11.200
2.405,-1.300,-4.100,16.100,11.000
2.406,-1.000,-6.700,15.700,10.700
2.407,-1.000,-9.200,14.500,10.100
2.408,-1.000,-11.100,13.100,9.400
2.409,-1.000,-12.300,12.700,8.600
2.410,-1.000,-12.700,13.500,7.600
2.411,-0.900,-12.900,14.600,6.400
2.412,-0.800,-13.200,14.600,4.800
2.413,-0.600,-13.500,12.400,3.000
2.414,-0.600,-13.700,8.700,1.400
2.415,-0.500,-13.500,4.900,0.100
2.416,-0.600,-13.000,2.600,-0.800
2.417,-0.600,-12.100,1.800,-1.300
2.418,-0.600,-10.900,1.600,-1.600
2.419,-0.500,-9.100,1.000,-1.800
2.420,-0.300,-6.700,-0.100,-2.100
2.421,-0.200,-3.500,-1.200,-2.200
2.422,-0.300,0.000,-1.700,-2.200
2.423,-0.400,3.900,-1.500,-2.000
2.424,-0.500,8.100,-1.200,-1.700
2.425,-0.500,12.700,-1.000,-1.100
2.426,-0.300,17.300,-0.900,-0.300
2.427,0.000,21.200,-0.800,0.600
2.428,0.200,24.000,-0.200,1.700
2.429,0.400,25.800,0.500,2.900
2.430,0.400,27.200,1.200,4.500
2.431,0.500,28.300,1.700,6.400
2.432,0.400,28.700,2.000,8.500
2.433,0.400,27.600,2.300,10.400
2.434,0.300,25.300,2.500,11.900
2.435,0.100,22.700,2.900,13.100
2.436,-0.100,20.300,3.300,14.100
2.437,-0.200,17.400,3.700,15.100
2.438,-0.200,12.500,4.100,15.800
2.439,-0.300,5.600,4.700,15.800
2.440,-0.400,-1.200,5.400,14.800
2.441,-0.500,-4.800,6.300,13.200
2.442,-0.600,-3.800,7.300,11.300
2.443,-0.600,-0.700,8.300,9.600
2.444,-0.500,0.400,9.100,8.000
2.445,-0.400,-3.400,9.500,6.500
2.446,-0.300,-10.700,9.700,4.700
2.447,-0.100,-17.300,9.600,3.100
2.448,0.300,-19.200,9.300,1.900
2.449,0.700,-16.200,8.700,1.400
2.450,1.100,-10.900,8.000,1.700
2.451,1.600,-6.400,7.200,2.400
2.452,1.900,-3.800,6.300,3.100
2.453,2.300,-2.200,5.400,3.800
2.454,2.600,-0.200,4.400,4.500
2.455,2.800,2.300,3.500,5.300
2.456,3.000,4.300,2.400,6.200
2.457,3.100,5.200,1.500,7.200
2.458,3.200,5.000,0.800,8.100
2.459,3.100,4.600,0.400,8.700
2.460,2.900,4.600,0.400,8.800
2.461,2.500,5.200,0.900,8.700
2.462,2.000,6.200,1.500,8.200
2.463,1.600,7.300,2.300,7.600
2.464,1.200,8.600,3.100,7.100
2.465,1.100,9.900,3.900,6.600
2.466,1.100,11.100,4.600,6.000
2.467,1.200,12.100,5.200,5.200
2.468,1.200,12.800,5.400,4.100
2.469,1.300,13.200,5.300,2.900
2.470,1.300,13.000,4.900,1.700
2.471,1.400,12.000,4.300,0.800
2.472,1.500,10.100,3.600,-0.100
2.473,1.700,7.300,2.800,-0.900
2.474,2.100,4.200,1.900,-1.900
2.475,2.500,1.200,0.800,-3.000
2.476,3.000,-1.300,-0.300,-4.000
2.477,3.500,-3.300,-1.400,-4.900
2.478,4.000,-4.900,-2.200,-5.500
2.479,4.600,-6.300,-2.700,-5.800
2.480,5.200,-7.300,-2.800,-6.000
2.481,5.800,-7.800,-2.700,-6.000
2.482,6.400,-7.800,-2.300,-5.900
2.483,6.900,-7.400,-1.600,-5.400
2.484,7.300,-6.700,-0.500,-4.500
2.485,7.700,-5.800,1.100,-3.200
2.486,8.000,-4.700,2.800,-1.700
2.487,8.400,-3.500,4.300,0.000
2.488,8.700,-2.000,5.300,1.900
2.489,8.800,-0.600,5.900,3.900
2.490,8.700,0.600,6.200,5.900
2.491,8.600,1.400,6.500,7.700
2.492,8.300,1.900,6.500,9.000
2.493,8.200,2.100,5.900,9.900
2.494,8.100,2.100,4.700,10.700
2.495,8.000,2.000,3.200,11.500
2.496,7.900,1.600,1.600,11.700
2.497,7.800,0.800,0.300,10.900
2.498,7.600,-0.500,-0.700,8.900
2.499,7.500,-2.200,-1.700,6.700
2.500,7.500,-4.200,-2.600,5.600
2.501,7.600,-6.200,-3.300,5.900
2.502,7.800,-8.400,-3.600,6.800
2.503,8.000,-10.600,-3.400,6.600
2.504,8.200,-12.700,-2.900,4.200
2.505,8.400,-14.800,-2.300,0.200
2.506,8.600,-16.800,-2.000,-3.600
2.507,8.800,-18.600,-1.700,-5.700
2.508,9.000,-20.600,-1.600,-6.000
2.509,9.300,-22.700,-1.500,-5.300
2.510,9.600,-24.800,-1.600,-4.900
2.511,10.000,-26.600,-1.900,-5.000
2.512,10.400,-28.300,-2.700,-5.000
2.513,10.800,-29.900,-3.900,-4.700
2.514,11.400,-31.500,-5.200,-4.300
2.515,11.900,-33.000,-6.500,-4.500
2.516,12.400,-34.100,-7.500,-5.400
2.517,12.700,-34.800,-8.400,-7.000
2.518,12.800,-35.000,-9.200,-8.800
2.519,12.700,-35.300,-9.800,-10.700
2.520,12.600,-35.700,-10.200,-12.900
2.521,12.400,-36.300,-10.200,-15.300
2.522,12.400,-36.700,-9.700,-17.800
2.523,12.200,-37.000,-9.100,-20.000
2.524,11.900,-37.400,-8.500,-21.600
2.525,11.500,-38.300,-7.900,-22.800
2.526,10.900,-39.800,-7.300,-23.700
2.527,10.400,-41.600,-6.700,-24.300
2.528,10.000,-43.100,-6.100,-24.500
2.529,9.800,-44.100,-5.800,-24.000
2.530,9.700,-44.900,-6.000,-22.700
2.531,9.800,-45.500,-6.800,-21.000
2.532,10.300,-45.800,-8.000,-19.300
2.533,11.300,-45.500,-9.400,-17.900
2.534,12.600,-44.500,-10.700,-17.100
2.535,14.100,-43.000,-12.000,-16.700
2.536,15.700,-41.400,-13.100,-16.300
2.537,17.100,-39.800,-14.200,-15.800
2.538,18.200,-38.000,-15.100,-15.400
2.539,19.000,-35.700,-15.600,-15.200
2.540,19.400,-33.300,-15.600,-15.400
2.541,19.500,-31.500,-15.300,-15.900
2.542,19.100,-30.600,-14.700,-16.500
2.543,17.900,-30.400,-14.000,-16.500
2.544,15.700,-30.000,-13.000,-15.900
2.545,12.700,-28.600,-11.600,-14.600
2.546,9.200,-26.400,-10.200,-12.700
2.547,5.900,-24.100,-9.100,-10.700
2.548,3.300,-22.300,-8.500,-8.700
2.549,1.700,-21.200,-8.700,-6.900
2.550,0.900,-20.300,-9.500,-5.300
2.551,0.800,-19.300,-10.300,-3.900
2.552,1.100,-18.000,-10.900,-2.800
2.553,1.600,-16.900,-11.200,-1.800
2.554,2.200,-16.000,-11.400,-0.900
2.555,2.700,-15.300,-11.400,-0.100
2.556,3.200,-14.600,-11.300,0.700
2.557,3.700,-13.500,-10.700,1.300
2.558,4.100,-12.100,-9.800,1.800
2.559,4.400,-10.600,-8.700,2.000
2.560,4.600,-9.000,-7.600,2.000
2.561,4.600,-7.600,-6.500,2.000
2.562,4.500,-6.400,-5.500,2.000
2.563,4.300,-5.300,-4.500,1.900
2.564,4.100,-4.600,-3.600,1.800
2.565,3.900,-4.300,-2.900,1.400
2.566,3.600,-4.300,-2.500,1.000
2.567,3.400,-4.500,-2.400,0.600
2.568,3.100,-4.500,-2.300,0.400
2.569,2.800,-4.300,-2.000,0.400
2.570,2.500,-3.900,-1.500,0.500
2.571,2.300,-3.300,-1.000,0.400
2.572,2.100,-2.700,-0.300,0.200
2.573,2.000,-2.200,0.500,-0.400
2.574,1.900,-1.700,1.600,-1.200
2.575,1.900,-1.000,2.700,-1.900
2.576,2.000,-0.100,3.500,-2.400
2.577,2.000,0.900,3.800,-2.500
2.578,2.100,1.900,3.700,-2.500
2.579,2.200,2.900,3.200,-2.300
2.580,2.300,4.000,2.400,-2.100
2.581,2.400,5.300,1.500,-2.200
2.582,2.500,6.800,0.200,-2.300
2.583,2.500,8.100,-1.300,-2.000
2.584,2.500,9.400,-2.800,-1.200
2.585,2.500,10.700,-4.100,0.100
2.586,2.300,12.000,-4.800,1.500
2.587,2.100,13.300,-5.000,2.600
2.588,1.900,14.400,-4.600,3.600
2.589,1.700,14.900,-3.900,4.800
2.590,1.700,14.700,-3.000,6.000
2.591,1.700,14.000,-1.700,7.100
2.592,1.800,13.100,-0.300,7.500
2.593,1.900,12.300,1.200,7.200
2.594,1.900,11.700,2.700,6.700
2.595,1.900,11.100,3.900,6.400
2.596,1.900,10.300,4.700,6.000
2.597,1.900,9.400,4.900,4.800
2.598,2.000,8.300,4.600,2.800
2.599,2.100,7.300,3.900,0.600
2.600,2.300,6.500,3.100,-0.500
2.601,2.500,6.000,2.300,0.000
2.602,2.800,5.600,1.200,1.300
2.603,3.000,5.300,-0.400,1.400
2.604,3.200,5.100,-2.500,-0.700
2.605,3.500,5.100,-4.200,-4.600
2.606,3.600,5.300,-4.700,-8.300
2.607,3.700,5.600,-3.700,-10.200
2.608,3.700,5.900,-2.400,-10.000
2.609,3.700,6.100,-2.300,-8.600
2.610,3.800,6.400,-3.800,-7.400
2.611,3.800,6.700,-5.700,-6.700
2.612,3.900,6.900,-5.700,-6.200
2.613,4.000,7.000,-2.800,-5.100
2.614,4.000,6.900,2.000,-3.600
2.615,3.900,6.600,6.500,-1.800
2.616,3.900,6.300,8.600,-0.300
2.617,3.900,6.000,8.300,0.800
2.618,4.100,5.900,6.800,1.800
2.619,4.300,5.700,5.700,3.100
2.620,4.600,5.600,5.100,4.900
2.621,4.900,5.300,4.400,6.800
2.622,5.100,4.900,3.100,8.600
2.623,5.500,4.600,1.400,9.900
2.624,5.700,4.500,-0.200,10.600
2.625,6.000,4.500,-1.200,11.100
2.626,6.100,4.400,-1.700,11.300
2.627,6.200,4.200,-2.100,11.400
2.628,6.300,3.900,-2.700,11.200
2.629,6.200,3.600,-3.000,10.700
2.630,6.200,3.400,-2.900,9.700
2.631,6.100,3.200,-2.300,8.300
2.632,6.000,3.100,-1.600,7.000
2.633,5.900,3.000,-1.000,5.600
2.634,5.900,2.700,-0.700,4.200
2.635,6.000,2.400,-0.500,2.800
2.636,5.900,2.300,-0.200,1.300
2.637,5.600,2.200,0.100,-0.200
2.638,5.100,2.200,0.200,-1.600
2.639,4.500,2.400,0.200,-2.800
2.640,4.000,2.500,-0.100,-3.900
2.641,3.700,2.700,-0.400,-5.000
2.642,3.700,2.800,-0.700,-6.000
2.643,3.800,2.800,-1.000,-6.800
2.644,3.700,2.600,-1.200,-7.600
2.645,3.300,2.000,-1.300,-8.300
2.646,2.700,1.200,-1.400,-8.900
2.647,2.100,0.400,-1.500,-9.400
2.648,1.900,-0.100,-1.300,-9.700
2.649,1.900,-0.400,-0.900,-9.800
2.650,2.100,-0.600,-0.500,-9.500
2.651,2.300,-0.800,-0.100,-8.800
2.652,2.400,-1.000,0.200,-7.900
2.653,2.400,-1.300,0.400,-6.900
2.654,2.500,-1.400,0.600,-5.800
2.655,2.600,-1.400,0.800,-4.700
2.656,2.700,-1.200,0.700,-3.400
2.657,3.000,-0.700,0.200,-1.900
2.658,3.300,-0.100,-0.700,-0.200
2.659,3.700,0.600,-1.900,1.300
2.660,4.000,1.400,-3.000,2.700
2.661,4.200,2.400,-4.000,3.800
2.662,4.200,3.500,-4.700,4.800
2.663,4.100,4.500,-5.300,5.600
2.664,3.900,5.300,-5.600,6.400
2.665,3.700,6.000,-5.700,7.200
2.666,3.500,6.600,-5.300,7.600
2.667,3.200,7.100,-4.200,7.700
2.668,2.900,7.300,-2.700,7.300
2.669,2.400,7.200,-0.900,6.600
2.670,1.900,6.600,0.900,5.700
2.671,1.500,5.800,2.400,4.600
2.672,1.000,4.900,3.900,3.200
2.673,0.600,4.400,5.400,1.600
2.674,0.100,4.000,6.800,-0.200
2.675,-0.400,3.800,7.800,-1.900
2.676,-0.800,3.600,8.100,-3.300
2.677,-1.100,3.300,7.700,-4.200
2.678,-1.200,3.100,6.600,-4.700
2.679,-1.200,3.100,5.400,-4.900
2.680,-1.200,3.200,4.100,-4.800
2.681,-1.200,3.200,2.900,-4.500
2.682,-1.200,3.100,1.500,-4.000
2.683,-1.200,2.900,-0.100,-3.400
2.684,-1.100,2.800,-1.600,-2.800
2.685,-0.900,2.800,-2.700,-2.100
2.686,-0.700,2.900,-3.200,-1.300
2.687,-0.400,2.900,-3.200,-0.700
2.688,-0.200,2.800,-2.900,-0.100
2.689,0.000,2.400,-2.500,0.200
2.690,0.100,1.800,-2.000,0.200
2.691,0.200,1.300,-1.300,-0.100
2.692,0.300,0.900,-0.200,-0.600
2.693,0.400,0.500,1.000,-1.700
2.694,0.400,0.100,2.100,-3.500
2.695,0.300,-0.400,3.100,-5.900
2.696,0.200,-0.700,3.700,-8.300
2.697,0.000,-0.800,4.200,-10.000
2.698,-0.300,-0.400,4.500,-10.600
2.699,-0.500,0.200,4.700,-10.900
2.700,-0.800,0.800,4.800,-11.700
2.701,-1.100,1.200,4.600,-13.100
2.702,-1.400,1.300,4.200,-14.300
2.703,-1.700,1.500,3.600,-13.800
2.704,-2.100,1.800,2.900,-10.700
2.705,-2.400,2.300,2.100,-6.000
2.706,-2.700,2.900,1.500,-1.200
2.707,-2.800,3.300,0.900,2.300
2.708,-2.900,3.600,0.500,4.500
2.709,-2.900,3.500,0.100,6.400
2.710,-2.700,3.200,-0.100,8.700
2.711,-2.500,2.800,-0.100,11.200
2.712,-2.300,2.400,0.000,13.000
2.713,-1.900,2.100,0.100,13.300
2.714,-1.500,2.100,0.200,12.400
2.715,-1.000,2.300,0.400,11.200
2.716,-0.500,2.500,0.700,10.100
2.717,0.000,2.400,1.200,9.300
2.718,0.300,2.100,1.700,8.300
2.719,0.500,1.500,2.300,6.900
2.720,0.600,1.000,2.700,5.100
2.721,0.800,0.700,3.000,3.300
2.722,0.900,0.700,3.200,1.800
2.723,1.000,0.800,3.200,0.700
2.724,0.900,0.800,3.200,-0.100
2.725,0.800,0.600,3.100,-0.800
2.726,0.500,0.300,2.900,-1.300
2.727,0.200,-0.200,2.600,-1.800
2.728,-0.100,-0.500,2.400,-2.000
2.729,-0.300,-0.600,2.100,-2.100
2.730,-0.400,-0.700,1.800,-2.000
2.731,-0.500,-0.700,1.500,-1.700
2.732,-0.500,-0.700,1.300,-1.300
2.733,-0.500,-0.700,1.100,-1.100
2.734,-0.600,-0.700,0.900,-0.900
2.735,-0.800,-0.800,0.700,-0.800
2.736,-1.000,-1.000,0.500,-0.500
2.737,-1.200,-1.300,0.300,0.000
2.738,-1.300,-1.400,0.200,0.600
2.739,-1.400,-1.300,0.200,0.900
2.740,-1.500,-1.000,0.200,0.800
2.741,-1.500,-0.900,0.300,0.300
2.742,-1.500,-1.100,0.300,-0.400
2.743,-1.500,-1.300,0.400,-0.900
2.744,-1.400,-1.300,0.500,-1.200
2.745,-1.400,-0.800,0.600,-1.100
2.746,-1.300,0.100,0.800,-1.000
2.747,-1.300,1.000,0.900,-0.800
2.748,-1.300,1.500,0.900,-0.700
2.749,-1.300,1.700,0.900,-0.600
2.750,-1.200,1.800,0.800,-0.500
2.751,-0.900,2.000,0.700,-0.100
2.752,-0.600,2.300,0.600,0.200
2.753,-0.200,2.700,0.500,0.700
2.754,0.100,2.900,0.500,1.200
2.755,0.500,2.900,0.400,1.600
2.756,0.800,2.900,0.300,1.900
2.757,1.200,2.900,0.200,2.100
2.758,1.700,2.700,0.100,2.200
2.759,2.100,2.400,-0.100,1.900
2.760,2.500,2.000,-0.200,1.500
2.761,2.500,1.600,-0.200,0.900
2.762,2.400,1.400,-0.200,0.400
2.763,2.000,1.400,-0.100,-0.300
2.764,1.500,1.300,-0.100,-1.100
2.765,1.100,1.100,0.000,-2.100
2.766,0.800,0.600,-0.100,-3.100
2.767,0.500,0.100,-0.100,-3.800
2.768,0.200,-0.300,0.000,-4.000
2.769,0.000,-0.600,0.100,-3.800
2.770,-0.200,-0.600,0.200,-3.300
2.771,-0.200,-0.500,0.300,-2.900
2.772,0.100,-0.500,0.400,-2.500
2.773,0.500,-0.500,0.500,-2.000
2.774,1.000,-0.500,0.500,-1.400
2.775,1.500,-0.300,0.500,-0.700
2.776,2.100,-0.100,0.500,0.200
2.777,2.800,-0.100,0.400,0.900
2.778,3.600,-0.400,0.200,1.500
2.779,4.400,-1.000,0.000,1.900
2.780,5.100,-1.700,-0.200,2.000
2.781,5.400,-2.300,-0.200,1.800
2.782,5.400,-2.500,-0.200,1.400
2.783,5.100,-2.500,-0.200,0.900
2.784,4.800,-2.500,-0.200,0.500
2.785,4.500,-2.500,0.000,0.300
2.786,4.000,-2.400,0.200,0.300
2.787,3.500,-2.000,0.400,0.500
2.788,2.800,-1.000,0.700,0.600
2.789,1.900,0.300,1.000,0.900
2.790,0.900,1.800,1.300,1.200
2.791,-0.100,3.200,1.600,1.700
2.792,-1.000,4.400,2.000,2.200
2.793,-1.900,5.200,2.400,2.900
2.794,-2.700,5.800,2.900,3.600
2.795,-3.500,6.200,3.400,4.300
2.796,-4.200,6.500,3.700,4.800
2.797,-4.600,6.700,3.800,4.900
2.798,-4.700,6.600,3.900,4.600
2.799,-4.600,6.200,3.800,4.200
2.800,-4.300,5.600,3.700,4.200
2.801,-4.000,4.600,3.600,4.500
2.802,-3.600,3.600,3.500,4.800
2.803,-3.300,2.400,3.300,4.500
2.804,-2.900,1.300,3.000,3.400
2.805,-2.500,0.300,2.600,1.700
2.806,-2.000,-0.700,2.100,0.000
2.807,-1.500,-1.500,1.600,-1.200
2.808,-1.000,-2.200,1.000,-2.000
2.809,-0.600,-2.900,0.500,-2.800
2.810,-0.100,-3.800,0.000,-4.000
2.811,0.500,-4.900,-0.600,-5.600
2.812,1.100,-6.300,-1.200,-7.100
2.813,1.700,-7.700,-2.000,-8.400
2.814,2.500,-9.000,-2.800,-9.400
2.815,3.300,-10.200,-3.700,-10.300
2.816,4.300,-11.300,-4.600,-11.200
2.817,5.600,-12.600,-5.400,-12.100
2.818,6.900,-14.100,-6.300,-12.800
2.819,8.000,-15.700,-7.200,-13.200
2.820,8.900,-17.200,-8.100,-13.100
2.821,9.600,-18.600,-9.000,-12.700
2.822,10.200,-19.700,-9.700,-12.100
2.823,10.600,-20.700,-10.200,-11.500
2.824,10.800,-21.600,-10.600,-10.900
2.825,10.400,-22.300,-10.900,-10.400
2.826,9.400,-22.800,-11.200,-9.800
2.827,8.100,-23.100,-11.400,-9.100
2.828,6.700,-23.000,-11.500,-8.300
2.829,5.400,-22.700,-11.600,-7.400
2.830,4.200,-22.100,-11.400,-6.700
2.831,2.900,-21.200,-11.100,-6.100
2.832,1.700,-20.300,-10.600,-5.800
2.833,0.800,-19.500,-10.100,-5.600
2.834,0.100,-18.900,-9.500,-5.500
2.835,-0.100,-18.300,-8.900,-5.600
2.836,0.000,-17.700,-8.200,-5.800
2.837,0.300,-16.900,-7.600,-6.400
2.838,0.800,-16.000,-7.100,-7.200
2.839,1.400,-15.100,-6.700,-8.200
2.840,2.300,-14.400,-6.600,-9.000
2.841,3.500,-13.900,-6.600,-9.600
2.842,4.900,-13.600,-6.800,-10.000
2.843,6.600,-13.100,-7.100,-10.100
2.844,8.400,-12.400,-7.500,-10.000
2.845,10.000,-11.200,-7.900,-9.600
2.846,10.900,-9.800,-8.200,-8.900
2.847,10.900,-8.300,-8.100,-8.000
2.848,9.900,-6.700,-7.600,-6.900
2.849,8.300,-4.900,-6.800,-5.900
2.850,6.500,-2.900,-5.800,-4.900
2.851,4.900,-0.600,-4.800,-3.900
2.852,3.600,1.700,-3.800,-2.900
2.853,2.500,4.100,-3.100,-1.800
2.854,1.700,6.300,-2.500,-0.800
2.855,1.100,8.400,-1.900,0.100
2.856,0.700,10.300,-1.400,1.000
2.857,0.400,11.900,-0.700,1.800
2.858,0.300,13.100,0.000,2.600
2.859,0.300,13.900,0.700,3.300
2.860,0.500,14.200,1.300,4.000
2.861,0.700,14.300,1.800,4.500
2.862,1.100,14.300,2.300,4.900
2.863,1.400,14.200,2.700,5.000
2.864,1.700,14.000,3.100,5.100
2.865,1.700,13.600,3.200,5.300
2.866,1.500,13.100,3.200,5.500
2.867,1.200,12.700,3.000,5.700
2.868,0.800,12.300,2.800,5.900
2.869,0.600,11.900,2.600,5.900
2.870,0.300,11.400,2.500,5.800
2.871,0.100,10.900,2.400,5.800
2.872,-0.200,10.500,2.300,5.800
2.873,-0.500,10.200,2.100,6.100
2.874,-0.800,10.100,2.100,6.500
2.875,-1.000,10.200,2.000,7.000
2.876,-1.000,10.300,2.100,7.400
2.877,-0.700,10.400,2.200,7.600
2.878,-0.300,10.500,2.300,7.700
2.879,0.300,10.900,2.400,7.700
2.880,1.200,11.300,2.600,7.900
2.881,2.100,11.700,2.900,8.200
2.882,3.000,12.000,3.400,8.600
2.883,3.800,12.300,3.900,8.900
2.884,4.300,12.500,4.300,9.000
2.885,4.600,12.800,4.600,8.900
2.886,4.600,13.200,4.700,8.700
2.887,4.600,13.600,4.800,8.400
2.888,4.300,13.900,4.900,8.300
2.889,4.000,13.800,5.000,8.300
2.890,3.400,13.300,5.100,8.200
2.891,2.800,12.600,5.100,8.200
2.892,2.200,11.900,5.200,8.000
2.893,1.700,11.400,5.200,7.600
2.894,1.100,11.000,5.300,7.100
2.895,0.600,10.700,5.400,6.500
2.896,0.100,10.200,5.500,5.700
2.897,-0.200,9.700,5.600,4.800
2.898,-0.500,9.300,5.700,3.900
2.899,-0.800,9.100,5.900,3.300
2.900,-1.100,9.200,6.200,3.100
2.901,-1.300,9.300,6.700,3.300
2.902,-1.200,9.400,7.300,3.900
2.903,-0.500,9.300,8.000,4.700
2.904,0.800,9.100,8.900,5.600
2.905,2.500,8.800,10.000,7.000
2.906,4.400,8.700,11.500,8.900
2.907,6.700,8.900,13.300,11.800
2.908,9.400,9.700,15.500,15.600
2.909,12.500,11.500,18.300,20.300
2.910,15.400,14.800,22.300,26.000
2.911,17.600,20.100,27.400,32.700
2.912,18.900,27.100,33.400,40.500
2.913,19.400,35.000,39.700,48.600
2.914,20.000,41.900,44.800,55.900
2.915,22.300,46.000,47.100,60.900
2.916,27.400,46.100,45.200,62.000
2.917,35.000,42.000,38.100,58.400
2.918,44.000,34.200,25.400,49.600
2.919,52.400,23.400,7.100,35.100
2.920,59.200,9.400,-16.400,14.900
2.921,64.500,-8.400,-43.000,-9.800
2.922,69.300,-31.400,-69.400,-36.300
2.923,73.600,-60.100,-92.000,-61.700
2.924,76.000,-94.000,-109.000,-84.900
2.925,73.200,-131.200,-120.700,-106.400
2.926,63.000,-168.700,-128.500,-127.200
2.927,46.000,-204.100,-133.700,-147.400
2.928,26.800,-235.900,-137.800,-166.300
2.929,11.600,-264.000,-142.500,-183.200
2.930,4.600,-286.200,-148.200,-196.300
2.931,4.000,-,-151.900,-202.000
2.932,2.300,-282.300,-147.100,-194.700
2.933,-9.300,-238.200,-127.700,-170.600
2.934,-33.200,-166.300,-93.600,-130.800
2.935,-63.800,-81.100,-51.500,-83.100
2.936,-91.100,-1.000,-11.200,-37.400
2.937,-107.500,60.400,19.800,-1.200
2.938,-110.400,99.300,38.900,23.000
2.939,-102.000,118.700,47.600,36.800
2.940,-86.400,124.300,48.800,43.200
2.941,-67.400,120.800,45.200,44.800
2.942,-48.100,111.900,39.000,43.500
2.943,-30.400,100.300,31.900,40.500
2.944,-15.500,88.100,25.100,36.500
2.945,-4.200,76.500,19.400,32.200
2.946,3.200,65.900,15.200,28.000
2.947,6.800,56.000,12.400,24.100
2.948,7.200,46.500,10.900,20.500
2.949,5.600,37.600,10.100,17.200
2.950,3.200,30.000,9.600,14.200
2.951,1.200,23.900,9.200,11.900
2.952,-0.100,19.600,8.700,10.200
2.953,-0.800,16.400,8.000,9.100
2.954,-1.300,13.800,7.300,8.400
2.955,-2.000,11.700,6.600,7.800
2.956,-2.800,10.000,6.000,7.400
2.957,-3.900,8.600,5.700,7.100
2.958,-5.200,7.500,5.600,6.900
2.959,-6.500,6.600,5.600,6.800
2.960,-7.900,5.600,5.800,6.700
2.961,-9.000,4.600,5.900,6.800
2.962,-9.600,3.700,6.000,7.000
2.963,-9.700,2.800,6.000,7.200
2.964,-9.200,2.200,6.000,7.200
2.965,-8.200,1.700,6.100,7.100
2.966,-7.000,1.400,6.400,6.800
2.967,-5.600,1.100,6.700,6.400
2.968,-3.900,0.900,6.900,6.200
2.969,-2.100,0.600,6.900,6.100
2.970,-0.100,0.300,6.900,5.900
2.971,1.900,0.100,6.800,5.800
2.972,3.700,0.200,6.700,5.600
2.973,5.000,0.500,6.600,5.400
2.974,5.800,0.900,6.500,5.200
2.975,6.400,1.300,6.500,5.000
2.976,6.800,1.600,6.400,4.800
2.977,7.200,1.900,6.400,4.600
2.978,7.300,2.100,6.400,4.300
2.979,7.200,2.400,6.400,4.100
2.980,6.800,2.700,6.500,3.900
2.981,6.200,2.800,6.400,3.600
2.982,5.600,2.800,6.100,3.300
2.983,4.900,2.800,5.800,3.100
2.984,4.100,2.800,5.400,2.800
2.985,3.300,2.800,5.000,2.700
2.986,2.400,2.800,4.800,2.500
2.987,1.600,2.800,4.600,2.400
2.988,0.900,2.600,4.500,2.100
2.989,0.300,2.500,4.200,1.700
2.990,0.200,2.300,3.900,1.400
2.991,0.400,2.300,3.500,1.100
2.992,1.000,2.300,3.200,0.800
2.993,2.000,2.400,3.000,0.600
2.994,3.100,2.600,2.900,0.500
2.995,4.200,2.900,3.000,0.300
2.996,5.600,3.200,3.100,0.300
2.997,7.100,3.200,3.300,0.300
2.998,8.800,2.900,3.500,0.300
2.999,10.500,2.600,3.600,0.300
3.000,12.000,2.200,3.800,0.300
3.001,13.200,1.800,3.800,0.300
3.002,13.900,1.300,3.800,0.200
3.003,14.400,0.800,3.700,0.100
3.004,14.800,0.200,3.600,-0.100
3.005,15.200,-0.200,3.500,-0.300
3.006,15.400,-0.200,3.400,-0.500
3.007,15.200,-0.200,3.200,-0.700
3.008,14.300,-0.300,3.100,-0.700
3.009,12.700,-0.800,3.000,-0.600
3.010,10.800,-1.600,3.000,-0.300
3.011,8.800,-2.300,3.100,-0.100
3.012,6.900,-2.800,3.000,0.100
3.013,5.100,-2.900,2.700,-0.100
3.014,3.200,-2.600,2.100,-0.300
3.015,1.300,-2.300,1.600,-0.500
3.016,-0.400,-1.900,1.300,-0.500
3.017,-1.500,-1.600,1.000,-0.300
3.018,-2.000,-1.200,0.900,0.000
3.019,-1.900,-0.900,0.700,0.500
3.020,-1.400,-0.600,0.600,0.800
3.021,-0.800,-0.300,0.600,1.000
3.022,-0.100,-0.200,0.800,1.000
3.023,1.000,-0.200,1.100,0.900
3.024,2.500,-0.400,1.300,0.800
3.025,4.400,-0.900,1.400,0.900
3.026,6.500,-1.400,1.600,1.200
3.027,8.400,-2.100,1.800,1.600
3.028,9.900,-2.700,2.000,1.900
3.029,10.900,-3.100,2.200,2.000
3.030,11.400,-3.600,2.300,1.900
3.031,11.700,-4.100,2.200,1.800
3.032,11.700,-4.600,2.100,1.700
3.033,11.300,-5.100,2.000,1.800
3.034,10.300,-5.700,2.000,2.000
3.035,8.500,-6.400,2.100,2.200
3.036,6.400,-7.200,2.300,2.300
3.037,4.500,-7.800,2.300,2.100
3.038,3.200,-7.700,2.300,1.700
3.039,2.700,-7.100,2.100,1.300
3.040,2.300,-6.500,2.000,1.000
3.041,1.800,-6.400,1.900,0.800
3.042,0.900,-7.200,1.900,0.600
3.043,0.200,-8.200,1.900,0.400
3.044,0.500,-8.500,2.000,0.300
3.045,2.000,-7.500,2.000,0.100
3.046,4.400,-5.600,1.800,-0.200
3.047,6.500,-3.800,1.500,-0.400
3.048,7.800,-2.900,1.200,-0.600
3.049,8.200,-3.200,0.900,-0.900
3.050,8.200,-4.100,0.800,-1.200
3.051,8.100,-5.100,0.600,-1.600
3.052,8.200,-6.000,0.300,-2.000
3.053,8.200,-6.800,0.000,-2.400
3.054,7.800,-7.900,-0.300,-2.700
3.055,7.300,-9.200,-0.700,-2.900
3.056,7.100,-10.500,-1.000,-3.000
3.057,7.300,-11.600,-1.300,-3.200
3.058,8.000,-12.700,-1.700,-3.400
3.059,8.800,-13.800,-2.100,-3.500
3.060,9.500,-15.100,-2.500,-3.800
3.061,10.300,-16.400,-2.900,-4.200
3.062,11.000,-17.600,-3.300,-4.800
3.063,11.700,-18.600,-3.600,-5.500
3.064,12.100,-19.400,-4.100,-6.200
3.065,12.200,-20.300,-4.600,-6.900
3.066,12.100,-21.300,-5.000,-7.300
3.067,11.900,-22.400,-5.500,-7.800
3.068,11.700,-23.600,-5.900,-8.100
3.069,11.300,-24.600,-6.400,-8.500
3.070,10.800,-25.600,-6.900,-8.900
3.071,10.400,-26.300,-7.300,-9.400
3.072,10.100,-27.100,-7.900,-10.200
3.073,10.100,-28.200,-8.400,-11.300
3.074,10.500,-29.500,-8.800,-12.500
3.075,11.100,-31.000,-9.300,-13.600
3.076,11.800,-32.500,-9.700,-14.400
3.077,12.600,-33.700,-10.100,-15.000
3.078,13.500,-34.600,-10.500,-15.400
3.079,14.500,-35.400,-11.000,-15.800
3.080,15.600,-36.300,-11.400,-16.200
3.081,16.800,-37.400,-11.700,-16.700
3.082,17.900,-38.600,-12.100,-17.200
3.083,18.700,-39.500,-12.300,-17.700
3.084,19.100,-40.300,-12.600,-18.100
3.085,19.400,-40.800,-12.800,-18.400
3.086,19.500,-41.300,-13.000,-18.600
3.087,19.500,-41.900,-13.000,-18.600
3.088,19.100,-42.200,-13.000,-18.500
3.089,18.400,-42.100,-12.900,-18.300
3.090,17.000,-41.500,-12.900,-18.000
3.091,15.100,-40.400,-12.800,-17.800
3.092,12.800,-39.200,-12.700,-17.700
3.093,10.300,-37.900,-12.400,-17.600
3.094,7.600,-36.700,-11.900,-17.600
3.095,5.000,-35.300,-11.400,-17.400
3.096,2.500,-33.900,-10.900,-17.200
3.097,0.200,-32.600,-10.500,-16.800
3.098,-1.700,-31.400,-10.200,-16.400
3.099,-3.200,-30.400,-9.900,-15.800
3.100,-4.000,-29.400,-9.700,-15.200
3.101,-4.300,-28.200,-9.300,-14.600
3.102,-4.200,-26.800,-9.000,-14.000
3.103,-3.700,-25.500,-8.700,-13.500
3.104,-3.100,-24.300,-8.400,-13.100
3.105,-2.300,-23.500,-8.200,-12.600
3.106,-1.300,-22.800,-8.000,-12.100
3.107,-0.100,-22.100,-7.900,-11.600
3.108,1.300,-21.100,-7.800,-11.200
3.109,2.600,-19.700,-7.600,-11.000
3.110,3.900,-17.800,-7.300,-10.900
3.111,5.100,-15.900,-7.000,-10.600
3.112,6.100,-14.000,-6.700,-10.000
3.113,7.200,-12.500,-6.400,-9.000
3.114,8.400,-11.300,-6.200,-7.900
3.115,9.500,-10.200,-6.100,-6.800
3.116,10.300,-9.100,-5.900,-6.100
3.117,10.700,-7.800,-5.800,-5.500
3.118,10.700,-6.600,-5.700,-5.100
3.119,10.400,-5.500,-5.700,-4.700
3.120,10.000,-4.700,-5.500,-4.200
3.121,9.700,-4.000,-5.300,-3.600
3.122,9.300,-3.500,-4.900,-3.000
3.123,8.900,-2.900,-4.400,-2.400
3.124,8.500,-2.400,-4.000,-1.800
3.125,8.100,-2.000,-3.600,-1.200
3.126,8.000,-1.700,-3.200,-0.700
3.127,8.100,-1.500,-2.800,-0.200
3.128,8.300,-1.200,-2.300,0.300
3.129,8.500,-0.900,-2.000,0.800
3.130,8.500,-0.700,-1.700,1.300
3.131,8.500,-0.600,-1.400,1.600
3.132,8.400,-0.500,-1.200,1.800
3.133,8.300,-0.300,-1.000,1.700
3.134,8.000,0.000,-0.800,1.600
3.135,7.200,0.300,-0.600,1.400
3.136,5.900,0.500,-0.600,1.400
3.137,4.500,0.800,-0.500,1.600
3.138,3.500,1.600,-0.500,1.900
3.139,3.200,2.900,-0.300,2.100
3.140,3.100,4.400,-0.100,2.300
3.141,2.700,5.200,0.100,2.100
3.142,1.900,5.000,0.200,1.900
3.143,1.100,4.500,0.300,1.600
3.144,1.200,4.400,0.200,1.500
3.145,2.700,5.600,0.100,1.700
3.146,5.000,7.600,0.000,2.100
3.147,6.800,9.500,-0.100,2.400
3.148,7.500,10.400,-0.200,2.600
3.149,6.900,10.200,-0.200,2.600
3.150,5.800,9.500,-0.100,2.600
3.151,4.500,9.000,-0.100,2.700
3.152,3.200,9.100,-0.100,3.100
3.153,1.500,9.400,-0.100,3.600
3.154,-0.500,9.500,-0.200,4.100
3.155,-2.500,9.300,-0.400,4.500
3.156,-4.000,8.900,-0.600,4.700
3.157,-4.600,8.400,-0.700,4.900
3.158,-4.600,7.900,-0.800,5.000
3.159,-4.500,7.400,-0.800,5.100
3.160,-4.100,6.900,-0.800,5.100
3.161,-3.500,6.600,-0.700,5.100
3.162,-2.400,6.400,-0.500,4.900
3.163,-1.100,6.400,-0.200,4.600
3.164,0.100,6.200,0.000,4.300
3.165,0.900,5.900,0.100,4.000
3.166,1.400,5.300,0.200,3.900
3.167,1.800,4.500,0.200,3.800
3.168,2.100,3.900,0.200,3.500
3.169,2.300,3.300,0.200,3.200
3.170,2.100,2.800,0.300,2.900
3.171,1.700,2.400,0.400,2.500
3.172,1.100,2.100,0.300,2.200
3.173,0.700,1.900,0.200,2.000
3.174,0.600,1.600,0.100,1.700
3.175,0.700,1.400,0.000,1.400
3.176,1.000,1.100,-0.100,1.100
3.177,1.400,0.900,-0.300,1.000
3.178,2.300,0.600,-0.500,1.100
3.179,3.400,0.500,-0.700,1.200
3.180,4.900,0.400,-0.800,1.300
3.181,6.700,0.500,-1.000,1.000
3.182,8.300,0.700,-1.100,0.400
3.183,9.800,1.100,-1.200,-0.100
3.184,11.100,1.600,-1.200,-0.200
3.185,12.100,2.100,-1.200,0.100
3.186,13.100,2.700,-0.900,0.800
3.187,13.800,3.300,-0.600,1.300
3.188,14.200,4.000,-0.300,1.500
3.189,14.200,4.700,-0.100,1.400
3.190,13.500,5.500,-0.100,1.200
3.191,12.500,6.100,-0.200,1.000
3.192,11.100,6.500,-0.200,1.200
3.193,9.600,6.700,-0.100,1.500
3.194,8.100,6.700,0.100,1.900
3.195,6.400,6.700,0.300,2.200
3.196,4.800,6.600,0.500,2.300
3.197,3.200,6.400,0.500,2.400
3.198,1.700,5.900,0.600,2.400
3.199,0.500,5.200,0.600,2.400
3.200,-0.500,4.400,0.700,2.500
3.201,-1.400,3.600,0.800,2.700
3.202,-2.100,2.900,0.800,2.700
3.203,-2.700,2.200,0.800,2.500
3.204,-3.100,1.700,0.800,2.200
3.205,-3.400,1.200,0.800,1.800
3.206,-3.600,0.900,0.800,1.300
3.207,-3.700,0.800,0.800,0.900
3.208,-3.700,0.800,0.700,0.400
3.209,-3.600,0.900,0.600,0.100
3.210,-3.200,1.100,0.600,-0.200
3.211,-2.800,1.300,0.600,-0.500
3.212,-2.300,1.600,0.600,-0.700
3.213,-1.800,1.700,0.500,-0.900
3.214,-1.300,1.800,0.300,-1.000
3.215,-0.800,1.700,0.200,-1.100
3.216,0.000,1.200,0.100,-1.300
3.217,0.900,0.500,0.000,-1.400
3.218,2.000,-0.400,-0.300,-1.500
3.219,2.800,-1.200,-0.600,-1.500
3.220,3.500,-1.800,-1.000,-1.400
3.221,3.900,-2.100,-1.200,-1.200
3.222,4.400,-2.200,-1.200,-0.900
3.223,4.700,-2.100,-1.100,-0.600
3.224,4.800,-2.100,-1.100,-0.300
3.225,4.400,-2.300,-1.200,-0.100
3.226,3.400,-2.400,-1.300,0.200
3.227,2.100,-2.400,-1.300,0.400
3.228,0.900,-2.100,-1.200,0.700
3.229,-0.200,-1.400,-1.000,0.900
3.230,-1.100,-0.700,-1.000,1.200
3.231,-1.900,0.000,-1.000,1.400
3.232,-2.700,0.500,-1.000,1.600
3.233,-3.500,0.900,-1.000,1.700
3.234,-4.100,1.200,-1.000,1.700
3.235,-4.600,1.400,-1.000,1.600
3.236,-4.900,1.600,-1.000,1.400
3.237,-5.100,1.600,-0.900,1.200
3.238,-5.000,1.400,-0.700,0.900
3.239,-4.600,1.100,-0.500,0.700
3.240,-4.100,0.700,-0.300,0.500
3.241,-3.900,0.500,-0.100,0.400
3.242,-4.100,0.500,-0.100,0.400
3.243,-4.600,0.600,0.000,0.300
3.244,-4.700,0.600,0.100,0.100
3.245,-4.200,0.500,0.200,-0.200
3.246,-3.300,0.500,0.200,-0.500
3.247,-2.500,0.600,0.200,-0.800
3.248,-2.400,0.800,0.100,-0.800
3.249,-3.000,0.800,0.100,-0.800
3.250,-3.900,0.600,0.000,-0.900
3.251,-4.800,0.100,0.000,-1.200
3.252,-5.600,-0.300,-0.100,-1.700
3.253,-6.200,-0.400,-0.100,-2.300
3.254,-6.800,-0.200,-0.200,-2.700
3.255,-7.300,0.200,-0.200,-3.100
3.256,-7.600,0.500,-0.200,-3.300
3.257,-7.500,0.500,-0.300,-3.500
3.258,-7.100,0.300,-0.300,-3.400
3.259,-6.500,0.100,-0.200,-3.200
3.260,-5.900,-0.100,-0.200,-2.700
3.261,-5.300,-0.500,-0.100,-2.100
3.262,-4.500,-1.000,0.000,-1.500
3.263,-3.600,-1.600,0.100,-0.900
3.264,-2.400,-2.000,0.200,-0.300
3.265,-1.100,-2.300,0.200,0.500
3.266,0.200,-2.400,0.300,1.400
3.267,1.400,-2.500,0.300,2.200
3.268,2.700,-2.700,0.400,2.900
3.269,4.100,-2.800,0.500,3.400
3.270,5.600,-2.900,0.500,3.600
3.271,7.000,-2.900,0.600,3.600
3.272,7.900,-3.000,0.600,3.300
3.273,8.400,-3.100,0.700,2.700
3.274,8.400,-3.300,0.800,1.800
3.275,8.000,-3.400,0.900,1.000
3.276,7.400,-3.200,0.900,0.300
3.277,6.700,-3.100,0.800,0.000
3.278,5.800,-2.900,0.500,-0.300
3.279,4.900,-2.800,0.100,-0.600
3.280,4.200,-2.700,-0.400,-1.300
3.281,3.800,-2.600,-1.100,-2.300
3.282,3.800,-2.400,-1.800,-3.400
3.283,4.200,-2.400,-2.500,-4.200
3.284,4.800,-2.300,-3.400,-4.600
3.285,5.400,-2.300,-4.100,-4.600
3.286,5.900,-2.100,-4.700,-4.200
3.287,6.200,-1.800,-5.100,-3.900
3.288,6.300,-1.700,-5.400,-3.700
3.289,6.300,-2.100,-5.400,-3.600
3.290,5.800,-2.800,-5.200,-3.400
3.291,4.500,-3.500,-4.600,-2.800
3.292,2.100,-3.900,-3.500,-1.600
3.293,-1.000,-3.900,-2.300,0.100
3.294,-4.200,-3.500,-1.100,1.900
3.295,-7.000,-2.900,-0.200,3.500
3.296,-8.800,-2.200,0.500,4.500
3.297,-9.800,-1.300,0.800,4.700
3.298,-9.900,-0.200,1.000,4.100
3.299,-9.300,1.000,1.100,3.300
3.300,-8.300,2.000,1.100,2.700
3.301,-7.000,2.700,1.000,2.400
3.302,-5.600,3.000,1.000,2.300
3.303,-4.100,3.300,0.900,2.100
3.304,-2.800,3.500,0.900,1.400
3.305,-1.400,3.600,0.900,0.300
3.306,-0.100,3.600,0.800,-0.700
3.307,1.100,3.200,0.500,-1.300
3.308,2.000,2.500,0.300,-1.200
3.309,2.700,1.700,0.100,-0.800
3.310,2.900,0.900,0.100,-0.200
3.311,3.000,0.200,0.100,0.300
3.312,2.900,-0.100,0.100,0.600
3.313,3.000,-0.200,-0.200,0.700
3.314,3.000,0.100,-0.500,0.800
3.315,2.800,0.500,-0.900,0.900
3.316,2.300,1.100,-1.100,1.000
3.317,1.400,1.900,-1.200,1.200
3.318,0.300,2.600,-1.300,1.500
3.319,-0.700,3.200,-1.300,1.800
3.320,-1.500,3.600,-1.400,2.000
3.321,-2.200,3.900,-1.500,2.100
3.322,-2.800,4.100,-1.500,2.100
3.323,-3.400,4.300,-1.500,2.000
3.324,-3.800,4.300,-1.400,1.900
3.325,-3.800,4.100,-1.300,1.600
3.326,-3.600,3.600,-1.200,1.200
3.327,-3.200,2.800,-1.000,0.900
3.328,-2.900,2.100,-0.800,0.800
3.329,-3.200,1.400,-0.800,0.800
3.330,-3.900,0.900,-1.100,1.000
3.331,-4.900,0.400,-1.500,1.200
3.332,-5.600,0.000,-2.000,1.300
3.333,-6.100,-0.300,-2.400,1.100
3.334,-6.500,-0.500,-2.700,0.900
3.335,-7.100,-0.700,-2.800,0.600
3.336,-8.000,-1.000,-3.100,0.400
3.337,-8.300,-1.200,-3.400,0.300
3.338,-7.300,-1.100,-3.700,0.100
3.339,-5.200,-0.700,-3.900,-0.200
3.340,-3.000,-0.100,-3.700,-0.400
3.341,-2.100,0.300,-3.200,-0.700
3.342,-3.000,0.200,-2.400,-0.800
3.343,-4.500,-0.100,-1.600,-0.900
3.344,-4.600,-0.100,-0.800,-1.000
3.345,-2.100,0.500,0.000,-1.100
3.346,2.000,1.600,1.000,-1.200
3.347,6.000,2.500,1.900,-1.300
3.348,7.900,2.900,2.700,-1.300
3.349,8.000,2.700,3.200,-1.300
3.350,7.200,2.000,3.300,-1.200
3.351,6.800,1.200,3.200,-1.200
3.352,6.900,0.700,3.100,-1.200
3.353,6.600,0.400,2.900,-1.200
3.354,5.400,0.100,2.800,-1.100
3.355,3.700,-0.400,2.500,-0.900
3.356,2.100,-0.800,2.100,-0.500
3.357,1.100,-1.200,1.600,0.100
3.358,0.600,-1.500,1.000,0.600
3.359,0.100,-1.600,0.600,1.000
3.360,-0.300,-1.700,0.300,1.100
3.361,-0.300,-1.800,0.000,0.900
3.362,0.400,-2.000,-0.300,0.600
3.363,1.900,-2.300,-0.600,0.300
3.364,3.800,-2.700,-0.900,-0.100
3.365,5.600,-3.200,-1.200,-0.400
3.366,7.200,-3.900,-1.500,-0.900
3.367,8.700,-4.800,-1.900,-1.500
3.368,10.200,-5.900,-2.300,-2.300
3.369,11.700,-7.100,-2.700,-3.300
3.370,12.900,-8.500,-3.200,-4.300
3.371,13.600,-10.000,-3.800,-5.500
3.372,13.800,-11.500,-4.300,-6.700
3.373,13.500,-13.000,-4.900,-8.100
3.374,13.000,-14.400,-5.600,-9.500
3.375,12.500,-15.800,-6.200,-10.800
3.376,12.000,-17.000,-7.100,-12.000
3.377,11.500,-18.100,-8.100,-13.000
3.378,10.900,-19.000,-9.200,-14.100
3.379,10.300,-19.800,-10.200,-15.100
3.380,10.000,-20.600,-11.200,-16.100
3.381,10.100,-21.200,-12.000,-17.000
3.382,10.500,-21.700,-12.700,-17.700
3.383,11.100,-21.900,-13.300,-18.300
3.384,11.600,-21.900,-13.800,-18.700
3.385,11.900,-21.700,-14.200,-19.100
3.386,12.100,-21.600,-14.400,-19.400
3.387,12.400,-21.500,-14.500,-19.400
3.388,12.400,-21.400,-14.500,-19.100
3.389,12.000,-21.100,-14.300,-18.700
3.390,11.100,-20.700,-14.100,-18.100
3.391,9.900,-20.200,-13.700,-17.600
3.392,8.700,-19.700,-13.300,-17.100
3.393,7.500,-19.300,-12.800,-16.700
3.394,6.500,-18.900,-12.200,-16.100
3.395,5.400,-18.400,-11.600,-15.400
3.396,4.500,-18.100,-11.000,-14.500
3.397,3.800,-18.000,-10.400,-13.300
3.398,3.400,-18.100,-9.900,-12.100
3.399,3.600,-18.200,-9.400,-11.100
3.400,4.200,-18.200,-9.200,-10.500
3.401,5.200,-17.800,-9.100,-10.300
3.402,6.600,-17.000,-9.400,-10.200
3.403,8.300,-16.000,-9.800,-9.800
3.404,10.300,-14.800,-10.200,-9.000
3.405,12.200,-13.400,-10.500,-7.900
3.406,13.500,-11.700,-10.500,-6.900
3.407,13.600,-9.700,-10.100,-6.300
3.408,12.600,-7.400,-9.300,-6.100
3.409,10.600,-5.000,-8.300,-6.200
3.410,8.200,-2.700,-7.200,-6.100
3.411,6.000,-0.500,-6.000,-5.800
3.412,4.200,1.700,-5.000,-5.300
3.413,2.600,4.000,-4.200,-4.600
3.414,1.100,6.500,-3.600,-3.800
3.415,-0.300,8.900,-3.100,-3.000
3.416,-1.300,10.900,-2.500,-2.200
3.417,-1.800,12.200,-1.900,-1.600
3.418,-1.600,12.800,-1.200,-1.000
3.419,-1.000,12.900,-0.600,-0.500
3.420,-0.300,13.000,0.000,0.100
3.421,0.500,13.100,0.400,0.900
3.422,1.300,13.400,0.800,1.600
3.423,2.200,13.400,1.200,2.400
3.424,3.200,13.100,1.500,3.000
3.425,4.100,12.400,1.700,3.500
3.426,4.600,11.500,1.800,4.000
3.427,4.700,10.600,1.800,4.400
3.428,4.600,10.000,1.700,4.700
3.429,4.400,9.800,1.600,4.900
3.430,4.300,9.800,1.700,5.100
3.431,4.100,9.700,1.700,5.300
3.432,3.700,9.600,1.800,5.600
3.433,3.200,9.500,1.800,5.700
3.434,2.700,9.500,1.700,5.800
3.435,2.400,9.800,1.700,5.800
3.436,2.400,10.200,1.700,5.800
3.437,2.500,10.700,1.800,6.100
3.438,2.100,11.000,2.100,6.500
3.439,1.300,11.200,2.400,6.800
3.440,0.400,11.400,2.700,6.800
3.441,0.000,11.600,2.900,6.700
3.442,0.400,11.900,3.000,6.600
3.443,1.000,12.000,3.000,6.600
3.444,1.100,11.900,3.000,6.700
3.445,0.100,11.600,3.100,6.600
3.446,-1.800,11.300,3.400,6.500
3.447,-3.400,11.200,3.600,6.300
3.448,-4.100,11.400,3.700,6.200
3.449,-3.600,11.500,3.800,6.400
3.450,-2.700,11.200,3.700,6.900
3.451,-1.800,10.700,3.600,7.200
3.452,-1.400,10.300,3.500,7.400
3.453,-1.100,10.400,3.500,7.400
3.454,-0.800,11.000,3.500,7.300
3.455,-0.200,11.800,3.500,7.200
3.456,0.500,12.400,3.400,7.300
3.457,1.000,12.800,3.400,7.300
3.458,1.500,13.000,3.400,7.300
3.459,1.900,13.400,3.400,7.300
3.460,2.500,13.900,3.600,7.300
3.461,3.200,14.500,3.900,7.400
3.462,4.000,14.800,4.300,7.800
3.463,5.000,14.900,4.900,8.300
3.464,6.100,14.900,5.800,9.100
3.465,7.200,15.000,7.100,10.100
3.466,8.400,15.000,8.800,11.300
3.467,10.000,14.900,11.000,12.700
3.468,11.800,14.600,13.400,14.500
3.469,13.900,14.500,16.100,17.000
3.470,16.100,15.000,19.100,20.200
3.471,18.100,16.500,22.900,24.300
3.472,19.300,19.600,27.500,29.100
3.473,19.600,24.300,33.100,34.800
3.474,19.100,30.500,39.300,41.200
3.475,18.600,37.200,44.900,47.700
3.476,19.200,42.800,48.700,53.400
3.477,22.200,45.500,49.200,56.900
3.478,27.900,43.900,45.100,56.700
3.479,35.900,37.800,36.100,51.900
3.480,44.600,28.000,22.000,42.000
3.481,52.500,15.300,2.900,26.800
3.482,58.800,0.000,-20.700,6.500
3.483,63.700,-18.700,-47.000,-17.400
3.484,68.000,-41.900,-72.600,-42.700
3.485,72.200,-70.500,-94.600,-66.800
3.486,75.000,-104.300,-111.100,-88.800
3.487,73.700,-141.100,-122.600,-109.000
3.488,66.000,-177.900,-130.200,-128.500
3.489,51.900,-211.900,-135.500,-147.400
3.490,34.500,-241.800,-139.600,-165.500
3.491,19.800,-267.500,-144.100,-182.100
3.492,12.100,-287.900,-149.700,-195.800
3.493,11.100,-,-154.000,-203.100
3.494,10.000,-287.100,-151.300,-198.700
3.495,0.300,-248.200,-135.400,-178.400
3.496,-22.300,-181.300,-104.600,-142.400
3.497,-54.000,-97.700,-64.000,-96.600
3.498,-85.500,-14.900,-22.700,-50.500
3.499,-108.200,52.100,11.000,-11.900
3.500,-118.000,96.900,33.300,15.800
3.501,-116.000,120.800,44.700,32.900
3.502,-105.400,129.100,47.900,41.900
3.503,-89.800,127.600,45.800,45.300
3.504,-71.900,120.300,40.700,44.900
3.505,-54.000,110.100,34.200,42.300
3.506,-37.900,98.500,27.500,38.500
3.507,-24.800,86.300,21.500,34.200
3.508,-15.300,74.200,16.800,30.000
3.509,-9.200,62.500,13.500,25.600
3.510,-6.000,51.500,11.300,21.400
3.511,-4.800,41.800,10.100,17.500
3.512,-4.600,33.400,9.500,14.100
3.513,-4.700,26.500,9.200,11.600
3.514,-4.600,20.900,9.000,9.800
3.515,-4.000,16.600,8.800,8.500
3.516,-2.900,13.200,8.300,7.600
3.517,-1.600,10.800,7.800,7.000
3.518,-0.300,9.000,7.200,6.600
3.519,0.800,7.800,6.700,6.400
3.520,1.600,6.800,6.300,6.500
3.521,2.300,5.800,6.100,6.600
3.522,2.900,4.900,6.000,6.700
3.523,3.400,4.000,5.900,6.800
3.524,3.700,3.300,5.800,6.900
3.525,3.700,2.700,5.800,7.000
3.526,3.400,2.400,5.700,7.100
3.527,2.900,2.300,5.600,7.200
3.528,2.300,2.400,5.500,7.300
3.529,1.900,2.700,5.500,7.300
3.530,1.300,3.200,5.500,7.200
3.531,0.800,3.900,5.600,7.000
3.532,0.200,4.600,5.700,6.700
3.533,-0.200,5.200,5.800,6.600
3.534,-0.500,5.800,6.000,6.600
3.535,-0.600,6.500,6.100,6.700
3.536,-0.700,7.200,6.200,6.600
3.537,-0.700,7.700,6.400,6.400
3.538,-0.400,7.700,6.400,6.000
3.539,0.200,7.300,6.300,5.600
3.540,0.900,6.800,6.100,5.100
3.541,1.300,6.700,6.000,4.900
3.542,1.100,7.100,5.900,4.600
3.543,0.800,7.600,5.900,4.300
3.544,0.800,7.500,5.900,3.900
3.545,1.400,6.200,5.900,3.400
3.546,2.600,4.200,5.700,2.900
3.547,3.700,2.300,5.400,2.500
3.548,4.100,1.200,5.000,2.200
3.549,3.800,1.100,4.800,2.100
3.550,3.200,1.400,4.700,2.100
3.551,2.700,1.700,4.600,2.100
3.552,2.300,1.700,4.600,2.100
3.553,1.900,1.300,4.500,2.000
3.554,1.100,1.000,4.300,2.000
3.555,0.200,0.700,4.100,2.000
3.556,-0.800,0.300,3.900,2.200
3.557,-1.600,-0.200,3.700,2.700
3.558,-2.400,-1.000,3.600,3.300
3.559,-3.200,-1.800,3.600,4.000
3.560,-4.000,-2.500,3.600,4.600
3.561,-4.900,-3.100,3.700,5.200
3.562,-5.700,-3.500,3.900,5.600
3.563,-6.300,-3.600,4.100,6.000
3.564,-6.600,-3.500,4.300,6.200
3.565,-6.700,-3.200,4.500,6.400
3.566,-6.500,-2.600,4.600,6.400
3.567,-6.100,-1.900,4.700,6.200
3.568,-5.500,-0.800,4.700,5.900
3.569,-4.700,0.500,4.600,5.500
3.570,-3.500,2.000,4.600,5.200
3.571,-2.200,3.700,4.700,5.000
3.572,-0.600,5.300,4.700,4.700
3.573,1.000,6.800,4.600,4.200
3.574,2.500,7.800,4.300,3.800
3.575,3.800,8.500,4.100,3.300
3.576,4.900,8.900,3.800,3.100
3.577,6.000,9.000,3.600,3.000
3.578,6.800,8.800,3.500,3.000
3.579,7.600,8.400,3.500,3.100
3.580,8.100,7.600,3.400,2.900
3.581,8.300,6.500,3.300,2.500
3.582,8.300,5.100,3.200,2.100
3.583,8.000,3.600,3.100,1.600
3.584,7.600,2.300,3.100,1.300
3.585,7.300,1.000,3.100,1.200
3.586,7.000,-0.200,3.100,1.300
3.587,6.600,-1.300,3.100,1.300
3.588,6.100,-2.400,3.000,1.300
3.589,5.400,-3.500,2.900,1.300
3.590,4.600,-4.300,2.800,1.200
3.591,4.000,-4.800,2.800,1.300
3.592,3.700,-5.000,2.800,1.500
3.593,3.600,-4.900,2.800,1.900
3.594,3.600,-4.600,2.700,2.400
3.595,3.500,-4.200,2.700,2.600
3.596,3.500,-3.500,2.500,2.800
3.597,3.600,-2.400,2.500,2.900
3.598,3.900,-1.000,2.400,3.000
3.599,4.300,0.400,2.300,3.100
3.600,4.700,1.600,2.300,3.200
3.601,4.900,2.300,2.300,3.200
3.602,4.900,2.300,2.300,3.100
3.603,4.900,2.100,2.400,3.100
3.604,4.800,1.800,2.500,3.300
3.605,4.600,1.500,2.700,3.600
3.606,4.400,1.100,2.800,3.900
3.607,4.200,0.200,2.900,3.900
3.608,4.000,-1.500,3.000,3.600
3.609,3.800,-3.900,3.000,3.000
3.610,3.700,-6.400,2.900,2.400
3.611,3.600,-8.700,2.800,1.800
3.612,3.500,-10.900,2.600,1.200
3.613,3.500,-13.000,2.400,0.700
3.614,3.400,-15.200,2.100,0.200
3.615,3.200,-17.300,1.700,-0.300
3.616,3.200,-18.900,1.300,-0.800
3.617,3.300,-19.300,0.800,-1.200
3.618,3.500,-18.700,0.300,-1.600
3.619,3.800,-17.400,-0.100,-2.000
3.620,4.300,-15.900,-0.600,-2.400
3.621,4.900,-14.700,-1.100,-2.900
3.622,5.500,-13.600,-1.700,-3.500
3.623,6.300,-12.600,-2.300,-4.100
3.624,7.100,-11.600,-2.900,-4.600
3.625,8.000,-11.100,-3.500,-4.900
3.626,8.900,-11.200,-4.100,-4.900
3.627,9.800,-11.900,-4.500,-4.900
3.628,10.500,-13.100,-4.900,-5.000
3.629,10.900,-14.700,-5.100,-5.300
3.630,11.300,-16.400,-5.300,-5.900
3.631,11.400,-18.200,-5.500,-6.700
3.632,11.500,-20.000,-5.800,-7.500
3.633,11.600,-21.700,-6.200,-8.200
3.634,11.500,-23.200,-6.700,-8.900
3.635,11.200,-24.600,-7.200,-9.500
3.636,10.800,-26.100,-7.700,-10.100
3.637,10.600,-27.600,-8.100,-10.800
3.638,11.100,-28.800,-8.400,-11.500
3.639,12.200,-29.800,-8.900,-12.200
3.640,13.200,-30.600,-9.400,-12.900
3.641,13.600,-31.500,-9.900,-13.500
3.642,13.100,-32.700,-10.400,-13.900
3.643,12.300,-33.900,-10.800,-14.300
3.644,12.100,-34.500,-11.200,-14.700
3.645,13.100,-34.400,-11.600,-15.100
3.646,15.000,-33.600,-12.100,-15.400
3.647,16.700,-32.800,-12.500,-15.800
3.648,17.300,-32.600,-12.700,-16.100
3.649,16.800,-33.100,-12.600,-16.500
3.650,15.600,-34.000,-12.300,-17.100
3.651,14.500,-34.700,-12.000,-17.700
3.652,13.700,-35.200,-11.700,-18.400
3.653,12.800,-35.300,-11.500,-19.100
3.654,11.900,-35.400,-11.200,-19.700
3.655,10.800,-35.600,-11.000,-20.000
3.656,9.900,-35.900,-10.700,-20.200
3.657,9.500,-36.200,-10.600,-20.200
3.658,9.600,-36.400,-10.600,-20.200
3.659,10.100,-36.600,-10.900,-20.300
3.660,10.900,-36.500,-11.200,-20.600
