'Elapsed time','AECG1','AECG2','AECG3','AECG4'
'seconds','uV','uV','uV','uV'
0.000,13.000,2.000,-2.300,-10.900
0.001,14.600,3.100,-3.300,-10.700
0.002,16.700,4.100,-4.300,-10.500
0.003,18.400,5.000,-5.300,-10.700
0.004,19.000,5.600,-6.100,-11.200
0.005,18.500,5.900,-6.500,-12.000
0.006,17.200,6.000,-6.300,-12.800
0.007,16.100,5.900,-5.400,-13.500
0.008,15.600,5.700,-3.900,-13.800
0.009,15.900,5.200,-2.000,-13.700
0.010,16.700,4.700,0.000,-13.200
0.011,17.400,4.100,1.700,-12.600
0.012,17.700,3.300,2.900,-12.300
0.013,17.400,2.400,3.200,-12.400
0.014,16.700,1.400,2.700,-12.900
0.015,15.800,0.100,1.800,-13.700
0.016,15.100,-1.200,0.700,-14.700
0.017,14.700,-2.400,-0.400,-15.400
0.018,14.400,-3.200,-1.200,-15.800
0.019,14.300,-3.400,-1.900,-15.800
0.020,14.200,-2.700,-2.200,-15.500
0.021,14.300,-1.300,-2.400,-14.900
0.022,14.600,0.400,-2.300,-14.300
0.023,15.100,1.900,-1.900,-13.700
0.024,15.800,2.700,-1.200,-13.300
0.025,16.500,2.800,-0.400,-13.300
0.026,16.800,2.200,0.700,-13.500
0.027,16.800,1.600,2.000,-13.700
0.028,16.500,1.300,3.500,-13.900
0.029,16.200,1.300,4.800,-13.800
0.030,16.000,1.400,5.500,-13.600
0.031,15.900,1.100,5.100,-13.500
0.032,15.700,0.100,3.600,-13.800
0.033,15.200,-1.600,1.100,-14.600
0.034,14.200,-3.200,-1.700,-15.700
0.035,13.100,-4.100,-3.800,-16.600
0.036,12.200,-3.700,-4.700,-17.300
0.037,11.900,-2.100,-4.000,-17.400
0.038,12.400,0.200,-2.200,-17.200
0.039,13.400,2.300,0.100,-16.600
0.040,14.500,3.800,1.900,-15.800
0.041,15.200,4.400,2.900,-15.200
0.042,15.200,4.400,3.100,-14.700
0.043,14.800,4.100,2.700,-14.600
0.044,14.400,3.900,2.400,-14.900
0.045,14.300,3.800,2.700,-15.400
0.046,14.500,3.700,3.500,-15.800
0.047,14.900,3.400,4.400,-16.100
0.048,15.000,2.800,4.700,-16.100
0.049,14.200,2.100,3.800,-16.200
0.050,12.700,1.300,1.600,-16.700
0.051,10.600,0.500,-1.300,-17.700
0.052,8.700,0.000,-3.800,-19.100
0.053,7.700,-0.300,-5.000,-20.300
0.054,8.000,-0.200,-4.400,-20.700
0.055,9.500,0.300,-2.500,-20.200
0.056,11.800,1.200,-0.400,-19.000
0.057,14.100,2.400,0.800,-17.500
0.058,15.900,3.600,0.500,-16.300
0.059,16.900,4.400,-0.800,-15.600
0.060,16.900,4.700,-2.200,-15.300
0.061,16.300,4.500,-2.900,-15.100
0.062,15.300,3.800,-2.400,-15.000
0.063,14.200,2.800,-1.300,-14.900
0.064,13.100,1.600,-0.200,-15.200
0.065,12.200,0.200,0.100,-15.800
0.066,11.500,-1.200,-0.400,-16.600
0.067,11.000,-2.700,-1.500,-17.500
0.068,10.700,-3.800,-2.600,-18.300
0.069,10.700,-4.600,-3.200,-18.800
0.070,11.000,-4.800,-3.500,-19.100
0.071,11.700,-4.500,-3.300,-19.300
0.072,12.700,-3.700,-2.700,-19.100
0.073,14.200,-2.100,-1.600,-18.100
0.074,16.400,0.100,0.200,-16.100
0.075,19.200,2.900,2.500,-13.300
0.076,22.400,5.900,4.800,-10.300
0.077,25.700,8.600,6.500,-7.900
0.078,28.500,10.300,7.100,-6.500
0.079,30.900,11.300,6.600,-5.800
0.080,33.000,12.200,6.100,-4.900
0.081,35.700,14.100,6.300,-2.800
0.082,39.600,17.600,7.800,0.800
0.083,45.000,22.500,10.300,5.200
0.084,51.100,27.600,12.500,9.200
0.085,56.600,31.000,13.100,11.200
0.086,59.800,31.400,11.300,10.500
0.087,59.600,28.600,7.200,7.400
0.088,56.000,23.600,2.100,3.000
0.089,50.300,18.100,-2.400,-1.200
0.090,44.500,13.900,-4.800,-4.000
0.091,40.400,12.100,-4.600,-4.800
0.092,39.300,12.700,-2.200,-3.800
0.093,40.800,15.000,1.100,-1.900
0.094,43.300,17.600,3.800,-0.100
0.095,44.800,19.000,4.700,0.500
0.096,43.200,17.800,3.500,-1.000
0.097,37.800,13.300,0.500,-4.700
0.098,28.900,5.900,-3.200,-10.300
0.099,18.300,-3.100,-6.500,-16.500
0.100,8.100,-12.000,-8.700,-21.900
0.101,0.000,-18.900,-9.300,-25.400
0.102,-5.100,-23.000,-8.800,-26.800
0.103,-7.800,-24.200,-7.400,-26.500
0.104,-8.900,-23.600,-5.800,-25.400
0.105,-9.200,-22.200,-4.100,-24.300
0.106,-9.000,-20.700,-2.400,-23.400
0.107,-8.000,-19.200,-0.700,-22.500
0.108,-5.800,-17.500,1.000,-21.000
0.109,-2.200,-15.200,2.400,-18.700
0.110,2.400,-12.300,3.600,-15.800
0.111,7.300,-8.900,4.400,-12.600
0.112,11.800,-5.400,4.700,-9.800
0.113,15.400,-2.300,4.500,-7.600
0.114,18.000,0.100,3.900,-6.200
0.115,20.000,1.600,3.000,-5.400
0.116,21.500,2.000,1.900,-5.100
0.117,22.600,1.500,0.600,-5.000
0.118,23.600,0.600,-0.900,-4.900
0.119,24.200,-0.100,-2.500,-4.700
0.120,24.700,-0.300,-4.100,-4.500
0.121,24.700,-0.200,-5.600,-4.600
0.122,24.300,0.000,-6.700,-5.200
0.123,23.200,-0.300,-7.100,-6.200
0.124,21.700,-1.400,-6.600,-7.300
0.125,20.000,-2.700,-5.300,-8.100
0.126,18.600,-3.700,-3.600,-8.100
0.127,17.900,-4.000,-2.100,-7.300
0.128,17.800,-3.400,-1.000,-5.900
0.129,18.100,-2.400,-0.800,-4.600
0.130,18.300,-1.700,-1.300,-3.800
0.131,17.900,-1.900,-2.200,-3.800
0.132,16.800,-2.800,-3.200,-4.300
0.133,15.300,-4.300,-3.900,-5.300
0.134,13.600,-5.800,-4.100,-6.500
0.135,12.100,-7.000,-3.900,-7.900
0.136,11.100,-7.700,-3.400,-9.200
0.137,10.600,-7.900,-2.800,-10.300
0.138,10.800,-7.600,-2.200,-10.700
0.139,11.500,-6.700,-1.400,-10.200
0.140,12.800,-5.100,-0.500,-8.700
0.141,14.300,-3.100,0.600,-6.400
0.142,15.900,-1.100,1.500,-3.900
0.143,17.000,0.500,1.900,-1.800
0.144,17.700,1.500,1.700,-0.400
0.145,17.900,1.900,1.000,0.100
0.146,17.800,1.900,-0.100,-0.100
0.147,17.500,1.800,-1.100,-0.900
0.148,17.000,1.400,-1.800,-2.200
0.149,16.000,0.500,-2.200,-3.900
0.150,14.600,-1.000,-2.300,-5.900
0.151,12.900,-2.900,-2.300,-7.800
0.152,11.300,-4.700,-1.900,-9.100
0.153,10.500,-5.900,-1.200,-9.500
0.154,10.900,-6.000,-0.400,-8.800
0.155,12.100,-5.100,0.400,-7.300
0.156,13.800,-3.600,0.700,-5.300
0.157,15.200,-2.000,0.400,-3.400
0.158,15.900,-0.800,-0.100,-2.000
0.159,15.800,-0.200,-0.400,-1.200
0.160,15.400,-0.300,-0.100,-1.000
0.161,14.800,-0.900,1.200,-1.200
0.162,14.400,-1.700,3.000,-1.700
0.163,14.000,-2.500,4.700,-2.000
0.164,13.700,-2.800,6.000,-1.800
0.165,13.500,-2.500,6.500,-0.800
0.166,13.700,-1.500,6.200,1.000
0.167,14.600,-0.200,5.500,3.000
0.168,16.000,1.000,4.600,4.700
0.169,17.400,1.600,3.500,5.300
0.170,18.100,1.100,2.400,4.500
0.171,17.800,-0.400,1.500,2.500
0.172,16.600,-2.300,1.100,-0.200
0.173,14.900,-3.900,1.000,-2.800
0.174,13.600,-4.400,1.300,-4.800
0.175,13.100,-3.700,1.400,-5.800
0.176,13.200,-2.100,1.300,-5.800
0.177,13.600,-0.300,1.000,-5.000
0.178,13.900,0.800,0.800,-3.900
0.179,14.000,1.000,1.200,-2.700
0.180,14.000,0.400,2.400,-1.700
0.181,14.300,-0.600,4.000,-1.100
0.182,14.900,-1.300,5.600,-0.900
0.183,15.900,-1.700,6.400,-0.900
0.184,16.700,-1.900,6.300,-0.900
0.185,17.100,-2.100,5.400,-0.800
0.186,16.800,-2.500,4.300,-0.600
0.187,16.000,-3.100,3.300,-0.400
0.188,15.000,-3.400,2.800,-0.400
0.189,14.000,-3.400,2.800,-0.700
0.190,13.500,-3.000,3.000,-1.200
0.191,13.300,-2.700,3.100,-1.900
0.192,13.400,-2.800,2.900,-2.400
0.193,13.700,-3.200,2.300,-2.600
0.194,13.900,-3.800,1.200,-2.400
0.195,14.200,-4.000,-0.100,-1.900
0.196,14.800,-3.400,-1.200,-1.100
0.197,15.800,-2.000,-1.800,-0.100
0.198,17.200,-0.300,-1.500,1.000
0.199,18.500,1.000,-0.300,1.900
0.200,19.400,1.500,1.400,2.400
0.201,19.700,0.900,3.400,2.300
0.202,19.300,-0.300,5.100,1.800
0.203,18.800,-1.700,6.300,1.100
0.204,18.400,-2.700,6.900,0.800
0.205,18.500,-3.000,7.200,0.900
0.206,19.000,-2.900,7.400,1.400
0.207,19.700,-2.400,7.800,2.100
0.208,20.400,-1.400,8.600,2.800
0.209,21.500,0.200,9.700,3.800
0.210,23.500,3.000,11.200,5.400
0.211,26.900,6.900,12.800,8.100
0.212,31.500,11.500,14.100,11.800
0.213,36.500,15.800,14.800,15.900
0.214,40.900,18.600,14.600,19.400
0.215,43.800,19.700,13.300,21.600
0.216,45.100,19.200,11.500,22.500
0.217,45.200,18.000,9.600,22.700
0.218,44.900,17.000,8.300,23.200
0.219,44.500,16.500,7.700,24.600
0.220,43.700,16.300,7.600,27.200
0.221,42.000,15.900,7.300,30.400
0.222,38.900,14.800,6.600,33.300
0.223,34.500,13.200,5.500,35.800
0.224,29.600,11.500,4.300,37.900
0.225,25.000,10.200,3.400,40.100
0.226,21.200,9.200,2.900,43.000
0.227,18.000,8.100,2.500,46.600
0.228,14.600,6.200,1.500,50.500
0.229,10.200,3.100,-0.600,53.700
0.230,4.200,-1.200,-4.000,55.300
0.231,-3.200,-6.300,-8.100,54.900
0.232,-11.700,-12.200,-12.000,52.400
0.233,-21.000,-18.900,-14.900,48.600
0.234,-31.100,-26.500,-16.400,44.200
0.235,-41.700,-35.100,-16.500,40.200
0.236,-52.500,-43.900,-15.500,37.400
0.237,-62.600,-51.900,-14.100,35.800
0.238,-71.100,-58.100,-12.700,35.200
0.239,-77.400,-62.100,-11.900,34.700
0.240,-82.000,-64.800,-12.000,33.100
0.241,-85.800,-67.600,-13.000,29.500
0.242,-89.900,-71.700,-14.600,23.400
0.243,-94.600,-77.500,-16.300,14.900
0.244,-99.300,-83.900,-17.700,4.600
0.245,-102.600,-89.500,-18.400,-6.900
0.246,-103.300,-93.000,-18.700,-18.700
0.247,-101.000,-94.100,-18.900,-30.400
0.248,-96.500,-93.900,-19.200,-41.500
0.249,-91.000,-93.600,-19.700,-51.600
0.250,-85.900,-94.000,-20.200,-60.300
0.251,-81.600,-95.200,-20.200,-67.300
0.252,-78.100,-96.100,-19.700,-72.400
0.253,-74.800,-95.600,-18.700,-75.500
0.254,-71.100,-93.200,-17.500,-76.900
0.255,-66.800,-88.900,-16.000,-76.600
0.256,-62.100,-83.500,-14.300,-74.700
0.257,-57.100,-77.800,-12.000,-71.300
0.258,-52.000,-72.200,-9.000,-66.500
0.259,-46.900,-67.000,-5.700,-60.800
0.260,-41.900,-62.000,-2.500,-54.800
0.261,-37.100,-57.300,0.000,-49.000
0.262,-32.700,-53.000,1.400,-44.000
0.263,-28.800,-49.200,1.800,-39.900
0.264,-25.200,-45.900,1.900,-36.300
0.265,-21.500,-42.800,2.200,-33.000
0.266,-17.500,-39.600,2.700,-29.400
0.267,-12.900,-35.900,3.300,-25.300
0.268,-7.700,-31.900,3.500,-20.700
0.269,-2.000,-27.500,2.900,-16.100
0.270,3.800,-23.200,1.500,-11.700
0.271,9.200,-19.200,-0.300,-7.900
0.272,13.500,-15.900,-1.900,-5.100
0.273,16.300,-13.600,-3.000,-3.200
0.274,17.400,-12.200,-3.600,-2.400
0.275,17.200,-11.800,-3.800,-2.400
0.276,16.500,-11.800,-3.900,-2.600
0.277,16.100,-11.900,-3.900,-2.800
0.278,16.600,-11.500,-3.700,-2.500
0.279,17.800,-10.600,-3.200,-1.800
0.280,19.200,-9.400,-2.600,-0.900
0.281,19.900,-8.400,-2.000,-0.200
0.282,19.800,-8.000,-1.600,-0.100
0.283,19.100,-8.100,-1.500,-0.400
0.284,18.500,-8.500,-1.400,-0.900
0.285,18.500,-9.000,-0.900,-1.200
0.286,19.200,-9.200,-0.200,-1.100
0.287,20.200,-9.300,0.400,-1.000
0.288,20.800,-9.600,0.400,-1.200
0.289,20.800,-10.200,-0.700,-2.200
0.290,20.200,-11.100,-2.400,-3.800
0.291,19.700,-11.800,-4.300,-5.700
0.292,19.700,-12.200,-5.600,-7.100
0.293,20.300,-12.100,-5.700,-7.600
0.294,21.200,-11.800,-5.100,-7.200
0.295,21.800,-11.500,-4.100,-6.500
0.296,21.900,-11.600,-3.500,-6.000
0.297,21.200,-12.000,-3.600,-6.200
0.298,20.200,-12.600,-4.400,-7.200
0.299,19.300,-13.100,-5.400,-8.400
0.300,18.700,-13.200,-6.100,-9.400
0.301,18.800,-13.000,-6.200,-9.600
0.302,19.400,-12.500,-5.600,-9.000
0.303,20.400,-12.000,-4.100,-7.600
0.304,21.700,-11.500,-2.100,-5.700
0.305,23.200,-10.900,0.100,-3.700
0.306,24.500,-10.100,1.800,-1.900
0.307,25.300,-9.500,2.700,-0.500
0.308,25.300,-9.300,2.400,0.200
0.309,24.500,-9.800,1.200,0.100
0.310,22.900,-11.200,-0.200,-0.900
0.311,21.000,-13.300,-1.300,-2.400
0.312,19.300,-15.600,-1.700,-3.900
0.313,18.200,-17.300,-1.400,-5.000
0.314,17.900,-18.000,-0.900,-5.100
0.315,18.200,-17.400,-0.900,-4.400
0.316,19.000,-15.800,-1.500,-3.200
0.317,19.800,-13.700,-2.800,-2.100
0.318,20.400,-11.900,-4.100,-1.500
0.319,20.800,-10.600,-4.800,-1.600
0.320,21.000,-10.100,-4.600,-2.200
0.321,21.200,-10.100,-3.500,-2.700
0.322,21.700,-10.200,-2.000,-2.700
0.323,22.600,-10.000,-0.400,-2.000
0.324,23.700,-9.500,0.800,-0.900
0.325,24.600,-8.800,1.500,0.100
0.326,24.900,-8.500,2.000,0.600
0.327,24.500,-8.800,2.200,0.300
0.328,23.400,-9.700,2.300,-0.700
0.329,21.900,-10.900,2.100,-1.900
0.330,20.600,-12.000,1.700,-3.000
0.331,19.900,-12.600,1.200,-3.600
0.332,20.000,-12.400,0.700,-3.600
0.333,20.500,-11.900,0.200,-3.200
0.334,20.800,-11.700,-0.200,-3.000
0.335,20.300,-12.400,-0.600,-3.200
0.336,18.900,-14.000,-1.100,-3.800
0.337,16.800,-16.000,-1.500,-4.700
0.338,14.900,-17.700,-1.700,-5.300
0.339,13.900,-18.300,-1.400,-5.200
0.340,14.100,-17.800,-1.000,-4.300
0.341,15.300,-16.700,-0.800,-3.000
0.342,16.600,-16.000,-1.400,-2.000
0.343,17.300,-16.200,-2.500,-1.900
0.344,17.100,-17.200,-3.700,-2.500
0.345,16.200,-18.400,-4.000,-3.600
0.346,15.200,-19.000,-3.000,-4.500
0.347,14.800,-18.500,-0.800,-4.800
0.348,15.000,-17.400,1.600,-4.500
0.349,15.400,-16.300,3.200,-3.800
0.350,15.400,-16.200,3.300,-3.100
0.351,14.800,-17.100,2.300,-2.700
0.352,13.700,-18.700,1.100,-2.400
0.353,12.700,-20.200,0.700,-2.000
0.354,12.500,-21.100,1.500,-1.400
0.355,13.100,-21.300,2.900,-0.600
0.356,14.400,-21.200,4.200,-0.200
0.357,15.600,-21.300,4.700,-0.400
0.358,16.200,-21.900,4.500,-1.400
0.359,16.200,-22.800,4.500,-2.800
0.360,15.800,-23.500,5.300,-3.900
0.361,15.700,-23.700,6.800,-4.500
0.362,16.300,-23.500,8.300,-4.400
0.363,17.200,-23.200,8.900,-4.000
0.364,17.900,-23.300,7.800,-3.900
0.365,17.600,-24.200,5.300,-4.500
0.366,16.200,-25.500,2.400,-5.600
0.367,14.000,-27.000,0.100,-6.600
0.368,11.900,-28.200,-1.000,-6.800
0.369,10.500,-28.900,-1.200,-5.900
0.370,10.300,-29.200,-1.100,-4.100
0.371,10.800,-29.200,-1.600,-2.200
0.372,11.600,-29.000,-2.600,-1.000
0.373,12.200,-28.600,-3.900,-0.700
0.374,12.500,-27.700,-4.700,-1.200
0.375,12.700,-26.100,-4.500,-1.800
0.376,13.000,-24.000,-3.300,-1.800
0.377,13.700,-21.900,-1.700,-1.100
0.378,14.500,-20.300,-0.400,-0.100
0.379,15.100,-19.400,0.200,0.800
0.380,15.300,-19.200,0.300,1.300
0.381,15.200,-19.300,0.100,1.100
0.382,14.900,-19.300,0.300,0.600
0.383,14.600,-19.200,0.900,0.000
0.384,14.300,-19.000,1.700,-0.700
0.385,13.800,-19.300,1.900,-1.700
0.386,12.800,-20.100,1.200,-3.100
0.387,11.400,-21.300,-0.300,-4.700
0.388,9.900,-22.400,-2.000,-6.100
0.389,8.900,-22.900,-3.100,-6.700
0.390,8.800,-22.600,-2.900,-6.400
0.391,9.700,-21.800,-1.700,-5.500
0.392,11.300,-20.900,-0.100,-4.400
0.393,12.800,-20.800,0.900,-3.700
0.394,13.600,-21.500,0.900,-3.700
0.395,13.600,-22.900,0.300,-4.000
0.396,12.800,-24.400,-0.400,-4.200
0.397,11.800,-25.400,-0.300,-3.900
0.398,11.000,-25.600,0.700,-3.200
0.399,10.800,-25.100,2.200,-2.300
0.400,10.800,-24.300,3.400,-1.800
0.401,10.800,-24.000,3.800,-1.900
0.402,10.400,-24.300,3.700,-2.500
0.403,9.700,-25.100,3.500,-3.300
0.404,9.000,-26.100,3.700,-3.700
0.405,8.800,-26.600,4.500,-3.400
0.406,9.400,-26.200,5.400,-2.300
0.407,10.700,-25.300,6.000,-0.900
0.408,12.100,-24.300,5.700,0.500
0.409,12.900,-24.100,4.800,1.200
0.410,12.800,-25.000,3.500,0.900
0.411,11.500,-26.900,2.300,-0.400
0.412,9.500,-29.000,1.300,-2.600
0.413,7.600,-30.400,0.300,-5.000
0.414,6.400,-30.300,-0.700,-6.900
0.415,6.200,-28.500,-1.700,-7.800
0.416,6.900,-25.700,-2.400,-7.500
0.417,8.000,-23.000,-2.600,-6.300
0.418,9.000,-21.100,-2.000,-4.700
0.419,9.600,-20.600,-0.800,-3.400
0.420,9.600,-21.200,0.700,-2.800
0.421,9.200,-22.500,2.100,-3.200
0.422,8.600,-23.900,2.800,-4.500
0.423,7.800,-25.000,2.900,-6.100
0.424,7.100,-25.900,2.400,-7.600
0.425,6.400,-26.500,1.600,-8.600
0.426,5.900,-26.700,0.600,-8.900
0.427,5.700,-26.500,-0.400,-8.600
0.428,6.100,-25.800,-1.400,-7.800
0.429,7.100,-24.800,-2.100,-6.900
0.430,8.400,-23.700,-2.700,-6.000
0.431,9.800,-22.900,-2.900,-5.300
0.432,10.800,-22.400,-2.800,-4.500
0.433,11.500,-22.200,-2.400,-3.800
0.434,11.800,-22.100,-1.600,-3.100
0.435,11.900,-22.000,-0.500,-2.600
0.436,12.100,-22.000,0.600,-2.300
0.437,12.400,-21.900,1.600,-2.300
0.438,12.900,-22.000,2.300,-2.400
0.439,13.300,-22.200,2.600,-2.500
0.440,13.500,-22.500,2.600,-2.500
0.441,13.200,-22.700,2.200,-2.500
0.442,12.400,-22.900,1.500,-3.000
0.443,11.000,-23.000,0.800,-4.100
0.444,9.200,-23.300,0.200,-5.800
0.445,7.400,-23.700,-0.100,-7.700
0.446,5.800,-24.200,-0.300,-9.100
0.447,4.700,-24.600,-0.500,-9.600
0.448,4.400,-24.800,-0.700,-9.100
0.449,4.700,-24.700,-0.900,-7.800
0.450,5.700,-24.500,-1.100,-6.200
0.451,6.900,-24.200,-1.300,-4.900
0.452,7.900,-24.100,-1.500,-4.300
0.453,8.200,-24.300,-1.800,-4.600
0.454,7.700,-24.900,-2.300,-5.500
0.455,6.500,-25.700,-3.100,-6.900
0.456,5.000,-26.300,-3.800,-8.100
0.457,4.100,-26.400,-4.000,-8.700
0.458,4.100,-25.900,-3.500,-8.600
0.459,5.300,-24.900,-2.400,-7.600
0.460,7.100,-23.600,-1.000,-6.100
0.461,9.100,-22.400,0.400,-4.600
0.462,10.500,-21.300,1.400,-3.600
0.463,11.100,-20.500,2.000,-3.400
0.464,10.900,-19.900,2.200,-3.800
0.465,10.300,-19.600,2.200,-4.600
0.466,9.900,-19.500,1.900,-5.200
0.467,9.800,-19.300,1.500,-5.500
0.468,10.400,-19.000,1.000,-5.100
0.469,11.400,-18.600,0.600,-4.300
0.470,12.500,-18.200,0.400,-3.500
0.471,13.200,-18.400,0.600,-3.000
0.472,12.900,-19.500,0.800,-3.200
0.473,11.600,-21.800,0.900,-4.100
0.474,9.500,-24.800,0.600,-5.400
0.475,7.400,-27.700,0.000,-6.600
0.476,6.300,-29.300,-0.400,-7.000
0.477,6.700,-29.000,-0.400,-6.500
0.478,8.700,-27.000,0.200,-5.300
0.479,11.500,-24.200,0.900,-3.800
0.480,14.000,-21.600,1.500,-2.900
0.481,15.400,-19.900,1.700,-2.700
0.482,15.600,-19.400,1.300,-3.100
0.483,15.000,-19.400,0.800,-3.600
0.484,14.400,-19.200,0.500,-3.700
0.485,14.500,-18.400,0.800,-3.000
0.486,15.500,-17.200,1.700,-2.100
0.487,17.300,-16.000,2.900,-1.300
0.488,19.300,-15.200,4.200,-1.300
0.489,21.100,-14.900,5.000,-2.100
0.490,22.400,-14.900,5.000,-3.400
0.491,23.000,-14.900,4.100,-4.700
0.492,22.800,-14.800,2.400,-5.400
0.493,22.000,-14.500,0.500,-5.400
0.494,20.700,-14.300,-1.200,-5.000
0.495,19.500,-14.400,-2.100,-4.500
0.496,18.600,-14.800,-2.100,-4.200
0.497,18.400,-15.300,-1.500,-4.100
0.498,18.800,-15.700,-0.900,-4.400
0.499,19.500,-15.900,-0.500,-4.900
0.500,20.300,-15.700,-0.500,-5.600
0.501,20.800,-15.100,-0.600,-6.400
0.502,21.100,-14.400,-0.500,-7.200
0.503,21.400,-13.700,-0.300,-7.700
0.504,21.800,-13.100,0.100,-7.800
0.505,22.300,-12.800,0.200,-7.600
0.506,22.700,-12.900,-0.100,-7.200
0.507,22.800,-13.500,-0.800,-7.300
0.508,22.500,-14.600,-1.600,-8.000
0.509,21.800,-16.200,-2.100,-9.300
0.510,20.800,-18.200,-2.100,-11.000
0.511,19.900,-20.100,-1.600,-12.700
0.512,19.200,-21.800,-1.000,-13.900
0.513,18.800,-22.800,-0.600,-14.600
0.514,18.400,-23.100,-0.600,-14.700
0.515,17.900,-22.600,-0.800,-14.500
0.516,17.400,-21.700,-1.100,-14.300
0.517,17.000,-20.800,-0.900,-14.100
0.518,17.100,-20.000,-0.100,-14.000
0.519,18.000,-19.600,1.400,-14.000
0.520,19.500,-19.400,3.200,-14.200
0.521,21.000,-19.300,4.600,-14.500
0.522,22.100,-19.100,4.800,-15.100
0.523,22.100,-19.100,3.700,-16.200
0.524,21.100,-19.200,1.500,-17.600
0.525,19.700,-19.600,-1.100,-19.100
0.526,18.700,-20.000,-3.200,-20.400
0.527,18.700,-20.000,-4.300,-21.100
0.528,19.800,-19.400,-4.400,-20.700
0.529,21.200,-18.000,-3.900,-19.400
0.530,22.400,-16.200,-3.400,-17.700
0.531,22.900,-14.800,-3.400,-16.100
0.532,22.600,-14.300,-3.900,-15.500
0.533,22.100,-14.800,-4.400,-16.000
0.534,22.000,-16.000,-4.600,-17.200
0.535,22.600,-17.200,-4.200,-18.700
0.536,23.700,-18.000,-3.500,-19.600
0.537,24.700,-18.100,-2.600,-19.700
0.538,25.000,-17.900,-2.000,-19.200
0.539,24.300,-18.000,-1.800,-18.700
0.540,22.800,-18.600,-2.100,-18.700
0.541,20.900,-20.000,-2.500,-19.500
0.542,19.100,-21.900,-2.700,-20.700
0.543,17.800,-23.700,-2.100,-21.700
0.544,17.100,-25.100,-0.700,-22.100
0.545,17.100,-25.800,1.300,-22.000
0.546,17.400,-25.800,2.900,-21.800
0.547,18.000,-25.500,3.600,-21.900
0.548,18.400,-25.100,3.100,-22.600
0.549,18.700,-24.500,1.800,-23.400
0.550,18.900,-23.800,0.500,-23.600
0.551,19.300,-22.600,0.100,-22.700
0.552,20.300,-20.900,0.700,-20.700
0.553,21.800,-18.800,1.600,-18.300
0.554,23.500,-16.700,2.100,-16.500
0.555,24.500,-15.300,1.500,-15.800
0.556,24.300,-15.000,-0.100,-16.500
0.557,22.800,-15.800,-1.700,-18.000
0.558,20.600,-17.200,-2.400,-19.500
0.559,18.900,-18.300,-1.600,-20.600
0.560,18.700,-18.500,0.400,-21.000
0.561,20.300,-17.800,2.600,-21.000
0.562,22.800,-16.700,3.800,-21.100
0.563,25.000,-16.000,3.700,-21.600
0.564,25.700,-16.400,2.500,-22.500
0.565,24.500,-18.000,0.900,-23.700
0.566,22.000,-20.300,-0.200,-24.800
0.567,19.400,-22.600,-0.700,-25.600
0.568,17.500,-24.400,-0.700,-26.100
0.569,16.800,-25.500,-0.800,-26.500
0.570,16.700,-26.200,-1.200,-26.900
0.571,16.600,-26.600,-1.700,-27.200
0.572,16.500,-26.700,-1.600,-27.200
0.573,16.800,-26.000,-0.300,-26.200
0.574,18.500,-23.800,2.400,-24.000
0.575,22.000,-20.100,5.600,-20.700
0.576,27.200,-15.700,8.000,-17.000
0.577,32.700,-11.800,8.500,-13.800
0.578,37.100,-9.500,6.800,-11.700
0.579,39.500,-9.200,3.800,-10.700
0.580,40.300,-9.900,1.100,-10.100
0.581,40.900,-9.800,0.500,-8.900
0.582,42.900,-7.300,2.400,-6.500
0.583,47.400,-2.100,6.100,-2.900
0.584,53.700,4.900,10.000,1.000
0.585,60.400,11.500,12.300,4.000
0.586,65.400,15.300,12.400,5.100
0.587,67.300,15.400,10.500,4.100
0.588,66.000,12.000,7.700,1.300
0.589,62.500,6.600,5.100,-2.200
0.590,58.100,1.200,3.400,-5.600
0.591,54.200,-2.800,2.700,-8.300
0.592,51.500,-4.700,2.500,-9.700
0.593,50.200,-4.400,2.400,-10.000
0.594,50.000,-2.800,2.000,-9.200
0.595,50.300,-1.000,0.700,-8.200
0.596,49.800,-0.500,-1.600,-8.100
0.597,47.000,-2.700,-4.900,-10.000
0.598,40.700,-8.500,-8.900,-14.500
0.599,30.700,-17.700,-12.500,-21.200
0.600,18.300,-28.500,-14.200,-28.700
0.601,5.800,-38.700,-13.500,-35.000
0.602,-4.200,-46.000,-10.300,-38.800
0.603,-9.800,-49.200,-6.000,-39.600
0.604,-11.200,-48.900,-2.200,-38.000
0.605,-9.900,-46.700,-0.200,-35.600
0.606,-7.800,-44.100,-0.100,-33.400
0.607,-6.200,-42.100,-0.800,-31.900
0.608,-4.900,-40.400,-0.900,-30.900
0.609,-3.300,-38.400,0.300,-29.600
0.610,-0.500,-35.700,2.600,-27.700
0.611,3.500,-32.400,4.800,-25.300
0.612,7.900,-29.300,5.400,-23.300
0.613,11.700,-27.100,4.000,-22.300
0.614,14.200,-25.800,1.200,-22.500
0.615,15.700,-25.100,-1.400,-23.400
0.616,16.900,-24.300,-2.600,-24.100
0.617,18.500,-22.800,-1.800,-24.000
0.618,20.500,-21.000,0.300,-23.000
0.619,22.400,-19.200,2.600,-21.300
0.620,23.500,-18.100,4.000,-19.700
0.621,23.400,-18.000,4.000,-18.700
0.622,22.200,-18.700,3.100,-18.400
0.623,20.500,-20.000,2.100,-18.700
0.624,18.900,-21.500,1.800,-19.000
0.625,17.600,-22.900,2.300,-19.200
0.626,16.900,-24.300,3.100,-19.200
0.627,16.500,-25.200,3.600,-19.300
0.628,16.500,-25.700,3.400,-19.500
0.629,17.000,-25.500,2.500,-20.000
0.630,17.900,-24.700,1.400,-20.700
0.631,18.900,-23.700,0.600,-21.600
0.632,19.600,-23.100,0.200,-22.600
0.633,19.400,-23.100,-0.100,-23.600
0.634,18.300,-23.700,-0.600,-24.400
0.635,16.500,-24.700,-1.600,-24.900
0.636,14.700,-25.400,-3.000,-25.100
0.637,13.700,-25.500,-4.200,-24.800
0.638,13.700,-24.800,-4.600,-24.100
0.639,14.700,-23.700,-4.000,-23.100
0.640,16.400,-22.600,-2.400,-22.000
0.641,18.100,-21.800,-0.300,-20.900
0.642,19.500,-21.300,1.600,-19.800
0.643,20.500,-20.800,2.800,-18.800
0.644,21.200,-20.200,2.900,-18.000
0.645,21.700,-19.300,2.300,-17.500
0.646,22.000,-18.500,1.300,-17.300
0.647,22.100,-18.200,0.500,-17.200
0.648,22.000,-18.300,0.300,-17.100
0.649,21.800,-19.000,0.600,-16.800
0.650,21.400,-19.600,1.300,-16.200
0.651,21.100,-20.000,1.900,-15.500
0.652,20.800,-20.000,2.100,-15.000
0.653,20.400,-20.000,1.900,-14.800
0.654,19.700,-20.400,1.400,-15.000
0.655,18.600,-21.400,0.700,-15.700
0.656,17.200,-22.600,-0.100,-16.900
0.657,15.800,-23.900,-0.800,-18.400
0.658,14.600,-24.700,-1.300,-20.000
0.659,13.900,-24.900,-1.600,-21.500
0.660,13.700,-24.800,-1.400,-22.500
0.661,14.100,-24.400,-0.800,-22.500
0.662,14.700,-24.000,0.100,-21.500
0.663,15.300,-23.500,0.700,-20.100
0.664,15.800,-23.000,1.000,-18.700
0.665,16.100,-22.300,1.000,-17.900
0.666,16.100,-21.800,1.000,-18.000
0.667,16.100,-21.600,1.300,-18.800
0.668,16.100,-21.800,2.200,-19.600
0.669,16.400,-22.200,3.300,-20.100
0.670,17.100,-22.400,4.200,-20.000
0.671,18.200,-22.200,4.400,-19.600
0.672,19.600,-21.300,3.900,-19.100
0.673,20.900,-20.200,3.000,-18.600
0.674,21.700,-19.300,2.100,-18.000
0.675,22.000,-19.100,1.600,-17.200
0.676,21.600,-19.700,1.400,-16.200
0.677,20.500,-20.900,1.300,-15.200
0.678,18.900,-22.300,1.200,-14.600
0.679,17.100,-23.300,1.100,-14.500
0.680,15.500,-23.500,1.100,-14.900
0.681,14.400,-23.100,1.400,-15.400
0.682,13.900,-22.400,1.900,-15.800
0.683,14.100,-21.700,2.300,-15.900
0.684,14.700,-21.300,2.500,-15.700
0.685,15.300,-21.100,2.200,-15.400
0.686,15.900,-20.900,1.700,-14.900
0.687,16.300,-20.400,1.100,-14.400
0.688,16.500,-19.400,0.700,-13.600
0.689,16.600,-18.300,0.500,-12.600
0.690,16.300,-17.600,0.200,-11.800
0.691,15.700,-17.600,-0.200,-11.400
0.692,14.800,-18.400,-0.800,-11.600
0.693,13.700,-19.800,-1.400,-12.300
0.694,12.700,-21.200,-1.900,-13.000
0.695,11.900,-22.000,-2.100,-13.500
0.696,11.500,-22.400,-2.100,-13.400
0.697,11.100,-22.700,-1.700,-13.200
0.698,10.700,-23.400,-1.000,-13.100
0.699,10.300,-24.900,0.100,-13.500
0.700,9.900,-27.100,1.200,-14.400
0.701,9.800,-29.300,2.000,-15.700
0.702,10.000,-30.700,2.200,-17.000
0.703,10.600,-30.900,1.800,-17.900
0.704,11.300,-29.900,0.800,-18.200
0.705,12.100,-28.400,-0.100,-18.000
0.706,12.900,-27.100,-0.500,-17.500
0.707,13.800,-26.200,-0.300,-16.700
0.708,14.500,-26.000,0.400,-16.100
0.709,15.100,-26.100,1.000,-15.700
0.710,15.300,-26.200,0.900,-15.800
0.711,14.800,-26.100,0.100,-16.500
0.712,13.600,-26.000,-1.300,-17.600
0.713,11.800,-26.200,-2.800,-18.700
0.714,9.900,-27.000,-4.000,-19.600
0.715,8.000,-28.400,-4.500,-20.200
0.716,6.600,-30.100,-4.500,-20.300
0.717,5.700,-31.500,-4.000,-20.200
0.718,5.500,-32.100,-3.300,-20.100
0.719,5.700,-31.800,-2.500,-19.800
0.720,6.300,-30.700,-1.800,-19.400
0.721,7.200,-29.300,-1.100,-18.800
0.722,8.200,-27.900,-0.600,-18.300
0.723,9.100,-27.000,-0.100,-18.000
0.724,10.000,-26.500,0.600,-18.100
0.725,10.800,-26.400,1.700,-18.400
0.726,11.400,-26.300,3.200,-18.800
0.727,12.000,-26.200,4.700,-19.000
0.728,12.400,-26.100,5.700,-18.800
0.729,12.800,-25.800,5.700,-18.300
0.730,13.300,-25.200,4.500,-17.600
0.731,14.100,-24.100,2.800,-16.900
0.732,15.300,-22.300,1.200,-16.200
0.733,16.800,-20.000,0.500,-15.500
0.734,18.400,-17.700,0.600,-14.600
0.735,19.900,-16.000,1.100,-13.600
0.736,20.800,-15.300,1.000,-12.700
0.737,20.800,-15.600,-0.400,-12.300
0.738,19.800,-16.800,-2.900,-12.700
0.739,17.800,-18.600,-5.900,-14.000
0.740,15.300,-20.700,-8.300,-16.000
0.741,12.700,-23.100,-9.100,-18.400
0.742,10.800,-25.400,-7.900,-20.700
0.743,10.000,-27.400,-4.900,-22.200
0.744,10.800,-28.300,-0.800,-22.700
0.745,12.900,-27.700,3.500,-22.000
0.746,15.800,-25.500,7.100,-20.400
0.747,18.700,-22.300,9.200,-18.400
0.748,20.900,-19.200,9.500,-16.500
0.749,21.700,-17.500,8.400,-15.300
0.750,21.000,-17.900,6.400,-15.100
0.751,19.100,-20.000,4.400,-15.700
0.752,16.800,-23.000,2.900,-16.500
0.753,15.000,-25.300,2.200,-16.900
0.754,14.200,-26.100,1.700,-16.600
0.755,14.600,-25.300,0.800,-15.600
0.756,15.600,-23.700,-0.700,-14.600
0.757,16.400,-22.500,-2.900,-14.500
0.758,16.100,-22.600,-5.300,-15.400
0.759,14.700,-24.000,-7.200,-17.300
0.760,12.800,-25.800,-7.800,-19.100
0.761,12.000,-26.400,-6.900,-19.700
0.762,13.200,-24.800,-4.200,-18.200
0.763,17.100,-20.500,0.000,-14.700
0.764,23.000,-14.400,5.100,-9.500
0.765,29.600,-7.600,10.300,-3.700
0.766,35.500,-1.400,14.400,1.800
0.767,39.900,3.300,16.700,6.200
0.768,42.900,6.400,16.800,9.400
0.769,45.000,8.300,15.300,11.300
0.770,46.600,9.100,13.100,12.300
0.771,47.800,9.300,11.200,12.900
0.772,48.100,9.000,10.100,13.600
0.773,47.300,8.400,9.600,14.900
0.774,45.400,7.900,8.800,17.200
0.775,43.100,7.700,7.500,20.400
0.776,40.900,7.900,5.600,24.200
0.777,39.000,8.300,3.700,28.300
0.778,37.000,8.200,2.400,32.300
0.779,33.800,7.200,1.800,36.000
0.780,28.700,4.900,1.500,39.600
0.781,21.600,1.300,0.800,43.200
0.782,13.200,-3.000,-0.700,46.600
0.783,4.600,-7.900,-3.000,49.200
0.784,-3.600,-13.200,-5.800,50.500
0.785,-11.400,-19.100,-8.500,49.600
0.786,-19.400,-25.900,-10.800,46.500
0.787,-28.400,-33.500,-12.500,41.800
0.788,-38.500,-41.500,-13.800,36.600
0.789,-49.100,-49.000,-14.600,32.200
0.790,-59.200,-55.500,-14.800,29.300
0.791,-68.000,-60.800,-14.800,27.900
0.792,-75.100,-65.400,-14.900,27.000
0.793,-81.100,-69.900,-15.600,25.500
0.794,-86.700,-74.700,-16.900,22.400
0.795,-92.100,-79.900,-18.800,17.300
0.796,-96.900,-84.800,-20.500,10.200
0.797,-100.500,-88.700,-21.500,1.700
0.798,-102.100,-91.200,-21.700,-8.000
0.799,-101.500,-92.500,-21.500,-18.600
0.800,-99.300,-93.200,-21.500,-29.900
0.801,-96.100,-94.000,-22.100,-41.600
0.802,-92.500,-95.100,-22.900,-52.700
0.803,-88.600,-96.100,-22.900,-62.500
0.804,-84.200,-96.600,-21.600,-70.400
0.805,-79.200,-96.000,-18.800,-76.200
0.806,-73.700,-94.300,-15.100,-80.300
0.807,-68.300,-91.700,-11.700,-83.200
0.808,-63.500,-88.700,-9.200,-84.900
0.809,-59.400,-85.600,-7.600,-85.100
0.810,-55.500,-82.300,-6.600,-83.500
0.811,-51.500,-78.400,-5.600,-80.000
0.812,-46.900,-73.700,-4.300,-75.100
0.813,-41.700,-68.500,-3.200,-69.500
0.814,-36.400,-63.100,-2.500,-64.100
0.815,-31.400,-58.200,-2.400,-59.000
0.816,-26.800,-54.000,-2.600,-54.100
0.817,-22.600,-50.600,-2.400,-49.200
0.818,-18.500,-47.900,-1.700,-44.200
0.819,-14.600,-45.700,-0.600,-39.500
0.820,-10.900,-44.000,0.400,-35.600
0.821,-7.700,-42.500,1.100,-32.500
0.822,-5.200,-40.900,1.400,-29.800
0.823,-2.900,-38.700,1.700,-26.900
0.824,-0.400,-35.500,2.400,-23.300
0.825,2.400,-31.600,3.600,-19.100
0.826,5.300,-27.600,4.800,-15.100
0.827,7.800,-24.300,5.600,-12.100
0.828,9.200,-22.400,5.600,-10.600
0.829,9.200,-21.800,4.900,-10.600
0.830,8.300,-22.100,4.100,-11.200
0.831,7.200,-22.800,3.600,-11.900
0.832,6.500,-23.600,3.400,-12.100
0.833,6.700,-24.300,3.300,-11.800
0.834,7.600,-25.300,3.100,-11.300
0.835,8.800,-26.600,2.600,-10.900
0.836,10.100,-27.900,1.900,-10.800
0.837,11.200,-28.600,1.000,-11.000
0.838,11.900,-28.600,0.200,-11.200
0.839,12.300,-27.800,-0.400,-11.300
0.840,12.500,-26.600,-0.800,-11.200
0.841,12.500,-25.600,-0.700,-11.000
0.842,12.500,-25.000,0.300,-10.700
0.843,12.600,-24.900,2.300,-10.300
0.844,13.100,-24.600,5.300,-9.900
0.845,13.800,-24.000,8.700,-9.500
0.846,14.700,-23.000,11.700,-9.200
0.847,15.200,-21.900,13.600,-9.200
0.848,15.100,-21.200,14.000,-9.500
0.849,14.000,-21.500,13.000,-10.200
0.850,12.000,-22.800,11.400,-10.900
0.851,9.400,-25.000,9.700,-11.500
0.852,6.800,-27.500,8.300,-11.700
0.853,4.800,-29.700,7.200,-11.500
0.854,3.800,-31.200,6.200,-11.100
0.855,3.900,-31.900,4.900,-10.700
0.856,5.000,-31.700,3.400,-10.500
0.857,6.400,-31.000,1.800,-10.600
0.858,7.700,-30.100,0.600,-10.900
0.859,8.300,-29.400,0.100,-11.200
0.860,8.200,-29.000,0.200,-11.100
0.861,7.700,-28.800,0.700,-10.600
0.862,7.300,-28.600,1.500,-9.900
0.863,7.400,-28.200,2.400,-9.300
0.864,8.200,-27.500,3.500,-9.200
0.865,9.600,-26.600,4.900,-9.700
0.866,11.100,-25.700,6.700,-10.500
0.867,12.300,-25.200,8.400,-11.400
0.868,12.700,-25.200,9.800,-12.100
0.869,12.300,-25.700,10.300,-12.300
0.870,11.200,-26.600,9.800,-12.100
0.871,9.700,-27.400,8.800,-11.500
0.872,8.600,-27.800,7.500,-10.700
0.873,8.200,-27.500,6.400,-9.900
0.874,8.600,-26.900,5.500,-9.100
0.875,9.300,-26.400,4.400,-8.400
0.876,9.600,-26.600,3.100,-8.200
0.877,9.000,-28.000,1.500,-8.400
0.878,7.500,-30.400,0.100,-9.000
0.879,5.400,-33.100,-0.800,-9.900
0.880,3.500,-35.400,-0.700,-10.700
0.881,2.100,-36.600,-0.300,-11.600
0.882,1.200,-36.800,0.000,-12.400
0.883,0.400,-36.400,-0.600,-13.300
0.884,-0.500,-35.900,-2.000,-14.100
0.885,-1.200,-35.800,-3.300,-14.300
0.886,-1.200,-35.800,-3.500,-13.700
0.887,0.200,-35.200,-1.900,-11.900
0.888,3.000,-33.500,1.200,-9.500
0.889,6.500,-30.800,4.700,-7.100
0.890,9.700,-27.500,7.000,-5.500
0.891,11.300,-24.800,6.900,-5.300
0.892,11.100,-23.200,4.500,-6.400
0.893,9.300,-23.300,0.800,-8.500
0.894,6.900,-24.500,-2.500,-10.700
0.895,4.700,-26.400,-4.300,-12.600
0.896,3.100,-28.200,-4.400,-13.700
0.897,2.000,-29.600,-3.100,-13.800
0.898,1.200,-30.300,-1.400,-13.000
0.899,0.800,-30.300,0.000,-11.400
0.900,1.000,-29.500,0.700,-9.500
0.901,2.300,-27.800,0.700,-7.700
0.902,4.700,-25.400,0.400,-6.700
0.903,7.800,-22.700,0.000,-6.500
0.904,10.900,-20.200,-0.200,-7.000
0.905,12.900,-18.800,-0.200,-7.800
0.906,13.300,-18.700,0.100,-8.200
0.907,12.200,-19.700,0.900,-8.200
0.908,9.900,-21.400,2.000,-7.800
0.909,7.200,-23.000,3.200,-7.500
0.910,4.700,-24.200,4.400,-7.700
0.911,2.800,-24.700,5.200,-8.300
0.912,1.800,-24.600,5.300,-9.100
0.913,1.800,-24.000,4.800,-9.600
0.914,2.600,-23.000,3.500,-9.500
0.915,3.800,-22.200,1.800,-8.800
0.916,5.100,-21.700,0.000,-7.600
0.917,5.800,-21.900,-1.500,-6.200
0.918,5.600,-22.700,-2.300,-5.000
0.919,4.900,-23.800,-2.300,-4.100
0.920,4.100,-24.600,-1.700,-3.700
0.921,3.700,-24.700,-0.700,-3.600
0.922,3.900,-24.000,0.500,-3.700
0.923,4.500,-23.100,1.800,-3.900
0.924,4.900,-22.500,3.300,-4.300
0.925,4.700,-22.700,5.100,-4.800
0.926,3.600,-23.800,6.800,-5.700
0.927,2.300,-25.200,8.300,-6.900
0.928,1.300,-26.300,9.100,-8.000
0.929,1.300,-26.600,9.300,-8.800
0.930,2.400,-26.100,8.800,-8.800
0.931,4.300,-25.000,8.000,-8.000
0.932,6.200,-23.800,6.900,-6.600
0.933,7.500,-22.800,5.600,-5.200
0.934,7.700,-22.200,3.900,-4.400
0.935,6.900,-22.100,1.800,-4.300
0.936,5.600,-22.400,-0.300,-4.700
0.937,4.200,-23.000,-2.000,-5.100
0.938,3.300,-23.800,-2.800,-5.100
0.939,3.000,-24.800,-2.600,-4.500
0.940,3.000,-25.900,-1.600,-3.600
0.941,3.000,-27.000,-0.500,-3.000
0.942,2.800,-28.100,0.300,-3.000
0.943,2.400,-29.000,0.800,-3.800
0.944,2.100,-29.400,1.200,-4.900
0.945,2.300,-29.300,1.900,-6.000
0.946,3.000,-28.800,2.900,-6.900
0.947,4.000,-28.400,3.900,-7.700
0.948,4.700,-28.400,4.400,-8.800
0.949,4.500,-29.100,4.000,-10.100
0.950,3.300,-30.300,3.100,-11.800
0.951,1.600,-31.400,2.000,-13.100
0.952,0.200,-31.900,1.400,-13.500
0.953,-0.200,-31.400,1.300,-12.700
0.954,0.400,-30.100,1.100,-10.700
0.955,1.700,-28.400,0.300,-7.900
0.956,3.100,-27.000,-1.400,-5.200
0.957,4.100,-26.000,-3.700,-3.100
0.958,4.800,-25.400,-5.500,-1.700
0.959,5.200,-24.800,-6.000,-1.100
0.960,5.800,-24.100,-4.800,-1.100
0.961,6.400,-23.500,-2.300,-1.500
0.962,6.800,-23.500,0.300,-2.200
0.963,6.700,-24.200,2.100,-2.900
0.964,5.900,-25.600,2.800,-3.300
0.965,4.700,-27.100,2.600,-3.300
0.966,3.400,-28.000,2.200,-2.800
0.967,2.400,-27.900,2.300,-2.000
0.968,1.800,-26.900,2.900,-1.200
0.969,1.500,-25.300,4.000,-0.700
0.970,1.600,-23.700,5.000,-0.600
0.971,2.000,-22.400,5.900,-0.700
0.972,2.400,-21.600,6.500,-0.800
0.973,2.800,-21.500,6.900,-0.700
0.974,2.800,-22.000,7.200,-0.800
0.975,2.100,-23.000,7.200,-1.100
0.976,1.200,-24.200,6.800,-1.900
0.977,0.500,-25.100,6.100,-2.900
0.978,0.400,-25.500,5.200,-3.800
0.979,1.300,-25.100,4.100,-4.100
0.980,2.700,-24.200,2.900,-3.800
0.981,3.700,-23.400,1.700,-3.100
0.982,3.900,-23.000,0.700,-2.200
0.983,3.200,-23.100,0.400,-1.600
0.984,2.300,-23.200,1.000,-1.300
0.985,1.900,-23.200,2.800,-1.200
0.986,2.400,-22.900,5.300,-1.200
0.987,3.400,-22.500,7.700,-1.200
0.988,4.100,-22.500,9.400,-1.400
0.989,3.800,-23.100,9.900,-1.800
0.990,2.600,-23.900,9.500,-2.100
0.991,1.000,-24.500,8.600,-2.100
0.992,0.000,-24.200,7.600,-1.600
0.993,0.000,-23.000,6.400,-0.700
0.994,0.900,-21.400,5.000,0.500
0.995,2.200,-19.900,3.100,1.800
0.996,3.200,-19.100,1.300,3.100
0.997,4.000,-18.700,-0.100,4.600
0.998,4.900,-18.200,-0.300,6.500
0.999,6.400,-17.000,0.300,8.800
1.000,8.500,-14.900,1.200,11.200
1.001,10.700,-12.600,1.500,13.000
1.002,12.200,-11.000,0.800,13.800
1.003,12.500,-10.700,-0.600,13.500
1.004,11.500,-11.700,-1.800,12.500
1.005,9.800,-13.400,-1.700,11.200
1.006,8.100,-14.900,-0.200,10.300
1.007,7.100,-15.700,2.300,10.000
1.008,6.700,-15.800,4.700,10.200
1.009,6.700,-15.900,6.100,10.400
1.010,6.600,-16.200,6.200,10.300
1.011,6.200,-17.200,5.400,10.000
1.012,5.200,-18.500,4.300,9.500
1.013,3.700,-19.900,3.600,8.900
1.014,2.000,-21.200,3.500,8.300
1.015,0.400,-22.200,3.700,7.800
1.016,-1.000,-23.000,4.200,7.700
1.017,-1.600,-23.400,4.600,8.200
1.018,-1.200,-23.300,4.800,9.200
1.019,0.200,-22.500,4.600,10.700
1.020,2.100,-21.400,4.100,12.100
1.021,4.000,-20.400,3.400,13.000
1.022,5.200,-20.200,2.500,12.800
1.023,5.500,-20.800,1.900,12.000
1.024,5.100,-21.700,1.900,10.900
1.025,4.600,-22.200,2.300,10.400
1.026,4.400,-21.800,3.000,10.800
1.027,4.700,-20.500,3.800,12.000
1.028,5.100,-19.000,4.600,13.400
1.029,5.400,-17.900,5.600,14.200
1.030,5.200,-17.500,6.900,14.300
1.031,4.800,-17.600,8.500,13.800
1.032,4.600,-17.600,9.800,13.100
1.033,4.800,-17.000,9.900,12.800
1.034,5.500,-16.000,8.300,12.900
1.035,6.100,-15.000,5.300,13.400
1.036,6.300,-14.500,1.700,14.000
1.037,5.700,-15.100,-1.400,14.300
1.038,4.400,-16.300,-3.200,14.100
1.039,2.800,-17.800,-3.600,13.500
1.040,1.500,-19.000,-3.200,12.600
1.041,0.900,-19.700,-2.600,11.500
1.042,0.900,-20.200,-2.100,10.600
1.043,1.200,-20.700,-1.600,10.100
1.044,1.600,-21.200,-0.900,9.900
1.045,1.600,-21.600,0.400,10.000
1.046,1.400,-21.700,1.900,10.400
1.047,1.300,-21.200,3.300,10.800
1.048,1.600,-20.300,4.500,11.100
1.049,2.400,-19.000,5.300,11.400
1.050,3.800,-18.000,6.000,11.700
1.051,5.300,-17.500,6.600,11.900
1.052,6.600,-17.700,6.800,12.100
1.053,7.600,-18.300,6.500,12.200
1.054,8.300,-18.900,5.200,12.300
1.055,8.700,-18.900,3.200,12.500
1.056,9.000,-18.100,0.600,12.700
1.057,9.200,-16.600,-2.100,12.900
1.058,9.000,-15.000,-4.500,12.700
1.059,8.400,-14.000,-6.400,11.900
1.060,7.400,-14.100,-7.400,10.500
1.061,6.300,-15.200,-7.500,8.900
1.062,5.500,-16.700,-6.500,7.600
1.063,5.300,-17.700,-4.600,7.000
1.064,5.700,-17.400,-2.100,7.100
1.065,6.600,-15.800,0.400,7.800
1.066,7.500,-13.500,2.400,8.400
1.067,8.000,-11.400,3.800,8.700
1.068,7.900,-10.400,4.900,8.400
1.069,7.200,-11.100,5.900,7.700
1.070,6.000,-13.100,7.000,6.800
1.071,4.600,-16.000,8.100,5.700
1.072,3.100,-18.800,8.800,4.600
1.073,2.000,-21.100,8.600,3.500
1.074,1.400,-22.500,7.500,2.700
1.075,1.400,-23.000,6.000,2.300
1.076,1.900,-22.800,4.600,2.400
1.077,2.700,-22.300,3.800,3.100
1.078,3.700,-21.500,3.800,4.200
1.079,4.600,-20.500,4.300,5.700
1.080,5.700,-19.200,5.100,7.600
1.081,7.300,-17.400,5.800,9.700
1.082,9.800,-15.000,6.400,11.700
1.083,13.200,-12.300,6.900,13.500
1.084,17.300,-9.400,7.100,14.800
1.085,21.400,-6.700,7.100,15.700
1.086,24.900,-4.300,7.000,16.600
1.087,28.000,-1.700,7.200,18.000
1.088,31.000,1.400,8.000,20.700
1.089,34.700,5.400,9.700,24.400
1.090,39.600,10.400,12.000,28.800
1.091,45.400,15.500,13.800,32.500
1.092,50.900,19.700,14.200,34.700
1.093,54.600,21.900,12.400,34.600
1.094,55.300,21.500,8.700,32.400
1.095,52.900,18.600,4.400,28.900
1.096,48.400,14.300,0.800,25.000
1.097,43.500,9.900,-0.700,21.900
1.098,40.000,6.700,0.300,20.200
1.099,38.700,5.700,2.900,20.100
1.100,39.800,6.800,5.900,21.200
1.101,42.100,9.400,7.600,22.800
1.102,44.100,11.900,7.200,23.700
1.103,44.100,12.700,4.600,22.900
1.104,40.900,10.300,0.500,19.600
1.105,33.900,4.200,-3.800,14.100
1.106,23.800,-4.800,-7.000,7.300
1.107,12.100,-14.600,-8.100,0.800
1.108,0.900,-23.300,-6.900,-4.100
1.109,-8.100,-29.400,-3.900,-6.700
1.110,-13.700,-32.600,-0.300,-7.100
1.111,-16.300,-33.700,2.700,-6.500
1.112,-16.900,-33.900,4.200,-5.900
1.113,-16.600,-34.100,4.200,-5.600
1.114,-16.200,-34.400,3.200,-5.400
1.115,-15.500,-34.000,2.300,-4.700
1.116,-14.000,-32.400,2.300,-2.800
1.117,-11.200,-29.500,3.400,0.300
1.118,-7.100,-25.900,5.000,3.700
1.119,-2.200,-22.400,6.300,6.800
1.120,2.300,-19.800,6.600,9.000
1.121,5.900,-18.400,6.000,10.300
1.122,8.200,-18.100,4.800,11.100
1.123,9.200,-18.200,3.800,11.700
1.124,9.400,-18.300,3.500,12.400
1.125,9.300,-18.000,4.000,13.200
1.126,9.300,-17.200,4.800,13.700
1.127,9.700,-16.100,5.600,14.000
1.128,10.400,-15.000,6.000,13.900
1.129,11.300,-14.200,6.200,13.500
1.130,11.800,-14.100,6.300,12.800
1.131,11.500,-14.700,6.500,11.900
1.132,10.400,-15.600,6.700,10.900
1.133,8.800,-16.300,6.700,10.000
1.134,7.500,-16.000,6.100,9.400
1.135,7.300,-14.400,5.100,9.500
1.136,8.400,-11.900,3.700,10.300
1.137,10.300,-9.300,2.300,11.300
1.138,12.000,-7.400,1.000,12.100
1.139,12.600,-7.000,0.000,12.200
1.140,11.700,-8.200,-0.800,11.400
1.141,9.600,-10.300,-1.100,10.100
1.142,7.000,-12.600,-0.800,8.500
1.143,5.000,-14.300,0.000,7.200
1.144,4.000,-15.000,1.300,6.600
1.145,4.000,-14.600,2.600,6.800
1.146,4.800,-13.400,3.300,7.700
1.147,5.800,-11.900,3.300,8.900
1.148,6.900,-10.500,2.900,10.200
1.149,8.000,-9.400,3.000,11.300
1.150,9.100,-9.000,4.000,12.100
1.151,10.200,-9.300,6.100,12.500
1.152,11.200,-10.100,8.600,12.500
1.153,11.900,-10.900,10.600,12.400
1.154,12.400,-11.300,11.100,12.300
1.155,12.800,-11.100,10.100,12.500
1.156,13.100,-10.200,8.000,13.000
1.157,12.900,-9.300,5.600,13.300
1.158,12.100,-8.800,3.900,13.200
1.159,10.600,-9.200,3.100,12.400
1.160,8.400,-10.400,3.200,11.100
1.161,6.200,-11.600,3.900,9.800
1.162,4.700,-12.100,4.700,9.400
1.163,4.500,-11.500,5.400,10.200
1.164,5.500,-9.900,5.800,11.900
1.165,7.100,-8.000,5.700,13.800
1.166,8.300,-6.700,5.200,15.000
1.167,8.700,-6.500,4.500,15.000
1.168,8.000,-7.100,4.000,14.000
1.169,6.900,-8.000,4.000,12.800
1.170,6.100,-8.400,4.700,12.200
1.171,6.500,-7.700,5.800,12.900
1.172,8.000,-6.300,6.700,14.800
1.173,10.200,-4.600,6.900,17.000
1.174,12.300,-3.300,5.800,18.800
1.175,13.500,-2.800,3.900,19.400
1.176,13.400,-3.200,1.800,18.900
1.177,12.300,-4.200,0.000,17.700
1.178,10.800,-5.200,-0.900,16.300
1.179,9.500,-5.800,-1.100,15.200
1.180,8.800,-5.900,-0.900,14.600
1.181,8.700,-5.500,-0.600,14.500
1.182,9.100,-5.000,-0.200,14.500
1.183,9.500,-4.600,0.400,14.400
1.184,9.900,-4.500,1.300,14.200
1.185,10.300,-4.700,2.400,14.100
1.186,10.700,-5.000,3.300,14.300
1.187,11.100,-5.300,3.900,14.900
1.188,11.400,-5.600,4.000,15.600
1.189,11.200,-5.800,4.000,16.300
1.190,10.700,-6.000,4.200,16.700
1.191,10.100,-6.000,5.000,16.800
1.192,9.600,-5.900,6.300,17.000
1.193,9.600,-5.600,7.500,17.400
1.194,10.200,-5.100,8.200,18.100
1.195,11.300,-4.600,8.000,19.100
1.196,12.500,-4.000,7.100,20.200
1.197,13.400,-3.500,5.900,21.000
1.198,14.100,-3.200,4.700,21.400
1.199,14.400,-3.200,3.900,21.500
1.200,14.500,-3.500,3.400,21.200
1.201,14.300,-4.300,3.200,20.500
1.202,13.800,-5.400,2.900,19.700
1.203,13.100,-6.500,2.500,18.800
1.204,12.300,-7.000,2.100,17.800
1.205,11.700,-6.800,1.700,17.100
1.206,11.400,-5.900,1.400,16.800
1.207,11.400,-4.500,1.400,16.900
1.208,11.500,-3.300,1.400,17.200
1.209,11.500,-2.500,1.300,17.400
1.210,11.400,-2.300,1.200,17.400
1.211,11.200,-2.600,1.100,17.200
1.212,11.300,-3.200,1.300,16.900
1.213,11.500,-3.700,1.800,16.800
1.214,11.900,-3.700,2.400,17.200
1.215,12.100,-3.200,2.600,18.200
1.216,12.000,-1.900,2.100,19.700
1.217,11.800,0.000,0.900,21.500
1.218,12.000,2.300,-0.800,23.400
1.219,13.000,4.700,-2.400,25.300
1.220,14.800,6.900,-3.400,27.000
1.221,17.100,8.500,-3.600,28.500
1.222,19.200,9.300,-3.200,29.300
1.223,20.300,9.100,-2.300,29.100
1.224,20.000,7.800,-1.200,27.800
1.225,18.400,5.600,0.200,25.600
1.226,16.100,2.900,1.800,23.100
1.227,13.800,0.600,3.700,21.000
1.228,12.400,-0.700,5.800,20.100
1.229,11.800,-0.600,7.500,20.400
1.230,12.100,0.600,8.700,21.600
1.231,12.600,2.000,9.200,23.000
1.232,13.100,2.900,9.200,23.900
1.233,13.100,2.800,8.800,24.200
1.234,13.000,2.000,8.300,24.200
1.235,13.100,1.300,7.500,24.300
1.236,13.500,1.300,6.100,25.100
1.237,14.200,2.200,4.200,26.500
1.238,15.000,3.300,2.000,27.900
1.239,15.400,3.800,0.200,28.700
1.240,15.100,3.100,-0.700,28.400
1.241,14.100,1.000,-0.400,27.200
1.242,12.800,-1.700,0.800,25.600
1.243,11.500,-4.300,2.400,24.300
1.244,10.700,-5.900,3.700,23.600
1.245,10.400,-6.200,4.400,23.600
1.246,10.500,-5.400,4.300,24.000
1.247,10.700,-4.000,3.700,24.300
1.248,10.800,-2.700,3.000,24.100
1.249,10.500,-2.200,2.500,23.500
1.250,9.800,-2.700,2.000,22.500
1.251,8.800,-4.200,1.500,21.500
1.252,7.600,-6.300,0.900,20.400
1.253,6.500,-8.300,0.200,19.400
1.254,5.600,-9.800,-0.400,18.300
1.255,5.000,-10.400,-0.900,17.100
1.256,4.700,-10.300,-1.200,16.100
1.257,4.600,-9.800,-1.500,15.400
1.258,4.600,-9.100,-1.800,15.300
1.259,4.900,-8.100,-2.100,16.100
1.260,5.600,-6.800,-2.300,17.600
1.261,6.900,-4.900,-2.400,19.500
1.262,8.600,-2.800,-2.600,21.100
1.263,10.300,-1.000,-2.900,22.200
1.264,11.500,0.000,-3.500,22.500
1.265,11.900,0.100,-4.100,22.000
1.266,11.300,-0.600,-4.400,20.900
1.267,10.300,-1.400,-3.900,19.500
1.268,9.500,-1.600,-2.400,18.400
1.269,9.500,-0.900,-0.300,17.700
1.270,10.400,0.600,1.800,17.600
1.271,11.800,2.300,2.900,18.300
1.272,13.200,3.600,2.800,19.600
1.273,13.900,4.300,1.500,21.000
1.274,13.900,4.400,-0.100,22.200
1.275,13.500,4.300,-1.300,22.800
1.276,12.900,4.300,-1.800,22.600
1.277,12.500,4.400,-1.700,21.700
1.278,12.400,4.600,-1.500,20.500
1.279,12.200,4.600,-1.700,19.600
1.280,12.000,4.500,-2.400,19.100
1.281,11.600,4.100,-3.000,19.400
1.282,11.100,3.500,-3.100,20.200
1.283,10.700,2.500,-2.600,20.900
1.284,10.300,1.000,-1.600,21.000
1.285,9.700,-0.900,-0.500,20.400
1.286,8.900,-3.100,0.100,19.200
1.287,7.900,-4.800,0.200,17.800
1.288,7.100,-5.400,0.200,16.800
1.289,6.900,-4.500,0.200,16.800
1.290,7.500,-2.400,0.600,17.700
1.291,8.700,0.200,1.100,19.200
1.292,10.200,2.300,1.600,20.800
1.293,11.400,3.300,1.900,21.800
1.294,11.900,3.100,1.900,22.200
1.295,11.700,2.100,2.100,21.900
1.296,11.000,0.900,2.500,21.400
1.297,10.400,0.000,3.300,20.900
1.298,10.100,-0.500,4.100,20.700
1.299,10.500,-0.600,4.700,20.900
1.300,11.300,-0.500,4.800,21.400
1.301,12.700,-0.100,4.100,21.900
1.302,14.200,0.700,2.900,22.400
1.303,15.600,1.900,1.600,22.800
1.304,16.600,3.000,0.600,23.100
1.305,17.100,3.700,0.200,23.100
1.306,16.700,3.300,0.300,23.000
1.307,15.700,1.900,0.800,22.600
1.308,14.100,-0.100,1.400,22.000
1.309,12.400,-2.000,1.800,21.400
1.310,11.200,-3.200,1.800,20.900
1.311,10.400,-3.500,1.500,20.700
1.312,10.200,-3.100,1.100,20.700
1.313,10.300,-2.500,0.600,20.900
1.314,10.300,-2.100,0.100,21.000
1.315,10.200,-2.200,-0.500,21.000
1.316,10.100,-2.300,-0.900,21.300
1.317,10.800,-1.900,-0.700,22.000
1.318,12.500,-0.600,0.500,23.600
1.319,15.400,1.800,3.000,25.800
1.320,19.300,4.700,6.300,28.200
1.321,23.300,7.800,9.400,30.400
1.322,26.500,10.300,11.200,32.100
1.323,28.500,12.100,11.000,33.100
1.324,29.500,13.600,8.900,33.900
1.325,30.100,15.100,6.000,34.900
1.326,31.200,17.200,3.500,36.700
1.327,33.000,19.800,2.500,39.300
1.328,35.400,22.500,3.200,42.500
1.329,37.500,24.900,4.700,45.800
1.330,38.600,26.400,6.000,48.600
1.331,38.100,26.700,6.300,50.800
1.332,36.000,26.000,5.500,52.300
1.333,32.500,24.600,4.200,53.700
1.334,28.400,22.800,3.200,55.500
1.335,23.800,20.600,3.200,58.400
1.336,19.000,18.300,3.900,62.500
1.337,13.800,15.500,4.500,67.400
1.338,8.100,12.200,4.100,71.800
1.339,1.900,8.000,2.000,74.500
1.340,-5.100,2.600,-1.800,74.500
1.341,-13.100,-4.100,-6.600,71.700
1.342,-22.300,-12.000,-11.500,66.800
1.343,-32.800,-20.800,-15.600,61.200
1.344,-44.200,-29.800,-18.600,56.100
1.345,-55.800,-38.500,-20.400,52.600
1.346,-66.800,-46.100,-21.100,50.600
1.347,-76.500,-52.600,-21.100,49.600
1.348,-84.800,-58.300,-20.400,48.600
1.349,-92.100,-63.700,-19.300,46.600
1.350,-99.100,-69.300,-18.100,43.000
1.351,-106.000,-75.100,-17.100,37.500
1.352,-112.700,-81.000,-16.400,30.500
1.353,-118.700,-86.400,-16.000,22.100
1.354,-122.900,-90.700,-15.800,12.700
1.355,-124.900,-93.900,-15.600,2.300
1.356,-124.400,-96.000,-15.200,-8.700
1.357,-121.900,-97.300,-14.800,-20.100
1.358,-118.000,-97.900,-14.400,-31.000
1.359,-113.300,-97.900,-14.100,-40.700
1.360,-108.200,-97.400,-13.900,-48.300
1.361,-103.000,-96.300,-13.600,-53.800
1.362,-97.500,-94.700,-12.900,-57.500
1.363,-91.800,-92.700,-11.400,-59.500
1.364,-85.900,-90.000,-8.900,-60.100
1.365,-79.700,-86.300,-5.300,-58.900
1.366,-73.600,-81.400,-1.300,-55.500
1.367,-67.500,-75.400,2.400,-50.100
1.368,-61.900,-69.200,4.600,-43.600
1.369,-56.900,-63.500,4.700,-37.100
1.370,-52.700,-59.000,3.000,-31.500
1.371,-49.000,-55.800,0.600,-27.100
1.372,-45.300,-52.900,-1.100,-23.200
1.373,-40.900,-49.400,-1.100,-18.800
1.374,-35.500,-44.500,0.800,-13.200
1.375,-29.300,-38.600,3.500,-6.800
1.376,-22.900,-32.600,5.800,-0.800
1.377,-17.100,-27.600,6.600,4.000
1.378,-12.600,-24.400,5.800,7.100
1.379,-9.400,-22.600,4.200,9.100
1.380,-7.400,-21.200,2.700,11.200
1.381,-5.800,-19.600,1.900,13.900
1.382,-4.300,-17.200,1.900,17.100
1.383,-2.800,-14.500,2.200,20.000
1.384,-1.300,-12.200,2.600,21.600
1.385,-0.200,-10.700,2.900,21.800
1.386,0.600,-9.900,3.400,21.100
1.387,1.300,-9.100,4.400,20.500
1.388,2.100,-7.800,5.900,20.900
1.389,3.200,-5.800,7.500,22.100
1.390,4.600,-3.600,8.600,23.500
1.391,5.900,-2.000,8.900,24.200
1.392,6.900,-1.700,8.300,23.900
1.393,7.200,-2.700,7.300,22.600
1.394,6.900,-4.400,6.300,21.300
1.395,6.400,-6.100,5.700,20.500
1.396,6.100,-7.100,5.400,20.500
1.397,6.600,-7.000,5.300,21.100
1.398,7.700,-6.100,4.800,21.600
1.399,9.200,-5.100,3.900,21.700
1.400,10.400,-4.300,2.500,21.200
1.401,10.800,-4.200,1.300,20.300
1.402,10.100,-4.500,0.500,19.500
1.403,8.800,-5.100,0.700,19.000
1.404,7.300,-5.600,1.600,18.800
1.405,6.200,-6.100,3.100,19.000
1.406,5.800,-6.500,4.600,19.300
1.407,6.200,-6.900,5.700,19.700
1.408,6.900,-7.500,6.300,20.000
1.409,7.700,-8.000,6.500,20.300
1.410,8.100,-8.300,6.500,20.500
1.411,8.300,-8.200,6.700,20.600
1.412,8.200,-7.500,7.100,20.700
1.413,8.100,-6.400,7.600,21.000
1.414,8.100,-5.000,7.900,21.800
1.415,8.400,-3.700,7.500,23.000
1.416,8.900,-2.500,6.200,24.300
1.417,9.600,-1.500,3.800,25.500
1.418,10.300,-0.700,0.900,26.200
1.419,10.900,0.000,-2.000,26.200
1.420,11.200,0.700,-3.700,25.900
1.421,11.500,1.300,-3.600,25.600
1.422,11.600,1.600,-1.700,25.700
1.423,11.500,1.500,1.400,25.800
1.424,11.200,0.700,4.400,25.600
1.425,10.400,-0.900,6.100,24.600
1.426,8.900,-3.000,6.000,22.800
1.427,7.100,-5.200,4.400,20.500
1.428,5.300,-6.700,2.600,18.700
1.429,4.300,-7.200,1.500,18.000
1.430,4.300,-6.500,2.000,18.700
1.431,5.200,-5.100,3.600,20.200
1.432,6.300,-3.500,5.400,21.500
1.433,6.900,-2.500,6.100,21.800
1.434,6.600,-2.200,5.400,21.100
1.435,5.400,-2.600,3.600,19.900
1.436,3.900,-3.200,1.700,19.000
1.437,2.500,-3.400,0.700,19.000
1.438,1.400,-3.300,1.000,19.900
1.439,0.700,-3.100,2.000,21.000
1.440,0.200,-3.200,2.800,21.700
1.441,-0.500,-3.800,2.400,21.500
1.442,-1.200,-4.800,0.900,20.700
1.443,-1.900,-5.800,-1.100,20.100
1.444,-2.300,-6.600,-2.400,20.100
1.445,-2.500,-7.000,-2.300,21.000
1.446,-2.200,-7.100,-0.600,22.300
1.447,-1.500,-7.000,1.700,23.600
1.448,-0.300,-6.600,3.600,24.300
1.449,1.200,-5.700,4.500,24.600
1.450,3.000,-4.200,4.200,24.800
1.451,4.700,-2.100,3.500,25.100
1.452,6.200,0.200,3.000,25.900
1.453,7.200,2.100,3.100,26.900
1.454,7.900,3.000,3.600,27.700
1.455,8.300,2.800,3.800,28.200
1.456,8.500,1.600,3.300,28.100
1.457,8.400,0.100,2.100,27.600
1.458,7.800,-1.400,0.700,27.000
1.459,6.900,-2.600,-0.200,26.500
1.460,5.900,-3.400,-0.100,26.400
1.461,5.200,-3.900,1.000,26.700
1.462,5.200,-4.300,2.600,27.300
1.463,5.800,-4.600,4.000,28.000
1.464,6.600,-4.600,4.700,28.500
1.465,7.300,-4.500,4.600,28.700
1.466,7.500,-4.200,4.000,28.600
1.467,7.300,-3.700,3.600,28.400
1.468,6.900,-3.300,3.500,28.100
1.469,6.300,-3.200,3.700,27.500
1.470,5.500,-3.600,4.100,26.600
1.471,4.300,-4.800,4.200,25.200
1.472,2.800,-6.800,3.900,23.400
1.473,1.200,-9.100,3.200,21.600
1.474,0.000,-11.300,2.700,20.500
1.475,-0.400,-12.400,2.700,20.700
1.476,0.200,-12.100,3.200,22.200
1.477,1.600,-10.200,3.800,24.700
1.478,3.100,-7.500,4.100,27.100
1.479,4.200,-5.100,3.600,28.700
1.480,4.700,-3.700,2.400,29.000
1.481,4.400,-3.800,1.000,28.200
1.482,3.800,-5.000,0.200,27.000
1.483,3.300,-6.400,0.500,26.200
1.484,3.200,-7.100,1.900,26.100
1.485,3.500,-6.700,3.900,26.700
1.486,4.000,-5.600,5.800,27.500
1.487,4.400,-4.500,7.300,28.000
1.488,4.200,-3.900,8.200,27.900
1.489,3.400,-3.900,8.900,27.200
1.490,2.300,-4.200,9.600,26.400
1.491,1.100,-4.600,10.500,25.900
1.492,0.100,-4.700,11.200,25.700
1.493,-0.700,-4.800,11.500,25.900
1.494,-1.400,-5.500,11.100,26.200
1.495,-2.300,-6.800,10.100,26.300
1.496,-3.400,-8.600,8.600,26.100
1.497,-4.400,-10.400,7.000,25.700
1.498,-4.800,-11.400,5.300,25.400
1.499,-4.500,-11.400,3.600,25.300
1.500,-3.600,-10.600,2.000,25.600
1.501,-2.300,-9.300,0.600,26.000
1.502,-1.200,-8.300,-0.300,26.600
1.503,-0.600,-7.700,-0.600,27.200
1.504,-0.500,-7.400,-0.300,27.700
1.505,-0.600,-7.300,0.300,28.200
1.506,-0.700,-6.900,1.100,28.700
1.507,-0.600,-6.200,2.000,29.200
1.508,-0.500,-5.500,3.100,29.300
1.509,-0.700,-4.900,4.400,28.900
1.510,-1.100,-4.800,5.900,27.800
1.511,-1.900,-5.200,7.100,26.100
1.512,-2.600,-5.800,7.900,24.500
1.513,-3.200,-6.300,7.900,23.400
1.514,-3.300,-6.200,7.200,23.100
1.515,-3.000,-5.600,5.900,23.800
1.516,-2.600,-4.800,4.500,25.100
1.517,-2.200,-4.400,3.100,26.300
1.518,-2.200,-4.800,1.800,27.100
1.519,-2.700,-6.000,0.800,27.200
1.520,-3.400,-7.400,0.000,26.800
1.521,-4.100,-8.200,-0.500,26.400
1.522,-4.400,-7.800,-0.600,26.300
1.523,-4.000,-6.000,-0.200,26.700
1.524,-2.800,-3.300,0.800,27.600
1.525,-1.200,-0.700,2.200,28.800
1.526,0.300,0.900,3.900,30.000
1.527,1.100,1.000,5.800,30.900
1.528,0.700,-0.200,7.600,31.200
1.529,-0.600,-2.000,9.100,30.800
1.530,-2.200,-3.500,10.000,29.900
1.531,-3.500,-4.300,9.800,28.900
1.532,-4.000,-4.100,8.600,28.300
1.533,-3.600,-3.100,6.400,28.300
1.534,-3.000,-2.000,3.800,28.900
1.535,-2.900,-1.300,1.800,29.800
1.536,-3.300,-1.400,0.800,30.600
1.537,-4.200,-2.400,1.100,30.900
1.538,-5.000,-3.800,2.200,30.800
1.539,-5.200,-5.300,3.100,30.600
1.540,-4.800,-6.100,3.200,30.400
1.541,-4.400,-6.300,1.900,30.300
1.542,-4.400,-5.900,-0.100,30.200
1.543,-5.200,-5.400,-2.100,29.900
1.544,-6.500,-5.400,-2.900,29.200
1.545,-7.700,-6.200,-2.200,28.300
1.546,-8.600,-7.400,-0.300,27.500
1.547,-8.900,-8.700,1.800,26.900
1.548,-9.000,-9.600,3.300,26.700
1.549,-9.100,-9.800,3.700,26.700
1.550,-9.500,-9.600,3.000,26.800
1.551,-10.400,-9.500,2.200,26.600
1.552,-11.400,-9.900,1.600,26.100
1.553,-12.600,-10.900,1.500,25.300
1.554,-13.600,-12.000,1.500,24.500
1.555,-14.300,-12.700,1.000,24.000
1.556,-14.700,-12.600,-0.200,24.000
1.557,-14.700,-11.700,-1.700,24.500
1.558,-14.500,-10.300,-2.800,25.400
1.559,-14.200,-9.100,-3.200,26.400
1.560,-14.100,-8.200,-2.900,27.100
1.561,-14.200,-7.700,-2.400,27.200
1.562,-14.300,-7.500,-2.400,26.700
1.563,-14.500,-7.600,-2.900,25.900
1.564,-14.700,-8.100,-3.500,25.200
1.565,-15.000,-9.100,-3.200,25.000
1.566,-15.400,-10.500,-1.500,25.500
1.567,-16.000,-11.600,1.400,26.400
1.568,-16.400,-12.000,4.800,27.500
1.569,-16.600,-11.200,7.400,28.400
1.570,-16.200,-9.800,8.400,28.600
1.571,-15.500,-8.500,7.900,28.300
1.572,-14.800,-8.000,6.400,27.800
1.573,-14.700,-8.800,4.600,27.600
1.574,-15.000,-10.300,3.200,27.800
1.575,-15.600,-11.900,2.000,28.600
1.576,-16.100,-12.800,0.800,29.600
1.577,-16.100,-13.000,-0.600,30.200
1.578,-15.700,-12.600,-2.300,30.200
1.579,-15.500,-12.100,-4.000,29.700
1.580,-15.600,-11.500,-5.100,29.200
1.581,-16.000,-10.800,-5.300,29.300
1.582,-16.300,-9.800,-4.700,29.900
1.583,-16.000,-8.400,-3.300,30.900
1.584,-15.000,-6.900,-1.900,31.400
1.585,-13.800,-6.200,-0.900,31.000
1.586,-13.000,-6.600,-0.700,29.400
1.587,-13.200,-8.100,-1.400,26.900
1.588,-14.800,-10.400,-2.800,24.100
1.589,-17.100,-12.600,-4.300,21.700
1.590,-19.500,-14.100,-5.400,19.900
1.591,-21.100,-14.600,-5.700,18.600
1.592,-21.600,-13.800,-4.800,18.000
1.593,-20.900,-11.800,-3.200,18.200
1.594,-19.100,-8.800,-0.900,19.600
1.595,-16.300,-5.100,1.300,22.500
1.596,-12.500,-1.000,3.200,26.400
1.597,-8.000,2.900,4.300,30.300
1.598,-3.200,6.000,4.500,33.200
1.599,1.100,8.000,3.600,34.400
1.600,4.100,8.900,2.100,34.200
1.601,5.900,9.600,0.800,33.500
1.602,7.300,11.100,0.600,34.000
1.603,9.600,14.400,2.100,36.400
1.604,14.000,19.500,5.300,40.700
1.605,20.500,25.700,9.200,45.600
1.606,27.800,31.300,12.400,49.500
1.607,34.000,34.700,13.800,51.000
1.608,37.000,35.000,12.800,49.700
1.609,36.200,32.500,10.200,46.300
1.610,32.100,28.300,7.300,41.900
1.611,26.600,24.000,5.800,37.900
1.612,21.800,21.200,6.500,35.300
1.613,18.900,20.300,9.100,34.300
1.614,18.000,21.100,12.500,34.700
1.615,18.300,22.600,15.000,35.500
1.616,18.300,23.500,15.200,35.900
1.617,16.700,22.400,12.600,34.900
1.618,12.700,18.700,7.900,31.900
1.619,6.300,12.600,2.100,27.100
1.620,-2.000,4.700,-3.300,20.900
1.621,-11.100,-3.800,-6.900,14.700
1.622,-19.900,-11.600,-8.200,9.600
1.623,-27.300,-17.700,-7.000,6.500
1.624,-32.500,-21.600,-4.000,5.600
1.625,-35.200,-23.300,-0.100,6.300
1.626,-35.700,-23.100,3.500,7.800
1.627,-34.400,-21.500,6.400,9.500
1.628,-31.900,-19.000,8.300,11.200
1.629,-28.700,-16.100,9.600,12.900
1.630,-25.200,-13.300,10.700,14.600
1.631,-21.800,-11.000,11.700,16.200
1.632,-18.700,-9.400,12.400,17.400
1.633,-16.100,-8.300,12.400,18.000
1.634,-14.000,-7.200,11.500,18.100
1.635,-12.200,-5.800,9.700,18.100
1.636,-10.300,-3.800,7.800,18.600
1.637,-8.100,-1.600,6.200,19.700
1.638,-5.700,0.500,5.300,21.000
1.639,-3.300,1.800,4.800,22.000
1.640,-1.500,2.300,4.300,22.100
1.641,-0.600,1.900,3.500,21.200
1.642,-0.600,1.100,2.500,19.700
1.643,-1.600,0.200,1.800,18.200
1.644,-3.000,-0.500,1.900,17.200
1.645,-4.600,-1.200,3.100,16.800
1.646,-6.000,-1.800,5.000,16.600
1.647,-6.800,-2.200,6.900,16.300
1.648,-7.000,-2.100,8.300,15.800
1.649,-6.600,-1.300,8.900,15.600
1.650,-5.600,0.200,9.000,16.000
1.651,-4.500,2.100,8.900,17.000
1.652,-3.600,3.900,9.100,18.400
1.653,-3.200,4.900,9.400,19.400
1.654,-3.700,5.000,9.700,19.700
1.655,-5.000,4.300,10.000,19.000
1.656,-6.800,3.200,10.000,18.000
1.657,-8.600,2.200,10.000,17.100
1.658,-10.000,1.700,9.700,16.800
1.659,-10.700,1.600,9.300,16.900
1.660,-10.700,1.700,8.500,16.900
1.661,-10.300,1.700,7.700,16.200
1.662,-9.800,1.300,7.000,14.700
1.663,-9.500,0.600,7.000,12.900
1.664,-9.500,0.000,7.700,11.400
1.665,-9.500,-0.300,8.800,11.100
1.666,-9.300,-0.100,9.600,11.900
1.667,-8.800,0.400,9.600,13.500
1.668,-8.000,0.900,8.600,15.200
1.669,-7.300,1.200,7.100,16.300
1.670,-7.100,1.000,5.700,16.600
1.671,-7.400,0.400,5.200,16.100
1.672,-8.100,-0.300,5.800,15.300
1.673,-8.700,-0.700,7.100,14.500
1.674,-8.800,-0.800,8.400,14.000
1.675,-8.200,-0.300,9.100,13.900
1.676,-7.200,0.300,9.100,14.100
1.677,-6.200,1.000,8.700,14.400
1.678,-5.700,1.300,8.500,14.600
1.679,-6.000,1.000,8.700,14.300
1.680,-6.900,0.300,9.400,13.400
1.681,-8.200,-0.900,10.000,11.700
1.682,-9.600,-2.000,10.300,9.500
1.683,-10.700,-2.800,10.300,7.400
1.684,-11.100,-2.900,10.300,6.000
1.685,-10.700,-2.400,10.600,5.900
1.686,-9.700,-1.600,11.100,6.900
1.687,-8.400,-1.000,11.400,8.200
1.688,-7.500,-0.900,10.700,9.100
1.689,-7.600,-1.400,8.600,8.800
1.690,-8.800,-2.300,5.500,7.400
1.691,-10.800,-3.000,2.400,5.800
1.692,-12.800,-3.100,0.500,4.900
1.693,-13.900,-2.200,0.500,5.300
1.694,-13.600,-0.400,2.200,6.800
1.695,-12.000,2.000,4.600,8.800
1.696,-9.700,4.300,6.500,10.100
1.697,-7.600,5.900,6.900,10.300
1.698,-6.300,6.500,6.100,9.500
1.699,-5.900,6.000,4.500,8.400
1.700,-6.100,4.800,3.100,7.600
1.701,-6.400,3.300,2.200,7.500
1.702,-6.600,2.000,2.000,7.800
1.703,-6.600,1.100,2.000,8.100
1.704,-6.600,0.600,2.000,8.100
1.705,-6.700,0.300,2.000,8.100
1.706,-6.800,0.300,2.200,8.600
1.707,-6.700,0.700,2.900,9.900
1.708,-6.000,1.500,4.200,11.900
1.709,-4.500,2.800,5.800,14.200
1.710,-2.400,4.300,7.200,15.800
1.711,0.000,5.700,8.000,16.400
1.712,1.900,6.600,8.200,15.700
1.713,3.100,6.700,7.900,14.200
1.714,3.300,6.000,7.700,12.400
1.715,2.900,4.900,7.900,10.900
1.716,2.300,3.900,8.600,9.900
1.717,1.600,3.500,9.300,9.400
1.718,1.100,3.900,9.700,9.300
1.719,0.700,4.700,9.300,9.500
1.720,0.100,5.600,8.100,10.100
1.721,-0.700,6.000,6.100,10.800
1.722,-1.600,5.600,4.000,11.400
1.723,-2.500,4.700,2.100,11.600
1.724,-3.200,3.500,0.800,11.300
1.725,-3.600,2.500,0.200,10.500
1.726,-3.800,1.900,0.200,9.400
1.727,-3.900,1.800,0.400,8.400
1.728,-3.800,1.900,0.800,7.600
1.729,-3.500,2.000,1.400,6.800
1.730,-3.100,2.200,2.200,6.100
1.731,-2.500,2.600,3.300,5.600
1.732,-1.700,3.600,4.600,5.600
1.733,-0.800,5.200,6.000,6.300
1.734,0.400,7.000,7.300,7.600
1.735,1.400,8.500,8.400,9.000
1.736,2.200,9.200,9.300,9.900
1.737,2.400,8.800,9.900,9.700
1.738,1.800,7.700,10.300,8.700
1.739,0.800,6.500,10.400,7.300
1.740,-0.400,5.500,10.000,6.400
1.741,-1.100,5.000,8.900,6.200
1.742,-0.900,4.800,7.100,6.800
1.743,0.000,4.500,5.000,7.500
1.744,1.000,3.900,3.100,7.600
1.745,1.600,3.200,2.000,7.000
1.746,1.400,2.700,1.700,6.000
1.747,0.600,2.600,2.300,5.100
1.748,-0.300,3.100,3.100,4.800
1.749,-0.700,3.900,3.700,5.200
1.750,-0.300,4.600,4.000,5.900
1.751,0.700,5.100,4.100,6.400
1.752,2.000,5.400,4.500,6.500
1.753,2.900,5.700,5.600,6.100
1.754,3.200,6.100,7.200,5.400
1.755,2.900,6.600,8.800,4.600
1.756,2.400,7.000,10.000,3.700
1.757,2.100,7.000,10.300,2.900
1.758,2.300,6.700,9.700,2.500
1.759,3.200,6.600,8.800,2.700
1.760,4.500,6.900,8.100,3.700
1.761,5.900,8.100,7.700,5.400
1.762,7.000,9.900,7.700,7.300
1.763,7.600,11.700,7.700,8.700
1.764,7.700,12.800,7.300,9.200
1.765,7.500,13.100,6.100,8.800
1.766,7.100,12.500,4.200,7.700
1.767,6.800,11.700,2.000,6.400
1.768,6.600,11.200,0.100,5.400
1.769,6.500,11.300,-0.900,4.800
1.770,6.200,12.100,-0.700,4.800
1.771,5.900,13.000,0.400,5.100
1.772,5.500,13.800,2.000,5.700
1.773,5.100,14.200,3.200,6.300
1.774,4.700,14.200,3.800,6.900
1.775,4.400,13.900,4.000,7.100
1.776,4.100,13.500,4.100,7.000
1.777,3.900,13.400,4.600,6.600
1.778,4.100,13.600,5.700,6.400
1.779,4.800,14.200,6.800,6.600
1.780,6.000,15.100,7.300,7.200
1.781,7.300,16.000,6.900,8.200
1.782,8.400,16.600,5.800,9.200
1.783,9.000,16.900,4.400,9.900
1.784,9.200,17.000,3.500,10.200
1.785,9.300,17.000,3.500,10.100
1.786,9.700,17.300,4.000,9.700
1.787,10.400,17.800,4.500,9.100
1.788,11.100,18.100,4.500,8.200
1.789,11.200,18.000,3.800,7.100
1.790,10.400,17.300,3.000,6.100
1.791,8.700,16.100,2.500,5.300
1.792,6.700,14.700,2.600,5.100
1.793,5.000,13.800,3.200,5.500
1.794,4.200,13.400,4.000,6.100
1.795,4.200,13.500,4.600,6.600
1.796,4.700,13.800,5.200,6.600
1.797,5.200,14.100,5.800,6.100
1.798,5.300,13.900,6.700,5.300
1.799,4.900,13.400,7.400,4.500
1.800,3.900,12.400,7.600,3.800
1.801,2.300,11.000,6.800,3.400
1.802,0.600,9.400,5.200,3.200
1.803,-1.100,7.600,3.300,3.300
1.804,-2.400,5.800,2.000,3.300
1.805,-3.100,4.500,1.700,3.300
1.806,-2.900,3.600,2.300,3.000
1.807,-2.200,3.400,3.200,2.500
1.808,-1.300,3.800,3.900,1.900
1.809,-0.300,4.400,4.000,1.600
1.810,0.500,5.100,4.000,1.700
1.811,1.400,5.600,4.300,2.500
1.812,2.500,5.800,5.200,3.500
1.813,3.500,5.800,6.600,4.300
1.814,4.100,5.500,7.800,4.300
1.815,3.900,4.900,8.300,3.200
1.816,3.000,4.300,8.000,1.600
1.817,1.500,3.500,7.000,-0.100
1.818,0.000,2.600,5.900,-1.000
1.819,-1.000,1.900,5.200,-1.100
1.820,-1.400,1.400,5.000,-0.600
1.821,-1.100,1.300,5.000,-0.200
1.822,-0.500,1.800,4.800,-0.300
1.823,0.100,2.900,4.300,-1.000
1.824,0.900,4.300,3.300,-1.900
1.825,1.600,5.800,1.900,-2.700
1.826,2.200,6.900,0.300,-3.000
1.827,2.700,7.500,-1.300,-3.000
1.828,2.900,7.300,-2.700,-2.600
1.829,2.700,6.600,-3.400,-2.200
1.830,2.200,5.500,-3.400,-1.900
1.831,1.800,4.400,-2.400,-1.500
1.832,1.400,3.400,-0.700,-1.100
1.833,1.200,2.700,1.600,-0.700
1.834,1.300,2.400,4.000,-0.300
1.835,1.400,2.500,6.200,0.100
1.836,1.800,3.200,8.200,0.600
1.837,2.400,4.400,9.700,1.000
1.838,3.200,5.700,10.500,1.200
1.839,4.000,6.900,10.400,1.000
1.840,4.700,7.700,9.700,0.200
1.841,5.200,8.100,8.400,-1.000
1.842,5.700,8.300,7.200,-2.000
1.843,6.200,8.400,6.100,-2.600
1.844,6.900,8.700,5.100,-2.400
1.845,7.500,9.000,3.900,-1.800
1.846,7.500,8.900,1.900,-1.400
1.847,6.500,8.300,-0.500,-1.600
1.848,4.900,7.300,-2.700,-2.500
1.849,3.200,6.400,-3.700,-3.600
1.850,2.400,5.900,-3.100,-4.000
1.851,3.000,6.300,-1.000,-3.400
1.852,4.500,7.400,1.500,-1.900
1.853,6.300,8.500,3.400,-0.200
1.854,7.100,9.200,4.000,1.000
1.855,6.600,9.100,3.600,1.000
1.856,5.000,8.300,2.900,0.000
1.857,3.200,7.200,2.600,-1.400
1.858,1.900,6.300,2.800,-2.800
1.859,1.600,5.900,3.100,-3.700
1.860,1.800,5.700,2.700,-4.000
1.861,2.000,5.600,1.500,-3.700
1.862,1.900,5.500,0.000,-3.100
1.863,1.400,5.200,-0.900,-2.300
1.864,1.000,5.000,-0.600,-1.600
1.865,1.000,4.900,0.700,-1.400
1.866,1.400,4.800,2.500,-1.700
1.867,2.000,4.600,4.000,-2.600
1.868,2.300,4.300,4.600,-3.900
1.869,2.200,3.700,4.500,-5.300
1.870,1.700,3.000,4.100,-6.300
1.871,1.000,2.200,3.600,-6.900
1.872,0.300,1.200,3.100,-7.300
1.873,-0.300,0.300,2.700,-7.500
1.874,-0.600,-0.300,2.600,-7.500
1.875,-0.200,0.100,3.300,-6.900
1.876,1.900,2.300,5.400,-5.200
1.877,6.200,6.600,9.200,-2.000
1.878,12.600,12.600,13.800,2.500
1.879,20.100,19.200,17.800,7.500
1.880,27.100,24.900,19.900,11.900
1.881,32.100,28.800,19.400,14.900
1.882,34.500,30.700,16.700,16.100
1.883,34.700,31.600,13.300,16.200
1.884,34.100,32.200,10.800,16.200
1.885,33.700,33.300,9.900,17.100
1.886,33.700,34.400,10.500,19.600
1.887,33.600,35.000,11.400,23.400
1.888,32.600,34.400,11.700,27.900
1.889,30.100,32.800,10.900,32.400
1.890,26.300,30.800,9.300,36.500
1.891,21.700,29.200,7.600,40.100
1.892,16.800,27.900,6.300,43.300
1.893,11.700,26.500,5.500,46.200
1.894,6.000,24.200,4.600,48.600
1.895,-0.900,20.400,3.100,50.400
1.896,-8.700,15.300,0.500,51.400
1.897,-17.200,9.600,-2.600,51.700
1.898,-25.600,4.000,-5.700,51.400
1.899,-33.600,-1.400,-8.300,50.600
1.900,-41.500,-7.100,-9.900,49.100
1.901,-49.600,-13.600,-10.900,47.000
1.902,-58.600,-21.300,-11.700,44.400
1.903,-68.500,-29.600,-12.700,41.500
1.904,-78.800,-37.600,-14.000,38.900
1.905,-88.700,-44.500,-15.600,36.400
1.906,-97.500,-50.000,-17.000,33.800
1.907,-105.000,-54.700,-18.300,30.300
1.908,-111.300,-59.500,-19.100,25.100
1.909,-116.800,-64.700,-19.600,17.800
1.910,-121.300,-70.300,-19.600,8.500
1.911,-124.500,-75.800,-19.000,-2.200
1.912,-125.900,-80.300,-17.700,-13.600
1.913,-125.100,-83.500,-16.000,-25.100
1.914,-122.200,-85.300,-14.100,-36.100
1.915,-117.600,-85.800,-12.200,-46.100
1.916,-111.900,-85.000,-10.600,-54.800
1.917,-105.700,-83.000,-9.300,-61.600
1.918,-99.300,-79.800,-8.000,-66.400
1.919,-92.600,-75.500,-6.700,-69.500
1.920,-85.800,-70.700,-5.300,-71.300
1.921,-79.100,-65.900,-4.100,-72.300
1.922,-72.600,-61.200,-3.300,-72.800
1.923,-66.700,-56.800,-3.100,-72.500
1.924,-61.300,-52.300,-3.200,-71.000
1.925,-56.300,-47.700,-3.600,-68.100
1.926,-51.200,-42.800,-3.700,-63.700
1.927,-45.900,-38.000,-3.200,-58.300
1.928,-40.500,-33.600,-2.100,-52.400
1.929,-35.400,-29.500,-0.100,-46.400
1.930,-30.800,-25.700,2.400,-40.800
1.931,-26.900,-22.000,5.000,-35.600
1.932,-23.300,-18.000,7.300,-30.900
1.933,-19.700,-13.700,8.900,-26.900
1.934,-16.000,-9.500,9.600,-23.600
1.935,-12.300,-5.700,9.500,-20.900
1.936,-9.100,-2.700,8.800,-18.800
1.937,-7.000,-0.700,7.900,-16.900
1.938,-6.100,0.500,7.000,-14.900
1.939,-6.100,1.300,6.100,-12.800
1.940,-6.300,2.000,5.200,-10.500
1.941,-5.900,3.200,4.500,-8.100
1.942,-4.700,4.900,3.900,-5.900
1.943,-3.000,6.700,3.500,-4.200
1.944,-1.300,8.100,3.200,-3.400
1.945,-0.400,8.700,2.600,-3.300
1.946,-0.400,8.200,1.900,-3.800
1.947,-1.000,6.900,1.100,-4.600
1.948,-1.600,5.500,0.500,-5.300
1.949,-1.600,4.500,0.400,-5.800
1.950,-0.900,4.200,0.600,-6.000
1.951,0.200,4.300,0.900,-6.200
1.952,1.000,4.600,1.100,-6.300
1.953,1.300,4.900,0.900,-6.400
1.954,1.200,5.000,0.300,-6.300
1.955,1.000,5.300,-0.400,-5.900
1.956,1.200,5.800,-1.000,-5.400
1.957,1.600,6.400,-1.200,-5.000
1.958,2.100,7.000,-1.000,-5.200
1.959,2.500,7.300,-0.200,-5.900
1.960,2.400,7.400,0.800,-6.800
1.961,2.100,7.400,1.900,-7.700
1.962,1.800,7.700,2.900,-8.200
1.963,2.000,8.500,3.200,-8.200
1.964,2.700,9.800,2.800,-7.800
1.965,3.900,11.400,1.600,-7.400
1.966,5.400,13.100,0.000,-6.900
1.967,6.800,14.500,-1.600,-6.400
1.968,7.900,15.400,-3.000,-5.900
1.969,8.500,15.600,-3.700,-5.100
1.970,8.500,15.400,-3.900,-4.300
1.971,7.900,14.700,-3.700,-3.400
1.972,6.800,14.000,-3.100,-2.800
1.973,5.300,13.200,-2.400,-2.500
1.974,3.700,12.400,-1.600,-2.700
1.975,2.300,11.600,-0.700,-3.600
1.976,1.300,10.700,0.200,-5.000
1.977,1.100,10.000,1.000,-6.400
1.978,1.700,9.800,1.700,-7.600
1.979,2.900,10.300,2.500,-8.000
1.980,4.400,11.400,3.200,-7.700
1.981,5.700,12.700,3.600,-7.000
1.982,6.500,13.500,3.600,-6.400
1.983,6.500,13.300,2.900,-6.300
1.984,6.000,12.100,1.800,-6.600
1.985,5.300,10.600,0.500,-7.100
1.986,5.200,9.600,-0.400,-7.300
1.987,5.900,9.700,-0.800,-6.900
1.988,7.400,10.700,-0.900,-6.100
1.989,9.100,12.200,-0.900,-5.300
1.990,10.400,13.300,-1.300,-4.800
1.991,10.900,13.400,-1.800,-4.600
1.992,10.500,12.700,-2.100,-4.700
1.993,9.800,11.500,-1.700,-4.500
1.994,9.200,10.600,0.000,-3.900
1.995,9.200,10.500,2.700,-3.100
1.996,9.500,11.100,5.800,-2.200
1.997,9.800,12.100,8.600,-1.600
1.998,9.900,12.900,10.200,-1.400
1.999,9.400,13.000,10.300,-1.500
2.000,8.500,12.300,9.200,-2.100
2.001,7.400,10.900,7.400,-3.100
2.002,6.300,9.100,5.700,-4.600
2.003,5.200,7.600,4.600,-6.300
2.004,4.200,6.700,4.300,-8.100
2.005,3.400,6.300,4.500,-9.400
2.006,2.600,6.100,4.600,-10.200
2.007,1.900,5.500,4.100,-10.400
2.008,1.100,4.100,3.000,-10.100
2.009,0.100,2.200,1.700,-9.600
2.010,-0.800,0.500,0.900,-9.100
2.011,-1.300,-0.100,1.100,-8.400
2.012,-0.900,1.100,2.600,-7.500
2.013,0.600,3.600,4.600,-6.200
2.014,2.900,6.700,6.600,-4.700
2.015,5.300,9.100,7.700,-3.300
2.016,6.900,10.100,7.800,-2.300
2.017,7.400,9.800,7.000,-1.900
2.018,7.000,9.000,5.700,-2.200
2.019,6.300,8.500,4.500,-2.900
2.020,6.200,8.800,3.400,-3.600
2.021,6.800,9.800,2.400,-4.100
2.022,8.100,10.900,1.400,-4.200
2.023,9.300,11.600,0.300,-3.800
2.024,9.800,11.700,-0.800,-3.200
2.025,9.400,11.300,-1.600,-2.600
2.026,8.200,11.000,-1.900,-2.400
2.027,6.700,10.800,-1.500,-2.400
2.028,5.500,11.100,-0.200,-2.400
2.029,5.100,11.900,1.600,-2.000
2.030,5.500,13.000,3.600,-1.000
2.031,6.500,14.400,4.900,0.300
2.032,7.400,15.700,4.800,1.400
2.033,7.900,16.400,3.200,2.000
2.034,7.800,16.200,0.500,1.600
2.035,7.200,15.400,-2.400,0.600
2.036,6.600,14.500,-4.000,-0.400
2.037,6.700,14.300,-3.800,-0.900
2.038,7.700,15.200,-2.000,-0.600
2.039,9.400,17.000,0.400,0.100
2.040,11.300,19.100,2.000,0.700
2.041,12.700,20.600,2.000,0.800
2.042,13.000,20.800,0.600,0.500
2.043,12.300,20.000,-1.100,-0.100
2.044,10.900,18.700,-2.100,-0.500
2.045,9.400,17.600,-1.700,-0.700
2.046,8.400,17.100,-0.200,-0.700
2.047,8.300,17.200,1.500,-0.800
2.048,9.000,17.600,2.400,-1.000
2.049,10.200,18.000,2.100,-1.300
2.050,11.500,18.400,0.900,-1.300
2.051,12.800,18.700,-0.200,-0.900
2.052,13.600,18.900,-0.600,-0.300
2.053,13.800,18.800,-0.300,0.100
2.054,13.500,18.100,0.400,0.100
2.055,12.800,16.800,1.000,-0.600
2.056,11.900,15.500,1.200,-1.600
2.057,11.300,14.400,0.800,-2.500
2.058,11.100,14.100,0.300,-3.100
2.059,11.200,14.600,-0.100,-3.100
2.060,11.200,15.300,-0.400,-2.700
2.061,10.600,15.600,-0.800,-2.300
2.062,9.300,15.000,-1.300,-2.000
2.063,7.200,13.400,-1.900,-2.000
2.064,5.000,11.500,-2.600,-2.300
2.065,3.300,9.800,-3.100,-2.600
2.066,2.700,9.100,-3.400,-3.100
2.067,3.200,9.300,-3.500,-3.500
2.068,4.500,10.200,-3.200,-3.800
2.069,6.100,11.300,-2.700,-3.800
2.070,7.500,12.000,-1.700,-3.500
2.071,8.200,12.200,-0.200,-3.000
2.072,8.400,11.900,1.700,-2.400
2.073,8.000,11.200,3.700,-2.000
2.074,7.300,10.200,5.300,-1.900
2.075,6.300,9.100,6.300,-2.000
2.076,5.200,7.900,6.300,-2.100
2.077,4.200,7.000,5.300,-2.000
2.078,3.500,6.700,3.700,-1.400
2.079,3.000,7.000,1.500,-0.600
2.080,2.800,7.900,-0.800,0.100
2.081,2.800,9.100,-2.800,0.300
2.082,2.800,10.300,-4.100,-0.100
2.083,3.000,11.300,-4.200,-0.700
2.084,3.600,12.200,-3.000,-1.200
2.085,4.600,13.000,-0.600,-1.100
2.086,5.800,13.700,2.100,-0.300
2.087,6.800,14.300,4.400,0.800
2.088,7.300,14.600,5.500,2.100
2.089,7.100,14.700,5.400,3.100
2.090,6.500,14.700,4.600,3.800
2.091,5.700,14.600,3.600,4.100
2.092,5.000,14.600,3.100,4.100
2.093,4.500,14.400,3.300,3.800
2.094,4.100,13.900,4.000,3.300
2.095,3.800,13.000,4.900,2.500
2.096,3.400,12.100,5.600,1.600
2.097,3.100,11.300,5.900,0.600
2.098,2.900,10.800,5.700,-0.500
2.099,2.700,10.500,5.300,-1.400
2.100,2.600,10.200,4.900,-2.000
2.101,2.600,10.000,5.200,-1.700
2.102,3.100,10.000,6.400,-0.300
2.103,4.400,11.000,8.500,2.100
2.104,6.600,12.900,10.800,4.900
2.105,9.200,15.300,12.100,7.100
2.106,11.000,17.100,11.500,7.400
2.107,11.000,16.800,8.500,5.300
2.108,8.300,13.800,3.600,0.700
2.109,3.400,8.800,-1.700,-5.100
2.110,-2.200,3.600,-5.500,-10.400
2.111,-6.500,0.200,-6.700,-13.500
2.112,-7.800,0.000,-4.900,-13.400
2.113,-5.500,2.900,-1.300,-10.400
2.114,-0.400,7.600,2.500,-5.700
2.115,5.500,12.200,5.000,-1.200
2.116,10.300,15.400,5.500,1.800
2.117,13.000,17.000,4.800,2.900
2.118,13.900,17.800,4.200,2.900
2.119,14.500,19.200,5.200,3.300
2.120,16.600,22.300,8.400,5.400
2.121,21.300,27.300,13.000,9.300
2.122,28.400,33.400,17.400,14.400
2.123,36.100,39.100,19.800,19.000
2.124,42.100,42.800,18.900,21.500
2.125,44.800,43.800,15.000,21.100
2.126,43.500,42.100,9.600,18.300
2.127,39.200,38.600,4.500,14.300
2.128,33.800,34.700,1.500,10.600
2.129,29.200,31.700,1.300,8.200
2.130,26.700,30.300,3.600,7.700
2.131,26.300,30.900,7.100,8.700
2.132,27.500,32.900,10.300,10.300
2.133,29.000,35.400,12.000,11.800
2.134,29.700,37.200,11.400,12.300
2.135,28.300,37.000,8.500,11.000
2.136,24.100,33.800,3.600,7.700
2.137,16.700,27.400,-2.200,2.300
2.138,6.400,18.200,-7.900,-4.500
2.139,-5.500,8.100,-12.200,-11.400
2.140,-16.800,-0.900,-14.400,-17.000
2.141,-25.400,-6.800,-14.300,-20.300
2.142,-30.000,-8.700,-12.000,-20.700
2.143,-30.500,-7.000,-8.300,-18.700
2.144,-28.100,-3.400,-4.000,-15.300
2.145,-24.700,0.600,0.000,-11.700
2.146,-21.500,3.600,3.000,-8.700
2.147,-19.100,5.600,4.700,-6.700
2.148,-16.700,7.100,5.000,-5.500
2.149,-13.600,9.200,4.400,-4.800
2.150,-9.200,11.900,3.300,-4.100
2.151,-4.200,15.100,2.500,-3.200
2.152,0.300,17.700,2.300,-2.300
2.153,3.100,19.200,2.500,-1.500
2.154,3.800,19.200,2.900,-0.900
2.155,2.900,18.300,3.100,-0.700
2.156,1.700,17.300,2.900,-0.600
2.157,1.100,17.000,2.700,-0.600
2.158,1.500,17.500,2.600,-0.500
2.159,2.800,18.800,3.100,-0.200
2.160,4.500,20.300,4.200,0.300
2.161,6.000,21.500,5.500,0.700
2.162,7.200,22.300,6.700,1.100
2.163,8.100,22.700,7.300,1.400
2.164,9.000,23.000,7.100,1.600
2.165,9.800,23.500,6.000,1.700
2.166,10.500,24.200,4.500,1.600
2.167,11.200,25.100,2.900,1.500
2.168,11.700,26.000,1.700,1.400
2.169,12.300,26.800,1.500,1.500
2.170,12.700,27.400,2.200,1.900
2.171,12.900,27.700,3.400,2.500
2.172,12.800,27.700,4.800,3.300
2.173,12.300,27.500,5.700,3.800
2.174,11.700,27.000,5.900,3.800
2.175,11.300,26.300,5.700,3.400
2.176,11.400,25.500,5.300,2.600
2.177,12.000,24.800,4.900,1.500
2.178,12.600,24.100,4.400,0.200
2.179,12.900,23.400,3.500,-1.200
2.180,12.300,22.900,1.900,-2.800
2.181,11.100,22.400,0.000,-4.300
2.182,9.600,22.100,-1.500,-5.300
2.183,8.500,22.200,-1.800,-5.600
2.184,8.300,22.700,-0.700,-5.000
2.185,8.700,23.600,1.500,-3.800
2.186,9.600,24.400,3.900,-2.400
2.187,10.300,24.800,5.600,-1.500
2.188,10.700,24.600,6.200,-1.600
2.189,10.700,23.800,5.900,-2.500
2.190,10.700,22.800,5.300,-4.200
2.191,10.800,22.100,5.100,-5.900
2.192,11.200,22.000,5.200,-7.200
2.193,11.800,22.500,5.500,-7.700
2.194,12.500,23.200,5.400,-7.600
2.195,13.200,23.400,4.700,-7.000
2.196,13.700,22.700,3.500,-6.600
2.197,14.000,21.200,2.000,-6.400
2.198,14.100,19.400,0.600,-6.600
2.199,13.900,18.200,-0.500,-6.900
2.200,13.600,18.300,-1.400,-6.900
2.201,13.400,19.500,-2.400,-6.500
2.202,13.400,21.200,-3.600,-5.800
2.203,13.500,22.600,-4.700,-5.300
2.204,13.700,23.100,-5.300,-5.300
2.205,13.900,22.600,-4.800,-6.000
2.206,13.900,21.700,-3.100,-7.100
2.207,14.000,21.000,-0.800,-8.400
2.208,14.100,20.900,1.400,-9.300
2.209,14.400,21.400,2.500,-9.900
2.210,14.500,21.800,2.200,-10.000
2.211,14.400,21.900,0.700,-10.000
2.212,13.900,21.500,-1.300,-9.800
2.213,13.200,21.100,-3.100,-9.500
2.214,12.200,20.800,-3.900,-9.100
2.215,11.100,20.900,-3.600,-8.600
2.216,10.100,21.200,-2.400,-8.100
2.217,9.300,21.500,-0.700,-7.900
2.218,8.900,21.900,0.900,-7.900
2.219,9.400,22.700,1.700,-8.000
2.220,11.000,24.200,1.500,-7.800
2.221,13.600,26.500,0.300,-7.300
2.222,16.600,29.100,-1.300,-6.500
2.223,19.000,31.100,-2.700,-5.800
2.224,20.200,31.800,-3.100,-5.500
2.225,19.700,31.000,-2.600,-5.600
2.226,17.900,29.200,-1.400,-6.000
2.227,15.500,27.300,-0.300,-6.500
2.228,13.400,25.800,0.100,-6.700
2.229,12.300,25.200,-0.300,-6.700
2.230,12.400,25.000,-1.100,-6.600
2.231,13.100,24.600,-1.700,-6.700
2.232,14.000,23.700,-1.900,-7.300
2.233,14.600,22.300,-1.900,-8.400
2.234,14.500,20.800,-2.300,-9.700
2.235,13.800,19.600,-3.500,-10.900
2.236,12.800,19.100,-5.400,-11.800
2.237,11.800,19.200,-7.400,-12.200
2.238,11.200,19.600,-8.800,-12.100
2.239,11.000,20.000,-8.900,-11.800
2.240,11.300,20.300,-7.900,-11.400
2.241,11.600,20.400,-6.500,-11.200
2.242,11.800,20.500,-5.500,-11.300
2.243,11.600,20.600,-5.400,-11.900
2.244,11.300,20.800,-6.000,-12.500
2.245,11.300,21.100,-6.700,-12.800
2.246,12.000,21.600,-6.800,-12.400
2.247,13.700,22.500,-6.100,-11.200
2.248,16.100,23.900,-4.700,-9.100
2.249,18.600,25.600,-3.300,-6.900
2.250,20.400,27.200,-2.400,-5.100
2.251,21.100,28.100,-2.200,-4.200
2.252,20.700,28.000,-2.700,-4.400
2.253,19.800,27.100,-3.200,-5.500
2.254,19.000,25.600,-3.300,-6.800
2.255,18.900,24.400,-3.200,-8.000
2.256,19.300,23.800,-3.000,-8.700
2.257,19.900,24.000,-3.300,-9.000
2.258,20.200,24.700,-4.100,-9.000
2.259,20.000,25.400,-4.900,-8.700
2.260,19.500,25.900,-5.200,-8.100
2.261,19.100,26.000,-4.200,-7.200
2.262,18.800,25.500,-2.000,-6.100
2.263,18.700,24.700,0.700,-5.300
2.264,18.500,23.500,2.900,-5.200
2.265,17.900,22.400,3.900,-5.800
2.266,17.100,21.500,3.700,-6.700
2.267,16.400,21.400,2.900,-7.500
2.268,16.400,22.400,2.400,-7.500
2.269,17.100,24.300,2.500,-6.600
2.270,18.400,26.700,3.100,-5.300
2.271,19.500,28.800,3.500,-4.200
2.272,20.000,29.700,3.100,-4.100
2.273,19.600,29.200,1.600,-5.100
2.274,18.300,27.500,-0.600,-6.800
2.275,16.500,25.400,-2.700,-8.400
2.276,14.900,23.600,-3.800,-9.200
2.277,13.700,22.600,-3.700,-9.100
2.278,13.200,22.400,-2.800,-8.200
2.279,13.400,22.700,-2.000,-7.100
2.280,14.100,23.000,-2.000,-6.400
2.281,15.000,23.000,-3.000,-6.300
2.282,15.800,22.700,-4.600,-6.700
2.283,16.500,22.400,-5.700,-7.200
2.284,16.900,22.500,-5.600,-7.400
2.285,17.300,23.000,-4.100,-7.200
2.286,18.000,23.900,-1.700,-6.600
2.287,19.100,25.000,0.700,-5.900
2.288,20.500,25.900,2.200,-5.400
2.289,21.700,26.100,2.200,-5.400
2.290,22.300,25.600,1.100,-6.000
2.291,22.000,24.500,-0.500,-7.100
2.292,20.900,23.100,-2.000,-8.300
2.293,19.500,22.000,-3.100,-9.200
2.294,18.400,21.600,-3.800,-9.700
2.295,18.100,22.200,-4.200,-9.600
2.296,18.700,23.500,-4.400,-9.200
2.297,19.600,25.200,-4.200,-8.700
2.298,20.400,26.700,-3.600,-8.300
2.299,20.400,27.400,-2.600,-8.200
2.300,19.400,27.100,-1.600,-8.200
2.301,17.600,25.900,-1.000,-8.400
2.302,15.400,24.300,-1.300,-8.800
2.303,13.100,22.800,-2.700,-9.400
2.304,11.300,21.700,-4.700,-10.300
2.305,10.200,21.100,-6.700,-11.300
2.306,9.800,21.000,-7.800,-12.100
2.307,10.200,21.300,-7.500,-12.100
2.308,11.200,22.000,-5.700,-11.100
2.309,12.400,23.000,-2.900,-9.100
2.310,13.500,24.400,0.000,-6.600
2.311,14.400,26.000,2.300,-4.200
2.312,15.000,27.600,3.400,-2.600
2.313,15.500,28.800,3.300,-1.900
2.314,16.100,29.400,2.500,-2.200
2.315,17.000,29.400,1.600,-2.900
2.316,18.100,29.000,1.100,-3.500
2.317,19.300,28.500,1.100,-3.700
2.318,20.200,28.100,1.200,-3.500
2.319,20.600,27.900,0.900,-3.200
2.320,20.500,28.000,-0.100,-3.000
2.321,19.900,28.300,-1.600,-3.100
2.322,19.000,29.000,-3.300,-3.600
2.323,18.000,29.900,-4.500,-4.300
2.324,17.200,30.900,-4.900,-5.100
2.325,16.500,31.600,-4.400,-5.800
2.326,15.900,31.500,-3.400,-6.300
2.327,15.500,30.500,-2.200,-6.800
2.328,15.100,29.000,-1.300,-7.200
2.329,15.000,27.400,-0.900,-7.500
2.330,15.100,26.400,-0.900,-7.800
2.331,15.400,26.300,-1.100,-8.200
2.332,15.900,26.800,-1.300,-8.600
2.333,16.300,27.200,-1.700,-9.000
2.334,16.200,27.100,-2.400,-9.400
2.335,15.500,26.300,-3.700,-9.900
2.336,14.400,25.100,-5.500,-10.400
2.337,13.300,24.100,-7.300,-10.700
2.338,12.800,24.000,-8.600,-10.800
2.339,13.000,24.600,-9.200,-10.500
2.340,13.800,25.600,-8.900,-10.100
2.341,14.800,26.300,-8.100,-9.500
2.342,15.600,26.300,-7.100,-8.800
2.343,16.000,25.800,-6.400,-8.100
2.344,16.400,25.300,-5.700,-7.400
2.345,16.900,25.600,-5.100,-6.600
2.346,18.100,27.000,-4.300,-5.800
2.347,19.600,29.000,-3.200,-5.100
2.348,21.200,31.000,-2.300,-4.400
2.349,22.200,32.100,-1.800,-4.100
2.350,22.300,31.700,-1.900,-4.300
2.351,21.300,29.900,-2.600,-5.000
2.352,19.600,27.200,-3.400,-6.200
2.353,17.500,24.300,-4.100,-7.600
2.354,15.300,21.800,-4.600,-9.000
2.355,13.100,19.800,-5.200,-10.100
2.356,10.900,18.200,-6.300,-10.500
2.357,8.800,16.800,-7.900,-10.400
2.358,7.200,15.600,-9.800,-9.800
2.359,6.000,14.700,-11.500,-9.200
2.360,5.300,14.000,-12.500,-9.000
2.361,4.900,13.500,-12.400,-9.300
2.362,4.400,13.100,-11.400,-9.900
2.363,3.400,12.600,-9.800,-10.600
2.364,2.100,12.000,-8.100,-11.000
2.365,1.000,11.400,-6.800,-11.200
2.366,0.500,11.000,-5.700,-11.200
2.367,0.800,10.700,-5.000,-11.300
2.368,1.800,10.500,-4.300,-11.300
2.369,2.800,10.100,-3.700,-11.000
2.370,3.300,9.700,-3.300,-10.100
2.371,3.100,9.200,-3.300,-8.600
2.372,2.600,9.000,-3.700,-6.800
2.373,2.300,9.100,-4.500,-5.500
2.374,2.800,9.300,-5.500,-5.200
2.375,3.900,9.300,-6.200,-6.300
2.376,5.200,8.900,-6.500,-8.300
2.377,6.300,8.100,-5.900,-10.200
2.378,7.000,7.300,-4.700,-11.100
2.379,7.200,7.000,-3.300,-10.600
2.380,7.400,7.600,-2.100,-9.100
2.381,7.800,9.000,-1.700,-7.300
2.382,8.400,10.900,-2.100,-6.000
2.383,9.000,12.700,-3.100,-5.600
2.384,9.400,14.000,-4.100,-6.000
2.385,9.700,14.700,-4.500,-6.600
2.386,9.800,14.800,-4.200,-7.100
2.387,9.900,14.700,-3.300,-7.300
2.388,10.000,14.300,-2.400,-7.400
2.389,10.100,13.700,-1.700,-7.500
2.390,10.000,12.900,-1.500,-7.800
2.391,9.800,11.700,-1.500,-8.000
2.392,9.500,10.400,-1.700,-8.000
2.393,9.200,9.500,-1.900,-7.800
2.394,9.200,9.000,-2.200,-7.600
2.395,9.300,9.200,-2.900,-7.700
2.396,9.600,9.900,-4.000,-8.200
2.397,10.100,11.000,-5.200,-8.800
2.398,10.600,12.300,-6.300,-9.200
2.399,11.100,13.400,-7.000,-9.000
2.400,11.600,14.400,-7.200,-8.200
2.401,11.900,15.300,-6.800,-7.100
2.402,11.900,16.100,-6.100,-6.200
2.403,11.600,16.600,-5.000,-5.700
2.404,11.100,16.700,-3.900,-5.800
2.405,10.600,16.500,-2.900,-6.300
2.406,10.100,16.000,-2.200,-6.900
2.407,9.800,15.700,-2.000,-7.300
2.408,9.800,15.900,-2.100,-7.300
2.409,10.500,16.800,-2.300,-7.000
2.410,11.700,18.100,-2.500,-6.400
2.411,13.300,19.100,-2.400,-5.900
2.412,14.600,19.100,-2.400,-5.900
2.413,14.900,17.700,-2.500,-6.500
2.414,14.200,15.200,-2.800,-7.400
2.415,12.700,12.600,-2.800,-8.000
2.416,11.500,11.300,-2.100,-7.200
2.417,11.700,12.300,-0.500,-4.600
2.418,13.900,15.700,1.600,-0.400
2.419,17.700,20.500,3.200,4.200
2.420,21.800,24.900,3.400,7.600
2.421,24.300,27.200,1.800,8.300
2.422,24.200,26.400,-1.400,6.000
2.423,21.300,22.900,-5.000,1.400
2.424,16.700,18.000,-7.900,-3.800
2.425,12.100,13.400,-9.000,-7.900
2.426,8.900,10.400,-8.200,-9.800
2.427,7.800,9.400,-5.900,-9.600
2.428,8.400,10.000,-3.100,-7.900
2.429,9.800,11.500,-0.600,-5.800
2.430,11.400,13.100,1.000,-4.000
2.431,13.000,14.700,1.900,-2.400
2.432,15.000,16.700,2.400,-0.900
2.433,18.000,19.400,2.900,1.100
2.434,22.200,22.600,3.500,3.800
2.435,26.900,26.100,4.300,6.900
2.436,31.300,29.200,5.100,10.000
2.437,34.700,31.500,5.700,12.900
2.438,36.800,33.000,6.100,15.400
2.439,37.900,33.900,6.200,17.700
2.440,38.800,34.800,6.100,20.000
2.441,39.600,35.800,5.900,22.400
2.442,40.300,36.900,5.800,24.800
2.443,40.500,37.800,6.000,27.000
2.444,39.600,38.400,6.700,29.300
2.445,37.600,38.700,7.700,31.800
2.446,34.900,38.700,8.500,34.800
2.447,31.600,38.500,8.800,38.500
2.448,28.000,37.800,8.000,42.600
2.449,23.400,36.100,6.000,46.500
2.450,17.300,32.900,2.800,49.700
2.451,9.400,28.100,-1.100,51.600
2.452,-0.200,22.000,-5.300,52.200
2.453,-10.600,15.200,-9.200,51.600
2.454,-21.000,8.100,-12.400,50.100
2.455,-30.800,1.100,-14.600,47.900
2.456,-40.100,-5.900,-15.900,45.100
2.457,-49.500,-13.300,-16.400,41.900
2.458,-59.500,-21.200,-16.600,38.500
2.459,-70.200,-29.500,-17.000,35.300
2.460,-81.000,-37.500,-17.900,32.400
2.461,-91.100,-44.900,-19.300,29.800
2.462,-99.600,-51.100,-20.600,27.000
2.463,-106.200,-56.300,-21.400,23.200
2.464,-111.100,-61.000,-21.300,17.800
2.465,-114.800,-65.800,-20.900,10.400
2.466,-118.000,-70.800,-20.500,1.000
2.467,-120.300,-75.900,-20.600,-9.900
2.468,-121.300,-80.200,-21.200,-21.600
2.469,-120.200,-82.900,-21.600,-33.800
2.470,-116.800,-83.800,-21.100,-45.700
2.471,-111.200,-83.000,-19.500,-57.100
2.472,-104.500,-81.100,-17.000,-67.400
2.473,-97.600,-78.800,-14.400,-76.100
2.474,-91.300,-76.400,-12.200,-82.700
2.475,-85.700,-73.800,-10.500,-86.800
2.476,-80.300,-70.800,-9.000,-88.600
2.477,-74.600,-67.000,-7.100,-88.200
2.478,-68.200,-62.400,-4.700,-86.200
2.479,-61.200,-57.200,-2.100,-83.000
2.480,-54.000,-51.700,0.000,-79.000
2.481,-47.400,-46.500,0.800,-74.600
2.482,-41.800,-41.700,0.400,-70.100
2.483,-37.500,-37.600,-1.000,-65.600
2.484,-34.400,-34.400,-2.600,-61.300
2.485,-32.400,-32.000,-3.600,-57.200
2.486,-31.000,-30.200,-3.700,-53.200
2.487,-29.500,-28.300,-2.900,-49.200
2.488,-27.300,-25.800,-1.300,-45.100
2.489,-24.200,-22.100,0.600,-40.800
2.490,-20.200,-17.300,2.500,-36.100
2.491,-15.700,-11.800,3.900,-31.200
2.492,-11.500,-6.400,4.500,-26.300
2.493,-8.300,-2.100,4.300,-21.900
2.494,-6.600,0.700,3.400,-18.200
2.495,-6.300,2.000,1.900,-15.500
2.496,-6.900,2.300,0.200,-13.900
2.497,-7.600,2.400,-1.500,-13.000
2.498,-7.800,2.900,-3.100,-12.600
2.499,-7.000,4.000,-4.800,-12.300
2.500,-5.400,5.200,-6.400,-12.000
2.501,-3.400,6.200,-7.600,-11.600
2.502,-1.500,6.500,-8.100,-11.400
2.503,-0.100,6.200,-7.700,-11.400
2.504,0.800,5.900,-6.300,-11.600
2.505,1.300,6.100,-4.200,-11.800
2.506,1.900,7.000,-1.900,-11.800
2.507,2.700,8.400,0.500,-11.500
2.508,3.600,9.800,2.800,-10.800
2.509,4.200,10.500,5.100,-9.900
2.510,4.400,10.400,7.100,-8.900
2.511,4.100,9.600,8.300,-8.000
2.512,3.300,8.700,8.400,-7.400
2.513,2.500,8.000,7.200,-7.100
2.514,2.000,7.600,4.900,-6.900
2.515,1.800,7.400,2.000,-6.800
2.516,2.000,7.400,-0.600,-6.500
2.517,2.500,7.400,-2.700,-6.100
2.518,3.100,7.800,-4.100,-5.800
2.519,3.800,8.800,-5.200,-5.500
2.520,4.700,10.300,-6.000,-5.400
2.521,5.600,12.100,-6.200,-5.400
2.522,6.400,13.500,-5.500,-5.200
2.523,7.000,14.000,-4.000,-4.900
2.524,7.000,13.400,-2.100,-4.900
2.525,6.300,11.900,-0.600,-5.600
2.526,5.000,10.000,-0.400,-7.200
2.527,3.200,8.400,-1.500,-9.300
2.528,1.500,7.800,-3.400,-11.300
2.529,0.300,8.200,-5.000,-12.500
2.530,0.200,9.600,-5.600,-12.200
2.531,1.200,11.400,-4.900,-10.600
2.532,3.200,13.200,-3.400,-8.400
2.533,5.600,14.400,-1.900,-6.400
2.534,7.800,14.800,-0.800,-5.200
2.535,9.300,14.600,-0.300,-4.800
2.536,9.800,13.900,-0.100,-5.100
2.537,9.600,13.200,0.100,-5.600
2.538,9.100,12.700,0.300,-5.800
2.539,8.900,12.500,0.400,-5.700
2.540,9.300,12.800,0.300,-5.200
2.541,10.400,13.700,-0.100,-4.300
2.542,12.000,14.900,-0.600,-3.200
2.543,13.700,16.400,-0.900,-2.300
2.544,15.000,17.800,-0.900,-1.600
2.545,15.500,18.800,-0.700,-1.400
2.546,15.300,19.400,-0.400,-1.700
2.547,14.300,19.600,-0.200,-2.400
2.548,12.900,19.600,0.000,-3.200
2.549,11.700,19.400,0.200,-4.000
2.550,11.000,19.300,0.200,-4.600
2.551,10.700,19.100,-0.300,-5.100
2.552,10.800,18.700,-1.300,-5.500
2.553,10.900,18.100,-3.000,-5.800
2.554,10.600,17.300,-4.900,-6.000
2.555,9.900,16.300,-6.800,-6.300
2.556,8.800,15.200,-8.300,-6.700
2.557,7.700,14.200,-9.400,-7.400
2.558,7.000,13.200,-10.200,-8.300
2.559,6.600,12.600,-10.800,-9.400
2.560,6.700,12.400,-11.100,-10.600
2.561,7.100,12.800,-10.600,-11.400
2.562,7.500,13.700,-9.000,-11.600
2.563,8.100,15.000,-6.300,-11.100
2.564,8.900,16.300,-2.900,-9.700
2.565,9.800,17.200,0.100,-7.900
2.566,10.800,17.600,1.700,-6.100
2.567,11.600,17.400,1.400,-4.700
2.568,12.200,16.900,-0.500,-4.100
2.569,12.600,16.400,-3.000,-4.100
2.570,12.800,16.100,-5.000,-4.600
2.571,13.200,16.300,-5.800,-4.800
2.572,13.700,16.700,-5.200,-4.600
2.573,14.300,17.300,-3.700,-3.700
2.574,14.500,17.400,-2.000,-2.700
2.575,14.200,16.900,-0.700,-2.000
2.576,13.300,15.700,0.100,-1.800
2.577,12.100,14.200,0.500,-2.100
2.578,11.200,12.700,0.700,-2.800
2.579,10.900,11.900,0.800,-3.100
2.580,11.300,11.900,0.800,-3.000
2.581,12.100,12.700,0.600,-2.400
2.582,13.000,13.800,0.100,-1.600
2.583,13.400,14.700,-0.500,-1.200
2.584,13.300,15.200,-0.900,-1.600
2.585,12.800,15.500,-1.000,-2.700
2.586,12.200,15.800,-0.700,-4.300
2.587,11.900,16.300,-0.300,-5.900
2.588,11.800,17.200,-0.200,-7.000
2.589,11.900,18.000,-0.500,-7.600
2.590,11.700,18.300,-1.600,-7.700
2.591,10.900,18.000,-3.400,-7.500
2.592,9.700,17.100,-5.600,-7.400
2.593,8.500,16.000,-7.800,-7.400
2.594,7.800,15.400,-9.400,-7.200
2.595,8.100,15.600,-10.200,-6.600
2.596,9.200,16.700,-10.100,-5.500
2.597,10.700,18.000,-9.400,-4.200
2.598,11.700,19.100,-8.500,-3.200
2.599,11.700,19.300,-7.800,-3.300
2.600,10.700,18.400,-7.500,-4.500
2.601,9.000,17.000,-7.200,-6.400
2.602,7.300,15.500,-6.500,-8.100
2.603,6.300,14.600,-5.100,-8.900
2.604,6.000,14.600,-3.200,-8.300
2.605,6.500,15.400,-1.600,-6.700
2.606,7.100,16.300,-1.000,-4.800
2.607,7.400,16.900,-1.800,-3.400
2.608,7.400,16.900,-3.700,-2.900
2.609,7.000,16.600,-5.900,-3.100
2.610,6.300,16.300,-7.700,-3.600
2.611,5.500,16.300,-8.600,-4.200
2.612,4.600,16.500,-9.000,-4.800
2.613,3.600,16.600,-9.200,-5.400
2.614,2.600,16.300,-9.700,-6.200
2.615,1.700,15.500,-10.400,-6.900
2.616,1.100,14.600,-10.800,-7.300
2.617,1.000,14.000,-10.800,-7.200
2.618,1.400,13.700,-10.300,-6.900
2.619,1.900,13.800,-9.700,-6.900
2.620,2.200,13.800,-9.700,-7.600
2.621,2.100,13.400,-10.400,-9.300
2.622,1.500,12.700,-11.600,-11.100
2.623,0.700,12.100,-12.600,-12.400
2.624,0.200,12.200,-12.900,-12.400
2.625,0.400,12.900,-12.100,-11.000
2.626,1.300,14.200,-10.500,-8.800
2.627,2.800,15.500,-8.300,-6.500
2.628,4.500,16.700,-6.100,-4.700
2.629,6.000,17.700,-4.100,-3.600
2.630,7.100,18.900,-2.600,-2.900
2.631,8.000,20.500,-1.800,-2.300
2.632,8.600,22.200,-1.800,-1.700
2.633,9.100,23.700,-2.500,-1.000
2.634,9.300,24.500,-3.500,-0.600
2.635,9.100,24.700,-4.400,-0.400
2.636,8.600,24.500,-4.700,-0.400
2.637,7.900,24.300,-4.200,-0.600
2.638,7.000,24.300,-3.000,-0.600
2.639,6.300,24.200,-1.500,-0.600
2.640,5.800,23.400,-0.100,-0.600
2.641,5.500,21.500,0.700,-0.700
2.642,5.300,18.600,0.800,-1.100
2.643,5.100,15.700,0.200,-1.600
2.644,4.800,13.400,-0.900,-2.300
2.645,4.400,12.400,-2.000,-3.000
2.646,3.700,12.500,-3.000,-3.600
2.647,2.600,13.100,-3.500,-4.300
2.648,1.100,13.400,-3.400,-5.200
2.649,-0.500,12.900,-3.000,-6.200
2.650,-2.200,11.800,-2.500,-7.400
2.651,-3.800,10.900,-2.300,-8.200
2.652,-4.900,10.800,-2.300,-8.100
2.653,-5.200,12.200,-2.200,-6.900
2.654,-4.200,15.100,-1.500,-4.400
2.655,-1.700,18.900,0.000,-1.300
2.656,2.000,22.500,2.000,1.800
2.657,6.300,25.100,3.900,4.200
2.658,10.300,26.400,5.000,5.700
2.659,13.500,26.900,5.300,6.800
2.660,16.300,27.700,5.400,8.600
2.661,19.500,30.200,6.300,11.800
2.662,24.200,35.200,8.900,16.800
2.663,30.800,42.000,12.700,22.700
2.664,38.400,49.200,16.500,28.100
2.665,45.300,54.700,18.600,31.600
2.666,49.800,57.100,18.000,32.300
2.667,50.800,56.000,14.700,30.300
2.668,48.300,52.400,10.300,26.800
2.669,43.600,47.800,6.600,23.000
2.670,38.300,43.800,5.200,20.200
2.671,33.800,41.200,6.300,18.800
2.672,31.000,40.100,9.200,18.600
2.673,29.800,40.000,12.500,19.100
2.674,29.700,40.200,14.500,19.500
2.675,29.700,39.800,14.300,19.100
2.676,28.700,38.200,11.600,17.400
2.677,25.400,34.900,6.900,14.400
2.678,19.200,29.600,1.400,10.100
2.679,10.200,22.500,-3.400,4.800
2.680,-0.600,14.300,-6.100,-0.700
2.681,-11.600,6.200,-6.200,-5.600
2.682,-20.900,-0.500,-4.100,-9.400
2.683,-27.700,-5.000,-1.000,-11.400
2.684,-31.600,-7.100,1.500,-11.800
2.685,-33.200,-7.200,2.400,-11.100
2.686,-33.200,-6.100,1.700,-9.600
2.687,-32.100,-4.600,0.200,-8.100
2.688,-30.200,-3.100,-0.700,-6.500
2.689,-27.300,-1.700,-0.400,-4.800
2.690,-23.500,0.100,0.900,-2.900
2.691,-19.200,2.500,2.300,-0.500
2.692,-14.900,5.400,2.800,2.000
2.693,-11.300,8.500,1.700,4.200
2.694,-8.900,11.300,-0.600,5.800
2.695,-7.600,13.100,-2.800,6.700
2.696,-7.000,14.000,-3.900,7.500
2.697,-6.400,14.400,-3.100,8.800
2.698,-5.100,15.200,-0.700,11.100
2.699,-3.000,16.800,2.300,14.300
2.700,-0.300,19.200,4.400,17.600
2.701,2.000,21.600,4.100,19.600
2.702,2.600,22.800,1.000,19.100
2.703,0.900,22.100,-4.200,16.000
2.704,-2.900,19.300,-10.000,10.800
2.705,-7.900,15.500,-14.500,5.000
2.706,-12.400,12.000,-16.300,0.200
2.707,-15.200,9.900,-14.900,-2.500
2.708,-15.600,9.600,-11.000,-2.800
2.709,-14.200,10.600,-6.000,-1.500
2.710,-11.700,11.900,-1.700,0.400
2.711,-9.300,13.100,0.800,2.200
2.712,-7.500,13.600,1.300,3.300
2.713,-6.400,13.800,0.300,3.900
2.714,-5.700,13.900,-1.200,4.200
2.715,-5.100,14.100,-2.400,4.600
2.716,-4.200,14.300,-2.800,5.100
2.717,-3.300,14.400,-2.600,5.500
2.718,-2.500,14.500,-2.000,5.600
2.719,-2.000,14.800,-1.300,5.400
2.720,-1.600,15.600,-0.800,5.300
2.721,-1.100,16.900,-0.500,5.200
2.722,-0.300,18.500,-0.400,5.500
2.723,0.500,20.100,-0.500,5.800
2.724,1.200,20.900,-0.800,6.100
2.725,1.500,20.800,-1.100,6.000
2.726,1.300,19.900,-1.200,5.700
2.727,0.700,18.500,-0.900,5.400
2.728,-0.100,17.300,-0.400,5.100
2.729,-0.900,16.500,-0.100,4.900
2.730,-1.400,16.200,-0.700,4.800
2.731,-2.000,16.200,-2.100,4.400
2.732,-2.500,16.000,-4.200,3.800
2.733,-2.800,15.600,-6.000,3.100
2.734,-2.700,14.800,-6.700,2.700
2.735,-2.100,14.000,-6.200,2.700
2.736,-1.100,13.300,-4.700,3.100
2.737,-0.100,12.900,-2.900,3.700
2.738,0.600,12.800,-1.300,4.100
2.739,0.600,12.800,-0.100,4.100
2.740,0.000,12.700,1.000,3.700
2.741,-0.600,12.300,2.200,3.300
2.742,-0.900,11.800,3.600,3.000
2.743,-0.800,11.200,4.600,2.900
2.744,-0.700,10.800,5.000,2.600
2.745,-0.800,10.400,4.300,2.000
2.746,-1.400,10.000,2.800,0.900
2.747,-2.200,9.800,0.900,-0.400
2.748,-2.800,9.600,-1.000,-1.400
2.749,-2.600,9.700,-2.700,-1.500
2.750,-1.600,10.000,-4.000,-0.700
2.751,-0.100,10.600,-4.900,0.800
2.752,1.600,11.200,-5.400,2.500
2.753,2.700,11.800,-5.500,3.900
2.754,3.000,12.200,-5.200,4.500
2.755,2.600,12.300,-5.000,4.300
2.756,1.700,12.400,-5.000,3.600
2.757,0.900,12.400,-5.200,2.600
2.758,0.600,12.600,-5.100,2.000
2.759,0.900,13.000,-4.200,1.800
2.760,1.700,13.700,-2.500,2.200
2.761,2.800,14.500,-0.200,2.800
2.762,4.000,15.300,1.700,3.500
2.763,4.900,15.900,2.600,3.700
2.764,5.400,16.200,2.400,3.500
2.765,5.500,16.100,1.600,3.000
2.766,5.400,15.700,1.000,2.300
2.767,5.100,15.300,1.200,1.900
2.768,4.800,14.900,2.000,1.700
2.769,4.500,14.400,2.700,1.600
2.770,3.900,13.900,2.500,1.300
2.771,2.900,13.300,1.200,0.600
2.772,1.400,12.500,-1.000,-0.300
2.773,-0.300,11.900,-3.000,-1.200
2.774,-1.900,11.500,-4.000,-1.500
2.775,-3.000,11.600,-3.800,-1.000
2.776,-3.200,12.100,-2.700,0.100
2.777,-2.600,12.800,-1.300,1.300
2.778,-1.400,13.400,-0.500,2.200
2.779,-0.100,13.800,-0.500,2.400
2.780,0.900,14.100,-1.300,2.000
2.781,1.600,14.400,-2.200,1.500
2.782,2.000,14.800,-3.000,1.100
2.783,2.200,15.200,-3.100,1.000
2.784,2.200,15.300,-2.700,1.100
2.785,2.100,14.900,-2.100,1.200
2.786,1.800,14.100,-1.600,1.100
2.787,1.400,12.900,-1.700,0.800
2.788,0.900,11.800,-2.500,0.400
2.789,0.400,11.000,-3.500,0.100
2.790,0.100,10.600,-4.400,-0.300
2.791,-0.100,10.500,-4.700,-0.400
2.792,-0.400,10.700,-4.200,-0.300
2.793,-0.600,11.000,-3.100,0.100
2.794,-0.600,11.400,-2.200,0.900
2.795,-0.400,11.900,-1.800,1.900
2.796,0.100,12.400,-2.200,2.600
2.797,0.700,12.600,-3.100,2.600
2.798,1.100,12.400,-3.700,1.900
2.799,0.900,11.600,-3.700,0.500
2.800,0.400,10.500,-2.800,-1.000
2.801,-0.200,9.400,-1.500,-2.200
2.802,-0.600,8.700,-0.600,-2.800
2.803,-0.500,8.500,-0.600,-2.700
2.804,-0.200,8.900,-1.700,-2.200
2.805,0.300,9.900,-3.400,-1.800
2.806,0.700,11.200,-4.800,-1.600
2.807,1.000,12.500,-5.200,-1.700
2.808,1.400,13.500,-4.400,-2.000
2.809,1.800,13.800,-2.600,-2.000
2.810,2.400,13.600,-0.800,-1.800
2.811,2.900,13.000,0.000,-1.200
2.812,3.300,12.400,-0.700,-0.400
2.813,3.200,12.000,-3.000,0.400
2.814,2.800,12.100,-6.100,0.900
2.815,2.100,12.300,-9.100,0.800
2.816,1.300,12.200,-11.000,0.200
2.817,0.400,11.400,-11.100,-0.900
2.818,-0.400,10.200,-9.700,-2.300
2.819,-1.000,9.000,-7.400,-3.400
2.820,-1.400,8.500,-5.200,-4.000
2.821,-1.500,9.000,-3.600,-3.900
2.822,-1.000,10.400,-2.900,-3.200
2.823,-0.200,12.100,-2.700,-2.100
2.824,0.800,13.200,-2.700,-1.100
2.825,1.700,13.300,-2.600,-0.600
2.826,2.300,12.400,-2.300,-0.700
2.827,2.400,11.100,-2.200,-1.100
2.828,2.200,10.100,-2.700,-1.500
2.829,1.900,9.800,-3.900,-1.800
2.830,1.600,10.100,-5.700,-1.600
2.831,1.600,10.800,-7.500,-1.200
2.832,1.600,11.400,-8.900,-0.600
2.833,1.700,11.600,-9.600,0.100
2.834,1.600,11.600,-9.600,0.900
2.835,1.400,11.700,-9.000,1.700
2.836,1.100,12.100,-7.800,2.500
2.837,1.100,12.800,-6.100,3.000
2.838,1.400,13.500,-4.200,3.300
2.839,2.000,13.800,-2.300,3.300
2.840,2.900,13.700,-0.500,3.300
2.841,3.800,13.400,0.700,3.700
2.842,4.600,13.300,1.300,4.400
2.843,5.000,13.700,1.200,5.300
2.844,5.200,14.400,0.600,5.900
2.845,4.900,15.200,-0.300,5.800
2.846,4.500,15.500,-1.200,5.000
2.847,3.800,15.000,-2.100,3.700
2.848,3.200,13.600,-3.000,2.500
2.849,2.500,11.800,-4.100,1.600
2.850,1.900,10.000,-5.500,1.100
2.851,1.300,8.700,-7.100,0.800
2.852,0.600,8.300,-8.800,0.400
2.853,-0.200,8.700,-10.100,-0.100
2.854,-0.900,9.700,-10.600,-0.500
2.855,-1.200,11.100,-9.900,-0.600
2.856,-1.000,12.400,-7.900,-0.400
2.857,-0.200,13.500,-5.200,0.100
2.858,0.900,14.300,-2.500,0.400
2.859,2.000,15.000,-0.700,0.600
2.860,2.800,15.500,0.000,0.500
2.861,3.200,15.900,-0.200,0.500
2.862,3.400,16.100,-0.600,0.800
2.863,3.900,16.100,-0.500,1.400
2.864,4.700,15.800,0.200,1.900
2.865,5.800,15.300,1.000,2.000
2.866,6.700,14.900,1.400,1.700
2.867,7.200,14.500,0.800,0.900
2.868,6.800,14.100,-0.600,0.200
2.869,5.800,13.700,-2.300,-0.200
2.870,4.600,13.200,-3.500,0.100
2.871,3.300,12.600,-4.000,0.700
2.872,2.400,12.100,-4.000,1.400
2.873,1.700,11.700,-4.000,1.800
2.874,1.200,11.300,-4.300,1.700
2.875,0.600,10.800,-5.000,1.200
2.876,0.100,10.100,-5.400,0.500
2.877,-0.200,9.200,-5.300,-0.100
2.878,-0.200,8.300,-4.300,-0.500
2.879,0.000,7.700,-2.900,-0.800
2.880,0.400,7.500,-1.700,-0.900
2.881,0.600,7.700,-1.300,-0.800
2.882,0.700,8.400,-1.700,-0.500
2.883,0.600,9.200,-2.600,0.100
2.884,0.600,10.100,-3.500,0.800
2.885,0.600,10.800,-4.100,1.500
2.886,0.800,11.400,-4.300,1.900
2.887,1.000,11.700,-4.400,1.900
2.888,1.300,11.800,-4.400,1.600
2.889,1.700,11.500,-4.200,1.200
2.890,2.000,10.900,-3.800,1.100
2.891,2.300,10.000,-3.100,1.100
2.892,2.200,8.900,-2.300,1.100
2.893,1.900,8.000,-1.800,1.100
2.894,1.300,7.400,-1.600,0.800
2.895,0.700,7.500,-1.800,0.600
2.896,0.500,8.200,-1.900,0.600
2.897,0.700,9.400,-1.500,1.100
2.898,1.200,10.700,-0.500,2.100
2.899,1.700,11.900,0.700,3.100
2.900,1.900,12.500,1.700,3.800
2.901,1.600,12.500,1.900,3.600
2.902,0.900,11.800,1.200,2.400
2.903,-0.100,10.500,-0.300,0.700
2.904,-1.200,9.100,-2.000,-1.200
2.905,-2.200,7.700,-3.300,-2.600
2.906,-3.300,6.800,-3.900,-3.100
2.907,-4.100,6.700,-3.900,-2.600
2.908,-4.400,7.600,-3.500,-1.100
2.909,-4.000,9.300,-3.400,1.000
2.910,-3.000,11.300,-3.700,3.100
2.911,-1.700,12.600,-4.500,4.600
2.912,-0.700,12.800,-5.700,5.100
2.913,-0.600,11.600,-7.000,4.300
2.914,-1.800,9.300,-8.000,2.500
2.915,-4.200,6.700,-8.500,0.200
2.916,-7.200,4.400,-8.300,-1.900
2.917,-10.100,3.000,-7.300,-3.100
2.918,-12.000,2.700,-5.400,-3.200
2.919,-12.400,3.200,-3.000,-2.500
2.920,-11.400,4.300,-0.500,-1.200
2.921,-9.600,5.800,1.800,0.000
2.922,-7.900,7.300,3.200,0.900
2.923,-7.100,8.700,3.700,1.400
2.924,-7.500,9.700,3.400,1.400
2.925,-9.000,10.000,2.700,1.100
2.926,-10.800,9.600,1.900,0.400
2.927,-12.400,8.400,1.300,-0.700
2.928,-13.300,6.900,0.900,-2.000
2.929,-13.700,5.200,0.300,-3.400
2.930,-13.700,3.600,-0.600,-4.300
2.931,-13.700,2.300,-2.000,-4.600
2.932,-13.800,1.300,-3.600,-4.100
2.933,-13.900,0.600,-5.300,-3.200
2.934,-13.700,0.200,-6.700,-2.100
2.935,-13.200,0.100,-7.400,-1.200
2.936,-12.500,0.100,-7.600,-0.800
2.937,-11.800,0.200,-7.200,-0.700
2.938,-11.500,0.100,-6.400,-0.800
2.939,-11.600,0.000,-5.300,-0.700
2.940,-11.900,0.100,-3.900,-0.500
2.941,-12.000,0.500,-2.500,-0.200
2.942,-11.900,1.300,-0.900,-0.100
2.943,-11.200,2.200,0.500,0.000
2.944,-10.400,3.000,1.500,0.100
2.945,-9.500,3.300,1.800,0.200
2.946,-8.800,3.300,1.400,0.300
2.947,-8.600,3.100,0.100,0.400
2.948,-8.700,3.000,-1.700,0.200
2.949,-9.100,3.200,-3.500,-0.300
2.950,-9.600,3.500,-5.000,-0.800
2.951,-10.000,3.500,-5.600,-1.300
2.952,-10.100,3.300,-5.300,-1.300
2.953,-9.900,2.800,-4.000,-0.800
2.954,-9.400,2.300,-2.300,0.000
2.955,-8.800,2.100,-0.600,0.600
2.956,-8.300,2.400,0.800,0.800
2.957,-8.100,2.800,1.500,0.300
2.958,-8.200,3.000,1.600,-0.800
2.959,-8.500,2.900,1.400,-2.100
2.960,-8.700,2.300,1.300,-3.300
2.961,-8.600,1.800,1.500,-3.900
2.962,-8.100,1.700,2.200,-3.800
2.963,-7.300,2.000,2.900,-3.100
2.964,-6.600,2.600,3.400,-2.400
2.965,-6.400,3.100,3.100,-2.100
2.966,-6.800,3.100,1.800,-2.500
2.967,-7.700,2.800,-0.400,-3.600
2.968,-8.800,2.300,-3.000,-5.200
2.969,-9.700,2.100,-5.600,-6.800
2.970,-10.200,2.200,-7.600,-7.900
2.971,-10.400,2.500,-8.500,-8.100
2.972,-10.300,2.800,-8.400,-7.300
2.973,-10.100,3.000,-7.300,-5.900
2.974,-9.700,3.300,-5.600,-4.200
2.975,-9.200,3.900,-3.700,-2.700
2.976,-8.400,4.900,-2.100,-1.600
2.977,-7.500,6.000,-0.900,-1.100
2.978,-6.800,6.800,-0.500,-1.000
2.979,-6.600,6.800,-0.800,-1.100
2.980,-7.100,5.800,-1.500,-1.300
2.981,-8.300,4.200,-2.500,-1.800
2.982,-9.800,2.600,-3.400,-2.700
2.983,-11.400,1.500,-4.100,-4.000
2.984,-12.800,1.100,-4.600,-5.500
2.985,-13.800,1.100,-4.900,-6.800
2.986,-14.600,1.200,-5.200,-7.400
2.987,-14.900,1.400,-5.600,-7.000
2.988,-14.900,1.600,-6.100,-5.900
2.989,-14.600,2.000,-6.500,-4.300
2.990,-14.100,2.400,-6.600,-2.900
2.991,-13.600,2.800,-6.300,-1.900
2.992,-13.100,2.900,-5.800,-1.500
2.993,-12.400,2.900,-5.200,-1.300
2.994,-11.200,3.300,-4.600,-0.800
2.995,-9.100,4.700,-3.800,0.400
2.996,-5.900,7.200,-2.600,2.400
2.997,-1.700,10.900,-0.600,5.100
2.998,3.000,15.200,2.200,8.300
2.999,7.700,19.400,5.300,11.500
3.000,11.900,23.200,7.900,14.600
3.001,15.200,26.400,9.400,17.300
3.002,17.600,29.000,9.500,19.600
3.003,19.000,31.200,8.400,21.600
3.004,19.700,32.600,6.600,23.400
3.005,19.500,33.300,4.600,25.300
3.006,18.400,32.900,2.500,27.300
3.007,16.400,31.400,0.400,29.800
3.008,13.400,29.200,-1.900,32.800
3.009,9.600,26.700,-4.200,36.100
3.010,5.300,24.200,-6.400,39.600
3.011,0.400,21.900,-8.100,43.000
3.012,-4.700,19.600,-9.400,46.200
3.013,-10.300,16.900,-10.400,48.800
3.014,-16.400,13.500,-11.600,50.400
3.015,-23.300,9.000,-13.000,50.700
3.016,-31.100,3.400,-14.500,49.600
3.017,-40.000,-3.300,-16.000,46.900
3.018,-49.900,-11.000,-17.400,42.800
3.019,-60.900,-19.700,-18.800,37.700
3.020,-72.600,-28.900,-20.400,32.300
3.021,-84.600,-38.200,-22.300,27.300
3.022,-96.400,-46.700,-24.100,23.400
3.023,-107.300,-53.800,-25.200,20.800
3.024,-116.700,-59.400,-25.600,19.300
3.025,-124.700,-63.900,-25.600,17.900
3.026,-131.600,-68.200,-26.000,15.400
3.027,-137.900,-73.400,-27.400,10.900
3.028,-143.900,-79.500,-29.400,4.300
3.029,-149.100,-85.900,-31.000,-3.800
3.030,-152.400,-90.800,-30.500,-12.200
3.031,-152.700,-93.000,-27.100,-20.100
3.032,-149.600,-92.100,-21.500,-27.400
3.033,-143.600,-89.200,-15.500,-34.900
3.034,-136.600,-86.300,-11.400,-43.900
3.035,-130.500,-85.400,-10.300,-54.700
3.036,-126.900,-87.300,-12.000,-66.600
3.037,-125.600,-91.000,-14.500,-77.900
3.038,-125.400,-94.400,-15.700,-86.500
3.039,-124.300,-95.200,-14.000,-90.800
3.040,-120.800,-92.500,-9.500,-90.600
3.041,-114.500,-86.500,-3.800,-87.000
3.042,-106.300,-78.900,1.600,-81.500
3.043,-97.700,-71.300,5.200,-75.800
3.044,-90.000,-65.000,6.800,-70.400
3.045,-83.900,-60.200,6.900,-65.500
3.046,-79.300,-56.500,6.300,-60.700
3.047,-75.600,-53.400,5.300,-55.800
3.048,-72.300,-50.600,4.200,-50.900
3.049,-68.900,-47.900,3.000,-46.100
3.050,-65.200,-45.000,1.700,-41.400
3.051,-61.300,-41.800,0.200,-36.800
3.052,-56.900,-37.900,-1.200,-32.200
3.053,-52.000,-33.300,-2.400,-27.500
3.054,-46.800,-28.400,-3.300,-22.900
3.055,-41.600,-23.700,-3.900,-18.500
3.056,-36.900,-19.800,-4.200,-14.800
3.057,-33.100,-16.900,-4.100,-11.700
3.058,-30.500,-14.900,-3.900,-9.400
3.059,-28.800,-13.400,-3.700,-7.600
3.060,-27.800,-12.000,-3.800,-6.300
3.061,-27.100,-10.700,-4.400,-5.500
3.062,-26.400,-9.700,-5.100,-5.200
3.063,-25.800,-9.100,-5.700,-5.400
3.064,-25.000,-8.900,-5.600,-5.700
3.065,-24.200,-8.600,-4.800,-5.800
3.066,-23.100,-7.900,-3.400,-5.200
3.067,-21.700,-6.700,-2.200,-4.000
3.068,-19.900,-5.100,-1.500,-2.300
3.069,-18.000,-3.900,-1.700,-0.700
3.070,-16.500,-3.400,-2.800,0.100
3.071,-15.700,-3.900,-4.500,0.000
3.072,-15.700,-5.100,-6.500,-1.100
3.073,-16.300,-6.300,-8.500,-2.600
3.074,-16.900,-6.900,-10.100,-3.800
3.075,-17.100,-6.400,-11.000,-4.200
3.076,-16.600,-4.900,-10.800,-3.600
3.077,-15.500,-2.600,-9.600,-2.200
3.078,-14.200,-0.400,-8.000,-0.700
3.079,-13.100,1.400,-6.400,0.400
3.080,-12.600,2.200,-5.400,0.700
3.081,-12.400,2.000,-4.900,0.300
3.082,-12.400,1.200,-4.600,-0.600
3.083,-12.100,0.000,-3.800,-1.200
3.084,-11.300,-0.800,-2.400,-1.100
3.085,-9.900,-1.000,-0.900,-0.200
3.086,-8.400,-0.500,-0.100,1.000
3.087,-7.200,0.400,-0.600,2.100
3.088,-6.700,1.200,-2.500,2.500
3.089,-7.400,1.500,-5.000,1.900
3.090,-8.900,0.900,-7.000,0.600
3.091,-10.800,-0.500,-8.000,-0.700
3.092,-12.400,-2.000,-8.000,-1.700
3.093,-13.300,-3.100,-7.800,-2.100
3.094,-13.400,-3.300,-8.100,-1.800
3.095,-12.700,-2.400,-8.900,-1.300
3.096,-11.600,-0.900,-9.700,-0.600
3.097,-10.500,0.700,-9.300,0.100
3.098,-9.600,1.900,-7.500,0.700
3.099,-9.000,2.300,-4.400,1.200
3.100,-8.900,2.100,-1.200,1.400
3.101,-9.000,1.400,1.100,1.300
3.102,-9.300,1.000,1.900,1.100
3.103,-9.400,1.000,1.500,1.000
3.104,-9.100,1.700,0.600,1.200
3.105,-8.300,2.600,0.000,2.000
3.106,-7.300,3.400,-0.500,2.800
3.107,-6.600,3.500,-1.100,3.400
3.108,-6.600,3.000,-2.300,3.300
3.109,-7.200,2.100,-4.000,2.700
3.110,-8.000,1.500,-5.800,2.000
3.111,-8.200,1.700,-7.100,1.500
3.112,-7.600,2.800,-7.600,1.600
3.113,-6.400,4.100,-7.400,2.000
3.114,-5.300,5.100,-6.600,2.300
3.115,-5.000,5.000,-5.600,2.200
3.116,-5.700,4.000,-4.400,1.700
3.117,-7.100,2.600,-2.900,1.200
3.118,-8.300,1.600,-1.100,1.000
3.119,-8.600,1.600,0.800,1.500
3.120,-7.600,2.600,2.500,2.600
3.121,-5.800,3.900,3.600,3.800
3.122,-4.000,4.900,4.000,4.700
3.123,-3.000,5.100,3.800,5.000
3.124,-3.200,4.500,3.100,4.700
3.125,-4.200,3.700,1.900,4.000
3.126,-5.400,3.200,0.300,3.200
3.127,-6.200,3.300,-1.600,2.600
3.128,-6.100,3.900,-3.400,2.400
3.129,-5.300,4.500,-4.700,2.300
3.130,-4.500,4.500,-5.200,2.200
3.131,-4.000,3.600,-4.800,2.100
3.132,-4.200,2.000,-3.700,2.000
3.133,-4.700,0.300,-2.400,2.100
3.134,-5.200,-0.700,-1.400,2.300
3.135,-5.500,-0.900,-0.900,2.800
3.136,-5.600,-0.500,-0.700,3.400
3.137,-5.900,0.000,-0.500,4.100
3.138,-6.700,0.200,0.000,4.700
3.139,-7.800,-0.100,1.000,5.500
3.140,-8.800,-0.300,2.100,6.400
3.141,-9.100,-0.200,3.000,7.300
3.142,-8.500,0.500,3.000,7.900
3.143,-7.500,1.400,2.000,7.500
3.144,-6.900,1.900,0.100,6.000
3.145,-7.300,1.600,-2.500,3.600
3.146,-9.000,0.600,-5.300,0.800
3.147,-11.500,-0.600,-8.100,-1.600
3.148,-14.000,-1.200,-10.700,-3.000
3.149,-16.000,-1.000,-12.500,-3.200
3.150,-16.800,0.300,-13.000,-2.400
3.151,-16.600,2.100,-11.300,-0.900
3.152,-15.300,4.100,-7.300,1.200
3.153,-13.000,6.300,-1.300,3.700
3.154,-9.900,8.600,5.300,6.500
3.155,-6.500,10.900,10.600,9.200
3.156,-3.200,13.000,13.100,11.300
3.157,-1.100,14.300,12.200,12.000
3.158,-0.700,14.000,8.700,11.100
3.159,-2.200,12.100,4.200,8.900
3.160,-5.100,8.900,0.400,6.000
3.161,-8.600,5.200,-1.600,3.300
3.162,-11.400,2.100,-1.600,1.400
3.163,-13.000,0.000,-0.200,0.400
3.164,-13.000,-0.800,1.400,0.300
3.165,-11.800,-0.600,2.600,0.600
3.166,-10.100,0.000,2.800,0.900
3.167,-8.800,0.600,1.900,0.900
3.168,-8.300,1.000,0.200,0.700
3.169,-8.700,1.100,-2.100,0.600
3.170,-9.700,1.300,-4.500,0.500
3.171,-10.900,1.500,-6.600,0.600
3.172,-11.700,1.800,-8.100,0.700
3.173,-11.900,2.100,-8.900,0.700
3.174,-12.000,2.300,-8.900,0.500
3.175,-12.100,2.100,-8.300,-0.100
3.176,-12.800,1.500,-7.500,-0.800
3.177,-14.000,0.700,-6.700,-1.300
3.178,-15.400,-0.200,-5.900,-1.400
3.179,-16.500,-0.900,-5.300,-1.000
3.180,-17.000,-1.400,-4.800,-0.400
3.181,-16.800,-1.700,-4.400,0.100
3.182,-16.200,-2.000,-3.900,0.200
3.183,-15.800,-2.400,-3.200,-0.200
3.184,-15.700,-2.900,-2.200,-0.700
3.185,-15.600,-3.100,-0.700,-0.700
3.186,-15.200,-2.500,1.100,0.000
3.187,-14.100,-1.100,3.100,1.500
3.188,-12.100,1.100,4.900,3.600
3.189,-9.600,3.400,6.300,5.500
3.190,-7.300,5.000,7.100,6.800
3.191,-6.100,5.500,6.900,7.100
3.192,-6.100,4.700,5.700,6.600
3.193,-7.400,3.200,3.400,5.600
3.194,-9.500,1.600,0.300,4.400
3.195,-11.600,0.400,-2.800,3.100
3.196,-13.300,0.000,-5.200,2.000
3.197,-14.300,0.300,-6.200,1.200
3.198,-14.800,0.800,-5.400,0.900
3.199,-14.900,1.300,-3.200,1.000
3.200,-14.800,1.400,-0.700,1.500
3.201,-14.600,1.000,1.100,1.800
3.202,-14.600,0.200,1.500,1.600
3.203,-14.800,-0.800,0.400,0.700
3.204,-15.300,-1.800,-1.800,-0.500
3.205,-16.200,-2.700,-4.100,-1.700
3.206,-17.300,-3.500,-5.800,-2.200
3.207,-18.200,-4.100,-6.400,-1.700
3.208,-18.500,-4.300,-6.100,-0.200
3.209,-17.600,-4.000,-5.000,2.000
3.210,-15.400,-2.800,-3.600,4.400
3.211,-12.000,-0.700,-2.400,6.800
3.212,-8.100,2.100,-1.600,8.600
3.213,-4.500,4.800,-1.500,9.800
3.214,-2.000,6.700,-1.700,10.500
3.215,-0.600,7.700,-1.800,11.100
3.216,0.400,8.700,-0.600,12.400
3.217,2.200,10.700,2.500,15.100
3.218,6.200,14.800,7.800,19.700
3.219,12.700,21.100,14.300,25.600
3.220,21.000,28.500,20.400,31.600
3.221,29.000,34.800,24.500,35.900
3.222,34.600,38.200,25.400,37.300
3.223,36.400,37.600,23.400,35.600
3.224,34.300,33.600,19.600,31.700
3.225,29.600,27.700,15.700,27.100
3.226,24.200,22.100,12.800,23.300
3.227,20.000,18.300,11.500,21.300
3.228,17.900,17.200,11.300,21.100
3.229,17.900,18.500,11.300,21.900
3.230,19.100,21.200,10.500,22.800
3.231,20.100,23.800,8.500,22.900
3.232,19.500,24.400,5.400,21.600
3.233,16.100,21.800,2.000,18.600
3.234,9.500,15.400,-1.100,13.900
3.235,-0.200,6.000,-3.200,7.900
3.236,-11.500,-4.700,-3.800,1.400
3.237,-22.700,-14.200,-2.900,-4.400
3.238,-32.000,-20.800,-0.900,-8.500
3.239,-38.100,-23.900,1.700,-10.300
3.240,-40.900,-24.000,4.000,-9.800
3.241,-41.200,-22.500,5.700,-8.000
3.242,-40.100,-20.600,6.500,-5.600
3.243,-38.500,-19.200,6.200,-3.600
3.244,-36.600,-18.000,5.000,-2.200
3.245,-34.400,-16.500,3.100,-1.300
3.246,-31.500,-14.300,0.800,-0.400
3.247,-27.900,-11.400,-1.600,0.700
3.248,-24.300,-8.600,-3.800,2.300
3.249,-21.300,-6.300,-5.400,3.900
3.250,-19.300,-5.200,-6.200,5.300
3.251,-18.500,-5.100,-6.300,6.400
3.252,-18.500,-5.600,-5.900,7.100
3.253,-18.500,-6.100,-5.200,7.500
3.254,-18.200,-6.200,-4.400,7.900
3.255,-17.400,-5.700,-3.500,8.100
3.256,-16.500,-4.700,-2.400,8.200
3.257,-15.800,-3.400,-1.100,8.100
3.258,-15.500,-2.200,0.200,8.100
3.259,-15.600,-1.300,1.400,8.100
3.260,-15.800,-0.700,2.300,8.200
3.261,-15.700,-0.400,2.800,8.500
3.262,-15.200,-0.500,2.600,8.600
3.263,-14.500,-0.800,1.800,8.400
3.264,-14.000,-1.300,0.300,7.700
3.265,-13.900,-2.100,-1.700,6.700
3.266,-14.500,-3.200,-3.800,5.700
3.267,-15.400,-4.200,-5.600,5.100
3.268,-16.300,-4.900,-6.700,5.100
3.269,-16.800,-5.000,-6.800,5.700
3.270,-16.700,-4.300,-6.000,6.600
3.271,-16.100,-3.100,-4.500,7.600
3.272,-15.200,-1.600,-2.600,8.300
3.273,-14.100,-0.500,-0.600,8.700
3.274,-13.000,0.200,1.400,8.900
3.275,-12.000,0.400,3.300,9.000
3.276,-11.100,0.400,5.000,9.100
3.277,-10.400,0.500,6.300,9.200
3.278,-9.900,1.000,7.200,9.200
3.279,-9.600,1.400,7.400,9.100
3.280,-9.700,1.600,7.000,8.700
3.281,-10.000,1.000,6.000,7.900
3.282,-10.500,-0.100,4.700,6.900
3.283,-11.100,-1.600,3.300,5.600
3.284,-11.500,-2.800,2.100,4.500
3.285,-11.500,-3.500,0.900,3.600
3.286,-11.000,-3.800,-0.200,3.100
3.287,-10.400,-3.900,-1.400,2.900
3.288,-9.700,-4.300,-2.700,3.000
3.289,-9.400,-5.200,-3.900,3.100
3.290,-9.400,-6.400,-5.000,3.000
3.291,-9.600,-7.400,-5.900,2.500
3.292,-9.800,-8.000,-6.400,1.800
3.293,-9.800,-8.000,-6.500,0.900
3.294,-9.600,-7.600,-6.100,0.000
3.295,-9.100,-6.800,-4.800,-0.800
3.296,-8.400,-5.900,-2.500,-1.200
3.297,-7.400,-4.900,0.200,-1.200
3.298,-6.200,-3.800,2.800,-1.000
3.299,-4.900,-2.700,4.300,-0.500
3.300,-3.800,-1.700,4.300,-0.100
3.301,-3.100,-0.900,2.900,0.100
3.302,-2.800,-0.200,1.000,0.100
3.303,-2.800,0.500,-0.100,0.100
3.304,-2.600,1.400,0.100,0.300
3.305,-2.200,2.500,1.200,0.600
3.306,-1.300,3.600,2.400,1.200
3.307,-0.200,4.300,2.300,1.700
3.308,0.800,4.500,0.600,1.900
3.309,1.500,4.200,-2.200,1.700
3.310,2.000,3.700,-5.000,1.200
3.311,2.300,3.300,-6.600,0.600
3.312,2.600,3.300,-6.400,0.200
3.313,2.900,3.500,-4.800,0.100
3.314,3.200,3.800,-2.600,0.300
3.315,3.400,3.900,-0.800,0.500
3.316,3.500,3.800,0.400,0.500
3.317,3.500,3.600,0.900,0.100
3.318,3.400,3.400,1.100,-0.800
3.319,3.300,3.000,1.100,-2.100
3.320,3.300,2.600,0.900,-3.600
3.321,3.300,1.800,0.400,-5.100
3.322,3.200,0.900,-0.700,-6.300
3.323,2.900,-0.300,-2.100,-7.000
3.324,2.400,-1.400,-3.500,-7.200
3.325,1.600,-2.100,-4.600,-6.800
3.326,1.100,-2.200,-5.000,-5.900
3.327,1.000,-1.400,-5.000,-4.700
3.328,1.500,0.200,-4.600,-3.400
3.329,2.700,2.300,-4.500,-2.500
3.330,4.100,4.300,-4.700,-2.200
3.331,5.100,5.300,-5.200,-3.000
3.332,5.200,5.200,-5.800,-4.600
3.333,4.400,3.900,-6.200,-6.700
3.334,3.200,2.100,-6.000,-8.800
3.335,2.000,0.600,-5.200,-10.300
3.336,1.600,0.100,-4.000,-10.800
3.337,2.200,0.600,-2.400,-10.500
3.338,3.600,1.700,-0.900,-9.600
3.339,5.200,2.900,0.500,-8.600
3.340,6.700,3.600,1.400,-7.800
3.341,7.600,3.900,2.000,-7.400
3.342,8.000,4.100,2.300,-7.100
3.343,8.100,4.700,2.500,-6.700
3.344,8.400,5.800,2.600,-6.000
3.345,8.900,7.200,2.400,-5.000
3.346,9.700,8.300,1.700,-3.900
3.347,10.500,8.700,0.200,-2.900
3.348,11.000,8.300,-2.100,-2.300
3.349,10.900,7.500,-4.800,-2.100
3.350,10.300,6.900,-7.500,-2.300
3.351,9.200,6.900,-9.400,-2.700
3.352,8.000,7.600,-10.300,-3.200
3.353,7.000,8.300,-10.200,-3.800
3.354,6.200,8.300,-9.400,-4.500
3.355,5.800,7.400,-8.300,-5.400
3.356,5.600,5.800,-7.300,-6.700
3.357,5.600,4.100,-6.400,-8.000
3.358,5.900,3.000,-5.600,-9.100
3.359,6.500,2.800,-4.700,-9.800
3.360,7.200,3.400,-3.900,-9.800
3.361,8.100,4.200,-3.100,-9.100
3.362,8.900,4.800,-2.400,-8.000
3.363,9.700,5.100,-1.900,-6.800
3.364,10.500,5.000,-1.600,-5.900
3.365,11.300,5.000,-1.600,-5.400
3.366,12.100,5.000,-1.600,-5.200
3.367,13.000,5.100,-1.700,-4.800
3.368,13.700,5.300,-1.900,-4.100
3.369,14.300,5.500,-2.200,-3.000
3.370,14.600,5.500,-2.900,-2.100
3.371,14.500,5.500,-4.300,-1.800
3.372,13.900,5.200,-6.200,-2.400
3.373,12.900,4.800,-8.200,-3.700
3.374,11.900,4.500,-9.400,-4.700
3.375,11.700,4.700,-8.900,-4.700
3.376,12.700,6.000,-6.500,-2.800
3.377,15.100,8.400,-2.600,0.300
3.378,18.400,11.500,1.300,3.700
3.379,21.200,14.300,3.700,5.600
3.380,22.400,15.400,3.400,5.100
3.381,21.000,14.400,0.600,2.300
3.382,17.600,11.600,-3.400,-1.900
3.383,13.400,8.100,-6.700,-5.800
3.384,10.000,5.500,-7.800,-8.100
3.385,8.800,4.600,-6.300,-8.400
3.386,10.100,5.700,-3.300,-7.100
3.387,13.000,7.800,-0.300,-5.400
3.388,16.200,9.900,1.200,-4.300
3.389,18.600,11.100,0.700,-4.200
3.390,19.600,11.400,-1.500,-4.900
3.391,19.700,11.100,-4.200,-5.900
3.392,19.400,11.000,-6.300,-6.600
3.393,19.400,11.400,-7.000,-6.600
3.394,19.800,12.200,-6.200,-5.900
3.395,20.300,12.900,-4.500,-4.900
3.396,20.500,13.100,-2.600,-3.900
3.397,20.200,12.700,-1.100,-3.200
3.398,19.600,11.800,-0.200,-3.000
3.399,19.100,11.000,0.200,-3.100
3.400,19.200,10.500,0.300,-3.400
3.401,20.000,10.500,0.400,-3.800
3.402,21.300,10.600,0.300,-4.100
3.403,22.500,10.500,-0.100,-4.300
3.404,23.300,9.900,-1.200,-4.300
3.405,23.500,8.600,-2.700,-4.300
3.406,23.000,7.000,-4.200,-4.200
3.407,22.000,5.400,-5.200,-4.300
3.408,20.500,4.200,-5.400,-4.800
3.409,18.800,3.400,-4.900,-5.700
3.410,16.800,2.900,-4.300,-6.900
3.411,15.100,2.600,-4.000,-8.100
3.412,14.000,2.200,-4.100,-9.000
3.413,14.000,2.100,-4.300,-9.100
3.414,15.100,2.400,-3.700,-8.500
3.415,16.800,3.300,-2.100,-7.400
3.416,18.500,4.900,0.400,-6.100
3.417,19.700,6.800,3.000,-5.100
3.418,20.200,8.700,4.700,-4.300
3.419,20.300,10.500,5.100,-3.700
3.420,20.400,12.100,4.400,-3.100
3.421,21.000,13.500,3.400,-2.400
3.422,21.900,14.600,2.800,-1.700
3.423,22.800,15.300,2.900,-1.300
3.424,23.200,15.300,3.200,-1.400
3.425,22.900,14.700,2.900,-2.100
3.426,22.100,13.600,1.500,-3.300
3.427,21.000,12.500,-1.200,-4.600
3.428,20.000,11.700,-4.400,-5.600
3.429,19.200,11.400,-7.000,-6.100
3.430,18.700,11.700,-8.100,-5.900
3.431,18.700,12.300,-7.300,-5.000
3.432,19.300,13.300,-5.100,-3.700
3.433,20.300,14.600,-2.400,-2.200
3.434,21.700,15.900,-0.200,-1.000
3.435,22.900,16.900,0.900,-0.500
3.436,23.500,17.300,0.800,-0.700
3.437,23.300,17.000,0.100,-1.500
3.438,22.500,16.000,-0.600,-2.200
3.439,21.500,14.800,-0.900,-2.600
3.440,21.000,13.800,-0.900,-2.500
3.441,21.000,13.200,-1.000,-2.000
3.442,21.400,13.000,-1.500,-1.600
3.443,21.700,13.100,-2.500,-1.300
3.444,21.700,13.200,-3.500,-1.100
3.445,21.400,13.400,-4.100,-0.900
3.446,20.900,13.800,-4.200,-0.500
3.447,20.600,14.300,-4.000,0.100
3.448,20.400,14.700,-3.900,0.500
3.449,20.200,14.600,-4.200,0.400
3.450,19.800,14.000,-4.600,-0.100
3.451,19.300,13.000,-4.700,-0.600
3.452,19.100,12.300,-4.000,-0.800
3.453,19.600,12.400,-2.500,-0.300
3.454,21.000,13.500,-0.400,1.000
3.455,22.800,15.300,1.500,2.400
3.456,24.500,17.100,2.600,3.500
3.457,25.300,18.200,2.700,3.900
3.458,24.800,18.400,1.900,3.500
3.459,23.200,17.700,0.800,2.600
3.460,21.200,16.700,-0.200,1.800
3.461,19.600,15.900,-0.400,1.300
3.462,18.900,15.400,0.200,1.400
3.463,19.300,15.200,1.700,2.000
3.464,20.400,14.900,3.600,2.700
3.465,21.500,14.500,5.500,3.200
3.466,22.000,13.900,6.700,3.300
3.467,21.700,13.300,7.100,3.000
3.468,20.700,12.700,6.700,2.400
3.469,19.600,12.200,5.800,1.800
3.470,18.600,11.800,4.700,1.600
3.471,18.000,11.600,3.700,1.800
3.472,17.700,11.700,2.900,2.400
3.473,17.400,12.000,2.300,3.100
3.474,17.100,12.700,2.000,3.700
3.475,16.600,13.500,1.900,4.100
3.476,16.200,14.100,2.200,4.200
3.477,15.800,14.300,2.800,4.000
3.478,15.600,14.000,3.500,3.600
3.479,15.500,13.400,4.100,3.000
3.480,15.400,12.800,4.500,2.200
3.481,15.300,12.600,4.600,1.400
3.482,15.100,12.800,4.600,0.900
3.483,14.900,13.200,4.500,0.700
3.484,14.800,13.700,4.300,0.800
3.485,14.900,13.800,3.800,1.000
3.486,14.900,13.400,3.100,1.000
3.487,14.800,12.600,2.000,0.500
3.488,14.500,11.600,0.700,-0.700
3.489,13.900,10.600,-0.700,-2.200
3.490,13.200,9.800,-2.100,-3.900
3.491,12.500,9.400,-3.500,-5.300
3.492,11.900,9.400,-4.800,-6.200
3.493,11.800,9.600,-5.600,-6.700
3.494,11.900,10.000,-5.700,-6.500
3.495,12.400,10.400,-4.900,-6.100
3.496,12.900,10.700,-3.500,-5.300
3.497,13.400,10.900,-1.700,-4.600
3.498,13.500,10.800,0.100,-3.900
3.499,13.400,10.700,1.600,-3.500
3.500,13.100,10.600,2.700,-3.200
3.501,12.800,10.600,3.400,-2.900
3.502,12.700,10.700,3.600,-2.500
3.503,13.000,11.000,3.500,-1.900
3.504,13.600,11.400,2.800,-1.300
3.505,14.300,11.700,1.600,-0.700
3.506,14.700,12.000,0.000,-0.600
3.507,14.800,11.900,-1.900,-0.800
3.508,14.400,11.600,-3.900,-1.400
3.509,13.600,10.900,-5.700,-2.000
3.510,12.900,10.100,-7.000,-2.500
3.511,12.400,9.400,-7.500,-2.800
3.512,12.600,9.100,-7.100,-3.000
3.513,13.300,9.300,-5.800,-3.000
3.514,14.600,9.900,-3.700,-3.000
3.515,16.000,10.600,-1.100,-2.900
3.516,17.400,10.900,1.500,-2.800
3.517,18.300,10.600,3.800,-2.500
3.518,18.600,9.800,5.400,-1.900
3.519,18.300,8.800,5.900,-1.300
3.520,17.600,8.200,5.500,-0.900
3.521,16.900,8.300,4.400,-0.700
3.522,16.400,9.000,3.100,-0.800
3.523,16.500,9.800,2.100,-1.200
3.524,17.200,10.500,1.600,-1.500
3.525,18.100,11.100,1.600,-1.500
3.526,18.800,11.800,1.600,-1.200
3.527,19.200,12.800,1.000,-0.600
3.528,19.200,14.200,-0.400,-0.100
3.529,19.100,15.600,-2.300,0.200
3.530,19.100,16.600,-4.100,0.100
3.531,19.400,16.800,-5.100,-0.300
3.532,19.600,16.100,-5.300,-0.800
3.533,19.600,14.900,-4.800,-1.100
3.534,19.100,13.800,-4.200,-1.100
3.535,18.300,13.100,-4.000,-0.900
3.536,17.200,12.900,-4.100,-0.800
3.537,16.200,13.000,-4.300,-1.100
3.538,15.300,12.900,-4.100,-1.600
3.539,14.500,12.600,-3.400,-2.300
3.540,13.700,12.100,-2.300,-2.900
3.541,13.100,11.700,-1.100,-3.100
3.542,12.900,11.600,-0.300,-2.900
3.543,13.400,11.700,-0.300,-2.400
3.544,14.400,11.800,-1.100,-2.000
3.545,15.500,11.600,-2.500,-1.800
3.546,16.500,11.300,-3.900,-1.600
3.547,17.100,11.100,-4.800,-1.200
3.548,17.900,11.700,-4.600,-0.400
3.549,19.400,13.800,-2.900,1.300
3.550,22.500,17.500,0.200,3.600
3.551,27.100,22.400,4.000,6.300
3.552,32.600,27.700,7.900,9.300
3.553,38.100,32.600,11.000,12.200
3.554,42.800,36.600,12.900,15.200
3.555,46.300,39.700,13.800,18.300
3.556,48.800,42.200,13.800,21.600
3.557,50.600,44.500,13.300,24.900
3.558,51.700,46.500,12.500,27.900
3.559,51.900,47.800,11.400,30.600
3.560,50.900,48.000,10.300,33.000
3.561,48.300,47.000,9.200,35.500
3.562,44.500,45.000,8.400,38.500
3.563,40.000,42.500,8.100,42.100
3.564,35.100,40.000,7.900,46.000
3.565,30.100,37.600,7.300,49.600
3.566,24.700,34.800,5.700,52.400
3.567,18.400,31.300,2.800,54.100
3.568,11.000,26.800,-1.300,54.800
3.569,2.700,21.600,-5.900,54.700
3.570,-5.900,15.700,-10.100,53.900
3.571,-14.500,9.500,-13.600,52.300
3.572,-22.900,2.600,-16.100,49.800
3.573,-31.300,-5.000,-17.900,46.400
3.574,-40.100,-13.700,-19.000,42.400
3.575,-49.500,-23.000,-19.600,38.300
3.576,-59.300,-32.300,-19.500,34.700
3.577,-69.100,-40.600,-18.400,31.900
3.578,-78.100,-47.400,-16.200,29.800
3.579,-85.600,-52.300,-13.200,27.800
3.580,-91.500,-55.900,-10.000,25.200
3.581,-95.800,-59.000,-7.300,21.300
3.582,-98.900,-62.200,-5.700,15.700
