'Elapsed time','AECG1','AECG2','AECG3','AECG4'
'seconds','uV','uV','uV','uV'
0.000,-8.900,13.300,22.000,32.500
0.001,-14.000,12.600,21.700,35.300
0.002,-18.800,12.000,21.200,37.500
0.003,-23.500,11.400,20.200,38.900
0.004,-28.000,10.400,18.500,39.400
0.005,-32.900,8.600,15.900,39.200
0.006,-38.200,6.000,12.600,38.700
0.007,-43.900,2.800,8.900,38.100
0.008,-49.400,-0.400,5.300,37.400
0.009,-54.100,-3.300,2.200,36.500
0.010,-57.600,-5.400,-0.100,35.200
0.011,-59.600,-6.500,-1.700,33.400
0.012,-60.500,-6.800,-2.600,31.500
0.013,-60.600,-6.300,-3.000,29.900
0.014,-60.400,-5.600,-2.800,29.000
0.015,-59.800,-4.800,-2.000,29.000
0.016,-59.000,-4.300,-0.800,29.500
0.017,-57.700,-4.100,0.600,30.000
0.018,-55.800,-3.900,1.500,29.600
0.019,-53.100,-3.700,1.400,27.700
0.020,-49.500,-3.400,0.100,24.000
0.021,-45.000,-3.100,-2.200,18.700
0.022,-39.700,-3.200,-4.800,12.500
0.023,-33.800,-3.900,-7.000,6.100
0.024,-27.900,-5.100,-8.500,0.000
0.025,-22.300,-6.500,-9.400,-5.000
0.026,-17.300,-7.800,-10.000,-8.800
0.027,-13.000,-8.500,-10.700,-11.300
0.028,-9.500,-8.900,-11.400,-12.800
0.029,-6.700,-8.900,-12.000,-13.500
0.030,-4.600,-8.700,-12.300,-13.700
0.031,-2.800,-8.600,-12.000,-13.600
0.032,-1.200,-8.500,-11.400,-13.600
0.033,0.600,-8.400,-10.700,-14.000
0.034,2.600,-8.400,-10.400,-14.900
0.035,4.500,-8.700,-10.600,-16.400
0.036,5.900,-9.700,-11.500,-18.600
0.037,6.300,-11.500,-12.900,-21.000
0.038,5.600,-13.700,-14.400,-23.400
0.039,4.200,-15.900,-15.600,-25.100
0.040,2.600,-17.500,-16.100,-26.000
0.041,1.700,-18.100,-15.600,-25.900
0.042,1.900,-17.900,-14.200,-25.100
0.043,2.800,-17.100,-12.300,-24.300
0.044,4.000,-16.300,-10.400,-23.700
0.045,4.600,-15.900,-9.000,-23.400
0.046,4.400,-15.800,-8.400,-23.300
0.047,3.400,-15.800,-8.400,-22.900
0.048,2.200,-15.800,-8.700,-22.000
0.049,1.300,-15.600,-8.900,-20.700
0.050,0.900,-15.200,-8.700,-19.100
0.051,1.000,-14.700,-8.100,-17.400
0.052,1.200,-14.300,-7.200,-15.900
0.053,1.200,-13.800,-6.000,-14.400
0.054,0.900,-13.000,-4.800,-12.800
0.055,0.600,-11.900,-3.400,-11.100
0.056,0.400,-10.500,-2.200,-9.600
0.057,0.500,-9.200,-1.100,-8.600
0.058,0.600,-8.400,-0.300,-8.300
0.059,0.600,-8.300,0.200,-8.300
0.060,0.300,-8.800,0.400,-8.400
0.061,-0.200,-9.500,0.500,-7.900
0.062,-0.800,-9.900,0.600,-7.000
0.063,-1.000,-9.700,0.900,-6.000
0.064,-0.600,-8.900,1.300,-5.400
0.065,0.000,-8.100,1.900,-5.600
0.066,0.700,-7.600,2.600,-6.600
0.067,1.000,-7.700,3.100,-7.700
0.068,0.900,-8.300,3.400,-8.400
0.069,0.500,-8.800,3.300,-8.200
0.070,0.300,-8.800,2.900,-7.400
0.071,0.700,-8.100,2.100,-6.400
0.072,1.700,-6.900,1.300,-5.900
0.073,2.900,-5.600,0.500,-6.200
0.074,3.800,-4.500,0.000,-7.100
0.075,4.100,-3.900,-0.400,-8.000
0.076,3.500,-3.500,-0.600,-8.500
0.077,2.500,-3.300,-0.600,-8.400
0.078,1.400,-3.000,-0.500,-8.000
0.079,0.600,-2.900,-0.200,-7.500
0.080,0.200,-3.100,0.200,-7.100
0.081,0.100,-3.800,0.800,-6.900
0.082,0.200,-4.700,1.300,-6.700
0.083,0.300,-5.600,1.500,-6.400
0.084,0.300,-5.900,1.300,-6.200
0.085,0.200,-5.700,0.900,-6.200
0.086,-0.200,-5.000,0.400,-6.500
0.087,-1.000,-4.300,0.100,-7.000
0.088,-1.900,-3.800,0.200,-7.200
0.089,-2.600,-3.600,0.600,-6.900
0.090,-2.600,-3.600,1.200,-6.300
0.091,-1.700,-3.700,1.600,-5.600
0.092,-0.100,-3.900,1.700,-5.300
0.093,1.400,-4.200,1.300,-5.400
0.094,2.200,-4.600,0.700,-5.900
0.095,2.200,-5.100,0.200,-6.300
0.096,1.300,-5.300,-0.200,-6.300
0.097,0.200,-4.900,-0.300,-6.000
0.098,-0.500,-4.000,-0.100,-5.500
0.099,-0.800,-2.900,0.100,-5.200
0.100,-0.700,-2.200,0.400,-5.200
0.101,-0.500,-2.200,0.800,-5.400
0.102,-0.400,-3.000,1.300,-5.400
0.103,-0.600,-4.100,1.900,-5.100
0.104,-0.800,-5.100,2.600,-4.400
0.105,-0.900,-5.500,3.100,-3.800
0.106,-0.900,-5.500,3.400,-3.600
0.107,-0.700,-5.300,3.200,-3.900
0.108,-0.400,-5.500,2.700,-4.700
0.109,-0.300,-6.200,2.100,-5.700
0.110,-0.200,-7.100,1.400,-6.300
0.111,-0.200,-8.000,1.000,-6.400
0.112,-0.100,-8.500,0.700,-5.900
0.113,0.000,-8.400,0.700,-4.900
0.114,0.200,-7.800,0.700,-3.800
0.115,0.400,-7.000,0.700,-3.000
0.116,0.700,-6.100,0.700,-2.500
0.117,1.200,-5.400,0.700,-2.400
0.118,1.600,-4.800,0.900,-2.500
0.119,1.900,-4.300,1.100,-2.400
0.120,2.100,-3.800,1.500,-1.900
0.121,2.100,-3.200,2.000,-0.900
0.122,2.100,-2.500,2.500,0.200
0.123,2.300,-1.700,2.900,1.200
0.124,2.700,-0.800,3.100,1.500
0.125,3.400,0.000,3.100,1.200
0.126,4.100,0.500,2.900,0.400
0.127,4.400,0.300,2.600,-0.300
0.128,4.400,-0.400,2.300,-0.700
0.129,4.200,-1.300,2.400,-0.400
0.130,4.100,-2.100,2.700,0.200
0.131,4.500,-2.400,3.300,0.900
0.132,5.300,-2.200,3.900,1.400
0.133,6.200,-1.800,4.100,1.500
0.134,6.500,-1.600,3.800,1.200
0.135,5.800,-1.900,3.300,0.700
0.136,4.100,-2.800,2.800,0.100
0.137,2.200,-4.100,2.700,-0.200
0.138,0.600,-5.300,3.100,-0.400
0.139,-0.100,-6.300,3.900,-0.200
0.140,0.100,-7.000,4.800,0.000
0.141,0.600,-7.400,5.200,0.300
0.142,0.500,-7.700,4.900,0.500
0.143,-0.300,-8.000,3.900,0.600
0.144,-1.800,-8.200,2.800,0.600
0.145,-3.200,-8.400,1.700,0.400
0.146,-4.100,-8.500,1.200,0.300
0.147,-4.100,-8.500,1.000,0.200
0.148,-3.700,-8.500,1.100,0.200
0.149,-3.300,-8.400,1.200,0.300
0.150,-3.400,-8.300,1.200,0.700
0.151,-4.000,-8.000,1.100,1.000
0.152,-4.700,-7.600,1.200,1.100
0.153,-5.200,-7.400,1.300,1.000
0.154,-5.500,-7.300,1.500,0.400
0.155,-5.700,-7.400,1.400,-0.400
0.156,-6.000,-7.700,1.000,-1.100
0.157,-6.500,-7.900,0.400,-1.500
0.158,-7.200,-8.000,-0.100,-1.400
0.159,-7.700,-8.100,-0.300,-1.200
0.160,-8.000,-8.400,-0.200,-1.100
0.161,-8.200,-9.200,0.000,-1.400
0.162,-8.700,-10.500,0.100,-2.000
0.163,-9.400,-12.100,0.200,-2.600
0.164,-10.200,-13.400,0.400,-2.400
0.165,-10.700,-14.000,1.000,-1.300
0.166,-10.600,-13.500,2.300,0.700
0.167,-9.700,-12.300,3.900,2.900
0.168,-8.600,-10.700,5.500,4.800
0.169,-7.500,-9.100,6.700,6.100
0.170,-6.800,-7.800,7.400,7.100
0.171,-6.400,-6.600,7.800,8.100
0.172,-6.000,-5.100,8.200,9.800
0.173,-5.100,-3.100,9.000,12.400
0.174,-3.600,-0.300,10.400,16.200
0.175,-1.500,3.100,12.500,21.000
0.176,1.100,6.800,15.100,26.500
0.177,3.900,10.500,18.100,32.200
0.178,6.800,13.700,21.100,37.500
0.179,9.500,16.000,23.600,41.200
0.180,11.700,17.100,24.900,42.800
0.181,12.800,16.600,24.700,41.700
0.182,12.500,14.900,22.900,38.300
0.183,10.700,12.200,19.900,33.600
0.184,8.000,9.400,16.500,28.500
0.185,5.000,6.700,13.300,23.700
0.186,2.000,4.400,10.600,19.200
0.187,-0.600,1.900,8.200,14.800
0.188,-3.200,-1.300,5.700,10.000
0.189,-6.000,-5.500,2.900,4.600
0.190,-9.200,-10.600,-0.200,-0.800
0.191,-12.400,-15.500,-3.100,-5.600
0.192,-15.200,-19.300,-5.200,-8.800
0.193,-17.100,-21.200,-6.100,-10.200
0.194,-17.800,-21.100,-5.900,-9.900
0.195,-17.500,-19.400,-4.900,-8.500
0.196,-16.600,-17.100,-3.700,-6.700
0.197,-15.700,-15.000,-2.700,-5.200
0.198,-15.000,-13.600,-2.100,-4.000
0.199,-14.900,-12.700,-1.700,-2.900
0.200,-14.900,-12.100,-1.300,-1.500
0.201,-14.800,-11.200,-0.400,0.400
0.202,-14.200,-10.100,1.100,2.600
0.203,-13.000,-8.700,3.100,4.600
0.204,-11.400,-7.400,5.100,6.200
0.205,-10.000,-6.500,6.700,7.100
0.206,-9.200,-6.000,7.400,7.500
0.207,-9.300,-5.800,7.300,7.600
0.208,-10.100,-5.500,6.400,7.900
0.209,-11.200,-4.900,5.200,8.100
0.210,-12.100,-3.900,3.900,8.200
0.211,-12.800,-2.700,3.000,7.900
0.212,-13.400,-2.000,2.700,7.200
0.213,-14.100,-1.900,2.800,6.600
0.214,-15.100,-2.600,3.400,6.400
0.215,-16.300,-3.800,4.100,6.900
0.216,-17.300,-4.900,4.700,8.000
0.217,-17.900,-5.500,5.000,9.200
0.218,-18.000,-5.500,5.000,10.100
0.219,-17.800,-5.000,4.700,10.500
0.220,-17.600,-4.400,4.500,10.500
0.221,-17.500,-4.300,4.600,10.700
0.222,-17.500,-4.500,5.200,11.400
0.223,-17.400,-4.800,6.200,12.400
0.224,-16.900,-4.800,7.100,13.500
0.225,-16.100,-4.300,7.800,14.400
0.226,-15.200,-3.200,8.000,14.800
0.227,-14.400,-1.900,8.000,14.800
0.228,-13.800,-0.700,7.900,14.700
0.229,-13.200,0.200,7.900,14.800
0.230,-12.500,0.700,7.800,15.200
0.231,-11.600,0.800,7.800,15.500
0.232,-10.600,0.600,7.600,15.500
0.233,-9.900,0.300,7.300,15.300
0.234,-10.000,-0.100,6.800,14.800
0.235,-11.000,-0.700,6.300,14.400
0.236,-12.600,-1.300,5.900,14.300
0.237,-14.300,-1.900,5.800,14.400
0.238,-15.700,-2.700,6.000,14.600
0.239,-16.400,-3.500,6.300,14.700
0.240,-16.800,-4.200,6.500,14.500
0.241,-17.100,-4.800,6.500,13.900
0.242,-17.700,-5.100,6.200,13.000
0.243,-18.700,-5.200,5.400,12.000
0.244,-19.900,-5.100,4.500,11.100
0.245,-20.700,-4.900,3.700,10.600
0.246,-21.100,-4.600,3.200,10.400
0.247,-20.900,-4.300,3.200,10.600
0.248,-20.300,-3.900,3.600,10.900
0.249,-19.600,-3.600,4.200,11.100
0.250,-19.200,-3.200,4.800,11.100
0.251,-19.100,-3.100,5.200,10.900
0.252,-19.200,-3.100,5.300,10.500
0.253,-19.400,-3.000,5.200,10.200
0.254,-19.700,-2.800,5.000,10.100
0.255,-19.900,-2.400,4.700,10.200
0.256,-20.000,-1.800,4.300,10.400
0.257,-20.000,-1.300,3.900,10.700
0.258,-19.900,-1.200,3.800,11.000
0.259,-19.600,-1.500,4.200,11.300
0.260,-19.000,-2.100,5.000,11.700
0.261,-18.000,-2.400,6.300,12.100
0.262,-16.900,-2.200,7.600,12.600
0.263,-15.700,-1.400,8.600,13.100
0.264,-14.700,-0.300,9.000,13.300
0.265,-13.900,0.900,8.900,13.200
0.266,-13.400,1.600,8.400,12.700
0.267,-13.000,1.800,8.100,12.000
0.268,-12.300,1.500,8.200,11.400
0.269,-11.400,1.100,8.700,11.200
0.270,-10.200,0.700,9.300,11.300
0.271,-9.000,0.500,9.700,11.700
0.272,-8.300,0.300,9.800,11.800
0.273,-8.100,0.100,9.400,11.500
0.274,-8.300,-0.300,9.000,10.800
0.275,-8.400,-0.800,8.700,10.000
0.276,-7.900,-1.100,8.900,9.300
0.277,-6.600,-1.000,9.500,9.100
0.278,-4.600,-0.500,10.300,9.400
0.279,-2.400,0.300,11.300,9.800
0.280,-0.600,0.900,12.100,10.100
0.281,0.400,1.000,12.700,10.100
0.282,0.700,0.500,12.900,9.800
0.283,0.800,-0.400,12.700,9.400
0.284,0.900,-1.300,12.200,9.000
0.285,1.400,-1.900,11.400,8.700
0.286,2.100,-2.000,10.600,8.400
0.287,2.600,-1.800,9.700,8.100
0.288,2.700,-1.500,8.900,7.800
0.289,2.300,-1.600,8.100,7.500
0.290,1.800,-2.000,7.400,7.200
0.291,1.400,-2.400,6.900,7.000
0.292,1.400,-2.600,6.800,6.600
0.293,2.000,-2.700,7.200,6.100
0.294,3.000,-2.600,8.000,5.300
0.295,4.200,-2.800,9.000,4.500
0.296,5.400,-3.200,10.000,3.700
0.297,6.500,-3.800,10.700,3.200
0.298,7.300,-4.300,10.900,2.900
0.299,7.700,-4.500,10.700,3.000
0.300,7.800,-4.400,10.200,3.300
0.301,7.700,-4.000,9.500,3.400
0.302,7.400,-3.700,8.700,3.100
0.303,7.000,-3.600,7.800,2.400
0.304,6.500,-3.500,7.100,1.300
0.305,5.900,-3.400,6.600,0.300
0.306,5.200,-3.100,6.400,-0.300
0.307,4.600,-2.600,6.500,-0.500
0.308,4.000,-2.200,6.700,-0.500
0.309,3.800,-2.200,7.000,-0.700
0.310,3.900,-2.500,7.200,-1.300
0.311,4.200,-3.100,7.200,-2.300
0.312,4.500,-3.700,7.100,-3.200
0.313,4.700,-3.700,7.000,-3.400
0.314,4.700,-3.100,6.700,-2.900
0.315,4.800,-2.000,6.300,-1.900
0.316,5.200,-1.000,5.800,-1.100
0.317,5.600,-0.400,5.100,-1.000
0.318,6.000,-0.400,4.500,-1.500
0.319,6.100,-1.000,4.100,-2.200
0.320,5.900,-1.700,3.900,-2.500
0.321,5.700,-2.100,3.900,-2.200
0.322,5.500,-2.100,3.900,-1.200
0.323,5.700,-1.700,3.800,-0.100
0.324,6.200,-1.200,3.600,0.800
0.325,6.600,-0.800,3.300,1.200
0.326,6.900,-0.700,3.000,1.200
0.327,7.000,-0.700,2.800,1.200
0.328,6.900,-0.700,2.800,1.200
0.329,7.100,-0.700,3.100,1.400
0.330,7.600,-0.600,3.400,1.700
0.331,8.500,-0.500,4.000,1.900
0.332,9.700,-0.400,4.500,1.800
0.333,10.900,0.000,5.000,1.600
0.334,11.800,0.500,5.100,1.200
0.335,12.300,1.400,5.000,0.700
0.336,12.300,2.300,4.500,0.300
0.337,11.900,3.100,3.900,0.200
0.338,11.200,3.600,3.400,0.300
0.339,10.400,3.700,3.200,0.400
0.340,9.600,3.400,3.100,0.100
0.341,9.000,2.700,3.000,-0.800
0.342,8.400,1.500,2.700,-2.200
0.343,7.700,-0.400,2.200,-3.800
0.344,6.800,-2.800,1.700,-5.000
0.345,5.900,-5.300,1.400,-5.100
0.346,5.300,-7.400,1.400,-4.300
0.347,5.200,-8.500,1.600,-2.900
0.348,5.700,-8.500,1.800,-1.800
0.349,6.500,-7.600,1.600,-1.500
0.350,7.200,-6.500,0.900,-2.100
0.351,7.500,-6.000,-0.300,-3.300
0.352,7.200,-6.400,-1.500,-4.400
0.353,6.500,-7.600,-2.200,-4.900
0.354,5.900,-9.200,-2.300,-4.800
0.355,5.600,-10.800,-1.700,-4.300
0.356,5.700,-11.900,-0.800,-4.000
0.357,6.000,-12.600,-0.100,-4.200
0.358,5.900,-12.900,0.300,-4.800
0.359,5.200,-13.100,0.100,-5.600
0.360,4.000,-13.000,-0.300,-6.100
0.361,2.700,-12.900,-0.600,-6.200
0.362,1.800,-12.500,-0.600,-5.900
0.363,1.600,-11.900,-0.200,-5.600
0.364,1.900,-11.200,0.300,-5.500
0.365,2.400,-10.600,0.900,-5.600
0.366,2.700,-10.000,1.200,-5.800
0.367,2.900,-9.500,1.400,-5.800
0.368,2.900,-8.900,1.600,-5.600
0.369,3.100,-8.300,1.700,-5.200
0.370,3.500,-7.900,1.700,-4.800
0.371,3.900,-8.000,1.600,-4.600
0.372,4.000,-8.500,1.400,-4.600
0.373,3.700,-9.500,1.100,-4.900
0.374,3.200,-10.500,0.900,-5.500
0.375,2.800,-11.400,0.700,-6.300
0.376,2.900,-11.800,0.700,-7.200
0.377,3.400,-11.800,0.700,-8.000
0.378,4.300,-11.500,0.800,-8.300
0.379,5.100,-10.900,1.100,-8.300
0.380,5.800,-9.900,1.700,-8.000
0.381,6.400,-8.700,2.400,-7.700
0.382,6.900,-7.200,3.000,-7.800
0.383,7.400,-5.800,3.000,-8.200
0.384,7.800,-5.000,2.400,-8.700
0.385,7.900,-5.100,1.200,-8.900
0.386,7.600,-5.900,-0.200,-8.700
0.387,7.100,-7.100,-1.300,-8.100
0.388,6.600,-8.200,-1.700,-7.400
0.389,6.200,-8.800,-1.300,-7.100
0.390,6.100,-8.900,-0.500,-7.300
0.391,6.200,-8.600,0.500,-7.800
0.392,6.300,-8.300,1.300,-8.200
0.393,6.300,-7.800,1.700,-8.400
0.394,6.100,-7.100,1.600,-8.100
0.395,5.900,-6.300,1.100,-7.600
0.396,5.700,-5.300,0.400,-7.100
0.397,5.500,-4.500,-0.500,-6.700
0.398,5.600,-4.100,-1.300,-6.400
0.399,5.800,-4.200,-1.500,-6.100
0.400,6.200,-4.500,-1.000,-5.600
0.401,6.600,-4.500,-0.100,-5.100
0.402,6.700,-4.200,1.100,-4.600
0.403,6.400,-3.600,1.900,-4.400
0.404,5.500,-3.000,1.900,-4.700
0.405,4.400,-2.800,1.400,-5.400
0.406,3.400,-3.500,0.700,-6.200
0.407,3.000,-4.800,0.200,-6.800
0.408,3.200,-6.700,0.300,-6.900
0.409,4.000,-8.500,0.800,-6.600
0.410,4.900,-9.700,1.400,-5.900
0.411,5.600,-10.100,1.700,-5.300
0.412,5.700,-9.800,1.500,-5.200
0.413,5.500,-9.100,1.000,-5.600
0.414,5.100,-8.500,0.700,-6.500
0.415,4.700,-8.400,0.800,-7.600
0.416,4.500,-9.100,1.200,-8.200
0.417,4.200,-10.100,1.700,-8.300
0.418,3.900,-11.000,1.900,-7.800
0.419,3.700,-11.400,1.800,-6.900
0.420,3.800,-10.900,1.300,-5.900
0.421,4.400,-9.700,0.700,-5.200
0.422,5.500,-8.300,0.400,-4.500
0.423,6.800,-7.500,0.500,-4.000
0.424,7.900,-7.600,0.900,-3.500
0.425,8.400,-8.600,1.500,-3.000
0.426,8.200,-10.100,2.000,-2.900
0.427,7.600,-11.400,2.200,-3.300
0.428,7.000,-11.800,2.100,-4.100
0.429,6.800,-11.100,1.700,-5.200
0.430,6.900,-9.800,1.000,-6.100
0.431,7.100,-8.200,0.200,-6.600
0.432,7.000,-7.200,-0.600,-6.500
0.433,6.300,-6.900,-1.200,-6.200
0.434,5.200,-7.200,-1.800,-5.900
0.435,4.000,-7.500,-2.000,-5.800
0.436,3.200,-7.600,-2.000,-5.800
0.437,3.100,-7.100,-1.700,-5.900
0.438,3.600,-6.200,-1.000,-5.600
0.439,4.500,-5.200,0.000,-4.800
0.440,5.500,-4.500,1.100,-3.700
0.441,6.200,-4.200,2.200,-2.700
0.442,6.600,-4.400,3.000,-2.000
0.443,6.600,-4.700,3.400,-1.900
0.444,6.600,-5.000,3.300,-2.200
0.445,6.700,-5.000,3.000,-2.900
0.446,7.000,-4.600,2.500,-3.400
0.447,7.700,-3.900,2.000,-3.800
0.448,8.500,-3.100,1.700,-3.700
0.449,9.400,-2.600,1.600,-3.400
0.450,10.100,-2.300,1.700,-2.700
0.451,10.600,-2.500,2.000,-1.900
0.452,11.000,-2.800,2.500,-1.000
0.453,11.500,-3.100,3.200,-0.200
0.454,12.100,-3.100,4.100,0.300
0.455,12.800,-2.800,4.900,0.400
0.456,13.200,-2.500,5.400,0.100
0.457,12.900,-2.300,5.200,-0.600
0.458,12.100,-2.400,4.300,-1.200
0.459,10.700,-2.800,3.000,-1.600
0.460,9.500,-2.900,1.700,-1.500
0.461,8.800,-2.500,1.000,-1.200
0.462,8.600,-1.300,0.900,-0.900
0.463,9.000,0.300,1.200,-0.800
0.464,9.300,1.700,1.400,-1.400
0.465,9.200,2.200,1.100,-2.400
0.466,8.500,1.600,0.200,-3.700
0.467,7.500,-0.100,-0.900,-4.700
0.468,6.600,-2.300,-1.800,-5.200
0.469,6.100,-4.400,-2.100,-5.100
0.470,6.100,-6.100,-2.000,-4.700
0.471,6.300,-7.200,-1.600,-4.400
0.472,6.400,-7.900,-1.400,-4.600
0.473,6.200,-8.600,-1.600,-5.200
0.474,5.600,-9.300,-2.200,-6.000
0.475,4.800,-10.000,-3.100,-6.500
0.476,4.000,-10.400,-4.000,-6.500
0.477,3.400,-10.600,-4.800,-6.100
0.478,3.100,-10.300,-5.400,-5.600
0.479,3.100,-9.700,-5.600,-5.300
0.480,3.300,-8.900,-5.500,-5.100
0.481,3.500,-7.900,-4.900,-4.900
0.482,3.700,-7.000,-4.000,-4.600
0.483,3.700,-6.100,-3.100,-4.100
0.484,3.700,-5.600,-2.200,-3.500
0.485,3.600,-5.200,-1.500,-3.200
0.486,3.500,-5.000,-1.100,-3.400
0.487,3.400,-4.900,-1.000,-4.000
0.488,3.300,-4.700,-1.200,-4.800
0.489,3.000,-4.600,-1.700,-5.600
0.490,2.600,-4.500,-2.700,-6.200
0.491,2.200,-4.600,-3.800,-6.500
0.492,2.000,-4.800,-4.800,-6.500
0.493,2.500,-5.000,-5.100,-6.400
0.494,3.500,-5.000,-4.700,-5.900
0.495,4.700,-4.700,-3.600,-5.200
0.496,5.800,-4.100,-2.500,-4.200
0.497,6.300,-3.300,-1.700,-3.200
0.498,6.000,-2.500,-1.600,-2.300
0.499,5.300,-1.900,-2.000,-2.000
0.500,4.600,-1.500,-2.400,-2.300
0.501,4.200,-1.300,-2.700,-3.100
0.502,4.100,-1.100,-2.800,-3.900
0.503,4.300,-1.100,-2.900,-4.500
0.504,4.200,-1.100,-3.300,-4.700
0.505,3.800,-1.300,-3.800,-4.400
0.506,3.300,-1.800,-4.300,-4.000
0.507,2.800,-2.300,-4.300,-3.700
0.508,2.800,-2.700,-3.800,-3.600
0.509,3.300,-2.700,-2.800,-3.700
0.510,4.100,-2.400,-2.000,-3.900
0.511,4.900,-1.900,-1.700,-3.900
0.512,5.500,-1.500,-1.900,-3.700
0.513,5.900,-1.500,-2.500,-3.200
0.514,6.000,-1.900,-2.900,-2.700
0.515,6.000,-2.300,-2.800,-2.300
0.516,6.000,-2.300,-2.200,-2.100
0.517,6.100,-1.800,-1.500,-1.900
0.518,6.300,-0.700,-1.100,-1.700
0.519,6.300,0.500,-1.300,-1.400
0.520,6.200,1.000,-2.100,-1.300
0.521,5.600,0.700,-3.300,-1.300
0.522,4.400,-0.700,-4.800,-1.800
0.523,2.900,-2.400,-6.200,-2.600
0.524,1.300,-3.800,-7.400,-3.800
0.525,0.200,-4.300,-8.300,-4.900
0.526,0.000,-4.000,-8.500,-5.600
0.527,0.500,-3.100,-8.100,-5.900
0.528,1.500,-2.500,-7.400,-5.700
0.529,2.500,-2.600,-6.500,-5.300
0.530,3.100,-3.400,-5.900,-4.900
0.531,3.300,-4.500,-5.700,-4.600
0.532,3.300,-5.300,-5.600,-4.500
0.533,3.400,-5.600,-5.500,-4.400
0.534,3.600,-5.400,-5.200,-4.500
0.535,3.700,-5.200,-4.600,-4.500
0.536,3.400,-5.600,-4.100,-4.700
0.537,2.700,-6.400,-4.000,-4.800
0.538,1.800,-7.500,-4.200,-4.900
0.539,1.100,-8.000,-4.600,-4.700
0.540,1.000,-7.500,-4.800,-4.100
0.541,1.500,-5.900,-4.500,-3.100
0.542,2.500,-3.700,-3.800,-2.000
0.543,3.500,-1.400,-3.000,-1.100
0.544,4.400,0.400,-2.300,-0.400
0.545,5.000,1.300,-1.900,0.000
0.546,5.600,1.400,-1.600,0.300
0.547,6.300,1.100,-1.200,0.800
0.548,7.200,0.800,-0.600,1.600
0.549,8.400,0.900,-0.100,2.400
0.550,9.500,1.200,0.000,2.800
0.551,10.100,1.600,-0.500,2.300
0.552,10.000,1.700,-1.600,1.000
0.553,9.000,1.400,-2.800,-0.900
0.554,7.400,0.900,-3.500,-2.600
0.555,5.800,0.300,-3.600,-3.500
0.556,4.500,0.000,-3.200,-3.400
0.557,3.900,0.000,-2.700,-2.600
0.558,3.800,0.200,-2.500,-1.600
0.559,4.000,0.100,-2.800,-0.800
0.560,3.900,-0.500,-3.200,-0.700
0.561,3.400,-1.500,-3.500,-1.200
0.562,2.500,-2.900,-3.300,-2.100
0.563,1.600,-4.300,-2.900,-3.000
0.564,1.000,-5.500,-2.600,-3.700
0.565,0.700,-6.700,-2.700,-4.200
0.566,0.500,-7.700,-3.300,-4.400
0.567,0.200,-8.500,-4.200,-4.500
0.568,-0.500,-9.100,-5.100,-4.400
0.569,-1.200,-9.100,-5.600,-4.200
0.570,-1.900,-8.700,-5.800,-4.000
0.571,-2.000,-8.100,-5.700,-3.800
0.572,-1.700,-7.500,-5.600,-3.800
0.573,-1.100,-7.200,-5.700,-3.800
0.574,-0.500,-7.500,-5.900,-4.000
0.575,-0.200,-8.200,-6.400,-4.200
0.576,-0.400,-9.100,-7.000,-4.400
0.577,-1.000,-10.000,-7.800,-4.400
0.578,-1.800,-10.600,-8.500,-4.400
0.579,-2.500,-10.900,-9.100,-4.200
0.580,-2.900,-10.800,-9.300,-3.800
0.581,-3.000,-10.200,-8.900,-3.200
0.582,-2.700,-9.400,-8.100,-2.700
0.583,-2.100,-8.600,-7.000,-2.300
0.584,-1.300,-8.100,-6.200,-2.400
0.585,-0.800,-8.000,-5.800,-3.000
0.586,-0.800,-8.200,-6.000,-3.900
0.587,-1.100,-8.300,-6.500,-4.900
0.588,-1.600,-8.300,-7.200,-5.600
0.589,-2.000,-8.000,-7.600,-5.800
0.590,-1.900,-7.500,-7.500,-5.400
0.591,-1.500,-7.100,-7.100,-4.700
0.592,-0.800,-7.000,-6.400,-3.900
0.593,-0.300,-7.000,-5.700,-3.300
0.594,-0.100,-7.100,-5.300,-3.000
0.595,-0.200,-7.000,-5.200,-2.800
0.596,-0.300,-6.700,-5.500,-2.800
0.597,-0.300,-6.300,-5.900,-2.700
0.598,0.000,-5.900,-6.100,-2.600
0.599,0.300,-5.700,-6.000,-2.300
0.600,0.700,-5.500,-5.400,-2.000
0.601,0.900,-5.300,-4.700,-1.800
0.602,1.000,-5.200,-4.000,-1.600
0.603,1.200,-5.200,-3.600,-1.500
0.604,1.500,-5.400,-3.600,-1.500
0.605,1.900,-5.900,-3.900,-1.600
0.606,2.100,-6.500,-4.300,-1.600
0.607,2.300,-6.900,-4.600,-1.600
0.608,2.400,-6.900,-4.700,-1.600
0.609,2.400,-6.500,-4.500,-1.600
0.610,2.500,-6.200,-4.400,-1.800
0.611,2.700,-6.100,-4.200,-2.000
0.612,2.800,-6.600,-4.200,-2.200
0.613,2.900,-7.300,-4.100,-2.100
0.614,2.900,-7.800,-4.000,-1.600
0.615,3.000,-7.900,-3.700,-1.000
0.616,3.300,-7.400,-3.400,-0.500
0.617,3.600,-6.700,-3.000,-0.400
0.618,3.900,-6.200,-2.400,-0.800
0.619,4.000,-6.200,-1.800,-1.500
0.620,3.600,-6.300,-1.300,-2.100
0.621,2.900,-6.400,-1.000,-2.300
0.622,2.100,-6.200,-1.100,-2.100
0.623,1.600,-5.600,-1.700,-1.600
0.624,1.500,-4.900,-2.400,-1.200
0.625,1.900,-4.200,-3.100,-1.000
0.626,2.700,-3.700,-3.300,-1.300
0.627,3.500,-3.400,-3.000,-1.900
0.628,4.000,-3.200,-2.700,-2.900
0.629,4.000,-3.200,-2.800,-4.100
0.630,3.400,-3.800,-3.500,-5.400
0.631,2.300,-5.000,-5.000,-6.700
0.632,1.000,-6.700,-6.800,-7.800
0.633,-0.100,-8.500,-8.300,-8.500
0.634,-0.600,-9.600,-8.800,-8.500
0.635,-0.400,-9.700,-8.400,-7.900
0.636,0.400,-8.700,-7.100,-6.900
0.637,1.400,-6.900,-5.600,-5.800
0.638,2.300,-5.100,-4.500,-4.800
0.639,2.900,-3.700,-3.800,-3.900
0.640,3.400,-2.600,-3.500,-2.800
0.641,4.000,-1.600,-2.800,-0.900
0.642,5.100,0.000,-1.000,2.400
0.643,7.000,2.800,2.300,7.400
0.644,9.900,6.800,6.800,13.800
0.645,13.400,11.600,11.800,20.700
0.646,17.200,16.200,16.100,26.500
0.647,20.400,19.500,18.800,30.000
0.648,22.400,20.600,19.200,30.600
0.649,22.500,19.600,17.700,28.500
0.650,20.800,16.900,15.000,24.800
0.651,17.900,13.500,11.900,20.700
0.652,14.600,10.400,9.100,16.700
0.653,11.800,8.000,6.800,13.100
0.654,10.100,6.200,4.700,9.400
0.655,9.200,4.500,2.500,5.200
0.656,8.400,2.600,-0.100,0.500
0.657,7.100,0.300,-2.900,-4.500
0.658,5.000,-2.200,-5.900,-9.200
0.659,2.200,-4.500,-8.600,-13.100
0.660,-0.600,-6.400,-10.800,-15.900
0.661,-2.700,-7.600,-12.100,-17.400
0.662,-3.700,-8.100,-12.300,-17.700
0.663,-3.400,-7.900,-11.500,-16.600
0.664,-2.300,-6.900,-9.700,-14.400
0.665,-0.600,-5.300,-7.200,-11.400
0.666,1.200,-3.200,-4.500,-8.400
0.667,3.200,-1.100,-2.000,-5.800
0.668,5.200,0.800,0.000,-3.800
0.669,7.100,2.200,1.500,-2.400
0.670,8.800,3.000,2.600,-1.200
0.671,9.900,3.400,3.400,-0.100
0.672,10.300,3.400,3.700,0.800
0.673,10.000,3.000,3.700,1.200
0.674,9.100,2.200,3.300,0.900
0.675,8.300,1.200,2.700,0.100
0.676,8.100,0.300,2.400,-0.700
0.677,8.900,0.000,2.900,-0.800
0.678,10.700,0.600,4.500,0.100
0.679,13.200,2.100,6.900,1.900
0.680,15.800,4.100,9.800,4.000
0.681,17.800,5.900,12.400,5.800
0.682,18.900,7.400,14.500,7.200
0.683,19.200,8.500,16.000,8.600
0.684,19.100,9.500,17.100,10.300
0.685,18.900,10.600,18.000,12.600
0.686,18.600,11.700,18.900,15.100
0.687,18.000,12.700,19.700,17.600
0.688,16.600,13.000,20.300,19.700
0.689,14.000,12.600,20.600,21.600
0.690,10.200,11.600,20.700,23.500
0.691,5.500,10.500,20.800,26.000
0.692,0.700,9.800,21.000,29.100
0.693,-4.000,9.600,21.400,32.300
0.694,-8.400,9.600,21.800,35.200
0.695,-12.500,9.500,21.800,37.500
0.696,-16.700,8.800,21.400,39.200
0.697,-21.100,7.600,20.300,40.700
0.698,-25.700,6.100,18.900,42.400
0.699,-30.500,4.400,17.100,44.000
0.700,-35.300,2.600,15.200,45.300
0.701,-40.200,0.500,13.100,45.700
0.702,-44.900,-2.300,10.800,44.800
0.703,-49.600,-5.600,7.900,43.000
0.704,-53.900,-9.200,4.700,40.500
0.705,-57.600,-12.400,1.400,38.100
0.706,-60.400,-14.700,-1.700,36.300
0.707,-62.100,-15.700,-3.900,35.100
0.708,-62.700,-15.700,-4.900,34.600
0.709,-62.300,-15.000,-4.700,34.200
0.710,-61.200,-14.300,-3.600,33.700
0.711,-59.800,-14.100,-2.200,32.500
0.712,-58.100,-14.500,-1.300,30.300
0.713,-56.200,-15.400,-1.400,27.000
0.714,-53.900,-16.500,-2.700,22.800
0.715,-51.100,-17.300,-4.800,18.000
0.716,-47.400,-17.700,-7.300,13.100
0.717,-42.800,-17.800,-9.700,8.000
0.718,-37.400,-17.600,-11.900,2.800
0.719,-31.600,-17.400,-13.800,-2.800
0.720,-25.700,-17.300,-15.600,-8.500
0.721,-20.300,-17.400,-17.300,-13.900
0.722,-15.700,-17.600,-18.800,-18.300
0.723,-12.200,-17.600,-19.800,-20.900
0.724,-9.800,-17.500,-20.100,-21.800
0.725,-8.100,-17.200,-19.900,-21.500
0.726,-6.900,-16.700,-19.300,-20.700
0.727,-5.900,-16.300,-18.800,-20.600
0.728,-4.900,-16.100,-18.700,-21.300
0.729,-3.900,-16.200,-19.100,-22.800
0.730,-3.100,-16.800,-19.900,-24.600
0.731,-2.400,-17.700,-20.800,-26.100
0.732,-2.100,-18.600,-21.500,-27.100
0.733,-2.000,-19.300,-22.000,-27.500
0.734,-2.300,-19.700,-22.000,-27.600
0.735,-2.500,-19.600,-21.800,-27.500
0.736,-2.700,-19.200,-21.400,-27.300
0.737,-2.700,-18.900,-20.800,-27.200
0.738,-2.400,-18.700,-20.200,-26.900
0.739,-1.900,-18.700,-19.300,-26.400
0.740,-1.200,-18.700,-18.200,-25.400
0.741,-0.700,-18.300,-16.600,-24.000
0.742,-0.200,-17.500,-14.700,-22.100
0.743,0.100,-16.300,-12.700,-20.200
0.744,0.300,-14.900,-10.900,-18.600
0.745,0.600,-13.600,-9.500,-17.500
0.746,1.000,-12.400,-8.600,-16.700
0.747,1.300,-11.400,-7.900,-16.000
0.748,1.600,-10.500,-7.200,-15.100
0.749,1.800,-9.500,-6.300,-13.800
0.750,1.800,-8.800,-5.300,-12.200
0.751,1.800,-8.400,-4.400,-10.400
0.752,2.000,-8.500,-3.700,-8.700
0.753,2.500,-8.900,-3.100,-7.100
0.754,3.300,-9.200,-2.400,-5.700
0.755,4.200,-9.100,-1.500,-4.500
0.756,5.000,-8.600,-0.300,-3.600
0.757,5.400,-7.800,0.800,-3.000
0.758,5.400,-7.200,1.200,-2.900
0.759,5.000,-7.100,0.600,-3.200
0.760,4.500,-7.600,-1.000,-3.800
0.761,4.000,-8.400,-3.100,-4.500
0.762,3.500,-9.200,-5.200,-5.100
0.763,3.000,-9.600,-6.700,-5.500
0.764,2.600,-9.600,-7.300,-5.600
0.765,2.300,-9.400,-7.200,-5.500
0.766,2.300,-9.100,-6.600,-5.200
0.767,2.500,-8.800,-5.700,-4.700
0.768,2.900,-8.700,-4.700,-4.300
0.769,3.300,-8.600,-3.800,-4.100
0.770,3.400,-8.700,-3.100,-4.100
0.771,3.200,-9.000,-2.800,-4.000
0.772,2.700,-9.500,-2.700,-3.800
0.773,2.200,-10.200,-2.800,-3.100
0.774,2.000,-10.600,-2.800,-2.100
0.775,2.400,-10.500,-2.500,-1.100
0.776,3.200,-9.600,-1.900,-0.200
0.777,4.500,-8.100,-0.800,0.300
0.778,5.900,-6.400,0.300,0.600
0.779,7.100,-5.000,1.300,0.900
0.780,8.100,-4.000,2.000,1.300
0.781,8.700,-3.500,2.500,2.000
0.782,8.900,-3.300,2.800,2.600
0.783,8.900,-3.000,2.800,3.000
0.784,8.600,-2.600,2.600,2.900
0.785,8.100,-2.100,2.000,2.200
0.786,7.500,-1.700,1.100,1.200
0.787,6.600,-1.800,-0.100,-0.100
0.788,5.600,-2.600,-1.100,-1.500
0.789,4.400,-3.800,-1.700,-2.700
0.790,3.100,-5.400,-1.800,-3.600
0.791,1.800,-7.000,-1.600,-4.100
0.792,0.700,-8.100,-1.300,-4.200
0.793,0.100,-8.700,-0.900,-3.800
0.794,0.100,-8.600,-0.700,-2.900
0.795,0.600,-8.000,-0.400,-2.000
0.796,1.300,-7.200,0.000,-1.300
0.797,1.800,-6.600,0.300,-1.100
0.798,1.800,-6.400,0.700,-1.400
0.799,1.400,-6.700,0.900,-2.100
0.800,0.800,-7.200,0.900,-2.800
0.801,0.400,-7.700,0.900,-3.300
0.802,0.300,-8.100,0.700,-3.600
0.803,0.600,-8.400,0.400,-3.700
0.804,0.900,-8.500,0.000,-3.700
0.805,0.800,-8.600,-0.500,-3.600
0.806,0.400,-8.600,-1.200,-3.500
0.807,-0.300,-8.400,-1.800,-3.000
0.808,-0.700,-7.900,-2.100,-2.200
0.809,-0.500,-7.100,-2.000,-1.000
0.810,0.400,-6.200,-1.500,0.200
0.811,1.700,-5.300,-0.800,1.000
0.812,3.000,-4.600,-0.200,1.100
0.813,3.700,-3.900,-0.100,0.700
0.814,3.800,-3.300,-0.500,-0.100
0.815,3.300,-2.800,-1.100,-0.700
0.816,2.600,-2.500,-1.700,-1.000
0.817,2.000,-2.500,-2.000,-0.700
0.818,1.800,-2.700,-1.900,-0.300
0.819,1.800,-3.000,-1.300,0.300
0.820,2.000,-3.400,-0.600,0.600
0.821,2.200,-3.600,0.000,0.700
0.822,2.200,-3.900,0.300,0.500
0.823,2.000,-4.300,0.400,0.300
0.824,1.600,-4.800,0.300,0.100
0.825,1.300,-5.500,0.300,0.100
0.826,1.300,-5.900,0.300,0.400
0.827,1.500,-5.900,0.400,0.700
0.828,1.900,-5.500,0.500,0.900
0.829,1.900,-4.900,0.500,0.800
0.830,1.400,-4.500,0.400,0.500
0.831,0.200,-4.700,0.100,0.000
0.832,-1.200,-5.400,-0.400,-0.500
0.833,-2.500,-6.300,-1.200,-0.800
0.834,-2.900,-6.800,-2.000,-0.900
0.835,-2.500,-6.600,-2.500,-0.900
0.836,-1.400,-5.800,-2.600,-0.800
0.837,-0.200,-4.900,-2.100,-0.900
0.838,0.300,-4.500,-1.300,-1.200
0.839,-0.200,-5.100,-0.700,-1.900
0.840,-1.600,-6.400,-0.600,-2.600
0.841,-3.200,-7.800,-1.000,-3.100
0.842,-4.500,-8.700,-1.600,-3.200
0.843,-5.000,-8.500,-2.100,-2.700
0.844,-4.900,-7.500,-2.100,-1.800
0.845,-4.500,-6.400,-1.900,-1.000
0.846,-4.200,-5.700,-1.900,-0.700
0.847,-4.400,-5.800,-2.200,-0.900
0.848,-5.000,-6.500,-2.800,-1.600
0.849,-5.800,-7.100,-3.400,-2.100
0.850,-6.400,-6.900,-3.300,-1.800
0.851,-6.600,-5.700,-2.300,-0.600
0.852,-6.200,-3.800,-0.900,1.000
0.853,-5.500,-2.000,0.300,2.400
0.854,-4.800,-1.000,0.800,3.000
0.855,-4.400,-1.000,0.300,2.700
0.856,-4.500,-1.900,-0.800,2.000
0.857,-5.200,-2.900,-1.700,1.500
0.858,-6.300,-3.400,-2.000,1.700
0.859,-7.100,-3.000,-1.500,2.400
0.860,-7.500,-2.000,-0.600,3.500
0.861,-7.200,-0.900,0.100,4.400
0.862,-6.500,-0.500,0.300,4.800
0.863,-5.800,-1.100,0.100,5.000
0.864,-5.700,-2.500,-0.400,5.300
0.865,-6.300,-4.200,-0.700,5.600
0.866,-7.400,-5.500,-0.900,5.900
0.867,-8.700,-5.900,-1.000,6.000
0.868,-9.700,-5.400,-1.200,5.700
0.869,-10.000,-4.400,-1.600,5.200
0.870,-9.900,-3.200,-1.800,4.700
0.871,-9.400,-2.400,-1.500,4.600
0.872,-8.900,-2.100,-0.700,4.900
0.873,-8.700,-2.200,0.700,5.400
0.874,-8.900,-2.600,2.200,5.700
0.875,-9.200,-3.100,3.300,5.900
0.876,-9.400,-3.500,3.800,6.100
0.877,-9.500,-3.700,3.800,6.500
0.878,-9.200,-3.700,3.600,7.300
0.879,-8.800,-3.500,3.500,8.100
0.880,-8.500,-3.300,3.500,8.800
0.881,-8.600,-3.100,3.400,8.800
0.882,-9.300,-3.100,2.800,8.300
0.883,-10.500,-3.400,1.900,7.600
0.884,-11.800,-3.800,0.700,7.000
0.885,-12.600,-4.000,0.000,7.000
0.886,-12.600,-3.700,0.100,7.900
0.887,-11.800,-2.700,1.300,9.300
0.888,-10.500,-1.200,3.200,11.000
0.889,-9.100,0.600,5.400,12.500
0.890,-8.100,2.100,7.000,13.600
0.891,-7.600,2.800,7.800,14.400
0.892,-7.700,2.500,7.600,14.900
0.893,-7.900,1.600,6.900,15.100
0.894,-8.200,0.300,6.000,15.100
0.895,-8.500,-0.900,5.000,14.700
0.896,-9.100,-1.900,4.000,13.700
0.897,-10.200,-2.800,2.700,12.300
0.898,-11.700,-3.600,1.300,10.900
0.899,-13.600,-4.400,-0.100,10.000
0.900,-15.500,-5.200,-1.000,9.800
0.901,-16.800,-5.500,-1.300,10.500
0.902,-17.500,-5.300,-0.800,11.300
0.903,-17.600,-4.700,0.000,12.000
0.904,-17.400,-3.800,1.000,12.000
0.905,-17.300,-3.100,1.800,11.600
0.906,-17.200,-2.800,2.500,11.300
0.907,-17.200,-3.000,3.200,11.300
0.908,-17.300,-3.500,3.800,11.700
0.909,-17.400,-4.000,4.100,12.100
0.910,-17.700,-4.300,3.700,12.200
0.911,-18.400,-4.600,2.800,11.600
0.912,-19.300,-4.800,1.400,10.800
0.913,-20.300,-4.900,0.300,10.300
0.914,-20.900,-5.000,0.000,10.500
0.915,-20.900,-4.900,0.800,11.400
0.916,-20.600,-4.700,2.300,12.500
0.917,-20.400,-4.500,3.900,13.300
0.918,-20.500,-4.500,5.100,13.500
0.919,-21.200,-4.800,5.600,13.200
0.920,-22.100,-5.500,5.400,13.000
0.921,-22.600,-6.400,5.000,13.000
0.922,-22.500,-7.100,4.700,13.400
0.923,-21.800,-7.700,4.600,13.700
0.924,-20.800,-8.100,4.400,13.500
0.925,-20.100,-8.400,3.800,12.600
0.926,-20.100,-8.800,2.900,11.500
0.927,-20.600,-9.100,1.700,10.800
0.928,-21.300,-8.900,0.600,10.800
0.929,-21.800,-7.900,0.200,11.800
0.930,-21.800,-6.100,0.400,13.200
0.931,-21.400,-3.700,1.200,14.300
0.932,-21.000,-1.400,1.900,14.700
0.933,-20.800,0.300,2.100,14.400
0.934,-21.100,0.900,1.600,13.600
0.935,-21.900,0.500,0.700,12.900
0.936,-22.800,-0.400,-0.200,12.700
0.937,-23.500,-1.100,-0.600,13.000
0.938,-23.600,-1.400,-0.400,13.600
0.939,-23.000,-1.300,0.200,14.000
0.940,-22.200,-1.300,1.100,14.000
0.941,-21.600,-1.600,1.600,13.700
0.942,-21.500,-2.300,1.800,13.300
0.943,-21.800,-3.100,1.800,13.200
0.944,-22.400,-3.400,1.600,13.300
0.945,-22.800,-3.200,1.700,13.600
0.946,-22.700,-2.300,1.900,13.900
0.947,-22.000,-1.400,2.200,13.900
0.948,-21.000,-0.900,2.300,13.700
0.949,-20.000,-0.900,2.200,13.300
0.950,-19.100,-1.300,1.800,12.900
0.951,-18.300,-1.700,1.600,12.800
0.952,-17.600,-1.800,1.700,12.900
0.953,-17.000,-1.400,2.400,13.100
0.954,-16.500,-0.900,3.300,13.500
0.955,-16.400,-0.600,4.200,13.700
0.956,-16.400,-0.600,4.700,13.600
0.957,-16.400,-0.900,4.800,13.100
0.958,-16.000,-1.200,4.600,12.400
0.959,-14.900,-1.200,4.500,11.500
0.960,-13.500,-1.100,4.400,10.600
0.961,-12.100,-0.900,4.500,10.000
0.962,-11.000,-0.800,4.500,9.700
0.963,-10.600,-0.900,4.300,9.700
0.964,-10.500,-0.800,4.000,9.900
0.965,-10.400,-0.500,3.700,10.100
0.966,-9.800,0.100,3.600,10.000
0.967,-8.800,1.000,3.600,9.700
0.968,-7.500,1.600,3.800,9.200
0.969,-6.500,1.800,3.900,8.800
0.970,-6.000,1.400,3.900,8.600
0.971,-6.100,0.800,3.900,8.800
0.972,-6.500,0.300,4.000,9.300
0.973,-6.600,0.300,4.400,9.700
0.974,-6.200,1.000,4.900,9.900
0.975,-5.300,2.300,5.300,9.700
0.976,-4.100,3.900,5.400,9.400
0.977,-2.700,5.600,5.400,9.300
0.978,-1.300,7.200,5.400,9.500
0.979,0.100,8.600,5.700,10.000
0.980,1.500,9.900,6.100,10.600
0.981,2.800,11.000,6.700,10.800
0.982,3.900,11.700,7.100,10.400
0.983,4.700,11.700,7.000,9.400
0.984,5.000,10.900,6.400,8.100
0.985,4.800,9.400,5.400,6.900
0.986,4.200,7.500,4.300,5.900
0.987,3.300,5.600,3.600,5.300
0.988,2.400,4.200,3.300,4.700
0.989,1.700,3.300,3.700,3.900
0.990,1.400,3.100,4.400,3.000
0.991,1.700,3.100,5.100,2.300
0.992,2.400,3.200,5.600,1.700
0.993,3.500,2.900,5.400,1.500
0.994,4.400,2.200,4.500,1.500
0.995,4.900,1.000,3.100,1.500
0.996,4.700,-0.400,1.700,1.400
0.997,4.000,-1.600,0.900,1.200
0.998,3.100,-2.600,1.000,1.100
0.999,2.400,-3.000,1.800,1.100
1.000,2.000,-2.900,3.200,1.200
1.001,1.900,-2.700,4.300,1.000
1.002,2.200,-2.300,4.900,0.600
1.003,2.600,-2.000,4.900,0.200
1.004,3.200,-1.700,4.600,-0.100
1.005,4.000,-1.100,4.400,0.300
1.006,4.900,-0.300,4.700,1.200
1.007,6.100,0.700,5.400,2.300
1.008,7.300,1.600,6.200,3.100
1.009,8.400,2.200,6.800,3.200
1.010,9.000,2.300,6.700,2.500
1.011,9.100,1.800,5.900,1.400
1.012,8.600,0.900,4.600,0.100
1.013,7.300,-0.600,3.200,-1.000
1.014,5.600,-2.300,1.900,-1.700
1.015,3.700,-4.100,1.100,-2.300
1.016,2.100,-5.600,0.800,-3.000
1.017,1.100,-6.500,0.600,-3.700
1.018,0.800,-6.300,0.500,-4.600
1.019,1.100,-5.200,0.000,-5.400
1.020,1.600,-3.500,-0.800,-6.200
1.021,1.900,-1.700,-1.800,-6.700
1.022,1.900,-0.400,-2.400,-6.900
1.023,1.500,0.000,-2.500,-6.900
1.024,1.100,-0.400,-2.000,-6.600
1.025,0.900,-1.400,-1.000,-6.000
1.026,1.000,-2.200,0.100,-5.100
1.027,1.500,-2.400,0.900,-3.900
1.028,2.200,-1.700,1.200,-2.700
1.029,3.100,-0.500,1.000,-1.700
1.030,4.000,0.900,0.500,-1.100
1.031,4.400,1.800,-0.200,-1.200
1.032,4.400,2.000,-1.000,-2.000
1.033,3.900,1.700,-1.800,-3.200
1.034,2.900,1.100,-2.600,-4.600
1.035,1.800,0.400,-3.300,-5.800
1.036,0.800,-0.300,-3.700,-6.600
1.037,0.000,-1.300,-3.800,-6.700
1.038,-0.400,-2.600,-3.600,-6.200
1.039,-0.500,-3.900,-2.900,-5.300
1.040,-0.400,-4.800,-2.000,-4.300
1.041,0.200,-4.800,-1.100,-3.200
1.042,1.000,-3.700,-0.300,-2.500
1.043,2.000,-2.000,-0.100,-2.100
1.044,3.000,-0.600,-0.400,-2.100
1.045,3.500,0.000,-1.100,-2.200
1.046,3.600,-0.500,-1.800,-2.200
1.047,3.400,-1.500,-2.100,-1.700
1.048,3.300,-2.100,-1.900,-0.900
1.049,3.600,-1.900,-1.200,0.200
1.050,4.300,-0.600,-0.400,1.400
1.051,5.400,1.200,0.000,2.300
1.052,6.300,2.800,0.000,2.600
1.053,6.700,3.600,-0.300,2.500
1.054,6.600,3.600,-0.600,1.800
1.055,6.200,3.000,-0.800,0.900
1.056,5.800,2.400,-0.600,0.100
1.057,5.800,2.200,-0.500,-0.400
1.058,6.200,2.600,-0.400,-0.400
1.059,6.800,3.500,-0.600,0.000
1.060,7.400,4.700,-0.900,0.600
1.061,7.800,5.800,-1.000,1.000
1.062,7.900,6.500,-0.700,1.100
1.063,7.700,6.600,-0.100,0.600
1.064,7.300,6.000,0.600,-0.100
1.065,6.800,5.000,1.000,-0.800
1.066,6.400,4.000,0.900,-1.300
1.067,6.000,3.500,0.300,-1.300
1.068,5.700,3.600,-0.300,-1.000
1.069,5.600,4.200,-0.500,-0.500
1.070,5.600,5.000,-0.200,0.100
1.071,5.800,5.600,0.600,0.500
1.072,6.000,5.800,1.600,0.900
1.073,6.300,5.700,2.300,1.300
1.074,6.700,5.600,2.300,1.600
1.075,7.000,5.700,1.600,1.900
1.076,7.300,6.000,0.600,1.900
1.077,7.400,6.400,-0.400,1.700
1.078,7.200,6.700,-1.000,1.200
1.079,6.900,6.900,-1.200,0.600
1.080,6.600,7.200,-1.000,0.200
1.081,6.500,7.800,-0.800,0.200
1.082,6.600,8.900,-0.600,0.800
1.083,7.000,10.400,-0.600,1.700
1.084,7.400,11.700,-0.400,2.700
1.085,7.700,12.400,-0.100,3.200
1.086,7.700,11.900,0.200,2.900
1.087,7.500,10.500,0.100,1.800
1.088,6.900,8.500,-0.400,0.400
1.089,6.200,6.600,-1.300,-1.000
1.090,5.400,5.300,-2.400,-1.800
1.091,4.700,4.900,-3.200,-2.000
1.092,4.100,5.100,-3.500,-1.800
1.093,3.900,5.600,-3.400,-1.900
1.094,3.900,5.900,-3.100,-2.500
1.095,4.200,6.000,-3.100,-3.700
1.096,4.300,6.000,-3.500,-5.100
1.097,4.100,6.000,-4.000,-6.200
1.098,3.600,6.100,-4.500,-6.500
1.099,2.900,6.300,-4.600,-6.100
1.100,2.300,6.500,-4.300,-5.200
1.101,2.200,6.600,-3.800,-4.200
1.102,2.600,6.600,-3.300,-3.300
1.103,3.400,6.600,-2.900,-2.300
1.104,4.400,6.800,-2.400,-1.200
1.105,5.300,7.200,-1.700,0.300
1.106,6.100,7.800,-0.600,2.500
1.107,7.200,8.800,1.000,5.400
1.108,8.900,10.500,3.200,9.200
1.109,11.600,13.300,6.100,14.000
1.110,15.100,17.500,9.500,19.600
1.111,19.200,22.800,13.300,25.500
1.112,23.300,28.100,17.000,30.900
1.113,26.900,32.300,19.900,34.600
1.114,29.500,34.100,21.600,36.100
1.115,30.700,33.000,21.600,35.000
1.116,30.500,29.600,20.200,32.000
1.117,29.000,25.000,17.700,27.900
1.118,26.300,20.500,14.800,23.500
1.119,23.100,16.700,11.800,19.300
1.120,19.700,13.500,9.000,15.200
1.121,16.500,10.400,6.400,10.800
1.122,13.600,6.600,3.600,5.600
1.123,11.000,1.800,0.500,-0.400
1.124,8.300,-3.700,-2.900,-6.800
1.125,5.600,-9.000,-6.600,-12.700
1.126,2.900,-13.200,-10.000,-17.200
1.127,0.500,-15.700,-12.600,-19.700
1.128,-1.400,-16.400,-13.800,-20.200
1.129,-2.500,-15.500,-13.400,-19.100
1.130,-2.700,-13.800,-11.800,-17.400
1.131,-2.100,-11.800,-9.400,-15.600
1.132,-1.000,-10.100,-7.000,-14.300
1.133,0.600,-8.800,-5.000,-13.100
1.134,2.400,-7.800,-3.600,-12.000
1.135,3.900,-7.100,-2.800,-10.700
1.136,4.900,-6.300,-2.400,-9.200
1.137,5.200,-5.500,-2.300,-8.000
1.138,4.800,-4.600,-2.600,-7.200
1.139,4.200,-4.100,-3.000,-6.800
1.140,3.600,-3.800,-3.500,-6.700
1.141,3.300,-3.800,-3.700,-6.500
1.142,3.400,-3.800,-3.600,-6.100
1.143,3.900,-3.700,-3.200,-5.600
1.144,4.500,-3.400,-2.700,-5.300
1.145,5.000,-2.800,-2.600,-5.300
1.146,5.400,-2.100,-2.800,-5.600
1.147,5.500,-1.400,-3.400,-6.200
1.148,5.300,-0.900,-3.900,-6.700
1.149,5.000,-0.700,-4.100,-6.900
1.150,4.600,-0.900,-4.000,-7.000
1.151,4.300,-1.400,-3.700,-6.900
1.152,4.200,-2.100,-3.500,-6.700
1.153,4.300,-2.800,-3.600,-6.400
1.154,4.500,-3.200,-3.800,-5.900
1.155,4.600,-3.200,-4.000,-5.400
1.156,4.500,-2.600,-4.100,-4.900
1.157,4.400,-1.500,-4.000,-4.600
1.158,4.400,-0.100,-3.700,-4.500
1.159,4.700,1.500,-3.200,-4.700
1.160,5.400,2.900,-2.700,-4.900
1.161,6.100,4.000,-2.200,-5.000
1.162,6.700,4.600,-1.900,-5.000
1.163,7.000,4.500,-1.700,-4.900
1.164,6.900,3.800,-1.600,-5.000
1.165,6.500,2.700,-1.600,-5.200
1.166,6.100,1.600,-1.600,-5.500
1.167,5.800,0.700,-1.900,-5.700
1.168,5.500,0.300,-2.400,-5.700
1.169,5.300,0.400,-3.100,-5.400
1.170,5.000,0.600,-4.000,-5.100
1.171,4.700,0.800,-4.800,-5.000
1.172,4.400,0.800,-5.300,-5.400
1.173,3.900,0.600,-5.500,-6.200
1.174,3.300,0.300,-5.300,-7.000
1.175,2.700,0.100,-5.000,-7.600
1.176,2.300,0.200,-4.800,-7.600
1.177,2.200,0.500,-4.700,-7.300
1.178,2.200,0.800,-4.700,-7.100
1.179,2.200,0.700,-4.900,-7.300
1.180,1.900,0.100,-5.300,-8.000
1.181,1.400,-0.900,-5.900,-9.000
1.182,0.700,-2.000,-6.600,-9.800
1.183,0.000,-2.700,-7.200,-9.900
1.184,-0.100,-2.700,-7.400,-9.200
1.185,0.300,-1.900,-6.900,-7.800
1.186,1.300,-0.600,-5.800,-6.300
1.187,2.600,0.700,-4.600,-5.200
1.188,3.700,1.600,-3.500,-4.800
1.189,4.400,1.900,-3.100,-5.200
1.190,4.400,1.600,-3.300,-6.100
1.191,4.000,1.000,-3.800,-7.000
1.192,3.200,0.500,-4.200,-7.500
1.193,2.500,0.300,-4.300,-7.500
1.194,2.100,0.400,-3.800,-7.100
1.195,1.900,0.700,-2.900,-6.600
1.196,1.900,0.800,-1.900,-6.400
1.197,1.900,0.400,-1.100,-6.600
1.198,1.800,-0.600,-0.500,-7.100
1.199,1.400,-2.200,-0.400,-7.800
1.200,0.900,-4.100,-0.600,-8.200
1.201,0.400,-6.000,-1.000,-8.100
1.202,-0.100,-7.500,-1.600,-7.600
1.203,-0.300,-8.300,-2.200,-6.800
1.204,0.000,-8.300,-2.500,-6.100
1.205,0.600,-7.700,-2.600,-5.600
1.206,1.700,-6.700,-2.300,-5.300
1.207,3.100,-5.400,-1.900,-5.000
1.208,4.400,-4.200,-1.500,-4.700
1.209,5.500,-3.500,-1.200,-4.400
1.210,6.100,-3.600,-1.200,-4.100
1.211,6.300,-4.500,-1.300,-4.000
1.212,6.500,-5.800,-1.400,-4.000
1.213,6.900,-6.900,-1.300,-4.100
1.214,7.500,-7.100,-0.800,-4.000
1.215,8.300,-6.100,-0.200,-3.700
1.216,8.800,-4.500,0.200,-3.300
1.217,8.700,-2.900,0.200,-3.200
1.218,8.000,-2.200,-0.600,-3.800
1.219,6.700,-2.700,-1.900,-5.100
1.220,5.300,-4.200,-3.300,-6.800
1.221,4.100,-6.000,-4.500,-8.300
1.222,3.200,-7.300,-5.100,-9.100
1.223,2.700,-7.700,-5.200,-8.900
1.224,2.300,-7.200,-5.000,-7.800
1.225,2.100,-6.300,-5.000,-6.300
1.226,1.900,-5.300,-5.100,-5.000
1.227,1.900,-4.400,-5.200,-4.200
1.228,2.000,-3.900,-5.200,-4.200
1.229,2.100,-3.600,-4.700,-4.500
1.230,2.300,-3.500,-4.000,-4.800
1.231,2.500,-3.600,-3.100,-4.900
1.232,2.700,-3.900,-2.500,-4.600
1.233,3.000,-4.100,-2.200,-4.100
1.234,3.200,-4.300,-2.100,-3.800
1.235,3.400,-4.400,-1.900,-3.800
1.236,3.400,-4.500,-1.500,-4.000
1.237,3.200,-4.600,-0.800,-4.200
1.238,3.000,-4.900,-0.200,-4.100
1.239,3.000,-5.400,0.000,-3.700
1.240,3.300,-5.800,-0.300,-3.100
1.241,3.700,-6.200,-1.000,-2.700
1.242,3.900,-6.300,-1.900,-2.600
1.243,3.900,-6.300,-2.500,-2.900
1.244,3.400,-6.400,-3.000,-3.300
1.245,2.800,-6.600,-3.200,-3.300
1.246,2.300,-6.800,-3.500,-2.800
1.247,2.200,-6.900,-3.800,-1.900
1.248,2.600,-6.700,-4.000,-1.100
1.249,3.300,-6.100,-4.100,-0.800
1.250,3.800,-5.300,-3.900,-1.200
1.251,3.900,-4.600,-3.600,-1.900
1.252,3.600,-4.100,-3.300,-2.600
1.253,3.200,-3.800,-3.100,-2.600
1.254,3.000,-3.500,-2.800,-2.000
1.255,3.200,-2.900,-2.300,-1.000
1.256,3.900,-2.000,-1.400,-0.100
1.257,4.600,-0.900,-0.200,0.100
1.258,5.000,0.000,0.900,-0.400
1.259,5.100,0.600,1.600,-1.200
1.260,4.800,0.700,1.600,-1.800
1.261,4.500,0.500,1.200,-1.900
1.262,4.400,0.400,0.600,-1.500
1.263,4.600,0.300,0.300,-0.900
1.264,5.000,0.300,0.400,-0.400
1.265,5.200,0.300,0.800,-0.300
1.266,5.300,0.000,1.200,-0.500
1.267,5.300,-0.500,1.400,-0.800
1.268,5.200,-1.100,1.400,-0.900
1.269,5.300,-1.500,1.400,-0.800
1.270,5.400,-1.600,1.300,-0.600
1.271,5.500,-1.400,1.200,-0.600
1.272,5.400,-1.000,0.800,-1.000
1.273,5.100,-0.800,0.200,-1.700
1.274,4.700,-0.900,-0.400,-2.500
1.275,4.300,-1.400,-0.600,-3.000
1.276,4.200,-2.200,0.000,-2.800
1.277,4.200,-3.000,1.200,-2.000
1.278,4.300,-3.500,2.800,-0.600
1.279,4.600,-3.600,4.100,1.000
1.280,5.000,-3.200,4.600,2.200
1.281,5.500,-2.700,4.300,2.700
1.282,6.100,-2.300,3.500,2.400
1.283,6.500,-2.300,2.700,1.700
1.284,6.500,-2.600,2.100,1.100
1.285,6.300,-3.100,1.900,0.800
1.286,5.800,-3.400,2.200,1.100
1.287,5.700,-3.400,2.700,1.700
1.288,5.900,-3.100,3.400,2.200
1.289,6.400,-2.800,3.900,2.200
1.290,7.000,-2.600,4.300,1.800
1.291,7.100,-2.700,4.400,1.100
1.292,6.700,-2.800,4.100,0.600
1.293,5.900,-2.800,3.600,0.600
1.294,5.000,-2.700,3.000,0.900
1.295,4.500,-2.400,2.700,1.200
1.296,4.400,-2.100,2.600,1.400
1.297,4.500,-2.000,2.700,1.300
1.298,4.600,-2.000,2.900,1.000
1.299,4.400,-2.000,3.100,1.100
1.300,4.300,-2.000,3.200,1.700
1.301,4.300,-1.900,3.300,2.700
1.302,4.600,-1.800,3.300,3.800
1.303,5.300,-2.000,3.000,4.500
1.304,5.900,-2.500,2.500,4.300
1.305,6.200,-3.000,1.700,3.200
1.306,6.100,-3.300,0.800,1.700
1.307,5.600,-3.300,0.000,0.400
1.308,4.900,-3.100,-0.300,-0.300
1.309,4.300,-3.000,-0.200,-0.300
1.310,3.700,-3.200,0.200,0.100
1.311,3.300,-3.800,0.700,0.400
1.312,3.000,-4.700,1.000,0.000
1.313,2.700,-5.500,1.000,-1.000
1.314,2.500,-5.900,0.600,-2.400
1.315,2.400,-5.600,0.200,-3.400
1.316,2.500,-4.600,-0.100,-3.600
1.317,2.800,-3.400,-0.100,-2.700
1.318,3.500,-2.000,0.500,-0.900
1.319,4.600,-0.800,1.500,1.300
1.320,6.000,0.100,2.800,3.400
1.321,7.600,0.900,4.100,5.000
1.322,9.000,1.600,5.000,5.900
1.323,10.100,2.200,5.000,5.800
1.324,10.700,2.700,4.300,5.000
1.325,10.800,2.800,2.700,3.500
1.326,10.100,2.400,0.700,1.600
1.327,8.700,1.500,-1.300,-0.400
1.328,6.700,0.300,-3.100,-2.100
1.329,4.500,-0.900,-4.300,-3.300
1.330,2.600,-1.600,-4.700,-3.800
1.331,1.500,-1.700,-4.400,-4.000
1.332,1.300,-1.500,-3.700,-4.300
1.333,1.800,-1.300,-2.900,-4.800
1.334,2.200,-1.700,-2.600,-5.400
1.335,2.200,-2.700,-2.700,-6.000
1.336,1.600,-3.900,-3.100,-6.200
1.337,0.800,-4.900,-3.400,-5.900
1.338,0.200,-5.000,-3.200,-5.300
1.339,0.300,-4.200,-2.500,-4.500
1.340,0.900,-2.900,-1.400,-4.000
1.341,1.600,-1.600,-0.600,-3.600
1.342,2.000,-1.000,-0.500,-3.400
1.343,1.800,-1.300,-1.400,-3.200
1.344,1.100,-2.100,-3.000,-3.000
1.345,0.400,-2.900,-4.800,-2.800
1.346,-0.300,-3.500,-6.200,-2.700
1.347,-0.600,-3.600,-6.500,-2.600
1.348,-0.600,-3.500,-5.700,-2.500
1.349,-0.200,-3.600,-4.100,-2.400
1.350,0.500,-4.000,-2.300,-2.400
1.351,1.300,-4.900,-0.800,-2.800
1.352,2.000,-6.000,0.000,-3.700
1.353,2.500,-6.900,0.100,-4.900
1.354,2.500,-7.600,-0.100,-5.900
1.355,2.000,-7.800,-0.300,-6.300
1.356,1.400,-7.700,-0.100,-6.100
1.357,0.800,-7.400,0.100,-5.300
1.358,0.600,-6.900,0.100,-4.600
1.359,0.600,-6.300,-0.500,-4.200
1.360,0.600,-5.600,-1.600,-4.400
1.361,0.500,-4.900,-3.000,-4.800
1.362,0.200,-4.200,-4.200,-5.200
1.363,0.000,-3.800,-4.800,-5.000
1.364,0.100,-3.700,-4.800,-4.400
1.365,0.600,-3.800,-4.800,-3.800
1.366,1.200,-4.100,-5.000,-3.300
1.367,1.800,-4.200,-5.800,-3.300
1.368,2.100,-4.000,-6.800,-3.600
1.369,2.100,-3.700,-7.500,-3.800
1.370,2.100,-3.400,-7.400,-3.800
1.371,2.100,-3.200,-6.500,-3.300
1.372,2.500,-3.200,-5.000,-2.700
1.373,3.200,-3.200,-3.700,-2.200
1.374,3.800,-3.000,-3.100,-2.100
1.375,4.300,-2.500,-3.300,-2.500
1.376,4.400,-1.500,-4.200,-3.200
1.377,4.200,-0.500,-5.300,-4.000
1.378,3.900,0.200,-6.300,-4.800
1.379,3.400,0.300,-6.900,-5.500
1.380,2.800,-0.400,-7.300,-6.000
1.381,2.300,-1.700,-7.400,-6.200
1.382,1.700,-3.200,-7.300,-6.200
1.383,1.300,-4.600,-6.900,-5.800
1.384,1.200,-5.600,-6.200,-5.200
1.385,1.200,-6.100,-5.100,-4.500
1.386,1.300,-6.200,-4.100,-4.200
1.387,1.200,-6.100,-3.300,-4.300
1.388,1.000,-5.700,-2.900,-4.700
1.389,0.700,-5.300,-2.900,-5.100
1.390,0.500,-4.600,-3.000,-5.200
1.391,0.600,-3.700,-3.000,-4.700
1.392,1.000,-2.600,-2.900,-3.900
1.393,1.400,-1.600,-2.700,-3.100
1.394,1.700,-1.000,-2.500,-2.600
1.395,1.700,-0.900,-2.300,-2.600
1.396,1.700,-1.400,-2.000,-3.100
1.397,1.700,-2.100,-1.500,-3.700
1.398,2.000,-2.700,-0.800,-4.000
1.399,2.500,-3.000,0.000,-4.000
1.400,3.000,-3.000,0.600,-3.600
1.401,3.200,-2.700,0.800,-3.000
1.402,3.300,-2.200,0.700,-2.400
1.403,3.400,-1.700,0.100,-2.000
1.404,3.600,-1.100,-0.500,-1.700
1.405,4.000,-0.400,-1.200,-1.700
1.406,4.400,0.100,-1.600,-1.900
1.407,4.500,0.400,-1.600,-2.300
1.408,4.300,0.400,-1.000,-3.000
1.409,4.000,0.200,0.000,-3.600
1.410,4.000,0.000,1.300,-4.100
1.411,4.500,0.000,2.700,-4.300
1.412,5.500,0.200,3.800,-4.200
1.413,6.900,0.500,4.800,-3.800
1.414,8.400,1.000,5.700,-3.200
1.415,9.800,1.600,7.000,-2.400
1.416,11.300,2.500,8.800,-1.300
1.417,13.300,3.900,11.100,0.400
1.418,15.800,5.700,13.700,2.600
1.419,18.700,7.700,16.100,5.400
1.420,21.500,9.800,18.100,8.400
1.421,23.800,11.800,19.700,11.200
1.422,25.000,13.500,20.800,13.600
1.423,25.100,15.100,21.700,15.300
1.424,24.100,16.600,22.400,16.700
1.425,22.400,17.900,22.700,17.800
1.426,20.300,18.500,22.700,19.000
1.427,17.700,18.300,22.400,20.400
1.428,14.700,17.300,21.800,21.900
1.429,11.200,15.700,21.400,23.400
1.430,7.000,14.000,21.200,25.100
1.431,2.400,12.800,21.200,26.900
1.432,-2.600,12.200,21.100,29.000
1.433,-7.700,11.800,20.800,31.400
1.434,-12.400,11.500,20.000,33.800
1.435,-16.600,10.700,18.800,36.200
1.436,-20.300,9.500,17.300,38.200
1.437,-23.800,8.000,15.700,39.800
1.438,-27.700,6.100,14.100,40.700
1.439,-32.100,3.900,12.100,40.900
1.440,-37.300,1.300,9.700,40.000
1.441,-42.800,-1.800,6.600,38.200
1.442,-48.200,-5.400,3.200,35.500
1.443,-52.800,-9.000,-0.200,32.400
1.444,-56.200,-12.200,-3.000,29.500
1.445,-58.300,-14.500,-4.800,27.500
1.446,-59.300,-15.700,-5.600,26.700
1.447,-59.600,-15.900,-5.500,26.900
1.448,-59.700,-15.600,-5.000,27.500
1.449,-59.600,-15.200,-4.400,27.800
1.450,-59.200,-15.200,-4.100,27.000
1.451,-58.200,-15.500,-4.300,24.900
1.452,-56.400,-16.200,-5.100,21.500
1.453,-53.800,-17.000,-6.500,17.000
1.454,-50.300,-17.800,-8.400,11.900
1.455,-46.300,-18.600,-10.900,6.400
1.456,-42.000,-19.500,-13.700,0.600
1.457,-37.300,-20.500,-16.700,-5.400
1.458,-32.600,-21.500,-19.800,-11.200
1.459,-27.900,-22.300,-22.700,-16.600
1.460,-23.300,-22.700,-25.000,-21.100
1.461,-19.200,-22.600,-26.500,-24.500
1.462,-15.800,-22.000,-27.100,-26.600
1.463,-13.000,-21.000,-26.900,-27.500
1.464,-10.800,-19.800,-26.200,-27.700
1.465,-9.200,-18.600,-25.200,-27.400
1.466,-7.900,-17.200,-24.200,-27.100
1.467,-6.700,-15.800,-23.200,-26.800
1.468,-5.500,-14.400,-22.500,-26.700
1.469,-4.300,-13.100,-22.100,-26.800
1.470,-3.300,-12.100,-22.100,-27.100
1.471,-2.600,-11.800,-22.600,-27.600
1.472,-2.300,-12.000,-23.400,-28.000
1.473,-2.300,-12.700,-24.200,-28.300
1.474,-2.500,-13.300,-24.500,-28.400
1.475,-2.700,-13.400,-24.300,-28.200
1.476,-2.700,-12.600,-23.500,-27.800
1.477,-2.700,-11.100,-22.200,-27.000
1.478,-2.600,-9.100,-20.700,-25.900
1.479,-2.400,-7.200,-19.000,-24.400
1.480,-2.100,-5.900,-17.000,-22.600
1.481,-1.500,-5.100,-14.600,-20.800
1.482,-0.600,-4.700,-12.200,-19.100
1.483,0.600,-4.200,-10.000,-17.600
1.484,1.700,-3.200,-8.400,-16.300
1.485,2.500,-1.700,-7.500,-14.900
1.486,2.900,0.200,-7.200,-13.200
1.487,2.900,1.900,-7.000,-11.200
1.488,2.800,3.300,-6.500,-9.100
1.489,2.900,4.100,-5.800,-7.200
1.490,3.200,4.300,-5.200,-6.100
1.491,3.400,4.200,-4.800,-5.800
1.492,3.300,3.900,-5.000,-6.000
1.493,2.900,3.600,-5.400,-6.400
1.494,2.200,3.300,-5.800,-6.600
1.495,1.600,3.000,-5.800,-6.400
1.496,1.400,2.700,-5.400,-6.000
1.497,1.600,2.200,-4.800,-5.700
1.498,1.900,1.700,-4.600,-5.500
1.499,2.200,1.300,-4.900,-5.500
1.500,2.200,1.200,-5.500,-5.400
1.501,1.800,1.300,-6.200,-5.000
1.502,1.400,1.800,-6.700,-4.400
1.503,1.000,2.400,-6.800,-3.800
1.504,0.700,3.000,-6.700,-3.400
1.505,0.300,3.500,-6.600,-3.500
1.506,0.000,4.000,-6.500,-3.700
1.507,-0.400,4.500,-6.400,-3.800
1.508,-0.600,5.300,-6.000,-3.400
1.509,-0.400,6.300,-5.300,-2.500
1.510,0.100,7.500,-4.100,-1.300
1.511,0.900,8.700,-3.000,-0.400
1.512,1.700,9.700,-2.000,-0.100
1.513,2.200,10.300,-1.500,-0.300
1.514,2.100,10.400,-1.400,-0.900
1.515,1.500,10.300,-1.300,-1.500
1.516,0.800,10.100,-0.900,-1.700
1.517,0.300,9.900,-0.300,-1.500
1.518,0.400,9.900,0.500,-1.200
1.519,1.100,9.800,1.100,-1.000
1.520,2.100,9.800,1.300,-1.200
1.521,2.800,9.600,1.200,-1.500
1.522,2.800,9.200,0.800,-1.900
1.523,2.100,8.800,0.400,-2.100
1.524,0.900,8.500,0.300,-2.000
1.525,-0.300,8.300,0.400,-1.600
1.526,-1.100,8.400,0.600,-1.000
1.527,-1.100,8.700,0.900,-0.300
1.528,-0.200,9.300,1.300,0.500
1.529,1.100,10.100,1.700,1.200
1.530,2.500,11.100,2.300,2.000
1.531,3.800,12.100,3.100,2.800
1.532,4.700,13.300,3.700,3.800
1.533,5.500,14.400,4.100,5.000
1.534,6.100,15.400,4.200,6.300
1.535,6.700,16.000,4.200,7.300
1.536,7.200,16.200,4.000,7.700
1.537,7.400,15.700,3.900,7.400
1.538,7.200,14.600,3.600,6.500
1.539,6.400,13.000,3.200,5.400
1.540,5.300,11.600,2.500,4.400
1.541,4.200,10.800,1.700,3.700
1.542,3.600,10.900,1.100,3.300
1.543,3.400,11.800,0.700,2.800
1.544,3.400,13.100,0.600,2.300
1.545,3.400,13.900,0.500,1.800
1.546,3.100,13.900,0.400,1.600
1.547,2.400,13.000,0.000,1.900
1.548,1.700,11.800,-0.400,2.700
1.549,1.100,10.700,-0.700,3.500
1.550,0.900,10.300,-0.600,4.100
1.551,1.000,10.300,-0.300,4.200
1.552,1.000,10.600,0.100,3.900
1.553,0.800,10.900,0.400,3.700
1.554,0.400,10.900,0.500,3.600
1.555,0.000,10.800,0.600,3.600
1.556,-0.400,10.800,0.700,3.600
1.557,-0.600,10.800,0.700,3.400
1.558,-0.900,10.700,0.600,2.900
1.559,-1.600,10.200,0.300,2.400
1.560,-2.600,9.400,-0.400,1.900
1.561,-3.800,8.700,-1.400,1.500
1.562,-4.900,8.400,-2.300,1.100
1.563,-5.400,8.700,-3.000,0.700
1.564,-5.400,9.500,-3.400,0.400
1.565,-4.900,10.500,-3.200,0.500
1.566,-4.200,11.300,-2.500,1.400
1.567,-3.400,12.100,-1.000,2.900
1.568,-2.300,13.100,0.900,5.000
1.569,-1.000,14.300,3.000,7.200
1.570,0.500,15.800,4.700,9.000
1.571,2.000,17.300,5.900,10.500
1.572,3.300,18.500,6.700,12.300
1.573,4.400,19.400,8.000,15.000
1.574,5.800,20.700,10.400,19.100
1.575,7.700,23.000,14.000,24.600
1.576,10.500,26.600,18.400,30.700
1.577,13.800,30.900,22.200,36.100
1.578,16.900,34.700,24.300,39.700
1.579,18.700,36.900,24.200,41.000
1.580,18.800,36.700,22.500,39.900
1.581,17.500,34.300,20.000,37.300
1.582,15.400,30.800,17.900,34.000
1.583,13.400,27.400,16.200,30.400
1.584,11.800,24.500,14.700,26.500
1.585,10.400,22.000,12.400,22.000
1.586,8.700,19.200,8.900,16.700
1.587,6.200,15.600,4.700,10.900
1.588,3.000,11.200,0.500,5.200
1.589,-0.300,6.700,-2.600,0.400
1.590,-2.900,3.100,-4.100,-3.000
1.591,-4.600,0.800,-4.200,-5.100
1.592,-5.500,-0.100,-3.700,-6.300
1.593,-6.200,-0.200,-3.400,-7.200
1.594,-7.000,-0.100,-3.700,-7.800
1.595,-8.000,-0.100,-4.300,-7.900
1.596,-9.100,0.000,-4.800,-7.200
1.597,-9.500,0.500,-4.700,-5.400
1.598,-9.000,1.700,-3.800,-2.800
1.599,-7.700,3.500,-2.200,0.000
1.600,-6.000,5.300,-0.300,2.500
1.601,-4.500,6.600,1.500,4.200
1.602,-3.600,7.100,2.800,5.500
1.603,-3.300,6.800,3.600,6.500
1.604,-3.400,6.000,4.000,7.400
1.605,-3.700,5.300,4.000,8.300
1.606,-4.100,4.800,3.700,8.800
1.607,-4.500,4.400,3.400,9.000
1.608,-5.100,4.300,3.300,8.700
1.609,-5.700,4.500,3.600,8.600
1.610,-6.000,5.200,4.200,8.800
1.611,-5.800,6.400,5.100,9.400
1.612,-5.200,7.800,5.800,10.200
1.613,-4.500,8.800,6.100,10.800
1.614,-4.100,9.000,5.900,11.100
1.615,-4.200,8.300,5.400,11.200
1.616,-4.900,7.100,4.900,11.400
1.617,-5.700,6.200,4.600,12.100
1.618,-6.300,6.000,4.600,12.900
1.619,-6.600,6.500,4.700,13.600
1.620,-6.800,7.400,4.600,13.700
1.621,-7.100,7.900,4.200,13.200
1.622,-7.800,7.700,3.700,12.500
1.623,-8.600,6.900,3.500,12.000
1.624,-9.300,5.900,3.900,12.400
1.625,-9.400,5.300,4.700,13.500
1.626,-8.700,5.100,5.900,14.800
1.627,-7.600,5.300,6.900,15.700
1.628,-6.200,5.300,7.600,15.600
1.629,-5.200,4.900,7.700,14.600
1.630,-4.700,4.100,7.300,13.300
1.631,-4.900,3.400,6.400,12.200
1.632,-5.500,3.100,5.200,11.800
1.633,-6.300,3.200,3.800,11.900
1.634,-7.100,3.500,2.700,12.400
1.635,-7.700,3.600,2.100,12.800
1.636,-8.300,3.400,2.100,13.100
1.637,-8.900,2.800,2.600,13.100
1.638,-9.500,2.300,3.400,13.000
1.639,-10.200,2.200,4.200,13.100
1.640,-10.700,2.700,4.900,13.500
1.641,-10.800,3.600,5.300,14.200
1.642,-10.600,4.500,5.800,15.000
1.643,-10.200,5.100,6.400,15.600
1.644,-9.800,5.100,7.100,15.900
1.645,-9.700,4.600,7.600,15.700
1.646,-10.000,4.000,7.700,15.300
1.647,-10.600,3.400,7.400,14.900
1.648,-11.400,3.100,6.800,14.800
1.649,-12.100,3.000,6.100,15.100
1.650,-12.700,2.900,5.600,15.500
1.651,-13.500,2.500,5.200,15.600
1.652,-14.600,1.700,4.800,15.000
1.653,-16.000,0.600,4.200,13.900
1.654,-17.700,-0.400,3.500,12.600
1.655,-19.100,-1.100,2.800,11.900
1.656,-19.900,-1.000,2.300,12.200
1.657,-19.600,-0.200,1.900,13.200
1.658,-18.500,1.000,1.700,14.500
1.659,-17.100,2.100,1.600,15.300
1.660,-16.000,2.800,1.500,15.300
1.661,-15.800,2.700,1.400,14.500
1.662,-16.600,2.000,1.300,13.500
1.663,-18.000,1.000,1.500,12.900
1.664,-19.600,0.200,1.900,12.800
1.665,-20.600,-0.300,2.500,13.100
1.666,-21.000,-0.500,3.300,13.300
1.667,-20.900,-0.800,4.100,13.100
1.668,-20.700,-1.500,4.600,12.600
1.669,-20.900,-2.800,4.700,12.000
1.670,-21.700,-4.500,4.300,11.600
1.671,-22.900,-6.000,3.600,11.600
1.672,-24.000,-6.900,3.000,11.800
1.673,-24.800,-6.700,2.700,12.000
1.674,-24.900,-5.600,2.900,12.300
1.675,-24.300,-4.200,3.600,12.700
1.676,-23.500,-2.900,4.500,13.300
1.677,-22.600,-2.300,5.300,14.400
1.678,-21.800,-2.200,5.900,16.000
1.679,-21.300,-2.700,6.200,17.600
1.680,-21.000,-3.200,6.200,18.700
1.681,-20.800,-3.600,6.100,18.900
1.682,-20.600,-3.800,5.800,18.000
1.683,-20.400,-3.700,5.300,16.700
1.684,-20.200,-3.300,4.900,15.500
1.685,-19.800,-2.500,4.700,15.100
1.686,-19.300,-1.500,4.800,15.700
1.687,-18.500,-0.600,5.200,16.700
1.688,-17.700,0.100,5.400,17.600
1.689,-17.200,0.300,5.400,17.600
1.690,-17.000,-0.100,5.000,16.700
1.691,-17.200,-0.700,4.400,15.200
1.692,-17.700,-1.200,3.800,13.800
1.693,-18.200,-1.400,3.200,12.900
1.694,-18.600,-1.300,2.700,12.600
1.695,-18.900,-1.200,2.000,12.500
1.696,-19.100,-1.400,1.300,12.300
1.697,-19.200,-1.900,0.800,11.800
1.698,-18.900,-2.400,0.700,11.100
1.699,-18.200,-2.600,1.100,10.600
1.700,-16.900,-2.400,1.900,10.500
1.701,-15.300,-1.800,2.700,10.900
1.702,-13.600,-1.200,3.200,11.500
1.703,-12.500,-0.900,3.400,12.100
1.704,-11.800,-0.800,3.600,12.800
1.705,-11.500,-0.700,4.200,13.300
1.706,-11.100,-0.200,5.400,13.900
1.707,-10.200,0.600,7.100,14.200
1.708,-8.700,1.400,8.500,14.100
1.709,-6.900,1.900,9.300,13.500
1.710,-5.500,1.700,9.200,12.600
1.711,-4.800,1.100,8.200,11.600
1.712,-4.900,0.700,7.000,10.800
1.713,-5.500,0.800,6.200,10.300
1.714,-5.900,1.800,6.100,10.200
1.715,-5.800,3.100,6.700,10.000
1.716,-5.100,4.200,7.500,9.600
1.717,-4.300,4.700,8.100,9.100
1.718,-3.700,4.400,8.200,8.600
1.719,-3.600,3.900,7.800,8.500
1.720,-3.700,3.700,7.200,8.800
1.721,-3.700,4.200,6.800,9.200
1.722,-3.000,5.200,6.700,9.400
1.723,-1.600,6.100,6.800,9.100
1.724,0.000,6.300,6.800,8.300
1.725,1.300,5.700,6.500,7.200
1.726,1.800,4.300,5.800,6.100
1.727,1.400,2.800,5.100,5.200
1.728,0.500,1.900,4.700,4.600
1.729,-0.100,1.900,4.900,4.100
1.730,-0.100,2.900,5.600,3.700
1.731,0.900,4.400,6.700,3.300
1.732,2.700,6.000,7.700,3.100
1.733,4.800,7.400,8.600,3.400
1.734,6.800,8.300,9.400,4.200
1.735,8.500,8.900,10.100,5.500
1.736,9.900,9.500,10.700,6.800
1.737,11.100,9.900,11.200,7.800
1.738,11.900,10.000,11.200,8.000
1.739,12.200,9.600,10.500,7.300
1.740,11.700,8.400,9.100,5.800
1.741,10.500,6.600,7.100,4.000
1.742,9.000,4.600,4.900,2.200
1.743,7.600,3.000,3.000,0.800
1.744,6.800,2.400,1.800,-0.100
1.745,6.700,2.900,1.300,-0.500
1.746,7.100,4.100,1.100,-0.700
1.747,7.500,5.500,1.000,-1.000
1.748,7.600,6.500,0.600,-1.600
1.749,7.300,7.200,0.000,-2.100
1.750,6.700,7.700,-0.400,-2.500
1.751,6.400,8.500,-0.500,-2.500
1.752,6.500,9.900,0.000,-2.000
1.753,7.100,11.800,0.800,-1.300
1.754,7.800,13.500,1.400,-0.800
1.755,8.400,14.700,1.400,-0.700
1.756,8.500,14.900,0.800,-1.100
1.757,8.100,14.400,-0.400,-1.900
1.758,7.600,13.700,-1.500,-2.600
1.759,7.100,13.200,-2.100,-2.900
1.760,7.000,13.400,-1.900,-2.700
1.761,7.300,13.800,-1.100,-2.200
1.762,7.600,14.100,0.100,-1.800
1.763,7.900,13.800,1.300,-1.600
1.764,7.800,12.500,2.200,-1.800
1.765,7.400,10.600,2.500,-2.200
1.766,6.700,8.600,2.400,-2.500
1.767,6.100,7.400,1.900,-2.500
1.768,5.900,7.100,1.400,-2.200
1.769,6.200,7.700,0.900,-1.700
1.770,6.900,8.600,0.500,-1.200
1.771,7.600,9.400,0.300,-0.800
1.772,7.900,9.700,0.100,-0.600
1.773,7.800,9.400,-0.100,-0.600
1.774,7.200,9.000,-0.300,-0.800
1.775,6.400,8.700,-0.500,-1.200
1.776,5.600,8.600,-0.800,-1.800
1.777,5.100,8.800,-0.900,-2.400
1.778,5.000,8.900,-0.800,-2.900
1.779,5.000,8.600,-0.500,-3.200
1.780,5.100,7.900,0.100,-3.100
1.781,5.000,7.000,0.700,-2.900
1.782,4.600,6.400,1.000,-2.800
1.783,4.000,6.400,0.800,-3.000
1.784,3.600,6.800,0.300,-3.300
1.785,3.700,7.200,-0.400,-3.600
1.786,4.200,7.200,-1.000,-3.600
1.787,5.000,6.500,-1.400,-3.200
1.788,5.700,5.300,-1.500,-2.700
1.789,5.900,4.200,-1.500,-2.400
1.790,5.700,3.800,-1.700,-2.500
1.791,5.300,4.300,-2.100,-3.000
1.792,5.000,5.300,-2.800,-3.800
1.793,5.100,6.500,-3.400,-4.500
1.794,5.400,7.000,-3.800,-4.900
1.795,5.500,6.900,-3.700,-4.800
1.796,5.500,6.300,-3.100,-4.300
1.797,5.400,5.900,-2.000,-3.600
1.798,5.700,6.100,-0.500,-2.900
1.799,6.600,7.000,1.000,-2.400
1.800,7.900,8.200,2.100,-2.100
1.801,9.100,9.200,2.500,-2.200
1.802,9.600,9.500,2.000,-2.500
1.803,8.900,8.800,0.900,-3.000
1.804,7.500,7.300,-0.600,-3.600
1.805,6.100,5.300,-1.900,-4.100
1.806,5.200,3.500,-2.700,-4.300
1.807,5.100,2.100,-2.800,-4.100
1.808,5.800,1.500,-2.600,-3.600
1.809,6.800,1.800,-2.000,-2.800
1.810,7.900,3.000,-1.300,-1.700
1.811,8.900,4.800,-0.500,-0.700
1.812,9.900,6.700,0.200,0.200
1.813,10.900,8.300,0.800,0.800
1.814,11.800,9.300,1.200,1.000
1.815,12.400,9.500,1.300,0.800
1.816,12.700,9.200,1.200,0.400
1.817,12.500,8.800,1.100,0.000
1.818,12.100,8.600,1.200,-0.200
1.819,11.600,8.600,1.300,-0.400
1.820,11.000,8.900,1.300,-0.500
1.821,10.600,9.200,1.300,-0.700
1.822,10.300,9.400,1.200,-1.100
1.823,10.400,9.400,1.200,-1.300
1.824,10.700,9.400,1.500,-1.400
1.825,11.100,9.400,2.000,-1.100
1.826,11.300,9.300,2.300,-0.800
1.827,10.900,9.000,2.100,-0.700
1.828,10.100,8.500,1.500,-0.900
1.829,9.100,7.900,0.700,-1.600
1.830,8.400,7.500,0.400,-2.400
1.831,8.400,7.300,0.800,-3.000
1.832,9.200,7.700,1.900,-3.200
1.833,10.400,8.400,3.200,-2.800
1.834,11.600,9.200,3.900,-2.000
1.835,12.500,9.900,3.800,-1.200
1.836,13.100,10.200,3.000,-0.400
1.837,13.600,10.100,2.100,0.100
1.838,14.000,9.800,1.600,0.300
1.839,14.400,9.200,1.600,0.400
1.840,14.600,8.600,1.900,0.400
1.841,14.200,7.900,2.100,0.500
1.842,13.100,7.300,1.900,0.500
1.843,11.500,6.800,1.400,0.400
1.844,9.800,6.400,0.900,0.100
1.845,8.200,6.200,0.700,-0.500
1.846,7.100,6.000,0.600,-1.500
1.847,6.300,5.600,0.600,-2.700
1.848,5.800,4.900,0.300,-3.900
1.849,5.300,3.900,-0.500,-4.600
1.850,5.000,2.900,-1.600,-4.900
1.851,4.900,2.000,-2.600,-4.700
1.852,5.200,1.600,-3.400,-4.400
1.853,5.800,1.700,-3.700,-4.300
1.854,6.500,2.200,-3.800,-4.400
1.855,7.000,2.800,-3.600,-4.800
1.856,7.300,3.100,-3.400,-5.100
1.857,7.300,3.200,-3.200,-5.100
1.858,7.400,3.000,-2.900,-4.700
1.859,7.700,2.900,-2.700,-3.900
1.860,8.200,2.800,-2.500,-3.000
1.861,8.700,2.700,-2.400,-2.500
1.862,8.700,2.500,-2.500,-2.600
1.863,8.100,2.000,-2.800,-3.200
1.864,7.200,1.300,-3.000,-4.300
1.865,6.200,0.600,-3.300,-5.300
1.866,5.600,0.300,-3.500,-6.000
1.867,5.600,0.600,-3.700,-6.400
1.868,6.200,1.300,-3.900,-6.700
1.869,6.900,2.000,-4.500,-7.200
1.870,7.300,2.400,-5.300,-7.900
1.871,7.300,2.000,-6.400,-8.500
1.872,6.800,1.200,-7.500,-8.900
1.873,6.100,0.300,-8.300,-8.700
1.874,5.400,-0.300,-8.300,-8.000
1.875,5.100,-0.400,-7.600,-6.900
1.876,5.100,0.000,-6.300,-5.900
1.877,5.500,0.400,-4.800,-5.100
1.878,5.900,0.700,-3.900,-4.500
1.879,6.300,0.900,-3.600,-4.100
1.880,6.600,1.000,-3.900,-3.700
1.881,6.800,1.400,-4.600,-3.200
1.882,7.000,2.200,-5.100,-2.800
1.883,7.400,3.100,-5.200,-2.400
1.884,7.800,4.000,-4.900,-2.300
1.885,8.100,4.500,-4.300,-2.400
1.886,8.100,4.500,-3.700,-2.300
1.887,7.900,3.700,-3.100,-2.100
1.888,7.300,2.500,-2.500,-1.700
1.889,6.600,1.100,-1.900,-1.100
1.890,5.900,0.000,-1.400,-0.600
1.891,5.500,-0.700,-1.000,-0.100
1.892,5.500,-0.600,-0.600,0.200
1.893,6.000,0.200,-0.400,0.200
1.894,6.700,1.200,-0.300,0.000
1.895,7.400,2.200,-0.500,-0.400
1.896,7.800,2.700,-0.900,-1.100
1.897,7.700,2.800,-1.700,-1.800
1.898,7.000,2.600,-2.500,-2.400
1.899,6.300,2.500,-3.000,-2.500
1.900,5.800,2.800,-2.900,-2.100
1.901,6.100,3.400,-2.000,-1.300
1.902,6.900,4.300,-0.800,-0.500
1.903,7.900,5.100,0.300,-0.200
1.904,8.400,5.500,0.800,-0.400
1.905,8.200,5.400,0.500,-1.200
1.906,7.200,4.600,-0.400,-2.200
1.907,6.000,3.400,-1.300,-2.800
1.908,5.000,2.100,-1.700,-2.600
1.909,4.700,1.300,-1.400,-1.700
1.910,5.200,1.300,-0.600,-0.400
1.911,6.300,2.400,0.300,0.500
1.912,7.600,4.200,1.000,0.500
1.913,8.600,6.100,1.000,-0.500
1.914,9.200,7.300,0.700,-2.000
1.915,9.300,7.500,0.200,-3.600
1.916,9.000,6.900,-0.200,-4.700
1.917,8.400,5.800,-0.300,-5.000
1.918,7.800,5.000,-0.300,-4.900
1.919,7.200,4.500,-0.300,-4.700
1.920,6.800,4.300,-0.700,-4.600
1.921,6.600,4.000,-1.400,-4.900
1.922,6.600,3.700,-2.400,-5.200
1.923,6.600,3.300,-3.200,-5.400
1.924,6.600,3.200,-3.600,-5.400
1.925,6.300,3.200,-3.600,-5.500
1.926,5.900,2.900,-3.400,-5.700
1.927,5.200,2.100,-3.300,-6.300
1.928,4.500,0.600,-3.700,-7.000
1.929,3.900,-1.400,-4.400,-7.600
1.930,3.800,-3.100,-5.200,-7.600
1.931,4.400,-3.800,-5.600,-6.900
1.932,5.700,-3.300,-5.200,-5.700
1.933,7.500,-1.700,-4.000,-4.200
1.934,9.400,0.200,-2.500,-2.700
1.935,10.800,1.900,-0.900,-1.500
1.936,11.800,2.900,0.200,-0.700
1.937,12.300,3.500,0.900,-0.300
1.938,12.800,3.700,1.500,-0.300
1.939,13.400,3.800,2.100,-0.600
1.940,13.900,3.600,2.700,-1.200
1.941,13.900,2.800,3.000,-2.000
1.942,13.000,1.400,2.800,-2.900
1.943,11.200,-0.600,1.800,-3.700
1.944,8.900,-2.600,0.500,-4.400
1.945,6.900,-3.900,-0.700,-4.900
1.946,5.600,-4.100,-1.500,-5.200
1.947,5.300,-3.300,-1.900,-5.500
1.948,5.600,-1.800,-2.100,-5.900
1.949,5.800,-0.500,-2.500,-6.400
1.950,5.700,0.000,-3.500,-7.000
1.951,5.000,-0.300,-4.700,-7.300
1.952,4.300,-1.400,-6.000,-7.100
1.953,3.900,-2.700,-6.900,-6.600
1.954,4.100,-3.600,-7.200,-6.000
1.955,4.700,-3.800,-7.000,-5.500
1.956,5.500,-3.400,-6.600,-5.400
1.957,6.000,-2.500,-6.200,-5.600
1.958,6.100,-1.600,-5.900,-5.900
1.959,5.700,-0.900,-5.600,-6.100
1.960,5.200,-0.600,-5.300,-6.000
1.961,4.700,-0.600,-4.900,-5.700
1.962,4.600,-0.800,-4.200,-5.300
1.963,4.800,-0.900,-3.600,-5.000
1.964,5.200,-1.100,-3.200,-4.900
1.965,5.600,-1.400,-3.200,-5.200
1.966,5.600,-2.100,-3.800,-5.700
1.967,5.200,-3.000,-4.700,-6.500
1.968,4.400,-4.100,-5.500,-7.400
1.969,3.500,-5.000,-5.900,-8.300
1.970,2.700,-5.600,-5.800,-8.800
1.971,2.200,-5.700,-5.300,-9.100
1.972,2.000,-5.400,-4.800,-9.000
1.973,2.200,-4.800,-4.600,-8.800
1.974,2.400,-4.100,-4.700,-8.600
1.975,2.800,-3.400,-5.000,-8.500
1.976,3.100,-2.600,-5.200,-8.400
1.977,3.400,-1.700,-5.100,-8.300
1.978,3.600,-0.700,-4.800,-7.900
1.979,3.900,0.300,-4.400,-7.300
1.980,4.200,1.200,-4.200,-6.600
1.981,4.700,1.700,-4.100,-6.000
1.982,5.300,1.600,-4.200,-5.500
1.983,5.700,1.200,-4.200,-5.300
1.984,5.800,0.400,-4.300,-5.200
1.985,5.500,-0.400,-4.600,-5.200
1.986,5.000,-1.000,-5.100,-5.300
1.987,4.600,-1.200,-5.800,-5.400
1.988,4.600,-1.000,-6.500,-5.600
1.989,5.000,-0.700,-7.000,-6.000
1.990,5.400,-0.300,-7.100,-6.500
1.991,5.500,-0.200,-6.800,-6.800
1.992,5.000,-0.600,-6.300,-6.800
1.993,4.000,-1.200,-5.800,-6.200
1.994,3.100,-2.000,-5.400,-5.200
1.995,2.800,-2.600,-5.100,-4.000
1.996,3.400,-2.700,-4.700,-2.900
1.997,4.500,-2.200,-4.100,-2.000
1.998,5.700,-1.400,-3.400,-1.400
1.999,6.500,-0.600,-2.800,-1.000
2.000,6.600,0.000,-2.500,-0.800
2.001,6.200,0.100,-2.700,-0.600
2.002,5.600,-0.300,-3.300,-0.400
2.003,5.100,-0.700,-4.200,-0.400
2.004,4.900,-0.900,-4.800,-0.500
2.005,4.900,-0.600,-4.800,-0.600
2.006,5.000,0.200,-4.100,-0.600
2.007,5.200,1.200,-2.800,-0.600
2.008,5.500,2.100,-1.500,-0.500
2.009,6.000,2.500,-0.600,-0.600
2.010,6.400,2.300,-0.500,-0.800
2.011,6.600,1.400,-0.900,-1.000
2.012,6.500,0.500,-1.500,-1.100
2.013,6.100,-0.200,-1.600,-0.800
2.014,5.600,0.000,-1.200,-0.100
2.015,5.300,1.000,-0.300,0.700
2.016,5.400,2.400,0.500,1.500
2.017,5.600,3.500,0.900,1.700
2.018,5.900,3.500,0.600,1.200
2.019,5.800,2.300,-0.100,0.400
2.020,5.400,0.400,-0.900,-0.400
2.021,4.800,-1.600,-1.300,-0.900
2.022,4.200,-3.000,-0.900,-0.800
2.023,3.600,-3.600,-0.100,-0.400
2.024,3.200,-3.500,0.600,-0.100
2.025,2.900,-3.200,1.000,-0.200
2.026,2.400,-3.000,0.700,-0.600
2.027,2.100,-2.800,0.200,-1.000
2.028,2.100,-2.400,-0.300,-1.300
2.029,2.500,-1.700,-0.100,-1.100
2.030,3.300,-1.000,0.600,-0.600
2.031,4.300,-0.600,1.500,0.100
2.032,5.000,-0.600,2.200,0.800
2.033,5.300,-1.100,2.400,1.500
2.034,5.100,-1.800,1.900,2.300
2.035,4.700,-2.300,1.100,3.200
2.036,4.300,-2.500,0.300,4.000
2.037,4.000,-2.200,-0.200,4.700
2.038,3.900,-1.700,0.100,5.700
2.039,4.200,-0.700,1.300,7.500
2.040,5.000,1.200,3.400,10.800
2.041,6.900,4.100,6.500,15.600
2.042,9.700,8.000,10.000,21.400
2.043,13.500,12.200,13.400,26.800
2.044,17.200,15.500,15.900,30.600
2.045,20.100,17.000,16.900,32.000
2.046,21.300,16.400,16.400,31.000
2.047,20.700,14.300,14.900,28.700
2.048,18.800,11.400,13.000,25.900
2.049,16.400,8.700,11.000,23.200
2.050,14.300,6.400,9.200,20.300
2.051,12.800,4.300,7.100,16.700
2.052,11.400,1.700,4.300,11.600
2.053,9.500,-2.000,0.600,5.000
2.054,6.700,-6.600,-3.800,-2.400
2.055,3.100,-11.700,-8.100,-9.500
2.056,-0.900,-16.300,-11.700,-15.200
2.057,-4.500,-19.500,-13.900,-18.900
2.058,-6.800,-20.800,-14.800,-20.500
2.059,-7.800,-20.500,-14.700,-20.300
2.060,-7.500,-19.200,-14.200,-19.000
2.061,-6.500,-17.400,-13.600,-17.300
2.062,-5.500,-15.500,-13.000,-15.600
2.063,-4.600,-13.800,-12.100,-14.000
2.064,-3.800,-11.900,-10.800,-12.600
2.065,-3.100,-9.800,-9.200,-11.100
2.066,-2.300,-7.800,-7.700,-9.600
2.067,-1.500,-6.000,-6.500,-7.900
2.068,-0.700,-4.900,-6.000,-6.400
2.069,0.000,-4.500,-5.900,-5.100
2.070,0.600,-4.700,-5.800,-4.000
2.071,1.200,-4.800,-5.400,-3.100
2.072,1.900,-4.600,-4.500,-2.300
2.073,2.600,-4.100,-3.600,-1.500
2.074,3.300,-3.500,-2.900,-0.700
2.075,3.800,-3.400,-2.600,-0.300
2.076,4.000,-3.800,-2.600,-0.200
2.077,4.000,-4.800,-2.700,-0.700
2.078,4.000,-6.000,-2.600,-1.500
2.079,4.000,-6.900,-2.700,-2.600
2.080,4.100,-7.500,-3.000,-3.500
2.081,4.000,-7.600,-3.700,-3.900
2.082,3.900,-7.500,-4.500,-3.600
2.083,3.800,-7.200,-5.000,-2.700
2.084,3.800,-6.600,-4.900,-1.400
2.085,4.200,-6.000,-4.000,-0.400
2.086,4.800,-5.300,-3.000,0.000
2.087,5.500,-4.800,-2.400,-0.500
2.088,5.800,-4.900,-2.600,-1.700
2.089,5.800,-5.700,-3.500,-3.100
2.090,5.300,-7.000,-4.600,-4.100
2.091,4.600,-8.400,-5.200,-4.500
2.092,4.000,-9.700,-5.000,-4.200
2.093,3.500,-10.700,-3.900,-3.600
2.094,3.300,-11.200,-2.400,-3.200
2.095,3.300,-11.700,-1.000,-3.100
2.096,3.400,-12.000,-0.200,-3.200
2.097,3.700,-12.300,0.100,-3.400
2.098,4.200,-12.200,-0.300,-3.400
2.099,4.600,-11.900,-0.900,-3.100
2.100,4.800,-11.300,-1.500,-2.400
2.101,4.600,-11.000,-2.100,-1.700
2.102,4.200,-11.200,-2.400,-1.100
2.103,3.600,-11.900,-2.600,-0.800
2.104,3.200,-12.800,-2.800,-0.900
2.105,3.000,-13.500,-3.100,-1.300
2.106,3.200,-13.400,-3.600,-2.000
2.107,3.400,-12.600,-4.200,-2.800
2.108,3.500,-11.500,-4.700,-3.300
2.109,3.200,-10.800,-4.900,-3.400
2.110,2.900,-10.800,-4.800,-2.900
2.111,2.600,-11.600,-4.500,-2.000
2.112,2.500,-12.700,-4.100,-1.000
2.113,2.600,-13.400,-3.800,-0.300
2.114,2.800,-13.400,-3.800,0.100
2.115,2.700,-12.700,-3.700,0.000
2.116,2.400,-11.800,-3.800,-0.300
2.117,2.000,-11.100,-3.700,-0.800
2.118,1.700,-10.800,-3.700,-1.300
2.119,1.700,-10.800,-3.800,-1.800
2.120,2.000,-11.000,-3.800,-2.300
2.121,2.400,-10.900,-3.800,-2.700
2.122,2.800,-10.600,-3.600,-2.700
2.123,3.000,-10.000,-3.200,-2.400
2.124,3.300,-9.400,-2.600,-1.900
2.125,3.600,-8.800,-2.200,-1.500
2.126,4.200,-8.300,-2.100,-1.200
2.127,4.900,-8.000,-2.400,-1.300
2.128,5.400,-7.800,-2.800,-1.500
2.129,5.800,-7.700,-3.200,-1.500
2.130,6.000,-7.800,-3.100,-1.100
2.131,6.400,-7.800,-2.700,-0.100
2.132,7.000,-7.700,-1.900,1.200
2.133,8.000,-7.300,-1.300,2.500
2.134,9.100,-6.700,-1.100,3.300
2.135,9.800,-6.200,-1.500,3.600
2.136,10.000,-6.100,-2.300,3.400
2.137,9.700,-6.500,-3.000,3.000
2.138,9.300,-7.200,-3.300,2.600
2.139,9.000,-8.000,-3.000,2.400
2.140,9.200,-8.500,-2.100,2.400
2.141,9.800,-8.500,-1.100,2.400
2.142,10.500,-8.100,-0.200,2.500
2.143,11.300,-7.500,0.800,2.800
2.144,12.200,-6.800,2.000,3.500
2.145,13.300,-5.800,3.800,4.900
2.146,15.000,-4.500,6.100,7.100
2.147,17.100,-2.600,8.700,9.900
2.148,19.100,-0.200,11.300,12.900
2.149,20.400,2.200,13.500,15.700
2.150,20.600,4.100,15.500,17.800
2.151,19.800,5.100,17.200,19.400
2.152,18.200,5.000,18.800,20.600
2.153,16.100,4.100,20.000,21.900
2.154,13.700,2.800,20.700,23.600
2.155,10.900,1.800,20.700,26.000
2.156,7.500,1.300,20.400,29.000
2.157,3.400,1.400,20.000,32.100
2.158,-1.200,1.800,19.800,35.100
2.159,-6.100,2.200,19.900,37.600
2.160,-11.200,1.900,20.000,39.400
2.161,-16.500,0.700,19.600,40.700
2.162,-22.200,-1.600,18.400,41.600
2.163,-28.300,-4.500,16.800,42.500
2.164,-34.400,-7.600,15.000,43.400
2.165,-40.100,-10.300,13.500,44.200
2.166,-44.800,-12.200,12.000,44.700
2.167,-48.700,-13.500,10.400,44.400
2.168,-52.100,-14.400,8.100,43.300
2.169,-55.500,-15.400,5.200,41.400
2.170,-59.100,-16.900,1.800,39.000
2.171,-62.900,-18.800,-1.300,36.800
2.172,-66.100,-20.700,-3.400,34.900
2.173,-68.000,-22.300,-4.200,33.700
2.174,-68.300,-23.000,-3.700,33.300
2.175,-67.100,-22.700,-2.100,33.500
2.176,-64.800,-21.600,-0.200,33.900
2.177,-62.000,-20.200,1.400,34.000
2.178,-59.000,-18.900,2.100,33.200
2.179,-55.900,-18.000,1.700,30.900
2.180,-52.400,-17.700,0.200,26.900
2.181,-48.300,-17.900,-1.800,21.600
2.182,-43.500,-18.400,-3.800,15.600
2.183,-38.100,-18.700,-5.300,9.700
2.184,-32.400,-18.700,-6.200,4.400
2.185,-26.800,-18.400,-6.800,0.000
2.186,-21.600,-17.800,-7.300,-3.700
2.187,-17.100,-17.400,-8.300,-6.900
2.188,-13.400,-17.000,-9.800,-9.500
2.189,-10.700,-16.800,-11.500,-11.400
2.190,-8.900,-16.400,-12.900,-12.500
2.191,-7.600,-15.700,-13.700,-12.700
2.192,-6.400,-14.600,-14.000,-12.400
2.193,-5.200,-13.300,-13.900,-12.300
2.194,-3.700,-12.300,-14.000,-12.700
2.195,-2.300,-12.000,-14.500,-13.800
2.196,-1.000,-12.700,-15.400,-15.500
2.197,-0.300,-14.200,-16.700,-17.100
2.198,-0.100,-16.000,-17.700,-18.500
2.199,-0.400,-17.500,-18.200,-19.500
2.200,-0.800,-18.700,-17.900,-20.200
2.201,-1.200,-19.400,-17.100,-20.700
2.202,-1.400,-19.900,-16.100,-21.300
2.203,-1.400,-20.100,-15.400,-21.800
2.204,-1.300,-19.900,-15.300,-22.100
2.205,-1.200,-19.200,-15.500,-21.900
2.206,-1.200,-18.000,-15.900,-21.000
2.207,-1.200,-16.500,-15.900,-19.700
2.208,-1.300,-15.400,-15.300,-18.200
2.209,-1.300,-14.900,-14.300,-16.800
2.210,-1.200,-15.200,-13.000,-15.500
2.211,-0.900,-15.600,-11.600,-14.200
2.212,-0.400,-15.500,-10.200,-12.900
2.213,0.400,-14.600,-8.800,-11.400
2.214,1.100,-12.900,-7.300,-9.800
2.215,1.500,-11.200,-5.800,-8.200
2.216,1.500,-10.000,-4.500,-7.000
2.217,1.000,-9.900,-3.600,-6.000
2.218,0.400,-10.400,-3.000,-5.300
2.219,0.100,-10.900,-2.600,-4.500
2.220,0.600,-10.800,-2.300,-3.500
2.221,1.900,-9.600,-1.800,-2.200
2.222,3.700,-7.700,-1.300,-0.700
2.223,5.400,-5.600,-0.900,0.800
2.224,6.600,-3.800,-0.500,1.900
2.225,7.200,-2.600,0.000,2.500
2.226,7.200,-1.900,0.600,2.700
2.227,7.200,-1.400,1.400,2.400
2.228,7.300,-0.800,2.200,2.100
2.229,7.400,-0.300,2.700,1.700
2.230,7.100,-0.100,2.500,1.700
2.231,6.300,-0.500,1.800,1.800
2.232,5.100,-1.400,0.700,1.900
2.233,3.800,-2.700,-0.300,1.800
2.234,2.900,-4.000,-0.800,1.400
2.235,2.600,-4.800,-0.900,0.500
2.236,2.600,-5.100,-0.700,-0.500
2.237,2.400,-4.800,-0.700,-1.500
2.238,1.700,-4.300,-1.100,-2.200
2.239,0.400,-3.900,-1.700,-2.500
2.240,-0.800,-3.800,-2.200,-2.500
2.241,-1.600,-4.200,-2.200,-2.300
2.242,-1.600,-4.800,-1.900,-1.900
2.243,-0.900,-5.600,-1.600,-1.500
2.244,0.000,-6.200,-1.600,-0.900
2.245,0.600,-6.400,-2.000,-0.200
2.246,0.700,-6.200,-2.500,0.500
2.247,0.500,-5.800,-2.700,0.900
2.248,0.200,-5.600,-2.400,1.000
2.249,-0.100,-5.900,-1.700,0.600
2.250,-0.600,-6.500,-1.100,0.100
2.251,-1.500,-7.200,-1.100,-0.400
2.252,-2.700,-7.400,-1.600,-0.600
2.253,-3.900,-6.700,-2.400,-0.300
2.254,-4.500,-5.100,-2.900,0.200
2.255,-4.100,-3.100,-2.700,0.700
2.256,-2.800,-1.200,-1.800,0.900
2.257,-1.000,0.200,-0.600,0.800
2.258,0.400,0.800,0.500,0.600
2.259,1.000,0.900,1.000,0.400
2.260,0.700,0.700,1.100,0.400
2.261,0.000,0.300,1.000,0.500
2.262,-0.600,0.000,1.100,0.700
2.263,-0.600,-0.200,1.700,1.000
2.264,0.100,-0.300,2.700,1.100
2.265,1.200,-0.200,3.600,1.200
2.266,2.100,0.000,4.100,0.900
2.267,2.500,0.000,3.900,0.300
2.268,2.000,-0.200,3.100,-0.500
2.269,0.900,-0.700,1.900,-1.400
2.270,-0.500,-1.200,0.500,-2.300
2.271,-1.800,-1.300,-0.700,-3.000
2.272,-2.700,-0.800,-1.600,-3.300
2.273,-3.200,0.300,-2.200,-3.300
2.274,-3.400,1.400,-2.300,-3.000
2.275,-3.500,2.200,-2.100,-2.700
2.276,-3.500,2.300,-1.700,-2.300
2.277,-3.500,1.800,-1.200,-1.900
2.278,-3.400,1.200,-0.700,-1.500
2.279,-3.200,0.900,-0.100,-1.200
2.280,-2.700,0.800,0.400,-1.000
2.281,-2.000,0.800,0.900,-0.700
2.282,-1.500,0.500,1.400,-0.400
2.283,-1.200,-0.300,1.800,0.000
2.284,-1.300,-1.300,2.200,0.200
2.285,-1.700,-2.100,2.200,0.200
2.286,-2.200,-2.300,2.000,0.000
2.287,-2.600,-1.900,1.600,-0.300
2.288,-2.700,-1.300,0.900,-0.500
2.289,-2.500,-1.300,0.400,-0.500
2.290,-2.300,-2.000,0.000,-0.300
2.291,-2.200,-3.500,-0.100,0.200
2.292,-2.400,-5.000,0.200,0.700
2.293,-2.600,-5.700,0.800,1.200
2.294,-2.600,-5.200,1.600,1.500
2.295,-2.100,-3.800,2.300,1.600
2.296,-1.600,-2.300,2.600,1.500
2.297,-1.200,-1.400,2.500,1.300
2.298,-1.400,-1.500,1.700,1.100
2.299,-2.100,-2.200,0.700,1.000
2.300,-3.100,-3.000,-0.400,1.200
2.301,-3.800,-3.200,-1.200,1.500
2.302,-3.800,-2.800,-1.700,1.800
2.303,-3.400,-2.300,-1.800,1.800
2.304,-3.000,-2.200,-1.900,1.400
2.305,-3.200,-2.800,-2.000,0.800
2.306,-3.800,-3.700,-2.100,0.200
2.307,-4.600,-4.600,-1.900,0.100
2.308,-4.700,-4.600,-1.300,0.700
2.309,-4.100,-3.800,-0.300,1.900
2.310,-2.700,-2.200,0.800,3.200
2.311,-1.300,-0.400,1.500,4.100
2.312,-0.500,1.000,1.600,4.400
2.313,-0.600,1.800,1.200,4.100
2.314,-1.400,1.800,0.500,3.500
2.315,-2.400,1.400,-0.200,2.900
2.316,-3.100,0.700,-0.800,2.600
2.317,-3.400,-0.100,-1.200,2.400
2.318,-3.600,-0.800,-1.700,2.200
2.319,-3.900,-1.400,-2.200,1.700
2.320,-4.500,-1.800,-2.600,1.100
2.321,-5.300,-1.900,-2.600,0.700
2.322,-6.000,-1.900,-2.100,0.800
2.323,-6.400,-1.700,-1.200,1.500
2.324,-6.400,-1.400,-0.100,2.600
2.325,-6.300,-1.200,0.900,3.800
2.326,-6.100,-1.100,1.500,4.600
2.327,-5.900,-1.200,1.900,4.900
2.328,-5.400,-1.400,2.000,4.800
2.329,-4.700,-1.500,2.200,4.700
2.330,-3.900,-1.500,2.300,4.900
2.331,-3.100,-1.400,2.500,5.600
2.332,-2.700,-1.200,2.500,6.900
2.333,-2.700,-0.800,2.600,8.500
2.334,-2.700,-0.400,2.600,10.100
2.335,-2.600,0.100,2.700,11.300
2.336,-2.300,0.400,2.600,11.900
2.337,-2.100,0.300,2.300,11.600
2.338,-2.400,-0.400,1.600,10.800
2.339,-3.600,-1.800,0.700,9.800
2.340,-5.500,-3.400,-0.100,9.200
2.341,-7.600,-4.600,-0.400,9.200
2.342,-8.900,-5.000,-0.100,9.600
2.343,-9.200,-4.400,0.600,10.000
2.344,-8.400,-3.500,1.200,10.100
2.345,-7.400,-2.800,1.300,9.600
2.346,-6.800,-3.100,0.600,8.600
2.347,-7.100,-4.400,-0.500,7.400
2.348,-8.200,-6.000,-1.600,6.300
2.349,-9.600,-7.200,-2.200,5.600
2.350,-10.700,-7.500,-2.200,5.200
2.351,-11.400,-6.900,-1.900,4.900
2.352,-11.900,-5.800,-1.500,4.700
2.353,-12.300,-4.800,-1.400,4.600
2.354,-12.800,-4.300,-1.600,4.700
2.355,-13.500,-4.200,-1.700,5.100
2.356,-14.200,-4.300,-1.600,5.700
2.357,-14.800,-4.500,-1.300,6.400
2.358,-15.300,-4.600,-0.700,7.100
2.359,-15.900,-4.800,0.000,7.900
2.360,-16.500,-5.000,0.700,8.900
2.361,-16.900,-5.000,1.500,10.100
2.362,-17.000,-4.900,2.500,11.200
2.363,-16.600,-4.600,3.400,12.100
2.364,-15.800,-4.500,4.100,12.300
2.365,-15.000,-4.900,4.400,11.900
2.366,-14.600,-5.800,4.000,11.200
2.367,-14.800,-7.000,3.300,10.600
2.368,-15.300,-8.100,2.500,10.200
2.369,-16.000,-8.700,1.900,10.300
2.370,-16.600,-8.700,1.500,10.500
2.371,-17.000,-8.300,1.300,10.800
2.372,-17.300,-7.600,1.200,11.100
2.373,-17.400,-7.200,1.000,11.400
2.374,-17.500,-7.100,0.900,11.700
2.375,-17.400,-7.300,0.800,12.100
2.376,-17.200,-7.800,0.900,12.200
2.377,-17.100,-8.400,1.100,12.100
2.378,-17.100,-9.000,1.300,11.700
2.379,-17.300,-9.400,1.300,11.400
2.380,-17.400,-9.300,1.200,11.500
2.381,-17.400,-8.800,1.200,12.100
2.382,-17.200,-8.100,1.200,12.900
2.383,-17.000,-7.400,1.200,13.500
2.384,-17.100,-7.100,1.100,13.700
2.385,-17.700,-7.400,0.800,13.300
2.386,-18.800,-7.900,0.300,12.900
2.387,-20.000,-8.400,-0.300,12.500
2.388,-21.000,-8.700,-0.700,12.500
2.389,-21.400,-8.900,-0.800,12.600
2.390,-21.400,-9.200,-0.400,12.500
2.391,-21.200,-9.800,0.300,12.300
2.392,-21.100,-10.700,1.300,11.900
2.393,-21.100,-11.700,2.200,11.800
2.394,-21.200,-12.500,3.000,12.000
2.395,-21.100,-13.000,3.600,12.600
2.396,-21.000,-13.400,3.900,13.100
2.397,-21.000,-13.800,4.000,13.200
2.398,-21.300,-14.300,3.700,12.700
2.399,-21.800,-14.800,3.100,11.600
2.400,-22.400,-14.900,2.300,10.400
2.401,-22.700,-14.600,1.500,9.400
2.402,-22.700,-14.200,1.000,8.900
2.403,-22.400,-13.800,1.000,9.000
2.404,-22.000,-14.000,1.400,9.400
2.405,-21.800,-14.500,2.100,9.800
2.406,-21.800,-15.100,2.800,10.100
2.407,-21.700,-15.200,3.300,10.200
2.408,-21.400,-14.700,3.300,10.200
2.409,-20.900,-13.500,2.800,10.000
2.410,-20.600,-12.400,2.100,9.800
2.411,-20.600,-11.600,1.500,9.600
2.412,-21.100,-11.500,1.100,9.300
2.413,-21.800,-11.800,1.100,8.900
2.414,-22.200,-12.100,1.500,8.700
2.415,-22.100,-12.100,2.000,8.700
2.416,-21.500,-11.800,2.500,8.900
2.417,-20.700,-11.400,2.800,9.100
2.418,-19.900,-11.200,3.100,9.200
2.419,-19.500,-11.200,3.200,9.000
2.420,-19.400,-11.200,3.200,8.400
2.421,-19.400,-11.200,3.000,7.600
2.422,-19.100,-10.800,2.700,7.000
2.423,-18.500,-10.200,2.200,6.800
2.424,-17.600,-9.300,1.900,6.900
2.425,-16.500,-8.600,2.300,7.400
2.426,-15.300,-8.100,3.400,8.000
2.427,-14.100,-7.800,5.200,8.600
2.428,-13.000,-7.700,7.100,9.100
2.429,-11.900,-7.700,8.500,9.400
2.430,-10.900,-7.800,8.900,9.400
2.431,-10.200,-8.000,8.400,9.100
2.432,-9.800,-8.400,7.400,8.400
2.433,-9.600,-9.200,6.600,7.600
2.434,-9.300,-10.000,6.300,7.000
2.435,-8.700,-10.500,6.700,6.800
2.436,-7.400,-10.500,7.400,7.300
2.437,-5.500,-9.900,8.300,8.300
2.438,-3.200,-8.600,9.000,9.300
2.439,-1.000,-7.200,9.600,10.000
2.440,0.700,-6.200,10.100,10.400
2.441,1.500,-5.900,10.600,10.400
2.442,1.600,-6.200,11.000,10.200
2.443,1.400,-7.000,11.100,9.900
2.444,1.400,-7.700,10.800,9.500
2.445,1.700,-8.200,10.200,8.900
2.446,2.400,-8.600,9.100,8.000
2.447,2.900,-9.000,7.800,6.900
2.448,2.800,-9.700,6.500,6.000
2.449,2.100,-10.600,5.200,5.300
2.450,1.100,-11.200,4.200,4.900
2.451,0.200,-11.200,3.600,4.700
2.452,0.100,-10.700,3.300,4.500
2.453,0.600,-9.700,3.100,4.000
2.454,1.700,-8.900,3.000,3.400
2.455,2.700,-8.700,2.900,2.900
2.456,3.400,-9.300,2.600,2.500
2.457,3.700,-10.400,2.500,2.200
2.458,3.700,-11.500,2.700,2.000
2.459,3.800,-12.000,3.200,1.700
2.460,3.800,-11.700,4.100,1.300
2.461,4.000,-10.800,5.000,0.800
2.462,4.100,-9.600,5.800,0.500
2.463,4.000,-8.700,6.000,0.300
2.464,3.800,-8.200,5.800,0.200
2.465,3.600,-8.200,5.100,0.100
2.466,3.500,-8.300,4.300,-0.300
2.467,3.600,-8.100,3.700,-0.900
2.468,3.700,-7.500,3.600,-1.700
2.469,3.800,-6.600,3.900,-2.400
2.470,3.900,-5.700,4.300,-2.800
2.471,3.900,-5.000,4.500,-2.900
2.472,3.800,-4.600,4.300,-3.000
2.473,3.700,-4.600,3.800,-3.200
2.474,3.500,-4.900,3.200,-3.700
2.475,3.300,-5.700,2.700,-4.400
2.476,3.100,-6.800,2.600,-5.100
2.477,3.000,-8.000,2.800,-5.600
2.478,3.100,-9.000,3.100,-5.600
2.479,3.300,-9.300,3.300,-5.200
2.480,3.700,-8.900,3.300,-4.500
2.481,4.100,-7.900,3.100,-3.900
2.482,4.600,-6.800,2.600,-3.500
2.483,5.000,-6.200,1.900,-3.400
2.484,5.100,-6.500,1.200,-3.400
2.485,5.000,-7.600,0.500,-3.300
2.486,4.800,-9.000,-0.100,-3.200
2.487,4.600,-10.100,-0.300,-3.200
2.488,4.400,-10.500,-0.400,-3.600
2.489,4.200,-10.400,-0.600,-4.600
2.490,3.900,-10.100,-1.200,-6.100
2.491,3.500,-10.100,-2.500,-7.800
2.492,3.000,-10.300,-4.100,-9.300
2.493,2.500,-10.800,-5.600,-10.500
2.494,2.000,-11.300,-6.600,-11.300
2.495,1.500,-11.600,-6.800,-11.700
2.496,1.100,-11.700,-6.300,-11.900
2.497,0.800,-11.600,-5.300,-11.600
2.498,0.700,-11.000,-4.100,-10.700
2.499,1.000,-9.900,-3.000,-9.100
2.500,1.600,-8.400,-1.800,-6.900
2.501,2.600,-6.800,-0.800,-4.500
2.502,3.800,-5.500,0.200,-2.300
2.503,4.900,-4.900,1.100,-0.200
2.504,5.900,-4.800,2.200,2.000
2.505,7.100,-4.200,4.000,5.200
2.506,8.700,-2.500,6.900,9.800
2.507,11.300,0.900,11.000,16.000
2.508,14.700,5.700,15.700,22.600
2.509,18.400,10.400,19.800,28.300
2.510,21.500,13.800,22.300,31.400
2.511,23.400,14.700,22.300,31.200
2.512,23.500,13.100,19.800,28.000
2.513,21.900,9.800,15.800,23.000
2.514,19.200,5.900,11.500,17.700
2.515,16.100,2.300,7.800,13.100
2.516,13.000,-0.700,5.000,9.300
2.517,10.000,-3.500,2.600,5.700
2.518,7.100,-6.500,0.100,1.500
2.519,4.200,-9.900,-3.000,-3.800
2.520,1.300,-13.700,-6.500,-9.800
2.521,-1.400,-17.100,-9.800,-15.500
2.522,-3.500,-19.400,-12.200,-20.100
2.523,-4.900,-20.500,-13.300,-22.700
2.524,-5.500,-20.200,-13.300,-23.500
2.525,-5.400,-18.900,-12.400,-22.600
2.526,-4.700,-17.400,-11.300,-20.800
2.527,-3.600,-15.800,-10.300,-18.700
2.528,-2.500,-14.500,-9.500,-16.600
2.529,-1.300,-13.100,-8.700,-14.700
2.530,-0.200,-11.300,-7.800,-12.900
2.531,0.800,-9.000,-6.700,-11.100
2.532,1.600,-6.300,-5.500,-9.400
2.533,2.400,-3.900,-4.300,-7.800
2.534,3.300,-2.200,-3.500,-6.600
2.535,4.300,-1.700,-3.100,-6.000
2.536,5.300,-2.300,-3.200,-6.200
2.537,6.200,-3.700,-3.600,-7.000
2.538,6.700,-5.000,-4.200,-7.900
2.539,6.800,-5.800,-4.500,-8.400
2.540,6.600,-5.700,-4.500,-8.100
2.541,6.400,-4.800,-3.800,-7.200
2.542,6.300,-3.600,-2.800,-6.000
2.543,6.400,-2.200,-1.700,-5.100
2.544,6.800,-1.100,-0.900,-4.600
2.545,7.200,0.000,-0.500,-4.500
2.546,7.700,0.900,-0.600,-4.300
2.547,8.200,1.800,-1.000,-3.900
2.548,8.500,2.700,-1.500,-3.200
2.549,8.800,3.300,-2.100,-2.600
2.550,8.800,3.600,-2.700,-2.400
2.551,8.600,3.400,-3.500,-3.000
2.552,8.200,2.700,-4.400,-4.200
2.553,7.500,1.800,-5.200,-5.500
2.554,6.500,0.800,-5.800,-6.500
2.555,5.300,-0.300,-6.100,-7.100
2.556,4.200,-1.200,-6.000,-7.300
2.557,3.200,-2.000,-5.700,-7.300
2.558,2.600,-2.500,-5.300,-7.200
2.559,2.500,-2.700,-4.900,-7.000
2.560,2.700,-2.700,-4.300,-6.500
2.561,3.000,-2.500,-3.700,-5.700
2.562,3.300,-2.300,-3.200,-4.900
2.563,3.500,-2.100,-2.900,-4.200
2.564,3.500,-1.700,-2.900,-3.900
2.565,3.600,-1.300,-3.200,-4.100
2.566,3.800,-0.700,-3.400,-4.600
2.567,4.200,0.000,-3.600,-5.200
2.568,4.600,0.400,-3.600,-5.500
2.569,4.900,0.400,-3.400,-5.700
2.570,5.000,-0.100,-3.300,-5.900
2.571,5.100,-0.900,-3.300,-6.200
2.572,5.200,-1.900,-3.400,-6.800
2.573,5.300,-2.900,-3.500,-7.600
2.574,5.300,-3.600,-3.400,-8.300
2.575,5.000,-4.100,-3.300,-8.900
2.576,4.600,-4.400,-3.300,-9.200
2.577,4.000,-4.600,-3.700,-9.300
2.578,3.500,-4.900,-4.400,-9.300
2.579,3.100,-5.400,-5.400,-9.400
2.580,2.800,-6.000,-6.300,-9.500
2.581,2.700,-6.500,-6.700,-9.400
2.582,2.600,-6.700,-6.500,-9.000
2.583,2.500,-6.600,-5.900,-8.400
2.584,2.300,-6.100,-5.100,-7.800
2.585,2.000,-5.600,-4.500,-7.400
2.586,1.600,-4.900,-4.100,-7.200
2.587,1.500,-4.100,-3.900,-7.000
2.588,1.600,-3.200,-3.500,-6.800
2.589,2.100,-2.000,-2.800,-6.400
2.590,3.000,-0.900,-1.900,-5.900
2.591,3.900,-0.100,-1.200,-5.600
2.592,4.600,0.100,-1.100,-5.500
2.593,4.700,-0.400,-1.700,-5.800
2.594,4.000,-1.300,-3.000,-6.200
2.595,2.900,-2.200,-4.500,-6.400
2.596,1.800,-2.600,-5.600,-6.300
2.597,1.200,-2.600,-6.000,-6.100
2.598,1.200,-2.300,-5.700,-5.900
2.599,1.800,-2.200,-5.100,-6.100
2.600,2.500,-2.100,-4.500,-6.600
2.601,2.900,-2.000,-4.100,-7.300
2.602,2.900,-1.400,-4.000,-7.800
2.603,2.600,-0.200,-4.100,-8.000
2.604,2.200,1.200,-4.000,-8.100
2.605,1.900,2.200,-3.900,-7.900
2.606,1.900,2.300,-3.900,-7.800
2.607,2.000,1.200,-4.100,-7.700
2.608,2.000,-0.800,-4.500,-7.600
2.609,2.000,-2.900,-5.000,-7.400
2.610,2.000,-4.500,-5.200,-7.400
2.611,2.100,-5.500,-4.900,-7.600
2.612,2.600,-5.900,-4.300,-8.100
2.613,3.200,-6.200,-3.600,-8.800
2.614,3.800,-6.400,-3.100,-9.400
2.615,4.100,-6.500,-3.100,-9.700
2.616,3.900,-6.100,-3.700,-9.800
2.617,3.400,-5.100,-4.600,-9.700
2.618,2.800,-3.600,-5.400,-9.700
2.619,2.400,-2.300,-5.900,-10.100
2.620,2.200,-1.600,-5.900,-10.700
2.621,2.200,-1.800,-5.600,-11.400
2.622,2.200,-2.600,-5.100,-11.900
2.623,2.100,-3.300,-4.700,-11.700
2.624,2.100,-3.400,-4.600,-11.100
2.625,2.300,-2.900,-4.800,-10.100
2.626,2.500,-2.100,-5.100,-9.200
2.627,2.800,-1.700,-5.100,-8.500
2.628,2.800,-2.000,-4.700,-8.200
2.629,2.600,-3.000,-3.900,-8.100
2.630,2.400,-4.200,-2.700,-7.900
2.631,2.200,-5.000,-1.700,-7.600
2.632,2.400,-5.200,-1.200,-7.100
2.633,2.800,-5.000,-1.500,-6.600
2.634,3.100,-4.700,-2.400,-6.200
2.635,3.200,-4.700,-3.500,-6.200
2.636,2.900,-4.800,-4.100,-6.300
2.637,2.600,-4.700,-4.100,-6.400
2.638,2.700,-4.200,-3.400,-6.400
2.639,3.400,-3.100,-2.600,-6.300
2.640,4.300,-1.900,-2.000,-6.300
2.641,5.200,-1.000,-2.200,-6.500
2.642,5.500,-0.600,-2.900,-6.800
2.643,4.900,-0.600,-4.100,-7.200
2.644,3.800,-0.600,-5.200,-7.600
2.645,2.700,-0.400,-5.900,-7.600
2.646,2.100,0.000,-6.100,-7.400
2.647,2.000,0.300,-6.000,-7.000
2.648,2.200,0.200,-5.600,-6.700
2.649,2.600,-0.500,-5.200,-6.500
2.650,2.700,-1.600,-4.900,-6.400
2.651,2.600,-2.600,-4.700,-6.300
2.652,2.500,-3.100,-4.500,-6.100
2.653,2.700,-3.000,-4.300,-5.800
2.654,3.200,-2.300,-4.100,-5.500
2.655,3.900,-1.400,-4.000,-5.200
2.656,4.600,-0.600,-4.000,-5.000
2.657,5.200,-0.100,-4.000,-4.600
2.658,5.600,0.000,-3.900,-4.000
2.659,6.000,-0.200,-3.400,-3.100
2.660,6.500,-0.500,-2.500,-2.000
2.661,7.200,-0.800,-1.400,-1.200
2.662,8.000,-0.900,-0.300,-0.800
2.663,8.500,-0.900,0.400,-1.200
2.664,8.500,-1.100,0.500,-2.300
2.665,7.700,-1.800,0.000,-3.700
2.666,6.000,-3.200,-1.000,-5.100
2.667,3.800,-5.000,-2.200,-6.200
2.668,1.600,-7.000,-3.400,-6.800
2.669,-0.300,-8.500,-4.400,-6.900
2.670,-1.300,-9.200,-5.200,-6.800
2.671,-1.600,-9.300,-5.500,-6.900
2.672,-1.300,-9.000,-5.400,-7.100
2.673,-0.800,-9.000,-4.700,-7.700
2.674,-0.300,-9.300,-3.800,-8.500
2.675,0.100,-9.900,-2.700,-9.200
2.676,0.600,-10.700,-2.000,-9.700
2.677,1.200,-11.400,-1.800,-9.900
2.678,1.800,-11.800,-2.300,-9.800
2.679,2.200,-11.900,-3.200,-9.500
2.680,2.100,-11.900,-4.200,-9.200
2.681,1.700,-11.400,-4.800,-9.000
2.682,1.300,-10.600,-4.700,-8.800
2.683,1.000,-9.400,-4.100,-8.600
2.684,1.100,-8.200,-3.400,-8.400
2.685,1.400,-7.100,-2.900,-8.400
2.686,1.500,-6.600,-2.800,-8.700
2.687,1.100,-6.500,-3.200,-9.100
2.688,0.400,-6.600,-3.600,-9.700
2.689,-0.500,-6.400,-3.800,-10.100
2.690,-1.100,-5.900,-3.600,-10.400
2.691,-1.400,-5.300,-3.400,-10.500
2.692,-1.500,-4.900,-3.400,-10.500
2.693,-1.700,-5.100,-4.000,-10.500
2.694,-2.200,-5.900,-4.900,-10.600
2.695,-2.600,-6.800,-5.500,-10.500
2.696,-2.600,-7.300,-5.600,-10.300
2.697,-2.100,-6.900,-4.800,-9.900
2.698,-1.100,-5.900,-3.500,-9.300
2.699,0.100,-4.700,-2.400,-8.900
2.700,0.900,-4.100,-2.000,-8.800
2.701,1.100,-4.400,-2.400,-9.200
2.702,0.700,-5.500,-3.200,-9.800
2.703,0.100,-7.000,-3.800,-10.300
2.704,-0.300,-8.200,-3.700,-10.500
2.705,-0.300,-8.600,-3.000,-10.300
2.706,0.000,-8.100,-2.000,-9.700
2.707,0.600,-7.100,-1.300,-8.900
2.708,1.200,-6.200,-1.200,-8.300
2.709,1.700,-5.900,-1.700,-8.000
2.710,2.000,-6.500,-2.600,-8.000
2.711,1.900,-7.600,-3.300,-8.300
2.712,1.400,-8.900,-3.800,-8.600
2.713,0.700,-9.800,-3.900,-8.800
2.714,0.000,-10.000,-3.800,-8.700
2.715,-0.500,-9.600,-3.600,-8.200
2.716,-0.400,-8.700,-3.600,-7.400
2.717,0.000,-7.600,-3.600,-6.400
2.718,0.700,-6.600,-3.800,-5.500
2.719,1.200,-5.700,-3.900,-5.100
2.720,1.600,-4.900,-4.000,-5.100
2.721,1.700,-4.000,-4.100,-5.400
2.722,1.900,-3.000,-4.000,-5.900
2.723,2.200,-2.000,-4.000,-6.200
2.724,2.500,-1.300,-3.900,-6.300
2.725,2.300,-1.300,-4.100,-6.600
2.726,1.300,-2.000,-4.500,-7.200
2.727,-0.300,-3.300,-5.100,-8.000
2.728,-2.100,-4.800,-5.900,-8.900
2.729,-3.300,-5.800,-6.500,-9.400
2.730,-3.300,-5.900,-6.800,-9.200
2.731,-2.100,-5.000,-6.500,-8.300
2.732,-0.300,-3.400,-6.000,-7.200
2.733,1.100,-1.700,-5.600,-6.300
2.734,1.700,-0.400,-5.600,-6.100
2.735,1.400,0.200,-6.400,-6.500
2.736,0.700,0.100,-7.700,-7.200
2.737,-0.100,-0.400,-9.100,-7.800
2.738,-0.400,-0.900,-10.200,-8.100
2.739,-0.500,-1.200,-10.400,-8.100
2.740,-0.600,-1.200,-9.900,-8.000
2.741,-0.900,-1.100,-8.900,-8.300
2.742,-1.500,-0.900,-7.900,-8.900
2.743,-2.000,-0.800,-7.100,-9.600
2.744,-2.300,-0.900,-6.800,-10.200
2.745,-2.300,-1.300,-6.800,-10.300
2.746,-2.100,-1.700,-7.000,-9.900
2.747,-2.000,-2.100,-7.100,-9.400
2.748,-1.900,-2.200,-7.200,-8.800
2.749,-1.900,-2.000,-7.300,-8.500
2.750,-1.700,-1.600,-7.300,-8.400
2.751,-1.100,-1.200,-7.400,-8.100
2.752,-0.300,-0.900,-7.400,-7.600
2.753,0.800,-0.700,-7.200,-6.800
2.754,2.000,-0.300,-6.800,-6.000
2.755,3.000,0.200,-6.300,-5.500
2.756,3.800,1.000,-6.100,-5.700
2.757,3.900,1.700,-6.300,-6.500
2.758,3.400,1.800,-7.100,-7.800
2.759,2.100,1.000,-8.400,-9.200
2.760,0.300,-0.800,-9.700,-10.300
2.761,-1.600,-3.000,-10.700,-11.100
2.762,-3.100,-5.100,-11.000,-11.400
2.763,-3.900,-6.300,-10.800,-11.500
2.764,-3.900,-6.500,-10.400,-11.500
2.765,-3.500,-6.000,-10.000,-11.400
2.766,-3.100,-5.200,-10.100,-11.300
2.767,-2.800,-4.700,-10.400,-11.000
2.768,-2.700,-4.700,-10.700,-10.700
2.769,-2.600,-4.900,-10.900,-10.300
2.770,-2.400,-5.000,-10.800,-9.800
2.771,-2.100,-4.700,-10.700,-9.200
2.772,-2.000,-4.200,-10.700,-8.700
2.773,-2.100,-3.500,-11.000,-8.200
2.774,-2.400,-3.200,-11.300,-8.000
2.775,-2.800,-3.200,-11.500,-8.100
2.776,-3.300,-3.500,-11.100,-8.400
2.777,-3.500,-3.800,-10.300,-8.700
2.778,-3.700,-4.000,-9.200,-8.900
2.779,-3.700,-4.000,-8.200,-8.900
2.780,-3.600,-4.000,-7.700,-8.700
2.781,-3.400,-4.000,-7.700,-8.500
2.782,-3.000,-4.200,-8.100,-8.600
2.783,-2.500,-4.400,-8.400,-8.900
2.784,-1.900,-4.500,-8.400,-9.300
2.785,-1.400,-4.500,-8.200,-9.700
2.786,-1.100,-4.400,-7.800,-9.800
2.787,-1.100,-4.500,-7.500,-9.500
2.788,-1.300,-4.800,-7.400,-9.000
2.789,-1.800,-5.200,-7.500,-8.500
2.790,-2.500,-5.800,-7.700,-7.900
2.791,-3.200,-6.300,-7.700,-7.400
2.792,-3.800,-6.700,-7.400,-6.700
2.793,-4.100,-7.100,-6.900,-5.800
2.794,-4.000,-7.400,-6.200,-4.800
2.795,-3.500,-7.600,-5.500,-3.900
2.796,-2.800,-7.600,-5.000,-3.500
2.797,-2.000,-7.400,-4.700,-3.500
2.798,-1.300,-6.700,-4.700,-3.900
2.799,-0.900,-5.800,-4.900,-4.300
2.800,-0.600,-4.800,-5.300,-4.400
2.801,-0.400,-4.000,-5.700,-4.100
2.802,-0.400,-3.400,-6.100,-3.500
2.803,-0.400,-2.900,-6.200,-3.200
2.804,-0.500,-2.300,-6.000,-3.300
2.805,-0.600,-1.600,-5.600,-3.800
2.806,-0.600,-0.800,-5.100,-4.800
2.807,-0.200,-0.100,-4.700,-5.700
2.808,0.300,0.200,-4.600,-6.600
2.809,0.900,-0.100,-4.900,-7.100
2.810,1.200,-1.100,-5.700,-7.500
2.811,1.000,-2.400,-6.800,-7.800
2.812,0.400,-3.800,-8.000,-8.300
2.813,-0.600,-5.000,-9.000,-9.000
2.814,-1.400,-5.900,-9.400,-9.800
2.815,-1.900,-6.400,-9.200,-10.500
2.816,-1.800,-6.600,-8.400,-10.900
2.817,-1.400,-6.700,-7.200,-10.800
2.818,-0.800,-6.400,-6.100,-10.300
2.819,-0.300,-5.800,-5.300,-9.700
2.820,-0.100,-5.000,-5.200,-9.200
2.821,-0.200,-3.800,-5.600,-9.100
2.822,-0.600,-2.700,-6.300,-9.300
2.823,-1.200,-1.700,-6.900,-9.600
2.824,-1.900,-1.100,-7.100,-9.800
2.825,-2.600,-0.800,-6.900,-9.500
2.826,-3.100,-0.700,-6.400,-8.900
2.827,-3.300,-0.600,-6.000,-8.300
2.828,-3.300,-0.400,-5.800,-8.000
2.829,-3.100,-0.200,-5.900,-8.100
2.830,-2.900,-0.200,-6.300,-8.600
2.831,-2.800,-0.700,-6.700,-9.000
2.832,-2.800,-1.500,-7.000,-9.200
2.833,-2.700,-2.400,-7.200,-9.000
2.834,-2.700,-3.100,-7.200,-8.500
2.835,-2.600,-3.400,-7.000,-8.200
2.836,-2.500,-3.200,-6.700,-8.200
2.837,-2.100,-2.700,-6.000,-8.400
2.838,-1.400,-2.200,-5.100,-8.600
2.839,-0.200,-1.600,-4.000,-8.500
2.840,1.400,-0.700,-2.800,-7.900
2.841,3.400,0.700,-1.700,-6.900
2.842,5.300,2.700,-0.700,-5.600
2.843,7.000,5.300,0.300,-4.100
2.844,8.500,7.900,1.400,-2.600
2.845,9.700,10.100,2.800,-0.900
2.846,11.100,11.600,4.400,1.000
2.847,12.700,12.200,6.100,3.100
2.848,14.300,12.300,7.900,5.400
2.849,15.400,12.200,9.600,7.900
2.850,15.800,12.400,11.300,10.500
2.851,15.300,13.000,13.100,13.300
2.852,13.900,13.900,15.000,16.100
2.853,11.900,14.900,17.000,18.800
2.854,9.500,15.600,18.800,21.400
2.855,6.700,15.700,19.900,23.900
2.856,3.600,15.100,20.200,26.200
2.857,-0.100,14.000,19.800,28.500
2.858,-4.200,12.500,18.900,30.700
2.859,-8.900,10.900,18.000,33.000
2.860,-13.900,9.300,17.300,35.000
2.861,-19.000,7.800,17.000,36.800
2.862,-24.100,6.400,16.600,38.300
2.863,-29.300,4.900,15.900,39.500
2.864,-34.400,3.500,14.600,40.400
2.865,-39.500,2.100,12.600,40.900
2.866,-44.300,0.700,10.300,40.700
2.867,-48.900,-0.900,8.000,39.800
2.868,-53.100,-2.800,5.800,38.100
2.869,-56.700,-5.200,3.700,35.900
2.870,-59.600,-8.000,1.700,33.500
2.871,-61.800,-10.600,-0.300,31.500
2.872,-63.100,-12.500,-2.100,30.000
2.873,-63.500,-13.100,-3.300,29.300
2.874,-63.000,-12.200,-3.700,29.400
2.875,-61.700,-10.200,-3.200,29.800
2.876,-59.900,-8.000,-2.400,29.900
2.877,-57.900,-6.700,-1.900,29.000
2.878,-55.900,-6.900,-2.500,26.200
2.879,-54.200,-8.900,-4.400,21.500
2.880,-52.500,-11.700,-7.600,15.200
2.881,-50.500,-14.200,-11.200,8.000
2.882,-47.700,-15.600,-14.700,0.700
2.883,-44.000,-15.600,-17.500,-6.100
2.884,-39.500,-14.600,-19.700,-12.300
2.885,-34.500,-13.600,-21.300,-17.800
2.886,-29.600,-13.500,-22.700,-22.800
2.887,-25.200,-14.400,-23.900,-26.700
2.888,-21.600,-15.700,-24.900,-29.300
2.889,-18.800,-16.700,-25.500,-30.100
2.890,-16.700,-16.900,-25.700,-29.600
2.891,-15.000,-16.100,-25.500,-28.400
2.892,-13.400,-15.000,-24.900,-27.500
2.893,-11.800,-14.000,-24.300,-27.700
2.894,-10.200,-13.700,-23.900,-29.000
2.895,-8.900,-14.000,-24.000,-31.100
2.896,-8.100,-14.600,-24.500,-33.200
2.897,-7.900,-14.700,-25.300,-34.600
2.898,-8.100,-14.200,-25.900,-35.100
2.899,-8.300,-13.000,-25.600,-34.800
2.900,-8.200,-11.400,-24.500,-34.000
2.901,-7.500,-10.000,-22.900,-33.100
2.902,-6.600,-9.500,-21.300,-32.400
2.903,-5.700,-10.000,-20.400,-31.900
2.904,-5.200,-11.600,-20.200,-31.300
2.905,-5.200,-13.600,-20.200,-30.300
2.906,-5.500,-15.200,-19.700,-28.800
2.907,-5.800,-16.000,-18.300,-26.700
2.908,-5.800,-15.600,-16.100,-24.400
2.909,-5.400,-14.200,-13.800,-22.300
2.910,-4.800,-12.400,-12.300,-20.800
2.911,-4.100,-10.800,-11.800,-20.200
2.912,-3.400,-9.800,-12.300,-20.100
2.913,-2.900,-9.400,-13.000,-20.100
2.914,-2.600,-9.300,-13.300,-19.700
2.915,-2.500,-9.200,-12.700,-18.400
2.916,-2.700,-8.700,-11.300,-16.300
2.917,-2.900,-7.600,-9.500,-13.700
2.918,-3.000,-6.300,-7.700,-11.500
2.919,-2.900,-5.000,-6.300,-10.100
2.920,-2.500,-4.300,-5.400,-9.900
2.921,-2.200,-4.500,-5.100,-10.800
2.922,-2.000,-5.500,-5.100,-12.000
2.923,-2.200,-6.800,-5.300,-12.800
2.924,-2.600,-7.700,-5.500,-12.600
2.925,-3.200,-7.500,-5.300,-11.500
2.926,-3.600,-6.100,-4.800,-9.900
2.927,-3.700,-3.900,-3.900,-8.600
2.928,-3.500,-1.500,-3.300,-8.000
2.929,-3.200,0.100,-3.100,-8.300
2.930,-2.800,0.600,-3.700,-9.100
2.931,-2.500,0.200,-4.700,-9.700
2.932,-2.100,-0.400,-5.700,-9.600
2.933,-1.600,-0.500,-6.200,-9.000
2.934,-1.100,0.200,-6.000,-8.200
2.935,-0.600,1.400,-5.200,-7.700
2.936,-0.300,2.500,-4.500,-8.000
2.937,-0.400,2.900,-4.100,-8.900
2.938,-0.800,2.400,-4.100,-10.000
2.939,-1.200,1.300,-4.300,-11.000
2.940,-1.600,0.200,-4.200,-11.400
2.941,-1.600,-0.500,-3.600,-11.300
2.942,-1.300,-0.700,-2.700,-10.700
2.943,-1.100,-0.700,-1.900,-10.100
2.944,-1.100,-0.700,-1.600,-9.400
2.945,-1.400,-1.100,-2.000,-8.700
2.946,-1.900,-1.500,-2.700,-8.000
2.947,-2.100,-1.500,-3.500,-7.500
2.948,-1.900,-1.000,-3.800,-7.100
2.949,-1.200,-0.200,-3.600,-7.100
2.950,-0.300,0.300,-2.900,-7.300
2.951,0.400,0.300,-2.100,-7.300
2.952,0.800,-0.600,-1.300,-6.900
2.953,0.700,-2.000,-0.900,-6.000
2.954,0.400,-3.100,-0.600,-4.900
2.955,0.000,-3.800,-0.500,-4.100
2.956,-0.100,-3.900,-0.600,-4.000
2.957,-0.100,-4.000,-0.900,-4.500
2.958,-0.100,-4.500,-1.500,-5.600
2.959,-0.500,-5.700,-2.200,-6.700
2.960,-1.400,-7.100,-3.100,-7.600
2.961,-2.700,-8.300,-3.700,-8.200
2.962,-4.100,-8.600,-4.100,-8.700
2.963,-5.200,-8.200,-4.100,-9.200
2.964,-5.700,-7.600,-3.900,-9.800
2.965,-5.900,-7.400,-3.700,-10.100
2.966,-5.800,-7.900,-3.400,-9.700
2.967,-5.600,-8.800,-3.100,-8.500
2.968,-5.200,-9.200,-2.700,-6.400
2.969,-4.700,-8.600,-2.100,-4.000
2.970,-3.700,-6.500,-1.200,-1.700
2.971,-2.300,-3.400,0.200,0.400
2.972,-0.400,0.200,2.200,2.600
2.973,1.900,4.000,4.900,5.700
2.974,4.400,7.700,8.600,10.100
2.975,7.300,11.400,12.800,16.100
2.976,10.400,15.300,17.000,22.800
2.977,13.600,18.900,20.500,29.000
2.978,16.500,21.700,22.600,33.100
2.979,18.600,22.900,22.800,34.400
2.980,19.500,22.300,21.300,32.700
2.981,19.100,20.100,18.600,28.900
2.982,17.600,17.000,15.500,24.200
2.983,15.400,13.600,12.600,19.500
2.984,12.900,10.400,10.400,15.200
2.985,10.400,7.400,8.500,10.900
2.986,7.900,4.400,6.700,6.100
2.987,5.300,1.100,4.600,0.600
2.988,2.600,-2.400,2.000,-5.200
2.989,-0.100,-5.700,-1.000,-10.600
2.990,-2.400,-8.500,-3.700,-14.400
2.991,-3.900,-10.100,-5.600,-16.300
2.992,-4.500,-10.300,-6.300,-16.300
2.993,-4.200,-9.100,-5.800,-15.000
2.994,-3.400,-6.900,-4.500,-13.400
2.995,-2.500,-4.200,-2.900,-11.900
2.996,-1.600,-1.700,-1.500,-10.600
2.997,-0.800,0.100,-0.500,-9.300
2.998,0.000,0.900,0.200,-8.000
2.999,0.700,0.700,0.600,-6.600
3.000,1.200,0.000,0.600,-5.600
3.001,1.300,-1.100,0.200,-5.000
3.002,0.800,-1.900,-0.400,-4.900
3.003,-0.400,-2.300,-1.100,-4.900
3.004,-1.700,-2.000,-1.500,-4.600
3.005,-2.800,-0.900,-1.500,-3.900
3.006,-3.200,0.700,-1.100,-3.100
3.007,-3.000,2.300,-0.800,-2.600
3.008,-2.500,3.500,-0.800,-2.800
3.009,-2.100,4.000,-1.300,-3.700
3.010,-2.100,3.700,-2.100,-4.900
3.011,-2.700,3.000,-3.000,-5.800
3.012,-3.500,2.100,-3.500,-6.100
3.013,-4.400,1.200,-3.500,-5.900
3.014,-5.200,0.500,-3.100,-5.600
3.015,-6.000,-0.300,-2.700,-5.500
3.016,-6.700,-1.000,-2.300,-5.600
3.017,-7.100,-1.500,-2.100,-5.700
3.018,-7.300,-1.400,-1.800,-5.400
3.019,-7.100,-0.700,-1.400,-4.500
3.020,-6.700,0.300,-0.800,-3.400
3.021,-6.500,1.000,0.000,-2.500
3.022,-6.600,0.900,0.700,-2.000
3.023,-7.100,-0.200,1.100,-2.100
3.024,-7.800,-1.600,1.100,-2.600
3.025,-8.500,-2.700,0.500,-3.000
3.026,-9.100,-3.200,-0.400,-3.100
3.027,-9.400,-3.200,-1.400,-2.700
3.028,-9.800,-3.100,-1.900,-2.000
3.029,-10.300,-3.300,-1.900,-1.100
3.030,-10.700,-3.900,-1.300,-0.300
3.031,-11.100,-4.300,-0.500,0.300
3.032,-11.200,-4.200,0.200,0.600
3.033,-11.200,-3.500,0.500,0.600
3.034,-11.200,-2.700,0.400,0.200
3.035,-11.500,-2.500,0.100,-0.500
3.036,-11.900,-3.100,0.000,-1.200
3.037,-12.200,-4.400,0.400,-1.500
3.038,-12.000,-5.400,1.400,-1.100
3.039,-11.200,-5.600,2.600,-0.100
3.040,-10.300,-4.700,3.800,1.200
3.041,-9.500,-3.300,4.500,2.100
3.042,-9.400,-2.100,4.900,2.400
3.043,-9.800,-1.800,4.900,2.100
3.044,-10.300,-2.400,5.000,1.600
3.045,-10.700,-3.100,5.400,1.500
3.046,-10.500,-3.200,6.100,2.000
3.047,-10.000,-2.500,6.900,3.100
3.048,-9.500,-1.300,7.500,4.200
3.049,-9.400,-0.400,7.800,4.800
3.050,-9.900,-0.500,7.500,4.800
3.051,-10.700,-1.600,7.000,4.600
3.052,-11.300,-3.100,6.600,4.600
3.053,-11.400,-4.400,6.400,5.000
3.054,-10.900,-5.000,6.700,5.800
3.055,-10.000,-5.200,7.200,6.700
3.056,-9.100,-5.200,7.600,7.200
3.057,-8.900,-5.800,7.400,7.000
3.058,-9.400,-6.900,6.500,6.300
3.059,-10.500,-7.900,5.300,5.600
3.060,-11.700,-8.300,4.300,5.200
3.061,-12.600,-7.500,3.800,5.500
3.062,-12.900,-5.700,4.200,6.200
3.063,-12.600,-3.500,5.100,7.200
3.064,-12.100,-2.100,6.000,7.900
3.065,-11.800,-1.900,6.400,8.300
3.066,-11.900,-2.900,6.000,8.200
3.067,-12.300,-4.500,5.200,8.000
3.068,-13.000,-5.700,4.400,7.800
3.069,-13.600,-6.000,4.100,7.900
3.070,-14.000,-5.400,4.600,8.400
3.071,-14.000,-4.400,5.600,9.200
3.072,-13.900,-3.800,6.500,9.900
3.073,-13.700,-3.900,7.000,10.500
3.074,-13.500,-4.600,7.000,10.800
3.075,-13.200,-5.400,6.600,10.900
3.076,-12.800,-5.800,6.300,11.000
3.077,-12.400,-5.500,6.500,11.300
3.078,-12.100,-4.900,7.100,11.700
3.079,-12.100,-4.400,8.000,12.200
3.080,-12.500,-4.400,8.700,12.400
3.081,-13.300,-5.000,8.800,12.400
3.082,-14.400,-5.800,8.200,11.900
3.083,-15.400,-6.300,7.100,11.300
3.084,-16.100,-6.200,5.900,10.600
3.085,-16.600,-5.600,5.300,10.100
3.086,-16.800,-5.000,5.300,10.000
3.087,-17.100,-4.700,6.000,10.300
3.088,-17.500,-4.900,6.800,10.700
3.089,-18.000,-5.400,7.300,11.300
3.090,-18.500,-5.800,7.300,11.800
3.091,-18.700,-5.900,6.900,12.100
3.092,-18.500,-5.600,6.400,12.100
3.093,-18.000,-5.300,6.200,11.900
3.094,-17.400,-5.400,6.500,11.600
3.095,-17.200,-5.900,7.100,11.200
3.096,-17.400,-6.700,7.500,10.700
3.097,-18.200,-7.700,7.600,10.300
3.098,-19.100,-8.400,7.300,10.000
3.099,-19.800,-8.500,7.000,9.900
3.100,-19.900,-8.000,7.100,10.200
3.101,-19.400,-7.100,7.800,10.900
3.102,-18.500,-6.000,9.200,12.000
3.103,-17.300,-5.000,10.700,13.200
3.104,-16.300,-4.200,11.900,14.400
3.105,-15.500,-3.600,12.500,15.400
3.106,-14.900,-3.100,12.200,15.900
3.107,-14.600,-2.600,11.500,15.900
3.108,-14.500,-2.100,10.500,15.600
3.109,-14.600,-1.800,9.600,15.000
3.110,-14.900,-1.700,9.100,14.300
3.111,-15.400,-1.900,8.900,13.600
3.112,-15.900,-2.300,9.000,12.900
3.113,-16.300,-2.700,9.000,12.100
3.114,-16.700,-3.000,8.800,11.200
3.115,-17.000,-3.200,8.400,10.400
3.116,-17.300,-3.300,7.800,9.500
3.117,-17.700,-3.600,7.100,8.800
3.118,-18.100,-4.000,6.600,8.300
3.119,-18.200,-4.500,6.400,8.000
3.120,-18.000,-5.000,6.500,7.900
3.121,-17.300,-5.300,6.700,7.800
3.122,-16.300,-5.600,7.000,7.500
3.123,-15.400,-5.900,7.300,7.100
3.124,-14.800,-6.400,7.600,6.600
3.125,-14.700,-6.900,7.900,6.000
3.126,-15.000,-7.300,8.200,5.300
3.127,-15.600,-7.200,8.300,4.500
3.128,-16.100,-6.800,8.200,3.600
3.129,-16.200,-6.000,7.700,2.800
3.130,-16.000,-5.100,7.100,2.300
3.131,-15.500,-4.200,6.600,2.200
3.132,-14.900,-3.500,6.400,2.600
3.133,-14.200,-2.700,6.500,3.000
3.134,-13.300,-1.800,6.700,3.100
3.135,-12.400,-1.300,6.800,2.500
3.136,-11.300,-1.200,6.500,1.400
3.137,-10.000,-1.700,6.200,0.200
3.138,-8.700,-2.700,6.100,-0.600
3.139,-7.100,-3.600,6.700,-0.700
3.140,-5.300,-3.900,7.800,-0.200
3.141,-3.500,-3.400,9.200,0.500
3.142,-1.900,-2.300,10.300,0.900
3.143,-1.100,-1.200,10.600,0.800
3.144,-1.000,-0.300,10.100,0.300
3.145,-1.600,0.300,9.200,-0.300
3.146,-2.300,0.800,8.400,-0.700
3.147,-2.500,1.400,8.200,-0.700
3.148,-2.100,1.800,8.500,-0.700
3.149,-1.200,1.600,9.100,-0.700
3.150,-0.600,0.400,9.300,-1.100
3.151,-0.500,-1.400,9.100,-1.600
3.152,-1.100,-3.300,8.400,-2.300
3.153,-1.900,-4.400,7.700,-2.800
3.154,-2.400,-4.200,7.100,-3.000
3.155,-2.200,-3.000,6.800,-3.100
3.156,-1.600,-1.400,6.600,-3.000
3.157,-1.000,-0.400,6.100,-2.800
3.158,-0.800,-0.200,5.400,-2.500
3.159,-0.900,-0.800,4.600,-2.100
3.160,-1.100,-1.400,4.200,-1.500
3.161,-0.600,-1.600,4.500,-0.800
3.162,0.600,-1.200,5.300,-0.200
3.163,2.300,-0.700,6.200,0.200
3.164,4.000,-0.600,6.600,0.200
3.165,5.000,-1.000,6.200,-0.200
3.166,5.000,-1.700,5.100,-0.900
3.167,4.300,-2.400,3.700,-1.500
3.168,3.400,-2.700,2.600,-1.900
3.169,2.900,-2.300,2.000,-1.800
3.170,3.000,-1.300,1.900,-1.400
3.171,3.600,-0.200,2.200,-1.000
3.172,4.500,0.800,2.700,-0.800
3.173,5.500,1.600,3.100,-0.900
3.174,6.200,2.100,3.500,-1.400
3.175,6.700,2.500,3.900,-1.900
3.176,6.900,2.900,4.200,-2.300
3.177,6.800,3.300,4.400,-2.500
3.178,6.500,3.900,4.500,-2.800
3.179,6.000,4.500,4.700,-3.200
3.180,5.500,4.800,5.000,-3.900
3.181,4.800,4.600,5.400,-5.100
3.182,4.300,3.900,5.800,-6.300
3.183,3.800,2.900,6.000,-7.300
3.184,3.600,2.200,5.900,-7.800
3.185,3.600,2.000,5.400,-7.700
3.186,3.900,2.700,4.600,-7.300
3.187,4.300,3.900,3.900,-6.900
3.188,4.500,5.000,3.300,-6.900
3.189,4.500,5.600,2.900,-7.300
3.190,4.100,5.200,2.700,-8.000
3.191,3.700,4.000,2.600,-8.500
3.192,3.400,2.400,2.500,-8.700
3.193,3.400,1.100,2.200,-8.300
3.194,3.700,0.500,1.900,-7.500
3.195,4.200,0.500,1.600,-6.600
3.196,4.600,0.900,1.500,-5.900
3.197,4.700,1.400,1.700,-5.400
3.198,4.500,1.800,2.100,-5.200
3.199,4.000,2.000,2.700,-5.000
3.200,3.700,2.200,3.100,-5.000
3.201,3.600,2.400,3.100,-5.000
3.202,3.800,2.600,2.700,-5.100
3.203,4.300,2.700,2.200,-5.500
3.204,4.800,2.500,1.900,-6.000
3.205,5.000,2.200,2.000,-6.300
3.206,4.700,1.800,2.600,-6.500
3.207,3.900,1.700,3.200,-6.400
3.208,3.000,2.100,3.600,-6.300
3.209,2.200,2.900,3.400,-6.100
3.210,1.900,4.000,2.700,-6.000
3.211,2.000,5.000,1.800,-5.900
3.212,2.400,5.600,1.100,-5.500
3.213,2.900,5.900,1.000,-5.000
3.214,3.200,5.900,1.400,-4.600
3.215,3.300,5.800,2.100,-4.600
3.216,3.300,5.600,2.600,-5.100
3.217,3.300,5.300,2.400,-6.200
3.218,3.200,4.800,1.600,-7.300
3.219,3.000,4.200,0.500,-8.000
3.220,2.900,3.700,-0.300,-7.800
3.221,3.000,3.700,-0.300,-6.700
3.222,3.600,4.400,0.600,-4.800
3.223,4.700,5.700,2.000,-2.700
3.224,6.300,7.200,3.300,-1.000
3.225,7.800,8.300,4.100,0.100
3.226,8.900,8.800,4.200,0.400
3.227,9.400,8.600,3.700,0.100
3.228,9.200,7.900,3.100,-0.500
3.229,8.700,7.000,2.800,-1.000
3.230,8.000,6.100,2.600,-1.400
3.231,7.500,5.200,2.500,-1.800
3.232,7.000,4.300,2.300,-2.300
3.233,6.500,3.200,1.800,-3.300
3.234,5.900,2.000,1.200,-4.600
3.235,5.300,0.800,0.700,-6.000
3.236,4.700,-0.400,0.600,-7.200
3.237,4.200,-1.500,0.700,-7.700
3.238,3.700,-2.300,1.000,-7.500
3.239,3.400,-2.700,1.200,-6.900
3.240,3.100,-2.600,1.300,-6.400
3.241,3.000,-2.000,1.300,-6.100
3.242,3.000,-1.200,1.200,-6.200
3.243,3.100,-0.400,1.000,-6.700
3.244,3.300,-0.100,0.700,-7.300
3.245,3.200,-0.500,0.000,-8.000
3.246,2.900,-1.500,-0.900,-8.600
3.247,2.300,-2.800,-1.900,-9.000
3.248,1.700,-4.000,-2.700,-9.200
3.249,1.200,-4.700,-3.100,-9.200
3.250,1.000,-4.900,-3.200,-9.100
3.251,0.800,-4.800,-3.100,-8.900
3.252,0.700,-4.800,-3.100,-8.800
3.253,0.600,-5.100,-3.000,-8.700
3.254,0.500,-5.600,-2.900,-8.400
3.255,0.600,-6.100,-2.600,-7.800
3.256,1.100,-6.200,-2.000,-6.900
3.257,2.000,-5.900,-1.400,-5.800
3.258,3.000,-5.200,-1.100,-4.900
3.259,3.800,-4.500,-1.300,-4.600
3.260,4.200,-4.000,-1.700,-4.800
3.261,4.100,-3.700,-2.100,-5.300
3.262,3.900,-3.700,-2.200,-5.800
3.263,3.600,-3.700,-1.700,-5.900
3.264,3.600,-3.600,-1.000,-5.800
3.265,3.800,-3.400,-0.400,-5.500
3.266,4.100,-3.400,-0.300,-5.400
3.267,4.100,-3.500,-0.600,-5.600
3.268,3.900,-3.800,-1.200,-5.900
3.269,3.400,-4.200,-1.600,-6.200
3.270,2.900,-4.400,-1.600,-6.300
3.271,2.600,-4.500,-1.100,-6.500
3.272,2.400,-4.600,-0.600,-6.600
3.273,2.400,-4.800,-0.500,-6.800
3.274,2.400,-5.200,-0.900,-7.000
3.275,2.200,-5.900,-1.600,-6.900
3.276,1.900,-6.500,-2.300,-6.500
3.277,1.500,-6.900,-2.600,-5.700
3.278,1.500,-6.800,-2.500,-4.900
3.279,1.700,-6.200,-2.200,-4.400
3.280,2.300,-5.400,-2.000,-4.200
3.281,2.900,-4.500,-2.100,-4.200
3.282,3.400,-3.800,-2.500,-4.200
3.283,3.700,-3.300,-2.800,-3.900
3.284,4.000,-2.700,-2.700,-3.300
3.285,4.400,-2.100,-2.100,-2.500
3.286,4.900,-1.500,-1.200,-1.700
3.287,5.600,-1.000,-0.300,-1.300
3.288,6.200,-0.600,0.100,-1.400
3.289,6.600,-0.400,0.000,-1.800
3.290,6.600,-0.200,-0.300,-2.400
3.291,6.400,0.300,-0.600,-2.900
3.292,6.100,1.100,-0.900,-3.400
3.293,5.700,1.900,-1.200,-3.800
3.294,5.300,2.700,-1.500,-4.300
3.295,4.900,3.000,-2.000,-4.800
3.296,4.600,2.800,-2.400,-5.300
3.297,4.300,2.400,-2.600,-5.600
3.298,4.100,1.900,-2.400,-5.500
3.299,4.100,1.700,-1.800,-4.900
3.300,4.400,1.600,-1.200,-4.000
3.301,4.700,1.800,-0.700,-3.000
3.302,5.100,1.900,-0.400,-2.200
3.303,5.500,1.900,-0.300,-1.600
3.304,5.700,1.700,-0.100,-1.400
3.305,5.900,1.500,0.100,-1.600
3.306,5.900,1.300,0.300,-2.100
3.307,5.800,1.200,0.200,-2.700
3.308,5.800,1.200,0.100,-3.200
3.309,5.900,1.400,0.100,-3.500
3.310,6.300,1.500,0.400,-3.600
3.311,6.900,1.300,1.000,-3.700
3.312,7.400,0.700,1.500,-3.900
3.313,7.700,-0.300,1.700,-4.300
3.314,7.500,-1.700,1.100,-4.800
3.315,7.000,-2.800,0.100,-5.100
3.316,6.500,-3.200,-0.900,-5.000
3.317,6.300,-2.400,-1.200,-4.600
3.318,6.600,-0.500,-0.600,-4.000
3.319,7.400,2.100,0.700,-3.600
3.320,8.200,4.400,1.800,-3.800
3.321,8.800,5.900,2.200,-4.600
3.322,8.800,6.300,1.600,-5.800
3.323,8.300,5.800,0.500,-6.800
3.324,7.700,4.800,-0.500,-7.400
3.325,7.300,4.000,-0.800,-7.400
3.326,7.000,3.500,-0.600,-7.300
3.327,6.900,3.400,-0.300,-7.100
3.328,6.500,3.300,-0.200,-7.000
3.329,5.900,3.100,-0.700,-7.000
3.330,5.300,2.700,-1.300,-6.800
3.331,5.000,2.400,-1.700,-6.400
3.332,5.200,2.300,-1.300,-5.700
3.333,6.200,2.500,-0.200,-5.000
3.334,7.500,2.900,1.200,-4.300
3.335,9.000,3.300,2.300,-3.800
3.336,10.300,3.500,3.100,-3.500
3.337,11.400,3.400,3.400,-3.200
3.338,12.200,3.000,3.500,-2.900
3.339,12.600,2.200,3.500,-2.800
3.340,12.500,1.200,3.300,-3.100
3.341,11.600,-0.100,2.600,-4.000
3.342,9.900,-1.700,1.400,-5.300
3.343,7.700,-3.500,-0.200,-6.800
3.344,5.600,-5.100,-1.700,-8.000
3.345,4.400,-6.200,-2.500,-8.500
3.346,4.100,-6.600,-2.700,-8.500
3.347,4.500,-6.300,-2.500,-8.200
3.348,5.000,-5.600,-2.300,-8.200
3.349,5.100,-4.900,-2.400,-8.700
3.350,4.600,-4.400,-3.100,-9.700
3.351,3.700,-4.000,-4.100,-10.800
3.352,3.000,-3.800,-5.000,-11.400
3.353,2.800,-3.400,-5.500,-11.400
3.354,3.000,-2.800,-5.500,-10.800
3.355,3.500,-2.000,-5.300,-9.800
3.356,3.800,-1.300,-4.800,-8.800
3.357,3.800,-0.900,-4.200,-8.200
3.358,3.600,-0.800,-3.600,-7.900
3.359,3.200,-1.000,-3.100,-7.900
3.360,2.700,-1.300,-2.700,-8.000
3.361,2.300,-1.300,-2.400,-8.000
3.362,1.900,-1.000,-2.300,-7.800
3.363,1.700,-0.400,-2.400,-7.600
3.364,1.800,0.500,-2.500,-7.300
3.365,2.300,1.200,-2.600,-7.000
3.366,3.000,1.600,-2.500,-6.800
3.367,3.500,1.400,-2.300,-7.000
3.368,3.800,0.700,-1.900,-7.600
3.369,3.800,-0.200,-1.600,-8.600
3.370,3.500,-1.100,-1.600,-9.600
3.371,3.400,-1.700,-1.800,-10.200
3.372,3.400,-1.900,-2.400,-10.100
3.373,3.600,-1.700,-3.100,-9.300
3.374,3.800,-1.400,-3.500,-8.100
3.375,3.900,-0.800,-3.300,-6.800
3.376,4.000,-0.400,-2.500,-6.000
3.377,4.200,0.000,-1.200,-5.900
3.378,4.500,0.100,-0.100,-6.500
3.379,4.900,0.000,0.400,-7.600
3.380,5.100,-0.300,0.100,-8.800
3.381,5.100,-0.600,-0.900,-9.900
3.382,4.700,-0.800,-2.200,-10.700
3.383,4.300,-0.700,-3.500,-11.100
3.384,4.000,-0.300,-4.400,-11.000
3.385,4.100,0.400,-4.900,-10.400
3.386,4.600,1.400,-5.000,-9.600
3.387,5.100,2.400,-4.800,-8.800
3.388,5.400,3.200,-4.400,-8.200
3.389,5.300,3.600,-3.800,-8.000
3.390,4.900,3.400,-3.100,-8.200
3.391,4.200,2.700,-2.500,-8.500
3.392,3.500,1.500,-2.200,-8.800
3.393,2.800,0.100,-2.300,-9.100
3.394,2.100,-1.300,-2.700,-9.300
3.395,1.500,-2.300,-3.500,-9.700
3.396,0.800,-2.900,-4.300,-10.300
3.397,0.300,-3.100,-4.800,-10.800
3.398,0.000,-2.900,-4.900,-11.100
3.399,0.000,-2.600,-4.600,-10.900
3.400,0.200,-2.200,-4.100,-10.100
3.401,0.700,-1.900,-3.700,-9.000
3.402,1.000,-1.700,-3.300,-8.000
3.403,1.100,-1.600,-3.000,-7.300
3.404,1.000,-1.600,-2.700,-7.100
3.405,1.000,-1.400,-2.200,-7.100
3.406,1.100,-1.000,-1.400,-7.100
3.407,1.600,-0.500,-0.600,-7.000
3.408,2.300,0.100,0.100,-6.500
3.409,3.100,0.800,0.500,-5.900
3.410,3.700,1.400,0.500,-5.500
3.411,4.200,2.000,0.300,-5.500
3.412,4.500,2.600,0.100,-5.900
3.413,4.800,3.000,0.000,-6.600
3.414,5.000,3.200,0.100,-7.200
3.415,5.200,3.100,0.000,-7.700
3.416,5.300,2.700,-0.200,-7.800
3.417,5.200,2.300,-0.600,-7.600
3.418,5.000,2.000,-0.900,-7.400
3.419,4.800,2.100,-1.100,-7.300
3.420,4.600,2.500,-1.000,-7.200
3.421,4.600,2.900,-0.600,-7.200
3.422,4.600,3.200,-0.100,-7.100
3.423,4.700,3.200,0.100,-6.900
3.424,4.700,3.000,-0.200,-6.700
3.425,4.600,2.500,-1.000,-6.700
3.426,4.100,1.800,-2.400,-7.000
3.427,3.400,0.800,-3.900,-7.500
3.428,2.400,-0.500,-5.100,-8.200
3.429,1.400,-2.000,-5.600,-8.700
3.430,0.400,-3.100,-5.500,-8.900
3.431,-0.200,-3.600,-4.700,-8.800
3.432,-0.400,-3.400,-3.900,-8.400
3.433,-0.300,-2.500,-3.200,-7.800
3.434,0.100,-1.300,-2.900,-7.000
3.435,0.400,0.000,-2.500,-5.900
3.436,0.900,1.400,-1.900,-4.600
3.437,1.500,3.000,-0.800,-3.000
3.438,2.400,4.800,0.600,-1.700
3.439,3.400,6.700,2.000,-0.600
3.440,4.400,8.300,2.900,0.100
3.441,5.200,9.300,3.600,1.100
3.442,5.800,10.100,4.700,3.100
3.443,6.700,11.300,6.900,6.800
3.444,8.600,13.900,10.700,12.200
3.445,11.700,18.000,15.500,18.400
3.446,15.700,22.900,20.000,24.000
3.447,19.600,27.400,22.900,27.600
3.448,22.200,30.000,23.200,28.400
3.449,22.600,30.200,21.400,26.800
3.450,21.100,28.300,18.500,23.500
3.451,18.400,25.200,15.700,19.600
3.452,15.700,22.100,13.600,15.400
3.453,13.600,19.400,11.700,10.800
3.454,11.900,16.500,9.300,5.400
3.455,10.200,12.900,5.600,-0.900
3.456,7.900,8.400,1.000,-7.500
3.457,4.800,3.300,-3.600,-13.300
3.458,1.600,-1.200,-6.900,-17.500
3.459,-0.800,-4.100,-8.100,-19.700
3.460,-1.800,-4.700,-7.400,-20.100
3.461,-1.500,-3.600,-5.600,-19.600
3.462,-0.400,-1.900,-4.000,-18.800
3.463,0.700,-0.500,-3.200,-18.100
3.464,1.400,0.100,-3.200,-17.100
3.465,1.600,-0.100,-3.400,-15.800
3.466,1.700,-0.400,-3.300,-13.900
3.467,2.000,-0.200,-2.800,-11.700
3.468,2.500,0.800,-2.000,-9.700
3.469,3.000,2.300,-1.500,-8.200
3.470,3.300,3.600,-1.500,-7.400
3.471,3.200,4.300,-1.800,-7.100
3.472,2.900,4.300,-2.200,-7.500
3.473,2.700,3.600,-2.400,-8.300
3.474,3.000,2.700,-2.400,-9.300
3.475,3.700,1.800,-2.100,-10.400
3.476,4.600,1.300,-1.800,-11.000
3.477,5.300,1.200,-1.700,-10.800
3.478,5.700,1.400,-1.600,-9.700
3.479,5.600,1.800,-1.400,-7.800
3.480,5.200,2.200,-1.000,-5.700
3.481,4.700,2.700,-0.500,-4.200
3.482,4.400,3.100,0.000,-3.600
3.483,4.100,3.400,0.200,-3.800
3.484,4.000,3.600,-0.100,-4.600
3.485,3.900,3.500,-0.800,-5.500
3.486,3.900,3.200,-1.700,-6.100
3.487,3.900,2.600,-2.800,-6.500
3.488,3.800,1.900,-3.700,-6.800
3.489,3.700,1.300,-4.300,-7.100
3.490,3.400,0.900,-4.700,-7.500
3.491,3.100,0.800,-4.900,-7.600
3.492,3.000,0.900,-4.800,-7.400
3.493,3.000,0.800,-4.500,-6.800
3.494,3.300,0.600,-4.000,-5.900
3.495,3.700,0.000,-3.300,-5.200
3.496,4.200,-0.700,-2.200,-4.800
3.497,4.700,-1.200,-0.900,-4.800
3.498,5.200,-1.400,0.400,-4.900
3.499,5.700,-1.100,1.500,-4.900
3.500,6.400,-0.400,2.200,-4.700
3.501,7.100,0.200,2.300,-4.400
3.502,7.500,0.400,1.900,-4.400
3.503,7.300,0.100,1.100,-4.800
3.504,6.500,-0.600,0.200,-5.700
3.505,5.300,-1.300,-0.500,-6.800
3.506,4.000,-1.600,-0.700,-7.700
3.507,3.300,-1.200,-0.700,-8.100
3.508,3.200,-0.200,-0.600,-8.000
3.509,3.800,1.000,-0.700,-7.800
3.510,4.500,1.800,-0.900,-7.700
3.511,5.000,2.000,-1.100,-8.000
3.512,4.900,1.300,-1.100,-8.600
3.513,4.300,0.100,-0.800,-9.000
3.514,3.600,-1.000,-0.400,-9.100
3.515,3.200,-1.700,0.000,-8.600
3.516,3.300,-1.700,0.200,-7.700
3.517,4.000,-1.200,0.000,-6.800
3.518,4.900,-0.500,-0.500,-6.300
3.519,5.600,-0.100,-0.900,-6.600
3.520,6.000,0.000,-1.100,-7.300
3.521,6.000,-0.200,-1.000,-8.200
3.522,5.800,-0.400,-0.600,-8.800
3.523,5.800,-0.100,-0.200,-8.900
3.524,6.000,0.600,0.000,-8.400
3.525,6.300,1.700,-0.100,-7.600
3.526,6.500,2.900,-0.400,-6.900
3.527,6.400,3.900,-0.700,-6.500
3.528,6.000,4.600,-0.900,-6.400
3.529,5.600,5.100,-0.900,-6.500
3.530,5.300,5.300,-0.700,-6.600
3.531,5.300,5.400,-0.600,-6.600
3.532,5.500,5.400,-0.500,-6.500
3.533,5.600,5.500,-0.600,-6.600
3.534,5.400,5.600,-0.700,-6.800
3.535,5.100,5.700,-0.500,-7.000
3.536,4.700,5.900,0.000,-7.000
3.537,4.700,6.000,0.800,-6.600
3.538,5.400,5.700,1.500,-5.900
3.539,6.600,5.000,1.800,-4.900
3.540,8.000,4.200,1.500,-4.000
3.541,9.300,3.600,1.000,-3.600
3.542,10.000,3.400,0.700,-3.600
3.543,10.100,3.900,0.800,-4.100
3.544,9.900,4.800,1.700,-4.600
3.545,9.900,6.000,3.300,-4.700
3.546,10.600,7.300,5.200,-4.200
3.547,12.300,8.800,7.100,-3.000
3.548,15.000,10.600,8.900,-1.200
3.549,18.200,12.800,10.500,0.900
3.550,21.200,15.200,11.800,2.800
3.551,23.400,17.300,12.900,4.100
3.552,24.400,18.900,13.600,4.700
3.553,24.400,19.600,14.100,4.900
3.554,23.700,19.900,14.700,5.100
3.555,22.800,20.100,15.800,6.000
3.556,22.200,20.700,17.400,7.800
3.557,21.800,21.800,19.700,10.400
3.558,21.300,23.500,22.000,13.300
3.559,20.300,25.000,23.900,16.100
3.560,18.500,25.900,24.900,18.400
3.561,15.700,26.000,24.900,20.200
3.562,12.100,25.000,24.200,21.800
3.563,8.000,23.300,23.200,23.600
3.564,3.700,21.200,22.600,25.800
3.565,-0.800,19.000,22.400,28.500
3.566,-5.200,16.900,22.600,31.200
3.567,-9.700,15.100,22.800,33.600
3.568,-14.200,13.600,22.500,35.700
3.569,-18.700,12.300,21.700,37.200
3.570,-23.000,11.300,20.200,38.300
3.571,-27.100,10.400,18.200,39.000
3.572,-30.900,9.400,15.700,39.300
3.573,-34.500,8.300,13.000,39.000
3.574,-38.200,6.800,10.200,38.100
3.575,-41.800,5.100,7.400,36.700
3.576,-45.400,3.100,4.700,34.700
3.577,-48.700,1.000,2.300,32.600
3.578,-51.600,-1.100,0.200,30.500
3.579,-53.900,-3.100,-1.400,28.500
3.580,-55.500,-4.900,-2.300,26.900
3.581,-56.600,-6.600,-2.500,25.400
3.582,-56.900,-8.200,-2.000,23.700
3.583,-56.400,-9.600,-1.300,21.500
3.584,-55.100,-10.800,-0.900,18.400
3.585,-52.800,-12.000,-1.500,14.400
3.586,-49.900,-13.000,-3.300,9.500
3.587,-46.400,-13.700,-6.300,4.200
3.588,-42.600,-14.200,-9.900,-1.400
3.589,-38.400,-14.400,-13.500,-7.000
3.590,-33.900,-14.400,-16.500,-12.400
3.591,-28.800,-14.100,-18.600,-17.700
3.592,-23.400,-13.900,-20.000,-22.700
3.593,-18.300,-14.000,-21.100,-27.000
3.594,-14.100,-14.300,-22.100,-30.300
3.595,-11.400,-14.600,-23.200,-32.500
3.596,-10.100,-14.700,-24.000,-33.500
3.597,-9.700,-14.000,-24.200,-33.500
3.598,-9.400,-12.600,-23.500,-32.700
3.599,-8.500,-10.500,-22.200,-31.400
3.600,-7.000,-8.200,-20.800,-30.000
3.601,-5.200,-6.300,-19.800,-28.900
3.602,-3.600,-5.300,-19.600,-28.300
3.603,-2.700,-5.100,-20.100,-28.000
3.604,-2.600,-5.500,-20.700,-27.900
3.605,-2.800,-6.000,-20.900,-27.600
3.606,-2.900,-6.300,-20.400,-27.000
3.607,-2.800,-6.300,-19.400,-26.100
3.608,-2.300,-6.100,-18.000,-24.900
3.609,-1.900,-5.800,-16.800,-23.700
3.610,-1.700,-5.400,-15.800,-22.600
3.611,-1.800,-4.700,-15.000,-21.500
3.612,-1.900,-3.600,-14.300,-20.200
3.613,-1.900,-2.200,-13.400,-18.800
3.614,-1.500,-0.800,-12.400,-17.300
3.615,-0.800,0.400,-11.300,-15.700
3.616,0.100,1.100,-10.100,-14.200
3.617,1.000,1.500,-9.000,-12.800
3.618,1.700,1.800,-7.800,-11.200
3.619,2.100,2.100,-6.700,-9.300
3.620,2.100,2.500,-5.600,-7.300
3.621,2.000,3.100,-4.500,-5.400
3.622,1.900,3.700,-3.500,-3.800
3.623,2.000,4.400,-2.600,-2.800
3.624,2.400,5.300,-1.800,-2.200
3.625,3.000,6.300,-1.100,-1.800
3.626,3.600,7.400,-0.700,-1.300
3.627,4.200,8.400,-0.500,-0.600
3.628,4.500,8.900,-0.500,0.300
3.629,4.500,8.900,-0.300,0.900
3.630,4.600,8.500,0.100,1.200
3.631,4.800,7.900,0.800,0.900
3.632,5.300,7.500,1.400,0.300
3.633,5.800,7.600,2.000,-0.400
3.634,6.200,8.200,2.200,-0.900
3.635,6.000,8.900,2.300,-1.100
3.636,5.500,9.400,2.300,-1.000
