'Elapsed time','AECG1','AECG2','AECG3','AECG4'
'seconds','uV','uV','uV','uV'
0.000,-8.800,-8.600,4.200,-3.100
0.001,-9.400,-9.200,4.700,-4.500
0.002,-9.800,-9.700,5.200,-6.000
0.003,-10.100,-10.100,5.700,-7.300
0.004,-10.200,-10.500,6.100,-8.000
0.005,-10.200,-10.900,6.500,-7.800
0.006,-10.100,-11.200,7.000,-6.900
0.007,-10.000,-11.500,7.400,-5.800
0.008,-9.900,-11.800,7.800,-5.000
0.009,-10.000,-11.900,8.100,-4.300
0.010,-10.200,-11.900,8.300,-3.700
0.011,-10.400,-11.800,8.300,-3.000
0.012,-10.800,-11.600,8.200,-2.300
0.013,-11.200,-11.400,8.200,-1.700
0.014,-11.800,-11.400,8.100,-1.500
0.015,-12.700,-11.600,8.000,-1.300
0.016,-13.700,-12.100,7.900,-1.200
0.017,-14.700,-12.600,7.800,-0.900
0.018,-15.400,-13.000,7.800,-0.600
0.019,-16.000,-13.100,7.700,-0.400
0.020,-16.300,-13.100,7.600,-0.400
0.021,-16.500,-13.000,7.500,-0.600
0.022,-16.500,-12.900,7.400,-1.000
0.023,-16.400,-12.800,7.300,-1.400
0.024,-16.200,-12.600,7.300,-1.700
0.025,-15.800,-12.300,7.300,-1.800
0.026,-15.600,-11.800,7.300,-1.700
0.027,-15.700,-11.400,7.100,-1.400
0.028,-16.200,-11.000,6.800,-1.200
0.029,-17.000,-10.800,6.500,-1.100
0.030,-18.100,-10.600,6.300,-1.000
0.031,-19.300,-10.400,6.200,-1.000
0.032,-20.700,-10.200,6.000,-0.800
0.033,-22.500,-10.000,5.900,-0.600
0.034,-24.500,-9.800,5.800,-0.700
0.035,-26.700,-9.800,6.000,-1.000
0.036,-28.700,-9.800,6.500,-1.600
0.037,-30.300,-10.000,7.400,-2.400
0.038,-31.400,-10.100,8.400,-3.200
0.039,-32.200,-10.200,9.400,-4.000
0.040,-32.900,-10.400,10.500,-4.700
0.041,-33.300,-10.700,11.700,-5.500
0.042,-33.300,-11.000,12.600,-6.100
0.043,-32.700,-11.600,13.300,-6.800
0.044,-31.800,-12.200,13.800,-7.500
0.045,-31.000,-12.900,14.000,-8.200
0.046,-30.300,-13.500,14.100,-9.100
0.047,-29.600,-13.800,13.900,-9.800
0.048,-29.000,-14.000,13.200,-10.200
0.049,-28.300,-14.100,12.000,-10.500
0.050,-27.700,-14.400,10.800,-10.600
0.051,-27.300,-14.900,10.100,-10.600
0.052,-27.100,-15.500,10.200,-10.200
0.053,-26.800,-15.600,10.600,-9.100
0.054,-26.100,-15.300,10.400,-7.300
0.055,-24.900,-14.700,9.200,-5.600
0.056,-23.600,-14.000,7.200,-4.800
0.057,-22.500,-13.700,5.400,-5.300
0.058,-21.500,-13.500,4.400,-6.300
0.059,-20.600,-13.300,4.200,-6.700
0.060,-19.600,-12.900,4.400,-5.700
0.061,-18.300,-12.400,4.600,-3.800
0.062,-16.800,-12.200,4.400,-2.100
0.063,-15.300,-12.200,4.300,-1.600
0.064,-13.800,-12.500,4.300,-2.300
0.065,-12.400,-12.600,4.500,-3.600
0.066,-11.000,-12.500,4.700,-4.700
0.067,-9.700,-12.200,4.600,-5.300
0.068,-8.400,-11.800,4.300,-5.700
0.069,-7.200,-11.500,3.900,-6.300
0.070,-6.200,-11.300,3.500,-6.900
0.071,-5.600,-11.200,3.100,-7.500
0.072,-5.300,-11.000,2.600,-7.800
0.073,-5.400,-10.700,2.000,-7.900
0.074,-5.800,-10.300,1.300,-7.900
0.075,-6.200,-9.800,0.600,-7.800
0.076,-6.800,-9.300,0.100,-7.400
0.077,-7.400,-8.600,-0.300,-6.200
0.078,-8.100,-8.000,-0.500,-4.600
0.079,-9.000,-7.300,-0.600,-2.600
0.080,-10.000,-6.500,-0.500,-0.700
0.081,-10.800,-5.700,-0.100,1.200
0.082,-11.200,-4.900,0.600,2.900
0.083,-11.100,-4.100,1.500,4.600
0.084,-10.700,-3.400,2.400,6.000
0.085,-10.100,-2.700,3.300,7.200
0.086,-9.400,-2.100,4.000,8.000
0.087,-8.600,-1.600,4.700,8.300
0.088,-7.500,-1.200,5.300,8.300
0.089,-5.900,-0.800,5.700,7.800
0.090,-4.000,-0.400,6.000,7.000
0.091,-2.000,-0.100,5.900,6.000
0.092,-0.200,0.100,5.500,5.000
0.093,1.400,0.200,4.800,4.100
0.094,2.700,0.400,4.200,3.200
0.095,3.900,0.700,3.600,2.200
0.096,5.000,1.100,2.900,0.900
0.097,5.700,1.500,2.100,-0.600
0.098,5.700,1.800,1.300,-2.000
0.099,5.100,1.900,0.500,-3.300
0.100,4.000,2.000,-0.100,-4.500
0.101,2.700,2.200,-0.600,-5.500
0.102,1.600,2.400,-0.900,-6.400
0.103,0.600,2.600,-1.300,-7.300
0.104,-0.300,2.800,-1.600,-8.000
0.105,-1.300,3.000,-1.800,-8.600
0.106,-2.300,3.200,-2.000,-8.800
0.107,-3.100,3.400,-2.100,-8.800
0.108,-3.600,3.500,-2.200,-8.700
0.109,-3.500,3.400,-2.200,-8.400
0.110,-3.000,3.000,-2.300,-8.000
0.111,-2.300,2.400,-2.400,-7.500
0.112,-1.500,1.800,-2.600,-7.000
0.113,-0.500,1.300,-2.800,-6.600
0.114,0.500,1.000,-2.900,-6.200
0.115,1.700,0.900,-3.100,-5.700
0.116,3.000,1.000,-3.200,-4.900
0.117,4.100,1.100,-3.200,-4.000
0.118,4.800,1.200,-3.200,-3.000
0.119,5.300,1.400,-3.200,-1.900
0.120,5.500,1.600,-3.100,-1.000
0.121,5.700,1.800,-2.900,-0.100
0.122,6.000,2.100,-2.700,0.700
0.123,6.300,2.400,-2.600,1.300
0.124,6.500,2.700,-2.400,1.800
0.125,6.500,3.100,-2.300,2.300
0.126,6.500,3.500,-2.100,2.700
0.127,6.500,4.000,-2.100,3.000
0.128,6.600,4.500,-2.100,3.100
0.129,6.900,4.800,-2.100,3.100
0.130,7.400,5.000,-2.100,3.200
0.131,7.900,5.300,-2.100,3.400
0.132,8.500,5.500,-2.100,4.000
0.133,9.200,5.600,-2.100,4.800
0.134,10.100,5.400,-2.200,5.500
0.135,11.200,5.000,-2.300,6.100
0.136,12.200,4.600,-2.400,6.600
0.137,13.100,4.200,-2.600,7.000
0.138,13.600,4.000,-2.700,7.400
0.139,14.100,4.000,-2.800,7.900
0.140,14.400,4.000,-2.800,8.300
0.141,14.600,4.000,-2.800,8.400
0.142,14.700,4.000,-2.900,8.200
0.143,14.500,4.000,-2.900,7.900
0.144,13.900,4.000,-2.900,7.500
0.145,13.100,3.900,-2.900,7.200
0.146,12.100,3.900,-2.800,6.900
0.147,10.900,3.900,-2.700,6.400
0.148,9.700,4.000,-2.600,5.600
0.149,8.700,4.100,-2.500,4.400
0.150,8.100,4.200,-2.300,2.900
0.151,7.900,4.200,-2.200,1.400
0.152,8.100,4.200,-2.100,-0.100
0.153,8.200,4.400,-2.100,-1.300
0.154,8.200,4.900,-1.900,-2.200
0.155,8.100,5.700,-1.700,-3.000
0.156,8.100,6.400,-1.500,-3.800
0.157,8.400,6.800,-1.200,-4.400
0.158,9.100,7.000,-0.900,-4.400
0.159,10.000,6.900,-0.700,-3.600
0.160,10.700,7.000,-0.300,-1.700
0.161,11.300,7.200,0.300,0.700
0.162,11.800,7.700,0.900,3.400
0.163,12.300,8.100,1.600,5.900
0.164,12.700,8.400,2.400,8.300
0.165,13.000,8.600,3.200,10.700
0.166,13.100,8.800,4.000,13.200
0.167,12.900,9.000,4.800,15.500
0.168,12.500,9.300,5.600,17.200
0.169,12.000,9.500,6.400,18.200
0.170,11.300,9.500,7.100,18.800
0.171,10.300,9.300,7.800,19.000
0.172,9.000,9.000,8.300,19.100
0.173,7.300,8.700,8.800,19.000
0.174,5.600,8.500,9.300,18.600
0.175,3.900,8.500,9.700,17.700
0.176,2.400,8.600,10.100,16.400
0.177,0.900,8.500,10.600,15.000
0.178,-0.600,8.400,10.900,13.700
0.179,-2.000,8.200,11.300,12.500
0.180,-3.100,8.100,11.600,11.500
0.181,-3.400,8.200,11.800,10.700
0.182,-2.800,8.300,11.800,10.100
0.183,-1.400,8.600,11.700,9.500
0.184,0.400,8.900,11.400,9.000
0.185,2.300,9.300,11.000,8.500
0.186,4.500,10.000,10.500,8.000
0.187,7.000,10.800,9.700,7.600
0.188,9.800,11.600,8.700,7.300
0.189,12.600,12.200,7.500,7.100
0.190,15.200,12.400,6.300,6.800
0.191,17.100,12.400,5.300,6.400
0.192,18.300,12.300,4.500,6.000
0.193,18.900,12.100,3.900,5.500
0.194,19.200,11.900,3.400,5.100
0.195,19.200,11.500,3.000,4.600
0.196,18.700,10.900,2.600,4.000
0.197,17.800,9.900,2.400,3.500
0.198,16.200,8.600,2.200,3.000
0.199,14.300,7.200,1.800,2.400
0.200,12.300,5.500,1.100,1.600
0.201,10.500,3.600,0.000,0.700
0.202,9.200,1.300,-1.400,-0.400
0.203,8.300,-1.300,-3.100,-1.600
0.204,7.800,-4.300,-4.900,-2.700
0.205,7.500,-7.800,-7.000,-4.000
0.206,7.500,-11.700,-9.500,-5.700
0.207,8.100,-16.100,-12.300,-7.900
0.208,9.300,-21.100,-15.300,-10.800
0.209,11.300,-26.700,-18.600,-14.200
0.210,14.100,-32.700,-21.900,-18.300
0.211,17.100,-39.300,-25.300,-22.800
0.212,20.300,-46.300,-28.800,-27.800
0.213,23.300,-53.900,-32.300,-33.300
0.214,26.300,-62.100,-35.900,-39.100
0.215,29.300,-70.900,-39.600,-44.900
0.216,31.900,-80.200,-43.000,-50.600
0.217,33.700,-90.000,-46.300,-56.100
0.218,34.300,-99.900,-49.200,-61.500
0.219,33.300,-110.100,-51.700,-66.900
0.220,30.900,-120.300,-53.700,-72.200
0.221,27.100,-130.500,-55.000,-77.100
0.222,22.000,-140.500,-55.600,-81.600
0.223,15.600,-150.100,-55.500,-85.300
0.224,8.500,-158.700,-54.900,-88.300
0.225,1.300,-166.100,-54.200,-90.700
0.226,-5.000,-171.700,-53.400,-92.400
0.227,-9.800,-175.400,-52.700,-93.300
0.228,-12.500,-176.900,-52.200,-93.400
0.229,-13.500,-176.100,-51.700,-92.600
0.230,-13.400,-173.100,-51.200,-90.800
0.231,-12.900,-168.100,-50.100,-88.200
0.232,-12.700,-161.200,-48.400,-85.100
0.233,-13.000,-152.600,-45.800,-81.500
0.234,-14.000,-142.600,-42.300,-77.500
0.235,-15.600,-131.400,-38.000,-73.000
0.236,-17.700,-119.200,-33.100,-67.800
0.237,-20.400,-106.100,-27.700,-62.100
0.238,-23.600,-92.400,-21.900,-56.000
0.239,-27.300,-78.300,-15.900,-49.700
0.240,-31.400,-64.200,-9.700,-43.400
0.241,-35.800,-50.300,-3.400,-37.000
0.242,-40.400,-37.000,2.800,-30.500
0.243,-45.600,-24.600,8.900,-24.000
0.244,-51.400,-13.200,14.800,-17.500
0.245,-57.800,-3.200,20.300,-11.500
0.246,-64.200,5.600,25.500,-6.100
0.247,-69.900,13.100,30.000,-1.200
0.248,-74.400,19.400,33.900,3.100
0.249,-77.500,24.600,37.000,6.800
0.250,-79.400,28.800,39.200,9.800
0.251,-79.800,32.100,40.200,12.000
0.252,-77.900,34.700,40.200,13.700
0.253,-73.000,36.800,38.900,15.300
0.254,-64.800,38.400,36.700,16.900
0.255,-53.800,39.500,33.500,18.100
0.256,-41.500,40.300,29.500,18.600
0.257,-28.800,40.700,25.000,17.900
0.258,-16.400,40.900,20.100,16.900
0.259,-4.300,40.900,15.200,16.500
0.260,7.400,40.800,10.300,17.100
0.261,18.100,40.400,5.800,18.600
0.262,27.100,39.500,1.700,19.900
0.263,34.000,38.200,-1.800,20.300
0.264,38.700,36.500,-4.700,19.900
0.265,41.800,34.700,-7.100,19.400
0.266,43.700,32.900,-9.000,19.200
0.267,44.500,31.100,-10.500,19.200
0.268,44.300,29.300,-11.600,18.900
0.269,42.900,27.400,-12.400,17.800
0.270,40.800,25.400,-12.900,16.100
0.271,38.200,23.300,-13.200,14.300
0.272,35.400,21.200,-13.400,12.500
0.273,32.600,19.200,-13.400,10.700
0.274,29.900,17.400,-13.200,8.900
0.275,27.300,15.700,-13.000,7.000
0.276,24.800,14.200,-12.800,5.100
0.277,22.500,12.800,-12.500,3.500
0.278,20.300,11.600,-12.100,2.200
0.279,18.400,10.400,-11.700,0.900
0.280,17.000,9.400,-11.300,-0.200
0.281,16.400,8.600,-10.800,-1.300
0.282,16.400,7.800,-10.200,-2.100
0.283,16.600,7.000,-9.700,-2.700
0.284,16.800,6.400,-9.000,-3.100
0.285,17.000,5.800,-8.400,-3.200
0.286,17.100,5.300,-7.700,-2.900
0.287,17.400,5.000,-7.100,-2.000
0.288,17.800,4.700,-6.500,-0.500
0.289,17.900,4.500,-6.000,1.300
0.290,17.500,4.200,-5.400,3.000
0.291,16.500,3.900,-4.800,4.400
0.292,15.400,3.400,-4.100,5.700
0.293,14.300,2.900,-3.400,7.000
0.294,13.500,2.500,-2.700,8.400
0.295,12.900,2.300,-2.100,9.400
0.296,12.200,2.000,-1.500,9.900
0.297,11.600,1.800,-1.000,9.800
0.298,10.900,1.500,-0.500,9.300
0.299,10.300,1.200,0.000,8.500
0.300,9.800,1.000,0.500,7.600
0.301,9.400,0.900,0.800,6.600
0.302,8.800,1.000,1.000,5.300
0.303,8.100,1.300,1.100,3.900
0.304,7.400,1.500,1.000,2.500
0.305,6.500,1.700,0.900,1.400
0.306,5.600,2.000,0.700,0.500
0.307,4.400,2.300,0.300,-0.200
0.308,2.800,2.700,-0.200,-0.800
0.309,1.000,2.800,-0.700,-1.600
0.310,-0.800,2.700,-1.200,-2.300
0.311,-2.600,2.400,-1.600,-2.900
0.312,-4.000,1.800,-1.800,-3.300
0.313,-5.300,1.200,-2.000,-3.300
0.314,-6.400,0.800,-2.100,-3.000
0.315,-7.500,0.300,-2.000,-2.500
0.316,-8.100,-0.200,-1.800,-1.900
0.317,-7.900,-0.800,-1.400,-1.100
0.318,-6.900,-1.500,-0.900,-0.100
0.319,-5.100,-2.500,-0.500,0.800
0.320,-3.100,-3.500,-0.100,1.800
0.321,-1.000,-4.600,0.100,2.700
0.322,1.200,-5.800,0.300,3.600
0.323,3.600,-7.000,0.500,4.500
0.324,6.300,-8.200,0.800,5.500
0.325,8.900,-9.100,1.100,6.200
0.326,10.900,-9.700,1.200,6.700
0.327,12.300,-9.900,0.900,6.800
0.328,13.000,-9.700,0.500,6.500
0.329,13.300,-9.300,0.000,5.900
0.330,13.500,-8.700,-0.600,5.100
0.331,13.600,-8.100,-1.000,3.700
0.332,13.500,-7.400,-1.400,1.800
0.333,12.900,-6.500,-1.700,-0.700
0.334,11.900,-5.500,-1.900,-3.400
0.335,10.700,-4.300,-1.900,-6.000
0.336,9.300,-3.300,-1.700,-8.200
0.337,8.000,-2.400,-1.500,-10.100
0.338,7.000,-1.900,-1.400,-11.500
0.339,6.100,-1.500,-1.600,-12.400
0.340,5.200,-1.200,-2.000,-13.000
0.341,4.000,-1.000,-2.400,-13.200
0.342,2.700,-1.100,-2.600,-13.200
0.343,1.100,-1.600,-2.400,-12.800
0.344,-0.700,-2.300,-2.100,-12.400
0.345,-2.700,-3.100,-1.600,-12.000
0.346,-4.700,-4.000,-1.200,-11.600
0.347,-6.500,-4.800,-0.900,-11.000
0.348,-7.900,-5.500,-0.700,-10.000
0.349,-8.900,-6.200,-0.700,-8.700
0.350,-9.400,-6.700,-0.700,-7.500
0.351,-9.700,-7.000,-0.800,-6.300
0.352,-9.800,-7.300,-1.000,-5.100
0.353,-9.600,-7.400,-1.100,-3.300
0.354,-9.100,-7.400,-1.100,-1.000
0.355,-8.200,-7.300,-0.900,1.000
0.356,-7.000,-7.100,-0.700,2.000
0.357,-5.600,-6.800,-0.400,1.400
0.358,-4.200,-6.400,-0.300,0.200
0.359,-2.700,-6.000,-0.200,-0.200
0.360,-1.100,-5.600,-0.300,0.900
0.361,0.500,-5.500,-0.500,3.200
0.362,2.000,-5.600,-0.600,5.300
0.363,3.200,-5.800,-0.700,6.000
0.364,4.100,-6.200,-0.800,5.400
0.365,4.800,-6.500,-1.000,4.000
0.366,5.300,-6.800,-1.100,2.900
0.367,5.800,-7.100,-1.300,2.000
0.368,6.200,-7.400,-1.400,1.200
0.369,6.300,-7.700,-1.500,0.000
0.370,6.100,-8.000,-1.600,-1.200
0.371,5.500,-8.100,-1.800,-2.200
0.372,4.500,-8.200,-1.900,-2.800
0.373,3.300,-8.400,-2.100,-3.200
0.374,2.200,-8.600,-2.200,-3.600
0.375,1.200,-8.800,-2.200,-4.000
0.376,0.400,-9.000,-2.200,-4.200
0.377,-0.300,-9.200,-2.100,-3.800
0.378,-1.000,-9.300,-2.000,-3.100
0.379,-1.600,-9.500,-2.000,-2.300
0.380,-1.900,-9.600,-1.900,-1.700
0.381,-1.900,-9.800,-1.800,-1.300
0.382,-1.500,-9.900,-1.800,-1.100
0.383,-0.800,-10.000,-1.800,-0.900
0.384,-0.100,-10.000,-1.800,-0.800
0.385,0.700,-10.000,-1.800,-0.700
0.386,1.500,-10.000,-1.800,-0.800
0.387,2.400,-9.900,-1.800,-1.000
0.388,3.300,-9.700,-1.800,-1.200
0.389,4.000,-9.600,-1.800,-1.500
0.390,4.300,-9.800,-1.900,-1.700
0.391,4.300,-10.200,-1.900,-1.900
0.392,4.000,-10.900,-2.000,-2.000
0.393,3.700,-11.500,-2.100,-1.800
0.394,3.300,-11.900,-2.200,-1.600
0.395,2.900,-12.000,-2.300,-1.500
0.396,2.400,-12.100,-2.400,-1.600
0.397,1.900,-12.300,-2.500,-2.000
0.398,1.600,-12.700,-2.700,-2.500
0.399,1.600,-13.400,-2.900,-2.900
0.400,1.600,-14.000,-3.100,-3.100
0.401,1.600,-14.400,-3.400,-3.200
0.402,1.500,-14.500,-3.700,-3.400
0.403,1.300,-14.500,-4.000,-3.800
0.404,1.000,-14.400,-4.400,-4.500
0.405,0.800,-14.200,-4.700,-5.300
0.406,0.500,-13.900,-5.000,-5.900
0.407,0.000,-13.500,-5.300,-6.300
0.408,-0.800,-12.900,-5.500,-6.500
0.409,-1.600,-12.400,-5.600,-6.700
0.410,-2.400,-12.000,-5.500,-7.000
0.411,-3.100,-11.800,-5.400,-7.100
0.412,-3.700,-11.600,-5.200,-6.800
0.413,-4.100,-11.400,-5.000,-6.000
0.414,-4.400,-11.300,-4.900,-5.000
0.415,-4.300,-11.400,-4.700,-4.300
0.416,-3.900,-11.700,-4.400,-4.100
0.417,-3.100,-12.200,-4.100,-4.300
0.418,-2.000,-12.900,-3.900,-4.500
0.419,-0.700,-13.500,-3.800,-4.500
0.420,0.700,-14.100,-3.900,-4.400
0.421,2.100,-14.700,-4.000,-4.400
0.422,3.500,-15.400,-4.100,-4.700
0.423,4.900,-16.300,-4.100,-5.100
0.424,6.400,-17.200,-4.100,-5.500
0.425,7.800,-18.100,-4.200,-5.800
0.426,9.000,-18.700,-4.400,-5.900
0.427,10.100,-18.900,-4.700,-6.000
0.428,10.800,-19.100,-5.000,-6.500
0.429,11.400,-19.200,-5.400,-7.200
0.430,11.800,-19.400,-5.700,-8.200
0.431,12.100,-19.500,-6.000,-8.900
0.432,12.300,-19.600,-6.200,-9.300
0.433,12.300,-19.600,-6.300,-9.300
0.434,12.200,-19.500,-6.600,-9.100
0.435,11.800,-19.500,-6.900,-8.900
0.436,11.200,-19.200,-7.200,-8.700
0.437,10.500,-18.800,-7.600,-8.500
0.438,9.600,-18.200,-7.900,-8.300
0.439,8.400,-17.400,-8.300,-8.000
0.440,7.100,-16.500,-8.800,-8.000
0.441,5.900,-15.600,-9.400,-8.200
0.442,5.000,-14.700,-9.800,-8.600
0.443,4.200,-13.700,-10.100,-9.100
0.444,3.200,-12.500,-10.300,-9.400
0.445,2.200,-11.400,-10.400,-9.700
0.446,1.500,-10.700,-10.700,-9.900
0.447,1.700,-10.500,-10.700,-10.000
0.448,2.800,-10.800,-10.200,-10.100
0.449,4.100,-11.100,-9.100,-10.200
0.450,4.400,-11.000,-7.900,-10.200
0.451,3.300,-10.400,-7.500,-10.100
0.452,2.000,-9.800,-8.000,-9.900
0.453,2.100,-9.800,-8.800,-9.600
0.454,4.300,-10.800,-8.900,-9.200
0.455,8.100,-12.400,-7.700,-8.800
0.456,11.700,-14.000,-5.500,-8.500
0.457,13.700,-14.800,-3.500,-8.300
0.458,14.100,-15.000,-2.500,-8.300
0.459,13.900,-14.800,-2.500,-8.200
0.460,13.900,-14.700,-3.000,-8.000
0.461,14.000,-14.900,-3.300,-7.800
0.462,13.800,-15.400,-3.400,-7.800
0.463,12.600,-15.800,-3.600,-7.900
0.464,10.800,-16.100,-4.100,-8.100
0.465,9.100,-16.300,-5.000,-8.300
0.466,7.800,-16.600,-5.700,-8.300
0.467,6.800,-16.900,-6.200,-8.500
0.468,5.800,-17.200,-6.300,-8.800
0.469,4.700,-17.400,-6.400,-9.400
0.470,4.100,-17.600,-6.600,-10.100
0.471,3.900,-17.700,-6.900,-10.500
0.472,4.200,-17.900,-7.000,-10.900
0.473,4.600,-18.000,-7.000,-11.100
0.474,4.500,-18.300,-6.900,-11.300
0.475,4.100,-18.600,-6.700,-11.600
0.476,3.500,-19.000,-6.500,-11.600
0.477,2.900,-19.400,-6.300,-11.500
0.478,2.300,-19.700,-6.100,-11.100
0.479,1.600,-20.000,-5.800,-10.500
0.480,0.700,-20.200,-5.600,-10.000
0.481,-0.100,-20.300,-5.400,-9.600
0.482,-0.700,-20.500,-5.100,-9.200
0.483,-0.800,-20.800,-4.800,-8.800
0.484,-0.700,-21.200,-4.400,-8.300
0.485,-0.400,-21.400,-4.000,-7.700
0.486,0.000,-21.600,-3.600,-7.100
0.487,0.700,-21.500,-3.300,-6.500
0.488,1.600,-21.300,-3.000,-6.100
0.489,2.800,-21.100,-2.700,-5.800
0.490,3.900,-21.100,-2.400,-5.600
0.491,4.900,-21.100,-2.100,-5.500
0.492,5.500,-21.100,-1.900,-5.100
0.493,5.900,-21.000,-1.700,-4.500
0.494,6.100,-20.800,-1.600,-4.000
0.495,6.000,-20.400,-1.500,-3.800
0.496,5.800,-20.000,-1.400,-4.100
0.497,5.300,-19.700,-1.400,-4.800
0.498,4.400,-19.500,-1.400,-5.500
0.499,3.200,-19.500,-1.500,-6.000
0.500,1.600,-19.500,-1.700,-6.400
0.501,0.000,-19.600,-1.900,-6.900
0.502,-1.600,-19.700,-2.100,-7.500
0.503,-3.000,-19.700,-2.300,-8.200
0.504,-4.500,-19.700,-2.500,-8.500
0.505,-5.900,-19.700,-2.600,-8.500
0.506,-7.300,-19.600,-2.600,-8.300
0.507,-8.700,-19.400,-2.400,-8.000
0.508,-10.000,-19.100,-1.900,-7.900
0.509,-11.000,-18.700,-1.100,-7.800
0.510,-11.800,-18.100,0.000,-7.600
0.511,-12.500,-17.600,1.200,-7.300
0.512,-13.000,-17.000,2.500,-7.000
0.513,-13.400,-16.500,3.700,-6.800
0.514,-13.700,-16.000,4.800,-6.700
0.515,-14.000,-15.500,5.800,-6.500
0.516,-14.100,-15.000,6.600,-6.400
0.517,-14.200,-14.400,7.200,-6.200
0.518,-14.200,-13.800,7.500,-6.100
0.519,-14.100,-13.200,7.500,-6.000
0.520,-13.900,-12.700,7.100,-6.000
0.521,-13.500,-12.200,6.700,-5.800
0.522,-12.800,-11.700,6.200,-5.500
0.523,-12.000,-11.200,5.600,-5.100
0.524,-10.900,-10.700,5.000,-4.600
0.525,-9.900,-10.100,4.300,-4.100
0.526,-8.800,-9.800,3.700,-3.700
0.527,-7.800,-9.400,3.200,-3.400
0.528,-6.900,-9.200,2.800,-3.200
0.529,-6.100,-8.900,2.600,-3.200
0.530,-5.300,-8.700,2.400,-3.500
0.531,-4.700,-8.400,2.200,-3.800
0.532,-4.200,-8.200,2.100,-3.900
0.533,-3.700,-8.000,2.000,-3.700
0.534,-3.000,-8.000,2.000,-3.400
0.535,-2.200,-7.900,2.000,-3.100
0.536,-1.500,-7.800,2.000,-2.800
0.537,-0.800,-7.500,2.000,-2.900
0.538,-0.500,-7.100,1.900,-3.000
0.539,-0.400,-6.600,1.700,-3.100
0.540,-0.600,-6.000,1.600,-3.200
0.541,-1.000,-5.400,1.400,-3.100
0.542,-1.500,-4.800,1.200,-2.900
0.543,-2.200,-4.200,1.100,-2.700
0.544,-3.400,-3.600,1.000,-2.600
0.545,-4.800,-3.100,0.900,-2.500
0.546,-6.200,-2.500,0.900,-2.300
0.547,-7.200,-2.000,0.800,-1.900
0.548,-7.600,-1.500,0.800,-1.500
0.549,-7.800,-1.100,0.800,-1.200
0.550,-8.300,-0.700,0.800,-1.200
0.551,-9.100,-0.500,0.800,-1.600
0.552,-9.700,-0.300,0.800,-1.900
0.553,-9.100,-0.200,0.700,-1.900
0.554,-7.000,0.000,0.700,-1.500
0.555,-3.800,0.200,0.800,-1.100
0.556,-0.500,0.500,0.900,-1.000
0.557,2.000,0.800,1.000,-1.300
0.558,3.600,1.000,1.100,-1.800
0.559,5.000,1.100,1.100,-1.800
0.560,6.600,1.000,0.900,-1.200
0.561,8.100,0.900,0.800,-0.100
0.562,9.200,0.700,0.500,0.700
0.563,9.400,0.400,0.200,0.800
0.564,9.000,0.200,-0.100,0.300
0.565,8.300,0.000,-0.500,-0.500
0.566,7.600,-0.200,-0.800,-1.000
0.567,7.000,-0.500,-1.100,-1.000
0.568,6.200,-0.800,-1.400,-0.900
0.569,5.100,-1.000,-1.600,-0.800
0.570,3.800,-1.200,-1.900,-0.800
0.571,2.400,-1.200,-1.900,-0.900
0.572,1.000,-1.100,-1.800,-0.900
0.573,-0.300,-1.000,-1.500,-0.800
0.574,-1.500,-1.000,-1.000,-0.700
0.575,-2.700,-1.000,-0.500,-0.700
0.576,-3.700,-0.800,0.100,-0.700
0.577,-4.600,-0.600,0.600,-0.800
0.578,-5.400,-0.400,1.100,-0.800
0.579,-6.100,-0.300,1.700,-0.600
0.580,-6.500,-0.400,2.200,-0.300
0.581,-6.800,-0.500,2.600,0.000
0.582,-6.800,-0.700,2.800,0.400
0.583,-6.700,-0.800,2.900,0.700
0.584,-6.300,-0.800,2.800,0.900
0.585,-5.900,-0.700,2.600,1.100
0.586,-5.300,-0.700,2.400,1.100
0.587,-4.400,-0.700,2.200,1.000
0.588,-3.400,-0.700,1.800,0.800
0.589,-2.600,-0.700,1.400,0.600
0.590,-2.300,-0.600,1.000,0.300
0.591,-2.400,-0.500,0.700,-0.100
0.592,-2.800,-0.400,0.500,-0.500
0.593,-3.500,-0.300,0.400,-0.900
0.594,-4.200,-0.400,0.300,-1.200
0.595,-5.100,-0.600,0.200,-1.400
0.596,-6.100,-0.900,0.000,-1.400
0.597,-7.200,-1.200,-0.100,-1.400
0.598,-8.100,-1.400,-0.200,-1.400
0.599,-8.800,-1.400,-0.200,-1.400
0.600,-9.000,-1.400,-0.100,-1.500
0.601,-8.700,-1.400,0.000,-1.700
0.602,-8.200,-1.500,0.100,-1.800
0.603,-7.300,-1.800,0.100,-1.900
0.604,-6.300,-2.100,0.200,-2.000
0.605,-4.900,-2.300,0.200,-2.000
0.606,-3.000,-2.100,0.200,-2.000
0.607,-0.800,-1.700,0.200,-1.800
0.608,1.800,-1.100,0.100,-1.700
0.609,4.400,-0.400,0.000,-1.500
0.610,6.600,0.200,-0.100,-1.300
0.611,8.500,0.600,-0.200,-1.000
0.612,10.000,0.900,-0.200,-0.600
0.613,11.200,1.100,-0.300,-0.200
0.614,12.200,1.200,-0.300,0.300
0.615,12.800,1.200,-0.300,0.700
0.616,12.800,0.800,-0.200,0.900
0.617,12.000,0.400,-0.100,1.000
0.618,10.500,-0.200,0.000,1.100
0.619,8.600,-0.800,0.100,1.200
0.620,6.700,-1.300,0.200,1.400
0.621,5.000,-1.800,0.200,1.600
0.622,3.400,-2.400,0.200,1.800
0.623,1.800,-3.100,0.200,1.900
0.624,0.300,-4.000,0.200,2.100
0.625,-1.000,-4.900,0.200,2.200
0.626,-1.700,-5.700,0.200,2.400
0.627,-1.800,-6.200,0.200,2.400
0.628,-1.600,-6.500,0.300,2.100
0.629,-1.200,-6.600,0.400,1.500
0.630,-0.800,-6.700,0.500,0.800
0.631,-0.500,-6.700,0.600,0.200
0.632,0.000,-6.600,0.700,-0.100
0.633,0.600,-6.100,0.800,-0.100
0.634,1.200,-5.300,0.900,0.100
0.635,1.600,-4.200,1.100,0.300
0.636,1.600,-3.000,1.400,0.400
0.637,1.300,-1.800,1.700,0.300
0.638,0.700,-0.700,2.100,0.100
0.639,0.200,0.400,2.400,0.000
0.640,-0.400,1.500,2.800,0.000
0.641,-1.200,2.300,3.100,0.000
0.642,-2.300,2.700,3.300,0.000
0.643,-3.600,2.700,3.500,0.000
0.644,-4.900,2.500,3.400,0.100
0.645,-5.900,2.200,3.200,0.300
0.646,-6.900,1.600,3.000,0.600
0.647,-8.100,0.700,2.700,0.700
0.648,-9.600,-0.700,2.500,0.800
0.649,-11.100,-2.100,2.400,0.800
0.650,-12.100,-2.900,2.300,0.800
0.651,-12.500,-2.900,2.300,1.100
0.652,-12.500,-2.500,2.300,1.400
0.653,-12.800,-2.700,2.300,1.400
0.654,-13.800,-3.900,2.600,1.100
0.655,-15.300,-6.100,3.100,0.800
0.656,-16.400,-8.100,3.700,0.600
0.657,-16.700,-9.300,4.300,0.800
0.658,-16.100,-9.400,4.800,1.000
0.659,-14.900,-8.900,5.300,0.800
0.660,-13.900,-8.500,5.700,-0.100
0.661,-13.100,-8.400,6.100,-1.600
0.662,-12.500,-8.400,6.500,-3.100
0.663,-12.000,-8.400,6.900,-4.100
0.664,-11.500,-8.300,7.100,-4.500
0.665,-11.400,-8.100,7.100,-4.600
0.666,-11.700,-7.900,7.100,-4.900
0.667,-12.400,-7.800,7.100,-5.400
0.668,-13.400,-7.400,7.100,-6.000
0.669,-14.600,-7.100,7.100,-6.600
0.670,-16.100,-6.900,7.000,-7.100
0.671,-17.900,-6.900,6.900,-7.500
0.672,-19.900,-7.000,6.800,-7.800
0.673,-22.100,-7.100,6.800,-7.900
0.674,-24.200,-7.100,6.800,-7.900
0.675,-26.300,-7.100,6.900,-7.600
0.676,-28.300,-7.200,6.900,-7.000
0.677,-30.200,-7.500,6.800,-6.400
0.678,-31.900,-7.800,6.800,-5.800
0.679,-33.500,-8.200,6.900,-5.400
0.680,-35.000,-8.500,6.900,-5.000
0.681,-36.000,-8.700,7.000,-4.700
0.682,-36.600,-8.900,7.100,-4.400
0.683,-36.800,-9.200,7.200,-4.100
0.684,-36.600,-9.700,7.300,-3.800
0.685,-36.000,-10.200,7.500,-3.700
0.686,-35.300,-10.800,7.700,-3.600
0.687,-34.300,-11.200,7.800,-3.700
0.688,-33.100,-11.600,7.800,-3.900
0.689,-31.500,-11.800,7.800,-4.100
0.690,-29.600,-11.900,7.900,-4.300
0.691,-27.700,-12.100,8.000,-4.500
0.692,-26.000,-12.400,8.400,-4.700
0.693,-24.800,-12.800,8.900,-4.900
0.694,-24.000,-13.300,9.300,-5.100
0.695,-23.400,-13.700,9.800,-5.400
0.696,-23.100,-14.000,10.200,-5.800
0.697,-22.800,-14.200,10.500,-6.400
0.698,-22.700,-14.200,10.700,-7.100
0.699,-22.600,-14.000,10.900,-7.800
0.700,-22.400,-13.800,10.900,-8.500
0.701,-21.800,-13.500,10.800,-9.300
0.702,-20.800,-13.400,10.400,-10.100
0.703,-19.500,-13.400,10.000,-10.800
0.704,-18.100,-13.400,9.400,-11.400
0.705,-16.800,-13.400,9.000,-11.900
0.706,-15.700,-13.100,8.800,-12.500
0.707,-15.000,-12.600,8.600,-13.100
0.708,-14.600,-12.100,8.300,-13.200
0.709,-14.300,-11.900,7.700,-12.800
0.710,-14.100,-11.900,6.800,-11.700
0.711,-14.300,-12.200,6.100,-10.200
0.712,-15.200,-12.600,5.700,-8.900
0.713,-16.500,-13.100,5.600,-7.900
0.714,-18.200,-13.400,5.600,-7.400
0.715,-19.900,-13.500,5.700,-7.000
0.716,-21.300,-13.300,5.700,-6.800
0.717,-22.000,-12.800,5.600,-6.600
0.718,-21.900,-12.100,5.500,-6.500
0.719,-21.300,-11.200,5.100,-6.600
0.720,-20.200,-10.200,4.700,-6.800
0.721,-19.000,-9.300,4.400,-7.100
0.722,-17.800,-8.400,4.200,-7.400
0.723,-16.400,-7.400,4.000,-7.500
0.724,-15.100,-6.500,3.900,-7.500
0.725,-13.800,-5.700,3.900,-7.100
0.726,-12.800,-5.100,3.700,-6.600
0.727,-12.300,-4.600,3.600,-5.800
0.728,-12.200,-4.100,3.400,-4.900
0.729,-12.400,-3.600,3.200,-3.800
0.730,-13.000,-3.100,2.900,-2.700
0.731,-13.700,-2.800,2.600,-1.500
0.732,-14.500,-2.600,2.300,-0.200
0.733,-15.400,-2.400,1.900,1.000
0.734,-16.200,-2.200,1.500,2.000
0.735,-16.600,-1.800,1.000,2.800
0.736,-16.600,-1.400,0.400,3.200
0.737,-15.900,-1.100,-0.100,3.400
0.738,-14.500,-0.900,-0.600,3.400
0.739,-12.600,-0.800,-0.900,3.100
0.740,-10.300,-0.500,-1.200,2.300
0.741,-8.000,-0.200,-1.400,1.300
0.742,-5.700,0.100,-1.600,0.100
0.743,-3.300,0.400,-1.600,-1.200
0.744,-0.700,0.500,-1.600,-2.500
0.745,2.000,0.600,-1.500,-4.000
0.746,4.100,0.800,-1.400,-5.700
0.747,5.300,1.100,-1.300,-7.000
0.748,5.500,1.300,-1.300,-7.800
0.749,5.500,1.500,-1.300,-7.900
0.750,6.100,1.600,-1.400,-7.800
0.751,7.500,1.600,-1.400,-7.700
0.752,8.800,1.700,-1.400,-7.300
0.753,8.800,1.800,-1.500,-6.200
0.754,6.800,2.000,-1.600,-4.300
0.755,3.500,2.200,-1.700,-2.400
0.756,0.500,2.400,-1.900,-1.600
0.757,-1.200,2.600,-2.100,-2.400
0.758,-1.600,2.800,-2.300,-3.700
0.759,-1.600,2.900,-2.400,-3.600
0.760,-1.700,3.000,-2.500,-1.200
0.761,-1.800,3.000,-2.600,2.700
0.762,-1.200,3.200,-2.600,6.200
0.763,0.500,3.400,-2.700,7.800
0.764,2.800,3.800,-2.800,7.400
0.765,5.000,4.000,-2.900,6.000
0.766,6.700,4.100,-3.100,4.700
0.767,8.000,4.100,-3.300,3.400
0.768,9.300,3.900,-3.400,1.900
0.769,10.500,3.800,-3.600,-0.200
0.770,11.400,3.700,-3.800,-2.500
0.771,11.800,3.900,-3.900,-4.400
0.772,11.500,4.100,-4.100,-5.600
0.773,11.000,4.300,-4.100,-6.500
0.774,10.600,4.400,-4.000,-7.200
0.775,10.500,4.300,-3.800,-7.700
0.776,10.400,4.100,-3.400,-7.500
0.777,10.400,3.900,-3.100,-6.300
0.778,10.500,3.900,-2.700,-4.300
0.779,10.800,4.000,-2.300,-2.300
0.780,11.600,4.200,-1.800,-0.800
0.781,12.700,4.200,-1.400,0.400
0.782,14.000,4.000,-1.100,1.500
0.783,15.000,3.700,-0.900,2.500
0.784,15.900,3.300,-0.800,3.500
0.785,16.500,3.000,-0.700,4.200
0.786,16.900,2.600,-0.500,4.600
0.787,17.300,2.100,-0.300,4.900
0.788,17.400,1.600,-0.100,5.400
0.789,17.000,1.200,0.200,6.100
0.790,15.900,1.000,0.700,7.000
0.791,14.300,1.100,1.300,8.000
0.792,12.400,1.400,2.200,9.100
0.793,10.500,1.700,3.200,10.300
0.794,8.800,2.000,4.300,11.600
0.795,7.100,2.300,5.400,12.800
0.796,5.400,3.000,6.500,13.800
0.797,3.700,4.000,7.500,14.400
0.798,2.200,5.300,8.400,14.700
0.799,1.100,6.800,9.200,15.000
0.800,0.300,8.100,9.900,15.200
0.801,0.000,9.300,10.500,15.400
0.802,-0.200,10.300,11.000,15.400
0.803,-0.200,11.200,11.600,15.200
0.804,0.000,12.000,12.100,14.900
0.805,0.300,12.500,12.500,14.400
0.806,0.800,12.800,12.800,13.900
0.807,1.500,12.800,12.800,13.200
0.808,2.300,12.500,12.700,12.500
0.809,3.300,12.300,12.300,11.400
0.810,4.200,12.100,11.600,10.100
0.811,5.100,12.000,10.700,8.800
0.812,5.900,11.900,9.500,7.500
0.813,6.500,11.600,8.100,6.300
0.814,7.100,10.900,6.600,5.400
0.815,7.700,10.000,5.000,4.600
0.816,8.200,8.800,3.300,3.800
0.817,8.600,7.400,1.500,2.900
0.818,9.000,5.700,-0.300,1.800
0.819,9.400,3.600,-2.300,0.500
0.820,9.900,1.100,-4.600,-0.900
0.821,10.500,-2.000,-7.000,-2.500
0.822,11.300,-6.000,-9.800,-4.500
0.823,12.300,-11.100,-12.800,-7.000
0.824,13.400,-17.200,-16.100,-10.100
0.825,14.600,-24.500,-19.800,-14.000
0.826,16.100,-32.700,-23.700,-18.700
0.827,18.100,-42.000,-28.000,-24.200
0.828,20.600,-52.200,-32.600,-30.300
0.829,23.500,-63.600,-37.400,-36.800
0.830,26.400,-76.000,-42.100,-43.700
0.831,28.800,-89.200,-46.700,-51.100
0.832,30.300,-103.100,-50.900,-59.100
0.833,30.300,-117.100,-54.200,-67.500
0.834,28.500,-130.800,-56.300,-75.800
0.835,24.400,-143.800,-57.000,-83.600
0.836,18.000,-155.500,-56.400,-90.500
0.837,10.600,-165.300,-55.100,-96.200
0.838,3.800,-172.400,-53.600,-100.400
0.839,-0.700,-176.200,-52.500,-102.700
0.840,-2.500,-176.300,-51.700,-102.900
0.841,-2.800,-172.500,-50.700,-100.900
0.842,-3.400,-165.000,-48.800,-96.800
0.843,-5.800,-154.500,-45.400,-90.900
0.844,-10.600,-141.400,-40.500,-83.500
0.845,-17.200,-126.200,-34.000,-74.700
0.846,-24.700,-109.200,-26.500,-64.800
0.847,-32.400,-90.800,-18.200,-53.900
0.848,-40.100,-71.600,-9.700,-42.600
0.849,-47.700,-52.700,-1.100,-31.200
0.850,-55.100,-34.900,7.300,-20.400
0.851,-62.200,-19.000,15.400,-10.400
0.852,-68.600,-5.200,23.200,-1.700
0.853,-73.900,7.000,30.000,5.500
0.854,-77.600,17.600,35.500,11.300
0.855,-79.000,26.500,39.100,15.800
0.856,-77.500,33.200,40.600,19.300
0.857,-72.400,37.500,40.000,21.800
0.858,-63.600,40.000,37.400,23.200
0.859,-51.400,41.400,33.200,23.500
0.860,-36.800,42.100,27.400,22.700
0.861,-21.100,42.100,20.700,21.300
0.862,-5.600,41.400,13.800,19.600
0.863,8.300,39.700,7.200,18.100
0.864,19.900,37.400,1.500,16.500
0.865,28.900,34.900,-3.100,14.900
0.866,35.200,32.300,-6.600,13.200
0.867,39.100,29.700,-9.200,11.600
0.868,40.800,26.800,-10.900,10.500
0.869,40.700,24.000,-12.000,9.900
0.870,39.400,21.300,-12.400,9.500
0.871,37.300,19.100,-12.300,9.000
0.872,34.900,17.300,-12.000,8.200
0.873,32.600,15.800,-11.600,7.400
0.874,30.500,14.300,-11.000,6.600
0.875,28.400,12.700,-10.500,6.000
0.876,26.400,11.300,-10.000,5.500
0.877,24.500,9.900,-9.400,4.800
0.878,22.700,8.500,-8.800,3.900
0.879,21.300,7.000,-8.200,3.100
0.880,19.900,5.500,-7.600,2.400
0.881,18.400,4.000,-6.900,1.800
0.882,16.500,2.700,-6.200,1.300
0.883,14.500,1.800,-5.500,0.800
0.884,12.500,1.200,-4.800,0.300
0.885,10.900,1.100,-4.100,-0.100
0.886,9.300,1.200,-3.500,-0.400
0.887,7.900,1.800,-2.800,-0.500
0.888,6.600,2.600,-2.100,-0.500
0.889,5.500,3.900,-1.500,-0.400
0.890,4.800,5.300,-1.000,-0.100
0.891,4.300,6.700,-0.500,0.200
0.892,4.000,7.900,-0.200,0.700
0.893,3.600,8.800,0.100,1.500
0.894,3.100,9.400,0.300,2.400
0.895,2.400,9.700,0.500,3.100
0.896,1.700,9.800,0.500,3.700
0.897,0.900,9.600,0.500,3.900
0.898,-0.100,9.100,0.300,3.800
0.899,-1.100,8.200,0.100,3.800
0.900,-1.800,7.100,-0.200,3.800
0.901,-2.000,5.900,-0.600,3.800
0.902,-1.700,4.800,-1.000,3.800
0.903,-1.000,3.900,-1.400,3.800
0.904,0.100,3.000,-1.700,3.600
0.905,1.400,2.100,-2.000,3.400
0.906,3.200,1.100,-2.200,3.100
0.907,5.500,0.100,-2.300,2.600
0.908,8.200,-0.800,-2.300,2.000
0.909,11.000,-1.500,-2.300,1.200
0.910,13.500,-1.900,-2.200,0.400
0.911,15.600,-2.300,-1.900,-0.200
0.912,17.300,-2.800,-1.700,-0.400
0.913,18.800,-3.300,-1.400,-0.500
0.914,20.000,-3.800,-1.100,-0.500
0.915,20.900,-4.200,-0.800,-0.800
0.916,21.000,-4.500,-0.500,-1.300
0.917,20.300,-4.800,-0.200,-2.000
0.918,18.600,-5.400,0.000,-2.600
0.919,16.400,-6.100,0.200,-3.300
0.920,13.900,-6.600,0.300,-4.000
0.921,11.400,-7.000,0.400,-5.000
0.922,8.900,-7.200,0.400,-5.800
0.923,6.200,-7.400,0.300,-6.300
0.924,3.500,-7.600,0.300,-6.200
0.925,0.800,-7.800,0.100,-5.500
0.926,-1.400,-7.700,-0.100,-4.800
0.927,-2.700,-7.300,-0.400,-4.100
0.928,-3.200,-6.700,-0.700,-3.400
0.929,-3.100,-6.100,-1.000,-2.800
0.930,-2.600,-5.700,-1.200,-2.100
0.931,-1.900,-5.400,-1.400,-1.400
0.932,-0.800,-5.100,-1.600,-1.000
0.933,0.800,-4.600,-1.700,-0.900
0.934,3.100,-4.000,-1.800,-0.900
0.935,5.600,-3.400,-1.900,-0.700
0.936,8.000,-3.000,-2.000,-0.300
0.937,9.800,-3.000,-2.100,0.200
0.938,10.900,-3.300,-2.100,0.800
0.939,11.700,-3.800,-2.100,1.300
0.940,12.100,-4.400,-2.000,1.700
0.941,12.200,-5.200,-1.900,2.000
0.942,11.800,-6.300,-1.800,2.200
0.943,10.700,-7.700,-1.600,2.200
0.944,9.000,-9.300,-1.300,2.100
0.945,7.100,-11.000,-1.000,2.100
0.946,4.900,-12.500,-0.800,2.100
0.947,2.700,-13.800,-0.600,2.000
0.948,0.400,-15.100,-0.600,1.600
0.949,-1.700,-16.300,-0.600,0.900
0.950,-3.000,-17.300,-0.600,0.400
0.951,-3.400,-17.900,-0.600,0.100
0.952,-3.000,-18.000,-0.600,-0.100
0.953,-2.400,-17.900,-0.600,-0.800
0.954,-2.300,-17.500,-0.800,-2.100
0.955,-2.500,-17.000,-1.000,-3.400
0.956,-2.700,-16.200,-1.300,-4.100
0.957,-2.400,-15.000,-1.600,-3.900
0.958,-1.700,-13.400,-1.800,-3.200
0.959,-0.900,-11.500,-2.100,-3.100
0.960,-0.300,-9.700,-2.300,-4.400
0.961,-0.200,-8.200,-2.600,-6.500
0.962,-0.200,-6.900,-2.900,-8.500
0.963,-0.200,-6.100,-3.200,-9.400
0.964,-0.100,-5.700,-3.400,-9.100
0.965,0.200,-5.600,-3.700,-8.300
0.966,0.600,-5.700,-4.000,-7.500
0.967,1.000,-6.100,-4.400,-7.100
0.968,1.500,-6.700,-4.700,-6.700
0.969,2.100,-7.600,-5.100,-6.000
0.970,3.000,-8.700,-5.500,-5.200
0.971,4.000,-10.100,-5.800,-4.600
0.972,5.100,-11.400,-6.100,-4.500
0.973,6.200,-12.400,-6.200,-4.800
0.974,7.200,-13.200,-6.100,-5.300
0.975,8.300,-13.900,-5.800,-6.100
0.976,9.300,-14.500,-5.500,-7.100
0.977,10.300,-15.200,-5.200,-8.400
0.978,11.400,-15.800,-4.900,-9.800
0.979,12.400,-16.200,-4.600,-11.000
0.980,13.300,-16.600,-4.200,-12.000
0.981,14.100,-17.000,-3.800,-12.800
0.982,14.700,-17.700,-3.600,-13.500
0.983,15.000,-18.400,-3.500,-14.000
0.984,15.100,-19.000,-3.600,-13.900
0.985,15.100,-19.500,-3.700,-13.100
0.986,14.900,-19.800,-3.700,-11.600
0.987,14.700,-20.000,-3.800,-9.900
0.988,14.100,-20.100,-3.900,-8.200
0.989,13.100,-19.900,-4.000,-7.000
0.990,11.700,-19.400,-4.200,-6.100
0.991,10.000,-18.400,-4.300,-5.300
0.992,8.400,-17.100,-4.500,-4.400
0.993,7.000,-15.700,-4.600,-3.400
0.994,5.700,-14.300,-4.800,-2.700
0.995,4.400,-13.100,-5.000,-2.400
0.996,3.100,-11.800,-5.300,-3.000
0.997,2.200,-10.400,-5.500,-4.100
0.998,1.800,-9.000,-5.700,-5.600
0.999,2.200,-7.800,-5.900,-7.100
1.000,3.100,-6.900,-6.100,-8.400
1.001,4.300,-6.400,-6.300,-9.400
1.002,5.400,-6.200,-6.600,-10.400
1.003,6.400,-6.400,-6.800,-11.400
1.004,7.400,-6.700,-7.000,-12.500
1.005,8.400,-7.100,-7.200,-13.300
1.006,9.400,-7.700,-7.400,-13.800
1.007,10.400,-8.400,-7.500,-13.700
1.008,11.000,-9.400,-7.500,-13.200
1.009,11.200,-10.500,-7.500,-12.600
1.010,11.000,-11.500,-7.500,-11.900
1.011,10.500,-12.400,-7.600,-11.100
1.012,9.900,-13.100,-7.600,-10.300
1.013,9.200,-13.700,-7.700,-9.500
1.014,8.300,-14.200,-7.700,-8.900
1.015,7.300,-14.500,-7.700,-8.900
1.016,6.200,-14.800,-7.600,-9.400
1.017,5.200,-15.000,-7.600,-10.300
1.018,4.300,-15.300,-7.600,-11.200
1.019,3.700,-15.500,-7.500,-12.000
1.020,3.200,-15.700,-7.500,-13.000
1.021,2.900,-15.900,-7.500,-14.200
1.022,2.400,-16.200,-7.400,-15.300
1.023,2.100,-16.500,-7.300,-16.000
1.024,1.900,-16.800,-7.100,-16.000
1.025,2.000,-17.300,-7.000,-15.500
1.026,2.300,-17.700,-6.800,-14.800
1.027,2.800,-18.000,-6.700,-14.100
1.028,3.300,-18.300,-6.500,-13.400
1.029,3.700,-18.500,-6.300,-12.600
1.030,4.100,-18.800,-6.000,-11.700
1.031,4.400,-19.200,-5.600,-10.800
1.032,4.700,-19.800,-5.200,-10.300
1.033,4.900,-20.200,-4.700,-10.200
1.034,4.800,-20.300,-4.100,-10.300
1.035,4.200,-20.100,-3.400,-10.300
1.036,3.300,-19.800,-2.600,-10.100
1.037,2.200,-19.600,-1.900,-9.800
1.038,0.700,-19.600,-1.300,-9.500
1.039,-1.100,-19.700,-0.800,-9.100
1.040,-3.100,-19.800,-0.400,-8.700
1.041,-4.700,-19.900,0.000,-8.000
1.042,-5.900,-20.100,0.200,-7.400
1.043,-6.800,-20.400,0.500,-6.800
1.044,-7.800,-20.500,0.500,-6.300
1.045,-8.700,-20.500,0.500,-5.800
1.046,-9.100,-20.500,0.400,-5.200
1.047,-8.100,-20.800,0.200,-4.500
1.048,-5.800,-21.500,0.100,-3.900
1.049,-3.300,-22.200,0.100,-3.200
1.050,-2.600,-22.300,0.000,-2.400
1.051,-4.200,-21.800,0.100,-1.400
1.052,-6.600,-20.900,0.200,-0.500
1.053,-7.300,-20.400,0.400,-0.200
1.054,-4.900,-20.900,0.700,-0.500
1.055,-0.300,-22.000,1.000,-1.000
1.056,4.000,-23.000,1.400,-0.900
1.057,6.000,-23.100,1.600,0.000
1.058,5.400,-22.300,1.800,1.100
1.059,3.700,-21.000,2.000,1.300
1.060,2.500,-19.800,2.200,-0.200
1.061,2.000,-18.700,2.400,-3.000
1.062,1.500,-17.700,2.600,-5.800
1.063,0.100,-16.600,2.700,-7.700
1.064,-2.000,-15.300,2.600,-8.500
1.065,-4.000,-14.200,2.300,-8.600
1.066,-5.600,-13.300,2.000,-9.000
1.067,-6.600,-12.500,1.600,-10.000
1.068,-7.600,-11.800,1.300,-11.100
1.069,-8.600,-11.000,1.000,-12.100
1.070,-9.400,-10.200,0.600,-12.800
1.071,-9.600,-9.700,0.000,-13.400
1.072,-9.200,-9.500,-0.500,-14.000
1.073,-8.200,-9.600,-0.900,-14.600
1.074,-7.100,-9.900,-1.100,-15.200
1.075,-6.100,-10.200,-1.100,-15.800
1.076,-5.100,-10.600,-0.900,-16.100
1.077,-4.100,-11.200,-0.700,-16.100
1.078,-2.900,-11.900,-0.300,-15.600
1.079,-1.600,-12.800,0.300,-14.300
1.080,-0.500,-13.800,1.100,-12.400
1.081,0.500,-14.700,2.100,-10.100
1.082,1.100,-15.200,2.900,-7.600
1.083,1.600,-15.200,3.500,-5.200
1.084,1.900,-14.800,3.800,-2.700
1.085,2.000,-14.000,4.000,-0.200
1.086,2.100,-13.100,4.100,2.100
1.087,1.900,-11.900,4.000,4.100
1.088,1.500,-10.600,3.800,5.600
1.089,0.900,-9.100,3.400,6.600
1.090,0.400,-7.200,2.900,7.200
1.091,-0.100,-5.200,2.400,7.800
1.092,-0.400,-3.200,2.000,8.300
1.093,-0.500,-1.200,1.700,8.600
1.094,-0.300,0.600,1.400,8.300
1.095,0.300,2.400,1.000,7.400
1.096,1.100,4.200,0.600,5.800
1.097,2.200,6.000,0.300,3.900
1.098,3.500,7.600,0.100,2.000
1.099,5.000,9.000,0.000,0.200
1.100,6.600,10.100,-0.200,-1.400
1.101,8.200,11.100,-0.300,-2.900
1.102,9.500,12.000,-0.300,-4.200
1.103,10.500,12.900,-0.300,-5.200
1.104,11.200,13.600,-0.300,-5.600
1.105,11.700,14.200,-0.600,-5.400
1.106,12.000,14.400,-1.100,-4.500
1.107,12.100,14.200,-1.800,-3.300
1.108,11.700,13.600,-2.400,-2.000
1.109,10.800,12.600,-2.900,-0.700
1.110,9.300,11.400,-3.000,0.400
1.111,7.600,10.100,-2.900,1.000
1.112,5.900,8.700,-2.600,0.900
1.113,4.300,7.400,-2.300,-0.100
1.114,3.100,6.300,-2.000,-1.700
1.115,2.400,5.400,-1.900,-3.300
1.116,2.000,4.600,-1.700,-4.500
1.117,1.900,4.000,-1.400,-5.300
1.118,1.800,3.400,-0.800,-5.700
1.119,1.700,2.800,0.000,-6.100
1.120,1.600,2.200,1.000,-6.700
1.121,1.600,1.600,2.000,-7.100
1.122,1.600,1.100,2.900,-7.200
1.123,1.600,0.700,3.600,-6.600
1.124,1.800,0.400,4.300,-5.400
1.125,1.900,0.000,4.900,-3.800
1.126,2.200,-0.600,5.300,-2.200
1.127,2.400,-1.300,5.400,-0.800
1.128,2.600,-1.800,5.200,0.600
1.129,2.800,-2.200,4.800,2.000
1.130,3.000,-2.400,4.300,3.400
1.131,3.100,-2.700,3.900,4.700
1.132,3.200,-3.100,3.400,5.700
1.133,3.300,-3.400,2.900,6.200
1.134,3.300,-3.500,2.200,6.300
1.135,3.200,-3.300,1.400,6.200
1.136,3.200,-2.800,0.600,5.900
1.137,3.100,-2.200,-0.100,5.500
1.138,3.100,-1.700,-0.700,5.100
1.139,3.100,-1.300,-1.200,4.600
1.140,3.100,-0.800,-1.600,3.900
1.141,3.100,-0.400,-2.000,3.100
1.142,3.100,-0.100,-2.300,2.500
1.143,3.100,-0.100,-2.400,1.900
1.144,3.200,-0.500,-2.300,1.400
1.145,3.200,-1.000,-1.900,0.800
1.146,3.200,-1.400,-1.400,0.400
1.147,3.200,-1.400,-0.900,0.000
1.148,3.200,-1.200,-0.300,0.000
1.149,3.200,-1.100,0.300,0.000
1.150,3.200,-1.200,0.900,0.000
1.151,3.200,-1.600,1.400,0.000
1.152,3.300,-2.000,1.600,0.200
1.153,3.400,-1.900,1.600,0.800
1.154,3.400,-1.200,1.500,2.000
1.155,3.400,0.000,1.400,3.200
1.156,3.400,1.000,1.400,3.800
1.157,3.400,1.600,1.400,3.700
1.158,3.400,1.700,1.200,3.200
1.159,3.600,1.600,0.900,3.100
1.160,3.700,1.400,0.400,3.900
1.161,3.900,1.200,0.000,5.300
1.162,4.000,0.800,-0.300,6.700
1.163,4.100,0.100,-0.300,7.100
1.164,4.300,-1.000,-0.100,6.500
1.165,4.400,-2.300,0.200,5.300
1.166,4.500,-3.500,0.700,4.100
1.167,4.500,-4.700,1.100,3.200
1.168,4.300,-5.800,1.500,2.900
1.169,4.100,-6.900,1.900,2.700
1.170,3.900,-7.800,2.300,2.600
1.171,3.800,-8.500,2.800,2.500
1.172,3.700,-8.900,3.100,2.300
1.173,3.600,-9.100,3.400,1.800
1.174,3.300,-9.100,3.300,1.200
1.175,3.000,-9.000,3.100,0.600
1.176,2.600,-8.800,2.700,0.100
1.177,2.200,-8.400,2.300,-0.200
1.178,1.900,-7.800,1.800,-0.400
1.179,1.600,-7.100,1.300,-0.600
1.180,1.300,-6.400,0.600,-0.800
1.181,1.000,-5.800,0.100,-1.100
1.182,0.700,-5.500,-0.100,-1.300
1.183,0.300,-5.500,0.000,-1.600
1.184,-0.200,-5.800,0.500,-1.900
1.185,-0.700,-6.200,1.200,-2.400
1.186,-1.100,-6.600,2.000,-3.100
1.187,-1.400,-7.000,3.000,-3.700
1.188,-1.700,-7.800,4.200,-4.000
1.189,-2.000,-9.200,5.500,-4.200
1.190,-2.400,-11.100,7.000,-4.200
1.191,-2.800,-13.300,8.200,-4.100
1.192,-3.200,-15.400,9.200,-3.700
1.193,-3.600,-17.200,9.800,-3.100
1.194,-3.900,-18.700,10.100,-2.300
1.195,-4.200,-20.000,10.300,-1.800
1.196,-4.600,-21.000,10.300,-1.700
1.197,-5.000,-21.800,10.100,-2.000
1.198,-5.400,-22.100,9.600,-2.400
1.199,-5.700,-21.800,8.700,-2.600
1.200,-5.900,-20.800,7.500,-2.500
1.201,-6.100,-19.400,6.300,-2.200
1.202,-6.300,-17.700,5.400,-2.000
1.203,-6.500,-15.900,4.700,-1.900
1.204,-6.800,-13.900,4.200,-2.100
1.205,-7.000,-11.700,3.800,-2.400
1.206,-7.300,-9.300,3.500,-2.700
1.207,-7.600,-6.800,3.500,-3.000
1.208,-7.800,-4.400,3.800,-3.300
1.209,-8.000,-2.300,4.300,-3.500
1.210,-8.100,-0.600,5.000,-3.700
1.211,-8.100,0.800,5.600,-3.800
1.212,-8.100,2.000,6.200,-3.800
1.213,-8.200,2.900,6.800,-3.800
1.214,-8.400,3.500,7.500,-3.900
1.215,-8.600,3.800,8.100,-4.000
1.216,-8.900,3.600,8.600,-4.200
1.217,-9.200,2.800,9.200,-4.400
1.218,-9.400,1.600,9.700,-4.400
1.219,-9.800,0.200,10.200,-4.400
1.220,-10.200,-1.300,10.800,-4.400
1.221,-10.600,-2.800,11.100,-4.500
1.222,-10.900,-4.300,11.400,-4.700
1.223,-11.200,-5.900,11.600,-5.000
1.224,-11.400,-7.500,11.700,-5.200
1.225,-11.700,-9.000,11.800,-5.300
1.226,-12.000,-10.200,11.500,-5.300
1.227,-12.300,-11.100,10.800,-5.400
1.228,-12.600,-11.600,9.800,-5.500
1.229,-12.800,-11.700,8.800,-5.700
1.230,-12.800,-11.700,7.900,-5.900
1.231,-12.800,-11.700,7.300,-6.200
1.232,-12.700,-11.400,6.700,-6.500
1.233,-12.600,-10.700,6.200,-6.800
1.234,-12.300,-9.800,5.700,-7.100
1.235,-12.000,-8.800,5.500,-7.400
1.236,-11.700,-8.100,5.600,-7.600
1.237,-11.500,-8.000,6.000,-7.700
1.238,-11.400,-8.600,6.400,-7.700
1.239,-11.200,-9.800,6.600,-7.800
1.240,-10.900,-11.200,6.600,-7.800
1.241,-10.700,-12.900,6.500,-7.800
1.242,-10.600,-14.700,6.500,-7.800
1.243,-10.600,-16.700,6.400,-7.800
1.244,-10.400,-18.800,6.200,-7.900
1.245,-10.100,-20.900,5.800,-8.000
1.246,-9.700,-22.400,5.200,-8.100
1.247,-9.600,-23.200,4.500,-8.100
1.248,-10.000,-23.400,4.000,-7.700
1.249,-10.400,-23.300,3.700,-6.900
1.250,-10.200,-23.300,3.500,-5.800
1.251,-9.200,-23.400,3.200,-4.500
1.252,-7.700,-23.200,2.700,-3.300
1.253,-7.000,-22.300,2.300,-2.200
1.254,-7.400,-20.500,2.300,-1.100
1.255,-8.900,-18.100,2.800,-0.200
1.256,-10.300,-15.800,3.600,0.700
1.257,-11.000,-14.100,4.400,1.300
1.258,-10.700,-13.100,4.800,1.700
1.259,-10.100,-12.500,4.800,1.900
1.260,-9.800,-11.700,4.500,2.000
1.261,-9.900,-10.900,4.100,1.900
1.262,-9.900,-10.100,3.800,1.700
1.263,-9.600,-9.400,3.500,1.300
1.264,-9.000,-8.900,3.100,0.800
1.265,-8.400,-8.400,2.700,0.400
1.266,-7.700,-7.600,2.400,-0.100
1.267,-7.100,-6.500,2.200,-0.800
1.268,-6.500,-5.300,2.000,-1.600
1.269,-5.700,-4.100,1.900,-2.600
1.270,-5.000,-3.100,1.800,-3.600
1.271,-4.400,-2.400,1.700,-4.400
1.272,-4.000,-1.800,1.500,-5.200
1.273,-3.600,-1.200,1.100,-6.100
1.274,-3.100,-0.700,0.500,-7.000
1.275,-2.500,-0.300,-0.300,-7.800
1.276,-2.000,-0.100,-1.200,-8.300
1.277,-1.600,0.200,-2.100,-8.400
1.278,-1.200,0.700,-2.900,-8.400
1.279,-0.700,1.300,-3.800,-8.400
1.280,0.000,1.800,-4.700,-8.400
1.281,0.600,1.800,-5.400,-8.400
1.282,1.100,1.200,-5.500,-8.000
1.283,1.400,0.300,-5.100,-7.200
1.284,1.700,-0.800,-4.300,-6.100
1.285,1.900,-2.000,-3.400,-4.800
1.286,2.100,-3.500,-2.600,-3.300
1.287,2.300,-5.400,-1.800,-1.600
1.288,2.500,-7.400,-1.000,0.400
1.289,2.700,-8.800,-0.100,2.400
1.290,2.900,-9.100,0.500,4.300
1.291,3.100,-8.200,0.600,6.000
1.292,3.300,-6.600,0.200,7.700
1.293,3.600,-4.700,-0.500,9.200
1.294,3.800,-2.900,-1.200,10.600
1.295,4.000,-1.000,-1.800,11.500
1.296,4.200,1.100,-2.500,11.800
1.297,4.300,3.600,-3.200,11.500
1.298,4.500,6.000,-4.000,10.800
1.299,4.700,8.100,-4.500,10.000
1.300,4.800,9.700,-4.700,9.300
1.301,5.000,11.000,-4.500,8.600
1.302,5.100,11.900,-4.200,7.700
1.303,5.200,12.600,-4.000,6.600
1.304,5.300,13.100,-3.800,5.400
1.305,5.300,13.500,-3.600,4.300
1.306,5.300,13.900,-3.300,3.300
1.307,5.300,14.100,-2.900,2.500
1.308,5.300,14.300,-2.700,1.800
1.309,5.200,14.100,-2.700,1.100
1.310,5.100,13.500,-2.900,0.400
1.311,5.000,12.600,-3.300,-0.100
1.312,4.900,11.600,-3.700,-0.400
1.313,4.800,10.400,-4.000,-0.200
1.314,4.800,8.900,-4.400,0.200
1.315,4.700,7.200,-4.700,0.700
1.316,4.700,5.400,-5.000,1.200
1.317,4.700,3.600,-5.100,1.500
1.318,4.700,2.000,-4.900,1.700
1.319,4.600,0.800,-4.400,2.000
1.320,4.500,-0.100,-3.700,2.500
1.321,4.500,-0.800,-2.900,3.200
1.322,4.600,-1.300,-2.200,3.900
1.323,4.700,-1.600,-1.600,4.600
1.324,4.900,-1.600,-0.800,5.100
1.325,5.100,-1.600,0.000,5.500
1.326,5.300,-1.700,0.700,6.000
1.327,5.500,-1.900,1.000,6.500
1.328,5.600,-2.300,1.100,7.000
1.329,5.800,-2.700,1.100,7.300
1.330,6.000,-3.300,1.300,7.500
1.331,6.300,-4.200,1.500,7.900
1.332,6.500,-5.100,1.800,8.600
1.333,6.700,-5.700,2.100,9.500
1.334,7.000,-5.700,2.400,10.500
1.335,7.200,-4.800,3.200,11.300
1.336,7.300,-3.400,4.600,11.900
1.337,7.400,-1.600,6.300,12.400
1.338,7.400,0.600,8.300,13.100
1.339,7.300,3.100,10.200,13.800
1.340,7.200,5.700,12.100,14.600
1.341,7.100,8.000,13.900,15.300
1.342,7.000,9.600,15.600,15.700
1.343,7.100,10.600,17.100,16.000
1.344,7.100,11.400,18.200,16.300
1.345,7.200,11.800,18.900,16.700
1.346,7.100,11.400,19.200,17.100
1.347,7.000,9.100,18.800,17.200
1.348,6.600,5.200,17.800,17.100
1.349,6.300,1.400,16.100,16.800
1.350,6.000,-0.200,14.300,16.200
1.351,5.700,1.000,12.900,15.600
1.352,5.400,3.300,12.200,14.900
1.353,5.100,3.700,11.600,14.100
1.354,4.800,0.300,10.500,13.100
1.355,4.500,-5.900,8.600,11.700
1.356,4.200,-11.800,5.900,10.300
1.357,4.100,-15.200,3.200,8.700
1.358,4.200,-15.800,1.000,7.200
1.359,4.700,-15.400,-0.600,5.700
1.360,5.200,-15.900,-2.100,4.100
1.361,6.000,-17.800,-3.800,2.300
1.362,7.000,-20.200,-6.100,0.300
1.363,8.100,-22.100,-8.800,-2.000
1.364,9.600,-23.500,-11.800,-4.800
1.365,11.400,-25.200,-15.000,-8.100
1.366,13.300,-27.900,-18.500,-12.000
1.367,15.300,-31.600,-22.300,-16.300
1.368,17.300,-36.000,-26.500,-21.000
1.369,19.300,-41.000,-30.900,-26.200
1.370,21.300,-46.900,-35.300,-31.900
1.371,23.100,-54.000,-39.900,-38.000
1.372,24.800,-62.300,-44.200,-44.600
1.373,26.100,-71.700,-48.200,-51.500
1.374,26.600,-81.900,-51.400,-58.600
1.375,26.000,-92.600,-53.900,-65.700
1.376,23.900,-103.800,-55.600,-72.800
1.377,20.000,-115.100,-56.300,-79.400
1.378,14.100,-126.000,-56.100,-85.500
1.379,6.800,-136.200,-54.600,-90.700
1.380,-1.300,-145.200,-52.300,-94.800
1.381,-8.700,-152.700,-49.900,-97.700
1.382,-14.400,-158.100,-47.900,-99.400
1.383,-17.600,-161.200,-47.000,-99.700
1.384,-18.500,-161.500,-46.800,-98.300
1.385,-18.000,-159.200,-46.800,-95.500
1.386,-17.300,-154.600,-46.100,-91.100
1.387,-17.300,-147.800,-44.500,-85.700
1.388,-18.500,-139.100,-41.900,-79.300
1.389,-21.000,-128.500,-38.200,-72.100
1.390,-24.300,-116.000,-33.600,-64.100
1.391,-28.200,-101.800,-28.000,-55.500
1.392,-32.600,-86.400,-21.700,-46.600
1.393,-37.200,-70.500,-14.900,-37.800
1.394,-42.100,-54.600,-8.000,-29.500
1.395,-47.100,-39.300,-1.000,-21.700
1.396,-52.300,-25.000,5.700,-14.400
1.397,-57.800,-11.800,12.200,-7.500
1.398,-63.300,0.000,18.400,-1.200
1.399,-68.500,10.300,24.000,4.400
1.400,-72.900,18.700,28.900,8.900
1.401,-75.600,25.200,32.800,12.400
1.402,-76.100,29.800,35.500,15.000
1.403,-74.000,32.800,36.800,17.000
1.404,-69.000,34.600,36.400,18.600
1.405,-61.400,35.600,34.500,19.900
1.406,-51.600,36.000,31.300,20.900
1.407,-40.100,35.900,27.300,21.300
1.408,-27.600,35.500,22.600,21.200
1.409,-15.000,34.700,17.600,20.800
1.410,-2.900,33.600,12.400,20.200
1.411,8.000,32.300,7.300,19.500
1.412,17.300,30.800,2.500,18.600
1.413,24.900,29.100,-1.600,17.400
1.414,30.700,27.100,-5.000,16.000
1.415,34.900,24.900,-7.800,14.700
1.416,37.600,22.800,-10.200,13.500
1.417,39.300,21.100,-12.100,12.400
1.418,40.000,19.900,-13.300,11.400
1.419,39.900,19.000,-13.800,10.500
1.420,39.200,18.300,-13.700,9.600
1.421,38.100,17.600,-13.100,9.000
1.422,36.700,17.000,-12.400,8.700
1.423,35.200,16.400,-11.600,8.600
1.424,33.600,16.000,-10.700,8.600
1.425,32.000,15.700,-9.700,8.600
1.426,30.200,15.300,-8.600,8.400
1.427,28.300,14.700,-7.600,8.100
1.428,26.200,13.800,-6.800,8.100
1.429,24.200,12.800,-6.200,8.300
1.430,22.300,12.000,-5.700,8.600
1.431,20.500,11.300,-5.100,9.100
1.432,18.800,10.800,-4.500,9.300
1.433,17.100,10.100,-4.000,9.200
1.434,15.400,9.000,-3.700,8.800
1.435,13.700,7.400,-3.600,8.200
1.436,12.000,5.600,-3.600,7.700
1.437,10.400,3.800,-3.700,7.200
1.438,9.100,2.100,-3.600,6.700
1.439,7.900,0.300,-3.600,6.300
1.440,7.000,-1.400,-3.500,5.900
1.441,6.000,-3.000,-3.500,5.500
1.442,5.200,-4.000,-3.400,5.000
1.443,4.500,-4.600,-3.200,4.700
1.444,3.900,-4.700,-2.900,4.600
1.445,3.300,-4.800,-2.600,4.400
1.446,2.900,-5.000,-2.500,4.300
1.447,2.400,-5.200,-2.700,4.200
1.448,2.000,-5.300,-2.900,4.100
1.449,1.700,-5.400,-3.100,4.000
1.450,1.600,-5.500,-3.300,4.100
1.451,1.500,-5.800,-3.500,4.400
1.452,1.500,-6.200,-3.800,4.700
1.453,1.600,-6.300,-4.000,5.000
1.454,1.600,-6.100,-4.000,5.300
1.455,1.600,-5.200,-3.400,5.500
1.456,1.600,-4.000,-2.500,5.600
1.457,1.600,-2.600,-1.400,5.700
1.458,1.700,-1.300,-0.300,5.700
1.459,1.900,0.000,0.800,5.500
1.460,2.200,1.400,1.800,4.900
1.461,2.400,2.800,2.900,4.100
1.462,2.500,4.000,3.800,3.200
1.463,2.600,5.000,4.500,2.400
1.464,2.700,5.600,4.600,1.700
1.465,2.800,5.900,4.300,1.000
1.466,3.000,5.800,3.700,0.100
1.467,3.000,5.500,2.900,-0.800
1.468,3.000,5.000,2.000,-1.700
1.469,2.900,4.300,1.000,-2.500
1.470,2.800,3.500,-0.200,-3.100
1.471,2.800,2.600,-1.500,-3.600
1.472,2.800,1.700,-2.700,-4.000
1.473,2.700,1.100,-3.800,-4.500
1.474,2.500,0.700,-4.500,-4.900
1.475,2.200,0.600,-4.900,-5.300
1.476,2.000,0.700,-5.200,-5.400
1.477,1.800,0.900,-5.200,-5.100
1.478,1.600,1.000,-5.200,-4.300
1.479,1.600,1.200,-5.100,-3.300
1.480,1.600,1.200,-4.700,-2.100
1.481,1.700,1.000,-4.300,-0.900
1.482,1.700,0.500,-3.900,0.300
1.483,1.800,-0.100,-3.500,1.500
1.484,1.700,-1.000,-3.200,2.800
1.485,1.600,-2.100,-3.000,4.200
1.486,1.500,-3.400,-3.000,5.500
1.487,1.600,-4.800,-3.200,6.300
1.488,1.700,-6.400,-3.600,6.600
1.489,1.700,-8.000,-4.200,6.500
1.490,1.600,-9.600,-4.800,6.200
1.491,1.300,-10.900,-5.100,5.600
1.492,0.900,-12.000,-5.100,4.900
1.493,0.600,-12.800,-4.800,4.200
1.494,0.500,-13.200,-4.400,3.500
1.495,0.600,-13.400,-3.900,2.900
1.496,0.800,-13.200,-3.500,2.400
1.497,1.300,-12.700,-3.100,2.000
1.498,2.000,-12.000,-2.500,1.500
1.499,3.100,-11.200,-1.900,0.800
1.500,4.400,-10.300,-1.400,-0.200
1.501,5.900,-9.500,-1.100,-1.400
1.502,7.400,-8.600,-1.100,-2.600
1.503,8.600,-7.800,-1.300,-3.800
1.504,9.500,-6.900,-1.500,-4.900
1.505,10.000,-6.100,-1.700,-5.900
1.506,10.200,-5.400,-1.900,-6.600
1.507,10.300,-4.900,-2.300,-7.000
1.508,10.200,-4.500,-3.100,-7.100
1.509,9.900,-4.400,-4.000,-6.900
1.510,9.200,-4.600,-4.600,-6.600
1.511,8.100,-5.000,-4.800,-6.200
1.512,6.500,-5.900,-4.600,-5.600
1.513,4.800,-7.000,-4.000,-4.900
1.514,3.100,-8.600,-3.300,-4.200
1.515,1.700,-10.400,-2.600,-3.500
1.516,0.700,-12.500,-2.000,-2.900
1.517,0.200,-14.700,-1.200,-2.400
1.518,0.100,-16.900,-0.200,-1.800
1.519,0.300,-18.900,1.000,-1.400
1.520,0.600,-20.600,2.200,-1.100
1.521,0.900,-21.900,3.300,-1.200
1.522,1.200,-22.900,4.100,-1.400
1.523,1.400,-23.600,4.700,-1.500
1.524,1.600,-24.000,5.300,-1.300
1.525,1.700,-24.400,5.600,-0.800
1.526,1.800,-24.800,5.500,-0.200
1.527,1.800,-25.000,4.900,0.000
1.528,1.800,-25.200,3.800,-0.300
1.529,1.800,-25.200,2.500,-1.100
1.530,1.700,-25.400,1.300,-2.100
1.531,1.700,-26.000,0.300,-3.100
1.532,1.600,-26.700,-0.500,-3.800
1.533,1.600,-27.000,-1.400,-4.300
1.534,1.500,-26.000,-2.100,-4.700
1.535,1.500,-23.900,-2.600,-5.300
1.536,1.600,-20.900,-2.700,-6.000
1.537,1.600,-17.500,-2.400,-7.000
1.538,1.700,-13.600,-2.100,-8.000
1.539,1.800,-8.900,-1.900,-8.700
1.540,2.100,-3.900,-2.000,-9.200
1.541,2.300,0.600,-2.200,-9.200
1.542,2.500,3.600,-2.400,-9.100
1.543,2.600,5.700,-2.700,-8.900
1.544,2.700,8.000,-3.300,-8.800
1.545,2.800,10.700,-4.300,-8.800
1.546,3.000,11.900,-5.600,-8.700
1.547,3.300,8.800,-7.000,-8.600
1.548,3.600,1.400,-8.100,-8.300
1.549,3.900,-6.700,-8.800,-7.900
1.550,4.100,-9.900,-9.200,-7.600
1.551,4.200,-6.500,-9.700,-7.300
1.552,4.300,-0.700,-10.500,-7.100
1.553,4.400,-0.100,-11.100,-7.100
1.554,4.400,-9.000,-10.900,-7.100
1.555,4.400,-24.300,-9.800,-7.200
1.556,4.400,-38.400,-8.000,-7.300
1.557,4.300,-44.600,-6.300,-7.300
1.558,4.300,-42.700,-5.400,-7.400
1.559,4.300,-37.300,-5.200,-7.500
1.560,4.300,-33.000,-5.500,-7.600
1.561,4.400,-30.400,-5.900,-7.800
1.562,4.500,-27.000,-6.200,-8.000
1.563,4.500,-21.000,-6.800,-8.300
1.564,4.500,-13.300,-7.700,-8.600
1.565,4.500,-6.500,-8.600,-9.100
1.566,4.500,-2.000,-9.400,-9.400
1.567,4.400,0.600,-9.900,-9.800
1.568,4.500,2.900,-10.100,-9.900
1.569,4.600,5.000,-10.200,-10.000
1.570,4.700,5.900,-10.400,-10.000
1.571,4.700,4.400,-10.500,-10.100
1.572,4.800,0.900,-10.400,-10.300
1.573,4.800,-3.500,-10.100,-10.500
1.574,4.800,-7.600,-9.700,-10.600
1.575,4.700,-11.100,-9.300,-10.500
1.576,4.700,-14.600,-9.000,-10.300
1.577,4.500,-18.200,-8.800,-10.200
1.578,4.400,-21.600,-8.500,-10.300
1.579,4.300,-24.300,-8.100,-10.500
1.580,4.300,-26.700,-7.800,-10.700
1.581,4.300,-28.900,-7.500,-10.700
1.582,4.300,-31.300,-7.500,-10.500
1.583,4.300,-33.500,-7.600,-10.300
1.584,4.300,-35.400,-7.800,-10.300
1.585,4.300,-36.800,-7.900,-10.500
1.586,4.400,-38.000,-8.000,-10.900
1.587,4.600,-39.000,-8.000,-11.200
1.588,4.800,-39.600,-8.200,-11.500
1.589,5.000,-38.900,-8.300,-11.700
1.590,5.100,-36.200,-8.100,-11.800
1.591,5.000,-31.800,-7.600,-12.000
1.592,4.900,-26.600,-6.700,-12.200
1.593,4.800,-21.500,-5.800,-12.300
1.594,4.800,-16.700,-5.000,-12.300
1.595,4.800,-12.000,-4.500,-12.400
1.596,4.800,-7.000,-4.000,-12.500
1.597,4.700,-2.100,-3.500,-12.800
1.598,4.600,2.300,-3.100,-13.200
1.599,4.300,5.300,-2.800,-13.600
1.600,4.100,6.800,-2.900,-13.900
1.601,4.000,7.100,-3.100,-14.100
1.602,3.900,6.500,-3.300,-14.100
1.603,3.900,5.200,-3.600,-14.100
1.604,4.000,3.300,-3.900,-14.100
1.605,4.000,0.700,-4.200,-14.000
1.606,4.000,-2.900,-4.600,-13.800
1.607,4.000,-7.300,-4.800,-13.600
1.608,3.900,-12.400,-4.900,-13.300
1.609,3.900,-17.500,-5.000,-13.000
1.610,3.800,-22.300,-5.300,-12.800
1.611,3.800,-26.600,-5.700,-12.600
1.612,3.700,-30.200,-6.200,-12.500
1.613,3.600,-33.600,-6.600,-12.500
1.614,3.400,-37.000,-6.900,-12.500
1.615,3.100,-40.200,-7.000,-12.400
1.616,2.700,-42.700,-7.100,-12.300
1.617,2.200,-43.700,-6.900,-12.300
1.618,1.600,-43.000,-6.400,-12.300
1.619,0.900,-41.200,-5.300,-12.200
1.620,0.300,-38.900,-3.900,-12.100
1.621,-0.300,-36.800,-2.500,-11.900
1.622,-0.900,-34.700,-1.200,-11.800
1.623,-1.700,-32.300,-0.100,-11.800
1.624,-2.500,-29.600,1.100,-11.800
1.625,-3.100,-26.900,2.200,-11.800
1.626,-3.600,-24.700,3.100,-11.800
1.627,-3.900,-23.100,3.800,-11.700
1.628,-4.300,-21.800,4.200,-11.600
1.629,-4.600,-20.600,4.400,-11.800
1.630,-5.000,-19.200,4.600,-12.100
1.631,-5.400,-17.900,4.900,-12.500
1.632,-5.700,-16.600,5.200,-12.800
1.633,-5.900,-15.100,5.400,-12.900
1.634,-6.300,-13.200,5.500,-12.800
1.635,-6.800,-10.900,5.500,-12.600
1.636,-7.400,-8.500,5.300,-12.400
1.637,-8.000,-6.400,5.100,-12.000
1.638,-8.600,-5.200,4.700,-11.500
1.639,-9.100,-4.900,4.200,-10.900
1.640,-9.500,-5.000,3.500,-10.400
1.641,-10.000,-5.200,2.800,-10.000
1.642,-10.300,-5.400,2.200,-9.600
1.643,-10.700,-6.000,1.700,-9.200
1.644,-11.000,-7.300,1.400,-8.600
1.645,-11.300,-9.000,1.200,-8.000
1.646,-11.500,-10.100,1.300,-7.400
1.647,-11.400,-9.700,1.900,-6.900
1.648,-11.200,-7.700,3.200,-6.400
1.649,-10.900,-5.500,5.100,-5.900
1.650,-10.800,-4.800,6.800,-5.300
1.651,-10.800,-5.900,7.800,-4.800
1.652,-10.900,-7.300,7.600,-4.400
1.653,-10.600,-6.700,7.000,-4.200
1.654,-10.000,-3.100,6.500,-4.200
1.655,-9.100,2.300,6.800,-4.200
1.656,-8.300,6.800,7.400,-4.100
1.657,-7.800,8.300,7.700,-3.800
1.658,-7.500,6.900,6.900,-3.500
1.659,-7.300,4.100,4.800,-3.400
1.660,-6.900,1.400,2.200,-3.600
1.661,-6.400,-1.100,-0.300,-4.000
1.662,-6.000,-4.100,-2.300,-4.400
1.663,-5.800,-7.900,-3.900,-4.700
1.664,-5.800,-11.700,-5.100,-4.800
1.665,-5.800,-14.400,-6.100,-4.700
1.666,-5.800,-15.600,-6.700,-4.600
1.667,-5.700,-15.900,-6.800,-4.700
1.668,-5.600,-15.800,-6.500,-4.800
1.669,-5.500,-15.600,-5.900,-5.000
1.670,-5.600,-14.700,-5.200,-5.100
1.671,-5.700,-12.800,-4.300,-5.100
1.672,-5.900,-10.400,-3.300,-5.100
1.673,-6.000,-8.100,-2.200,-5.200
1.674,-6.000,-6.600,-0.900,-5.300
1.675,-5.900,-5.600,0.300,-5.400
1.676,-5.900,-4.800,1.300,-5.300
1.677,-5.800,-4.000,2.300,-5.000
1.678,-5.800,-3.300,3.100,-4.600
1.679,-5.700,-3.100,3.900,-4.300
1.680,-5.600,-3.100,4.500,-4.000
1.681,-5.400,-2.900,5.000,-3.900
1.682,-5.000,-2.200,5.000,-3.700
1.683,-4.600,-1.100,4.700,-3.400
1.684,-4.200,0.100,4.100,-3.000
1.685,-3.700,1.300,3.400,-2.600
1.686,-3.200,2.500,2.700,-2.300
1.687,-2.600,4.000,2.100,-2.100
1.688,-2.000,5.500,1.500,-1.800
1.689,-1.500,6.800,0.800,-1.700
1.690,-1.200,7.200,0.200,-1.600
1.691,-1.100,6.800,-0.300,-1.500
1.692,-1.200,5.900,-0.700,-1.500
1.693,-1.200,4.900,-1.100,-1.500
1.694,-1.100,4.000,-1.600,-1.500
1.695,-1.000,3.100,-2.400,-1.400
1.696,-0.900,2.200,-3.200,-1.300
1.697,-0.900,1.200,-4.100,-1.300
1.698,-1.000,0.400,-5.000,-1.300
1.699,-1.200,-0.100,-5.600,-1.500
1.700,-1.300,-0.600,-5.900,-1.900
1.701,-1.400,-1.200,-5.700,-2.400
1.702,-1.400,-1.900,-5.000,-3.000
1.703,-1.500,-2.700,-3.900,-3.300
1.704,-1.600,-3.600,-2.700,-3.500
1.705,-1.700,-4.600,-1.400,-3.400
1.706,-1.800,-5.800,0.000,-3.200
1.707,-2.000,-7.300,1.600,-2.900
1.708,-2.200,-8.700,3.200,-2.400
1.709,-2.400,-9.800,4.600,-2.000
1.710,-2.500,-10.500,5.300,-1.500
1.711,-2.700,-10.900,5.300,-1.200
1.712,-2.700,-11.300,4.700,-1.100
1.713,-2.800,-11.400,3.800,-1.200
1.714,-2.900,-11.100,3.000,-1.600
1.715,-3.000,-10.100,2.200,-1.800
1.716,-3.000,-8.900,1.400,-2.100
1.717,-3.100,-7.700,0.500,-2.300
1.718,-3.100,-6.900,-0.500,-2.600
1.719,-3.100,-6.500,-1.300,-2.900
1.720,-3.100,-6.200,-2.100,-2.900
1.721,-3.000,-5.800,-2.600,-2.600
1.722,-2.800,-5.400,-3.000,-2.000
1.723,-2.600,-5.000,-3.400,-1.400
1.724,-2.200,-4.900,-3.800,-0.900
1.725,-1.800,-4.600,-4.000,-0.800
1.726,-1.300,-3.800,-4.200,-0.900
1.727,-0.800,-2.400,-4.100,-1.000
1.728,-0.400,-0.500,-3.700,-1.000
1.729,0.000,1.700,-3.100,-0.800
1.730,0.300,3.800,-2.300,-0.500
1.731,0.700,5.900,-1.300,-0.400
1.732,1.000,8.000,-0.200,-0.500
1.733,1.300,10.400,1.000,-0.800
1.734,1.500,12.900,2.200,-1.000
1.735,1.600,15.200,3.400,-1.300
1.736,1.600,17.100,4.300,-1.400
1.737,1.400,18.500,5.000,-1.400
1.738,1.100,19.700,5.300,-1.500
1.739,0.900,21.100,5.300,-1.600
1.740,0.700,22.600,5.000,-1.700
1.741,0.400,23.400,4.500,-1.700
1.742,0.200,23.300,3.900,-1.700
1.743,-0.100,22.300,3.100,-1.600
1.744,-0.400,21.300,2.200,-1.400
1.745,-0.700,20.600,1.000,-1.200
1.746,-0.900,19.700,-0.100,-1.000
1.747,-1.100,17.400,-1.000,-0.600
1.748,-1.200,13.500,-1.400,-0.300
1.749,-1.300,9.700,-1.400,-0.100
1.750,-1.400,7.900,-1.300,-0.100
1.751,-1.500,9.000,-1.400,-0.200
1.752,-1.600,11.300,-1.700,-0.400
1.753,-1.400,11.400,-2.100,-0.700
1.754,-1.100,7.500,-2.000,-0.800
1.755,-0.800,0.600,-1.200,-1.000
1.756,-0.600,-6.000,0.000,-1.000
1.757,-0.500,-9.600,1.000,-1.000
1.758,-0.500,-10.100,1.500,-1.000
1.759,-0.400,-9.300,1.300,-0.900
1.760,-0.300,-8.900,0.800,-0.800
1.761,-0.100,-9.100,0.200,-0.600
1.762,-0.100,-8.500,-0.200,-0.400
1.763,-0.100,-6.400,-0.500,-0.200
1.764,-0.300,-3.300,-0.700,-0.200
1.765,-0.500,-0.500,-0.900,-0.400
1.766,-0.800,1.400,-1.000,-0.700
1.767,-1.100,2.400,-0.800,-1.200
1.768,-1.400,3.200,-0.400,-1.500
1.769,-1.700,4.100,0.100,-1.600
1.770,-1.900,4.400,0.600,-1.500
1.771,-2.200,3.600,1.000,-1.200
1.772,-2.400,1.500,1.400,-1.000
1.773,-2.700,-1.300,1.800,-1.000
1.774,-3.100,-4.100,2.400,-1.300
1.775,-3.500,-6.600,3.100,-1.600
1.776,-4.000,-8.800,3.800,-1.900
1.777,-4.400,-11.000,4.500,-1.900
1.778,-4.800,-13.100,5.200,-1.800
1.779,-5.100,-14.800,6.000,-1.600
1.780,-5.400,-15.900,6.900,-1.400
1.781,-5.700,-16.300,7.700,-1.200
1.782,-6.000,-16.100,8.100,-1.000
1.783,-6.400,-15.300,8.100,-0.800
1.784,-6.800,-14.200,7.600,-0.700
1.785,-7.200,-12.900,6.900,-0.700
1.786,-7.600,-11.300,6.200,-0.800
1.787,-8.000,-9.400,5.600,-1.000
1.788,-8.400,-7.500,4.900,-1.300
1.789,-8.800,-5.600,4.000,-1.600
1.790,-9.300,-4.000,3.100,-1.800
1.791,-9.900,-3.100,2.200,-2.100
1.792,-10.400,-2.900,1.500,-2.400
1.793,-10.900,-3.200,1.000,-2.700
1.794,-11.500,-3.900,0.800,-3.100
1.795,-12.100,-5.000,0.600,-3.600
1.796,-12.800,-6.500,0.700,-4.100
1.797,-13.500,-8.700,0.900,-4.600
1.798,-14.200,-11.400,1.300,-4.900
1.799,-14.700,-14.000,1.900,-5.100
1.800,-15.200,-15.700,2.600,-5.400
1.801,-15.700,-16.100,3.300,-5.700
1.802,-16.200,-15.500,4.000,-6.200
1.803,-16.700,-14.100,4.600,-6.700
1.804,-17.200,-12.300,5.100,-6.800
1.805,-17.800,-9.900,5.500,-6.600
1.806,-18.400,-6.500,5.900,-6.200
1.807,-19.000,-2.400,6.300,-5.800
1.808,-19.800,1.700,6.800,-5.700
1.809,-20.400,4.900,7.100,-5.800
1.810,-21.000,6.600,7.400,-6.000
1.811,-21.500,7.100,7.700,-6.100
1.812,-21.900,7.000,7.900,-6.100
1.813,-22.400,6.400,8.200,-5.900
1.814,-22.900,5.200,8.500,-5.600
1.815,-23.400,3.000,8.600,-5.400
1.816,-24.000,-0.100,8.700,-5.300
1.817,-24.600,-3.500,8.700,-5.200
1.818,-25.200,-6.400,8.900,-5.200
1.819,-25.800,-8.500,9.300,-5.300
1.820,-26.400,-10.000,9.800,-5.300
1.821,-26.900,-11.000,10.500,-5.300
1.822,-27.200,-11.800,11.100,-5.400
1.823,-27.400,-12.100,11.900,-5.400
1.824,-27.500,-11.900,12.700,-5.500
1.825,-27.600,-11.400,13.600,-5.500
1.826,-27.700,-10.800,14.400,-5.600
1.827,-27.800,-10.400,14.900,-5.700
1.828,-28.000,-10.400,15.000,-6.100
1.829,-28.100,-10.800,14.900,-6.700
1.830,-28.100,-11.700,14.800,-7.300
1.831,-28.000,-12.900,14.800,-7.700
1.832,-27.800,-14.400,14.700,-7.800
1.833,-27.600,-16.000,14.500,-7.500
1.834,-27.500,-17.300,14.200,-7.100
1.835,-27.500,-18.200,13.900,-6.700
1.836,-27.600,-18.800,13.600,-6.700
1.837,-27.700,-18.900,13.300,-7.000
1.838,-27.500,-18.700,12.800,-7.500
1.839,-27.300,-18.100,12.100,-7.900
1.840,-27.000,-17.300,11.100,-8.200
1.841,-26.700,-16.300,9.900,-8.100
1.842,-26.400,-15.300,8.700,-7.900
1.843,-26.100,-14.400,7.600,-7.700
1.844,-25.800,-13.600,6.300,-7.600
1.845,-25.400,-12.900,4.900,-7.700
1.846,-24.900,-12.600,3.200,-7.700
1.847,-24.200,-13.300,1.700,-7.800
1.848,-23.500,-14.700,0.600,-7.700
1.849,-22.800,-16.100,0.100,-7.600
1.850,-22.100,-16.500,-0.300,-7.500
1.851,-21.400,-15.700,-0.900,-7.400
1.852,-20.900,-14.400,-1.900,-7.300
1.853,-20.200,-13.700,-2.700,-7.300
1.854,-19.500,-14.600,-2.500,-7.200
1.855,-18.800,-16.300,-1.000,-7.000
1.856,-18.100,-17.800,1.500,-6.900
1.857,-17.500,-17.900,3.900,-6.600
1.858,-16.900,-16.600,5.700,-6.300
1.859,-16.200,-14.600,6.800,-5.900
1.860,-15.600,-12.600,7.600,-5.500
1.861,-14.900,-11.100,8.600,-5.100
1.862,-14.300,-9.700,9.500,-4.800
1.863,-13.700,-8.400,9.800,-4.600
1.864,-13.000,-7.300,9.200,-4.400
1.865,-12.300,-6.700,7.900,-4.200
1.866,-11.500,-6.800,6.500,-3.900
1.867,-10.700,-7.400,5.200,-3.700
1.868,-9.900,-8.300,3.900,-3.400
1.869,-9.000,-9.600,2.600,-3.100
1.870,-8.200,-11.700,1.200,-2.900
1.871,-7.200,-14.400,0.000,-2.700
1.872,-6.300,-17.600,-0.700,-2.400
1.873,-5.400,-20.600,-0.900,-2.000
1.874,-4.600,-22.900,-0.900,-1.700
1.875,-3.900,-24.500,-0.700,-1.600
1.876,-3.300,-25.500,-0.600,-1.600
1.877,-2.800,-26.100,-0.400,-1.700
1.878,-2.300,-26.400,-0.200,-1.900
1.879,-1.700,-26.000,0.000,-2.100
1.880,-1.200,-24.600,0.000,-2.000
1.881,-0.700,-22.100,-0.200,-1.900
1.882,0.000,-18.500,-0.600,-1.600
1.883,0.500,-14.400,-1.200,-1.400
1.884,0.900,-10.200,-1.800,-1.200
1.885,1.200,-5.900,-2.600,-1.100
1.886,1.400,-1.600,-3.300,-0.900
1.887,1.700,2.800,-4.000,-0.700
1.888,2.200,7.600,-4.800,-0.400
1.889,2.600,12.300,-5.500,-0.200
1.890,2.900,16.600,-6.000,-0.100
1.891,3.200,20.100,-6.200,0.000
1.892,3.500,22.700,-6.100,0.200
1.893,3.700,24.500,-5.600,0.500
1.894,4.000,25.600,-4.900,0.700
1.895,4.300,26.000,-4.000,0.800
1.896,4.600,25.700,-3.000,0.600
1.897,4.700,24.400,-1.800,0.100
1.898,4.800,22.000,-0.400,-0.600
1.899,4.900,18.800,1.200,-1.200
1.900,4.900,15.300,2.700,-1.700
1.901,5.000,12.000,3.900,-1.900
1.902,5.000,9.100,4.600,-1.900
1.903,5.100,6.700,5.000,-1.800
1.904,5.100,4.600,5.100,-1.600
1.905,5.100,2.700,5.000,-1.500
1.906,5.000,1.100,4.700,-1.600
1.907,4.700,0.100,3.900,-1.600
1.908,4.400,-0.400,2.700,-1.600
1.909,4.100,-0.400,1.300,-1.400
1.910,3.800,-0.200,0.100,-0.900
1.911,3.800,-0.100,-0.800,-0.400
1.912,3.900,0.000,-1.600,0.000
1.913,4.400,0.200,-2.200,0.200
1.914,5.000,0.500,-2.700,0.100
1.915,5.900,0.800,-3.000,-0.300
1.916,6.900,0.700,-2.800,-0.800
1.917,8.000,0.000,-2.300,-1.500
1.918,9.200,-1.400,-1.800,-2.100
1.919,10.500,-2.800,-1.400,-2.900
1.920,11.700,-3.900,-1.100,-3.800
1.921,12.600,-4.600,-0.900,-4.800
1.922,13.100,-4.900,-0.600,-5.800
1.923,13.300,-5.300,-0.300,-6.500
1.924,13.500,-5.500,-0.300,-6.700
1.925,13.600,-5.300,-0.800,-6.500
1.926,13.700,-4.300,-1.500,-5.800
1.927,13.400,-2.800,-2.100,-4.900
1.928,12.600,-1.400,-2.400,-3.900
1.929,11.200,-0.600,-2.400,-2.700
1.930,9.600,-0.400,-2.400,-1.500
1.931,7.800,-0.700,-2.400,-0.200
1.932,6.200,-1.000,-2.500,1.200
1.933,4.900,-1.400,-2.600,2.500
1.934,4.200,-2.000,-2.800,3.800
1.935,4.000,-2.800,-3.300,4.900
1.936,4.200,-3.300,-3.900,6.000
1.937,4.500,-3.100,-4.300,7.000
1.938,4.900,-1.600,-4.400,7.700
1.939,5.300,1.200,-4.100,8.200
1.940,5.500,4.600,-3.500,8.400
1.941,5.700,7.800,-2.700,8.400
1.942,5.900,10.900,-1.700,8.400
1.943,6.300,14.300,-0.500,8.600
1.944,6.700,18.600,1.000,9.000
1.945,7.100,23.300,2.800,9.500
1.946,7.500,26.400,4.600,10.100
1.947,7.700,26.100,6.400,10.600
1.948,7.700,22.400,8.400,11.000
1.949,7.600,18.200,10.400,11.600
1.950,7.700,17.100,12.400,12.200
1.951,7.900,20.100,13.700,12.800
1.952,8.100,24.200,14.200,13.400
1.953,8.100,24.600,14.200,14.000
1.954,7.900,18.400,14.200,14.600
1.955,7.400,7.700,14.500,15.100
1.956,6.900,-2.400,15.100,15.200
1.957,6.500,-7.700,15.400,15.000
1.958,6.200,-7.700,15.000,14.600
1.959,5.900,-5.700,13.900,14.100
1.960,5.600,-4.700,12.300,13.700
1.961,5.300,-5.600,10.700,13.200
1.962,5.000,-6.600,9.400,12.400
1.963,4.800,-6.300,8.200,11.300
1.964,4.800,-4.700,7.000,9.900
1.965,4.700,-3.100,5.600,8.600
1.966,4.800,-2.500,4.100,7.200
1.967,4.900,-2.900,2.400,5.800
1.968,5.200,-3.200,0.800,4.100
1.969,5.600,-3.000,-1.000,1.900
1.970,6.300,-2.300,-3.100,-0.600
1.971,7.100,-1.700,-5.500,-3.100
1.972,8.200,-1.200,-8.400,-5.400
1.973,9.600,-0.800,-11.500,-7.500
1.974,11.200,-0.400,-14.700,-9.800
1.975,13.100,-0.700,-17.900,-12.500
1.976,15.000,-2.000,-21.300,-15.700
1.977,17.100,-4.700,-24.700,-19.500
1.978,19.200,-8.800,-28.200,-23.900
1.979,21.400,-14.500,-31.800,-28.600
1.980,23.400,-22.000,-35.100,-33.700
1.981,25.200,-31.800,-38.400,-39.000
1.982,26.700,-43.900,-41.400,-44.700
1.983,27.600,-57.900,-44.500,-50.800
1.984,27.800,-72.900,-47.400,-57.000
1.985,27.000,-88.400,-50.000,-63.400
1.986,24.800,-104.100,-52.100,-69.700
1.987,20.700,-119.900,-53.400,-75.800
1.988,14.900,-135.600,-53.700,-81.600
1.989,7.700,-150.500,-53.200,-86.900
1.990,-0.100,-163.800,-52.200,-91.500
1.991,-7.300,-174.700,-51.300,-95.300
1.992,-12.700,-182.700,-50.800,-98.100
1.993,-15.700,-187.700,-50.600,-99.600
1.994,-16.500,-189.800,-50.700,-99.900
1.995,-15.900,-188.900,-50.500,-98.700
1.996,-14.900,-185.200,-49.700,-96.000
1.997,-14.500,-178.700,-47.800,-91.900
1.998,-15.200,-169.600,-44.800,-86.700
1.999,-17.200,-157.800,-40.800,-80.300
2.000,-20.200,-143.700,-35.700,-73.200
2.001,-23.900,-127.500,-29.700,-65.200
2.002,-28.100,-109.600,-23.100,-56.600
2.003,-32.400,-90.800,-15.900,-47.500
2.004,-37.000,-71.700,-8.500,-38.400
2.005,-41.800,-53.000,-1.000,-29.600
2.006,-47.000,-35.100,6.600,-21.100
2.007,-52.600,-18.800,14.100,-13.300
2.008,-58.200,-4.300,21.300,-6.000
2.009,-63.500,8.000,28.000,0.500
2.010,-68.100,18.100,34.000,6.100
2.011,-71.400,26.100,38.600,10.600
2.012,-73.000,32.300,41.800,14.100
2.013,-72.500,37.100,43.200,16.500
2.014,-69.400,41.000,42.900,18.100
2.015,-63.700,44.100,40.900,19.200
2.016,-55.500,46.400,37.200,19.800
2.017,-45.200,47.800,32.000,20.100
2.018,-33.500,48.400,25.500,19.900
2.019,-21.200,48.000,18.300,19.500
2.020,-9.000,46.600,11.000,18.700
2.021,2.500,44.400,4.000,17.900
2.022,12.900,41.200,-2.100,16.900
2.023,21.800,37.200,-7.500,15.900
2.024,29.100,32.500,-12.000,14.800
2.025,34.600,27.300,-15.600,13.600
2.026,38.600,22.100,-18.100,12.400
2.027,41.200,17.400,-19.500,11.200
2.028,42.600,13.700,-19.700,10.100
2.029,43.000,11.000,-19.100,9.100
2.030,42.800,9.300,-18.000,8.000
2.031,42.100,8.500,-16.900,7.000
2.032,41.100,8.300,-15.700,6.100
2.033,39.800,8.600,-14.200,5.200
2.034,38.200,9.400,-12.600,4.400
2.035,36.500,10.300,-10.900,3.600
2.036,34.600,10.900,-9.300,2.700
2.037,32.700,10.900,-8.000,1.800
2.038,30.700,9.800,-7.000,1.000
2.039,28.700,7.700,-6.400,0.300
2.040,26.700,5.000,-6.100,-0.300
2.041,24.800,2.400,-6.000,-0.800
2.042,22.900,0.100,-6.100,-1.200
2.043,21.100,-2.300,-6.500,-1.200
2.044,19.300,-5.400,-7.100,-1.100
2.045,17.600,-8.600,-8.000,-1.000
2.046,15.900,-10.900,-9.100,-0.800
2.047,14.300,-10.800,-9.800,-0.700
2.048,12.900,-8.400,-9.900,-0.400
2.049,11.600,-5.500,-9.400,0.000
2.050,10.400,-4.700,-8.800,0.700
2.051,9.300,-6.800,-8.600,1.300
2.052,8.200,-9.400,-8.700,1.700
2.053,7.200,-9.300,-8.900,1.800
2.054,6.300,-4.400,-8.300,1.700
2.055,5.500,3.900,-6.700,1.500
2.056,4.900,11.800,-4.400,1.400
2.057,4.400,16.200,-2.200,1.400
2.058,3.900,16.900,-0.700,1.500
2.059,3.500,16.000,0.000,1.600
2.060,3.100,15.700,0.300,1.500
2.061,2.800,16.300,0.800,1.400
2.062,2.600,16.500,1.400,1.100
2.063,2.600,14.900,2.000,0.800
2.064,2.600,11.600,2.300,0.600
2.065,2.700,7.600,2.300,0.500
2.066,2.900,4.000,2.400,0.400
2.067,3.000,1.100,2.600,0.300
2.068,3.000,-2.000,3.000,0.000
2.069,3.100,-6.000,3.400,-0.400
2.070,3.100,-11.100,3.600,-0.800
2.071,3.300,-16.500,3.600,-1.200
2.072,3.400,-21.100,3.400,-1.400
2.073,3.400,-24.300,2.900,-1.400
2.074,3.400,-26.200,2.300,-1.200
2.075,3.300,-27.100,1.600,-1.000
2.076,3.200,-27.500,0.700,-0.900
2.077,3.100,-27.000,-0.100,-0.900
2.078,3.000,-25.300,-1.000,-0.900
2.079,2.800,-22.100,-1.900,-0.800
2.080,2.600,-17.800,-2.800,-0.800
2.081,2.400,-13.200,-3.700,-0.800
2.082,2.300,-9.200,-4.400,-0.800
2.083,2.500,-6.100,-4.800,-0.800
2.084,2.700,-3.700,-5.000,-0.900
2.085,2.900,-1.800,-5.100,-1.000
2.086,3.100,-0.300,-5.100,-1.000
2.087,3.300,0.500,-5.200,-1.100
2.088,3.500,0.500,-5.200,-1.300
2.089,3.800,0.000,-5.200,-1.500
2.090,4.000,-0.800,-4.900,-1.700
2.091,4.300,-1.300,-4.300,-1.900
2.092,4.500,-1.600,-3.600,-2.000
2.093,4.700,-1.700,-2.800,-2.200
2.094,4.800,-1.800,-2.100,-2.400
2.095,4.900,-1.700,-1.400,-2.600
2.096,5.000,-1.500,-0.700,-2.700
2.097,5.100,-1.200,0.000,-2.700
2.098,5.000,-1.100,0.600,-2.700
2.099,4.900,-1.600,1.100,-2.700
2.100,4.700,-2.700,1.300,-2.700
2.101,4.400,-4.400,1.100,-2.800
2.102,4.200,-6.300,0.600,-2.800
2.103,4.000,-8.500,-0.100,-2.900
2.104,3.700,-10.600,-0.900,-2.800
2.105,3.500,-12.600,-1.800,-2.800
2.106,3.300,-14.500,-2.700,-2.600
2.107,3.200,-16.100,-3.700,-2.500
2.108,3.100,-17.300,-4.700,-2.300
2.109,3.000,-18.000,-5.600,-2.000
2.110,2.800,-18.200,-6.300,-1.700
2.111,2.500,-17.900,-6.700,-1.500
2.112,2.200,-17.200,-6.900,-1.300
2.113,2.000,-16.200,-6.800,-1.200
2.114,1.900,-14.900,-6.700,-1.100
2.115,1.800,-13.200,-6.500,-1.000
2.116,1.800,-10.900,-6.200,-0.900
2.117,1.900,-8.300,-5.500,-0.800
2.118,1.900,-5.300,-4.600,-0.900
2.119,2.000,-2.400,-3.400,-1.200
2.120,2.100,0.000,-2.200,-1.600
2.121,2.200,2.000,-1.100,-2.100
2.122,2.200,3.600,0.000,-2.600
2.123,2.200,4.900,1.000,-3.100
2.124,2.200,6.000,2.000,-3.400
2.125,2.200,6.400,3.000,-3.700
2.126,2.100,5.700,3.700,-3.700
2.127,2.000,3.900,4.000,-3.600
2.128,1.900,1.100,3.800,-3.200
2.129,1.800,-2.200,3.200,-2.600
2.130,1.600,-5.500,2.500,-1.900
2.131,1.600,-8.700,1.700,-1.200
2.132,1.600,-12.100,1.000,-0.600
2.133,1.500,-15.900,0.200,-0.200
2.134,1.500,-20.200,-0.900,0.000
2.135,1.500,-24.500,-2.300,0.000
2.136,1.600,-28.400,-3.900,0.000
2.137,1.900,-31.400,-5.500,0.000
2.138,2.200,-33.900,-6.700,0.000
2.139,2.500,-36.200,-7.800,-0.200
2.140,2.900,-38.200,-8.800,-0.800
2.141,3.300,-39.400,-9.900,-1.500
2.142,3.700,-38.900,-10.700,-2.400
2.143,4.100,-37.100,-11.100,-3.100
2.144,4.400,-34.900,-11.000,-3.700
2.145,4.700,-32.600,-10.900,-4.100
2.146,4.900,-29.500,-10.800,-4.500
2.147,5.100,-24.100,-10.400,-5.000
2.148,5.300,-16.500,-9.300,-5.600
2.149,5.500,-9.100,-7.200,-6.300
2.150,5.700,-5.600,-5.200,-7.000
2.151,5.900,-7.000,-4.300,-7.500
2.152,6.000,-10.700,-5.000,-7.800
2.153,6.100,-11.700,-6.400,-8.000
2.154,6.000,-7.200,-6.800,-8.200
2.155,5.900,1.600,-5.100,-8.400
2.156,5.800,9.600,-1.800,-8.600
2.157,5.700,12.900,1.100,-8.900
2.158,5.500,11.000,2.300,-9.100
2.159,5.400,7.000,1.700,-9.100
2.160,5.300,3.600,0.200,-8.800
2.161,5.200,1.700,-0.900,-8.500
2.162,5.100,-0.100,-1.500,-8.100
2.163,5.200,-3.200,-2.000,-7.900
2.164,5.300,-7.300,-2.900,-7.800
2.165,5.500,-11.000,-4.000,-7.600
2.166,5.600,-13.500,-5.000,-7.300
2.167,5.600,-15.200,-5.500,-7.100
2.168,5.600,-16.700,-5.700,-7.100
2.169,5.500,-18.500,-5.900,-7.100
2.170,5.500,-19.900,-6.100,-7.300
2.171,5.500,-20.500,-6.200,-7.400
2.172,5.500,-20.300,-6.200,-7.600
2.173,5.300,-19.800,-5.800,-7.800
2.174,4.900,-19.700,-5.500,-8.300
2.175,4.300,-19.800,-5.300,-8.800
2.176,3.800,-19.800,-5.200,-9.200
2.177,3.300,-19.500,-5.200,-9.300
2.178,3.000,-19.200,-5.100,-9.200
2.179,2.700,-18.800,-5.200,-8.900
2.180,2.300,-18.500,-5.400,-8.700
2.181,2.100,-17.800,-5.700,-8.500
2.182,1.900,-16.500,-6.200,-8.400
2.183,1.900,-14.800,-6.500,-8.300
2.184,2.100,-12.800,-6.800,-8.200
2.185,2.400,-10.800,-7.100,-8.200
2.186,2.700,-8.800,-7.300,-8.300
2.187,3.100,-6.700,-7.600,-8.400
2.188,3.700,-4.600,-7.900,-8.400
2.189,4.400,-2.400,-8.100,-8.400
2.190,5.300,-0.600,-8.300,-8.500
2.191,6.200,0.800,-8.500,-8.600
2.192,7.000,1.600,-8.700,-8.600
2.193,7.700,1.900,-8.900,-8.600
2.194,8.200,1.900,-9.100,-8.500
2.195,8.800,1.500,-9.300,-8.300
2.196,9.300,0.700,-9.300,-8.300
2.197,9.700,-0.700,-9.400,-8.300
2.198,9.700,-2.500,-9.300,-8.400
2.199,9.300,-4.900,-9.100,-8.400
2.200,8.700,-7.700,-8.800,-8.300
2.201,8.100,-10.700,-8.300,-8.100
2.202,7.600,-13.600,-7.800,-7.800
2.203,7.300,-16.300,-7.300,-7.500
2.204,6.900,-18.800,-6.800,-7.300
2.205,6.400,-21.200,-6.300,-7.300
2.206,5.900,-23.600,-5.800,-7.400
2.207,5.400,-25.800,-5.300,-7.500
2.208,5.000,-27.800,-4.900,-7.700
2.209,4.700,-29.100,-4.600,-7.800
2.210,4.500,-30.000,-4.400,-7.900
2.211,4.400,-30.500,-4.300,-8.000
2.212,4.300,-30.900,-4.300,-8.200
2.213,4.200,-31.200,-4.400,-8.500
2.214,4.100,-31.300,-4.600,-8.800
2.215,3.900,-31.100,-4.800,-9.100
2.216,3.800,-30.400,-5.000,-9.300
2.217,3.500,-29.400,-5.300,-9.400
2.218,3.200,-28.200,-5.500,-9.400
2.219,2.800,-26.900,-5.700,-9.300
2.220,2.500,-25.800,-5.800,-9.200
2.221,2.300,-24.800,-5.900,-9.000
2.222,2.000,-23.800,-5.900,-9.000
2.223,1.600,-22.800,-5.800,-9.100
2.224,1.200,-21.800,-5.700,-9.200
2.225,0.900,-21.000,-5.400,-9.200
2.226,0.800,-20.300,-5.100,-9.100
2.227,0.900,-19.800,-4.700,-8.900
2.228,1.000,-19.300,-4.300,-8.900
2.229,1.000,-18.800,-3.900,-9.200
2.230,0.800,-18.400,-3.500,-9.700
2.231,0.600,-18.100,-3.000,-10.300
2.232,0.400,-17.900,-2.500,-10.700
2.233,0.200,-17.500,-2.000,-11.000
2.234,-0.100,-16.700,-1.600,-11.100
2.235,-0.500,-15.500,-1.300,-11.200
2.236,-0.900,-14.000,-1.000,-11.200
2.237,-1.500,-12.500,-0.900,-11.000
2.238,-2.100,-10.900,-0.700,-10.700
2.239,-2.700,-9.400,-0.600,-10.300
2.240,-3.400,-8.000,-0.500,-10.100
2.241,-4.300,-7.000,-0.400,-10.000
2.242,-5.400,-6.700,-0.300,-10.000
2.243,-6.800,-7.100,-0.200,-9.700
2.244,-8.200,-8.100,0.000,-9.100
2.245,-9.600,-9.300,0.200,-8.300
2.246,-10.600,-11.100,0.500,-7.500
2.247,-11.300,-13.900,0.800,-6.900
2.248,-11.600,-17.400,1.100,-6.500
2.249,-11.800,-20.700,1.600,-6.300
2.250,-12.200,-22.300,2.000,-6.100
2.251,-12.900,-21.800,2.300,-6.100
2.252,-13.500,-20.100,2.400,-6.200
2.253,-13.700,-19.100,2.400,-6.500
2.254,-13.200,-19.600,2.500,-6.800
2.255,-12.200,-21.200,2.800,-7.000
2.256,-11.200,-22.200,3.300,-7.000
2.257,-10.500,-21.200,3.700,-6.900
2.258,-10.100,-18.400,4.000,-6.700
2.259,-9.800,-15.000,4.000,-6.500
2.260,-9.300,-12.000,3.800,-6.300
2.261,-8.700,-9.400,3.700,-6.200
2.262,-8.100,-6.700,3.600,-5.900
2.263,-7.500,-3.500,3.600,-5.600
2.264,-7.100,-0.100,3.600,-5.300
2.265,-6.800,2.700,3.600,-4.900
2.266,-6.500,4.600,3.600,-4.600
2.267,-6.300,5.700,3.500,-4.300
2.268,-6.100,6.500,3.300,-3.900
2.269,-6.000,7.100,3.200,-3.600
2.270,-5.900,7.100,3.000,-3.300
2.271,-5.800,6.100,2.900,-3.000
2.272,-5.800,3.900,2.800,-2.600
2.273,-5.900,0.800,2.800,-2.300
2.274,-6.200,-2.600,2.700,-2.100
2.275,-6.600,-6.100,2.600,-2.000
2.276,-7.000,-9.600,2.500,-1.800
2.277,-7.300,-13.300,2.400,-1.600
2.278,-7.600,-17.300,2.300,-1.300
2.279,-7.800,-21.200,2.300,-0.900
2.280,-7.800,-24.800,2.200,-0.500
2.281,-7.700,-27.400,2.200,-0.100
2.282,-7.500,-29.000,2.200,0.200
2.283,-7.200,-29.700,2.100,0.400
2.284,-6.800,-30.000,2.100,0.600
2.285,-6.200,-29.900,2.000,0.700
2.286,-5.700,-29.400,1.800,0.700
2.287,-5.000,-28.300,1.700,0.500
2.288,-4.400,-26.500,1.700,0.200
2.289,-3.700,-24.300,1.700,-0.100
2.290,-3.200,-21.800,1.800,-0.400
2.291,-2.700,-19.000,1.800,-0.500
2.292,-2.400,-15.900,1.800,-0.600
2.293,-2.200,-12.400,1.900,-0.800
2.294,-2.000,-8.700,2.000,-1.100
2.295,-2.000,-5.000,2.000,-1.300
2.296,-2.100,-1.300,2.100,-1.400
2.297,-2.500,2.700,2.100,-1.200
2.298,-3.000,7.000,2.000,-1.000
2.299,-3.600,11.100,2.000,-0.800
2.300,-4.000,14.600,2.000,-0.800
2.301,-4.100,16.900,2.000,-1.000
2.302,-3.800,18.000,1.900,-1.400
2.303,-3.200,18.300,1.600,-1.900
2.304,-2.300,18.000,1.200,-2.600
2.305,-1.200,16.900,0.800,-3.600
2.306,0.000,14.500,0.400,-4.700
2.307,1.200,10.900,0.200,-6.000
2.308,2.100,6.600,0.200,-7.100
2.309,2.700,2.400,0.400,-8.000
2.310,3.000,-1.100,0.700,-8.600
2.311,3.300,-3.900,0.700,-8.500
2.312,3.600,-6.100,0.400,-8.000
2.313,3.700,-8.100,0.000,-7.100
2.314,3.400,-9.700,-0.300,-6.000
2.315,2.500,-10.500,-0.200,-4.900
2.316,1.400,-10.100,0.200,-3.800
2.317,0.100,-8.800,0.800,-2.700
2.318,-1.100,-7.000,1.200,-1.700
2.319,-2.100,-5.200,1.500,-0.800
2.320,-2.700,-3.600,1.500,-0.100
2.321,-3.000,-2.300,1.500,0.500
2.322,-2.900,-1.300,1.400,0.900
2.323,-2.600,-0.500,1.200,1.200
2.324,-2.200,0.200,1.100,1.400
2.325,-1.800,0.500,1.000,1.500
2.326,-1.600,0.500,0.900,1.500
2.327,-1.500,0.400,0.900,1.500
2.328,-1.600,0.400,1.000,1.400
2.329,-1.700,0.700,1.000,1.300
2.330,-1.800,1.300,1.000,1.200
2.331,-2.000,2.000,0.800,0.800
2.332,-2.100,2.700,0.700,0.400
2.333,-2.300,3.900,0.500,-0.100
2.334,-2.500,5.500,0.300,-0.600
2.335,-2.700,7.600,0.300,-0.900
2.336,-2.900,9.600,0.200,-1.000
2.337,-3.100,11.000,0.300,-1.100
2.338,-3.100,11.900,0.300,-1.200
2.339,-3.200,12.600,0.300,-1.400
2.340,-3.100,13.300,0.300,-1.600
2.341,-3.000,13.500,0.300,-1.700
2.342,-2.800,12.900,0.300,-1.600
2.343,-2.300,11.700,0.400,-1.600
2.344,-1.700,10.200,0.500,-1.400
2.345,-1.100,9.200,0.600,-1.300
2.346,-0.500,7.800,0.700,-1.200
2.347,0.000,5.300,0.700,-0.900
2.348,0.400,1.300,0.700,-0.600
2.349,0.600,-2.700,0.600,-0.200
2.350,0.900,-4.700,0.600,0.200
2.351,1.200,-3.700,0.500,0.600
2.352,1.300,-1.500,0.500,0.800
2.353,1.200,-1.000,0.500,0.800
2.354,0.900,-4.100,0.500,0.900
2.355,0.600,-9.700,0.500,1.000
2.356,0.400,-14.900,0.400,1.100
2.357,0.200,-17.100,0.400,1.300
2.358,0.100,-15.800,0.400,1.300
2.359,0.000,-13.100,0.500,1.200
2.360,-0.200,-10.600,0.500,0.900
2.361,-0.300,-9.000,0.600,0.600
2.362,-0.200,-7.400,0.700,0.400
2.363,0.000,-5.200,0.800,0.200
2.364,0.300,-2.500,0.900,0.100
2.365,0.500,-0.100,1.100,0.000
2.366,0.700,1.400,1.200,-0.300
2.367,0.800,2.200,1.200,-0.600
2.368,0.900,2.700,1.200,-0.800
2.369,1.000,3.300,1.100,-0.900
2.370,1.100,3.600,1.000,-0.800
2.371,1.000,3.000,0.900,-0.800
2.372,0.700,1.300,0.800,-0.800
2.373,0.300,-1.400,0.800,-1.100
2.374,0.000,-4.400,0.800,-1.500
2.375,-0.400,-7.300,0.800,-1.900
2.376,-0.700,-10.000,0.800,-2.000
2.377,-1.100,-12.700,0.800,-1.800
2.378,-1.500,-15.300,0.900,-1.500
2.379,-1.800,-17.800,0.900,-1.100
2.380,-2.000,-19.700,0.900,-0.800
2.381,-2.100,-20.400,0.900,-0.600
2.382,-2.100,-19.700,0.900,-0.400
2.383,-1.900,-17.900,1.000,-0.200
2.384,-1.700,-15.400,1.200,0.000
2.385,-1.500,-12.700,1.400,0.300
2.386,-1.000,-9.700,1.600,0.400
2.387,-0.400,-6.300,1.900,0.300
2.388,0.300,-2.400,2.200,0.100
2.389,0.900,1.700,2.400,-0.200
2.390,1.400,5.700,2.600,-0.700
2.391,1.600,9.000,2.800,-1.100
2.392,1.700,11.400,2.900,-1.300
2.393,1.800,13.200,3.000,-1.200
2.394,1.800,14.400,3.100,-0.900
2.395,1.800,15.200,3.200,-0.800
2.396,1.600,15.500,3.400,-0.900
2.397,1.200,14.900,3.500,-1.300
2.398,0.600,13.300,3.600,-1.800
2.399,-0.100,10.900,3.700,-2.200
2.400,-1.000,8.000,3.700,-2.300
2.401,-2.000,5.000,3.800,-2.300
2.402,-2.900,2.400,3.800,-2.100
2.403,-3.900,0.100,3.800,-2.000
2.404,-4.800,-2.100,3.800,-1.900
2.405,-5.800,-4.200,3.800,-2.000
2.406,-7.000,-6.300,3.800,-2.300
2.407,-8.200,-8.300,3.800,-2.500
2.408,-9.400,-9.700,3.900,-2.900
2.409,-10.300,-10.500,4.000,-3.100
2.410,-10.800,-10.900,4.200,-3.400
2.411,-11.000,-11.100,4.400,-3.500
2.412,-11.100,-11.200,4.600,-3.700
2.413,-11.100,-11.100,4.700,-3.800
2.414,-11.100,-10.700,4.700,-4.000
2.415,-10.900,-10.100,4.900,-4.100
2.416,-10.500,-9.700,5.100,-4.200
2.417,-10.100,-9.800,5.300,-4.200
2.418,-9.600,-10.700,5.500,-4.100
2.419,-9.300,-12.200,5.700,-4.100
2.420,-9.200,-14.000,5.900,-4.100
2.421,-9.200,-15.900,6.000,-4.200
2.422,-9.300,-17.900,6.100,-4.300
2.423,-9.500,-20.300,6.200,-4.400
2.424,-9.800,-22.900,6.300,-4.500
2.425,-10.200,-25.000,6.400,-4.500
2.426,-11.000,-26.200,6.400,-4.500
2.427,-12.000,-26.000,6.500,-4.500
2.428,-13.000,-24.700,6.500,-4.300
2.429,-14.100,-22.600,6.600,-4.200
2.430,-15.100,-20.100,6.600,-4.100
2.431,-16.200,-17.100,6.700,-4.100
2.432,-17.200,-13.900,6.700,-4.300
2.433,-18.300,-10.100,6.700,-4.700
2.434,-19.200,-6.200,6.700,-5.200
2.435,-20.000,-2.500,6.700,-5.500
2.436,-20.600,0.300,6.900,-5.800
2.437,-21.200,2.300,7.000,-5.900
2.438,-21.800,3.300,7.200,-5.900
2.439,-22.400,3.700,7.400,-5.800
2.440,-23.100,3.600,7.500,-5.800
2.441,-23.600,3.000,7.700,-5.700
2.442,-24.100,1.700,7.800,-5.500
2.443,-24.600,-0.200,8.100,-5.200
2.444,-24.900,-2.800,8.400,-4.900
2.445,-25.100,-5.800,8.600,-4.600
2.446,-25.300,-9.000,8.800,-4.400
2.447,-25.600,-12.400,8.900,-4.300
2.448,-25.900,-15.700,9.100,-4.200
2.449,-26.200,-18.600,9.300,-3.900
2.450,-26.500,-20.600,9.400,-3.700
2.451,-26.500,-21.500,9.500,-3.400
2.452,-26.700,-21.300,9.500,-3.400
2.453,-27.000,-20.500,9.500,-3.500
2.454,-27.400,-19.500,9.500,-3.700
2.455,-28.000,-18.400,9.600,-3.900
2.456,-28.400,-16.900,9.800,-4.100
2.457,-28.700,-14.800,9.900,-4.300
2.458,-28.800,-11.900,9.900,-4.400
2.459,-29.000,-8.600,9.800,-4.500
2.460,-29.100,-5.400,9.600,-4.500
2.461,-29.200,-3.000,9.400,-4.600
2.462,-28.800,-1.800,9.300,-4.900
2.463,-28.200,-1.900,9.200,-5.300
2.464,-27.400,-3.200,9.000,-5.700
2.465,-26.600,-5.600,8.700,-6.200
2.466,-26.000,-8.500,8.300,-6.500
2.467,-25.500,-11.700,7.900,-6.700
2.468,-25.000,-15.300,7.500,-7.000
2.469,-24.300,-19.100,7.100,-7.100
2.470,-23.500,-23.300,6.600,-7.200
2.471,-22.700,-27.200,6.200,-7.100
2.472,-21.900,-30.400,5.900,-7.000
2.473,-21.200,-32.200,5.700,-6.900
2.474,-20.500,-32.600,5.400,-7.000
2.475,-19.900,-31.900,5.200,-7.100
2.476,-19.300,-30.500,5.000,-7.200
2.477,-18.700,-28.300,4.800,-7.000
2.478,-18.200,-25.200,4.700,-6.700
2.479,-17.700,-20.800,4.500,-6.300
2.480,-17.100,-15.400,4.400,-6.000
2.481,-16.500,-9.500,4.300,-5.600
2.482,-16.000,-3.900,4.100,-5.300
2.483,-15.400,1.000,4.000,-4.900
2.484,-14.800,5.100,3.900,-4.500
2.485,-14.100,8.700,3.900,-4.100
2.486,-13.400,11.800,3.900,-3.800
2.487,-12.700,14.500,3.900,-3.600
2.488,-12.200,16.300,4.000,-3.300
2.489,-11.600,16.900,4.100,-3.100
2.490,-11.000,16.200,4.100,-2.700
2.491,-10.300,14.500,4.100,-2.300
2.492,-9.700,12.400,4.000,-1.900
2.493,-9.100,10.100,3.900,-1.500
2.494,-8.700,8.000,3.700,-1.300
2.495,-8.300,5.800,3.500,-1.100
2.496,-7.900,3.300,3.200,-1.100
2.497,-7.500,0.700,2.800,-1.200
2.498,-7.100,-1.900,2.300,-1.400
2.499,-6.800,-4.200,1.900,-1.500
2.500,-6.500,-6.200,1.400,-1.600
2.501,-6.200,-7.900,0.900,-1.800
2.502,-5.900,-9.400,0.400,-2.000
2.503,-5.500,-10.600,0.000,-2.200
2.504,-5.100,-11.500,-0.300,-2.300
2.505,-4.700,-12.000,-0.700,-2.200
2.506,-4.200,-12.000,-0.900,-2.100
2.507,-3.600,-11.500,-1.200,-1.900
2.508,-2.900,-10.200,-1.500,-1.700
2.509,-2.000,-8.000,-1.800,-1.500
2.510,-1.100,-5.300,-2.000,-1.300
2.511,-0.100,-2.300,-2.100,-1.000
2.512,0.700,0.700,-2.100,-0.600
2.513,1.400,3.500,-2.100,-0.100
2.514,2.100,6.300,-2.100,0.300
2.515,2.800,9.200,-2.200,0.700
2.516,3.500,11.800,-2.200,1.100
2.517,4.000,13.700,-2.300,1.400
2.518,4.300,14.400,-2.300,1.600
2.519,4.400,14.200,-2.300,1.800
2.520,4.300,13.400,-2.300,1.900
2.521,4.200,12.600,-2.300,2.000
2.522,4.000,11.900,-2.300,2.100
2.523,3.700,11.100,-2.200,2.100
2.524,3.400,10.000,-2.300,2.000
2.525,3.000,8.700,-2.300,1.900
2.526,2.600,7.400,-2.300,1.800
2.527,2.300,6.300,-2.400,1.700
2.528,2.000,5.600,-2.500,1.600
2.529,1.900,5.000,-2.500,1.500
2.530,1.800,4.500,-2.500,1.300
2.531,1.800,4.000,-2.500,1.000
2.532,1.800,3.700,-2.400,0.700
2.533,2.000,3.500,-2.500,0.300
2.534,2.300,3.500,-2.500,-0.100
2.535,2.800,3.600,-2.500,-0.400
2.536,3.300,3.900,-2.500,-0.500
2.537,3.800,4.100,-2.400,-0.400
2.538,4.400,4.400,-2.400,-0.200
2.539,5.000,4.700,-2.400,0.200
2.540,5.600,5.000,-2.400,0.500
2.541,6.200,5.300,-2.600,0.700
2.542,6.800,5.500,-2.700,0.800
2.543,7.200,5.800,-2.800,1.000
2.544,7.600,6.200,-2.900,1.300
2.545,8.100,6.400,-3.000,1.700
2.546,8.500,6.700,-3.100,2.100
2.547,8.500,6.900,-3.100,2.400
2.548,8.100,7.000,-3.100,2.700
2.549,7.600,7.100,-3.000,2.800
2.550,7.400,7.200,-2.800,2.900
2.551,7.800,7.400,-2.700,2.900
2.552,8.200,7.500,-2.600,2.800
2.553,8.300,7.600,-2.700,2.700
2.554,7.600,7.600,-2.700,2.600
2.555,6.200,7.500,-2.500,2.500
2.556,5.000,7.700,-2.200,2.500
2.557,4.300,7.900,-1.900,2.500
2.558,4.400,8.100,-1.700,2.500
2.559,4.700,8.300,-1.700,2.700
2.560,5.000,8.200,-1.800,2.900
2.561,5.200,8.100,-1.900,3.000
2.562,5.500,8.100,-1.900,3.100
2.563,5.900,8.200,-1.800,3.200
2.564,6.500,8.400,-1.700,3.300
2.565,7.100,8.500,-1.400,3.500
2.566,7.500,8.500,-1.100,3.900
2.567,7.700,8.300,-0.700,4.400
2.568,7.900,8.000,0.000,5.000
2.569,8.300,7.800,0.800,5.700
2.570,8.700,7.700,1.700,6.400
2.571,9.100,7.600,2.600,7.100
2.572,9.300,7.500,3.600,7.800
2.573,9.500,7.400,4.500,8.500
2.574,9.600,7.200,5.400,9.100
2.575,9.700,7.000,6.300,9.700
2.576,9.800,6.900,7.200,10.300
2.577,10.000,6.800,8.000,10.900
2.578,10.100,6.700,8.700,11.600
2.579,10.100,6.800,9.200,12.100
2.580,10.200,7.000,9.500,12.600
2.581,10.300,7.100,9.700,13.100
2.582,10.500,7.400,9.900,13.600
2.583,10.700,7.600,10.200,14.100
2.584,10.900,7.900,10.600,14.700
2.585,10.900,8.200,10.900,15.400
2.586,10.900,8.600,11.200,15.900
2.587,10.800,9.000,11.400,16.400
2.588,10.600,9.500,11.600,16.600
2.589,10.300,10.100,11.600,16.900
2.590,9.900,10.700,11.700,17.000
2.591,9.400,11.300,11.600,17.100
2.592,8.900,11.700,11.400,16.900
2.593,8.400,12.000,11.000,16.200
2.594,7.900,12.200,10.400,15.200
2.595,7.400,12.200,9.700,14.000
2.596,7.000,12.000,8.700,12.800
2.597,6.600,11.500,7.700,11.800
2.598,6.300,10.600,6.600,10.700
2.599,6.100,9.300,5.300,9.500
2.600,5.900,7.600,3.800,8.000
2.601,5.700,5.500,2.100,6.400
2.602,5.700,3.300,0.300,4.600
2.603,5.900,1.000,-1.600,2.700
2.604,6.200,-1.500,-3.700,0.700
2.605,6.800,-4.500,-5.900,-1.500
2.606,7.700,-8.100,-8.200,-3.900
2.607,8.700,-12.300,-10.600,-6.500
2.608,10.000,-16.900,-13.100,-9.300
2.609,11.600,-21.600,-15.800,-12.200
2.610,13.200,-26.400,-18.700,-15.400
2.611,15.100,-31.400,-21.800,-18.800
2.612,16.900,-36.900,-25.100,-22.600
2.613,18.800,-42.900,-28.600,-26.700
2.614,20.700,-49.500,-32.200,-31.300
2.615,22.600,-56.500,-36.000,-36.200
2.616,24.300,-63.900,-39.800,-41.400
2.617,25.500,-71.700,-43.600,-46.700
2.618,26.200,-80.200,-47.200,-52.200
2.619,26.100,-89.500,-50.500,-57.800
2.620,24.900,-99.300,-53.200,-63.700
2.621,22.600,-109.500,-55.300,-69.800
2.622,18.700,-119.800,-56.700,-76.000
2.623,13.300,-129.900,-57.200,-81.900
2.624,6.700,-139.700,-56.900,-87.000
2.625,-0.400,-148.800,-55.900,-91.300
2.626,-6.800,-156.800,-54.700,-94.600
2.627,-11.700,-163.000,-53.700,-96.900
2.628,-14.600,-166.900,-53.000,-98.400
2.629,-15.600,-168.300,-52.600,-98.800
2.630,-15.100,-167.000,-52.100,-98.000
2.631,-14.100,-163.400,-51.100,-95.800
2.632,-13.400,-157.500,-49.300,-92.300
2.633,-13.400,-149.600,-46.500,-87.500
2.634,-14.500,-139.800,-42.600,-81.800
2.635,-16.700,-128.200,-37.800,-75.200
2.636,-19.800,-115.200,-32.100,-67.900
2.637,-23.600,-101.100,-25.800,-60.100
2.638,-28.000,-86.400,-19.200,-51.800
2.639,-32.700,-71.600,-12.400,-43.200
2.640,-37.700,-56.900,-5.600,-34.500
2.641,-42.900,-42.500,1.200,-26.000
2.642,-48.300,-28.500,7.900,-18.000
2.643,-54.000,-15.400,14.400,-10.500
2.644,-59.600,-3.400,20.500,-3.700
2.645,-65.100,7.100,26.000,2.400
2.646,-69.800,15.900,30.900,7.600
2.647,-73.500,23.100,35.000,12.000
2.648,-75.700,28.900,38.100,15.500
2.649,-76.100,33.500,39.900,18.100
2.650,-74.400,37.000,40.400,20.100
2.651,-70.300,39.400,39.400,21.400
2.652,-63.800,41.000,37.100,22.200
2.653,-55.100,42.000,33.500,22.600
2.654,-44.700,42.800,29.000,22.600
2.655,-33.300,43.300,24.000,22.400
2.656,-21.400,43.400,18.600,21.900
2.657,-9.800,43.100,13.300,21.400
2.658,1.100,42.300,8.200,20.700
2.659,10.800,41.100,3.600,19.700
2.660,19.200,39.700,-0.400,18.600
2.661,25.900,38.200,-3.600,17.400
2.662,31.200,36.500,-6.200,16.200
2.663,35.100,34.800,-8.200,15.100
2.664,37.600,33.000,-9.700,14.000
2.665,39.100,31.200,-10.800,13.000
2.666,39.700,29.300,-11.500,11.800
2.667,39.500,27.200,-11.900,10.600
2.668,38.700,25.100,-12.200,9.600
2.669,37.600,22.900,-12.300,8.700
2.670,36.200,20.900,-12.300,8.000
2.671,34.800,19.000,-12.300,7.300
2.672,33.400,17.200,-12.100,6.700
2.673,31.900,15.500,-11.800,6.000
2.674,30.300,13.700,-11.500,5.300
2.675,28.700,11.800,-11.100,4.500
2.676,27.200,9.800,-10.700,3.700
2.677,25.700,7.900,-10.200,2.900
2.678,24.400,6.100,-9.700,2.100
2.679,23.300,4.400,-9.200,1.400
2.680,22.200,2.900,-8.600,0.800
2.681,21.000,1.700,-8.000,0.300
2.682,19.500,0.900,-7.300,0.000
2.683,17.900,0.300,-6.600,-0.200
2.684,16.200,-0.200,-5.900,-0.100
2.685,14.400,-0.700,-5.200,0.200
2.686,12.500,-1.200,-4.400,0.600
2.687,10.700,-1.700,-3.700,0.700
2.688,8.700,-2.100,-2.900,0.400
2.689,6.900,-2.300,-2.300,-0.300
2.690,5.300,-2.200,-1.800,-1.200
2.691,4.100,-1.800,-1.400,-1.800
2.692,3.500,-1.200,-1.100,-2.100
2.693,3.300,-0.400,-1.000,-1.900
2.694,3.500,0.500,-0.900,-1.600
2.695,3.900,1.600,-0.900,-1.600
2.696,4.500,2.800,-0.900,-2.200
2.697,5.400,3.900,-0.800,-3.100
2.698,6.400,4.800,-0.700,-4.300
2.699,7.400,5.500,-0.400,-5.300
2.700,8.200,6.000,-0.100,-6.000
2.701,8.900,6.300,0.100,-6.300
2.702,9.500,6.500,0.200,-6.300
2.703,10.000,6.700,0.000,-5.900
2.704,10.400,6.700,-0.300,-5.100
2.705,10.400,6.200,-0.600,-4.100
2.706,9.900,5.200,-0.700,-2.900
2.707,8.700,3.700,-0.700,-1.700
2.708,7.300,2.000,-0.500,-0.800
2.709,5.900,0.400,-0.300,-0.200
2.710,4.600,-0.900,-0.100,0.300
2.711,3.600,-1.800,-0.100,0.700
2.712,2.900,-2.500,-0.200,1.200
2.713,2.500,-3.100,-0.400,1.800
2.714,2.300,-3.800,-0.700,2.300
2.715,2.200,-4.300,-1.000,2.700
2.716,2.100,-4.700,-1.200,2.700
2.717,2.000,-4.700,-1.300,2.500
2.718,1.700,-4.500,-1.400,2.200
2.719,1.600,-4.100,-1.500,1.700
2.720,1.400,-3.900,-1.700,1.400
2.721,1.300,-3.700,-1.800,1.000
2.722,1.300,-3.500,-1.900,0.500
2.723,1.300,-3.200,-2.000,0.000
2.724,1.300,-2.800,-2.100,-0.600
2.725,1.300,-2.600,-2.200,-1.000
2.726,1.400,-2.700,-2.300,-1.200
2.727,1.500,-3.100,-2.300,-1.400
2.728,1.500,-3.600,-2.200,-1.600
2.729,1.400,-4.000,-2.000,-1.900
2.730,1.400,-4.300,-1.900,-2.200
2.731,1.400,-4.500,-1.700,-2.300
2.732,1.500,-4.600,-1.600,-2.300
2.733,1.400,-4.800,-1.500,-2.300
2.734,1.300,-5.300,-1.300,-2.400
2.735,1.000,-5.700,-1.200,-2.600
2.736,0.700,-6.200,-1.100,-2.500
2.737,0.500,-6.500,-1.100,-2.200
2.738,0.400,-6.700,-1.000,-1.600
2.739,0.500,-6.900,-1.000,-1.200
2.740,0.600,-7.200,-1.000,-1.200
2.741,0.800,-7.400,-1.000,-1.700
2.742,1.000,-7.600,-1.100,-2.400
2.743,1.400,-7.800,-1.200,-3.000
2.744,1.900,-7.800,-1.300,-3.000
2.745,2.400,-7.800,-1.400,-2.700
2.746,2.800,-7.700,-1.500,-2.300
2.747,2.900,-7.700,-1.600,-2.000
2.748,2.600,-7.600,-1.600,-1.900
2.749,2.400,-7.600,-1.500,-1.900
2.750,2.400,-7.500,-1.500,-1.800
2.751,2.700,-7.500,-1.400,-1.700
2.752,2.900,-7.500,-1.500,-1.600
2.753,2.900,-7.700,-1.600,-1.700
2.754,2.300,-7.900,-1.600,-1.900
2.755,1.300,-8.200,-1.500,-2.200
2.756,0.400,-8.500,-1.200,-2.300
2.757,-0.200,-8.700,-1.000,-2.500
2.758,-0.400,-8.900,-0.900,-2.600
2.759,-0.400,-9.100,-1.000,-2.700
2.760,-0.400,-9.300,-1.200,-2.600
2.761,-0.500,-9.600,-1.300,-2.600
2.762,-0.700,-9.700,-1.400,-2.500
2.763,-0.700,-9.800,-1.500,-2.500
2.764,-0.600,-10.000,-1.600,-2.700
2.765,-0.300,-10.200,-1.900,-2.900
2.766,-0.100,-10.500,-2.100,-3.300
2.767,0.100,-10.700,-2.300,-3.700
2.768,0.400,-10.800,-2.300,-4.100
2.769,0.800,-10.700,-2.300,-4.400
2.770,1.200,-10.700,-2.300,-4.600
2.771,1.600,-10.800,-2.400,-4.700
2.772,1.900,-11.000,-2.500,-5.000
2.773,2.200,-11.300,-2.600,-5.400
2.774,2.300,-11.600,-2.800,-5.800
2.775,2.500,-11.800,-2.900,-6.200
2.776,2.600,-12.200,-3.000,-6.600
2.777,2.800,-12.700,-3.000,-6.700
2.778,3.000,-13.200,-3.100,-6.700
2.779,3.100,-13.800,-3.200,-6.600
2.780,3.400,-14.200,-3.400,-6.400
2.781,3.700,-14.500,-3.600,-6.300
2.782,4.100,-14.700,-3.800,-6.300
2.783,4.500,-15.000,-3.900,-6.200
2.784,4.800,-15.400,-4.100,-6.100
2.785,5.000,-15.500,-4.300,-5.800
2.786,5.300,-15.500,-4.500,-5.600
2.787,5.600,-15.100,-4.600,-5.400
2.788,5.900,-14.600,-4.600,-5.400
2.789,6.000,-14.200,-4.600,-5.500
2.790,5.900,-14.100,-4.500,-6.000
2.791,5.600,-14.300,-4.500,-6.400
2.792,5.200,-14.600,-4.600,-6.600
2.793,4.800,-14.800,-4.700,-6.700
2.794,4.500,-14.900,-4.700,-6.600
2.795,4.400,-15.000,-4.800,-6.700
2.796,4.200,-15.300,-4.800,-7.000
2.797,3.900,-15.900,-4.700,-7.600
2.798,3.700,-16.600,-4.700,-8.200
2.799,3.400,-17.400,-4.800,-8.800
2.800,3.400,-18.000,-4.900,-9.200
2.801,3.400,-18.400,-5.000,-9.400
2.802,3.600,-18.700,-5.100,-9.700
2.803,3.800,-18.700,-5.200,-10.000
2.804,3.900,-18.600,-5.300,-10.200
2.805,4.100,-18.400,-5.400,-10.400
2.806,4.400,-18.200,-5.500,-10.500
2.807,4.900,-18.100,-5.700,-10.300
2.808,5.300,-17.900,-5.900,-10.100
2.809,5.800,-17.700,-6.100,-10.000
2.810,6.100,-17.400,-6.300,-9.900
2.811,6.400,-17.100,-6.500,-9.800
2.812,6.600,-16.800,-6.500,-9.800
2.813,6.900,-16.500,-6.600,-9.700
2.814,7.200,-16.400,-6.700,-9.600
2.815,7.400,-16.200,-6.700,-9.500
2.816,7.500,-16.100,-6.800,-9.400
2.817,7.500,-16.000,-6.800,-9.300
2.818,7.300,-15.800,-6.700,-9.200
2.819,7.000,-15.500,-6.600,-9.100
2.820,6.500,-15.300,-6.500,-9.000
2.821,6.100,-15.100,-6.500,-8.800
2.822,5.500,-15.000,-6.400,-8.800
2.823,4.900,-15.200,-6.400,-8.800
2.824,4.300,-15.600,-6.300,-9.000
2.825,3.700,-15.900,-6.200,-9.100
2.826,3.200,-16.200,-6.100,-9.100
2.827,2.800,-16.400,-6.000,-9.200
2.828,2.400,-16.400,-6.000,-9.200
2.829,2.300,-16.500,-6.100,-9.400
2.830,2.300,-16.600,-6.200,-9.700
2.831,2.300,-16.600,-6.400,-9.900
2.832,2.500,-16.500,-6.600,-10.000
2.833,2.800,-16.300,-6.800,-9.900
2.834,3.200,-15.900,-7.100,-9.800
2.835,3.600,-15.600,-7.300,-9.800
2.836,4.000,-15.300,-7.400,-9.700
2.837,4.400,-15.100,-7.500,-9.700
2.838,4.800,-15.100,-7.500,-9.500
2.839,5.200,-15.400,-7.500,-9.300
2.840,5.600,-15.700,-7.400,-9.200
2.841,5.900,-16.200,-7.300,-9.200
2.842,6.000,-16.600,-7.200,-9.200
2.843,6.000,-17.000,-7.000,-9.100
2.844,5.900,-17.300,-6.900,-8.900
2.845,5.900,-17.700,-6.800,-8.500
2.846,5.700,-18.100,-6.700,-8.200
2.847,5.100,-18.500,-6.600,-8.000
2.848,4.200,-18.800,-6.500,-8.000
2.849,3.300,-19.200,-6.500,-8.100
2.850,2.900,-19.500,-6.400,-8.300
2.851,3.000,-19.800,-6.400,-8.400
2.852,3.300,-20.100,-6.300,-8.500
2.853,3.400,-20.100,-6.200,-8.500
2.854,2.900,-19.900,-6.100,-8.400
2.855,2.000,-19.500,-6.200,-8.200
2.856,1.400,-19.200,-6.200,-8.100
2.857,1.400,-19.000,-6.300,-8.000
2.858,2.100,-18.800,-6.300,-8.000
2.859,3.000,-18.600,-6.200,-8.000
2.860,3.900,-18.300,-6.100,-8.000
2.861,4.700,-18.100,-5.900,-8.000
2.862,5.400,-18.200,-5.700,-8.000
2.863,6.200,-18.600,-5.500,-8.100
2.864,7.000,-19.200,-5.400,-8.100
2.865,7.400,-19.800,-5.100,-7.900
2.866,7.500,-20.300,-4.900,-7.600
2.867,7.300,-20.400,-4.600,-7.300
2.868,7.000,-20.600,-4.200,-7.200
2.869,6.700,-20.800,-3.900,-7.300
2.870,6.200,-21.200,-3.600,-7.500
2.871,5.300,-21.700,-3.200,-7.600
2.872,4.100,-22.200,-2.700,-7.700
2.873,2.800,-22.600,-2.300,-7.800
2.874,1.600,-22.900,-1.900,-8.000
2.875,0.500,-23.100,-1.600,-8.300
2.876,-0.600,-23.300,-1.300,-8.500
2.877,-1.700,-23.400,-1.000,-8.300
2.878,-2.800,-23.400,-0.700,-7.900
2.879,-3.800,-23.400,-0.500,-7.400
2.880,-4.600,-23.400,-0.200,-7.000
2.881,-5.300,-23.200,0.100,-6.800
2.882,-5.900,-23.100,0.300,-6.500
2.883,-6.600,-22.900,0.600,-6.300
2.884,-7.300,-22.700,0.900,-6.100
2.885,-8.000,-22.400,1.100,-6.000
2.886,-8.600,-21.900,1.200,-5.900
2.887,-9.200,-21.300,1.400,-5.800
2.888,-9.700,-20.700,1.600,-5.800
2.889,-10.200,-20.100,1.700,-5.800
2.890,-10.800,-19.700,1.900,-5.900
2.891,-11.500,-19.400,1.900,-6.000
2.892,-12.200,-19.200,1.900,-6.000
2.893,-12.800,-19.000,1.800,-5.800
2.894,-13.300,-18.700,1.800,-5.600
2.895,-13.800,-18.200,1.700,-5.500
2.896,-14.200,-17.800,1.600,-5.500
2.897,-14.700,-17.300,1.500,-5.800
2.898,-14.900,-16.800,1.400,-6.200
2.899,-15.000,-16.400,1.300,-6.400
2.900,-14.700,-16.000,1.300,-6.600
2.901,-14.100,-15.600,1.300,-6.400
2.902,-13.400,-15.100,1.300,-6.100
2.903,-12.500,-14.500,1.300,-5.800
2.904,-11.600,-13.800,1.300,-5.500
2.905,-10.600,-13.100,1.200,-5.300
2.906,-9.500,-12.400,1.100,-5.200
2.907,-8.400,-11.700,1.100,-4.900
2.908,-7.400,-11.200,1.200,-4.700
2.909,-6.700,-10.900,1.200,-4.300
2.910,-6.400,-10.700,1.200,-3.900
2.911,-6.400,-10.600,1.000,-3.400
2.912,-6.600,-10.600,0.700,-3.000
2.913,-6.800,-10.700,0.200,-2.500
2.914,-7.100,-10.700,-0.200,-2.000
2.915,-7.500,-10.700,-0.800,-1.700
2.916,-8.000,-10.700,-1.300,-1.400
2.917,-8.400,-10.600,-1.900,-1.100
2.918,-8.500,-10.400,-2.600,-0.800
2.919,-8.400,-10.000,-3.300,-0.600
2.920,-8.100,-9.500,-3.800,-0.600
2.921,-7.700,-8.900,-4.000,-0.700
2.922,-7.100,-8.200,-4.000,-0.800
2.923,-6.400,-7.600,-3.800,-1.000
2.924,-5.500,-7.000,-3.500,-1.000
2.925,-4.500,-6.300,-2.900,-1.000
2.926,-3.300,-5.500,-2.000,-1.100
2.927,-2.200,-4.700,-0.800,-1.200
2.928,-1.300,-3.800,0.700,-1.300
2.929,-0.700,-3.100,2.100,-1.200
2.930,0.000,-2.400,3.400,-1.000
2.931,0.600,-1.700,4.400,-0.700
2.932,1.100,-1.100,5.200,-0.600
2.933,1.400,-0.700,6.000,-0.600
2.934,1.100,-0.500,6.600,-0.500
2.935,0.400,-0.500,6.900,-0.400
2.936,-0.700,-0.800,6.900,-0.100
2.937,-2.000,-1.000,6.600,0.000
2.938,-3.200,-1.100,6.100,0.000
2.939,-4.400,-1.100,5.500,-0.100
2.940,-5.500,-1.200,4.800,-0.300
2.941,-6.400,-1.400,4.100,-0.400
2.942,-7.100,-1.600,3.400,-0.500
2.943,-7.400,-1.900,2.700,-0.600
2.944,-7.400,-2.100,2.200,-0.700
2.945,-7.100,-2.300,1.800,-0.800
2.946,-6.600,-2.400,1.400,-0.900
2.947,-5.600,-2.400,1.000,-0.900
2.948,-4.400,-2.300,0.700,-0.800
2.949,-3.200,-2.100,0.400,-0.700
2.950,-2.400,-2.000,0.200,-0.500
2.951,-2.300,-1.900,0.000,-0.400
2.952,-2.700,-1.900,-0.100,-0.300
2.953,-2.900,-1.800,-0.100,-0.100
2.954,-2.700,-1.600,-0.100,0.000
2.955,-2.200,-1.400,0.100,0.200
2.956,-1.700,-1.100,0.500,0.400
2.957,-1.800,-1.000,0.800,0.400
2.958,-2.300,-1.100,1.000,0.400
2.959,-3.000,-1.400,1.200,0.400
2.960,-3.500,-1.600,1.300,0.400
2.961,-3.800,-1.700,1.400,0.600
2.962,-3.800,-1.800,1.500,0.800
2.963,-3.700,-1.800,1.600,1.000
2.964,-3.600,-1.700,1.800,1.200
2.965,-3.500,-1.600,1.800,1.200
2.966,-3.200,-1.500,1.800,0.900
2.967,-2.900,-1.400,1.800,0.600
2.968,-2.600,-1.300,1.900,0.300
2.969,-2.200,-1.400,1.900,-0.100
2.970,-1.700,-1.600,1.900,-0.600
2.971,-1.100,-1.800,1.900,-0.900
2.972,-0.600,-2.100,1.900,-1.100
2.973,-0.100,-2.400,1.800,-1.100
2.974,0.300,-2.500,1.700,-0.800
2.975,0.500,-2.500,1.600,-0.500
2.976,0.700,-2.500,1.400,-0.300
2.977,0.900,-2.500,1.300,-0.300
2.978,1.100,-2.500,1.300,-0.300
2.979,1.100,-2.500,1.200,-0.200
2.980,0.900,-2.500,1.300,0.100
2.981,0.500,-2.400,1.400,0.600
2.982,0.000,-2.300,1.400,1.100
2.983,-0.600,-2.200,1.500,1.400
2.984,-1.200,-2.100,1.400,1.600
2.985,-1.800,-2.100,1.400,1.600
2.986,-2.500,-2.000,1.300,1.700
2.987,-3.300,-1.800,1.100,1.600
2.988,-4.100,-1.600,0.900,1.500
2.989,-4.700,-1.400,0.600,1.200
2.990,-5.000,-1.300,0.300,0.800
2.991,-5.100,-1.400,0.100,0.400
2.992,-5.000,-1.600,-0.100,0.200
2.993,-4.800,-1.800,-0.200,0.200
2.994,-4.700,-2.000,-0.300,0.400
2.995,-4.500,-2.200,-0.200,0.600
2.996,-4.200,-2.500,-0.200,0.600
2.997,-3.700,-2.700,0.000,0.400
2.998,-3.200,-2.900,0.200,0.000
2.999,-2.600,-2.900,0.500,-0.500
3.000,-2.000,-2.800,0.700,-0.800
3.001,-1.300,-2.600,0.800,-0.800
3.002,-0.600,-2.500,0.900,-0.500
3.003,0.100,-2.400,0.900,-0.100
3.004,0.800,-2.400,0.900,0.000
3.005,1.300,-2.400,0.800,0.000
3.006,1.800,-2.400,0.600,-0.200
3.007,2.100,-2.400,0.500,-0.400
3.008,2.100,-2.400,0.300,-0.500
3.009,1.700,-2.400,0.100,-0.400
3.010,0.900,-2.600,0.000,-0.100
3.011,-0.100,-2.800,-0.100,0.000
3.012,-1.000,-3.200,-0.200,0.100
3.013,-1.700,-3.600,-0.200,0.100
3.014,-2.400,-4.000,-0.100,0.100
3.015,-3.000,-4.300,0.000,0.200
3.016,-3.300,-4.400,0.300,0.500
3.017,-3.100,-4.400,0.700,0.800
3.018,-2.400,-4.200,1.100,1.100
3.019,-1.500,-4.000,1.600,1.200
3.020,-0.500,-3.900,2.100,1.300
3.021,0.300,-3.800,2.500,1.400
3.022,1.100,-3.800,2.900,1.400
3.023,2.100,-3.700,3.200,1.300
3.024,3.000,-3.700,3.400,1.300
3.025,3.600,-3.700,3.600,1.400
3.026,3.200,-3.800,3.800,1.600
3.027,2.000,-4.100,4.100,1.900
3.028,0.200,-4.400,4.400,1.900
3.029,-1.600,-4.800,4.800,1.600
3.030,-3.300,-5.100,5.100,1.000
3.031,-5.000,-5.400,5.300,0.300
3.032,-6.700,-5.700,5.600,-0.200
3.033,-8.400,-6.100,5.900,-0.400
3.034,-9.800,-6.700,6.200,-0.500
3.035,-10.700,-7.500,6.400,-0.700
3.036,-11.000,-8.200,6.500,-0.900
3.037,-10.900,-8.900,6.500,-1.200
3.038,-10.600,-9.300,6.500,-1.500
3.039,-10.100,-9.700,6.500,-1.600
3.040,-9.500,-9.900,6.600,-1.600
3.041,-8.900,-10.100,6.600,-1.500
3.042,-8.400,-10.200,6.600,-1.500
3.043,-7.900,-10.300,6.700,-1.600
3.044,-7.600,-10.500,6.700,-1.600
3.045,-7.400,-10.900,6.900,-1.600
3.046,-7.500,-11.200,7.000,-1.600
3.047,-7.800,-11.400,6.900,-1.600
3.048,-8.600,-11.400,6.600,-1.600
3.049,-9.400,-11.200,6.200,-1.700
3.050,-10.000,-11.300,5.800,-1.900
3.051,-10.300,-11.500,5.600,-2.000
3.052,-10.600,-11.900,5.800,-2.100
3.053,-11.300,-12.100,6.100,-2.000
3.054,-12.700,-11.900,6.400,-2.000
3.055,-14.600,-11.600,6.400,-2.000
3.056,-16.400,-11.300,6.200,-1.900
3.057,-17.700,-11.400,6.100,-1.900
3.058,-18.700,-11.700,6.400,-2.000
3.059,-19.400,-11.900,7.000,-2.100
3.060,-20.400,-12.000,7.700,-2.400
3.061,-21.500,-11.700,8.400,-2.800
3.062,-22.500,-11.400,8.900,-3.100
3.063,-23.100,-11.100,9.200,-3.400
3.064,-23.500,-11.100,9.400,-3.700
3.065,-23.800,-11.100,9.600,-4.100
3.066,-24.100,-11.100,9.700,-4.500
3.067,-24.400,-10.900,9.800,-4.800
3.068,-24.600,-10.700,9.800,-4.900
3.069,-24.600,-10.600,9.800,-4.900
3.070,-24.300,-10.700,9.800,-4.900
3.071,-24.100,-11.000,9.900,-5.000
3.072,-23.900,-11.500,10.200,-5.100
3.073,-23.900,-11.900,10.600,-5.000
3.074,-24.100,-12.300,11.000,-4.800
3.075,-24.400,-12.600,11.300,-4.600
3.076,-24.800,-13.100,11.500,-4.400
3.077,-25.300,-13.600,11.700,-4.500
3.078,-26.000,-14.200,11.800,-4.800
3.079,-26.900,-14.900,11.800,-5.000
3.080,-28.000,-15.600,11.600,-5.200
3.081,-29.000,-16.300,11.200,-5.300
3.082,-30.100,-17.000,10.800,-5.600
3.083,-30.900,-17.600,10.300,-6.100
3.084,-31.600,-18.100,9.800,-6.500
3.085,-32.000,-18.400,9.400,-6.900
3.086,-32.300,-18.800,9.000,-7.000
3.087,-32.400,-19.200,8.600,-7.100
3.088,-32.300,-19.700,8.300,-7.300
3.089,-31.900,-20.300,8.000,-7.500
3.090,-31.500,-20.700,7.900,-7.600
3.091,-30.800,-20.900,7.900,-7.400
3.092,-30.100,-20.700,8.000,-7.000
3.093,-29.300,-20.400,8.000,-6.500
3.094,-28.200,-20.000,7.900,-6.100
3.095,-27.000,-19.800,7.800,-6.100
3.096,-25.500,-19.500,7.800,-6.400
3.097,-23.800,-19.000,7.700,-7.100
3.098,-22.000,-18.200,7.600,-8.000
3.099,-19.800,-17.000,7.300,-8.900
3.100,-17.300,-15.500,6.900,-10.000
3.101,-14.400,-13.900,6.400,-11.100
3.102,-11.600,-12.300,5.900,-12.200
3.103,-9.000,-10.800,5.500,-13.300
3.104,-6.700,-9.200,4.900,-14.000
3.105,-4.500,-7.600,4.200,-14.100
3.106,-2.300,-6.300,3.300,-13.600
3.107,-0.100,-5.200,2.300,-12.400
3.108,1.200,-4.300,1.400,-10.900
3.109,1.400,-3.800,0.800,-9.200
3.110,0.400,-3.300,0.600,-7.500
3.111,-1.300,-3.000,0.600,-5.800
3.112,-3.100,-2.900,0.700,-4.400
3.113,-4.800,-2.800,0.800,-3.300
3.114,-6.400,-2.800,0.700,-2.300
3.115,-7.900,-2.900,0.700,-1.400
3.116,-9.200,-2.900,0.600,-0.600
3.117,-9.900,-2.900,0.500,0.000
3.118,-9.800,-2.900,0.400,0.300
3.119,-9.000,-2.800,0.200,0.300
3.120,-7.900,-2.800,0.000,0.400
3.121,-6.800,-2.700,-0.200,0.400
3.122,-5.600,-2.500,-0.300,0.700
3.123,-4.400,-2.400,-0.300,1.000
3.124,-2.900,-2.200,-0.200,1.200
3.125,-1.200,-2.200,-0.200,1.200
3.126,0.500,-2.200,-0.100,1.200
3.127,1.900,-2.300,-0.100,1.000
3.128,2.900,-2.300,-0.100,0.800
3.129,3.800,-2.200,-0.200,0.700
3.130,4.500,-2.200,-0.300,0.500
3.131,5.000,-2.200,-0.300,0.200
3.132,5.300,-2.300,-0.300,-0.200
3.133,5.500,-2.500,-0.300,-0.600
3.134,5.400,-2.400,-0.300,-1.000
3.135,5.200,-2.100,-0.400,-1.200
3.136,5.100,-1.600,-0.700,-1.200
3.137,5.100,-1.200,-1.000,-0.900
3.138,5.200,-1.000,-1.200,-0.600
3.139,5.500,-1.100,-1.400,-0.300
3.140,5.900,-1.300,-1.500,-0.100
3.141,6.300,-1.300,-1.600,0.000
3.142,6.600,-1.200,-1.600,0.000
3.143,6.700,-1.000,-1.700,0.000
3.144,6.900,-0.900,-1.700,0.100
3.145,7.000,-1.000,-1.800,0.300
3.146,7.100,-1.100,-1.800,0.700
3.147,7.100,-1.000,-1.700,1.000
3.148,7.000,-0.600,-1.600,1.300
3.149,6.900,-0.200,-1.500,1.400
3.150,6.800,0.200,-1.200,1.400
3.151,6.900,0.200,-1.100,1.400
3.152,7.000,0.100,-1.000,1.400
3.153,7.100,0.100,-1.000,1.500
3.154,7.100,0.600,-1.100,1.500
3.155,6.800,1.300,-1.100,1.400
3.156,6.600,2.000,-1.000,1.300
3.157,6.600,2.400,-1.000,1.100
3.158,6.800,2.200,-1.100,1.100
3.159,7.100,1.600,-1.200,1.300
3.160,7.500,1.000,-1.300,1.500
3.161,7.800,0.500,-1.300,1.700
3.162,7.900,0.300,-1.300,1.800
3.163,7.800,0.300,-1.400,1.800
3.164,7.500,0.300,-1.500,1.700
3.165,7.000,0.500,-1.600,1.600
3.166,6.200,0.700,-1.700,1.500
3.167,5.500,1.100,-1.800,1.400
3.168,4.700,1.700,-1.800,1.300
3.169,3.800,2.400,-1.800,1.300
3.170,2.900,3.200,-1.800,1.500
3.171,2.000,3.900,-1.800,1.800
3.172,1.300,4.600,-1.600,2.200
3.173,0.900,5.200,-1.300,2.500
3.174,0.800,5.500,-0.900,2.600
3.175,1.100,5.700,-0.500,2.700
3.176,1.700,5.800,0.000,3.000
3.177,2.600,5.700,0.600,3.600
3.178,3.700,5.700,1.300,4.400
3.179,5.200,5.600,2.100,5.300
3.180,7.000,5.600,2.900,6.200
3.181,8.900,5.500,3.700,7.100
3.182,10.800,5.300,4.400,8.100
3.183,12.400,5.100,5.100,9.100
3.184,13.800,4.800,5.700,9.900
3.185,15.000,4.600,6.300,10.600
3.186,16.100,4.400,6.900,11.200
3.187,17.100,4.200,7.400,11.700
3.188,17.900,4.100,7.900,12.400
3.189,18.200,4.000,8.500,13.200
3.190,18.000,4.200,9.200,14.000
3.191,17.400,4.500,9.900,14.600
3.192,16.600,4.900,10.600,14.900
3.193,15.700,5.200,11.200,15.100
3.194,14.800,5.500,11.600,14.900
3.195,13.700,5.600,11.700,14.600
3.196,12.600,5.800,11.700,14.000
3.197,11.300,6.100,11.400,13.100
3.198,10.100,6.300,10.900,12.100
3.199,9.000,6.400,10.200,10.800
3.200,8.000,6.300,9.200,9.400
3.201,7.100,6.000,7.900,8.000
3.202,6.300,5.600,6.500,6.300
3.203,5.700,5.100,5.100,4.600
3.204,5.300,4.300,3.500,2.800
3.205,5.200,3.200,1.900,1.000
3.206,5.200,1.600,0.000,-0.700
3.207,5.500,-0.700,-2.100,-2.500
3.208,6.100,-3.600,-4.400,-4.500
3.209,7.200,-7.000,-6.900,-6.900
3.210,8.900,-11.100,-9.700,-9.800
3.211,11.200,-15.900,-12.700,-13.100
3.212,14.100,-21.700,-15.900,-16.500
3.213,17.200,-28.400,-19.500,-20.000
3.214,20.800,-35.900,-23.300,-24.000
3.215,24.500,-44.400,-27.400,-28.600
3.216,28.500,-53.500,-31.900,-33.900
3.217,32.500,-63.600,-36.600,-40.000
3.218,36.000,-74.600,-41.500,-46.500
3.219,38.700,-86.500,-46.300,-53.300
3.220,40.200,-99.100,-50.900,-60.200
3.221,39.900,-112.000,-54.700,-67.200
3.222,37.500,-124.900,-57.500,-74.300
3.223,32.700,-137.500,-59.100,-81.100
3.224,25.600,-149.400,-59.400,-87.300
3.225,17.000,-160.100,-58.800,-92.600
3.226,8.300,-168.800,-57.600,-96.600
3.227,1.200,-174.800,-56.300,-99.200
3.228,-3.300,-177.400,-55.300,-100.500
3.229,-5.400,-176.300,-54.300,-100.300
3.230,-6.200,-171.700,-53.100,-98.400
3.231,-7.000,-163.900,-50.800,-94.700
3.232,-9.100,-153.500,-47.200,-89.200
3.233,-12.600,-140.800,-42.000,-82.000
3.234,-17.200,-125.900,-35.500,-73.600
3.235,-22.400,-109.300,-28.400,-64.200
3.236,-27.700,-91.400,-20.900,-54.400
3.237,-33.200,-73.000,-13.200,-44.400
3.238,-39.000,-54.700,-5.400,-34.400
3.239,-45.200,-37.300,2.300,-24.800
3.240,-51.600,-21.300,9.900,-15.600
3.241,-58.200,-7.100,17.000,-7.300
3.242,-64.600,5.000,23.600,0.000
3.243,-70.300,15.000,29.300,6.200
3.244,-74.800,22.900,34.000,11.200
3.245,-77.000,29.000,37.200,15.200
3.246,-76.300,33.500,38.600,18.000
3.247,-71.900,36.600,38.000,19.900
3.248,-63.900,38.400,35.800,21.000
3.249,-52.900,39.200,32.200,21.300
3.250,-40.200,39.500,27.400,21.200
3.251,-26.800,39.500,21.500,20.800
3.252,-13.500,39.200,14.800,20.200
3.253,-0.700,38.400,8.200,19.500
3.254,11.200,37.000,2.400,18.600
3.255,21.500,34.900,-1.800,17.700
3.256,29.400,32.700,-4.700,16.600
3.257,34.500,30.400,-6.700,15.600
3.258,37.100,28.400,-8.400,14.500
3.259,37.800,26.700,-9.900,13.400
3.260,37.200,25.000,-11.100,12.200
3.261,35.800,23.200,-11.800,11.200
3.262,33.600,21.400,-11.900,10.300
3.263,30.900,19.400,-11.900,9.400
3.264,28.000,17.500,-11.900,8.500
3.265,25.300,15.700,-12.100,7.400
3.266,23.000,14.000,-12.200,6.100
3.267,21.100,12.500,-12.200,4.800
3.268,19.400,11.000,-12.100,3.800
3.269,18.100,9.500,-11.900,3.100
3.270,17.400,7.900,-11.700,2.800
3.271,17.400,6.300,-11.500,2.600
3.272,17.800,4.700,-10.900,2.300
3.273,18.400,3.200,-10.100,2.000
3.274,18.700,2.000,-8.900,1.500
3.275,18.700,1.000,-7.500,1.000
3.276,18.600,0.100,-6.200,0.700
3.277,18.400,-0.500,-4.800,0.600
3.278,18.200,-1.000,-3.500,0.600
3.279,17.900,-1.200,-2.200,0.800
3.280,17.200,-1.200,-0.900,1.000
3.281,16.000,-1.200,0.100,1.300
3.282,14.300,-1.300,0.800,1.500
3.283,12.400,-1.500,1.000,1.700
3.284,10.500,-1.700,0.900,1.900
3.285,8.600,-1.800,0.700,2.000
3.286,6.800,-1.700,0.500,2.100
3.287,5.100,-1.500,0.100,2.200
3.288,3.400,-1.200,-0.400,2.300
3.289,1.700,-0.800,-1.000,2.300
3.290,0.400,-0.500,-1.600,2.200
3.291,-0.700,-0.300,-1.800,2.100
3.292,-1.400,-0.200,-1.700,1.900
3.293,-1.700,-0.300,-1.500,1.700
3.294,-1.900,-0.400,-1.200,1.600
3.295,-1.900,-0.400,-1.100,1.400
3.296,-1.700,-0.500,-0.900,1.100
3.297,-1.000,-0.700,-0.700,0.600
3.298,0.000,-1.000,-0.400,0.100
3.299,1.500,-1.500,-0.100,-0.300
3.300,3.100,-2.100,0.100,-0.700
3.301,4.700,-2.600,0.200,-1.100
3.302,6.100,-3.100,0.100,-1.600
3.303,7.300,-3.500,-0.100,-2.000
3.304,8.400,-3.900,-0.300,-2.300
3.305,9.300,-4.400,-0.600,-2.400
3.306,10.100,-4.800,-0.800,-2.400
3.307,10.500,-5.100,-1.100,-2.500
3.308,10.400,-5.400,-1.300,-2.600
3.309,9.900,-5.600,-1.500,-2.700
3.310,9.000,-5.900,-1.700,-2.700
3.311,8.000,-6.100,-1.900,-2.600
3.312,6.900,-6.300,-2.000,-2.500
3.313,5.900,-6.400,-2.100,-2.400
3.314,4.800,-6.500,-2.300,-2.300
3.315,3.700,-6.600,-2.300,-2.200
3.316,2.600,-6.700,-2.400,-2.000
3.317,1.500,-6.800,-2.400,-1.800
3.318,0.500,-6.700,-2.400,-1.500
3.319,-0.200,-6.500,-2.300,-1.200
3.320,-0.800,-6.200,-2.200,-1.000
3.321,-1.400,-5.900,-2.000,-0.900
3.322,-1.900,-5.800,-1.800,-0.900
3.323,-2.300,-5.900,-1.400,-1.000
3.324,-2.700,-6.200,-1.000,-1.200
3.325,-3.000,-6.500,-0.500,-1.400
3.326,-3.100,-6.700,-0.100,-1.500
3.327,-3.000,-6.800,0.200,-1.500
3.328,-2.800,-6.800,0.400,-1.500
3.329,-2.500,-6.800,0.500,-1.600
3.330,-2.000,-6.900,0.600,-2.000
3.331,-1.500,-7.000,0.700,-2.300
3.332,-0.900,-7.100,0.600,-2.600
3.333,-0.400,-7.100,0.500,-2.800
3.334,0.100,-7.000,0.400,-2.900
3.335,0.600,-7.000,0.300,-3.100
3.336,1.000,-6.900,0.200,-3.400
3.337,1.400,-6.900,0.200,-3.500
3.338,1.900,-7.000,0.100,-3.500
3.339,2.500,-7.400,-0.100,-3.400
3.340,3.100,-7.800,-0.300,-3.300
3.341,3.700,-8.300,-0.500,-3.400
3.342,4.300,-8.700,-0.700,-3.500
3.343,4.800,-9.000,-0.900,-3.600
3.344,5.300,-9.300,-1.000,-3.700
3.345,6.000,-9.600,-1.100,-3.800
3.346,6.700,-9.900,-1.100,-3.900
3.347,7.500,-10.200,-1.200,-4.100
3.348,8.200,-10.400,-1.300,-4.200
3.349,8.700,-10.600,-1.600,-4.100
3.350,9.100,-10.800,-1.800,-3.900
3.351,9.400,-11.100,-1.900,-3.700
3.352,9.500,-11.500,-1.900,-3.600
3.353,9.500,-11.600,-1.800,-3.600
3.354,9.300,-11.400,-2.000,-3.700
3.355,8.900,-11.000,-2.400,-3.700
3.356,8.300,-10.600,-3.100,-3.700
3.357,7.400,-10.400,-3.700,-3.600
3.358,6.500,-10.500,-4.100,-3.700
3.359,5.500,-10.800,-4.200,-3.900
3.360,4.500,-11.000,-4.200,-4.200
3.361,3.300,-11.200,-4.200,-4.500
3.362,2.000,-11.400,-4.200,-4.700
3.363,0.800,-11.500,-4.300,-4.800
3.364,0.000,-11.800,-4.300,-4.700
3.365,-0.500,-12.100,-4.300,-4.700
3.366,-0.500,-12.300,-4.200,-4.700
3.367,-0.200,-12.500,-4.200,-4.900
3.368,0.300,-12.400,-4.100,-5.100
3.369,1.100,-12.400,-4.000,-5.400
3.370,2.400,-12.500,-3.900,-5.600
3.371,4.000,-12.700,-3.800,-5.900
3.372,5.700,-13.000,-3.700,-6.100
3.373,7.000,-13.200,-3.700,-6.400
3.374,7.800,-13.300,-3.700,-6.700
3.375,8.300,-13.200,-3.800,-7.100
3.376,8.700,-12.800,-3.800,-7.500
3.377,8.900,-12.500,-3.800,-7.700
3.378,8.900,-12.300,-3.900,-7.800
3.379,8.600,-12.300,-4.000,-7.700
3.380,8.000,-12.400,-4.500,-7.500
3.381,7.300,-12.600,-4.900,-7.300
3.382,6.700,-12.700,-5.500,-7.200
3.383,6.200,-12.800,-5.900,-7.200
3.384,5.700,-12.800,-6.200,-7.100
3.385,5.400,-12.700,-6.500,-7.000
3.386,5.100,-12.700,-6.800,-6.800
3.387,5.200,-12.700,-6.900,-6.600
3.388,5.500,-12.800,-7.000,-6.500
3.389,5.700,-12.800,-6.900,-6.600
3.390,5.600,-12.800,-6.700,-6.900
3.391,5.300,-12.800,-6.600,-7.100
3.392,4.800,-12.900,-6.600,-7.100
3.393,4.400,-13.000,-6.700,-6.900
3.394,3.900,-13.000,-6.700,-6.600
3.395,3.500,-12.900,-6.700,-6.400
3.396,3.000,-12.800,-6.800,-6.500
3.397,2.600,-12.900,-7.000,-6.900
3.398,2.400,-13.100,-7.300,-7.300
3.399,2.500,-13.600,-7.600,-7.700
3.400,2.800,-14.200,-7.800,-8.000
3.401,3.100,-14.700,-8.000,-8.300
3.402,3.300,-15.000,-8.100,-8.600
3.403,3.300,-15.300,-8.300,-8.900
3.404,3.400,-15.500,-8.300,-9.200
3.405,3.400,-15.800,-8.400,-9.400
3.406,3.300,-16.000,-8.300,-9.500
3.407,3.000,-16.100,-8.100,-9.700
3.408,2.600,-16.200,-7.800,-9.800
3.409,2.400,-16.300,-7.400,-9.800
3.410,2.400,-16.400,-6.800,-9.500
3.411,2.800,-16.500,-6.100,-9.300
3.412,3.300,-16.600,-5.400,-9.100
3.413,4.100,-16.700,-4.800,-9.100
3.414,5.100,-16.700,-4.200,-9.200
3.415,6.300,-16.800,-3.800,-9.100
3.416,7.800,-16.800,-3.400,-8.900
3.417,9.300,-16.600,-3.300,-8.400
3.418,10.600,-16.100,-3.400,-7.900
3.419,11.700,-15.400,-3.800,-7.600
3.420,12.500,-14.800,-4.300,-7.400
3.421,13.100,-14.500,-4.800,-7.500
3.422,13.500,-14.500,-5.200,-7.800
3.423,13.800,-14.800,-5.500,-8.200
3.424,13.700,-15.300,-5.900,-8.700
3.425,13.200,-15.700,-6.300,-9.100
3.426,12.000,-16.200,-6.500,-9.400
3.427,10.400,-16.700,-6.600,-9.700
3.428,8.500,-17.300,-6.400,-9.800
3.429,6.600,-17.800,-6.100,-9.700
3.430,4.700,-18.300,-5.700,-9.600
3.431,2.900,-18.800,-5.300,-9.400
3.432,1.000,-19.200,-4.900,-9.200
3.433,-0.900,-19.500,-4.500,-9.100
3.434,-2.900,-19.800,-4.000,-9.200
3.435,-4.800,-20.000,-3.600,-9.400
3.436,-6.400,-20.100,-3.300,-9.600
3.437,-7.700,-20.100,-3.000,-9.500
3.438,-8.600,-20.000,-2.700,-9.300
3.439,-9.500,-20.000,-2.300,-8.900
3.440,-10.200,-20.100,-1.900,-8.600
3.441,-10.800,-20.200,-1.500,-8.600
3.442,-11.000,-20.300,-1.200,-8.600
3.443,-11.000,-20.300,-1.000,-8.400
3.444,-10.900,-20.200,-0.900,-7.900
3.445,-10.600,-19.900,-1.000,-7.300
3.446,-9.800,-19.600,-1.000,-6.700
3.447,-8.500,-19.300,-1.100,-6.200
3.448,-6.800,-19.100,-1.000,-6.000
3.449,-5.200,-18.900,-1.000,-5.800
3.450,-4.700,-18.700,-0.900,-5.600
3.451,-5.300,-18.400,-0.800,-5.500
3.452,-6.500,-18.100,-0.800,-5.400
3.453,-7.200,-17.600,-0.700,-5.400
3.454,-6.700,-17.000,-0.400,-5.400
3.455,-5.200,-16.400,0.100,-5.400
3.456,-3.800,-15.700,0.700,-5.300
3.457,-3.300,-15.100,1.300,-5.200
3.458,-3.900,-14.700,1.800,-5.000
3.459,-4.900,-14.500,2.300,-4.700
3.460,-5.500,-14.200,2.700,-4.400
3.461,-5.600,-13.700,3.100,-4.000
3.462,-5.300,-12.800,3.500,-3.600
3.463,-5.000,-11.600,3.800,-3.300
3.464,-4.800,-10.400,3.800,-3.100
3.465,-4.700,-9.300,3.800,-3.000
3.466,-4.400,-8.400,3.600,-3.000
3.467,-3.900,-7.400,3.400,-3.100
3.468,-3.400,-6.500,3.200,-3.200
3.469,-3.100,-5.500,3.000,-3.400
3.470,-3.100,-4.700,2.800,-3.600
3.471,-3.200,-4.100,2.600,-3.700
3.472,-3.600,-3.900,2.400,-3.700
3.473,-4.100,-3.800,2.200,-3.500
3.474,-4.600,-3.900,2.100,-3.000
3.475,-5.200,-4.000,2.000,-2.500
3.476,-5.700,-4.400,1.900,-2.100
3.477,-6.300,-4.800,1.800,-1.800
3.478,-6.700,-5.300,1.800,-1.500
3.479,-7.100,-5.900,1.800,-1.200
3.480,-7.300,-6.400,1.900,-0.800
3.481,-7.600,-6.900,2.000,-0.300
3.482,-7.800,-7.400,2.100,0.000
3.483,-8.100,-7.800,2.100,0.300
3.484,-8.500,-8.000,2.100,0.500
3.485,-8.800,-8.000,2.100,0.700
3.486,-9.100,-7.800,2.200,0.800
3.487,-9.400,-7.400,2.300,0.800
3.488,-9.800,-6.800,2.500,0.700
3.489,-10.300,-5.900,2.600,0.600
3.490,-10.700,-4.700,2.700,0.600
3.491,-11.000,-3.300,2.800,0.800
3.492,-11.000,-2.000,2.800,0.800
3.493,-10.700,-0.900,2.700,0.700
3.494,-10.100,0.000,2.500,0.200
3.495,-9.400,0.800,2.200,-0.300
3.496,-8.500,1.600,1.900,-0.700
3.497,-7.300,2.400,1.600,-0.900
3.498,-5.600,3.100,1.200,-1.100
3.499,-3.600,3.500,0.900,-1.200
3.500,-1.600,3.600,0.600,-1.400
3.501,0.200,3.200,0.300,-1.500
3.502,1.500,2.700,0.100,-1.400
3.503,2.400,2.000,-0.100,-1.100
3.504,3.200,1.200,-0.200,-0.800
3.505,3.700,0.300,-0.300,-0.600
3.506,3.900,-0.600,-0.500,-0.500
3.507,3.900,-1.600,-0.600,-0.500
3.508,3.500,-2.200,-0.800,-0.700
3.509,3.000,-2.500,-1.000,-0.900
3.510,2.800,-2.400,-1.200,-1.300
3.511,3.000,-2.000,-1.400,-1.700
3.512,3.500,-1.500,-1.500,-2.100
3.513,4.300,-1.000,-1.600,-2.600
3.514,5.100,-0.700,-1.700,-3.200
3.515,5.900,-0.400,-1.600,-3.900
3.516,6.800,0.000,-1.200,-4.800
3.517,7.900,0.600,-0.800,-5.800
3.518,9.200,1.200,-0.300,-6.600
3.519,10.600,1.900,-0.100,-7.000
3.520,12.000,2.400,-0.300,-6.800
3.521,12.900,2.800,-0.600,-6.200
3.522,13.200,3.100,-0.800,-5.400
3.523,13.100,3.200,-0.800,-4.400
3.524,12.500,3.100,-0.600,-3.300
3.525,11.400,2.900,-0.400,-2.300
3.526,9.900,2.400,-0.100,-1.400
3.527,7.900,1.900,0.200,-0.400
3.528,5.700,1.500,0.300,0.500
3.529,3.600,1.300,0.500,1.300
3.530,1.800,1.300,0.600,1.900
3.531,0.200,1.400,0.700,2.200
3.532,-1.400,1.600,0.900,2.100
3.533,-3.100,1.800,1.200,1.700
3.534,-5.000,2.200,1.500,1.300
3.535,-6.700,2.700,1.700,0.900
3.536,-8.200,3.200,1.800,0.600
3.537,-9.200,3.800,1.600,0.400
3.538,-9.900,4.100,1.300,0.100
3.539,-10.400,4.400,0.800,-0.200
3.540,-10.700,4.600,0.300,-0.400
3.541,-10.600,4.700,-0.300,-0.600
3.542,-10.100,4.800,-0.800,-0.600
3.543,-9.100,4.900,-1.300,-0.500
3.544,-7.700,4.900,-1.600,-0.300
3.545,-6.000,4.700,-1.800,0.000
3.546,-4.100,4.400,-1.900,0.400
3.547,-1.900,4.000,-1.700,0.700
3.548,0.400,3.700,-1.300,0.900
3.549,2.500,3.300,-0.700,0.900
3.550,3.800,3.100,0.000,0.900
3.551,4.000,3.000,0.300,0.900
3.552,3.700,3.000,0.200,1.000
3.553,3.300,2.900,0.100,1.200
3.554,3.500,2.700,0.100,1.400
3.555,4.200,2.400,0.500,1.400
3.556,4.700,2.100,1.100,1.400
3.557,4.500,1.900,1.600,1.400
3.558,3.600,1.800,1.900,1.400
3.559,2.400,1.800,1.800,1.500
3.560,1.400,1.800,1.700,1.600
3.561,0.800,1.800,1.600,1.700
3.562,0.700,1.600,1.700,1.900
3.563,0.700,1.300,1.700,2.000
3.564,0.700,0.900,1.600,1.800
3.565,0.700,0.500,1.400,1.500
3.566,0.700,0.100,1.200,1.000
3.567,0.800,-0.200,1.100,0.600
3.568,1.000,-0.500,1.100,0.400
3.569,1.000,-0.800,1.000,0.600
3.570,0.800,-1.300,0.900,1.000
3.571,0.400,-2.000,0.900,1.300
3.572,-0.300,-2.600,1.000,1.300
3.573,-1.200,-3.100,1.100,0.800
3.574,-2.200,-3.500,1.200,0.000
3.575,-3.300,-3.800,1.300,-0.500
3.576,-4.400,-4.000,1.400,-0.600
3.577,-5.600,-4.400,1.400,-0.300
3.578,-6.800,-4.800,1.500,0.300
3.579,-7.900,-5.100,1.600,0.700
3.580,-9.000,-5.400,1.700,0.800
3.581,-10.100,-5.600,1.800,0.700
3.582,-11.000,-5.900,1.900,0.500
