'Elapsed time','AECG1','AECG2','AECG3','AECG4'
'seconds','uV','uV','uV','uV'
0.000,-2.100,-8.600,2.100,-3.100
0.001,-3.400,-8.500,2.600,-2.500
0.002,-4.800,-8.200,3.000,-2.000
0.003,-6.000,-8.100,3.300,-1.700
0.004,-6.700,-8.100,3.500,-1.600
0.005,-6.900,-8.300,3.700,-1.500
0.006,-6.900,-8.600,3.900,-1.500
0.007,-6.800,-8.800,4.100,-1.400
0.008,-6.600,-9.000,4.400,-1.400
0.009,-6.200,-9.300,4.600,-1.400
0.010,-5.700,-9.900,4.900,-1.500
0.011,-5.000,-10.900,5.000,-1.700
0.012,-4.400,-12.200,5.100,-2.000
0.013,-4.000,-13.300,5.100,-2.500
0.014,-4.100,-14.200,5.300,-3.200
0.015,-4.600,-14.700,5.400,-4.000
0.016,-5.600,-15.000,5.600,-4.600
0.017,-6.800,-15.100,5.900,-5.100
0.018,-8.200,-14.900,6.100,-5.400
0.019,-9.700,-14.100,6.300,-5.700
0.020,-11.600,-12.500,6.400,-5.900
0.021,-13.900,-10.100,6.500,-6.300
0.022,-16.500,-7.600,6.600,-6.500
0.023,-19.000,-5.300,6.900,-6.600
0.024,-21.200,-3.500,7.100,-6.600
0.025,-23.000,-2.100,7.400,-6.400
0.026,-24.500,-0.800,7.600,-6.400
0.027,-26.100,0.500,7.500,-6.400
0.028,-27.500,1.500,7.200,-6.400
0.029,-28.400,1.900,6.700,-6.300
0.030,-28.200,1.300,6.300,-6.100
0.031,-26.500,-0.200,6.000,-5.900
0.032,-23.700,-2.200,5.900,-5.700
0.033,-20.600,-4.200,5.900,-5.400
0.034,-17.500,-5.800,6.000,-5.000
0.035,-14.600,-6.900,6.100,-4.500
0.036,-11.700,-7.700,6.200,-4.000
0.037,-8.600,-8.400,6.400,-3.700
0.038,-5.700,-9.100,6.700,-3.500
0.039,-3.700,-9.600,7.100,-3.400
0.040,-2.700,-9.900,7.800,-3.100
0.041,-2.600,-10.100,8.400,-2.900
0.042,-3.000,-10.300,9.000,-2.800
0.043,-3.500,-10.500,9.500,-3.100
0.044,-4.200,-10.700,9.800,-3.700
0.045,-5.200,-10.700,10.100,-4.200
0.046,-6.600,-10.500,10.300,-4.400
0.047,-8.400,-10.100,10.300,-4.400
0.048,-10.200,-9.600,10.000,-4.500
0.049,-11.800,-9.100,9.400,-4.600
0.050,-13.400,-8.800,8.500,-4.900
0.051,-15.000,-8.800,7.500,-5.200
0.052,-16.600,-8.900,6.600,-5.300
0.053,-18.300,-9.000,5.700,-5.300
0.054,-19.900,-9.200,5.000,-5.300
0.055,-21.300,-9.300,4.300,-5.300
0.056,-22.600,-9.600,3.700,-5.500
0.057,-23.900,-10.000,3.200,-5.500
0.058,-25.300,-10.600,2.900,-5.500
0.059,-26.800,-11.300,2.800,-5.400
0.060,-28.300,-11.900,3.000,-5.200
0.061,-29.400,-12.500,3.200,-5.100
0.062,-30.300,-12.900,3.400,-5.000
0.063,-31.200,-13.100,3.500,-4.900
0.064,-32.300,-13.400,3.600,-5.000
0.065,-33.200,-13.500,3.800,-5.100
0.066,-33.400,-13.500,4.000,-5.200
0.067,-32.600,-13.400,4.100,-5.200
0.068,-30.800,-13.100,4.100,-5.100
0.069,-28.300,-12.700,4.000,-4.900
0.070,-25.800,-12.400,3.900,-4.700
0.071,-23.100,-12.000,3.900,-4.600
0.072,-20.300,-11.500,3.800,-4.400
0.073,-17.300,-11.100,3.800,-4.400
0.074,-14.100,-10.700,3.600,-4.300
0.075,-11.200,-10.600,3.300,-4.400
0.076,-8.700,-10.700,3.000,-4.500
0.077,-6.700,-10.900,2.700,-4.500
0.078,-4.800,-11.200,2.400,-4.500
0.079,-3.100,-11.300,2.200,-4.300
0.080,-1.300,-11.400,2.000,-4.000
0.081,0.200,-11.400,1.700,-3.900
0.082,1.500,-11.300,1.500,-3.800
0.083,2.600,-11.000,1.400,-3.800
0.084,3.400,-10.300,1.300,-3.600
0.085,4.200,-9.000,1.200,-3.200
0.086,4.900,-7.200,1.100,-2.800
0.087,5.400,-5.200,0.900,-2.600
0.088,5.700,-3.000,0.700,-2.600
0.089,5.900,-0.900,0.600,-2.800
0.090,5.900,0.900,0.600,-3.100
0.091,5.700,2.400,0.600,-3.200
0.092,5.200,3.500,0.600,-3.200
0.093,4.600,4.400,0.500,-3.100
0.094,3.900,4.900,0.500,-3.100
0.095,3.200,5.200,0.600,-3.100
0.096,2.500,5.300,0.700,-3.100
0.097,1.800,5.100,0.900,-3.100
0.098,1.300,4.900,1.000,-3.200
0.099,1.100,4.600,1.000,-3.300
0.100,1.300,4.300,1.100,-3.400
0.101,1.800,3.800,1.200,-3.500
0.102,2.400,3.000,1.300,-3.600
0.103,3.000,1.900,1.200,-3.600
0.104,3.400,0.800,0.900,-3.600
0.105,3.700,-0.100,0.400,-3.700
0.106,4.000,-0.500,-0.100,-3.700
0.107,4.300,-0.800,-0.500,-3.700
0.108,4.500,-1.100,-0.700,-3.500
0.109,4.600,-1.400,-0.900,-3.300
0.110,4.400,-1.700,-1.100,-3.000
0.111,3.900,-1.600,-1.600,-2.600
0.112,3.300,-1.000,-2.100,-2.000
0.113,2.600,-0.300,-2.700,-1.400
0.114,2.100,0.400,-3.200,-0.900
0.115,1.800,0.900,-3.500,-0.600
0.116,1.500,1.300,-3.700,-0.500
0.117,1.200,1.700,-3.700,-0.400
0.118,0.900,2.300,-3.700,-0.300
0.119,0.600,2.700,-3.900,-0.200
0.120,0.400,2.800,-4.200,-0.100
0.121,0.200,2.500,-4.400,0.100
0.122,-0.300,2.000,-4.300,0.200
0.123,-0.900,1.500,-3.800,0.400
0.124,-1.500,1.000,-3.100,0.600
0.125,-2.100,0.600,-2.400,0.800
0.126,-2.600,0.200,-1.900,1.000
0.127,-3.000,0.100,-1.600,1.100
0.128,-3.300,0.100,-1.300,1.200
0.129,-3.400,0.300,-1.000,1.400
0.130,-3.100,0.300,-0.800,1.600
0.131,-2.300,0.000,-0.600,1.700
0.132,-1.100,-0.400,-0.700,1.600
0.133,0.200,-0.800,-1.000,1.400
0.134,1.600,-1.000,-1.400,1.200
0.135,2.900,-1.000,-1.800,1.100
0.136,4.300,-1.000,-2.100,1.000
0.137,5.600,-1.200,-2.600,0.700
0.138,6.700,-1.400,-3.000,0.400
0.139,7.300,-1.800,-3.300,0.100
0.140,7.300,-2.100,-3.600,0.200
0.141,7.000,-2.200,-3.700,0.400
0.142,6.700,-2.300,-3.700,0.500
0.143,6.600,-2.400,-3.600,0.300
0.144,6.700,-2.500,-3.500,-0.300
0.145,6.600,-2.500,-3.200,-1.000
0.146,6.400,-2.200,-2.900,-1.400
0.147,6.100,-1.500,-2.500,-1.500
0.148,5.800,-0.400,-2.100,-1.300
0.149,5.900,0.800,-1.700,-1.000
0.150,6.300,2.000,-1.500,-0.800
0.151,6.900,3.300,-1.300,-0.700
0.152,7.500,4.600,-1.300,-0.600
0.153,8.100,5.900,-1.200,-0.600
0.154,8.700,7.000,-1.100,-0.600
0.155,9.300,7.600,-1.000,-0.500
0.156,10.000,7.600,-0.800,-0.500
0.157,10.600,7.000,-0.600,-0.300
0.158,10.600,6.300,-0.500,-0.200
0.159,10.000,5.900,-0.500,0.000
0.160,8.900,5.700,-0.500,0.200
0.161,7.800,5.800,-0.600,0.500
0.162,6.700,5.800,-0.800,0.800
0.163,5.700,5.700,-0.900,1.100
0.164,4.800,5.500,-1.000,1.300
0.165,3.800,5.200,-1.000,1.600
0.166,3.100,5.100,-1.000,1.700
0.167,2.700,5.000,-0.900,2.000
0.168,2.700,5.000,-0.800,2.300
0.169,3.000,5.200,-0.500,2.700
0.170,3.200,5.500,-0.200,3.000
0.171,3.300,5.700,0.100,3.200
0.172,3.400,5.800,0.500,3.400
0.173,3.500,5.700,0.900,3.700
0.174,3.600,5.600,1.500,4.100
0.175,3.700,5.600,2.200,4.300
0.176,3.800,5.600,3.000,4.500
0.177,3.900,5.700,3.800,4.600
0.178,4.200,5.700,4.700,4.700
0.179,4.600,5.600,5.500,5.100
0.180,5.200,5.500,6.300,5.500
0.181,6.000,5.600,7.100,6.100
0.182,6.700,5.800,7.800,6.600
0.183,7.500,6.100,8.400,6.900
0.184,8.500,6.300,8.900,7.300
0.185,9.500,6.400,9.100,7.600
0.186,10.400,6.300,9.300,8.100
0.187,11.200,6.200,9.300,8.500
0.188,11.900,5.900,9.400,8.900
0.189,12.400,5.700,9.400,9.100
0.190,12.900,5.600,9.400,9.300
0.191,13.200,5.600,9.300,9.400
0.192,13.500,5.800,9.200,9.600
0.193,13.400,6.000,9.000,9.800
0.194,13.000,6.000,8.800,10.000
0.195,12.400,5.600,8.600,10.300
0.196,11.400,5.100,8.400,10.400
0.197,10.400,4.600,8.200,10.400
0.198,9.300,4.300,8.000,10.400
0.199,8.000,4.300,7.700,10.300
0.200,6.600,4.600,7.400,10.000
0.201,4.900,5.000,7.000,9.500
0.202,3.000,5.300,6.700,8.900
0.203,1.100,5.400,6.300,8.200
0.204,-0.500,5.400,5.900,7.600
0.205,-1.700,5.300,5.300,6.900
0.206,-2.600,5.200,4.900,6.200
0.207,-3.100,5.100,4.500,5.400
0.208,-3.500,5.100,4.100,4.500
0.209,-3.600,5.100,3.800,3.500
0.210,-2.900,5.000,3.400,2.600
0.211,-1.300,4.600,2.800,1.800
0.212,1.300,3.800,2.000,1.100
0.213,4.100,2.800,1.200,0.300
0.214,6.900,1.400,0.300,-0.500
0.215,9.600,-0.300,-0.800,-1.300
0.216,12.100,-2.500,-2.100,-2.300
0.217,14.800,-4.900,-3.900,-3.400
0.218,17.300,-7.400,-5.800,-4.700
0.219,19.400,-9.900,-7.500,-6.100
0.220,21.100,-12.600,-8.800,-7.700
0.221,22.600,-15.700,-10.100,-9.600
0.222,24.200,-19.400,-11.800,-11.600
0.223,25.500,-23.200,-14.200,-13.800
0.224,26.100,-26.900,-17.200,-16.200
0.225,25.700,-30.100,-20.200,-18.800
0.226,25.000,-33.600,-22.800,-21.600
0.227,25.300,-38.100,-25.000,-24.600
0.228,27.000,-44.000,-27.100,-27.800
0.229,29.100,-50.700,-29.300,-31.200
0.230,29.700,-57.100,-31.500,-34.600
0.231,27.700,-62.400,-33.500,-38.000
0.232,23.500,-67.000,-35.100,-41.500
0.233,18.700,-71.700,-36.400,-45.100
0.234,14.700,-77.400,-37.500,-48.700
0.235,11.500,-84.100,-38.300,-52.300
0.236,8.200,-90.900,-38.800,-55.800
0.237,3.700,-97.400,-38.900,-59.100
0.238,-2.000,-103.400,-38.500,-62.100
0.239,-7.900,-109.100,-37.700,-64.800
0.240,-12.900,-114.600,-36.800,-67.000
0.241,-16.700,-119.500,-35.900,-68.700
0.242,-19.300,-122.800,-35.200,-69.700
0.243,-20.900,-124.300,-34.800,-70.200
0.244,-21.700,-124.200,-34.500,-70.000
0.245,-21.700,-122.900,-34.100,-69.300
0.246,-20.900,-120.500,-33.600,-67.900
0.247,-19.900,-117.100,-32.600,-66.000
0.248,-18.900,-112.300,-31.100,-63.500
0.249,-18.100,-106.200,-29.100,-60.400
0.250,-17.600,-99.000,-26.600,-56.800
0.251,-17.100,-91.000,-23.800,-52.800
0.252,-16.900,-82.400,-20.500,-48.400
0.253,-16.900,-73.400,-17.000,-43.700
0.254,-17.000,-64.000,-13.400,-38.800
0.255,-17.300,-54.500,-9.600,-33.600
0.256,-17.700,-45.100,-5.800,-28.300
0.257,-18.500,-36.000,-2.100,-22.900
0.258,-19.800,-27.300,1.700,-17.700
0.259,-22.100,-19.200,5.600,-12.600
0.260,-25.100,-11.600,9.600,-7.900
0.261,-28.600,-4.800,13.400,-3.600
0.262,-32.300,1.200,17.100,0.200
0.263,-35.900,6.400,20.400,3.600
0.264,-39.300,10.900,23.400,6.500
0.265,-42.300,14.500,26.000,8.900
0.266,-45.100,17.200,28.100,10.900
0.267,-47.300,19.300,29.500,12.300
0.268,-48.600,20.700,30.100,13.400
0.269,-48.800,21.700,29.800,14.000
0.270,-47.600,22.500,28.800,14.400
0.271,-45.000,23.400,27.100,14.700
0.272,-41.300,24.300,24.800,14.800
0.273,-36.600,25.200,22.100,14.800
0.274,-31.200,26.000,19.000,14.600
0.275,-25.300,26.800,15.600,14.200
0.276,-18.900,27.300,12.100,13.600
0.277,-12.200,27.500,8.700,13.000
0.278,-5.500,27.500,5.500,12.500
0.279,1.000,27.200,2.700,12.000
0.280,7.000,26.800,0.200,11.500
0.281,12.400,26.300,-1.900,11.000
0.282,17.300,25.700,-3.600,10.400
0.283,21.700,24.900,-4.900,9.700
0.284,25.700,23.700,-6.000,9.200
0.285,29.100,22.300,-6.700,8.700
0.286,31.900,20.800,-7.200,8.400
0.287,33.800,19.400,-7.500,8.000
0.288,35.000,18.300,-7.800,7.400
0.289,35.500,17.200,-7.900,7.000
0.290,35.700,16.200,-8.000,6.600
0.291,35.700,15.100,-7.900,6.300
0.292,35.100,13.800,-7.900,6.100
0.293,33.900,12.400,-8.000,5.900
0.294,31.900,11.100,-8.000,5.600
0.295,29.200,9.900,-7.900,5.200
0.296,26.200,8.800,-7.800,4.800
0.297,23.300,7.700,-7.700,4.400
0.298,20.600,6.500,-7.500,4.000
0.299,18.000,5.500,-7.400,3.600
0.300,15.400,4.700,-7.300,3.300
0.301,12.800,4.100,-7.300,3.100
0.302,10.600,3.500,-7.100,3.000
0.303,9.200,2.700,-6.700,3.000
0.304,8.800,1.700,-6.200,2.900
0.305,9.100,0.700,-5.500,2.600
0.306,9.800,-0.200,-4.900,2.300
0.307,10.500,-1.000,-4.200,1.900
0.308,11.300,-1.700,-3.600,1.700
0.309,12.400,-2.400,-2.800,1.500
0.310,13.700,-3.000,-2.100,1.400
0.311,15.100,-3.400,-1.400,1.300
0.312,16.400,-3.400,-0.800,1.200
0.313,17.200,-3.000,-0.300,1.100
0.314,17.500,-2.400,0.100,0.900
0.315,17.600,-1.600,0.600,0.800
0.316,17.400,-0.400,0.900,0.900
0.317,17.200,0.900,1.200,1.000
0.318,16.500,2.000,1.300,1.200
0.319,15.300,2.700,1.500,1.300
0.320,13.700,3.100,1.800,1.200
0.321,12.000,3.400,2.000,1.000
0.322,10.500,4.000,2.200,0.800
0.323,9.000,4.500,2.200,0.800
0.324,7.400,4.600,2.100,1.000
0.325,5.500,3.900,2.000,1.300
0.326,3.600,2.800,2.000,1.600
0.327,2.600,2.300,2.000,1.700
0.328,2.700,2.700,1.900,1.700
0.329,3.300,3.400,1.700,1.600
0.330,3.700,3.200,1.500,1.600
0.331,3.000,1.500,1.200,1.600
0.332,1.500,-1.500,1.000,1.500
0.333,0.100,-4.500,0.900,1.300
0.334,-0.400,-6.600,0.800,1.000
0.335,0.100,-7.500,0.700,0.600
0.336,0.800,-7.800,0.600,0.300
0.337,1.200,-8.200,0.600,0.100
0.338,1.000,-8.900,0.600,0.100
0.339,0.600,-9.500,0.600,-0.100
0.340,0.300,-9.700,0.700,-0.200
0.341,0.000,-9.300,0.800,-0.300
0.342,-0.200,-8.700,0.900,-0.400
0.343,-0.600,-8.200,1.200,-0.400
0.344,-0.900,-7.900,1.600,-0.400
0.345,-1.100,-7.400,1.900,-0.600
0.346,-1.200,-6.700,2.100,-0.900
0.347,-1.300,-5.700,2.300,-1.000
0.348,-1.400,-4.600,2.300,-1.000
0.349,-1.300,-3.600,2.200,-0.700
0.350,-0.900,-2.800,2.000,-0.400
0.351,0.100,-2.500,1.400,-0.200
0.352,1.500,-2.600,0.700,-0.500
0.353,3.100,-2.800,0.000,-1.000
0.354,4.700,-3.100,-0.800,-1.700
0.355,6.400,-3.000,-1.300,-2.400
0.356,8.100,-2.600,-1.900,-3.000
0.357,9.800,-2.000,-2.400,-3.500
0.358,11.500,-1.500,-2.800,-4.200
0.359,12.900,-1.400,-3.200,-5.100
0.360,13.900,-1.400,-3.300,-6.100
0.361,14.400,-1.500,-3.200,-7.200
0.362,14.300,-1.500,-3.000,-8.200
0.363,14.000,-1.400,-2.800,-8.800
0.364,13.500,-1.400,-2.800,-9.100
0.365,13.000,-1.500,-3.000,-8.800
0.366,12.100,-1.600,-3.400,-8.200
0.367,10.800,-1.600,-3.600,-7.400
0.368,9.000,-1.600,-3.500,-6.500
0.369,6.800,-1.600,-3.000,-5.600
0.370,4.500,-1.700,-2.300,-4.700
0.371,2.200,-2.000,-1.400,-3.800
0.372,0.100,-2.500,-0.500,-2.900
0.373,-1.900,-3.000,0.300,-2.000
0.374,-3.500,-3.500,1.000,-1.200
0.375,-4.600,-4.000,1.600,-0.600
0.376,-5.100,-4.500,2.100,-0.100
0.377,-4.700,-4.800,2.400,0.000
0.378,-3.800,-5.000,2.600,0.100
0.379,-2.500,-5.100,2.500,0.100
0.380,-1.100,-5.100,2.400,0.100
0.381,0.300,-5.200,2.100,0.100
0.382,1.900,-5.200,2.000,0.000
0.383,3.600,-5.100,1.800,-0.200
0.384,5.400,-4.800,1.600,-0.600
0.385,7.100,-4.500,1.400,-1.000
0.386,8.400,-4.100,1.200,-1.400
0.387,9.200,-3.700,0.900,-1.600
0.388,9.600,-3.400,0.700,-1.600
0.389,9.700,-3.100,0.400,-1.600
0.390,9.600,-3.000,0.300,-1.600
0.391,9.000,-3.000,0.200,-1.600
0.392,7.800,-3.200,0.100,-1.600
0.393,5.900,-3.600,0.100,-1.500
0.394,3.500,-4.000,0.200,-1.500
0.395,1.100,-4.400,0.200,-1.500
0.396,-1.000,-4.500,0.200,-1.500
0.397,-2.700,-4.700,0.200,-1.600
0.398,-4.000,-4.900,0.100,-1.600
0.399,-5.100,-5.300,-0.100,-1.600
0.400,-6.100,-5.900,-0.200,-1.600
0.401,-6.700,-6.600,-0.300,-1.800
0.402,-6.500,-7.300,-0.500,-2.000
0.403,-5.200,-7.600,-0.800,-2.300
0.404,-3.100,-7.800,-1.000,-2.500
0.405,-0.800,-7.800,-1.300,-2.600
0.406,1.300,-7.700,-1.400,-2.700
0.407,3.000,-7.500,-1.400,-3.000
0.408,4.500,-7.300,-1.200,-3.100
0.409,6.100,-7.000,-1.000,-3.200
0.410,7.600,-6.700,-0.800,-3.100
0.411,8.800,-6.400,-0.600,-3.100
0.412,9.500,-6.300,-0.600,-3.100
0.413,9.700,-6.400,-0.600,-3.300
0.414,9.400,-6.400,-0.600,-3.300
0.415,8.900,-6.400,-0.400,-3.100
0.416,8.200,-6.400,-0.100,-2.600
0.417,7.500,-6.400,0.200,-2.000
0.418,6.600,-6.600,0.500,-1.500
0.419,5.500,-7.000,0.600,-1.300
0.420,4.400,-7.600,0.500,-1.500
0.421,3.500,-8.100,0.300,-1.900
0.422,2.700,-8.700,0.300,-2.100
0.423,1.900,-9.400,0.400,-2.000
0.424,0.900,-10.600,0.600,-1.600
0.425,-0.200,-12.100,0.600,-1.200
0.426,-1.200,-13.600,0.400,-1.200
0.427,-1.800,-14.500,0.000,-1.300
0.428,-1.800,-14.600,-0.600,-1.700
0.429,-1.500,-14.300,-1.100,-2.200
0.430,-1.200,-14.200,-1.600,-2.500
0.431,-1.100,-14.600,-2.000,-2.900
0.432,-1.200,-15.300,-2.400,-3.200
0.433,-1.200,-15.700,-2.800,-3.500
0.434,-0.800,-15.400,-3.100,-3.700
0.435,0.100,-14.200,-3.200,-3.800
0.436,1.200,-12.700,-3.300,-4.000
0.437,2.200,-11.500,-3.300,-4.200
0.438,3.000,-10.700,-3.300,-4.500
0.439,3.700,-10.200,-3.100,-4.600
0.440,4.300,-9.800,-3.000,-4.600
0.441,4.800,-9.400,-2.800,-4.500
0.442,5.300,-8.900,-2.600,-4.500
0.443,5.900,-8.700,-2.400,-4.900
0.444,6.500,-8.800,-2.400,-5.600
0.445,7.200,-9.000,-2.300,-6.200
0.446,7.800,-9.300,-2.200,-6.500
0.447,8.200,-9.500,-2.100,-6.700
0.448,8.300,-9.600,-2.100,-7.000
0.449,8.300,-9.700,-2.300,-7.400
0.450,8.400,-9.900,-2.600,-7.800
0.451,8.600,-10.300,-3.000,-8.000
0.452,8.800,-11.000,-3.500,-8.000
0.453,8.800,-11.600,-3.800,-7.800
0.454,8.700,-12.200,-4.200,-7.500
0.455,8.500,-12.600,-4.500,-7.400
0.456,8.400,-12.800,-4.800,-7.400
0.457,8.300,-12.700,-5.100,-7.400
0.458,8.100,-12.500,-5.300,-7.100
0.459,7.500,-12.300,-5.100,-6.600
0.460,6.600,-12.300,-4.700,-5.900
0.461,5.500,-12.400,-4.300,-5.300
0.462,4.400,-12.600,-4.000,-5.000
0.463,3.500,-12.600,-3.900,-4.900
0.464,2.800,-12.400,-3.800,-5.000
0.465,1.900,-11.900,-3.600,-5.200
0.466,0.700,-11.600,-3.500,-5.500
0.467,-0.800,-11.400,-3.400,-5.600
0.468,-2.500,-11.500,-3.600,-5.700
0.469,-3.900,-11.600,-3.900,-5.700
0.470,-5.100,-11.500,-4.200,-5.900
0.471,-6.000,-11.300,-4.400,-6.100
0.472,-6.800,-11.300,-4.400,-6.400
0.473,-7.500,-11.500,-4.400,-6.700
0.474,-7.800,-11.800,-4.500,-7.100
0.475,-7.400,-12.100,-4.700,-7.400
0.476,-6.200,-12.200,-4.900,-7.800
0.477,-4.100,-12.100,-5.200,-8.100
0.478,-1.600,-12.000,-5.400,-8.300
0.479,1.100,-11.900,-5.500,-8.400
0.480,3.800,-12.000,-5.600,-8.400
0.481,6.400,-12.100,-5.600,-8.500
0.482,9.100,-12.200,-5.600,-8.500
0.483,11.500,-12.300,-5.600,-8.700
0.484,13.500,-12.400,-5.600,-8.900
0.485,15.100,-12.400,-5.500,-9.000
0.486,15.900,-12.200,-5.400,-9.100
0.487,16.000,-12.000,-5.400,-9.200
0.488,15.600,-12.100,-5.500,-9.200
0.489,14.900,-12.400,-5.700,-9.200
0.490,14.200,-13.100,-5.900,-9.200
0.491,13.700,-13.800,-6.000,-9.100
0.492,13.300,-14.600,-5.900,-9.000
0.493,12.800,-15.600,-5.900,-8.900
0.494,12.000,-17.000,-5.800,-8.800
0.495,10.700,-18.600,-5.700,-8.700
0.496,9.300,-20.200,-5.700,-8.700
0.497,8.000,-21.400,-5.700,-8.700
0.498,7.000,-22.300,-5.600,-8.800
0.499,6.200,-22.900,-5.600,-9.000
0.500,5.500,-23.500,-5.600,-9.100
0.501,4.700,-23.700,-5.500,-9.200
0.502,4.000,-23.000,-5.500,-9.300
0.503,3.500,-21.000,-5.400,-9.400
0.504,3.400,-18.100,-5.200,-9.500
0.505,3.400,-14.800,-5.000,-9.500
0.506,3.500,-11.800,-4.800,-9.200
0.507,3.400,-9.400,-4.500,-8.600
0.508,3.300,-7.400,-4.200,-7.900
0.509,3.300,-5.500,-3.800,-7.200
0.510,3.400,-3.800,-3.400,-6.600
0.511,3.400,-2.500,-3.200,-6.100
0.512,3.400,-2.100,-3.000,-5.700
0.513,3.100,-2.500,-2.900,-5.200
0.514,2.700,-3.400,-2.600,-4.900
0.515,1.900,-4.600,-2.400,-4.600
0.516,0.800,-5.900,-2.100,-4.500
0.517,-0.500,-7.300,-2.000,-4.500
0.518,-1.700,-8.800,-1.900,-4.400
0.519,-2.900,-10.300,-1.700,-4.400
0.520,-3.900,-11.600,-1.400,-4.500
0.521,-5.100,-12.700,-1.100,-4.600
0.522,-6.300,-13.500,-1.000,-4.900
0.523,-7.000,-14.100,-1.300,-5.100
0.524,-7.000,-14.500,-1.800,-5.000
0.525,-6.200,-14.900,-2.300,-4.900
0.526,-5.300,-15.300,-2.600,-4.800
0.527,-5.200,-15.600,-2.600,-4.900
0.528,-6.200,-16.000,-2.600,-5.200
0.529,-7.400,-16.100,-2.600,-5.400
0.530,-7.600,-16.100,-2.700,-5.600
0.531,-6.100,-15.700,-2.700,-5.600
0.532,-3.100,-15.100,-2.600,-5.600
0.533,-0.100,-14.600,-2.300,-5.400
0.534,1.900,-14.300,-2.000,-5.200
0.535,2.700,-14.200,-1.700,-5.100
0.536,3.100,-14.300,-1.500,-5.100
0.537,3.600,-14.400,-1.400,-5.200
0.538,4.600,-14.500,-1.200,-5.300
0.539,5.600,-14.700,-1.000,-5.500
0.540,6.200,-15.000,-0.800,-5.600
0.541,6.200,-15.200,-0.600,-5.600
0.542,5.700,-15.300,-0.500,-5.400
0.543,5.200,-15.400,-0.300,-5.300
0.544,4.500,-15.700,-0.100,-5.300
0.545,3.600,-16.000,0.200,-5.500
0.546,2.100,-16.300,0.500,-5.700
0.547,0.100,-16.500,0.600,-5.900
0.548,-2.400,-16.700,0.600,-5.800
0.549,-5.100,-17.200,0.700,-5.500
0.550,-7.600,-18.300,1.000,-5.200
0.551,-9.800,-20.000,1.400,-5.100
0.552,-11.600,-21.800,1.900,-5.100
0.553,-13.200,-23.600,2.500,-5.100
0.554,-14.600,-25.500,2.900,-5.200
0.555,-15.800,-27.500,3.300,-5.100
0.556,-16.700,-29.900,3.700,-5.200
0.557,-16.900,-32.000,4.200,-5.200
0.558,-16.300,-33.400,4.500,-5.300
0.559,-15.000,-33.600,4.700,-5.100
0.560,-13.200,-32.700,4.700,-4.700
0.561,-11.400,-31.100,4.500,-4.200
0.562,-9.700,-29.300,4.200,-3.600
0.563,-8.000,-27.100,3.900,-3.300
0.564,-6.200,-24.500,3.500,-3.000
0.565,-4.400,-21.400,3.200,-2.900
0.566,-2.800,-18.100,2.800,-2.700
0.567,-1.500,-15.000,2.400,-2.400
0.568,-0.500,-12.700,2.200,-2.200
0.569,0.200,-11.300,2.000,-2.100
0.570,0.700,-10.700,1.800,-2.100
0.571,1.100,-10.500,1.600,-2.000
0.572,1.300,-10.500,1.300,-1.900
0.573,1.100,-10.700,1.000,-1.700
0.574,0.700,-11.600,0.800,-1.500
0.575,0.100,-12.800,0.700,-1.400
0.576,-0.600,-13.900,0.600,-1.500
0.577,-1.200,-14.200,0.600,-1.700
0.578,-1.700,-13.200,0.600,-1.900
0.579,-2.300,-11.000,0.600,-2.000
0.580,-3.000,-7.900,0.700,-2.000
0.581,-3.700,-4.500,0.700,-1.900
0.582,-4.300,-0.800,0.700,-1.900
0.583,-4.900,3.300,0.800,-2.000
0.584,-5.300,7.400,0.700,-2.200
0.585,-5.900,11.100,0.600,-2.400
0.586,-6.500,13.800,0.500,-2.500
0.587,-7.200,15.100,0.400,-2.500
0.588,-7.800,15.300,0.300,-2.400
0.589,-8.300,15.100,0.300,-2.300
0.590,-8.700,14.500,0.400,-2.200
0.591,-9.000,13.500,0.500,-2.200
0.592,-9.400,11.700,0.700,-2.100
0.593,-9.600,9.300,0.900,-2.000
0.594,-9.400,6.700,1.200,-1.800
0.595,-8.500,4.500,1.600,-1.700
0.596,-7.100,2.900,2.000,-1.500
0.597,-5.500,1.700,2.400,-1.500
0.598,-3.800,0.800,2.600,-1.500
0.599,-2.200,0.100,2.800,-1.600
0.600,-0.600,-0.300,2.800,-1.500
0.601,1.000,-0.400,2.900,-1.300
0.602,2.600,-0.200,2.900,-1.000
0.603,4.000,0.100,2.800,-0.800
0.604,5.100,0.300,2.600,-0.700
0.605,5.900,0.500,2.200,-0.700
0.606,6.300,0.600,1.900,-0.700
0.607,6.400,0.600,1.700,-0.600
0.608,6.200,0.600,1.500,-0.500
0.609,5.600,0.500,1.300,-0.300
0.610,4.800,0.200,1.100,-0.200
0.611,3.800,-0.100,0.900,-0.100
0.612,2.800,-0.400,0.600,0.000
0.613,1.900,-0.600,0.500,0.000
0.614,0.900,-0.800,0.400,0.000
0.615,0.200,-0.900,0.300,0.100
0.616,-0.200,-0.800,0.400,0.100
0.617,-0.400,-0.500,0.400,0.100
0.618,-0.800,-0.200,0.500,0.100
0.619,-1.500,0.100,0.600,0.100
0.620,-2.300,0.200,0.600,0.100
0.621,-2.700,0.200,0.600,0.200
0.622,-2.600,0.100,0.600,0.200
0.623,-2.600,0.000,0.700,0.100
0.624,-3.700,-0.200,0.800,0.000
0.625,-5.900,-0.300,0.900,-0.200
0.626,-8.200,-0.400,0.900,-0.400
0.627,-9.200,-0.300,0.700,-0.500
0.628,-8.200,-0.200,0.400,-0.400
0.629,-6.500,-0.100,0.100,-0.200
0.630,-6.300,-0.200,-0.200,0.100
0.631,-8.800,-0.600,-0.300,0.200
0.632,-13.200,-1.000,-0.400,0.300
0.633,-17.000,-1.400,-0.400,0.300
0.634,-18.400,-1.600,-0.400,0.200
0.635,-17.400,-1.700,-0.400,0.200
0.636,-15.300,-1.800,-0.400,0.100
0.637,-13.400,-1.900,-0.300,0.000
0.638,-11.600,-1.700,-0.100,-0.100
0.639,-9.200,-1.100,0.100,0.000
0.640,-5.500,-0.200,0.400,0.100
0.641,-1.100,0.900,0.600,0.200
0.642,2.900,1.700,0.800,0.100
0.643,6.100,2.100,1.000,-0.300
0.644,8.500,2.300,1.300,-0.800
0.645,10.900,2.400,1.500,-1.200
0.646,13.100,2.600,1.600,-1.500
0.647,14.900,2.700,1.700,-1.500
0.648,15.700,2.700,1.700,-1.500
0.649,15.600,2.500,1.600,-1.500
0.650,14.700,2.100,1.400,-1.500
0.651,13.700,1.700,1.300,-1.400
0.652,12.600,1.300,1.100,-1.300
0.653,11.300,0.800,1.000,-1.000
0.654,9.800,0.300,0.900,-0.800
0.655,8.200,-0.300,0.800,-0.600
0.656,6.800,-1.000,0.700,-0.600
0.657,5.500,-1.600,0.600,-0.600
0.658,4.300,-2.000,0.600,-0.500
0.659,3.000,-2.300,0.600,-0.300
0.660,1.600,-2.400,0.600,0.100
0.661,0.100,-2.500,0.600,0.500
0.662,-1.400,-2.700,0.600,0.900
0.663,-2.800,-2.800,0.600,1.000
0.664,-4.400,-2.900,0.500,1.100
0.665,-5.900,-2.800,0.400,1.100
0.666,-7.400,-2.700,0.300,1.100
0.667,-8.600,-2.500,0.200,1.100
0.668,-9.300,-2.400,0.200,1.200
0.669,-9.700,-2.300,0.100,1.200
0.670,-9.800,-2.200,0.000,1.200
0.671,-9.500,-2.100,-0.100,1.200
0.672,-9.000,-2.000,-0.100,1.100
0.673,-8.200,-2.000,-0.200,1.000
0.674,-6.900,-2.200,-0.200,0.800
0.675,-5.000,-2.600,-0.200,0.800
0.676,-2.800,-3.000,-0.100,0.800
0.677,-0.600,-3.300,0.200,0.900
0.678,1.300,-3.300,0.500,0.900
0.679,3.000,-3.000,0.700,0.800
0.680,4.500,-2.500,0.900,0.400
0.681,5.900,-1.900,1.000,0.000
0.682,7.000,-1.400,1.200,-0.400
0.683,7.900,-1.000,1.400,-0.500
0.684,8.400,-0.800,1.600,-0.500
0.685,8.300,-0.600,1.900,-0.400
0.686,7.800,-0.400,2.000,-0.200
0.687,7.000,-0.200,1.900,-0.100
0.688,6.000,0.000,1.600,-0.100
0.689,4.900,0.100,1.400,-0.100
0.690,3.900,0.100,1.200,-0.100
0.691,3.000,-0.100,1.100,0.100
0.692,2.300,-0.400,1.000,0.200
0.693,1.600,-1.000,0.900,0.400
0.694,0.800,-1.600,0.700,0.500
0.695,-0.100,-2.200,0.700,0.500
0.696,-1.200,-2.700,0.800,0.500
0.697,-2.100,-3.200,0.900,0.500
0.698,-3.100,-3.500,1.100,0.500
0.699,-4.000,-3.800,1.200,0.500
0.700,-4.800,-4.100,1.400,0.500
0.701,-5.600,-4.400,1.600,0.400
0.702,-6.300,-4.700,1.900,0.300
0.703,-6.800,-5.000,2.200,0.300
0.704,-7.000,-5.400,2.500,0.500
0.705,-6.800,-5.600,2.700,0.700
0.706,-6.400,-5.900,3.000,1.000
0.707,-5.800,-6.300,3.300,1.200
0.708,-5.000,-6.900,3.600,1.200
0.709,-4.200,-7.500,4.000,1.100
0.710,-3.300,-8.000,4.400,0.900
0.711,-2.400,-8.000,4.600,0.800
0.712,-1.500,-7.500,4.800,0.700
0.713,-0.900,-6.700,4.900,0.600
0.714,-0.600,-5.700,4.900,0.600
0.715,-0.500,-4.800,4.900,0.400
0.716,-0.400,-3.800,4.700,0.100
0.717,-0.400,-2.800,4.300,-0.200
0.718,-0.600,-2.000,3.900,-0.500
0.719,-1.200,-1.300,3.700,-0.800
0.720,-2.000,-0.700,3.900,-1.100
0.721,-2.700,0.000,4.200,-1.500
0.722,-3.400,0.800,4.300,-1.900
0.723,-3.900,1.100,4.100,-2.200
0.724,-4.600,0.500,3.500,-2.400
0.725,-5.500,-1.100,3.000,-2.400
0.726,-6.600,-2.800,2.800,-2.400
0.727,-7.300,-3.600,2.900,-2.200
0.728,-7.400,-3.100,3.200,-2.100
0.729,-7.400,-2.100,3.300,-2.100
0.730,-7.800,-2.100,3.400,-2.100
0.731,-8.900,-4.000,3.400,-2.100
0.732,-10.700,-7.100,3.700,-2.000
0.733,-12.500,-9.900,4.000,-1.900
0.734,-13.900,-11.200,4.400,-1.700
0.735,-14.700,-10.700,4.600,-1.600
0.736,-15.600,-9.600,4.800,-1.600
0.737,-16.600,-8.600,4.800,-1.600
0.738,-18.000,-8.000,4.800,-1.600
0.739,-19.300,-7.500,4.800,-1.500
0.740,-20.300,-6.800,4.800,-1.400
0.741,-20.800,-5.900,4.800,-1.300
0.742,-21.000,-5.300,4.800,-1.400
0.743,-21.000,-5.200,4.800,-1.800
0.744,-20.600,-5.400,5.000,-2.300
0.745,-20.000,-5.600,5.200,-2.800
0.746,-19.000,-5.900,5.500,-3.300
0.747,-17.800,-6.300,5.700,-3.400
0.748,-16.400,-7.000,5.800,-3.400
0.749,-15.100,-7.600,5.900,-3.200
0.750,-14.000,-7.900,6.000,-3.100
0.751,-13.100,-7.700,6.200,-3.200
0.752,-12.400,-7.100,6.500,-3.400
0.753,-11.800,-6.300,6.700,-3.600
0.754,-11.300,-5.500,7.000,-3.700
0.755,-11.000,-4.400,7.200,-3.700
0.756,-10.900,-3.200,7.400,-3.600
0.757,-11.300,-1.900,7.500,-3.400
0.758,-12.200,-0.800,7.700,-3.300
0.759,-13.600,-0.400,7.800,-3.100
0.760,-15.400,-0.600,7.900,-2.900
0.761,-17.400,-1.100,7.900,-2.700
0.762,-19.300,-1.700,7.900,-2.500
0.763,-21.200,-2.400,7.800,-2.300
0.764,-23.200,-3.100,7.700,-2.200
0.765,-25.200,-4.000,7.400,-2.100
0.766,-27.300,-5.100,7.200,-2.000
0.767,-29.200,-6.100,6.900,-2.000
0.768,-30.800,-7.000,6.700,-2.100
0.769,-31.800,-7.700,6.400,-2.300
0.770,-32.200,-8.400,6.200,-2.500
0.771,-31.900,-9.300,5.900,-2.800
0.772,-31.100,-10.400,5.500,-3.100
0.773,-29.800,-11.600,5.200,-3.400
0.774,-27.700,-12.500,4.800,-3.600
0.775,-24.900,-12.700,4.500,-3.800
0.776,-21.500,-12.400,4.300,-4.000
0.777,-18.100,-11.900,4.100,-4.300
0.778,-14.800,-11.500,4.000,-4.600
0.779,-12.000,-11.600,3.900,-4.800
0.780,-9.400,-11.800,3.700,-5.000
0.781,-7.000,-12.200,3.600,-5.100
0.782,-4.900,-12.600,3.400,-5.200
0.783,-3.300,-12.900,3.300,-5.300
0.784,-2.200,-13.300,3.300,-5.300
0.785,-1.900,-13.500,3.300,-5.300
0.786,-2.100,-13.500,3.300,-5.200
0.787,-2.700,-13.100,3.300,-5.100
0.788,-3.600,-12.600,3.400,-4.900
0.789,-4.600,-12.100,3.400,-4.600
0.790,-5.700,-11.700,3.500,-4.300
0.791,-6.700,-11.200,3.600,-3.900
0.792,-7.700,-10.600,3.800,-3.400
0.793,-8.600,-9.700,4.000,-3.000
0.794,-9.400,-8.900,4.200,-2.600
0.795,-10.200,-8.100,4.200,-2.100
0.796,-10.700,-7.500,4.000,-1.700
0.797,-11.100,-6.700,3.600,-1.400
0.798,-11.200,-5.800,3.100,-1.200
0.799,-10.900,-4.700,2.700,-1.200
0.800,-10.300,-3.700,2.100,-1.300
0.801,-9.400,-2.900,1.500,-1.500
0.802,-8.200,-2.400,0.800,-1.900
0.803,-6.900,-2.000,0.200,-2.400
0.804,-5.200,-1.700,-0.200,-3.000
0.805,-3.500,-1.300,-0.600,-3.900
0.806,-1.900,-0.900,-0.700,-5.000
0.807,-0.500,-0.300,-0.600,-6.300
0.808,0.500,0.400,-0.400,-7.500
0.809,1.200,1.200,-0.100,-8.500
0.810,1.900,2.100,0.100,-9.000
0.811,2.800,3.000,0.000,-9.000
0.812,3.700,3.900,-0.300,-8.600
0.813,4.500,4.600,-0.700,-7.900
0.814,5.000,5.100,-0.900,-7.000
0.815,5.100,5.700,-0.900,-6.000
0.816,5.000,6.500,-0.600,-4.900
0.817,4.800,7.300,-0.200,-3.800
0.818,4.600,7.800,0.200,-2.900
0.819,4.600,8.000,0.500,-2.100
0.820,4.800,7.900,0.700,-1.400
0.821,5.400,7.900,0.700,-0.700
0.822,6.300,8.200,0.600,0.000
0.823,7.100,8.200,0.300,0.700
0.824,7.400,7.500,-0.100,1.300
0.825,7.000,5.900,-0.500,1.700
0.826,6.500,4.100,-0.800,1.900
0.827,6.700,3.200,-1.000,2.000
0.828,7.700,3.800,-1.300,2.100
0.829,8.900,4.900,-1.500,2.100
0.830,9.000,5.100,-1.700,2.100
0.831,7.500,3.100,-1.900,2.000
0.832,4.900,-0.300,-2.000,1.900
0.833,2.500,-3.500,-1.900,1.700
0.834,1.300,-5.100,-1.900,1.700
0.835,1.200,-4.800,-2.000,1.800
0.836,1.300,-3.500,-2.100,1.700
0.837,1.200,-2.200,-2.300,1.500
0.838,0.600,-1.200,-2.300,1.200
0.839,0.200,-0.300,-2.300,1.100
0.840,0.500,0.800,-2.100,1.200
0.841,1.200,2.000,-1.900,1.400
0.842,1.900,3.000,-1.600,1.500
0.843,2.100,3.400,-1.500,1.100
0.844,2.000,3.600,-1.500,0.300
0.845,1.800,3.800,-1.500,-0.400
0.846,1.900,4.100,-1.600,-0.800
0.847,2.100,4.500,-1.600,-0.700
0.848,2.400,4.700,-1.600,-0.500
0.849,2.600,4.700,-1.700,-0.300
0.850,2.800,4.600,-1.800,-0.200
0.851,3.000,4.500,-1.900,-0.200
0.852,3.100,4.400,-1.900,-0.200
0.853,3.100,4.200,-1.900,-0.200
0.854,3.000,3.700,-1.800,0.000
0.855,3.000,3.100,-1.700,0.300
0.856,2.800,2.500,-1.500,0.800
0.857,2.600,2.000,-1.400,1.200
0.858,2.100,1.600,-1.200,1.600
0.859,1.500,1.300,-1.100,1.700
0.860,0.700,1.100,-1.000,1.600
0.861,0.100,1.000,-1.000,1.400
0.862,-0.400,1.000,-1.000,1.300
0.863,-0.900,1.300,-0.800,1.200
0.864,-1.300,1.900,-0.600,1.200
0.865,-1.700,2.700,-0.300,1.300
0.866,-1.700,3.700,-0.100,1.300
0.867,-1.200,4.600,0.100,1.300
0.868,-0.200,5.300,0.300,1.500
0.869,1.200,6.000,0.500,1.800
0.870,2.700,6.600,0.700,2.100
0.871,4.200,7.100,1.100,2.500
0.872,5.800,7.400,1.500,2.900
0.873,7.400,7.400,2.000,3.300
0.874,9.200,7.300,2.600,3.800
0.875,10.900,7.000,3.200,4.500
0.876,12.200,6.600,3.900,5.200
0.877,13.100,6.200,4.600,5.800
0.878,13.500,5.900,5.200,6.300
0.879,13.500,5.800,5.700,6.700
0.880,13.200,5.800,6.100,7.100
0.881,12.700,6.000,6.400,7.600
0.882,12.000,6.300,6.700,8.100
0.883,10.800,6.400,7.100,8.400
0.884,9.300,6.300,7.400,8.600
0.885,7.700,6.100,7.800,8.600
0.886,6.200,5.800,8.200,8.700
0.887,4.800,5.600,8.600,9.000
0.888,3.700,5.600,8.900,9.600
0.889,2.800,5.700,9.100,10.300
0.890,1.900,5.700,9.100,10.900
0.891,1.000,5.600,8.900,11.100
0.892,0.300,5.100,8.800,11.100
0.893,-0.200,4.500,8.600,10.900
0.894,-0.700,3.700,8.300,10.600
0.895,-1.000,3.100,7.800,10.100
0.896,-1.400,2.600,7.100,9.400
0.897,-1.700,2.400,6.300,8.300
0.898,-1.900,2.100,5.300,7.000
0.899,-1.900,1.700,4.400,5.500
0.900,-1.500,1.200,3.400,3.900
0.901,-1.000,0.500,2.400,2.200
0.902,-0.500,0.100,1.300,0.400
0.903,0.200,0.100,0.100,-1.400
0.904,1.000,0.200,-1.200,-3.200
0.905,2.200,0.100,-2.500,-5.100
0.906,3.700,-0.400,-3.800,-7.100
0.907,5.600,-1.600,-5.300,-9.500
0.908,7.700,-3.400,-6.800,-12.000
0.909,10.000,-5.700,-8.500,-14.600
0.910,12.800,-8.500,-10.400,-17.300
0.911,16.100,-12.100,-12.600,-20.000
0.912,19.600,-16.500,-14.900,-22.600
0.913,23.000,-21.800,-17.400,-25.300
0.914,25.900,-27.900,-20.200,-28.100
0.915,28.300,-34.600,-23.000,-31.000
0.916,30.300,-41.800,-25.900,-34.000
0.917,31.900,-49.500,-28.900,-37.200
0.918,32.900,-57.800,-31.800,-40.500
0.919,33.000,-66.900,-34.400,-43.800
0.920,31.800,-76.500,-36.700,-47.000
0.921,29.200,-86.200,-38.400,-50.200
0.922,25.300,-95.600,-39.400,-53.400
0.923,20.000,-104.200,-39.500,-56.700
0.924,13.400,-111.900,-39.000,-60.100
0.925,6.000,-118.400,-38.000,-63.300
0.926,-0.700,-123.400,-36.900,-65.900
0.927,-5.100,-126.700,-36.100,-67.700
0.928,-6.500,-127.900,-35.600,-68.500
0.929,-6.000,-126.900,-35.200,-68.500
0.930,-5.200,-123.800,-34.700,-67.700
0.931,-6.000,-118.900,-33.700,-66.000
0.932,-8.400,-112.300,-31.900,-63.500
0.933,-11.700,-104.100,-29.400,-59.900
0.934,-14.900,-94.500,-26.100,-55.400
0.935,-17.500,-83.700,-22.300,-50.100
0.936,-20.200,-72.000,-18.000,-44.300
0.937,-23.400,-59.900,-13.400,-38.300
0.938,-27.200,-47.600,-8.700,-32.300
0.939,-31.300,-35.600,-3.700,-26.100
0.940,-35.200,-24.000,1.300,-20.000
0.941,-39.000,-13.300,6.400,-14.100
0.942,-42.700,-3.600,11.300,-9.000
0.943,-46.300,4.700,16.000,-4.800
0.944,-49.700,11.500,20.200,-1.600
0.945,-52.200,16.800,23.700,1.100
0.946,-53.500,20.700,26.400,3.400
0.947,-53.400,23.500,28.000,5.500
0.948,-51.700,25.400,28.600,7.200
0.949,-48.200,26.600,27.900,8.500
0.950,-42.800,27.500,26.200,9.300
0.951,-35.500,28.100,23.500,9.800
0.952,-26.900,28.400,20.200,10.200
0.953,-17.600,28.300,16.300,10.600
0.954,-8.400,27.800,12.200,10.800
0.955,0.200,27.000,8.100,10.900
0.956,7.800,25.900,4.400,10.800
0.957,14.000,24.500,1.000,10.600
0.958,18.900,22.800,-2.000,10.500
0.959,22.500,20.900,-4.400,10.500
0.960,25.000,18.900,-6.200,10.600
0.961,26.500,17.100,-7.700,10.700
0.962,27.300,15.500,-8.700,10.600
0.963,27.500,14.200,-9.400,10.200
0.964,27.300,13.400,-9.900,9.500
0.965,26.900,12.800,-10.300,8.700
0.966,26.600,12.600,-10.300,7.800
0.967,26.400,12.500,-10.100,6.900
0.968,26.300,12.400,-9.700,5.900
0.969,26.000,12.000,-9.100,5.000
0.970,25.300,11.400,-8.400,4.000
0.971,24.400,10.700,-7.800,3.200
0.972,23.300,10.100,-7.200,2.400
0.973,22.200,9.300,-6.600,1.600
0.974,21.000,8.300,-5.900,0.900
0.975,19.600,6.800,-5.300,0.300
0.976,18.000,4.900,-4.800,0.000
0.977,16.200,3.000,-4.400,-0.100
0.978,14.300,1.500,-3.900,0.000
0.979,12.400,0.500,-3.400,0.200
0.980,10.500,0.100,-2.800,0.300
0.981,8.700,-0.100,-2.300,0.400
0.982,6.900,0.300,-1.800,0.500
0.983,5.300,1.100,-1.500,0.600
0.984,4.100,2.500,-1.300,0.800
0.985,3.100,4.300,-1.200,0.900
0.986,2.400,6.100,-1.200,0.900
0.987,2.000,7.500,-1.100,0.500
0.988,1.800,8.400,-0.900,0.000
0.989,1.800,9.200,-0.800,-0.500
0.990,1.900,9.800,-0.600,-1.000
0.991,2.100,10.300,-0.500,-1.300
0.992,2.400,10.400,-0.400,-1.700
0.993,2.800,9.800,-0.200,-2.100
0.994,3.300,8.400,0.000,-2.300
0.995,3.900,6.400,0.200,-2.100
0.996,4.300,4.100,0.400,-1.500
0.997,4.700,1.800,0.600,-0.400
0.998,5.000,-0.200,0.600,0.800
0.999,5.300,-2.100,0.600,1.800
1.000,5.800,-4.100,0.500,2.600
1.001,6.300,-6.000,0.300,3.100
1.002,6.800,-7.600,0.100,3.600
1.003,7.000,-8.900,0.000,4.200
1.004,6.800,-9.600,-0.100,4.800
1.005,6.400,-9.900,-0.100,5.200
1.006,5.900,-10.200,-0.200,5.200
1.007,5.400,-10.400,-0.200,4.800
1.008,5.100,-10.600,-0.300,4.000
1.009,4.700,-10.300,-0.300,3.000
1.010,4.200,-9.500,-0.500,2.000
1.011,3.700,-8.000,-0.500,1.000
1.012,3.000,-6.100,-0.600,-0.100
1.013,2.300,-4.100,-0.600,-1.300
1.014,1.700,-2.400,-0.600,-2.400
1.015,1.200,-0.800,-0.600,-3.300
1.016,0.700,0.600,-0.600,-4.000
1.017,0.300,2.000,-0.600,-4.500
1.018,-0.200,3.100,-0.700,-4.800
1.019,-0.800,3.800,-0.800,-4.900
1.020,-1.500,4.100,-0.800,-4.700
1.021,-2.400,4.100,-0.700,-4.300
1.022,-3.200,4.000,-0.700,-3.700
1.023,-3.700,3.400,-0.700,-3.100
1.024,-3.600,2.100,-0.800,-2.600
1.025,-3.000,0.000,-0.900,-2.100
1.026,-2.300,-2.100,-1.100,-1.800
1.027,-2.100,-3.100,-1.200,-1.400
1.028,-2.400,-2.800,-1.300,-0.900
1.029,-2.900,-1.900,-1.400,-0.300
1.030,-3.000,-1.600,-1.500,0.000
1.031,-2.200,-2.900,-1.500,0.100
1.032,-0.800,-5.200,-1.600,-0.200
1.033,0.700,-7.200,-1.600,-0.500
1.034,1.500,-8.000,-1.600,-0.800
1.035,1.500,-7.500,-1.600,-1.200
1.036,1.000,-6.800,-1.500,-1.700
1.037,0.400,-6.700,-1.400,-2.400
1.038,0.100,-7.300,-1.200,-3.200
1.039,-0.200,-8.100,-1.100,-3.500
1.040,-0.500,-8.600,-1.000,-3.400
1.041,-0.700,-8.700,-0.900,-3.000
1.042,-0.800,-8.700,-0.800,-3.000
1.043,-0.800,-8.900,-0.700,-3.700
1.044,-0.600,-9.200,-0.400,-4.800
1.045,-0.300,-9.200,0.000,-6.100
1.046,0.100,-8.900,0.300,-6.700
1.047,0.600,-8.200,0.600,-6.700
1.048,1.300,-7.300,0.600,-6.300
1.049,2.000,-6.200,0.500,-5.800
1.050,2.700,-5.000,0.500,-5.500
1.051,3.100,-3.800,0.400,-5.400
1.052,3.500,-2.700,0.300,-5.400
1.053,3.800,-1.800,0.300,-5.300
1.054,4.200,-1.100,0.200,-5.300
1.055,4.600,-0.400,0.100,-5.300
1.056,5.200,0.200,0.100,-5.200
1.057,5.600,0.200,0.100,-5.100
1.058,6.000,-0.600,-0.100,-5.000
1.059,6.300,-2.300,-0.300,-4.900
1.060,6.500,-4.700,-0.600,-4.800
1.061,6.700,-7.100,-0.900,-4.800
1.062,6.700,-9.200,-1.300,-4.800
1.063,6.400,-11.000,-1.600,-4.600
1.064,5.900,-12.600,-2.000,-4.300
1.065,5.200,-13.900,-2.500,-4.000
1.066,4.400,-14.800,-2.900,-3.700
1.067,3.700,-14.900,-3.100,-3.400
1.068,3.200,-14.100,-3.000,-3.200
1.069,2.900,-12.800,-2.800,-3.100
1.070,2.600,-11.400,-2.600,-3.000
1.071,2.300,-10.300,-2.400,-3.000
1.072,1.900,-9.500,-2.400,-3.100
1.073,1.500,-8.700,-2.300,-3.300
1.074,1.300,-7.700,-2.100,-3.700
1.075,1.200,-6.500,-1.900,-4.300
1.076,1.300,-5.400,-1.600,-5.100
1.077,1.400,-4.500,-1.300,-6.000
1.078,1.400,-4.100,-1.100,-6.900
1.079,1.400,-3.900,-1.000,-7.600
1.080,1.300,-3.900,-0.900,-8.100
1.081,1.300,-4.000,-0.900,-8.600
1.082,1.100,-4.500,-1.000,-8.900
1.083,0.600,-5.400,-1.000,-9.100
1.084,-0.200,-6.600,-1.200,-9.100
1.085,-1.300,-7.700,-1.300,-9.000
1.086,-2.600,-8.500,-1.500,-8.700
1.087,-3.900,-8.900,-1.600,-8.400
1.088,-5.000,-9.000,-1.700,-8.100
1.089,-5.900,-9.100,-1.800,-7.800
1.090,-6.700,-9.100,-1.900,-7.500
1.091,-7.300,-8.800,-2.100,-7.200
1.092,-7.500,-8.000,-2.300,-6.900
1.093,-7.200,-7.100,-2.700,-6.600
1.094,-6.300,-6.600,-3.100,-6.200
1.095,-5.000,-6.600,-3.500,-6.000
1.096,-3.400,-7.400,-3.900,-5.800
1.097,-1.700,-8.800,-4.200,-5.700
1.098,-0.200,-10.300,-4.500,-5.900
1.099,1.000,-12.100,-4.700,-6.300
1.100,2.100,-14.000,-4.900,-6.800
1.101,3.300,-16.200,-4.900,-7.400
1.102,4.400,-18.300,-4.800,-8.100
1.103,5.500,-20.100,-4.800,-9.100
1.104,6.600,-21.100,-4.700,-10.100
1.105,7.500,-21.300,-4.600,-11.200
1.106,8.400,-20.700,-4.500,-12.100
1.107,9.300,-19.600,-4.500,-12.800
1.108,10.200,-17.900,-4.500,-13.100
1.109,11.200,-15.700,-4.500,-13.100
1.110,12.000,-13.200,-4.600,-12.900
1.111,12.500,-10.500,-4.700,-12.400
1.112,12.500,-7.900,-4.800,-11.700
1.113,12.200,-5.600,-4.800,-10.600
1.114,11.500,-4.200,-4.800,-9.100
1.115,10.900,-3.900,-4.800,-7.500
1.116,10.300,-4.900,-4.800,-6.000
1.117,9.800,-6.800,-4.600,-4.800
1.118,9.100,-8.900,-4.500,-4.000
1.119,8.200,-10.700,-4.400,-3.500
1.120,7.300,-12.600,-4.500,-3.100
1.121,6.600,-15.600,-4.600,-2.900
1.122,6.000,-19.800,-4.600,-2.900
1.123,5.400,-24.000,-4.400,-3.400
1.124,4.000,-26.500,-4.100,-4.300
1.125,2.000,-26.800,-3.700,-5.400
1.126,0.000,-26.200,-3.500,-6.500
1.127,-1.000,-27.100,-3.400,-7.500
1.128,-0.600,-30.000,-3.400,-8.600
1.129,0.500,-32.900,-3.300,-9.800
1.130,0.900,-32.200,-3.100,-10.800
1.131,-0.300,-26.200,-2.800,-11.600
1.132,-2.500,-16.800,-2.500,-12.300
1.133,-4.300,-8.400,-2.400,-13.100
1.134,-4.500,-4.100,-2.400,-14.300
1.135,-3.000,-4.200,-2.600,-15.500
1.136,-0.700,-6.500,-2.800,-16.100
1.137,1.400,-9.000,-3.000,-16.000
1.138,2.900,-11.700,-3.400,-15.600
1.139,4.000,-15.900,-3.900,-16.000
1.140,5.100,-22.000,-4.600,-17.100
1.141,6.100,-28.800,-5.300,-18.200
1.142,6.700,-34.300,-5.900,-17.900
1.143,6.800,-37.600,-6.400,-15.300
1.144,6.600,-39.400,-6.800,-11.400
1.145,6.100,-40.600,-7.000,-7.800
1.146,5.400,-41.300,-7.200,-5.600
1.147,4.200,-41.000,-7.200,-4.800
1.148,2.700,-39.000,-7.100,-4.500
1.149,0.900,-36.000,-6.900,-4.000
1.150,-0.400,-33.000,-6.400,-3.500
1.151,-1.300,-31.000,-6.000,-3.800
1.152,-1.900,-29.700,-5.500,-5.200
1.153,-2.300,-28.300,-5.100,-7.200
1.154,-2.800,-26.700,-4.600,-8.800
1.155,-3.000,-24.700,-4.100,-9.600
1.156,-2.900,-22.700,-3.500,-9.900
1.157,-2.200,-20.700,-3.000,-10.100
1.158,-1.400,-18.200,-2.600,-10.500
1.159,-0.600,-15.300,-2.400,-10.700
1.160,-0.100,-12.100,-2.300,-10.400
1.161,0.200,-9.300,-2.300,-9.500
1.162,0.300,-7.400,-2.200,-8.500
1.163,0.300,-6.100,-2.100,-7.700
1.164,0.100,-5.300,-1.900,-7.100
1.165,-0.500,-5.100,-1.600,-6.800
1.166,-1.500,-5.500,-1.400,-6.500
1.167,-2.600,-7.000,-1.200,-6.200
1.168,-3.900,-9.500,-1.000,-6.100
1.169,-5.200,-12.500,-0.700,-6.200
1.170,-6.300,-15.500,-0.400,-6.600
1.171,-7.400,-18.200,-0.100,-7.100
1.172,-8.400,-20.700,0.200,-7.400
1.173,-9.300,-23.100,0.300,-7.700
1.174,-10.300,-25.300,0.400,-7.800
1.175,-11.200,-26.800,0.500,-8.200
1.176,-11.900,-26.900,0.500,-8.900
1.177,-12.300,-25.200,0.500,-9.600
1.178,-12.300,-21.800,0.500,-10.000
1.179,-11.700,-17.200,0.600,-10.000
1.180,-10.800,-12.100,0.600,-9.600
1.181,-9.700,-7.000,0.600,-9.000
1.182,-8.600,-1.900,0.600,-8.500
1.183,-7.500,3.100,0.700,-8.400
1.184,-6.500,7.700,0.800,-8.200
1.185,-5.300,10.800,1.100,-8.100
1.186,-4.100,11.700,1.300,-8.000
1.187,-2.700,10.700,1.500,-7.800
1.188,-1.400,8.400,1.600,-7.700
1.189,-0.200,5.300,1.600,-7.700
1.190,1.000,1.500,1.600,-7.600
1.191,2.200,-3.700,1.600,-7.500
1.192,3.500,-10.300,1.800,-7.400
1.193,4.700,-17.500,2.000,-7.300
1.194,5.500,-23.600,2.200,-7.200
1.195,5.700,-27.500,2.300,-6.900
1.196,5.100,-29.100,2.400,-6.500
1.197,4.100,-29.200,2.300,-6.300
1.198,2.800,-28.600,2.100,-6.400
1.199,1.700,-27.200,2.100,-6.800
1.200,0.600,-24.600,2.100,-7.300
1.201,-0.700,-20.600,2.100,-7.800
1.202,-2.400,-16.000,2.200,-8.200
1.203,-4.400,-11.800,2.100,-8.600
1.204,-6.400,-8.600,1.900,-8.900
1.205,-8.100,-6.400,1.600,-8.900
1.206,-9.100,-4.700,1.300,-8.500
1.207,-9.600,-3.400,1.200,-7.500
1.208,-9.700,-2.600,1.200,-6.000
1.209,-9.700,-2.400,1.300,-4.300
1.210,-9.500,-2.600,1.300,-2.700
1.211,-9.100,-2.600,1.300,-1.000
1.212,-8.300,-2.100,1.300,0.900
1.213,-7.500,-1.000,1.200,2.800
1.214,-6.700,0.600,1.200,4.600
1.215,-6.200,2.500,1.200,5.800
1.216,-6.100,5.100,1.200,6.300
1.217,-6.000,8.200,1.200,6.300
1.218,-5.900,11.600,1.100,6.000
1.219,-5.700,15.200,1.100,5.600
1.220,-5.800,19.300,1.200,5.100
1.221,-6.400,24.600,1.200,4.100
1.222,-7.200,30.700,1.100,2.600
1.223,-7.600,36.200,1.000,0.600
1.224,-6.900,39.000,0.800,-1.500
1.225,-5.200,38.800,0.600,-3.400
1.226,-3.400,37.600,0.500,-5.000
1.227,-2.700,38.200,0.500,-6.600
1.228,-3.400,41.500,0.500,-8.300
1.229,-4.500,45.100,0.500,-10.200
1.230,-4.600,45.000,0.400,-11.500
1.231,-2.800,38.900,0.300,-12.000
1.232,0.400,28.800,0.200,-11.900
1.233,3.300,19.300,0.100,-11.800
1.234,4.400,14.200,0.100,-12.000
1.235,3.600,14.100,0.000,-11.700
1.236,1.800,16.100,0.000,-9.900
1.237,0.100,17.500,-0.100,-6.400
1.238,-1.000,17.500,-0.200,-2.600
1.239,-2.100,17.200,-0.300,-0.900
1.240,-3.600,17.800,-0.300,-2.000
1.241,-5.400,19.200,-0.300,-4.400
1.242,-7.400,20.200,-0.200,-4.900
1.243,-9.000,19.600,-0.100,-1.500
1.244,-10.400,17.700,0.100,4.600
1.245,-11.700,15.300,0.300,10.600
1.246,-13.200,13.100,0.500,13.500
1.247,-14.600,10.800,0.600,13.200
1.248,-15.700,7.900,0.600,11.500
1.249,-16.100,4.000,0.500,10.400
1.250,-15.700,-0.700,0.300,10.300
1.251,-14.500,-5.500,0.200,10.100
1.252,-12.700,-9.800,0.000,8.900
1.253,-10.500,-13.700,-0.300,6.800
1.254,-7.800,-17.400,-0.600,4.500
1.255,-4.700,-21.300,-0.800,2.800
1.256,-1.000,-25.000,-1.000,1.400
1.257,3.000,-27.500,-1.200,0.000
1.258,7.000,-28.200,-1.500,-1.600
1.259,10.500,-26.800,-2.000,-3.200
1.260,13.300,-24.000,-2.500,-4.200
1.261,15.300,-20.500,-3.100,-4.700
1.262,16.700,-16.600,-3.600,-5.000
1.263,17.700,-11.700,-4.200,-5.200
1.264,18.100,-5.600,-4.700,-5.500
1.265,17.900,1.000,-5.300,-5.500
1.266,16.700,6.800,-5.900,-5.400
1.267,14.600,10.300,-6.300,-5.200
1.268,11.800,11.400,-6.400,-4.900
1.269,8.700,10.900,-6.300,-4.600
1.270,5.600,9.700,-5.900,-4.300
1.271,2.600,8.300,-5.300,-3.800
1.272,-0.300,6.300,-4.700,-3.200
1.273,-3.100,3.500,-4.100,-2.600
1.274,-5.800,0.000,-3.300,-2.000
1.275,-8.000,-3.200,-2.300,-1.600
1.276,-9.400,-5.400,-1.100,-1.000
1.277,-9.900,-6.200,0.100,-0.400
1.278,-9.600,-6.000,1.100,0.200
1.279,-8.700,-5.200,1.900,0.900
1.280,-7.500,-4.200,2.400,1.300
1.281,-6.000,-3.100,2.900,1.600
1.282,-4.200,-1.700,3.400,1.700
1.283,-2.000,-0.100,3.800,1.600
1.284,0.500,1.500,4.100,1.300
1.285,2.700,2.600,4.300,0.800
1.286,4.400,3.200,4.400,0.100
1.287,5.200,3.300,4.500,-0.500
1.288,5.600,3.100,4.600,-1.000
1.289,5.800,2.600,4.500,-1.300
1.290,6.300,1.600,4.300,-1.300
1.291,7.100,-0.200,3.900,-1.100
1.292,7.900,-2.900,3.600,-0.800
1.293,8.600,-6.200,3.300,-0.500
1.294,8.900,-9.500,2.800,-0.100
1.295,9.000,-12.200,2.200,0.200
1.296,9.200,-14.100,1.500,0.500
1.297,9.500,-15.200,0.700,0.600
1.298,9.800,-15.400,0.200,0.400
1.299,9.800,-14.900,-0.100,-0.300
1.300,9.500,-13.500,-0.300,-1.300
1.301,9.000,-11.200,-0.300,-2.600
1.302,8.400,-8.200,-0.400,-3.600
1.303,8.200,-4.900,-0.500,-4.300
1.304,8.300,-1.900,-0.700,-4.600
1.305,8.400,0.600,-0.900,-4.800
1.306,8.200,2.500,-1.200,-5.100
1.307,7.700,4.000,-1.200,-5.500
1.308,6.700,5.300,-1.100,-5.900
1.309,5.500,6.200,-0.700,-6.200
1.310,4.300,6.800,-0.100,-6.400
1.311,3.000,7.000,0.600,-6.600
1.312,1.800,6.900,1.200,-7.000
1.313,0.700,6.600,1.600,-7.500
1.314,-0.200,6.500,1.900,-7.700
1.315,-0.900,6.400,2.100,-7.300
1.316,-1.300,6.100,2.300,-6.300
1.317,-1.700,5.700,2.400,-5.100
1.318,-2.100,5.300,2.400,-3.900
1.319,-2.500,4.800,2.500,-3.000
1.320,-3.000,4.100,2.600,-2.100
1.321,-3.800,2.700,2.600,-1.200
1.322,-5.100,0.600,2.700,-0.300
1.323,-6.600,-1.600,2.600,0.400
1.324,-8.000,-2.700,2.400,0.800
1.325,-9.100,-2.400,2.300,1.000
1.326,-9.800,-1.800,2.000,1.100
1.327,-10.600,-2.300,1.800,1.500
1.328,-11.400,-4.400,1.500,2.100
1.329,-11.900,-6.400,1.100,3.000
1.330,-11.500,-6.000,0.800,3.900
1.331,-9.800,-2.000,0.500,4.600
1.332,-7.100,4.300,0.200,5.400
1.333,-4.300,10.100,0.100,6.400
1.334,-1.700,13.100,0.000,7.700
1.335,0.400,13.400,0.000,8.700
1.336,2.400,12.400,0.100,9.100
1.337,4.300,11.400,0.300,8.600
1.338,5.900,10.000,0.600,8.000
1.339,6.900,7.400,0.900,8.000
1.340,6.600,3.400,1.300,8.800
1.341,5.200,-1.000,1.600,9.600
1.342,3.200,-4.400,1.800,9.300
1.343,1.000,-5.900,1.900,7.000
1.344,-1.300,-6.200,1.900,3.300
1.345,-3.800,-5.900,1.800,-0.400
1.346,-6.700,-4.900,1.800,-3.000
1.347,-10.000,-2.500,1.700,-4.200
1.348,-13.300,1.400,1.700,-4.900
1.349,-16.200,6.100,1.700,-5.700
1.350,-18.200,10.000,2.000,-7.000
1.351,-19.200,12.300,2.300,-8.400
1.352,-19.500,13.000,2.700,-9.200
1.353,-19.400,12.900,3.300,-9.500
1.354,-19.000,12.800,3.900,-9.400
1.355,-18.500,12.400,4.600,-9.300
1.356,-17.600,11.300,5.500,-9.100
1.357,-16.400,8.700,6.400,-8.900
1.358,-15.100,4.700,7.100,-8.200
1.359,-13.900,-0.100,7.600,-7.300
1.360,-13.000,-5.100,7.800,-6.100
1.361,-12.300,-9.900,7.900,-5.000
1.362,-11.600,-14.600,7.900,-4.000
1.363,-10.800,-19.500,7.800,-3.200
1.364,-9.900,-24.700,7.700,-2.400
1.365,-9.200,-29.500,7.400,-1.600
1.366,-8.800,-33.100,7.100,-0.800
1.367,-8.700,-35.100,6.800,-0.300
1.368,-8.800,-35.400,6.700,0.000
1.369,-9.000,-34.600,6.600,0.200
1.370,-9.200,-33.300,6.600,0.600
1.371,-9.200,-31.500,6.600,1.300
1.372,-9.300,-29.000,6.400,2.400
1.373,-9.500,-25.800,6.400,3.400
1.374,-10.000,-22.200,6.400,4.300
1.375,-10.600,-18.900,6.600,5.000
1.376,-11.400,-16.500,6.900,5.700
1.377,-12.300,-15.100,7.300,6.300
1.378,-13.400,-14.400,7.600,6.900
1.379,-14.400,-14.100,7.700,7.200
1.380,-15.500,-14.100,7.800,7.100
1.381,-16.500,-14.200,7.800,6.600
1.382,-17.500,-14.600,7.800,6.000
1.383,-18.600,-14.900,7.700,5.300
1.384,-19.400,-14.800,7.500,4.400
1.385,-20.000,-13.800,7.300,3.500
1.386,-20.200,-12.000,7.100,2.400
1.387,-20.000,-9.600,7.000,1.300
1.388,-19.800,-7.100,6.900,0.200
1.389,-19.500,-5.000,6.900,-0.600
1.390,-19.000,-3.400,6.900,-1.400
1.391,-18.300,-2.300,6.700,-2.000
1.392,-17.300,-1.700,6.600,-2.500
1.393,-16.100,-1.900,6.400,-3.000
1.394,-15.200,-3.100,6.300,-3.400
1.395,-14.600,-5.000,6.200,-3.800
1.396,-14.300,-7.200,6.100,-4.300
1.397,-14.300,-8.900,6.000,-4.800
1.398,-14.300,-9.800,5.900,-5.500
1.399,-14.400,-10.100,5.800,-6.400
1.400,-14.500,-10.000,5.700,-7.400
1.401,-14.800,-9.500,5.600,-8.400
1.402,-15.200,-8.100,5.500,-9.500
1.403,-15.700,-5.800,5.300,-10.700
1.404,-16.100,-3.300,5.200,-12.000
1.405,-16.600,-1.400,5.000,-13.500
1.406,-17.300,-1.000,4.700,-15.000
1.407,-18.200,-2.200,4.500,-16.500
1.408,-19.100,-4.400,4.200,-17.700
1.409,-20.000,-7.200,4.000,-18.500
1.410,-20.700,-10.600,3.800,-19.000
1.411,-21.200,-14.800,3.700,-19.200
1.412,-21.500,-19.900,3.500,-19.000
1.413,-21.300,-24.900,3.400,-18.600
1.414,-20.600,-29.100,3.300,-17.600
1.415,-19.300,-31.900,3.100,-16.100
1.416,-17.700,-33.500,3.000,-14.100
1.417,-16.000,-34.200,3.000,-12.000
1.418,-14.300,-34.000,2.900,-9.900
1.419,-12.700,-32.300,2.900,-7.900
1.420,-11.300,-28.600,2.900,-5.900
1.421,-10.200,-22.900,2.800,-3.900
1.422,-9.300,-15.900,2.700,-1.700
1.423,-9.100,-8.600,2.600,0.500
1.424,-9.400,-2.000,2.400,2.500
1.425,-10.200,3.500,2.100,4.200
1.426,-11.000,8.000,1.800,5.500
1.427,-11.300,11.600,1.500,6.600
1.428,-10.900,14.200,1.200,7.800
1.429,-10.100,15.300,0.900,9.100
1.430,-9.300,14.500,0.700,10.000
1.431,-8.700,12.100,0.400,10.500
1.432,-8.500,8.800,0.100,10.400
1.433,-8.100,5.600,-0.100,10.300
1.434,-7.400,3.300,-0.400,10.300
1.435,-6.000,1.700,-0.500,10.100
1.436,-4.300,0.600,-0.700,9.100
1.437,-3.000,-0.500,-0.900,7.300
1.438,-2.600,-1.600,-1.000,5.300
1.439,-3.100,-2.600,-1.200,4.400
1.440,-4.200,-3.200,-1.400,5.100
1.441,-5.700,-3.700,-1.400,6.500
1.442,-7.100,-4.300,-1.400,6.900
1.443,-8.400,-5.300,-1.300,5.100
1.444,-9.500,-6.600,-1.100,1.600
1.445,-10.300,-8.000,-1.000,-1.700
1.446,-10.600,-9.100,-0.800,-3.500
1.447,-9.900,-9.800,-0.500,-3.600
1.448,-8.000,-10.000,-0.100,-2.900
1.449,-5.000,-9.800,0.300,-2.600
1.450,-1.200,-9.100,0.600,-3.200
1.451,2.900,-7.800,0.700,-4.200
1.452,6.900,-6.100,0.600,-5.100
1.453,10.500,-4.200,0.400,-6.000
1.454,13.900,-2.400,0.200,-7.000
1.455,16.900,-1.300,0.000,-8.400
1.456,19.300,-0.700,-0.200,-10.000
1.457,20.700,-0.200,-0.500,-11.600
1.458,20.800,0.600,-1.000,-13.000
1.459,19.600,1.700,-1.400,-14.300
1.460,17.600,2.700,-1.800,-15.300
1.461,15.400,3.200,-2.200,-15.600
1.462,13.200,3.000,-2.500,-14.800
1.463,11.100,2.700,-2.800,-12.900
1.464,8.800,2.400,-3.100,-10.200
1.465,6.400,1.600,-3.400,-7.300
1.466,4.000,-0.400,-3.700,-4.100
1.467,1.900,-4.000,-3.800,-0.500
1.468,0.200,-8.700,-3.900,3.700
1.469,-1.000,-13.400,-3.800,7.900
1.470,-2.000,-17.300,-3.700,11.400
1.471,-2.700,-20.400,-3.500,13.600
1.472,-3.300,-23.100,-3.500,14.600
1.473,-3.700,-25.600,-3.400,14.900
1.474,-3.900,-27.200,-3.300,14.800
1.475,-4.000,-26.900,-3.100,14.400
1.476,-3.900,-24.000,-2.800,13.400
1.477,-3.600,-18.900,-2.300,11.600
1.478,-3.000,-12.400,-1.900,9.200
1.479,-2.200,-5.800,-1.600,6.800
1.480,-1.200,0.500,-1.300,4.700
1.481,-0.300,6.600,-1.000,3.300
1.482,0.500,12.500,-0.800,2.400
1.483,1.300,17.900,-0.500,1.600
1.484,2.000,21.900,-0.300,1.000
1.485,2.800,23.200,-0.100,0.700
1.486,3.400,21.700,0.100,0.800
1.487,3.900,18.100,0.300,1.500
1.488,4.100,13.900,0.500,2.700
1.489,4.100,10.200,0.700,4.200
1.490,3.900,6.900,0.800,5.700
1.491,3.300,3.800,0.700,6.800
1.492,2.400,0.900,0.500,7.700
1.493,1.000,-0.700,0.300,8.400
1.494,-0.700,0.400,-0.100,9.100
1.495,-2.500,4.500,-0.300,9.500
1.496,-3.900,10.700,-0.500,9.700
1.497,-4.900,17.100,-0.600,9.600
1.498,-5.400,22.500,-0.700,9.200
1.499,-5.500,27.100,-0.900,8.800
1.500,-5.300,31.400,-1.000,8.400
1.501,-4.700,35.500,-1.200,7.900
1.502,-3.300,38.400,-1.200,7.400
1.503,-1.000,38.600,-1.200,6.800
1.504,2.000,35.800,-1.000,6.100
1.505,5.200,30.800,-0.800,5.500
1.506,7.900,25.300,-0.500,4.900
1.507,10.400,20.200,-0.300,4.600
1.508,12.700,15.300,0.000,4.300
1.509,14.900,10.200,0.500,4.200
1.510,16.800,4.600,1.000,4.100
1.511,17.500,-0.800,1.800,4.200
1.512,17.000,-4.900,2.600,4.500
1.513,15.400,-7.000,3.400,4.700
1.514,13.200,-6.700,4.300,5.000
1.515,10.700,-4.200,5.000,5.100
1.516,8.200,0.100,5.600,5.100
1.517,5.600,5.300,6.100,4.900
1.518,3.300,10.600,6.600,4.500
1.519,1.500,15.500,7.100,4.000
1.520,0.400,20.500,7.700,3.300
1.521,-0.200,25.800,8.200,2.500
1.522,-0.400,30.900,8.600,1.700
1.523,0.500,33.500,8.700,1.200
1.524,3.200,31.600,8.600,0.900
1.525,7.300,25.700,8.500,1.200
1.526,11.300,19.600,8.600,1.900
1.527,13.200,17.700,8.700,3.100
1.528,12.500,21.200,8.700,4.700
1.529,10.600,26.200,8.600,6.400
1.530,10.000,26.500,8.400,8.300
1.531,12.200,18.600,8.200,10.200
1.532,16.400,4.700,8.100,12.000
1.533,20.000,-8.800,8.000,13.800
1.534,21.000,-16.800,7.800,15.300
1.535,19.300,-18.900,7.500,16.500
1.536,16.400,-18.900,7.100,17.300
1.537,13.800,-20.400,6.700,17.800
1.538,12.100,-24.100,6.200,18.000
1.539,10.400,-28.000,5.600,18.100
1.540,8.100,-30.100,4.900,17.900
1.541,5.500,-30.400,4.100,17.400
1.542,3.200,-30.300,3.200,16.200
1.543,1.700,-30.800,2.200,14.500
1.544,0.900,-31.800,1.200,12.500
1.545,0.200,-32.300,0.300,10.500
1.546,-0.500,-31.800,-0.700,8.600
1.547,-0.700,-30.800,-1.600,6.800
1.548,-0.200,-29.600,-2.600,4.900
1.549,1.100,-27.800,-3.700,2.800
1.550,2.900,-25.100,-4.900,0.600
1.551,4.700,-21.500,-6.300,-1.600
1.552,6.400,-17.700,-7.800,-3.700
1.553,8.200,-14.500,-9.500,-5.700
1.554,10.300,-11.600,-11.300,-8.000
1.555,12.700,-8.300,-13.200,-10.500
1.556,15.100,-4.900,-15.200,-13.100
1.557,17.500,-2.300,-17.200,-15.700
1.558,19.400,-2.400,-19.500,-18.500
1.559,21.000,-6.300,-22.100,-21.500
1.560,22.200,-13.400,-24.700,-24.900
1.561,23.100,-22.600,-27.500,-28.600
1.562,23.600,-32.700,-30.100,-32.300
1.563,23.500,-43.700,-32.600,-36.000
1.564,22.400,-56.100,-34.700,-39.900
1.565,20.500,-70.000,-36.500,-43.900
1.566,17.700,-84.600,-37.900,-48.000
1.567,14.300,-98.400,-38.800,-52.200
1.568,10.500,-110.300,-39.200,-56.200
1.569,6.300,-119.900,-39.200,-59.900
1.570,1.900,-127.500,-38.700,-63.400
1.571,-2.500,-133.700,-38.000,-66.500
1.572,-6.200,-138.100,-37.300,-69.200
1.573,-8.700,-140.000,-36.600,-71.200
1.574,-9.800,-138.600,-36.200,-72.600
1.575,-9.600,-133.600,-35.800,-73.200
1.576,-8.800,-125.800,-35.400,-73.200
1.577,-8.000,-116.400,-34.600,-72.500
1.578,-7.700,-106.700,-33.200,-71.000
1.579,-8.400,-97.200,-31.200,-68.600
1.580,-10.000,-87.600,-28.500,-65.200
1.581,-12.500,-77.800,-25.100,-61.100
1.582,-15.700,-68.000,-21.300,-56.400
1.583,-19.500,-59.000,-17.100,-51.100
1.584,-23.900,-51.600,-12.800,-45.500
1.585,-28.800,-46.200,-8.300,-39.400
1.586,-34.100,-42.400,-3.900,-32.900
1.587,-39.500,-39.100,0.500,-26.200
1.588,-44.700,-35.500,4.800,-19.500
1.589,-49.400,-31.500,9.000,-12.800
1.590,-53.900,-27.600,13.100,-6.200
1.591,-58.000,-24.600,16.900,0.000
1.592,-61.500,-22.000,20.500,5.600
1.593,-63.500,-18.400,23.600,10.600
1.594,-63.600,-12.400,26.100,14.900
1.595,-61.400,-3.900,27.900,18.600
1.596,-57.400,5.900,28.800,21.500
1.597,-52.200,15.300,28.900,23.800
1.598,-45.900,23.400,28.200,25.300
1.599,-38.600,30.700,26.800,26.100
1.600,-29.900,37.800,24.700,26.200
1.601,-20.300,44.600,21.900,26.000
1.602,-10.600,49.700,18.600,25.400
1.603,-1.900,51.600,15.200,24.700
1.604,5.200,49.900,11.600,23.600
1.605,11.000,45.800,8.100,22.200
1.606,16.000,40.800,4.900,20.600
1.607,20.300,35.800,2.000,18.900
1.608,23.900,30.500,-0.500,17.200
1.609,26.300,24.400,-2.600,15.700
1.610,27.400,17.900,-4.200,14.300
1.611,27.200,11.800,-5.500,13.000
1.612,26.500,7.100,-6.500,11.600
1.613,25.600,4.300,-7.200,10.200
1.614,24.900,2.700,-7.700,9.200
1.615,24.500,1.900,-7.900,8.500
1.616,24.300,1.500,-7.900,8.200
1.617,24.200,1.500,-8.000,8.100
1.618,24.100,2.200,-7.900,8.000
1.619,24.200,3.600,-7.800,7.600
1.620,24.500,5.600,-7.500,7.200
1.621,25.100,7.800,-7.200,6.900
1.622,25.800,9.900,-7.000,6.700
1.623,26.200,11.900,-6.800,6.700
1.624,26.100,13.600,-6.700,6.700
1.625,25.300,15.300,-6.500,6.600
1.626,24.400,16.800,-6.300,6.400
1.627,23.700,17.800,-6.000,6.100
1.628,23.300,17.900,-5.700,5.500
1.629,22.700,17.200,-5.300,4.900
1.630,21.400,15.700,-5.000,4.400
1.631,19.100,13.700,-4.600,3.900
1.632,16.100,11.500,-4.200,3.700
1.633,13.100,9.100,-3.700,3.700
1.634,10.600,6.600,-3.100,3.500
1.635,8.800,3.900,-2.700,3.400
1.636,7.400,1.500,-2.300,3.100
1.637,5.900,-0.600,-2.000,2.900
1.638,4.100,-2.300,-1.800,2.700
1.639,2.000,-3.600,-1.600,2.600
1.640,0.000,-4.800,-1.500,2.500
1.641,-1.700,-5.800,-1.300,2.500
1.642,-3.100,-6.800,-1.100,2.600
1.643,-4.200,-7.700,-0.900,2.800
1.644,-5.100,-8.700,-0.800,2.900
1.645,-5.800,-9.600,-0.700,2.900
1.646,-6.200,-10.500,-0.600,2.700
1.647,-6.300,-11.300,-0.500,2.400
1.648,-5.900,-11.500,-0.300,2.000
1.649,-4.900,-10.900,-0.100,1.500
1.650,-3.400,-9.400,0.100,1.000
1.651,-1.400,-7.200,0.400,0.300
1.652,0.800,-4.700,0.600,-0.500
1.653,3.000,-2.200,0.800,-1.300
1.654,5.100,0.500,0.900,-1.900
1.655,7.000,3.500,0.900,-2.400
1.656,8.800,6.800,0.800,-3.000
1.657,10.500,9.900,0.600,-3.600
1.658,11.800,12.100,0.400,-4.100
1.659,12.900,13.100,0.200,-4.100
1.660,13.500,13.000,-0.100,-3.700
1.661,13.800,12.300,-0.300,-2.900
1.662,13.900,11.000,-0.500,-2.000
1.663,13.700,9.200,-0.700,-1.100
1.664,13.200,6.600,-0.900,-0.400
1.665,12.400,3.200,-1.100,0.200
1.666,11.100,-0.500,-1.300,0.700
1.667,9.400,-3.900,-1.400,1.100
1.668,7.100,-6.600,-1.400,1.400
1.669,4.600,-8.700,-1.500,1.500
1.670,1.900,-10.400,-1.400,1.500
1.671,-0.900,-11.800,-1.400,1.600
1.672,-3.800,-12.800,-1.300,1.800
1.673,-6.900,-13.400,-1.300,1.900
1.674,-10.000,-13.700,-1.200,2.000
1.675,-13.200,-13.800,-1.200,1.900
1.676,-16.000,-13.600,-1.200,1.700
1.677,-18.400,-13.200,-1.100,1.500
1.678,-20.100,-12.400,-1.000,1.300
1.679,-21.300,-11.400,-0.900,1.200
1.680,-21.800,-10.300,-0.800,1.200
1.681,-22.000,-9.200,-0.800,1.200
1.682,-21.700,-8.100,-0.900,1.400
1.683,-20.700,-6.900,-1.000,1.700
1.684,-18.800,-5.400,-1.100,2.100
1.685,-15.700,-4.200,-1.200,2.700
1.686,-11.500,-3.500,-1.200,3.200
1.687,-6.700,-3.400,-1.200,3.500
1.688,-1.700,-3.600,-1.100,3.800
1.689,3.200,-3.700,-1.000,3.900
1.690,7.900,-3.400,-0.800,4.100
1.691,12.700,-2.400,-0.700,4.200
1.692,17.400,-0.800,-0.500,4.300
1.693,21.700,1.700,-0.300,4.200
1.694,24.800,5.100,-0.200,4.100
1.695,26.500,9.200,-0.100,3.800
1.696,26.900,13.500,-0.100,3.300
1.697,26.500,17.200,-0.200,2.600
1.698,26.000,19.900,-0.200,1.700
1.699,25.400,21.500,-0.300,0.800
1.700,24.700,22.200,-0.400,-0.200
1.701,23.300,22.000,-0.500,-1.000
1.702,21.000,20.700,-0.700,-1.800
1.703,18.000,17.900,-0.800,-2.700
1.704,14.700,13.700,-0.800,-3.700
1.705,11.600,8.500,-0.800,-4.800
1.706,8.600,3.200,-0.800,-5.600
1.707,5.800,-2.000,-0.900,-6.000
1.708,3.100,-6.900,-0.900,-6.100
1.709,0.600,-11.800,-0.800,-5.900
1.710,-1.700,-17.100,-0.800,-5.700
1.711,-3.500,-22.600,-0.700,-5.600
1.712,-4.600,-27.800,-0.600,-5.400
1.713,-5.200,-31.600,-0.600,-4.900
1.714,-5.200,-33.700,-0.600,-4.000
1.715,-5.100,-33.400,-0.600,-2.700
1.716,-5.200,-31.000,-0.600,-1.100
1.717,-5.300,-27.300,-0.600,0.400
1.718,-5.400,-23.200,-0.600,1.700
1.719,-5.200,-18.900,-0.500,2.700
1.720,-5.200,-13.700,-0.300,3.700
1.721,-5.700,-6.900,-0.200,4.600
1.722,-7.000,1.100,-0.300,5.200
1.723,-8.200,7.900,-0.600,5.600
1.724,-8.400,10.600,-1.100,5.600
1.725,-7.300,9.100,-1.600,5.300
1.726,-6.100,6.300,-1.900,4.700
1.727,-5.900,6.400,-2.000,3.900
1.728,-7.400,10.600,-2.100,3.000
1.729,-9.100,15.100,-2.400,1.800
1.730,-8.800,14.000,-2.600,0.500
1.731,-5.400,4.400,-2.600,-0.700
1.732,0.200,-10.500,-2.400,-1.900
1.733,5.500,-23.900,-2.200,-3.100
1.734,8.800,-30.400,-1.900,-4.600
1.735,9.900,-29.800,-1.800,-6.100
1.736,10.100,-26.000,-1.700,-7.100
1.737,10.800,-22.500,-1.500,-7.500
1.738,11.700,-19.300,-1.300,-7.700
1.739,11.900,-14.600,-1.200,-8.000
1.740,10.900,-7.300,-1.300,-8.700
1.741,9.100,0.800,-1.500,-9.300
1.742,7.500,7.100,-1.700,-9.200
1.743,6.800,10.000,-1.900,-8.000
1.744,6.700,10.600,-2.100,-6.200
1.745,6.700,10.200,-2.400,-4.500
1.746,6.800,9.300,-2.800,-3.500
1.747,7.200,7.000,-3.300,-3.300
1.748,8.300,2.700,-3.500,-3.300
1.749,9.900,-3.000,-3.700,-3.300
1.750,11.600,-8.100,-3.500,-3.400
1.751,12.900,-11.300,-3.400,-4.100
1.752,13.800,-12.700,-3.300,-5.200
1.753,14.500,-13.400,-3.500,-6.600
1.754,15.200,-14.200,-3.900,-7.400
1.755,15.700,-14.900,-4.300,-7.500
1.756,15.500,-15.000,-4.500,-7.000
1.757,14.400,-13.900,-4.400,-6.500
1.758,12.400,-12.000,-4.100,-6.300
1.759,9.600,-10.200,-3.800,-6.200
1.760,6.700,-8.800,-3.500,-6.200
1.761,3.800,-7.800,-3.400,-6.000
1.762,1.400,-6.700,-3.300,-5.500
1.763,-0.700,-5.100,-3.400,-4.800
1.764,-2.500,-2.800,-3.500,-3.900
1.765,-4.200,-0.500,-3.800,-3.100
1.766,-5.700,0.800,-4.100,-2.200
1.767,-7.000,0.600,-4.300,-1.500
1.768,-8.100,-0.800,-4.500,-1.000
1.769,-9.100,-2.800,-4.400,-0.600
1.770,-10.000,-5.000,-4.400,-0.400
1.771,-10.900,-7.200,-4.200,-0.200
1.772,-11.900,-9.700,-4.100,0.000
1.773,-12.800,-12.500,-3.900,0.100
1.774,-13.500,-15.000,-3.800,0.100
1.775,-13.900,-16.500,-3.700,0.000
1.776,-13.600,-16.900,-3.700,-0.300
1.777,-12.300,-16.300,-3.800,-0.900
1.778,-10.000,-15.400,-3.900,-1.400
1.779,-6.900,-14.300,-4.000,-1.800
1.780,-3.300,-13.300,-4.100,-2.000
1.781,0.400,-12.300,-4.200,-2.200
1.782,4.400,-11.600,-4.300,-2.600
1.783,8.800,-12.000,-4.500,-3.100
1.784,13.300,-13.800,-4.600,-3.800
1.785,17.400,-16.800,-4.700,-4.600
1.786,20.600,-20.600,-4.600,-5.300
1.787,22.500,-24.100,-4.300,-5.900
1.788,23.400,-27.000,-4.000,-6.400
1.789,23.700,-28.900,-3.800,-7.100
1.790,23.700,-29.800,-3.700,-7.900
1.791,23.300,-29.400,-3.500,-8.800
1.792,22.200,-27.500,-3.300,-9.500
1.793,20.300,-23.700,-3.000,-10.100
1.794,17.700,-18.100,-2.800,-10.700
1.795,14.800,-11.300,-2.800,-11.400
1.796,12.000,-4.500,-3.100,-12.100
1.797,9.600,1.400,-3.600,-12.500
1.798,7.300,6.000,-4.100,-12.500
1.799,4.900,9.500,-4.500,-11.800
1.800,2.600,12.100,-4.800,-10.900
1.801,0.500,13.900,-5.100,-9.800
1.802,-1.000,14.500,-5.300,-8.600
1.803,-1.600,13.400,-5.600,-7.200
1.804,-1.500,10.700,-5.900,-5.600
1.805,-0.900,7.000,-6.200,-3.900
1.806,-0.100,3.000,-6.400,-2.700
1.807,0.900,-0.900,-6.400,-2.000
1.808,2.100,-4.700,-6.400,-1.800
1.809,3.500,-8.900,-6.400,-1.900
1.810,5.100,-13.600,-6.200,-2.000
1.811,6.300,-18.600,-6.100,-2.200
1.812,7.200,-23.400,-5.900,-2.600
1.813,7.700,-27.400,-5.700,-3.300
1.814,7.900,-30.400,-5.500,-4.100
1.815,8.000,-32.500,-5.200,-4.700
1.816,7.900,-34.300,-5.100,-5.100
1.817,7.600,-35.700,-4.900,-5.400
1.818,7.100,-36.200,-4.700,-6.000
1.819,6.300,-35.700,-4.500,-6.700
1.820,5.500,-34.000,-4.400,-7.400
1.821,4.900,-31.800,-4.300,-8.200
1.822,4.500,-29.700,-4.200,-9.100
1.823,4.200,-27.700,-4.300,-10.200
1.824,4.000,-25.600,-4.300,-11.500
1.825,3.800,-23.000,-4.300,-12.800
1.826,3.700,-20.600,-4.300,-13.900
1.827,3.500,-19.200,-4.300,-14.800
1.828,3.400,-19.400,-4.300,-15.800
1.829,3.400,-20.400,-4.500,-16.800
1.830,3.300,-20.900,-4.600,-17.500
1.831,3.300,-19.700,-4.600,-17.600
1.832,3.100,-17.300,-4.400,-17.100
1.833,3.000,-14.800,-4.200,-16.500
1.834,2.900,-13.400,-4.100,-16.000
1.835,2.900,-12.900,-4.000,-15.000
1.836,3.000,-12.600,-3.900,-12.500
1.837,3.100,-12.000,-3.800,-8.800
1.838,3.100,-11.300,-3.600,-5.000
1.839,3.000,-11.400,-3.400,-3.200
1.840,2.800,-12.500,-3.300,-4.200
1.841,2.600,-14.400,-3.100,-6.300
1.842,2.400,-16.300,-2.900,-6.700
1.843,2.400,-18.000,-2.700,-3.800
1.844,2.500,-19.400,-2.300,1.600
1.845,2.600,-20.700,-1.900,6.700
1.846,2.600,-21.700,-1.600,9.100
1.847,2.400,-21.600,-1.200,8.600
1.848,2.200,-20.200,-1.000,6.700
1.849,2.000,-17.700,-0.900,5.300
1.850,1.700,-14.700,-0.800,4.700
1.851,1.500,-12.100,-0.800,4.100
1.852,1.200,-10.000,-0.600,2.700
1.853,1.000,-8.400,-0.400,0.400
1.854,0.600,-7.200,-0.200,-1.900
1.855,0.300,-6.700,-0.100,-3.700
1.856,-0.100,-7.200,0.000,-5.000
1.857,-0.500,-8.900,0.000,-6.300
1.858,-1.000,-11.300,0.000,-7.900
1.859,-1.300,-14.200,0.000,-9.800
1.860,-1.500,-16.700,0.000,-11.500
1.861,-1.500,-18.900,0.100,-12.900
1.862,-1.500,-20.700,0.100,-14.000
1.863,-1.500,-22.300,0.100,-15.000
1.864,-1.900,-23.800,0.100,-15.800
1.865,-2.300,-25.000,0.100,-16.500
1.866,-2.800,-25.600,0.100,-17.000
1.867,-3.000,-25.100,0.100,-17.000
1.868,-3.000,-23.600,0.100,-16.700
1.869,-2.800,-21.500,0.200,-15.900
1.870,-2.700,-19.100,0.400,-14.600
1.871,-2.700,-16.400,0.600,-13.100
1.872,-2.600,-13.600,0.800,-11.400
1.873,-2.600,-10.500,0.900,-9.700
1.874,-2.600,-7.300,1.000,-8.100
1.875,-2.700,-4.500,1.300,-6.400
1.876,-2.900,-2.800,1.600,-4.800
1.877,-3.100,-2.300,2.000,-3.400
1.878,-3.100,-3.100,2.300,-2.300
1.879,-3.000,-4.500,2.400,-1.300
1.880,-2.800,-6.100,2.300,-0.700
1.881,-2.600,-7.900,2.100,-0.200
1.882,-2.300,-10.200,1.900,0.200
1.883,-2.000,-13.100,1.800,0.400
1.884,-1.700,-16.200,1.800,0.400
1.885,-1.300,-18.500,1.800,0.300
1.886,-0.900,-19.000,1.800,-0.100
1.887,-0.800,-17.700,1.800,-0.400
1.888,-0.600,-15.200,1.700,-0.800
1.889,-0.500,-12.300,1.700,-1.000
1.890,-0.300,-9.300,1.600,-1.000
1.891,-0.200,-5.800,1.600,-1.000
1.892,0.000,-1.500,1.700,-1.000
1.893,0.100,3.100,1.700,-0.900
1.894,0.100,7.300,1.700,-0.800
1.895,0.000,9.900,1.600,-0.700
1.896,-0.100,10.600,1.500,-0.400
1.897,-0.300,10.100,1.400,-0.200
1.898,-0.600,8.900,1.200,-0.100
1.899,-0.800,7.300,1.100,-0.200
1.900,-1.000,5.000,1.000,-0.400
1.901,-1.200,1.700,0.900,-0.600
1.902,-1.400,-2.400,0.800,-0.800
1.903,-1.700,-6.700,0.700,-0.900
1.904,-2.100,-10.200,0.600,-1.000
1.905,-2.400,-12.100,0.500,-1.200
1.906,-2.600,-12.300,0.300,-1.400
1.907,-2.700,-11.100,0.200,-1.700
1.908,-2.700,-8.900,0.100,-2.000
1.909,-2.600,-5.900,0.000,-2.300
1.910,-2.200,-1.900,-0.100,-2.600
1.911,-1.500,3.200,-0.100,-2.800
1.912,-0.600,8.800,-0.100,-3.000
1.913,0.400,14.100,0.100,-3.300
1.914,1.100,18.300,0.200,-3.600
1.915,1.500,21.400,0.500,-4.100
1.916,1.600,24.000,0.700,-4.600
1.917,1.600,26.100,0.900,-5.200
1.918,1.600,27.400,1.100,-5.700
1.919,1.700,26.900,1.200,-6.200
1.920,1.900,25.000,1.200,-6.600
1.921,1.900,22.500,1.200,-6.900
1.922,1.900,19.700,1.200,-7.200
1.923,1.700,15.700,1.200,-7.300
1.924,1.400,8.900,1.200,-7.100
1.925,1.000,-0.700,1.100,-6.400
1.926,0.800,-9.900,1.000,-5.500
1.927,0.700,-14.900,0.800,-4.200
1.928,0.700,-13.900,0.600,-2.700
1.929,0.800,-9.700,0.500,-1.200
1.930,0.800,-7.600,0.300,0.400
1.931,0.700,-10.900,0.000,2.100
1.932,0.400,-17.900,-0.300,3.800
1.933,0.100,-23.000,-0.500,5.300
1.934,-0.200,-21.600,-0.700,6.600
1.935,-0.200,-13.300,-0.700,7.400
1.936,-0.100,-1.800,-0.500,7.600
1.937,0.100,8.700,-0.300,7.500
1.938,0.300,16.200,-0.100,7.400
1.939,0.600,21.200,0.200,7.600
1.940,0.800,24.600,0.500,8.100
1.941,1.000,26.400,0.800,8.500
1.942,1.300,25.600,1.000,8.300
1.943,1.400,22.200,1.200,7.200
1.944,1.500,16.800,1.200,5.700
1.945,1.400,10.500,1.200,4.100
1.946,1.300,3.600,1.200,3.000
1.947,1.200,-4.100,1.200,2.400
1.948,1.300,-11.900,1.300,1.900
1.949,1.300,-18.500,1.200,1.500
1.950,1.300,-22.400,1.000,1.000
1.951,1.100,-23.500,0.600,0.600
1.952,0.900,-22.800,0.000,0.500
1.953,0.700,-21.300,-0.500,0.600
1.954,0.600,-19.100,-0.900,0.900
1.955,0.600,-15.600,-1.200,1.000
1.956,0.600,-10.600,-1.500,1.000
1.957,0.500,-5.400,-1.700,0.800
1.958,0.400,-1.700,-1.800,0.600
1.959,0.400,-0.600,-1.700,0.200
1.960,0.400,-1.700,-1.500,-0.400
1.961,0.500,-3.700,-1.200,-1.200
1.962,0.600,-5.500,-0.900,-1.900
1.963,0.600,-7.500,-0.600,-2.600
1.964,0.500,-10.300,-0.500,-3.200
1.965,0.400,-13.900,-0.200,-3.800
1.966,0.200,-17.300,-0.100,-4.600
1.967,-0.100,-19.100,0.100,-5.400
1.968,-0.300,-18.600,0.200,-6.200
1.969,-0.400,-16.300,0.200,-6.800
1.970,-0.400,-12.900,0.300,-6.900
1.971,-0.400,-9.100,0.300,-6.500
1.972,-0.600,-4.800,0.300,-5.600
1.973,-0.800,0.300,0.300,-4.500
1.974,-1.000,6.200,0.200,-3.500
1.975,-1.000,12.000,0.100,-2.600
1.976,-0.800,16.600,0.000,-1.700
1.977,-0.500,19.200,-0.100,-0.900
1.978,-0.200,19.600,-0.200,0.000
1.979,-0.100,18.600,-0.300,0.900
1.980,0.000,16.900,-0.600,1.800
1.981,0.100,14.600,-0.800,2.600
1.982,0.200,11.100,-0.900,3.300
1.983,0.400,6.100,-0.900,3.800
1.984,0.500,0.200,-0.800,4.400
1.985,0.500,-5.200,-0.500,4.800
1.986,0.500,-8.600,-0.200,5.200
1.987,0.400,-9.600,0.000,5.500
1.988,0.400,-9.100,0.100,5.400
1.989,0.300,-8.000,0.100,5.000
1.990,0.200,-6.400,0.100,4.300
1.991,0.100,-4.100,0.100,3.400
1.992,0.200,-0.400,0.100,2.600
1.993,0.300,3.700,0.100,1.700
1.994,0.500,6.900,-0.100,0.700
1.995,0.600,8.100,-0.400,-0.500
1.996,0.600,7.400,-0.900,-1.700
1.997,0.600,6.000,-1.300,-2.700
1.998,0.400,4.700,-1.600,-3.400
1.999,0.200,3.300,-1.700,-3.700
2.000,-0.100,1.500,-1.600,-3.600
2.001,-0.400,-0.700,-1.500,-3.300
2.002,-0.700,-2.600,-1.500,-2.700
2.003,-0.900,-3.100,-1.400,-1.600
2.004,-1.000,-2.200,-1.300,0.100
2.005,-1.100,-0.800,-1.300,2.000
2.006,-1.200,0.000,-1.100,3.800
2.007,-1.200,0.200,-0.800,5.200
2.008,-1.200,0.300,-0.500,6.000
2.009,-1.000,0.400,0.000,6.500
2.010,-0.900,0.100,0.400,6.900
2.011,-0.800,-1.700,0.800,7.300
2.012,-0.900,-5.000,1.200,7.600
2.013,-1.200,-9.100,1.600,7.600
2.014,-1.400,-13.100,2.100,7.100
2.015,-1.600,-16.500,2.600,6.100
2.016,-1.600,-19.700,3.000,4.900
2.017,-1.600,-23.000,3.200,3.700
2.018,-1.700,-25.700,3.300,2.700
2.019,-1.800,-26.900,3.400,1.800
2.020,-1.900,-26.900,3.700,1.000
2.021,-2.100,-26.600,4.100,0.200
2.022,-2.300,-26.200,4.200,-0.800
2.023,-2.500,-24.400,3.900,-1.700
2.024,-2.800,-19.100,3.500,-2.500
2.025,-3.000,-10.300,3.100,-3.100
2.026,-3.400,-1.400,2.900,-3.700
2.027,-3.800,2.800,3.000,-4.200
2.028,-4.100,0.400,3.200,-4.800
2.029,-4.500,-4.900,3.300,-5.300
2.030,-4.700,-6.700,3.300,-5.800
2.031,-4.800,-1.000,3.100,-6.000
2.032,-4.900,9.600,3.000,-6.000
2.033,-5.100,18.200,2.900,-6.000
2.034,-5.400,19.200,2.800,-6.000
2.035,-5.900,12.500,2.700,-5.700
2.036,-6.400,2.600,2.700,-4.900
2.037,-7.000,-6.200,2.600,-3.700
2.038,-7.600,-12.500,2.600,-2.500
2.039,-8.100,-17.700,2.500,-2.000
2.040,-8.500,-22.800,2.300,-2.300
2.041,-9.000,-27.100,2.100,-3.000
2.042,-9.500,-28.600,2.100,-3.200
2.043,-10.000,-26.500,2.300,-2.500
2.044,-10.400,-21.800,2.600,-1.100
2.045,-10.700,-16.000,2.900,0.100
2.046,-10.900,-9.600,3.200,0.300
2.047,-10.900,-2.100,3.500,-0.200
2.048,-11.000,6.600,3.900,-1.200
2.049,-11.000,15.200,4.300,-1.900
2.050,-11.100,21.800,4.700,-2.400
2.051,-11.300,25.200,5.000,-2.700
2.052,-11.400,25.900,5.200,-3.100
2.053,-11.600,25.100,5.500,-3.700
2.054,-11.900,23.500,5.700,-3.900
2.055,-12.100,20.700,5.800,-3.900
2.056,-12.400,15.900,5.900,-3.500
2.057,-12.800,8.900,5.800,-2.900
2.058,-13.400,0.600,5.600,-2.200
2.059,-14.100,-7.500,5.500,-1.300
2.060,-14.800,-14.600,5.300,-0.300
2.061,-15.600,-20.400,5.300,0.900
2.062,-16.300,-25.400,5.200,2.000
2.063,-17.000,-29.900,5.100,2.800
2.064,-17.600,-34.000,5.000,3.500
2.065,-18.100,-36.900,4.800,3.900
2.066,-18.600,-37.800,4.700,4.300
2.067,-18.900,-36.400,4.700,4.400
2.068,-19.100,-33.100,4.800,4.300
2.069,-19.400,-28.700,4.900,3.800
2.070,-19.700,-24.100,5.200,3.100
2.071,-20.000,-19.500,5.400,2.200
2.072,-20.400,-14.800,5.600,1.300
2.073,-20.600,-9.900,5.800,0.500
2.074,-20.700,-5.100,6.000,-0.200
2.075,-20.600,-1.000,6.200,-1.000
2.076,-20.400,1.700,6.400,-1.900
2.077,-20.200,2.800,6.700,-2.700
2.078,-20.100,2.700,6.900,-3.500
2.079,-20.100,1.800,6.900,-4.000
2.080,-20.000,0.300,6.900,-4.200
2.081,-19.900,-1.900,6.800,-4.400
2.082,-19.800,-5.000,6.700,-4.500
2.083,-19.600,-8.900,6.600,-4.800
2.084,-19.500,-13.700,6.500,-5.200
2.085,-19.500,-19.000,6.400,-5.400
2.086,-19.500,-24.300,6.200,-5.500
2.087,-19.600,-29.100,6.000,-5.400
2.088,-19.700,-32.900,5.800,-5.200
2.089,-19.700,-35.500,5.600,-5.000
2.090,-19.600,-37.500,5.500,-5.000
2.091,-19.400,-38.900,5.300,-5.200
2.092,-19.000,-39.500,5.100,-5.500
2.093,-18.500,-38.300,4.700,-5.900
2.094,-18.000,-34.600,4.300,-6.200
2.095,-17.500,-28.300,4.000,-6.600
2.096,-17.100,-20.700,3.800,-6.700
2.097,-16.700,-13.100,3.700,-6.500
2.098,-16.200,-6.300,3.500,-5.900
2.099,-15.600,0.200,3.300,-5.200
2.100,-14.900,6.700,3.000,-4.300
2.101,-14.200,13.100,2.700,-3.500
2.102,-13.600,18.100,2.400,-2.800
2.103,-13.100,20.700,2.300,-2.000
2.104,-12.700,20.800,2.200,-1.200
2.105,-12.200,19.600,2.100,-0.300
2.106,-11.700,18.600,2.000,0.500
2.107,-11.200,18.300,1.800,1.000
2.108,-10.700,18.600,1.700,1.300
2.109,-10.200,18.600,1.700,1.300
2.110,-9.800,18.300,1.700,1.100
2.111,-9.400,17.800,1.700,0.700
2.112,-9.100,17.500,1.600,0.200
2.113,-8.800,17.400,1.300,-0.600
2.114,-8.500,17.100,1.200,-1.500
2.115,-8.200,16.500,1.200,-2.400
2.116,-7.700,15.400,1.300,-3.200
2.117,-7.000,14.300,1.500,-3.700
2.118,-6.300,13.000,1.600,-3.900
2.119,-5.800,11.400,1.700,-4.000
2.120,-5.500,9.500,1.600,-4.000
2.121,-5.500,7.400,1.400,-3.800
2.122,-5.400,4.900,1.300,-3.200
2.123,-5.100,1.700,1.300,-2.200
2.124,-4.600,-2.900,1.200,-1.000
2.125,-4.000,-8.400,1.100,0.300
2.126,-3.400,-13.400,0.900,1.200
2.127,-2.800,-16.300,0.600,1.600
2.128,-2.200,-16.300,0.200,1.500
2.129,-1.700,-14.700,-0.200,1.200
2.130,-1.500,-13.200,-0.500,0.800
2.131,-1.500,-13.300,-0.800,0.400
2.132,-1.700,-14.200,-1.100,-0.200
2.133,-1.900,-13.900,-1.400,-1.200
2.134,-1.900,-10.900,-1.600,-2.500
2.135,-1.600,-5.100,-1.800,-3.500
2.136,-1.200,2.000,-2.000,-3.800
2.137,-0.700,8.700,-2.300,-3.200
2.138,-0.200,14.000,-2.500,-2.400
2.139,0.100,17.700,-2.600,-2.300
2.140,0.400,19.700,-2.600,-3.000
2.141,0.500,20.100,-2.400,-3.900
2.142,0.800,18.600,-2.300,-3.900
2.143,1.000,15.600,-2.200,-2.300
2.144,1.300,11.400,-2.100,0.400
2.145,1.700,6.600,-2.100,2.800
2.146,2.100,1.300,-1.900,4.200
2.147,2.400,-4.400,-1.800,4.400
2.148,2.500,-10.100,-1.600,4.300
2.149,2.600,-14.600,-1.500,4.400
2.150,2.600,-17.100,-1.500,4.800
2.151,2.700,-17.100,-1.400,5.000
2.152,2.800,-15.500,-1.300,4.500
2.153,3.000,-13.000,-1.300,3.800
2.154,3.100,-9.900,-1.400,3.100
2.155,3.300,-5.900,-1.500,3.000
2.156,3.400,-0.800,-1.700,3.100
2.157,3.500,5.200,-1.900,3.100
2.158,3.500,11.200,-2.100,2.900
2.159,3.600,16.200,-2.400,2.700
2.160,3.700,19.800,-2.700,2.600
2.161,3.700,22.400,-3.000,2.800
2.162,3.600,24.400,-3.300,3.200
2.163,3.400,26.000,-3.400,3.400
2.164,3.200,26.800,-3.500,3.600
2.165,3.000,26.500,-3.400,3.700
2.166,2.900,25.000,-3.200,3.800
2.167,2.900,22.200,-3.100,4.000
2.168,3.000,18.400,-3.000,4.200
2.169,3.100,13.800,-3.000,4.400
2.170,3.000,8.900,-3.100,4.500
2.171,3.000,4.200,-3.100,4.400
2.172,3.000,-0.200,-3.200,4.200
2.173,3.100,-4.500,-3.300,4.000
2.174,3.400,-9.200,-3.500,3.700
2.175,3.500,-14.200,-3.700,3.500
2.176,3.500,-19.100,-3.900,3.400
2.177,3.300,-23.200,-4.200,3.400
2.178,3.000,-26.200,-4.400,3.300
2.179,2.600,-28.800,-4.400,3.200
2.180,2.300,-31.400,-4.200,3.000
2.181,2.100,-33.600,-4.000,2.800
2.182,1.900,-33.400,-3.700,2.600
2.183,1.800,-29.400,-3.400,2.400
2.184,1.900,-21.400,-3.100,2.100
2.185,2.200,-11.500,-2.600,1.600
2.186,2.800,-2.600,-2.100,1.200
2.187,3.700,3.900,-1.400,0.800
2.188,4.700,8.100,-0.900,0.500
2.189,5.700,11.100,-0.500,0.200
2.190,6.900,13.800,-0.300,-0.200
2.191,8.200,15.300,-0.100,-0.900
2.192,9.800,14.900,0.300,-1.700
2.193,11.200,12.600,0.900,-2.700
2.194,12.300,9.600,1.500,-3.600
2.195,13.100,7.300,2.000,-4.300
2.196,13.600,6.400,2.200,-4.600
2.197,14.200,6.600,2.400,-4.600
2.198,14.800,7.200,2.500,-4.100
2.199,15.200,8.100,2.600,-3.100
2.200,15.100,9.500,2.700,-1.900
2.201,14.400,11.700,2.900,-0.500
2.202,13.200,14.500,3.300,1.000
2.203,11.700,17.100,3.900,2.600
2.204,10.300,18.800,4.800,4.100
2.205,9.100,19.300,5.800,5.500
2.206,7.800,18.800,6.800,6.900
2.207,6.700,17.400,7.600,8.100
2.208,5.700,15.600,8.200,9.400
2.209,5.100,13.200,8.700,10.500
2.210,4.800,10.300,9.000,11.500
2.211,4.700,7.000,9.300,12.400
2.212,4.800,3.800,9.500,13.100
2.213,4.800,1.100,9.700,13.600
2.214,4.800,-0.600,9.800,14.000
2.215,4.800,-1.600,9.700,14.100
2.216,4.900,-1.800,9.600,14.000
2.217,4.900,-1.800,9.200,13.600
2.218,4.900,-1.300,8.800,13.100
2.219,4.800,-0.100,8.300,12.400
2.220,4.600,1.900,7.900,11.900
2.221,4.500,4.700,7.300,11.400
2.222,4.400,7.700,6.500,10.700
2.223,4.200,10.500,5.400,9.700
2.224,4.100,12.600,4.000,8.400
2.225,4.000,14.200,2.500,6.900
2.226,4.000,15.300,1.100,5.500
2.227,4.100,15.900,-0.200,4.300
2.228,4.500,15.800,-1.500,3.200
2.229,5.000,14.700,-3.000,2.100
2.230,5.600,12.700,-4.600,0.900
2.231,6.000,9.800,-6.300,-0.500
2.232,6.400,6.000,-8.000,-2.000
2.233,6.900,1.600,-9.800,-3.900
2.234,7.700,-3.300,-11.700,-6.100
2.235,8.700,-8.700,-13.600,-8.600
2.236,10.000,-14.500,-15.700,-11.000
2.237,11.500,-20.700,-17.900,-13.300
2.238,13.100,-27.300,-20.100,-15.700
2.239,14.800,-34.200,-22.400,-18.600
2.240,16.600,-41.400,-24.800,-22.300
2.241,18.200,-48.700,-27.300,-26.400
2.242,19.500,-56.200,-29.800,-30.600
2.243,20.200,-63.900,-32.400,-34.400
2.244,20.300,-71.500,-34.800,-37.900
2.245,19.600,-79.200,-37.000,-41.600
2.246,17.900,-86.600,-38.800,-45.700
2.247,15.200,-94.000,-40.000,-50.300
2.248,11.400,-101.100,-40.500,-54.800
2.249,6.900,-107.800,-40.300,-58.800
2.250,1.800,-113.900,-39.700,-62.200
2.251,-3.000,-119.000,-38.900,-64.900
2.252,-6.900,-122.800,-38.200,-67.000
2.253,-9.600,-124.900,-37.700,-68.500
2.254,-10.800,-125.200,-37.400,-69.100
2.255,-11.000,-123.700,-37.000,-68.700
2.256,-10.600,-120.400,-36.400,-67.400
2.257,-10.300,-115.500,-35.200,-65.200
2.258,-10.400,-109.200,-33.400,-62.300
2.259,-11.200,-101.700,-30.900,-58.700
2.260,-12.700,-93.200,-27.700,-54.200
2.261,-15.000,-83.900,-24.000,-49.100
2.262,-17.600,-74.200,-19.800,-43.400
2.263,-20.300,-63.900,-15.300,-37.400
2.264,-23.100,-53.500,-10.600,-31.300
2.265,-25.900,-43.200,-5.900,-25.000
2.266,-29.100,-33.200,-1.200,-18.700
2.267,-32.800,-23.800,3.500,-12.600
2.268,-36.900,-15.000,8.200,-6.800
2.269,-41.100,-7.200,12.700,-1.600
2.270,-45.000,-0.300,17.000,2.900
2.271,-48.300,5.500,20.800,6.700
2.272,-50.900,10.200,24.000,9.800
2.273,-52.500,13.900,26.300,12.100
2.274,-53.100,16.800,27.700,13.900
2.275,-52.300,19.300,28.200,15.200
2.276,-50.000,21.400,27.700,16.000
2.277,-45.900,22.900,26.300,16.400
2.278,-40.200,24.000,24.000,16.300
2.279,-33.200,24.500,21.100,15.800
2.280,-25.400,24.700,17.500,15.200
2.281,-17.000,24.600,13.700,14.600
2.282,-8.700,24.500,9.700,13.900
2.283,-0.600,24.300,5.900,13.200
2.284,6.700,24.000,2.400,12.300
2.285,13.100,23.600,-0.700,11.300
2.286,18.400,23.200,-3.400,10.400
2.287,22.600,22.800,-5.800,9.800
2.288,25.700,22.400,-7.800,9.400
2.289,28.000,22.000,-9.300,9.100
2.290,29.500,21.300,-10.500,8.800
2.291,30.400,20.400,-11.400,8.400
2.292,30.800,19.000,-11.900,7.800
2.293,30.700,17.200,-12.300,7.200
2.294,30.400,15.000,-12.500,6.700
2.295,29.800,12.500,-12.500,6.200
2.296,29.000,10.000,-12.300,5.700
2.297,27.900,7.800,-12.000,5.100
2.298,26.600,6.000,-11.600,4.400
2.299,25.000,4.400,-11.100,3.900
2.300,23.200,3.100,-10.500,3.400
2.301,21.300,2.100,-9.900,2.900
2.302,19.600,1.700,-9.100,2.500
2.303,18.100,2.000,-8.200,2.000
2.304,16.900,2.800,-7.300,1.600
2.305,15.900,3.800,-6.500,1.100
2.306,15.000,4.500,-5.700,0.600
2.307,14.000,4.800,-5.100,0.000
2.308,12.800,4.900,-4.500,-0.500
2.309,11.500,4.900,-3.800,-0.800
2.310,10.300,5.100,-3.200,-1.000
2.311,9.400,5.400,-2.600,-1.100
2.312,8.800,5.800,-2.100,-1.200
2.313,8.200,6.200,-1.500,-1.400
2.314,7.700,6.600,-1.000,-1.500
2.315,7.100,7.000,-0.600,-1.700
2.316,6.600,7.500,-0.300,-1.700
2.317,6.200,8.000,-0.100,-1.700
2.318,5.900,8.200,0.100,-1.700
2.319,5.500,8.300,0.200,-1.700
2.320,5.200,8.100,0.300,-1.800
2.321,4.900,7.700,0.500,-2.000
2.322,4.700,7.100,0.600,-2.000
2.323,4.600,6.200,0.700,-2.000
2.324,4.300,4.900,0.800,-1.900
2.325,3.900,3.500,0.800,-1.700
2.326,3.500,2.200,0.900,-1.400
2.327,3.400,1.500,0.900,-1.000
2.328,3.800,1.400,0.800,-0.500
2.329,4.300,1.500,0.600,0.100
2.330,4.200,1.500,0.300,0.700
2.331,3.400,0.800,0.200,1.000
2.332,2.000,-0.300,0.300,1.100
2.333,0.700,-1.400,0.400,1.000
2.334,-0.100,-2.000,0.500,1.000
2.335,-0.500,-2.000,0.500,1.000
2.336,-0.900,-1.700,0.500,0.900
2.337,-1.500,-1.300,0.500,0.700
2.338,-2.100,-0.900,0.500,0.400
2.339,-2.300,-0.500,0.600,0.300
2.340,-1.900,0.100,0.600,0.500
2.341,-1.100,0.700,0.500,0.800
2.342,-0.300,1.100,0.300,0.900
2.343,0.200,1.300,0.100,0.400
2.344,0.600,1.300,-0.200,-0.400
2.345,1.100,1.100,-0.400,-1.200
2.346,1.600,0.800,-0.600,-1.500
2.347,2.200,0.200,-0.900,-1.500
2.348,2.600,-0.400,-1.100,-1.200
2.349,2.800,-1.100,-1.300,-1.000
2.350,3.100,-1.600,-1.500,-1.100
2.351,3.500,-1.800,-1.700,-1.200
2.352,4.000,-1.700,-1.900,-1.200
2.353,4.500,-1.500,-2.100,-1.000
2.354,5.100,-1.200,-2.300,-0.900
2.355,5.800,-1.000,-2.400,-0.900
2.356,6.700,-1.000,-2.300,-0.900
2.357,7.700,-1.000,-2.000,-1.000
2.358,8.400,-1.100,-1.700,-1.000
2.359,8.500,-1.200,-1.500,-1.100
2.360,8.200,-1.300,-1.400,-1.100
2.361,7.500,-1.200,-1.300,-1.100
2.362,6.700,-1.000,-1.200,-1.000
2.363,6.000,-0.700,-1.100,-0.900
2.364,5.200,-0.500,-1.000,-0.800
2.365,4.300,-0.400,-1.200,-0.700
2.366,3.100,-0.500,-1.400,-0.600
2.367,1.700,-0.900,-1.700,-0.500
2.368,0.200,-1.400,-2.000,-0.400
2.369,-1.000,-1.800,-2.300,-0.300
2.370,-1.900,-2.100,-2.600,-0.200
2.371,-2.600,-2.400,-2.800,-0.100
2.372,-3.200,-2.800,-3.000,-0.100
2.373,-3.800,-3.100,-3.100,-0.200
2.374,-4.400,-3.300,-3.200,-0.400
2.375,-4.700,-3.100,-3.200,-0.800
2.376,-4.700,-2.700,-3.300,-1.200
2.377,-4.400,-2.100,-3.300,-1.700
2.378,-3.800,-1.600,-3.200,-2.000
2.379,-3.100,-1.300,-3.000,-2.100
2.380,-2.400,-1.300,-2.800,-2.200
2.381,-1.600,-1.200,-2.600,-2.100
2.382,-0.700,-1.100,-2.400,-2.100
2.383,0.300,-1.000,-2.200,-2.000
2.384,1.400,-1.100,-1.900,-1.900
2.385,2.600,-1.200,-1.700,-1.700
2.386,3.600,-1.300,-1.400,-1.400
2.387,4.600,-1.300,-1.100,-1.200
2.388,5.500,-1.200,-0.800,-1.100
2.389,6.300,-1.100,-0.600,-1.200
2.390,7.000,-1.000,-0.400,-1.400
2.391,7.500,-1.300,-0.300,-1.500
2.392,7.900,-1.700,-0.200,-1.500
2.393,8.000,-2.500,-0.100,-1.300
2.394,7.800,-3.400,-0.100,-1.200
2.395,7.500,-4.500,-0.200,-1.300
2.396,7.100,-5.600,-0.400,-1.700
2.397,6.700,-6.600,-0.600,-2.100
2.398,6.300,-7.500,-0.800,-2.500
2.399,5.800,-8.300,-0.900,-2.700
2.400,5.300,-9.000,-0.900,-2.800
2.401,4.700,-9.600,-1.100,-2.900
2.402,4.000,-10.000,-1.200,-3.100
2.403,3.300,-10.400,-1.400,-3.300
2.404,2.600,-10.700,-1.600,-3.400
2.405,2.000,-10.900,-1.700,-3.400
2.406,1.500,-11.100,-1.900,-3.400
2.407,1.000,-11.300,-2.100,-3.500
2.408,0.600,-11.300,-2.300,-3.700
2.409,0.300,-11.100,-2.600,-3.900
2.410,0.100,-10.600,-2.700,-4.000
2.411,-0.100,-9.900,-2.800,-4.200
2.412,-0.200,-9.200,-3.000,-4.400
2.413,-0.200,-8.500,-3.000,-4.600
2.414,-0.100,-7.900,-3.000,-4.900
2.415,0.100,-7.300,-3.100,-5.100
2.416,0.400,-6.500,-3.300,-5.100
2.417,0.900,-5.600,-3.600,-5.100
2.418,1.400,-4.700,-3.900,-5.200
2.419,1.800,-3.900,-4.200,-5.300
2.420,2.300,-3.200,-4.200,-5.500
2.421,3.000,-2.300,-4.100,-5.700
2.422,3.800,-1.400,-4.200,-5.900
2.423,4.400,-0.800,-4.400,-5.900
2.424,4.600,-1.100,-4.900,-5.900
2.425,4.200,-2.100,-5.300,-6.000
2.426,3.800,-3.300,-5.500,-6.100
2.427,3.700,-3.700,-5.500,-6.300
2.428,4.300,-3.000,-5.400,-6.400
2.429,5.000,-2.100,-5.400,-6.400
2.430,5.000,-2.300,-5.500,-6.400
2.431,3.900,-4.200,-5.500,-6.300
2.432,2.100,-7.300,-5.400,-6.200
2.433,0.400,-10.300,-5.200,-6.000
2.434,-0.500,-12.000,-5.100,-5.600
2.435,-0.700,-12.400,-5.000,-5.300
2.436,-0.600,-12.300,-5.000,-5.300
2.437,-0.700,-12.600,-4.900,-5.600
2.438,-1.000,-13.200,-4.800,-6.100
2.439,-1.200,-13.700,-4.600,-6.200
2.440,-1.000,-13.600,-4.400,-5.900
2.441,-0.500,-12.800,-4.200,-5.500
2.442,-0.100,-11.800,-4.100,-5.600
2.443,0.100,-10.700,-4.100,-6.400
2.444,0.000,-9.600,-4.300,-7.800
2.445,-0.100,-8.400,-4.500,-9.200
2.446,0.000,-7.000,-4.600,-10.000
2.447,0.200,-5.600,-4.700,-10.400
2.448,0.400,-4.700,-4.800,-10.700
2.449,0.200,-4.200,-4.900,-11.000
2.450,-0.300,-4.300,-5.000,-11.400
2.451,-1.200,-4.800,-5.100,-11.400
2.452,-2.100,-5.400,-5.200,-11.000
2.453,-2.800,-6.200,-5.400,-10.200
2.454,-3.400,-7.000,-5.500,-9.400
2.455,-4.000,-7.600,-5.700,-8.500
2.456,-4.500,-7.900,-5.800,-7.700
2.457,-4.500,-8.200,-5.900,-6.800
2.458,-3.900,-8.400,-5.900,-5.900
2.459,-2.700,-8.900,-6.000,-5.000
2.460,-1.000,-9.500,-6.000,-4.300
2.461,0.600,-10.100,-6.000,-3.900
2.462,2.200,-10.700,-6.000,-3.700
2.463,3.800,-11.200,-6.000,-3.600
2.464,5.600,-11.800,-6.000,-3.500
2.465,7.500,-12.400,-6.000,-3.600
2.466,9.300,-12.900,-5.900,-3.800
2.467,10.500,-13.400,-5.600,-4.100
2.468,10.900,-13.600,-5.300,-4.200
2.469,10.700,-13.900,-5.100,-4.400
2.470,10.200,-14.500,-5.000,-4.600
2.471,9.600,-15.700,-5.000,-5.000
2.472,8.800,-17.300,-4.900,-5.600
2.473,7.700,-19.100,-4.800,-6.100
2.474,6.200,-20.400,-4.800,-6.500
2.475,4.400,-20.700,-5.000,-6.900
2.476,2.600,-20.000,-5.300,-7.100
2.477,1.000,-18.500,-5.600,-7.400
2.478,-0.100,-16.300,-5.800,-7.700
2.479,-1.000,-13.900,-5.900,-7.900
2.480,-1.700,-11.500,-5.700,-8.000
2.481,-2.100,-9.100,-5.600,-8.000
2.482,-2.300,-6.900,-5.500,-8.000
2.483,-1.900,-4.800,-5.400,-8.100
2.484,-0.900,-3.300,-5.200,-8.300
2.485,0.300,-2.600,-4.900,-8.500
2.486,1.600,-2.600,-4.500,-8.500
2.487,2.600,-3.100,-4.200,-8.400
2.488,3.300,-3.900,-3.900,-8.000
2.489,3.900,-4.800,-3.700,-7.500
2.490,4.500,-6.000,-3.500,-7.100
2.491,5.100,-7.600,-3.300,-6.900
2.492,5.600,-9.500,-3.200,-6.800
2.493,5.900,-11.400,-3.100,-6.700
2.494,6.000,-12.900,-3.200,-6.700
2.495,6.000,-13.900,-3.400,-6.700
2.496,5.900,-14.400,-3.600,-6.600
2.497,5.700,-14.600,-3.700,-6.400
2.498,5.600,-14.800,-3.800,-6.300
2.499,5.500,-15.100,-3.800,-6.100
2.500,5.300,-15.300,-3.600,-6.000
2.501,5.100,-15.200,-3.300,-6.000
2.502,4.600,-14.800,-3.100,-6.000
2.503,3.900,-14.500,-3.000,-6.100
2.504,3.000,-14.500,-3.100,-6.200
2.505,2.000,-14.700,-3.100,-6.400
2.506,1.000,-15.200,-3.100,-6.500
2.507,0.100,-15.800,-2.900,-6.600
2.508,-0.800,-16.400,-2.600,-6.700
2.509,-1.700,-17.000,-2.100,-6.700
2.510,-2.700,-17.800,-1.700,-6.600
2.511,-3.600,-18.800,-1.300,-6.500
2.512,-4.500,-19.600,-1.000,-6.500
2.513,-5.300,-20.200,-0.600,-6.500
2.514,-6.100,-20.200,-0.300,-6.600
2.515,-6.900,-19.600,0.100,-6.600
2.516,-7.900,-18.700,0.300,-6.500
2.517,-9.000,-17.600,0.300,-6.400
2.518,-9.900,-16.300,0.300,-6.300
2.519,-10.700,-14.600,0.300,-6.300
2.520,-11.500,-12.700,0.600,-6.400
2.521,-12.600,-10.600,0.900,-6.400
2.522,-14.100,-8.700,1.100,-6.300
2.523,-15.300,-7.400,1.000,-6.000
2.524,-15.400,-7.000,0.700,-5.700
2.525,-14.300,-7.100,0.300,-5.300
2.526,-12.900,-7.200,0.200,-4.900
2.527,-12.600,-6.700,0.300,-4.500
2.528,-13.600,-5.600,0.500,-4.300
2.529,-15.100,-4.600,0.700,-4.100
2.530,-15.100,-4.500,0.900,-3.800
2.531,-12.700,-5.600,0.900,-3.600
2.532,-8.600,-7.300,1.000,-3.400
2.533,-4.700,-8.700,1.100,-3.300
2.534,-2.600,-9.200,1.200,-3.300
2.535,-2.300,-9.000,1.300,-3.300
2.536,-2.700,-8.500,1.400,-3.400
2.537,-2.700,-8.200,1.400,-3.500
2.538,-2.400,-8.400,1.500,-3.500
2.539,-2.500,-8.500,1.400,-3.500
2.540,-3.800,-8.300,1.200,-3.300
2.541,-5.800,-7.800,0.900,-3.200
2.542,-7.700,-7.300,0.600,-3.100
2.543,-9.100,-7.000,0.400,-3.200
2.544,-9.900,-6.800,0.300,-3.400
2.545,-10.500,-6.500,0.100,-3.600
2.546,-11.200,-5.900,-0.100,-3.800
2.547,-11.700,-5.200,-0.200,-3.700
2.548,-11.500,-4.500,-0.200,-3.500
2.549,-10.400,-4.300,-0.200,-3.200
2.550,-8.500,-4.600,0.000,-2.900
2.551,-6.300,-5.200,0.100,-2.700
2.552,-4.200,-5.900,0.300,-2.500
2.553,-2.100,-6.700,0.300,-2.300
2.554,-0.100,-7.400,0.400,-2.100
2.555,2.300,-8.000,0.500,-1.900
2.556,4.800,-8.700,0.500,-1.700
2.557,6.900,-9.100,0.500,-1.700
2.558,8.200,-9.100,0.500,-1.700
2.559,8.300,-8.500,0.400,-1.700
2.560,7.700,-7.500,0.300,-1.800
2.561,6.700,-6.300,0.300,-1.800
2.562,5.500,-5.000,0.400,-1.800
2.563,4.100,-3.500,0.400,-1.700
2.564,2.200,-2.000,0.400,-1.500
2.565,0.100,-0.300,0.300,-1.200
2.566,-1.600,1.300,0.200,-0.900
2.567,-2.400,2.800,0.200,-0.700
2.568,-2.300,3.900,0.200,-0.600
2.569,-1.800,4.800,0.300,-0.800
2.570,-1.200,5.300,0.300,-1.000
2.571,-0.700,5.600,0.400,-1.200
2.572,-0.100,5.500,0.300,-1.500
2.573,0.700,4.900,0.300,-1.700
2.574,1.500,4.100,0.200,-1.900
2.575,1.900,3.100,0.200,-2.300
2.576,1.900,2.300,0.200,-2.700
2.577,1.300,1.600,0.200,-3.000
2.578,0.600,1.100,0.200,-3.300
2.579,-0.100,0.600,0.200,-3.400
2.580,-0.800,0.100,0.200,-3.400
2.581,-1.600,-0.200,0.200,-3.200
2.582,-2.400,-0.500,0.200,-3.000
2.583,-3.000,-0.600,0.200,-2.600
2.584,-3.000,-0.600,0.200,-2.200
2.585,-2.500,-0.500,0.200,-1.700
2.586,-1.600,-0.500,0.200,-1.200
2.587,-0.600,-0.300,0.200,-0.600
2.588,0.500,-0.100,0.100,-0.100
2.589,1.300,0.100,-0.100,0.400
2.590,2.100,0.300,-0.300,0.800
2.591,2.800,0.500,-0.300,1.300
2.592,3.200,0.400,-0.300,1.700
2.593,3.300,0.200,-0.200,2.100
2.594,3.000,-0.200,-0.100,2.400
2.595,2.300,-0.600,0.000,2.600
2.596,1.300,-0.900,-0.100,2.700
2.597,0.000,-1.300,-0.200,2.800
2.598,-1.500,-1.700,-0.300,2.700
2.599,-3.000,-2.100,-0.300,2.700
2.600,-4.700,-2.500,-0.300,2.600
2.601,-6.500,-3.100,-0.300,2.500
2.602,-8.400,-3.800,-0.200,2.300
2.603,-10.200,-4.700,-0.300,2.100
2.604,-11.800,-5.500,-0.500,2.000
2.605,-13.000,-6.300,-0.600,1.800
2.606,-13.800,-7.000,-0.800,1.700
2.607,-14.300,-7.700,-0.800,1.500
2.608,-14.900,-8.700,-0.800,1.200
2.609,-15.400,-9.600,-0.600,0.900
2.610,-15.500,-10.000,-0.500,0.600
2.611,-15.000,-9.600,-0.400,0.400
2.612,-13.800,-8.100,-0.400,0.500
2.613,-12.200,-5.900,-0.400,0.600
2.614,-10.500,-3.300,-0.300,0.900
2.615,-8.700,-0.500,-0.300,1.100
2.616,-7.000,2.200,-0.200,1.200
2.617,-5.200,5.000,-0.200,1.300
2.618,-3.300,7.500,-0.300,1.300
2.619,-1.300,9.400,-0.300,1.300
2.620,0.600,10.700,-0.300,1.300
2.621,2.500,11.400,-0.300,1.100
2.622,4.200,11.600,-0.300,0.800
2.623,5.900,11.100,-0.400,0.500
2.624,7.200,9.500,-0.500,0.200
2.625,8.100,6.900,-0.500,-0.100
2.626,8.800,4.200,-0.400,-0.300
2.627,9.500,2.800,-0.300,-0.500
2.628,10.100,2.900,-0.100,-0.700
2.629,10.500,3.800,-0.100,-0.900
2.630,10.200,3.700,-0.200,-0.900
2.631,9.000,1.600,-0.200,-0.700
2.632,6.900,-2.000,-0.300,-0.500
2.633,4.400,-5.500,-0.200,-0.200
2.634,2.100,-7.500,-0.200,0.100
2.635,0.100,-8.000,-0.100,0.200
2.636,-1.900,-7.600,0.000,0.200
2.637,-3.900,-7.400,0.200,0.200
2.638,-6.500,-7.400,0.500,0.100
2.639,-9.200,-7.300,0.800,0.100
2.640,-11.800,-6.600,1.100,0.200
2.641,-13.800,-5.600,1.300,0.300
2.642,-15.000,-4.600,1.500,0.300
2.643,-15.500,-3.800,1.500,0.200
2.644,-15.500,-3.200,1.400,-0.200
2.645,-15.000,-2.500,1.200,-0.800
2.646,-13.800,-1.600,0.900,-1.400
2.647,-11.600,-0.700,0.600,-2.200
2.648,-8.200,0.000,0.300,-3.100
2.649,-4.100,0.500,0.200,-4.100
2.650,0.100,1.100,0.300,-5.100
2.651,4.000,1.900,0.500,-6.300
2.652,7.200,2.800,0.800,-7.400
2.653,9.900,3.400,1.000,-8.300
2.654,12.200,3.800,1.100,-8.800
2.655,14.000,4.000,1.000,-8.800
2.656,15.200,4.100,0.800,-8.300
2.657,15.500,4.200,0.600,-7.500
2.658,14.700,4.100,0.300,-6.400
2.659,13.000,3.800,0.200,-5.200
2.660,10.500,3.300,0.100,-3.900
2.661,7.700,2.400,0.200,-2.700
2.662,4.800,1.500,0.300,-1.500
2.663,2.300,0.600,0.600,-0.500
2.664,0.200,-0.200,0.700,0.500
2.665,-1.400,-0.900,0.700,1.300
2.666,-2.900,-1.500,0.600,1.900
2.667,-4.300,-2.100,0.600,2.500
2.668,-5.700,-2.800,0.600,2.800
2.669,-6.700,-3.400,0.700,3.000
2.670,-7.400,-4.000,0.800,3.200
2.671,-7.800,-4.500,1.000,3.200
2.672,-7.800,-4.900,1.200,3.100
2.673,-7.800,-5.400,1.400,2.900
2.674,-7.400,-5.900,1.600,2.600
2.675,-6.900,-6.300,1.900,2.200
2.676,-6.000,-6.600,2.100,1.800
2.677,-5.100,-6.700,2.400,1.400
2.678,-4.400,-6.400,2.800,1.000
2.679,-3.900,-5.800,3.200,0.700
2.680,-3.500,-5.000,3.700,0.300
2.681,-3.000,-4.100,4.000,0.100
2.682,-2.500,-3.100,4.400,-0.200
2.683,-2.000,-2.200,4.700,-0.400
2.684,-1.500,-1.400,5.100,-0.600
2.685,-0.900,-0.800,5.400,-0.800
2.686,-0.100,-0.300,5.600,-1.000
2.687,0.800,-0.200,5.700,-1.200
2.688,1.600,-0.300,5.500,-1.300
2.689,2.100,-0.600,5.200,-1.500
2.690,2.400,-1.200,4.900,-1.900
2.691,2.800,-2.100,4.400,-2.200
2.692,3.100,-3.200,3.900,-2.400
2.693,3.000,-4.500,3.400,-2.600
2.694,2.300,-5.700,2.900,-2.600
2.695,0.600,-6.700,2.400,-2.500
2.696,-1.600,-7.500,2.100,-2.600
2.697,-4.000,-8.200,1.900,-2.700
2.698,-6.400,-8.900,1.700,-2.800
2.699,-8.900,-9.400,1.700,-2.800
2.700,-11.600,-9.700,1.800,-2.700
2.701,-14.500,-9.600,2.000,-2.500
2.702,-17.000,-9.300,2.200,-2.300
2.703,-18.700,-8.900,2.600,-2.300
2.704,-19.500,-8.600,2.900,-2.400
2.705,-19.700,-8.300,3.300,-2.500
2.706,-19.900,-8.200,3.700,-2.600
2.707,-20.300,-8.100,4.100,-2.600
2.708,-20.700,-8.100,4.500,-2.500
2.709,-21.000,-8.200,5.000,-2.500
2.710,-21.000,-8.300,5.400,-2.600
2.711,-21.100,-8.300,5.700,-2.600
2.712,-21.400,-8.300,5.800,-2.700
2.713,-21.600,-8.400,5.900,-2.900
2.714,-21.800,-8.500,5.800,-3.200
2.715,-21.900,-8.700,5.800,-3.600
2.716,-22.100,-8.800,5.900,-4.100
2.717,-22.600,-9.000,6.000,-4.500
2.718,-23.000,-9.100,6.200,-4.800
2.719,-23.100,-9.300,6.200,-5.100
2.720,-23.200,-9.600,6.200,-5.400
2.721,-23.700,-10.100,6.300,-5.900
2.722,-24.800,-10.600,6.400,-6.200
2.723,-25.800,-11.100,6.800,-6.300
2.724,-25.400,-11.700,7.100,-6.000
2.725,-23.500,-12.300,7.400,-5.400
2.726,-21.200,-12.900,7.600,-4.800
2.727,-20.500,-13.300,7.700,-4.400
2.728,-22.000,-13.300,7.800,-4.000
2.729,-24.200,-13.100,8.000,-3.600
2.730,-24.600,-13.100,8.100,-3.100
2.731,-21.500,-13.300,8.000,-2.700
2.732,-15.900,-13.700,7.800,-2.400
2.733,-10.700,-13.800,7.400,-2.200
2.734,-8.000,-13.200,6.900,-2.000
2.735,-8.100,-12.000,6.500,-2.000
2.736,-9.300,-10.300,6.100,-2.100
2.737,-10.100,-8.600,5.700,-2.400
2.738,-10.300,-7.200,5.300,-2.800
2.739,-10.800,-6.200,4.900,-3.100
2.740,-12.300,-5.600,4.600,-3.200
2.741,-14.700,-5.300,4.400,-3.300
2.742,-17.000,-5.200,4.400,-3.500
2.743,-18.500,-5.200,4.400,-3.800
2.744,-19.400,-5.400,4.500,-4.400
2.745,-20.300,-5.800,4.600,-5.000
2.746,-21.300,-6.500,4.700,-5.400
2.747,-22.200,-7.600,4.800,-5.800
2.748,-22.600,-8.900,5.100,-6.200
2.749,-22.400,-10.100,5.200,-6.600
2.750,-21.900,-11.100,5.400,-7.000
2.751,-21.400,-11.600,5.400,-7.300
2.752,-21.000,-11.900,5.300,-7.300
2.753,-20.500,-12.000,5.100,-7.100
2.754,-19.700,-12.100,4.900,-6.900
2.755,-18.500,-12.100,4.700,-6.700
2.756,-16.800,-11.900,4.400,-6.700
2.757,-15.000,-11.700,4.000,-6.800
2.758,-13.200,-11.400,3.500,-6.800
2.759,-11.800,-11.200,3.100,-6.800
2.760,-10.700,-11.100,2.600,-6.800
2.761,-9.900,-10.800,2.200,-6.700
2.762,-9.400,-10.400,1.900,-6.800
2.763,-9.100,-9.900,1.600,-6.800
2.764,-9.200,-9.500,1.500,-6.700
2.765,-9.700,-9.200,1.400,-6.500
2.766,-10.500,-8.900,1.400,-6.200
2.767,-11.200,-8.500,1.400,-5.900
2.768,-11.600,-8.100,1.400,-5.700
2.769,-11.500,-7.500,1.400,-5.600
2.770,-10.900,-7.000,1.300,-5.500
2.771,-10.000,-6.500,1.200,-5.100
2.772,-8.900,-5.800,1.200,-4.600
2.773,-7.500,-5.100,1.200,-4.100
2.774,-5.700,-4.400,1.100,-3.700
2.775,-3.300,-3.900,1.000,-3.600
2.776,-0.500,-3.600,0.800,-3.700
2.777,2.100,-3.300,0.700,-3.900
2.778,4.200,-2.900,0.600,-4.100
2.779,5.600,-2.400,0.700,-4.100
2.780,6.500,-2.000,0.800,-4.000
2.781,7.100,-1.700,0.900,-3.900
2.782,7.400,-1.400,0.900,-3.900
2.783,7.500,-1.200,0.900,-4.000
2.784,7.200,-1.300,0.900,-4.200
2.785,6.300,-1.600,0.800,-4.400
2.786,5.200,-2.400,0.700,-4.500
2.787,4.100,-3.500,0.500,-4.500
2.788,3.000,-4.600,0.300,-4.400
2.789,2.100,-5.500,0.200,-4.200
2.790,1.000,-6.400,0.000,-3.900
2.791,-0.100,-7.300,-0.200,-3.600
2.792,-1.000,-8.500,-0.300,-3.300
2.793,-1.700,-9.400,-0.500,-3.200
2.794,-1.800,-9.600,-0.700,-3.000
2.795,-1.500,-8.900,-0.900,-2.800
2.796,-1.000,-7.400,-1.200,-2.400
2.797,-0.500,-5.600,-1.400,-1.800
2.798,-0.100,-3.700,-1.600,-1.300
2.799,0.300,-1.700,-1.700,-1.000
2.800,1.100,0.600,-1.800,-0.700
2.801,2.000,3.300,-1.900,-0.500
2.802,2.600,5.900,-1.700,-0.100
2.803,2.500,8.100,-1.500,0.400
2.804,1.900,9.500,-1.300,0.900
2.805,1.100,10.200,-1.100,1.300
2.806,0.500,10.500,-1.000,1.500
2.807,0.000,10.500,-0.900,1.500
2.808,-0.500,10.200,-1.000,1.300
2.809,-1.200,9.500,-1.000,1.000
2.810,-1.700,8.500,-1.200,0.800
2.811,-1.700,7.100,-1.400,0.500
2.812,-0.900,5.600,-1.800,0.300
2.813,0.200,4.400,-2.400,0.000
2.814,1.500,3.500,-2.800,-0.200
2.815,2.700,2.800,-3.100,-0.500
2.816,4.000,2.300,-3.100,-0.600
2.817,5.500,1.900,-3.000,-0.600
2.818,6.800,1.600,-2.900,-0.500
2.819,7.700,1.600,-3.000,-0.500
2.820,8.300,1.900,-3.100,-0.600
2.821,9.000,2.400,-3.300,-0.700
2.822,10.100,3.100,-3.200,-0.900
2.823,10.600,3.500,-2.800,-0.900
2.824,9.500,3.600,-2.200,-0.800
2.825,6.600,3.500,-1.700,-0.500
2.826,3.400,3.400,-1.400,-0.300
2.827,2.200,3.400,-1.300,-0.200
2.828,3.700,3.500,-1.500,-0.200
2.829,6.200,3.700,-1.700,-0.300
2.830,6.400,3.700,-1.900,-0.300
2.831,2.700,3.400,-2.100,-0.300
2.832,-3.400,2.900,-2.100,-0.400
2.833,-8.700,2.300,-2.200,-0.700
2.834,-10.400,1.900,-2.300,-1.000
2.835,-8.500,1.800,-2.300,-1.200
2.836,-4.800,1.800,-2.400,-1.100
2.837,-1.400,2.100,-2.500,-0.600
2.838,1.500,2.500,-2.600,-0.100
2.839,4.900,3.000,-2.500,0.200
2.840,9.300,3.700,-2.200,0.000
2.841,14.200,4.400,-1.900,-0.400
2.842,17.900,4.900,-1.600,-0.300
2.843,20.100,5.200,-1.300,0.500
2.844,20.800,5.200,-1.200,1.800
2.845,21.200,5.000,-1.000,3.100
2.846,21.300,4.800,-0.800,3.900
2.847,20.800,4.600,-0.500,4.200
2.848,19.200,4.600,-0.100,4.500
2.849,16.200,4.600,0.200,4.900
2.850,12.700,4.400,0.600,5.500
2.851,9.200,4.300,0.900,5.900
2.852,6.400,4.300,1.200,6.000
2.853,4.000,4.400,1.500,6.000
2.854,1.900,4.500,1.900,6.200
2.855,0.100,4.500,2.300,6.500
2.856,-0.900,4.300,2.900,7.000
2.857,-0.900,3.900,3.600,7.400
2.858,0.200,3.500,4.300,7.700
2.859,2.300,3.300,4.900,7.900
2.860,4.600,3.100,5.500,8.200
2.861,6.900,3.000,6.000,8.500
2.862,8.800,2.800,6.600,8.800
2.863,10.600,2.700,7.100,9.100
2.864,12.400,3.100,7.800,9.300
2.865,14.100,3.600,8.500,9.600
2.866,15.200,4.200,9.100,10.000
2.867,15.400,4.400,9.600,10.400
2.868,14.800,4.200,9.800,10.700
2.869,13.800,3.800,9.800,10.900
2.870,12.700,3.600,9.700,11.000
2.871,11.800,3.800,9.500,11.000
2.872,10.800,4.100,9.200,11.100
2.873,9.600,4.600,8.800,11.200
2.874,8.300,5.000,8.200,11.100
2.875,6.900,5.200,7.400,10.800
2.876,5.400,5.300,6.600,10.100
2.877,3.700,5.300,5.700,9.200
2.878,1.600,5.200,4.800,8.300
2.879,-0.800,4.900,4.000,7.500
2.880,-3.400,4.500,3.300,6.800
2.881,-6.000,4.000,2.600,6.200
2.882,-8.300,3.700,1.900,5.500
2.883,-10.500,3.700,1.300,4.600
2.884,-12.300,3.800,0.700,3.700
2.885,-13.700,3.700,0.100,2.800
2.886,-14.500,3.300,-0.400,2.000
2.887,-14.300,2.500,-1.000,1.300
2.888,-13.200,1.300,-1.800,0.600
2.889,-11.300,-0.200,-2.700,-0.300
2.890,-9.100,-2.000,-3.800,-1.600
2.891,-6.900,-4.500,-5.100,-3.100
2.892,-4.600,-7.800,-6.600,-4.900
2.893,-1.600,-11.700,-8.400,-7.100
2.894,2.400,-16.000,-10.500,-9.400
2.895,7.500,-20.400,-12.900,-12.000
2.896,13.200,-25.000,-15.600,-14.700
2.897,18.600,-29.800,-18.400,-17.500
2.898,23.400,-35.100,-21.300,-20.500
2.899,27.900,-41.100,-24.200,-23.700
2.900,32.100,-47.400,-27.200,-27.100
2.901,35.800,-54.000,-30.100,-30.900
2.902,38.400,-60.600,-33.100,-34.900
2.903,39.100,-67.400,-35.900,-39.200
2.904,37.500,-74.300,-38.400,-43.500
2.905,34.100,-81.300,-40.400,-47.800
2.906,29.400,-88.500,-41.800,-51.900
2.907,23.600,-95.600,-42.500,-55.700
2.908,16.900,-102.400,-42.700,-59.200
2.909,9.300,-108.700,-42.300,-62.300
2.910,1.300,-114.200,-41.500,-65.000
2.911,-6.100,-118.500,-40.400,-67.200
2.912,-12.000,-121.300,-39.400,-68.900
2.913,-15.700,-122.500,-38.400,-69.900
2.914,-17.100,-122.000,-37.700,-70.100
2.915,-16.700,-120.000,-37.000,-69.500
2.916,-15.400,-116.500,-36.200,-68.000
2.917,-13.800,-111.600,-34.900,-65.600
2.918,-12.500,-105.400,-32.900,-62.400
2.919,-11.800,-98.000,-30.100,-58.600
2.920,-11.400,-89.500,-26.800,-54.400
2.921,-11.300,-80.000,-22.900,-49.800
2.922,-11.500,-69.900,-18.900,-44.700
2.923,-12.400,-59.600,-14.600,-38.900
2.924,-14.400,-49.800,-10.300,-32.800
2.925,-17.500,-40.400,-5.800,-26.500
2.926,-20.800,-31.300,-1.300,-20.400
2.927,-23.700,-22.200,3.100,-14.800
2.928,-26.000,-13.000,7.500,-9.600
2.929,-28.500,-4.300,11.600,-4.800
2.930,-32.200,3.200,15.300,-0.500
2.931,-37.600,8.900,18.500,3.300
2.932,-43.600,13.000,21.100,6.600
2.933,-48.800,16.100,23.300,9.200
2.934,-51.700,18.900,24.900,11.200
2.935,-52.300,21.600,25.700,12.700
2.936,-51.100,24.100,25.700,13.600
2.937,-48.800,26.100,24.800,14.000
2.938,-45.200,27.300,23.100,14.000
2.939,-40.200,27.900,20.700,14.100
2.940,-33.400,28.200,18.000,14.200
2.941,-25.600,28.400,15.100,14.300
2.942,-17.600,28.500,12.100,14.000
2.943,-10.000,28.400,9.100,13.100
2.944,-3.100,28.000,6.300,12.000
2.945,3.200,27.100,3.800,10.900
2.946,8.800,25.900,1.500,10.200
2.947,13.500,24.400,-0.400,9.900
2.948,17.100,22.700,-2.100,9.900
2.949,19.700,21.100,-3.600,9.900
2.950,21.500,19.500,-4.800,9.700
2.951,22.800,17.900,-5.700,9.400
2.952,23.600,16.500,-6.300,9.100
2.953,24.000,15.000,-6.700,8.800
2.954,23.800,13.600,-7.000,8.500
2.955,23.300,12.300,-7.400,8.200
2.956,22.600,11.000,-7.600,8.000
2.957,21.600,10.000,-7.700,7.700
2.958,20.200,9.400,-7.700,7.300
2.959,18.400,9.000,-7.500,6.700
2.960,16.300,8.700,-7.300,5.900
2.961,14.400,8.400,-7.100,5.000
2.962,13.000,8.000,-6.900,4.100
2.963,12.100,7.700,-6.600,3.400
2.964,11.600,7.400,-6.200,2.600
2.965,11.300,7.100,-5.700,1.800
2.966,11.300,6.800,-5.300,1.100
2.967,11.300,6.300,-5.000,0.500
2.968,11.200,5.500,-4.900,0.100
2.969,11.000,4.700,-4.900,-0.200
2.970,10.500,4.000,-4.800,-0.400
2.971,9.800,3.400,-4.700,-0.500
2.972,8.800,2.800,-4.500,-0.600
2.973,7.700,2.400,-4.300,-0.600
2.974,6.400,2.000,-4.200,-0.300
2.975,4.700,1.800,-4.100,0.100
2.976,2.800,1.700,-4.000,0.400
2.977,0.900,1.800,-3.800,0.700
2.978,-0.800,1.800,-3.600,0.900
2.979,-2.300,1.700,-3.400,1.100
2.980,-3.500,1.600,-3.100,1.300
2.981,-4.500,1.600,-2.700,1.600
2.982,-5.300,1.800,-2.400,1.900
2.983,-5.700,2.000,-2.000,2.100
2.984,-5.500,2.300,-1.600,2.300
2.985,-4.600,2.500,-1.200,2.300
2.986,-2.800,2.700,-0.900,2.300
2.987,-0.500,2.900,-0.600,2.200
2.988,2.000,2.900,-0.400,2.200
2.989,4.500,2.700,-0.300,2.100
2.990,6.800,2.400,-0.200,2.000
2.991,8.900,2.300,-0.200,1.800
2.992,10.700,2.400,0.000,1.500
2.993,12.000,2.400,0.200,1.100
2.994,12.600,1.900,0.300,0.800
2.995,12.500,1.000,0.400,0.600
2.996,11.700,-0.100,0.400,0.600
2.997,10.700,-1.000,0.300,0.500
2.998,9.800,-1.800,0.300,0.400
2.999,9.100,-2.400,0.300,0.200
3.000,8.500,-3.300,0.300,0.000
3.001,8.000,-4.100,0.300,-0.100
3.002,7.400,-4.800,0.100,-0.100
3.003,6.800,-4.900,-0.100,-0.100
3.004,6.300,-4.400,-0.300,0.000
3.005,5.700,-3.600,-0.500,0.000
3.006,4.900,-3.000,-0.700,-0.200
3.007,3.800,-2.700,-0.900,-0.400
3.008,2.500,-2.700,-1.100,-0.500
3.009,1.100,-2.600,-1.300,-0.600
3.010,-0.100,-2.400,-1.600,-0.700
3.011,-1.100,-2.100,-1.700,-0.800
3.012,-1.800,-2.100,-1.700,-1.100
3.013,-2.400,-2.300,-1.700,-1.600
3.014,-2.800,-2.600,-1.700,-2.000
3.015,-3.100,-3.000,-1.800,-2.300
3.016,-3.100,-3.400,-1.800,-2.500
3.017,-2.700,-3.600,-1.700,-2.500
3.018,-2.000,-3.800,-1.400,-2.600
3.019,-1.000,-4.000,-1.200,-2.600
3.020,0.400,-4.200,-1.300,-2.600
3.021,2.300,-4.500,-1.600,-2.600
3.022,4.700,-4.700,-1.600,-2.400
3.023,7.400,-4.900,-1.200,-2.100
3.024,9.900,-5.100,-0.600,-1.900
3.025,11.900,-5.300,0.100,-1.600
3.026,13.400,-5.300,0.300,-1.400
3.027,14.600,-5.300,0.100,-1.200
3.028,15.600,-5.300,-0.500,-1.100
3.029,16.100,-5.300,-1.100,-0.900
3.030,15.300,-5.400,-1.600,-0.700
3.031,13.200,-5.500,-2.000,-0.600
3.032,10.100,-5.700,-2.300,-0.500
3.033,7.000,-5.800,-2.500,-0.500
3.034,4.500,-5.900,-2.700,-0.600
3.035,2.400,-5.700,-2.800,-0.900
3.036,0.600,-5.300,-2.800,-1.200
3.037,-1.400,-4.800,-2.800,-1.500
3.038,-3.300,-4.000,-2.700,-1.800
3.039,-4.600,-3.100,-2.500,-2.000
3.040,-5.200,-2.300,-2.100,-2.000
3.041,-5.500,-1.700,-1.800,-2.000
3.042,-5.800,-1.400,-1.500,-2.000
3.043,-6.300,-1.200,-1.500,-2.100
3.044,-6.900,-0.900,-1.500,-2.400
3.045,-7.400,-0.700,-1.500,-2.600
3.046,-7.800,-0.700,-1.600,-2.800
3.047,-8.500,-1.000,-1.600,-2.900
3.048,-9.400,-1.700,-1.700,-2.900
3.049,-10.200,-2.500,-1.900,-3.000
3.050,-10.400,-3.200,-2.000,-3.000
3.051,-9.900,-3.500,-2.100,-3.000
3.052,-9.000,-3.800,-2.100,-3.100
3.053,-7.900,-4.100,-2.000,-3.100
3.054,-6.500,-4.400,-2.000,-3.100
3.055,-4.600,-4.800,-1.900,-3.100
3.056,-2.100,-5.000,-1.700,-3.100
3.057,0.400,-5.200,-1.600,-3.100
3.058,2.300,-5.400,-1.500,-3.100
3.059,3.100,-5.800,-1.400,-2.900
3.060,3.200,-6.200,-1.500,-2.500
3.061,3.000,-6.500,-1.500,-2.100
3.062,2.900,-6.700,-1.500,-1.800
3.063,2.800,-7.100,-1.500,-1.500
3.064,2.600,-7.700,-1.500,-1.200
3.065,2.100,-8.400,-1.500,-1.000
3.066,1.800,-8.800,-1.700,-0.900
3.067,2.100,-8.700,-2.000,-0.700
3.068,3.000,-8.100,-2.300,-0.700
3.069,4.000,-7.300,-2.500,-0.800
3.070,4.800,-6.500,-2.700,-1.000
3.071,5.300,-6.000,-2.900,-1.300
3.072,5.800,-5.500,-3.100,-1.500
3.073,6.500,-5.100,-3.200,-1.700
3.074,7.000,-4.600,-3.300,-1.900
3.075,7.200,-4.200,-3.400,-2.100
3.076,6.800,-4.200,-3.500,-2.500
3.077,6.200,-4.400,-3.500,-2.900
3.078,5.600,-5.000,-3.600,-3.400
3.079,5.300,-5.600,-3.600,-3.700
3.080,5.300,-6.000,-3.700,-3.900
3.081,5.400,-6.400,-3.800,-4.100
3.082,5.400,-7.100,-3.900,-4.300
3.083,5.400,-8.300,-4.000,-4.500
3.084,5.500,-9.900,-4.100,-4.500
3.085,5.900,-11.800,-4.200,-4.400
3.086,6.400,-13.400,-4.200,-4.200
3.087,6.900,-14.400,-4.200,-4.000
3.088,7.400,-14.700,-4.200,-3.900
3.089,7.800,-14.900,-4.400,-3.700
3.090,8.200,-15.200,-4.500,-3.600
3.091,8.400,-15.700,-4.800,-3.500
3.092,8.500,-16.100,-5.200,-3.300
3.093,8.500,-16.000,-5.600,-3.200
3.094,8.500,-15.100,-6.000,-3.100
3.095,8.500,-13.400,-6.300,-3.100
3.096,8.600,-11.300,-6.300,-3.200
3.097,8.800,-9.200,-6.300,-3.200
3.098,8.800,-7.300,-6.200,-3.300
3.099,8.700,-5.500,-5.900,-3.300
3.100,8.300,-3.700,-5.500,-3.400
3.101,7.800,-2.000,-5.100,-3.400
3.102,7.300,-0.700,-4.700,-3.500
3.103,6.800,0.100,-4.500,-3.500
3.104,6.200,0.100,-4.500,-3.600
3.105,5.300,-0.600,-4.600,-3.700
3.106,4.100,-1.600,-4.700,-3.900
3.107,2.500,-2.800,-4.600,-4.200
3.108,0.900,-4.100,-4.400,-4.500
3.109,-0.800,-5.500,-4.200,-4.800
3.110,-2.700,-7.100,-3.900,-5.100
3.111,-4.900,-9.000,-3.700,-5.500
3.112,-7.300,-10.900,-3.600,-6.000
3.113,-9.200,-12.700,-3.500,-6.600
3.114,-10.500,-14.300,-3.400,-7.100
3.115,-11.300,-15.800,-3.300,-7.400
3.116,-11.800,-17.200,-3.200,-7.500
3.117,-12.400,-18.500,-3.300,-7.500
3.118,-12.600,-19.500,-3.400,-7.400
3.119,-11.900,-20.000,-3.500,-7.400
3.120,-10.600,-20.000,-3.400,-7.600
3.121,-9.100,-19.700,-3.200,-7.700
3.122,-7.800,-19.500,-3.200,-7.800
3.123,-6.200,-19.300,-3.400,-7.600
3.124,-3.600,-19.100,-3.800,-7.300
3.125,0.200,-18.800,-4.100,-6.900
3.126,4.000,-18.300,-4.300,-6.400
3.127,5.900,-17.800,-4.200,-6.000
3.128,5.300,-17.400,-3.900,-5.500
3.129,3.500,-17.200,-3.800,-5.100
3.130,3.600,-17.000,-3.800,-4.900
3.131,7.300,-16.400,-4.000,-5.000
3.132,13.600,-15.400,-4.400,-5.500
3.133,19.900,-14.300,-4.800,-6.100
3.134,23.800,-13.600,-5.200,-7.000
3.135,25.000,-13.300,-5.700,-7.900
3.136,25.000,-13.200,-6.200,-8.900
3.137,25.300,-12.800,-6.700,-10.000
3.138,26.400,-11.600,-7.000,-11.200
3.139,27.200,-9.500,-7.000,-12.200
3.140,26.700,-6.800,-6.700,-13.000
3.141,24.900,-4.100,-6.500,-13.600
3.142,22.600,-1.800,-6.300,-13.900
3.143,20.400,0.100,-6.500,-14.000
3.144,18.400,1.600,-6.800,-14.000
3.145,16.100,2.900,-7.100,-13.600
3.146,13.100,3.800,-7.100,-13.000
3.147,9.500,4.100,-6.800,-12.200
3.148,5.900,3.500,-6.200,-11.200
3.149,2.700,2.300,-5.600,-10.300
3.150,0.100,0.700,-4.900,-9.400
3.151,-1.700,-1.100,-4.400,-8.500
3.152,-3.100,-2.900,-3.900,-7.800
3.153,-3.700,-4.800,-3.700,-7.100
3.154,-3.600,-6.800,-3.500,-6.600
3.155,-2.700,-9.000,-3.500,-6.200
3.156,-0.900,-11.400,-3.500,-6.000
3.157,1.300,-13.900,-3.700,-5.800
3.158,3.300,-16.400,-3.900,-5.800
3.159,4.800,-18.700,-4.100,-5.800
3.160,5.700,-20.500,-4.400,-5.900
3.161,6.200,-21.800,-4.500,-6.000
3.162,6.600,-22.900,-4.600,-6.000
3.163,7.000,-23.800,-4.600,-6.000
3.164,7.300,-24.700,-4.700,-6.000
3.165,7.300,-25.200,-4.700,-5.900
3.166,6.900,-24.800,-4.600,-5.700
3.167,5.900,-23.300,-4.500,-5.700
3.168,4.500,-21.200,-4.200,-5.700
3.169,2.700,-19.300,-3.800,-5.700
3.170,0.900,-17.900,-3.500,-5.800
3.171,-0.800,-17.000,-3.000,-5.900
3.172,-2.400,-16.300,-2.500,-5.900
3.173,-4.100,-15.700,-1.900,-5.800
3.174,-6.200,-15.700,-1.500,-5.600
3.175,-8.900,-16.600,-1.100,-5.500
3.176,-12.000,-18.300,-1.000,-5.500
3.177,-14.800,-20.200,-1.000,-5.600
3.178,-16.800,-21.600,-1.100,-5.700
3.179,-18.100,-22.300,-1.100,-5.700
3.180,-18.600,-22.700,-1.100,-5.700
3.181,-18.600,-23.100,-1.000,-5.600
3.182,-18.000,-23.200,-1.000,-5.700
3.183,-16.300,-22.700,-1.000,-5.700
3.184,-13.300,-21.600,-1.000,-5.800
3.185,-9.300,-20.600,-0.900,-5.800
3.186,-5.000,-20.200,-0.900,-5.700
3.187,-0.800,-20.900,-0.900,-5.600
3.188,2.700,-22.200,-0.900,-5.600
3.189,5.700,-23.500,-0.900,-5.500
3.190,8.200,-24.800,-0.900,-5.500
3.191,10.000,-26.700,-0.700,-5.300
3.192,11.000,-29.000,-0.400,-4.900
3.193,11.000,-31.400,0.000,-4.500
3.194,10.000,-32.500,0.500,-4.200
3.195,8.200,-31.700,0.900,-4.100
3.196,6.000,-29.200,1.300,-4.200
3.197,3.800,-25.800,1.600,-4.500
3.198,1.800,-22.100,1.900,-4.600
3.199,0.100,-18.200,2.100,-4.600
3.200,-1.200,-13.500,2.300,-4.300
3.201,-2.400,-8.200,2.600,-3.900
3.202,-3.700,-2.800,2.600,-3.600
3.203,-5.000,1.600,2.600,-3.400
3.204,-6.300,4.600,2.400,-3.300
3.205,-7.400,6.300,2.100,-3.300
3.206,-8.300,7.400,1.700,-3.300
3.207,-9.100,8.300,1.500,-3.400
3.208,-10.000,9.000,1.200,-3.500
3.209,-10.700,9.100,1.000,-3.500
3.210,-11.100,8.300,0.800,-3.600
3.211,-11.000,6.800,0.600,-3.600
3.212,-10.300,5.000,0.600,-3.500
3.213,-9.100,3.200,0.500,-3.300
3.214,-7.800,1.600,0.500,-3.100
3.215,-6.500,0.200,0.600,-2.900
3.216,-5.100,-1.300,0.600,-2.700
3.217,-3.600,-2.900,0.800,-2.700
3.218,-2.100,-4.400,1.000,-2.800
3.219,-0.900,-5.600,1.100,-2.800
3.220,0.200,-6.600,1.000,-2.800
3.221,1.200,-8.000,0.900,-2.600
3.222,2.100,-9.800,0.800,-2.400
3.223,2.700,-11.400,0.900,-2.300
3.224,2.400,-12.100,1.000,-2.200
3.225,1.300,-11.800,1.300,-2.100
3.226,0.000,-11.100,1.400,-2.100
3.227,-0.500,-11.400,1.300,-2.000
3.228,0.200,-12.800,1.100,-1.800
3.229,1.300,-14.200,0.900,-1.600
3.230,1.700,-13.500,0.800,-1.500
3.231,0.500,-10.000,0.800,-1.400
3.232,-1.900,-4.500,0.900,-1.400
3.233,-4.200,0.600,1.000,-1.400
3.234,-5.200,3.600,1.200,-1.300
3.235,-5.000,4.400,1.200,-1.300
3.236,-4.100,4.300,1.200,-1.300
3.237,-3.700,4.200,1.000,-1.400
3.238,-3.900,4.200,0.900,-1.500
3.239,-4.500,3.200,0.800,-1.400
3.240,-5.000,0.700,0.700,-1.200
3.241,-5.200,-3.000,0.700,-1.000
3.242,-5.300,-7.000,0.700,-1.100
3.243,-5.600,-10.800,0.700,-1.500
3.244,-6.000,-14.400,0.600,-2.200
3.245,-6.400,-18.200,0.600,-2.800
3.246,-6.600,-21.800,0.500,-3.100
3.247,-6.600,-24.900,0.400,-3.200
3.248,-6.300,-27.000,0.300,-3.100
3.249,-5.600,-28.400,0.300,-3.200
3.250,-4.500,-29.300,0.200,-3.400
3.251,-3.100,-30.100,0.100,-3.600
3.252,-1.500,-30.500,0.000,-3.800
3.253,0.200,-30.300,-0.100,-3.800
3.254,2.200,-29.900,-0.100,-3.900
3.255,4.500,-29.600,-0.300,-4.100
3.256,7.200,-29.400,-0.500,-4.400
3.257,9.900,-28.700,-0.700,-4.800
3.258,12.100,-26.500,-0.900,-4.900
3.259,13.400,-22.800,-0.900,-4.800
3.260,14.000,-18.300,-0.900,-4.300
3.261,14.200,-14.100,-0.800,-3.700
3.262,14.200,-10.500,-0.700,-3.100
3.263,14.200,-7.000,-0.700,-2.500
3.264,13.900,-3.300,-0.600,-2.100
3.265,13.100,0.300,-0.600,-1.800
3.266,11.800,3.000,-0.400,-1.500
3.267,10.200,3.800,-0.300,-1.300
3.268,8.400,3.000,-0.300,-1.000
3.269,6.600,1.800,-0.300,-0.800
3.270,4.700,1.200,-0.400,-0.700
3.271,2.900,1.500,-0.500,-0.600
3.272,1.200,2.300,-0.500,-0.500
3.273,-0.500,3.200,-0.500,-0.700
3.274,-2.100,4.200,-0.500,-0.900
3.275,-3.600,6.000,-0.500,-1.200
3.276,-5.000,8.500,-0.600,-1.500
3.277,-6.300,11.200,-0.600,-1.700
3.278,-7.500,13.400,-0.700,-2.000
3.279,-8.700,14.700,-0.700,-2.300
3.280,-9.600,15.400,-0.700,-2.600
3.281,-10.300,15.700,-0.600,-2.900
3.282,-10.800,15.800,-0.500,-3.200
3.283,-11.100,15.200,-0.500,-3.500
3.284,-10.900,13.700,-0.500,-3.800
3.285,-10.000,11.500,-0.400,-4.300
3.286,-8.300,9.200,-0.300,-4.700
3.287,-6.000,7.300,-0.100,-4.900
3.288,-3.300,6.100,0.100,-4.900
3.289,-0.600,5.200,0.200,-4.700
3.290,2.100,4.400,0.300,-4.400
3.291,4.900,3.400,0.400,-4.200
3.292,7.700,2.300,0.600,-4.000
3.293,10.300,1.500,0.900,-3.800
3.294,12.300,1.200,1.200,-3.500
3.295,13.500,1.400,1.300,-3.100
3.296,13.900,1.900,1.200,-2.600
3.297,13.900,2.500,1.100,-2.000
3.298,13.700,3.000,1.000,-1.400
3.299,13.300,3.400,1.000,-0.700
3.300,12.500,3.800,1.000,-0.100
3.301,11.300,4.100,1.000,0.600
3.302,9.800,4.400,0.900,1.200
3.303,8.100,4.400,0.900,1.700
3.304,6.500,3.900,0.800,2.100
3.305,5.200,3.100,0.700,2.400
3.306,4.100,2.000,0.500,2.600
3.307,3.100,0.800,0.300,2.700
3.308,2.400,-0.500,0.000,2.900
3.309,1.800,-1.900,-0.300,3.000
3.310,1.300,-3.500,-0.500,2.900
3.311,0.900,-5.100,-0.700,2.500
3.312,0.500,-6.700,-0.800,1.800
3.313,0.200,-8.000,-0.800,1.000
3.314,0.100,-9.100,-0.800,0.300
3.315,-0.100,-10.100,-0.700,-0.200
3.316,-0.300,-11.300,-0.500,-0.500
3.317,-0.700,-12.500,-0.300,-0.600
3.318,-1.100,-13.400,-0.100,-0.800
3.319,-1.500,-13.700,0.100,-1.100
3.320,-1.900,-13.600,0.200,-1.400
3.321,-2.800,-13.600,0.200,-1.600
3.322,-4.200,-13.900,0.300,-1.700
3.323,-5.800,-13.600,0.300,-1.900
3.324,-7.000,-11.700,0.300,-2.000
3.325,-7.500,-8.200,0.400,-2.200
3.326,-7.700,-4.700,0.500,-2.300
3.327,-8.300,-3.300,0.500,-2.400
3.328,-9.500,-4.700,0.300,-2.300
3.329,-10.500,-7.000,0.200,-2.100
3.330,-10.100,-7.300,0.100,-1.900
3.331,-7.500,-3.900,0.100,-1.600
3.332,-3.500,2.100,0.200,-1.500
3.333,0.600,7.700,0.400,-1.200
3.334,3.500,10.300,0.500,-0.800
3.335,5.300,10.000,0.600,-0.100
3.336,6.600,8.600,0.800,0.600
3.337,8.100,7.600,1.000,1.300
3.338,9.800,7.000,1.200,1.900
3.339,11.000,5.400,1.300,2.300
3.340,11.200,2.200,1.500,2.500
3.341,10.600,-2.100,1.500,2.500
3.342,9.400,-6.200,1.600,2.400
3.343,8.400,-9.400,1.700,2.100
3.344,7.400,-12.000,1.800,1.700
3.345,6.200,-14.500,1.900,1.200
3.346,4.800,-17.100,1.900,0.700
3.347,3.200,-18.900,1.900,0.300
3.348,1.500,-19.400,1.900,-0.100
3.349,0.100,-18.400,2.000,-0.300
3.350,-1.000,-16.700,2.100,-0.800
3.351,-1.900,-15.000,2.300,-1.500
3.352,-2.700,-13.500,2.400,-2.400
3.353,-3.500,-12.000,2.600,-3.300
3.354,-4.300,-10.200,2.700,-3.900
3.355,-4.900,-8.100,3.000,-4.300
3.356,-5.300,-5.900,3.400,-4.500
3.357,-5.400,-3.900,3.900,-4.600
3.358,-5.400,-2.400,4.200,-4.600
3.359,-5.200,-1.600,4.200,-4.500
3.360,-5.200,-1.600,4.000,-4.300
3.361,-5.200,-2.300,3.700,-4.000
3.362,-5.300,-3.700,3.500,-3.600
3.363,-5.400,-5.500,3.500,-3.200
3.364,-5.400,-7.900,3.500,-2.800
3.365,-5.500,-11.100,3.500,-2.500
3.366,-5.600,-15.200,3.400,-2.000
3.367,-5.800,-19.600,3.400,-1.300
3.368,-6.100,-23.400,3.500,-0.500
3.369,-6.400,-25.700,3.700,0.300
3.370,-6.700,-26.200,3.900,0.900
3.371,-7.000,-25.400,4.200,1.300
3.372,-7.300,-23.700,4.400,1.600
3.373,-7.600,-21.000,4.700,1.700
3.374,-7.900,-16.800,4.800,1.900
3.375,-8.200,-10.700,4.900,1.900
3.376,-8.500,-3.400,4.800,1.600
3.377,-8.900,3.300,4.500,0.900
3.378,-9.500,8.400,4.300,0.000
3.379,-10.200,11.600,4.200,-1.000
3.380,-11.100,13.600,4.100,-1.700
3.381,-12.000,14.900,4.100,-2.300
3.382,-13.100,15.300,4.100,-2.800
3.383,-14.200,13.700,4.100,-3.500
3.384,-15.300,10.100,4.000,-4.200
3.385,-16.400,5.300,4.000,-4.900
3.386,-17.300,0.900,4.000,-5.400
3.387,-18.000,-2.100,4.200,-5.600
3.388,-18.400,-3.700,4.500,-5.400
3.389,-18.600,-4.800,4.800,-5.200
3.390,-18.600,-5.500,5.200,-5.100
3.391,-18.400,-5.500,5.500,-5.200
3.392,-18.000,-4.200,5.800,-5.400
3.393,-17.300,-1.900,6.000,-5.600
3.394,-16.400,0.600,6.400,-5.900
3.395,-15.400,2.100,6.900,-6.300
3.396,-14.600,2.400,7.300,-6.900
3.397,-13.900,1.800,7.700,-7.700
3.398,-13.400,1.000,8.000,-8.300
3.399,-12.900,0.100,8.100,-8.600
3.400,-12.400,-1.400,8.300,-8.600
3.401,-12.000,-3.600,8.500,-8.400
3.402,-11.700,-6.500,8.600,-8.300
3.403,-11.700,-9.400,8.500,-8.100
3.404,-12.100,-11.700,8.300,-7.800
3.405,-12.600,-13.200,8.000,-7.200
3.406,-13.100,-13.800,7.700,-6.200
3.407,-13.600,-13.500,7.600,-5.000
3.408,-14.100,-12.600,7.500,-3.800
3.409,-14.700,-11.100,7.500,-2.700
3.410,-15.400,-9.400,7.400,-1.900
3.411,-15.900,-7.800,7.100,-1.000
3.412,-16.300,-6.500,6.900,-0.200
3.413,-16.400,-5.500,6.700,0.600
3.414,-16.400,-5.100,6.700,1.000
3.415,-16.300,-5.600,6.700,1.000
3.416,-16.200,-7.500,6.600,0.300
3.417,-16.000,-10.200,6.400,-0.800
3.418,-15.800,-12.700,6.200,-2.000
3.419,-15.400,-14.600,6.200,-3.200
3.420,-15.000,-16.400,6.200,-4.400
3.421,-14.600,-19.100,6.200,-5.700
3.422,-14.200,-23.000,5.900,-7.300
3.423,-13.800,-25.900,5.200,-8.800
3.424,-13.400,-25.000,4.400,-10.200
3.425,-12.900,-20.100,3.500,-11.200
3.426,-12.500,-14.300,2.900,-11.800
3.427,-12.100,-12.300,2.600,-12.100
3.428,-11.800,-15.700,2.300,-12.100
3.429,-11.400,-20.600,2.000,-12.000
3.430,-11.000,-20.500,1.700,-11.600
3.431,-10.300,-11.600,1.500,-10.800
3.432,-9.500,3.400,1.500,-9.600
3.433,-8.900,17.100,1.600,-8.200
3.434,-8.500,23.900,1.700,-6.800
3.435,-8.300,23.300,1.900,-5.300
3.436,-8.100,19.400,2.000,-3.700
3.437,-7.700,16.200,2.200,-1.800
3.438,-7.300,14.200,2.400,-0.100
3.439,-6.800,11.200,2.600,1.000
3.440,-6.400,5.300,2.700,1.400
3.441,-6.000,-2.700,2.800,1.200
3.442,-5.600,-10.100,2.800,1.000
3.443,-5.000,-15.500,2.800,1.300
3.444,-4.400,-19.100,2.700,2.000
3.445,-3.800,-22.300,2.500,2.500
3.446,-3.200,-25.800,2.300,2.500
3.447,-2.700,-28.600,2.100,1.800
3.448,-2.300,-29.500,2.000,0.900
3.449,-1.900,-27.900,1.800,0.100
3.450,-1.300,-24.500,1.700,-0.200
3.451,-0.700,-20.600,1.500,-0.300
3.452,0.000,-16.800,1.200,-0.400
3.453,0.600,-13.400,0.900,-0.700
3.454,1.300,-9.500,0.600,-1.000
3.455,1.900,-5.200,0.500,-1.200
3.456,2.400,-0.800,0.500,-1.200
3.457,2.800,2.800,0.500,-1.000
3.458,3.000,4.900,0.500,-0.700
3.459,3.100,5.300,0.300,-0.500
3.460,2.900,4.700,0.100,-0.400
3.461,2.800,3.800,-0.100,-0.400
3.462,2.700,2.800,-0.200,-0.400
3.463,2.700,1.100,-0.300,-0.400
3.464,2.800,-1.600,-0.500,-0.300
3.465,2.900,-4.500,-0.800,-0.200
3.466,3.100,-6.100,-1.000,-0.100
3.467,3.300,-5.500,-1.100,0.100
3.468,3.600,-2.700,-1.200,0.100
3.469,3.900,1.200,-1.200,0.100
3.470,4.300,4.900,-1.300,0.200
3.471,4.600,8.400,-1.400,0.200
3.472,4.700,12.000,-1.400,0.200
3.473,4.900,16.000,-1.400,0.200
3.474,5.100,19.500,-1.300,0.200
3.475,5.500,21.200,-1.300,0.100
3.476,6.000,20.600,-1.500,0.000
3.477,6.400,18.000,-1.700,-0.200
3.478,6.600,14.400,-1.900,-0.400
3.479,6.500,10.700,-2.000,-0.400
3.480,6.300,7.100,-2.100,-0.500
3.481,5.900,3.500,-2.100,-0.600
3.482,5.600,0.200,-2.000,-0.800
3.483,5.500,-2.300,-2.100,-1.100
3.484,5.600,-3.400,-2.100,-1.300
3.485,5.600,-3.100,-2.100,-1.600
3.486,5.700,-1.900,-2.100,-1.800
3.487,5.700,-0.300,-2.000,-2.200
3.488,5.600,1.200,-2.000,-2.600
3.489,5.500,2.700,-2.100,-3.000
3.490,5.400,4.400,-2.100,-3.200
3.491,5.400,6.300,-2.200,-3.300
3.492,5.400,8.300,-2.200,-3.300
3.493,5.600,10.100,-2.200,-3.300
3.494,5.700,11.500,-2.100,-3.000
3.495,6.000,12.400,-2.100,-2.500
3.496,6.200,13.000,-2.100,-1.800
3.497,6.500,13.200,-2.100,-1.000
3.498,6.700,13.100,-2.000,-0.500
3.499,6.800,12.400,-2.000,-0.300
3.500,6.800,11.000,-1.900,-0.400
3.501,6.800,9.200,-1.800,-0.600
3.502,6.700,7.400,-1.800,-0.900
3.503,6.600,6.300,-1.800,-1.100
3.504,6.600,5.800,-1.800,-1.500
3.505,6.500,5.900,-1.800,-1.800
3.506,6.400,6.300,-1.700,-2.100
3.507,6.300,6.800,-1.600,-2.300
3.508,6.300,7.400,-1.500,-2.400
3.509,6.300,8.400,-1.500,-2.300
3.510,6.400,9.600,-1.400,-2.100
3.511,6.400,11.100,-1.500,-1.800
3.512,6.500,12.400,-1.600,-1.400
3.513,6.500,13.000,-1.600,-0.900
3.514,6.600,12.800,-1.600,-0.300
3.515,6.700,12.000,-1.500,0.300
3.516,7.000,11.000,-1.200,0.900
3.517,7.200,9.700,-0.900,1.600
3.518,7.300,8.100,-0.500,2.300
3.519,7.100,6.100,-0.100,3.000
3.520,7.000,3.800,0.500,3.800
3.521,6.900,1.900,1.100,4.600
3.522,6.800,0.500,1.700,5.400
3.523,6.800,-0.600,2.300,6.100
3.524,6.600,-2.200,2.800,6.800
3.525,6.300,-4.500,3.400,7.300
3.526,6.000,-6.900,4.100,7.800
3.527,5.900,-8.100,4.900,8.200
3.528,6.000,-7.600,5.700,8.700
3.529,6.300,-6.400,6.600,9.200
3.530,6.400,-5.800,7.400,9.600
3.531,6.100,-7.000,8.100,9.900
3.532,5.400,-9.300,8.600,10.300
3.533,4.800,-11.300,9.100,11.000
3.534,4.500,-11.600,9.500,11.800
3.535,4.500,-10.000,9.800,12.300
3.536,4.900,-7.500,10.000,12.100
3.537,5.200,-5.200,10.100,11.300
3.538,5.400,-3.400,10.000,10.300
3.539,5.500,-1.700,9.800,10.000
3.540,5.600,0.100,9.400,10.500
3.541,5.800,1.900,8.900,11.100
3.542,5.900,3.100,8.300,10.700
3.543,6.000,3.500,7.700,8.800
3.544,6.000,3.300,7.100,5.900
3.545,6.000,2.900,6.300,3.200
3.546,6.000,2.400,5.500,1.500
3.547,5.900,2.000,4.700,0.500
3.548,5.600,1.900,3.800,-0.200
3.549,5.300,2.600,2.900,-1.100
3.550,5.100,4.300,2.000,-2.000
3.551,5.000,6.900,1.200,-2.400
3.552,5.000,9.700,0.300,-2.100
3.553,5.200,12.300,-0.600,-1.400
3.554,5.600,14.500,-1.500,-1.100
3.555,6.100,16.400,-2.700,-1.400
3.556,6.700,18.300,-4.000,-2.100
3.557,7.500,19.400,-5.600,-3.000
3.558,8.400,18.800,-7.400,-4.000
3.559,9.300,16.000,-9.300,-5.400
3.560,10.300,11.200,-11.200,-7.400
3.561,11.200,4.900,-13.200,-10.300
3.562,12.200,-2.300,-15.400,-13.700
3.563,13.300,-10.400,-17.700,-17.200
3.564,14.600,-19.600,-20.200,-20.900
3.565,15.900,-30.000,-22.800,-24.800
3.566,17.200,-41.400,-25.400,-29.000
3.567,18.200,-53.000,-28.100,-33.500
3.568,18.700,-64.300,-30.800,-38.300
3.569,18.800,-74.700,-33.400,-43.100
3.570,18.200,-84.200,-35.700,-47.700
3.571,17.000,-92.900,-37.700,-51.900
3.572,14.800,-100.800,-39.100,-55.800
3.573,11.700,-107.500,-39.900,-59.500
3.574,7.600,-113.000,-40.100,-62.800
3.575,2.900,-117.100,-39.700,-65.800
3.576,-1.700,-120.100,-39.000,-68.200
3.577,-5.700,-122.200,-38.300,-69.900
3.578,-8.600,-123.600,-37.800,-70.800
3.579,-10.100,-124.000,-37.500,-71.000
3.580,-10.600,-123.200,-37.200,-70.300
3.581,-10.400,-121.100,-36.800,-69.000
3.582,-10.200,-117.800,-35.800,-67.100
3.583,-10.300,-113.600,-34.200,-64.600
3.584,-11.100,-108.600,-31.700,-61.500
3.585,-12.500,-102.200,-28.500,-58.000
3.586,-14.500,-93.900,-24.600,-54.000
3.587,-16.900,-83.600,-20.400,-49.500
3.588,-19.300,-71.600,-15.900,-44.600
3.589,-21.800,-58.900,-11.200,-39.400
3.590,-24.200,-45.800,-6.500,-34.100
3.591,-26.400,-32.600,-1.800,-29.000
3.592,-28.700,-19.500,2.900,-24.300
3.593,-31.000,-6.900,7.600,-19.900
3.594,-33.300,4.600,12.000,-15.800
3.595,-35.700,14.300,16.200,-12.100
3.596,-37.900,21.800,20.000,-8.800
3.597,-39.900,27.200,23.400,-6.100
3.598,-41.400,31.000,26.300,-3.900
3.599,-42.000,33.300,28.300,-2.200
3.600,-41.400,34.300,29.200,-0.600
3.601,-39.400,33.400,28.700,0.900
