'Elapsed time','AECG1','AECG2','AECG3','AECG4'
'seconds','uV','uV','uV','uV'
0.000,5.700,0.300,-3.100,-1.800
0.001,5.800,0.800,-2.800,-2.200
0.002,5.700,1.200,-2.400,-2.800
0.003,5.600,1.500,-2.100,-3.600
0.004,5.600,1.600,-2.000,-4.500
0.005,5.800,1.500,-1.900,-5.700
0.006,5.900,1.300,-1.800,-7.000
0.007,5.900,1.300,-1.700,-8.000
0.008,5.800,1.500,-1.600,-8.700
0.009,5.600,1.700,-1.400,-9.100
0.010,5.500,1.800,-1.200,-9.200
0.011,5.400,1.900,-1.100,-9.100
0.012,5.400,1.900,-1.100,-8.900
0.013,5.400,1.800,-1.100,-8.400
0.014,5.300,1.800,-1.200,-7.400
0.015,5.300,1.600,-1.300,-6.100
0.016,5.300,1.300,-1.300,-4.700
0.017,5.400,1.000,-1.400,-3.400
0.018,5.500,0.600,-1.400,-2.400
0.019,5.600,0.300,-1.300,-1.700
0.020,5.600,0.000,-1.300,-1.000
0.021,5.500,-0.300,-1.400,-0.400
0.022,5.500,-0.700,-1.600,-0.200
0.023,5.500,-1.000,-1.800,-0.500
0.024,5.600,-1.100,-2.000,-1.400
0.025,5.900,-1.100,-1.900,-2.600
0.026,6.000,-1.000,-1.800,-3.800
0.027,6.100,-0.900,-1.800,-4.900
0.028,5.900,-1.000,-1.800,-6.000
0.029,5.800,-1.200,-1.900,-7.200
0.030,5.600,-1.300,-2.000,-8.000
0.031,5.400,-1.200,-2.000,-8.400
0.032,5.100,-0.900,-1.800,-8.200
0.033,4.800,-0.300,-1.800,-7.800
0.034,4.500,0.200,-1.800,-7.400
0.035,4.300,0.700,-1.900,-6.900
0.036,4.200,0.900,-2.000,-5.700
0.037,4.200,0.700,-2.100,-3.800
0.038,4.200,0.300,-2.200,-1.800
0.039,4.200,-0.100,-2.100,-0.800
0.040,4.200,-0.500,-2.100,-1.100
0.041,4.100,-0.900,-1.900,-2.100
0.042,4.000,-1.400,-1.700,-2.300
0.043,3.900,-2.200,-1.400,-0.700
0.044,3.800,-3.200,-1.000,2.200
0.045,3.700,-4.100,-0.700,5.100
0.046,3.700,-4.700,-0.400,6.600
0.047,3.600,-5.100,-0.100,6.600
0.048,3.600,-5.300,0.100,6.000
0.049,3.500,-5.400,0.300,5.600
0.050,3.500,-5.300,0.300,5.800
0.051,3.500,-4.900,0.300,6.200
0.052,3.500,-4.000,0.400,6.200
0.053,3.600,-2.700,0.400,5.800
0.054,3.600,-1.400,0.600,5.400
0.055,3.600,-0.100,0.700,5.200
0.056,3.500,1.300,0.700,5.200
0.057,3.400,2.800,0.800,5.200
0.058,3.300,4.100,0.800,4.900
0.059,3.200,5.000,0.800,4.400
0.060,3.100,5.000,0.800,3.800
0.061,3.000,4.700,0.800,3.300
0.062,2.900,4.400,0.700,2.900
0.063,2.700,4.600,0.700,2.800
0.064,2.500,5.100,0.700,2.700
0.065,2.200,5.300,0.700,2.700
0.066,2.100,4.800,0.700,2.700
0.067,1.800,3.500,0.700,2.600
0.068,1.700,2.100,0.700,2.500
0.069,1.500,0.700,0.800,2.400
0.070,1.300,-0.300,0.900,2.300
0.071,1.200,-1.200,1.100,2.200
0.072,1.200,-2.100,1.100,2.300
0.073,1.200,-3.200,1.100,2.300
0.074,1.200,-4.000,1.000,2.300
0.075,1.300,-4.600,0.800,2.300
0.076,1.300,-4.800,0.700,2.300
0.077,1.300,-4.800,0.700,2.200
0.078,1.400,-4.800,0.600,2.000
0.079,1.500,-4.800,0.500,1.700
0.080,1.700,-4.800,0.400,1.500
0.081,1.800,-5.000,0.100,1.100
0.082,2.100,-5.300,-0.200,0.800
0.083,2.400,-5.700,-0.500,0.300
0.084,2.700,-6.300,-0.900,-0.300
0.085,3.100,-6.900,-1.200,-1.000
0.086,3.600,-7.600,-1.600,-1.800
0.087,4.200,-8.400,-2.100,-2.600
0.088,4.700,-9.200,-2.600,-3.400
0.089,5.200,-10.200,-3.100,-4.300
0.090,5.600,-11.100,-3.700,-5.300
0.091,6.100,-12.100,-4.300,-6.400
0.092,6.500,-13.100,-4.900,-7.700
0.093,6.900,-14.300,-5.600,-8.900
0.094,7.300,-15.500,-6.300,-10.100
0.095,7.700,-16.600,-7.000,-11.200
0.096,8.000,-17.500,-7.700,-12.300
0.097,8.300,-18.300,-8.400,-13.400
0.098,8.600,-19.000,-9.100,-14.400
0.099,8.900,-19.600,-9.600,-15.200
0.100,9.100,-20.100,-10.100,-15.800
0.101,9.100,-20.600,-10.600,-16.200
0.102,9.000,-21.100,-11.000,-16.400
0.103,8.900,-21.500,-11.400,-16.700
0.104,8.800,-21.800,-11.700,-16.900
0.105,8.500,-22.000,-11.800,-16.800
0.106,8.300,-22.100,-11.900,-16.300
0.107,7.800,-22.000,-11.900,-15.300
0.108,7.300,-21.800,-11.800,-14.000
0.109,6.700,-21.400,-11.800,-12.700
0.110,6.100,-21.000,-11.700,-11.500
0.111,5.700,-20.600,-11.500,-10.300
0.112,5.300,-20.100,-11.200,-9.000
0.113,4.900,-19.600,-10.900,-7.700
0.114,4.400,-18.900,-10.500,-6.400
0.115,4.000,-18.300,-10.100,-5.600
0.116,3.500,-17.600,-9.800,-5.100
0.117,3.000,-16.900,-9.500,-5.000
0.118,2.700,-16.100,-9.100,-4.900
0.119,2.400,-15.400,-8.800,-4.800
0.120,2.100,-14.600,-8.400,-4.800
0.121,1.900,-13.700,-8.200,-5.000
0.122,1.800,-12.800,-8.000,-5.500
0.123,1.700,-12.100,-7.800,-6.300
0.124,1.800,-11.500,-7.700,-7.200
0.125,2.000,-10.900,-7.500,-8.000
0.126,2.400,-10.400,-7.500,-8.700
0.127,3.100,-10.000,-7.800,-9.200
0.128,4.000,-9.500,-8.400,-9.800
0.129,5.100,-9.100,-9.200,-10.200
0.130,6.400,-8.900,-10.000,-10.500
0.131,7.700,-8.900,-10.600,-10.500
0.132,8.800,-9.100,-10.900,-10.200
0.133,9.600,-9.400,-11.000,-9.700
0.134,9.900,-9.500,-10.800,-9.100
0.135,9.900,-9.500,-10.500,-8.400
0.136,9.400,-9.300,-9.800,-7.500
0.137,8.500,-8.900,-8.900,-6.400
0.138,7.500,-8.300,-7.900,-5.200
0.139,6.400,-7.400,-6.800,-4.500
0.140,5.500,-6.400,-5.800,-4.200
0.141,4.900,-5.000,-4.800,-4.100
0.142,4.400,-3.400,-3.900,-3.600
0.143,3.900,-1.700,-3.100,-2.400
0.144,3.500,-0.100,-2.200,-0.600
0.145,3.100,1.400,-1.500,1.100
0.146,2.700,2.800,-0.700,2.100
0.147,2.500,4.000,0.000,2.400
0.148,2.300,4.900,0.600,2.300
0.149,2.000,5.600,1.000,2.300
0.150,1.800,6.200,1.300,2.600
0.151,1.600,6.700,1.600,2.900
0.152,1.600,7.100,1.700,3.100
0.153,1.600,7.300,1.800,3.200
0.154,1.700,7.100,1.900,3.200
0.155,1.700,6.600,2.000,3.200
0.156,1.700,6.200,2.000,3.300
0.157,1.700,6.000,2.000,3.400
0.158,1.700,6.000,2.000,3.500
0.159,1.700,5.900,2.000,3.400
0.160,1.800,5.800,2.000,3.400
0.161,1.900,5.700,2.000,3.600
0.162,2.000,6.000,2.000,3.900
0.163,2.100,6.900,1.900,4.300
0.164,2.300,8.200,1.900,4.900
0.165,2.500,9.300,1.900,5.400
0.166,2.600,10.100,1.900,6.000
0.167,2.800,10.600,2.000,6.800
0.168,2.900,11.200,1.900,7.600
0.169,2.900,11.900,1.800,8.400
0.170,2.900,12.700,1.800,9.200
0.171,3.000,13.200,1.700,9.700
0.172,3.000,13.400,1.500,10.000
0.173,3.100,13.300,1.400,10.200
0.174,3.200,13.200,1.300,10.400
0.175,3.200,13.300,1.300,10.600
0.176,3.200,13.500,1.400,10.800
0.177,3.200,13.500,1.400,10.900
0.178,3.200,13.100,1.500,10.900
0.179,3.100,12.600,1.500,10.700
0.180,3.000,12.100,1.600,10.300
0.181,2.900,11.700,1.700,9.900
0.182,2.800,11.500,2.000,9.500
0.183,2.700,11.400,2.200,9.100
0.184,2.600,11.300,2.500,8.800
0.185,2.700,11.300,2.700,8.500
0.186,2.700,11.200,3.000,8.100
0.187,2.700,11.100,3.300,7.700
0.188,2.700,11.100,3.600,7.100
0.189,2.600,11.100,3.900,6.600
0.190,2.600,11.200,4.200,6.100
0.191,2.600,11.300,4.400,5.700
0.192,2.700,11.300,4.400,5.300
0.193,2.800,11.300,4.400,4.900
0.194,2.800,11.300,4.400,4.600
0.195,2.800,11.200,4.300,4.400
0.196,2.900,11.000,4.200,4.100
0.197,2.900,10.700,4.200,4.000
0.198,2.900,10.300,4.100,4.000
0.199,2.800,9.800,4.100,4.000
0.200,2.600,9.400,4.100,4.100
0.201,2.400,9.200,4.100,4.400
0.202,2.100,8.900,4.100,4.600
0.203,1.900,8.700,4.100,4.900
0.204,1.800,8.500,4.200,5.000
0.205,1.600,8.400,4.200,5.200
0.206,1.500,8.500,4.200,5.500
0.207,1.400,9.100,4.300,6.000
0.208,1.300,9.900,4.400,6.700
0.209,1.300,10.800,4.600,7.500
0.210,1.300,11.600,4.900,8.400
0.211,1.300,12.200,5.300,9.200
0.212,1.300,12.700,5.800,10.200
0.213,1.400,13.200,6.400,11.200
0.214,1.700,13.700,7.100,12.500
0.215,2.000,14.100,7.900,13.800
0.216,2.400,14.200,8.800,15.100
0.217,2.900,14.300,9.900,16.500
0.218,3.600,14.300,11.300,18.000
0.219,4.400,14.500,12.900,19.600
0.220,5.500,14.800,14.700,21.300
0.221,6.600,15.100,16.700,23.100
0.222,7.900,15.600,18.900,25.000
0.223,9.200,16.400,21.400,27.100
0.224,10.300,17.800,24.300,29.400
0.225,11.000,20.100,27.700,32.200
0.226,11.400,23.100,31.600,35.400
0.227,11.400,27.100,35.700,39.000
0.228,11.100,31.700,39.800,42.800
0.229,10.900,36.700,43.700,46.500
0.230,11.200,41.400,46.900,49.800
0.231,12.400,45.200,48.900,52.300
0.232,14.900,47.300,49.300,53.500
0.233,18.900,47.100,47.600,52.900
0.234,24.300,44.700,43.500,50.300
0.235,30.800,40.200,36.800,45.500
0.236,37.800,34.000,27.600,39.000
0.237,44.800,26.400,15.900,30.400
0.238,51.300,17.500,1.700,19.400
0.239,56.900,7.100,-14.800,5.500
0.240,61.600,-5.000,-32.900,-11.200
0.241,65.700,-19.200,-51.500,-29.400
0.242,69.400,-35.800,-69.400,-47.200
0.243,73.000,-54.700,-85.200,-63.300
0.244,76.000,-75.900,-98.500,-77.300
0.245,77.800,-99.200,-109.000,-90.300
0.246,77.300,-123.800,-117.000,-103.100
0.247,73.600,-148.900,-123.000,-116.200
0.248,66.400,-173.600,-127.300,-129.400
0.249,56.100,-196.900,-130.500,-142.200
0.250,44.000,-218.600,-133.100,-154.300
0.251,31.900,-238.700,-135.500,-165.900
0.252,21.700,-257.200,-138.400,-177.000
0.253,15.100,-273.700,-141.900,-186.900
0.254,12.300,-286.400,-145.700,-194.400
0.255,12.200,-,-148.100,-198.100
0.256,12.000,-288.000,-147.200,-196.000
0.257,8.800,-270.200,-140.800,-186.600
0.258,0.100,-237.800,-127.400,-169.500
0.259,-14.700,-192.100,-107.100,-145.000
0.260,-34.200,-137.100,-81.500,-115.100
0.261,-55.800,-78.500,-53.600,-83.000
0.262,-76.000,-22.400,-26.400,-51.700
0.263,-92.100,26.400,-2.600,-24.000
0.264,-102.400,65.000,16.200,-1.500
0.265,-106.700,92.500,29.600,15.500
0.266,-105.600,109.900,37.900,27.600
0.267,-100.000,119.000,42.100,35.400
0.268,-91.400,122.000,43.000,40.000
0.269,-80.700,120.900,41.500,42.300
0.270,-68.800,117.000,38.500,43.000
0.271,-56.700,111.300,34.600,42.600
0.272,-45.000,104.300,30.300,41.400
0.273,-34.000,96.400,25.900,39.700
0.274,-24.400,87.900,21.600,37.600
0.275,-16.300,79.300,17.800,35.100
0.276,-9.900,70.700,14.600,32.600
0.277,-5.200,62.200,12.100,30.000
0.278,-2.300,54.000,10.200,27.400
0.279,-0.800,46.200,9.000,24.900
0.280,-0.400,38.900,8.300,22.400
0.281,-0.800,32.300,8.000,20.000
0.282,-1.600,26.500,7.900,17.700
0.283,-2.400,21.700,7.900,15.500
0.284,-3.000,17.600,8.000,13.400
0.285,-3.400,14.200,8.200,11.400
0.286,-3.500,11.600,8.200,9.400
0.287,-3.500,9.800,8.300,7.400
0.288,-3.300,8.800,8.300,5.500
0.289,-3.100,8.400,8.200,3.700
0.290,-2.800,8.300,8.100,2.200
0.291,-2.600,8.100,7.900,1.000
0.292,-2.300,7.700,7.600,0.000
0.293,-2.100,7.300,7.300,-0.900
0.294,-1.800,7.000,7.100,-1.700
0.295,-1.600,7.000,6.800,-2.500
0.296,-1.300,7.200,6.500,-3.200
0.297,-1.200,7.400,6.200,-3.800
0.298,-1.100,7.300,6.000,-4.200
0.299,-1.100,7.000,5.800,-4.600
0.300,-1.100,6.500,5.700,-4.800
0.301,-1.000,6.000,5.600,-4.900
0.302,-1.000,5.500,5.600,-4.900
0.303,-1.000,5.200,5.500,-4.900
0.304,-1.000,5.000,5.500,-5.000
0.305,-1.000,4.800,5.400,-4.900
0.306,-1.000,4.600,5.500,-4.500
0.307,-1.000,4.400,5.500,-3.700
0.308,-0.900,4.200,5.600,-2.600
0.309,-0.800,4.200,5.700,-1.300
0.310,-0.700,4.300,5.700,0.200
0.311,-0.600,4.400,5.800,1.600
0.312,-0.600,4.400,5.800,3.100
0.313,-0.600,4.300,5.900,4.700
0.314,-0.700,4.100,6.000,6.500
0.315,-0.700,4.000,6.000,8.300
0.316,-0.700,3.900,6.100,10.000
0.317,-0.700,3.900,6.100,11.300
0.318,-0.700,3.900,6.100,12.200
0.319,-0.800,3.700,6.100,12.900
0.320,-0.800,3.300,6.100,13.400
0.321,-0.700,2.900,6.100,13.700
0.322,-0.700,2.500,6.100,13.800
0.323,-0.700,2.300,6.000,13.700
0.324,-0.900,2.300,6.000,13.200
0.325,-1.200,2.500,6.100,12.500
0.326,-1.500,2.800,6.300,11.700
0.327,-1.700,3.000,6.300,10.900
0.328,-1.800,3.100,6.000,10.100
0.329,-1.700,3.000,5.500,9.300
0.330,-1.600,2.800,5.000,8.600
0.331,-1.500,2.700,4.700,7.900
0.332,-1.600,2.500,4.700,7.200
0.333,-1.700,2.400,4.700,6.600
0.334,-1.800,2.400,4.900,6.200
0.335,-1.800,2.500,4.900,6.000
0.336,-1.700,2.500,5.000,5.900
0.337,-1.600,2.600,5.000,5.800
0.338,-1.400,2.700,5.100,5.700
0.339,-1.300,2.700,5.200,5.600
0.340,-1.200,2.800,5.200,5.400
0.341,-1.100,2.900,5.200,5.400
0.342,-0.900,3.000,5.100,5.400
0.343,-0.800,3.000,5.100,5.400
0.344,-0.700,3.000,5.100,5.500
0.345,-0.600,2.800,5.300,5.500
0.346,-0.500,2.700,5.400,5.300
0.347,-0.400,2.700,5.600,5.100
0.348,-0.400,2.700,5.600,4.900
0.349,-0.500,2.700,5.700,4.800
0.350,-0.600,2.700,5.800,4.700
0.351,-0.600,2.500,5.900,4.700
0.352,-0.600,2.100,6.000,4.500
0.353,-0.400,1.500,6.100,4.200
0.354,-0.300,0.900,6.100,3.700
0.355,-0.200,0.300,6.000,3.300
0.356,-0.200,-0.200,5.900,2.800
0.357,-0.200,-0.700,5.800,2.200
0.358,-0.100,-1.100,5.800,1.500
0.359,0.200,-1.300,5.800,0.400
0.360,0.600,-1.200,5.700,-0.800
0.361,1.100,-1.100,5.400,-2.000
0.362,1.800,-0.900,5.000,-2.900
0.363,2.700,-0.800,4.400,-3.600
0.364,3.700,-0.900,3.900,-4.100
0.365,5.000,-1.100,3.400,-4.500
0.366,6.300,-1.200,2.800,-4.700
0.367,7.400,-1.200,2.200,-4.600
0.368,8.500,-0.800,1.600,-4.100
0.369,9.400,-0.200,0.900,-3.200
0.370,10.200,0.400,0.200,-2.000
0.371,10.800,1.100,-0.300,-0.700
0.372,11.400,1.500,-0.700,0.400
0.373,11.800,1.800,-1.100,1.200
0.374,12.100,2.000,-1.300,1.800
0.375,12.000,2.000,-1.400,2.100
0.376,11.300,1.900,-1.200,2.200
0.377,9.900,1.600,-0.800,2.200
0.378,8.000,1.300,-0.100,2.400
0.379,5.800,1.100,0.700,2.900
0.380,3.500,0.900,1.500,3.600
0.381,1.400,1.000,2.200,4.300
0.382,-0.400,1.100,2.700,5.000
0.383,-1.800,1.400,3.200,5.400
0.384,-2.700,1.800,3.500,5.600
0.385,-3.300,2.100,3.700,5.500
0.386,-3.400,2.400,3.800,5.300
0.387,-3.300,2.500,3.900,5.000
0.388,-2.900,2.400,4.000,4.500
0.389,-2.400,2.200,4.000,4.000
0.390,-1.800,2.000,4.100,3.500
0.391,-1.300,1.800,4.100,3.100
0.392,-0.700,1.600,4.100,2.700
0.393,-0.200,1.200,4.100,2.500
0.394,0.300,0.700,3.900,2.200
0.395,0.600,0.400,3.800,1.900
0.396,0.800,0.300,3.800,1.600
0.397,0.900,0.300,3.900,1.200
0.398,1.000,0.400,4.100,0.900
0.399,1.100,0.200,4.100,0.900
0.400,1.200,-0.400,4.100,0.900
0.401,1.300,-1.200,4.000,1.000
0.402,1.300,-1.800,3.900,1.200
0.403,1.300,-2.300,3.700,1.500
0.404,1.400,-2.500,3.700,1.800
0.405,1.500,-2.800,3.600,2.200
0.406,1.500,-3.100,3.600,2.700
0.407,1.600,-3.700,3.500,3.200
0.408,1.700,-4.300,3.500,3.600
0.409,1.700,-5.000,3.500,4.000
0.410,1.800,-5.500,3.500,4.200
0.411,1.900,-6.000,3.400,4.200
0.412,2.000,-6.500,3.300,4.100
0.413,2.000,-7.000,3.200,3.800
0.414,2.000,-7.400,3.100,3.500
0.415,2.100,-7.500,3.000,3.300
0.416,2.200,-7.200,2.900,3.200
0.417,2.400,-6.500,2.800,3.100
0.418,2.700,-5.600,2.800,2.900
0.419,2.900,-4.600,2.800,2.700
0.420,3.000,-3.800,2.800,2.400
0.421,3.100,-3.300,2.800,2.100
0.422,3.200,-2.900,2.700,1.800
0.423,3.200,-2.500,2.500,1.600
0.424,3.400,-2.000,2.300,1.600
0.425,3.600,-1.700,2.300,1.600
0.426,3.800,-1.600,2.300,1.600
0.427,4.000,-1.900,2.200,1.800
0.428,4.200,-2.400,1.900,2.100
0.429,4.400,-3.100,1.500,2.400
0.430,4.500,-3.900,1.100,2.700
0.431,4.600,-4.900,0.700,2.800
0.432,4.700,-6.100,0.600,2.900
0.433,4.800,-7.500,0.400,3.100
0.434,4.900,-8.900,0.200,3.300
0.435,5.000,-10.000,0.100,3.400
0.436,5.200,-10.700,0.000,3.100
0.437,5.400,-11.200,0.100,2.400
0.438,5.600,-11.700,0.200,1.600
0.439,5.800,-12.400,0.200,1.100
0.440,6.000,-13.300,0.100,1.100
0.441,6.100,-14.200,-0.100,1.200
0.442,6.300,-15.000,-0.300,0.800
0.443,6.500,-15.500,-0.400,-0.600
0.444,6.800,-15.800,-0.600,-2.600
0.445,7.100,-16.100,-0.800,-4.500
0.446,7.300,-16.500,-1.100,-5.900
0.447,7.500,-17.100,-1.500,-6.600
0.448,7.700,-17.800,-1.800,-7.100
0.449,8.000,-18.400,-2.100,-7.700
0.450,8.400,-19.100,-2.500,-8.500
0.451,8.800,-19.900,-2.900,-9.200
0.452,9.100,-21.000,-3.400,-9.400
0.453,9.400,-22.200,-3.800,-9.200
0.454,9.700,-23.300,-4.300,-9.000
0.455,9.900,-24.200,-4.800,-8.900
0.456,10.300,-24.900,-5.400,-8.900
0.457,10.600,-25.500,-5.900,-8.800
0.458,10.900,-26.100,-6.400,-8.700
0.459,11.200,-26.700,-6.900,-8.600
0.460,11.500,-27.400,-7.400,-8.800
0.461,11.700,-28.100,-7.900,-9.400
0.462,12.000,-28.900,-8.300,-10.400
0.463,12.300,-29.700,-8.800,-11.700
0.464,12.500,-30.700,-9.300,-13.200
0.465,12.700,-31.600,-9.800,-14.600
0.466,12.800,-32.500,-10.200,-16.000
0.467,13.000,-33.100,-10.600,-17.400
0.468,13.200,-33.500,-10.900,-18.800
0.469,13.500,-33.800,-11.300,-20.200
0.470,13.800,-34.100,-11.600,-21.300
0.471,14.000,-34.500,-12.000,-22.100
0.472,14.100,-34.900,-12.200,-22.500
0.473,14.200,-35.500,-12.500,-22.500
0.474,14.200,-36.100,-12.700,-22.300
0.475,14.300,-36.900,-12.800,-21.900
0.476,14.400,-37.700,-13.000,-21.200
0.477,14.600,-38.500,-13.100,-20.400
0.478,14.600,-39.300,-13.300,-19.500
0.479,14.600,-40.000,-13.400,-18.700
0.480,14.600,-40.600,-13.400,-18.300
0.481,14.500,-40.900,-13.300,-18.100
0.482,14.400,-41.200,-13.100,-18.000
0.483,14.400,-41.300,-12.900,-18.100
0.484,14.200,-41.300,-12.800,-18.200
0.485,14.000,-41.100,-12.800,-18.500
0.486,13.700,-40.800,-12.700,-19.200
0.487,13.400,-40.200,-12.600,-20.000
0.488,13.100,-39.400,-12.300,-20.900
0.489,12.700,-38.500,-12.000,-21.500
0.490,12.400,-37.700,-11.700,-21.900
0.491,12.100,-37.000,-11.300,-22.100
0.492,11.800,-36.300,-11.100,-22.200
0.493,11.400,-35.500,-10.900,-22.300
0.494,11.100,-34.800,-10.700,-22.100
0.495,10.700,-34.000,-10.600,-21.600
0.496,10.300,-33.500,-10.400,-20.800
0.497,9.900,-33.100,-10.300,-19.900
0.498,9.600,-32.800,-10.200,-19.000
0.499,9.400,-32.600,-10.100,-18.500
0.500,9.200,-32.200,-10.100,-18.200
0.501,9.000,-31.800,-9.900,-17.900
0.502,8.900,-31.400,-9.800,-17.800
0.503,8.800,-31.000,-9.700,-17.700
0.504,8.800,-30.600,-9.600,-18.000
0.505,8.800,-30.000,-9.400,-18.300
0.506,8.800,-29.400,-9.200,-18.700
0.507,8.800,-28.700,-9.100,-18.800
0.508,8.700,-27.800,-8.900,-18.500
0.509,8.600,-26.900,-8.700,-18.000
0.510,8.600,-25.800,-8.500,-17.400
0.511,8.600,-24.600,-8.300,-16.700
0.512,8.700,-23.400,-8.000,-15.800
0.513,8.900,-22.200,-7.800,-14.500
0.514,8.900,-21.000,-7.500,-13.000
0.515,8.900,-19.800,-7.100,-11.400
0.516,8.800,-18.600,-6.800,-9.900
0.517,8.600,-17.400,-6.500,-8.500
0.518,8.400,-16.300,-6.300,-7.300
0.519,8.300,-15.200,-6.200,-6.100
0.520,8.100,-14.200,-6.000,-5.000
0.521,8.100,-13.200,-5.900,-3.800
0.522,8.000,-12.300,-5.800,-2.800
0.523,8.000,-11.400,-5.600,-2.100
0.524,7.900,-10.700,-5.500,-1.700
0.525,7.800,-10.100,-5.200,-1.700
0.526,7.700,-9.600,-5.000,-1.700
0.527,7.500,-9.000,-4.800,-1.800
0.528,7.400,-8.300,-4.600,-2.000
0.529,7.200,-7.500,-4.400,-2.300
0.530,7.000,-6.700,-4.200,-2.700
0.531,6.800,-6.000,-4.100,-3.100
0.532,6.500,-5.400,-3.900,-3.500
0.533,6.300,-4.900,-3.600,-3.900
0.534,6.000,-4.500,-3.300,-4.100
0.535,5.700,-4.100,-3.000,-4.000
0.536,5.500,-3.600,-2.700,-3.400
0.537,5.300,-3.000,-2.500,-2.600
0.538,5.100,-2.500,-2.300,-1.700
0.539,4.800,-1.900,-2.200,-1.200
0.540,4.600,-1.000,-2.000,-1.000
0.541,4.400,-0.100,-1.700,-1.100
0.542,4.200,0.800,-1.300,-0.900
0.543,4.000,1.500,-1.000,-0.100
0.544,3.800,1.800,-0.800,1.000
0.545,3.700,1.800,-0.600,2.100
0.546,3.600,1.900,-0.600,2.800
0.547,3.500,2.100,-0.500,2.900
0.548,3.600,2.200,-0.500,2.700
0.549,3.600,2.300,-0.400,2.600
0.550,3.600,2.500,-0.300,2.700
0.551,3.600,2.700,-0.300,3.100
0.552,3.500,3.200,-0.400,3.500
0.553,3.400,3.900,-0.400,3.800
0.554,3.300,4.600,-0.400,4.000
0.555,3.400,5.100,-0.400,4.100
0.556,3.400,5.500,-0.400,4.100
0.557,3.400,5.900,-0.500,4.000
0.558,3.400,6.200,-0.500,3.700
0.559,3.400,6.500,-0.600,3.400
0.560,3.400,6.600,-0.600,2.800
0.561,3.500,6.800,-0.700,2.200
0.562,3.400,6.900,-0.600,1.300
0.563,3.200,7.000,-0.500,0.400
0.564,2.900,7.100,-0.200,-0.600
0.565,2.700,7.100,0.200,-1.500
0.566,2.600,7.000,0.700,-2.200
0.567,2.600,6.900,0.900,-2.800
0.568,2.600,7.000,1.100,-3.200
0.569,2.500,7.100,1.200,-3.500
0.570,2.300,7.100,1.200,-3.400
0.571,2.100,6.900,1.200,-3.100
0.572,2.000,6.400,1.200,-2.600
0.573,2.000,5.600,1.300,-1.800
0.574,2.000,5.000,1.300,-0.900
0.575,1.900,4.700,1.200,0.100
0.576,1.700,4.700,1.200,1.200
0.577,1.600,4.900,1.100,2.500
0.578,1.400,5.100,0.900,3.800
0.579,1.300,5.300,0.800,5.300
0.580,1.400,5.400,0.800,6.600
0.581,1.500,5.500,0.700,7.700
0.582,1.600,5.600,0.700,8.600
0.583,1.800,5.800,0.800,9.300
0.584,1.900,6.000,0.800,9.800
0.585,2.100,6.200,0.900,10.300
0.586,2.200,6.400,0.900,10.700
0.587,2.300,6.600,1.000,10.700
0.588,2.400,6.600,1.100,10.400
0.589,2.500,6.600,1.100,9.900
0.590,2.400,6.400,1.100,9.400
0.591,2.400,6.200,0.900,8.800
0.592,2.300,6.000,0.700,8.200
0.593,2.200,5.900,0.500,7.700
0.594,2.000,5.800,0.300,7.100
0.595,1.900,5.800,0.200,6.500
0.596,1.800,5.500,0.100,5.900
0.597,1.700,5.200,-0.100,5.300
0.598,1.600,4.900,-0.300,4.600
0.599,1.500,4.600,-0.600,3.900
0.600,1.500,4.500,-0.700,3.100
0.601,1.300,4.500,-0.700,2.500
0.602,1.200,4.500,-0.700,2.000
0.603,1.100,4.300,-0.600,1.600
0.604,1.100,3.900,-0.400,1.400
0.605,1.100,3.500,-0.200,1.400
0.606,1.200,3.100,0.000,1.600
0.607,1.200,3.100,0.300,1.800
0.608,1.200,3.200,0.700,2.200
0.609,1.200,3.400,1.000,2.600
0.610,1.300,3.600,1.200,2.800
0.611,1.300,3.600,1.300,3.000
0.612,1.300,3.600,1.500,2.900
0.613,1.300,3.600,1.500,2.800
0.614,1.200,3.700,1.600,2.700
0.615,1.300,3.700,1.500,2.600
0.616,1.400,3.700,1.400,2.600
0.617,1.600,3.600,1.300,2.500
0.618,1.700,3.500,1.100,2.400
0.619,1.700,3.200,0.900,2.200
0.620,1.600,3.100,0.800,2.000
0.621,1.300,2.800,0.700,1.800
0.622,1.100,2.600,0.700,1.400
0.623,0.900,2.400,0.600,0.800
0.624,0.800,2.300,0.500,0.000
0.625,0.800,2.200,0.500,-0.900
0.626,0.700,2.200,0.500,-1.700
0.627,0.700,2.100,0.500,-2.600
0.628,0.700,2.100,0.500,-3.500
0.629,0.800,2.000,0.400,-4.500
0.630,0.900,1.800,0.300,-5.300
0.631,0.800,1.600,0.400,-5.600
0.632,0.700,1.400,0.400,-5.600
0.633,0.300,1.200,0.500,-5.600
0.634,0.000,1.200,0.500,-5.700
0.635,-0.200,1.300,0.400,-5.300
0.636,-0.100,1.500,0.200,-3.500
0.637,0.000,1.700,0.100,-0.300
0.638,0.100,1.800,-0.100,2.800
0.639,0.200,1.800,-0.100,4.200
0.640,0.100,1.600,-0.200,3.300
0.641,0.100,1.300,-0.300,1.300
0.642,0.200,0.900,-0.400,0.900
0.643,0.300,0.700,-0.400,3.500
0.644,0.400,0.600,-0.400,8.100
0.645,0.500,0.600,-0.200,12.200
0.646,0.600,0.600,0.000,13.800
0.647,0.600,0.600,0.200,12.600
0.648,0.600,0.500,0.300,10.100
0.649,0.600,0.300,0.500,7.900
0.650,0.600,0.200,0.600,6.400
0.651,0.600,0.300,0.800,4.700
0.652,0.600,0.600,0.900,2.300
0.653,0.600,0.900,1.000,-0.700
0.654,0.600,1.300,1.000,-3.500
0.655,0.500,1.400,1.100,-5.600
0.656,0.400,1.500,1.100,-7.200
0.657,0.400,1.500,1.200,-8.800
0.658,0.400,1.400,1.200,-10.400
0.659,0.500,1.400,1.100,-11.600
0.660,0.600,1.300,0.900,-12.000
0.661,0.600,1.200,0.700,-11.500
0.662,0.500,1.200,0.400,-10.400
0.663,0.400,1.300,0.300,-9.200
0.664,0.400,1.500,0.100,-7.900
0.665,0.300,1.500,0.000,-6.500
0.666,0.300,1.400,-0.100,-4.800
0.667,0.300,1.200,-0.100,-3.000
0.668,0.200,1.100,-0.200,-1.100
0.669,0.000,0.900,-0.200,0.800
0.670,-0.100,0.800,-0.400,2.600
0.671,-0.200,0.600,-0.500,4.200
0.672,-0.100,0.200,-0.500,5.400
0.673,0.000,-0.200,-0.400,6.400
0.674,0.100,-0.600,-0.200,7.300
0.675,0.100,-0.800,0.000,8.200
0.676,0.100,-0.800,0.100,9.100
0.677,0.100,-0.600,0.200,9.800
0.678,0.100,-0.400,0.200,10.100
0.679,0.100,-0.100,0.200,9.900
0.680,0.200,0.100,0.300,9.200
0.681,0.200,0.300,0.300,8.200
0.682,0.300,0.600,0.300,7.200
0.683,0.400,0.700,0.100,6.400
0.684,0.500,0.800,-0.100,5.600
0.685,0.600,0.800,-0.400,4.700
0.686,0.700,0.900,-0.600,3.600
0.687,0.700,1.000,-0.800,2.500
0.688,0.700,1.300,-0.900,1.400
0.689,0.700,1.600,-1.000,0.300
0.690,0.700,1.700,-1.100,-0.600
0.691,0.700,1.700,-1.100,-1.400
0.692,0.600,1.600,-1.100,-2.100
0.693,0.500,1.300,-1.000,-2.800
0.694,0.400,1.000,-0.900,-3.300
0.695,0.400,0.600,-0.800,-3.600
0.696,0.400,0.200,-0.600,-3.700
0.697,0.500,-0.300,-0.300,-3.700
0.698,0.600,-0.600,-0.100,-3.600
0.699,0.600,-0.800,0.100,-3.600
0.700,0.500,-0.800,0.200,-3.500
0.701,0.400,-0.700,0.200,-3.500
0.702,0.300,-0.700,0.200,-3.400
0.703,0.200,-0.700,0.200,-3.200
0.704,0.100,-0.700,0.200,-3.100
0.705,-0.100,-0.800,0.200,-2.900
0.706,-0.200,-0.800,0.200,-2.800
0.707,-0.200,-0.700,0.200,-2.700
0.708,-0.200,-0.600,0.200,-2.600
0.709,-0.100,-0.500,0.100,-2.500
0.710,0.000,-0.300,0.000,-2.400
0.711,0.100,-0.100,-0.100,-2.300
0.712,0.100,0.200,-0.100,-2.400
0.713,0.200,0.400,-0.100,-2.400
0.714,0.200,0.600,0.000,-2.300
0.715,0.300,0.500,0.000,-2.100
0.716,0.300,0.200,0.100,-1.700
0.717,0.300,-0.200,0.100,-1.300
0.718,0.300,-0.600,0.200,-0.800
0.719,0.300,-0.900,0.200,-0.400
0.720,0.400,-1.200,0.300,0.000
0.721,0.500,-1.300,0.300,0.500
0.722,0.500,-1.500,0.400,0.800
0.723,0.500,-1.600,0.400,1.100
0.724,0.400,-1.700,0.400,1.200
0.725,0.400,-1.800,0.500,1.100
0.726,0.500,-1.700,0.600,0.900
0.727,0.600,-1.700,0.500,0.500
0.728,0.600,-1.600,0.300,0.000
0.729,0.700,-1.500,0.100,-0.500
0.730,0.700,-1.300,-0.200,-0.900
0.731,0.700,-1.200,-0.400,-1.300
0.732,0.700,-1.200,-0.500,-1.500
0.733,0.700,-1.400,-0.500,-1.700
0.734,0.600,-1.500,-0.500,-1.900
0.735,0.500,-1.600,-0.500,-2.000
0.736,0.400,-1.400,-0.500,-1.700
0.737,0.200,-1.000,-0.500,-1.200
0.738,0.100,-0.700,-0.500,-0.600
0.739,-0.100,-0.500,-0.500,-0.300
0.740,-0.200,-0.600,-0.400,-0.400
0.741,-0.300,-0.900,-0.300,-0.700
0.742,-0.400,-1.200,-0.200,-0.700
0.743,-0.500,-1.300,0.000,-0.300
0.744,-0.500,-1.100,0.100,0.300
0.745,-0.600,-0.700,0.200,0.900
0.746,-0.600,-0.400,0.200,1.200
0.747,-0.700,-0.100,0.200,0.900
0.748,-0.800,0.100,0.300,0.500
0.749,-0.900,0.300,0.300,0.200
0.750,-0.900,0.500,0.400,0.200
0.751,-0.800,0.600,0.400,0.300
0.752,-0.500,0.600,0.500,0.400
0.753,-0.200,0.600,0.500,0.700
0.754,0.200,0.700,0.400,1.000
0.755,0.600,0.900,0.300,1.400
0.756,1.000,1.000,0.200,1.900
0.757,1.500,1.100,0.000,2.400
0.758,1.900,1.100,-0.300,2.800
0.759,2.200,1.300,-0.400,3.200
0.760,2.300,1.700,-0.600,3.600
0.761,2.200,2.000,-0.700,3.900
0.762,2.200,1.900,-0.700,4.100
0.763,2.400,1.200,-0.700,4.200
0.764,2.700,0.100,-0.600,4.200
0.765,3.100,-0.900,-0.600,4.100
0.766,3.200,-1.500,-0.700,3.900
0.767,3.100,-1.700,-0.700,3.600
0.768,2.900,-1.800,-0.800,3.100
0.769,2.700,-2.000,-0.800,2.700
0.770,2.500,-2.300,-0.900,2.200
0.771,2.200,-2.500,-1.000,1.800
0.772,1.900,-2.500,-1.100,1.400
0.773,1.600,-2.300,-1.300,1.000
0.774,1.300,-2.200,-1.400,0.600
0.775,1.100,-2.100,-1.500,0.400
0.776,1.000,-1.800,-1.600,0.400
0.777,0.900,-1.500,-1.600,0.600
0.778,0.800,-1.100,-1.600,0.800
0.779,0.600,-0.700,-1.700,1.000
0.780,0.500,-0.600,-1.700,1.200
0.781,0.400,-0.600,-1.700,1.300
0.782,0.500,-0.700,-1.700,1.400
0.783,0.600,-0.600,-1.500,1.600
0.784,0.700,-0.400,-1.300,1.700
0.785,0.800,-0.100,-1.000,1.800
0.786,0.900,0.300,-0.700,1.900
0.787,1.100,0.400,-0.400,2.000
0.788,1.100,0.400,-0.100,2.000
0.789,1.100,0.300,0.200,2.000
0.790,1.100,0.200,0.400,2.000
0.791,1.100,0.100,0.600,2.000
0.792,1.000,0.300,0.800,2.000
0.793,1.000,0.600,0.800,2.000
0.794,1.000,0.900,0.800,2.000
0.795,1.000,1.000,0.700,2.000
0.796,1.100,0.800,0.700,1.900
0.797,1.200,0.300,0.600,1.700
0.798,1.300,-0.100,0.600,1.300
0.799,1.300,-0.100,0.500,0.800
0.800,1.200,0.200,0.400,0.400
0.801,1.000,0.600,0.300,-0.100
0.802,0.800,1.000,0.200,-0.600
0.803,0.600,1.100,0.200,-1.100
0.804,0.600,0.800,0.200,-1.600
0.805,0.600,0.400,0.200,-2.000
0.806,0.700,0.000,0.200,-2.300
0.807,0.800,-0.200,0.200,-2.500
0.808,0.800,-0.300,0.300,-2.500
0.809,0.800,-0.300,0.300,-2.400
0.810,0.800,-0.200,0.300,-2.300
0.811,1.000,-0.300,0.400,-2.200
0.812,1.400,-0.400,0.400,-2.100
0.813,2.000,-0.600,0.300,-2.000
0.814,2.700,-0.800,0.200,-2.000
0.815,3.700,-0.800,-0.100,-2.300
0.816,5.000,-0.800,-0.500,-3.000
0.817,6.400,-0.700,-1.000,-4.000
0.818,7.800,-0.600,-1.500,-4.900
0.819,9.200,-0.300,-2.100,-5.800
0.820,10.500,0.000,-2.600,-6.300
0.821,11.700,0.500,-3.100,-6.600
0.822,12.600,1.200,-3.700,-6.900
0.823,13.400,2.100,-4.100,-7.200
0.824,13.900,2.900,-4.500,-7.400
0.825,14.200,3.600,-4.600,-7.400
0.826,14.100,4.100,-4.500,-7.100
0.827,13.500,4.600,-4.200,-6.300
0.828,12.300,4.900,-3.800,-5.000
0.829,10.500,5.300,-3.300,-3.300
0.830,8.100,5.600,-2.700,-1.200
0.831,5.500,6.100,-1.900,1.100
0.832,3.000,6.800,-0.900,3.600
0.833,0.900,7.500,0.000,6.100
0.834,-0.700,7.900,0.800,8.300
0.835,-1.800,7.900,1.400,9.800
0.836,-2.200,7.500,1.700,10.600
0.837,-2.300,6.800,1.900,10.800
0.838,-2.000,6.000,1.900,10.700
0.839,-1.700,5.000,1.800,10.800
0.840,-1.300,3.800,1.800,11.100
0.841,-1.100,2.400,1.800,11.200
0.842,-0.800,1.100,1.700,10.800
0.843,-0.500,0.000,1.600,9.700
0.844,-0.100,-0.600,1.500,8.100
0.845,0.100,-0.800,1.400,6.600
0.846,0.300,-1.000,1.300,5.600
0.847,0.200,-1.200,1.300,5.000
0.848,0.100,-1.400,1.300,4.500
0.849,0.000,-1.600,1.200,3.900
0.850,-0.200,-1.700,1.100,3.100
0.851,-0.400,-1.600,1.000,2.500
0.852,-0.700,-1.400,0.900,2.200
0.853,-1.100,-1.100,0.900,2.000
0.854,-1.300,-0.900,0.900,1.900
0.855,-1.300,-0.900,0.900,1.600
0.856,-1.100,-1.200,0.800,1.200
0.857,-1.000,-1.900,0.700,0.800
0.858,-0.900,-2.700,0.500,0.500
0.859,-0.700,-3.200,0.200,0.300
0.860,-0.300,-3.600,-0.200,-0.100
0.861,0.100,-4.000,-0.600,-0.500
0.862,0.400,-4.900,-1.100,-1.100
0.863,0.400,-6.600,-1.700,-1.600
0.864,0.200,-8.900,-2.300,-2.000
0.865,0.100,-11.100,-2.900,-2.300
0.866,0.200,-12.800,-3.500,-2.700
0.867,0.600,-14.100,-4.200,-3.200
0.868,1.200,-15.000,-4.900,-3.800
0.869,1.800,-16.100,-5.700,-4.600
0.870,2.500,-17.300,-6.500,-5.400
0.871,3.300,-18.400,-7.200,-6.100
0.872,4.200,-19.400,-7.900,-6.700
0.873,5.300,-20.300,-8.300,-7.200
0.874,6.300,-21.000,-8.700,-7.700
0.875,7.200,-21.600,-9.100,-8.200
0.876,8.000,-22.000,-9.600,-8.800
0.877,8.700,-22.200,-10.000,-9.300
0.878,9.300,-22.200,-10.300,-9.900
0.879,9.900,-22.100,-10.600,-10.300
0.880,10.200,-22.200,-10.800,-10.800
0.881,10.500,-22.400,-11.100,-11.300
0.882,10.600,-22.500,-11.200,-11.800
0.883,10.700,-22.400,-11.300,-12.400
0.884,10.600,-22.100,-11.300,-13.100
0.885,10.500,-21.600,-11.300,-13.800
0.886,10.200,-21.000,-11.200,-14.500
0.887,9.900,-20.500,-11.200,-15.000
0.888,9.500,-20.000,-11.200,-15.500
0.889,8.900,-19.400,-11.000,-15.800
0.890,8.100,-18.500,-10.800,-15.800
0.891,7.200,-17.500,-10.700,-15.700
0.892,6.100,-16.200,-10.600,-15.500
0.893,5.100,-15.000,-10.400,-15.200
0.894,4.100,-13.700,-10.300,-14.900
0.895,3.100,-12.500,-10.100,-14.500
0.896,2.200,-11.300,-9.900,-14.100
0.897,1.300,-10.200,-9.700,-13.800
0.898,0.700,-9.300,-9.400,-13.500
0.899,0.300,-8.700,-9.200,-13.200
0.900,0.400,-8.400,-8.900,-12.900
0.901,0.800,-8.100,-8.600,-12.500
0.902,1.600,-7.900,-8.500,-11.900
0.903,2.900,-7.500,-8.500,-11.200
0.904,4.600,-7.100,-8.600,-10.200
0.905,6.700,-6.800,-8.800,-9.000
0.906,8.900,-6.500,-9.000,-7.700
0.907,11.000,-6.300,-9.000,-6.300
0.908,12.600,-5.900,-8.900,-5.000
0.909,13.600,-5.600,-8.600,-3.800
0.910,13.800,-5.400,-8.200,-2.800
0.911,13.500,-5.300,-7.800,-1.900
0.912,12.800,-5.400,-7.200,-1.000
0.913,11.800,-5.400,-6.500,-0.200
0.914,10.900,-5.300,-5.800,0.500
0.915,9.900,-4.900,-5.100,0.900
0.916,9.000,-4.200,-4.500,0.900
0.917,8.100,-3.200,-4.000,0.700
0.918,7.400,-2.300,-3.600,0.300
0.919,6.800,-1.400,-3.200,-0.100
0.920,6.200,-0.500,-2.800,-0.400
0.921,5.800,0.400,-2.500,-0.800
0.922,5.400,1.300,-2.200,-1.500
0.923,5.100,2.300,-1.900,-2.600
0.924,4.800,3.200,-1.700,-3.900
0.925,4.700,3.900,-1.400,-4.900
0.926,4.700,4.600,-1.200,-5.700
0.927,4.800,5.300,-1.000,-6.100
0.928,5.100,6.000,-0.800,-6.500
0.929,5.500,6.600,-0.700,-6.700
0.930,5.800,7.200,-0.600,-6.600
0.931,6.000,7.600,-0.500,-6.000
0.932,6.100,8.000,-0.400,-4.600
0.933,6.300,8.200,-0.200,-2.800
0.934,6.400,8.400,-0.100,-0.900
0.935,6.300,8.600,-0.100,1.000
0.936,6.100,8.800,0.100,3.100
0.937,5.600,8.900,0.200,5.500
0.938,5.000,9.000,0.400,7.600
0.939,4.200,9.000,0.500,8.900
0.940,3.400,8.900,0.700,9.100
0.941,2.600,8.800,0.700,8.600
0.942,1.700,8.800,0.800,8.200
0.943,0.700,8.900,0.800,8.600
0.944,-0.100,9.200,0.900,9.700
0.945,-0.800,9.600,1.000,10.600
0.946,-1.300,9.800,1.100,10.600
0.947,-1.600,9.900,1.200,9.700
0.948,-1.700,9.700,1.200,8.400
0.949,-1.700,9.400,1.300,7.300
0.950,-1.500,9.300,1.400,6.500
0.951,-1.100,9.100,1.600,5.800
0.952,-0.400,9.000,1.800,5.100
0.953,0.600,8.900,2.000,4.300
0.954,1.600,8.900,2.100,3.700
0.955,2.200,8.900,2.100,3.500
0.956,2.400,8.900,2.100,3.500
0.957,2.200,9.000,2.000,3.500
0.958,1.800,9.200,2.000,3.500
0.959,1.800,9.400,2.000,3.500
0.960,2.200,9.500,2.000,3.600
0.961,2.500,9.500,2.000,3.900
0.962,2.200,9.500,2.000,4.100
0.963,1.200,9.400,2.000,4.200
0.964,-0.200,9.400,2.000,4.300
0.965,-1.300,9.500,2.000,4.400
0.966,-1.700,9.700,2.100,4.500
0.967,-1.300,10.000,2.200,4.600
0.968,-0.600,10.300,2.200,4.600
0.969,0.300,10.500,2.200,4.400
0.970,1.300,10.600,2.200,4.200
0.971,2.600,10.500,2.200,4.100
0.972,4.200,10.500,2.400,4.100
0.973,5.900,10.500,2.700,4.200
0.974,7.400,10.600,3.000,4.400
0.975,8.400,10.800,3.300,4.600
0.976,9.200,10.800,3.500,4.900
0.977,9.800,10.700,3.800,5.200
0.978,10.500,10.600,4.000,5.600
0.979,11.000,10.400,4.400,6.200
0.980,11.400,10.300,4.900,6.800
0.981,11.700,10.300,5.600,7.600
0.982,11.800,10.300,6.500,8.500
0.983,12.000,10.200,7.500,9.600
0.984,12.200,10.200,8.800,11.000
0.985,12.300,10.200,10.200,12.600
0.986,12.500,10.500,11.800,14.400
0.987,12.700,10.900,13.700,16.300
0.988,13.000,11.600,15.900,18.500
0.989,13.100,12.600,18.500,21.000
0.990,12.700,14.200,21.700,23.900
0.991,11.700,16.600,25.300,27.400
0.992,10.200,20.000,29.500,31.600
0.993,8.100,24.400,34.200,36.500
0.994,5.900,29.700,39.000,41.800
0.995,3.700,35.500,43.500,47.000
0.996,2.000,40.900,47.100,51.500
0.997,1.700,44.900,49.000,54.700
0.998,3.500,46.600,48.500,55.900
0.999,7.800,45.200,45.300,54.600
1.000,14.600,40.800,38.900,50.700
1.001,22.700,33.800,29.200,43.700
1.002,31.300,24.900,16.300,33.700
1.003,39.400,14.600,0.200,20.400
1.004,46.700,2.700,-18.700,4.100
1.005,53.400,-11.100,-39.300,-14.400
1.006,60.100,-27.700,-60.100,-33.800
1.007,66.600,-47.500,-79.300,-52.800
1.008,72.600,-70.700,-95.500,-70.400
1.009,76.900,-96.800,-108.000,-86.600
1.010,78.100,-124.800,-117.300,-101.600
1.011,75.000,-153.400,-123.800,-116.200
1.012,67.200,-181.200,-128.600,-130.500
1.013,55.600,-207.000,-132.100,-144.500
1.014,42.200,-230.600,-135.000,-158.000
1.015,29.800,-251.900,-138.300,-170.700
1.016,20.900,-270.400,-142.200,-182.000
1.017,16.600,-284.300,-146.500,-190.900
1.018,15.400,-,-149.100,-195.000
1.019,13.800,-282.800,-147.000,-191.800
1.020,7.500,-258.200,-137.200,-178.800
1.021,-6.200,-215.200,-118.300,-155.700
1.022,-27.100,-157.200,-91.300,-124.300
1.023,-52.100,-91.600,-59.800,-88.700
1.024,-76.300,-27.100,-28.200,-53.200
1.025,-95.200,28.500,-0.700,-22.000
1.026,-106.200,71.100,20.400,2.800
1.027,-109.000,99.700,34.400,20.700
1.028,-105.000,116.100,42.000,32.300
1.029,-96.100,123.200,44.700,39.000
1.030,-84.000,123.700,43.900,42.100
1.031,-70.000,120.100,40.900,43.000
1.032,-55.400,113.800,36.500,42.300
1.033,-40.900,105.900,31.500,40.700
1.034,-27.700,96.900,26.300,38.500
1.035,-16.600,87.200,21.400,35.700
1.036,-8.200,77.200,17.100,32.700
1.037,-2.500,67.400,13.700,29.500
1.038,0.700,58.100,11.200,26.300
1.039,2.100,49.400,9.700,23.300
1.040,1.900,41.400,8.900,20.300
1.041,0.800,34.300,8.600,17.700
1.042,-0.800,28.000,8.600,15.400
1.043,-2.500,22.700,8.800,13.600
1.044,-4.000,18.500,8.800,12.000
1.045,-5.000,15.100,8.800,10.700
1.046,-5.600,12.600,8.800,9.300
1.047,-5.900,10.800,8.600,8.100
1.048,-6.100,9.400,8.400,6.900
1.049,-6.300,8.400,8.200,5.800
1.050,-6.300,7.800,7.900,4.900
1.051,-6.200,7.300,7.600,3.900
1.052,-6.000,6.900,7.400,3.100
1.053,-5.800,6.500,7.200,2.300
1.054,-5.800,6.000,7.000,1.900
1.055,-5.900,5.500,6.900,1.700
1.056,-5.800,5.200,6.800,1.800
1.057,-5.500,5.100,6.700,2.000
1.058,-5.100,5.000,6.500,2.400
1.059,-4.900,5.000,6.400,3.000
1.060,-5.100,5.000,6.100,3.900
1.061,-5.300,4.800,5.900,5.000
1.062,-5.200,4.700,5.600,6.200
1.063,-4.500,4.700,5.400,7.500
1.064,-3.300,4.700,5.200,8.700
1.065,-1.900,4.700,5.100,9.800
1.066,-0.900,4.600,5.000,10.900
1.067,-0.400,4.300,5.000,11.700
1.068,-0.100,4.100,4.900,12.300
1.069,0.300,3.900,4.900,12.600
1.070,0.900,4.000,4.900,12.700
1.071,1.700,4.400,4.900,12.600
1.072,2.300,4.800,5.100,12.400
1.073,2.700,5.200,5.200,12.000
1.074,3.000,5.400,5.300,11.500
1.075,3.200,5.400,5.400,10.900
1.076,3.500,5.100,5.500,10.300
1.077,3.700,4.600,5.600,9.500
1.078,3.800,4.100,5.700,8.700
1.079,3.600,3.700,5.800,8.000
1.080,3.100,3.600,5.800,7.300
1.081,2.500,3.500,5.900,6.800
1.082,2.000,3.600,5.900,6.400
1.083,1.600,3.600,5.900,6.000
1.084,1.300,3.700,5.900,5.700
1.085,1.000,3.700,5.900,5.400
1.086,0.700,3.700,5.900,5.100
1.087,0.500,3.800,5.900,5.100
1.088,0.500,3.800,5.900,5.200
1.089,0.700,3.700,5.800,5.400
1.090,0.800,3.600,5.800,5.600
1.091,0.900,3.500,5.800,5.600
1.092,0.800,3.400,5.600,5.500
1.093,0.600,3.500,5.400,5.200
1.094,0.300,3.600,5.100,4.900
1.095,0.200,3.800,4.900,4.900
1.096,-0.100,4.000,4.800,5.000
1.097,-0.300,4.200,4.800,5.300
1.098,-0.700,4.400,4.800,5.500
1.099,-1.100,4.500,4.900,5.600
1.100,-1.400,4.600,4.900,5.600
1.101,-1.500,4.600,4.900,5.500
1.102,-1.500,4.700,4.800,5.300
1.103,-1.200,4.900,4.700,5.200
1.104,-0.700,5.300,4.600,5.100
1.105,0.100,5.600,4.600,5.100
1.106,1.000,5.800,4.500,5.100
1.107,1.700,5.700,4.500,5.100
1.108,2.200,5.200,4.400,5.100
1.109,2.600,4.600,4.300,5.100
1.110,2.900,4.000,4.200,5.100
1.111,3.100,3.700,4.100,5.100
1.112,3.400,3.500,4.000,5.100
1.113,3.500,3.400,3.900,5.200
1.114,3.600,3.300,3.800,5.200
1.115,3.500,3.100,3.800,5.200
1.116,3.100,2.800,3.800,5.200
1.117,2.600,2.800,3.800,5.100
1.118,2.000,3.100,3.700,5.000
1.119,1.300,3.600,3.500,4.900
1.120,0.700,4.200,3.300,5.000
1.121,0.300,4.900,3.200,5.100
1.122,-0.200,5.400,3.100,5.200
1.123,-0.500,5.800,3.100,5.200
1.124,-0.700,5.900,3.000,5.200
1.125,-0.800,5.800,2.900,5.000
1.126,-0.700,5.500,2.800,4.900
1.127,-0.400,5.100,2.700,4.800
1.128,0.100,4.600,2.800,4.700
1.129,0.500,4.300,3.000,4.600
1.130,0.900,4.000,3.200,4.500
1.131,1.300,3.600,3.300,4.300
1.132,1.600,3.100,3.300,4.100
1.133,1.900,2.500,3.300,3.800
1.134,2.300,2.200,3.200,3.700
1.135,2.700,2.100,3.200,3.600
1.136,3.300,2.300,3.200,3.500
1.137,3.800,2.600,3.200,3.500
1.138,4.300,2.900,3.200,3.400
1.139,4.700,3.200,3.100,3.400
1.140,5.100,3.600,3.100,3.500
1.141,5.400,4.100,3.100,3.500
1.142,5.600,4.500,3.200,3.500
1.143,5.500,4.700,3.300,3.300
1.144,5.000,4.500,3.300,3.200
1.145,4.300,4.000,3.100,3.000
1.146,3.400,3.200,3.000,3.000
1.147,2.200,2.300,2.800,3.100
1.148,0.700,1.500,2.700,3.200
1.149,-0.700,0.700,2.700,3.400
1.150,-2.000,-0.200,2.700,3.600
1.151,-3.000,-1.000,2.800,3.800
1.152,-3.900,-1.800,2.800,3.900
1.153,-4.700,-2.600,2.800,4.000
1.154,-5.500,-3.300,2.800,4.000
1.155,-5.600,-3.800,2.800,4.100
1.156,-4.500,-4.000,2.700,4.200
1.157,-2.400,-4.000,2.600,4.400
1.158,-0.200,-4.000,2.500,4.600
1.159,0.800,-4.200,2.500,4.600
1.160,0.300,-4.600,2.500,4.600
1.161,-1.000,-5.100,2.400,4.500
1.162,-1.200,-5.400,2.200,4.400
1.163,0.700,-5.300,2.000,4.300
1.164,4.000,-4.900,1.900,4.300
1.165,7.100,-4.600,1.800,4.300
1.166,8.400,-4.500,1.700,4.300
1.167,7.800,-4.900,1.700,4.200
1.168,6.300,-5.400,1.700,4.000
1.169,5.200,-5.800,1.500,3.700
1.170,4.900,-6.200,1.300,3.500
1.171,4.900,-6.600,1.100,3.200
1.172,4.800,-7.000,0.900,2.800
1.173,4.400,-7.600,0.800,2.400
1.174,4.100,-8.200,0.800,2.000
1.175,4.300,-9.000,0.700,1.500
1.176,4.700,-9.900,0.700,1.100
1.177,5.300,-10.900,0.600,0.600
1.178,5.800,-12.000,0.400,0.200
1.179,6.200,-12.800,0.300,-0.200
1.180,6.800,-13.300,0.100,-0.500
1.181,7.500,-13.500,-0.200,-0.800
1.182,8.200,-13.600,-0.400,-1.100
1.183,8.900,-13.700,-0.800,-1.400
1.184,9.500,-13.800,-1.200,-1.800
1.185,10.000,-14.000,-1.700,-2.200
1.186,10.600,-14.200,-2.200,-2.700
1.187,11.200,-14.400,-2.700,-3.200
1.188,11.900,-14.500,-3.200,-3.600
1.189,12.500,-14.600,-3.600,-4.000
1.190,12.800,-15.000,-4.000,-4.300
1.191,12.900,-15.600,-4.400,-4.700
1.192,12.800,-16.500,-4.700,-5.100
1.193,12.500,-17.600,-5.100,-5.700
1.194,12.200,-18.900,-5.400,-6.200
1.195,11.800,-20.200,-5.800,-6.800
1.196,11.400,-21.700,-6.200,-7.300
1.197,10.800,-23.100,-6.700,-7.800
1.198,10.300,-24.600,-7.200,-8.300
1.199,9.900,-26.000,-7.600,-8.700
1.200,9.700,-27.400,-8.000,-9.200
1.201,9.600,-28.500,-8.400,-9.700
1.202,9.600,-29.700,-8.700,-10.300
1.203,9.600,-30.800,-9.100,-10.800
1.204,9.700,-32.000,-9.500,-11.400
1.205,9.900,-33.100,-9.900,-11.900
1.206,10.100,-34.100,-10.200,-12.300
1.207,10.400,-34.600,-10.500,-12.700
1.208,10.700,-34.700,-10.800,-13.100
1.209,10.900,-34.600,-11.000,-13.400
1.210,10.900,-34.400,-11.200,-13.600
1.211,10.900,-34.200,-11.300,-13.800
1.212,10.900,-34.200,-11.400,-14.000
1.213,10.800,-34.200,-11.300,-14.100
1.214,10.600,-34.200,-11.300,-14.400
1.215,10.400,-34.200,-11.200,-14.600
1.216,10.200,-34.500,-11.200,-14.900
1.217,10.200,-34.900,-11.200,-15.000
1.218,10.400,-35.400,-11.100,-15.100
1.219,10.800,-35.900,-10.800,-15.100
1.220,11.300,-36.300,-10.700,-15.200
1.221,11.700,-36.800,-10.600,-15.300
1.222,12.000,-37.300,-10.700,-15.500
1.223,12.400,-37.700,-10.900,-15.700
1.224,12.800,-37.900,-10.900,-15.900
1.225,13.200,-38.000,-10.600,-15.900
1.226,13.400,-37.900,-10.300,-16.000
1.227,13.300,-37.600,-10.100,-16.000
1.228,13.000,-37.200,-10.300,-16.000
1.229,12.500,-36.700,-10.700,-16.000
1.230,12.100,-36.100,-11.200,-16.000
1.231,11.500,-35.300,-11.300,-15.900
1.232,10.700,-34.400,-11.200,-15.700
1.233,9.800,-33.400,-11.000,-15.500
1.234,8.700,-32.300,-10.800,-15.400
1.235,7.700,-31.200,-10.700,-15.100
1.236,6.600,-30.100,-10.600,-14.900
1.237,5.700,-29.000,-10.200,-14.600
1.238,4.700,-28.000,-9.800,-14.200
1.239,3.600,-27.100,-9.400,-13.800
1.240,2.600,-26.300,-9.000,-13.500
1.241,1.700,-25.700,-8.600,-13.100
1.242,0.800,-25.100,-8.200,-12.600
1.243,-0.100,-24.600,-7.800,-12.000
1.244,-0.800,-24.100,-7.400,-11.300
1.245,-1.400,-23.600,-7.100,-10.500
1.246,-1.500,-23.000,-6.900,-9.800
1.247,-1.300,-22.400,-6.800,-9.300
1.248,-0.700,-21.800,-6.500,-8.800
1.249,0.000,-21.400,-6.300,-8.300
1.250,0.900,-20.900,-6.000,-7.800
1.251,2.000,-20.200,-5.800,-7.300
1.252,3.400,-19.300,-5.500,-6.700
1.253,4.900,-18.200,-5.200,-6.100
1.254,6.500,-17.100,-4.900,-5.500
1.255,7.800,-16.100,-4.800,-5.000
1.256,8.900,-14.900,-4.700,-4.400
1.257,9.800,-13.300,-4.700,-3.900
1.258,10.500,-11.700,-4.700,-3.500
1.259,11.100,-10.400,-4.600,-3.200
1.260,11.500,-9.500,-4.500,-2.900
1.261,11.600,-8.900,-4.400,-2.700
1.262,11.200,-8.100,-4.400,-2.500
1.263,10.500,-6.800,-4.300,-2.200
1.264,9.600,-5.200,-4.200,-2.100
1.265,8.600,-3.700,-4.000,-1.900
1.266,7.700,-2.600,-3.800,-1.700
1.267,6.800,-1.800,-3.600,-1.500
1.268,5.800,-1.200,-3.300,-1.300
1.269,4.800,-0.400,-2.900,-0.900
1.270,3.900,0.400,-2.500,-0.600
1.271,3.200,1.000,-2.100,-0.200
1.272,2.800,1.200,-1.700,0.000
1.273,2.600,1.300,-1.300,0.100
1.274,2.400,1.400,-0.900,0.100
1.275,2.200,1.800,-0.600,0.200
1.276,2.000,2.200,-0.300,0.400
1.277,1.800,2.600,0.000,0.800
1.278,1.700,2.800,0.300,1.100
1.279,1.800,2.900,0.600,1.200
1.280,2.000,3.100,0.800,1.300
1.281,2.300,3.400,1.000,1.300
1.282,2.600,3.600,1.200,1.400
1.283,3.000,3.700,1.300,1.600
1.284,3.300,3.900,1.500,1.800
1.285,3.500,4.100,1.600,2.000
1.286,3.800,4.400,1.500,2.100
1.287,4.100,4.600,1.500,2.200
1.288,4.400,4.700,1.500,2.300
1.289,4.700,4.800,1.600,2.400
1.290,5.100,5.000,1.600,2.400
1.291,5.400,5.300,1.600,2.300
1.292,5.800,5.600,1.300,2.100
1.293,6.400,5.700,0.900,1.800
1.294,7.100,5.700,0.300,1.500
1.295,8.100,5.800,-0.300,1.100
1.296,9.100,6.000,-0.800,0.800
1.297,10.200,6.600,-1.400,0.500
1.298,11.200,7.200,-2.000,0.200
1.299,12.100,7.600,-2.600,0.100
1.300,12.900,7.900,-3.300,0.100
1.301,13.600,8.300,-3.900,0.200
1.302,14.000,8.900,-4.500,0.500
1.303,14.100,9.400,-4.900,0.800
1.304,14.000,9.800,-5.100,1.200
1.305,13.700,9.700,-5.200,1.400
1.306,13.100,9.300,-5.100,1.600
1.307,12.100,8.900,-4.700,1.900
1.308,10.600,8.800,-3.900,2.400
1.309,8.500,8.800,-2.800,3.200
1.310,6.100,8.900,-1.700,4.200
1.311,3.600,9.000,-0.500,5.300
1.312,1.100,9.000,0.500,6.200
1.313,-0.900,9.000,1.400,6.900
1.314,-2.300,9.100,2.000,7.300
1.315,-3.200,9.200,2.400,7.500
1.316,-3.400,9.100,2.600,7.400
1.317,-3.300,8.900,2.600,7.200
1.318,-2.800,8.500,2.500,6.800
1.319,-2.200,8.100,2.400,6.500
1.320,-1.600,7.600,2.200,6.100
1.321,-0.900,7.100,2.000,5.800
1.322,-0.200,6.600,1.800,5.400
1.323,0.400,6.200,1.500,5.000
1.324,1.000,6.000,1.300,4.600
1.325,1.500,5.900,1.200,4.100
1.326,2.000,5.800,1.300,3.800
1.327,2.500,5.600,1.200,3.500
1.328,2.900,5.300,1.000,3.400
1.329,3.200,5.100,0.800,3.300
1.330,3.400,4.900,0.500,3.200
1.331,3.400,4.700,0.400,3.100
1.332,3.300,4.400,0.500,3.000
1.333,3.100,3.900,0.600,3.000
1.334,2.600,3.400,0.600,3.000
1.335,2.000,3.100,0.500,2.900
1.336,1.300,2.900,0.300,2.900
1.337,0.600,3.000,0.100,2.800
1.338,0.100,3.100,-0.100,2.800
1.339,-0.400,3.000,-0.200,2.700
1.340,-0.700,2.800,-0.400,2.700
1.341,-1.100,2.400,-0.400,2.700
1.342,-1.200,2.200,-0.500,2.700
1.343,-1.100,2.200,-0.500,2.600
1.344,-0.600,2.700,-0.400,2.500
1.345,0.200,3.300,-0.400,2.300
1.346,1.000,3.900,-0.400,2.400
1.347,1.700,4.500,-0.300,2.500
1.348,2.300,4.900,-0.100,2.700
1.349,3.000,5.400,0.100,2.800
1.350,3.600,5.900,0.300,2.900
1.351,4.200,6.200,0.500,2.800
1.352,4.800,6.500,0.700,2.600
1.353,5.200,6.700,0.800,2.300
1.354,5.500,7.000,0.900,2.100
1.355,5.700,7.200,1.000,1.800
1.356,5.600,6.900,1.100,1.600
1.357,5.300,6.200,1.100,1.400
1.358,5.000,5.300,1.300,1.300
1.359,4.900,4.900,1.400,1.200
1.360,5.100,5.100,1.400,1.100
1.361,5.300,5.500,1.300,1.200
1.362,5.300,5.500,1.100,1.300
1.363,4.800,4.600,0.800,1.300
1.364,3.900,3.000,0.700,1.300
1.365,3.100,1.500,0.600,1.300
1.366,2.500,0.600,0.600,1.300
1.367,2.400,0.300,0.600,1.400
1.368,2.500,0.300,0.500,1.500
1.369,2.400,0.100,0.400,1.600
1.370,2.300,-0.300,0.300,1.700
1.371,2.100,-0.600,0.300,1.800
1.372,2.100,-0.600,0.200,1.900
1.373,2.200,-0.200,0.100,2.000
1.374,2.300,0.200,-0.100,2.100
1.375,2.300,0.600,-0.200,2.200
1.376,2.300,0.800,-0.200,2.200
1.377,2.200,1.100,-0.200,2.100
1.378,2.100,1.700,-0.100,1.800
1.379,2.100,2.400,0.000,1.500
1.380,2.100,3.100,0.100,1.200
1.381,2.200,3.700,0.100,0.900
1.382,2.200,4.000,0.100,0.600
1.383,2.300,4.100,-0.100,0.400
1.384,2.300,4.100,-0.300,0.100
1.385,2.300,4.000,-0.600,-0.200
1.386,2.300,3.800,-1.000,-0.400
1.387,2.400,3.400,-1.200,-0.600
1.388,2.500,2.800,-1.300,-0.800
1.389,2.600,2.100,-1.300,-1.000
1.390,2.700,1.500,-1.200,-1.300
1.391,2.700,0.800,-0.900,-1.600
1.392,2.600,0.300,-0.700,-2.000
1.393,2.400,-0.100,-0.500,-2.400
1.394,2.200,-0.500,-0.400,-2.700
1.395,2.100,-0.700,-0.300,-2.900
1.396,2.100,-0.900,-0.200,-3.000
1.397,2.100,-1.000,-0.100,-3.000
1.398,2.000,-1.000,0.100,-3.000
1.399,1.800,-1.000,0.200,-2.800
1.400,1.600,-1.000,0.100,-2.500
1.401,1.500,-1.100,-0.100,-2.200
1.402,1.400,-1.200,-0.300,-1.900
1.403,1.500,-1.400,-0.400,-1.700
1.404,1.500,-1.600,-0.600,-1.400
1.405,1.500,-1.600,-0.700,-1.100
1.406,1.600,-1.500,-0.900,-0.900
1.407,1.600,-1.200,-1.100,-0.800
1.408,1.700,-0.700,-1.300,-0.700
1.409,1.900,-0.200,-1.400,-0.600
1.410,2.100,0.100,-1.300,-0.600
1.411,2.300,0.300,-1.200,-0.600
1.412,2.700,0.200,-1.100,-0.700
1.413,3.100,0.100,-1.200,-0.800
1.414,3.500,-0.100,-1.300,-1.100
1.415,3.900,-0.200,-1.300,-1.300
1.416,4.300,-0.100,-1.400,-1.500
1.417,4.700,0.200,-1.400,-1.800
1.418,5.200,0.500,-1.400,-2.000
1.419,5.800,0.700,-1.600,-2.200
1.420,6.400,0.800,-1.800,-2.400
1.421,6.900,0.700,-2.100,-2.700
1.422,7.500,0.600,-2.300,-3.000
1.423,8.000,0.400,-2.500,-3.500
1.424,8.500,0.300,-2.600,-4.000
1.425,8.900,0.100,-2.700,-4.400
1.426,9.100,-0.300,-2.700,-4.700
1.427,9.200,-0.700,-2.600,-4.900
1.428,9.200,-1.200,-2.400,-4.900
1.429,9.200,-1.700,-2.100,-4.900
1.430,9.100,-2.200,-1.800,-4.800
1.431,8.900,-2.600,-1.600,-4.700
1.432,8.800,-3.200,-1.300,-4.400
1.433,8.500,-3.900,-1.200,-4.100
1.434,8.300,-4.500,-0.900,-3.800
1.435,8.100,-4.900,-0.700,-3.400
1.436,7.900,-5.200,-0.500,-2.900
1.437,7.600,-5.400,-0.300,-2.200
1.438,7.300,-5.500,-0.200,-1.600
1.439,6.900,-5.700,0.000,-1.300
1.440,6.400,-5.800,0.100,-1.300
1.441,6.000,-5.800,0.100,-1.500
1.442,5.600,-5.900,0.000,-1.500
1.443,5.200,-6.200,-0.100,-1.200
1.444,4.900,-6.800,-0.300,-0.800
1.445,4.500,-7.400,-0.400,-0.400
1.446,4.200,-8.000,-0.400,-0.300
1.447,4.000,-8.400,-0.500,-0.500
1.448,4.000,-8.400,-0.600,-0.600
1.449,4.000,-8.500,-0.600,-0.700
1.450,3.900,-8.700,-0.700,-0.700
1.451,3.900,-9.100,-0.800,-0.900
1.452,3.900,-9.700,-0.900,-1.300
1.453,3.900,-10.300,-0.900,-1.700
1.454,4.100,-10.800,-0.900,-2.000
1.455,4.100,-11.100,-0.800,-2.100
1.456,3.700,-11.000,-0.800,-2.000
1.457,3.000,-10.600,-0.800,-2.000
1.458,2.300,-10.300,-0.700,-2.000
1.459,2.000,-10.100,-0.700,-2.100
1.460,2.200,-10.100,-0.600,-2.100
1.461,2.500,-10.100,-0.400,-2.000
1.462,2.300,-10.000,-0.400,-1.800
1.463,1.500,-9.600,-0.400,-1.600
1.464,0.000,-9.000,-0.500,-1.500
1.465,-1.300,-8.200,-0.700,-1.400
1.466,-2.200,-7.400,-0.900,-1.300
1.467,-2.600,-6.500,-1.000,-1.200
1.468,-2.800,-5.500,-1.200,-1.100
1.469,-3.200,-4.500,-1.500,-0.900
1.470,-3.700,-3.500,-1.800,-0.700
1.471,-4.100,-2.700,-2.100,-0.600
1.472,-4.200,-2.200,-2.100,-0.500
1.473,-4.100,-2.000,-1.900,-0.500
1.474,-3.900,-1.800,-1.500,-0.600
1.475,-3.800,-1.800,-1.100,-0.600
1.476,-3.700,-1.800,-0.900,-0.400
1.477,-3.500,-2.100,-0.700,-0.200
1.478,-3.100,-2.500,-0.700,0.000
1.479,-2.600,-2.800,-0.500,0.100
1.480,-1.800,-3.100,-0.100,0.200
1.481,-1.000,-3.000,0.400,0.200
1.482,-0.200,-2.600,0.800,0.200
1.483,0.800,-2.100,1.200,0.100
1.484,1.800,-1.400,1.500,-0.100
1.485,2.700,-0.700,1.500,-0.200
1.486,3.600,0.000,1.500,-0.400
1.487,4.300,0.300,1.300,-0.500
1.488,4.900,0.100,1.200,-0.500
1.489,5.300,-0.900,1.100,-0.400
1.490,5.600,-2.400,1.000,-0.300
1.491,5.800,-4.100,0.800,-0.300
1.492,5.700,-5.400,0.600,-0.300
1.493,5.600,-6.300,0.400,-0.400
1.494,5.300,-6.800,0.200,-0.400
1.495,5.000,-7.200,0.100,-0.300
1.496,4.700,-7.600,-0.200,-0.100
1.497,4.400,-7.500,-0.400,0.200
1.498,4.000,-6.200,-0.600,0.400
1.499,3.500,-3.600,-0.800,0.500
1.500,3.100,-0.400,-0.900,0.600
1.501,2.700,2.700,-0.900,0.600
1.502,2.400,5.100,-0.900,0.600
1.503,2.100,6.900,-0.900,0.600
1.504,1.800,8.600,-0.800,0.600
1.505,1.500,10.100,-0.700,0.600
1.506,1.200,10.800,-0.500,0.600
1.507,1.100,9.900,-0.300,0.600
1.508,1.100,7.600,-0.300,0.600
1.509,1.200,4.400,-0.200,0.700
1.510,1.300,1.400,-0.300,0.700
1.511,1.400,-0.800,-0.300,0.700
1.512,1.500,-2.400,-0.300,0.700
1.513,1.500,-3.800,-0.300,0.600
1.514,1.600,-5.000,-0.400,0.600
1.515,1.700,-5.400,-0.500,0.400
1.516,1.800,-4.900,-0.600,0.300
1.517,2.000,-3.300,-0.800,0.100
1.518,2.200,-1.200,-1.000,-0.200
1.519,2.300,0.700,-1.100,-0.400
1.520,2.500,2.300,-1.200,-0.500
1.521,2.400,3.600,-1.100,-0.600
1.522,2.200,4.900,-0.900,-0.800
1.523,2.000,6.100,-0.700,-1.100
1.524,1.800,7.000,-0.600,-1.400
1.525,1.400,7.300,-0.700,-1.600
1.526,0.900,6.900,-0.800,-1.700
1.527,0.200,6.000,-0.800,-1.700
1.528,-0.600,4.900,-0.700,-1.600
1.529,-1.500,3.600,-0.300,-1.400
1.530,-2.200,2.300,0.000,-1.100
1.531,-2.800,0.700,0.200,-0.800
1.532,-3.400,-1.300,0.200,-0.300
1.533,-4.100,-3.200,0.100,0.200
1.534,-4.600,-4.600,-0.200,0.600
1.535,-5.000,-5.100,-0.400,0.900
1.536,-5.100,-4.500,-0.600,0.900
1.537,-5.000,-3.200,-0.700,1.000
1.538,-4.700,-1.600,-0.800,1.200
1.539,-4.400,0.000,-0.900,1.300
1.540,-3.900,1.900,-0.900,1.500
1.541,-3.400,3.900,-1.000,1.600
1.542,-2.700,6.000,-0.900,1.500
1.543,-1.900,7.700,-0.900,1.300
1.544,-1.200,8.600,-0.900,1.200
1.545,-0.400,8.700,-0.800,1.000
1.546,0.400,8.000,-0.900,0.800
1.547,1.300,6.700,-0.900,0.600
1.548,2.300,4.800,-0.900,0.500
1.549,3.300,2.500,-1.000,0.300
1.550,4.200,-0.100,-1.100,0.100
1.551,5.000,-2.700,-1.300,-0.100
1.552,5.600,-5.400,-1.400,-0.200
1.553,6.100,-8.400,-1.600,-0.400
1.554,6.800,-11.700,-1.700,-0.500
1.555,7.300,-14.800,-1.700,-0.600
1.556,7.500,-16.900,-1.800,-0.500
1.557,7.300,-18.000,-1.700,-0.400
1.558,7.000,-18.600,-1.700,-0.300
1.559,7.000,-19.700,-1.500,-0.200
1.560,7.500,-21.400,-1.300,-0.200
1.561,8.000,-22.700,-0.900,-0.200
1.562,8.000,-21.900,-0.700,-0.100
1.563,7.200,-18.400,-0.400,0.100
1.564,5.800,-13.100,-0.200,0.400
1.565,4.400,-7.800,0.100,0.700
1.566,3.500,-3.900,0.300,0.900
1.567,3.100,-1.200,0.500,1.000
1.568,2.800,1.200,0.700,1.200
1.569,2.400,3.700,0.700,1.300
1.570,1.800,6.000,0.700,1.600
1.571,1.300,6.900,0.700,1.800
1.572,1.100,5.800,0.800,1.900
1.573,1.200,3.300,0.800,1.900
1.574,1.300,0.400,0.900,1.900
1.575,1.300,-2.300,0.900,1.800
1.576,1.100,-4.900,0.900,1.900
1.577,0.900,-7.600,0.800,2.000
1.578,0.900,-10.500,0.800,2.200
1.579,1.200,-12.900,0.800,2.300
1.580,1.500,-14.100,0.800,2.300
1.581,1.800,-13.800,0.700,2.300
1.582,2.000,-12.200,0.600,2.400
1.583,2.300,-9.900,0.600,2.400
1.584,2.500,-7.500,0.600,2.400
1.585,2.800,-5.000,0.600,2.400
1.586,3.000,-2.600,0.600,2.200
1.587,3.200,-0.500,0.700,2.000
1.588,3.200,1.400,0.700,1.800
1.589,3.100,2.800,0.700,1.600
1.590,2.900,3.700,0.800,1.400
1.591,2.700,4.400,0.900,1.200
1.592,2.600,4.700,0.900,1.100
1.593,2.500,5.000,1.000,1.000
1.594,2.400,5.400,1.000,0.900
1.595,2.400,5.900,1.000,0.700
1.596,2.400,6.500,0.900,0.500
1.597,2.600,7.000,0.700,0.200
1.598,2.800,7.400,0.500,-0.100
1.599,3.100,7.600,0.100,-0.400
1.600,3.400,7.400,-0.200,-0.800
1.601,3.700,6.900,-0.600,-1.200
1.602,4.000,5.900,-1.000,-1.500
1.603,4.300,4.500,-1.500,-1.900
1.604,4.700,2.500,-1.900,-2.300
1.605,5.100,0.100,-2.300,-2.800
1.606,5.600,-2.800,-2.700,-3.300
1.607,6.000,-6.000,-3.100,-3.800
1.608,6.300,-9.400,-3.500,-4.300
1.609,6.400,-12.500,-4.000,-4.900
1.610,6.600,-15.400,-4.600,-5.400
1.611,6.800,-17.900,-5.200,-5.900
1.612,7.000,-20.200,-5.800,-6.400
1.613,7.300,-22.400,-6.400,-6.900
1.614,7.500,-24.200,-6.900,-7.300
1.615,7.500,-25.500,-7.300,-7.800
1.616,7.400,-26.100,-7.800,-8.400
1.617,7.300,-26.100,-8.400,-9.000
1.618,7.200,-25.900,-8.900,-9.700
1.619,7.100,-25.500,-9.300,-10.300
1.620,7.100,-25.100,-9.700,-10.900
1.621,7.000,-24.800,-10.100,-11.500
1.622,6.900,-24.600,-10.600,-12.100
1.623,6.700,-24.800,-11.100,-12.600
1.624,6.500,-25.500,-11.500,-13.000
1.625,6.300,-26.600,-11.700,-13.400
1.626,6.100,-27.900,-11.700,-13.700
1.627,5.800,-29.100,-11.800,-14.000
1.628,5.500,-29.900,-12.100,-14.100
1.629,5.100,-30.400,-12.300,-14.200
1.630,4.700,-30.500,-12.400,-14.200
1.631,4.300,-30.300,-12.300,-14.200
1.632,3.700,-29.800,-12.100,-14.100
1.633,3.100,-28.900,-11.800,-14.100
1.634,2.500,-27.700,-11.500,-14.000
1.635,2.100,-26.200,-11.300,-13.900
1.636,1.800,-24.600,-11.100,-13.700
1.637,1.600,-23.000,-10.700,-13.400
1.638,1.400,-21.600,-10.300,-13.100
1.639,1.100,-20.500,-9.900,-12.700
1.640,0.600,-19.600,-9.500,-12.500
1.641,0.200,-18.800,-9.200,-12.200
1.642,-0.200,-17.800,-8.800,-11.800
1.643,-0.400,-16.400,-8.500,-11.100
1.644,-0.400,-14.600,-8.200,-10.300
1.645,-0.300,-12.900,-8.100,-9.600
1.646,-0.100,-11.600,-8.000,-9.000
1.647,0.200,-10.300,-8.100,-8.500
1.648,0.600,-8.800,-8.300,-8.000
1.649,1.100,-7.000,-8.400,-7.300
1.650,1.900,-5.300,-8.700,-6.700
1.651,3.000,-3.700,-8.900,-6.100
1.652,4.300,-2.200,-9.200,-5.700
1.653,5.700,0.100,-9.400,-5.500
1.654,6.800,3.000,-9.600,-5.300
1.655,7.500,5.400,-9.500,-5.100
1.656,7.800,5.600,-9.300,-4.900
1.657,7.600,3.500,-8.900,-4.700
1.658,7.000,0.900,-8.400,-4.600
1.659,6.300,0.900,-7.700,-4.500
1.660,5.300,4.000,-7.000,-4.400
1.661,4.400,7.700,-6.300,-4.200
1.662,3.500,7.700,-5.500,-4.000
1.663,2.800,1.700,-4.800,-3.600
1.664,2.200,-8.100,-4.300,-3.200
1.665,1.800,-17.100,-3.800,-2.800
1.666,1.600,-21.900,-3.500,-2.300
1.667,1.500,-22.300,-3.200,-1.800
1.668,1.500,-21.200,-2.800,-1.200
1.669,1.600,-20.800,-2.300,-0.500
1.670,1.700,-20.800,-1.900,0.200
1.671,1.800,-19.400,-1.400,1.000
1.672,1.900,-15.300,-1.000,1.700
1.673,1.900,-9.600,-0.700,2.400
1.674,2.000,-4.200,-0.400,3.000
1.675,2.000,-0.500,-0.100,3.600
1.676,2.200,2.200,0.100,4.100
1.677,2.400,4.900,0.400,4.500
1.678,2.600,8.000,0.700,4.700
1.679,2.800,11.100,1.000,4.900
1.680,2.800,13.400,1.200,4.900
1.681,2.800,15.000,1.400,4.900
1.682,2.700,16.500,1.600,5.000
1.683,2.700,18.500,1.700,5.000
1.684,2.600,20.700,1.800,4.900
1.685,2.600,22.700,2.000,4.700
1.686,2.600,24.400,2.200,4.600
1.687,2.600,25.800,2.300,4.600
1.688,2.600,27.000,2.400,4.700
1.689,2.700,28.000,2.400,4.900
1.690,2.700,28.000,2.300,5.100
1.691,2.700,27.100,2.200,5.300
1.692,2.700,25.400,2.100,5.300
1.693,2.700,23.500,2.000,5.400
1.694,2.600,21.500,1.900,5.400
1.695,2.600,19.000,1.800,5.500
1.696,2.600,16.000,1.700,5.500
1.697,2.600,12.800,1.600,5.400
1.698,2.700,10.200,1.600,5.300
1.699,2.800,8.900,1.600,5.000
1.700,2.800,9.000,1.700,4.700
1.701,2.700,10.200,1.900,4.400
1.702,2.600,11.800,2.100,4.100
1.703,2.500,13.500,2.400,3.800
1.704,2.400,15.500,2.600,3.500
1.705,2.500,17.800,2.900,3.300
1.706,2.600,20.300,3.300,3.100
1.707,2.600,22.300,3.600,3.100
1.708,2.600,23.400,3.900,3.100
1.709,2.500,23.200,4.000,3.300
1.710,2.400,22.000,4.000,3.500
1.711,2.300,20.100,4.000,3.900
1.712,2.200,18.000,4.000,4.200
1.713,2.100,15.400,4.100,4.600
1.714,1.900,12.200,4.200,5.100
1.715,1.800,8.300,4.200,5.700
1.716,1.600,3.900,4.300,6.400
1.717,1.400,-0.600,4.400,7.000
1.718,1.200,-4.300,4.400,7.500
1.719,1.100,-7.100,4.500,7.900
1.720,0.900,-9.000,4.500,8.300
1.721,0.700,-10.300,4.500,8.600
1.722,0.600,-11.200,4.500,8.700
1.723,0.300,-11.700,4.500,8.500
1.724,0.100,-11.600,4.600,8.100
1.725,0.000,-10.500,4.800,7.400
1.726,0.000,-8.600,5.000,6.600
1.727,0.200,-6.100,5.100,5.800
1.728,0.300,-3.100,5.000,5.000
1.729,0.500,-0.100,4.900,4.100
1.730,0.600,2.700,4.700,3.400
1.731,0.900,5.300,4.700,2.800
1.732,1.300,7.500,4.700,2.400
1.733,1.900,9.700,4.900,2.100
1.734,2.600,12.100,5.200,2.000
1.735,3.300,14.800,5.400,2.000
1.736,4.100,17.800,5.500,2.400
1.737,5.100,20.500,5.700,3.200
1.738,6.300,22.700,5.800,4.000
1.739,7.800,24.600,6.100,4.600
1.740,9.300,26.100,6.500,4.900
1.741,10.900,27.600,7.100,5.300
1.742,12.500,29.100,7.800,6.300
1.743,14.100,30.200,8.700,8.500
1.744,15.800,30.600,10.000,11.500
1.745,17.400,30.400,11.500,14.700
1.746,18.900,29.700,13.500,17.500
1.747,20.100,28.800,15.800,19.900
1.748,20.600,28.300,18.700,22.500
1.749,20.300,28.200,22.200,25.700
1.750,19.000,28.400,26.400,30.000
1.751,16.900,29.000,31.200,35.500
1.752,14.300,30.000,36.200,41.500
1.753,11.700,31.400,41.200,47.600
1.754,9.800,33.100,45.600,53.100
1.755,9.200,34.500,48.900,57.700
1.756,10.300,35.100,50.500,61.000
1.757,13.300,34.000,50.100,62.400
1.758,18.200,31.100,47.400,61.800
1.759,24.400,26.500,42.300,58.700
1.760,31.400,20.600,34.600,53.100
1.761,38.500,13.800,24.600,44.900
1.762,45.500,6.100,12.000,34.100
1.763,51.900,-2.500,-2.900,20.800
1.764,57.500,-11.900,-19.800,5.300
1.765,62.400,-22.100,-38.000,-11.900
1.766,66.600,-33.100,-56.300,-29.900
1.767,70.200,-45.300,-73.600,-47.800
1.768,73.500,-59.300,-88.700,-64.800
1.769,76.000,-75.400,-101.300,-80.600
1.770,77.200,-93.500,-111.200,-95.100
1.771,76.000,-113.100,-118.800,-108.900
1.772,71.700,-133.700,-124.500,-122.200
1.773,64.000,-154.900,-128.700,-135.400
1.774,53.600,-176.100,-131.900,-148.300
1.775,41.600,-197.000,-134.600,-160.700
1.776,30.100,-217.000,-137.200,-172.300
1.777,20.700,-235.900,-140.300,-183.000
1.778,14.900,-253.100,-143.900,-192.300
1.779,12.700,-267.000,-147.400,-199.200
1.780,12.700,-274.400,-149.300,-202.100
1.781,12.100,-271.500,-147.300,-199.100
1.782,7.800,-254.600,-139.300,-188.600
1.783,-2.200,-222.600,-124.300,-170.200
1.784,-18.300,-177.300,-102.500,-144.700
1.785,-38.900,-123.400,-76.000,-114.400
1.786,-61.100,-66.700,-47.600,-82.300
1.787,-81.300,-13.000,-20.500,-51.500
1.788,-97.000,33.600,2.900,-24.300
1.789,-106.700,70.300,21.200,-2.200
1.790,-110.400,96.500,34.000,14.500
1.791,-108.700,112.800,41.800,26.200
1.792,-102.800,120.900,45.400,33.700
1.793,-93.800,122.700,45.900,38.200
1.794,-82.800,120.000,44.100,40.300
1.795,-70.700,114.000,40.900,41.000
1.796,-58.300,105.700,36.800,40.500
1.797,-46.200,95.600,32.200,39.300
1.798,-35.000,84.700,27.600,37.400
1.799,-25.200,73.900,23.300,35.100
1.800,-17.000,63.700,19.400,32.500
1.801,-10.700,54.500,16.300,29.900
1.802,-6.200,46.300,13.800,27.300
1.803,-3.400,39.100,12.000,24.700
1.804,-1.900,33.000,10.800,22.200
1.805,-1.300,28.100,10.100,19.800
1.806,-1.500,24.400,9.700,17.700
1.807,-1.900,21.900,9.500,15.800
1.808,-2.500,20.000,9.300,14.000
1.809,-3.100,18.400,9.200,12.300
1.810,-3.500,16.600,9.100,10.700
1.811,-3.600,14.600,8.900,9.200
1.812,-3.500,12.700,8.600,7.700
1.813,-3.200,11.100,8.400,6.200
1.814,-2.800,9.900,8.200,4.500
1.815,-2.400,9.300,8.000,2.700
1.816,-2.000,9.200,7.700,0.900
1.817,-1.600,9.900,7.400,-0.600
1.818,-1.200,11.300,7.000,-1.700
1.819,-0.800,13.200,6.700,-2.400
1.820,-0.400,15.400,6.400,-2.700
1.821,-0.200,17.300,6.200,-2.800
1.822,0.100,19.000,6.000,-2.500
1.823,0.300,20.400,5.900,-1.700
1.824,0.400,21.600,5.800,-0.500
1.825,0.400,22.200,5.800,1.100
1.826,0.500,21.800,5.700,2.700
1.827,0.600,20.600,5.700,4.200
1.828,0.700,18.700,5.600,5.600
1.829,0.700,16.800,5.500,7.000
1.830,0.800,15.000,5.400,8.200
1.831,0.900,13.400,5.300,9.000
1.832,1.200,11.600,5.100,9.500
1.833,1.500,9.700,4.900,9.700
1.834,1.800,8.000,4.800,9.700
1.835,1.900,6.900,4.600,9.400
1.836,1.900,6.700,4.500,8.700
1.837,2.000,7.000,4.400,7.500
1.838,2.100,7.500,4.200,6.400
1.839,2.300,8.000,4.200,5.700
1.840,2.400,8.400,4.100,5.700
1.841,2.500,9.100,4.100,6.000
1.842,2.700,10.200,4.000,6.100
1.843,2.900,11.500,4.100,5.400
1.844,3.400,12.600,4.200,4.100
1.845,3.900,13.400,4.300,2.700
1.846,4.400,13.600,4.500,2.000
1.847,4.700,13.300,4.600,2.000
1.848,4.900,12.800,4.600,2.300
1.849,5.000,12.100,4.700,2.600
1.850,5.200,11.000,4.700,2.400
1.851,5.400,9.500,4.700,2.000
1.852,5.600,7.500,4.700,1.500
1.853,5.700,5.400,4.700,0.900
1.854,5.700,3.400,4.600,0.300
1.855,5.800,1.600,4.600,-0.400
1.856,5.800,-0.300,4.600,-1.200
1.857,5.700,-2.300,4.500,-2.000
1.858,5.700,-4.300,4.500,-2.800
1.859,5.700,-5.600,4.400,-3.600
1.860,5.700,-6.000,4.100,-4.200
1.861,5.700,-5.600,3.900,-4.500
1.862,5.700,-5.200,3.600,-4.400
1.863,5.600,-5.100,3.400,-3.900
1.864,5.400,-5.400,3.100,-3.100
1.865,5.200,-5.300,2.800,-2.300
1.866,5.000,-4.200,2.700,-1.500
1.867,5.000,-1.800,2.500,-0.500
1.868,5.000,1.300,2.400,0.600
1.869,5.000,4.500,2.300,1.600
1.870,5.000,7.000,2.200,2.600
1.871,5.000,8.400,2.300,3.200
1.872,4.900,8.800,2.500,3.600
1.873,4.900,8.600,2.700,3.800
1.874,4.900,7.900,3.000,4.000
1.875,4.900,6.900,3.300,4.000
1.876,4.900,5.700,3.400,3.800
1.877,4.900,4.200,3.500,3.500
1.878,4.900,2.600,3.600,3.100
1.879,4.900,0.800,3.600,2.800
1.880,4.800,-0.900,3.700,2.900
1.881,4.800,-2.100,3.700,3.100
1.882,4.700,-2.600,3.700,3.400
1.883,4.800,-2.500,3.600,3.600
1.884,4.900,-1.900,3.600,3.900
1.885,4.900,-1.200,3.500,4.200
1.886,4.900,-0.400,3.500,4.500
1.887,4.900,0.400,3.500,4.900
1.888,4.800,1.400,3.500,5.100
1.889,4.700,2.300,3.400,5.100
1.890,4.600,2.900,3.400,4.800
1.891,4.600,3.200,3.400,4.400
1.892,4.600,3.200,3.400,3.700
1.893,4.500,3.100,3.400,3.100
1.894,4.500,3.100,3.400,2.300
1.895,4.300,3.100,3.300,1.500
1.896,4.000,3.100,3.200,0.700
1.897,3.600,3.300,3.200,-0.100
1.898,3.400,3.600,3.200,-0.700
1.899,3.100,4.100,3.200,-1.200
1.900,3.100,4.900,3.100,-1.600
1.901,3.000,5.700,2.900,-1.800
1.902,2.900,6.400,2.700,-2.100
1.903,2.700,6.900,2.500,-2.300
1.904,2.600,7.500,2.300,-2.400
1.905,2.400,8.000,2.300,-2.300
1.906,2.300,8.500,2.300,-1.900
1.907,2.300,8.800,2.300,-1.200
1.908,2.300,8.700,2.200,-0.400
1.909,2.200,8.300,1.900,0.400
1.910,2.100,7.700,1.600,1.100
1.911,2.000,7.100,1.500,1.600
1.912,1.900,6.500,1.400,2.100
1.913,1.900,5.900,1.400,2.500
1.914,2.000,5.100,1.500,2.900
1.915,1.900,4.200,1.600,3.400
1.916,1.900,3.300,1.800,3.700
1.917,1.800,2.400,2.200,3.900
1.918,1.600,1.700,2.600,4.100
1.919,1.500,1.200,3.100,4.200
1.920,1.400,0.800,3.500,4.200
1.921,1.300,0.500,3.800,4.200
1.922,1.200,0.300,4.100,4.100
1.923,1.300,0.200,4.300,3.900
1.924,1.400,0.200,4.500,3.500
1.925,1.700,0.500,4.700,3.200
1.926,1.900,0.900,4.700,3.000
1.927,2.100,1.300,4.600,3.000
1.928,2.200,1.600,4.400,3.200
1.929,2.300,1.700,4.000,3.400
1.930,2.500,1.700,3.600,3.600
1.931,2.600,1.600,3.400,3.700
1.932,2.600,1.200,3.200,3.900
1.933,2.700,0.600,3.000,4.300
1.934,2.800,-0.100,2.800,4.900
1.935,2.800,-0.700,2.700,5.300
1.936,2.800,-1.300,2.700,5.500
1.937,2.800,-1.800,2.800,5.300
1.938,2.800,-2.200,2.900,5.000
1.939,2.700,-2.500,3.000,5.000
1.940,2.600,-2.800,3.000,5.300
1.941,2.600,-2.900,3.000,5.600
1.942,2.600,-2.900,3.000,5.500
1.943,2.600,-2.700,3.000,4.600
1.944,2.600,-2.400,3.100,3.200
1.945,2.600,-2.100,3.000,1.700
1.946,2.700,-1.600,2.900,0.700
1.947,2.800,-1.000,2.800,0.200
1.948,3.100,-0.300,2.700,-0.200
1.949,3.400,0.500,2.500,-0.800
1.950,3.700,1.100,2.300,-1.600
1.951,4.100,1.300,2.000,-2.600
1.952,4.700,1.300,1.800,-3.500
1.953,5.300,1.200,1.700,-4.100
1.954,5.800,1.200,1.500,-4.700
1.955,6.100,1.000,1.300,-5.200
1.956,6.300,0.500,1.000,-5.600
1.957,6.400,-0.500,0.600,-5.900
1.958,6.600,-1.600,0.200,-6.000
1.959,6.800,-2.400,-0.200,-6.000
1.960,7.100,-2.600,-0.700,-5.800
1.961,7.300,-2.600,-1.100,-5.500
1.962,7.500,-3.200,-1.500,-4.900
1.963,7.600,-4.800,-1.800,-4.200
1.964,7.800,-7.200,-2.000,-3.300
1.965,7.800,-9.500,-2.100,-2.500
1.966,7.900,-11.300,-2.200,-1.600
1.967,7.800,-12.200,-2.300,-0.700
1.968,7.700,-12.800,-2.500,0.400
1.969,7.600,-13.500,-2.700,1.600
1.970,7.600,-14.400,-2.800,2.500
1.971,7.700,-15.400,-3.000,3.000
1.972,7.900,-16.000,-3.300,3.100
1.973,8.300,-16.500,-3.600,3.000
1.974,8.600,-16.900,-4.000,2.700
1.975,8.900,-17.400,-4.300,2.400
1.976,9.200,-18.000,-4.500,2.000
1.977,9.500,-18.400,-4.600,1.300
1.978,9.800,-18.800,-4.700,0.300
1.979,10.100,-19.100,-4.900,-1.100
1.980,10.400,-19.600,-5.200,-2.700
1.981,10.800,-20.100,-5.600,-4.500
1.982,11.100,-20.700,-6.000,-6.200
1.983,11.400,-21.300,-6.400,-8.000
1.984,11.600,-22.000,-6.700,-9.800
1.985,11.900,-22.600,-7.100,-11.600
1.986,12.100,-23.300,-7.500,-13.400
1.987,12.300,-24.000,-7.900,-15.200
1.988,12.500,-24.700,-8.300,-16.700
1.989,12.600,-25.400,-8.600,-18.000
1.990,12.700,-26.000,-8.900,-19.100
1.991,12.800,-26.600,-9.200,-19.900
1.992,12.900,-27.200,-9.600,-20.400
1.993,12.900,-27.900,-9.900,-20.700
1.994,12.800,-28.700,-10.300,-20.800
1.995,12.700,-29.700,-10.600,-20.600
1.996,12.700,-30.700,-10.900,-20.200
1.997,12.700,-31.700,-11.200,-19.600
1.998,12.700,-32.600,-11.600,-18.800
1.999,12.600,-33.200,-11.900,-17.900
2.000,12.400,-33.600,-12.100,-17.100
2.001,12.200,-33.800,-12.200,-16.300
2.002,11.900,-34.000,-12.200,-15.600
2.003,11.600,-34.300,-12.300,-15.000
2.004,11.400,-34.600,-12.400,-14.500
2.005,11.100,-34.800,-12.400,-14.000
2.006,10.800,-34.900,-12.300,-13.500
2.007,10.400,-34.900,-12.200,-13.100
2.008,10.100,-34.700,-12.000,-12.800
2.009,9.800,-34.400,-11.900,-12.600
2.010,9.600,-34.100,-11.800,-12.500
2.011,9.400,-33.700,-11.700,-12.400
2.012,9.200,-33.300,-11.500,-12.500
2.013,8.900,-33.000,-11.300,-12.600
2.014,8.700,-32.600,-11.200,-12.900
2.015,8.400,-32.200,-11.000,-13.200
2.016,8.000,-31.800,-10.900,-13.500
2.017,7.700,-31.400,-10.800,-13.700
2.018,7.300,-31.000,-10.800,-13.900
2.019,7.000,-30.700,-10.700,-14.100
2.020,6.700,-30.500,-10.600,-14.400
2.021,6.500,-30.300,-10.500,-14.600
2.022,6.200,-30.100,-10.400,-14.700
2.023,6.100,-29.800,-10.400,-14.700
2.024,5.900,-29.300,-10.300,-14.700
2.025,5.800,-28.700,-10.200,-14.500
2.026,5.600,-28.000,-10.000,-14.400
2.027,5.500,-27.300,-9.700,-14.200
2.028,5.400,-26.500,-9.500,-13.900
2.029,5.300,-25.600,-9.300,-13.400
2.030,5.200,-24.700,-9.000,-12.900
2.031,5.000,-23.800,-8.800,-12.600
2.032,4.800,-23.000,-8.500,-12.500
2.033,4.600,-22.300,-8.100,-12.300
2.034,4.500,-21.700,-7.700,-12.000
2.035,4.600,-20.900,-7.300,-11.600
2.036,4.700,-20.000,-6.900,-11.600
2.037,4.900,-19.000,-6.700,-11.900
2.038,5.100,-17.900,-6.500,-12.300
2.039,5.200,-16.900,-6.300,-12.300
2.040,5.300,-16.000,-6.000,-11.500
2.041,5.400,-15.300,-5.700,-10.400
2.042,5.500,-14.600,-5.400,-10.000
2.043,5.600,-13.900,-5.100,-10.600
2.044,5.600,-13.100,-4.800,-12.100
2.045,5.600,-12.100,-4.600,-13.400
2.046,5.500,-11.000,-4.400,-14.000
2.047,5.400,-9.900,-4.200,-13.700
2.048,5.300,-9.000,-4.000,-13.200
2.049,5.300,-8.200,-3.700,-12.800
2.050,5.300,-7.500,-3.600,-12.600
2.051,5.300,-6.800,-3.400,-11.900
2.052,5.300,-6.000,-3.300,-10.600
2.053,5.300,-5.000,-3.100,-8.800
2.054,5.200,-4.100,-2.800,-6.900
2.055,5.000,-3.200,-2.700,-5.100
2.056,4.900,-2.400,-2.600,-3.500
2.057,4.600,-1.600,-2.500,-1.900
2.058,4.400,-0.800,-2.400,-0.200
2.059,4.200,0.000,-2.300,1.300
2.060,4.200,0.700,-2.200,2.600
2.061,4.100,1.400,-2.200,3.600
2.062,4.100,1.900,-2.200,4.400
2.063,3.900,2.200,-2.200,5.300
2.064,3.600,2.500,-2.100,6.300
2.065,3.400,2.700,-2.000,7.100
2.066,3.200,3.000,-1.800,7.800
2.067,3.000,3.200,-1.700,8.100
2.068,2.900,3.400,-1.600,8.200
2.069,2.700,3.500,-1.400,8.100
2.070,2.600,3.700,-1.300,7.800
2.071,2.500,4.000,-1.100,7.500
2.072,2.400,4.300,-0.900,7.200
2.073,2.400,4.700,-0.900,6.900
2.074,2.400,4.900,-0.800,6.600
2.075,2.400,5.100,-0.700,6.200
2.076,2.400,5.200,-0.600,5.700
2.077,2.500,5.400,-0.400,5.200
2.078,2.700,5.700,-0.300,4.800
2.079,2.800,5.900,-0.300,4.600
2.080,3.100,6.100,-0.300,4.500
2.081,3.200,6.100,-0.400,4.500
2.082,3.400,6.100,-0.500,4.300
2.083,3.600,6.100,-0.500,4.000
2.084,3.700,6.100,-0.600,3.700
2.085,3.800,6.300,-0.600,3.300
2.086,3.900,6.400,-0.700,3.000
2.087,4.000,6.500,-0.700,2.700
2.088,4.000,6.600,-0.600,2.400
2.089,4.000,6.700,-0.400,2.100
2.090,4.000,6.700,-0.100,1.800
2.091,3.900,6.800,0.200,1.500
2.092,3.900,7.000,0.400,1.300
2.093,3.900,7.300,0.700,1.100
2.094,3.900,7.600,0.800,0.900
2.095,3.900,7.900,1.000,0.700
2.096,3.800,7.900,1.100,0.400
2.097,3.700,7.700,1.100,0.100
2.098,3.500,7.300,1.100,-0.100
2.099,3.300,7.100,1.100,-0.200
2.100,3.100,7.000,1.000,-0.300
2.101,3.000,7.200,1.000,-0.500
2.102,2.800,7.300,1.100,-0.700
2.103,2.600,7.300,1.100,-0.900
2.104,2.400,7.000,1.000,-0.900
2.105,2.200,6.700,0.900,-0.900
2.106,2.000,6.400,0.800,-1.000
2.107,1.800,6.200,0.700,-1.100
2.108,1.800,6.000,0.600,-1.200
2.109,1.800,5.900,0.500,-1.300
2.110,1.800,5.500,0.400,-1.100
2.111,1.800,5.200,0.400,-0.800
2.112,1.800,4.900,0.400,-0.600
2.113,1.900,4.800,0.500,-0.200
2.114,1.900,4.700,0.600,0.200
2.115,2.000,4.400,0.700,0.900
2.116,2.000,3.800,0.800,1.800
2.117,2.000,3.200,0.700,2.800
2.118,2.100,2.700,0.700,3.600
2.119,2.100,2.500,0.700,4.200
2.120,2.200,2.400,0.800,4.700
2.121,2.100,2.300,0.800,5.200
2.122,2.100,2.200,0.800,5.600
2.123,2.000,2.300,0.700,5.900
2.124,1.900,2.900,0.700,6.000
2.125,1.800,3.700,0.700,5.800
2.126,1.800,4.600,0.800,5.400
2.127,1.900,5.300,0.800,5.000
2.128,1.900,5.900,0.600,4.500
2.129,1.900,6.300,0.300,4.100
2.130,2.000,6.700,-0.100,3.700
2.131,2.000,7.000,-0.200,3.400
2.132,2.000,7.100,-0.300,3.100
2.133,1.800,6.900,-0.200,2.800
2.134,1.700,6.700,-0.100,2.700
2.135,1.500,6.500,-0.100,2.500
2.136,1.200,6.500,-0.100,2.300
2.137,1.100,6.500,-0.100,2.100
2.138,1.000,6.200,-0.100,1.900
2.139,0.900,5.600,-0.100,1.700
2.140,0.900,4.900,-0.100,1.600
2.141,0.800,4.100,0.000,1.500
2.142,0.600,3.500,0.200,1.500
2.143,0.500,2.900,0.300,1.500
2.144,0.500,2.400,0.400,1.400
2.145,0.400,2.000,0.500,1.300
2.146,0.500,1.700,0.600,1.300
2.147,0.600,1.400,0.600,1.200
2.148,0.600,1.100,0.600,1.100
2.149,0.700,0.900,0.800,1.000
2.150,0.800,0.800,0.900,1.000
2.151,0.800,0.900,1.100,1.100
2.152,0.800,1.200,1.100,1.100
2.153,0.700,1.600,1.100,1.200
2.154,0.600,1.900,1.000,1.200
2.155,0.600,2.200,0.900,1.300
2.156,0.600,2.300,0.700,1.400
2.157,0.600,2.500,0.600,1.500
2.158,0.600,2.700,0.600,1.600
2.159,0.500,3.000,0.600,1.500
2.160,0.400,3.100,0.500,1.400
2.161,0.400,3.100,0.400,1.300
2.162,0.300,3.000,0.300,1.100
2.163,0.300,2.700,0.200,1.000
2.164,0.200,2.500,0.200,0.900
2.165,0.200,2.100,0.200,0.900
2.166,0.200,1.700,0.200,1.000
2.167,0.200,1.300,0.200,1.100
2.168,0.200,0.900,0.100,1.200
2.169,0.100,0.500,-0.100,1.300
2.170,0.000,0.300,-0.300,1.600
2.171,-0.100,0.200,-0.400,1.800
2.172,0.000,0.100,-0.500,2.100
2.173,0.100,0.100,-0.600,2.300
2.174,0.300,0.100,-0.600,2.500
2.175,0.300,0.100,-0.600,2.600
2.176,0.200,0.300,-0.600,2.700
2.177,-0.100,0.500,-0.600,2.800
2.178,-0.300,0.800,-0.600,2.800
2.179,-0.400,0.800,-0.500,2.700
2.180,-0.500,0.700,-0.300,2.500
2.181,-0.500,0.600,0.000,2.200
2.182,-0.500,0.500,0.300,1.900
2.183,-0.600,0.600,0.600,1.500
2.184,-0.700,0.700,1.000,1.100
2.185,-0.800,0.700,1.400,0.700
2.186,-0.900,0.600,1.800,0.300
2.187,-1.000,0.300,2.100,-0.100
2.188,-1.100,0.100,2.400,-0.300
2.189,-1.100,-0.200,2.500,-0.500
2.190,-1.200,-0.400,2.600,-0.600
2.191,-1.100,-0.700,2.500,-0.900
2.192,-0.900,-0.900,2.200,-1.200
2.193,-0.700,-1.000,2.000,-1.500
2.194,-0.300,-0.900,1.600,-1.700
2.195,0.400,-0.700,1.200,-1.800
2.196,1.500,-0.600,0.800,-1.700
2.197,2.800,-0.500,0.300,-1.600
2.198,4.300,-0.500,-0.200,-1.800
2.199,5.700,-0.500,-0.800,-2.100
2.200,7.000,-0.600,-1.500,-2.600
2.201,8.200,-0.700,-2.100,-2.900
2.202,9.300,-0.700,-2.700,-3.000
2.203,10.500,-0.500,-3.300,-2.800
2.204,11.500,0.000,-3.900,-2.500
2.205,12.200,0.800,-4.400,-2.100
2.206,12.500,1.500,-4.800,-1.600
2.207,12.500,2.000,-4.900,-1.200
2.208,12.200,2.000,-4.900,-0.800
2.209,11.500,1.600,-4.600,-0.400
2.210,10.400,1.100,-4.100,0.100
2.211,8.800,0.800,-3.400,0.700
2.212,6.700,0.700,-2.500,1.600
2.213,4.400,0.800,-1.600,2.700
2.214,1.900,1.000,-0.600,3.900
2.215,-0.500,1.100,0.300,4.900
2.216,-2.500,1.100,0.900,5.400
2.217,-3.900,1.100,1.400,5.600
2.218,-4.800,1.100,1.700,5.500
2.219,-5.100,1.100,1.700,5.100
2.220,-5.100,1.100,1.600,4.600
2.221,-4.900,1.100,1.500,3.900
2.222,-4.700,1.100,1.200,3.100
2.223,-4.300,1.200,1.000,2.300
2.224,-4.000,1.500,0.700,1.500
2.225,-3.800,1.800,0.500,0.600
2.226,-3.700,2.000,0.400,-0.300
2.227,-3.800,1.900,0.300,-1.100
2.228,-4.000,1.600,0.300,-1.800
2.229,-4.100,1.100,0.200,-2.500
2.230,-4.200,0.600,0.100,-3.100
2.231,-4.200,0.300,0.000,-3.600
2.232,-4.200,-0.100,-0.100,-4.100
2.233,-4.200,-0.400,-0.100,-4.600
2.234,-4.200,-0.800,0.100,-5.000
2.235,-4.000,-1.200,0.100,-5.000
2.236,-3.600,-1.600,0.200,-4.800
2.237,-3.200,-2.000,0.200,-4.300
2.238,-2.700,-2.200,0.100,-3.900
2.239,-2.300,-2.400,0.100,-3.800
2.240,-2.000,-2.700,0.100,-3.900
2.241,-1.600,-2.900,0.000,-4.100
2.242,-1.200,-3.100,-0.100,-4.100
2.243,-0.800,-3.400,-0.300,-3.700
2.244,-0.400,-3.500,-0.300,-3.000
2.245,-0.100,-3.400,-0.200,-2.200
2.246,0.000,-3.200,0.000,-1.700
2.247,-0.100,-2.800,0.200,-1.500
2.248,-0.300,-2.400,0.300,-1.500
2.249,-0.500,-2.000,0.300,-1.400
2.250,-0.800,-1.600,0.200,-1.000
2.251,-1.200,-1.300,0.100,-0.300
2.252,-1.600,-0.900,0.100,0.600
2.253,-2.100,-0.500,0.100,1.600
2.254,-2.700,-0.200,0.300,2.500
2.255,-3.100,0.100,0.400,3.500
2.256,-3.300,0.200,0.400,4.300
2.257,-3.300,0.200,0.400,5.200
2.258,-3.300,0.200,0.300,6.000
2.259,-3.500,0.200,0.200,6.600
2.260,-3.800,0.200,0.100,7.100
2.261,-4.000,0.300,0.000,7.300
2.262,-3.800,0.300,-0.100,7.200
2.263,-3.100,0.100,-0.200,6.900
2.264,-2.100,-0.300,-0.300,6.300
2.265,-1.000,-0.800,-0.400,5.500
2.266,-0.300,-1.200,-0.500,4.700
2.267,0.100,-1.400,-0.600,3.800
2.268,0.300,-1.400,-0.700,2.900
2.269,0.600,-1.200,-0.700,2.100
2.270,0.900,-1.100,-0.700,1.200
2.271,1.200,-1.000,-0.700,0.400
2.272,1.300,-1.000,-0.600,-0.400
2.273,1.200,-1.000,-0.500,-1.000
2.274,1.200,-0.900,-0.400,-1.400
2.275,1.200,-0.800,-0.300,-1.800
2.276,1.300,-0.700,-0.300,-2.100
2.277,1.400,-0.700,-0.300,-2.400
2.278,1.400,-0.800,-0.200,-2.500
2.279,1.500,-1.000,-0.200,-2.200
2.280,1.600,-1.000,-0.200,-1.800
2.281,1.800,-1.000,-0.200,-1.300
2.282,2.000,-0.900,-0.200,-0.700
2.283,2.100,-0.900,-0.300,-0.200
2.284,2.200,-0.900,-0.400,0.200
2.285,2.000,-0.900,-0.500,0.700
2.286,1.800,-0.900,-0.700,1.100
2.287,1.400,-0.900,-0.800,1.400
2.288,0.900,-0.900,-0.900,1.500
2.289,0.300,-0.900,-1.000,1.300
2.290,-0.400,-0.900,-0.900,1.100
2.291,-1.100,-1.000,-0.800,0.800
2.292,-1.800,-1.100,-0.600,0.600
2.293,-2.300,-1.300,-0.400,0.300
2.294,-2.800,-1.500,-0.200,0.000
2.295,-3.100,-1.800,0.000,-0.400
2.296,-3.300,-2.000,0.100,-0.900
2.297,-3.400,-2.200,0.200,-1.500
2.298,-3.300,-2.200,0.300,-2.000
2.299,-3.000,-2.300,0.300,-2.500
2.300,-2.500,-2.300,0.300,-2.800
2.301,-2.000,-2.300,0.200,-3.200
2.302,-1.500,-2.200,0.000,-3.500
2.303,-1.100,-1.900,-0.100,-3.600
2.304,-0.600,-1.600,-0.300,-3.600
2.305,-0.100,-1.200,-0.400,-3.500
2.306,0.400,-1.000,-0.700,-3.200
2.307,0.800,-0.900,-0.800,-3.000
2.308,1.000,-0.900,-0.900,-2.800
2.309,1.200,-1.000,-1.100,-2.700
2.310,1.200,-0.900,-1.200,-2.600
2.311,1.200,-0.800,-1.300,-2.400
2.312,1.200,-0.700,-1.400,-2.100
2.313,1.200,-0.600,-1.500,-1.700
2.314,1.200,-0.600,-1.500,-1.400
2.315,1.100,-0.600,-1.500,-1.300
2.316,0.900,-0.700,-1.500,-1.500
2.317,0.700,-0.800,-1.600,-1.700
2.318,0.500,-0.900,-1.600,-1.900
2.319,0.300,-1.100,-1.600,-2.000
2.320,0.100,-1.200,-1.600,-2.100
2.321,0.100,-1.200,-1.700,-2.200
2.322,0.000,-1.100,-1.800,-2.300
2.323,-0.100,-0.900,-2.000,-2.600
2.324,-0.200,-0.700,-2.100,-2.800
2.325,-0.200,-0.700,-2.000,-3.100
2.326,0.200,-0.800,-1.900,-3.200
2.327,1.100,-0.900,-1.900,-3.300
2.328,2.100,-1.100,-2.100,-3.500
2.329,3.100,-1.000,-2.500,-3.600
2.330,4.000,-0.900,-2.800,-3.800
2.331,4.900,-0.800,-2.900,-4.000
2.332,5.800,-1.100,-2.900,-4.200
2.333,6.800,-1.500,-2.900,-4.500
2.334,7.500,-2.000,-2.900,-4.900
2.335,7.900,-2.300,-2.900,-5.200
2.336,7.900,-2.400,-2.800,-5.200
2.337,7.500,-2.200,-2.600,-4.800
2.338,7.100,-1.900,-2.300,-4.400
2.339,6.700,-1.700,-2.100,-4.200
2.340,6.400,-1.700,-2.000,-4.500
2.341,6.000,-1.600,-1.900,-4.800
2.342,5.600,-1.600,-1.900,-4.700
2.343,5.100,-1.600,-1.900,-3.800
2.344,4.900,-1.500,-1.800,-2.400
2.345,4.800,-1.500,-1.800,-1.100
2.346,4.900,-1.400,-1.800,-0.300
2.347,5.000,-1.200,-1.700,-0.100
2.348,5.200,-0.800,-1.700,0.000
2.349,5.500,-0.400,-1.600,0.100
2.350,5.800,0.000,-1.600,0.400
2.351,6.100,0.100,-1.700,0.600
2.352,6.500,0.000,-1.600,0.700
2.353,6.600,-0.200,-1.600,0.700
2.354,6.600,-0.500,-1.500,0.800
2.355,6.400,-0.700,-1.500,1.000
2.356,6.200,-0.900,-1.500,1.200
2.357,5.900,-1.100,-1.700,1.200
2.358,5.700,-1.400,-1.800,1.100
2.359,5.500,-1.600,-1.900,1.100
2.360,5.300,-1.700,-1.900,1.200
2.361,5.100,-1.700,-1.800,1.600
2.362,5.000,-1.600,-1.600,1.900
2.363,5.100,-1.500,-1.500,2.100
2.364,5.300,-1.400,-1.300,2.100
2.365,5.500,-1.200,-1.100,2.000
2.366,5.700,-1.000,-0.900,1.800
2.367,5.800,-0.700,-0.800,1.600
2.368,5.900,-0.500,-0.700,1.200
2.369,5.900,-0.400,-0.400,0.600
2.370,5.800,-0.300,-0.200,-0.200
2.371,5.300,-0.400,0.000,-1.100
2.372,4.500,-0.400,0.100,-1.900
2.373,3.600,-0.600,0.300,-2.700
2.374,2.600,-0.800,0.300,-3.400
2.375,1.700,-1.300,0.300,-4.000
2.376,0.800,-2.000,0.300,-4.700
2.377,0.000,-2.800,0.200,-5.400
2.378,-0.900,-3.400,0.100,-5.800
2.379,-1.600,-3.500,-0.100,-6.000
2.380,-2.000,-3.400,-0.100,-5.900
2.381,-1.900,-3.000,0.000,-5.500
2.382,-1.300,-2.900,0.100,-5.000
2.383,-0.500,-3.200,0.200,-4.400
2.384,0.400,-3.800,0.100,-3.700
2.385,1.500,-4.400,-0.100,-3.000
2.386,2.600,-5.000,-0.500,-2.100
2.387,3.900,-5.500,-0.900,-1.100
2.388,5.400,-6.000,-1.300,-0.100
2.389,6.700,-6.500,-1.700,0.800
2.390,7.800,-7.200,-2.100,1.400
2.391,8.500,-7.900,-2.600,1.700
2.392,8.900,-8.700,-3.200,1.800
2.393,9.200,-9.600,-3.800,1.700
2.394,9.400,-10.500,-4.500,1.400
2.395,9.600,-11.500,-5.200,0.800
2.396,9.600,-12.500,-6.000,0.000
2.397,9.500,-13.700,-6.800,-1.100
2.398,9.000,-14.900,-7.600,-2.600
2.399,8.400,-16.200,-8.400,-4.200
2.400,7.800,-17.600,-9.100,-5.900
2.401,7.200,-18.900,-9.700,-7.400
2.402,6.700,-20.100,-10.200,-8.900
2.403,6.300,-21.100,-10.600,-10.300
2.404,5.700,-22.000,-10.900,-11.700
2.405,5.200,-22.700,-11.100,-12.900
2.406,4.800,-23.300,-11.300,-13.800
2.407,4.700,-23.800,-11.500,-14.400
2.408,4.900,-23.900,-11.600,-14.700
2.409,5.100,-23.700,-11.600,-14.900
2.410,5.200,-23.200,-11.700,-15.100
2.411,5.100,-22.500,-11.700,-15.200
2.412,4.900,-21.500,-11.600,-15.200
2.413,4.600,-20.400,-11.500,-15.200
2.414,4.400,-19.300,-11.200,-15.100
2.415,4.200,-18.400,-11.000,-15.200
2.416,4.100,-17.600,-10.700,-15.300
2.417,4.000,-16.900,-10.600,-15.500
2.418,3.900,-16.100,-10.300,-15.500
2.419,3.800,-15.400,-10.100,-15.300
2.420,3.700,-14.500,-9.700,-15.000
2.421,3.600,-13.500,-9.300,-14.600
2.422,3.600,-12.600,-8.900,-14.300
2.423,3.500,-11.800,-8.600,-13.900
2.424,3.500,-11.300,-8.300,-13.400
2.425,3.600,-10.900,-8.100,-12.600
2.426,3.700,-10.700,-7.900,-11.700
2.427,4.100,-10.500,-7.900,-10.600
2.428,4.500,-10.300,-8.000,-9.400
2.429,5.300,-10.100,-8.300,-8.100
2.430,6.200,-9.900,-8.800,-6.800
2.431,7.300,-9.600,-9.200,-5.500
2.432,8.600,-9.000,-9.600,-4.100
2.433,9.800,-8.300,-9.700,-2.500
2.434,10.800,-7.700,-9.700,-0.800
2.435,11.300,-7.200,-9.600,0.600
2.436,11.300,-6.800,-9.300,1.400
2.437,10.700,-6.600,-8.800,1.700
2.438,9.700,-6.500,-8.200,1.900
2.439,8.400,-6.300,-7.400,2.400
2.440,7.000,-6.000,-6.500,3.500
2.441,5.700,-5.600,-5.700,4.600
2.442,4.300,-5.000,-4.900,5.000
2.443,3.000,-4.300,-4.200,4.400
2.444,1.800,-3.400,-3.600,3.000
2.445,0.800,-2.400,-2.900,1.700
2.446,0.000,-1.300,-2.200,0.900
2.447,-0.600,-0.200,-1.600,0.900
2.448,-0.900,1.000,-0.900,1.000
2.449,-1.200,2.200,-0.400,0.900
2.450,-1.300,3.400,0.100,0.600
2.451,-1.100,4.500,0.600,0.400
2.452,-0.600,5.400,0.900,0.500
2.453,0.200,6.100,1.200,0.900
2.454,1.100,6.600,1.400,1.300
2.455,2.100,7.200,1.500,1.400
2.456,3.100,7.900,1.600,1.500
2.457,4.200,8.500,1.700,1.600
2.458,5.200,9.200,1.700,1.900
2.459,5.900,9.800,1.800,2.200
2.460,6.100,10.100,1.800,2.500
2.461,6.000,10.300,1.600,2.500
2.462,6.000,10.500,1.400,2.300
2.463,6.100,10.800,1.200,2.000
2.464,6.300,11.200,1.200,1.800
2.465,6.400,11.700,1.200,1.600
2.466,6.200,12.000,1.200,1.300
2.467,5.500,12.000,1.200,1.100
2.468,4.600,11.600,1.200,0.800
2.469,3.700,11.000,1.200,0.600
2.470,2.900,10.500,1.300,0.500
2.471,2.300,10.200,1.500,0.700
2.472,1.700,10.200,1.600,1.100
2.473,1.300,10.400,1.700,1.600
2.474,0.900,10.600,1.800,2.300
2.475,0.700,10.500,2.100,3.100
2.476,0.600,10.100,2.300,4.000
2.477,0.700,9.600,2.700,5.200
2.478,0.800,9.200,3.000,6.400
2.479,1.200,9.200,3.300,7.600
2.480,1.700,9.500,3.600,8.700
2.481,2.200,10.000,4.000,9.600
2.482,2.800,10.500,4.300,10.300
2.483,3.300,10.700,4.600,10.900
2.484,3.700,10.800,4.600,11.400
2.485,4.100,10.800,4.600,11.900
2.486,4.500,10.800,4.500,12.300
2.487,4.700,10.800,4.400,12.600
2.488,4.800,10.900,4.200,12.700
2.489,4.800,11.100,4.100,12.700
2.490,4.800,11.300,4.000,12.500
2.491,4.700,11.500,3.800,12.100
2.492,4.700,11.800,3.700,11.600
2.493,4.500,12.100,3.500,11.100
2.494,4.200,12.300,3.300,10.600
2.495,4.000,12.400,3.200,10.200
2.496,3.800,12.400,3.100,9.900
2.497,3.700,12.300,3.100,9.600
2.498,3.500,12.400,3.100,9.300
2.499,3.200,12.400,3.200,9.100
2.500,2.700,12.500,3.300,8.800
2.501,2.100,12.400,3.400,8.500
2.502,1.600,12.300,3.600,8.300
2.503,1.100,12.200,3.700,8.100
2.504,0.600,12.300,4.000,8.000
2.505,0.200,12.600,4.300,7.900
2.506,-0.200,12.800,4.700,7.800
2.507,-0.500,12.800,5.300,7.800
2.508,-0.700,12.600,6.000,7.900
2.509,-0.500,12.200,6.900,8.300
2.510,0.000,11.800,7.900,8.800
2.511,0.800,11.500,9.100,9.600
2.512,1.900,11.200,10.500,10.600
2.513,3.200,11.000,12.100,11.700
2.514,4.900,10.900,13.900,13.400
2.515,6.900,11.100,16.000,15.600
2.516,9.100,11.700,18.500,18.500
2.517,11.300,12.900,21.400,22.100
2.518,13.000,14.800,24.800,26.400
2.519,14.000,17.800,28.900,31.300
2.520,14.400,22.000,33.400,36.700
2.521,14.300,27.500,38.200,42.500
2.522,14.000,33.600,42.800,48.500
2.523,14.200,39.500,46.700,54.100
2.524,15.400,44.200,49.200,58.500
2.525,18.200,46.800,49.700,61.000
2.526,23.000,46.600,47.300,60.800
2.527,29.500,43.700,41.700,57.900
2.528,37.100,38.300,32.700,51.900
2.529,44.800,30.800,20.400,42.900
2.530,51.900,21.500,5.100,30.600
2.531,57.800,10.500,-12.900,14.900
2.532,62.800,-2.300,-32.900,-3.500
2.533,67.200,-17.800,-53.600,-23.500
2.534,71.300,-36.500,-73.400,-43.500
2.535,75.000,-59.100,-90.700,-62.600
2.536,77.600,-85.100,-104.400,-80.400
2.537,78.000,-113.400,-114.700,-97.300
2.538,75.000,-142.500,-122.200,-113.500
2.539,67.700,-171.000,-127.500,-128.800
2.540,56.300,-197.900,-131.500,-143.300
2.541,42.600,-222.600,-134.700,-157.100
2.542,29.300,-245.200,-137.900,-170.700
2.543,19.400,-265.200,-141.600,-183.800
2.544,14.500,-281.100,-145.800,-195.300
2.545,13.700,-,-149.200,-202.600
2.546,13.500,-286.500,-148.800,-202.500
2.547,9.300,-266.700,-141.300,-192.400
2.548,-2.300,-228.100,-124.600,-171.700
2.549,-21.800,-173.000,-99.000,-141.900
2.550,-46.500,-108.200,-67.500,-106.400
2.551,-71.900,-42.600,-34.800,-69.700
2.552,-93.100,15.800,-5.400,-35.800
2.553,-107.400,61.800,17.900,-7.600
2.554,-113.500,93.800,34.000,13.600
2.555,-112.000,113.000,43.300,28.000
2.556,-104.500,121.900,47.300,37.000
2.557,-92.600,123.200,47.300,42.000
2.558,-78.500,119.600,44.700,44.500
2.559,-63.900,113.300,40.500,45.000
2.560,-50.000,105.600,35.400,44.100
2.561,-37.300,97.200,29.900,42.100
2.562,-25.700,88.000,24.600,39.200
2.563,-15.400,78.100,19.900,35.800
2.564,-6.900,67.900,16.100,32.200
2.565,-0.800,58.100,13.200,28.500
2.566,2.600,49.300,11.300,24.800
2.567,3.500,41.800,10.100,21.300
2.568,2.900,35.500,9.300,18.100
2.569,1.900,29.800,8.700,15.200
2.570,1.000,24.700,8.100,12.700
2.571,0.400,20.300,7.800,10.700
2.572,-0.100,16.700,7.500,9.300
2.573,-0.400,13.900,7.500,8.300
2.574,-0.500,11.700,7.400,7.800
2.575,-0.400,10.100,7.400,7.600
2.576,-0.300,8.700,7.300,7.700
2.577,-0.100,7.500,7.100,8.100
2.578,0.000,6.600,7.000,8.700
2.579,0.100,5.900,7.000,9.500
2.580,0.300,5.500,7.000,10.200
2.581,0.600,5.200,7.000,10.800
2.582,0.800,4.900,6.900,11.200
2.583,0.900,4.500,6.900,11.500
2.584,0.800,4.200,6.900,11.600
2.585,0.700,3.900,6.900,11.700
2.586,0.500,3.700,7.000,11.700
2.587,0.400,3.700,7.000,11.500
2.588,0.300,3.600,6.900,11.000
2.589,0.200,3.600,6.900,10.400
2.590,0.100,3.700,6.700,9.600
2.591,-0.100,3.700,6.500,8.800
2.592,-0.300,3.800,6.300,7.900
2.593,-0.400,3.700,6.100,6.900
2.594,-0.600,3.700,5.900,6.000
2.595,-0.700,3.600,5.700,5.100
2.596,-0.700,3.500,5.500,4.200
2.597,-0.700,3.600,5.200,3.100
2.598,-0.600,3.700,4.900,1.900
2.599,-0.600,3.700,4.700,0.600
2.600,-0.500,3.600,4.500,-0.700
2.601,-0.500,3.500,4.500,-1.800
2.602,-0.500,3.400,4.500,-2.800
2.603,-0.600,3.300,4.600,-3.800
2.604,-0.600,3.300,4.700,-4.700
2.605,-0.600,3.500,4.800,-5.400
2.606,-0.500,3.800,4.900,-5.500
2.607,-0.400,4.300,5.100,-5.100
2.608,-0.300,4.900,5.500,-4.100
2.609,-0.100,5.200,5.900,-2.700
2.610,0.100,5.400,6.300,-1.300
2.611,0.200,5.400,6.500,0.300
2.612,0.400,5.400,6.600,2.200
2.613,0.600,5.600,6.600,4.200
2.614,0.700,5.700,6.600,6.300
2.615,1.000,5.600,6.500,8.200
2.616,1.200,5.300,6.300,9.700
2.617,1.400,4.800,5.900,10.600
2.618,1.700,4.400,5.500,11.200
2.619,2.000,4.100,5.100,11.500
2.620,2.300,3.900,4.700,11.600
2.621,2.700,3.600,4.500,11.400
2.622,3.100,3.200,4.500,10.800
2.623,3.400,2.800,4.400,9.600
2.624,3.500,2.400,4.200,8.200
2.625,3.600,2.200,4.000,6.700
2.626,3.700,2.000,3.800,5.600
2.627,3.600,1.700,3.800,4.900
2.628,3.600,1.200,4.100,4.500
2.629,3.400,0.800,4.500,4.100
2.630,3.300,0.400,4.800,3.900
2.631,3.200,0.300,5.000,3.900
2.632,3.100,0.500,5.100,4.300
2.633,2.900,0.700,5.100,5.100
2.634,2.800,0.900,5.200,6.100
2.635,2.600,1.000,5.300,7.200
2.636,2.500,1.000,5.200,8.000
2.637,2.300,0.900,5.100,8.700
2.638,2.100,0.900,4.800,9.300
2.639,1.800,1.200,4.500,9.700
2.640,1.600,1.500,4.400,9.900
2.641,1.300,1.800,4.300,10.000
2.642,1.100,2.100,4.300,9.800
2.643,0.900,2.100,4.400,9.500
2.644,0.900,1.900,4.600,9.200
2.645,0.900,1.500,4.900,8.700
2.646,1.100,1.100,5.100,8.200
2.647,1.200,0.500,5.200,7.600
2.648,1.300,-0.200,5.100,7.000
2.649,1.400,-1.100,5.000,6.400
2.650,1.500,-1.800,4.900,5.900
2.651,1.500,-2.300,4.600,5.400
2.652,1.500,-2.900,4.400,5.000
2.653,1.400,-3.600,3.900,4.600
2.654,1.400,-4.600,3.500,4.300
2.655,1.300,-5.400,3.100,4.100
2.656,1.300,-5.200,3.100,4.000
2.657,1.200,-4.100,3.200,4.000
2.658,1.000,-2.800,3.400,4.000
2.659,0.900,-2.400,3.600,3.900
2.660,0.900,-3.200,3.900,3.600
2.661,1.000,-4.600,4.200,3.100
2.662,1.000,-4.900,4.600,2.500
2.663,1.000,-3.400,5.000,2.000
2.664,1.100,-0.400,5.300,1.500
2.665,1.400,2.500,5.400,0.900
2.666,2.000,4.000,5.300,0.200
2.667,2.800,4.000,5.100,-0.700
2.668,3.800,3.400,4.600,-1.800
2.669,4.900,3.000,4.000,-2.800
2.670,6.000,3.100,3.300,-3.700
2.671,7.300,3.300,2.500,-4.200
2.672,8.600,3.200,1.800,-4.500
2.673,9.900,2.900,1.200,-4.500
2.674,11.100,2.600,0.800,-4.400
2.675,12.000,2.500,0.500,-4.200
2.676,12.500,2.500,0.300,-3.900
2.677,12.900,2.300,0.200,-3.500
2.678,13.300,1.800,0.200,-3.200
2.679,13.500,1.200,0.400,-3.100
2.680,13.400,0.500,0.800,-2.900
2.681,12.700,-0.200,1.400,-2.500
2.682,11.400,-1.000,2.000,-1.800
2.683,9.700,-1.800,2.700,-0.900
2.684,7.700,-2.700,3.200,0.000
2.685,5.900,-3.600,3.700,0.700
2.686,4.500,-4.400,4.000,1.200
2.687,3.400,-5.300,4.100,1.600
2.688,2.800,-6.400,4.100,2.100
2.689,2.500,-7.500,4.000,2.500
2.690,2.500,-8.400,3.700,2.800
2.691,2.600,-9.000,3.200,3.100
2.692,3.000,-9.400,2.700,3.100
2.693,3.400,-9.600,2.200,3.100
2.694,3.800,-9.600,1.600,3.200
2.695,4.200,-9.300,1.100,3.500
2.696,4.600,-8.700,0.600,3.900
2.697,5.000,-8.000,0.300,4.200
2.698,5.300,-7.600,-0.100,4.400
2.699,5.500,-7.700,-0.600,4.300
2.700,5.700,-8.400,-1.200,4.100
2.701,5.900,-9.400,-1.900,3.900
2.702,6.000,-10.400,-2.700,3.700
2.703,6.200,-11.000,-3.400,3.600
2.704,6.500,-11.300,-3.900,3.400
2.705,6.800,-11.500,-4.500,3.100
2.706,7.100,-11.800,-5.000,2.600
2.707,7.400,-12.400,-5.400,1.800
2.708,7.700,-13.100,-5.700,1.000
2.709,7.900,-13.900,-5.700,0.200
2.710,8.200,-14.700,-5.600,-0.500
2.711,8.400,-15.400,-5.400,-1.200
2.712,8.600,-16.300,-5.000,-1.800
2.713,8.800,-17.100,-4.700,-2.500
2.714,9.100,-18.100,-4.300,-3.100
2.715,9.400,-19.100,-4.000,-3.400
2.716,9.800,-19.900,-3.800,-3.500
2.717,10.200,-20.800,-3.500,-3.500
2.718,10.600,-21.600,-3.300,-3.500
2.719,10.900,-22.600,-3.200,-3.600
2.720,11.200,-23.600,-3.600,-3.800
2.721,11.400,-24.600,-4.500,-3.900
2.722,11.600,-25.500,-6.100,-4.000
2.723,11.700,-26.300,-7.600,-4.400
2.724,11.900,-26.900,-8.500,-4.900
2.725,12.100,-27.500,-8.600,-5.600
2.726,12.300,-28.000,-8.300,-6.400
2.727,12.600,-28.600,-8.500,-7.200
2.728,12.800,-29.300,-9.800,-8.000
2.729,13.000,-30.000,-11.800,-8.800
2.730,13.000,-30.700,-13.600,-9.800
2.731,13.000,-31.400,-14.600,-11.000
2.732,12.800,-32.100,-14.800,-12.200
2.733,12.700,-32.800,-14.600,-13.500
2.734,12.600,-33.500,-14.500,-14.700
2.735,12.500,-34.400,-14.700,-15.700
2.736,12.500,-35.200,-14.700,-16.400
2.737,12.400,-36.100,-14.300,-16.800
2.738,12.200,-37.000,-13.500,-17.100
2.739,12.000,-37.900,-12.600,-17.600
2.740,11.700,-39.000,-11.800,-18.100
2.741,11.500,-40.100,-11.100,-18.600
2.742,11.200,-40.900,-10.200,-18.700
2.743,11.000,-41.400,-9.200,-18.300
2.744,10.700,-41.500,-8.100,-17.700
2.745,10.400,-41.400,-7.100,-17.100
2.746,10.100,-41.200,-6.200,-16.900
2.747,9.800,-41.000,-5.500,-17.000
2.748,9.600,-40.800,-5.000,-17.100
2.749,9.300,-40.500,-4.600,-17.300
2.750,9.000,-40.000,-4.400,-17.600
2.751,8.800,-39.400,-4.200,-18.000
2.752,8.500,-38.700,-4.200,-18.700
2.753,8.400,-37.700,-4.400,-19.500
2.754,8.300,-36.400,-4.700,-20.400
2.755,8.100,-35.100,-5.400,-21.000
2.756,7.800,-34.100,-6.300,-21.500
2.757,7.600,-33.500,-7.300,-21.800
2.758,7.400,-32.900,-8.200,-22.100
2.759,7.200,-32.000,-9.100,-22.500
2.760,7.100,-30.600,-10.100,-22.600
2.761,7.100,-29.300,-11.100,-22.200
2.762,7.000,-28.800,-12.200,-21.200
2.763,6.900,-29.400,-13.000,-19.600
2.764,6.900,-30.800,-13.400,-17.700
2.765,6.800,-32.300,-13.300,-15.700
2.766,6.800,-33.400,-12.900,-13.600
2.767,6.900,-34.000,-12.300,-11.400
2.768,6.900,-34.500,-11.700,-9.000
2.769,7.000,-35.000,-10.900,-6.800
2.770,7.000,-35.400,-9.800,-4.900
2.771,7.000,-34.900,-8.600,-3.400
2.772,7.200,-33.500,-7.200,-2.400
2.773,7.400,-31.200,-5.900,-1.800
2.774,7.600,-28.500,-4.800,-1.400
2.775,7.800,-25.800,-4.000,-1.300
2.776,7.900,-23.100,-3.400,-1.500
2.777,8.000,-20.200,-3.000,-2.000
2.778,8.200,-17.100,-2.700,-2.800
2.779,8.300,-14.000,-2.600,-3.900
2.780,8.500,-11.200,-2.500,-4.800
2.781,8.600,-9.200,-2.600,-5.700
2.782,8.700,-8.000,-2.800,-6.400
2.783,8.700,-7.400,-3.200,-7.100
2.784,8.700,-7.300,-3.600,-7.800
2.785,8.800,-7.300,-4.100,-8.300
2.786,8.900,-7.600,-4.600,-8.500
2.787,9.000,-8.000,-5.000,-8.500
2.788,9.100,-8.300,-5.300,-8.300
2.789,9.100,-8.300,-5.500,-7.900
2.790,9.200,-7.700,-5.600,-7.500
2.791,9.200,-6.700,-5.700,-7.100
2.792,9.200,-5.500,-5.700,-6.800
2.793,9.100,-4.300,-5.500,-6.500
2.794,9.000,-3.300,-5.300,-6.200
2.795,8.900,-2.100,-5.100,-6.000
2.796,8.900,-0.600,-4.900,-5.700
2.797,9.000,0.900,-4.900,-5.200
2.798,9.000,1.700,-4.800,-4.600
2.799,8.900,1.600,-4.600,-3.700
2.800,8.600,0.700,-4.200,-2.700
2.801,8.200,-0.600,-3.400,-1.700
2.802,7.900,-1.700,-2.600,-0.700
2.803,7.700,-2.700,-1.700,0.200
2.804,7.600,-3.600,-0.900,1.000
2.805,7.500,-4.600,0.000,1.900
2.806,7.400,-5.300,0.900,2.700
2.807,7.200,-5.300,1.700,3.200
2.808,7.000,-4.100,2.200,3.600
2.809,7.000,-1.800,2.400,3.700
2.810,7.000,0.800,2.200,3.800
2.811,7.100,3.400,2.000,3.700
2.812,7.200,5.700,1.700,3.400
2.813,7.300,7.900,1.300,2.900
2.814,7.300,10.100,0.900,2.300
2.815,7.400,12.300,0.500,1.600
2.816,7.500,14.400,0.100,0.800
2.817,7.600,15.800,-0.300,-0.100
2.818,7.600,16.300,-0.600,-1.200
2.819,7.600,16.000,-0.800,-2.300
2.820,7.400,15.200,-1.100,-3.600
2.821,7.200,14.200,-1.200,-4.800
2.822,7.000,13.100,-1.300,-6.100
2.823,6.800,11.400,-1.300,-7.500
2.824,6.600,9.200,-1.500,-8.800
2.825,6.500,6.800,-1.600,-9.900
2.826,6.500,4.800,-1.700,-10.600
2.827,6.400,3.500,-1.500,-11.100
2.828,6.200,2.900,-1.000,-11.500
2.829,6.100,2.500,-0.400,-11.900
2.830,5.900,2.200,0.200,-12.000
2.831,5.600,1.800,0.600,-11.400
2.832,5.300,1.800,1.000,-10.400
2.833,4.900,2.200,1.400,-9.300
2.834,4.600,2.800,1.700,-8.600
2.835,4.300,3.200,1.900,-7.800
2.836,4.100,3.100,1.700,-6.400
2.837,3.900,2.400,1.100,-4.100
2.838,3.700,1.400,0.400,-1.700
2.839,3.500,0.200,-0.100,-0.400
2.840,3.100,-1.000,-0.400,-0.800
2.841,2.800,-2.300,-0.600,-2.100
2.842,2.600,-3.700,-0.800,-2.500
2.843,2.400,-4.800,-1.000,-0.900
2.844,2.200,-5.300,-0.900,2.200
2.845,2.200,-5.200,-0.700,5.100
2.846,2.100,-4.200,-0.400,6.200
2.847,2.100,-2.600,-0.100,5.400
2.848,2.200,-0.300,0.000,3.700
2.849,2.300,2.200,-0.100,2.200
2.850,2.400,4.700,-0.200,1.400
2.851,2.600,7.100,-0.300,0.800
2.852,2.800,9.200,-0.600,0.100
2.853,3.000,10.800,-1.100,-0.700
2.854,3.200,12.000,-1.800,-1.100
2.855,3.300,12.600,-2.300,-1.000
2.856,3.400,12.600,-2.700,-0.400
2.857,3.300,12.100,-2.800,0.300
2.858,3.200,11.600,-2.800,1.100
2.859,3.100,11.400,-2.800,2.200
2.860,3.200,11.500,-2.600,3.500
2.861,3.300,11.700,-2.400,5.000
2.862,3.100,11.600,-2.000,6.200
2.863,2.700,10.800,-1.500,7.000
2.864,2.200,9.600,-1.100,7.400
2.865,1.600,8.200,-0.900,7.400
2.866,1.200,7.100,-0.700,7.300
2.867,1.000,6.200,-0.300,6.600
2.868,0.800,5.400,0.200,5.500
2.869,0.500,4.400,0.800,3.800
2.870,0.200,3.400,1.500,1.800
2.871,-0.100,2.600,2.100,-0.200
2.872,-0.200,2.100,2.300,-1.900
2.873,-0.300,1.700,2.300,-3.300
2.874,-0.400,1.500,2.100,-4.600
2.875,-0.600,1.100,1.600,-5.900
2.876,-0.700,0.800,1.100,-7.100
2.877,-0.900,0.400,0.600,-8.100
2.878,-1.000,-0.200,0.100,-8.600
2.879,-1.200,-1.000,-0.400,-8.500
2.880,-1.200,-2.100,-0.800,-7.800
2.881,-1.200,-3.400,-1.100,-6.900
2.882,-1.200,-4.500,-1.200,-5.900
2.883,-1.000,-5.500,-0.900,-5.000
2.884,-0.700,-6.300,-0.400,-4.200
2.885,-0.500,-7.300,0.200,-3.400
2.886,-0.200,-8.300,0.800,-2.500
2.887,0.100,-9.400,1.200,-1.600
2.888,0.400,-10.500,1.700,-1.000
2.889,0.700,-11.600,2.000,-0.900
2.890,0.900,-12.600,2.100,-1.400
2.891,0.900,-13.400,1.800,-2.200
2.892,1.000,-13.900,1.200,-3.200
2.893,1.000,-13.700,0.400,-4.200
2.894,1.100,-13.000,-0.300,-5.400
2.895,1.200,-11.800,-0.800,-6.600
2.896,1.300,-10.200,-1.200,-7.800
2.897,1.300,-7.900,-1.500,-8.500
2.898,1.200,-4.700,-1.500,-8.700
2.899,1.000,-0.600,-1.200,-8.300
2.900,0.800,3.700,-0.500,-7.600
2.901,0.700,7.500,0.500,-6.800
2.902,0.600,10.400,1.600,-5.800
2.903,0.400,12.600,2.400,-4.500
2.904,0.400,14.300,3.000,-2.800
2.905,0.300,15.700,3.400,-0.900
2.906,0.200,16.300,3.800,0.700
2.907,0.000,15.600,4.000,1.600
2.908,-0.200,13.700,3.900,1.700
2.909,-0.300,11.400,3.500,1.400
2.910,-0.400,9.400,2.700,0.900
2.911,-0.500,8.300,1.900,0.300
2.912,-0.500,7.700,1.100,-0.600
2.913,-0.600,7.200,0.300,-1.800
2.914,-0.600,6.600,-0.500,-3.300
2.915,-0.700,6.100,-1.300,-4.800
2.916,-0.700,5.900,-2.000,-5.800
2.917,-0.800,5.800,-2.600,-6.400
2.918,-0.800,5.600,-3.100,-6.500
2.919,-0.900,4.900,-3.500,-6.400
2.920,-1.000,3.900,-3.600,-6.000
2.921,-1.000,2.700,-3.000,-5.400
2.922,-0.900,1.600,-1.800,-4.400
2.923,-0.800,0.700,-0.600,-3.000
2.924,-0.800,-0.200,-0.100,-1.300
2.925,-0.700,-1.200,-0.400,0.500
2.926,-0.500,-2.300,-1.200,2.300
2.927,-0.200,-3.200,-1.300,3.900
2.928,0.200,-3.800,-0.200,5.400
2.929,0.600,-4.200,1.500,6.700
2.930,0.900,-4.500,3.000,7.700
2.931,1.100,-5.000,3.500,8.300
2.932,1.000,-5.400,3.000,8.300
2.933,0.900,-5.500,2.100,7.800
2.934,0.900,-4.900,1.400,6.900
2.935,0.900,-3.500,0.900,5.600
2.936,1.000,-1.500,0.200,4.200
2.937,1.100,0.300,-0.900,2.600
2.938,1.100,1.800,-2.100,1.100
2.939,1.100,2.900,-3.200,0.200
2.940,1.100,4.000,-4.000,-0.200
2.941,1.000,5.000,-4.300,0.100
2.942,0.900,5.500,-4.600,0.400
2.943,0.700,5.100,-4.800,0.600
2.944,0.600,3.600,-4.800,0.700
2.945,0.400,1.600,-4.300,0.900
2.946,0.300,-0.300,-3.300,1.600
2.947,0.200,-1.600,-2.000,2.600
2.948,0.100,-2.400,-0.600,3.700
2.949,-0.100,-3.000,0.600,4.700
2.950,-0.200,-3.600,1.600,5.300
2.951,-0.200,-4.000,2.400,5.400
2.952,-0.200,-3.900,3.200,5.100
2.953,-0.100,-3.100,3.900,4.300
2.954,0.100,-1.900,4.100,3.100
2.955,0.200,-0.700,3.700,1.600
2.956,0.200,-0.100,2.700,-0.100
2.957,0.300,-0.100,1.500,-1.900
2.958,0.300,-0.200,0.200,-3.900
2.959,0.400,0.000,-0.800,-6.000
2.960,0.400,0.700,-1.800,-8.100
2.961,0.400,1.300,-2.700,-9.900
2.962,0.400,1.300,-3.600,-11.100
2.963,0.400,0.400,-4.200,-11.600
2.964,0.400,-1.300,-4.200,-11.600
2.965,0.400,-2.900,-3.600,-11.300
2.966,0.400,-3.500,-2.600,-10.600
2.967,0.200,-3.100,-1.500,-9.600
2.968,-0.100,-2.000,-0.500,-8.200
2.969,-0.400,-0.900,0.600,-6.300
2.970,-0.600,-0.300,1.700,-4.300
2.971,-0.800,-0.300,3.000,-2.300
2.972,-0.800,-0.500,3.900,-0.700
2.973,-0.700,-0.600,4.500,0.700
2.974,-0.700,-0.500,4.500,1.800
2.975,-0.600,-0.300,4.100,2.800
2.976,-0.700,0.000,3.400,3.700
2.977,-0.700,0.400,2.700,4.300
2.978,-0.700,1.400,1.800,4.700
2.979,-0.600,2.900,0.800,4.700
2.980,-0.400,4.900,-0.300,4.600
2.981,-0.100,7.000,-1.400,4.400
2.982,0.300,8.500,-2.300,4.200
2.983,0.500,9.400,-2.900,4.100
2.984,0.700,9.700,-3.200,4.100
2.985,0.900,9.700,-3.200,4.000
2.986,1.000,9.300,-3.200,3.900
2.987,1.100,8.400,-3.100,3.600
2.988,1.300,6.600,-2.800,3.400
2.989,1.400,4.000,-2.300,3.100
2.990,1.500,0.900,-1.700,2.800
2.991,1.500,-2.100,-1.200,2.300
2.992,1.500,-4.600,-0.900,1.800
2.993,1.300,-6.600,-0.900,1.300
2.994,1.200,-8.100,-1.100,0.700
2.995,1.000,-9.300,-1.400,0.200
2.996,0.900,-10.200,-1.800,-0.300
2.997,0.800,-10.500,-2.400,-0.900
2.998,0.700,-9.700,-3.100,-1.400
2.999,0.600,-7.900,-3.900,-1.800
3.000,0.500,-5.400,-4.700,-2.100
3.001,0.400,-2.800,-5.200,-2.300
3.002,0.400,-0.400,-5.500,-2.600
3.003,0.300,1.700,-5.600,-2.900
3.004,0.200,3.400,-5.400,-3.200
3.005,0.100,5.100,-5.000,-3.400
3.006,0.100,6.500,-4.400,-3.500
3.007,0.100,7.600,-3.700,-3.400
3.008,0.200,8.200,-2.900,-3.100
3.009,0.400,8.300,-2.200,-2.600
3.010,0.500,8.300,-1.600,-2.000
3.011,0.600,8.200,-1.100,-1.400
3.012,0.500,8.000,-0.900,-0.800
3.013,0.500,7.700,-0.800,-0.200
3.014,0.400,7.200,-0.700,0.700
3.015,0.400,6.600,-0.700,1.700
3.016,0.400,6.000,-0.600,2.600
3.017,0.400,5.300,-0.400,3.200
3.018,0.500,4.400,-0.300,3.500
3.019,0.600,3.200,-0.300,3.500
3.020,0.800,2.000,-0.100,3.300
3.021,0.900,0.600,0.500,2.800
3.022,1.100,-0.700,1.400,2.000
3.023,1.200,-2.100,2.200,0.700
3.024,1.300,-3.400,2.600,-0.900
3.025,1.300,-4.800,2.400,-2.500
3.026,1.400,-6.100,2.000,-3.900
3.027,1.300,-7.100,1.900,-4.700
3.028,1.300,-7.700,2.500,-5.100
3.029,1.300,-7.900,3.300,-5.300
3.030,1.300,-8.000,3.900,-5.300
3.031,1.300,-8.100,3.800,-5.100
3.032,1.200,-8.300,3.000,-4.500
3.033,1.200,-8.300,2.000,-3.200
3.034,1.100,-7.500,0.900,-1.600
3.035,1.000,-5.900,0.000,-0.200
3.036,0.800,-3.400,-0.900,0.600
3.037,0.700,-0.500,-2.000,0.700
3.038,0.600,2.300,-3.100,0.500
3.039,0.600,5.000,-4.000,0.800
3.040,0.500,7.500,-4.500,1.700
3.041,0.400,10.000,-4.900,2.500
3.042,0.300,12.400,-5.000,2.200
3.043,0.300,14.300,-5.200,0.300
3.044,0.400,15.500,-5.200,-2.500
3.045,0.600,15.800,-4.900,-4.900
3.046,0.900,15.300,-4.500,-6.100
3.047,1.200,14.500,-3.900,-6.200
3.048,1.500,13.500,-3.500,-5.700
3.049,1.900,12.400,-3.100,-5.200
3.050,2.200,10.900,-2.600,-4.500
3.051,2.400,9.000,-2.100,-3.200
3.052,2.500,7.000,-1.400,-1.200
3.053,2.700,5.400,-0.700,1.100
3.054,2.900,4.300,0.200,3.100
3.055,3.100,3.400,1.100,4.600
3.056,3.100,1.700,1.900,5.700
3.057,3.000,-0.800,2.500,6.700
3.058,2.700,-3.400,2.900,7.700
3.059,2.700,-4.700,3.100,8.200
3.060,2.800,-4.100,3.100,8.200
3.061,3.100,-2.700,2.800,7.500
3.062,3.200,-2.300,2.400,6.400
3.063,3.000,-4.100,1.500,5.400
3.064,2.500,-7.500,0.300,4.500
3.065,2.200,-10.600,-1.000,3.700
3.066,2.100,-11.500,-2.200,2.800
3.067,2.200,-10.100,-3.100,2.100
3.068,2.500,-7.500,-3.700,1.800
3.069,2.500,-5.100,-4.200,1.700
3.070,2.500,-3.400,-4.600,2.000
3.071,2.400,-2.000,-4.800,2.300
3.072,2.400,-0.700,-4.500,2.600
3.073,2.400,0.300,-3.800,2.800
3.074,2.500,0.800,-3.000,3.100
3.075,2.400,0.600,-2.300,3.400
3.076,2.400,0.000,-1.900,3.700
3.077,2.500,-0.800,-1.600,3.900
3.078,2.600,-2.100,-1.200,3.900
3.079,2.700,-4.000,-0.900,3.600
3.080,2.700,-6.400,-0.900,3.000
3.081,2.600,-8.400,-1.100,2.200
3.082,2.500,-9.400,-1.500,1.300
3.083,2.500,-8.900,-1.700,0.400
3.084,2.500,-7.500,-1.600,-0.500
3.085,2.500,-5.600,-1.300,-1.500
3.086,2.500,-3.400,-0.800,-2.700
3.087,2.500,-0.800,-0.300,-3.900
3.088,2.500,2.400,0.400,-4.900
3.089,2.400,5.800,1.400,-5.700
3.090,2.400,8.700,2.600,-6.200
3.091,2.300,10.400,3.600,-6.400
3.092,2.300,11.100,4.100,-6.500
3.093,2.200,11.200,4.100,-6.500
3.094,2.200,11.000,3.800,-6.100
3.095,2.200,10.600,3.300,-5.100
3.096,2.200,9.500,2.700,-3.500
3.097,2.200,7.800,1.900,-1.500
3.098,2.200,5.900,0.800,0.400
3.099,2.200,4.100,-0.500,1.900
3.100,2.300,2.900,-1.900,3.000
3.101,2.300,2.100,-3.100,3.900
3.102,2.500,1.500,-4.000,4.500
3.103,2.600,0.800,-4.500,5.000
3.104,2.800,0.100,-4.700,5.200
3.105,3.000,-0.500,-4.800,4.900
3.106,3.300,-0.700,-4.700,4.000
3.107,3.600,-0.700,-4.500,2.800
3.108,3.900,-0.700,-4.000,1.400
3.109,4.300,-0.800,-3.500,0.100
3.110,4.600,-1.100,-3.100,-1.100
3.111,5.000,-1.600,-3.000,-1.800
3.112,5.400,-2.100,-3.200,-2.400
3.113,5.800,-2.700,-3.600,-2.800
3.114,6.100,-3.500,-4.100,-3.200
3.115,6.500,-4.600,-4.600,-3.600
3.116,6.900,-5.900,-5.400,-4.100
3.117,7.400,-7.300,-6.300,-4.600
3.118,7.800,-8.700,-7.200,-5.100
3.119,8.000,-9.800,-8.000,-5.600
3.120,8.300,-10.900,-8.600,-6.200
3.121,8.400,-12.000,-9.200,-6.900
3.122,8.500,-13.000,-9.700,-7.700
3.123,8.600,-14.100,-10.200,-8.400
3.124,8.600,-15.100,-10.500,-9.100
3.125,8.500,-16.100,-10.600,-9.700
3.126,8.400,-17.100,-10.500,-10.100
3.127,8.100,-18.200,-10.600,-10.400
3.128,7.700,-19.200,-11.100,-10.600
3.129,7.100,-19.900,-11.700,-10.500
3.130,6.600,-20.300,-12.300,-10.300
3.131,6.000,-20.400,-12.500,-9.900
3.132,5.600,-20.500,-12.400,-9.500
3.133,5.200,-20.600,-12.300,-8.900
3.134,5.000,-20.400,-12.300,-8.200
3.135,5.000,-19.900,-12.300,-7.800
3.136,5.200,-18.900,-12.100,-8.100
3.137,5.600,-17.700,-11.600,-9.000
3.138,6.400,-16.500,-11.000,-10.100
3.139,7.300,-15.400,-10.400,-10.500
3.140,8.500,-14.500,-10.000,-10.000
3.141,9.700,-13.500,-9.800,-9.100
3.142,10.900,-12.000,-9.800,-8.600
3.143,11.800,-9.900,-9.700,-9.200
3.144,12.400,-7.700,-9.800,-10.600
3.145,12.900,-5.700,-10.000,-12.100
3.146,13.400,-4.200,-10.500,-12.800
3.147,13.800,-3.200,-11.200,-12.800
3.148,14.200,-2.400,-12.000,-12.300
3.149,14.400,-1.600,-12.500,-11.800
3.150,14.100,-1.100,-12.800,-11.200
3.151,13.200,-0.900,-12.900,-10.200
3.152,11.900,-1.200,-12.800,-8.600
3.153,10.200,-1.400,-12.500,-6.600
3.154,8.400,-1.300,-12.100,-4.800
3.155,6.600,-1.300,-11.600,-3.400
3.156,5.000,-2.000,-10.800,-2.400
3.157,3.600,-3.700,-9.800,-1.700
3.158,2.500,-5.600,-8.700,-1.000
3.159,1.700,-6.200,-7.600,-0.300
3.160,1.200,-5.000,-6.500,0.400
3.161,0.800,-3.000,-5.300,0.900
3.162,0.700,-2.000,-4.000,1.100
3.163,0.700,-3.100,-2.700,1.100
3.164,0.700,-5.700,-1.500,0.900
3.165,0.800,-7.700,-0.500,0.800
3.166,1.000,-7.700,0.400,0.400
3.167,1.100,-5.500,1.200,-0.200
3.168,1.300,-2.500,1.800,-1.200
3.169,1.500,0.300,2.400,-2.300
3.170,1.700,2.700,2.900,-3.400
3.171,1.900,5.300,3.300,-4.000
3.172,2.100,8.600,3.600,-4.200
3.173,2.300,12.300,3.900,-4.000
3.174,2.400,15.700,4.000,-3.500
3.175,2.500,18.400,4.000,-2.800
3.176,2.600,20.600,4.000,-1.700
3.177,2.600,22.400,3.900,-0.100
3.178,2.600,24.000,3.700,2.000
3.179,2.500,25.000,3.500,4.400
3.180,2.400,24.900,3.200,6.700
3.181,2.200,23.900,2.900,8.700
3.182,2.200,22.200,2.500,10.200
3.183,2.200,20.400,2.000,11.200
3.184,2.200,18.800,1.500,12.100
3.185,2.200,17.200,1.000,12.700
3.186,2.200,15.400,0.600,13.000
3.187,2.200,13.500,0.200,12.800
3.188,2.200,11.600,-0.200,12.100
3.189,2.300,9.900,-0.700,11.000
3.190,2.400,8.900,-1.100,9.900
3.191,2.500,8.500,-1.300,9.000
3.192,2.500,8.500,-1.100,8.200
3.193,2.600,8.900,-0.600,7.500
3.194,2.600,9.400,0.000,6.800
3.195,2.700,9.900,0.600,6.300
3.196,2.900,10.700,1.300,6.000
3.197,3.100,11.600,2.100,6.000
3.198,3.200,12.600,3.100,6.200
3.199,3.200,13.400,4.000,6.500
3.200,3.100,14.000,4.700,6.800
3.201,2.800,14.300,4.900,7.100
3.202,2.600,14.600,4.900,7.300
3.203,2.500,15.000,4.800,7.600
3.204,2.300,15.500,4.600,7.900
3.205,2.200,16.100,4.400,8.000
3.206,2.100,16.500,4.000,8.000
3.207,2.000,16.500,3.600,7.900
3.208,1.800,16.200,3.200,7.700
3.209,1.800,15.800,3.100,7.400
3.210,1.700,15.400,3.100,6.900
3.211,1.700,15.300,3.200,6.300
3.212,1.600,15.300,3.400,5.500
3.213,1.600,15.300,3.900,4.600
3.214,1.600,15.400,4.400,3.900
3.215,1.600,15.300,5.000,3.400
3.216,1.600,15.300,5.500,3.200
3.217,1.600,15.300,5.900,3.400
3.218,1.600,15.300,6.300,3.700
3.219,1.600,15.200,6.800,4.100
3.220,1.700,14.900,7.300,4.500
3.221,1.700,14.400,7.300,5.100
3.222,1.800,13.900,6.900,5.800
3.223,1.900,13.400,6.400,6.400
3.224,2.000,13.000,6.300,7.000
3.225,2.100,12.700,6.900,7.500
3.226,2.300,12.500,7.800,8.000
3.227,2.700,12.200,8.100,8.400
3.228,3.200,12.000,7.400,8.900
3.229,3.700,11.900,6.100,9.600
3.230,4.300,12.000,4.900,10.300
3.231,5.000,12.300,4.600,11.100
3.232,5.800,12.900,5.200,11.800
3.233,6.600,13.500,6.300,12.500
3.234,7.700,14.000,7.400,13.400
3.235,8.900,14.400,8.500,14.600
3.236,10.400,14.500,10.200,16.200
3.237,12.100,14.900,12.700,18.200
3.238,13.700,15.800,16.000,20.600
3.239,15.200,17.400,19.800,23.600
3.240,16.400,19.800,24.000,27.200
3.241,17.000,23.100,28.600,31.600
3.242,17.200,27.500,33.600,36.400
3.243,17.300,32.800,38.800,41.400
3.244,17.500,38.400,43.600,46.100
3.245,18.500,43.300,47.200,50.000
3.246,20.700,46.700,48.900,52.500
3.247,24.400,47.600,48.200,53.200
3.248,29.700,45.900,44.900,51.800
3.249,36.300,41.800,38.800,47.800
3.250,43.600,35.600,29.800,41.100
3.251,50.700,27.800,17.900,31.500
3.252,56.900,18.600,3.100,19.000
3.253,62.100,7.900,-14.300,3.900
3.254,66.300,-4.500,-33.500,-13.200
3.255,70.000,-19.200,-53.300,-31.400
3.256,73.600,-36.700,-72.200,-49.500
3.257,77.200,-57.300,-88.800,-66.600
3.258,80.200,-80.900,-102.600,-82.300
3.259,81.500,-106.900,-113.300,-96.900
3.260,79.900,-134.100,-121.300,-110.800
3.261,74.600,-161.200,-127.300,-124.700
3.262,65.200,-187.100,-131.700,-138.700
3.263,52.900,-211.200,-135.300,-152.600
3.264,39.900,-233.100,-138.700,-166.100
3.265,28.700,-253.000,-142.600,-178.700
3.266,21.400,-270.500,-147.100,-190.000
3.267,18.400,-283.700,-151.600,-198.800
3.268,18.100,-,-154.300,-203.300
3.269,17.000,-283.500,-152.500,-201.100
3.270,11.700,-261.800,-143.600,-189.900
3.271,-0.500,-223.300,-126.100,-169.000
3.272,-19.600,-170.500,-100.600,-139.900
3.273,-43.100,-109.200,-69.800,-105.700
3.274,-67.100,-47.200,-38.000,-70.700
3.275,-87.700,8.700,-9.100,-38.600
3.276,-102.100,53.600,14.200,-11.700
3.277,-109.100,86.000,30.700,9.100
3.278,-109.300,106.500,41.000,23.800
3.279,-103.900,117.400,46.200,33.500
3.280,-94.500,121.200,47.400,39.200
3.281,-82.500,120.100,45.900,42.100
3.282,-69.100,115.900,42.300,42.900
3.283,-55.400,109.700,37.400,42.300
3.284,-42.200,102.300,32.000,40.600
3.285,-30.100,94.300,26.400,38.100
3.286,-19.800,85.700,21.400,35.100
3.287,-11.500,77.100,17.000,32.000
3.288,-5.400,68.400,13.400,28.800
3.289,-1.300,59.900,10.700,25.800
3.290,1.000,51.900,8.900,22.800
3.291,1.800,44.500,7.900,19.900
3.292,1.700,37.800,7.600,17.300
3.293,1.100,31.700,7.800,15.100
3.294,0.200,26.400,8.200,13.200
3.295,-0.600,21.700,8.600,11.700
3.296,-1.200,17.600,8.900,10.400
3.297,-1.600,14.100,9.300,9.300
3.298,-1.700,11.200,9.700,8.400
3.299,-1.600,9.000,10.000,7.700
3.300,-1.400,7.300,10.100,7.200
3.301,-1.100,6.000,10.000,6.700
3.302,-0.800,4.800,9.700,6.400
3.303,-0.600,3.700,9.400,6.100
3.304,-0.500,2.700,9.100,6.000
3.305,-0.400,1.800,8.900,5.900
3.306,-0.300,1.200,8.600,5.900
3.307,-0.300,0.900,8.200,5.900
3.308,-0.200,0.700,7.800,5.800
3.309,-0.300,0.700,7.400,5.600
3.310,-0.300,0.500,6.900,5.300
3.311,-0.400,0.300,6.500,4.900
3.312,-0.600,0.100,6.100,4.500
3.313,-0.900,-0.200,5.800,4.000
3.314,-1.100,-0.300,5.600,3.500
3.315,-1.200,-0.500,5.400,2.900
3.316,-1.100,-0.600,5.300,2.300
3.317,-0.900,-0.700,5.200,1.800
3.318,-0.600,-0.700,5.300,1.400
3.319,-0.500,-0.500,5.500,1.200
3.320,-0.400,-0.100,5.600,1.000
3.321,-0.400,0.400,5.700,1.100
3.322,-0.300,0.900,5.600,1.300
3.323,-0.200,1.500,5.500,2.000
3.324,-0.100,2.000,5.400,2.900
3.325,-0.100,2.700,5.600,4.100
3.326,-0.100,3.400,5.700,5.200
3.327,-0.200,4.300,5.600,6.300
3.328,-0.200,5.300,5.400,7.500
3.329,-0.200,6.100,4.900,8.700
3.330,-0.200,6.800,4.600,9.800
3.331,-0.300,7.300,4.400,10.400
3.332,-0.300,7.700,4.400,10.600
3.333,-0.400,7.900,4.400,10.700
3.334,-0.400,8.000,4.200,10.700
3.335,-0.400,8.000,4.100,10.600
3.336,-0.400,7.600,4.100,10.100
3.337,-0.400,7.000,4.400,8.900
3.338,-0.500,6.300,4.800,7.700
3.339,-0.600,5.600,5.200,7.000
3.340,-0.500,5.000,5.400,7.300
3.341,-0.400,4.400,5.500,7.900
3.342,-0.200,3.700,5.600,8.000
3.343,-0.100,2.600,5.800,6.800
3.344,0.000,1.400,6.000,4.600
3.345,0.000,0.200,6.100,2.600
3.346,0.000,-0.700,6.200,1.500
3.347,0.100,-1.200,6.200,1.400
3.348,0.200,-1.700,6.100,1.800
3.349,0.300,-2.100,6.000,2.000
3.350,0.300,-2.400,5.800,1.900
3.351,0.400,-2.600,5.600,2.000
3.352,0.400,-2.400,5.300,2.600
3.353,0.600,-1.800,5.000,3.700
3.354,0.800,-0.900,4.600,4.900
3.355,1.000,0.000,4.400,6.000
3.356,1.100,1.000,4.200,6.900
3.357,1.000,1.900,4.100,7.900
3.358,0.900,2.700,4.100,8.900
3.359,0.900,3.300,4.100,9.900
3.360,1.100,3.700,4.100,10.600
3.361,1.300,3.700,4.200,11.000
3.362,1.200,3.500,4.400,11.100
3.363,0.900,3.200,4.500,10.900
3.364,0.400,3.000,4.600,10.600
3.365,0.100,2.700,4.700,10.100
3.366,-0.100,2.300,4.700,9.300
3.367,-0.100,1.900,4.600,8.400
3.368,-0.200,1.500,4.600,7.300
3.369,-0.400,1.100,4.600,6.200
3.370,-0.700,0.700,4.700,5.100
3.371,-0.700,0.400,4.700,4.200
3.372,-0.400,0.100,4.600,3.600
3.373,0.000,-0.200,4.400,3.000
3.374,0.400,-0.300,4.200,2.600
3.375,0.600,-0.400,4.100,2.200
3.376,0.800,-0.600,4.100,2.000
3.377,1.000,-0.700,4.100,2.000
3.378,1.300,-0.900,4.100,2.200
3.379,1.600,-1.000,4.100,2.600
3.380,1.700,-1.100,4.200,3.100
3.381,1.800,-1.100,4.400,3.600
3.382,1.800,-1.100,4.500,4.100
3.383,1.900,-1.100,4.500,4.500
3.384,2.000,-1.300,4.400,4.700
3.385,2.100,-1.600,4.100,4.900
3.386,2.100,-1.800,3.900,5.000
3.387,2.000,-1.800,3.700,5.200
3.388,1.900,-1.700,3.500,5.300
3.389,1.800,-1.500,3.400,5.400
3.390,1.800,-1.200,3.300,5.400
3.391,1.700,-1.000,3.100,5.300
3.392,1.700,-0.800,3.000,5.200
3.393,1.600,-0.600,2.900,5.100
3.394,1.500,-0.300,2.800,4.900
3.395,1.400,0.100,2.700,4.800
3.396,1.500,0.400,2.600,4.600
3.397,1.600,0.700,2.600,4.500
3.398,1.700,0.800,2.700,4.300
3.399,1.800,0.700,2.800,4.200
3.400,1.800,0.600,2.900,4.000
3.401,1.900,0.300,3.100,3.900
3.402,2.000,0.100,3.200,3.700
3.403,2.100,-0.100,3.300,3.600
3.404,2.200,-0.300,3.400,3.500
3.405,2.400,-0.400,3.500,3.500
3.406,2.500,-0.500,3.400,3.500
3.407,2.600,-0.500,3.400,3.500
3.408,2.700,-0.600,3.300,3.500
3.409,2.700,-0.800,3.200,3.600
3.410,2.800,-0.900,3.200,3.700
3.411,2.900,-1.100,3.200,3.900
3.412,3.100,-1.200,3.200,3.900
3.413,3.300,-1.300,3.100,3.700
3.414,3.500,-1.300,2.900,3.500
3.415,3.600,-1.400,2.800,3.200
3.416,3.500,-1.600,2.600,2.900
3.417,3.400,-2.000,2.600,2.700
3.418,3.200,-2.400,2.600,2.500
3.419,3.200,-2.800,2.600,2.300
3.420,3.400,-3.200,2.700,2.200
3.421,3.500,-3.500,2.700,2.200
3.422,3.600,-3.700,2.700,2.100
3.423,3.600,-4.000,2.700,2.100
3.424,3.400,-4.500,2.700,2.000
3.425,3.100,-5.100,2.700,1.800
3.426,2.900,-5.700,2.600,1.600
3.427,2.700,-6.300,2.400,1.500
3.428,2.600,-6.800,2.100,1.300
3.429,2.500,-7.300,1.600,1.100
3.430,2.600,-7.800,1.100,0.900
3.431,2.600,-8.200,0.700,0.800
3.432,2.600,-8.600,0.500,0.700
3.433,2.600,-9.000,0.400,0.400
3.434,2.600,-9.400,0.400,0.100
3.435,2.800,-9.900,0.300,-0.200
3.436,3.100,-10.400,0.200,-0.200
3.437,3.500,-11.000,-0.100,0.000
3.438,3.900,-11.600,-0.400,0.200
3.439,4.300,-12.200,-0.700,0.100
3.440,4.700,-12.900,-1.100,-0.400
3.441,5.100,-13.700,-1.400,-1.100
3.442,5.500,-14.500,-1.700,-1.400
3.443,5.900,-15.200,-2.000,-1.200
3.444,6.200,-15.900,-2.200,-0.500
3.445,6.400,-16.400,-2.500,0.000
3.446,6.600,-17.000,-2.900,0.200
3.447,6.900,-17.600,-3.300,-0.100
3.448,7.100,-18.300,-3.800,-0.500
3.449,7.300,-18.900,-4.300,-0.700
3.450,7.600,-19.500,-4.700,-0.900
3.451,8.000,-20.200,-5.200,-1.300
3.452,8.500,-21.100,-5.600,-2.200
3.453,9.200,-22.200,-6.100,-3.300
3.454,10.100,-23.300,-6.600,-4.400
3.455,10.900,-24.300,-7.100,-5.200
3.456,11.700,-25.200,-7.600,-6.000
3.457,12.400,-25.900,-8.000,-6.700
3.458,13.000,-26.500,-8.400,-7.600
3.459,13.500,-27.200,-8.800,-8.500
3.460,13.900,-27.800,-9.200,-9.400
3.461,14.100,-28.600,-9.600,-10.200
3.462,14.100,-29.300,-9.800,-10.800
3.463,14.000,-30.100,-9.900,-11.300
3.464,13.700,-30.900,-9.900,-11.800
3.465,13.400,-31.700,-9.900,-12.200
3.466,13.000,-32.500,-9.900,-12.600
3.467,12.600,-33.300,-9.900,-12.900
3.468,12.100,-33.900,-10.100,-13.200
3.469,11.700,-34.500,-10.200,-13.400
3.470,11.200,-35.000,-10.300,-13.600
3.471,10.700,-35.500,-10.400,-13.800
3.472,10.200,-36.000,-10.600,-14.100
3.473,9.700,-36.400,-10.800,-14.400
3.474,9.200,-36.800,-11.000,-14.700
3.475,8.600,-37.100,-11.300,-15.000
3.476,8.000,-37.400,-11.600,-15.000
3.477,7.300,-37.700,-11.900,-15.000
3.478,6.700,-38.000,-12.100,-15.000
3.479,6.100,-38.100,-12.300,-15.100
3.480,5.700,-38.000,-12.400,-15.200
3.481,5.500,-37.800,-12.400,-15.400
3.482,5.400,-37.500,-12.300,-15.400
3.483,5.500,-37.300,-12.200,-15.500
3.484,5.500,-37.200,-12.100,-15.500
3.485,5.600,-37.200,-12.100,-15.600
3.486,5.600,-37.200,-12.100,-15.600
3.487,5.700,-37.000,-12.000,-15.600
3.488,5.800,-36.700,-12.000,-15.500
3.489,5.900,-36.300,-11.900,-15.400
3.490,6.000,-36.100,-11.800,-15.300
3.491,5.900,-35.900,-11.500,-15.200
3.492,5.700,-35.900,-11.200,-15.200
3.493,5.300,-35.700,-10.800,-15.200
3.494,4.800,-35.400,-10.500,-15.100
3.495,4.300,-35.000,-10.200,-14.900
3.496,3.900,-34.600,-9.900,-14.600
3.497,3.400,-34.100,-9.600,-14.300
3.498,2.600,-33.600,-9.200,-14.100
3.499,1.700,-33.100,-8.700,-13.800
3.500,0.600,-32.400,-8.400,-13.600
3.501,-0.600,-31.600,-8.200,-13.400
3.502,-1.700,-30.900,-8.100,-13.100
3.503,-2.800,-30.100,-7.900,-12.800
3.504,-3.800,-29.300,-7.700,-12.500
3.505,-4.800,-28.500,-7.500,-12.100
3.506,-5.700,-27.800,-7.400,-11.600
3.507,-6.500,-27.200,-7.300,-10.900
3.508,-6.900,-26.800,-7.200,-10.300
3.509,-6.900,-26.300,-7.000,-9.600
3.510,-6.800,-25.500,-6.800,-9.000
3.511,-6.300,-24.500,-6.500,-8.500
3.512,-5.700,-23.400,-6.300,-8.000
3.513,-4.900,-22.200,-6.200,-7.400
3.514,-4.100,-20.900,-6.100,-6.800
3.515,-3.100,-19.400,-6.000,-6.200
3.516,-2.100,-17.500,-5.900,-5.700
3.517,-1.000,-15.500,-5.700,-5.300
3.518,0.200,-13.500,-5.600,-5.000
3.519,1.500,-11.600,-5.500,-4.600
3.520,2.500,-9.900,-5.300,-4.200
3.521,3.500,-8.300,-5.100,-3.800
3.522,4.300,-6.800,-4.900,-3.400
3.523,5.300,-5.400,-4.600,-3.100
3.524,6.400,-4.100,-4.300,-2.900
3.525,7.200,-3.100,-4.100,-2.700
3.526,7.600,-2.200,-3.900,-2.500
3.527,7.400,-1.400,-3.700,-2.200
3.528,6.800,-0.700,-3.400,-1.800
3.529,6.000,0.000,-3.100,-1.400
3.530,5.100,0.500,-2.700,-0.900
3.531,4.200,0.900,-2.500,-0.600
3.532,3.100,1.200,-2.400,-0.400
3.533,2.000,1.300,-2.500,-0.200
3.534,0.900,1.400,-2.600,-0.100
3.535,0.300,1.500,-2.600,0.100
3.536,0.200,1.600,-2.300,0.300
3.537,0.600,1.800,-1.700,0.600
3.538,1.200,2.100,-1.200,0.900
3.539,1.800,2.400,-0.800,1.100
3.540,2.500,2.500,-0.500,1.300
3.541,3.300,2.500,-0.300,1.600
3.542,4.100,2.500,0.000,1.800
3.543,4.900,2.700,0.300,2.100
3.544,5.400,3.000,0.500,2.300
3.545,5.800,3.400,0.700,2.600
3.546,5.800,3.700,0.800,2.700
3.547,5.500,3.800,0.800,2.800
3.548,5.000,3.900,0.800,3.000
3.549,4.300,4.000,0.800,3.300
3.550,3.600,4.200,0.900,3.600
3.551,2.800,4.500,0.900,3.800
3.552,2.000,4.700,0.900,3.800
3.553,1.000,4.900,0.900,3.800
3.554,-0.200,5.000,0.800,3.800
3.555,-1.200,5.200,0.800,3.900
3.556,-1.700,5.400,0.700,4.000
3.557,-1.500,5.800,0.700,4.200
3.558,-1.200,6.200,0.700,4.400
3.559,-1.300,6.500,0.800,4.500
3.560,-2.100,6.600,0.800,4.600
3.561,-2.800,6.600,0.800,4.600
3.562,-2.700,6.600,0.800,4.500
3.563,-1.300,6.800,0.800,4.400
3.564,1.100,7.000,0.900,4.200
3.565,3.300,7.200,0.900,4.200
3.566,4.600,7.200,0.900,4.100
3.567,4.900,7.000,1.000,4.000
3.568,4.900,6.500,1.000,3.800
3.569,5.000,6.000,1.000,3.500
3.570,5.200,5.400,1.000,3.200
3.571,5.100,5.000,1.000,2.900
3.572,4.400,4.700,1.000,2.700
3.573,3.400,4.600,1.000,2.600
3.574,2.500,4.500,1.100,2.600
3.575,1.900,4.500,1.100,2.600
3.576,1.600,4.600,1.100,2.500
3.577,1.600,4.600,0.900,2.500
3.578,1.700,4.700,0.600,2.300
3.579,2.300,5.000,0.100,2.000
3.580,3.500,5.300,-0.300,1.600
3.581,5.100,5.700,-0.800,1.100
3.582,6.800,6.100,-1.200,0.600
3.583,8.500,6.400,-1.600,0.300
3.584,10.100,6.600,-2.100,0.200
3.585,11.500,6.700,-2.700,0.200
3.586,12.700,6.800,-3.100,0.200
3.587,13.500,6.800,-3.400,0.300
3.588,13.900,6.800,-3.500,0.200
3.589,13.800,6.700,-3.400,0.200
3.590,13.400,6.400,-3.200,0.200
3.591,12.300,6.100,-2.900,0.400
3.592,10.700,5.700,-2.500,0.900
3.593,8.400,5.400,-1.900,1.800
3.594,5.600,5.400,-1.100,2.900
3.595,2.900,5.700,-0.300,4.000
3.596,0.400,6.200,0.300,5.000
3.597,-1.300,6.700,0.800,5.600
3.598,-2.400,7.000,1.000,5.900
3.599,-2.800,7.000,1.000,6.100
3.600,-2.700,6.700,1.100,6.000
3.601,-2.300,6.100,1.200,5.900
3.602,-1.800,5.600,1.200,5.600
3.603,-1.200,5.200,1.200,5.300
3.604,-0.500,5.000,1.100,5.000
3.605,0.200,5.000,1.000,4.700
3.606,0.700,4.900,0.800,4.400
3.607,1.000,4.700,0.800,4.100
3.608,1.100,4.400,0.900,3.800
3.609,0.800,3.900,1.000,3.500
3.610,0.400,3.500,1.100,3.300
3.611,0.000,3.200,1.100,3.200
3.612,-0.500,2.800,1.000,3.200
3.613,-0.900,2.500,0.800,3.200
3.614,-1.300,2.100,0.800,3.300
3.615,-1.700,1.800,0.700,3.300
3.616,-2.100,1.600,0.500,3.300
3.617,-2.300,1.600,0.300,3.200
3.618,-2.300,1.600,0.000,3.100
3.619,-2.100,1.500,-0.300,3.100
3.620,-1.600,1.400,-0.400,3.200
3.621,-1.100,1.300,-0.400,3.500
3.622,-0.600,1.100,-0.200,3.800
3.623,-0.100,0.900,-0.100,3.900
3.624,0.500,0.600,-0.100,3.800
3.625,1.100,0.300,-0.100,3.600
3.626,1.600,0.000,-0.200,3.300
3.627,2.200,-0.300,-0.100,3.100
3.628,2.600,-0.300,0.100,2.800
3.629,2.900,-0.200,0.300,2.700
3.630,3.200,-0.100,0.600,2.500
3.631,3.400,0.100,0.700,2.300
3.632,3.400,0.300,0.700,2.300
3.633,3.400,0.500,0.700,2.300
3.634,3.300,0.900,0.600,2.300
3.635,3.100,1.400,0.400,2.200
3.636,2.800,2.000,0.300,2.100
3.637,2.500,2.500,0.100,2.000
3.638,2.100,2.800,0.000,1.900
3.639,1.600,3.000,-0.200,1.900
3.640,1.100,3.100,-0.300,1.900
3.641,0.600,3.200,-0.400,1.900
3.642,0.100,3.300,-0.500,1.900
3.643,-0.600,3.300,-0.600,1.800
3.644,-1.300,3.100,-0.600,1.800
3.645,-1.900,2.700,-0.300,1.800
3.646,-2.300,2.300,-0.100,1.800
3.647,-2.600,2.000,0.100,1.900
3.648,-2.900,1.800,0.200,1.900
3.649,-3.100,1.600,0.300,1.800
3.650,-3.200,1.400,0.300,1.700
3.651,-3.100,1.200,0.400,1.600
3.652,-2.800,1.200,0.500,1.500
3.653,-2.500,1.300,0.600,1.500
3.654,-2.100,1.500,0.500,1.600
3.655,-1.500,1.700,0.500,1.600
3.656,-0.500,1.800,0.500,1.500
3.657,0.900,1.600,0.600,1.300
3.658,2.200,1.400,0.600,1.100
3.659,2.900,1.200,0.500,1.000
3.660,2.800,1.300,0.500,0.800
3.661,2.200,1.300,0.500,0.800
3.662,2.100,1.200,0.600,0.700
3.663,2.800,0.700,0.700,0.600
3.664,4.200,-0.200,0.700,0.400
3.665,5.400,-1.000,0.700,0.300
3.666,5.800,-1.700,0.700,0.300
3.667,5.200,-2.300,0.700,0.200
3.668,4.200,-3.000,0.600,0.200
3.669,3.300,-3.700,0.400,0.000
3.670,2.700,-4.500,0.200,-0.200
3.671,2.200,-5.200,-0.100,-0.400
3.672,1.600,-5.500,-0.300,-0.500
3.673,1.100,-5.500,-0.400,-0.600
3.674,0.700,-5.200,-0.500,-0.600
3.675,0.700,-4.800,-0.600,-0.600
3.676,1.000,-4.200,-0.700,-0.700
3.677,1.300,-3.400,-0.800,-0.800
3.678,1.800,-2.200,-0.900,-1.000
3.679,2.500,-0.700,-1.000,-1.200
3.680,3.300,0.900,-1.000,-1.200
3.681,4.300,2.300,-1.000,-1.200
3.682,5.100,3.400,-1.100,-1.100
3.683,5.700,4.100,-1.200,-1.200
3.684,6.000,4.500,-1.300,-1.300
3.685,6.400,4.800,-1.400,-1.500
3.686,6.800,4.900,-1.500,-1.600
3.687,7.200,4.900,-1.500,-1.700
3.688,7.400,4.700,-1.500,-1.800
3.689,7.500,4.400,-1.500,-1.800
3.690,7.500,3.800,-1.500,-1.800
3.691,7.400,3.200,-1.600,-1.800
3.692,7.300,2.700,-1.600,-1.900
