'Elapsed time','AECG1','AECG2','AECG3','AECG4'
'seconds','uV','uV','uV','uV'
0.000,0.500,-1.600,-9.800,-15.000
0.001,0.200,-1.500,-10.600,-15.600
0.002,-0.200,-1.900,-11.600,-16.100
0.003,-0.400,-2.600,-12.700,-16.400
0.004,-0.300,-3.300,-13.400,-16.500
0.005,0.000,-3.800,-13.800,-16.500
0.006,0.200,-4.300,-13.800,-16.500
0.007,0.100,-4.900,-13.500,-16.700
0.008,-0.300,-5.600,-13.000,-17.000
0.009,-0.900,-6.500,-12.400,-17.300
0.010,-1.200,-7.100,-11.600,-17.600
0.011,-1.200,-7.100,-10.900,-17.700
0.012,-0.800,-6.400,-10.300,-17.500
0.013,-0.100,-5.000,-10.100,-16.900
0.014,0.600,-3.200,-10.400,-16.100
0.015,1.200,-1.300,-11.100,-15.100
0.016,1.700,0.400,-11.800,-14.200
0.017,2.200,2.000,-12.300,-13.600
0.018,2.800,3.500,-12.200,-13.200
0.019,3.400,5.000,-11.700,-13.000
0.020,4.000,6.100,-11.000,-12.800
0.021,4.400,6.800,-10.400,-12.700
0.022,4.400,6.800,-10.200,-12.700
0.023,4.000,6.500,-10.300,-13.000
0.024,3.500,6.000,-10.500,-13.400
0.025,3.200,5.800,-10.500,-14.000
0.026,3.200,5.900,-10.200,-14.700
0.027,3.600,6.300,-10.000,-15.300
0.028,4.100,6.500,-10.100,-15.600
0.029,4.500,6.300,-10.500,-15.700
0.030,4.400,5.500,-11.100,-15.600
0.031,4.100,4.200,-11.600,-15.100
0.032,3.500,2.900,-11.600,-14.500
0.033,3.200,1.800,-11.100,-13.700
0.034,3.100,1.100,-10.300,-12.900
0.035,3.500,0.700,-9.500,-12.200
0.036,4.200,0.500,-9.100,-11.800
0.037,4.900,0.200,-9.100,-11.700
0.038,5.400,-0.200,-9.600,-12.000
0.039,5.500,-0.700,-10.400,-12.400
0.040,5.100,-1.100,-11.400,-13.000
0.041,4.500,-1.300,-12.300,-13.400
0.042,3.900,-1.200,-12.800,-13.600
0.043,3.500,-0.900,-12.700,-13.500
0.044,3.600,-0.800,-12.100,-13.200
0.045,3.800,-1.000,-11.300,-12.900
0.046,4.000,-1.700,-10.800,-13.000
0.047,3.800,-3.000,-11.100,-13.500
0.048,3.100,-4.400,-12.000,-14.400
0.049,2.200,-5.600,-13.100,-15.300
0.050,1.700,-6.100,-13.800,-15.900
0.051,1.800,-6.000,-13.600,-15.900
0.052,2.800,-5.300,-12.700,-15.300
0.053,4.200,-4.500,-11.500,-14.600
0.054,5.300,-4.000,-10.700,-14.200
0.055,5.700,-4.000,-10.500,-14.400
0.056,5.400,-4.600,-10.800,-15.000
0.057,4.600,-5.400,-11.100,-15.700
0.058,3.900,-6.200,-10.900,-16.000
0.059,3.900,-6.600,-10.200,-15.700
0.060,4.500,-6.500,-9.400,-15.200
0.061,5.300,-6.200,-9.000,-14.700
0.062,5.800,-5.900,-9.400,-14.600
0.063,5.700,-5.800,-10.500,-14.800
0.064,5.000,-6.000,-11.800,-15.000
0.065,4.100,-6.400,-12.600,-15.000
0.066,3.500,-6.500,-12.600,-14.500
0.067,3.700,-6.400,-11.900,-13.700
0.068,4.400,-6.100,-11.000,-13.100
0.069,5.200,-6.100,-10.500,-12.900
0.070,5.500,-6.500,-10.700,-13.200
0.071,5.100,-7.400,-11.600,-13.900
0.072,4.400,-8.500,-12.600,-14.400
0.073,3.800,-9.000,-13.100,-14.600
0.074,4.100,-8.300,-12.900,-14.200
0.075,5.400,-6.500,-11.800,-13.300
0.076,7.400,-4.000,-10.200,-12.200
0.077,9.400,-1.700,-8.300,-11.100
0.078,10.900,-0.500,-6.600,-10.100
0.079,11.600,-0.500,-5.300,-9.200
0.080,11.600,-1.400,-4.300,-8.500
0.081,11.200,-2.600,-3.600,-8.100
0.082,11.000,-3.600,-3.000,-8.000
0.083,11.300,-4.300,-2.300,-8.000
0.084,12.000,-4.700,-1.300,-7.900
0.085,13.200,-5.200,0.200,-7.600
0.086,14.600,-5.600,2.200,-6.800
0.087,16.100,-5.700,4.300,-5.600
0.088,17.300,-5.100,6.200,-4.200
0.089,18.300,-3.400,7.800,-2.700
0.090,18.800,-0.900,9.000,-1.100
0.091,19.000,2.000,10.300,0.900
0.092,18.900,4.800,11.800,3.200
0.093,18.600,6.900,13.400,5.900
0.094,17.900,8.000,14.900,8.600
0.095,16.600,8.100,15.700,11.000
0.096,14.200,7.500,15.600,13.000
0.097,10.600,6.600,14.700,14.600
0.098,6.000,5.700,13.400,16.200
0.099,0.700,4.900,12.300,18.100
0.100,-4.800,4.200,11.500,20.400
0.101,-10.100,3.400,11.100,22.700
0.102,-15.000,2.300,10.600,24.600
0.103,-19.600,0.800,9.800,25.700
0.104,-24.200,-1.100,8.500,26.100
0.105,-29.000,-3.500,6.800,25.700
0.106,-34.200,-6.200,4.800,24.800
0.107,-39.800,-9.100,2.600,23.600
0.108,-45.800,-12.300,0.100,22.100
0.109,-51.900,-15.500,-2.600,20.400
0.110,-57.400,-18.200,-5.500,18.800
0.111,-62.000,-20.100,-8.400,17.200
0.112,-65.300,-21.100,-10.900,15.800
0.113,-67.300,-21.400,-12.800,14.700
0.114,-68.400,-21.400,-13.900,13.500
0.115,-69.100,-21.800,-14.100,12.300
0.116,-69.700,-22.600,-13.500,11.200
0.117,-70.100,-23.700,-12.200,10.400
0.118,-70.000,-24.300,-10.700,9.900
0.119,-69.000,-24.000,-9.500,9.600
0.120,-66.900,-22.600,-9.000,9.000
0.121,-64.000,-20.700,-9.400,7.400
0.122,-60.300,-19.100,-10.500,4.300
0.123,-56.300,-18.200,-12.100,-0.200
0.124,-51.900,-18.400,-13.800,-5.500
0.125,-47.100,-19.200,-15.400,-11.000
0.126,-41.900,-19.900,-17.000,-16.100
0.127,-36.500,-20.100,-18.700,-20.600
0.128,-31.400,-19.600,-20.400,-24.500
0.129,-26.900,-18.600,-22.100,-27.900
0.130,-23.400,-17.600,-23.500,-30.900
0.131,-20.700,-16.900,-24.300,-33.200
0.132,-18.600,-16.800,-24.700,-34.600
0.133,-16.700,-16.900,-24.700,-35.100
0.134,-14.900,-17.100,-24.700,-35.100
0.135,-13.200,-17.100,-24.900,-34.800
0.136,-11.700,-16.800,-25.200,-34.700
0.137,-10.500,-16.400,-25.600,-35.200
0.138,-9.600,-16.000,-26.100,-36.100
0.139,-8.800,-15.700,-26.500,-37.400
0.140,-8.000,-15.600,-27.000,-38.600
0.141,-7.300,-15.700,-27.600,-39.700
0.142,-6.500,-16.000,-28.200,-40.400
0.143,-5.900,-16.200,-28.400,-40.600
0.144,-5.300,-16.200,-28.100,-40.200
0.145,-4.600,-15.900,-27.100,-39.400
0.146,-3.800,-15.500,-25.600,-38.100
0.147,-3.100,-14.900,-24.000,-36.500
0.148,-2.600,-14.200,-22.500,-34.800
0.149,-2.700,-13.600,-21.500,-33.100
0.150,-3.300,-12.800,-20.800,-31.600
0.151,-4.100,-11.900,-20.100,-30.300
0.152,-4.700,-10.600,-19.200,-29.400
0.153,-4.800,-8.900,-17.900,-28.600
0.154,-4.400,-7.100,-16.200,-27.700
0.155,-3.800,-5.500,-14.500,-26.600
0.156,-3.400,-4.500,-12.900,-25.000
0.157,-3.300,-4.300,-11.700,-23.300
0.158,-3.200,-4.800,-10.800,-21.600
0.159,-2.800,-5.600,-10.000,-20.000
0.160,-1.900,-6.400,-9.100,-18.700
0.161,-0.500,-6.600,-8.200,-17.500
0.162,1.000,-6.100,-7.400,-16.200
0.163,2.100,-4.900,-7.000,-15.000
0.164,2.600,-3.400,-7.000,-13.900
0.165,2.600,-2.100,-7.400,-13.200
0.166,2.500,-1.100,-7.700,-13.000
0.167,2.500,-0.400,-7.500,-13.200
0.168,2.800,0.000,-6.600,-13.500
0.169,3.200,0.300,-5.300,-13.600
0.170,3.300,0.300,-4.300,-13.700
0.171,2.800,-0.100,-4.000,-13.800
0.172,1.800,-1.500,-4.800,-14.400
0.173,0.500,-3.900,-6.300,-15.600
0.174,-0.900,-6.900,-8.200,-17.300
0.175,-1.800,-9.800,-9.700,-19.000
0.176,-2.100,-11.800,-10.600,-20.100
0.177,-1.900,-12.500,-10.800,-20.400
0.178,-1.400,-11.800,-10.600,-19.900
0.179,-1.000,-10.400,-10.200,-18.900
0.180,-0.900,-9.200,-9.700,-18.000
0.181,-1.200,-8.800,-9.200,-17.600
0.182,-1.900,-9.400,-8.600,-17.700
0.183,-2.800,-10.500,-8.100,-18.100
0.184,-3.500,-11.500,-7.800,-18.400
0.185,-4.000,-12.000,-8.000,-18.700
0.186,-4.200,-11.900,-8.600,-18.700
0.187,-4.300,-11.500,-9.400,-18.800
0.188,-4.600,-11.000,-10.300,-18.800
0.189,-5.000,-10.800,-11.000,-18.800
0.190,-5.500,-10.800,-11.400,-18.800
0.191,-5.900,-10.700,-11.600,-18.500
0.192,-6.000,-10.300,-11.400,-18.000
0.193,-6.000,-9.500,-10.800,-17.400
0.194,-5.800,-8.400,-10.000,-16.900
0.195,-5.700,-7.500,-9.000,-16.800
0.196,-5.800,-6.800,-8.200,-17.000
0.197,-6.000,-6.500,-8.000,-17.500
0.198,-6.000,-6.300,-8.300,-18.000
0.199,-6.000,-5.700,-9.000,-18.200
0.200,-5.800,-4.600,-9.600,-17.900
0.201,-5.600,-2.800,-9.600,-17.200
0.202,-5.600,-1.000,-9.100,-16.400
0.203,-5.700,0.400,-8.400,-15.900
0.204,-5.800,0.700,-8.000,-15.900
0.205,-5.700,-0.100,-8.300,-16.400
0.206,-5.600,-1.800,-9.300,-17.100
0.207,-5.500,-4.000,-10.500,-17.900
0.208,-5.600,-6.000,-11.500,-18.600
0.209,-6.300,-7.700,-12.100,-19.200
0.210,-7.500,-8.800,-12.300,-20.000
0.211,-8.800,-9.600,-12.300,-21.000
0.212,-9.800,-10.100,-12.300,-22.100
0.213,-10.200,-10.500,-12.300,-23.000
0.214,-9.900,-10.800,-12.200,-23.300
0.215,-9.100,-10.900,-11.800,-23.000
0.216,-8.400,-10.700,-11.100,-22.300
0.217,-7.900,-10.300,-10.200,-21.400
0.218,-7.700,-9.700,-9.300,-20.500
0.219,-7.700,-9.000,-8.400,-19.800
0.220,-7.700,-8.500,-7.700,-19.100
0.221,-7.500,-8.300,-7.300,-18.300
0.222,-7.200,-8.500,-7.100,-17.400
0.223,-7.100,-8.500,-6.900,-16.000
0.224,-6.900,-8.000,-6.200,-13.800
0.225,-6.300,-6.200,-4.600,-10.500
0.226,-4.800,-3.000,-1.500,-5.900
0.227,-2.000,1.200,3.000,-0.300
0.228,1.700,5.600,7.900,5.400
0.229,5.400,9.000,12.100,10.100
0.230,8.100,10.600,14.400,12.900
0.231,9.000,10.100,14.200,13.300
0.232,8.000,8.200,11.800,11.600
0.233,5.700,5.500,8.300,8.800
0.234,3.000,2.600,4.900,5.800
0.235,0.500,-0.100,2.000,2.900
0.236,-1.500,-3.100,-0.400,-0.200
0.237,-3.500,-6.500,-2.900,-3.900
0.238,-5.900,-10.600,-6.000,-8.700
0.239,-9.000,-15.000,-9.600,-14.600
0.240,-12.500,-19.200,-13.300,-20.900
0.241,-15.800,-22.800,-16.400,-26.600
0.242,-18.200,-25.300,-18.400,-30.800
0.243,-19.600,-26.700,-19.200,-33.000
0.244,-19.800,-27.100,-19.200,-33.400
0.245,-19.200,-26.700,-18.600,-32.400
0.246,-18.300,-25.700,-17.700,-30.600
0.247,-17.400,-24.300,-16.600,-28.500
0.248,-16.700,-22.800,-15.400,-26.600
0.249,-16.200,-21.300,-14.000,-25.000
0.250,-15.800,-20.000,-12.600,-23.700
0.251,-15.400,-18.800,-11.600,-22.500
0.252,-14.900,-17.800,-10.900,-21.200
0.253,-14.100,-16.600,-10.500,-19.800
0.254,-13.100,-15.200,-10.200,-18.200
0.255,-12.000,-13.900,-9.800,-16.800
0.256,-11.000,-12.700,-9.100,-15.700
0.257,-10.100,-11.800,-8.200,-15.100
0.258,-9.400,-11.400,-7.500,-15.000
0.259,-8.800,-11.400,-6.900,-15.100
0.260,-8.200,-11.700,-6.600,-15.300
0.261,-7.700,-12.300,-6.500,-15.300
0.262,-7.500,-13.000,-6.300,-15.200
0.263,-7.800,-14.100,-6.200,-15.200
0.264,-8.900,-15.400,-6.200,-15.400
0.265,-10.500,-16.800,-6.500,-15.900
0.266,-12.400,-18.100,-7.200,-16.700
0.267,-14.100,-19.100,-8.300,-17.500
0.268,-15.200,-19.500,-9.300,-18.200
0.269,-15.400,-19.600,-10.000,-18.500
0.270,-15.000,-19.600,-10.100,-18.500
0.271,-14.400,-19.700,-9.600,-18.400
0.272,-14.000,-20.200,-8.800,-18.200
0.273,-13.900,-20.800,-8.100,-18.000
0.274,-14.200,-21.400,-7.900,-17.800
0.275,-14.600,-21.800,-8.200,-17.800
0.276,-15.100,-22.000,-9.100,-17.700
0.277,-15.600,-22.100,-10.100,-17.500
0.278,-16.100,-22.400,-11.100,-17.300
0.279,-16.500,-22.700,-11.800,-17.000
0.280,-16.900,-23.000,-12.100,-16.600
0.281,-17.000,-23.100,-12.000,-15.900
0.282,-16.900,-22.900,-11.700,-15.200
0.283,-16.800,-22.500,-11.400,-14.600
0.284,-16.800,-22.300,-10.900,-14.300
0.285,-17.200,-22.100,-10.400,-14.400
0.286,-17.900,-21.700,-9.900,-14.600
0.287,-18.600,-20.900,-9.400,-14.800
0.288,-19.100,-19.500,-9.100,-14.900
0.289,-19.300,-17.700,-8.900,-14.800
0.290,-19.300,-16.100,-9.000,-14.600
0.291,-19.300,-15.100,-9.200,-14.600
0.292,-19.700,-14.800,-9.500,-14.800
0.293,-20.400,-15.100,-9.800,-15.000
0.294,-21.300,-15.400,-10.100,-15.100
0.295,-22.100,-15.600,-10.500,-14.900
0.296,-22.400,-15.500,-10.800,-14.400
0.297,-22.200,-15.300,-11.000,-13.800
0.298,-21.600,-15.400,-11.100,-13.300
0.299,-21.100,-15.900,-10.900,-13.100
0.300,-21.000,-16.700,-10.700,-13.100
0.301,-21.500,-17.500,-10.600,-13.200
0.302,-22.300,-18.200,-10.500,-13.200
0.303,-23.100,-19.100,-10.400,-12.800
0.304,-23.500,-20.400,-10.100,-12.200
0.305,-23.400,-22.400,-9.400,-11.400
0.306,-22.900,-25.100,-8.500,-10.700
0.307,-22.600,-28.300,-7.600,-10.300
0.308,-22.800,-31.400,-7.100,-10.300
0.309,-23.600,-33.800,-7.200,-10.500
0.310,-24.600,-34.800,-7.800,-10.700
0.311,-25.300,-34.500,-8.700,-10.900
0.312,-25.500,-33.300,-9.200,-10.800
0.313,-25.000,-31.700,-9.000,-10.400
0.314,-24.300,-30.600,-8.200,-9.800
0.315,-24.000,-30.300,-6.900,-9.000
0.316,-24.300,-30.900,-5.700,-8.300
0.317,-25.200,-32.000,-5.000,-7.900
0.318,-26.300,-33.000,-5.000,-7.800
0.319,-27.200,-33.400,-5.500,-8.100
0.320,-27.600,-33.100,-6.000,-8.500
0.321,-27.500,-32.400,-6.300,-8.600
0.322,-27.000,-31.700,-6.000,-8.400
0.323,-26.500,-31.400,-5.400,-8.100
0.324,-26.300,-31.800,-4.700,-7.800
0.325,-26.600,-32.700,-4.200,-7.700
0.326,-27.300,-33.800,-4.100,-8.000
0.327,-27.900,-34.800,-4.300,-8.500
0.328,-28.300,-35.500,-4.700,-8.800
0.329,-28.400,-36.200,-5.100,-8.900
0.330,-28.300,-37.100,-5.500,-8.900
0.331,-28.100,-38.000,-5.900,-8.900
0.332,-28.100,-38.900,-6.400,-9.200
0.333,-28.400,-39.300,-6.800,-9.900
0.334,-28.900,-39.100,-7.100,-10.600
0.335,-29.400,-38.400,-7.200,-11.300
0.336,-29.800,-37.800,-7.300,-11.600
0.337,-30.100,-37.500,-7.600,-11.400
0.338,-30.300,-37.900,-8.000,-10.800
0.339,-30.500,-38.700,-8.400,-10.200
0.340,-30.600,-39.300,-8.700,-9.500
0.341,-30.600,-39.000,-8.800,-8.800
0.342,-30.300,-37.800,-8.500,-8.300
0.343,-29.800,-35.900,-7.900,-7.900
0.344,-29.200,-34.000,-7.300,-7.600
0.345,-28.600,-32.900,-6.600,-7.400
0.346,-28.200,-32.800,-5.900,-7.300
0.347,-28.100,-33.600,-5.400,-7.400
0.348,-28.200,-34.700,-5.000,-7.700
0.349,-28.400,-35.600,-5.000,-8.000
0.350,-28.300,-35.700,-5.100,-8.200
0.351,-28.000,-34.900,-5.400,-8.200
0.352,-27.300,-33.300,-5.500,-7.800
0.353,-26.500,-31.000,-5.500,-7.200
0.354,-25.800,-28.400,-5.100,-6.600
0.355,-25.400,-26.100,-4.700,-6.400
0.356,-25.400,-24.600,-4.300,-6.800
0.357,-25.800,-24.300,-4.200,-7.600
0.358,-26.300,-25.100,-4.500,-8.600
0.359,-26.700,-26.800,-5.100,-9.600
0.360,-26.800,-28.700,-5.900,-10.300
0.361,-26.500,-30.100,-6.800,-10.800
0.362,-25.900,-30.600,-7.300,-11.200
0.363,-25.300,-30.200,-7.300,-11.600
0.364,-24.900,-29.200,-7.000,-11.900
0.365,-24.600,-28.300,-6.300,-12.000
0.366,-24.400,-27.600,-5.800,-11.800
0.367,-24.300,-27.300,-5.700,-11.400
0.368,-24.100,-27.100,-6.000,-11.000
0.369,-24.000,-26.800,-6.400,-10.800
0.370,-23.800,-26.200,-6.900,-11.100
0.371,-23.400,-25.500,-7.000,-11.600
0.372,-22.900,-24.800,-6.900,-12.100
0.373,-22.200,-24.200,-6.700,-12.300
0.374,-21.300,-23.900,-6.700,-12.200
0.375,-20.300,-23.700,-6.800,-11.900
0.376,-19.400,-23.600,-6.800,-11.700
0.377,-18.700,-23.400,-6.700,-11.700
0.378,-18.300,-23.400,-6.500,-12.100
0.379,-17.900,-23.500,-6.100,-12.700
0.380,-17.600,-23.700,-5.800,-13.300
0.381,-17.300,-23.900,-5.800,-13.700
0.382,-16.800,-23.900,-5.900,-14.000
0.383,-16.300,-23.300,-6.000,-14.300
0.384,-15.900,-22.200,-6.000,-14.700
0.385,-15.600,-20.800,-5.700,-15.400
0.386,-15.500,-19.700,-5.200,-16.100
0.387,-15.600,-19.000,-4.600,-16.500
0.388,-15.600,-19.000,-4.200,-16.600
0.389,-15.400,-19.500,-3.900,-16.300
0.390,-14.900,-20.100,-4.000,-15.900
0.391,-14.200,-20.500,-4.300,-15.700
0.392,-13.400,-20.600,-4.700,-15.800
0.393,-12.500,-20.400,-5.000,-16.100
0.394,-11.800,-20.000,-4.900,-16.500
0.395,-11.200,-19.500,-4.400,-16.600
0.396,-10.600,-19.200,-3.600,-16.400
0.397,-10.000,-19.000,-2.700,-16.000
0.398,-9.400,-19.000,-2.200,-15.800
0.399,-8.800,-19.100,-2.300,-15.900
0.400,-8.300,-19.200,-2.900,-16.600
0.401,-7.900,-19.300,-3.900,-17.500
0.402,-7.600,-19.300,-4.700,-18.400
0.403,-7.300,-19.400,-5.100,-18.900
0.404,-7.100,-19.700,-5.300,-19.200
0.405,-7.100,-20.200,-5.300,-19.400
0.406,-7.300,-21.200,-5.500,-19.900
0.407,-7.800,-22.500,-6.000,-20.800
0.408,-8.500,-24.100,-6.500,-22.000
0.409,-9.200,-25.500,-6.900,-22.900
0.410,-9.600,-26.600,-6.700,-23.300
0.411,-9.700,-27.100,-6.000,-23.000
0.412,-9.600,-27.100,-4.900,-22.200
0.413,-9.200,-26.800,-3.900,-21.200
0.414,-8.800,-26.300,-3.500,-20.600
0.415,-8.300,-25.800,-3.900,-20.500
0.416,-7.900,-25.600,-5.000,-20.900
0.417,-7.500,-25.700,-6.300,-21.500
0.418,-7.200,-26.100,-7.200,-22.000
0.419,-7.100,-26.900,-7.500,-22.300
0.420,-7.100,-28.000,-7.200,-22.400
0.421,-7.100,-29.100,-6.600,-22.200
0.422,-7.100,-29.900,-6.100,-21.900
0.423,-6.900,-30.000,-6.000,-21.600
0.424,-6.600,-29.600,-6.500,-21.300
0.425,-6.500,-28.800,-7.300,-21.100
0.426,-6.600,-28.100,-8.000,-21.100
0.427,-7.000,-27.800,-8.500,-21.000
0.428,-7.400,-27.900,-8.600,-20.800
0.429,-7.600,-28.000,-8.200,-20.200
0.430,-7.100,-27.600,-7.600,-19.300
0.431,-5.900,-26.700,-6.900,-18.100
0.432,-4.500,-25.300,-6.200,-17.000
0.433,-3.200,-24.100,-5.700,-16.500
0.434,-2.500,-23.400,-5.400,-16.700
0.435,-2.500,-23.300,-5.500,-17.700
0.436,-3.000,-23.700,-5.800,-19.200
0.437,-3.500,-24.000,-6.300,-20.500
0.438,-3.700,-24.300,-7.200,-21.400
0.439,-3.800,-24.500,-8.100,-21.900
0.440,-4.000,-25.100,-9.100,-22.000
0.441,-4.700,-26.400,-9.800,-22.200
0.442,-5.900,-28.300,-10.000,-22.400
0.443,-7.200,-30.300,-9.800,-22.600
0.444,-8.300,-32.000,-9.300,-22.600
0.445,-8.800,-32.900,-8.700,-22.600
0.446,-8.700,-33.100,-8.400,-22.500
0.447,-8.400,-32.800,-8.700,-22.600
0.448,-8.400,-32.300,-9.400,-22.900
0.449,-8.700,-31.800,-10.200,-23.300
0.450,-9.300,-31.200,-10.600,-23.500
0.451,-9.600,-30.600,-10.300,-23.300
0.452,-9.600,-29.900,-9.600,-22.800
0.453,-9.300,-29.400,-8.800,-22.500
0.454,-9.000,-29.000,-8.500,-22.600
0.455,-9.100,-28.900,-8.900,-23.100
0.456,-9.600,-28.900,-9.800,-23.900
0.457,-10.400,-28.900,-10.800,-24.600
0.458,-10.900,-28.700,-11.100,-25.100
0.459,-10.800,-28.600,-10.700,-25.200
0.460,-10.200,-28.600,-9.700,-25.200
0.461,-9.400,-28.800,-8.600,-25.300
0.462,-8.800,-29.200,-7.800,-25.400
0.463,-8.600,-29.500,-7.800,-25.600
0.464,-9.000,-29.800,-8.400,-25.700
0.465,-9.700,-30.000,-9.400,-25.600
0.466,-10.300,-30.300,-10.300,-25.700
0.467,-10.700,-31.000,-11.000,-26.100
0.468,-11.000,-31.900,-11.500,-26.900
0.469,-11.200,-33.000,-11.700,-27.700
0.470,-11.600,-33.900,-11.700,-28.400
0.471,-11.900,-34.400,-11.600,-28.500
0.472,-12.000,-34.400,-11.400,-28.200
0.473,-11.800,-34.100,-11.000,-27.500
0.474,-11.100,-33.700,-10.800,-26.800
0.475,-10.300,-33.400,-10.700,-26.300
0.476,-9.700,-33.300,-10.900,-26.100
0.477,-9.400,-33.200,-11.300,-26.200
0.478,-9.500,-33.100,-11.700,-26.300
0.479,-9.900,-33.000,-11.800,-26.500
0.480,-10.200,-33.100,-11.700,-26.500
0.481,-10.500,-33.500,-11.500,-26.400
0.482,-10.700,-34.300,-11.300,-26.300
0.483,-10.900,-35.200,-11.500,-26.200
0.484,-11.100,-36.100,-11.800,-26.200
0.485,-11.400,-36.600,-12.100,-26.300
0.486,-11.500,-36.500,-12.200,-26.400
0.487,-11.300,-36.000,-11.900,-26.400
0.488,-10.800,-35.000,-11.300,-26.200
0.489,-10.000,-33.900,-10.700,-25.900
0.490,-9.000,-32.700,-10.300,-25.600
0.491,-8.200,-31.800,-10.100,-25.300
0.492,-7.500,-31.300,-10.000,-25.200
0.493,-7.100,-31.100,-9.900,-25.000
0.494,-7.100,-31.200,-9.600,-24.700
0.495,-7.300,-31.400,-9.000,-23.900
0.496,-7.600,-31.200,-8.300,-22.800
0.497,-7.600,-30.500,-7.500,-21.600
0.498,-7.300,-29.400,-6.900,-20.900
0.499,-6.500,-28.300,-6.700,-21.000
0.500,-5.700,-27.500,-6.800,-21.700
0.501,-5.100,-27.500,-7.400,-22.800
0.502,-5.000,-28.300,-8.200,-23.600
0.503,-5.400,-29.600,-9.000,-23.800
0.504,-5.900,-31.100,-9.400,-23.400
0.505,-6.100,-32.200,-9.400,-22.700
0.506,-5.700,-32.700,-9.000,-22.300
0.507,-4.700,-32.800,-8.600,-22.400
0.508,-3.700,-32.600,-8.200,-22.800
0.509,-3.000,-32.300,-8.100,-23.300
0.510,-2.900,-32.300,-8.100,-23.200
0.511,-3.400,-32.400,-8.100,-22.600
0.512,-4.200,-32.900,-8.100,-21.700
0.513,-5.200,-33.500,-8.100,-21.000
0.514,-6.200,-34.300,-8.300,-20.900
0.515,-7.100,-34.900,-8.900,-21.300
0.516,-7.900,-35.100,-9.700,-22.000
0.517,-8.400,-34.600,-10.300,-22.300
0.518,-8.400,-33.100,-10.500,-21.900
0.519,-7.900,-30.800,-9.900,-20.700
0.520,-6.900,-28.200,-8.600,-19.300
0.521,-5.700,-26.000,-7.100,-18.200
0.522,-4.500,-24.600,-5.700,-17.700
0.523,-3.600,-24.300,-4.900,-17.800
0.524,-3.100,-24.700,-4.900,-18.200
0.525,-2.800,-25.400,-5.400,-18.500
0.526,-2.600,-25.900,-6.100,-18.200
0.527,-2.600,-25.800,-6.900,-17.500
0.528,-2.700,-25.300,-7.400,-16.600
0.529,-2.800,-24.800,-7.600,-15.800
0.530,-3.000,-24.800,-7.600,-15.500
0.531,-3.400,-25.600,-7.600,-16.000
0.532,-4.000,-27.300,-7.800,-17.100
0.533,-5.000,-29.600,-8.200,-18.600
0.534,-6.200,-31.800,-8.700,-20.000
0.535,-7.400,-33.400,-9.400,-21.100
0.536,-8.200,-34.200,-9.800,-21.600
0.537,-8.400,-34.100,-10.100,-21.500
0.538,-7.900,-33.600,-10.200,-21.200
0.539,-7.100,-33.400,-10.200,-20.800
0.540,-6.700,-33.600,-10.200,-20.700
0.541,-6.800,-34.100,-10.400,-20.800
0.542,-7.600,-34.600,-10.600,-20.800
0.543,-8.600,-34.400,-10.600,-20.600
0.544,-9.200,-33.400,-10.100,-20.100
0.545,-8.800,-31.900,-9.300,-19.200
0.546,-7.700,-30.500,-8.200,-18.400
0.547,-6.300,-29.800,-7.200,-17.900
0.548,-5.400,-30.200,-6.700,-17.900
0.549,-5.300,-31.500,-6.600,-18.400
0.550,-6.300,-33.300,-7.000,-19.300
0.551,-7.800,-35.000,-7.600,-20.300
0.552,-9.400,-36.300,-8.200,-21.200
0.553,-10.500,-37.000,-8.900,-22.000
0.554,-10.900,-37.200,-9.400,-22.400
0.555,-10.700,-37.200,-9.900,-22.600
0.556,-10.000,-37.100,-10.400,-22.500
0.557,-9.200,-37.100,-10.800,-22.400
0.558,-8.500,-37.200,-11.100,-22.200
0.559,-8.200,-37.400,-11.400,-22.000
0.560,-8.300,-37.500,-11.700,-22.100
0.561,-8.800,-37.600,-12.100,-22.300
0.562,-9.500,-37.500,-12.400,-22.500
0.563,-10.000,-37.300,-12.400,-22.700
0.564,-10.200,-36.800,-12.000,-23.000
0.565,-9.800,-36.400,-11.100,-23.300
0.566,-9.300,-36.200,-10.300,-23.900
0.567,-8.800,-36.600,-9.800,-24.700
0.568,-8.700,-37.600,-9.900,-25.700
0.569,-9.100,-39.200,-10.600,-26.500
0.570,-9.700,-40.700,-11.300,-26.800
0.571,-10.200,-41.600,-11.500,-26.300
0.572,-10.300,-41.200,-10.700,-25.100
0.573,-9.900,-39.700,-9.100,-23.600
0.574,-9.200,-37.600,-7.200,-22.100
0.575,-8.400,-35.800,-5.500,-21.100
0.576,-7.700,-34.700,-4.700,-20.700
0.577,-7.300,-34.600,-4.500,-20.700
0.578,-7.100,-35.000,-4.900,-20.900
0.579,-7.000,-35.500,-5.500,-21.000
0.580,-7.000,-35.700,-6.000,-21.200
0.581,-7.200,-35.800,-6.500,-21.400
0.582,-7.700,-36.100,-7.100,-21.900
0.583,-8.300,-36.900,-8.000,-22.700
0.584,-9.000,-38.200,-9.100,-23.600
0.585,-9.300,-39.500,-10.300,-24.600
0.586,-9.300,-40.500,-11.300,-25.500
0.587,-9.000,-40.600,-12.100,-26.100
0.588,-8.700,-39.900,-12.400,-26.400
0.589,-8.600,-38.400,-12.600,-26.400
0.590,-8.800,-36.400,-12.600,-26.100
0.591,-9.400,-34.300,-12.600,-25.700
0.592,-10.000,-32.400,-12.600,-25.400
0.593,-10.600,-31.200,-12.500,-25.200
0.594,-10.900,-31.000,-12.200,-25.200
0.595,-11.100,-31.600,-11.700,-25.300
0.596,-11.400,-32.800,-10.900,-25.400
0.597,-11.700,-33.900,-10.200,-25.500
0.598,-12.000,-34.600,-9.500,-25.400
0.599,-12.000,-34.500,-9.100,-25.100
0.600,-11.700,-34.000,-8.700,-24.700
0.601,-11.000,-33.400,-8.400,-24.300
0.602,-10.300,-33.200,-8.100,-23.900
0.603,-9.600,-33.600,-7.900,-23.500
0.604,-9.300,-34.300,-7.900,-23.000
0.605,-9.100,-34.900,-8.200,-22.500
0.606,-9.000,-35.300,-8.900,-21.900
0.607,-8.700,-35.300,-9.800,-21.300
0.608,-8.300,-35.200,-10.400,-21.000
0.609,-7.800,-35.400,-10.700,-21.000
0.610,-7.400,-36.000,-10.600,-21.300
0.611,-7.300,-37.100,-10.200,-21.800
0.612,-7.400,-38.100,-9.700,-22.300
0.613,-7.700,-38.900,-9.100,-22.500
0.614,-7.900,-38.900,-8.500,-22.400
0.615,-7.900,-38.400,-7.800,-22.000
0.616,-7.700,-37.600,-7.100,-21.400
0.617,-7.400,-36.800,-6.600,-21.100
0.618,-7.100,-36.400,-6.400,-21.000
0.619,-6.600,-36.500,-6.700,-21.300
0.620,-6.100,-36.800,-7.300,-21.900
0.621,-5.600,-37.400,-8.100,-22.600
0.622,-5.100,-38.000,-9.000,-23.200
0.623,-4.900,-38.800,-10.000,-23.700
0.624,-4.900,-39.800,-10.900,-24.100
0.625,-5.200,-40.900,-11.900,-24.400
0.626,-5.900,-42.100,-12.800,-24.900
0.627,-6.500,-43.000,-13.500,-25.400
0.628,-7.100,-43.300,-13.700,-25.900
0.629,-7.400,-43.000,-13.500,-26.200
0.630,-7.500,-42.300,-12.900,-26.200
0.631,-7.300,-41.200,-12.000,-26.000
0.632,-7.100,-40.300,-11.300,-25.700
0.633,-6.900,-39.600,-10.800,-25.600
0.634,-6.800,-39.100,-10.700,-25.700
0.635,-6.800,-39.100,-10.700,-25.900
0.636,-6.900,-39.500,-10.700,-25.900
0.637,-7.000,-40.300,-10.400,-25.700
0.638,-7.000,-41.600,-9.900,-25.400
0.639,-7.100,-43.200,-9.200,-25.100
0.640,-7.200,-44.700,-8.600,-25.000
0.641,-7.400,-45.800,-8.400,-25.200
0.642,-7.700,-46.300,-8.400,-25.400
0.643,-7.800,-46.200,-8.600,-25.400
0.644,-7.800,-45.800,-8.600,-25.200
0.645,-7.600,-45.600,-8.200,-24.900
0.646,-7.400,-45.700,-7.700,-24.800
0.647,-7.300,-46.100,-7.200,-25.000
0.648,-7.500,-46.600,-7.100,-25.300
0.649,-8.000,-46.800,-7.700,-25.600
0.650,-8.800,-46.500,-8.800,-25.500
0.651,-9.600,-45.900,-10.200,-25.200
0.652,-10.300,-45.000,-11.400,-24.800
0.653,-10.900,-44.100,-12.000,-24.700
0.654,-11.200,-43.500,-11.900,-25.200
0.655,-11.300,-43.300,-11.400,-26.100
0.656,-11.300,-43.300,-10.700,-27.100
0.657,-11.100,-43.600,-10.200,-27.900
0.658,-10.900,-44.000,-9.900,-28.200
0.659,-10.500,-44.400,-9.800,-28.000
0.660,-10.000,-44.600,-9.500,-27.400
0.661,-9.200,-44.200,-8.900,-26.300
0.662,-8.100,-43.400,-7.900,-24.700
0.663,-6.900,-42.200,-6.900,-22.700
0.664,-5.700,-41.100,-6.400,-20.500
0.665,-4.900,-40.300,-6.400,-18.500
0.666,-4.500,-39.800,-6.800,-16.800
0.667,-4.200,-39.000,-7.000,-15.500
0.668,-3.400,-37.500,-6.400,-13.700
0.669,-1.600,-34.600,-4.500,-10.900
0.670,1.300,-30.500,-1.400,-6.700
0.671,4.900,-25.900,2.400,-1.300
0.672,8.500,-21.800,5.900,4.000
0.673,11.200,-19.500,8.200,8.000
0.674,12.200,-19.500,9.000,9.700
0.675,11.500,-21.600,8.300,8.800
0.676,9.600,-24.800,6.400,6.100
0.677,7.200,-28.100,4.000,2.700
0.678,4.900,-30.500,1.500,-0.700
0.679,2.900,-31.800,-0.800,-3.700
0.680,1.200,-32.600,-2.800,-6.800
0.681,-0.400,-34.000,-4.800,-10.800
0.682,-2.100,-36.900,-6.800,-15.900
0.683,-4.100,-41.200,-9.000,-22.000
0.684,-6.400,-46.300,-11.300,-28.300
0.685,-8.900,-50.800,-13.500,-33.600
0.686,-11.200,-53.800,-15.300,-37.100
0.687,-13.000,-54.600,-16.400,-38.400
0.688,-13.900,-53.700,-16.500,-37.900
0.689,-13.900,-51.900,-15.600,-36.100
0.690,-13.000,-50.100,-14.200,-33.700
0.691,-11.700,-48.700,-12.800,-31.300
0.692,-10.500,-47.600,-11.500,-29.200
0.693,-9.400,-46.600,-10.500,-27.300
0.694,-8.500,-45.400,-9.700,-25.700
0.695,-7.600,-43.900,-8.800,-24.100
0.696,-6.700,-42.400,-7.700,-22.700
0.697,-5.900,-41.100,-6.600,-21.300
0.698,-5.100,-40.100,-5.900,-20.100
0.699,-4.500,-39.200,-5.500,-19.300
0.700,-4.000,-38.000,-5.600,-18.600
0.701,-3.500,-36.500,-5.800,-18.100
0.702,-2.800,-34.500,-6.000,-17.700
0.703,-2.100,-32.500,-6.100,-17.100
0.704,-1.500,-31.100,-6.100,-16.600
0.705,-1.300,-30.400,-6.100,-16.200
0.706,-1.300,-30.700,-6.200,-16.000
0.707,-1.500,-31.600,-6.400,-16.300
0.708,-1.800,-33.000,-6.700,-16.800
0.709,-1.900,-34.600,-7.000,-17.500
0.710,-2.200,-36.200,-7.400,-18.300
0.711,-2.600,-37.900,-8.000,-18.800
0.712,-3.500,-39.700,-8.600,-19.100
0.713,-4.500,-41.500,-9.100,-19.200
0.714,-5.500,-42.900,-9.300,-19.300
0.715,-6.100,-43.900,-8.900,-19.400
0.716,-6.200,-44.200,-8.200,-19.700
0.717,-5.800,-44.000,-7.200,-19.900
0.718,-5.300,-43.600,-6.400,-19.900
0.719,-4.900,-43.100,-6.000,-19.700
0.720,-4.800,-42.800,-5.900,-19.300
0.721,-4.900,-42.700,-6.000,-19.000
0.722,-5.100,-42.800,-6.200,-19.200
0.723,-5.300,-43.000,-6.500,-20.000
0.724,-5.300,-43.200,-6.800,-21.000
0.725,-5.200,-43.300,-7.100,-21.900
0.726,-5.100,-43.400,-7.400,-22.200
0.727,-5.100,-43.400,-7.500,-21.900
0.728,-5.200,-43.300,-7.700,-21.300
0.729,-5.500,-43.200,-8.000,-20.800
0.730,-5.700,-43.300,-8.600,-20.900
0.731,-5.800,-43.500,-9.300,-21.300
0.732,-5.800,-44.100,-10.100,-21.800
0.733,-5.700,-44.800,-10.500,-22.000
0.734,-5.600,-45.300,-10.600,-21.800
0.735,-5.700,-45.600,-10.200,-21.300
0.736,-6.100,-45.300,-9.700,-20.800
0.737,-6.700,-44.400,-9.200,-20.600
0.738,-7.400,-43.200,-9.100,-20.700
0.739,-7.900,-41.800,-9.200,-20.800
0.740,-8.200,-40.400,-9.300,-20.800
0.741,-8.000,-39.100,-9.100,-20.600
0.742,-7.400,-38.000,-8.500,-20.300
0.743,-6.500,-37.100,-7.600,-20.000
0.744,-5.500,-36.600,-6.700,-19.600
0.745,-4.800,-36.300,-6.100,-19.200
0.746,-4.400,-36.400,-6.000,-18.700
0.747,-4.600,-36.800,-6.300,-18.200
0.748,-5.200,-37.400,-6.800,-17.900
0.749,-5.800,-38.000,-7.200,-17.800
0.750,-6.100,-38.700,-7.200,-18.000
0.751,-6.100,-39.600,-6.800,-18.300
0.752,-5.900,-40.600,-6.300,-18.500
0.753,-5.600,-41.600,-5.900,-18.400
0.754,-5.700,-42.600,-5.900,-18.100
0.755,-6.000,-43.200,-6.000,-17.700
0.756,-6.400,-43.400,-6.100,-17.300
0.757,-6.800,-43.200,-6.000,-17.000
0.758,-6.900,-42.700,-5.700,-17.000
0.759,-6.800,-42.100,-5.400,-17.100
0.760,-6.500,-41.300,-5.500,-17.200
0.761,-6.300,-40.500,-5.700,-17.100
0.762,-6.000,-39.700,-5.900,-16.600
0.763,-5.600,-38.900,-5.600,-15.600
0.764,-5.100,-38.300,-4.600,-14.200
0.765,-4.400,-37.900,-3.200,-12.700
0.766,-3.900,-37.800,-1.900,-11.400
0.767,-3.700,-38.100,-1.300,-10.600
0.768,-3.800,-38.500,-1.700,-10.500
0.769,-4.200,-38.700,-2.900,-10.900
0.770,-4.600,-38.800,-4.400,-11.500
0.771,-4.900,-38.500,-5.800,-12.100
0.772,-5.000,-38.000,-6.600,-12.400
0.773,-4.800,-37.400,-6.900,-12.300
0.774,-4.600,-37.100,-6.800,-12.000
0.775,-4.400,-37.100,-6.600,-11.700
0.776,-4.200,-37.500,-6.200,-11.500
0.777,-4.200,-37.900,-5.800,-11.300
0.778,-4.200,-38.100,-5.200,-11.000
0.779,-4.300,-37.800,-4.600,-10.500
0.780,-4.200,-36.700,-4.000,-9.800
0.781,-3.800,-34.900,-3.700,-8.900
0.782,-3.200,-32.900,-3.600,-8.100
0.783,-2.600,-30.700,-3.700,-7.600
0.784,-2.300,-28.700,-4.000,-7.400
0.785,-2.200,-26.800,-4.200,-7.400
0.786,-2.200,-24.800,-4.100,-7.100
0.787,-1.900,-22.700,-3.700,-6.300
0.788,-1.000,-20.700,-2.900,-5.100
0.789,0.500,-18.900,-2.000,-3.900
0.790,2.400,-17.600,-1.300,-3.000
0.791,4.000,-16.800,-1.100,-2.800
0.792,5.100,-16.500,-1.500,-3.400
0.793,5.300,-16.500,-2.400,-4.400
0.794,5.000,-16.500,-3.500,-5.400
0.795,4.400,-16.400,-4.500,-6.200
0.796,3.700,-16.300,-5.200,-6.700
0.797,3.000,-16.300,-5.700,-7.000
0.798,1.900,-16.500,-6.100,-7.300
0.799,0.600,-16.900,-6.800,-7.700
0.800,-0.900,-17.400,-7.800,-8.100
0.801,-2.200,-17.800,-8.700,-8.300
0.802,-2.900,-17.800,-9.100,-8.100
0.803,-2.700,-17.200,-8.600,-7.700
0.804,-1.700,-16.000,-7.300,-6.900
0.805,-0.600,-14.400,-5.400,-6.000
0.806,0.400,-12.900,-3.500,-5.000
0.807,0.900,-12.000,-2.300,-4.200
0.808,0.800,-11.900,-2.000,-3.600
0.809,0.400,-12.600,-2.500,-3.400
0.810,-0.200,-13.700,-3.400,-3.600
0.811,-0.800,-14.500,-4.000,-4.000
0.812,-1.300,-14.800,-4.100,-4.200
0.813,-1.500,-14.400,-3.700,-4.300
0.814,-1.400,-13.400,-3.200,-4.200
0.815,-1.000,-12.300,-2.700,-4.000
0.816,-0.400,-11.300,-2.600,-3.800
0.817,0.100,-10.600,-2.500,-3.500
0.818,0.400,-10.000,-2.300,-3.100
0.819,0.500,-9.400,-1.600,-2.200
0.820,0.700,-8.500,-0.500,-1.100
0.821,1.100,-7.400,0.500,0.000
0.822,2.000,-6.200,1.100,0.800
0.823,3.200,-5.400,1.200,1.200
0.824,4.300,-5.000,1.000,1.200
0.825,4.900,-5.000,0.800,1.200
0.826,5.000,-5.200,0.900,1.400
0.827,4.600,-5.400,1.500,1.800
0.828,4.400,-5.300,2.300,2.300
0.829,4.500,-5.100,2.700,2.600
0.830,5.000,-5.000,2.300,2.500
0.831,5.400,-4.900,1.300,2.200
0.832,5.500,-4.900,-0.100,1.900
0.833,5.300,-4.600,-1.000,1.700
0.834,5.000,-3.900,-1.200,1.700
0.835,4.900,-2.900,-0.500,1.800
0.836,5.200,-1.700,0.700,1.700
0.837,5.800,-0.800,2.100,1.700
0.838,6.300,-0.300,3.100,1.600
0.839,6.600,-0.200,3.400,1.700
0.840,6.500,-0.200,3.300,2.000
0.841,6.300,-0.100,2.800,2.200
0.842,6.100,0.300,2.300,2.500
0.843,6.100,0.700,1.900,2.700
0.844,6.200,0.900,1.800,2.900
0.845,6.300,0.500,1.900,3.200
0.846,6.400,-0.400,2.100,3.500
0.847,6.600,-1.500,2.300,3.700
0.848,6.700,-2.500,2.500,3.700
0.849,6.800,-3.000,2.500,3.600
0.850,6.700,-3.000,2.400,3.300
0.851,6.300,-3.000,2.200,3.000
0.852,5.700,-3.200,1.800,2.900
0.853,5.200,-3.900,1.200,3.000
0.854,5.000,-5.000,0.500,3.300
0.855,5.200,-6.100,-0.100,4.000
0.856,5.600,-6.700,-0.400,4.800
0.857,5.900,-6.500,-0.100,5.500
0.858,6.100,-5.700,0.700,6.100
0.859,6.200,-4.500,1.800,6.400
0.860,6.200,-3.500,2.600,6.500
0.861,6.500,-2.800,3.000,6.300
0.862,7.100,-2.300,2.800,6.300
0.863,7.900,-1.700,2.500,6.400
0.864,8.700,-0.900,2.400,7.000
0.865,9.500,0.100,3.000,7.700
0.866,10.200,1.000,4.100,8.500
0.867,10.700,1.400,5.200,9.000
0.868,10.900,1.000,5.900,9.200
0.869,10.500,-0.100,5.700,9.200
0.870,9.600,-1.600,4.900,9.000
0.871,8.400,-2.800,4.100,9.000
0.872,7.500,-3.100,3.800,9.400
0.873,7.300,-2.200,4.200,10.100
0.874,7.900,-0.600,5.000,10.900
0.875,9.100,1.100,5.700,11.700
0.876,10.500,2.500,5.900,12.200
0.877,11.500,3.200,5.500,12.700
0.878,12.100,3.400,5.200,13.100
0.879,12.300,3.300,5.600,13.800
0.880,12.700,3.400,6.700,14.700
0.881,13.400,3.800,8.500,15.600
0.882,14.300,4.400,10.100,16.500
0.883,15.300,4.900,11.200,17.200
0.884,16.100,5.500,11.600,17.600
0.885,17.000,6.400,11.900,18.100
0.886,18.100,8.000,12.500,18.800
0.887,19.900,10.700,14.100,20.100
0.888,22.400,14.100,16.300,21.900
0.889,25.200,17.800,18.600,24.100
0.890,27.800,20.800,20.500,26.400
0.891,29.700,22.600,21.700,28.400
0.892,30.600,23.100,22.100,30.100
0.893,30.400,22.400,22.400,31.400
0.894,29.600,21.400,22.800,32.800
0.895,28.500,20.600,23.800,34.500
0.896,27.300,20.300,25.000,36.600
0.897,25.800,20.600,26.300,39.100
0.898,24.000,21.000,27.300,41.900
0.899,21.600,21.400,27.900,44.500
0.900,18.600,21.400,28.100,46.900
0.901,14.800,21.000,28.300,48.900
0.902,10.600,20.400,28.600,50.700
0.903,6.100,19.600,29.000,52.300
0.904,1.600,18.600,29.100,53.700
0.905,-3.000,17.300,28.800,54.900
0.906,-7.600,15.800,27.800,55.800
0.907,-12.300,14.000,26.000,56.400
0.908,-17.500,12.100,23.500,56.600
0.909,-23.200,10.300,20.800,56.500
0.910,-29.100,8.600,17.900,56.100
0.911,-35.000,6.800,14.800,55.200
0.912,-40.300,4.700,11.400,53.700
0.913,-44.900,2.000,7.900,51.600
0.914,-48.600,-1.200,4.400,49.000
0.915,-51.700,-4.800,1.500,46.400
0.916,-54.100,-8.000,-0.400,44.400
0.917,-55.800,-10.300,-1.000,43.400
0.918,-56.700,-11.200,-0.300,43.400
0.919,-56.600,-10.900,1.200,44.000
0.920,-55.400,-9.800,2.900,44.500
0.921,-53.200,-8.400,4.200,44.300
0.922,-50.400,-7.300,4.800,43.100
0.923,-47.400,-6.600,4.600,40.900
0.924,-44.100,-6.400,3.700,38.100
0.925,-40.400,-6.500,2.300,35.200
0.926,-36.000,-6.600,0.600,32.200
0.927,-30.600,-6.600,-1.300,29.100
0.928,-24.500,-6.300,-3.300,25.400
0.929,-18.100,-5.500,-5.400,21.200
0.930,-12.000,-4.300,-7.300,16.600
0.931,-7.000,-2.700,-9.000,12.200
0.932,-3.300,-1.100,-10.200,8.700
0.933,-1.000,0.300,-10.800,6.400
0.934,0.400,1.200,-10.900,5.300
0.935,1.000,1.600,-10.600,4.900
0.936,1.500,1.600,-10.100,4.600
0.937,2.100,1.300,-9.600,3.900
0.938,3.000,1.000,-9.100,3.000
0.939,4.400,0.800,-8.500,2.300
0.940,5.900,0.800,-7.800,2.100
0.941,7.300,1.000,-6.900,2.700
0.942,8.300,1.300,-6.000,3.700
0.943,8.900,2.000,-5.100,4.800
0.944,9.300,2.800,-4.500,5.500
0.945,9.800,3.900,-4.100,5.900
0.946,10.300,4.800,-3.800,6.100
0.947,10.900,5.400,-3.500,6.500
0.948,11.400,5.600,-3.200,7.400
0.949,11.600,5.600,-2.700,8.900
0.950,11.700,5.800,-2.000,10.700
0.951,11.800,6.500,-1.000,12.500
0.952,12.300,7.800,0.300,13.900
0.953,13.100,9.400,1.600,15.000
0.954,13.900,10.900,2.900,16.000
0.955,14.500,12.300,4.000,17.300
0.956,14.700,13.500,4.700,19.000
0.957,14.500,14.700,5.500,21.300
0.958,14.300,16.000,6.500,24.000
0.959,14.300,17.400,7.900,26.700
0.960,14.600,18.400,9.800,28.900
0.961,15.100,18.700,11.600,30.600
0.962,15.600,18.100,13.000,31.700
0.963,16.000,17.200,13.900,32.600
0.964,16.800,16.700,14.200,33.400
0.965,17.900,17.100,14.400,34.500
0.966,19.700,18.500,14.700,35.600
0.967,21.800,20.400,15.300,36.800
0.968,24.000,22.300,16.100,37.800
0.969,25.700,23.500,16.900,38.300
0.970,26.700,23.900,17.500,38.300
0.971,26.900,23.600,17.700,38.000
0.972,26.300,22.900,17.600,37.500
0.973,25.200,22.000,17.200,37.000
0.974,23.800,21.000,16.700,36.600
0.975,22.200,20.000,16.300,36.400
0.976,20.600,19.100,16.100,36.300
0.977,19.400,18.600,16.200,36.400
0.978,18.600,18.600,16.600,36.500
0.979,18.300,19.200,17.000,37.000
0.980,18.600,20.400,17.600,37.800
0.981,19.400,22.100,18.100,39.000
0.982,20.400,24.100,18.800,40.400
0.983,21.500,25.900,19.500,41.800
0.984,22.400,27.400,20.200,42.700
0.985,22.600,28.000,20.700,42.700
0.986,22.200,27.500,20.600,41.900
0.987,21.100,26.100,19.700,40.600
0.988,19.600,24.100,18.400,39.200
0.989,18.200,22.200,16.900,38.300
0.990,17.300,20.800,15.800,38.000
0.991,17.000,19.800,15.300,38.200
0.992,17.400,18.900,15.500,38.700
0.993,18.100,17.800,16.200,39.100
0.994,18.800,16.200,16.900,39.300
0.995,19.300,14.500,17.400,39.200
0.996,19.500,13.000,17.600,38.900
0.997,19.500,12.200,17.500,38.800
0.998,19.400,12.100,17.200,38.800
0.999,19.400,12.300,17.000,39.100
1.000,19.300,12.600,16.700,39.600
1.001,19.300,12.800,16.700,40.300
1.002,19.300,13.000,16.800,41.100
1.003,19.300,13.300,17.000,41.700
1.004,19.400,14.000,17.100,42.000
1.005,19.500,14.900,16.900,42.000
1.006,19.600,15.800,16.000,41.700
1.007,19.500,16.500,14.700,41.300
1.008,19.000,16.900,13.100,41.000
1.009,18.200,17.000,11.800,40.800
1.010,17.000,17.000,11.200,40.900
1.011,15.700,17.200,11.300,41.200
1.012,14.600,17.700,12.000,41.400
1.013,14.100,18.300,12.700,41.400
1.014,14.300,19.000,13.200,41.200
1.015,15.300,19.900,13.400,41.000
1.016,16.500,20.700,13.500,40.900
1.017,17.700,21.400,13.700,41.000
1.018,18.400,21.800,14.200,41.400
1.019,18.500,21.800,14.900,41.800
1.020,18.000,21.400,15.300,41.900
1.021,17.300,20.700,15.100,41.700
1.022,16.700,20.100,14.400,41.500
1.023,16.200,19.900,13.500,41.500
1.024,16.200,20.300,12.800,42.000
1.025,16.500,21.200,12.800,42.900
1.026,17.100,22.000,13.600,44.100
1.027,17.700,22.300,14.700,44.900
1.028,18.000,22.000,15.600,45.100
1.029,17.700,21.300,16.100,44.800
1.030,16.900,20.800,15.800,44.400
1.031,15.900,21.000,15.200,44.200
1.032,15.100,22.100,14.400,44.600
1.033,15.000,23.600,13.900,45.400
1.034,15.800,24.900,14.000,46.300
1.035,17.200,25.400,14.400,47.100
1.036,18.600,25.100,15.000,47.600
1.037,19.500,24.400,15.500,47.800
1.038,19.700,23.900,15.700,47.900
1.039,19.400,24.000,15.700,47.800
1.040,19.000,24.700,15.800,47.800
1.041,19.000,25.600,16.100,47.800
1.042,19.500,26.300,16.800,48.100
1.043,20.000,26.200,17.600,48.500
1.044,20.100,25.400,18.200,48.900
1.045,19.200,24.300,18.200,49.200
1.046,17.700,23.400,17.800,49.300
1.047,16.100,23.200,17.400,49.400
1.048,15.300,23.800,17.400,49.600
1.049,15.700,25.100,18.100,50.100
1.050,17.000,26.400,19.100,50.800
1.051,18.700,27.200,19.900,51.600
1.052,19.900,27.200,20.100,52.100
1.053,20.200,26.500,19.700,52.200
1.054,19.900,25.700,18.700,52.000
1.055,19.400,25.300,17.800,51.800
1.056,19.100,25.800,17.400,51.700
1.057,19.200,27.100,17.300,51.800
1.058,19.200,28.600,17.300,51.600
1.059,18.700,29.700,16.900,51.000
1.060,17.500,29.800,16.300,50.000
1.061,15.700,29.100,15.500,48.900
1.062,14.100,27.900,14.900,48.000
1.063,13.000,26.800,15.000,47.700
1.064,12.700,26.400,15.700,48.000
1.065,12.900,26.500,16.700,48.600
1.066,13.100,27.000,17.300,49.100
1.067,12.900,27.100,17.400,49.200
1.068,12.200,26.800,16.900,49.000
1.069,11.200,26.100,16.100,48.700
1.070,10.700,25.500,15.600,48.900
1.071,11.200,25.400,15.700,49.500
1.072,12.600,26.000,16.500,50.300
1.073,14.500,26.900,17.600,51.100
1.074,16.100,27.600,18.700,51.400
1.075,16.600,27.500,19.300,51.400
1.076,16.000,26.900,19.500,51.300
1.077,14.800,26.200,19.500,51.400
1.078,13.700,26.100,19.800,52.000
1.079,13.600,26.700,20.600,52.900
1.080,14.400,27.600,21.700,53.700
1.081,15.800,28.400,22.900,54.200
1.082,16.900,28.200,23.600,54.200
1.083,17.000,27.300,23.700,53.900
1.084,15.900,25.900,23.000,53.400
1.085,14.000,24.900,22.000,52.800
1.086,11.800,24.700,21.000,52.000
1.087,10.100,25.300,20.200,51.200
1.088,9.200,26.200,19.800,50.300
1.089,9.000,26.900,19.800,49.700
1.090,9.300,27.300,20.100,49.500
1.091,9.600,27.400,20.400,49.900
1.092,9.800,27.600,20.700,50.700
1.093,9.900,28.200,20.600,51.400
1.094,9.800,29.200,20.200,51.800
1.095,9.600,30.200,19.500,51.500
1.096,9.200,30.900,18.700,50.600
1.097,8.700,30.900,17.800,49.400
1.098,8.200,30.200,17.100,48.200
1.099,7.600,28.800,17.000,47.700
1.100,7.100,27.400,17.500,48.100
1.101,6.700,26.500,19.000,49.600
1.102,6.600,26.400,21.100,51.900
1.103,6.800,27.300,23.600,54.400
1.104,7.300,28.700,25.700,56.600
1.105,8.100,29.800,27.100,58.100
1.106,9.000,30.300,27.500,59.200
1.107,9.700,29.900,27.700,60.500
1.108,10.400,29.500,28.400,62.800
1.109,11.400,29.800,30.300,66.700
1.110,12.900,31.800,33.400,72.000
1.111,15.200,35.200,37.100,77.800
1.112,17.900,39.300,40.200,82.800
1.113,20.200,42.700,41.600,86.100
1.114,21.300,44.200,41.000,87.100
1.115,20.700,43.300,38.800,86.000
1.116,18.600,40.500,35.900,83.600
1.117,15.900,37.000,33.100,80.600
1.118,13.300,33.500,30.900,77.500
1.119,11.300,30.700,28.800,74.100
1.120,9.700,28.200,26.500,70.100
1.121,7.900,25.500,23.400,65.000
1.122,5.200,22.000,19.400,58.500
1.123,1.400,17.800,14.900,51.000
1.124,-3.000,13.200,10.500,43.200
1.125,-7.300,8.800,7.000,36.200
1.126,-10.700,5.300,4.900,31.200
1.127,-13.000,3.200,4.300,28.700
1.128,-14.000,2.700,5.000,28.600
1.129,-14.200,3.700,6.600,30.200
1.130,-13.800,5.800,8.500,32.700
1.131,-13.300,8.200,10.300,35.200
1.132,-12.600,10.200,11.600,37.400
1.133,-11.800,11.400,12.600,39.500
1.134,-10.800,11.700,13.300,41.700
1.135,-9.500,11.700,14.000,44.100
1.136,-7.800,12.200,14.600,46.600
1.137,-6.000,13.700,15.300,48.900
1.138,-4.400,16.000,15.900,50.500
1.139,-3.100,18.500,16.700,51.400
1.140,-2.400,20.400,17.500,51.800
1.141,-2.200,21.000,18.500,52.000
1.142,-2.400,20.200,19.500,52.300
1.143,-2.500,18.800,20.100,52.800
1.144,-2.300,17.600,20.100,53.300
1.145,-1.900,16.900,19.500,53.600
1.146,-1.500,17.000,18.500,53.500
1.147,-1.400,17.200,17.500,52.900
1.148,-1.800,17.100,16.900,51.900
1.149,-2.800,16.200,16.800,50.700
1.150,-3.900,14.700,16.700,49.600
1.151,-5.000,12.900,16.500,48.900
1.152,-5.800,11.300,15.900,48.400
1.153,-6.200,10.100,15.100,48.200
1.154,-6.500,9.400,14.300,48.000
1.155,-6.700,8.700,13.900,47.600
1.156,-7.100,8.000,14.000,46.900
1.157,-7.700,6.900,14.400,46.000
1.158,-8.300,5.700,14.800,45.300
1.159,-8.800,4.600,15.100,44.900
1.160,-8.900,3.900,15.100,45.000
1.161,-8.600,3.900,14.800,45.400
1.162,-7.900,4.300,14.500,45.800
1.163,-6.900,5.100,14.200,46.000
1.164,-5.800,6.000,14.100,46.000
1.165,-4.900,6.800,14.300,46.100
1.166,-4.100,7.600,14.700,46.500
1.167,-3.500,8.300,15.300,47.100
1.168,-2.900,9.100,15.800,47.500
1.169,-2.400,10.000,16.300,47.300
1.170,-1.800,10.700,16.600,46.400
1.171,-1.300,11.000,16.700,45.100
1.172,-0.800,10.900,16.900,43.800
1.173,-0.400,10.500,17.200,42.900
1.174,0.000,10.200,17.500,42.600
1.175,0.500,10.300,17.500,42.600
1.176,1.200,10.800,17.300,42.500
1.177,1.900,11.600,16.700,42.000
1.178,2.600,12.300,16.000,41.300
1.179,3.100,12.700,15.600,40.500
1.180,3.600,13.000,15.700,40.100
1.181,4.000,13.300,16.300,39.900
1.182,4.600,13.800,17.100,39.900
1.183,5.400,14.600,17.800,39.800
1.184,6.400,15.600,18.200,39.400
1.185,7.300,16.600,18.300,39.000
1.186,8.100,17.500,18.200,38.600
1.187,8.500,18.300,18.000,38.500
1.188,8.600,19.000,18.000,38.500
1.189,8.500,19.600,17.900,38.500
1.190,8.500,20.100,17.500,38.400
1.191,8.600,20.300,16.900,38.200
1.192,8.800,20.200,16.000,37.900
1.193,9.000,19.900,15.100,37.600
1.194,9.000,19.700,14.500,37.400
1.195,9.000,19.900,14.500,37.000
1.196,9.000,20.800,14.800,36.500
1.197,9.200,22.300,15.200,35.900
1.198,9.800,23.900,15.300,35.200
1.199,10.500,25.200,14.800,34.700
1.200,11.200,25.900,13.800,34.500
1.201,11.800,26.100,12.800,34.400
1.202,12.300,26.000,12.100,34.400
1.203,12.700,25.800,12.000,34.200
1.204,13.100,25.600,12.700,33.900
1.205,13.500,25.400,13.700,33.500
1.206,13.800,24.700,14.800,33.000
1.207,13.900,23.400,15.500,32.500
1.208,13.800,21.500,15.800,31.900
1.209,13.600,19.400,15.600,31.200
1.210,13.400,17.700,15.100,30.600
1.211,13.600,16.900,14.400,30.000
1.212,13.800,17.100,13.600,29.700
1.213,14.100,17.900,12.700,29.500
1.214,14.000,18.600,11.900,29.400
1.215,13.500,18.500,11.300,29.000
1.216,12.400,17.600,10.800,28.300
1.217,11.100,16.200,10.600,27.400
1.218,10.100,15.000,10.500,26.700
1.219,9.600,14.800,10.700,26.400
1.220,9.800,15.500,11.100,26.700
1.221,10.500,16.700,11.700,27.400
1.222,11.300,17.600,12.400,28.000
1.223,11.900,17.700,13.100,28.200
1.224,12.000,16.900,13.400,27.900
1.225,11.800,15.700,13.200,27.300
1.226,11.700,15.000,12.800,26.800
1.227,11.900,15.300,12.400,27.000
1.228,12.800,16.400,12.300,27.700
1.229,14.200,18.100,12.500,28.800
1.230,15.600,19.800,12.700,29.800
1.231,16.700,21.200,12.700,30.400
1.232,17.200,22.200,12.100,30.500
1.233,17.300,23.100,11.100,30.300
1.234,17.000,23.900,10.100,29.800
1.235,16.800,24.500,9.600,29.400
1.236,16.900,24.800,9.600,29.000
1.237,17.000,24.600,10.000,28.500
1.238,17.100,24.100,10.400,27.900
1.239,16.900,23.600,10.300,27.200
1.240,16.000,23.200,9.600,26.400
1.241,14.600,23.000,8.500,25.500
1.242,13.000,22.600,7.400,24.600
1.243,11.400,22.000,6.800,23.700
1.244,10.400,21.100,6.700,23.000
1.245,9.800,20.200,7.200,22.500
1.246,9.700,19.500,7.800,22.200
1.247,9.500,19.000,8.200,22.000
1.248,9.100,18.300,8.400,21.800
1.249,8.300,17.200,8.300,21.200
1.250,7.300,15.500,8.100,20.400
1.251,6.300,13.500,7.700,19.400
1.252,5.700,11.500,7.300,18.500
1.253,5.500,10.000,6.800,18.100
1.254,5.900,9.200,6.200,18.200
1.255,6.700,9.100,5.900,18.700
1.256,7.700,9.300,5.800,19.400
1.257,8.400,9.600,5.900,19.700
1.258,8.700,9.800,6.200,19.700
1.259,8.300,9.900,6.400,19.200
1.260,7.400,9.900,6.500,18.600
1.261,6.200,9.800,6.200,18.100
1.262,5.200,9.700,5.700,17.800
1.263,4.800,9.500,4.900,17.900
1.264,5.200,9.500,4.300,18.300
1.265,6.100,9.600,3.900,18.800
1.266,7.000,9.900,3.900,19.300
1.267,7.400,10.000,4.400,19.800
1.268,7.000,10.000,5.200,20.000
1.269,6.100,9.600,5.700,20.100
1.270,5.000,9.100,5.900,19.900
1.271,4.200,8.500,5.600,19.500
1.272,4.100,7.900,4.900,18.900
1.273,4.600,7.400,4.300,18.400
1.274,5.700,7.000,4.200,18.000
1.275,6.900,6.600,4.700,17.900
1.276,7.800,6.400,5.700,18.100
1.277,8.200,6.300,7.100,18.500
1.278,7.900,6.500,8.400,18.900
1.279,7.300,7.000,9.400,19.200
1.280,6.800,7.800,10.100,19.500
1.281,6.800,8.800,10.300,19.800
1.282,7.400,9.800,10.100,20.100
1.283,8.300,10.700,9.700,20.400
1.284,9.000,11.300,9.000,20.400
1.285,9.000,11.600,8.100,20.100
1.286,8.100,11.500,7.100,19.400
1.287,6.600,11.200,6.300,18.700
1.288,5.100,10.900,5.800,18.200
1.289,4.100,10.800,5.600,18.100
1.290,4.000,11.000,5.900,18.400
1.291,4.600,11.400,6.400,18.700
1.292,5.500,11.700,6.900,18.800
1.293,6.300,11.600,7.300,18.800
1.294,6.700,11.200,7.300,18.500
1.295,6.700,10.700,7.000,18.400
1.296,6.500,10.400,6.400,18.400
1.297,6.300,10.600,5.700,18.600
1.298,6.000,11.400,5.300,18.900
1.299,5.700,12.600,5.300,19.200
1.300,5.400,13.600,5.900,19.600
1.301,5.100,14.100,6.700,19.900
1.302,4.800,13.900,7.400,19.900
1.303,4.600,13.200,7.400,19.600
1.304,4.200,12.500,6.800,18.900
1.305,3.700,12.300,5.600,18.000
1.306,3.000,12.900,4.500,17.200
1.307,2.500,14.400,3.800,16.600
1.308,2.500,16.300,4.000,16.500
1.309,2.900,18.100,4.700,16.600
1.310,3.600,19.100,5.600,16.800
1.311,4.200,19.300,5.900,16.800
1.312,4.300,18.800,5.300,16.700
1.313,3.800,17.900,3.900,16.300
1.314,3.200,17.000,2.200,15.900
1.315,2.700,16.500,1.000,15.700
1.316,2.900,16.200,0.700,15.700
1.317,3.800,16.200,1.500,15.800
1.318,5.000,16.200,2.900,16.200
1.319,6.000,16.200,4.400,16.700
1.320,6.500,16.200,5.500,17.300
1.321,6.500,16.200,6.000,17.800
1.322,6.200,16.000,5.900,18.100
1.323,6.000,15.400,5.700,18.000
1.324,6.300,14.400,5.600,17.600
1.325,6.900,13.100,5.800,16.900
1.326,7.700,11.800,6.100,16.100
1.327,8.200,10.500,6.400,15.300
1.328,8.100,9.500,6.500,14.600
1.329,7.500,8.600,6.300,14.100
1.330,6.500,7.800,5.800,13.700
1.331,5.500,7.400,5.200,13.300
1.332,4.700,7.400,4.600,12.800
1.333,4.400,8.100,4.200,12.100
1.334,4.500,9.400,3.900,11.200
1.335,4.900,11.100,3.500,10.300
1.336,5.200,12.600,3.200,9.400
1.337,5.200,13.200,2.900,8.900
1.338,4.800,13.000,2.700,8.600
1.339,4.000,11.900,2.700,8.500
1.340,3.100,10.700,2.900,8.400
1.341,2.300,9.900,3.100,8.300
1.342,1.800,9.700,3.200,8.100
1.343,1.600,10.300,2.900,7.800
1.344,1.600,11.300,2.300,7.700
1.345,1.500,12.400,1.700,7.600
1.346,1.300,13.200,1.100,7.700
1.347,1.000,13.700,0.900,7.700
1.348,0.600,13.900,1.000,7.700
1.349,0.200,13.700,1.300,7.700
1.350,0.000,13.300,1.700,7.700
1.351,-0.100,12.800,2.200,7.600
1.352,-0.100,12.200,2.700,7.700
1.353,0.000,11.500,3.200,7.900
1.354,0.200,10.700,3.600,8.200
1.355,0.500,9.800,3.800,8.700
1.356,0.800,8.800,3.600,9.200
1.357,1.100,7.600,2.900,9.500
1.358,1.300,6.300,2.000,9.300
1.359,1.300,5.400,1.100,8.700
1.360,1.100,5.100,0.400,7.800
1.361,0.800,5.900,0.200,6.900
1.362,0.500,7.500,0.300,6.300
1.363,0.400,9.400,0.600,6.100
1.364,0.400,11.000,0.700,6.200
1.365,0.600,11.500,0.800,6.400
1.366,0.800,11.000,0.800,6.500
1.367,1.300,10.000,1.000,6.500
1.368,1.900,9.400,1.400,6.600
1.369,2.900,9.800,2.100,6.800
1.370,3.900,11.200,2.700,7.400
1.371,4.900,13.300,3.200,8.100
1.372,5.400,15.100,3.300,8.600
1.373,5.300,16.100,2.800,8.900
1.374,4.700,16.300,1.900,8.700
1.375,3.800,16.000,0.900,8.100
1.376,3.000,15.500,0.100,7.200
1.377,2.600,15.000,-0.400,6.300
1.378,2.300,14.500,-0.700,5.400
1.379,2.000,13.700,-0.900,4.600
1.380,1.300,12.700,-1.200,3.900
1.381,0.100,11.400,-1.800,3.400
1.382,-1.200,10.200,-2.700,2.900
1.383,-2.100,9.400,-3.500,2.500
1.384,-2.500,9.200,-3.800,2.300
1.385,-2.200,9.500,-3.500,2.300
1.386,-1.700,10.200,-2.600,2.500
1.387,-1.300,11.100,-1.300,2.900
1.388,-1.300,12.000,-0.200,3.400
1.389,-1.700,12.800,0.400,3.900
1.390,-2.100,13.200,0.300,4.200
1.391,-2.300,13.200,-0.200,4.500
1.392,-2.400,12.900,-0.600,4.600
1.393,-2.400,12.600,-0.800,4.500
1.394,-2.400,12.400,-0.700,4.300
1.395,-2.500,12.500,-0.400,3.800
1.396,-2.700,12.500,-0.300,3.400
1.397,-2.700,12.500,-0.200,3.200
1.398,-2.600,12.200,0.000,3.300
1.399,-2.400,11.900,0.400,3.900
1.400,-1.900,11.600,1.200,4.800
1.401,-1.300,11.600,2.100,5.700
1.402,-0.500,11.800,2.900,6.600
1.403,0.400,12.000,3.200,7.300
1.404,1.200,12.000,3.300,7.900
1.405,1.900,11.800,3.300,8.200
1.406,2.300,11.500,3.500,8.000
1.407,2.500,11.000,3.600,7.200
1.408,2.400,10.300,3.400,5.800
1.409,2.200,9.300,2.600,4.200
1.410,1.700,8.100,1.400,3.000
1.411,1.200,6.700,0.100,2.800
1.412,0.700,5.700,-0.500,3.600
1.413,0.600,5.600,-0.100,5.200
1.414,1.000,6.300,1.200,6.700
1.415,2.000,7.700,2.600,7.700
1.416,3.300,9.000,3.500,7.900
1.417,4.200,9.700,3.500,7.800
1.418,4.600,9.300,2.600,7.500
1.419,4.200,8.000,1.700,7.400
1.420,3.100,6.200,1.100,7.400
1.421,1.700,4.300,1.200,7.100
1.422,0.300,2.700,1.300,6.300
1.423,-0.900,1.600,1.000,5.100
1.424,-1.900,1.100,-0.300,3.700
1.425,-2.700,1.300,-2.200,2.400
1.426,-3.300,2.300,-4.200,1.600
1.427,-3.600,4.000,-5.400,1.200
1.428,-3.500,5.700,-5.200,1.100
1.429,-3.100,6.700,-3.900,1.000
1.430,-2.400,6.500,-2.100,0.900
1.431,-1.800,4.800,-0.700,0.700
1.432,-1.300,2.100,0.000,0.500
1.433,-1.300,-0.900,0.000,0.300
1.434,-1.700,-3.300,-0.300,0.300
1.435,-2.400,-4.900,-0.400,0.500
1.436,-3.300,-5.900,-0.100,0.900
1.437,-4.200,-6.900,0.300,1.400
1.438,-4.700,-8.200,0.400,1.700
1.439,-4.800,-9.700,-0.200,1.800
1.440,-4.400,-11.100,-1.200,1.600
1.441,-3.800,-12.100,-2.500,1.300
1.442,-3.200,-12.500,-3.500,1.100
1.443,-3.100,-12.500,-3.900,1.000
1.444,-3.400,-12.400,-3.900,0.900
1.445,-4.000,-12.500,-3.600,0.600
1.446,-4.400,-12.800,-3.200,0.200
1.447,-4.500,-13.300,-2.900,-0.200
1.448,-4.300,-13.800,-2.600,-0.500
1.449,-4.000,-14.500,-2.300,-0.700
1.450,-3.700,-15.200,-2.100,-0.700
1.451,-3.700,-15.900,-2.200,-0.900
1.452,-3.900,-16.600,-2.600,-1.400
1.453,-4.100,-17.100,-3.400,-2.000
1.454,-4.200,-17.300,-4.200,-2.400
1.455,-4.200,-17.100,-4.700,-2.500
1.456,-4.200,-16.500,-4.600,-2.200
1.457,-4.200,-15.700,-4.000,-1.600
1.458,-4.100,-14.900,-3.100,-1.000
1.459,-3.800,-14.300,-2.200,-0.500
1.460,-3.400,-14.100,-1.500,-0.100
1.461,-3.000,-14.400,-1.000,0.200
1.462,-2.800,-15.000,-0.800,0.300
1.463,-2.800,-15.600,-0.600,0.400
1.464,-3.000,-16.000,-0.600,0.400
1.465,-3.000,-15.800,-0.700,0.300
1.466,-2.900,-15.300,-0.800,0.400
1.467,-2.600,-14.600,-0.700,0.700
1.468,-2.200,-14.200,-0.400,1.200
1.469,-2.000,-14.300,0.200,1.800
1.470,-2.100,-14.900,0.700,2.200
1.471,-2.200,-15.700,0.800,2.300
1.472,-2.300,-16.300,0.500,2.200
1.473,-2.200,-16.600,-0.100,2.000
1.474,-2.000,-16.500,-0.600,2.200
1.475,-1.800,-16.200,-0.400,2.600
1.476,-1.700,-15.800,0.400,3.300
1.477,-1.700,-15.600,1.500,4.000
1.478,-1.700,-15.500,2.300,4.500
1.479,-1.600,-15.400,2.400,4.700
1.480,-1.500,-15.300,1.900,4.800
1.481,-1.500,-15.000,1.000,4.600
1.482,-1.600,-14.500,0.100,4.200
1.483,-2.100,-14.100,-0.500,3.600
1.484,-2.800,-13.900,-1.100,2.800
1.485,-3.700,-14.000,-1.800,2.000
1.486,-4.500,-14.400,-2.800,1.400
1.487,-5.100,-15.000,-3.800,1.200
1.488,-5.500,-15.600,-4.600,1.300
1.489,-5.700,-16.100,-4.600,1.600
1.490,-5.600,-16.500,-3.800,1.900
1.491,-5.300,-16.900,-2.300,2.300
1.492,-4.700,-17.100,-0.500,2.700
1.493,-3.900,-17.000,1.100,3.400
1.494,-2.900,-16.300,2.200,4.100
1.495,-1.800,-14.900,2.600,4.900
1.496,-1.000,-12.700,2.400,5.400
1.497,-0.600,-10.100,1.800,5.700
1.498,-0.600,-7.600,1.000,5.800
1.499,-0.900,-5.500,0.200,6.100
1.500,-1.000,-4.200,-0.300,6.500
1.501,-1.000,-3.800,-0.400,7.200
1.502,-0.900,-4.200,-0.100,7.700
1.503,-0.700,-5.300,0.200,7.900
1.504,-0.800,-7.000,0.500,7.700
1.505,-0.900,-9.000,0.600,7.300
1.506,-0.900,-10.600,0.700,7.100
1.507,-0.400,-11.400,0.900,7.500
1.508,0.600,-11.100,1.600,8.500
1.509,2.100,-10.000,2.700,9.800
1.510,3.500,-8.600,4.000,10.800
1.511,4.400,-7.700,5.000,11.000
1.512,4.400,-7.900,5.200,10.400
1.513,3.800,-9.200,4.500,9.000
1.514,2.700,-11.100,3.100,7.500
1.515,1.700,-12.900,1.600,6.400
1.516,0.800,-13.900,0.500,5.800
1.517,0.300,-13.900,-0.200,5.700
1.518,0.000,-13.100,-0.600,5.600
1.519,-0.100,-12.000,-0.900,5.300
1.520,-0.200,-11.100,-1.200,4.800
1.521,-0.100,-10.600,-1.400,4.400
1.522,0.100,-10.500,-1.200,4.400
1.523,0.300,-10.600,-0.300,4.900
1.524,0.500,-10.700,1.000,5.600
1.525,0.500,-10.800,2.100,6.100
1.526,0.400,-11.100,2.600,5.900
1.527,0.200,-11.700,2.100,5.200
1.528,0.000,-12.700,1.000,4.300
1.529,0.000,-13.900,-0.100,3.800
1.530,0.000,-14.900,-0.500,3.900
1.531,0.100,-15.700,-0.100,4.500
1.532,-0.100,-16.000,0.900,5.200
1.533,-0.500,-16.200,1.900,5.600
1.534,-1.100,-16.200,2.300,5.500
1.535,-1.500,-16.200,2.100,5.200
1.536,-1.500,-15.700,1.800,5.400
1.537,-0.800,-14.600,1.800,6.400
1.538,0.500,-12.700,2.400,8.400
1.539,1.900,-10.400,3.400,11.000
1.540,3.100,-8.300,4.800,13.500
1.541,3.700,-6.700,6.400,15.900
1.542,4.100,-5.500,8.300,18.500
1.543,4.900,-3.900,11.100,21.800
1.544,6.700,-1.000,15.000,26.700
1.545,9.700,3.400,19.700,32.800
1.546,13.300,9.000,24.300,39.500
1.547,16.800,14.400,27.700,45.200
1.548,19.100,18.000,29.100,48.600
1.549,19.700,18.800,28.300,49.100
1.550,18.500,16.800,25.800,46.900
1.551,16.300,13.100,22.500,43.100
1.552,13.600,9.000,19.100,38.600
1.553,10.800,5.200,15.800,34.000
1.554,8.100,1.800,12.400,29.200
1.555,4.900,-1.800,8.400,23.500
1.556,1.000,-6.400,3.700,16.500
1.557,-3.600,-12.200,-1.600,8.100
1.558,-8.500,-18.500,-6.800,-0.900
1.559,-13.100,-24.400,-11.200,-9.200
1.560,-16.400,-28.400,-14.200,-15.600
1.561,-18.100,-30.100,-15.700,-19.300
1.562,-18.300,-29.600,-15.900,-20.200
1.563,-17.500,-27.700,-15.300,-19.300
1.564,-16.700,-25.500,-14.500,-17.800
1.565,-16.200,-23.500,-13.700,-16.500
1.566,-16.300,-22.000,-13.000,-15.900
1.567,-16.400,-20.600,-11.900,-15.500
1.568,-16.200,-19.100,-10.400,-14.500
1.569,-15.200,-17.200,-8.400,-12.400
1.570,-13.400,-15.100,-6.200,-9.200
1.571,-11.400,-13.300,-4.300,-5.500
1.572,-9.800,-12.300,-3.100,-2.300
1.573,-8.900,-12.000,-2.600,-0.300
1.574,-8.800,-12.200,-2.600,0.400
1.575,-9.300,-12.500,-2.800,0.200
1.576,-9.600,-12.500,-3.100,-0.400
1.577,-9.700,-12.200,-3.500,-1.000
1.578,-9.400,-12.000,-4.300,-1.400
1.579,-8.900,-12.200,-5.200,-1.700
1.580,-8.600,-12.900,-6.100,-1.900
1.581,-8.500,-13.800,-6.400,-1.900
1.582,-8.500,-14.400,-6.100,-1.700
1.583,-8.500,-14.400,-5.200,-1.200
1.584,-8.400,-13.700,-4.100,-0.600
1.585,-8.200,-12.800,-3.000,-0.200
1.586,-8.000,-12.300,-2.300,-0.100
1.587,-7.900,-12.400,-1.700,-0.200
1.588,-7.800,-13.300,-1.200,-0.300
1.589,-7.600,-14.500,-0.600,-0.300
1.590,-7.200,-15.600,-0.200,-0.200
1.591,-6.600,-16.500,-0.400,-0.300
1.592,-6.300,-17.000,-1.100,-0.700
1.593,-6.600,-17.400,-2.300,-1.200
1.594,-7.600,-17.800,-3.300,-1.700
1.595,-9.000,-18.100,-3.700,-1.800
1.596,-10.200,-18.100,-3.300,-1.400
1.597,-10.700,-17.500,-2.000,-0.500
1.598,-10.200,-16.200,-0.400,0.500
1.599,-8.800,-14.500,1.100,1.200
1.600,-6.900,-12.600,2.300,1.600
1.601,-5.000,-11.100,2.900,1.500
1.602,-3.300,-10.200,3.100,1.400
1.603,-2.100,-9.700,2.800,1.400
1.604,-1.400,-9.600,2.300,1.600
1.605,-1.300,-9.700,1.800,1.900
1.606,-1.500,-10.100,1.300,2.000
1.607,-2.100,-10.700,1.000,1.700
1.608,-2.800,-11.900,0.700,1.000
1.609,-3.400,-13.500,0.500,0.200
1.610,-3.900,-15.200,0.400,-0.600
1.611,-4.300,-16.800,0.500,-1.200
1.612,-4.600,-17.900,0.700,-1.500
1.613,-4.900,-18.400,1.000,-1.600
1.614,-5.300,-18.500,1.000,-1.600
1.615,-5.700,-18.500,0.700,-1.600
1.616,-6.000,-18.500,0.000,-1.700
1.617,-6.000,-18.500,-0.800,-1.600
1.618,-5.700,-18.500,-1.500,-1.600
1.619,-5.100,-18.100,-1.800,-1.500
1.620,-4.400,-17.300,-1.700,-1.600
1.621,-3.900,-16.200,-1.500,-1.800
1.622,-3.600,-15.000,-1.300,-2.100
1.623,-3.500,-14.000,-1.400,-2.300
1.624,-3.700,-13.200,-1.800,-2.500
1.625,-3.900,-12.700,-2.200,-2.600
1.626,-4.100,-12.300,-2.400,-2.600
1.627,-4.400,-12.200,-2.400,-2.600
1.628,-4.800,-12.300,-2.100,-2.600
1.629,-5.100,-12.700,-1.700,-2.700
1.630,-5.200,-13.300,-1.500,-2.900
1.631,-5.200,-13.900,-1.600,-3.300
1.632,-5.100,-14.100,-2.300,-4.000
1.633,-4.700,-13.900,-3.300,-4.700
1.634,-4.300,-13.200,-4.200,-5.200
1.635,-3.800,-12.100,-4.500,-5.100
1.636,-3.300,-11.000,-3.900,-4.200
1.637,-2.600,-9.900,-2.500,-2.800
1.638,-1.900,-9.100,-1.000,-1.500
1.639,-1.300,-8.500,-0.100,-0.900
1.640,-1.100,-8.400,-0.300,-1.200
1.641,-1.500,-8.600,-1.400,-2.100
1.642,-2.200,-9.100,-2.600,-3.100
1.643,-3.100,-9.700,-3.000,-3.400
1.644,-3.700,-10.300,-2.200,-2.900
1.645,-3.700,-10.600,-0.400,-1.700
1.646,-3.000,-10.500,1.500,-0.500
1.647,-1.900,-9.900,2.700,0.300
1.648,-0.800,-9.200,2.600,0.400
1.649,0.100,-8.400,1.500,0.000
1.650,0.400,-8.000,0.400,-0.600
1.651,0.100,-8.300,-0.100,-1.100
1.652,-0.600,-9.000,0.300,-1.600
1.653,-1.500,-10.100,1.500,-2.000
1.654,-2.100,-10.900,2.700,-2.200
1.655,-2.500,-11.200,3.400,-2.200
1.656,-2.600,-10.500,3.300,-1.700
1.657,-2.500,-9.300,2.700,-0.900
1.658,-2.400,-7.700,1.800,0.000
1.659,-2.300,-6.300,1.200,0.500
1.660,-2.500,-5.200,0.800,0.400
1.661,-2.900,-4.400,0.700,-0.400
1.662,-3.700,-3.900,0.600,-1.400
1.663,-4.800,-3.400,0.400,-2.200
1.664,-6.000,-3.000,0.400,-2.400
1.665,-6.900,-2.600,0.700,-2.000
1.666,-7.200,-2.400,1.300,-1.400
1.667,-6.500,-2.600,2.500,-0.800
1.668,-5.000,-3.000,3.800,-0.300
1.669,-3.000,-3.500,5.200,0.000
1.670,-1.100,-3.800,6.200,0.300
1.671,0.500,-3.900,6.900,0.700
1.672,1.600,-3.400,7.300,1.200
1.673,2.600,-2.600,7.600,1.900
1.674,4.000,-1.200,8.300,2.600
1.675,5.900,0.600,9.500,3.700
1.676,8.300,2.900,11.300,5.400
1.677,11.000,5.600,13.500,7.800
1.678,13.500,8.500,15.700,10.600
1.679,15.400,11.100,17.700,13.600
1.680,16.600,13.000,19.200,16.400
1.681,16.800,14.000,20.200,18.700
1.682,16.200,14.000,20.800,20.600
1.683,14.700,13.500,21.200,22.200
1.684,12.500,12.900,21.600,24.000
1.685,10.000,12.600,22.100,26.300
1.686,7.100,12.700,22.800,29.000
1.687,3.800,12.700,23.500,31.900
1.688,-0.100,12.200,23.900,34.600
1.689,-4.600,10.800,23.600,36.600
1.690,-9.800,8.800,22.400,37.900
1.691,-15.300,6.500,20.500,38.600
1.692,-20.700,4.400,18.500,38.900
1.693,-25.600,2.800,16.600,39.400
1.694,-30.000,1.500,15.300,40.000
1.695,-34.100,0.200,14.300,40.700
1.696,-38.300,-1.600,13.300,41.100
1.697,-42.800,-3.900,12.000,41.100
1.698,-47.700,-6.500,10.300,40.600
1.699,-52.500,-9.100,8.400,39.700
1.700,-56.900,-11.400,6.500,38.700
1.701,-60.500,-13.600,4.800,37.700
1.702,-63.200,-15.800,3.400,36.400
1.703,-65.100,-18.200,2.000,34.800
1.704,-66.500,-20.900,0.600,32.700
1.705,-67.600,-23.400,-0.700,30.400
1.706,-68.600,-25.300,-1.600,28.200
1.707,-69.200,-25.900,-1.900,26.600
1.708,-69.200,-25.300,-1.500,25.600
1.709,-68.300,-23.900,-0.700,24.900
1.710,-66.100,-22.300,0.000,23.800
1.711,-62.700,-21.400,-0.100,21.600
1.712,-58.200,-21.600,-1.300,17.900
1.713,-53.100,-22.900,-3.500,12.700
1.714,-47.900,-24.600,-6.300,6.700
1.715,-43.000,-26.100,-9.000,0.700
1.716,-38.500,-26.500,-11.100,-4.600
1.717,-34.300,-25.700,-12.100,-8.700
1.718,-30.200,-24.100,-11.900,-11.600
1.719,-26.200,-22.400,-11.000,-13.600
1.720,-22.300,-21.400,-10.000,-15.100
1.721,-19.100,-21.400,-9.400,-16.500
1.722,-16.900,-22.100,-9.300,-17.800
1.723,-15.800,-22.800,-9.500,-18.900
1.724,-15.300,-22.800,-9.800,-19.700
1.725,-14.800,-22.000,-9.900,-20.000
1.726,-13.900,-20.600,-10.000,-19.800
1.727,-12.400,-19.400,-10.400,-19.600
1.728,-10.800,-18.900,-11.500,-19.700
1.729,-9.400,-19.200,-13.400,-20.200
1.730,-8.600,-19.900,-15.500,-21.100
1.731,-8.500,-20.200,-17.200,-22.200
1.732,-8.700,-19.700,-17.900,-22.900
1.733,-9.000,-18.500,-17.400,-23.200
1.734,-8.900,-17.100,-16.200,-22.800
1.735,-8.700,-16.000,-15.100,-22.200
1.736,-8.300,-15.600,-14.300,-21.500
1.737,-8.000,-15.600,-13.900,-20.900
1.738,-7.800,-15.700,-13.400,-20.400
1.739,-7.600,-15.500,-12.300,-19.600
1.740,-7.300,-14.400,-10.600,-18.300
1.741,-6.800,-12.700,-8.400,-16.600
1.742,-6.400,-10.400,-6.100,-14.500
1.743,-5.900,-7.900,-4.300,-12.500
1.744,-5.500,-5.400,-3.100,-10.700
1.745,-5.000,-3.100,-2.300,-9.300
1.746,-4.300,-1.100,-1.900,-8.100
1.747,-3.600,0.600,-1.500,-7.000
1.748,-2.900,2.400,-1.100,-5.900
1.749,-2.500,4.400,-0.800,-4.900
1.750,-2.400,6.600,-0.600,-4.500
1.751,-2.800,8.800,-0.400,-4.500
1.752,-3.400,10.600,-0.200,-5.000
1.753,-4.000,11.500,0.200,-5.500
1.754,-4.200,11.700,0.800,-5.600
1.755,-4.000,11.500,1.600,-5.200
1.756,-3.300,11.400,2.300,-4.400
1.757,-2.400,11.800,2.800,-3.800
1.758,-1.500,12.600,3.000,-3.500
1.759,-0.700,13.400,2.900,-3.700
1.760,-0.100,13.500,2.500,-4.100
1.761,0.300,13.100,2.100,-4.400
1.762,0.400,12.400,1.900,-4.200
1.763,0.300,12.200,2.000,-3.600
1.764,0.000,13.000,2.300,-2.800
1.765,-0.500,14.600,2.600,-2.400
1.766,-0.900,16.400,2.700,-2.300
1.767,-1.100,17.600,2.200,-2.500
1.768,-1.100,18.000,1.400,-2.600
1.769,-0.800,17.500,0.400,-2.400
1.770,-0.200,16.900,-0.300,-1.900
1.771,0.400,16.600,-0.600,-1.200
1.772,0.900,16.600,-0.200,-0.700
1.773,0.900,16.700,0.600,-0.600
1.774,0.600,16.300,1.500,-0.800
1.775,0.000,15.500,2.200,-1.000
1.776,-0.500,14.400,2.500,-1.000
1.777,-0.700,13.800,2.400,-0.600
1.778,-0.300,14.000,2.100,0.000
1.779,0.400,15.000,2.000,0.700
1.780,1.300,16.200,2.300,1.100
1.781,1.800,17.000,3.300,1.500
1.782,2.000,17.100,4.700,1.900
1.783,1.900,16.600,6.100,2.300
1.784,1.900,15.900,7.100,2.800
1.785,2.200,15.400,7.200,3.200
1.786,2.700,15.000,6.600,3.500
1.787,3.300,14.600,5.500,3.500
1.788,3.800,14.300,4.500,3.200
1.789,3.800,14.200,4.200,2.900
1.790,3.600,14.600,4.400,2.500
1.791,3.400,15.600,5.100,2.100
1.792,3.400,16.800,5.600,1.700
1.793,3.400,17.700,5.700,1.500
1.794,3.400,17.700,5.300,1.500
1.795,3.000,16.600,4.600,1.700
1.796,2.400,15.000,4.100,2.200
1.797,1.800,13.700,3.800,2.800
1.798,1.300,13.200,3.700,3.400
1.799,1.000,13.500,3.600,3.700
1.800,0.800,14.200,3.200,3.600
1.801,0.600,14.400,2.800,3.200
1.802,0.100,14.000,2.400,2.700
1.803,-0.400,13.000,2.500,2.200
1.804,-0.800,12.100,3.000,1.900
1.805,-0.800,11.600,3.900,2.000
1.806,-0.400,11.800,4.500,2.300
1.807,0.100,12.500,4.700,2.600
1.808,0.800,13.300,4.300,2.800
1.809,1.300,14.100,3.500,2.900
1.810,1.800,14.900,2.800,3.100
1.811,2.000,15.800,2.800,3.500
1.812,2.100,16.700,3.400,4.300
1.813,2.000,17.500,4.500,5.100
1.814,1.600,18.000,5.600,5.800
1.815,1.100,17.900,6.100,5.800
1.816,0.700,17.400,5.700,5.200
1.817,0.500,16.700,4.800,4.200
1.818,0.400,16.400,3.600,3.300
1.819,0.500,16.600,2.900,2.800
1.820,0.600,17.500,2.700,3.100
1.821,0.600,18.800,3.200,3.900
1.822,0.700,19.700,3.800,4.900
1.823,0.700,19.900,4.300,5.600
1.824,0.600,19.100,4.300,5.800
1.825,0.300,17.700,3.900,5.600
1.826,-0.100,16.300,3.200,5.200
1.827,-0.500,15.600,2.700,5.000
1.828,-0.700,16.100,2.400,5.100
1.829,-0.600,17.500,2.700,5.600
1.830,-0.100,19.100,3.400,6.400
1.831,0.700,20.400,4.300,7.300
1.832,1.400,21.100,5.200,8.100
1.833,2.000,21.200,5.800,8.400
1.834,2.400,21.500,6.200,8.400
1.835,2.600,22.000,6.400,8.100
1.836,2.900,22.600,6.600,7.800
1.837,3.100,22.500,6.900,7.800
1.838,3.100,21.100,7.200,8.000
1.839,2.700,18.100,7.200,8.400
1.840,1.800,14.200,6.600,8.900
1.841,0.600,10.500,5.600,9.200
1.842,-0.700,8.200,4.300,9.100
1.843,-1.400,7.600,3.300,8.500
1.844,-1.300,8.400,3.100,7.800
1.845,-0.600,9.400,3.900,7.200
1.846,0.400,9.600,5.200,7.100
1.847,1.200,8.500,6.600,7.500
1.848,1.300,6.600,7.800,8.200
1.849,0.700,5.000,8.400,8.800
1.850,0.000,4.700,8.700,9.000
1.851,-0.600,6.000,8.700,8.700
1.852,-0.600,8.500,8.600,8.200
1.853,-0.100,11.400,8.300,7.900
1.854,0.300,13.800,7.500,7.800
1.855,0.200,15.200,6.200,7.900
1.856,-0.700,15.800,4.600,7.800
1.857,-2.200,16.000,3.100,7.100
1.858,-3.900,16.400,2.100,5.700
1.859,-5.300,17.200,1.600,4.200
1.860,-6.000,18.300,1.700,3.000
1.861,-6.000,19.400,2.100,2.600
1.862,-5.700,20.400,2.800,3.100
1.863,-5.400,21.100,3.700,4.000
1.864,-5.300,21.700,4.900,4.900
1.865,-5.200,22.200,6.500,5.500
1.866,-5.000,22.500,8.000,5.700
1.867,-4.500,22.500,9.200,5.900
1.868,-4.000,21.900,9.600,6.300
1.869,-3.700,20.700,9.100,6.600
1.870,-3.900,19.200,8.000,6.700
1.871,-4.600,17.600,7.000,6.200
1.872,-5.500,16.400,6.300,5.100
1.873,-6.100,15.600,6.300,4.000
1.874,-6.000,15.200,6.900,3.300
1.875,-5.200,14.900,7.600,3.500
1.876,-4.200,14.600,8.100,4.600
1.877,-3.500,14.000,8.300,6.000
1.878,-3.600,13.100,8.400,7.000
1.879,-4.200,11.900,8.400,7.300
1.880,-5.100,10.700,8.500,6.800
1.881,-5.700,9.800,8.900,6.200
1.882,-5.600,9.500,9.400,6.100
1.883,-5.000,9.800,9.700,6.700
1.884,-4.400,10.400,9.700,7.700
1.885,-4.300,10.900,9.400,8.600
1.886,-5.300,10.600,9.000,8.800
1.887,-7.100,9.200,8.500,8.000
1.888,-9.100,6.500,8.200,6.600
1.889,-10.800,3.000,8.000,5.200
1.890,-11.500,-0.600,7.800,4.400
1.891,-11.400,-3.300,7.500,4.400
1.892,-10.900,-4.800,6.900,4.900
1.893,-10.400,-4.700,6.100,5.500
1.894,-10.400,-3.600,5.400,5.500
1.895,-11.000,-2.200,4.900,5.100
1.896,-11.900,-1.400,4.900,4.500
1.897,-12.900,-1.400,5.200,4.300
1.898,-13.800,-2.200,5.700,4.700
1.899,-14.600,-3.100,6.100,5.700
1.900,-15.300,-3.400,6.100,7.000
1.901,-16.000,-2.900,5.800,8.100
1.902,-16.700,-1.700,5.400,8.400
1.903,-17.300,-0.500,5.200,7.900
1.904,-17.700,0.000,5.200,6.900
1.905,-17.900,-0.200,5.600,6.000
1.906,-17.800,-0.700,6.200,5.500
1.907,-17.600,-0.700,6.700,5.400
1.908,-17.400,0.100,7.000,5.700
1.909,-17.200,1.700,7.100,6.000
1.910,-17.300,3.500,6.900,5.900
1.911,-17.600,4.600,6.700,5.600
1.912,-18.100,4.500,6.500,5.400
1.913,-18.700,3.500,6.500,5.600
1.914,-19.000,2.000,6.600,6.200
1.915,-18.800,0.400,6.700,7.100
1.916,-18.300,-1.100,6.800,7.600
1.917,-17.600,-3.000,6.700,7.500
1.918,-17.200,-5.700,6.500,6.700
1.919,-17.100,-9.200,6.400,5.800
1.920,-17.600,-13.000,6.400,5.300
1.921,-18.200,-16.300,6.500,5.400
1.922,-18.700,-18.400,6.600,6.000
1.923,-19.000,-19.100,6.600,6.700
1.924,-19.200,-19.000,6.300,7.100
1.925,-19.600,-18.600,5.900,7.100
1.926,-20.200,-18.400,5.500,6.900
1.927,-21.000,-18.700,5.400,7.000
1.928,-21.600,-19.100,5.800,7.400
1.929,-21.600,-19.400,6.400,8.100
1.930,-21.100,-19.200,7.200,8.900
1.931,-20.100,-18.800,7.800,9.500
1.932,-19.100,-18.500,8.200,9.700
1.933,-18.500,-18.600,8.100,9.500
1.934,-18.600,-19.300,7.600,9.100
1.935,-19.000,-20.400,6.900,8.500
1.936,-19.400,-21.800,6.300,7.800
1.937,-19.600,-23.000,5.900,7.300
1.938,-19.400,-23.900,5.900,7.000
1.939,-19.000,-24.400,6.100,6.900
1.940,-18.600,-24.500,6.100,7.100
1.941,-18.600,-24.500,5.800,7.100
1.942,-19.000,-24.400,4.900,7.000
1.943,-19.600,-24.400,3.900,6.700
1.944,-20.000,-24.300,3.300,6.600
1.945,-20.000,-24.000,3.500,6.700
1.946,-19.500,-23.800,4.500,7.000
1.947,-18.700,-23.800,5.900,7.300
1.948,-17.900,-24.200,7.000,7.300
1.949,-17.400,-24.800,7.500,6.800
1.950,-17.100,-25.200,7.300,6.100
1.951,-16.900,-24.900,6.700,5.500
1.952,-16.500,-23.900,6.400,5.400
1.953,-15.700,-22.400,6.600,5.600
1.954,-14.700,-21.100,7.300,6.000
1.955,-13.700,-20.600,7.900,6.100
1.956,-13.200,-20.800,8.100,5.600
1.957,-13.100,-21.100,7.800,4.600
1.958,-13.400,-20.700,7.000,3.400
1.959,-13.700,-18.900,6.000,2.100
1.960,-13.700,-15.700,4.900,1.000
1.961,-13.400,-11.800,3.900,0.200
1.962,-12.900,-8.000,3.100,-0.500
1.963,-12.500,-5.000,2.700,-1.000
1.964,-12.100,-3.200,2.700,-1.500
1.965,-11.800,-2.200,3.300,-1.600
1.966,-11.000,-1.600,4.400,-1.200
1.967,-9.700,-0.700,5.800,-0.100
1.968,-7.500,0.600,7.500,2.000
1.969,-4.600,2.600,9.300,4.800
1.970,-1.100,4.700,11.400,8.200
1.971,2.500,6.600,13.800,11.500
1.972,5.700,7.600,16.400,14.500
1.973,8.600,7.900,19.100,17.400
1.974,11.100,7.800,21.800,20.600
1.975,13.500,8.200,24.800,24.900
1.976,16.400,10.000,28.000,30.600
1.977,19.900,13.300,31.400,37.400
1.978,23.700,17.500,34.600,44.000
1.979,27.100,21.200,37.000,49.000
1.980,29.300,23.400,37.800,51.500
1.981,30.000,23.400,37.100,51.100
1.982,29.200,21.800,35.100,48.600
1.983,27.500,19.600,32.500,45.000
1.984,25.400,17.800,29.700,41.200
1.985,23.400,16.500,26.800,37.000
1.986,21.300,14.600,23.400,31.800
1.987,18.500,10.900,19.100,24.700
1.988,14.500,4.900,13.500,15.500
1.989,9.500,-3.100,7.100,4.500
1.990,4.000,-11.300,0.700,-6.700
1.991,-1.100,-17.600,-4.900,-16.500
1.992,-4.800,-20.400,-8.900,-23.500
1.993,-6.800,-19.400,-11.000,-27.200
1.994,-7.600,-15.600,-11.300,-28.000
1.995,-7.500,-11.200,-10.400,-27.000
1.996,-7.200,-8.200,-8.600,-25.200
1.997,-6.800,-7.400,-6.400,-23.600
1.998,-6.300,-8.700,-4.400,-22.400
1.999,-5.500,-10.900,-2.700,-21.400
2.000,-4.300,-12.700,-1.300,-20.300
2.001,-3.200,-13.700,-0.100,-18.500
2.002,-2.200,-14.000,1.200,-16.100
2.003,-1.400,-14.300,2.600,-13.100
2.004,-0.600,-15.000,4.100,-10.300
2.005,0.200,-15.900,5.300,-8.300
2.006,1.400,-16.500,5.800,-7.400
2.007,2.600,-16.000,5.400,-7.600
2.008,3.400,-14.200,4.300,-8.400
2.009,3.700,-11.900,3.100,-9.100
2.010,3.500,-9.900,2.600,-9.200
2.011,3.000,-9.300,2.900,-8.800
2.012,2.500,-10.300,4.000,-8.300
2.013,2.400,-12.600,5.100,-8.200
2.014,2.300,-15.300,5.500,-8.900
2.015,2.200,-17.500,5.000,-10.000
2.016,1.900,-18.700,3.900,-11.100
2.017,1.500,-19.100,2.700,-11.600
2.018,1.200,-18.900,2.100,-11.400
2.019,1.300,-18.600,2.300,-10.700
2.020,1.700,-18.500,2.900,-9.900
2.021,2.300,-18.900,3.600,-9.400
2.022,2.700,-19.600,3.800,-9.400
2.023,2.700,-20.500,3.400,-9.800
2.024,2.300,-21.600,2.600,-10.400
2.025,1.700,-22.500,1.900,-10.800
2.026,1.200,-23.100,1.400,-11.000
2.027,1.000,-23.200,1.400,-11.100
2.028,1.000,-22.900,1.500,-11.300
2.029,1.100,-22.400,1.500,-11.500
2.030,1.200,-22.200,1.200,-11.900
2.031,1.200,-22.500,0.600,-12.100
2.032,1.000,-23.200,0.000,-12.100
2.033,0.900,-23.900,-0.300,-11.500
2.034,0.900,-24.100,-0.100,-10.500
2.035,1.000,-23.400,0.500,-9.300
2.036,1.500,-22.200,1.500,-8.500
2.037,2.100,-20.900,2.400,-8.500
2.038,2.800,-20.300,3.100,-9.100
2.039,3.500,-20.600,3.600,-10.100
2.040,4.000,-21.600,3.900,-11.000
2.041,4.200,-22.900,4.200,-11.400
2.042,4.200,-23.800,4.400,-11.300
2.043,4.100,-24.200,4.400,-10.900
2.044,4.000,-24.200,4.100,-10.700
2.045,3.900,-24.200,3.500,-10.800
2.046,3.800,-24.200,2.700,-11.100
2.047,3.800,-24.400,2.000,-11.500
2.048,3.600,-24.600,1.500,-11.600
2.049,3.400,-24.800,1.300,-11.600
2.050,3.200,-25.000,1.400,-11.500
2.051,3.200,-25.100,1.400,-11.600
2.052,3.400,-24.700,1.400,-11.800
2.053,3.600,-23.400,1.000,-12.100
2.054,3.800,-20.500,0.300,-12.300
2.055,3.700,-16.200,-0.600,-12.300
2.056,3.400,-10.900,-1.400,-11.900
2.057,3.100,-5.500,-1.900,-11.100
2.058,3.200,-1.200,-1.800,-9.900
2.059,4.000,1.500,-1.100,-8.800
2.060,5.200,2.500,0.000,-7.900
2.061,6.600,2.200,1.100,-7.600
2.062,7.600,1.300,2.000,-7.800
2.063,8.000,0.300,2.200,-8.400
2.064,7.700,-0.700,1.900,-9.000
2.065,7.200,-1.500,1.000,-9.300
2.066,6.800,-2.100,-0.200,-9.500
2.067,6.600,-2.600,-1.500,-9.700
2.068,6.400,-2.700,-2.800,-10.100
2.069,5.800,-2.500,-3.900,-10.800
2.070,4.700,-2.200,-4.600,-11.700
2.071,3.200,-1.800,-4.700,-12.500
2.072,1.900,-1.400,-4.400,-12.900
2.073,1.400,-0.800,-3.700,-13.000
2.074,1.700,-0.200,-3.000,-13.100
2.075,2.600,0.700,-2.700,-13.500
2.076,3.200,1.400,-3.000,-14.200
2.077,3.100,1.800,-3.600,-15.000
2.078,2.200,1.600,-4.300,-15.500
2.079,0.900,0.900,-4.700,-15.400
2.080,-0.200,0.000,-4.700,-14.700
2.081,-0.700,-0.500,-4.500,-14.000
2.082,-0.300,-0.400,-4.200,-13.500
2.083,0.400,0.200,-4.100,-13.600
2.084,1.100,0.700,-4.100,-14.300
2.085,1.400,0.600,-4.200,-15.100
2.086,1.500,-0.200,-4.300,-15.800
2.087,1.300,-1.600,-4.400,-16.300
2.088,1.200,-3.000,-4.700,-16.700
2.089,1.100,-4.000,-5.200,-17.200
2.090,0.800,-4.400,-5.800,-17.800
2.091,0.100,-4.300,-6.300,-18.500
2.092,-0.700,-4.000,-6.400,-18.900
2.093,-1.300,-3.700,-6.100,-18.900
2.094,-1.300,-3.400,-5.600,-18.600
2.095,-0.400,-2.800,-5.400,-18.000
2.096,1.000,-1.800,-5.800,-17.500
2.097,2.400,-0.400,-6.700,-17.200
2.098,3.300,1.100,-7.600,-17.100
2.099,3.400,2.100,-8.000,-17.200
2.100,2.800,2.500,-7.300,-17.200
2.101,1.900,2.300,-5.800,-17.200
2.102,1.200,1.700,-3.800,-17.200
2.103,1.000,0.900,-2.100,-17.200
2.104,1.100,0.000,-1.200,-17.100
2.105,1.400,-1.000,-0.900,-17.000
2.106,1.800,-2.200,-1.100,-16.800
2.107,2.200,-3.700,-1.100,-16.400
2.108,2.500,-5.200,-0.900,-15.800
2.109,2.900,-6.200,-0.300,-15.300
2.110,3.200,-6.500,0.100,-14.900
2.111,3.500,-6.500,0.000,-14.700
2.112,3.500,-6.300,-0.700,-14.700
2.113,3.300,-6.400,-1.900,-14.900
2.114,2.800,-6.900,-3.400,-15.200
2.115,2.400,-7.600,-4.500,-15.200
2.116,2.100,-7.900,-5.200,-15.000
2.117,2.200,-7.500,-5.300,-14.500
2.118,2.400,-6.300,-5.000,-13.900
2.119,2.800,-4.500,-4.500,-13.600
2.120,2.900,-2.900,-4.200,-13.800
2.121,2.900,-1.900,-4.200,-14.600
2.122,2.800,-1.700,-4.600,-15.700
2.123,2.800,-1.900,-4.900,-16.400
2.124,3.000,-2.000,-5.000,-16.300
2.125,3.500,-1.600,-4.500,-15.600
2.126,4.100,-0.700,-3.700,-14.400
2.127,4.500,0.500,-2.600,-13.500
2.128,4.600,1.600,-1.700,-13.100
2.129,4.400,2.300,-1.300,-13.300
2.130,3.900,2.600,-1.300,-13.800
2.131,3.400,2.600,-1.800,-14.300
2.132,3.000,2.500,-2.400,-14.500
2.133,2.700,2.400,-2.900,-14.400
2.134,2.700,2.300,-3.500,-14.300
2.135,2.800,1.900,-3.900,-14.400
2.136,2.800,1.200,-4.200,-14.700
2.137,2.500,0.200,-4.300,-15.100
2.138,1.800,-1.000,-4.500,-15.400
2.139,0.600,-2.100,-4.900,-15.600
2.140,-0.700,-2.800,-5.700,-15.800
2.141,-1.800,-3.200,-6.600,-16.200
2.142,-2.100,-3.100,-7.600,-16.700
2.143,-1.800,-2.600,-8.100,-17.100
2.144,-1.200,-1.700,-8.000,-17.400
2.145,-0.700,-0.700,-7.200,-17.500
2.146,-0.600,0.200,-6.100,-17.400
2.147,-1.200,1.000,-5.200,-17.300
2.148,-1.900,1.600,-4.800,-17.400
2.149,-2.300,2.200,-4.900,-17.500
2.150,-2.300,3.000,-5.300,-17.700
2.151,-1.900,3.900,-5.600,-17.700
2.152,-1.300,4.700,-5.700,-17.500
2.153,-0.800,5.000,-5.500,-17.100
2.154,-0.600,4.400,-5.400,-16.800
2.155,-0.600,3.100,-5.500,-16.700
2.156,-0.700,1.300,-6.100,-17.000
2.157,-0.600,-0.300,-7.000,-17.600
2.158,-0.400,-1.100,-8.000,-18.100
2.159,-0.200,-0.900,-8.900,-18.400
2.160,0.000,0.100,-9.200,-18.300
2.161,0.200,1.700,-8.900,-17.900
2.162,0.300,3.100,-8.200,-17.500
2.163,0.100,3.900,-7.400,-17.400
2.164,-0.400,3.800,-6.900,-17.800
2.165,-1.100,3.100,-6.700,-18.600
2.166,-2.000,2.200,-6.900,-19.400
2.167,-2.900,1.400,-7.100,-19.900
2.168,-3.500,1.100,-7.100,-20.000
2.169,-3.900,1.100,-7.000,-19.700
2.170,-4.200,1.000,-6.900,-19.200
2.171,-4.600,0.400,-7.100,-18.900
2.172,-5.200,-0.900,-7.900,-19.000
2.173,-6.000,-2.700,-9.000,-19.600
2.174,-6.900,-4.300,-10.200,-20.400
2.175,-7.600,-5.200,-11.100,-21.300
2.176,-8.200,-5.100,-11.700,-21.900
2.177,-8.400,-4.100,-11.800,-22.200
2.178,-8.400,-2.700,-11.700,-22.200
2.179,-8.100,-1.300,-11.500,-21.900
2.180,-7.600,-0.100,-11.300,-21.300
2.181,-7.100,0.800,-10.900,-20.700
2.182,-6.800,1.500,-10.500,-20.100
2.183,-6.900,2.000,-10.000,-19.800
2.184,-7.200,2.100,-9.700,-19.700
2.185,-7.700,2.100,-9.700,-19.900
2.186,-7.900,1.800,-9.800,-20.100
2.187,-7.500,1.800,-9.900,-20.100
2.188,-6.600,2.200,-9.800,-19.900
2.189,-5.400,2.900,-9.400,-19.700
2.190,-4.400,3.500,-8.900,-19.500
2.191,-4.100,3.500,-8.700,-19.600
2.192,-4.500,2.400,-8.900,-20.000
2.193,-5.500,0.500,-9.800,-20.500
2.194,-6.700,-1.900,-11.200,-20.900
2.195,-7.700,-4.000,-12.700,-21.300
2.196,-8.000,-5.400,-13.800,-21.500
2.197,-7.800,-6.100,-14.200,-21.500
2.198,-7.100,-6.300,-13.900,-21.400
2.199,-6.400,-6.400,-13.000,-21.200
2.200,-6.000,-6.800,-11.900,-20.800
2.201,-5.900,-7.300,-10.900,-20.400
2.202,-6.000,-7.800,-10.300,-20.300
2.203,-6.200,-8.000,-10.200,-20.700
2.204,-6.300,-8.000,-10.700,-21.500
2.205,-6.200,-7.900,-11.600,-22.500
2.206,-6.100,-8.000,-12.400,-23.300
2.207,-6.200,-8.300,-13.000,-23.500
2.208,-6.500,-9.000,-13.300,-23.300
2.209,-6.900,-9.700,-13.200,-23.000
2.210,-7.300,-10.500,-13.100,-22.900
2.211,-7.400,-11.000,-13.000,-23.200
2.212,-7.300,-11.400,-12.900,-23.800
2.213,-7.100,-11.500,-12.700,-24.200
2.214,-6.900,-11.700,-12.200,-24.300
2.215,-6.900,-12.100,-11.500,-24.100
2.216,-7.200,-13.000,-10.900,-24.000
2.217,-7.800,-14.300,-10.800,-24.300
2.218,-8.400,-15.600,-11.100,-25.100
2.219,-8.900,-16.700,-11.900,-26.200
2.220,-9.100,-17.400,-12.500,-26.900
2.221,-9.200,-17.800,-12.700,-27.100
2.222,-9.200,-18.000,-12.100,-26.700
2.223,-9.300,-18.400,-11.200,-26.200
2.224,-9.400,-19.000,-10.300,-26.100
2.225,-9.500,-19.500,-10.000,-26.500
2.226,-9.400,-19.500,-10.400,-27.400
2.227,-9.100,-18.900,-11.200,-28.200
2.228,-8.600,-17.900,-12.000,-28.400
2.229,-8.100,-17.200,-12.400,-28.000
2.230,-7.900,-17.200,-12.200,-27.200
2.231,-8.000,-18.300,-11.600,-26.600
2.232,-8.300,-20.100,-10.800,-26.600
2.233,-8.700,-22.000,-10.100,-27.400
2.234,-9.000,-23.400,-9.600,-28.400
2.235,-9.100,-24.000,-9.300,-29.400
2.236,-9.100,-24.200,-9.400,-29.900
2.237,-9.200,-24.200,-9.700,-30.000
2.238,-9.500,-24.700,-10.200,-29.900
2.239,-10.000,-25.600,-10.900,-29.800
2.240,-10.400,-26.600,-11.600,-29.700
2.241,-10.500,-27.300,-12.000,-29.700
2.242,-10.200,-27.400,-12.100,-29.500
2.243,-9.500,-27.000,-11.700,-29.100
2.244,-8.600,-26.400,-11.000,-28.600
2.245,-7.600,-25.800,-10.200,-28.200
2.246,-6.800,-25.400,-9.500,-27.900
2.247,-6.200,-25.200,-9.000,-27.700
2.248,-5.600,-25.100,-8.800,-27.500
2.249,-4.900,-24.700,-8.700,-27.200
2.250,-4.300,-24.100,-8.800,-27.000
2.251,-3.800,-23.300,-9.100,-26.900
2.252,-3.300,-22.300,-9.500,-26.900
2.253,-3.000,-21.400,-9.900,-27.200
2.254,-3.000,-20.900,-10.300,-27.500
2.255,-3.300,-21.000,-10.800,-27.900
2.256,-4.000,-21.900,-11.600,-28.400
2.257,-5.200,-23.300,-12.600,-28.800
2.258,-6.600,-24.600,-13.600,-29.300
2.259,-8.000,-25.500,-14.200,-29.700
2.260,-8.800,-25.800,-14.300,-30.000
2.261,-8.700,-25.500,-13.700,-30.200
2.262,-8.000,-25.200,-12.500,-30.300
2.263,-7.000,-25.300,-11.300,-30.300
2.264,-6.200,-25.800,-10.400,-30.200
2.265,-5.900,-26.400,-9.800,-29.700
2.266,-5.900,-26.500,-9.400,-28.800
2.267,-5.900,-25.700,-9.000,-27.600
2.268,-5.600,-24.100,-8.500,-26.400
2.269,-5.200,-22.400,-8.100,-25.600
2.270,-4.900,-21.300,-8.200,-25.700
2.271,-5.300,-21.300,-8.900,-26.400
2.272,-6.200,-22.200,-10.000,-27.600
2.273,-7.600,-23.400,-10.900,-28.500
2.274,-8.700,-24.200,-11.300,-28.900
2.275,-9.200,-24.500,-11.000,-28.900
2.276,-9.200,-24.500,-10.000,-28.600
2.277,-8.900,-24.500,-9.000,-28.300
2.278,-8.900,-25.100,-8.200,-28.300
2.279,-9.100,-26.000,-7.800,-28.400
2.280,-9.600,-27.100,-7.900,-28.400
2.281,-9.800,-27.900,-8.100,-28.200
2.282,-9.600,-28.200,-8.300,-27.900
2.283,-9.000,-28.000,-8.300,-27.800
2.284,-8.600,-27.800,-8.300,-28.000
2.285,-8.500,-27.900,-8.300,-28.600
2.286,-9.100,-28.200,-8.500,-29.500
2.287,-10.100,-28.900,-8.900,-30.300
2.288,-11.000,-29.800,-9.500,-30.900
2.289,-11.500,-30.700,-10.200,-31.500
2.290,-11.600,-31.600,-10.800,-32.100
2.291,-11.500,-32.400,-11.200,-32.900
2.292,-11.400,-33.000,-11.600,-33.900
2.293,-11.700,-33.000,-12.100,-35.000
2.294,-12.100,-32.400,-12.600,-36.000
2.295,-12.500,-31.100,-13.300,-36.600
2.296,-12.600,-29.500,-13.800,-36.700
2.297,-12.300,-28.100,-14.200,-36.500
2.298,-11.700,-27.300,-14.200,-36.100
2.299,-11.200,-27.200,-14.000,-35.700
2.300,-11.000,-27.800,-13.700,-35.600
2.301,-11.000,-28.600,-13.400,-35.700
2.302,-11.300,-29.400,-13.300,-35.800
2.303,-11.600,-30.000,-13.100,-35.700
2.304,-11.800,-30.400,-12.800,-35.300
2.305,-11.700,-30.400,-12.500,-34.500
2.306,-11.400,-30.200,-12.300,-33.600
2.307,-11.300,-29.800,-12.300,-32.900
2.308,-11.400,-29.300,-12.700,-32.700
2.309,-11.800,-28.900,-13.200,-33.100
2.310,-12.500,-29.000,-13.700,-34.000
2.311,-13.200,-29.700,-13.900,-34.900
2.312,-13.700,-30.500,-13.900,-35.700
2.313,-13.800,-31.100,-13.800,-35.900
2.314,-13.400,-31.100,-14.000,-35.800
2.315,-12.800,-30.300,-14.400,-35.500
2.316,-12.200,-29.200,-14.900,-35.300
2.317,-12.000,-28.600,-15.300,-35.300
2.318,-12.300,-28.900,-15.100,-35.400
2.319,-12.800,-30.100,-14.500,-35.400
2.320,-13.400,-31.800,-13.600,-35.000
2.321,-13.600,-33.000,-12.800,-34.200
2.322,-13.400,-32.900,-12.400,-33.300
2.323,-13.200,-31.500,-12.600,-32.600
2.324,-13.200,-29.100,-13.200,-32.500
2.325,-13.600,-26.600,-14.000,-32.800
2.326,-14.300,-24.500,-14.800,-33.200
2.327,-15.000,-23.300,-15.400,-33.300
2.328,-15.300,-22.500,-15.400,-33.000
2.329,-14.800,-21.700,-14.700,-32.300
2.330,-13.500,-20.400,-13.300,-31.400
2.331,-11.900,-18.400,-11.500,-30.700
2.332,-10.300,-16.100,-9.900,-30.300
2.333,-9.300,-14.100,-9.000,-30.300
2.334,-8.800,-12.900,-9.200,-30.500
2.335,-8.900,-12.800,-10.300,-30.900
2.336,-9.200,-13.700,-11.700,-31.300
2.337,-9.500,-15.000,-12.900,-31.800
2.338,-9.700,-16.200,-13.300,-32.100
2.339,-9.800,-17.000,-13.000,-32.200
2.340,-9.900,-17.300,-12.400,-31.900
2.341,-10.300,-17.300,-12.000,-31.300
2.342,-11.000,-17.300,-11.900,-30.700
2.343,-11.800,-17.300,-12.000,-30.500
2.344,-12.500,-17.200,-12.100,-30.800
2.345,-12.700,-16.800,-12.000,-31.500
2.346,-12.300,-15.900,-11.600,-32.300
2.347,-11.500,-14.800,-11.200,-32.700
2.348,-10.700,-14.000,-11.100,-32.600
2.349,-10.300,-13.900,-11.400,-32.100
2.350,-10.600,-14.900,-12.000,-31.400
2.351,-11.500,-16.900,-12.700,-30.800
2.352,-12.600,-19.000,-13.100,-30.400
2.353,-13.400,-20.400,-13.000,-29.900
2.354,-13.400,-20.500,-12.600,-29.300
2.355,-12.700,-19.100,-11.900,-28.600
2.356,-11.700,-16.800,-11.400,-28.000
2.357,-10.900,-14.700,-11.400,-27.800
2.358,-10.900,-13.600,-12.000,-28.300
2.359,-11.600,-13.600,-13.100,-29.400
2.360,-12.800,-14.400,-14.400,-30.700
2.361,-13.900,-15.200,-15.300,-31.800
2.362,-14.500,-15.300,-15.600,-32.300
2.363,-14.400,-14.700,-15.200,-32.300
2.364,-13.800,-13.600,-14.500,-31.900
2.365,-13.200,-12.400,-13.700,-31.400
2.366,-13.100,-11.700,-13.300,-31.100
2.367,-13.600,-11.500,-13.300,-31.000
2.368,-14.500,-11.500,-13.600,-31.100
2.369,-15.300,-11.400,-13.900,-31.300
2.370,-15.600,-11.300,-14.200,-31.700
2.371,-15.400,-11.200,-14.500,-32.100
2.372,-15.000,-11.300,-14.900,-32.700
2.373,-14.900,-11.800,-15.500,-33.200
2.374,-15.500,-12.500,-16.100,-33.600
2.375,-16.600,-13.200,-16.600,-33.800
2.376,-17.800,-13.500,-16.600,-33.600
2.377,-18.600,-13.400,-16.200,-33.200
2.378,-18.700,-13.000,-15.200,-32.500
2.379,-18.200,-12.500,-14.100,-31.900
2.380,-17.500,-12.300,-13.300,-31.500
2.381,-17.100,-12.400,-13.000,-31.300
2.382,-17.300,-12.900,-13.400,-31.600
2.383,-17.900,-13.500,-14.400,-32.200
2.384,-18.500,-13.900,-15.700,-32.900
2.385,-18.700,-14.000,-16.600,-33.400
2.386,-18.200,-13.600,-17.000,-33.500
2.387,-17.200,-12.700,-16.800,-33.200
2.388,-16.200,-11.800,-16.600,-32.700
2.389,-15.700,-11.100,-16.600,-32.300
2.390,-16.100,-10.700,-17.300,-32.200
2.391,-17.100,-10.600,-18.400,-32.700
2.392,-18.500,-10.600,-19.500,-33.300
2.393,-19.600,-10.400,-19.900,-33.800
2.394,-19.800,-10.000,-19.300,-33.900
2.395,-19.200,-9.500,-17.800,-33.400
2.396,-17.900,-9.200,-15.900,-32.300
2.397,-16.400,-9.100,-14.000,-30.800
2.398,-15.200,-9.200,-12.400,-29.200
2.399,-14.100,-9.200,-11.200,-27.500
2.400,-13.100,-8.800,-10.100,-25.600
2.401,-11.800,-7.600,-8.900,-23.200
2.402,-9.700,-5.500,-7.200,-19.900
2.403,-6.800,-2.400,-4.500,-15.400
2.404,-3.300,1.500,-1.000,-9.600
2.405,0.500,5.800,3.200,-3.200
2.406,4.000,9.800,7.300,2.900
2.407,6.600,12.900,10.500,7.600
2.408,8.100,14.600,12.100,10.100
2.409,8.400,14.700,12.000,10.400
2.410,7.800,13.600,10.500,8.800
2.411,6.600,11.800,8.400,6.400
2.412,5.200,9.800,6.200,3.600
2.413,3.600,7.600,4.100,0.400
2.414,1.600,5.000,1.600,-3.600
2.415,-0.900,1.500,-1.900,-9.100
2.416,-4.100,-3.300,-6.800,-16.300
2.417,-7.800,-9.200,-12.900,-25.100
2.418,-11.700,-15.900,-19.400,-34.300
2.419,-15.400,-22.200,-25.100,-42.600
2.420,-18.500,-27.500,-29.000,-49.100
2.421,-20.800,-31.100,-30.900,-53.100
2.422,-22.200,-32.800,-30.700,-54.700
2.423,-22.900,-32.900,-29.300,-54.500
2.424,-22.900,-32.000,-27.500,-53.300
2.425,-22.500,-30.700,-25.900,-51.600
2.426,-21.900,-29.400,-24.700,-49.900
2.427,-21.500,-28.200,-23.900,-48.100
2.428,-21.200,-27.000,-23.000,-45.900
2.429,-20.900,-25.500,-21.700,-43.500
2.430,-20.600,-23.700,-20.100,-41.000
2.431,-20.200,-21.700,-18.200,-38.900
2.432,-19.700,-20.100,-16.500,-37.300
2.433,-19.400,-19.100,-15.500,-36.400
2.434,-19.400,-18.900,-15.300,-35.800
2.435,-19.400,-19.100,-15.600,-35.300
2.436,-19.300,-19.300,-16.200,-34.500
2.437,-18.800,-19.100,-16.700,-33.500
2.438,-18.000,-18.200,-16.800,-32.400
2.439,-17.100,-17.000,-16.700,-31.700
2.440,-16.600,-15.800,-16.500,-31.500
2.441,-16.700,-15.000,-16.400,-31.500
2.442,-17.100,-14.500,-16.500,-31.600
2.443,-17.500,-14.200,-16.700,-31.300
2.444,-17.600,-14.000,-17.000,-30.600
2.445,-17.400,-13.900,-17.300,-29.800
2.446,-17.200,-14.200,-17.600,-29.300
2.447,-17.400,-14.700,-17.800,-29.400
2.448,-17.800,-15.500,-17.800,-29.900
2.449,-18.300,-16.100,-17.500,-30.600
2.450,-18.300,-16.100,-17.200,-31.100
2.451,-17.700,-15.500,-16.900,-31.100
2.452,-16.800,-14.400,-16.800,-30.800
2.453,-15.900,-12.900,-16.800,-30.400
2.454,-15.400,-11.500,-16.900,-30.200
2.455,-15.400,-10.400,-16.700,-30.100
2.456,-15.500,-9.900,-16.100,-30.200
2.457,-15.300,-9.800,-15.300,-30.200
2.458,-14.800,-10.300,-14.600,-30.200
2.459,-14.400,-11.000,-14.600,-30.200
2.460,-14.500,-12.000,-15.600,-30.400
2.461,-15.500,-13.000,-17.200,-30.800
2.462,-17.100,-13.800,-19.100,-31.300
2.463,-18.600,-14.100,-20.500,-31.700
2.464,-19.300,-13.900,-21.100,-32.000
2.465,-18.800,-13.100,-20.900,-32.200
2.466,-17.500,-11.800,-20.300,-32.200
2.467,-16.000,-10.100,-19.500,-32.000
2.468,-15.000,-8.300,-18.800,-31.700
2.469,-14.800,-7.000,-18.000,-31.200
2.470,-15.200,-6.500,-16.900,-30.400
2.471,-15.600,-7.200,-15.300,-29.400
2.472,-15.800,-9.000,-13.500,-28.300
2.473,-15.300,-11.400,-11.700,-27.400
2.474,-14.500,-13.700,-10.500,-26.900
2.475,-13.300,-15.300,-9.900,-26.800
2.476,-12.100,-16.000,-9.800,-27.000
2.477,-10.900,-15.800,-9.900,-27.000
2.478,-9.400,-15.000,-9.700,-26.500
2.479,-7.600,-13.700,-9.000,-25.300
2.480,-5.500,-12.000,-7.500,-23.300
2.481,-3.100,-9.800,-5.400,-20.900
2.482,-0.600,-6.900,-2.900,-18.400
2.483,1.500,-3.600,-0.200,-16.100
2.484,3.100,-0.300,2.300,-13.900
2.485,4.000,2.400,4.500,-11.900
2.486,4.200,4.000,6.400,-9.700
2.487,4.000,4.700,8.100,-7.300
2.488,3.300,4.900,9.600,-4.700
2.489,2.100,5.000,11.000,-2.400
2.490,0.400,5.200,11.900,-0.400
2.491,-2.200,5.500,12.100,1.200
2.492,-5.500,5.400,11.400,2.600
2.493,-9.500,4.500,10.000,4.000
2.494,-13.800,2.800,8.300,5.600
2.495,-18.100,0.400,6.800,7.300
2.496,-22.300,-2.300,6.000,8.800
2.497,-26.700,-4.900,5.800,10.000
2.498,-31.600,-7.300,5.800,10.600
2.499,-37.200,-9.700,5.400,10.800
2.500,-43.200,-12.100,4.400,10.700
2.501,-49.400,-14.300,2.700,10.500
2.502,-55.200,-16.100,0.400,10.000
2.503,-60.200,-17.300,-2.200,9.100
2.504,-64.400,-17.900,-5.000,7.600
2.505,-68.000,-18.400,-8.000,5.700
2.506,-71.100,-19.200,-11.300,3.500
2.507,-73.900,-20.400,-14.500,1.500
2.508,-76.200,-21.900,-17.300,0.000
2.509,-77.700,-23.300,-18.800,-0.900
2.510,-78.200,-24.000,-18.800,-1.300
2.511,-77.700,-23.800,-17.400,-1.300
2.512,-76.500,-22.700,-15.300,-1.500
2.513,-74.700,-21.400,-13.500,-2.000
2.514,-72.600,-20.500,-12.800,-3.200
2.515,-70.400,-20.400,-13.600,-5.100
2.516,-67.900,-21.400,-15.500,-7.700
2.517,-65.000,-22.900,-17.600,-10.800
2.518,-61.800,-24.200,-19.400,-14.500
2.519,-58.000,-24.800,-20.700,-18.800
2.520,-53.700,-24.500,-21.800,-23.600
2.521,-49.100,-23.900,-23.000,-28.600
2.522,-44.200,-23.400,-24.400,-33.500
2.523,-39.400,-23.300,-25.500,-37.600
2.524,-34.700,-23.700,-26.100,-40.800
2.525,-30.600,-23.900,-25.800,-42.700
2.526,-27.100,-23.700,-25.300,-43.900
2.527,-24.400,-22.800,-25.000,-44.600
2.528,-22.700,-21.400,-25.500,-45.400
2.529,-21.700,-20.000,-26.600,-46.200
2.530,-21.200,-18.900,-27.600,-47.000
2.531,-20.800,-18.000,-28.100,-47.300
2.532,-20.200,-17.200,-27.800,-46.900
2.533,-19.200,-16.200,-26.900,-45.800
2.534,-17.800,-14.900,-26.100,-44.300
2.535,-16.100,-13.300,-25.600,-42.800
2.536,-14.500,-11.600,-25.400,-41.600
2.537,-13.100,-9.900,-25.000,-40.700
2.538,-11.900,-8.300,-23.900,-40.000
2.539,-11.000,-6.900,-22.300,-39.300
2.540,-10.300,-5.900,-20.500,-38.500
2.541,-9.900,-5.500,-19.200,-37.500
2.542,-9.600,-5.700,-18.800,-36.400
2.543,-9.700,-6.400,-18.900,-35.500
2.544,-9.900,-7.200,-19.000,-34.700
2.545,-10.100,-7.900,-18.800,-33.900
2.546,-10.100,-8.000,-17.900,-32.900
2.547,-9.800,-7.700,-16.400,-31.500
2.548,-9.200,-7.000,-14.700,-29.700
2.549,-8.400,-6.200,-13.100,-27.900
2.550,-7.800,-5.500,-11.600,-26.200
2.551,-7.600,-4.800,-10.500,-24.800
2.552,-7.800,-4.000,-9.700,-23.700
2.553,-8.200,-2.700,-9.200,-22.700
2.554,-8.500,-0.900,-9.100,-21.600
2.555,-8.300,1.500,-9.200,-20.400
2.556,-7.900,4.000,-9.300,-19.300
2.557,-7.400,6.100,-9.300,-18.400
2.558,-7.100,7.400,-9.000,-17.900
2.559,-6.900,8.000,-8.300,-17.500
2.560,-6.700,8.100,-7.300,-17.000
2.561,-6.100,8.300,-6.200,-16.100
2.562,-5.200,8.800,-5.100,-15.000
2.563,-4.100,9.800,-4.400,-14.000
2.564,-3.200,11.100,-4.100,-13.400
2.565,-2.600,12.300,-4.200,-13.400
2.566,-2.600,13.200,-4.500,-13.800
2.567,-2.800,13.900,-4.800,-14.500
2.568,-3.100,14.400,-4.700,-15.100
2.569,-3.500,14.600,-4.500,-15.700
2.570,-3.800,14.400,-4.300,-16.300
2.571,-4.000,13.700,-4.400,-17.000
2.572,-4.100,12.600,-4.600,-17.500
2.573,-4.000,11.400,-4.900,-17.700
2.574,-3.500,10.600,-4.800,-17.200
2.575,-2.600,10.500,-4.300,-16.100
2.576,-1.500,11.100,-3.500,-14.400
2.577,-0.600,12.100,-2.600,-12.700
2.578,0.000,13.200,-2.000,-11.300
2.579,0.200,14.200,-1.600,-10.400
2.580,0.100,14.900,-1.400,-10.000
2.581,-0.100,15.200,-1.200,-9.800
2.582,-0.400,15.200,-0.900,-9.800
2.583,-0.700,14.900,-0.700,-9.900
2.584,-1.100,14.300,-0.600,-10.100
2.585,-1.600,13.600,-0.700,-10.400
2.586,-2.100,13.100,-0.900,-10.700
2.587,-2.500,12.800,-0.800,-10.800
2.588,-2.600,12.900,-0.400,-10.700
2.589,-2.500,13.200,0.300,-10.500
2.590,-2.200,13.700,0.800,-10.200
2.591,-1.900,14.000,1.000,-10.000
2.592,-1.700,14.100,0.700,-10.000
2.593,-1.800,14.100,0.100,-10.200
2.594,-2.000,13.800,-0.300,-10.400
2.595,-2.400,13.200,-0.400,-10.500
2.596,-2.700,12.300,0.000,-10.300
2.597,-3.000,11.100,0.500,-9.800
2.598,-3.100,9.800,0.900,-9.300
2.599,-3.300,8.600,1.100,-8.700
2.600,-3.300,7.900,1.000,-8.400
2.601,-3.200,7.500,0.800,-8.200
2.602,-3.000,7.400,0.700,-8.000
2.603,-2.500,7.200,0.600,-7.800
2.604,-2.000,6.900,0.500,-7.500
2.605,-1.700,6.400,0.500,-7.300
2.606,-1.600,6.100,0.500,-7.100
2.607,-1.800,6.100,0.900,-7.000
2.608,-2.100,6.400,1.500,-6.800
2.609,-2.400,6.800,2.500,-6.300
2.610,-2.500,6.900,3.500,-5.500
2.611,-2.300,6.700,4.500,-4.300
2.612,-1.900,6.300,5.200,-3.000
2.613,-1.400,6.200,5.500,-2.100
2.614,-0.900,6.700,5.600,-1.700
2.615,-0.400,7.500,5.400,-1.900
2.616,0.100,8.400,5.000,-2.200
2.617,0.300,8.800,4.600,-2.200
2.618,0.400,8.800,4.200,-1.800
2.619,0.300,8.600,3.900,-1.000
2.620,0.300,8.700,3.800,-0.200
2.621,0.600,9.500,3.800,0.200
2.622,1.100,10.900,3.900,0.000
2.623,1.500,12.400,3.900,-0.500
2.624,1.500,13.300,4.000,-1.000
2.625,1.000,13.200,4.200,-1.200
2.626,0.100,12.300,4.600,-1.100
2.627,-0.700,11.000,5.200,-0.900
2.628,-1.100,9.900,5.900,-1.000
2.629,-1.000,9.200,6.300,-1.400
2.630,-0.500,8.900,6.300,-1.900
2.631,-0.200,8.800,6.200,-2.100
2.632,-0.300,8.600,6.200,-1.800
2.633,-0.700,8.200,6.600,-0.900
2.634,-1.300,7.800,7.300,0.200
2.635,-1.700,7.200,8.000,1.300
2.636,-1.700,6.400,8.300,1.900
2.637,-1.500,5.500,7.900,2.100
2.638,-1.200,4.700,6.800,2.100
2.639,-0.900,4.100,5.600,2.100
2.640,-0.700,4.100,4.700,2.400
2.641,-0.200,5.000,4.600,3.100
2.642,0.300,6.400,5.300,3.900
2.643,0.900,8.100,6.500,4.700
2.644,1.300,9.600,7.800,5.200
2.645,1.500,10.500,8.900,5.200
2.646,1.500,10.900,9.500,4.800
2.647,1.500,10.800,9.700,4.200
2.648,1.700,10.500,9.800,3.700
2.649,2.000,10.100,9.700,3.500
2.650,2.300,9.600,9.600,3.900
2.651,2.400,9.100,9.600,4.600
2.652,2.300,8.600,9.600,5.500
2.653,2.000,8.300,9.500,6.300
2.654,1.600,8.200,9.300,6.700
2.655,1.100,8.500,8.800,6.500
2.656,0.600,9.200,8.200,6.100
2.657,0.300,10.300,7.700,5.600
2.658,0.200,11.400,7.500,5.600
2.659,0.300,12.100,7.700,6.200
2.660,0.700,12.300,8.200,7.200
2.661,1.200,11.700,8.800,8.500
2.662,1.600,10.700,9.400,9.300
2.663,1.800,9.400,9.900,9.600
2.664,2.000,8.400,10.200,9.200
2.665,2.300,8.100,10.400,8.600
2.666,2.700,8.600,10.700,8.200
2.667,3.200,9.700,11.000,8.000
2.668,3.400,11.200,11.100,8.100
2.669,3.100,12.300,10.800,8.000
2.670,2.200,12.800,10.000,7.500
2.671,0.900,12.500,8.700,6.700
2.672,-0.400,11.700,7.200,5.700
2.673,-1.400,11.000,5.800,5.000
2.674,-1.900,10.500,5.000,5.000
2.675,-1.700,10.500,4.800,5.600
2.676,-1.200,11.000,5.300,6.600
2.677,-0.700,11.700,6.000,7.600
2.678,-0.500,12.400,6.700,8.200
2.679,-0.600,13.200,7.000,8.300
2.680,-1.200,13.800,6.800,7.700
2.681,-1.900,14.300,6.200,6.900
2.682,-2.600,14.600,5.600,6.300
2.683,-3.200,15.000,5.400,6.200
2.684,-3.500,15.300,5.600,6.700
2.685,-3.700,15.700,6.400,7.700
2.686,-4.000,16.100,7.400,8.800
2.687,-4.400,16.400,8.200,9.700
2.688,-5.100,16.300,8.600,10.200
2.689,-6.000,15.900,8.400,10.400
2.690,-6.800,15.300,7.900,10.400
2.691,-7.300,14.800,7.400,10.500
2.692,-7.400,14.700,7.200,10.700
2.693,-7.100,14.700,7.500,10.900
2.694,-6.700,14.600,8.100,10.900
2.695,-6.400,14.000,8.600,10.600
2.696,-6.700,12.800,8.900,10.000
2.697,-7.400,11.500,8.800,9.400
2.698,-8.500,10.800,8.400,8.800
2.699,-9.300,11.100,8.000,8.700
2.700,-9.600,12.600,7.800,8.900
2.701,-9.400,14.500,7.800,9.600
2.702,-8.900,16.100,8.100,10.600
2.703,-8.400,16.900,8.600,11.600
2.704,-8.300,16.600,9.000,12.600
2.705,-8.700,15.900,9.200,13.300
2.706,-9.400,15.300,9.000,13.800
2.707,-10.100,15.200,8.500,14.100
2.708,-10.600,15.700,7.600,14.100
2.709,-10.800,16.400,6.800,13.900
2.710,-10.800,16.900,6.200,13.300
2.711,-10.800,17.100,5.800,12.400
2.712,-10.900,17.000,5.600,11.400
2.713,-11.300,16.600,5.500,10.700
2.714,-11.900,16.200,5.300,10.300
2.715,-12.300,15.800,5.200,10.500
2.716,-12.600,15.500,5.400,10.900
2.717,-12.600,15.200,6.000,11.200
2.718,-12.300,15.200,6.900,11.200
2.719,-11.800,15.600,7.700,11.000
2.720,-11.400,16.300,8.200,10.600
2.721,-11.200,17.300,8.300,10.300
2.722,-11.100,18.100,8.000,10.300
2.723,-11.300,18.400,7.800,10.600
2.724,-11.700,18.100,7.900,10.900
2.725,-12.300,17.100,8.000,10.900
2.726,-13.200,15.500,7.900,10.700
2.727,-14.300,13.800,7.200,10.000
2.728,-15.700,12.200,5.800,9.100
2.729,-17.200,11.000,3.800,8.000
2.730,-18.600,10.300,1.700,6.900
2.731,-19.800,10.000,0.000,5.900
2.732,-20.500,9.800,-0.800,5.200
2.733,-20.600,9.600,-0.800,4.900
2.734,-20.300,9.600,-0.300,5.200
2.735,-19.700,10.200,0.500,6.000
2.736,-18.800,11.600,1.100,6.900
2.737,-17.800,13.900,1.400,7.900
2.738,-16.700,16.600,1.500,8.700
2.739,-15.600,19.100,1.600,9.300
2.740,-14.600,21.000,2.000,9.900
2.741,-13.800,21.900,2.700,10.400
2.742,-13.300,21.900,3.600,10.900
2.743,-13.200,21.500,4.600,11.400
2.744,-13.400,21.100,5.300,11.900
2.745,-13.700,20.900,5.800,12.400
2.746,-13.900,21.000,6.100,13.100
2.747,-13.600,21.300,6.400,13.800
2.748,-12.900,21.600,6.600,14.400
2.749,-11.900,21.900,6.900,14.500
2.750,-10.900,22.200,7.200,13.900
2.751,-10.300,22.500,7.200,12.700
2.752,-10.200,22.500,7.000,11.500
2.753,-10.500,22.000,6.700,10.500
2.754,-11.100,20.900,6.400,10.300
2.755,-11.800,19.400,6.300,10.700
2.756,-12.300,17.800,6.600,11.400
2.757,-12.600,16.600,7.200,12.000
2.758,-12.500,16.200,7.900,12.200
2.759,-11.900,16.700,8.700,12.000
2.760,-10.800,17.900,9.400,11.700
2.761,-9.300,19.300,10.000,11.500
2.762,-7.700,20.600,10.500,11.600
2.763,-6.100,21.200,11.000,11.800
2.764,-4.900,21.200,11.300,12.000
2.765,-4.200,20.800,11.200,11.800
2.766,-4.100,20.400,10.600,11.300
2.767,-4.600,20.200,9.600,10.400
2.768,-5.500,20.200,8.500,9.500
2.769,-6.200,20.400,7.700,8.700
2.770,-6.500,20.600,7.500,8.300
2.771,-6.100,20.800,8.000,8.400
2.772,-5.000,21.100,9.000,9.000
2.773,-3.600,21.800,10.200,9.700
2.774,-2.300,22.900,11.100,10.300
2.775,-1.400,24.200,11.500,10.200
2.776,-1.200,25.300,11.500,9.500
2.777,-1.400,25.800,11.400,8.300
2.778,-1.600,25.600,11.300,6.900
2.779,-1.500,25.000,11.500,5.600
2.780,-0.800,24.400,11.900,4.800
2.781,0.600,24.200,12.400,4.600
2.782,2.200,24.900,12.800,4.900
2.783,3.900,26.200,13.300,5.700
2.784,5.400,28.000,13.800,6.700
2.785,6.700,30.000,14.600,7.700
2.786,7.800,31.800,15.400,8.400
2.787,8.700,33.000,16.100,8.500
2.788,9.300,33.500,16.200,8.000
2.789,9.500,32.900,15.500,7.000
2.790,9.400,31.600,14.200,5.800
2.791,8.900,29.600,12.900,4.900
2.792,8.400,27.700,12.100,4.600
2.793,8.200,26.200,12.200,5.000
2.794,8.400,25.500,13.300,5.900
2.795,9.400,25.700,15.000,6.900
2.796,10.900,26.300,16.400,7.800
2.797,12.700,26.800,17.200,8.100
2.798,14.300,27.100,17.000,7.800
2.799,15.300,27.000,16.200,6.900
2.800,15.500,26.600,15.300,6.000
2.801,15.300,26.400,14.800,5.600
2.802,15.000,26.500,14.900,6.000
2.803,15.200,27.100,15.500,7.100
2.804,15.800,27.900,16.300,8.600
2.805,16.700,28.600,16.800,9.800
2.806,17.400,28.700,16.800,10.100
2.807,17.400,28.200,16.300,9.500
2.808,16.700,27.100,15.400,8.100
2.809,15.800,25.700,14.600,6.700
2.810,15.100,24.500,14.100,5.500
2.811,14.700,23.600,14.000,4.800
2.812,14.800,23.000,14.100,4.400
2.813,14.700,22.400,14.100,4.000
2.814,14.200,21.300,13.700,3.500
2.815,13.300,19.700,12.900,2.800
2.816,12.100,17.700,12.000,2.200
2.817,10.900,15.800,11.300,1.900
2.818,10.100,14.700,11.000,1.900
2.819,9.900,14.900,11.300,2.300
2.820,10.400,16.200,12.000,2.900
2.821,11.700,18.300,13.000,3.800
2.822,13.600,20.800,14.300,5.300
2.823,16.000,23.100,15.800,7.500
2.824,18.400,24.900,17.700,10.500
2.825,20.600,26.400,20.200,14.200
2.826,22.300,28.100,23.100,18.300
2.827,24.100,30.500,26.400,22.800
2.828,26.300,33.900,29.800,27.800
2.829,29.300,38.200,33.100,33.200
2.830,33.200,42.800,36.100,38.700
2.831,37.200,46.600,38.700,43.700
2.832,40.400,49.000,40.700,47.500
2.833,42.100,49.600,41.700,49.400
2.834,42.200,48.700,41.600,49.500
2.835,41.000,46.800,40.400,47.900
2.836,39.300,44.600,38.300,45.400
2.837,37.400,42.200,35.500,42.200
2.838,35.300,39.300,32.000,38.300
2.839,32.600,35.300,27.600,33.200
2.840,28.800,29.800,22.400,26.300
2.841,23.800,23.100,16.600,17.700
2.842,18.200,15.700,10.400,8.100
2.843,12.600,8.800,4.600,-1.400
2.844,7.900,3.200,0.100,-9.200
2.845,4.700,-0.600,-2.800,-14.400
2.846,3.200,-2.600,-3.900,-16.700
2.847,3.000,-3.000,-3.600,-16.700
2.848,3.600,-2.300,-2.400,-15.400
2.849,4.400,-0.800,-0.800,-13.700
2.850,5.200,1.300,0.800,-12.200
2.851,6.000,3.800,2.200,-11.000
2.852,6.900,6.400,3.400,-9.800
2.853,8.100,8.900,4.500,-8.300
2.854,9.600,11.000,5.700,-6.200
2.855,11.100,12.800,6.800,-4.000
2.856,12.400,14.300,7.800,-1.900
2.857,13.300,15.500,8.500,-0.500
2.858,14.200,16.800,9.100,0.200
2.859,15.100,18.000,9.300,0.400
2.860,16.200,19.300,9.500,0.700
2.861,17.400,20.400,9.800,1.400
2.862,18.300,21.400,10.300,2.700
2.863,18.500,22.200,10.900,4.200
2.864,18.000,22.700,11.700,5.400
2.865,17.300,23.000,12.400,5.900
2.866,16.800,22.900,12.900,5.600
2.867,16.900,22.600,13.100,4.800
2.868,17.300,21.900,13.000,3.900
2.869,17.700,21.300,12.400,3.200
2.870,17.600,21.000,11.500,2.900
2.871,17.000,21.300,10.600,2.900
2.872,16.200,22.200,10.000,3.300
2.873,15.700,23.700,9.900,3.700
2.874,15.900,25.400,10.400,4.000
2.875,16.800,26.700,11.300,4.000
2.876,17.900,27.200,12.100,3.600
2.877,18.600,26.700,12.600,3.200
2.878,18.600,25.600,12.500,2.900
2.879,18.000,24.500,12.300,3.300
2.880,17.100,23.900,12.100,4.200
2.881,16.600,24.200,12.300,5.500
2.882,16.600,25.100,13.000,6.500
2.883,17.200,26.200,13.700,6.900
2.884,18.100,26.800,14.200,6.800
2.885,18.700,26.600,14.200,6.400
2.886,18.900,25.700,13.900,6.200
2.887,18.500,24.800,13.200,6.400
2.888,17.800,24.200,12.600,6.800
2.889,17.200,24.000,12.200,6.900
2.890,16.800,24.000,12.100,6.600
2.891,17.000,23.800,12.200,5.800
2.892,17.800,23.400,12.700,5.200
2.893,19.000,22.800,13.400,5.200
2.894,20.400,22.500,14.200,6.200
2.895,21.900,22.600,14.900,7.900
2.896,23.000,23.000,15.200,9.600
2.897,23.500,23.500,15.000,10.700
2.898,23.400,23.400,14.400,10.700
2.899,22.900,22.700,13.700,9.900
2.900,22.100,21.600,13.100,8.800
2.901,21.500,20.500,12.900,8.000
2.902,21.200,19.800,13.100,7.900
2.903,21.100,20.000,13.800,8.500
2.904,21.000,20.800,14.800,9.500
2.905,21.000,22.000,15.800,10.300
2.906,20.800,23.100,16.800,10.600
2.907,20.900,24.000,17.600,10.500
2.908,21.300,24.400,18.000,10.100
2.909,22.300,24.500,17.800,9.800
2.910,23.400,24.300,17.200,9.900
2.911,24.500,24.000,16.300,10.500
2.912,25.100,24.000,15.600,11.200
2.913,25.100,24.500,15.300,11.800
2.914,24.900,25.500,15.600,12.100
2.915,25.000,27.000,16.200,12.200
2.916,25.700,28.700,16.900,12.200
2.917,26.800,30.100,17.200,12.300
2.918,27.900,30.800,17.000,12.600
2.919,28.300,31.000,16.500,12.900
2.920,27.800,30.800,15.800,13.000
2.921,26.600,30.400,15.500,12.800
2.922,25.200,30.100,15.600,12.300
2.923,24.300,29.700,16.000,11.600
2.924,24.100,28.900,16.200,11.000
2.925,24.300,27.600,15.700,10.400
2.926,24.400,25.800,14.400,9.800
2.927,24.000,24.100,12.500,9.000
2.928,23.100,22.900,10.700,8.000
2.929,22.100,22.600,9.400,7.000
2.930,21.700,23.000,8.900,6.500
2.931,22.100,23.500,9.400,6.700
2.932,23.200,23.700,10.400,7.700
2.933,24.500,23.400,11.800,9.200
2.934,25.400,22.800,13.400,10.700
2.935,25.500,22.500,15.100,11.800
2.936,25.000,22.900,16.700,12.200
2.937,24.100,24.100,18.000,12.100
2.938,23.400,25.400,18.700,11.500
2.939,22.900,26.500,18.400,10.700
2.940,22.700,26.700,17.200,9.800
2.941,22.500,26.000,15.700,9.200
2.942,22.000,25.000,14.400,8.900
2.943,21.200,24.000,13.900,9.000
2.944,20.200,23.600,14.300,9.500
2.945,19.500,23.500,15.300,10.100
2.946,19.400,23.700,16.500,10.500
2.947,20.100,23.700,17.300,10.600
2.948,21.100,23.500,17.700,10.200
2.949,22.100,23.200,17.600,9.500
2.950,22.700,23.100,17.300,8.800
2.951,22.800,23.500,16.900,8.200
2.952,22.800,24.200,16.600,8.200
2.953,23.000,25.200,16.500,8.600
2.954,23.600,25.800,16.900,9.600
2.955,24.600,25.900,17.700,10.800
2.956,25.400,25.300,18.700,12.000
2.957,25.700,24.300,19.500,12.900
2.958,25.400,23.100,19.800,13.500
2.959,24.900,22.000,19.300,13.500
2.960,24.500,21.100,18.300,13.200
2.961,24.600,20.300,17.100,12.800
2.962,25.300,19.600,16.400,12.600
2.963,26.100,19.100,16.600,12.800
2.964,26.900,19.000,17.400,13.400
2.965,27.100,19.200,18.600,14.300
2.966,26.800,19.800,19.600,15.000
2.967,26.100,20.400,20.300,15.300
2.968,25.100,20.900,20.400,15.000
2.969,24.100,21.200,20.000,14.200
2.970,23.400,21.300,19.500,13.200
2.971,23.100,21.600,18.700,12.400
2.972,23.100,22.300,17.900,11.900
2.973,23.400,23.400,17.100,11.800
2.974,23.800,24.800,16.400,11.900
2.975,24.100,25.800,16.000,11.800
2.976,24.300,26.300,15.900,11.700
2.977,24.400,26.100,16.000,11.500
2.978,24.400,25.500,16.300,11.500
2.979,24.500,25.000,16.500,12.000
2.980,24.700,24.900,16.500,12.800
2.981,25.100,25.400,16.500,13.800
2.982,25.600,26.300,16.400,14.800
2.983,26.000,27.300,16.500,15.400
2.984,26.300,28.300,16.800,15.500
2.985,26.500,29.100,17.200,15.300
2.986,26.600,29.500,17.300,14.700
2.987,26.900,29.700,17.200,14.000
2.988,27.400,29.700,16.600,13.200
2.989,28.300,29.600,15.900,12.600
2.990,29.500,29.500,15.200,12.200
2.991,30.500,29.600,14.800,12.200
2.992,31.100,29.800,14.900,12.500
2.993,31.100,29.800,15.400,13.100
2.994,30.300,29.500,15.800,13.500
2.995,29.100,28.600,15.800,13.600
2.996,27.800,27.300,15.200,13.100
2.997,26.600,26.000,14.200,12.300
2.998,25.800,25.000,13.200,11.500
2.999,25.400,24.500,12.900,11.100
3.000,25.200,24.600,13.400,11.500
3.001,25.200,24.900,14.400,12.500
3.002,25.200,25.300,15.300,13.700
3.003,25.100,25.500,15.400,14.400
3.004,24.800,25.700,14.400,14.200
3.005,24.400,25.700,12.700,13.200
3.006,24.000,25.700,11.200,11.800
3.007,23.600,25.500,10.400,10.800
3.008,23.600,25.000,10.700,10.500
3.009,23.600,24.300,11.400,11.000
3.010,23.600,23.400,12.000,11.700
3.011,23.200,22.500,11.800,12.200
3.012,22.500,21.900,10.800,12.000
3.013,21.300,21.400,9.500,11.300
3.014,20.100,21.100,8.500,10.300
3.015,19.000,20.900,8.400,9.500
3.016,18.400,21.000,9.000,8.900
3.017,18.300,21.400,10.000,8.400
3.018,18.500,22.100,11.000,8.000
3.019,19.000,23.100,11.600,7.600
3.020,19.500,23.900,11.800,7.300
3.021,20.000,24.300,11.800,7.400
3.022,20.200,23.900,11.600,7.900
3.023,20.100,23.000,11.400,8.700
3.024,19.800,21.800,11.000,9.400
3.025,19.500,20.900,10.500,9.700
3.026,19.200,20.500,10.000,9.200
3.027,19.200,20.600,9.400,8.100
3.028,19.300,21.200,8.900,6.600
3.029,19.300,22.200,8.500,5.000
3.030,19.200,23.300,8.200,3.800
3.031,18.800,24.400,8.100,3.000
3.032,18.400,25.500,8.100,2.600
3.033,18.100,26.300,7.800,2.300
3.034,18.000,26.600,7.200,1.900
3.035,18.100,26.400,6.000,1.400
3.036,18.200,25.800,4.500,0.800
3.037,18.200,25.200,3.100,0.400
3.038,18.100,24.800,2.200,0.200
3.039,17.900,24.600,2.100,0.300
3.040,17.800,24.500,2.900,0.600
3.041,17.700,24.100,4.200,0.900
3.042,17.600,23.400,5.500,1.100
3.043,17.400,22.400,6.200,1.000
3.044,16.900,21.600,6.200,0.600
3.045,16.400,21.000,5.500,0.000
3.046,15.900,20.400,4.400,-0.600
3.047,15.600,19.600,3.200,-1.100
3.048,15.500,18.200,2.300,-1.200
3.049,15.300,16.400,1.900,-1.100
3.050,14.900,14.500,2.100,-0.900
3.051,14.200,13.100,2.800,-0.900
3.052,13.400,12.500,3.300,-1.400
3.053,12.900,12.700,3.500,-2.200
3.054,12.800,13.100,2.900,-3.100
3.055,13.300,13.100,1.900,-3.800
3.056,14.100,12.500,1.000,-3.900
3.057,14.900,11.600,0.600,-3.600
3.058,15.500,11.100,0.900,-3.000
3.059,15.800,11.300,1.800,-2.500
3.060,15.800,12.200,2.800,-2.500
3.061,15.900,13.400,3.400,-3.100
3.062,16.000,14.100,3.600,-4.000
3.063,16.200,13.900,3.600,-4.900
3.064,16.200,12.800,3.600,-5.500
3.065,15.700,11.300,3.600,-5.700
3.066,14.700,9.800,3.600,-5.700
3.067,13.500,8.800,3.200,-5.900
3.068,12.300,8.200,2.100,-6.700
3.069,11.400,8.000,0.500,-8.000
3.070,11.100,7.800,-1.300,-9.800
3.071,11.100,7.700,-2.800,-11.300
3.072,11.300,7.500,-3.600,-12.000
3.073,11.300,7.500,-3.700,-11.800
3.074,11.200,7.600,-3.500,-11.000
3.075,11.000,7.600,-3.100,-10.100
3.076,10.800,7.500,-3.100,-9.700
3.077,10.600,7.100,-3.500,-9.900
3.078,10.200,6.600,-4.500,-10.400
3.079,9.700,6.000,-5.700,-11.000
3.080,9.100,5.900,-6.900,-11.300
3.081,8.500,6.200,-7.800,-11.300
3.082,8.000,6.900,-8.400,-11.300
3.083,7.600,7.600,-8.600,-11.700
3.084,7.200,7.800,-8.700,-12.600
3.085,6.500,7.300,-8.800,-13.800
3.086,5.500,6.000,-9.000,-14.900
3.087,4.500,4.300,-9.300,-15.700
3.088,3.700,2.700,-9.700,-16.000
3.089,3.300,1.400,-10.100,-16.000
3.090,3.300,0.800,-10.500,-16.000
3.091,3.500,0.600,-11.000,-16.000
3.092,3.700,0.700,-11.500,-16.100
3.093,3.700,0.600,-12.000,-16.100
3.094,3.500,0.500,-12.300,-15.900
3.095,3.300,0.300,-12.100,-15.300
3.096,3.300,0.400,-11.400,-14.500
3.097,3.300,0.800,-10.200,-13.800
3.098,3.500,1.500,-9.000,-13.400
3.099,3.700,2.200,-8.300,-13.700
3.100,3.900,2.600,-8.300,-14.500
3.101,3.900,2.700,-9.000,-15.500
3.102,3.700,2.700,-10.000,-16.300
3.103,3.500,2.900,-10.800,-16.300
3.104,3.200,3.500,-11.100,-15.600
3.105,3.100,4.600,-10.900,-14.600
3.106,3.300,5.900,-10.300,-13.900
3.107,3.700,7.100,-10.000,-13.900
3.108,4.400,7.900,-10.200,-14.400
3.109,4.900,8.200,-11.000,-15.100
3.110,5.100,8.100,-11.900,-15.300
3.111,4.800,7.800,-12.400,-14.900
3.112,4.200,7.400,-12.300,-13.800
3.113,3.600,6.900,-11.400,-12.800
3.114,3.300,6.500,-10.000,-12.200
3.115,3.500,6.300,-8.600,-12.400
3.116,4.000,6.200,-7.500,-13.200
3.117,4.600,6.300,-6.900,-14.000
3.118,5.000,6.400,-6.800,-14.600
3.119,5.100,6.300,-7.100,-14.900
3.120,4.900,5.700,-7.700,-15.000
3.121,4.600,4.600,-8.200,-15.200
3.122,4.500,3.200,-8.600,-15.500
3.123,4.600,1.800,-8.400,-15.900
3.124,4.700,0.600,-7.800,-16.000
3.125,4.700,-0.300,-6.700,-15.800
3.126,4.300,-1.100,-5.500,-15.300
3.127,3.600,-2.100,-4.600,-14.900
3.128,3.000,-3.400,-4.200,-14.800
3.129,2.600,-4.800,-4.200,-15.200
3.130,2.700,-6.000,-4.600,-15.900
3.131,3.200,-6.600,-5.100,-16.600
3.132,3.600,-6.500,-5.700,-17.000
3.133,3.600,-6.000,-6.300,-17.100
3.134,3.000,-5.400,-7.200,-17.100
3.135,1.700,-5.100,-8.500,-17.300
3.136,0.200,-5.500,-10.000,-17.900
3.137,-1.200,-6.200,-11.500,-18.800
3.138,-2.100,-7.200,-12.900,-19.700
3.139,-2.300,-7.800,-13.700,-20.400
3.140,-1.800,-8.000,-13.700,-20.400
3.141,-0.800,-7.600,-13.000,-19.800
3.142,0.500,-6.700,-11.800,-18.800
3.143,1.700,-5.400,-10.700,-17.800
3.144,2.500,-4.000,-10.100,-17.200
3.145,2.800,-2.700,-10.200,-17.400
3.146,2.400,-1.700,-10.800,-18.100
3.147,1.500,-1.200,-11.600,-18.900
3.148,0.400,-0.800,-11.900,-19.500
3.149,-0.600,-0.400,-11.500,-19.400
3.150,-0.900,0.300,-10.400,-18.700
3.151,-0.300,1.600,-9.200,-17.700
3.152,1.100,3.300,-8.400,-16.800
3.153,2.700,5.200,-8.300,-16.500
3.154,4.100,6.900,-8.700,-16.400
3.155,4.900,8.300,-9.300,-16.400
3.156,5.000,9.300,-9.300,-16.000
3.157,4.700,9.800,-8.600,-15.300
3.158,4.500,10.000,-7.400,-14.700
3.159,4.600,9.800,-6.200,-14.600
3.160,4.900,9.200,-5.700,-15.300
3.161,5.100,8.400,-6.300,-16.400
3.162,5.100,7.800,-7.600,-17.500
3.163,4.900,7.800,-8.900,-17.800
3.164,4.600,8.200,-9.700,-17.100
3.165,4.500,8.900,-9.700,-15.800
3.166,4.400,9.000,-9.300,-14.600
3.167,4.000,8.000,-9.000,-14.100
3.168,3.300,6.000,-9.400,-14.700
3.169,2.100,3.600,-10.600,-15.900
3.170,0.900,1.900,-12.100,-16.900
3.171,0.200,1.600,-12.900,-17.100
3.172,0.500,2.900,-12.800,-16.500
3.173,1.400,5.000,-11.700,-15.400
3.174,2.500,6.900,-10.100,-14.500
3.175,3.100,7.900,-8.800,-14.300
3.176,2.800,7.800,-8.100,-14.600
3.177,2.000,7.300,-7.900,-15.000
3.178,1.200,6.700,-7.800,-15.000
3.179,0.900,6.300,-7.600,-14.600
3.180,1.000,5.900,-7.500,-14.000
3.181,0.900,4.800,-7.800,-13.700
3.182,0.400,3.000,-8.800,-14.100
3.183,-0.600,0.800,-10.200,-14.800
3.184,-1.600,-1.000,-11.500,-15.100
3.185,-1.800,-1.500,-11.900,-14.700
3.186,-0.900,-0.400,-11.300,-13.400
3.187,1.000,1.600,-10.000,-11.700
3.188,2.800,3.800,-8.600,-10.300
3.189,3.800,5.300,-7.800,-9.600
3.190,3.600,5.800,-7.800,-9.900
3.191,2.300,5.700,-8.300,-10.800
3.192,0.900,5.500,-9.000,-11.700
3.193,0.100,5.700,-9.500,-12.500
3.194,0.200,6.300,-9.700,-12.800
3.195,1.000,6.900,-9.700,-13.000
3.196,1.900,7.300,-9.800,-13.100
3.197,2.200,7.200,-9.800,-13.300
3.198,1.800,6.800,-9.900,-13.600
3.199,1.000,6.400,-10.000,-13.900
3.200,0.200,6.100,-10.000,-14.100
3.201,-0.200,6.100,-10.000,-14.200
3.202,0.000,6.200,-10.000,-14.300
3.203,0.600,6.400,-9.900,-14.400
3.204,1.400,6.200,-9.900,-14.500
3.205,1.900,5.500,-9.800,-14.600
3.206,1.900,4.500,-9.900,-14.600
3.207,1.300,3.100,-10.200,-14.400
3.208,0.100,1.700,-10.700,-13.900
3.209,-1.400,0.500,-10.900,-13.400
3.210,-2.600,-0.300,-10.900,-13.000
3.211,-3.300,-0.900,-10.600,-13.000
3.212,-3.400,-1.300,-10.300,-13.400
3.213,-3.400,-1.800,-10.200,-14.100
3.214,-3.400,-2.300,-10.600,-14.700
3.215,-3.600,-2.700,-11.200,-15.000
3.216,-3.900,-2.600,-11.700,-14.700
3.217,-4.100,-1.800,-11.600,-14.000
3.218,-3.700,-0.400,-10.800,-13.100
3.219,-2.700,1.200,-9.800,-12.300
3.220,-1.100,2.400,-9.000,-11.800
3.221,0.500,3.000,-8.700,-11.500
3.222,1.800,2.800,-8.900,-11.200
3.223,2.600,2.300,-9.200,-10.800
3.224,2.800,1.700,-9.100,-10.300
3.225,2.800,1.300,-8.700,-10.000
3.226,2.600,1.300,-8.200,-9.800
3.227,2.600,1.400,-8.000,-10.000
3.228,2.800,1.500,-8.300,-10.300
3.229,3.100,1.400,-8.900,-10.400
3.230,3.400,1.200,-9.500,-10.300
3.231,3.600,1.100,-9.900,-9.900
3.232,3.600,1.000,-9.900,-9.500
3.233,3.400,1.100,-9.700,-9.200
3.234,3.100,1.200,-9.600,-9.300
3.235,2.900,1.300,-9.700,-9.600
3.236,3.100,1.600,-9.900,-9.900
3.237,3.500,2.100,-9.900,-10.000
3.238,4.300,2.800,-9.600,-9.900
3.239,5.000,3.700,-9.000,-9.600
3.240,5.600,4.600,-8.300,-9.200
3.241,5.900,5.600,-7.800,-8.800
3.242,5.900,6.500,-7.600,-8.100
3.243,5.600,7.500,-7.500,-7.100
3.244,5.500,8.600,-7.400,-5.800
3.245,5.600,9.900,-7.100,-4.100
3.246,6.300,11.400,-6.100,-2.000
3.247,7.700,13.300,-4.300,0.600
3.248,10.000,15.800,-1.300,4.100
3.249,13.100,19.300,2.900,9.100
3.250,16.900,24.000,8.200,15.700
3.251,21.300,29.700,13.900,23.500
3.252,25.700,35.700,19.400,31.600
3.253,29.600,41.200,24.000,38.300
3.254,32.200,45.100,27.100,42.400
3.255,33.200,46.800,28.600,43.400
3.256,32.700,46.300,28.600,41.400
3.257,30.900,44.200,27.500,37.600
3.258,28.600,41.400,25.500,32.800
3.259,26.100,38.300,22.700,27.800
3.260,23.700,34.800,18.900,22.400
3.261,20.800,30.300,14.000,16.000
3.262,17.000,24.300,7.900,7.800
3.263,11.800,16.300,0.700,-2.100
3.264,5.400,7.200,-6.800,-13.000
3.265,-1.400,-1.900,-13.800,-23.500
3.266,-7.400,-9.200,-19.300,-32.000
3.267,-11.500,-13.800,-22.500,-37.300
3.268,-13.300,-15.500,-23.500,-39.100
3.269,-13.200,-15.100,-22.900,-38.300
3.270,-12.100,-13.700,-21.600,-36.100
3.271,-10.900,-12.100,-20.300,-33.600
3.272,-10.200,-10.700,-19.200,-31.400
3.273,-9.800,-9.000,-18.000,-29.300
3.274,-9.000,-6.700,-16.100,-27.100
3.275,-7.200,-3.500,-13.300,-24.200
3.276,-4.200,0.300,-9.800,-20.800
3.277,-0.500,4.000,-6.300,-17.100
3.278,3.200,6.900,-3.700,-13.800
3.279,6.000,8.600,-2.300,-11.400
3.280,7.600,9.300,-1.900,-9.900
3.281,8.200,9.600,-2.000,-9.100
3.282,8.300,9.900,-2.000,-8.700
3.283,8.400,10.700,-1.800,-8.300
3.284,8.800,12.100,-1.400,-7.900
3.285,9.700,13.800,-1.000,-7.500
3.286,10.900,15.500,-0.700,-7.200
3.287,12.100,17.100,-0.100,-6.700
3.288,13.400,18.300,1.100,-6.000
3.289,14.700,19.200,3.200,-5.000
3.290,16.000,19.900,6.000,-3.500
3.291,17.600,20.600,9.000,-1.900
3.292,19.300,21.400,11.500,-0.200
3.293,21.000,22.600,13.200,1.300
3.294,22.300,24.000,14.100,2.800
3.295,22.900,25.600,14.600,4.300
3.296,22.600,26.900,15.000,6.300
3.297,21.600,27.900,15.800,8.600
3.298,20.100,28.500,16.700,11.400
3.299,18.500,28.700,17.700,14.300
3.300,16.900,28.600,18.500,17.000
3.301,15.100,28.100,18.800,19.400
3.302,12.500,27.300,18.700,21.500
3.303,8.700,25.800,18.100,23.300
3.304,3.800,23.700,17.000,24.900
3.305,-1.800,21.200,15.700,26.600
3.306,-7.300,18.700,14.400,28.200
3.307,-12.100,16.600,13.400,29.700
3.308,-16.100,15.100,12.900,31.100
3.309,-19.600,14.100,12.700,32.200
3.310,-23.100,13.100,12.300,32.900
3.311,-27.500,11.700,11.100,33.000
3.312,-32.900,9.600,8.800,32.500
3.313,-38.900,6.900,5.600,31.500
3.314,-44.800,3.900,1.900,30.200
3.315,-49.800,1.000,-1.400,28.800
3.316,-53.400,-1.300,-4.000,27.500
3.317,-55.500,-3.000,-5.700,26.100
3.318,-56.600,-4.000,-6.700,24.600
3.319,-57.100,-4.500,-7.100,23.300
3.320,-57.400,-4.600,-7.100,22.200
3.321,-57.400,-4.300,-6.400,21.600
3.322,-56.900,-3.800,-5.300,21.400
3.323,-55.600,-3.300,-4.000,21.400
3.324,-53.700,-3.100,-3.200,20.700
3.325,-51.400,-3.300,-3.700,18.600
3.326,-48.900,-3.800,-5.600,14.900
3.327,-46.400,-4.500,-8.700,9.600
3.328,-43.400,-5.100,-12.000,3.400
3.329,-39.700,-5.300,-15.000,-2.900
3.330,-35.100,-5.100,-17.100,-8.800
3.331,-29.700,-4.700,-18.400,-13.900
3.332,-24.300,-4.600,-19.300,-18.300
3.333,-19.600,-4.900,-20.300,-22.000
3.334,-16.200,-5.600,-21.700,-24.900
3.335,-13.900,-6.300,-23.100,-27.100
3.336,-12.300,-6.500,-24.100,-28.300
3.337,-10.900,-6.100,-24.500,-28.600
3.338,-9.400,-5.100,-24.000,-28.300
3.339,-7.700,-3.900,-23.000,-27.700
3.340,-6.100,-3.100,-22.000,-27.100
3.341,-4.900,-2.700,-21.300,-26.600
3.342,-4.100,-2.800,-21.100,-26.500
3.343,-3.700,-3.000,-21.500,-26.600
3.344,-3.400,-3.100,-22.000,-27.100
3.345,-3.000,-3.100,-22.500,-27.800
3.346,-2.500,-3.100,-22.900,-28.500
3.347,-2.000,-3.300,-23.200,-29.100
3.348,-1.800,-3.600,-23.300,-29.200
3.349,-1.700,-3.800,-23.000,-28.700
3.350,-1.600,-3.400,-22.200,-27.600
3.351,-1.200,-2.400,-20.700,-26.000
3.352,-0.600,-0.900,-18.700,-24.200
3.353,0.200,0.700,-16.500,-22.600
3.354,1.000,1.800,-14.600,-21.100
3.355,1.400,2.200,-13.000,-19.800
3.356,1.500,2.100,-11.900,-18.300
3.357,1.500,2.000,-10.900,-16.400
3.358,1.800,2.300,-9.900,-14.400
3.359,2.600,3.200,-8.700,-12.300
3.360,3.700,4.600,-7.600,-10.400
3.361,4.700,6.200,-6.700,-9.200
3.362,5.200,7.700,-6.200,-8.500
3.363,5.300,8.900,-5.900,-8.100
3.364,5.000,9.700,-5.700,-7.700
3.365,4.900,10.300,-5.100,-7.100
3.366,5.100,10.700,-4.200,-6.100
3.367,5.600,11.200,-3.000,-5.000
3.368,6.200,11.700,-1.900,-4.100
3.369,6.500,12.200,-1.300,-3.600
3.370,6.500,12.400,-1.100,-3.600
3.371,6.400,11.800,-1.300,-4.200
3.372,6.300,10.400,-1.800,-4.900
3.373,6.400,8.300,-2.400,-5.500
3.374,6.300,6.200,-3.000,-5.900
3.375,6.000,4.700,-3.400,-5.800
3.376,5.500,4.100,-3.400,-5.600
3.377,5.200,4.700,-2.900,-5.200
3.378,5.500,6.000,-1.700,-4.800
3.379,6.500,7.400,-0.100,-4.300
3.380,7.900,8.700,1.600,-3.700
3.381,9.000,9.700,3.100,-2.800
3.382,9.400,10.400,4.000,-2.000
3.383,9.100,11.100,4.300,-1.400
3.384,8.600,11.700,4.000,-1.200
3.385,8.500,12.400,3.500,-1.400
3.386,9.000,12.900,2.900,-1.800
3.387,9.800,13.300,2.400,-2.200
3.388,10.400,13.700,2.200,-2.200
3.389,10.100,14.300,2.200,-1.900
3.390,9.100,14.900,2.500,-1.500
3.391,7.600,15.800,2.800,-1.400
3.392,6.400,16.600,2.900,-1.800
3.393,5.700,17.400,2.700,-2.700
3.394,5.700,17.900,2.300,-3.700
3.395,6.100,18.000,1.800,-4.300
3.396,6.600,18.000,1.700,-4.000
3.397,7.300,17.800,2.100,-2.600
3.398,8.200,17.800,3.000,-0.700
3.399,9.200,18.200,3.900,1.100
3.400,10.300,19.000,4.700,2.200
3.401,11.300,19.900,5.100,2.200
3.402,12.000,20.500,5.200,1.200
3.403,12.500,20.200,5.200,0.000
3.404,12.600,19.000,5.200,-0.900
3.405,12.600,17.200,5.100,-1.000
3.406,12.300,15.400,4.700,-0.600
3.407,11.500,14.400,3.900,-0.200
3.408,10.200,14.200,2.700,-0.400
3.409,8.700,14.400,1.600,-1.600
3.410,7.200,14.500,0.800,-3.300
3.411,6.100,14.000,0.600,-5.000
3.412,5.600,12.900,0.700,-6.000
3.413,5.500,11.900,0.800,-6.000
3.414,5.700,11.800,0.700,-5.200
3.415,6.000,12.900,0.500,-4.100
3.416,6.200,14.900,0.300,-3.400
3.417,6.600,17.100,0.500,-3.200
3.418,7.000,18.300,1.100,-3.400
3.419,7.400,18.200,2.200,-3.500
3.420,7.400,16.800,3.300,-3.400
3.421,7.100,14.900,4.200,-2.700
3.422,6.500,13.200,4.600,-1.800
3.423,6.000,12.300,4.500,-0.900
3.424,5.800,12.200,4.000,-0.300
3.425,6.000,12.500,3.200,-0.100
3.426,6.200,12.800,2.400,-0.600
3.427,6.200,12.700,1.700,-1.400
3.428,5.500,11.900,1.300,-2.500
3.429,4.400,10.700,1.200,-3.600
3.430,3.200,9.000,1.400,-4.400
3.431,2.400,7.300,1.700,-4.500
3.432,2.200,5.800,2.000,-4.100
3.433,2.400,5.000,2.100,-3.200
3.434,2.800,5.000,1.800,-2.200
3.435,3.100,5.600,1.500,-1.500
3.436,3.100,6.300,1.300,-1.200
3.437,3.300,6.700,1.300,-1.200
3.438,3.700,6.600,1.500,-1.300
3.439,4.600,6.100,1.900,-1.100
3.440,5.500,6.000,2.400,-0.500
3.441,6.200,6.800,3.100,0.500
3.442,6.300,8.800,4.000,1.600
3.443,6.100,11.600,5.100,2.600
3.444,5.800,14.300,6.200,3.100
3.445,5.800,16.100,6.900,3.200
3.446,6.000,16.100,6.900,2.900
3.447,6.300,14.500,6.200,2.300
3.448,6.100,11.900,5.000,1.500
3.449,5.300,9.300,3.800,0.700
3.450,4.200,7.600,2.900,-0.200
3.451,3.200,6.900,2.500,-1.100
3.452,2.500,7.000,2.500,-1.900
3.453,2.200,7.200,2.400,-2.500
3.454,2.100,7.100,2.300,-2.900
3.455,2.000,6.500,2.000,-3.200
3.456,1.900,5.700,1.800,-3.100
3.457,1.900,5.100,1.900,-2.900
3.458,2.100,4.800,2.300,-2.400
3.459,2.300,5.000,2.600,-2.000
3.460,2.000,5.200,2.600,-1.700
3.461,1.100,5.400,2.100,-1.900
3.462,-0.200,5.500,1.300,-2.400
3.463,-1.300,5.900,0.500,-2.900
3.464,-1.800,6.600,0.100,-3.200
3.465,-1.400,7.800,0.200,-2.900
3.466,-0.500,9.200,0.800,-2.100
3.467,0.300,10.400,1.800,-1.100
3.468,0.500,11.300,2.700,-0.200
3.469,0.000,11.600,3.300,0.300
3.470,-0.700,11.600,3.500,0.400
3.471,-1.200,11.300,3.400,0.200
3.472,-1.200,11.000,3.200,0.000
3.473,-0.900,10.700,3.100,0.200
3.474,-0.600,10.500,3.200,0.600
3.475,-0.700,10.300,3.400,1.100
3.476,-1.200,9.900,3.700,1.300
3.477,-1.700,9.400,3.900,1.200
3.478,-1.800,8.700,4.100,1.000
3.479,-1.300,8.100,4.500,0.900
3.480,-0.300,8.100,5.400,1.500
3.481,0.900,8.900,6.500,2.700
3.482,2.000,10.400,7.500,4.200
3.483,2.700,12.300,7.900,5.600
3.484,2.900,13.900,7.500,6.300
3.485,2.900,14.800,6.400,6.300
3.486,2.800,15.000,5.100,5.800
3.487,2.800,14.700,4.100,5.100
3.488,2.800,14.500,3.700,4.600
3.489,2.700,14.600,3.600,4.300
3.490,2.200,14.700,3.400,3.700
3.491,1.100,14.300,2.500,2.900
3.492,-0.800,12.800,1.300,1.900
3.493,-3.000,10.300,0.300,1.200
3.494,-5.100,7.400,0.200,1.200
3.495,-6.600,5.100,1.200,2.000
3.496,-7.200,4.000,2.900,3.200
3.497,-6.800,4.300,4.500,4.400
3.498,-5.800,5.600,5.200,4.900
3.499,-4.600,7.100,5.000,4.500
3.500,-3.800,8.300,4.400,3.800
3.501,-3.500,9.000,4.100,3.400
3.502,-3.600,9.500,4.400,3.700
3.503,-3.800,10.200,5.200,4.700
3.504,-3.900,11.000,5.800,5.900
3.505,-3.800,11.800,5.500,6.800
3.506,-3.700,12.100,4.400,7.100
