'Elapsed time','AECG1','AECG2','AECG3','AECG4'
'seconds','uV','uV','uV','uV'
0.000,-30.200,-21.600,-40.900,-43.600
0.001,-29.100,-21.400,-40.800,-43.400
0.002,-28.200,-21.200,-40.500,-43.100
0.003,-27.500,-20.900,-39.900,-42.600
0.004,-27.200,-20.700,-39.100,-42.000
0.005,-27.200,-20.400,-38.300,-41.300
0.006,-27.400,-20.100,-37.600,-40.700
0.007,-27.800,-19.800,-37.200,-40.400
0.008,-28.300,-19.500,-37.100,-40.100
0.009,-28.800,-19.100,-37.200,-39.900
0.010,-29.400,-18.900,-37.300,-39.700
0.011,-29.700,-18.700,-37.400,-39.400
0.012,-29.800,-18.600,-37.200,-39.200
0.013,-29.400,-18.500,-37.000,-39.200
0.014,-28.800,-18.200,-36.600,-39.300
0.015,-28.000,-17.900,-36.400,-39.600
0.016,-27.300,-17.600,-36.200,-39.900
0.017,-26.700,-17.300,-36.000,-39.900
0.018,-26.200,-17.100,-35.800,-39.600
0.019,-25.700,-17.000,-35.600,-38.900
0.020,-25.100,-16.800,-35.200,-37.900
0.021,-24.400,-16.300,-34.700,-36.800
0.022,-23.600,-15.600,-34.000,-35.500
0.023,-22.800,-14.600,-33.000,-34.200
0.024,-22.100,-13.500,-31.700,-32.900
0.025,-21.500,-12.500,-30.400,-31.600
0.026,-21.000,-12.000,-29.400,-30.700
0.027,-20.800,-11.700,-28.800,-30.300
0.028,-20.800,-11.700,-28.700,-30.300
0.029,-20.900,-11.500,-28.800,-30.500
0.030,-20.900,-11.000,-28.800,-30.600
0.031,-20.700,-10.300,-28.300,-30.300
0.032,-20.300,-9.400,-27.500,-29.600
0.033,-19.900,-8.600,-26.700,-28.700
0.034,-19.800,-8.200,-26.300,-28.100
0.035,-20.000,-8.200,-26.500,-28.100
0.036,-20.400,-8.400,-27.000,-28.600
0.037,-20.800,-8.900,-27.500,-29.400
0.038,-20.700,-9.200,-27.600,-30.100
0.039,-20.100,-9.400,-27.100,-30.200
0.040,-19.000,-9.300,-26.100,-29.800
0.041,-17.700,-9.000,-25.100,-28.900
0.042,-16.600,-8.400,-24.200,-28.000
0.043,-15.800,-7.800,-23.600,-27.000
0.044,-15.400,-7.100,-23.100,-26.100
0.045,-15.300,-6.600,-22.400,-25.300
0.046,-15.300,-6.300,-21.400,-24.500
0.047,-15.300,-6.200,-20.200,-23.800
0.048,-15.400,-6.000,-19.100,-23.100
0.049,-15.400,-5.600,-18.400,-22.400
0.050,-15.400,-4.800,-18.000,-21.700
0.051,-15.500,-3.800,-18.100,-21.000
0.052,-15.500,-2.900,-18.300,-20.400
0.053,-15.700,-2.500,-18.600,-20.300
0.054,-16.000,-2.700,-18.800,-20.400
0.055,-16.400,-3.100,-19.100,-20.900
0.056,-16.700,-3.400,-19.300,-21.400
0.057,-16.600,-3.400,-19.300,-21.700
0.058,-16.000,-2.800,-19.100,-21.600
0.059,-14.900,-2.000,-18.600,-21.200
0.060,-13.500,-1.300,-17.900,-20.800
0.061,-12.300,-1.100,-17.300,-20.500
0.062,-11.600,-1.300,-17.100,-20.400
0.063,-11.300,-1.700,-17.200,-20.500
0.064,-11.400,-2.000,-17.400,-20.500
0.065,-11.500,-1.900,-17.400,-20.300
0.066,-11.300,-1.300,-17.100,-19.900
0.067,-10.900,-0.600,-16.500,-19.300
0.068,-10.400,0.100,-15.900,-18.600
0.069,-10.200,0.500,-15.600,-17.700
0.070,-10.300,0.600,-15.600,-17.000
0.071,-10.800,0.600,-15.800,-16.300
0.072,-11.400,0.600,-15.900,-15.800
0.073,-12.000,0.800,-15.700,-15.600
0.074,-12.300,1.100,-15.400,-15.500
0.075,-12.200,1.500,-15.000,-15.400
0.076,-12.000,1.800,-15.000,-15.100
0.077,-11.500,2.100,-15.200,-14.600
0.078,-10.800,2.300,-15.300,-13.900
0.079,-9.900,2.600,-15.100,-13.200
0.080,-8.900,3.100,-14.300,-12.600
0.081,-7.900,3.700,-13.000,-12.300
0.082,-7.100,4.400,-11.800,-12.300
0.083,-6.700,4.900,-11.000,-12.600
0.084,-6.700,5.100,-10.700,-13.000
0.085,-6.700,5.200,-10.800,-13.200
0.086,-6.700,5.300,-10.800,-13.100
0.087,-6.400,5.500,-10.600,-12.600
0.088,-6.000,5.900,-10.000,-11.700
0.089,-5.800,6.500,-9.300,-10.600
0.090,-6.100,7.200,-8.800,-9.600
0.091,-6.900,7.700,-8.600,-8.900
0.092,-7.800,7.900,-8.900,-8.600
0.093,-8.400,7.800,-9.400,-8.600
0.094,-8.400,7.500,-9.700,-8.500
0.095,-7.800,7.100,-9.700,-8.200
0.096,-7.000,6.800,-9.400,-7.500
0.097,-6.100,6.800,-8.800,-6.700
0.098,-5.500,7.000,-8.200,-6.000
0.099,-5.100,7.400,-7.800,-5.500
0.100,-4.700,7.900,-7.600,-5.300
0.101,-4.100,8.200,-7.500,-5.300
0.102,-3.400,8.300,-7.400,-5.300
0.103,-2.700,8.200,-7.100,-5.200
0.104,-2.000,7.900,-6.700,-4.900
0.105,-1.600,7.700,-6.100,-4.700
0.106,-1.400,7.700,-5.400,-4.700
0.107,-1.500,7.800,-4.900,-4.900
0.108,-1.800,8.100,-4.600,-5.300
0.109,-2.300,8.300,-4.700,-5.600
0.110,-2.900,8.300,-4.900,-5.800
0.111,-3.600,8.200,-5.300,-5.800
0.112,-4.200,8.200,-5.600,-5.600
0.113,-4.500,8.200,-5.800,-5.200
0.114,-4.500,8.300,-5.600,-4.800
0.115,-4.300,8.600,-5.100,-4.500
0.116,-3.700,8.900,-4.400,-4.300
0.117,-3.000,9.200,-3.700,-4.200
0.118,-2.100,9.400,-3.100,-4.300
0.119,-1.300,9.600,-2.700,-4.600
0.120,-0.600,9.700,-2.400,-4.700
0.121,-0.200,9.800,-2.100,-4.800
0.122,0.000,9.900,-1.800,-4.700
0.123,0.100,10.000,-1.500,-4.400
0.124,0.200,10.200,-1.200,-3.900
0.125,0.500,10.500,-0.900,-3.400
0.126,0.900,10.800,-0.700,-2.900
0.127,1.200,11.100,-0.500,-2.300
0.128,1.300,11.300,-0.500,-1.700
0.129,1.000,11.300,-0.800,-1.100
0.130,0.400,11.400,-1.200,-0.400
0.131,-0.300,11.400,-1.800,0.200
0.132,-0.600,11.700,-2.300,0.700
0.133,-0.700,12.200,-2.300,1.000
0.134,-0.500,12.800,-1.700,1.200
0.135,-0.300,13.300,-0.500,1.200
0.136,-0.100,13.700,1.000,1.200
0.137,0.100,13.900,2.300,1.200
0.138,0.400,14.100,3.000,1.500
0.139,1.000,14.400,3.200,2.000
0.140,2.100,14.900,3.100,2.800
0.141,3.200,15.600,3.100,3.600
0.142,4.300,16.300,3.300,4.300
0.143,5.100,16.900,3.800,4.800
0.144,5.600,17.300,4.300,5.000
0.145,6.000,17.300,4.600,5.000
0.146,6.300,17.100,4.500,4.800
0.147,6.400,16.800,4.200,4.500
0.148,6.300,16.700,3.700,4.100
0.149,5.900,16.700,3.400,3.700
0.150,5.200,16.900,3.100,3.500
0.151,4.400,17.300,3.000,3.500
0.152,3.800,17.500,2.800,3.800
0.153,3.500,17.500,2.600,4.300
0.154,3.500,17.200,2.500,4.900
0.155,3.700,16.800,2.700,5.500
0.156,4.100,16.400,3.200,6.000
0.157,4.500,16.400,4.000,6.500
0.158,5.100,16.800,4.800,6.800
0.159,5.800,17.400,5.500,7.100
0.160,6.600,17.900,6.100,7.300
0.161,7.400,18.200,6.500,7.500
0.162,8.000,18.200,6.800,7.700
0.163,8.500,18.000,7.200,7.800
0.164,9.000,17.900,7.500,7.800
0.165,9.400,18.100,7.900,7.900
0.166,9.900,18.700,8.300,7.900
0.167,10.200,19.600,8.600,7.900
0.168,10.200,20.400,9.100,8.000
0.169,10.000,21.000,9.700,8.100
0.170,9.600,21.300,10.300,8.200
0.171,9.100,21.300,10.700,8.500
0.172,8.800,21.300,10.800,8.900
0.173,8.700,21.300,10.500,9.200
0.174,8.600,21.500,10.000,9.700
0.175,8.500,21.800,9.500,10.100
0.176,8.400,22.200,9.100,10.500
0.177,8.500,22.500,9.000,10.700
0.178,8.700,22.300,9.000,10.600
0.179,9.300,21.700,8.900,10.200
0.180,10.000,20.800,8.700,9.300
0.181,10.700,19.800,8.400,8.400
0.182,11.300,18.900,8.100,7.700
0.183,11.700,18.600,8.100,7.400
0.184,12.100,18.800,8.700,7.900
0.185,12.700,19.700,9.800,9.100
0.186,13.600,21.300,11.300,10.700
0.187,14.800,23.200,13.100,12.400
0.188,15.900,25.500,14.800,13.800
0.189,16.600,27.700,16.200,15.100
0.190,16.900,29.900,17.300,16.100
0.191,16.700,31.900,17.900,17.100
0.192,16.300,33.700,18.200,18.300
0.193,15.900,35.300,18.500,19.800
0.194,15.700,36.600,19.000,21.400
0.195,15.900,37.400,19.700,22.900
0.196,16.300,37.700,20.700,24.200
0.197,16.800,37.800,21.900,25.300
0.198,17.400,37.800,23.100,26.500
0.199,18.000,38.100,24.200,27.900
0.200,18.600,38.900,25.100,29.800
0.201,19.400,40.200,25.800,32.000
0.202,20.500,41.600,26.500,34.200
0.203,21.700,43.000,27.200,36.000
0.204,22.900,44.000,28.000,37.300
0.205,24.000,44.800,28.900,37.900
0.206,24.700,45.400,29.900,38.000
0.207,24.700,46.000,30.500,37.500
0.208,24.200,46.500,30.600,36.600
0.209,23.400,46.500,30.000,35.300
0.210,22.500,45.800,28.700,33.500
0.211,21.800,44.200,26.700,31.300
0.212,21.300,41.500,24.400,28.700
0.213,20.800,38.300,22.100,25.900
0.214,20.100,34.900,20.200,23.100
0.215,19.300,31.900,18.800,20.600
0.216,18.700,29.600,17.900,18.600
0.217,18.500,28.200,17.600,17.300
0.218,19.000,27.600,17.800,16.600
0.219,20.000,27.700,18.500,16.500
0.220,21.100,28.300,19.400,16.900
0.221,21.800,29.000,20.400,17.500
0.222,22.100,29.800,21.100,18.400
0.223,22.000,30.300,21.600,19.300
0.224,22.000,30.700,21.900,20.300
0.225,22.200,31.100,22.300,21.100
0.226,22.600,31.600,22.900,21.700
0.227,23.000,32.400,23.800,22.100
0.228,23.000,33.300,24.700,22.400
0.229,22.700,34.200,25.400,22.600
0.230,22.300,34.900,25.600,22.800
0.231,22.000,35.100,25.400,23.100
0.232,22.100,34.800,25.100,23.500
0.233,22.300,34.100,24.900,23.800
0.234,22.400,33.400,25.000,24.000
0.235,22.100,32.800,25.300,24.000
0.236,21.400,32.600,25.700,24.000
0.237,20.600,32.700,26.000,24.100
0.238,20.100,32.800,25.900,24.400
0.239,20.400,32.900,25.700,24.900
0.240,21.300,32.900,25.500,25.500
0.241,22.500,32.800,25.400,26.000
0.242,23.500,32.700,25.600,26.300
0.243,24.100,32.500,26.100,26.400
0.244,24.300,32.400,26.600,26.200
0.245,24.300,32.300,27.100,25.900
0.246,24.400,32.200,27.300,25.700
0.247,24.500,32.100,27.300,25.500
0.248,24.700,32.200,27.100,25.600
0.249,24.700,32.400,27.000,25.700
0.250,24.300,32.700,27.000,26.100
0.251,23.900,33.300,27.200,26.600
0.252,23.300,34.100,27.600,27.200
0.253,23.000,35.100,28.100,27.900
0.254,22.700,36.000,28.300,28.500
0.255,22.500,36.700,28.400,29.000
0.256,22.200,37.100,28.300,29.300
0.257,21.800,37.000,28.100,29.500
0.258,21.600,36.700,28.000,29.500
0.259,21.600,36.300,27.900,29.500
0.260,22.100,35.800,28.100,29.500
0.261,22.900,35.500,28.500,29.500
0.262,23.800,35.200,29.100,29.600
0.263,24.800,34.900,29.700,29.600
0.264,25.700,34.600,30.100,29.600
0.265,26.400,34.400,30.300,29.500
0.266,27.000,34.500,30.300,29.400
0.267,27.400,34.900,30.000,29.300
0.268,27.400,35.400,29.800,29.400
0.269,27.200,36.000,29.800,29.700
0.270,26.700,36.400,30.100,30.200
0.271,26.000,36.500,30.500,30.800
0.272,25.200,36.600,30.800,31.200
0.273,24.600,36.800,30.700,31.400
0.274,24.300,37.100,30.500,31.200
0.275,24.400,37.700,30.300,30.600
0.276,24.700,38.300,30.300,30.000
0.277,25.400,38.500,30.700,29.500
0.278,26.100,38.400,31.200,29.300
0.279,26.700,38.100,31.800,29.500
0.280,27.300,37.700,32.100,30.000
0.281,27.800,37.500,32.100,30.500
0.282,28.200,37.600,32.000,31.000
0.283,28.800,38.000,32.100,31.200
0.284,29.400,38.400,32.400,31.200
0.285,30.100,38.600,33.000,31.200
0.286,30.700,38.600,33.500,31.400
0.287,30.900,38.500,33.900,31.700
0.288,30.600,38.300,34.100,32.200
0.289,29.900,38.300,34.000,32.800
0.290,29.000,38.300,33.700,33.200
0.291,28.100,38.500,33.400,33.400
0.292,27.600,38.600,33.100,33.200
0.293,27.400,38.700,32.800,32.700
0.294,27.600,38.800,32.600,32.200
0.295,27.900,39.000,32.400,31.800
0.296,28.300,39.200,32.400,31.600
0.297,28.700,39.700,32.700,31.800
0.298,29.300,40.300,33.300,32.200
0.299,30.100,41.200,34.100,32.600
0.300,31.100,42.400,35.100,32.700
0.301,32.500,43.900,35.900,32.200
0.302,34.000,45.800,36.400,31.000
0.303,35.700,48.100,36.700,29.500
0.304,37.500,50.700,36.900,27.800
0.305,39.300,53.700,37.200,26.500
0.306,41.100,57.200,38.100,25.700
0.307,42.500,60.700,39.400,25.600
0.308,43.500,64.100,41.000,25.800
0.309,43.900,66.900,42.300,26.200
0.310,43.800,69.000,43.100,26.600
0.311,43.400,70.300,43.100,27.200
0.312,42.900,71.200,42.900,28.200
0.313,42.400,72.300,43.000,30.000
0.314,42.100,73.900,44.000,32.600
0.315,41.800,75.800,45.800,36.100
0.316,41.600,78.000,48.400,40.200
0.317,41.300,79.800,51.000,44.700
0.318,41.000,81.100,53.300,49.600
0.319,40.500,81.600,54.900,54.800
0.320,39.800,81.200,56.200,60.500
0.321,38.900,80.100,57.400,66.700
0.322,37.700,78.600,58.900,73.300
0.323,36.400,76.600,60.700,80.000
0.324,35.000,74.300,62.700,86.600
0.325,33.500,71.500,64.400,92.900
0.326,31.600,68.200,65.600,99.000
0.327,29.100,64.100,66.100,105.100
0.328,25.800,59.200,66.000,111.400
0.329,21.700,53.900,65.700,118.200
0.330,17.300,48.500,65.700,125.400
0.331,13.000,43.500,66.100,132.600
0.332,9.200,39.300,66.600,139.400
0.333,5.900,35.900,67.000,145.100
0.334,3.200,33.100,66.700,149.400
0.335,0.900,30.800,65.800,152.300
0.336,-1.000,28.600,64.400,153.900
0.337,-2.300,26.900,62.900,154.500
0.338,-2.900,25.600,61.600,154.200
0.339,-2.700,24.800,60.600,152.700
0.340,-2.000,24.300,59.400,149.600
0.341,-0.900,23.600,57.700,144.600
0.342,0.100,22.200,55.000,137.600
0.343,0.800,19.900,51.500,129.400
0.344,1.100,16.600,47.500,120.800
0.345,1.000,12.700,43.300,112.800
0.346,0.500,8.200,39.400,105.800
0.347,-0.400,3.600,35.800,99.500
0.348,-1.300,-0.800,32.300,93.300
0.349,-2.000,-4.600,28.900,86.400
0.350,-2.000,-7.600,25.600,78.600
0.351,-1.100,-9.600,22.700,70.200
0.352,0.600,-10.300,20.200,62.000
0.353,2.500,-10.200,18.400,54.900
0.354,4.200,-9.400,17.200,49.000
0.355,5.100,-8.200,16.200,44.400
0.356,5.400,-6.900,15.400,40.300
0.357,5.500,-5.400,14.800,36.500
0.358,6.200,-3.500,14.400,32.800
0.359,7.800,-1.200,14.400,29.700
0.360,10.200,1.500,15.000,27.500
0.361,12.900,4.500,16.100,26.300
0.362,15.400,7.500,17.600,26.000
0.363,17.300,10.500,19.100,26.000
0.364,18.900,13.300,20.700,26.000
0.365,20.300,16.100,22.200,25.800
0.366,21.900,18.900,23.800,25.700
0.367,23.600,21.900,25.400,26.000
0.368,24.900,24.900,26.800,26.800
0.369,25.500,27.800,27.900,27.900
0.370,25.400,30.600,28.700,29.000
0.371,25.000,33.000,29.200,29.800
0.372,24.600,34.900,29.500,30.100
0.373,24.600,36.400,29.900,30.300
0.374,25.000,37.400,30.300,30.600
0.375,25.600,38.100,30.800,31.000
0.376,26.000,38.500,31.100,31.600
0.377,26.200,38.800,31.200,32.000
0.378,26.600,39.000,31.200,32.100
0.379,27.500,39.400,31.100,32.000
0.380,28.900,40.000,31.300,31.700
0.381,30.600,40.700,31.600,31.500
0.382,32.000,41.600,32.200,31.500
0.383,32.900,42.300,32.900,31.700
0.384,33.200,42.800,33.500,31.900
0.385,33.300,42.900,33.900,32.000
0.386,33.400,42.800,34.100,32.000
0.387,33.800,42.600,34.200,32.000
0.388,34.400,42.400,34.300,32.200
0.389,34.800,42.500,34.300,32.600
0.390,34.800,42.700,34.400,33.100
0.391,34.600,43.100,34.600,33.400
0.392,34.300,43.400,34.700,33.600
0.393,34.200,43.800,34.800,33.600
0.394,34.300,44.100,34.900,33.600
0.395,34.400,44.400,34.900,33.500
0.396,34.300,44.700,34.900,33.600
0.397,34.200,45.000,34.900,33.700
0.398,34.200,45.300,34.900,33.900
0.399,34.500,45.500,35.200,34.100
0.400,35.200,45.600,35.800,34.300
0.401,36.100,45.600,36.600,34.600
0.402,36.800,45.600,37.400,34.900
0.403,37.200,45.500,38.200,35.300
0.404,37.500,45.400,38.800,35.600
0.405,37.700,45.400,39.200,35.800
0.406,38.200,45.600,39.300,35.900
0.407,38.900,45.900,39.500,36.000
0.408,39.500,46.500,39.800,36.300
0.409,39.700,47.000,40.200,36.600
0.410,39.400,47.500,40.500,37.100
0.411,38.700,47.600,40.600,37.400
0.412,38.000,47.400,40.400,37.500
0.413,37.300,46.800,39.900,37.400
0.414,37.000,46.300,39.300,37.200
0.415,36.900,45.900,38.900,37.100
0.416,36.900,45.900,38.600,37.200
0.417,37.100,46.200,38.700,37.400
0.418,37.500,46.500,39.000,37.600
0.419,38.200,46.700,39.400,37.600
0.420,39.000,46.600,39.700,37.300
0.421,39.700,46.500,39.700,37.000
0.422,40.300,46.300,39.600,36.700
0.423,40.500,46.300,39.300,36.400
0.424,40.600,46.400,38.900,36.200
0.425,40.600,46.400,38.800,35.900
0.426,40.600,46.000,38.800,35.500
0.427,40.700,45.300,39.100,34.900
0.428,40.600,44.300,39.400,34.300
0.429,40.300,43.300,39.700,33.700
0.430,39.700,42.500,39.600,33.400
0.431,38.900,42.100,39.300,33.400
0.432,38.100,41.900,38.900,33.700
0.433,37.400,42.100,38.400,34.200
0.434,37.100,42.300,38.100,34.600
0.435,37.000,42.500,38.000,35.000
0.436,37.100,42.600,38.100,35.200
0.437,37.500,42.600,38.300,35.100
0.438,38.000,42.700,38.600,34.800
0.439,38.600,42.700,38.900,34.600
0.440,39.000,42.700,39.200,34.400
0.441,39.300,42.700,39.500,34.400
0.442,39.300,42.700,39.700,34.500
0.443,39.300,42.500,39.900,34.500
0.444,39.400,42.100,40.000,34.400
0.445,39.800,41.500,40.100,34.000
0.446,40.300,40.700,40.200,33.600
0.447,40.700,40.000,40.200,33.200
0.448,40.600,39.500,40.200,32.900
0.449,40.000,39.200,39.900,32.600
0.450,39.000,39.200,39.400,32.400
0.451,38.100,39.200,38.800,32.300
0.452,37.500,39.400,38.300,32.200
0.453,37.300,39.500,38.000,32.400
0.454,37.400,39.700,38.000,32.700
0.455,37.300,39.900,38.200,33.200
0.456,37.100,40.200,38.500,33.700
0.457,36.700,40.400,38.700,33.900
0.458,36.600,40.600,38.800,34.000
0.459,37.000,40.600,38.900,34.000
0.460,37.900,40.500,39.000,34.000
0.461,39.000,40.400,39.200,34.100
0.462,39.700,40.300,39.500,34.200
0.463,40.000,40.200,39.700,34.300
0.464,39.900,40.100,39.900,34.100
0.465,39.800,39.900,40.000,33.800
0.466,40.000,39.500,40.000,33.300
0.467,40.300,39.100,40.000,33.000
0.468,40.600,38.700,40.000,32.900
0.469,40.300,38.400,39.800,33.000
0.470,39.600,38.500,39.600,33.300
0.471,38.400,38.800,39.300,33.600
0.472,37.400,39.300,39.000,33.900
0.473,36.700,39.800,38.900,34.200
0.474,36.500,40.200,38.900,34.800
0.475,36.600,40.400,39.000,35.600
0.476,36.600,40.600,39.200,36.700
0.477,36.300,40.800,39.500,37.800
0.478,36.000,41.000,39.900,38.600
0.479,35.900,41.300,40.300,38.800
0.480,36.300,41.300,40.800,38.500
0.481,37.200,41.100,41.200,37.900
0.482,38.500,40.700,41.500,37.200
0.483,39.800,40.300,41.900,36.900
0.484,40.900,40.200,42.200,37.000
0.485,41.500,40.500,42.600,37.600
0.486,41.600,41.100,43.000,38.500
0.487,41.300,41.800,43.200,39.200
0.488,40.800,42.200,43.100,39.500
0.489,40.100,42.100,42.800,39.400
0.490,39.600,41.800,42.400,39.000
0.491,39.200,41.200,41.900,38.400
0.492,38.900,40.700,41.400,37.900
0.493,38.500,40.400,40.800,37.600
0.494,38.100,40.100,40.100,37.500
0.495,37.400,39.900,39.300,37.700
0.496,36.600,39.500,38.500,38.100
0.497,35.800,39.100,38.100,38.500
0.498,35.300,38.800,38.300,38.900
0.499,35.400,38.700,38.900,39.200
0.500,35.900,38.700,39.800,39.300
0.501,36.900,38.800,40.600,39.300
0.502,37.800,38.600,41.000,39.100
0.503,38.600,38.000,41.100,39.000
0.504,38.800,37.300,41.000,38.900
0.505,38.700,36.600,40.900,38.800
0.506,38.300,36.100,40.900,38.700
0.507,38.000,36.100,41.100,38.900
0.508,37.900,36.600,41.400,39.300
0.509,37.900,37.300,41.700,40.100
0.510,37.900,38.000,42.000,41.100
0.511,37.600,38.600,42.200,42.100
0.512,37.000,38.900,42.400,42.700
0.513,36.200,39.000,42.500,42.800
0.514,35.400,39.000,42.400,42.500
0.515,34.800,38.800,42.100,42.100
0.516,34.600,38.700,41.500,42.000
0.517,34.600,38.500,40.700,42.200
0.518,34.600,38.200,40.000,42.600
0.519,34.500,37.900,39.500,43.000
0.520,34.500,37.600,39.200,43.000
0.521,34.600,37.400,39.300,42.700
0.522,35.100,37.200,39.800,42.400
0.523,35.900,37.100,40.400,42.200
0.524,36.800,36.900,41.100,42.200
0.525,37.400,36.500,41.500,42.500
0.526,37.700,36.000,41.700,42.700
0.527,37.600,35.500,41.500,42.800
0.528,37.200,35.000,41.200,42.900
0.529,36.700,34.600,40.900,43.000
0.530,36.100,34.100,40.500,43.000
0.531,35.600,33.500,40.100,43.000
0.532,34.900,32.800,39.800,42.900
0.533,34.200,32.200,39.600,42.800
0.534,33.500,31.800,39.400,42.900
0.535,32.800,32.000,39.300,43.300
0.536,32.100,32.400,39.300,44.100
0.537,31.600,32.900,39.300,45.000
0.538,31.200,33.100,39.200,45.700
0.539,31.100,32.800,39.100,45.900
0.540,31.400,32.100,39.100,45.800
0.541,32.100,31.400,39.400,45.600
0.542,32.900,31.100,40.100,45.800
0.543,33.600,31.500,41.100,46.400
0.544,33.900,32.400,42.000,47.600
0.545,33.900,33.500,42.600,48.900
0.546,33.700,34.200,42.800,50.100
0.547,33.500,34.400,42.600,50.800
0.548,33.300,34.300,42.200,51.300
0.549,33.200,34.100,41.900,51.600
0.550,32.900,34.000,41.900,52.000
0.551,32.200,34.200,42.100,52.700
0.552,31.200,34.400,42.200,53.500
0.553,30.200,34.500,42.300,54.500
0.554,29.400,34.400,42.300,55.400
0.555,29.100,34.300,42.400,56.200
0.556,29.200,34.500,42.700,57.000
0.557,29.600,35.100,43.300,57.700
0.558,30.100,36.100,44.300,58.500
0.559,30.500,37.000,45.400,59.200
0.560,30.900,37.600,46.400,60.000
0.561,31.300,37.600,47.200,60.600
0.562,31.700,37.200,47.600,61.200
0.563,32.200,36.700,47.600,61.600
0.564,32.700,36.400,47.500,61.900
0.565,33.100,36.400,47.500,62.200
0.566,33.500,36.800,47.700,62.600
0.567,33.600,37.300,48.100,63.100
0.568,33.600,37.700,48.600,63.700
0.569,33.200,37.900,49.200,64.300
0.570,32.600,37.900,49.400,64.600
0.571,31.800,37.700,49.200,64.700
0.572,31.000,37.500,48.700,64.700
0.573,30.300,37.100,48.000,64.700
0.574,29.500,36.700,47.400,65.100
0.575,28.600,36.100,47.100,65.700
0.576,27.800,35.400,47.000,66.300
0.577,27.200,34.800,47.100,66.700
0.578,26.900,34.200,47.300,66.500
0.579,27.100,33.700,47.400,65.700
0.580,27.600,33.300,47.500,64.700
0.581,28.200,33.100,47.700,63.900
0.582,28.600,32.900,48.000,63.600
0.583,28.600,32.800,48.200,64.000
0.584,28.300,32.700,48.300,64.700
0.585,28.100,32.600,48.000,65.500
0.586,28.100,32.400,47.600,66.000
0.587,28.300,32.200,47.100,66.200
0.588,28.500,32.100,46.800,66.200
0.589,28.400,32.200,46.700,66.400
0.590,27.900,32.300,46.800,66.900
0.591,27.200,32.400,47.000,67.700
0.592,26.500,32.600,47.000,68.600
0.593,25.900,32.800,46.900,69.500
0.594,25.600,33.000,46.700,70.200
0.595,25.300,33.200,46.400,70.600
0.596,24.900,33.400,46.200,70.900
0.597,24.300,33.600,46.100,71.200
0.598,23.800,33.700,46.200,71.300
0.599,23.500,34.000,46.600,71.500
0.600,23.900,34.400,47.300,71.800
0.601,24.700,35.100,48.200,72.100
0.602,25.800,35.800,49.200,72.500
0.603,26.700,36.300,50.100,72.800
0.604,27.300,36.400,50.400,72.900
0.605,27.600,36.200,50.300,72.900
0.606,27.700,35.700,49.600,72.600
0.607,27.700,35.200,48.700,72.400
0.608,27.700,35.000,47.800,72.300
0.609,27.500,35.000,47.300,72.400
0.610,27.000,35.100,47.100,72.500
0.611,26.200,35.100,47.100,72.400
0.612,25.100,34.800,47.000,71.800
0.613,24.100,34.500,46.800,70.900
0.614,23.400,34.100,46.500,69.900
0.615,23.200,34.100,46.200,69.400
0.616,23.400,34.400,46.200,69.500
0.617,23.900,34.900,46.300,70.100
0.618,24.500,35.600,46.700,70.900
0.619,25.200,36.300,47.100,71.200
0.620,25.800,37.000,47.500,70.800
0.621,26.500,37.500,47.700,69.900
0.622,27.300,37.900,47.800,68.800
0.623,28.200,38.200,48.100,68.100
0.624,29.300,38.500,48.500,68.200
0.625,30.500,38.900,49.000,68.900
0.626,31.500,39.300,49.500,69.800
0.627,32.300,39.800,49.800,70.400
0.628,32.600,40.400,49.900,70.300
0.629,32.500,41.000,49.700,69.600
0.630,32.000,41.600,49.200,68.400
0.631,31.300,42.100,48.700,67.100
0.632,30.800,42.400,48.300,65.900
0.633,30.400,42.700,48.100,64.900
0.634,30.300,42.900,48.200,64.300
0.635,30.300,43.200,48.600,63.900
0.636,30.400,43.800,49.200,63.900
0.637,30.500,44.600,49.900,64.200
0.638,30.800,45.600,50.400,64.600
0.639,31.300,46.500,50.600,64.900
0.640,32.100,47.300,50.600,64.900
0.641,33.100,47.900,50.600,64.600
0.642,34.200,48.300,50.700,64.100
0.643,35.300,48.700,50.900,63.700
0.644,36.500,49.200,51.200,63.300
0.645,37.600,49.800,51.300,63.000
0.646,38.600,50.200,51.000,62.700
0.647,39.300,50.400,50.500,62.000
0.648,39.700,50.200,50.000,61.100
0.649,39.700,49.900,49.600,60.000
0.650,39.400,49.700,49.500,59.200
0.651,39.100,49.700,49.700,58.800
0.652,39.000,50.200,50.000,58.800
0.653,39.000,50.800,50.200,59.000
0.654,39.000,51.300,50.000,58.900
0.655,38.800,51.500,49.600,58.300
0.656,38.200,51.300,48.800,56.800
0.657,37.500,50.600,48.000,54.800
0.658,36.900,49.500,47.300,52.500
0.659,36.900,48.300,46.700,50.500
0.660,37.800,47.400,46.500,49.300
0.661,39.400,47.200,46.600,49.100
0.662,41.400,47.900,47.100,49.600
0.663,43.200,49.500,47.900,50.500
0.664,44.500,51.600,48.900,51.300
0.665,45.400,53.800,49.900,51.600
0.666,46.100,55.600,50.800,51.600
0.667,46.700,57.000,51.600,51.700
0.668,47.300,58.100,52.400,52.400
0.669,47.900,59.300,53.200,53.800
0.670,48.300,60.500,54.200,55.500
0.671,48.400,61.700,55.000,57.100
0.672,48.400,62.600,55.600,58.100
0.673,48.300,63.100,55.900,58.300
0.674,48.300,63.400,55.900,58.100
0.675,48.400,63.900,56.100,58.300
0.676,48.500,64.700,56.600,59.200
0.677,48.600,65.900,57.500,61.000
0.678,48.900,67.300,58.600,63.100
0.679,49.400,68.500,59.700,64.900
0.680,50.300,69.500,60.700,66.100
0.681,51.400,70.300,61.400,66.700
0.682,52.500,70.900,61.900,66.800
0.683,53.400,71.500,62.400,66.900
0.684,53.900,71.900,62.800,66.800
0.685,54.200,71.800,62.800,66.400
0.686,54.200,70.900,62.300,65.200
0.687,53.900,69.000,60.900,63.100
0.688,53.500,66.300,58.800,60.000
0.689,52.700,62.900,56.000,56.200
0.690,51.500,59.200,53.100,52.300
0.691,50.100,55.700,50.600,48.800
0.692,48.800,52.600,48.700,46.200
0.693,47.800,50.600,47.700,44.500
0.694,47.200,49.700,47.400,43.800
0.695,47.000,49.900,47.600,43.900
0.696,46.900,50.900,48.100,44.400
0.697,46.800,52.100,48.700,45.200
0.698,47.000,52.900,49.200,45.900
0.699,47.500,53.400,49.900,46.400
0.700,48.500,53.500,50.600,46.900
0.701,49.800,53.600,51.400,47.500
0.702,51.100,53.900,52.100,48.100
0.703,52.100,54.400,52.600,48.700
0.704,52.500,54.800,52.800,49.200
0.705,52.400,54.800,52.600,49.400
0.706,52.200,54.300,52.100,49.300
0.707,52.100,53.500,51.600,49.000
0.708,52.300,52.900,51.300,48.700
0.709,52.500,52.700,51.200,48.600
0.710,52.400,53.000,51.400,48.800
0.711,51.900,53.900,51.600,49.300
0.712,51.100,54.800,51.700,49.700
0.713,50.400,55.500,51.500,50.100
0.714,49.900,55.800,51.100,50.200
0.715,49.800,55.800,50.500,50.200
0.716,49.900,55.600,49.900,50.000
0.717,49.900,55.400,49.600,49.800
0.718,49.900,55.300,49.500,49.700
0.719,49.800,55.400,49.800,49.800
0.720,49.900,55.500,50.300,49.900
0.721,50.400,55.700,50.900,50.100
0.722,51.200,55.800,51.500,50.300
0.723,52.100,56.000,52.000,50.400
0.724,52.800,56.000,52.200,50.400
0.725,53.200,56.000,52.300,50.300
0.726,53.500,55.800,52.300,50.100
0.727,53.900,55.700,52.200,50.000
0.728,54.200,55.700,52.200,49.900
0.729,54.500,55.900,52.300,50.000
0.730,54.500,56.300,52.500,50.300
0.731,54.100,56.800,52.800,50.600
0.732,53.600,57.400,53.200,50.900
0.733,53.100,58.000,53.600,51.300
0.734,53.000,58.500,54.100,51.500
0.735,53.000,58.900,54.600,51.800
0.736,53.100,59.200,55.000,52.200
0.737,53.100,59.400,55.400,52.600
0.738,52.900,59.600,55.700,53.100
0.739,52.700,59.800,55.900,53.500
0.740,52.700,59.900,55.900,53.900
0.741,53.100,59.900,55.700,54.100
0.742,53.700,59.700,55.500,53.900
0.743,54.200,59.500,55.300,53.500
0.744,54.600,59.200,55.200,52.800
0.745,54.700,59.000,55.200,52.000
0.746,54.700,58.900,55.400,51.300
0.747,54.600,58.700,55.400,50.700
0.748,54.500,58.300,55.300,50.500
0.749,54.300,57.800,55.000,50.500
0.750,53.900,57.100,54.400,50.600
0.751,53.400,56.700,53.900,50.700
0.752,53.000,56.700,53.500,50.700
0.753,52.800,57.200,53.300,50.700
0.754,52.700,57.900,53.300,50.600
0.755,52.600,58.500,53.200,50.800
0.756,52.300,58.700,52.900,51.100
0.757,51.800,58.200,52.500,51.300
0.758,51.300,57.300,51.900,51.400
0.759,51.200,56.300,51.400,51.100
0.760,51.600,55.700,51.300,50.700
0.761,52.400,55.600,51.500,50.400
0.762,53.300,56.100,52.100,50.500
0.763,54.000,56.900,52.800,50.900
0.764,54.300,57.400,53.500,51.600
0.765,54.400,57.600,54.100,52.000
0.766,54.400,57.500,54.500,52.100
0.767,54.600,57.100,54.700,51.600
0.768,54.800,56.900,54.800,51.000
0.769,54.900,56.900,54.900,50.500
0.770,54.800,57.300,55.200,50.400
0.771,54.400,57.900,55.500,50.600
0.772,53.900,58.400,55.800,51.000
0.773,53.500,58.600,56.100,51.300
0.774,53.100,58.500,56.300,51.500
0.775,52.600,58.200,56.300,51.400
0.776,51.900,57.700,56.100,51.200
0.777,51.100,57.300,55.700,50.800
0.778,50.300,57.000,55.200,50.400
0.779,49.800,56.800,54.600,49.900
0.780,49.700,56.500,54.000,49.500
0.781,50.200,56.200,53.500,49.200
0.782,50.900,55.800,53.200,48.900
0.783,51.600,55.500,52.900,48.600
0.784,52.100,55.500,52.700,48.300
0.785,52.500,55.700,52.500,48.000
0.786,52.900,56.000,52.400,47.600
0.787,53.300,56.200,52.400,47.400
0.788,53.400,56.300,52.400,47.500
0.789,53.200,56.200,52.500,48.100
0.790,52.500,56.100,52.500,48.900
0.791,51.400,56.100,52.400,49.600
0.792,50.300,56.400,52.200,50.200
0.793,49.500,56.600,52.000,50.300
0.794,49.300,56.800,52.000,50.200
0.795,49.400,56.900,52.300,50.100
0.796,49.600,56.800,52.600,50.200
0.797,49.700,56.800,52.800,50.500
0.798,49.500,57.100,52.900,51.100
0.799,49.100,57.500,52.800,51.800
0.800,48.800,58.000,52.700,52.300
0.801,48.800,58.100,52.600,52.400
0.802,49.200,57.900,52.700,52.100
0.803,49.800,57.300,52.800,51.500
0.804,50.600,56.700,52.800,50.800
0.805,51.300,56.400,52.700,50.100
0.806,51.800,56.600,52.500,49.800
0.807,52.300,57.000,52.500,49.900
0.808,52.600,57.400,52.500,50.000
0.809,52.700,57.400,52.600,50.200
0.810,52.500,57.000,52.400,50.100
0.811,52.100,56.300,52.000,49.900
0.812,51.500,55.700,51.200,49.600
0.813,50.700,55.300,50.500,49.300
0.814,50.000,55.100,49.900,49.200
0.815,49.400,55.100,49.500,49.000
0.816,48.800,54.800,49.400,48.700
0.817,48.400,54.400,49.400,48.400
0.818,48.300,54.000,49.400,48.100
0.819,48.300,53.800,49.300,48.000
0.820,48.600,54.000,49.400,48.100
0.821,49.000,54.300,49.500,48.200
0.822,49.300,54.500,49.600,48.100
0.823,49.500,54.300,49.700,47.700
0.824,49.500,53.800,49.700,47.100
0.825,49.600,52.900,49.600,46.500
0.826,49.800,52.200,49.400,46.300
0.827,50.200,51.700,49.400,46.600
0.828,50.500,51.700,49.300,47.100
0.829,50.600,51.800,49.200,47.400
0.830,50.400,52.000,49.000,47.500
0.831,49.900,51.900,48.800,47.100
0.832,49.300,51.700,48.700,46.600
0.833,48.600,51.300,48.600,46.300
0.834,48.100,51.100,48.600,46.200
0.835,47.600,51.100,48.400,46.500
0.836,47.000,51.200,47.800,46.900
0.837,46.300,51.500,46.900,47.100
0.838,45.700,51.700,45.900,47.200
0.839,45.500,51.800,45.100,47.000
0.840,45.800,51.600,44.900,46.900
0.841,46.400,51.400,45.400,46.800
0.842,47.300,51.200,46.300,46.800
0.843,48.100,51.200,47.300,47.000
0.844,48.700,51.500,48.200,47.200
0.845,49.100,51.900,48.800,47.300
0.846,49.300,52.400,49.200,47.300
0.847,49.500,52.800,49.500,47.200
0.848,49.500,53.100,49.800,47.200
0.849,49.200,53.200,50.000,47.200
0.850,48.700,53.200,49.800,47.300
0.851,48.000,53.200,49.400,47.600
0.852,47.500,53.100,48.900,47.800
0.853,47.100,52.800,48.600,47.800
0.854,47.000,52.300,48.700,47.700
0.855,46.800,51.600,49.200,47.600
0.856,46.200,51.000,49.800,47.400
0.857,45.400,50.600,50.300,47.400
0.858,44.600,50.400,50.300,47.500
0.859,44.200,50.300,49.900,47.400
0.860,44.400,50.100,49.400,47.200
0.861,45.200,49.800,48.900,46.600
0.862,46.200,49.300,48.800,45.900
0.863,47.000,48.900,48.900,45.200
0.864,47.400,48.600,49.100,44.600
0.865,47.500,48.500,49.200,44.200
0.866,47.400,48.400,49.000,44.100
0.867,47.400,48.200,48.700,44.000
0.868,47.300,47.800,48.300,44.000
0.869,47.200,47.400,48.100,43.900
0.870,46.800,47.000,47.800,43.800
0.871,46.100,46.700,47.500,43.400
0.872,45.500,46.600,46.900,42.900
0.873,44.800,46.400,46.100,42.200
0.874,44.300,46.100,45.300,41.500
0.875,43.800,45.700,44.700,41.100
0.876,43.200,45.400,44.400,41.100
0.877,42.500,45.200,44.500,41.200
0.878,41.900,45.400,44.900,41.500
0.879,41.600,45.700,45.300,41.600
0.880,41.800,46.100,45.500,41.500
0.881,42.500,46.400,45.500,41.400
0.882,43.400,46.500,45.200,41.200
0.883,44.100,46.500,44.800,41.100
0.884,44.700,46.500,44.500,41.100
0.885,45.000,46.700,44.200,40.900
0.886,45.200,46.900,44.000,40.600
0.887,45.400,47.000,43.900,40.000
0.888,45.600,46.700,43.700,39.400
0.889,45.700,46.200,43.400,38.900
0.890,45.600,45.700,43.000,38.600
0.891,45.300,45.300,42.700,38.700
0.892,44.800,45.200,42.600,38.900
0.893,44.300,45.300,42.700,39.300
0.894,43.800,45.400,42.900,39.700
0.895,43.300,45.500,43.100,40.000
0.896,42.700,45.500,42.900,40.200
0.897,42.000,45.500,42.600,40.400
0.898,41.300,45.700,42.300,40.400
0.899,41.000,46.000,42.100,40.500
0.900,41.200,46.300,42.200,40.700
0.901,41.900,46.400,42.500,40.800
0.902,42.900,46.200,42.800,41.000
0.903,43.900,45.700,43.100,41.100
0.904,44.500,45.200,43.400,41.100
0.905,44.800,45.000,43.600,41.100
0.906,44.800,45.300,43.900,41.300
0.907,44.700,45.800,44.300,41.600
0.908,44.700,46.300,44.400,42.000
0.909,44.700,46.500,44.100,42.300
0.910,44.400,46.400,43.400,42.300
0.911,43.800,45.900,42.500,41.900
0.912,42.900,45.200,41.600,41.100
0.913,41.800,44.500,41.100,40.300
0.914,41.000,44.000,41.000,39.700
0.915,40.500,43.800,41.100,39.600
0.916,40.500,43.900,41.300,39.900
0.917,40.800,44.400,41.600,40.400
0.918,41.300,45.100,41.800,41.100
0.919,41.800,45.800,42.200,41.600
0.920,42.200,46.300,42.800,41.800
0.921,42.600,46.400,43.400,41.800
0.922,43.000,46.100,43.900,41.700
0.923,43.400,45.700,44.000,41.500
0.924,44.000,45.300,43.900,41.400
0.925,44.600,45.200,43.400,41.500
0.926,45.200,45.500,43.000,41.600
0.927,45.400,45.800,42.700,41.700
0.928,45.200,46.100,42.600,41.600
0.929,44.600,46.000,42.600,41.300
0.930,43.700,45.400,42.500,40.800
0.931,42.900,44.400,42.300,40.300
0.932,42.300,43.500,42.100,39.800
0.933,41.900,42.800,42.000,39.600
0.934,41.700,42.600,42.000,39.700
0.935,41.300,42.900,42.200,40.200
0.936,40.700,43.600,42.500,41.000
0.937,39.900,44.100,42.700,41.800
0.938,39.300,44.400,42.700,42.600
0.939,39.100,44.200,42.500,43.000
0.940,39.300,43.800,42.200,43.000
0.941,40.000,43.400,41.900,42.600
0.942,40.800,43.200,41.700,42.000
0.943,41.600,43.300,41.600,41.600
0.944,42.300,43.700,41.700,41.400
0.945,42.800,44.200,41.800,41.700
0.946,43.300,44.500,41.900,42.200
0.947,43.900,44.700,41.900,42.800
0.948,44.500,44.700,42.000,43.100
0.949,44.900,44.800,42.000,43.100
0.950,45.100,45.000,42.300,43.000
0.951,44.800,45.400,42.600,43.000
0.952,44.200,45.800,43.000,43.100
0.953,43.600,46.300,43.400,43.400
0.954,42.900,46.700,43.600,43.800
0.955,42.400,46.900,43.600,43.900
0.956,42.000,47.200,43.400,43.900
0.957,41.600,47.400,43.300,43.600
0.958,41.200,47.600,43.100,43.400
0.959,40.800,47.800,43.100,43.400
0.960,40.700,47.800,43.100,43.700
0.961,40.800,47.800,43.100,44.100
0.962,41.300,47.500,43.100,44.500
0.963,42.100,47.200,43.300,44.500
0.964,43.200,46.900,43.700,44.400
0.965,44.400,46.800,44.100,44.000
0.966,45.300,46.800,44.500,43.700
0.967,46.100,46.900,44.800,43.600
0.968,46.600,46.800,44.900,43.800
0.969,47.000,46.700,44.900,44.300
0.970,47.100,46.400,45.100,44.800
0.971,47.000,46.200,45.500,45.200
0.972,46.600,46.100,46.100,45.400
0.973,45.900,46.300,46.600,45.400
0.974,44.700,46.600,46.700,45.400
0.975,43.300,47.100,46.200,45.300
0.976,41.900,47.500,45.300,45.300
0.977,40.800,47.700,44.200,45.400
0.978,40.100,47.800,43.400,45.600
0.979,40.000,47.600,43.200,45.800
0.980,40.500,47.500,43.500,46.000
0.981,41.400,47.500,44.100,46.200
0.982,42.400,47.500,44.600,46.300
0.983,43.400,47.700,44.800,46.400
0.984,44.300,48.000,44.700,46.500
0.985,45.100,48.400,44.500,46.700
0.986,45.900,48.600,44.500,47.100
0.987,46.700,48.700,44.700,47.700
0.988,47.400,48.700,45.100,48.400
0.989,48.000,48.700,45.500,49.000
0.990,48.400,48.800,45.900,49.400
0.991,48.400,49.100,46.100,49.500
0.992,48.000,49.600,46.100,49.400
0.993,47.100,50.100,46.100,49.300
0.994,46.000,50.500,46.000,49.400
0.995,44.800,50.600,46.100,49.600
0.996,43.700,50.400,46.100,49.900
0.997,42.900,50.000,46.200,50.200
0.998,42.500,49.700,46.300,50.200
0.999,42.600,49.600,46.400,50.000
1.000,43.000,50.000,46.500,49.800
1.001,43.700,50.600,46.800,49.800
1.002,44.700,51.200,47.300,49.800
1.003,45.900,51.700,47.900,50.000
1.004,47.100,51.800,48.700,50.200
1.005,48.200,51.600,49.500,50.200
1.006,49.100,51.300,50.100,50.300
1.007,49.600,51.200,50.500,50.400
1.008,49.800,51.300,50.500,50.700
1.009,49.600,51.700,50.300,51.300
1.010,49.300,52.000,50.000,51.900
1.011,48.800,52.200,49.900,52.400
1.012,48.200,52.200,50.000,52.600
1.013,47.500,52.100,50.100,52.400
1.014,46.800,52.100,50.200,52.100
1.015,46.300,52.300,50.100,51.900
1.016,45.800,52.700,49.700,51.900
1.017,45.500,53.200,49.100,52.300
1.018,45.200,53.700,48.700,52.900
1.019,45.100,54.000,48.500,53.400
1.020,45.200,54.100,48.700,53.600
1.021,45.700,54.200,49.000,53.500
1.022,46.600,54.200,49.300,53.100
1.023,47.700,54.100,49.500,52.700
1.024,48.800,54.000,49.700,52.600
1.025,49.700,53.900,50.100,52.700
1.026,50.200,53.800,50.600,53.200
1.027,50.200,53.800,51.400,53.600
1.028,50.000,53.800,52.300,54.000
1.029,49.700,54.000,52.800,54.200
1.030,49.500,54.200,53.100,54.200
1.031,49.400,54.400,52.900,54.300
1.032,49.400,54.700,52.700,54.400
1.033,49.300,55.000,52.500,54.700
1.034,49.100,55.600,52.600,55.100
1.035,48.700,56.300,53.000,55.500
1.036,48.300,57.000,53.500,55.700
1.037,47.900,57.500,53.800,55.800
1.038,47.600,57.900,53.800,55.800
1.039,47.500,58.100,53.600,55.900
1.040,47.600,58.000,53.300,56.100
1.041,48.000,58.000,53.100,56.500
1.042,48.900,57.900,53.100,57.000
1.043,50.200,57.700,53.400,57.400
1.044,51.700,57.500,53.900,57.800
1.045,53.100,57.300,54.400,58.000
1.046,54.100,57.100,55.000,58.100
1.047,54.600,57.100,55.600,58.100
1.048,54.700,57.300,56.200,58.000
1.049,54.500,57.700,56.500,57.800
1.050,54.300,57.900,56.400,57.300
1.051,54.000,57.800,56.100,56.600
1.052,53.500,57.200,55.500,55.900
1.053,52.800,56.300,54.900,55.300
1.054,52.000,55.500,54.500,54.900
1.055,51.200,55.000,54.300,54.800
1.056,50.400,55.000,54.200,54.800
1.057,49.900,55.200,54.000,54.700
1.058,49.600,55.300,53.700,54.600
1.059,49.600,55.100,53.200,54.200
1.060,49.800,54.600,52.600,53.900
1.061,50.400,53.900,52.200,53.500
1.062,51.300,53.400,52.200,53.200
1.063,52.600,53.200,52.700,53.000
1.064,53.900,53.100,53.500,52.900
1.065,54.900,52.800,54.200,52.800
1.066,55.400,52.400,54.700,52.700
1.067,55.500,51.800,54.700,52.700
1.068,55.200,51.400,54.600,52.700
1.069,55.100,51.400,54.400,52.700
1.070,55.000,51.800,54.600,52.600
1.071,55.000,52.500,55.000,52.700
1.072,54.700,53.300,55.500,52.900
1.073,54.100,53.900,55.800,53.300
1.074,53.100,54.200,55.500,53.700
1.075,51.900,54.200,54.900,54.100
1.076,50.900,54.000,54.200,54.200
1.077,50.400,53.700,53.700,54.000
1.078,50.200,53.200,53.700,53.500
1.079,50.400,52.700,54.000,52.900
1.080,50.800,52.200,54.400,52.400
1.081,51.300,51.900,54.500,52.100
1.082,52.100,51.700,54.200,52.100
1.083,53.100,51.600,53.700,52.100
1.084,54.300,51.600,53.100,52.200
1.085,55.500,51.700,52.700,52.100
1.086,56.500,51.700,52.700,51.900
1.087,57.100,51.900,53.100,51.600
1.088,57.400,52.300,53.700,51.300
1.089,57.400,52.700,54.400,51.100
1.090,57.400,53.100,55.000,51.300
1.091,57.300,53.300,55.500,51.900
1.092,57.100,53.200,55.900,52.700
1.093,56.900,53.100,56.200,53.800
1.094,56.600,53.100,56.200,54.700
1.095,56.200,53.400,56.100,55.400
1.096,56.100,53.900,56.100,55.800
1.097,56.300,54.400,56.300,55.700
1.098,56.700,54.600,56.700,55.300
1.099,57.400,54.500,57.300,54.800
1.100,58.200,54.100,57.900,54.400
1.101,58.900,53.700,58.200,54.200
1.102,59.700,53.300,58.100,54.400
1.103,60.500,52.900,57.900,54.700
1.104,61.400,52.500,57.700,54.900
1.105,62.300,51.800,57.700,54.900
1.106,63.100,50.900,57.800,54.500
1.107,63.600,49.900,57.900,54.000
1.108,63.800,49.000,57.800,53.300
1.109,63.800,48.300,57.200,52.800
1.110,63.800,47.800,56.500,52.500
1.111,63.900,47.300,55.900,52.300
1.112,64.000,46.900,55.600,52.000
1.113,63.900,46.500,55.400,51.700
1.114,63.500,46.000,55.400,51.400
1.115,62.600,45.700,55.100,51.100
1.116,61.600,45.500,54.600,51.100
1.117,60.800,45.300,54.000,51.400
1.118,60.300,45.300,53.500,51.800
1.119,60.400,45.300,53.500,52.200
1.120,60.600,45.400,53.800,52.500
1.121,61.000,45.600,54.300,52.400
1.122,61.300,45.900,54.700,52.200
1.123,61.800,46.100,54.900,51.800
1.124,62.700,46.200,55.200,51.400
1.125,63.800,46.100,55.700,51.200
1.126,65.100,46.000,56.500,51.200
1.127,66.100,45.700,57.400,51.300
1.128,66.500,45.500,58.000,51.300
1.129,66.500,45.300,58.200,51.100
1.130,66.300,44.900,58.000,50.800
1.131,66.200,44.400,57.500,50.200
1.132,66.100,43.700,56.900,49.500
1.133,66.000,42.800,56.300,48.600
1.134,65.400,41.700,55.500,47.400
1.135,64.400,40.400,54.500,46.000
1.136,63.100,39.300,53.500,44.700
1.137,61.900,38.500,52.700,43.900
1.138,61.400,38.500,52.500,43.800
1.139,61.700,39.400,53.200,44.700
1.140,62.500,41.500,54.700,46.300
1.141,63.500,44.300,56.400,48.000
1.142,64.400,47.200,58.100,49.300
1.143,65.400,49.600,59.300,50.000
1.144,66.400,51.100,60.100,50.400
1.145,67.600,51.800,60.800,51.000
1.146,68.800,52.000,61.600,52.000
1.147,70.000,52.300,62.600,53.700
1.148,70.800,53.100,63.800,55.500
1.149,71.200,54.300,64.800,57.000
1.150,71.400,55.500,65.500,57.900
1.151,71.400,56.500,65.800,58.300
1.152,71.200,57.100,65.900,58.600
1.153,70.900,57.500,66.000,59.400
1.154,70.600,58.100,66.200,60.700
1.155,70.200,59.000,66.600,62.500
1.156,70.100,60.300,67.100,64.400
1.157,70.300,61.700,67.700,65.900
1.158,70.700,62.800,68.200,67.000
1.159,71.200,63.600,68.700,67.700
1.160,71.600,64.000,69.000,68.100
1.161,71.800,64.100,69.200,68.300
1.162,71.900,63.900,68.900,68.000
1.163,72.000,63.300,68.200,66.900
1.164,72.200,62.100,67.000,64.900
1.165,72.300,60.100,65.300,62.000
1.166,72.200,57.300,63.300,58.500
1.167,71.500,53.800,61.100,54.800
1.168,70.600,50.100,59.100,51.100
1.169,69.700,46.700,57.400,47.900
1.170,69.300,44.200,56.000,45.100
1.171,69.300,43.000,55.100,42.800
1.172,69.800,43.400,54.500,41.000
1.173,70.400,45.300,54.300,39.700
1.174,70.800,48.300,54.600,38.800
1.175,71.100,51.900,55.500,38.400
1.176,71.500,55.700,56.700,38.100
1.177,72.200,59.300,58.200,38.000
1.178,73.400,62.600,59.600,37.900
1.179,74.900,65.600,60.700,37.800
1.180,76.400,68.200,61.400,37.900
1.181,77.700,70.400,62.100,38.500
1.182,78.600,72.300,63.000,39.500
1.183,79.200,73.900,64.300,41.200
1.184,79.600,75.300,66.000,43.500
1.185,80.100,76.700,68.000,46.200
1.186,80.600,78.200,70.100,49.400
1.187,81.100,79.900,72.000,53.000
1.188,81.300,81.500,73.800,57.100
1.189,81.000,82.800,75.600,61.800
1.190,80.200,83.400,77.500,67.100
1.191,78.800,83.200,79.500,72.900
1.192,77.000,82.200,81.400,78.900
1.193,74.900,80.500,83.100,85.000
1.194,72.800,78.400,84.400,90.900
1.195,70.600,76.100,85.500,96.600
1.196,68.400,73.800,86.300,102.200
1.197,65.900,71.100,87.100,107.900
1.198,63.100,67.900,87.800,114.100
1.199,60.100,64.100,88.500,120.900
1.200,57.100,59.800,89.100,128.200
1.201,54.300,55.400,89.800,135.700
1.202,51.800,51.200,90.400,142.800
1.203,49.500,47.300,90.900,149.100
1.204,47.300,43.700,91.200,154.200
1.205,44.900,40.200,91.200,158.200
1.206,42.500,36.600,90.800,161.100
1.207,40.200,33.200,89.800,163.000
1.208,38.200,30.300,88.400,163.800
1.209,36.600,27.900,86.400,163.200
1.210,35.200,25.900,84.000,160.900
1.211,33.900,23.800,81.100,156.900
1.212,32.600,20.900,77.500,151.400
1.213,31.100,16.900,73.400,144.800
1.214,29.800,12.000,69.000,137.800
1.215,28.700,7.100,64.800,130.900
1.216,27.900,2.800,61.100,124.400
1.217,27.300,-0.600,58.100,118.400
1.218,26.800,-3.300,55.700,112.500
1.219,26.300,-5.800,53.300,106.400
1.220,26.000,-8.400,50.800,99.600
1.221,26.100,-11.200,47.700,92.100
1.222,26.900,-13.700,44.400,84.100
1.223,28.300,-15.400,41.300,76.000
1.224,30.000,-15.800,38.800,68.600
1.225,31.600,-15.000,37.200,62.100
1.226,32.800,-13.300,36.500,56.800
1.227,33.600,-11.000,36.200,52.500
1.228,34.100,-8.300,36.000,48.900
1.229,34.600,-5.400,35.700,46.000
1.230,35.300,-2.100,35.500,43.600
1.231,36.100,1.500,35.600,42.100
1.232,37.000,5.400,36.300,41.300
1.233,38.000,9.500,37.600,41.100
1.234,39.100,13.500,39.200,41.100
1.235,40.200,17.600,40.600,41.000
1.236,41.600,21.400,41.700,40.600
1.237,43.000,25.100,42.300,40.100
1.238,44.300,28.300,42.600,39.800
1.239,45.300,30.900,42.800,39.800
1.240,45.900,33.000,43.000,40.000
1.241,46.400,34.500,43.200,40.300
1.242,46.700,35.800,43.700,40.400
1.243,47.100,37.000,44.400,40.300
1.244,47.600,38.200,45.400,40.200
1.245,48.100,39.500,46.500,40.000
1.246,48.300,40.500,47.300,39.900
1.247,48.100,41.200,47.500,39.700
1.248,47.600,41.400,47.000,39.500
1.249,46.800,41.200,45.900,39.000
1.250,46.300,40.900,44.700,38.400
1.251,46.200,40.600,43.900,37.900
1.252,46.700,40.500,43.800,37.500
1.253,47.500,40.600,44.300,37.300
1.254,48.300,40.800,45.100,37.300
1.255,48.600,40.900,45.900,37.300
1.256,48.500,41.000,46.200,37.400
1.257,48.200,41.000,46.100,37.400
1.258,47.900,41.000,45.700,37.400
1.259,47.900,41.200,45.400,37.500
1.260,48.200,41.600,45.300,37.900
1.261,48.700,42.000,45.400,38.500
1.262,49.000,42.400,45.700,39.000
1.263,49.000,42.800,45.900,39.400
1.264,48.800,43.000,46.000,39.500
1.265,48.700,43.300,46.100,39.300
1.266,48.700,43.600,46.200,38.900
1.267,48.800,44.000,46.200,38.400
1.268,48.700,44.300,46.200,38.000
1.269,48.200,44.300,46.300,37.800
1.270,47.400,44.100,46.400,37.700
1.271,46.500,43.800,46.500,37.900
1.272,46.100,43.700,46.600,38.200
1.273,46.200,43.900,46.700,38.700
1.274,46.900,44.500,46.800,39.300
1.275,47.800,45.200,46.900,39.900
1.276,48.600,45.800,47.100,40.400
1.277,48.800,46.000,47.500,40.800
1.278,48.700,45.800,47.900,41.000
1.279,48.500,45.600,48.300,41.100
1.280,48.300,45.700,48.700,41.200
1.281,48.500,46.100,49.000,41.400
1.282,48.800,46.700,49.200,41.700
1.283,48.900,47.100,49.300,42.100
1.284,48.800,47.200,49.400,42.300
1.285,48.300,47.000,49.600,42.500
1.286,47.600,46.700,49.700,42.600
1.287,47.100,46.700,49.800,42.600
1.288,47.000,47.000,49.700,42.700
1.289,47.100,47.500,49.600,42.700
1.290,47.500,47.800,49.400,42.600
1.291,47.800,47.700,49.400,42.500
1.292,48.000,47.200,49.300,42.400
1.293,47.900,46.500,49.200,42.400
1.294,47.700,46.200,48.900,42.500
1.295,47.500,46.300,48.600,42.700
1.296,47.400,46.900,48.400,42.900
1.297,47.400,47.700,48.400,43.000
1.298,47.400,48.200,48.800,42.900
1.299,47.600,48.400,49.400,42.700
1.300,47.800,48.200,50.100,42.600
1.301,48.000,47.900,50.800,42.500
1.302,48.200,47.600,51.300,42.600
1.303,48.200,47.600,51.700,42.900
1.304,48.100,47.700,51.900,43.300
1.305,47.800,48.000,52.100,43.800
1.306,47.400,48.300,52.200,44.200
1.307,46.800,48.600,52.300,44.600
1.308,46.200,48.800,52.300,44.800
1.309,45.700,49.000,52.200,44.900
1.310,45.200,49.100,52.100,44.900
1.311,45.000,49.200,51.900,44.900
1.312,44.900,49.300,51.800,45.100
1.313,45.100,49.400,51.700,45.600
1.314,45.600,49.600,51.800,46.300
1.315,46.200,49.800,52.100,47.100
1.316,47.100,49.900,52.500,47.900
1.317,47.900,49.900,53.100,48.400
1.318,48.700,49.800,53.600,48.700
1.319,49.100,49.700,54.000,48.700
1.320,49.200,49.500,54.200,48.500
1.321,49.000,49.500,54.300,48.300
1.322,48.600,49.500,54.200,48.000
1.323,48.200,49.500,53.900,48.000
1.324,47.800,49.500,53.500,48.100
1.325,47.500,49.500,52.900,48.500
1.326,47.100,49.500,52.100,49.000
1.327,46.600,49.400,51.300,49.200
1.328,46.100,49.200,50.800,49.100
1.329,45.800,49.100,50.800,48.700
1.330,45.700,49.100,51.200,48.300
1.331,45.800,49.200,52.000,48.100
1.332,45.900,49.500,52.800,48.300
1.333,46.200,49.900,53.400,48.800
1.334,46.400,50.100,53.600,49.300
1.335,46.700,50.100,53.600,49.400
1.336,47.100,50.100,53.500,49.200
1.337,47.500,50.000,53.700,48.600
1.338,48.000,50.000,54.000,48.100
1.339,48.200,50.100,54.400,47.700
1.340,48.300,50.200,54.500,47.800
1.341,48.100,50.200,54.200,48.000
1.342,47.700,50.100,53.800,48.300
1.343,47.300,49.900,53.300,48.400
1.344,46.700,49.700,53.100,48.200
1.345,46.100,49.500,53.100,47.800
1.346,45.400,49.400,53.200,47.300
1.347,44.600,49.300,53.100,46.800
1.348,44.000,49.100,52.800,46.300
1.349,43.800,49.000,52.200,45.900
1.350,44.000,49.000,51.500,45.800
1.351,44.500,49.100,50.900,45.800
1.352,45.100,49.200,50.200,45.900
1.353,45.400,49.300,49.600,46.000
1.354,45.200,49.100,49.100,45.800
1.355,44.700,48.800,48.600,45.500
1.356,44.000,48.400,48.400,45.200
1.357,43.500,48.000,48.300,45.000
1.358,43.300,47.600,48.500,45.000
1.359,43.400,47.100,48.700,45.300
1.360,43.500,46.600,48.700,45.600
1.361,43.400,46.000,48.500,45.900
1.362,42.900,45.500,48.000,46.000
1.363,42.100,45.300,47.500,46.000
1.364,41.100,45.300,47.100,45.900
1.365,40.200,45.400,47.000,45.800
1.366,39.600,45.400,47.000,46.000
1.367,39.100,45.400,47.100,46.300
1.368,38.700,45.500,47.300,46.700
1.369,38.500,45.700,47.400,47.100
1.370,38.600,46.200,47.600,47.500
1.371,39.100,47.000,47.900,48.100
1.372,39.700,47.700,48.200,48.700
1.373,40.400,48.300,48.400,49.200
1.374,40.800,48.500,48.500,49.500
1.375,40.800,48.500,48.400,49.600
1.376,40.400,48.200,48.100,49.300
1.377,40.000,47.900,47.600,48.700
1.378,39.600,47.400,46.900,48.000
1.379,39.300,46.900,46.300,47.200
1.380,39.200,46.200,45.600,46.500
1.381,39.200,45.400,45.100,45.800
1.382,39.100,44.800,44.700,45.300
1.383,39.000,44.400,44.600,44.900
1.384,38.800,44.100,44.600,44.600
1.385,38.300,43.900,44.700,44.400
1.386,37.600,43.500,44.700,44.200
1.387,36.600,43.000,44.700,44.100
1.388,35.400,42.400,44.800,44.000
1.389,34.600,42.000,44.800,44.000
1.390,34.300,41.900,44.800,44.100
1.391,34.800,42.200,44.900,44.400
1.392,35.600,42.700,44.800,44.900
1.393,36.400,43.000,44.600,45.300
1.394,36.700,43.100,44.400,45.600
1.395,36.400,42.800,44.200,45.800
1.396,35.800,42.300,44.300,46.000
1.397,35.300,41.800,44.700,46.100
1.398,35.200,41.500,45.200,46.200
1.399,35.400,41.400,45.600,46.200
1.400,35.700,41.400,45.700,46.200
1.401,35.600,41.100,45.400,46.100
1.402,35.100,40.600,44.900,46.100
1.403,34.300,39.800,44.300,46.300
1.404,33.500,39.100,44.000,46.800
1.405,33.000,38.800,44.100,47.600
1.406,32.700,38.900,44.500,48.600
1.407,32.500,39.500,44.900,49.600
1.408,32.300,40.200,45.200,50.500
1.409,32.100,40.800,45.300,51.100
1.410,32.000,41.000,45.000,51.400
1.411,32.000,40.800,44.500,51.400
1.412,32.200,40.400,44.000,51.400
1.413,32.400,39.800,43.600,51.400
1.414,32.500,39.200,43.600,51.600
1.415,32.400,38.800,43.900,51.900
1.416,32.300,38.500,44.500,52.300
1.417,32.200,38.300,45.200,52.600
1.418,32.300,38.000,45.800,52.800
1.419,32.300,37.800,46.000,52.900
1.420,32.200,37.500,45.800,53.000
1.421,31.700,37.300,45.300,53.000
1.422,30.900,37.100,44.900,53.100
1.423,30.100,37.200,44.600,53.300
1.424,29.400,37.300,44.500,53.500
1.425,29.100,37.500,44.500,53.700
1.426,28.900,37.600,44.400,53.800
1.427,28.800,37.500,44.100,53.900
1.428,28.500,37.200,43.700,54.100
1.429,28.000,36.800,43.400,54.200
1.430,27.400,36.300,43.300,54.300
1.431,27.000,35.800,43.500,54.400
1.432,26.700,35.400,43.800,54.500
1.433,26.800,35.000,44.100,54.600
1.434,27.200,34.700,44.100,54.800
1.435,27.700,34.300,43.900,55.000
1.436,28.300,33.800,43.700,55.300
1.437,28.900,33.400,43.700,55.600
1.438,29.200,33.000,43.900,55.800
1.439,29.300,32.900,44.300,56.200
1.440,28.900,33.000,44.800,56.700
1.441,28.300,33.200,45.000,57.400
1.442,27.600,33.600,45.100,58.300
1.443,27.100,34.000,45.000,59.500
1.444,26.800,34.400,44.900,60.600
1.445,26.700,34.800,44.900,61.800
1.446,26.600,35.300,44.900,62.800
1.447,26.400,35.500,44.800,63.600
1.448,26.000,35.500,44.600,64.300
1.449,25.600,35.200,44.300,64.800
1.450,25.100,34.700,44.200,65.200
1.451,24.800,34.300,44.300,65.500
1.452,24.700,34.300,44.700,65.700
1.453,24.600,34.700,45.300,65.900
1.454,24.700,35.200,45.900,66.000
1.455,24.800,35.500,46.200,65.900
1.456,25.000,35.200,46.200,65.800
1.457,25.400,34.400,46.000,65.500
1.458,25.800,33.400,45.900,65.200
1.459,26.100,32.700,45.900,65.000
1.460,26.100,32.500,46.100,65.000
1.461,25.700,32.800,46.200,65.300
1.462,25.100,33.200,46.200,65.700
1.463,24.200,33.300,45.900,66.200
1.464,23.400,32.900,45.600,66.600
1.465,22.600,32.000,45.300,67.000
1.466,21.800,31.200,45.200,67.200
1.467,21.100,30.600,45.300,67.400
1.468,20.500,30.500,45.500,67.600
1.469,20.100,30.800,45.600,67.700
1.470,20.100,31.200,45.500,67.700
1.471,20.400,31.500,45.200,67.500
1.472,20.900,31.600,44.700,67.200
1.473,21.300,31.400,44.200,66.800
1.474,21.500,31.100,43.700,66.400
1.475,21.600,30.900,43.200,65.900
1.476,21.900,30.700,42.700,65.400
1.477,22.500,30.700,42.200,65.000
1.478,23.300,30.800,42.000,64.800
1.479,24.100,30.900,42.000,64.900
1.480,24.500,31.000,42.500,65.200
1.481,24.400,31.000,43.400,65.500
1.482,23.700,30.800,44.200,65.800
1.483,22.900,30.600,44.700,66.000
1.484,22.100,30.600,44.600,66.100
1.485,21.500,30.700,44.000,66.100
1.486,21.100,31.100,43.200,66.200
1.487,20.800,31.400,42.500,66.200
1.488,20.600,31.700,42.100,66.000
1.489,20.600,31.700,42.100,65.500
1.490,20.900,31.700,42.300,64.800
1.491,21.500,31.800,42.500,64.200
1.492,22.200,32.000,42.500,63.700
1.493,22.900,32.400,42.400,63.400
1.494,23.500,32.800,42.400,63.300
1.495,24.000,33.000,42.400,63.200
1.496,24.600,33.100,42.400,62.700
1.497,25.300,32.900,42.300,61.700
1.498,26.000,32.900,42.000,60.500
1.499,26.500,33.000,41.600,59.300
1.500,26.800,33.400,41.200,58.500
1.501,26.800,34.000,41.000,58.000
1.502,26.700,34.500,41.100,57.900
1.503,26.500,34.900,41.300,57.800
1.504,26.200,35.000,41.500,57.500
1.505,25.800,35.000,41.600,56.800
1.506,25.200,34.800,41.400,55.700
1.507,24.500,34.600,41.000,54.600
1.508,24.100,34.400,40.600,53.500
1.509,24.200,34.300,40.300,52.800
1.510,25.000,34.300,40.200,52.400
1.511,26.300,34.500,40.300,52.000
1.512,27.600,34.900,40.600,51.600
1.513,28.600,35.600,41.000,50.900
1.514,29.200,36.500,41.400,50.100
1.515,29.600,37.400,41.800,49.300
1.516,30.100,38.200,42.100,48.900
1.517,30.700,38.600,42.400,48.900
1.518,31.500,38.800,42.600,49.100
1.519,32.200,38.800,42.900,49.300
1.520,32.500,38.900,43.000,49.100
1.521,32.400,39.000,43.000,48.600
1.522,31.900,39.300,42.700,47.800
1.523,31.400,39.700,42.200,47.000
1.524,31.100,40.200,41.600,46.400
1.525,31.100,40.700,41.100,46.100
1.526,31.100,41.100,40.700,45.800
1.527,31.000,41.500,40.500,45.400
1.528,30.700,41.800,40.300,44.800
1.529,30.400,42.100,40.100,43.800
1.530,30.100,42.200,39.900,42.900
1.531,30.100,42.200,39.700,42.100
1.532,30.500,42.200,39.600,41.600
1.533,31.400,42.100,39.700,41.200
1.534,32.500,42.000,40.100,40.900
1.535,33.900,41.800,40.500,40.500
1.536,35.400,41.600,40.800,39.900
1.537,36.700,41.400,40.800,39.300
1.538,37.600,41.200,40.600,38.700
1.539,38.000,41.000,40.100,38.400
1.540,37.900,40.800,39.700,38.400
1.541,37.500,40.700,39.500,38.500
1.542,37.100,40.700,39.600,38.700
1.543,36.700,40.700,39.800,38.700
1.544,36.300,40.600,40.000,38.500
1.545,35.700,40.500,39.900,37.900
1.546,34.800,40.300,39.500,37.300
1.547,33.600,40.200,38.900,36.800
1.548,32.600,40.300,38.300,36.500
1.549,32.100,40.400,37.800,36.500
1.550,32.200,40.500,37.500,36.600
1.551,32.900,40.400,37.400,36.400
1.552,33.700,40.100,37.400,35.900
1.553,34.200,39.500,37.600,35.100
1.554,34.400,38.900,37.800,34.300
1.555,34.600,38.400,38.100,33.600
1.556,35.100,38.200,38.400,33.400
1.557,36.100,38.400,38.900,33.500
1.558,37.400,38.700,39.400,33.800
1.559,38.500,39.100,39.800,34.100
1.560,38.900,39.200,40.000,34.100
1.561,38.400,39.000,39.900,33.800
1.562,37.200,38.700,39.500,33.300
1.563,36.000,38.200,38.900,32.800
1.564,35.000,37.800,38.200,32.400
1.565,34.300,37.400,37.300,32.000
1.566,33.700,37.000,36.300,31.700
1.567,33.000,36.700,35.300,31.300
1.568,32.300,36.300,34.500,30.800
1.569,31.800,36.100,34.000,30.400
1.570,31.700,36.100,34.000,30.100
1.571,32.200,36.200,34.600,30.000
1.572,33.000,36.300,35.500,30.100
1.573,33.700,36.300,36.400,30.200
1.574,34.100,36.100,36.900,30.300
1.575,34.300,35.800,37.000,30.300
1.576,34.400,35.500,36.700,30.100
1.577,34.800,35.200,36.300,29.700
1.578,35.400,35.000,36.200,29.100
1.579,36.000,34.700,36.300,28.400
1.580,36.200,34.100,36.500,27.700
1.581,35.600,33.400,36.400,27.200
1.582,34.300,32.500,36.100,26.900
1.583,32.900,31.800,35.400,26.800
1.584,31.700,31.500,34.800,27.200
1.585,30.900,31.700,34.300,27.700
1.586,30.500,32.100,34.000,28.300
1.587,30.300,32.600,33.800,28.800
1.588,30.100,32.900,33.500,28.900
1.589,30.000,32.800,33.000,28.900
1.590,30.000,32.400,32.500,28.900
1.591,30.400,31.900,32.300,28.900
1.592,31.000,31.600,32.400,29.000
1.593,31.600,31.700,32.800,29.000
1.594,32.100,31.900,33.300,28.900
1.595,32.300,32.100,33.600,28.500
1.596,32.500,32.000,33.400,27.800
1.597,32.700,31.500,32.900,27.100
1.598,33.100,30.700,32.200,26.700
1.599,33.600,30.100,31.600,26.600
1.600,34.100,29.800,31.300,26.900
1.601,34.400,30.000,31.300,27.400
1.602,34.200,30.600,31.500,27.800
1.603,33.600,31.300,31.800,28.000
1.604,32.600,31.900,32.000,28.000
1.605,31.400,32.100,32.000,27.900
1.606,30.100,32.000,31.800,27.900
1.607,28.800,31.900,31.300,27.700
1.608,27.900,31.700,30.700,27.500
1.609,27.300,31.400,30.000,27.100
1.610,27.000,31.000,29.400,26.500
1.611,27.100,30.200,29.100,25.600
1.612,27.200,28.900,28.900,24.400
1.613,27.500,27.400,28.800,23.100
1.614,28.000,25.800,28.600,21.800
1.615,28.700,24.600,28.400,20.800
1.616,29.800,24.200,28.400,20.300
1.617,31.000,24.600,29.000,20.500
1.618,32.000,25.800,30.200,21.300
1.619,32.600,27.400,31.600,22.500
1.620,32.600,29.100,33.000,23.700
1.621,32.100,30.500,34.000,24.700
1.622,31.400,31.600,34.400,25.400
1.623,30.700,32.800,34.400,26.100
1.624,30.300,34.300,34.400,27.000
1.625,29.900,35.900,34.600,28.200
1.626,29.500,37.500,34.800,29.600
1.627,28.800,38.600,34.900,31.000
1.628,28.100,39.200,34.800,32.100
1.629,27.700,39.300,34.800,33.100
1.630,28.000,39.500,35.100,34.300
1.631,28.900,40.200,35.900,35.900
1.632,30.300,41.500,37.300,37.800
1.633,31.600,43.100,39.000,39.700
1.634,32.700,44.500,40.600,41.100
1.635,33.400,45.400,41.800,41.900
1.636,33.900,45.600,42.500,42.100
1.637,34.500,45.500,42.900,42.000
1.638,35.100,45.400,43.200,41.900
1.639,35.600,45.400,43.300,41.800
1.640,35.700,45.300,43.100,41.500
1.641,35.200,44.800,42.300,40.700
1.642,34.200,43.600,40.800,39.100
1.643,32.800,41.700,38.500,36.700
1.644,31.200,39.100,35.700,33.800
1.645,29.700,36.000,32.600,30.500
1.646,28.100,32.800,29.800,27.300
1.647,26.600,29.700,27.500,24.500
1.648,25.200,27.000,25.900,22.100
1.649,24.300,25.000,25.300,20.500
1.650,24.100,23.800,25.500,19.700
1.651,24.500,23.600,26.300,19.700
1.652,25.300,24.300,27.400,20.500
1.653,26.300,25.400,28.400,21.600
1.654,27.200,26.500,29.200,22.500
1.655,27.900,27.400,29.700,23.100
1.656,28.400,27.800,30.000,23.200
1.657,28.700,27.900,30.200,22.900
1.658,28.900,27.900,30.200,22.400
1.659,28.900,28.100,30.100,22.000
1.660,28.700,28.300,29.900,21.600
1.661,28.200,28.600,29.500,21.400
1.662,27.500,28.700,29.100,21.300
1.663,26.700,28.400,28.500,21.200
1.664,26.000,27.900,27.900,21.100
1.665,25.200,27.300,27.200,21.200
1.666,24.300,26.700,26.500,21.300
1.667,23.400,26.300,26.000,21.500
1.668,22.300,26.200,25.700,21.600
1.669,21.400,26.000,25.500,21.500
1.670,20.900,25.900,25.300,21.100
1.671,20.700,25.600,25.100,20.600
1.672,20.900,25.300,24.700,20.100
1.673,21.400,25.100,24.400,19.800
1.674,22.000,25.100,24.200,19.800
1.675,22.600,25.200,24.500,20.100
1.676,23.200,25.400,25.300,20.600
1.677,23.900,25.400,26.200,21.100
1.678,24.600,25.300,27.000,21.400
1.679,25.100,24.900,27.400,21.600
1.680,25.200,24.500,27.200,21.400
1.681,24.700,24.000,26.500,21.000
1.682,23.900,23.600,25.800,20.500
1.683,23.000,23.300,25.300,19.900
1.684,22.100,23.200,25.100,19.500
1.685,21.400,23.400,25.200,19.400
1.686,20.800,23.700,25.200,19.700
1.687,20.200,24.300,25.000,20.200
1.688,19.500,25.000,24.400,20.800
1.689,18.700,25.800,23.800,21.100
1.690,18.100,26.500,23.500,21.300
1.691,18.000,27.100,23.800,21.300
1.692,18.400,27.500,24.600,21.500
1.693,19.200,27.700,25.700,21.900
1.694,20.200,27.800,26.600,22.500
1.695,21.400,27.800,27.000,23.200
1.696,22.500,27.800,26.900,24.000
1.697,23.700,27.900,26.800,24.700
1.698,24.700,28.300,26.800,25.300
1.699,25.400,28.800,27.100,25.900
1.700,25.600,29.500,27.700,26.400
1.701,25.300,30.200,28.300,26.800
1.702,24.400,30.800,28.500,27.000
1.703,23.200,31.100,28.300,27.100
1.704,22.000,31.200,27.800,27.100
1.705,20.900,31.100,27.200,27.000
1.706,20.000,31.000,26.700,27.000
1.707,19.400,30.800,26.300,27.000
1.708,19.200,30.800,26.000,26.900
1.709,19.300,30.900,25.800,26.700
1.710,19.800,31.100,25.600,26.400
1.711,20.700,31.300,25.700,26.200
1.712,21.700,31.500,26.100,26.200
1.713,22.800,31.600,26.700,26.300
1.714,23.800,31.800,27.500,26.600
1.715,24.900,31.900,28.300,26.900
1.716,26.200,32.100,29.100,27.200
1.717,27.400,32.300,29.900,27.400
1.718,28.500,32.400,30.500,27.600
1.719,28.900,32.600,30.800,27.800
1.720,28.600,32.600,30.800,28.000
1.721,27.500,32.500,30.500,28.200
1.722,26.200,32.200,29.900,28.200
1.723,25.000,31.800,29.400,28.100
1.724,24.200,31.400,28.900,27.900
1.725,23.700,31.200,28.700,27.700
1.726,23.100,31.000,28.500,27.600
1.727,22.200,30.800,28.300,27.400
1.728,21.200,30.600,28.000,27.100
1.729,20.300,30.200,27.500,26.700
1.730,20.100,29.800,27.100,26.100
1.731,20.700,29.500,27.000,25.600
1.732,21.900,29.600,27.200,25.300
1.733,23.200,29.800,27.700,25.200
1.734,24.300,30.200,28.200,25.300
1.735,24.900,30.400,28.500,25.500
1.736,25.200,30.400,28.600,25.600
1.737,25.700,30.100,28.500,25.700
1.738,26.500,29.800,28.500,25.800
1.739,27.500,29.500,28.600,25.800
1.740,28.200,29.300,28.800,25.800
1.741,28.200,29.300,29.100,25.800
1.742,27.400,29.400,29.100,25.800
1.743,26.000,29.600,28.800,26.000
1.744,24.500,29.800,28.300,26.300
1.745,23.200,30.000,27.700,26.900
1.746,22.400,30.200,27.300,27.700
1.747,22.000,30.500,27.300,28.500
1.748,21.900,30.700,27.600,29.200
1.749,22.000,31.000,28.000,29.600
1.750,22.300,31.400,28.300,29.800
1.751,22.700,31.700,28.300,29.900
1.752,23.300,32.000,28.300,30.000
1.753,24.100,32.100,28.200,30.100
1.754,25.100,32.000,28.200,30.100
1.755,26.000,31.700,28.300,30.000
1.756,27.000,31.400,28.500,29.700
1.757,27.900,31.400,28.700,29.400
1.758,28.700,31.600,28.900,29.200
1.759,29.300,32.100,29.200,29.200
1.760,29.600,32.500,29.400,29.400
1.761,29.300,32.800,29.700,29.800
1.762,28.500,32.700,29.800,30.000
1.763,27.300,32.300,29.700,30.000
1.764,26.000,31.900,29.300,29.900
1.765,25.000,31.600,28.600,29.600
1.766,24.200,31.600,27.900,29.600
1.767,23.900,31.900,27.200,29.900
1.768,23.800,32.200,26.900,30.500
1.769,23.800,32.400,27.000,31.000
1.770,23.900,32.500,27.500,31.400
1.771,24.100,32.500,28.300,31.200
1.772,24.700,32.700,29.200,30.800
1.773,25.700,33.100,30.100,30.100
1.774,27.000,33.600,30.900,29.700
1.775,28.500,34.200,31.600,29.700
1.776,29.700,34.700,32.300,30.000
1.777,30.700,34.900,32.700,30.500
1.778,31.100,34.900,33.000,30.900
1.779,31.200,34.800,33.200,31.100
1.780,30.900,34.800,33.300,31.200
1.781,30.400,34.900,33.400,31.200
1.782,29.700,35.100,33.400,31.300
1.783,28.900,35.300,33.300,31.500
1.784,27.900,35.600,32.900,31.800
1.785,26.900,35.800,32.300,32.300
1.786,26.000,36.000,31.600,32.700
1.787,25.300,36.200,31.000,33.200
1.788,25.000,36.400,30.700,33.600
1.789,25.100,36.400,30.700,33.900
1.790,25.400,36.300,30.800,33.800
1.791,25.900,36.100,31.000,33.400
1.792,26.500,35.800,31.100,32.700
1.793,27.100,35.600,31.200,32.000
1.794,27.800,35.500,31.400,31.600
1.795,28.500,35.500,31.700,31.500
1.796,29.400,35.500,32.000,31.500
1.797,30.300,35.500,32.100,31.400
1.798,31.100,35.300,31.900,31.100
1.799,31.400,35.000,31.500,30.600
1.800,31.200,34.700,31.000,30.000
1.801,30.400,34.600,30.700,29.600
1.802,29.300,34.600,30.600,29.700
1.803,28.300,34.700,30.800,30.100
1.804,27.600,34.700,31.200,30.600
1.805,27.000,34.400,31.400,31.100
1.806,26.400,33.900,31.200,31.200
1.807,25.600,33.400,30.600,31.000
1.808,24.700,32.900,29.800,30.600
1.809,23.800,32.700,29.000,30.100
1.810,23.500,32.800,28.600,29.700
1.811,23.900,33.000,28.700,29.700
1.812,25.100,33.100,29.400,29.900
1.813,26.400,33.200,30.300,30.400
1.814,27.600,33.100,31.200,30.900
1.815,28.300,33.000,31.800,31.400
1.816,28.700,32.900,32.000,31.700
1.817,28.900,32.900,32.100,31.700
1.818,29.300,33.000,32.200,31.700
1.819,29.800,33.200,32.500,31.600
1.820,30.200,33.400,32.800,31.700
1.821,30.100,33.600,33.000,31.800
1.822,29.400,33.800,32.900,32.100
1.823,28.200,33.800,32.500,32.300
1.824,26.900,33.700,31.700,32.400
1.825,25.900,33.400,30.900,32.300
1.826,25.100,32.900,30.000,32.100
1.827,24.600,32.400,29.200,31.700
1.828,24.100,31.900,28.600,31.100
1.829,23.500,31.500,28.100,30.400
1.830,23.200,31.000,27.900,29.500
1.831,23.100,30.600,27.900,28.700
1.832,23.500,30.100,28.000,28.000
1.833,24.300,29.700,28.200,27.500
1.834,25.300,29.500,28.400,27.400
1.835,26.400,29.500,28.600,27.700
1.836,27.400,29.600,28.800,28.100
1.837,28.200,29.900,28.900,28.700
1.838,28.800,30.000,29.100,29.300
1.839,29.200,29.800,29.200,29.800
1.840,29.300,29.500,29.300,30.000
1.841,29.200,29.100,29.200,30.000
1.842,28.700,28.800,29.100,29.800
1.843,28.000,28.700,28.900,29.400
1.844,27.200,28.800,28.800,29.200
1.845,26.400,29.100,28.900,29.200
1.846,25.600,29.300,29.000,29.400
1.847,25.000,29.500,29.200,29.600
1.848,24.400,29.500,29.300,29.700
1.849,24.100,29.400,29.100,29.500
1.850,24.000,29.100,28.700,29.100
1.851,24.100,28.700,28.200,28.700
1.852,24.300,28.200,27.800,28.400
1.853,24.700,27.700,27.500,28.300
1.854,25.300,27.300,27.600,28.500
1.855,26.200,27.100,28.000,28.700
1.856,27.200,27.100,28.600,28.700
1.857,28.300,27.200,29.300,28.500
1.858,29.300,27.100,29.800,28.100
1.859,29.700,26.900,30.000,27.700
1.860,29.600,26.300,29.900,27.400
1.861,28.900,25.600,29.500,27.300
1.862,27.900,24.900,29.000,27.500
1.863,26.900,24.500,28.700,27.800
1.864,26.000,24.500,28.500,28.100
1.865,25.100,24.800,28.300,28.200
1.866,24.200,25.100,28.100,28.100
1.867,23.000,25.300,27.700,27.700
1.868,21.800,25.000,27.100,27.100
1.869,20.700,24.500,26.300,26.400
1.870,20.200,23.700,25.700,25.700
1.871,20.300,23.000,25.300,25.200
1.872,21.200,22.600,25.100,25.000
1.873,22.500,22.600,25.200,24.900
1.874,23.900,22.700,25.300,25.000
1.875,25.100,22.900,25.500,24.900
1.876,25.900,22.700,25.600,24.600
1.877,26.300,22.200,25.700,23.900
1.878,26.300,21.500,25.600,23.000
1.879,26.100,20.700,25.500,22.000
1.880,25.800,20.000,25.300,21.200
1.881,25.300,19.700,25.200,20.800
1.882,24.800,19.700,25.100,20.700
1.883,24.200,19.800,25.100,20.900
1.884,23.400,19.900,25.000,21.100
1.885,22.300,19.800,24.700,21.200
1.886,21.100,19.600,24.000,21.200
1.887,19.800,19.200,23.200,21.100
1.888,18.700,18.900,22.500,21.200
1.889,18.100,18.900,22.300,21.400
1.890,18.200,19.200,22.600,21.600
1.891,18.900,19.800,23.300,21.800
1.892,19.900,20.500,24.000,21.700
1.893,20.800,20.900,24.300,21.300
1.894,21.500,21.100,24.200,20.900
1.895,21.800,20.800,23.800,20.700
1.896,21.900,20.500,23.600,20.900
1.897,22.100,20.300,23.700,21.500
1.898,22.300,20.600,24.100,22.400
1.899,22.500,21.300,24.600,23.200
1.900,22.600,22.000,24.900,23.700
1.901,22.500,22.500,24.800,23.800
1.902,22.000,22.500,24.300,23.600
1.903,21.100,22.100,23.600,23.300
1.904,20.000,21.500,22.800,23.000
1.905,18.900,21.100,22.300,22.800
1.906,17.900,21.000,22.000,22.700
1.907,17.300,21.300,21.900,22.500
1.908,17.000,21.700,21.900,22.200
1.909,17.000,21.900,21.900,22.000
1.910,17.100,21.900,21.800,21.900
1.911,17.200,21.700,21.500,21.800
1.912,17.100,21.400,21.100,21.800
1.913,16.700,21.000,20.600,21.800
1.914,16.100,20.500,20.300,21.500
1.915,15.600,20.200,20.200,21.000
1.916,15.500,19.800,20.400,20.400
1.917,15.900,19.600,20.600,20.000
1.918,16.700,19.400,20.800,19.900
1.919,17.400,19.100,20.800,20.100
1.920,17.600,18.700,20.600,20.400
1.921,17.100,18.200,20.300,20.600
1.922,15.900,17.500,19.900,20.400
1.923,14.500,16.700,19.700,20.000
1.924,13.200,16.200,19.300,19.500
1.925,12.200,15.800,18.800,18.900
1.926,11.500,15.700,18.200,18.600
1.927,10.800,15.600,17.500,18.300
1.928,10.000,15.600,16.700,18.200
1.929,9.100,15.500,16.100,18.100
1.930,8.200,15.500,15.600,17.800
1.931,7.600,15.600,15.300,17.400
1.932,7.300,15.900,15.100,17.100
1.933,7.400,16.200,15.100,16.800
1.934,7.500,16.300,15.200,16.600
1.935,7.600,16.000,15.500,16.400
1.936,7.500,15.500,15.800,16.200
1.937,7.300,14.800,16.000,15.900
1.938,7.100,14.100,16.100,15.500
1.939,7.000,13.600,16.000,15.200
1.940,6.900,13.400,15.900,14.900
1.941,6.700,13.400,15.700,14.900
1.942,6.400,13.500,15.400,15.000
1.943,5.800,13.500,15.100,15.300
1.944,5.000,13.500,14.700,15.800
1.945,4.000,13.500,14.300,16.300
1.946,3.000,13.700,13.900,16.700
1.947,2.300,14.100,13.600,17.000
1.948,1.900,14.600,13.300,17.100
1.949,1.900,15.100,12.900,17.000
1.950,2.100,15.500,12.400,16.700
1.951,2.600,15.700,11.900,16.400
1.952,3.100,15.700,11.700,16.100
1.953,3.500,15.500,11.700,15.900
1.954,4.000,15.100,11.900,15.700
1.955,4.500,14.600,12.200,15.500
1.956,4.900,14.100,12.300,15.300
1.957,5.300,13.500,12.300,15.100
1.958,5.600,13.100,12.300,15.100
1.959,5.600,12.900,12.400,15.200
1.960,5.400,12.800,12.600,15.300
1.961,5.100,12.800,13.000,15.400
1.962,4.700,12.800,13.200,15.300
1.963,4.300,12.500,13.100,14.900
1.964,3.900,12.100,12.700,14.500
1.965,3.500,11.600,12.200,14.300
1.966,3.000,11.200,11.900,14.500
1.967,2.600,11.000,11.900,14.900
1.968,2.200,10.900,12.200,15.300
1.969,2.000,11.000,12.400,15.500
1.970,2.100,11.200,12.600,15.500
1.971,2.500,11.500,12.600,15.400
1.972,3.100,12.000,12.500,15.300
1.973,3.600,12.400,12.400,15.500
1.974,4.000,12.600,12.200,15.900
1.975,4.100,12.400,12.000,16.500
1.976,4.100,11.900,11.500,16.800
1.977,4.000,11.000,11.000,16.800
1.978,4.000,9.900,10.400,16.400
1.979,4.100,8.800,10.100,15.600
1.980,4.300,7.900,10.100,14.600
1.981,4.600,7.200,10.600,13.700
1.982,5.100,6.700,11.500,13.100
1.983,5.800,6.400,12.500,12.900
1.984,6.700,6.400,13.700,13.300
1.985,7.800,6.600,14.700,14.100
1.986,9.000,7.000,15.600,15.000
1.987,10.200,7.500,16.300,15.800
1.988,11.200,7.900,16.700,16.100
1.989,11.900,8.100,16.900,16.100
1.990,12.500,8.200,17.100,15.800
1.991,13.100,8.200,17.300,15.500
1.992,13.600,8.000,17.500,15.400
1.993,14.100,8.000,17.800,15.600
1.994,14.700,8.100,18.300,16.000
1.995,15.400,8.500,18.900,16.400
1.996,16.100,9.100,19.500,16.600
1.997,16.900,9.800,20.100,16.700
1.998,17.700,10.300,20.600,16.600
1.999,18.400,10.400,20.900,16.500
2.000,19.000,10.200,21.100,16.400
2.001,19.400,9.700,21.100,16.300
2.002,19.600,9.200,21.200,16.300
2.003,19.700,8.900,21.500,16.400
2.004,19.900,9.000,22.000,16.500
2.005,20.400,9.200,22.600,16.500
2.006,21.000,9.400,23.100,16.200
2.007,21.700,9.400,23.200,15.800
2.008,22.100,9.100,22.900,15.200
2.009,22.300,8.600,22.500,14.800
2.010,21.900,8.200,22.200,14.600
2.011,21.200,8.100,22.100,14.800
2.012,20.200,8.400,22.000,15.300
2.013,19.400,8.800,22.000,15.700
2.014,18.900,9.300,21.600,15.800
2.015,18.800,9.600,21.100,15.400
2.016,19.200,9.500,20.600,14.600
2.017,19.800,9.200,20.300,13.700
2.018,20.500,8.900,20.500,13.000
2.019,21.100,8.800,21.000,13.000
2.020,21.600,9.000,21.800,13.400
2.021,21.900,9.400,22.400,14.300
2.022,22.000,9.900,22.600,15.200
2.023,22.000,10.400,22.500,15.900
2.024,21.700,11.000,22.200,16.300
2.025,21.000,11.600,21.900,16.300
2.026,20.000,12.300,21.900,16.300
2.027,18.800,12.800,22.000,16.400
2.028,17.900,13.100,22.000,16.600
2.029,17.500,13.200,22.000,17.100
2.030,17.600,13.000,21.800,17.700
2.031,18.000,12.800,21.500,18.100
2.032,18.500,12.500,21.500,18.100
2.033,19.000,12.400,21.600,17.700
2.034,19.400,12.200,22.000,17.000
2.035,19.900,12.000,22.200,16.000
2.036,20.500,11.700,22.200,15.100
2.037,21.000,11.300,21.900,14.400
2.038,21.500,10.900,21.500,13.900
2.039,21.600,10.700,21.100,13.500
2.040,21.500,10.700,20.800,13.200
2.041,21.400,11.000,20.700,12.800
2.042,21.200,11.700,20.500,12.100
2.043,21.300,12.800,20.200,11.100
2.044,21.600,14.200,20.000,9.900
2.045,22.100,16.200,19.800,8.500
2.046,22.900,18.700,20.100,7.300
2.047,23.800,21.500,20.700,6.300
2.048,25.100,24.400,21.400,5.600
2.049,26.600,27.300,22.200,5.000
2.050,28.100,30.000,22.800,4.600
2.051,29.500,32.400,23.200,4.300
2.052,30.400,34.400,23.600,4.200
2.053,30.800,36.100,24.300,4.600
2.054,30.800,37.500,25.400,5.700
2.055,30.700,38.900,26.900,7.500
2.056,30.700,40.200,28.400,10.000
2.057,31.000,41.700,30.000,12.900
2.058,31.400,43.400,31.600,16.300
2.059,31.700,45.200,33.400,20.100
2.060,31.700,46.800,35.500,24.500
2.061,31.000,48.000,37.900,29.600
2.062,29.700,48.400,40.200,35.400
2.063,28.000,47.900,42.200,41.600
2.064,25.900,46.400,43.600,48.000
2.065,23.800,44.300,44.400,54.200
2.066,21.600,41.900,44.900,60.300
2.067,19.400,39.500,45.600,66.200
2.068,17.000,37.100,46.600,72.100
2.069,14.300,34.200,48.000,78.200
2.070,11.300,30.500,49.300,84.600
2.071,8.000,25.800,50.300,91.300
2.072,4.500,20.300,50.800,98.300
2.073,1.200,14.800,51.000,105.300
2.074,-1.600,9.800,51.000,112.000
2.075,-3.800,5.800,51.100,117.800
2.076,-5.500,3.000,51.300,122.400
2.077,-7.100,0.800,51.300,125.500
2.078,-8.800,-0.900,50.900,127.100
2.079,-10.500,-2.500,50.100,127.300
2.080,-12.100,-4.100,48.800,126.200
2.081,-13.300,-5.400,47.300,123.800
2.082,-13.700,-6.600,45.500,120.200
2.083,-13.400,-7.800,43.200,115.200
2.084,-12.800,-9.500,40.300,108.900
2.085,-12.500,-12.100,36.500,101.500
2.086,-12.700,-15.800,32.000,93.600
2.087,-13.700,-20.300,27.200,85.600
2.088,-15.100,-25.300,22.500,78.200
2.089,-16.600,-30.400,18.300,71.300
2.090,-17.400,-35.100,14.600,64.800
2.091,-17.200,-39.100,11.400,58.300
2.092,-16.100,-42.200,8.600,51.500
2.093,-14.200,-44.000,6.200,44.300
2.094,-11.900,-44.300,4.400,37.200
2.095,-9.700,-43.400,3.300,30.700
2.096,-7.900,-41.400,2.800,25.200
2.097,-6.400,-38.900,2.700,20.800
2.098,-5.100,-36.200,2.800,17.300
2.099,-3.900,-33.400,3.100,14.500
2.100,-2.400,-30.300,3.500,12.200
2.101,-0.600,-26.900,4.300,10.500
2.102,1.300,-23.100,5.600,9.600
2.103,3.200,-19.200,7.200,9.400
2.104,4.800,-15.400,9.000,9.900
2.105,6.300,-11.800,10.800,11.000
2.106,7.700,-8.200,12.500,12.400
2.107,9.200,-4.300,14.200,14.000
2.108,10.700,-0.100,15.900,15.800
2.109,12.100,4.500,17.600,17.800
2.110,13.300,9.000,19.300,19.900
2.111,14.400,13.000,20.900,21.900
2.112,15.600,16.100,22.300,23.400
2.113,16.800,18.400,23.400,24.300
2.114,18.200,20.100,24.300,24.700
2.115,19.500,21.300,24.700,24.600
2.116,20.600,22.000,24.700,24.200
2.117,21.300,22.100,24.200,23.400
2.118,21.600,21.500,23.300,22.300
2.119,21.600,20.100,22.000,20.600
2.120,21.700,18.000,20.600,18.300
2.121,22.000,15.400,19.100,15.300
2.122,22.400,12.600,17.500,12.100
2.123,22.600,9.900,15.900,9.000
2.124,22.400,7.600,14.400,6.500
2.125,21.700,6.000,13.200,4.900
2.126,20.900,5.200,12.600,4.200
2.127,20.200,5.400,12.500,4.300
2.128,20.100,6.400,13.200,4.900
2.129,20.700,7.800,14.300,5.900
2.130,21.700,9.200,15.600,6.900
2.131,22.700,10.400,16.700,7.900
2.132,23.500,11.200,17.300,8.600
2.133,23.700,11.800,17.400,9.100
2.134,23.600,12.100,17.100,9.200
2.135,23.500,12.300,16.900,9.000
2.136,23.700,12.600,16.900,8.800
2.137,24.500,12.900,17.400,8.800
2.138,25.400,13.200,18.100,9.100
2.139,26.100,13.500,18.900,9.700
2.140,26.300,13.700,19.300,10.300
2.141,26.000,14.000,19.400,10.600
2.142,25.300,14.400,19.100,10.600
2.143,24.800,14.800,18.800,10.300
2.144,24.800,15.300,18.700,10.100
2.145,25.400,15.900,19.000,10.100
2.146,26.100,16.300,19.500,10.400
2.147,26.600,16.500,19.900,10.900
2.148,26.600,16.500,20.100,11.400
2.149,26.400,16.500,20.100,11.800
2.150,26.300,16.700,20.100,12.200
2.151,26.600,17.200,20.500,12.600
2.152,27.400,17.900,21.300,13.100
2.153,28.500,18.600,22.400,13.500
2.154,29.500,19.100,23.300,13.800
2.155,30.100,19.300,23.600,13.900
2.156,30.300,19.000,23.100,13.900
2.157,30.300,18.700,22.100,13.800
2.158,30.300,18.400,21.100,13.900
2.159,30.500,18.400,20.500,14.000
2.160,30.600,18.600,20.500,14.200
2.161,30.500,18.900,20.900,14.200
2.162,30.200,19.200,21.300,14.100
2.163,29.800,19.400,21.500,13.900
2.164,29.400,19.600,21.300,13.900
2.165,29.300,19.900,20.900,14.100
2.166,29.400,20.300,20.700,14.400
2.167,29.400,20.600,20.700,14.600
2.168,29.300,20.600,21.000,14.500
2.169,28.900,20.200,21.400,14.100
2.170,28.500,19.600,21.600,13.600
2.171,28.300,19.100,21.500,13.300
2.172,28.400,19.000,21.400,13.300
2.173,28.700,19.100,21.100,13.600
2.174,29.000,19.200,21.000,13.900
2.175,29.000,19.000,20.900,14.100
2.176,28.800,18.300,20.900,13.900
2.177,28.600,17.400,21.000,13.600
2.178,28.600,16.700,21.200,13.300
2.179,29.000,16.600,21.500,13.200
2.180,29.600,17.000,21.700,13.300
2.181,30.200,17.700,21.900,13.500
2.182,30.400,18.100,21.900,13.800
2.183,30.200,18.200,21.900,14.000
2.184,29.600,18.000,21.800,14.300
2.185,29.000,17.700,22.000,14.500
2.186,28.800,17.800,22.400,14.800
2.187,28.800,18.200,22.900,15.100
2.188,29.000,18.700,23.200,15.400
2.189,29.200,19.000,23.300,15.600
2.190,29.200,19.000,23.000,15.800
2.191,29.000,18.900,22.600,16.000
2.192,28.900,18.800,22.200,16.400
2.193,28.700,19.000,22.200,16.700
2.194,28.700,19.300,22.600,16.800
2.195,28.600,19.500,23.000,16.600
2.196,28.500,19.400,23.400,16.000
2.197,28.500,18.800,23.500,15.300
2.198,28.700,18.000,23.300,14.600
2.199,28.900,17.300,23.100,14.300
2.200,29.100,17.000,23.100,14.300
2.201,29.100,17.100,23.200,14.400
2.202,29.000,17.400,23.500,14.400
2.203,28.700,17.700,23.700,14.100
2.204,28.400,17.800,23.800,13.500
2.205,28.200,17.500,23.600,12.900
2.206,28.100,17.100,23.200,12.300
2.207,27.900,16.800,22.600,12.100
2.208,27.500,16.500,22.100,12.200
2.209,27.000,16.500,21.700,12.300
2.210,26.400,16.500,21.400,12.300
2.211,26.100,16.300,21.200,12.200
2.212,25.900,16.000,21.100,12.000
2.213,25.800,15.500,20.900,11.900
2.214,25.600,14.800,20.700,12.000
2.215,25.300,14.100,20.500,12.200
2.216,25.000,13.500,20.200,12.400
2.217,24.800,13.000,20.100,12.500
2.218,24.800,12.800,20.100,12.400
2.219,25.000,12.600,20.100,12.100
2.220,25.200,12.600,20.200,11.600
2.221,25.200,12.700,20.100,11.100
2.222,25.100,12.800,19.800,10.800
2.223,24.800,12.900,19.400,10.700
2.224,24.400,12.900,19.000,10.800
2.225,24.100,12.800,18.800,10.900
2.226,23.900,12.500,18.800,11.000
2.227,23.700,12.300,19.100,11.100
2.228,23.600,12.200,19.400,11.100
2.229,23.400,12.400,19.600,11.300
2.230,23.400,12.900,19.600,11.400
2.231,23.400,13.500,19.600,11.700
2.232,23.300,13.800,19.700,11.800
2.233,23.200,13.800,19.800,11.900
2.234,23.000,13.400,20.000,11.900
2.235,22.900,12.800,20.000,11.600
2.236,22.900,12.200,20.000,11.300
2.237,23.200,11.700,20.000,11.000
2.238,23.500,11.500,20.100,10.800
2.239,23.800,11.400,20.500,10.800
2.240,23.800,11.500,21.100,11.200
2.241,23.400,11.600,21.600,11.600
2.242,22.800,11.700,21.800,12.000
2.243,22.300,11.900,21.500,12.200
2.244,21.900,12.100,20.900,12.200
2.245,21.700,12.300,20.100,12.300
2.246,21.600,12.400,19.400,12.400
2.247,21.400,12.500,19.000,12.900
2.248,21.200,12.500,19.000,13.500
2.249,21.000,12.400,19.200,14.100
2.250,20.900,12.200,19.400,14.600
2.251,21.000,11.900,19.400,14.800
2.252,21.000,11.600,19.200,14.800
2.253,20.900,11.200,18.800,14.700
2.254,20.700,10.900,18.500,14.600
2.255,20.300,10.700,18.300,14.600
2.256,20.100,10.600,18.200,14.700
2.257,20.000,10.500,18.100,14.700
2.258,20.100,10.400,17.900,14.800
2.259,20.100,10.400,17.600,14.900
2.260,20.100,10.500,17.100,14.900
2.261,19.900,10.500,16.700,14.900
2.262,19.600,10.500,16.500,14.900
2.263,19.300,10.200,16.600,14.900
2.264,19.100,9.800,16.900,14.900
2.265,18.800,9.300,17.200,14.900
2.266,18.400,8.800,17.500,15.000
2.267,17.700,8.600,17.600,15.200
2.268,17.100,8.700,17.700,15.500
2.269,16.600,9.000,17.800,15.800
2.270,16.400,9.400,18.100,16.200
2.271,16.500,9.600,18.400,16.600
2.272,16.700,9.700,18.700,17.200
2.273,16.800,9.600,19.000,17.800
2.274,17.000,9.600,19.100,18.500
2.275,17.300,9.800,19.300,19.200
2.276,17.700,10.100,19.500,19.800
2.277,18.000,10.400,19.700,20.400
2.278,18.200,10.500,19.800,20.800
2.279,18.000,10.200,19.800,21.100
2.280,17.500,9.500,19.500,21.100
2.281,16.900,8.600,19.100,21.000
2.282,16.400,7.800,18.600,20.700
2.283,16.100,7.200,18.100,20.400
2.284,15.900,7.000,17.700,20.100
2.285,15.400,7.000,17.400,19.900
2.286,14.600,7.000,17.100,19.900
2.287,13.300,6.800,16.700,20.200
2.288,12.000,6.500,16.200,20.700
2.289,11.100,6.100,15.900,21.400
2.290,11.000,5.600,15.700,22.100
2.291,11.400,5.300,15.800,22.400
2.292,12.000,5.000,16.100,22.400
2.293,12.300,4.500,16.500,22.000
2.294,12.000,3.800,16.800,21.400
2.295,11.400,2.700,16.900,20.600
2.296,10.700,1.600,16.800,20.000
2.297,10.400,0.600,16.500,19.600
2.298,10.400,-0.200,16.100,19.400
2.299,10.500,-0.700,15.600,19.300
2.300,10.400,-1.000,15.100,19.300
2.301,9.800,-1.200,14.500,19.600
2.302,8.800,-1.500,13.900,20.000
2.303,7.800,-1.900,13.500,20.600
2.304,7.000,-2.300,13.100,21.300
2.305,6.300,-2.700,12.900,21.800
2.306,5.800,-3.000,12.800,22.100
2.307,5.200,-3.300,12.700,22.100
2.308,4.400,-3.500,12.500,21.900
2.309,3.500,-3.900,12.300,21.700
2.310,2.800,-4.200,12.100,21.500
2.311,2.300,-4.700,12.000,21.600
2.312,2.200,-5.200,12.000,21.700
2.313,2.500,-5.600,12.200,21.800
2.314,2.800,-6.000,12.400,22.100
2.315,3.100,-6.300,12.800,22.500
2.316,3.300,-6.500,13.300,23.000
2.317,3.200,-6.500,13.800,23.700
2.318,3.000,-6.500,14.200,24.300
2.319,2.700,-6.400,14.600,24.700
2.320,2.300,-6.300,14.700,25.000
2.321,2.100,-6.300,14.700,25.200
2.322,1.900,-6.500,14.400,25.400
2.323,1.700,-6.800,13.900,25.700
2.324,1.300,-7.200,13.200,25.900
2.325,0.700,-7.400,12.300,26.000
2.326,-0.100,-7.400,11.500,25.900
2.327,-1.100,-7.300,10.900,25.600
2.328,-2.000,-7.200,10.600,25.300
2.329,-2.700,-7.300,10.300,25.200
2.330,-3.200,-7.600,10.100,25.300
2.331,-3.500,-8.100,9.800,25.500
2.332,-3.700,-8.500,9.400,25.700
2.333,-3.900,-8.700,9.200,25.700
2.334,-4.100,-8.700,9.200,25.600
2.335,-4.300,-8.400,9.600,25.500
2.336,-4.400,-8.300,10.000,25.600
2.337,-4.600,-8.200,10.400,25.800
2.338,-4.700,-8.400,10.400,26.200
2.339,-4.800,-8.800,10.300,26.400
2.340,-5.000,-9.000,10.100,26.500
2.341,-5.300,-9.100,10.100,26.600
2.342,-5.800,-9.000,10.200,26.700
2.343,-6.400,-8.800,10.400,26.800
2.344,-7.100,-8.600,10.300,27.100
2.345,-7.700,-8.600,9.700,27.400
2.346,-8.100,-8.800,9.000,27.600
2.347,-8.100,-9.100,8.400,27.700
2.348,-8.000,-9.400,8.200,27.700
2.349,-7.600,-9.400,8.700,27.800
2.350,-7.200,-9.200,9.500,27.800
2.351,-6.900,-8.800,10.100,27.700
2.352,-6.700,-8.400,10.200,27.500
2.353,-6.800,-8.100,9.700,27.200
2.354,-7.100,-8.100,8.800,26.800
2.355,-7.500,-8.300,8.000,26.500
2.356,-7.800,-8.600,7.600,26.200
2.357,-7.900,-8.800,7.600,26.000
2.358,-7.900,-8.900,7.700,25.800
2.359,-7.700,-8.800,7.600,25.400
2.360,-7.600,-8.700,7.100,25.000
2.361,-7.700,-8.500,6.200,24.500
2.362,-8.100,-8.200,5.400,24.000
2.363,-8.800,-8.000,4.900,23.500
2.364,-9.400,-7.800,4.900,22.900
2.365,-9.800,-7.700,5.100,22.100
2.366,-9.800,-7.700,5.200,21.100
2.367,-9.400,-7.800,5.000,20.000
2.368,-8.800,-7.800,4.400,19.000
2.369,-8.300,-7.700,3.900,18.400
2.370,-8.000,-7.300,3.600,18.300
2.371,-7.800,-6.700,3.700,18.600
2.372,-7.700,-6.200,4.100,19.100
2.373,-7.400,-5.900,4.300,19.500
2.374,-6.900,-5.900,4.300,19.500
2.375,-6.200,-6.100,4.000,19.000
2.376,-5.500,-6.200,3.700,18.100
2.377,-4.700,-6.000,3.700,17.200
2.378,-4.100,-5.300,4.000,16.600
2.379,-3.700,-4.400,4.500,16.400
2.380,-3.500,-3.500,5.000,16.500
2.381,-3.400,-2.700,5.300,16.700
2.382,-3.500,-2.300,5.300,16.500
2.383,-3.600,-2.200,5.000,15.800
2.384,-3.600,-2.300,4.800,14.700
2.385,-3.500,-2.200,4.600,13.300
2.386,-3.400,-2.000,4.600,12.000
2.387,-3.300,-1.700,4.500,11.100
2.388,-3.200,-1.400,4.300,10.700
2.389,-3.300,-1.000,4.000,10.700
2.390,-3.300,-0.500,3.900,10.900
2.391,-3.100,0.100,3.900,11.000
2.392,-2.700,0.800,4.400,11.000
2.393,-2.200,1.500,5.100,10.800
2.394,-1.500,2.000,5.800,10.600
2.395,-0.800,2.300,6.300,10.300
2.396,0.000,2.400,6.400,9.800
2.397,0.800,2.400,6.300,9.200
2.398,1.600,2.500,6.100,8.500
2.399,2.400,2.800,5.800,7.800
2.400,2.900,3.300,5.700,7.200
2.401,3.200,3.700,5.600,6.900
2.402,3.200,4.000,5.500,6.800
2.403,3.100,4.000,5.300,6.800
2.404,2.900,3.900,5.000,6.800
2.405,2.900,3.700,4.700,6.400
2.406,2.800,3.600,4.500,5.800
2.407,2.700,3.500,4.300,5.100
2.408,2.400,3.500,4.100,4.300
2.409,2.200,3.300,3.800,3.700
2.410,2.100,3.100,3.600,3.100
2.411,2.300,2.900,3.300,2.600
2.412,2.700,2.600,3.000,2.000
2.413,3.200,2.300,2.700,1.100
2.414,3.500,2.000,2.400,0.200
2.415,3.700,1.600,2.100,-0.900
2.416,3.800,1.300,1.800,-1.800
2.417,4.000,1.000,1.500,-2.600
2.418,4.300,0.800,1.200,-3.000
2.419,4.800,0.800,1.200,-3.100
2.420,5.300,1.000,1.300,-3.000
2.421,5.700,1.200,1.700,-2.600
2.422,5.900,1.300,2.300,-2.200
2.423,6.100,1.400,2.700,-1.900
2.424,6.100,1.400,3.000,-1.700
2.425,6.100,1.500,3.000,-1.700
2.426,6.100,1.600,2.800,-1.900
2.427,5.900,1.900,2.400,-2.000
2.428,5.500,2.200,2.100,-2.100
2.429,5.100,2.600,1.900,-2.200
2.430,4.700,2.900,1.800,-2.100
2.431,4.600,3.200,1.800,-2.000
2.432,4.800,3.500,1.800,-1.900
2.433,5.300,3.600,1.800,-2.000
2.434,6.000,3.500,1.700,-2.300
2.435,6.700,3.300,1.900,-2.700
2.436,7.300,3.100,2.300,-3.100
2.437,7.700,3.100,2.900,-3.400
2.438,7.900,3.300,3.600,-3.200
2.439,8.100,3.700,4.100,-2.700
2.440,8.300,4.100,4.400,-2.100
2.441,8.400,4.400,4.400,-1.600
2.442,8.600,4.500,4.200,-1.400
2.443,8.700,4.400,4.200,-1.600
2.444,8.900,4.400,4.500,-1.900
2.445,9.000,4.600,5.000,-2.100
2.446,9.000,5.100,5.400,-2.000
2.447,9.000,5.700,5.700,-1.700
2.448,8.900,6.300,5.600,-1.300
2.449,8.900,6.600,5.400,-1.100
2.450,9.000,6.600,5.200,-1.200
2.451,9.300,6.300,5.300,-1.500
2.452,9.500,5.900,5.600,-1.600
2.453,9.500,5.600,6.100,-1.400
2.454,9.100,5.300,6.300,-0.900
2.455,8.600,5.200,6.100,-0.200
2.456,8.200,5.200,5.500,0.400
2.457,8.200,5.200,4.800,0.700
2.458,8.800,5.300,4.200,0.600
2.459,9.600,5.400,3.900,0.400
2.460,10.300,5.400,4.000,0.100
2.461,10.500,5.400,4.300,-0.100
2.462,9.900,5.400,4.600,-0.200
2.463,9.000,5.300,4.700,-0.200
2.464,8.200,5.200,4.600,-0.400
2.465,7.800,4.900,4.400,-0.600
2.466,8.000,4.600,4.200,-1.100
2.467,8.400,4.200,4.100,-1.500
2.468,8.700,3.800,4.200,-2.000
2.469,8.700,3.700,4.300,-2.600
2.470,8.500,3.800,4.500,-3.100
2.471,8.200,4.200,4.900,-3.700
2.472,8.200,4.500,5.500,-4.200
2.473,8.300,4.700,6.000,-4.400
2.474,8.500,4.600,6.400,-4.500
2.475,8.500,4.300,6.500,-4.400
2.476,8.400,4.000,6.200,-4.400
2.477,8.100,3.600,5.800,-4.600
2.478,7.800,3.400,5.400,-5.000
2.479,7.600,3.000,5.100,-5.500
2.480,7.400,2.600,4.900,-6.000
2.481,7.300,1.900,4.800,-6.300
2.482,7.200,1.200,4.600,-6.500
2.483,7.100,0.700,4.300,-6.600
2.484,7.000,0.400,3.800,-6.700
2.485,7.000,0.400,3.400,-7.000
2.486,7.000,0.500,3.000,-7.200
2.487,6.800,0.600,2.600,-7.300
2.488,6.500,0.500,2.300,-7.400
2.489,6.000,0.200,1.800,-7.300
2.490,5.300,-0.300,1.300,-7.300
2.491,4.700,-0.900,0.700,-7.500
2.492,4.200,-1.500,0.100,-8.000
2.493,4.000,-2.000,-0.300,-8.500
2.494,3.900,-2.400,-0.400,-9.000
2.495,4.200,-2.500,-0.400,-9.300
2.496,4.700,-2.300,-0.200,-9.200
2.497,5.400,-2.100,0.000,-9.100
2.498,6.100,-1.800,0.000,-9.100
2.499,6.500,-1.700,-0.200,-9.400
2.500,6.500,-1.800,-0.600,-9.800
2.501,6.200,-1.900,-1.100,-10.400
2.502,5.700,-2.200,-1.400,-10.800
2.503,5.400,-2.300,-1.400,-10.900
2.504,5.400,-2.400,-1.100,-10.800
2.505,5.800,-2.500,-0.700,-10.600
2.506,6.100,-2.400,-0.400,-10.400
2.507,6.200,-2.200,-0.400,-10.500
2.508,5.800,-1.800,-0.700,-10.700
2.509,5.100,-1.400,-1.200,-10.900
2.510,4.300,-1.200,-1.500,-11.100
2.511,3.700,-1.200,-1.700,-11.200
2.512,3.500,-1.600,-1.600,-11.300
2.513,3.500,-2.200,-1.400,-11.400
2.514,3.600,-2.700,-1.200,-11.500
2.515,3.600,-3.000,-1.000,-11.400
2.516,3.400,-3.100,-0.700,-11.100
2.517,3.300,-2.900,-0.300,-10.700
2.518,3.300,-2.900,0.100,-10.300
2.519,3.400,-2.900,0.400,-10.200
2.520,3.800,-3.100,0.400,-10.500
2.521,4.200,-3.300,0.000,-11.200
2.522,4.600,-3.400,-0.500,-12.000
2.523,4.800,-3.400,-1.000,-12.600
2.524,4.800,-3.400,-1.400,-12.800
2.525,4.600,-3.500,-1.600,-12.600
2.526,4.300,-3.600,-1.600,-12.200
2.527,3.800,-3.600,-1.700,-11.800
2.528,3.300,-3.400,-1.900,-11.500
2.529,3.000,-2.800,-2.000,-11.300
2.530,2.800,-1.900,-2.000,-11.000
2.531,3.000,-1.000,-1.700,-10.500
2.532,3.300,-0.200,-1.200,-10.000
2.533,3.800,0.200,-0.500,-9.500
2.534,4.200,0.300,0.200,-9.000
2.535,4.500,0.200,0.700,-8.700
2.536,4.800,-0.100,1.000,-8.400
2.537,5.000,-0.300,1.000,-8.200
2.538,5.200,-0.500,0.700,-8.100
2.539,5.400,-0.800,0.300,-8.100
2.540,5.500,-1.100,0.000,-8.100
2.541,5.600,-1.300,0.200,-8.000
2.542,5.700,-1.400,0.700,-7.700
2.543,5.900,-1.100,1.600,-7.100
2.544,6.100,-0.500,2.400,-6.300
2.545,6.300,0.200,2.800,-5.600
2.546,6.300,1.000,2.800,-5.200
2.547,6.000,1.700,2.400,-5.300
2.548,5.600,2.200,2.000,-5.600
2.549,5.100,2.500,1.900,-6.000
2.550,4.900,2.700,2.300,-6.100
2.551,5.100,2.800,2.900,-5.800
2.552,5.700,2.900,3.500,-5.400
2.553,6.500,3.100,3.900,-5.000
2.554,7.300,3.200,3.900,-4.900
2.555,7.800,3.400,3.500,-5.200
2.556,7.900,3.500,2.900,-5.700
2.557,7.600,3.400,2.100,-6.300
2.558,7.200,2.900,1.300,-6.600
2.559,6.900,2.100,0.600,-6.700
2.560,6.900,1.000,-0.100,-6.700
2.561,7.000,-0.300,-0.600,-6.900
2.562,7.200,-1.500,-1.000,-7.500
2.563,7.100,-2.500,-1.300,-8.500
2.564,6.700,-3.200,-1.700,-9.600
2.565,6.200,-3.500,-2.200,-10.600
2.566,5.600,-3.600,-2.600,-11.100
2.567,5.200,-3.400,-2.800,-10.800
2.568,5.000,-2.900,-2.800,-10.100
2.569,5.000,-2.100,-2.500,-9.300
2.570,5.200,-1.300,-2.000,-8.800
2.571,5.500,-0.400,-1.300,-8.600
2.572,6.000,0.500,-0.700,-8.500
2.573,6.600,1.300,0.100,-8.100
2.574,7.400,2.200,0.900,-6.900
2.575,8.200,3.300,1.800,-4.900
2.576,8.900,4.300,2.700,-2.500
2.577,9.300,5.300,3.300,-0.500
2.578,9.400,6.000,3.600,0.800
2.579,9.400,6.400,3.600,1.400
2.580,9.300,6.700,3.700,2.000
2.581,9.500,7.100,4.200,3.200
2.582,9.900,7.800,5.200,5.500
2.583,10.400,8.900,6.700,8.400
2.584,10.900,10.200,8.000,11.200
2.585,11.100,11.400,9.100,13.100
2.586,11.000,12.400,9.600,13.900
2.587,10.900,13.200,9.900,13.900
2.588,10.700,13.800,10.000,13.500
2.589,10.500,14.200,10.200,13.300
2.590,10.300,14.200,10.200,13.100
2.591,9.800,13.600,9.700,12.300
2.592,9.000,12.200,8.500,10.600
2.593,8.100,9.900,6.500,7.500
2.594,7.200,6.800,3.700,3.500
2.595,6.400,3.200,0.600,-1.000
2.596,5.800,-0.600,-2.300,-5.200
2.597,5.400,-4.200,-4.600,-8.600
2.598,5.100,-7.100,-6.200,-11.100
2.599,5.100,-9.000,-6.900,-12.600
2.600,5.300,-9.700,-6.900,-13.300
2.601,5.700,-9.500,-6.400,-13.200
2.602,6.100,-8.400,-5.600,-12.500
2.603,6.400,-7.100,-4.900,-11.500
2.604,6.400,-5.700,-4.300,-10.400
2.605,6.000,-4.500,-3.900,-9.400
2.606,5.600,-3.500,-3.600,-8.600
2.607,5.200,-2.800,-3.100,-8.100
2.608,5.100,-2.400,-2.600,-7.800
2.609,5.000,-2.300,-2.100,-7.600
2.610,4.900,-2.500,-1.900,-7.500
2.611,4.500,-2.900,-1.800,-7.300
2.612,4.000,-3.200,-2.000,-7.000
2.613,3.500,-3.400,-2.100,-6.800
2.614,3.300,-3.100,-2.200,-6.500
2.615,3.500,-2.700,-2.000,-6.200
2.616,4.100,-2.200,-1.800,-6.100
2.617,4.900,-1.900,-1.600,-6.000
2.618,5.600,-1.900,-1.500,-5.800
2.619,6.200,-2.000,-1.300,-5.400
2.620,6.600,-2.100,-1.000,-4.800
2.621,6.800,-2.000,-0.600,-4.100
2.622,7.100,-1.700,0.000,-3.500
2.623,7.200,-1.300,0.400,-3.100
2.624,7.200,-0.900,0.700,-3.000
2.625,6.900,-0.600,0.700,-3.200
2.626,6.600,-0.300,0.700,-3.500
2.627,6.100,0.100,0.700,-3.700
2.628,5.700,0.500,0.800,-3.700
2.629,5.400,0.900,0.800,-3.700
2.630,5.200,1.100,0.800,-3.800
2.631,5.000,0.900,0.600,-4.000
2.632,4.800,0.600,0.400,-4.200
2.633,4.800,0.400,0.300,-4.300
2.634,5.000,0.600,0.600,-4.100
2.635,5.500,1.300,1.200,-3.600
2.636,6.200,2.400,2.100,-3.000
2.637,6.900,3.500,2.700,-2.700
2.638,7.400,4.100,3.000,-2.700
2.639,7.300,4.000,2.800,-3.000
2.640,6.900,3.500,2.400,-3.300
2.641,6.300,2.900,2.200,-3.300
2.642,5.900,2.700,2.300,-2.900
2.643,5.800,3.100,2.900,-2.100
2.644,5.800,3.900,3.600,-1.300
2.645,5.800,4.600,4.200,-0.700
2.646,5.600,5.200,4.400,-0.400
2.647,5.200,5.500,4.200,-0.200
2.648,4.800,5.900,3.900,0.100
2.649,4.600,6.400,3.700,0.700
2.650,4.600,7.200,3.700,1.600
2.651,4.800,8.100,3.900,2.700
2.652,5.000,8.800,4.200,3.600
2.653,5.100,9.200,4.300,4.300
2.654,5.100,9.100,4.300,4.700
2.655,5.100,8.900,4.200,4.900
2.656,5.400,8.700,4.300,5.100
2.657,6.000,8.700,4.500,5.300
2.658,6.800,8.900,4.800,5.600
2.659,7.600,9.200,5.100,5.900
2.660,7.900,9.500,5.400,6.300
2.661,7.700,9.600,5.600,6.600
2.662,7.000,9.800,5.800,6.800
2.663,6.100,10.000,6.000,7.000
2.664,5.300,10.200,6.100,7.000
2.665,4.700,10.300,6.100,6.800
2.666,4.500,10.400,6.000,6.500
2.667,4.300,10.400,5.700,6.100
2.668,4.100,10.300,5.500,5.800
2.669,3.800,10.200,5.500,5.800
2.670,3.600,10.200,5.500,6.100
2.671,3.400,10.200,5.600,6.600
2.672,3.400,10.200,5.500,7.100
2.673,3.600,10.300,5.400,7.600
2.674,3.600,10.400,5.300,8.000
2.675,3.500,10.600,5.400,8.100
2.676,3.300,10.800,5.800,8.000
2.677,3.100,10.900,6.300,7.900
2.678,3.000,11.000,6.700,7.700
2.679,3.200,11.000,6.900,7.500
2.680,3.500,11.200,6.700,7.400
2.681,3.800,11.500,6.200,7.400
2.682,3.900,11.900,5.800,7.500
2.683,3.800,12.300,5.600,7.600
2.684,3.600,12.600,5.700,7.800
2.685,3.500,12.700,6.000,7.900
2.686,3.500,12.700,6.300,7.900
2.687,3.600,12.600,6.300,7.900
2.688,3.600,12.700,6.100,7.900
2.689,3.400,13.000,5.700,8.000
2.690,2.900,13.500,5.300,8.300
2.691,2.300,14.000,5.100,8.700
2.692,1.600,14.500,5.000,9.200
2.693,1.100,14.700,5.000,9.600
2.694,1.000,14.900,4.900,9.700
2.695,1.300,14.900,4.800,9.500
2.696,2.100,14.800,4.600,9.000
2.697,2.900,14.700,4.700,8.600
2.698,3.500,14.600,5.100,8.600
2.699,3.800,14.600,5.700,9.100
2.700,3.800,14.600,6.400,10.000
2.701,3.700,14.800,7.000,11.000
2.702,3.800,15.000,7.300,11.600
2.703,4.000,15.300,7.200,11.800
2.704,4.200,15.300,6.900,11.600
2.705,4.200,15.200,6.400,11.100
2.706,3.700,14.700,6.000,10.900
2.707,2.900,14.100,5.800,10.900
2.708,2.100,13.300,5.900,11.100
2.709,1.600,12.600,6.100,11.400
2.710,1.600,12.200,6.300,11.300
2.711,2.100,12.000,6.400,11.100
2.712,2.700,12.100,6.300,10.700
2.713,3.300,12.300,6.200,10.400
2.714,3.500,12.400,6.000,10.400
2.715,3.600,12.500,5.900,10.600
2.716,3.800,12.500,5.800,10.700
2.717,4.100,12.400,5.800,10.500
2.718,4.600,12.200,5.900,10.200
2.719,5.000,11.900,5.900,9.800
2.720,5.200,11.600,6.000,9.600
2.721,5.200,11.300,6.100,9.700
2.722,5.100,11.000,6.200,10.000
2.723,5.100,11.000,6.400,10.300
2.724,5.500,11.100,6.500,10.400
2.725,6.000,11.400,6.700,10.300
2.726,6.300,11.600,6.800,10.100
2.727,6.300,11.800,7.000,10.000
2.728,5.800,11.900,7.000,10.000
2.729,5.200,11.800,6.900,10.200
2.730,4.700,11.900,6.600,10.400
2.731,4.700,12.200,6.300,10.600
2.732,5.100,12.700,6.100,10.800
2.733,5.800,13.300,6.200,11.000
2.734,6.400,13.900,6.600,11.300
2.735,6.800,14.300,7.300,11.600
2.736,7.100,14.500,8.100,11.800
2.737,7.400,14.500,8.600,11.800
2.738,7.900,14.400,8.600,11.600
2.739,8.500,14.200,8.400,11.200
2.740,9.200,13.900,8.100,10.700
2.741,9.600,13.400,7.900,10.300
2.742,9.700,13.000,8.200,10.100
2.743,9.700,12.500,8.800,10.100
2.744,9.700,12.100,9.700,10.300
2.745,10.000,11.800,10.500,10.600
2.746,10.300,11.600,11.300,10.900
2.747,10.400,11.500,11.700,11.100
2.748,10.300,11.400,11.700,11.200
2.749,9.900,11.200,11.400,11.200
2.750,9.300,11.000,11.000,11.000
2.751,8.800,10.700,10.500,10.800
2.752,8.600,10.400,10.100,10.500
2.753,8.700,10.300,9.900,10.200
2.754,8.900,10.300,9.900,10.100
2.755,9.200,10.300,10.000,10.100
2.756,9.400,10.300,10.200,10.400
2.757,9.500,10.300,10.200,10.700
2.758,9.700,10.300,10.300,10.900
2.759,10.000,10.300,10.500,10.800
2.760,10.400,10.400,10.700,10.600
2.761,10.800,10.500,11.100,10.300
2.762,11.300,10.800,11.400,10.300
2.763,11.600,11.100,11.300,10.500
2.764,11.700,11.300,11.000,10.800
2.765,11.700,11.400,10.400,11.000
2.766,11.500,11.400,9.800,10.900
2.767,11.400,11.200,9.400,10.400
2.768,11.400,10.900,9.400,9.800
2.769,11.600,10.600,9.500,9.300
2.770,11.800,10.400,9.500,9.100
2.771,11.900,10.300,9.400,9.000
2.772,11.700,10.400,9.100,9.000
2.773,11.400,10.300,8.800,8.900
2.774,11.000,10.200,8.700,8.700
2.775,10.800,9.800,8.800,8.500
2.776,10.800,9.300,9.000,8.400
2.777,11.000,9.000,9.200,8.300
2.778,11.300,9.100,9.300,8.100
2.779,11.600,9.600,9.300,7.900
2.780,11.800,10.400,9.400,7.600
2.781,12.100,10.900,9.600,7.400
2.782,12.300,11.100,9.800,7.600
2.783,12.400,10.800,10.100,7.900
2.784,12.300,10.100,10.200,8.300
2.785,12.100,9.400,10.200,8.500
2.786,11.900,8.900,10.000,8.400
2.787,11.900,8.700,9.900,8.100
2.788,12.100,8.700,9.900,7.800
2.789,12.400,8.600,9.900,7.800
2.790,12.500,8.300,10.000,7.900
2.791,12.200,8.000,10.200,8.100
2.792,11.600,7.700,10.300,8.000
2.793,10.900,7.600,10.300,7.400
2.794,10.500,7.600,10.000,6.500
2.795,10.400,7.600,9.500,5.500
2.796,10.400,7.300,8.700,4.700
2.797,10.400,6.800,7.900,4.300
2.798,10.100,6.300,7.200,4.200
2.799,9.700,5.900,6.800,4.300
2.800,9.300,5.700,6.600,4.200
2.801,9.200,5.600,6.500,3.900
2.802,9.400,5.400,6.500,3.400
2.803,9.900,5.000,6.300,3.000
2.804,10.300,4.400,6.100,2.600
2.805,10.300,3.800,5.900,2.400
2.806,10.100,3.400,5.800,2.500
2.807,9.800,3.300,5.800,2.700
2.808,9.600,3.300,5.700,3.000
2.809,9.500,3.300,5.700,3.200
2.810,9.400,3.200,5.500,3.200
2.811,9.200,2.900,5.300,2.800
2.812,8.800,2.500,5.200,2.200
2.813,8.300,2.200,5.200,1.500
2.814,7.800,2.000,5.400,1.100
2.815,7.700,2.000,5.700,1.000
2.816,7.900,2.100,5.900,1.200
2.817,8.400,2.300,6.000,1.700
2.818,8.900,2.400,5.900,2.100
2.819,9.200,2.400,5.500,2.000
2.820,9.100,2.100,4.900,1.400
2.821,8.700,1.600,4.300,0.500
2.822,8.400,1.000,3.900,-0.600
2.823,8.300,0.300,3.800,-1.400
2.824,8.400,-0.100,4.000,-1.700
2.825,8.800,-0.300,4.400,-1.600
2.826,9.000,-0.400,4.900,-1.200
2.827,8.800,-0.400,5.300,-1.000
2.828,8.300,-0.500,5.400,-1.100
2.829,7.600,-0.700,5.300,-1.400
2.830,6.900,-0.800,4.900,-1.700
2.831,6.600,-0.800,4.100,-1.800
2.832,6.500,-0.700,3.300,-1.700
2.833,6.500,-0.500,2.600,-1.400
2.834,6.400,-0.400,2.100,-1.100
2.835,6.100,-0.300,2.000,-1.200
2.836,5.500,-0.400,2.100,-1.700
2.837,5.100,-0.600,2.500,-2.300
2.838,5.000,-0.700,2.900,-2.800
2.839,5.300,-0.700,3.400,-3.000
2.840,6.000,-0.700,3.900,-2.700
2.841,6.800,-0.500,4.300,-2.100
2.842,7.500,-0.200,4.700,-1.400
2.843,7.900,0.300,4.900,-0.800
2.844,8.000,0.700,4.800,-0.500
2.845,7.800,1.000,4.500,-0.600
2.846,7.500,1.000,4.000,-0.800
2.847,7.100,0.900,3.700,-1.000
2.848,6.900,0.600,3.500,-1.100
2.849,6.700,0.500,3.600,-1.100
2.850,6.600,0.500,3.700,-1.100
2.851,6.400,0.600,3.800,-1.200
2.852,6.200,0.500,3.800,-1.200
2.853,5.800,0.300,3.600,-1.300
2.854,5.300,-0.300,3.500,-1.300
2.855,4.900,-0.800,3.400,-1.200
2.856,4.800,-1.000,3.600,-1.200
2.857,4.900,-1.000,3.800,-1.200
2.858,5.200,-0.700,3.900,-1.500
2.859,5.600,-0.400,3.900,-1.900
2.860,5.800,-0.400,3.700,-2.400
2.861,5.900,-0.700,3.200,-2.700
2.862,5.900,-1.100,2.600,-2.700
2.863,5.800,-1.400,2.200,-2.500
2.864,5.800,-1.600,2.000,-1.900
2.865,5.800,-1.600,2.100,-1.300
2.866,5.800,-1.800,2.300,-0.900
2.867,5.600,-2.100,2.600,-0.700
2.868,5.400,-2.600,2.700,-0.800
2.869,5.200,-3.200,2.600,-1.200
2.870,4.800,-3.600,2.400,-1.900
2.871,4.400,-3.900,2.100,-2.600
2.872,3.800,-4.200,1.800,-3.100
2.873,3.200,-4.700,1.600,-3.500
2.874,2.600,-5.400,1.300,-3.500
2.875,2.200,-6.400,1.000,-3.400
2.876,2.100,-7.300,0.700,-3.300
2.877,2.200,-7.800,0.500,-3.300
2.878,2.500,-7.800,0.500,-3.300
2.879,2.800,-7.200,0.700,-3.500
2.880,3.000,-6.400,0.900,-3.600
2.881,3.100,-5.600,0.800,-3.800
2.882,3.200,-5.100,0.600,-4.000
2.883,3.500,-5.100,0.400,-4.100
2.884,3.900,-5.300,0.200,-4.100
2.885,4.200,-5.500,0.200,-4.000
2.886,4.100,-5.700,0.300,-3.800
2.887,3.700,-5.600,0.400,-3.700
2.888,3.000,-5.500,0.200,-3.800
2.889,2.400,-5.500,-0.100,-4.100
2.890,2.100,-5.700,-0.300,-4.700
2.891,2.000,-6.000,-0.400,-5.200
2.892,2.000,-6.300,-0.200,-5.700
2.893,2.000,-6.500,0.000,-5.900
2.894,1.800,-6.500,0.100,-5.800
2.895,1.500,-6.200,0.000,-5.600
2.896,1.400,-6.000,-0.200,-5.300
2.897,1.700,-6.000,-0.400,-5.200
2.898,2.100,-6.500,-0.500,-5.200
2.899,2.600,-7.300,-0.700,-5.500
2.900,2.600,-8.200,-1.000,-6.100
2.901,2.300,-8.900,-1.600,-6.800
2.902,1.800,-9.200,-2.200,-7.500
2.903,1.400,-9.100,-2.700,-7.900
2.904,1.300,-8.700,-2.800,-8.000
2.905,1.500,-8.300,-2.600,-7.800
2.906,1.800,-8.000,-2.300,-7.400
2.907,2.100,-7.900,-2.100,-7.000
2.908,2.000,-8.100,-2.400,-6.900
2.909,1.800,-8.400,-3.000,-7.000
2.910,1.500,-8.800,-3.800,-7.300
2.911,1.400,-9.000,-4.500,-7.700
2.912,1.400,-9.100,-4.900,-7.900
2.913,1.600,-8.800,-4.900,-8.000
2.914,1.800,-8.400,-4.700,-8.000
2.915,1.900,-7.900,-4.500,-7.800
2.916,1.800,-7.500,-4.400,-7.700
2.917,1.500,-7.300,-4.400,-7.600
2.918,1.200,-7.400,-4.500,-7.600
2.919,1.000,-7.600,-4.500,-7.800
2.920,0.900,-7.800,-4.400,-8.000
2.921,1.100,-7.700,-4.000,-8.300
2.922,1.700,-7.400,-3.500,-8.300
2.923,2.600,-6.900,-3.100,-8.000
2.924,3.400,-6.400,-2.700,-7.400
2.925,4.000,-6.100,-2.500,-6.800
2.926,4.300,-5.800,-2.400,-6.400
2.927,4.100,-5.600,-2.400,-6.400
2.928,3.700,-5.400,-2.500,-6.800
2.929,3.400,-5.100,-2.600,-7.500
2.930,3.300,-4.700,-2.600,-8.200
2.931,3.400,-4.300,-2.600,-8.800
2.932,3.700,-4.000,-2.600,-9.300
2.933,4.100,-3.600,-2.600,-10.000
2.934,4.600,-3.000,-2.700,-10.900
2.935,5.300,-1.900,-2.900,-12.300
2.936,6.400,-0.200,-3.000,-13.900
2.937,7.800,2.100,-2.900,-15.400
2.938,9.200,5.000,-2.600,-16.800
2.939,10.500,8.200,-2.200,-17.900
2.940,11.500,11.300,-1.800,-18.800
2.941,12.100,13.700,-1.700,-19.500
2.942,12.300,15.400,-1.900,-20.000
2.943,12.500,16.400,-2.200,-20.100
2.944,12.600,17.100,-2.100,-19.200
2.945,12.700,18.000,-1.400,-17.400
2.946,12.700,19.300,0.200,-14.700
2.947,12.600,21.200,2.500,-11.300
2.948,12.400,23.400,4.900,-7.900
2.949,12.000,25.600,6.900,-4.600
2.950,11.500,27.200,8.400,-1.300
2.951,10.700,28.000,9.400,2.200
2.952,9.600,28.000,10.300,6.400
2.953,8.300,27.300,11.400,11.500
2.954,6.700,26.100,12.900,17.500
2.955,5.100,24.700,14.700,24.100
2.956,3.500,23.100,16.700,30.700
2.957,1.900,21.300,18.400,37.000
2.958,0.000,19.200,19.800,42.900
2.959,-2.400,16.500,20.600,48.500
2.960,-5.300,13.100,21.000,54.000
2.961,-8.700,8.800,21.100,59.900
2.962,-12.200,4.100,21.100,66.100
2.963,-15.700,-0.700,21.100,72.700
2.964,-18.800,-5.300,21.200,79.300
2.965,-21.600,-9.400,21.200,85.600
2.966,-24.300,-13.100,21.000,91.000
2.967,-27.000,-16.500,20.500,95.400
2.968,-29.600,-19.800,19.700,98.700
2.969,-31.900,-22.700,18.700,100.600
2.970,-33.700,-25.200,17.500,101.300
2.971,-34.800,-27.300,16.200,100.600
2.972,-35.500,-29.000,14.700,98.400
2.973,-36.000,-31.000,12.500,94.700
2.974,-36.500,-33.600,9.600,89.700
2.975,-37.100,-37.100,6.000,83.600
2.976,-37.600,-41.400,2.100,77.000
2.977,-37.800,-45.900,-1.800,70.400
2.978,-37.700,-50.100,-5.000,64.300
2.979,-37.600,-53.600,-7.700,58.700
2.980,-37.500,-56.500,-10.000,53.500
2.981,-37.700,-59.100,-12.500,48.000
2.982,-38.000,-61.700,-15.400,41.800
2.983,-38.100,-64.300,-18.800,34.500
2.984,-37.600,-66.800,-22.300,26.300
2.985,-36.500,-68.600,-25.300,17.900
2.986,-35.000,-69.300,-27.500,9.900
2.987,-33.200,-68.800,-28.800,3.100
2.988,-31.600,-67.100,-29.300,-2.200
2.989,-29.900,-64.500,-29.400,-6.200
2.990,-28.300,-61.400,-29.200,-9.300
2.991,-26.600,-57.700,-28.900,-11.700
2.992,-24.800,-53.800,-28.200,-13.700
2.993,-23.300,-49.500,-27.000,-15.200
2.994,-22.000,-45.100,-25.500,-16.100
2.995,-20.900,-40.800,-23.800,-16.500
2.996,-19.900,-36.700,-22.100,-16.600
2.997,-18.500,-33.100,-20.600,-16.700
2.998,-16.900,-29.800,-19.300,-16.900
2.999,-15.200,-26.800,-18.300,-17.300
3.000,-13.500,-24.100,-17.500,-17.800
3.001,-12.200,-21.600,-16.900,-17.800
3.002,-11.400,-19.300,-16.100,-17.400
3.003,-10.800,-17.300,-15.300,-16.500
3.004,-10.200,-15.500,-14.400,-15.500
3.005,-9.700,-13.900,-13.500,-14.600
3.006,-9.000,-12.500,-12.600,-14.100
3.007,-8.200,-11.300,-11.900,-13.900
3.008,-7.500,-10.200,-11.200,-13.700
3.009,-6.900,-9.300,-10.700,-13.300
3.010,-6.200,-8.500,-10.000,-12.600
3.011,-5.500,-7.900,-9.300,-11.700
3.012,-4.700,-7.300,-8.700,-10.900
3.013,-3.900,-6.700,-8.100,-10.200
3.014,-3.300,-6.100,-7.600,-9.900
3.015,-2.900,-5.400,-7.300,-9.700
3.016,-2.700,-4.900,-7.100,-9.800
3.017,-2.600,-4.600,-6.900,-10.000
3.018,-2.400,-4.500,-6.600,-10.500
3.019,-2.000,-4.800,-6.200,-11.100
3.020,-1.300,-5.000,-5.700,-11.700
3.021,-0.200,-5.000,-5.300,-12.100
3.022,0.900,-4.500,-4.900,-12.100
3.023,1.900,-3.700,-4.500,-11.700
3.024,2.500,-2.600,-4.200,-11.100
3.025,2.800,-1.700,-4.000,-10.500
3.026,2.700,-1.200,-3.900,-10.200
3.027,2.500,-1.100,-3.900,-10.100
3.028,2.400,-1.200,-3.800,-10.000
3.029,2.600,-1.200,-3.600,-9.800
3.030,2.800,-1.100,-3.500,-9.400
3.031,3.000,-0.800,-3.400,-9.100
3.032,3.000,-0.700,-3.400,-9.100
3.033,2.700,-1.000,-3.600,-9.700
3.034,2.300,-1.800,-4.100,-10.900
3.035,2.200,-3.100,-4.600,-12.400
3.036,2.300,-4.200,-5.200,-13.800
3.037,2.800,-5.000,-5.800,-14.700
3.038,3.400,-5.200,-6.300,-15.100
3.039,3.800,-4.700,-6.600,-14.800
3.040,4.100,-3.700,-6.500,-14.200
3.041,4.400,-2.500,-5.900,-13.400
3.042,4.700,-1.300,-5.100,-12.600
3.043,5.200,0.000,-4.000,-11.900
3.044,5.600,1.200,-2.900,-11.300
3.045,5.900,2.700,-2.000,-10.500
3.046,6.000,4.400,-1.100,-9.400
3.047,6.000,6.400,-0.100,-8.000
3.048,6.100,8.400,0.900,-6.200
3.049,6.400,10.100,1.900,-4.500
3.050,6.900,11.200,2.600,-3.000
3.051,7.500,11.500,3.000,-2.100
3.052,7.800,11.300,3.100,-1.300
3.053,7.900,10.900,3.300,-0.400
3.054,7.800,11.000,3.900,1.000
3.055,7.800,11.800,5.100,3.200
3.056,8.300,13.300,6.900,6.000
3.057,9.200,15.300,8.800,8.600
3.058,10.500,17.200,10.400,10.800
3.059,11.600,18.600,11.500,12.000
3.060,12.200,19.500,12.000,12.500
3.061,12.300,19.900,12.000,12.400
3.062,12.000,19.900,11.800,12.000
3.063,11.700,19.700,11.400,11.400
3.064,11.600,19.300,10.900,10.500
3.065,11.700,18.600,10.000,9.100
3.066,11.800,17.400,8.800,7.200
3.067,11.600,15.400,7.100,4.600
3.068,11.000,12.800,5.000,1.700
3.069,10.000,9.600,2.700,-1.400
3.070,9.100,6.300,0.300,-4.300
3.071,8.500,3.400,-1.600,-6.800
3.072,8.300,1.300,-3.000,-8.500
3.073,8.400,0.200,-3.600,-9.300
3.074,8.600,0.200,-3.400,-9.300
3.075,8.600,0.900,-2.600,-8.700
3.076,8.500,2.000,-1.600,-7.800
3.077,8.300,3.200,-0.600,-6.900
3.078,8.100,4.100,0.100,-6.100
3.079,8.200,4.600,0.400,-5.400
3.080,8.400,4.800,0.400,-4.800
3.081,8.700,4.900,0.400,-4.100
3.082,8.900,4.800,0.400,-3.600
3.083,9.100,4.900,0.700,-3.200
3.084,9.300,5.000,0.900,-3.200
3.085,9.400,5.200,1.100,-3.300
3.086,9.500,5.500,1.100,-3.500
3.087,9.500,5.900,0.800,-3.500
3.088,9.500,6.200,0.300,-3.400
3.089,9.300,6.400,-0.100,-3.200
3.090,9.200,6.400,-0.400,-3.000
3.091,9.200,6.100,-0.600,-3.000
3.092,9.100,5.600,-0.800,-3.300
3.093,9.000,5.100,-0.900,-3.600
3.094,8.700,4.700,-0.900,-3.800
3.095,8.500,4.500,-0.900,-3.800
3.096,8.200,4.500,-0.700,-3.600
3.097,8.100,4.500,-0.600,-3.300
3.098,8.000,4.400,-0.500,-3.300
3.099,8.000,4.300,-0.700,-3.500
3.100,8.100,4.000,-1.100,-3.800
3.101,8.200,3.800,-1.400,-4.000
3.102,8.400,3.800,-1.500,-3.900
3.103,8.600,4.000,-1.300,-3.400
3.104,8.800,4.300,-0.800,-2.700
3.105,8.800,4.700,-0.400,-2.100
3.106,8.600,5.000,-0.100,-1.800
3.107,8.400,5.200,0.000,-1.900
3.108,8.200,5.200,0.000,-1.900
3.109,8.100,5.200,0.200,-1.800
3.110,8.200,5.300,0.600,-1.300
3.111,8.300,5.500,1.100,-0.800
3.112,8.400,5.900,1.600,-0.300
3.113,8.400,6.300,1.700,-0.300
3.114,8.200,6.700,1.700,-0.500
3.115,8.000,6.800,1.400,-0.800
3.116,7.800,6.700,1.300,-0.900
3.117,7.500,6.300,1.400,-0.900
3.118,7.300,5.900,1.700,-0.700
3.119,7.000,5.500,2.200,-0.600
3.120,6.800,5.300,2.600,-0.600
3.121,6.800,5.300,2.800,-0.800
3.122,7.000,5.500,2.800,-0.900
3.123,7.300,5.800,2.700,-0.800
3.124,7.700,5.900,2.500,-0.500
3.125,7.700,5.800,2.200,-0.100
3.126,7.400,5.500,1.900,0.100
3.127,6.900,5.100,1.600,0.000
3.128,6.300,4.600,1.400,-0.300
3.129,6.100,4.300,1.100,-0.700
3.130,6.100,4.200,0.900,-0.900
3.131,6.300,4.100,0.600,-0.900
3.132,6.600,4.100,0.200,-0.700
3.133,6.500,4.100,-0.100,-0.500
3.134,6.200,4.000,-0.300,-0.300
3.135,5.700,4.000,-0.400,-0.300
3.136,5.300,4.000,-0.400,-0.200
3.137,5.000,4.100,-0.300,-0.100
3.138,5.000,4.100,-0.300,0.100
3.139,5.200,4.000,-0.400,0.300
3.140,5.300,3.800,-0.300,0.600
3.141,5.400,3.600,-0.100,0.600
3.142,5.400,3.500,0.200,0.500
3.143,5.200,3.600,0.500,0.400
3.144,4.900,3.900,0.600,0.200
3.145,4.300,4.100,0.500,0.200
3.146,3.700,4.200,0.200,0.300
3.147,3.100,4.000,-0.200,0.400
3.148,2.600,3.400,-0.600,0.300
3.149,2.300,2.600,-0.800,-0.100
3.150,2.300,1.900,-0.900,-0.700
3.151,2.300,1.400,-1.000,-1.400
3.152,2.200,1.000,-1.200,-2.000
3.153,1.900,0.600,-1.600,-2.600
3.154,1.400,0.100,-2.100,-3.000
3.155,0.900,-0.600,-2.700,-3.200
3.156,0.600,-1.100,-3.100,-3.300
3.157,0.500,-1.400,-3.200,-3.300
3.158,0.500,-1.400,-3.100,-3.300
3.159,0.400,-1.100,-3.000,-3.200
3.160,0.000,-0.700,-2.900,-3.100
3.161,-0.400,-0.500,-3.000,-2.900
3.162,-0.800,-0.500,-3.200,-2.700
3.163,-0.900,-0.700,-3.300,-2.500
3.164,-0.800,-0.900,-3.200,-2.200
3.165,-0.500,-1.100,-2.900,-1.800
3.166,-0.300,-1.300,-2.400,-1.300
3.167,-0.200,-1.300,-1.800,-0.800
3.168,-0.200,-1.100,-1.300,-0.200
3.169,-0.400,-0.800,-0.900,0.400
3.170,-0.600,-0.500,-0.800,0.900
3.171,-0.800,-0.200,-0.800,1.300
3.172,-1.000,-0.300,-0.800,1.600
3.173,-1.400,-0.900,-0.900,1.700
3.174,-2.000,-1.700,-1.000,1.800
3.175,-2.500,-2.800,-1.100,2.000
3.176,-2.900,-3.700,-1.300,2.300
3.177,-3.000,-4.400,-1.600,2.700
3.178,-2.900,-4.600,-1.800,3.200
3.179,-2.800,-4.500,-1.900,3.800
3.180,-2.900,-4.100,-1.900,4.200
3.181,-3.200,-3.800,-1.600,4.500
3.182,-3.700,-3.700,-1.200,4.700
3.183,-4.400,-3.900,-0.900,4.900
3.184,-5.100,-4.200,-0.700,5.100
3.185,-5.700,-4.600,-0.800,5.300
3.186,-6.000,-5.100,-1.100,5.700
3.187,-6.200,-5.600,-1.700,5.900
3.188,-6.300,-6.200,-2.200,6.100
3.189,-6.500,-6.900,-2.700,6.100
3.190,-6.700,-7.700,-2.900,6.000
3.191,-7.000,-8.300,-3.000,6.000
3.192,-7.400,-8.800,-3.000,6.100
3.193,-7.700,-8.900,-2.900,6.500
3.194,-7.900,-8.700,-2.700,7.200
3.195,-8.100,-8.500,-2.400,8.000
3.196,-8.300,-8.400,-2.100,8.700
3.197,-8.500,-8.500,-1.900,9.300
3.198,-8.800,-8.900,-1.900,9.600
3.199,-9.000,-9.400,-2.200,9.700
3.200,-9.200,-10.000,-2.800,9.600
3.201,-9.100,-10.500,-3.500,9.400
3.202,-9.000,-10.900,-4.200,9.000
3.203,-9.000,-11.100,-4.800,8.700
3.204,-9.100,-11.200,-5.200,8.500
3.205,-9.500,-11.300,-5.400,8.700
3.206,-10.200,-11.300,-5.600,9.200
3.207,-10.900,-11.300,-5.700,9.900
3.208,-11.500,-11.300,-5.700,10.500
3.209,-11.800,-11.400,-5.500,10.800
3.210,-11.800,-11.600,-5.100,10.800
3.211,-11.700,-11.900,-4.600,10.500
3.212,-11.700,-12.200,-4.200,10.200
3.213,-12.000,-12.600,-3.900,10.200
3.214,-12.600,-12.900,-4.000,10.600
3.215,-13.200,-13.000,-4.100,11.300
3.216,-13.500,-13.000,-4.300,12.000
3.217,-13.500,-12.900,-4.300,12.700
3.218,-13.200,-12.800,-4.200,13.100
3.219,-12.900,-12.600,-3.800,13.500
3.220,-12.600,-12.600,-3.400,13.900
3.221,-12.600,-12.500,-3.000,14.200
3.222,-12.800,-12.500,-2.800,14.400
3.223,-13.000,-12.400,-2.900,14.500
3.224,-13.300,-12.200,-3.200,14.700
3.225,-13.500,-12.000,-3.500,15.000
3.226,-13.800,-11.800,-3.700,15.600
3.227,-14.000,-11.700,-3.500,16.500
3.228,-14.200,-11.600,-3.100,17.500
3.229,-14.200,-11.600,-2.600,18.200
3.230,-14.000,-11.600,-2.300,18.500
3.231,-13.900,-11.700,-2.400,18.200
3.232,-14.000,-12.000,-2.900,17.500
3.233,-14.400,-12.400,-3.600,16.800
3.234,-15.100,-12.700,-4.300,16.400
3.235,-15.800,-13.000,-4.800,16.300
3.236,-16.300,-13.100,-5.000,16.700
3.237,-16.300,-13.000,-4.900,17.200
3.238,-15.900,-12.700,-4.700,17.700
3.239,-15.500,-12.400,-4.300,18.100
3.240,-15.200,-11.900,-3.800,18.400
3.241,-15.200,-11.400,-3.400,18.700
3.242,-15.300,-10.800,-3.100,19.100
3.243,-15.500,-10.300,-2.900,19.500
3.244,-15.800,-9.800,-2.900,19.900
3.245,-15.900,-9.400,-2.800,20.300
3.246,-16.000,-9.300,-2.700,20.400
3.247,-16.100,-9.300,-2.500,20.400
3.248,-16.100,-9.300,-2.200,20.200
3.249,-16.100,-9.200,-1.900,20.100
3.250,-16.000,-8.900,-1.600,20.000
3.251,-15.800,-8.600,-1.500,20.100
3.252,-15.600,-8.300,-1.700,20.200
3.253,-15.400,-8.200,-2.000,20.100
3.254,-15.200,-8.200,-2.300,19.800
3.255,-15.100,-8.100,-2.700,19.100
3.256,-14.900,-7.800,-2.900,18.300
3.257,-14.600,-7.100,-2.900,17.700
3.258,-14.100,-6.100,-2.700,17.300
3.259,-13.600,-5.200,-2.600,17.200
3.260,-13.100,-4.500,-2.600,17.100
3.261,-12.800,-4.100,-2.700,16.900
3.262,-12.800,-4.100,-3.100,16.300
3.263,-12.800,-4.200,-3.500,15.500
3.264,-12.700,-4.100,-3.800,14.600
3.265,-12.400,-3.900,-3.800,13.800
3.266,-12.000,-3.600,-3.500,13.200
3.267,-11.500,-3.300,-3.000,12.800
3.268,-11.100,-3.200,-2.400,12.500
3.269,-10.900,-3.100,-1.900,12.200
3.270,-10.700,-3.000,-1.500,11.800
3.271,-10.300,-2.800,-1.500,11.400
3.272,-9.700,-2.400,-1.700,10.900
3.273,-8.900,-1.900,-2.000,10.400
3.274,-8.100,-1.500,-2.300,9.700
3.275,-7.600,-1.300,-2.600,9.000
3.276,-7.400,-1.100,-2.600,8.400
3.277,-7.700,-0.900,-2.600,7.900
3.278,-8.000,-0.700,-2.500,7.600
3.279,-8.300,-0.300,-2.400,7.400
3.280,-8.200,0.000,-2.400,7.300
3.281,-7.700,0.300,-2.500,7.000
3.282,-6.800,0.500,-2.500,6.500
3.283,-5.700,0.700,-2.400,5.800
3.284,-4.700,0.900,-2.100,5.100
3.285,-3.900,1.000,-1.900,4.500
3.286,-3.600,1.300,-1.800,3.900
3.287,-3.600,1.500,-1.900,3.200
3.288,-3.700,1.700,-2.100,2.500
3.289,-3.700,2.000,-2.400,1.800
3.290,-3.400,2.400,-2.500,1.200
3.291,-2.800,2.800,-2.300,0.800
3.292,-2.100,3.200,-1.800,0.600
3.293,-1.600,3.400,-1.200,0.400
3.294,-1.500,3.500,-0.700,0.000
3.295,-1.800,3.500,-0.600,-0.600
3.296,-2.200,3.400,-0.700,-1.400
3.297,-2.500,3.500,-1.100,-2.200
3.298,-2.600,3.700,-1.600,-2.800
3.299,-2.400,3.900,-2.000,-3.400
3.300,-2.100,3.900,-2.200,-3.800
3.301,-1.900,3.600,-2.300,-4.200
3.302,-1.700,3.000,-2.300,-4.600
3.303,-1.500,2.300,-2.300,-5.100
3.304,-1.200,1.900,-2.300,-5.500
3.305,-0.900,1.800,-2.600,-5.800
3.306,-0.700,2.000,-3.000,-6.200
3.307,-0.700,2.300,-3.500,-6.700
3.308,-1.100,2.500,-3.900,-7.300
3.309,-1.500,2.500,-4.000,-8.000
3.310,-1.600,2.200,-3.700,-8.500
3.311,-1.200,2.000,-3.100,-8.900
3.312,-0.500,1.900,-2.600,-9.100
3.313,0.400,2.000,-2.300,-9.200
3.314,0.900,2.100,-2.400,-9.400
3.315,1.100,2.200,-2.800,-9.500
3.316,1.000,2.100,-3.300,-9.800
3.317,1.000,2.000,-3.600,-9.900
3.318,1.100,2.000,-3.600,-9.900
3.319,1.500,2.200,-3.500,-9.900
3.320,1.800,2.500,-3.200,-9.900
3.321,1.700,3.000,-2.900,-10.000
3.322,1.200,3.300,-2.600,-10.200
3.323,0.500,3.400,-2.400,-10.600
3.324,0.000,3.200,-2.400,-10.800
3.325,-0.100,2.800,-2.500,-11.000
3.326,0.300,2.300,-2.700,-11.200
3.327,1.000,1.800,-3.100,-11.400
3.328,1.500,1.500,-3.400,-11.800
3.329,1.800,1.200,-3.600,-12.200
3.330,1.800,1.100,-3.500,-12.600
3.331,1.700,1.100,-3.200,-12.600
3.332,1.600,1.000,-2.700,-12.300
3.333,1.700,0.900,-2.200,-11.800
3.334,1.600,0.700,-1.900,-11.300
3.335,1.300,0.300,-1.800,-11.100
3.336,0.900,-0.400,-2.100,-11.200
3.337,0.300,-1.100,-2.700,-11.700
3.338,-0.200,-1.900,-3.400,-12.100
3.339,-0.500,-2.400,-3.900,-12.400
3.340,-0.500,-2.700,-4.100,-12.400
3.341,-0.300,-2.800,-4.100,-12.300
3.342,-0.300,-2.700,-4.000,-12.400
3.343,-0.400,-2.600,-4.100,-12.600
3.344,-0.600,-2.600,-4.400,-13.200
3.345,-0.900,-2.800,-5.000,-13.900
3.346,-1.100,-3.200,-5.600,-14.500
3.347,-1.300,-3.500,-6.300,-15.100
3.348,-1.300,-3.900,-6.700,-15.600
3.349,-1.100,-4.100,-7.000,-16.000
3.350,-1.000,-4.300,-7.200,-16.600
3.351,-0.900,-4.400,-7.300,-17.200
3.352,-0.900,-4.600,-7.400,-18.000
3.353,-1.000,-4.700,-7.300,-18.600
3.354,-1.100,-4.700,-7.200,-19.000
3.355,-1.100,-4.700,-7.000,-19.200
3.356,-1.000,-4.600,-7.000,-19.200
3.357,-0.800,-4.700,-7.100,-19.000
3.358,-0.600,-4.900,-7.300,-18.800
3.359,-0.600,-5.300,-7.500,-18.600
3.360,-0.900,-5.700,-7.800,-18.200
3.361,-1.200,-5.900,-8.100,-17.800
3.362,-1.500,-5.800,-8.300,-17.200
3.363,-1.600,-5.400,-8.200,-16.600
3.364,-1.400,-4.900,-8.000,-15.900
3.365,-1.000,-4.700,-7.600,-15.500
3.366,-0.500,-4.700,-7.000,-15.300
3.367,-0.200,-5.200,-6.500,-15.400
3.368,-0.100,-5.800,-6.300,-15.600
3.369,-0.300,-6.400,-6.300,-16.100
3.370,-0.600,-6.900,-6.600,-16.500
3.371,-0.800,-7.200,-7.100,-16.800
3.372,-0.800,-7.200,-7.500,-17.100
3.373,-0.900,-7.100,-7.700,-17.300
3.374,-0.900,-6.900,-7.600,-17.400
3.375,-1.000,-6.700,-7.400,-17.500
3.376,-1.200,-6.500,-7.000,-17.500
3.377,-1.300,-6.500,-6.600,-17.400
3.378,-1.400,-6.500,-6.400,-17.200
3.379,-1.400,-6.600,-6.400,-16.900
3.380,-1.200,-6.500,-6.600,-16.600
3.381,-1.000,-6.300,-6.800,-16.400
3.382,-1.000,-6.100,-7.000,-16.400
3.383,-1.200,-5.900,-7.100,-16.800
3.384,-1.700,-5.900,-7.100,-17.400
3.385,-2.100,-6.100,-7.100,-18.000
3.386,-2.400,-6.400,-7.100,-18.600
3.387,-2.400,-6.700,-7.000,-19.000
3.388,-2.100,-6.700,-6.900,-19.100
3.389,-1.600,-6.400,-6.700,-19.200
3.390,-1.300,-6.000,-6.500,-19.200
3.391,-1.200,-5.700,-6.500,-19.600
3.392,-1.600,-5.700,-6.800,-20.100
3.393,-2.100,-6.000,-7.200,-20.700
3.394,-2.500,-6.300,-7.400,-21.200
3.395,-2.500,-6.500,-7.100,-21.200
3.396,-2.100,-6.300,-6.300,-20.800
3.397,-1.500,-5.900,-5.200,-20.200
3.398,-1.000,-5.400,-4.000,-19.500
3.399,-0.700,-5.100,-3.200,-19.100
3.400,-0.900,-5.000,-3.000,-18.900
3.401,-1.400,-5.100,-3.200,-18.900
3.402,-1.900,-5.300,-3.500,-18.900
3.403,-2.400,-5.400,-3.700,-18.700
3.404,-2.600,-5.500,-3.700,-18.300
3.405,-2.700,-5.400,-3.700,-17.800
3.406,-2.600,-5.200,-4.000,-17.300
3.407,-2.500,-4.900,-4.400,-16.900
3.408,-2.300,-4.500,-4.800,-16.600
3.409,-2.000,-4.200,-5.000,-16.300
3.410,-1.600,-3.900,-4.700,-16.100
3.411,-1.100,-3.700,-4.200,-15.900
3.412,-0.600,-3.800,-3.700,-15.900
3.413,-0.400,-4.100,-3.400,-16.000
3.414,-0.400,-4.400,-3.400,-16.200
3.415,-0.700,-4.600,-3.700,-16.400
3.416,-1.100,-4.600,-4.100,-16.400
3.417,-1.300,-4.500,-4.200,-16.300
3.418,-1.100,-4.200,-4.000,-16.000
3.419,-0.900,-4.000,-3.600,-15.700
3.420,-0.700,-3.700,-3.300,-15.500
3.421,-1.000,-3.600,-3.100,-15.300
3.422,-1.700,-3.700,-3.200,-15.300
3.423,-2.600,-3.900,-3.500,-15.300
3.424,-3.200,-4.200,-3.800,-15.400
3.425,-3.200,-4.500,-4.100,-15.500
3.426,-2.600,-4.600,-4.100,-15.700
3.427,-1.800,-4.500,-3.900,-15.800
3.428,-1.100,-4.400,-3.600,-16.000
3.429,-1.100,-4.400,-3.500,-16.200
3.430,-1.500,-4.800,-3.500,-16.500
3.431,-2.100,-5.500,-3.800,-16.800
3.432,-2.300,-6.200,-4.100,-17.200
3.433,-2.000,-6.700,-4.400,-17.600
3.434,-1.200,-7.000,-4.500,-18.000
3.435,-0.500,-7.000,-4.500,-18.500
3.436,-0.100,-6.900,-4.400,-18.900
3.437,-0.400,-6.800,-4.300,-19.200
3.438,-1.200,-6.700,-4.500,-19.300
3.439,-2.100,-6.800,-4.800,-19.300
3.440,-2.700,-6.800,-5.200,-19.200
3.441,-3.000,-6.800,-5.700,-19.100
3.442,-2.900,-6.900,-5.900,-18.900
3.443,-2.700,-6.800,-5.900,-18.800
3.444,-2.600,-6.700,-5.700,-18.600
3.445,-2.700,-6.500,-5.300,-18.400
3.446,-2.800,-6.100,-5.000,-18.200
3.447,-2.900,-5.700,-4.800,-18.000
3.448,-3.000,-5.600,-4.800,-17.900
3.449,-3.000,-5.900,-5.000,-17.700
3.450,-3.000,-6.400,-5.100,-17.400
3.451,-2.900,-7.100,-5.200,-17.200
3.452,-2.800,-7.600,-5.200,-17.000
3.453,-2.600,-7.800,-5.100,-17.000
3.454,-2.200,-7.500,-5.000,-17.100
3.455,-1.800,-7.200,-4.700,-17.300
3.456,-1.400,-6.900,-4.400,-17.400
3.457,-1.200,-7.000,-4.000,-17.300
3.458,-1.300,-7.400,-3.500,-16.900
3.459,-1.800,-7.800,-3.200,-16.400
3.460,-2.600,-8.100,-3.000,-15.800
3.461,-3.400,-8.200,-3.200,-15.600
3.462,-4.000,-8.000,-3.500,-15.700
3.463,-4.300,-7.700,-3.800,-16.100
3.464,-4.200,-7.300,-4.000,-16.700
3.465,-4.000,-7.200,-4.200,-17.300
3.466,-3.900,-7.300,-4.300,-17.700
3.467,-4.000,-7.500,-4.400,-17.700
3.468,-4.400,-7.900,-4.800,-17.600
3.469,-4.800,-8.100,-5.100,-17.300
3.470,-4.800,-8.200,-5.400,-17.100
3.471,-4.500,-8.100,-5.400,-17.100
3.472,-3.700,-7.800,-5.300,-17.400
3.473,-2.900,-7.400,-5.100,-17.900
3.474,-2.400,-7.100,-5.000,-18.500
3.475,-2.100,-7.000,-5.200,-18.800
3.476,-2.200,-6.900,-5.400,-18.900
3.477,-2.600,-7.000,-5.800,-18.700
3.478,-3.000,-7.200,-6.100,-18.400
3.479,-3.500,-7.400,-6.300,-18.200
3.480,-4.000,-7.800,-6.600,-18.200
3.481,-4.400,-8.200,-6.900,-18.300
3.482,-4.800,-8.500,-7.200,-18.400
3.483,-4.800,-8.800,-7.600,-18.400
3.484,-4.300,-8.900,-7.700,-18.100
3.485,-3.600,-8.800,-7.400,-17.600
3.486,-2.800,-8.500,-6.900,-17.200
3.487,-2.300,-8.300,-6.300,-17.200
3.488,-2.400,-8.300,-5.900,-17.400
3.489,-2.800,-8.500,-5.900,-17.900
3.490,-3.400,-8.800,-6.400,-18.400
3.491,-3.700,-9.000,-6.800,-18.500
3.492,-3.500,-9.000,-7.000,-18.000
3.493,-2.700,-8.600,-6.600,-17.100
3.494,-1.700,-8.200,-5.900,-16.100
3.495,-1.000,-7.900,-5.200,-15.500
3.496,-0.700,-8.200,-5.100,-15.700
3.497,-1.100,-9.000,-5.800,-16.400
3.498,-1.800,-10.200,-6.900,-17.400
3.499,-2.400,-11.100,-8.000,-18.200
3.500,-2.600,-11.500,-8.400,-18.400
3.501,-2.600,-11.000,-8.000,-18.000
3.502,-2.500,-10.000,-7.200,-17.500
3.503,-2.500,-8.900,-6.400,-17.100
3.504,-2.900,-8.300,-6.200,-17.500
3.505,-3.400,-8.600,-6.900,-18.500
3.506,-3.800,-9.500,-8.100,-20.100
3.507,-3.900,-10.700,-9.400,-21.900
3.508,-3.600,-11.800,-10.300,-23.400
3.509,-3.300,-12.600,-10.800,-24.400
3.510,-3.100,-12.900,-10.800,-24.700
3.511,-3.200,-12.700,-10.500,-24.400
3.512,-3.200,-12.200,-9.900,-23.500
3.513,-3.100,-11.200,-9.100,-22.200
3.514,-2.700,-9.800,-7.900,-20.600
3.515,-2.000,-8.200,-6.400,-19.000
3.516,-1.200,-6.500,-4.600,-17.500
3.517,-0.600,-4.800,-2.800,-16.000
3.518,-0.200,-3.000,-1.200,-14.400
3.519,0.000,-1.300,0.100,-12.600
3.520,0.200,0.400,1.000,-10.700
3.521,0.400,1.800,1.500,-9.000
3.522,0.500,2.900,1.700,-7.600
3.523,0.500,3.600,1.800,-6.700
3.524,0.500,4.000,2.000,-5.800
3.525,0.600,4.400,2.400,-4.600
3.526,1.000,5.200,3.300,-2.900
3.527,1.800,6.600,4.600,-0.700
3.528,2.800,8.100,6.100,1.500
3.529,3.800,9.500,7.600,3.400
3.530,4.500,10.500,8.900,4.800
3.531,4.900,11.000,10.000,5.800
3.532,5.200,11.300,10.800,6.500
3.533,5.400,11.800,11.200,7.200
3.534,5.600,12.300,11.200,7.700
3.535,5.500,12.600,10.600,7.600
3.536,5.200,12.300,9.400,6.600
3.537,4.400,10.900,7.700,4.400
3.538,3.300,8.500,5.500,1.400
3.539,2.100,5.300,3.200,-2.100
3.540,1.000,1.700,0.900,-5.600
3.541,0.000,-1.800,-1.200,-8.700
3.542,-0.800,-4.800,-2.900,-11.300
3.543,-1.400,-7.100,-4.100,-13.300
3.544,-1.600,-8.500,-4.800,-14.600
3.545,-1.400,-9.100,-5.000,-15.100
3.546,-0.600,-8.900,-4.800,-14.800
3.547,0.600,-8.100,-4.200,-13.900
3.548,1.700,-6.900,-3.500,-12.700
3.549,2.600,-5.700,-2.900,-11.600
3.550,2.900,-4.700,-2.500,-10.900
3.551,2.900,-4.000,-2.300,-10.800
3.552,2.700,-3.500,-2.300,-11.000
3.553,2.700,-3.100,-2.400,-11.200
3.554,2.800,-2.700,-2.400,-11.300
3.555,3.100,-2.200,-2.400,-11.000
3.556,3.200,-1.700,-2.200,-10.600
3.557,3.000,-1.400,-2.000,-10.200
3.558,2.500,-1.300,-1.800,-10.000
3.559,1.900,-1.600,-1.800,-10.000
3.560,1.300,-2.100,-2.000,-10.200
3.561,0.900,-2.600,-2.300,-10.500
3.562,0.600,-2.800,-2.800,-10.800
3.563,0.500,-2.700,-3.200,-11.000
3.564,0.300,-2.300,-3.400,-11.200
3.565,0.400,-1.900,-3.600,-11.300
