'Elapsed time','AECG1','AECG2','AECG3','AECG4'
'seconds','uV','uV','uV','uV'
0.000,-2.600,-2.100,2.800,-5.200
0.001,-2.700,-1.900,2.900,-5.400
0.002,-3.000,-1.800,3.000,-5.500
0.003,-3.200,-1.500,3.100,-5.600
0.004,-3.400,-0.900,3.200,-5.900
0.005,-3.700,-0.600,3.300,-6.200
0.006,-4.000,-1.000,3.300,-6.400
0.007,-4.300,-2.200,3.300,-6.300
0.008,-4.700,-3.500,3.300,-5.800
0.009,-5.100,-4.000,3.200,-5.400
0.010,-5.400,-3.400,3.200,-5.000
0.011,-5.700,-2.400,3.200,-4.900
0.012,-6.100,-2.500,3.200,-4.900
0.013,-6.600,-4.500,3.100,-5.000
0.014,-7.100,-7.900,3.100,-5.100
0.015,-7.600,-11.300,3.200,-5.400
0.016,-8.200,-13.500,3.200,-5.800
0.017,-8.700,-14.500,3.300,-6.300
0.018,-9.300,-14.900,3.400,-6.800
0.019,-9.900,-15.600,3.500,-7.100
0.020,-10.500,-16.800,3.600,-7.200
0.021,-11.100,-17.800,3.800,-7.200
0.022,-11.600,-18.000,4.000,-7.200
0.023,-12.100,-17.300,4.200,-6.900
0.024,-12.500,-16.000,4.400,-6.400
0.025,-13.000,-14.700,4.600,-5.700
0.026,-13.400,-13.400,4.800,-5.000
0.027,-13.800,-12.000,5.100,-4.200
0.028,-14.100,-10.100,5.300,-3.500
0.029,-14.300,-7.700,5.400,-2.700
0.030,-14.500,-5.100,5.600,-2.100
0.031,-14.600,-2.800,5.700,-1.700
0.032,-14.600,-1.400,5.800,-1.500
0.033,-14.700,-0.700,5.900,-1.500
0.034,-14.700,-0.500,5.900,-1.500
0.035,-14.800,-0.400,5.800,-1.500
0.036,-14.900,-0.700,5.800,-1.600
0.037,-15.000,-1.500,5.800,-1.800
0.038,-15.100,-3.000,5.700,-2.100
0.039,-15.300,-4.800,5.700,-2.600
0.040,-15.500,-6.200,5.600,-3.000
0.041,-15.800,-7.000,5.500,-3.500
0.042,-16.000,-7.200,5.500,-4.000
0.043,-16.200,-7.300,5.500,-4.800
0.044,-16.400,-7.300,5.500,-5.600
0.045,-16.600,-7.200,5.500,-6.400
0.046,-16.800,-6.800,5.500,-7.100
0.047,-17.000,-6.000,5.500,-7.500
0.048,-17.100,-5.400,5.400,-7.900
0.049,-17.100,-5.600,5.400,-8.100
0.050,-17.000,-6.500,5.300,-8.300
0.051,-16.800,-7.900,5.200,-8.100
0.052,-16.700,-9.200,5.100,-7.600
0.053,-16.500,-10.300,5.000,-6.800
0.054,-16.300,-11.300,4.800,-6.000
0.055,-16.000,-12.400,4.700,-5.200
0.056,-15.700,-13.500,4.500,-4.500
0.057,-15.300,-14.400,4.400,-3.800
0.058,-15.000,-14.700,4.200,-3.200
0.059,-14.600,-14.300,4.000,-2.700
0.060,-14.100,-13.400,3.900,-2.500
0.061,-13.700,-12.200,3.700,-2.600
0.062,-13.200,-11.000,3.500,-2.700
0.063,-12.700,-9.800,3.300,-2.800
0.064,-12.200,-8.200,3.000,-2.900
0.065,-11.800,-6.300,2.800,-3.000
0.066,-11.400,-4.200,2.700,-3.100
0.067,-11.100,-2.500,2.600,-3.300
0.068,-10.800,-1.400,2.600,-3.500
0.069,-10.500,-0.900,2.600,-3.600
0.070,-10.200,-0.900,2.600,-3.800
0.071,-9.900,-1.100,2.600,-3.900
0.072,-9.600,-1.400,2.500,-4.100
0.073,-9.300,-2.100,2.400,-4.100
0.074,-8.900,-3.200,2.400,-4.000
0.075,-8.500,-4.600,2.300,-3.900
0.076,-8.100,-5.900,2.300,-3.900
0.077,-7.800,-6.600,2.200,-4.000
0.078,-7.300,-6.600,2.000,-4.000
0.079,-6.900,-6.100,1.800,-3.800
0.080,-6.500,-5.600,1.600,-3.400
0.081,-6.100,-4.900,1.500,-2.900
0.082,-5.800,-3.900,1.300,-2.400
0.083,-5.500,-2.700,1.200,-2.100
0.084,-5.200,-1.200,1.100,-1.900
0.085,-4.800,0.400,0.900,-1.600
0.086,-4.500,1.600,0.800,-1.400
0.087,-4.100,2.400,0.600,-1.300
0.088,-3.700,2.800,0.500,-1.400
0.089,-3.400,3.000,0.400,-1.600
0.090,-3.200,2.900,0.400,-2.000
0.091,-2.900,2.500,0.300,-2.400
0.092,-2.700,1.900,0.300,-2.800
0.093,-2.400,1.200,0.200,-3.200
0.094,-2.300,0.500,0.200,-3.600
0.095,-2.100,0.100,0.200,-4.100
0.096,-1.800,0.000,0.200,-4.500
0.097,-1.500,0.300,0.100,-5.000
0.098,-1.100,1.100,0.100,-5.300
0.099,-0.800,2.000,0.000,-5.600
0.100,-0.400,2.900,0.000,-5.700
0.101,0.000,3.700,-0.100,-5.700
0.102,0.400,4.500,-0.200,-5.700
0.103,0.900,5.500,-0.300,-5.700
0.104,1.300,6.700,-0.300,-5.600
0.105,1.600,7.800,-0.500,-5.600
0.106,1.800,8.400,-0.600,-5.400
0.107,2.000,8.600,-0.700,-4.900
0.108,2.200,8.700,-0.800,-4.400
0.109,2.500,9.000,-0.900,-3.800
0.110,2.700,9.900,-1.100,-3.300
0.111,2.900,10.500,-1.300,-2.900
0.112,3.000,10.200,-1.400,-2.600
0.113,3.000,8.700,-1.600,-2.300
0.114,2.900,6.500,-1.700,-1.900
0.115,2.900,4.500,-1.800,-1.500
0.116,2.900,3.300,-1.900,-1.100
0.117,3.000,3.000,-1.900,-0.800
0.118,3.000,3.100,-1.900,-0.500
0.119,3.000,3.300,-2.000,-0.300
0.120,2.900,3.900,-2.100,-0.100
0.121,3.000,5.200,-2.100,0.000
0.122,3.000,7.500,-2.100,0.200
0.123,3.100,10.200,-2.000,0.400
0.124,3.200,12.700,-1.900,0.500
0.125,3.200,14.700,-1.800,0.700
0.126,3.300,16.000,-1.700,0.800
0.127,3.400,17.200,-1.700,1.000
0.128,3.600,18.300,-1.600,1.000
0.129,3.700,19.100,-1.500,1.000
0.130,3.700,19.100,-1.500,0.900
0.131,3.800,18.100,-1.500,1.000
0.132,3.900,16.200,-1.500,1.100
0.133,3.900,14.000,-1.500,1.200
0.134,4.000,11.800,-1.500,1.100
0.135,4.100,9.800,-1.600,0.800
0.136,4.100,7.500,-1.600,0.200
0.137,4.100,4.900,-1.700,-0.400
0.138,4.100,2.000,-1.700,-0.900
0.139,4.100,-0.500,-1.700,-1.400
0.140,4.100,-1.800,-1.800,-1.900
0.141,4.300,-1.700,-1.800,-2.500
0.142,4.500,-0.600,-1.800,-3.000
0.143,4.700,0.700,-1.800,-3.300
0.144,5.000,2.100,-1.800,-3.300
0.145,5.300,3.600,-1.800,-3.000
0.146,5.500,5.400,-1.700,-2.600
0.147,5.800,7.500,-1.600,-2.000
0.148,6.100,9.300,-1.500,-1.400
0.149,6.300,10.400,-1.400,-0.700
0.150,6.500,10.600,-1.300,0.100
0.151,6.600,10.100,-1.200,1.000
0.152,6.800,9.400,-1.200,1.800
0.153,6.900,8.700,-1.200,2.500
0.154,6.900,8.000,-1.200,2.900
0.155,6.800,7.000,-1.000,3.200
0.156,6.700,5.700,-0.900,3.400
0.157,6.700,4.500,-0.700,3.500
0.158,6.700,3.600,-0.500,3.500
0.159,6.800,3.300,-0.300,3.500
0.160,6.800,3.500,-0.100,3.400
0.161,6.900,3.900,0.200,3.400
0.162,7.000,4.300,0.600,3.500
0.163,7.100,4.800,1.000,3.800
0.164,7.200,5.400,1.400,4.100
0.165,7.400,6.100,1.800,4.500
0.166,7.500,6.700,2.200,5.000
0.167,7.700,6.900,2.700,5.400
0.168,7.800,6.400,3.200,5.700
0.169,8.000,5.400,3.700,6.000
0.170,8.200,4.000,4.200,6.400
0.171,8.300,2.600,4.500,6.800
0.172,8.400,1.100,4.800,7.200
0.173,8.400,-0.600,5.100,7.500
0.174,8.400,-2.500,5.400,7.600
0.175,8.300,-4.400,5.700,7.700
0.176,8.100,-5.700,6.000,7.700
0.177,7.700,-6.100,6.300,7.600
0.178,7.200,-5.500,6.600,7.500
0.179,6.800,-4.400,6.800,7.200
0.180,6.500,-2.800,7.100,6.600
0.181,6.100,-0.700,7.300,6.000
0.182,5.800,2.000,7.400,5.300
0.183,5.500,5.200,7.600,4.500
0.184,5.200,8.400,7.700,3.800
0.185,4.800,11.200,7.700,3.000
0.186,4.600,13.100,7.700,2.300
0.187,4.400,14.200,7.600,1.700
0.188,4.200,14.900,7.300,1.400
0.189,4.100,15.200,7.000,1.500
0.190,4.000,15.200,6.700,2.000
0.191,3.900,14.800,6.400,2.800
0.192,4.000,14.000,6.000,3.800
0.193,4.100,12.900,5.400,4.600
0.194,4.200,11.700,4.800,5.200
0.195,4.400,10.500,4.100,5.700
0.196,4.500,9.400,3.200,6.000
0.197,4.700,8.400,2.400,6.200
0.198,4.900,7.400,1.500,6.100
0.199,5.100,6.500,0.600,5.700
0.200,5.300,5.700,-0.300,5.100
0.201,5.500,5.000,-1.200,4.400
0.202,5.600,4.600,-2.300,3.600
0.203,5.700,4.500,-3.300,2.900
0.204,5.900,4.700,-4.400,2.100
0.205,6.200,4.800,-5.500,1.300
0.206,6.600,4.300,-6.700,0.300
0.207,7.000,3.000,-8.000,-1.100
0.208,7.500,1.200,-9.400,-2.800
0.209,8.200,-1.000,-10.900,-5.000
0.210,9.000,-3.300,-12.400,-7.400
0.211,10.100,-6.200,-14.000,-10.100
0.212,11.100,-10.400,-15.600,-13.000
0.213,12.100,-16.200,-17.300,-16.200
0.214,13.000,-23.100,-19.100,-19.600
0.215,13.700,-30.400,-21.100,-23.100
0.216,14.400,-37.400,-23.200,-26.700
0.217,15.100,-43.800,-25.200,-30.200
0.218,15.600,-50.200,-27.100,-33.500
0.219,15.700,-56.700,-28.900,-36.700
0.220,15.400,-63.500,-30.600,-39.600
0.221,14.300,-70.100,-31.900,-42.400
0.222,12.400,-76.200,-33.000,-45.000
0.223,9.800,-81.900,-33.600,-47.500
0.224,6.500,-87.200,-33.800,-49.700
0.225,2.700,-92.300,-33.600,-51.700
0.226,-1.100,-96.900,-33.100,-53.300
0.227,-4.700,-100.600,-32.500,-54.700
0.228,-7.700,-103.200,-32.000,-56.000
0.229,-9.700,-104.700,-31.600,-57.200
0.230,-10.700,-105.200,-31.300,-57.800
0.231,-11.000,-104.700,-31.100,-57.500
0.232,-10.600,-103.300,-30.700,-56.300
0.233,-10.100,-101.000,-30.100,-54.400
0.234,-9.800,-97.700,-29.100,-52.400
0.235,-9.800,-93.700,-27.600,-50.500
0.236,-10.300,-88.900,-25.600,-48.600
0.237,-11.500,-83.400,-23.100,-46.200
0.238,-13.200,-77.300,-20.200,-43.000
0.239,-15.300,-70.700,-17.200,-38.800
0.240,-17.400,-63.700,-13.900,-34.200
0.241,-19.700,-56.400,-10.500,-29.600
0.242,-21.900,-48.800,-7.000,-25.100
0.243,-24.200,-41.000,-3.400,-20.800
0.244,-26.600,-33.200,0.100,-16.600
0.245,-29.100,-25.400,3.600,-12.500
0.246,-31.600,-17.800,7.000,-8.600
0.247,-34.200,-10.400,10.300,-5.100
0.248,-36.800,-3.300,13.400,-1.900
0.249,-39.200,3.300,16.200,0.800
0.250,-41.400,9.100,18.700,3.200
0.251,-43.100,13.900,20.800,5.400
0.252,-44.300,17.500,22.400,7.300
0.253,-44.500,20.100,23.500,8.900
0.254,-43.800,21.900,24.000,10.300
0.255,-42.000,23.000,23.900,11.300
0.256,-39.100,23.300,23.200,12.000
0.257,-35.300,23.000,21.900,12.600
0.258,-30.600,22.400,20.000,13.000
0.259,-25.300,21.900,17.600,13.400
0.260,-19.300,21.800,15.000,13.700
0.261,-13.100,22.100,12.100,13.900
0.262,-6.800,22.800,9.100,14.000
0.263,-0.800,23.500,6.200,13.700
0.264,4.800,24.400,3.500,13.200
0.265,9.900,25.600,1.000,12.400
0.266,14.300,27.100,-1.100,11.500
0.267,18.000,28.400,-2.900,10.500
0.268,21.000,29.200,-4.400,9.300
0.269,23.200,29.200,-5.700,8.000
0.270,24.700,28.500,-6.600,6.600
0.271,25.800,27.400,-7.300,5.200
0.272,26.300,26.200,-7.800,4.100
0.273,26.500,24.600,-8.100,3.300
0.274,26.300,22.700,-8.300,2.900
0.275,25.800,20.200,-8.400,2.700
0.276,25.100,17.400,-8.400,2.700
0.277,24.200,14.700,-8.300,2.900
0.278,23.300,12.400,-8.100,3.400
0.279,22.400,10.400,-7.800,4.100
0.280,21.400,8.700,-7.400,5.100
0.281,20.400,7.100,-7.100,5.900
0.282,19.200,5.700,-6.800,6.500
0.283,18.100,4.500,-6.500,6.800
0.284,17.000,3.800,-6.200,7.000
0.285,15.900,3.700,-5.800,7.300
0.286,14.800,3.900,-5.500,7.400
0.287,13.800,4.200,-5.200,7.200
0.288,12.700,4.400,-4.900,6.800
0.289,11.700,4.400,-4.700,6.200
0.290,10.800,4.400,-4.400,5.600
0.291,9.900,4.500,-4.100,5.300
0.292,9.200,4.700,-3.700,5.000
0.293,8.500,4.900,-3.400,4.700
0.294,7.900,4.900,-3.100,4.500
0.295,7.300,4.800,-2.900,4.200
0.296,6.700,4.500,-2.600,4.100
0.297,6.000,4.300,-2.300,3.900
0.298,5.400,4.100,-2.000,3.300
0.299,4.800,3.900,-1.700,2.400
0.300,4.300,3.600,-1.400,1.000
0.301,3.700,3.200,-1.200,-0.300
0.302,3.100,2.700,-0.900,-1.500
0.303,2.500,2.300,-0.700,-2.600
0.304,2.000,2.000,-0.500,-3.700
0.305,1.500,1.800,-0.400,-4.800
0.306,1.100,1.600,-0.300,-5.700
0.307,0.800,1.300,-0.200,-6.000
0.308,0.600,0.900,-0.100,-5.700
0.309,0.400,0.500,0.000,-4.900
0.310,0.300,0.000,0.000,-3.900
0.311,0.300,-0.500,0.100,-2.700
0.312,0.300,-1.000,0.100,-1.500
0.313,0.200,-1.400,0.100,0.000
0.314,0.100,-1.700,0.100,1.500
0.315,0.000,-2.000,0.100,3.000
0.316,-0.200,-2.100,0.200,4.200
0.317,-0.300,-2.400,0.200,5.000
0.318,-0.500,-2.800,0.200,5.400
0.319,-0.700,-3.300,0.300,5.500
0.320,-0.900,-3.800,0.300,5.600
0.321,-1.100,-4.000,0.300,5.500
0.322,-1.100,-4.000,0.400,5.100
0.323,-1.100,-3.800,0.500,4.300
0.324,-1.000,-3.500,0.500,3.000
0.325,-0.600,-3.300,0.400,1.600
0.326,-0.100,-3.000,0.200,0.200
0.327,0.600,-2.600,0.000,-1.300
0.328,1.600,-2.200,-0.300,-3.000
0.329,2.800,-1.800,-0.600,-4.900
0.330,4.200,-1.500,-0.900,-6.800
0.331,5.600,-1.300,-1.200,-8.400
0.332,7.000,-1.100,-1.500,-9.400
0.333,8.200,-0.800,-1.700,-10.000
0.334,9.000,-0.400,-1.800,-10.800
0.335,9.600,-0.100,-1.700,-11.900
0.336,9.800,0.200,-1.500,-13.200
0.337,9.900,0.400,-1.400,-14.100
0.338,10.000,0.600,-1.400,-13.800
0.339,10.100,0.700,-1.700,-12.200
0.340,10.000,0.700,-1.900,-9.900
0.341,9.500,0.700,-2.100,-7.500
0.342,8.500,0.600,-2.100,-5.400
0.343,7.200,0.400,-1.900,-3.700
0.344,5.700,0.300,-1.600,-2.400
0.345,4.400,0.200,-1.400,-1.200
0.346,3.400,0.200,-1.100,-0.200
0.347,2.700,0.200,-0.900,0.600
0.348,2.200,0.200,-0.900,1.200
0.349,1.900,0.100,-0.900,1.600
0.350,1.700,0.000,-0.900,1.700
0.351,1.600,-0.200,-0.900,1.800
0.352,1.500,-0.500,-0.900,1.800
0.353,1.500,-0.900,-0.900,1.900
0.354,1.400,-1.300,-0.800,2.000
0.355,1.300,-1.700,-0.700,2.100
0.356,1.100,-2.100,-0.600,2.000
0.357,0.800,-2.500,-0.500,1.800
0.358,0.500,-2.900,-0.300,1.600
0.359,0.200,-3.100,-0.300,1.400
0.360,0.000,-3.300,-0.300,1.200
0.361,-0.300,-3.600,-0.300,0.700
0.362,-0.500,-3.900,-0.300,-0.100
0.363,-0.600,-4.200,-0.400,-1.200
0.364,-0.800,-4.600,-0.400,-2.400
0.365,-1.000,-4.700,-0.500,-3.500
0.366,-1.200,-4.800,-0.600,-4.400
0.367,-1.400,-4.800,-0.600,-5.100
0.368,-1.400,-4.800,-0.600,-5.700
0.369,-1.500,-5.000,-0.600,-6.100
0.370,-1.600,-5.100,-0.600,-6.300
0.371,-1.700,-5.300,-0.600,-6.200
0.372,-1.900,-5.400,-0.700,-5.700
0.373,-2.000,-5.400,-0.700,-4.900
0.374,-2.200,-5.300,-0.700,-4.200
0.375,-2.400,-5.200,-0.700,-3.700
0.376,-3.000,-5.100,-0.800,-3.200
0.377,-3.600,-5.000,-0.800,-2.600
0.378,-4.400,-4.700,-0.800,-1.900
0.379,-5.200,-4.300,-0.800,-1.100
0.380,-5.800,-4.000,-0.700,-0.300
0.381,-6.600,-3.700,-0.700,0.400
0.382,-7.500,-3.400,-0.700,0.800
0.383,-8.300,-3.100,-0.700,1.000
0.384,-8.800,-2.800,-0.800,1.000
0.385,-8.700,-2.400,-0.900,0.900
0.386,-8.000,-2.100,-0.900,0.500
0.387,-6.900,-1.800,-1.000,-0.100
0.388,-5.600,-1.700,-1.000,-1.000
0.389,-4.300,-1.600,-1.000,-1.900
0.390,-3.000,-1.500,-1.000,-3.000
0.391,-1.600,-1.400,-1.000,-3.900
0.392,-0.100,-1.400,-1.100,-4.700
0.393,1.200,-1.600,-1.100,-5.400
0.394,2.100,-1.900,-1.200,-6.100
0.395,2.600,-2.300,-1.200,-6.700
0.396,2.700,-2.800,-1.300,-7.300
0.397,2.500,-3.300,-1.300,-7.700
0.398,2.000,-3.700,-1.400,-7.800
0.399,1.200,-4.100,-1.400,-7.800
0.400,0.200,-4.500,-1.400,-7.400
0.401,-0.800,-4.900,-1.400,-6.900
0.402,-2.000,-5.300,-1.400,-6.300
0.403,-3.400,-5.600,-1.400,-5.500
0.404,-5.000,-5.800,-1.500,-4.700
0.405,-6.200,-6.000,-1.700,-3.600
0.406,-6.400,-6.200,-1.800,-2.400
0.407,-5.600,-6.500,-1.800,-1.100
0.408,-4.600,-6.900,-1.900,0.200
0.409,-4.500,-7.100,-1.900,1.400
0.410,-5.500,-7.200,-2.000,2.300
0.411,-6.700,-7.200,-2.100,3.000
0.412,-6.600,-7.300,-2.300,3.600
0.413,-4.100,-7.500,-2.400,4.100
0.414,-0.100,-7.900,-2.400,4.200
0.415,3.700,-8.300,-2.400,4.100
0.416,6.000,-8.600,-2.400,3.500
0.417,6.800,-8.800,-2.400,2.600
0.418,6.900,-8.800,-2.400,1.700
0.419,7.300,-8.800,-2.300,0.700
0.420,8.200,-8.800,-2.300,-0.300
0.421,8.800,-9.000,-2.200,-1.400
0.422,8.700,-9.000,-2.200,-2.500
0.423,7.900,-9.100,-2.300,-3.600
0.424,7.000,-9.200,-2.300,-4.500
0.425,6.600,-9.300,-2.400,-5.500
0.426,6.400,-9.400,-2.400,-6.400
0.427,6.100,-9.500,-2.500,-7.200
0.428,5.700,-9.600,-2.500,-7.800
0.429,5.200,-9.800,-2.500,-8.000
0.430,4.900,-10.000,-2.500,-8.100
0.431,4.900,-10.400,-2.600,-8.400
0.432,5.000,-10.800,-2.700,-8.900
0.433,5.000,-11.200,-2.900,-9.400
0.434,4.900,-11.600,-3.000,-9.400
0.435,4.800,-12.000,-3.100,-8.700
0.436,4.700,-12.300,-3.200,-7.400
0.437,4.700,-12.500,-3.300,-6.200
0.438,4.900,-12.700,-3.300,-5.500
0.439,5.000,-12.800,-3.400,-5.400
0.440,4.900,-12.700,-3.500,-5.400
0.441,4.800,-12.500,-3.600,-5.400
0.442,4.700,-12.100,-3.600,-5.300
0.443,4.700,-11.600,-3.500,-5.300
0.444,4.600,-11.000,-3.500,-5.500
0.445,4.500,-10.200,-3.500,-5.900
0.446,4.400,-9.400,-3.500,-6.300
0.447,4.200,-8.500,-3.500,-6.500
0.448,4.200,-7.800,-3.500,-6.600
0.449,4.400,-7.400,-3.500,-6.800
0.450,4.800,-7.300,-3.500,-7.000
0.451,5.100,-7.300,-3.600,-7.300
0.452,5.400,-7.400,-3.600,-7.700
0.453,5.600,-7.400,-3.700,-8.200
0.454,5.700,-7.500,-3.900,-8.900
0.455,5.800,-7.800,-3.900,-9.600
0.456,5.900,-8.100,-4.100,-10.400
0.457,5.800,-8.500,-4.200,-11.100
0.458,5.500,-8.900,-4.300,-11.700
0.459,5.100,-9.200,-4.500,-12.300
0.460,4.800,-9.300,-4.600,-13.000
0.461,4.400,-9.500,-4.700,-13.400
0.462,4.200,-9.600,-4.800,-13.300
0.463,3.900,-9.700,-4.800,-12.500
0.464,3.700,-9.700,-4.800,-11.400
0.465,3.500,-9.800,-4.800,-10.000
0.466,3.500,-9.800,-4.800,-8.700
0.467,3.700,-9.800,-4.700,-7.400
0.468,4.000,-9.800,-4.700,-5.900
0.469,4.500,-9.800,-4.600,-4.200
0.470,4.800,-9.800,-4.600,-2.700
0.471,5.100,-9.800,-4.500,-1.700
0.472,5.200,-9.800,-4.500,-1.100
0.473,5.400,-9.600,-4.500,-0.800
0.474,5.600,-9.400,-4.500,-0.600
0.475,5.600,-9.400,-4.500,-0.400
0.476,5.400,-9.500,-4.400,-0.300
0.477,5.000,-9.800,-4.400,-0.400
0.478,4.400,-10.300,-4.400,-0.600
0.479,3.800,-10.700,-4.400,-0.800
0.480,3.200,-11.100,-4.300,-0.800
0.481,2.600,-11.300,-4.300,-0.600
0.482,1.800,-11.400,-4.300,-0.400
0.483,0.900,-11.600,-4.300,-0.100
0.484,0.400,-11.700,-4.400,0.000
0.485,0.300,-11.800,-4.400,0.200
0.486,0.600,-11.900,-4.400,0.400
0.487,1.200,-11.800,-4.400,0.500
0.488,1.900,-11.500,-4.400,0.600
0.489,2.500,-11.200,-4.300,0.600
0.490,3.000,-10.800,-4.200,0.500
0.491,3.500,-10.400,-4.200,0.300
0.492,4.100,-10.000,-4.200,-0.100
0.493,4.500,-9.600,-4.100,-0.500
0.494,4.800,-9.300,-4.100,-0.900
0.495,4.800,-9.300,-3.900,-1.400
0.496,4.700,-9.400,-3.800,-1.800
0.497,4.500,-9.600,-3.700,-2.300
0.498,4.300,-9.700,-3.600,-2.900
0.499,4.100,-9.800,-3.500,-3.700
0.500,3.900,-10.000,-3.400,-4.600
0.501,3.600,-10.400,-3.300,-5.300
0.502,3.300,-11.000,-3.200,-5.900
0.503,3.200,-11.500,-3.100,-6.500
0.504,3.200,-11.800,-3.000,-7.200
0.505,3.200,-11.900,-3.000,-7.900
0.506,3.000,-12.200,-2.900,-8.400
0.507,2.400,-12.900,-2.800,-8.400
0.508,1.800,-13.700,-2.700,-8.100
0.509,1.500,-14.000,-2.600,-7.700
0.510,1.600,-13.700,-2.500,-7.500
0.511,1.800,-13.200,-2.300,-7.300
0.512,1.700,-13.400,-2.100,-7.100
0.513,0.800,-14.600,-2.000,-6.900
0.514,-0.500,-16.500,-1.800,-6.800
0.515,-1.900,-18.300,-1.600,-6.700
0.516,-2.800,-19.300,-1.400,-7.000
0.517,-3.100,-19.700,-1.200,-7.200
0.518,-3.300,-19.800,-1.000,-7.500
0.519,-3.600,-20.000,-0.800,-7.500
0.520,-4.100,-20.200,-0.600,-7.400
0.521,-4.800,-19.900,-0.400,-7.300
0.522,-5.400,-18.800,-0.300,-7.100
0.523,-5.900,-17.200,-0.200,-6.700
0.524,-6.300,-15.500,-0.200,-6.100
0.525,-6.800,-14.000,-0.100,-5.200
0.526,-7.200,-12.600,-0.100,-4.400
0.527,-7.700,-11.100,0.000,-3.900
0.528,-8.000,-9.600,0.100,-3.700
0.529,-8.100,-8.100,0.100,-3.800
0.530,-8.000,-7.000,0.200,-3.800
0.531,-7.600,-6.400,0.300,-3.700
0.532,-7.000,-6.200,0.400,-3.600
0.533,-6.300,-6.300,0.500,-3.400
0.534,-5.600,-6.500,0.600,-3.300
0.535,-5.000,-6.900,0.600,-3.300
0.536,-4.400,-7.400,0.700,-3.300
0.537,-3.900,-7.900,0.800,-3.000
0.538,-3.400,-8.500,0.800,-2.500
0.539,-3.200,-9.000,0.900,-1.700
0.540,-3.300,-9.500,0.900,-0.800
0.541,-3.700,-10.000,1.000,0.200
0.542,-4.200,-10.400,1.100,1.000
0.543,-4.700,-10.700,1.100,1.700
0.544,-5.200,-10.800,1.200,2.300
0.545,-5.800,-10.900,1.200,2.600
0.546,-6.500,-10.900,1.200,2.800
0.547,-7.200,-10.800,1.200,2.800
0.548,-7.800,-10.700,1.300,2.700
0.549,-8.000,-10.400,1.300,2.300
0.550,-7.800,-10.000,1.400,1.900
0.551,-7.500,-9.500,1.400,1.300
0.552,-7.000,-9.100,1.400,0.600
0.553,-6.600,-8.800,1.500,-0.400
0.554,-6.000,-8.500,1.500,-1.500
0.555,-5.400,-8.400,1.500,-2.800
0.556,-4.800,-8.300,1.600,-4.100
0.557,-4.200,-8.100,1.600,-5.300
0.558,-4.000,-7.800,1.600,-6.500
0.559,-4.100,-7.500,1.600,-7.700
0.560,-4.500,-7.300,1.500,-8.700
0.561,-5.100,-7.000,1.500,-9.600
0.562,-5.700,-6.900,1.600,-10.200
0.563,-6.400,-6.800,1.600,-10.500
0.564,-7.100,-6.600,1.700,-10.300
0.565,-7.900,-6.400,1.700,-9.800
0.566,-8.600,-6.000,1.700,-9.000
0.567,-9.200,-5.600,1.600,-8.000
0.568,-9.500,-5.100,1.600,-6.700
0.569,-9.600,-4.700,1.500,-5.200
0.570,-9.400,-4.300,1.500,-3.400
0.571,-9.000,-4.000,1.500,-1.600
0.572,-8.400,-3.600,1.300,0.000
0.573,-7.700,-3.200,1.200,1.500
0.574,-6.800,-2.800,1.200,2.700
0.575,-5.700,-2.400,1.100,3.600
0.576,-4.500,-2.100,1.100,4.400
0.577,-3.400,-2.000,1.100,5.000
0.578,-2.400,-2.100,0.900,5.400
0.579,-1.600,-2.200,0.800,5.400
0.580,-1.000,-2.300,0.600,4.900
0.581,-0.500,-2.500,0.500,4.100
0.582,0.000,-2.700,0.400,3.000
0.583,0.400,-3.000,0.400,1.800
0.584,0.500,-3.300,0.400,0.700
0.585,0.400,-3.400,0.400,-0.300
0.586,0.000,-3.500,0.500,-1.400
0.587,-0.400,-3.600,0.500,-2.600
0.588,-0.900,-3.700,0.500,-3.700
0.589,-1.300,-3.700,0.500,-4.500
0.590,-1.700,-3.700,0.500,-4.800
0.591,-2.200,-3.500,0.500,-4.500
0.592,-2.700,-3.300,0.500,-3.900
0.593,-3.000,-3.300,0.500,-3.200
0.594,-3.200,-3.500,0.500,-2.300
0.595,-3.300,-3.900,0.500,-1.300
0.596,-3.200,-4.300,0.600,-0.100
0.597,-3.000,-4.700,0.600,1.300
0.598,-2.800,-5.200,0.500,2.600
0.599,-2.400,-5.700,0.500,3.500
0.600,-2.100,-6.100,0.400,3.900
0.601,-1.800,-6.200,0.300,3.900
0.602,-1.500,-6.100,0.300,3.600
0.603,-1.300,-5.800,0.300,3.100
0.604,-1.000,-5.400,0.300,2.300
0.605,-0.800,-4.900,0.300,1.000
0.606,-0.800,-4.000,0.300,-0.600
0.607,-0.900,-2.900,0.300,-2.300
0.608,-1.000,-1.700,0.300,-3.900
0.609,-1.000,-1.000,0.300,-5.100
0.610,-0.700,-1.100,0.200,-6.000
0.611,-0.400,-1.500,0.200,-6.600
0.612,-0.500,-1.600,0.200,-7.000
0.613,-1.100,-0.900,0.300,-7.200
0.614,-2.100,0.500,0.300,-7.100
0.615,-2.900,1.800,0.300,-6.600
0.616,-3.400,2.400,0.300,-5.700
0.617,-3.300,2.200,0.300,-4.500
0.618,-3.100,1.700,0.300,-3.300
0.619,-2.800,1.300,0.400,-2.200
0.620,-2.500,1.100,0.400,-1.200
0.621,-2.200,1.000,0.500,-0.400
0.622,-1.800,0.800,0.500,0.400
0.623,-1.200,0.400,0.500,1.300
0.624,-0.700,0.000,0.400,2.200
0.625,-0.500,-0.200,0.400,2.900
0.626,-0.400,-0.300,0.400,3.500
0.627,-0.300,-0.500,0.400,4.300
0.628,-0.100,-0.700,0.400,5.400
0.629,0.200,-1.000,0.500,6.800
0.630,0.500,-1.300,0.500,8.100
0.631,0.800,-1.500,0.600,8.800
0.632,1.000,-1.600,0.600,8.700
0.633,1.200,-1.800,0.600,8.300
0.634,1.300,-1.800,0.600,8.000
0.635,1.400,-2.000,0.600,8.400
0.636,1.400,-2.100,0.600,9.100
0.637,1.100,-2.200,0.600,9.500
0.638,0.500,-2.300,0.500,9.100
0.639,-0.300,-2.300,0.400,7.900
0.640,-1.200,-2.200,0.300,6.300
0.641,-2.100,-2.100,0.200,4.700
0.642,-2.700,-2.000,0.100,3.300
0.643,-3.300,-1.900,0.000,1.900
0.644,-3.600,-1.700,0.000,0.600
0.645,-3.900,-1.500,-0.100,-0.800
0.646,-4.000,-1.100,-0.200,-2.000
0.647,-3.900,-0.800,-0.300,-3.000
0.648,-3.600,-0.600,-0.400,-3.900
0.649,-3.200,-0.400,-0.500,-4.700
0.650,-2.700,-0.300,-0.600,-5.300
0.651,-2.300,-0.300,-0.600,-5.500
0.652,-2.000,-0.300,-0.500,-5.300
0.653,-1.800,-0.300,-0.400,-4.800
0.654,-1.700,-0.300,-0.400,-4.200
0.655,-1.800,-0.300,-0.300,-3.700
0.656,-1.800,-0.400,-0.300,-3.500
0.657,-2.000,-0.500,-0.200,-3.400
0.658,-2.300,-0.600,-0.100,-3.300
0.659,-2.600,-0.600,0.000,-3.400
0.660,-2.800,-0.600,0.100,-3.700
0.661,-3.000,-0.600,0.200,-4.200
0.662,-3.100,-0.800,0.200,-4.900
0.663,-3.200,-1.000,0.300,-5.700
0.664,-3.200,-1.200,0.300,-6.300
0.665,-3.100,-1.300,0.400,-6.600
0.666,-2.900,-1.400,0.400,-6.700
0.667,-2.600,-1.700,0.300,-6.500
0.668,-2.000,-2.100,0.200,-6.000
0.669,-1.400,-2.600,0.100,-5.100
0.670,-0.800,-3.100,0.100,-3.900
0.671,-0.100,-3.500,0.100,-2.400
0.672,0.500,-3.900,0.100,-0.800
0.673,1.100,-4.100,0.100,0.600
0.674,1.700,-4.400,0.000,1.800
0.675,2.200,-4.600,0.000,2.800
0.676,2.700,-4.600,0.000,3.600
0.677,3.000,-4.500,0.100,4.300
0.678,3.300,-4.200,0.300,4.800
0.679,3.400,-3.800,0.400,5.000
0.680,3.500,-3.300,0.400,5.000
0.681,3.600,-2.800,0.500,5.000
0.682,3.700,-2.200,0.500,5.000
0.683,3.800,-1.500,0.600,5.200
0.684,3.800,-0.700,0.800,5.500
0.685,3.600,-0.100,0.900,5.900
0.686,3.300,0.300,1.100,6.200
0.687,2.800,0.600,1.200,6.600
0.688,2.100,0.700,1.200,7.100
0.689,1.300,0.800,1.200,7.500
0.690,0.500,0.900,1.300,7.600
0.691,-0.300,1.100,1.300,7.500
0.692,-1.400,1.200,1.400,7.100
0.693,-2.600,1.100,1.500,6.600
0.694,-3.900,0.700,1.500,6.100
0.695,-5.200,0.300,1.600,5.600
0.696,-6.200,-0.200,1.700,4.900
0.697,-7.000,-0.600,1.800,4.200
0.698,-7.600,-0.900,1.900,3.400
0.699,-8.100,-1.300,1.900,2.800
0.700,-8.300,-1.700,2.000,2.300
0.701,-8.100,-2.000,2.000,1.900
0.702,-7.500,-2.200,2.000,1.500
0.703,-6.600,-2.400,2.100,1.000
0.704,-5.500,-2.500,2.200,0.500
0.705,-4.400,-2.600,2.200,0.000
0.706,-3.300,-2.800,2.300,-0.500
0.707,-2.100,-3.000,2.300,-0.900
0.708,-1.200,-3.200,2.300,-1.400
0.709,-0.600,-3.300,2.400,-1.900
0.710,-0.700,-3.300,2.400,-2.500
0.711,-1.200,-3.200,2.400,-3.100
0.712,-1.600,-3.400,2.400,-3.700
0.713,-1.800,-3.700,2.400,-4.300
0.714,-1.800,-4.200,2.500,-4.800
0.715,-1.800,-4.700,2.600,-5.300
0.716,-2.000,-5.100,2.600,-5.700
0.717,-2.600,-5.400,2.700,-5.800
0.718,-3.300,-5.800,2.700,-5.600
0.719,-3.900,-6.500,2.700,-5.000
0.720,-4.200,-7.300,2.800,-4.000
0.721,-4.500,-8.100,2.900,-2.800
0.722,-4.900,-8.900,3.100,-1.500
0.723,-5.400,-9.500,3.300,-0.100
0.724,-5.900,-9.900,3.500,1.300
0.725,-6.400,-10.100,3.700,3.000
0.726,-7.000,-10.200,3.900,4.700
0.727,-7.600,-10.200,4.100,5.900
0.728,-8.300,-10.300,4.400,6.200
0.729,-9.100,-10.300,4.600,5.700
0.730,-9.900,-10.200,4.700,5.000
0.731,-10.500,-10.100,4.800,5.100
0.732,-11.100,-9.800,4.900,6.100
0.733,-11.400,-9.500,4.800,7.100
0.734,-11.400,-9.000,4.700,6.900
0.735,-11.100,-8.500,4.500,4.700
0.736,-10.600,-7.900,4.300,1.300
0.737,-9.900,-7.300,4.000,-2.100
0.738,-9.100,-6.600,3.700,-4.400
0.739,-8.000,-5.900,3.400,-5.700
0.740,-6.900,-5.300,3.200,-6.500
0.741,-5.700,-4.900,3.100,-7.600
0.742,-4.800,-4.600,3.200,-9.000
0.743,-4.400,-4.400,3.600,-10.100
0.744,-4.200,-4.200,3.900,-10.300
0.745,-4.100,-4.100,4.100,-9.700
0.746,-4.100,-4.100,4.000,-8.700
0.747,-4.500,-4.200,3.900,-7.600
0.748,-5.400,-4.400,3.800,-6.500
0.749,-7.100,-4.600,3.900,-5.300
0.750,-9.400,-5.000,4.300,-4.100
0.751,-12.000,-5.500,4.900,-3.000
0.752,-14.400,-6.000,5.400,-2.200
0.753,-16.500,-6.500,5.800,-1.800
0.754,-18.100,-7.000,6.100,-1.500
0.755,-19.400,-7.300,6.200,-1.400
0.756,-20.400,-7.600,6.300,-1.400
0.757,-21.200,-7.900,6.300,-1.500
0.758,-21.700,-8.200,6.200,-1.700
0.759,-21.900,-8.500,6.200,-2.000
0.760,-21.900,-8.800,6.100,-2.200
0.761,-21.700,-9.000,6.100,-2.300
0.762,-21.400,-9.100,6.100,-2.400
0.763,-21.000,-9.100,6.200,-2.500
0.764,-20.400,-9.200,6.200,-2.800
0.765,-19.600,-9.200,6.100,-3.200
0.766,-18.500,-9.200,6.100,-3.600
0.767,-17.300,-9.000,6.100,-4.100
0.768,-16.000,-8.800,6.100,-4.600
0.769,-14.800,-8.600,6.100,-5.200
0.770,-13.700,-8.300,6.000,-5.800
0.771,-12.700,-8.000,5.900,-6.500
0.772,-11.800,-7.800,5.800,-6.900
0.773,-10.800,-7.700,5.600,-7.200
0.774,-10.000,-7.700,5.400,-7.200
0.775,-9.400,-7.800,5.200,-7.000
0.776,-9.000,-7.900,5.100,-6.600
0.777,-9.000,-8.100,4.900,-6.000
0.778,-9.200,-8.300,4.700,-5.200
0.779,-9.500,-8.600,4.500,-4.100
0.780,-9.900,-9.100,4.300,-2.800
0.781,-10.400,-9.700,4.100,-1.400
0.782,-11.100,-10.200,3.900,-0.300
0.783,-11.800,-10.800,3.700,0.700
0.784,-12.600,-11.300,3.600,1.500
0.785,-13.400,-11.700,3.400,2.100
0.786,-14.000,-11.900,3.300,2.700
0.787,-14.400,-12.000,3.200,3.100
0.788,-14.500,-11.800,3.000,3.100
0.789,-14.500,-11.700,2.900,2.800
0.790,-14.400,-11.400,2.800,2.200
0.791,-14.100,-11.100,2.700,1.500
0.792,-13.500,-10.600,2.600,0.800
0.793,-12.600,-9.700,2.500,0.100
0.794,-11.600,-8.500,2.400,-0.500
0.795,-10.400,-7.200,2.300,-1.200
0.796,-9.200,-6.000,2.200,-2.000
0.797,-8.100,-5.000,2.200,-2.600
0.798,-7.000,-4.100,2.200,-2.800
0.799,-6.000,-3.200,2.200,-2.700
0.800,-5.100,-2.400,2.200,-2.300
0.801,-4.500,-1.800,2.200,-1.700
0.802,-4.200,-1.500,2.100,-1.100
0.803,-4.000,-1.500,2.000,-0.500
0.804,-4.000,-1.400,1.800,0.300
0.805,-4.100,-1.300,1.600,1.300
0.806,-4.300,-1.300,1.500,2.100
0.807,-4.700,-1.600,1.300,2.800
0.808,-5.000,-2.000,1.200,3.000
0.809,-5.000,-2.200,1.100,2.900
0.810,-4.500,-1.900,0.900,2.500
0.811,-3.900,-1.400,0.800,2.100
0.812,-3.500,-1.100,0.600,1.600
0.813,-3.400,-1.400,0.300,1.000
0.814,-3.600,-2.100,0.200,0.200
0.815,-3.600,-2.800,0.000,-0.800
0.816,-3.200,-3.100,0.000,-1.900
0.817,-2.200,-2.800,-0.100,-2.900
0.818,-1.100,-2.400,-0.200,-3.500
0.819,0.100,-2.100,-0.300,-3.900
0.820,1.100,-2.000,-0.500,-4.100
0.821,2.200,-1.900,-0.700,-4.300
0.822,3.200,-1.800,-0.800,-4.400
0.823,4.100,-1.400,-0.800,-4.200
0.824,4.700,-1.200,-0.800,-3.900
0.825,5.000,-1.000,-0.800,-3.400
0.826,5.000,-1.000,-0.900,-3.000
0.827,4.800,-1.100,-1.000,-2.600
0.828,4.500,-1.200,-1.000,-2.200
0.829,4.000,-1.100,-1.100,-1.600
0.830,3.300,-1.100,-1.200,-1.000
0.831,2.300,-1.200,-1.200,-0.700
0.832,1.500,-1.300,-1.300,-0.800
0.833,0.800,-1.400,-1.400,-1.000
0.834,0.400,-1.600,-1.400,-1.200
0.835,0.100,-1.800,-1.500,-0.900
0.836,0.000,-1.900,-1.600,-0.400
0.837,0.000,-1.900,-1.700,0.200
0.838,0.300,-1.900,-1.800,0.400
0.839,1.000,-1.900,-1.900,0.400
0.840,2.100,-1.800,-2.000,0.200
0.841,3.200,-1.800,-2.000,0.100
0.842,4.300,-1.700,-2.100,0.100
0.843,5.200,-1.500,-2.100,0.100
0.844,5.800,-1.400,-2.100,-0.200
0.845,6.300,-1.200,-2.100,-0.700
0.846,6.700,-1.000,-2.100,-1.300
0.847,6.800,-0.700,-2.100,-1.900
0.848,6.600,-0.500,-2.000,-2.400
0.849,6.200,-0.300,-2.000,-2.800
0.850,5.500,-0.400,-2.000,-3.300
0.851,5.000,-0.500,-2.000,-3.700
0.852,4.600,-0.700,-2.000,-4.000
0.853,4.400,-0.800,-2.000,-4.100
0.854,4.300,-0.900,-2.000,-3.800
0.855,4.100,-0.900,-2.000,-3.300
0.856,4.100,-0.900,-2.000,-2.700
0.857,4.500,-1.000,-2.100,-2.100
0.858,5.100,-1.200,-2.100,-1.200
0.859,5.900,-1.400,-2.100,-0.200
0.860,6.700,-1.400,-2.100,1.000
0.861,7.200,-1.300,-2.100,2.100
0.862,7.700,-1.200,-2.100,3.100
0.863,8.100,-0.900,-2.000,3.500
0.864,8.400,-0.600,-1.900,3.500
0.865,8.800,-0.100,-1.800,3.200
0.866,9.000,0.500,-1.700,2.800
0.867,8.900,1.200,-1.700,2.300
0.868,8.600,1.800,-1.600,1.700
0.869,8.300,2.400,-1.500,0.900
0.870,7.900,2.800,-1.500,0.000
0.871,7.600,3.200,-1.400,-1.000
0.872,7.200,3.600,-1.400,-1.800
0.873,6.800,3.900,-1.300,-2.400
0.874,6.500,4.100,-1.300,-2.800
0.875,6.200,4.200,-1.200,-3.100
0.876,6.100,4.000,-1.000,-3.100
0.877,6.000,3.800,-0.900,-3.100
0.878,6.100,3.600,-0.800,-3.000
0.879,6.200,3.400,-0.800,-2.800
0.880,6.300,3.300,-0.600,-2.400
0.881,6.300,3.300,-0.400,-1.800
0.882,6.400,3.200,0.000,-0.900
0.883,6.400,3.100,0.600,0.300
0.884,6.400,3.100,1.200,1.600
0.885,6.400,3.200,1.800,3.100
0.886,6.400,3.300,2.400,4.600
0.887,6.200,3.500,3.000,6.300
0.888,6.000,3.700,3.500,8.100
0.889,5.700,3.900,4.000,9.800
0.890,5.300,4.000,4.500,11.100
0.891,4.900,4.000,4.900,12.100
0.892,4.400,4.000,5.400,12.800
0.893,4.100,4.100,5.800,13.300
0.894,3.800,4.200,6.200,13.800
0.895,3.600,4.300,6.400,14.000
0.896,3.600,4.400,6.700,14.100
0.897,3.600,4.400,6.900,13.900
0.898,3.700,4.400,7.100,13.600
0.899,3.800,4.500,7.400,13.300
0.900,3.900,4.600,7.600,13.000
0.901,4.100,4.700,7.700,12.800
0.902,4.200,4.700,7.800,12.400
0.903,4.200,4.700,7.700,12.000
0.904,4.100,4.600,7.600,11.400
0.905,4.100,4.500,7.400,10.700
0.906,4.200,4.500,7.100,10.000
0.907,4.600,4.500,6.700,9.200
0.908,5.100,4.500,6.300,8.200
0.909,5.200,4.500,5.800,7.200
0.910,4.900,4.500,5.300,6.100
0.911,4.400,4.500,4.800,4.800
0.912,4.200,4.400,4.200,3.500
0.913,4.500,4.200,3.600,2.100
0.914,5.100,4.100,2.900,0.800
0.915,5.800,3.800,2.100,-0.300
0.916,6.100,3.300,1.200,-1.000
0.917,6.100,2.600,0.300,-1.500
0.918,6.000,1.700,-0.600,-1.800
0.919,6.100,0.500,-1.600,-2.000
0.920,6.600,-1.000,-2.700,-2.200
0.921,7.200,-2.800,-3.900,-2.400
0.922,7.900,-4.800,-5.100,-2.700
0.923,8.600,-7.100,-6.500,-3.300
0.924,9.300,-9.600,-7.900,-4.100
0.925,10.300,-12.400,-9.400,-5.000
0.926,11.400,-15.500,-11.100,-6.200
0.927,12.600,-19.000,-12.900,-7.900
0.928,13.800,-22.700,-14.800,-10.400
0.929,14.800,-26.700,-16.800,-13.600
0.930,15.700,-30.800,-18.900,-17.100
0.931,16.400,-35.200,-21.100,-20.300
0.932,16.900,-40.200,-23.300,-23.000
0.933,17.100,-45.700,-25.500,-25.700
0.934,17.000,-51.600,-27.500,-28.900
0.935,16.500,-57.700,-29.400,-33.400
0.936,15.400,-63.900,-31.100,-38.600
0.937,13.700,-70.200,-32.400,-43.800
0.938,11.100,-76.500,-33.200,-48.100
0.939,7.700,-82.800,-33.700,-51.400
0.940,3.600,-88.800,-33.700,-53.800
0.941,-0.600,-94.300,-33.400,-55.900
0.942,-4.600,-98.900,-32.900,-58.000
0.943,-7.700,-102.300,-32.400,-59.900
0.944,-9.900,-104.500,-32.000,-61.100
0.945,-10.900,-105.500,-31.700,-61.500
0.946,-11.000,-105.100,-31.500,-61.100
0.947,-10.700,-103.500,-31.100,-60.100
0.948,-10.200,-100.500,-30.300,-58.500
0.949,-9.900,-96.300,-29.000,-56.300
0.950,-9.900,-90.800,-27.200,-53.300
0.951,-10.600,-84.400,-24.700,-49.400
0.952,-11.700,-77.200,-21.700,-44.700
0.953,-13.300,-69.500,-18.300,-39.300
0.954,-15.100,-61.500,-14.700,-33.800
0.955,-17.000,-53.100,-10.800,-28.200
0.956,-18.900,-44.500,-6.900,-22.900
0.957,-21.100,-35.700,-2.900,-17.700
0.958,-23.500,-27.000,1.100,-12.600
0.959,-26.300,-18.600,5.100,-7.900
0.960,-29.400,-10.700,8.900,-3.800
0.961,-32.600,-3.500,12.500,-0.300
0.962,-35.900,2.900,15.800,2.500
0.963,-39.000,8.500,18.700,4.600
0.964,-41.600,13.100,21.100,6.300
0.965,-43.600,16.800,23.000,7.700
0.966,-44.700,19.800,24.100,8.800
0.967,-44.500,22.000,24.400,9.600
0.968,-43.100,23.600,24.000,10.000
0.969,-40.300,24.700,22.800,10.200
0.970,-36.100,25.300,20.900,10.400
0.971,-30.800,25.300,18.400,10.800
0.972,-24.700,25.100,15.400,11.300
0.973,-17.900,24.800,12.200,11.900
0.974,-10.900,24.400,8.900,12.500
0.975,-3.900,23.800,5.800,12.900
0.976,2.800,22.900,3.000,13.300
0.977,8.900,21.600,0.500,13.800
0.978,14.200,19.900,-1.800,14.200
0.979,18.500,18.300,-3.900,14.500
0.980,22.000,16.800,-5.400,14.400
0.981,24.600,15.400,-6.500,14.000
0.982,26.600,14.100,-7.200,13.200
0.983,28.100,12.700,-7.700,12.300
0.984,28.800,11.400,-7.900,11.300
0.985,28.900,10.300,-8.100,10.200
0.986,28.300,9.500,-8.000,8.800
0.987,27.200,9.000,-7.800,7.200
0.988,25.900,8.700,-7.500,5.200
0.989,24.500,8.400,-7.200,3.100
0.990,23.000,8.200,-6.900,1.200
0.991,21.400,8.100,-6.700,-0.300
0.992,19.800,8.100,-6.400,-1.500
0.993,18.100,8.100,-6.000,-2.500
0.994,16.500,7.900,-5.700,-3.300
0.995,15.100,7.500,-5.300,-3.800
0.996,13.800,7.000,-5.100,-4.000
0.997,12.500,6.400,-4.800,-3.800
0.998,11.300,5.700,-4.500,-3.300
0.999,10.100,5.100,-4.200,-2.700
1.000,9.000,4.500,-3.900,-2.100
1.001,8.000,3.700,-3.600,-1.500
1.002,7.300,2.800,-3.200,-0.900
1.003,6.600,2.000,-2.900,-0.300
1.004,5.900,1.300,-2.500,0.300
1.005,5.400,0.900,-2.200,0.900
1.006,5.300,0.700,-1.800,1.500
1.007,5.600,0.400,-1.500,2.200
1.008,5.800,0.200,-1.300,2.900
1.009,5.700,0.100,-1.100,3.400
1.010,5.000,0.100,-0.900,3.800
1.011,4.100,0.200,-0.700,4.100
1.012,3.500,0.200,-0.600,4.200
1.013,3.600,0.000,-0.600,4.300
1.014,4.200,-0.400,-0.500,4.300
1.015,4.800,-0.900,-0.400,4.400
1.016,4.800,-1.200,-0.400,4.400
1.017,4.100,-1.300,-0.400,4.400
1.018,3.200,-1.400,-0.400,4.300
1.019,2.500,-1.400,-0.500,4.400
1.020,2.100,-1.400,-0.600,4.400
1.021,2.100,-1.500,-0.700,4.300
1.022,2.200,-1.600,-0.800,4.200
1.023,2.200,-1.600,-0.700,3.900
1.024,2.400,-1.500,-0.600,3.600
1.025,2.600,-1.400,-0.500,3.400
1.026,3.000,-1.300,-0.300,3.100
1.027,3.300,-1.300,-0.200,2.900
1.028,3.600,-1.200,-0.100,2.600
1.029,3.900,-1.100,0.000,2.300
1.030,4.000,-1.100,0.100,2.000
1.031,4.100,-1.000,0.200,1.800
1.032,3.900,-1.100,0.300,1.800
1.033,3.700,-1.200,0.300,1.900
1.034,3.400,-1.200,0.200,1.800
1.035,3.100,-1.300,0.200,1.500
1.036,2.800,-1.400,0.100,0.900
1.037,2.500,-1.500,0.000,0.300
1.038,2.200,-1.600,-0.200,-0.100
1.039,2.000,-1.800,-0.300,-0.300
1.040,2.000,-2.100,-0.500,-0.500
1.041,2.000,-2.500,-0.600,-0.800
1.042,2.200,-2.900,-0.800,-1.200
1.043,2.300,-3.300,-0.900,-1.800
1.044,2.500,-3.700,-0.900,-2.200
1.045,2.600,-4.100,-1.000,-2.600
1.046,2.800,-4.500,-1.000,-2.900
1.047,2.900,-4.800,-1.000,-3.100
1.048,3.000,-5.100,-1.000,-3.300
1.049,3.100,-5.300,-0.900,-3.500
1.050,3.000,-5.300,-0.900,-3.700
1.051,3.000,-5.300,-0.700,-3.800
1.052,3.000,-5.400,-0.600,-3.800
1.053,2.900,-5.500,-0.600,-3.800
1.054,2.900,-5.600,-0.700,-3.800
1.055,2.800,-5.700,-0.800,-3.900
1.056,2.700,-5.700,-0.900,-3.900
1.057,2.700,-5.400,-1.000,-4.000
1.058,2.800,-5.100,-1.100,-4.100
1.059,3.000,-4.700,-1.200,-4.000
1.060,3.200,-4.500,-1.200,-3.900
1.061,3.500,-4.300,-1.300,-3.800
1.062,3.700,-4.300,-1.300,-3.800
1.063,4.000,-4.300,-1.400,-3.700
1.064,4.200,-4.400,-1.400,-3.700
1.065,4.300,-4.400,-1.500,-3.500
1.066,4.300,-4.500,-1.400,-3.200
1.067,4.100,-4.700,-1.200,-2.800
1.068,3.800,-5.100,-0.900,-2.400
1.069,3.600,-5.400,-0.700,-2.000
1.070,3.300,-5.900,-0.600,-1.500
1.071,3.000,-6.300,-0.600,-0.900
1.072,2.700,-6.700,-0.600,-0.100
1.073,2.200,-7.200,-0.600,0.600
1.074,1.700,-7.700,-0.600,1.200
1.075,1.200,-8.100,-0.500,1.800
1.076,0.800,-8.400,-0.500,2.300
1.077,0.400,-8.400,-0.500,2.800
1.078,0.100,-8.200,-0.600,3.300
1.079,-0.200,-7.800,-0.700,3.500
1.080,-0.300,-7.300,-0.800,3.500
1.081,-0.200,-6.600,-0.900,3.100
1.082,-0.100,-5.700,-1.000,2.400
1.083,0.200,-4.800,-1.100,1.600
1.084,0.500,-3.800,-1.100,0.700
1.085,0.900,-3.000,-1.200,-0.200
1.086,1.300,-2.500,-1.200,-1.200
1.087,1.600,-2.200,-1.200,-2.300
1.088,1.800,-2.100,-1.200,-3.500
1.089,1.900,-2.100,-1.300,-4.600
1.090,1.900,-2.100,-1.300,-5.300
1.091,1.900,-2.300,-1.300,-5.700
1.092,1.800,-2.600,-1.300,-5.900
1.093,1.700,-3.000,-1.300,-5.900
1.094,1.500,-3.600,-1.200,-5.700
1.095,1.300,-4.100,-1.200,-5.100
1.096,1.300,-4.600,-1.300,-4.200
1.097,1.400,-5.100,-1.300,-3.000
1.098,1.600,-5.600,-1.500,-1.800
1.099,2.000,-6.100,-1.600,-0.800
1.100,2.300,-6.600,-1.800,-0.200
1.101,2.600,-7.000,-2.000,0.100
1.102,3.000,-7.100,-2.200,0.300
1.103,3.300,-7.200,-2.400,0.400
1.104,3.700,-7.200,-2.700,0.400
1.105,3.900,-7.300,-2.800,0.100
1.106,3.900,-7.500,-3.000,-0.500
1.107,3.600,-7.600,-3.000,-1.200
1.108,3.400,-7.700,-3.000,-1.900
1.109,3.300,-7.700,-2.900,-2.500
1.110,3.500,-7.600,-2.800,-2.900
1.111,3.800,-7.600,-2.700,-3.100
1.112,3.900,-7.800,-2.600,-3.300
1.113,3.500,-8.200,-2.400,-3.400
1.114,2.900,-8.700,-2.300,-3.500
1.115,2.400,-9.200,-2.100,-3.600
1.116,2.200,-9.500,-2.000,-3.600
1.117,2.400,-9.600,-2.000,-3.600
1.118,2.800,-9.600,-1.900,-3.700
1.119,3.300,-9.600,-1.900,-3.800
1.120,3.800,-9.500,-1.800,-3.900
1.121,4.200,-9.400,-1.800,-3.900
1.122,4.800,-9.300,-1.900,-3.900
1.123,5.300,-9.200,-2.000,-3.800
1.124,5.700,-9.100,-2.200,-3.700
1.125,5.800,-9.100,-2.400,-3.400
1.126,5.800,-9.200,-2.500,-3.000
1.127,5.600,-9.300,-2.600,-2.400
1.128,5.400,-9.300,-2.700,-1.800
1.129,5.200,-9.300,-2.800,-1.200
1.130,4.800,-9.300,-2.900,-0.700
1.131,4.400,-9.200,-3.000,-0.300
1.132,3.900,-9.100,-3.000,-0.100
1.133,3.500,-9.100,-3.000,0.000
1.134,3.300,-9.100,-3.100,-0.200
1.135,3.100,-9.200,-3.100,-0.700
1.136,3.000,-9.200,-3.200,-1.500
1.137,2.900,-9.300,-3.300,-2.400
1.138,2.800,-9.200,-3.300,-3.200
1.139,2.800,-9.200,-3.400,-3.800
1.140,3.000,-9.300,-3.500,-4.500
1.141,3.300,-9.600,-3.600,-5.100
1.142,3.500,-10.000,-3.700,-5.700
1.143,3.700,-10.400,-3.900,-6.200
1.144,3.800,-10.800,-4.100,-6.600
1.145,3.800,-11.200,-4.200,-7.000
1.146,3.800,-11.800,-4.200,-7.400
1.147,3.600,-12.300,-4.200,-7.800
1.148,3.400,-12.700,-4.200,-8.400
1.149,3.100,-12.800,-4.200,-8.800
1.150,2.700,-12.700,-4.200,-9.300
1.151,2.300,-12.500,-4.200,-9.700
1.152,2.000,-12.300,-4.200,-10.100
1.153,1.700,-12.200,-4.200,-10.400
1.154,1.400,-12.100,-4.100,-10.600
1.155,1.100,-12.000,-4.100,-10.500
1.156,0.900,-11.800,-4.100,-10.300
1.157,0.600,-11.700,-4.100,-10.000
1.158,0.500,-11.600,-4.000,-9.500
1.159,0.500,-11.700,-3.900,-9.000
1.160,0.400,-11.800,-3.900,-8.400
1.161,0.400,-11.700,-3.800,-7.600
1.162,0.400,-11.700,-3.800,-6.600
1.163,0.400,-11.500,-3.800,-5.400
1.164,0.500,-11.300,-3.800,-4.200
1.165,0.700,-11.000,-3.900,-3.200
1.166,0.900,-10.700,-3.900,-2.300
1.167,1.100,-10.300,-3.900,-1.300
1.168,1.300,-10.000,-3.900,-0.300
1.169,1.500,-9.700,-4.000,0.700
1.170,1.700,-9.500,-4.000,1.200
1.171,1.900,-9.600,-4.200,1.000
1.172,2.100,-9.700,-4.300,0.200
1.173,2.300,-9.900,-4.500,-0.900
1.174,2.600,-10.000,-4.500,-2.100
1.175,2.900,-10.000,-4.400,-3.300
1.176,3.100,-10.100,-4.400,-4.300
1.177,3.200,-10.300,-4.300,-5.400
1.178,3.200,-10.700,-4.400,-6.400
1.179,3.200,-11.300,-4.500,-7.200
1.180,3.100,-11.800,-4.600,-7.600
1.181,3.100,-12.400,-4.700,-7.500
1.182,3.000,-12.900,-4.600,-7.000
1.183,2.800,-13.400,-4.400,-6.400
1.184,2.500,-14.000,-4.200,-5.600
1.185,2.400,-14.600,-4.100,-4.700
1.186,2.300,-15.400,-4.000,-3.700
1.187,2.300,-16.000,-3.900,-2.900
1.188,2.400,-16.600,-3.800,-2.400
1.189,2.500,-17.000,-3.800,-2.300
1.190,2.700,-17.400,-3.800,-2.700
1.191,3.000,-17.700,-3.800,-3.400
1.192,3.400,-17.800,-3.800,-4.400
1.193,3.900,-17.700,-3.800,-5.500
1.194,4.600,-17.100,-3.800,-6.700
1.195,5.300,-16.300,-3.700,-8.300
1.196,6.000,-15.200,-3.600,-10.000
1.197,6.600,-13.700,-3.300,-11.700
1.198,6.900,-12.000,-2.900,-13.100
1.199,7.000,-10.200,-2.500,-13.900
1.200,7.200,-8.700,-2.300,-13.900
1.201,7.500,-7.600,-2.200,-13.400
1.202,7.900,-6.900,-2.400,-12.400
1.203,8.100,-6.400,-2.600,-11.300
1.204,7.800,-5.900,-2.600,-10.000
1.205,7.100,-5.800,-2.500,-8.600
1.206,6.000,-6.500,-2.100,-7.200
1.207,4.600,-8.100,-1.600,-5.700
1.208,3.200,-9.800,-1.100,-4.300
1.209,1.900,-10.800,-0.700,-3.200
1.210,0.800,-10.700,-0.500,-2.200
1.211,-0.200,-10.100,-0.400,-1.400
1.212,-1.000,-10.300,-0.500,-0.800
1.213,-1.700,-12.100,-0.600,-0.300
1.214,-2.200,-14.900,-0.700,-0.100
1.215,-2.600,-17.400,-0.700,-0.100
1.216,-2.900,-18.500,-0.700,-0.400
1.217,-3.100,-18.200,-0.600,-0.800
1.218,-3.400,-17.300,-0.500,-1.300
1.219,-3.600,-16.600,-0.400,-2.000
1.220,-3.900,-16.100,-0.300,-2.900
1.221,-4.100,-15.400,-0.100,-3.900
1.222,-4.400,-14.300,0.100,-4.800
1.223,-4.600,-12.900,0.400,-5.600
1.224,-4.800,-11.700,0.600,-6.400
1.225,-5.000,-11.000,0.800,-7.200
1.226,-5.200,-10.700,0.900,-8.300
1.227,-5.400,-10.300,1.000,-9.200
1.228,-5.600,-10.000,1.100,-9.600
1.229,-5.700,-9.900,1.200,-9.300
1.230,-5.600,-10.100,1.200,-8.800
1.231,-5.400,-10.700,1.100,-8.900
1.232,-5.300,-11.500,1.000,-9.700
1.233,-5.200,-12.000,0.900,-10.500
1.234,-5.200,-12.400,0.700,-10.200
1.235,-5.400,-12.700,0.700,-8.400
1.236,-5.500,-12.800,0.600,-5.400
1.237,-5.600,-12.800,0.500,-2.600
1.238,-5.900,-12.500,0.400,-0.900
1.239,-6.100,-11.800,0.400,-0.300
1.240,-6.500,-10.900,0.300,-0.200
1.241,-6.800,-9.900,0.400,0.100
1.242,-7.100,-9.100,0.600,0.500
1.243,-7.300,-8.400,0.900,0.600
1.244,-7.400,-7.800,1.200,0.100
1.245,-7.400,-7.200,1.400,-0.900
1.246,-7.400,-6.600,1.500,-2.000
1.247,-7.200,-6.000,1.700,-2.800
1.248,-7.000,-5.900,1.800,-3.400
1.249,-6.600,-6.300,1.800,-4.000
1.250,-6.300,-7.000,1.800,-4.500
1.251,-5.900,-7.800,1.600,-4.900
1.252,-5.600,-8.500,1.500,-4.700
1.253,-5.300,-9.100,1.400,-3.900
1.254,-5.100,-9.600,1.300,-3.000
1.255,-4.900,-10.300,1.200,-1.900
1.256,-4.700,-10.800,1.100,-1.100
1.257,-4.500,-11.100,1.100,-0.200
1.258,-4.400,-11.000,1.100,0.600
1.259,-4.300,-10.600,1.300,1.500
1.260,-4.100,-10.200,1.500,2.200
1.261,-3.900,-9.900,1.800,2.700
1.262,-3.600,-9.800,2.000,2.900
1.263,-3.300,-9.800,2.200,2.700
1.264,-3.000,-9.600,2.400,2.300
1.265,-2.600,-9.100,2.500,1.800
1.266,-2.200,-8.600,2.600,1.300
1.267,-1.800,-8.000,2.600,0.800
1.268,-1.300,-7.600,2.500,0.300
1.269,-0.900,-7.300,2.400,-0.300
1.270,-0.500,-7.200,2.100,-0.800
1.271,-0.200,-7.000,1.900,-1.000
1.272,0.100,-6.800,1.600,-1.000
1.273,0.300,-6.600,1.300,-0.900
1.274,0.500,-6.500,1.100,-0.700
1.275,0.400,-6.500,1.100,-0.500
1.276,0.300,-6.500,1.100,-0.300
1.277,0.000,-6.400,1.100,0.000
1.278,-0.200,-6.300,1.000,0.500
1.279,-0.300,-6.200,0.900,0.900
1.280,-0.500,-6.000,0.800,1.200
1.281,-0.600,-5.900,0.800,1.200
1.282,-0.800,-5.800,0.900,1.000
1.283,-1.000,-5.800,1.000,0.500
1.284,-1.100,-5.800,1.100,0.000
1.285,-1.200,-5.900,1.100,-0.600
1.286,-1.200,-6.000,1.000,-1.400
1.287,-1.200,-6.000,0.900,-2.500
1.288,-1.400,-6.100,0.700,-3.700
1.289,-1.600,-6.200,0.500,-4.800
1.290,-2.000,-6.500,0.300,-5.500
1.291,-2.300,-6.800,0.100,-5.800
1.292,-2.600,-7.000,-0.100,-5.600
1.293,-2.900,-7.000,-0.300,-5.200
1.294,-3.100,-6.900,-0.600,-4.600
1.295,-3.200,-6.600,-0.700,-3.900
1.296,-3.000,-6.300,-0.900,-2.800
1.297,-2.700,-6.100,-0.900,-1.400
1.298,-2.100,-5.800,-1.000,0.000
1.299,-1.400,-5.300,-1.000,1.200
1.300,-0.700,-4.700,-1.000,2.100
1.301,0.000,-4.100,-1.000,2.700
1.302,0.800,-3.300,-0.900,3.100
1.303,1.800,-2.300,-0.600,3.300
1.304,2.800,-1.200,-0.400,3.300
1.305,3.700,-0.100,-0.200,3.100
1.306,4.000,0.500,0.100,2.600
1.307,4.000,0.600,0.300,1.800
1.308,3.800,0.400,0.500,0.900
1.309,4.000,0.600,0.600,0.000
1.310,4.600,1.100,0.800,-0.900
1.311,5.200,1.800,1.000,-1.800
1.312,5.100,1.800,1.100,-2.600
1.313,4.100,0.800,1.100,-3.400
1.314,2.500,-0.800,1.000,-4.100
1.315,1.000,-2.200,0.900,-4.600
1.316,0.100,-2.700,0.700,-4.900
1.317,0.000,-2.100,0.600,-4.900
1.318,0.300,-0.900,0.400,-4.700
1.319,0.500,0.300,0.300,-4.300
1.320,0.600,1.300,0.100,-3.700
1.321,0.900,1.900,0.000,-3.000
1.322,1.400,2.300,-0.100,-2.300
1.323,2.200,2.300,-0.200,-1.500
1.324,2.800,1.900,-0.200,-0.800
1.325,3.200,1.000,-0.200,0.000
1.326,3.400,-0.300,-0.200,0.800
1.327,3.600,-1.800,-0.100,1.300
1.328,3.700,-3.700,-0.100,1.300
1.329,3.700,-5.900,0.000,0.800
1.330,3.500,-8.500,0.100,0.200
1.331,3.000,-11.000,0.200,0.100
1.332,2.300,-13.100,0.200,0.500
1.333,1.500,-14.500,0.100,1.200
1.334,0.800,-15.500,0.000,1.300
1.335,0.100,-16.100,0.000,0.600
1.336,-0.600,-16.500,-0.100,-0.800
1.337,-1.400,-16.500,-0.200,-1.900
1.338,-2.200,-16.000,-0.300,-2.300
1.339,-2.800,-14.900,-0.300,-1.800
1.340,-3.200,-13.400,-0.300,-1.100
1.341,-3.300,-11.600,-0.300,-0.400
1.342,-3.200,-9.800,-0.300,0.000
1.343,-3.000,-8.000,-0.200,0.300
1.344,-2.600,-6.300,-0.200,0.800
1.345,-2.200,-4.400,-0.100,1.300
1.346,-1.700,-2.400,-0.100,1.800
1.347,-1.000,-0.500,-0.100,1.800
1.348,-0.300,1.300,-0.100,1.600
1.349,0.500,2.600,0.000,1.300
1.350,1.300,3.400,0.000,0.800
1.351,1.900,3.900,0.100,0.100
1.352,2.300,4.000,0.200,-0.800
1.353,2.700,3.900,0.300,-2.100
1.354,2.900,3.600,0.300,-3.400
1.355,3.100,2.900,0.400,-4.800
1.356,3.100,1.900,0.400,-5.900
1.357,3.000,0.700,0.400,-6.800
1.358,2.700,-0.600,0.400,-7.500
1.359,2.400,-1.900,0.300,-7.900
1.360,2.200,-3.100,0.300,-8.000
1.361,2.100,-4.200,0.200,-7.500
1.362,2.000,-5.100,0.200,-6.400
1.363,2.000,-6.000,0.300,-4.800
1.364,2.000,-6.600,0.400,-3.100
1.365,1.900,-6.900,0.400,-1.400
1.366,1.800,-6.700,0.500,0.200
1.367,1.700,-6.000,0.600,1.700
1.368,1.500,-4.900,0.700,3.100
1.369,1.100,-3.600,0.800,4.500
1.370,0.800,-2.300,0.900,5.400
1.371,0.500,-0.900,0.900,5.900
1.372,0.300,0.400,0.900,5.800
1.373,0.100,1.700,0.800,5.400
1.374,0.000,3.100,0.900,5.000
1.375,-0.100,4.400,0.900,4.600
1.376,-0.100,5.500,0.900,4.000
1.377,0.000,6.300,1.000,3.400
1.378,0.100,6.600,1.100,2.700
1.379,0.300,6.500,1.100,2.000
1.380,0.500,6.100,1.100,1.600
1.381,0.600,5.500,1.200,1.500
1.382,0.900,4.800,1.200,1.400
1.383,1.100,3.600,1.200,1.300
1.384,1.300,2.100,1.400,1.200
1.385,1.400,0.200,1.500,1.000
1.386,1.300,-1.600,1.600,1.000
1.387,1.100,-3.100,1.800,0.900
1.388,0.900,-4.000,1.900,0.800
1.389,0.700,-4.400,1.900,0.600
1.390,0.500,-4.400,1.900,0.200
1.391,0.300,-4.100,1.900,-0.200
1.392,-0.200,-3.500,1.800,-0.700
1.393,-0.700,-2.300,1.800,-1.200
1.394,-1.200,-0.700,1.700,-1.700
1.395,-1.800,0.700,1.800,-2.300
1.396,-2.200,1.600,1.800,-2.900
1.397,-2.700,1.800,2.000,-3.400
1.398,-3.000,1.400,2.100,-3.900
1.399,-3.500,0.800,2.100,-4.300
1.400,-3.900,-0.100,2.200,-4.400
1.401,-4.300,-1.200,2.300,-4.300
1.402,-4.800,-2.800,2.400,-4.100
1.403,-5.100,-4.500,2.500,-3.700
1.404,-5.600,-6.100,2.600,-3.300
1.405,-6.200,-7.200,2.600,-2.600
1.406,-6.900,-8.100,2.700,-1.700
1.407,-7.600,-8.800,2.800,-0.600
1.408,-8.300,-9.500,2.900,0.500
1.409,-8.800,-10.200,3.000,1.400
1.410,-9.200,-10.500,3.100,2.200
1.411,-9.400,-10.500,3.100,2.700
1.412,-9.700,-10.500,3.000,3.100
1.413,-10.000,-10.700,3.000,3.400
1.414,-10.400,-10.800,3.200,3.600
1.415,-10.600,-10.700,3.400,3.500
1.416,-10.600,-10.200,3.600,3.000
1.417,-10.500,-9.100,3.700,2.400
1.418,-10.300,-7.700,3.800,1.600
1.419,-10.000,-6.200,3.900,0.700
1.420,-9.600,-4.700,4.000,-0.400
1.421,-9.200,-3.300,4.200,-1.600
1.422,-8.800,-2.000,4.300,-2.700
1.423,-8.500,-1.100,4.400,-3.700
1.424,-8.400,-0.600,4.400,-4.600
1.425,-8.500,-0.600,4.500,-5.800
1.426,-8.600,-0.900,4.700,-7.100
1.427,-8.800,-1.500,4.900,-8.000
1.428,-9.100,-2.400,5.100,-7.800
1.429,-9.600,-3.600,5.200,-6.400
1.430,-10.300,-5.100,5.400,-4.800
1.431,-11.100,-6.700,5.400,-4.400
1.432,-11.800,-8.400,5.500,-5.600
1.433,-12.300,-9.700,5.600,-7.100
1.434,-12.500,-10.700,5.600,-7.100
1.435,-12.800,-11.400,5.600,-4.500
1.436,-13.000,-12.000,5.600,-0.100
1.437,-13.100,-12.500,5.500,4.100
1.438,-13.100,-12.600,5.500,6.300
1.439,-12.900,-12.100,5.500,6.700
1.440,-12.700,-10.800,5.500,6.200
1.441,-12.600,-8.900,5.500,6.000
1.442,-12.700,-6.800,5.600,6.400
1.443,-12.800,-5.100,5.700,6.500
1.444,-13.000,-3.600,5.800,5.600
1.445,-13.100,-2.200,5.900,3.900
1.446,-13.300,-0.800,6.000,2.000
1.447,-13.600,0.400,6.000,0.500
1.448,-14.100,0.700,5.900,-0.800
1.449,-14.500,-0.300,5.900,-2.100
1.450,-15.000,-2.300,5.900,-3.700
1.451,-15.400,-4.500,5.900,-5.400
1.452,-15.800,-6.700,6.000,-6.700
1.453,-16.200,-8.500,6.000,-7.600
1.454,-16.500,-10.400,6.000,-8.100
1.455,-16.900,-12.400,5.900,-8.400
1.456,-17.100,-14.100,5.800,-8.600
1.457,-17.300,-14.900,5.700,-8.600
1.458,-17.400,-14.700,5.600,-8.400
1.459,-17.400,-13.700,5.500,-7.900
1.460,-17.400,-12.400,5.400,-7.100
1.461,-17.400,-11.200,5.300,-6.200
1.462,-17.400,-10.100,5.100,-5.200
1.463,-17.400,-8.800,5.000,-4.300
1.464,-17.300,-7.400,4.900,-3.500
1.465,-17.300,-6.000,4.900,-2.700
1.466,-17.400,-4.800,4.800,-2.100
1.467,-17.300,-3.700,4.700,-1.400
1.468,-17.100,-2.600,4.600,-0.600
1.469,-16.800,-1.400,4.500,0.100
1.470,-16.300,-0.200,4.500,0.600
1.471,-15.800,0.900,4.400,0.700
1.472,-15.100,1.800,4.300,0.600
1.473,-14.300,2.500,4.100,0.200
1.474,-13.200,3.100,3.900,-0.200
1.475,-12.000,3.400,3.900,-0.600
1.476,-10.800,3.300,3.900,-1.000
1.477,-9.700,2.500,3.700,-1.500
1.478,-8.900,1.400,3.400,-2.000
1.479,-8.200,0.000,2.900,-2.400
1.480,-7.600,-1.400,2.400,-2.700
1.481,-7.000,-3.000,2.100,-2.900
1.482,-6.500,-4.800,1.900,-2.900
1.483,-6.200,-6.600,1.900,-2.800
1.484,-6.100,-8.200,1.800,-2.700
1.485,-6.200,-9.300,1.700,-2.500
1.486,-6.400,-9.500,1.600,-2.200
1.487,-6.600,-9.200,1.500,-1.800
1.488,-6.800,-8.500,1.600,-1.300
1.489,-6.900,-7.600,1.700,-1.100
1.490,-7.100,-6.600,1.800,-1.100
1.491,-7.200,-5.300,1.900,-1.400
1.492,-7.300,-3.900,2.000,-1.800
1.493,-7.300,-2.400,2.100,-2.300
1.494,-7.200,-1.200,2.200,-2.800
1.495,-6.900,-0.300,2.400,-3.600
1.496,-6.600,0.400,2.400,-4.400
1.497,-6.100,1.100,2.400,-5.400
1.498,-5.700,1.900,2.300,-6.100
1.499,-5.200,2.800,2.100,-6.500
1.500,-4.600,3.500,1.900,-6.400
1.501,-4.100,3.900,1.600,-6.000
1.502,-3.600,4.300,1.400,-5.300
1.503,-3.100,4.700,1.100,-4.300
1.504,-2.700,5.400,0.800,-3.000
1.505,-2.400,5.900,0.600,-1.500
1.506,-2.300,5.700,0.400,0.300
1.507,-2.300,4.800,0.300,1.800
1.508,-2.300,3.700,0.100,3.000
1.509,-2.100,3.300,-0.100,3.700
1.510,-1.900,3.900,-0.300,4.000
1.511,-1.500,4.900,-0.400,4.100
1.512,-1.100,5.100,-0.500,4.000
1.513,-0.700,4.000,-0.500,3.600
1.514,-0.300,1.900,-0.600,3.000
1.515,0.200,0.100,-0.800,1.900
1.516,0.800,-0.500,-0.900,0.600
1.517,1.500,0.100,-1.100,-0.800
1.518,2.200,1.300,-1.200,-1.800
1.519,2.900,2.300,-1.400,-2.600
1.520,3.500,2.900,-1.500,-3.300
1.521,4.000,3.500,-1.600,-3.900
1.522,4.400,4.300,-1.700,-4.400
1.523,4.800,5.300,-1.800,-4.400
1.524,5.000,5.900,-2.000,-4.100
1.525,5.100,5.900,-2.100,-3.800
1.526,5.100,5.300,-2.200,-3.600
1.527,5.100,4.600,-2.300,-3.300
1.528,4.900,3.900,-2.300,-2.600
1.529,4.600,3.500,-2.400,-1.200
1.530,4.200,3.100,-2.400,0.300
1.531,3.700,2.800,-2.500,1.000
1.532,3.200,2.500,-2.500,0.500
1.533,2.700,2.400,-2.500,-0.500
1.534,2.300,2.500,-2.400,-0.600
1.535,1.900,2.600,-2.400,0.900
1.536,1.500,2.900,-2.300,3.400
1.537,1.200,3.100,-2.100,5.800
1.538,1.000,3.500,-2.100,6.900
1.539,0.900,3.900,-2.100,6.500
1.540,0.900,4.200,-2.000,5.500
1.541,0.900,4.500,-2.000,4.700
1.542,1.200,4.700,-2.000,4.200
1.543,1.500,4.700,-2.000,3.600
1.544,1.800,4.500,-2.000,2.700
1.545,2.100,3.900,-2.000,1.500
1.546,2.400,3.100,-1.900,0.600
1.547,2.600,2.000,-1.900,0.100
1.548,3.000,0.800,-2.000,-0.200
1.549,3.600,-0.400,-2.000,-0.400
1.550,4.300,-1.300,-2.000,-0.600
1.551,5.000,-1.800,-1.900,-0.700
1.552,5.700,-1.900,-1.800,-0.600
1.553,6.200,-1.400,-1.700,-0.400
1.554,6.700,-0.400,-1.600,-0.300
1.555,7.100,0.800,-1.500,-0.500
1.556,7.500,2.200,-1.400,-0.900
1.557,7.800,3.600,-1.200,-1.300
1.558,7.800,4.900,-1.100,-1.800
1.559,7.700,6.000,-1.000,-2.100
1.560,7.500,6.700,-0.900,-2.600
1.561,7.200,7.200,-0.900,-2.900
1.562,7.000,7.300,-0.900,-3.100
1.563,6.600,7.400,-0.800,-3.100
1.564,6.200,7.500,-0.700,-2.700
1.565,5.700,7.700,-0.600,-2.300
1.566,5.200,8.000,-0.600,-1.800
1.567,4.800,8.300,-0.600,-1.300
1.568,4.400,8.500,-0.600,-0.700
1.569,4.200,8.700,-0.700,-0.100
1.570,4.000,8.700,-0.700,0.600
1.571,3.900,8.900,-0.700,1.400
1.572,3.800,9.000,-0.600,2.200
1.573,3.700,9.100,-0.500,3.000
1.574,3.700,9.100,-0.400,3.700
1.575,3.700,9.000,-0.200,4.500
1.576,3.700,8.900,0.100,5.300
1.577,3.700,8.900,0.500,6.100
1.578,3.800,8.800,0.900,6.800
1.579,3.800,8.900,1.400,7.500
1.580,3.900,9.000,1.800,8.000
1.581,4.000,9.200,2.300,8.400
1.582,4.100,9.600,2.700,8.700
1.583,4.200,10.200,3.200,9.000
1.584,4.300,10.600,3.700,9.400
1.585,4.500,10.600,4.200,9.700
1.586,4.600,10.100,4.600,10.000
1.587,4.800,9.300,5.000,10.300
1.588,4.900,8.200,5.400,10.600
1.589,5.100,6.900,5.700,10.900
1.590,5.300,5.600,6.000,11.400
1.591,5.600,4.200,6.300,11.800
1.592,5.700,2.700,6.500,12.200
1.593,5.900,1.400,6.700,12.300
1.594,5.900,0.500,6.900,12.300
1.595,5.900,0.200,7.100,12.200
1.596,5.900,0.400,7.200,11.900
1.597,6.000,1.000,7.200,11.200
1.598,6.000,1.800,7.000,10.000
1.599,6.100,2.600,6.900,8.500
1.600,6.200,3.400,6.600,6.800
1.601,6.200,4.400,6.300,5.200
1.602,6.100,5.400,6.000,3.800
1.603,6.000,6.300,5.700,2.500
1.604,5.700,7.100,5.400,1.200
1.605,5.300,7.500,5.200,-0.100
1.606,4.800,7.600,4.900,-0.900
1.607,4.300,7.600,4.600,-1.100
1.608,3.800,7.400,4.300,-0.600
1.609,3.400,7.200,4.000,0.200
1.610,3.100,7.000,3.600,1.100
1.611,2.800,6.600,3.200,1.900
1.612,2.600,6.200,2.700,2.800
1.613,2.400,5.800,2.200,3.700
1.614,2.500,5.400,1.400,4.500
1.615,2.900,4.900,0.500,4.800
1.616,3.600,4.300,-0.600,4.400
1.617,4.700,3.300,-1.800,3.300
1.618,6.000,2.000,-3.100,1.800
1.619,7.600,0.400,-4.500,0.000
1.620,9.300,-1.300,-6.000,-2.100
1.621,11.100,-3.000,-7.500,-4.500
1.622,12.900,-4.700,-8.900,-7.400
1.623,14.500,-6.500,-10.300,-10.700
1.624,16.000,-8.500,-11.700,-14.100
1.625,17.500,-11.000,-13.200,-17.300
1.626,19.000,-14.000,-15.100,-20.100
1.627,20.400,-17.400,-17.200,-22.500
1.628,21.700,-21.500,-19.500,-24.700
1.629,22.400,-26.300,-21.600,-27.000
1.630,22.600,-31.800,-23.500,-29.300
1.631,22.400,-38.100,-25.100,-31.700
1.632,21.700,-45.100,-26.600,-34.200
1.633,20.700,-52.500,-28.000,-36.700
1.634,19.300,-60.100,-29.400,-39.300
1.635,17.400,-67.700,-30.700,-42.000
1.636,15.000,-75.200,-31.700,-45.000
1.637,11.900,-82.500,-32.400,-47.900
1.638,8.200,-89.600,-32.700,-50.700
1.639,4.100,-96.100,-32.700,-53.200
1.640,0.000,-101.500,-32.500,-55.300
1.641,-3.600,-105.600,-32.200,-57.000
1.642,-6.300,-108.300,-32.100,-58.300
1.643,-8.000,-109.600,-32.000,-59.200
1.644,-8.700,-109.800,-31.900,-59.400
1.645,-8.800,-108.700,-31.700,-58.900
1.646,-8.800,-106.400,-31.200,-57.700
1.647,-8.900,-102.900,-30.300,-55.700
1.648,-9.400,-98.500,-28.900,-53.100
1.649,-10.400,-93.200,-26.800,-50.000
1.650,-11.900,-87.000,-24.200,-46.100
1.651,-13.800,-79.900,-21.000,-41.600
1.652,-15.900,-72.000,-17.500,-36.600
1.653,-18.200,-63.600,-13.700,-31.300
1.654,-20.700,-54.800,-9.800,-26.100
1.655,-23.200,-45.800,-5.900,-21.200
1.656,-25.800,-36.600,-1.900,-16.500
1.657,-28.500,-27.200,2.100,-12.100
1.658,-31.400,-17.700,5.900,-8.100
1.659,-34.400,-8.700,9.600,-4.600
1.660,-37.300,-0.500,13.100,-1.800
1.661,-40.200,6.600,16.200,0.300
1.662,-42.700,12.600,19.000,2.200
1.663,-44.700,17.600,21.300,4.100
1.664,-46.000,21.800,23.000,5.900
1.665,-46.400,25.100,24.100,7.500
1.666,-45.700,27.500,24.500,8.800
1.667,-43.600,28.700,24.300,10.000
1.668,-40.200,29.000,23.400,11.100
1.669,-35.500,28.600,21.800,12.200
1.670,-29.700,28.100,19.600,13.200
1.671,-23.200,27.600,16.900,13.900
1.672,-16.200,26.900,14.000,14.300
1.673,-9.000,25.800,11.000,14.300
1.674,-1.900,24.300,8.000,14.000
1.675,4.700,22.900,5.100,13.600
1.676,10.600,22.200,2.500,13.100
1.677,15.500,22.300,0.100,12.400
1.678,19.400,23.000,-2.000,11.500
1.679,22.500,23.800,-3.800,10.500
1.680,24.700,24.400,-5.200,9.400
1.681,26.200,24.700,-6.300,8.300
1.682,27.200,25.000,-7.100,7.300
1.683,27.500,25.400,-7.600,6.500
1.684,27.300,25.400,-7.900,5.700
1.685,26.800,24.600,-8.100,4.900
1.686,26.100,22.600,-8.100,4.200
1.687,25.300,19.900,-8.100,3.600
1.688,24.300,17.000,-7.900,3.100
1.689,23.300,14.200,-7.700,2.700
1.690,22.100,11.400,-7.500,2.400
1.691,20.900,8.600,-7.200,2.300
1.692,19.800,5.300,-6.900,2.100
1.693,18.700,1.800,-6.600,2.100
1.694,17.700,-1.700,-6.300,1.900
1.695,16.800,-4.600,-5.900,1.700
1.696,15.800,-6.900,-5.500,1.400
1.697,14.800,-8.400,-5.100,1.000
1.698,13.900,-9.500,-4.700,0.700
1.699,13.000,-10.200,-4.300,0.600
1.700,12.200,-10.300,-4.000,0.500
1.701,11.400,-9.700,-3.700,0.500
1.702,10.700,-8.300,-3.400,0.600
1.703,10.100,-6.100,-3.100,0.600
1.704,9.400,-3.500,-2.800,0.800
1.705,8.800,-0.700,-2.500,1.000
1.706,8.200,2.100,-2.200,1.300
1.707,7.600,4.800,-2.000,1.500
1.708,7.100,7.100,-1.700,1.500
1.709,6.600,8.700,-1.500,1.500
1.710,6.200,9.400,-1.300,1.400
1.711,5.800,9.300,-1.100,1.300
1.712,5.500,8.700,-0.900,1.200
1.713,5.200,8.100,-0.800,0.900
1.714,4.900,7.500,-0.700,0.600
1.715,4.600,6.700,-0.600,0.200
1.716,4.300,5.500,-0.500,-0.300
1.717,4.100,3.900,-0.500,-0.800
1.718,3.800,2.200,-0.400,-1.300
1.719,3.600,0.700,-0.300,-1.800
1.720,3.500,-0.500,-0.100,-2.400
1.721,3.500,-1.300,0.000,-2.900
1.722,3.500,-1.800,0.100,-3.300
1.723,3.600,-2.200,0.100,-3.600
1.724,3.700,-2.600,0.100,-3.800
1.725,3.700,-2.900,0.000,-3.900
1.726,3.700,-3.100,0.000,-4.000
1.727,3.700,-3.300,0.000,-4.000
1.728,3.600,-3.400,-0.100,-3.700
1.729,3.700,-3.500,-0.200,-3.300
1.730,3.900,-3.500,-0.400,-2.800
1.731,4.100,-3.300,-0.600,-2.700
1.732,4.400,-2.900,-0.700,-3.000
1.733,4.700,-2.200,-0.900,-3.400
1.734,4.900,-1.600,-1.000,-3.500
1.735,5.200,-1.000,-1.100,-3.000
1.736,5.400,-0.300,-1.200,-2.100
1.737,5.600,0.500,-1.200,-1.200
1.738,5.700,1.400,-1.300,-0.700
1.739,5.800,2.200,-1.400,-0.800
1.740,5.800,2.700,-1.500,-0.900
1.741,5.900,2.500,-1.500,-1.100
1.742,6.000,1.900,-1.500,-1.200
1.743,6.000,0.900,-1.500,-1.500
1.744,6.000,-0.300,-1.500,-2.100
1.745,6.000,-1.600,-1.500,-2.800
1.746,5.900,-3.100,-1.500,-3.500
1.747,5.700,-4.900,-1.400,-4.000
1.748,5.500,-6.800,-1.300,-4.300
1.749,5.300,-8.600,-1.200,-4.600
1.750,4.900,-10.000,-1.200,-4.800
1.751,4.600,-11.100,-1.100,-4.800
1.752,4.200,-11.800,-1.100,-4.600
1.753,3.900,-12.400,-1.100,-4.000
1.754,3.600,-12.800,-1.100,-3.300
1.755,3.300,-13.000,-1.100,-2.400
1.756,2.900,-12.900,-1.000,-1.500
1.757,2.600,-12.300,-0.900,-0.700
1.758,2.200,-11.400,-0.900,0.200
1.759,2.000,-10.100,-0.900,0.900
1.760,1.900,-8.800,-0.900,1.400
1.761,1.900,-7.500,-0.900,1.700
1.762,2.100,-6.200,-0.900,1.900
1.763,2.200,-4.900,-0.900,1.900
1.764,2.400,-3.600,-0.900,1.900
1.765,2.600,-2.100,-0.900,1.800
1.766,2.700,-0.500,-0.900,1.600
1.767,2.800,1.100,-0.900,1.500
1.768,2.900,2.500,-0.800,1.300
1.769,2.800,3.700,-0.700,1.200
1.770,2.700,4.800,-0.700,1.000
1.771,2.700,5.700,-0.700,0.800
1.772,2.600,6.500,-0.800,0.700
1.773,2.500,7.000,-0.800,0.600
1.774,2.400,7.300,-0.900,0.500
1.775,2.400,7.100,-0.900,0.300
1.776,2.200,6.500,-0.800,0.200
1.777,2.100,5.300,-0.800,0.000
1.778,2.000,3.900,-0.900,-0.300
1.779,1.900,2.300,-1.000,-0.500
1.780,1.800,0.700,-1.100,-0.700
1.781,1.800,-0.900,-1.200,-1.100
1.782,1.700,-2.500,-1.200,-1.500
1.783,1.500,-4.200,-1.100,-2.000
1.784,1.400,-5.800,-1.000,-2.600
1.785,1.300,-7.500,-0.900,-3.000
1.786,1.300,-8.900,-0.900,-3.400
1.787,1.400,-10.000,-0.800,-3.700
1.788,1.400,-10.800,-0.700,-4.000
1.789,1.500,-11.300,-0.600,-4.200
1.790,1.500,-11.600,-0.600,-4.400
1.791,1.400,-11.600,-0.600,-4.600
1.792,1.300,-11.400,-0.600,-4.600
1.793,1.300,-11.100,-0.700,-4.600
1.794,1.400,-10.600,-0.900,-4.700
1.795,1.400,-10.100,-1.000,-4.800
1.796,1.500,-9.700,-1.200,-5.100
1.797,1.500,-9.400,-1.400,-5.200
1.798,1.500,-9.100,-1.500,-5.100
1.799,1.500,-8.800,-1.500,-4.600
1.800,1.500,-8.400,-1.600,-3.900
1.801,1.600,-8.000,-1.700,-3.100
1.802,1.600,-7.300,-1.800,-2.400
1.803,1.700,-6.500,-1.900,-1.700
1.804,1.700,-5.500,-2.000,-0.900
1.805,1.800,-4.200,-2.000,-0.200
1.806,1.900,-2.700,-2.000,0.500
1.807,2.100,-1.200,-2.100,0.800
1.808,2.400,0.200,-2.100,0.800
1.809,2.500,1.000,-2.200,0.600
1.810,2.500,1.100,-2.300,0.300
1.811,2.500,0.800,-2.400,0.100
1.812,2.600,0.400,-2.400,-0.100
1.813,2.700,0.100,-2.500,-0.400
1.814,2.900,-0.200,-2.500,-0.700
1.815,3.000,-0.600,-2.600,-1.100
1.816,3.100,-1.500,-2.700,-1.400
1.817,3.000,-2.700,-2.800,-1.600
1.818,3.000,-4.100,-2.800,-1.800
1.819,2.900,-5.400,-2.800,-2.000
1.820,2.900,-6.300,-2.700,-2.100
1.821,2.900,-6.900,-2.700,-2.200
1.822,2.900,-7.200,-2.600,-2.300
1.823,2.800,-7.600,-2.600,-2.400
1.824,2.800,-7.900,-2.500,-2.600
1.825,2.800,-8.300,-2.500,-2.800
1.826,2.800,-8.600,-2.500,-3.000
1.827,2.900,-8.800,-2.500,-3.400
1.828,2.800,-9.200,-2.500,-3.900
1.829,2.800,-9.700,-2.500,-4.400
1.830,2.900,-10.300,-2.600,-4.900
1.831,2.900,-10.900,-2.700,-5.200
1.832,2.900,-11.300,-2.800,-5.300
1.833,3.000,-11.500,-2.900,-5.300
1.834,2.900,-11.600,-3.000,-5.300
1.835,2.900,-11.700,-3.100,-5.300
1.836,2.800,-11.600,-3.200,-5.500
1.837,2.800,-11.400,-3.200,-5.700
1.838,2.900,-10.900,-3.300,-5.700
1.839,2.900,-10.300,-3.300,-5.700
1.840,2.900,-10.000,-3.400,-5.800
1.841,2.900,-9.900,-3.400,-6.000
1.842,2.900,-10.100,-3.500,-6.300
1.843,2.900,-10.300,-3.500,-6.500
1.844,3.000,-10.500,-3.600,-6.500
1.845,3.000,-11.000,-3.600,-6.300
1.846,2.900,-11.700,-3.600,-6.000
1.847,2.700,-12.500,-3.800,-5.600
1.848,2.600,-13.000,-3.900,-5.200
1.849,2.600,-12.900,-4.000,-4.700
1.850,2.600,-12.200,-4.100,-4.000
1.851,2.600,-11.000,-4.100,-3.200
1.852,2.600,-9.800,-4.100,-2.500
1.853,2.500,-8.600,-4.000,-1.900
1.854,2.500,-7.300,-3.900,-1.600
1.855,2.400,-5.900,-3.900,-1.600
1.856,2.400,-4.200,-3.800,-1.800
1.857,2.500,-2.500,-3.700,-2.100
1.858,2.500,-0.900,-3.600,-2.500
1.859,2.600,0.300,-3.600,-3.000
1.860,2.600,1.100,-3.700,-3.700
1.861,2.600,1.600,-3.700,-4.400
1.862,2.600,1.800,-3.800,-5.100
1.863,2.500,1.800,-3.900,-5.600
1.864,2.400,1.600,-4.000,-5.900
1.865,2.400,1.100,-4.000,-6.100
1.866,2.300,0.400,-4.100,-6.200
1.867,2.400,-0.400,-4.200,-6.100
1.868,2.400,-1.400,-4.200,-5.900
1.869,2.400,-2.500,-4.300,-5.400
1.870,2.500,-3.600,-4.300,-4.900
1.871,2.500,-4.600,-4.400,-4.400
1.872,2.500,-5.500,-4.400,-4.000
1.873,2.500,-6.300,-4.500,-3.800
1.874,2.500,-6.900,-4.500,-3.700
1.875,2.600,-7.400,-4.500,-3.600
1.876,2.700,-7.800,-4.500,-3.500
1.877,2.700,-8.300,-4.500,-3.500
1.878,2.800,-8.800,-4.400,-3.700
1.879,2.900,-9.300,-4.300,-4.100
1.880,2.900,-9.900,-4.200,-4.600
1.881,2.900,-10.400,-4.200,-5.200
1.882,3.000,-10.800,-4.100,-5.700
1.883,3.100,-11.300,-4.100,-6.000
1.884,3.100,-12.000,-4.100,-6.400
1.885,3.100,-12.900,-4.000,-6.700
1.886,2.900,-13.900,-3.900,-7.000
1.887,2.700,-15.000,-3.800,-7.200
1.888,2.600,-15.900,-3.700,-7.300
1.889,2.400,-16.600,-3.600,-7.300
1.890,2.300,-17.200,-3.400,-7.200
1.891,2.200,-17.800,-3.300,-7.200
1.892,2.100,-18.200,-3.100,-7.200
1.893,1.900,-18.200,-3.000,-7.200
1.894,1.800,-17.700,-2.800,-7.200
1.895,1.700,-16.700,-2.700,-7.300
1.896,1.500,-15.300,-2.600,-7.300
1.897,1.400,-13.600,-2.400,-7.200
1.898,1.300,-11.700,-2.300,-7.000
1.899,1.200,-9.500,-2.100,-6.600
1.900,1.100,-7.600,-2.000,-5.900
1.901,0.900,-5.900,-1.800,-5.200
1.902,0.800,-4.500,-1.700,-4.600
1.903,0.500,-3.000,-1.500,-3.900
1.904,0.300,-1.500,-1.400,-3.300
1.905,0.000,-0.800,-1.200,-2.600
1.906,-0.200,-1.600,-1.100,-1.900
1.907,-0.500,-3.800,-0.900,-1.400
1.908,-0.800,-6.100,-0.800,-1.100
1.909,-1.000,-6.900,-0.600,-1.000
1.910,-1.300,-5.700,-0.500,-1.100
1.911,-1.600,-3.800,-0.400,-1.400
1.912,-1.900,-3.700,-0.400,-1.700
1.913,-2.300,-6.600,-0.400,-2.200
1.914,-2.700,-11.700,-0.400,-2.900
1.915,-3.100,-16.400,-0.300,-3.600
1.916,-3.500,-18.800,-0.200,-4.400
1.917,-3.900,-18.700,-0.100,-5.100
1.918,-4.100,-17.700,0.000,-5.500
1.919,-4.400,-17.200,0.000,-5.700
1.920,-4.600,-17.500,0.100,-6.000
1.921,-4.800,-17.700,0.200,-6.200
1.922,-5.000,-17.000,0.300,-6.400
1.923,-5.100,-15.400,0.500,-6.400
1.924,-5.300,-13.500,0.700,-6.300
1.925,-5.400,-11.900,1.000,-6.400
1.926,-5.600,-10.700,1.300,-6.600
1.927,-5.800,-9.400,1.500,-6.800
1.928,-6.000,-7.700,1.800,-6.600
1.929,-6.100,-5.700,2.000,-5.900
1.930,-6.200,-3.900,2.200,-5.100
1.931,-6.100,-2.400,2.400,-4.800
1.932,-6.100,-1.300,2.500,-5.100
1.933,-6.000,-0.400,2.600,-5.700
1.934,-5.900,0.300,2.500,-5.600
1.935,-5.800,0.800,2.400,-4.300
1.936,-5.700,1.200,2.300,-2.300
1.937,-5.600,1.200,2.100,-0.300
1.938,-5.500,0.800,1.900,0.900
1.939,-5.400,0.000,1.700,1.300
1.940,-5.300,-0.900,1.400,1.300
1.941,-5.300,-1.800,1.200,1.500
1.942,-5.100,-2.500,0.900,2.100
1.943,-5.000,-3.200,0.800,2.500
1.944,-4.800,-3.800,0.600,2.700
1.945,-4.600,-4.400,0.400,2.400
1.946,-4.400,-4.900,0.300,1.800
1.947,-4.300,-5.300,0.300,1.400
1.948,-4.100,-5.500,0.300,0.900
1.949,-4.000,-5.400,0.300,0.300
1.950,-3.800,-5.100,0.400,-0.400
1.951,-3.600,-4.800,0.400,-1.300
1.952,-3.400,-4.300,0.400,-2.200
1.953,-3.200,-3.900,0.400,-3.000
1.954,-3.100,-3.400,0.400,-3.800
1.955,-2.900,-2.900,0.400,-4.500
1.956,-2.800,-2.200,0.400,-5.200
1.957,-2.700,-1.400,0.400,-5.800
1.958,-2.600,-0.600,0.400,-6.300
1.959,-2.500,0.200,0.500,-6.700
1.960,-2.400,0.700,0.500,-6.900
1.961,-2.200,1.100,0.500,-7.100
1.962,-2.000,1.400,0.500,-7.000
1.963,-1.800,1.500,0.600,-6.800
1.964,-1.600,1.500,0.600,-6.400
1.965,-1.400,1.400,0.600,-5.900
1.966,-1.300,1.300,0.600,-5.300
1.967,-1.200,1.200,0.600,-4.700
1.968,-1.100,1.100,0.500,-3.900
1.969,-0.900,1.100,0.400,-3.100
1.970,-0.800,1.200,0.300,-2.300
1.971,-0.800,1.200,0.200,-1.600
1.972,-0.800,1.200,0.000,-1.000
1.973,-0.800,1.300,-0.100,-0.500
1.974,-0.800,1.300,-0.200,0.000
1.975,-0.900,1.300,-0.100,0.500
1.976,-0.900,1.500,-0.100,1.000
1.977,-1.000,1.600,-0.100,1.400
1.978,-1.200,1.700,-0.200,1.800
1.979,-1.200,1.800,-0.300,2.000
1.980,-1.300,1.800,-0.500,2.100
1.981,-1.500,1.700,-0.400,2.100
1.982,-1.600,1.500,-0.300,2.100
1.983,-1.700,1.300,0.000,2.100
1.984,-1.900,1.100,0.300,2.100
1.985,-2.000,1.000,0.500,2.100
1.986,-2.000,1.000,0.700,1.900
1.987,-1.900,1.200,1.000,1.700
1.988,-1.800,1.300,1.200,1.300
1.989,-1.700,1.300,1.400,1.000
1.990,-1.500,1.300,1.500,0.800
1.991,-1.400,1.100,1.500,0.700
1.992,-1.300,1.000,1.500,0.600
1.993,-1.100,1.000,1.500,0.600
1.994,-0.900,1.200,1.500,0.400
1.995,-0.800,1.300,1.600,0.300
1.996,-0.700,1.500,1.600,0.200
1.997,-0.600,1.700,1.500,0.000
1.998,-0.600,1.800,1.300,-0.300
1.999,-0.600,1.900,1.100,-0.800
2.000,-0.700,2.000,0.900,-1.300
2.001,-0.700,2.100,0.700,-1.800
2.002,-0.800,2.100,0.500,-2.200
2.003,-0.900,2.200,0.300,-2.600
2.004,-1.000,2.300,0.100,-3.000
2.005,-1.200,2.400,0.000,-3.300
2.006,-1.300,2.100,-0.100,-3.500
2.007,-1.500,1.600,-0.100,-3.300
2.008,-1.600,1.100,-0.100,-2.900
2.009,-1.700,0.700,-0.100,-2.300
2.010,-1.700,0.800,-0.100,-1.600
2.011,-1.600,1.100,-0.100,-1.000
2.012,-1.600,1.200,0.000,-0.400
2.013,-1.600,0.900,0.000,0.300
2.014,-1.700,0.200,0.000,0.900
2.015,-1.700,-0.600,0.000,1.200
2.016,-1.600,-1.000,0.000,1.100
2.017,-1.400,-1.100,0.000,0.600
2.018,-1.100,-0.900,-0.100,0.000
2.019,-0.900,-0.800,-0.100,-0.600
2.020,-0.700,-0.900,-0.200,-1.200
2.021,-0.600,-1.000,-0.300,-1.600
2.022,-0.600,-1.200,-0.300,-1.900
2.023,-0.600,-1.300,-0.400,-2.100
2.024,-0.600,-1.500,-0.400,-1.900
2.025,-0.700,-1.800,-0.300,-1.500
2.026,-0.900,-2.100,-0.100,-0.800
2.027,-1.200,-2.400,0.000,0.100
2.028,-1.500,-2.400,0.300,1.200
2.029,-1.800,-2.300,0.500,2.400
2.030,-1.900,-1.900,0.600,3.400
2.031,-1.800,-1.400,0.800,4.100
2.032,-1.400,-0.900,0.800,4.300
2.033,-0.800,-0.300,0.800,4.000
2.034,0.000,0.400,0.600,3.400
2.035,0.900,1.000,0.400,2.700
2.036,2.100,1.600,0.100,1.800
2.037,3.300,2.200,-0.200,0.500
2.038,4.500,2.800,-0.400,-1.100
2.039,5.600,3.300,-0.500,-3.200
2.040,6.500,3.800,-0.300,-5.400
2.041,7.100,4.200,-0.100,-7.500
2.042,7.600,4.600,0.100,-9.100
2.043,8.000,5.000,0.200,-10.000
2.044,8.400,5.300,0.000,-10.200
2.045,8.400,5.400,-0.200,-9.700
2.046,8.000,5.300,-0.300,-8.800
2.047,7.000,5.100,-0.200,-7.700
2.048,5.600,4.700,0.000,-6.400
2.049,4.000,4.400,0.400,-5.000
2.050,2.500,4.000,0.800,-3.500
2.051,1.100,3.600,1.200,-1.900
2.052,0.000,3.200,1.400,-0.300
2.053,-0.800,2.800,1.500,1.100
2.054,-1.300,2.200,1.500,2.100
2.055,-1.500,1.600,1.400,2.800
2.056,-1.700,1.100,1.200,3.100
2.057,-1.800,0.800,1.200,3.200
2.058,-1.900,0.600,1.200,3.100
2.059,-2.000,0.500,1.200,2.800
2.060,-2.100,0.400,1.300,2.300
2.061,-2.100,0.100,1.400,1.600
2.062,-2.000,-0.300,1.500,0.800
2.063,-2.000,-0.600,1.600,0.000
2.064,-1.900,-0.900,1.600,-0.600
2.065,-1.900,-1.100,1.600,-1.200
2.066,-2.000,-1.200,1.600,-1.600
2.067,-2.000,-1.300,1.600,-2.100
2.068,-2.100,-1.500,1.500,-2.400
2.069,-2.300,-1.600,1.500,-2.600
2.070,-2.500,-1.700,1.600,-2.600
2.071,-2.800,-1.800,1.600,-2.400
2.072,-3.100,-2.000,1.700,-2.000
2.073,-3.500,-2.100,1.700,-1.500
2.074,-3.900,-2.300,1.800,-0.900
2.075,-4.400,-2.600,1.800,-0.400
2.076,-4.800,-2.900,1.900,0.000
2.077,-5.200,-3.200,2.000,0.500
2.078,-5.500,-3.500,2.100,1.100
2.079,-5.700,-3.800,2.200,1.700
2.080,-5.900,-4.200,2.400,2.300
2.081,-6.100,-4.500,2.500,2.800
2.082,-6.200,-4.800,2.700,3.100
2.083,-6.200,-5.100,2.800,3.400
2.084,-6.200,-5.300,2.900,3.600
2.085,-6.200,-5.500,3.000,3.700
2.086,-6.300,-5.800,3.200,3.700
2.087,-6.500,-6.000,3.300,3.600
2.088,-6.700,-6.300,3.400,3.200
2.089,-6.900,-6.400,3.500,2.700
2.090,-7.200,-6.400,3.600,2.200
2.091,-7.400,-6.400,3.700,1.600
2.092,-7.700,-6.400,3.800,1.000
2.093,-7.900,-6.400,3.900,0.400
2.094,-8.200,-6.300,3.900,-0.300
2.095,-8.600,-6.300,4.000,-0.800
2.096,-9.000,-6.300,4.100,-1.300
2.097,-9.400,-6.200,4.200,-1.600
2.098,-10.000,-6.200,4.300,-1.900
2.099,-10.600,-6.100,4.400,-2.200
2.100,-11.100,-6.000,4.500,-2.500
2.101,-11.700,-6.000,4.600,-2.800
2.102,-12.200,-6.000,4.700,-3.100
2.103,-12.800,-6.000,4.800,-3.400
2.104,-13.500,-6.100,4.900,-3.600
2.105,-14.100,-6.400,4.900,-3.900
2.106,-14.600,-6.900,4.900,-4.400
2.107,-15.000,-7.600,4.900,-5.000
2.108,-15.300,-8.200,4.900,-5.700
2.109,-15.700,-8.600,4.900,-6.300
2.110,-16.100,-8.600,4.900,-6.800
2.111,-16.500,-8.400,4.900,-7.200
2.112,-16.700,-8.300,5.000,-7.500
2.113,-16.500,-8.500,5.000,-7.700
2.114,-16.200,-8.900,5.100,-7.800
2.115,-15.900,-9.300,5.100,-7.500
2.116,-15.700,-9.300,5.200,-6.900
2.117,-15.500,-9.000,5.300,-6.100
2.118,-15.400,-8.600,5.500,-5.200
2.119,-15.200,-8.200,5.700,-4.200
2.120,-14.900,-8.000,5.800,-3.100
2.121,-14.700,-8.000,6.000,-2.000
2.122,-14.700,-8.000,6.000,-1.000
2.123,-14.800,-7.900,6.000,-0.300
2.124,-15.000,-7.900,5.900,0.100
2.125,-15.100,-7.900,5.700,0.400
2.126,-15.200,-8.100,5.600,0.700
2.127,-15.400,-8.400,5.500,0.700
2.128,-15.600,-8.700,5.400,0.100
2.129,-15.800,-9.100,5.300,-0.900
2.130,-16.000,-9.600,5.100,-2.100
2.131,-16.200,-10.000,5.000,-2.700
2.132,-16.300,-10.400,4.800,-2.300
2.133,-16.300,-10.800,4.700,-1.700
2.134,-16.300,-11.200,4.500,-1.900
2.135,-16.100,-11.600,4.300,-3.300
2.136,-15.900,-11.900,4.200,-5.600
2.137,-15.600,-12.200,3.900,-7.800
2.138,-15.300,-12.500,3.700,-9.100
2.139,-14.700,-12.700,3.400,-9.400
2.140,-14.000,-12.900,3.100,-9.300
2.141,-13.100,-13.100,2.900,-9.400
2.142,-12.000,-13.300,2.700,-9.600
2.143,-11.000,-13.300,2.500,-9.500
2.144,-10.000,-13.300,2.400,-8.800
2.145,-9.200,-13.200,2.400,-7.600
2.146,-8.400,-13.000,2.300,-6.300
2.147,-7.600,-12.700,2.300,-5.300
2.148,-6.900,-12.200,2.200,-4.500
2.149,-6.500,-11.400,2.200,-3.600
2.150,-6.300,-10.500,2.200,-2.700
2.151,-6.200,-9.400,2.100,-1.800
2.152,-6.100,-8.300,2.000,-1.200
2.153,-6.000,-7.300,1.900,-1.100
2.154,-6.000,-6.300,1.800,-1.200
2.155,-6.000,-5.300,1.600,-1.500
2.156,-6.100,-4.400,1.400,-1.800
2.157,-6.200,-3.600,1.200,-2.100
2.158,-6.100,-3.000,0.900,-2.600
2.159,-5.900,-2.600,0.700,-3.100
2.160,-5.500,-2.100,0.400,-3.600
2.161,-5.000,-1.700,0.300,-4.100
2.162,-4.400,-1.300,0.100,-4.400
2.163,-3.800,-0.900,0.000,-4.500
2.164,-3.200,-0.700,0.000,-4.500
2.165,-2.400,-0.500,0.000,-4.300
2.166,-1.600,-0.400,0.000,-4.100
2.167,-0.800,-0.300,-0.100,-3.700
2.168,-0.100,-0.200,-0.200,-3.100
2.169,0.400,0.000,-0.200,-2.400
2.170,0.800,0.000,-0.300,-1.500
2.171,1.100,0.000,-0.300,-0.800
2.172,1.500,0.100,-0.500,-0.200
2.173,1.800,0.000,-0.600,0.300
2.174,2.100,-0.100,-0.700,0.600
2.175,2.300,-0.300,-0.700,0.900
2.176,2.400,-0.600,-0.700,1.200
2.177,2.600,-0.900,-0.800,1.200
2.178,2.800,-1.400,-1.100,1.200
2.179,3.000,-1.800,-1.400,0.900
2.180,3.000,-2.300,-1.800,0.400
2.181,3.000,-2.700,-1.900,0.000
2.182,3.000,-3.200,-2.000,-0.400
2.183,3.000,-3.600,-2.000,-0.600
2.184,2.800,-4.000,-1.900,-0.800
2.185,2.600,-4.200,-1.900,-1.000
2.186,2.400,-4.100,-1.800,-1.100
2.187,2.100,-3.800,-1.700,-1.200
2.188,1.800,-3.300,-1.600,-1.100
2.189,1.600,-2.700,-1.500,-0.800
2.190,1.400,-1.900,-1.500,-0.300
2.191,1.200,-1.200,-1.500,0.300
2.192,0.900,-0.300,-1.500,0.900
2.193,0.800,0.700,-1.500,1.600
2.194,0.800,1.700,-1.400,2.200
2.195,0.900,2.500,-1.400,2.700
2.196,1.100,3.200,-1.400,3.000
2.197,1.200,3.600,-1.400,3.200
2.198,1.300,3.700,-1.400,3.400
2.199,1.400,3.800,-1.400,3.500
2.200,1.500,3.800,-1.500,3.600
2.201,1.600,3.600,-1.500,3.700
2.202,1.800,3.400,-1.600,3.600
2.203,1.800,3.100,-1.700,3.400
2.204,1.700,2.800,-1.700,3.100
2.205,1.400,2.400,-1.800,2.800
2.206,1.000,2.100,-1.800,2.500
2.207,0.600,1.700,-1.800,2.300
2.208,0.300,1.500,-1.800,2.100
2.209,0.100,1.300,-1.900,2.100
2.210,0.000,1.400,-1.900,2.100
2.211,0.000,1.500,-1.800,2.000
2.212,0.100,1.600,-1.700,1.900
2.213,0.300,1.500,-1.600,1.800
2.214,0.500,1.200,-1.500,1.800
2.215,0.800,1.000,-1.500,1.800
2.216,1.200,0.800,-1.600,1.800
2.217,1.500,0.600,-1.600,1.900
2.218,1.700,0.500,-1.600,1.900
2.219,2.000,0.300,-1.600,2.000
2.220,2.200,0.000,-1.500,2.000
2.221,2.400,-0.100,-1.500,2.100
2.222,2.400,-0.100,-1.500,2.200
2.223,2.400,0.100,-1.400,2.500
2.224,2.200,0.400,-1.300,2.900
2.225,2.000,0.800,-1.000,3.300
2.226,1.800,1.200,-0.600,3.700
2.227,1.600,1.700,-0.100,4.200
2.228,1.300,2.200,0.500,4.500
2.229,1.100,2.700,1.200,4.900
2.230,0.800,3.100,2.000,5.400
2.231,0.600,3.400,2.900,5.800
2.232,0.600,3.600,3.700,6.300
2.233,0.800,3.700,4.600,6.800
2.234,1.100,3.900,5.400,7.300
2.235,1.500,4.000,6.100,7.700
2.236,1.900,4.000,6.700,8.000
2.237,2.400,4.000,7.200,8.300
2.238,3.000,3.900,7.700,8.600
2.239,3.500,3.800,8.100,8.900
2.240,3.900,3.800,8.300,9.300
2.241,4.100,3.700,8.400,9.700
2.242,4.200,3.700,8.400,10.000
2.243,4.000,3.700,8.200,10.300
2.244,3.900,3.600,8.100,10.600
2.245,3.700,3.400,7.800,10.800
2.246,3.300,3.200,7.600,10.900
2.247,2.900,3.100,7.200,10.900
2.248,2.300,2.900,6.700,10.700
2.249,1.700,2.800,6.100,10.300
2.250,1.200,2.800,5.500,9.800
2.251,0.600,2.700,4.900,9.300
2.252,0.200,2.600,4.200,8.700
2.253,-0.100,2.400,3.500,8.000
2.254,-0.300,2.200,2.700,7.200
2.255,-0.400,1.900,1.900,6.300
2.256,-0.200,1.500,1.000,5.300
2.257,0.300,1.100,0.100,4.200
2.258,1.000,0.500,-0.800,3.100
2.259,2.000,-0.200,-1.800,1.900
2.260,3.100,-1.200,-2.900,0.600
2.261,4.400,-2.400,-4.100,-0.800
2.262,5.700,-4.100,-5.500,-2.400
2.263,7.200,-6.200,-7.200,-4.200
2.264,8.700,-8.800,-9.000,-6.200
2.265,10.300,-12.100,-11.000,-8.300
2.266,11.900,-16.000,-13.100,-10.700
2.267,13.400,-20.500,-15.400,-13.300
2.268,14.600,-25.500,-17.800,-16.200
2.269,15.600,-31.100,-20.400,-19.300
2.270,16.500,-37.200,-23.000,-22.700
2.271,17.000,-43.900,-25.600,-26.300
2.272,17.300,-51.000,-28.100,-30.200
2.273,17.000,-58.300,-30.400,-34.200
2.274,15.900,-65.800,-32.400,-38.200
2.275,13.900,-73.300,-33.900,-42.200
2.276,10.800,-80.900,-34.900,-46.000
2.277,6.700,-88.200,-35.100,-49.600
2.278,2.000,-95.000,-34.700,-52.900
2.279,-2.900,-100.700,-33.900,-55.500
2.280,-7.100,-104.800,-33.100,-57.400
2.281,-10.000,-107.200,-32.500,-58.500
2.282,-11.600,-107.600,-32.100,-58.600
2.283,-12.100,-106.200,-31.800,-57.900
2.284,-12.400,-103.100,-31.100,-56.200
2.285,-13.000,-98.400,-29.800,-53.600
2.286,-14.400,-92.200,-27.600,-50.200
2.287,-16.500,-84.700,-24.800,-46.200
2.288,-18.900,-76.000,-21.200,-41.600
2.289,-21.500,-66.600,-17.200,-36.500
2.290,-24.300,-56.700,-12.900,-31.100
2.291,-27.000,-46.600,-8.400,-25.500
2.292,-29.500,-36.600,-3.800,-19.900
2.293,-31.800,-26.800,0.800,-14.400
2.294,-33.800,-17.600,5.300,-9.300
2.295,-35.700,-9.100,9.600,-4.500
2.296,-37.600,-1.700,13.500,-0.300
2.297,-39.400,4.400,17.100,3.300
2.298,-40.700,9.300,20.200,6.300
2.299,-41.100,13.100,22.500,8.700
2.300,-40.600,15.900,24.000,10.500
2.301,-39.000,18.000,24.500,11.900
2.302,-36.100,19.400,24.100,12.900
2.303,-31.800,20.200,22.600,13.500
2.304,-26.100,20.400,20.200,13.700
2.305,-19.400,20.400,17.100,13.600
2.306,-12.500,20.700,13.600,13.300
2.307,-5.900,21.200,9.900,13.000
2.308,0.400,21.600,6.200,12.600
2.309,6.600,21.400,2.900,12.200
2.310,12.700,20.200,0.000,11.700
2.311,18.100,18.600,-2.500,11.200
2.312,21.700,17.500,-4.400,10.700
2.313,22.900,17.200,-5.900,10.200
2.314,22.300,17.700,-6.900,9.700
2.315,21.000,18.000,-7.500,9.100
2.316,20.100,17.500,-7.800,8.400
2.317,19.600,16.100,-8.000,7.700
2.318,19.200,14.300,-8.000,7.000
2.319,18.300,12.700,-7.900,6.300
2.320,17.100,11.400,-7.700,5.800
2.321,16.100,10.200,-7.500,5.300
2.322,15.600,8.900,-7.200,4.700
2.323,15.600,7.500,-6.900,4.200
2.324,15.700,6.200,-6.600,3.700
2.325,15.600,5.100,-6.200,3.200
2.326,15.300,4.300,-5.700,2.700
2.327,15.100,3.600,-5.300,2.300
2.328,15.000,2.800,-4.800,2.000
2.329,14.800,2.000,-4.300,1.800
2.330,14.400,1.200,-3.900,1.600
2.331,13.500,0.500,-3.400,1.600
2.332,12.300,0.000,-3.000,1.500
2.333,11.000,-0.300,-2.500,1.500
2.334,9.600,-0.500,-2.100,1.500
2.335,8.200,-0.700,-1.700,1.400
2.336,6.900,-0.900,-1.300,1.400
2.337,5.400,-1.100,-1.000,1.400
2.338,4.100,-1.400,-0.800,1.400
2.339,2.900,-1.800,-0.700,1.600
2.340,2.000,-2.200,-0.600,1.900
2.341,1.400,-2.600,-0.600,2.100
2.342,1.100,-3.000,-0.600,2.400
2.343,1.100,-3.200,-0.700,2.500
2.344,1.100,-3.400,-0.700,2.500
2.345,1.200,-3.400,-0.800,2.500
2.346,1.300,-3.300,-0.800,2.400
2.347,1.500,-2.900,-0.900,2.300
2.348,1.900,-2.300,-1.000,2.200
2.349,2.300,-1.500,-1.100,2.100
2.350,2.700,-0.700,-1.100,2.000
2.351,3.100,0.000,-1.000,1.800
2.352,3.300,0.400,-0.900,1.600
2.353,3.600,0.700,-0.900,1.400
2.354,3.800,0.800,-0.900,1.200
2.355,3.900,0.900,-0.900,1.000
2.356,3.900,0.800,-0.900,0.800
2.357,3.600,0.600,-0.900,0.600
2.358,3.200,0.200,-0.800,0.500
2.359,2.700,-0.300,-0.700,0.400
2.360,2.300,-0.800,-0.500,0.300
2.361,1.900,-1.400,-0.500,0.200
2.362,1.500,-1.900,-0.500,0.100
2.363,1.100,-2.400,-0.500,0.100
2.364,0.700,-2.800,-0.600,0.000
2.365,0.400,-3.200,-0.700,-0.100
2.366,0.200,-3.400,-0.800,-0.200
2.367,-0.100,-3.600,-0.900,-0.400
2.368,-0.300,-3.700,-1.000,-0.400
2.369,-0.700,-3.800,-1.100,-0.400
2.370,-1.100,-3.900,-1.200,-0.400
2.371,-1.400,-4.000,-1.300,-0.400
2.372,-1.600,-4.000,-1.300,-0.400
2.373,-1.800,-3.900,-1.200,-0.400
2.374,-1.800,-3.800,-1.300,-0.400
2.375,-1.800,-3.700,-1.400,-0.400
2.376,-1.500,-3.600,-1.500,-0.300
2.377,-0.900,-3.500,-1.500,-0.300
2.378,-0.100,-3.500,-1.300,-0.200
2.379,0.800,-3.600,-0.900,-0.200
2.380,1.700,-3.800,-0.600,-0.200
2.381,2.600,-3.900,-0.400,-0.100
2.382,3.500,-4.000,-0.400,0.000
2.383,4.400,-4.200,-0.500,0.000
2.384,5.200,-4.300,-0.600,0.100
2.385,5.900,-4.500,-0.600,0.200
2.386,6.400,-4.800,-0.600,0.300
2.387,6.700,-5.100,-0.600,0.300
2.388,6.800,-5.300,-0.700,0.300
2.389,6.700,-5.500,-0.700,0.200
2.390,6.600,-5.500,-0.700,0.100
2.391,6.400,-5.400,-0.700,-0.100
2.392,6.000,-5.400,-0.700,-0.400
2.393,5.400,-5.200,-0.700,-0.600
2.394,4.700,-5.100,-0.700,-0.700
2.395,4.000,-5.000,-0.600,-0.800
2.396,3.200,-5.000,-0.600,-0.900
2.397,2.300,-4.900,-0.500,-0.800
2.398,1.500,-4.800,-0.400,-0.700
2.399,0.700,-4.700,-0.400,-0.600
2.400,-0.100,-4.600,-0.500,-0.500
2.401,-0.700,-4.600,-0.600,-0.500
2.402,-1.200,-4.600,-0.600,-0.600
2.403,-1.600,-4.500,-0.700,-0.600
2.404,-2.000,-4.500,-0.900,-0.500
2.405,-1.900,-4.400,-1.100,-0.300
2.406,-1.400,-4.400,-1.400,-0.100
2.407,-0.300,-4.600,-1.700,0.000
2.408,0.700,-4.800,-1.900,-0.100
2.409,1.200,-4.900,-2.100,-0.300
2.410,1.000,-4.900,-2.300,-0.500
2.411,0.400,-4.800,-2.500,-0.600
2.412,0.300,-5.000,-2.600,-0.600
2.413,0.900,-5.400,-2.700,-0.600
2.414,2.100,-6.200,-2.700,-0.600
2.415,3.000,-6.900,-2.600,-0.700
2.416,3.100,-7.300,-2.400,-0.900
2.417,2.300,-7.600,-2.200,-1.100
2.418,1.200,-7.700,-2.100,-1.200
2.419,0.200,-8.000,-1.900,-1.400
2.420,-0.500,-8.200,-1.700,-1.400
2.421,-1.100,-8.400,-1.500,-1.500
2.422,-1.700,-8.400,-1.300,-1.600
2.423,-2.100,-8.300,-1.100,-1.700
2.424,-2.300,-7.900,-1.000,-1.800
2.425,-2.000,-7.500,-1.000,-1.900
2.426,-1.300,-7.000,-1.100,-2.000
2.427,-0.600,-6.500,-1.200,-2.100
2.428,0.200,-6.000,-1.500,-2.100
2.429,1.000,-5.700,-1.700,-2.200
2.430,1.900,-5.700,-2.000,-2.200
2.431,2.800,-6.000,-2.100,-2.300
2.432,3.700,-6.300,-2.300,-2.400
2.433,4.400,-6.700,-2.400,-2.600
2.434,5.100,-7.200,-2.600,-2.800
2.435,5.600,-7.800,-2.700,-3.200
2.436,6.000,-8.400,-2.800,-3.500
2.437,6.400,-9.200,-2.900,-3.700
2.438,6.600,-9.800,-3.000,-3.800
2.439,6.600,-10.400,-3.100,-3.900
2.440,6.400,-10.900,-3.200,-3.900
2.441,5.800,-11.400,-3.200,-4.100
2.442,5.000,-12.000,-3.200,-4.200
2.443,4.100,-12.600,-3.200,-4.400
2.444,3.100,-13.200,-3.100,-4.400
2.445,2.000,-13.800,-3.000,-4.300
2.446,1.000,-14.200,-2.800,-4.200
2.447,0.000,-14.500,-2.700,-4.000
2.448,-0.900,-14.500,-2.600,-3.900
2.449,-1.600,-14.300,-2.600,-3.900
2.450,-2.000,-13.800,-2.700,-4.200
2.451,-2.000,-13.200,-3.000,-4.500
2.452,-1.600,-12.500,-3.400,-4.900
2.453,-1.000,-11.800,-3.800,-5.500
2.454,-0.100,-11.100,-4.300,-6.300
2.455,0.900,-10.300,-4.700,-7.200
2.456,2.100,-9.400,-5.000,-8.400
2.457,3.500,-8.400,-5.100,-9.500
2.458,5.000,-7.500,-5.100,-10.700
2.459,6.500,-6.700,-4.900,-11.600
2.460,7.800,-6.000,-4.700,-12.100
2.461,9.100,-5.400,-4.800,-12.100
2.462,10.100,-5.000,-5.000,-11.700
2.463,10.900,-4.700,-5.200,-11.000
2.464,11.100,-4.600,-5.300,-10.100
2.465,10.800,-4.700,-5.100,-9.200
2.466,9.700,-5.200,-4.800,-8.200
2.467,8.300,-5.900,-4.400,-7.300
2.468,6.800,-6.800,-4.000,-6.600
2.469,5.400,-7.600,-3.700,-6.000
2.470,4.300,-8.300,-3.600,-5.400
2.471,3.500,-9.000,-3.700,-4.900
2.472,2.800,-9.600,-3.800,-4.300
2.473,2.300,-10.200,-4.000,-3.900
2.474,1.900,-10.700,-4.200,-3.600
2.475,1.400,-11.100,-4.400,-3.400
2.476,0.900,-11.400,-4.500,-3.400
2.477,0.400,-11.600,-4.500,-3.600
2.478,0.000,-11.700,-4.500,-3.800
2.479,-0.300,-11.700,-4.500,-3.900
2.480,-0.600,-11.600,-4.500,-4.100
2.481,-0.700,-11.400,-4.400,-4.200
2.482,-0.900,-11.000,-4.400,-4.400
2.483,-0.900,-10.500,-4.300,-4.500
2.484,-0.600,-10.000,-4.300,-4.600
2.485,0.000,-9.700,-4.300,-4.800
2.486,0.700,-9.400,-4.300,-4.800
2.487,1.400,-9.300,-4.300,-4.900
2.488,1.900,-9.300,-4.300,-4.900
2.489,2.100,-9.300,-4.200,-5.000
2.490,2.300,-9.500,-4.200,-5.100
2.491,2.400,-9.700,-4.100,-5.200
2.492,2.500,-10.000,-4.000,-5.200
2.493,2.400,-10.500,-3.900,-5.200
2.494,2.000,-10.900,-3.900,-5.100
2.495,1.500,-11.400,-3.800,-5.100
2.496,1.100,-11.800,-3.700,-5.100
2.497,0.700,-12.300,-3.600,-5.200
2.498,0.500,-12.800,-3.400,-5.300
2.499,0.300,-13.400,-3.300,-5.400
2.500,0.100,-13.900,-3.200,-5.300
2.501,0.000,-14.200,-3.100,-5.200
2.502,0.100,-14.400,-3.000,-5.100
2.503,0.300,-14.600,-2.900,-5.100
2.504,0.800,-14.600,-2.700,-5.100
2.505,1.200,-14.500,-2.600,-5.200
2.506,1.300,-14.100,-2.400,-5.300
2.507,1.300,-13.500,-2.200,-5.300
2.508,1.200,-12.800,-2.100,-5.300
2.509,1.200,-12.500,-1.900,-5.300
2.510,1.200,-12.700,-1.800,-5.100
2.511,1.200,-13.200,-1.600,-5.100
2.512,0.700,-13.400,-1.400,-5.000
2.513,-0.300,-13.100,-1.200,-5.100
2.514,-1.600,-12.400,-1.100,-5.200
2.515,-2.800,-11.700,-0.900,-5.200
2.516,-3.800,-11.400,-0.600,-5.200
2.517,-4.400,-11.600,-0.400,-5.100
2.518,-4.800,-12.000,-0.200,-5.100
2.519,-5.200,-12.300,0.000,-5.000
2.520,-5.600,-12.400,0.200,-5.000
2.521,-5.800,-12.400,0.300,-5.000
2.522,-5.800,-12.400,0.400,-5.000
2.523,-5.700,-12.400,0.500,-5.000
2.524,-5.500,-12.300,0.600,-5.000
2.525,-5.500,-12.200,0.700,-5.100
2.526,-5.500,-12.100,0.800,-5.200
2.527,-5.500,-12.000,0.900,-5.200
2.528,-5.400,-11.900,1.100,-5.200
2.529,-5.300,-11.800,1.200,-5.100
2.530,-5.200,-11.600,1.200,-5.000
2.531,-5.100,-11.300,1.200,-4.800
2.532,-5.100,-11.100,1.200,-4.700
2.533,-5.000,-10.900,1.200,-4.600
2.534,-4.800,-10.700,1.100,-4.600
2.535,-4.500,-10.500,1.100,-4.500
2.536,-4.400,-10.100,1.000,-4.500
2.537,-4.400,-9.800,1.000,-4.500
2.538,-4.500,-9.400,0.900,-4.300
2.539,-4.700,-9.100,0.900,-4.200
2.540,-4.900,-8.700,0.900,-4.100
2.541,-4.900,-8.400,0.900,-4.000
2.542,-4.900,-7.900,0.900,-3.900
2.543,-4.800,-7.500,0.900,-3.800
2.544,-4.700,-7.200,0.900,-3.700
2.545,-4.600,-6.900,0.900,-3.600
2.546,-4.500,-6.600,0.900,-3.400
2.547,-4.200,-6.300,0.800,-3.300
2.548,-4.000,-6.100,0.700,-3.200
2.549,-3.800,-6.000,0.600,-3.100
2.550,-3.600,-6.000,0.600,-3.000
2.551,-3.600,-6.200,0.500,-2.900
2.552,-3.500,-6.400,0.500,-2.800
2.553,-3.400,-6.600,0.400,-2.700
2.554,-3.300,-6.700,0.400,-2.800
2.555,-3.300,-6.800,0.300,-2.800
2.556,-3.200,-7.000,0.300,-3.000
2.557,-3.000,-7.200,0.300,-3.100
2.558,-2.700,-7.500,0.300,-3.200
2.559,-2.200,-7.500,0.200,-3.200
2.560,-1.800,-7.400,0.200,-3.200
2.561,-1.300,-7.100,0.200,-3.200
2.562,-0.800,-6.700,0.200,-3.100
2.563,-0.300,-6.200,0.300,-3.100
2.564,0.100,-5.500,0.400,-3.100
2.565,0.500,-4.700,0.500,-3.000
2.566,0.600,-3.700,0.500,-3.000
2.567,0.500,-2.800,0.400,-2.900
2.568,0.400,-2.100,0.400,-2.900
2.569,0.200,-1.700,0.400,-3.000
2.570,0.200,-1.400,0.300,-3.000
2.571,0.100,-1.200,0.300,-3.100
2.572,0.000,-0.900,0.200,-3.000
2.573,-0.200,-0.700,0.100,-2.900
2.574,-0.600,-0.600,0.000,-2.700
2.575,-0.900,-0.600,0.000,-2.700
2.576,-1.000,-0.700,0.100,-2.700
2.577,-0.900,-0.900,0.100,-2.700
2.578,-0.700,-0.900,0.000,-2.800
2.579,-0.400,-1.000,0.000,-2.800
2.580,0.000,-1.000,-0.100,-2.800
2.581,0.500,-1.200,0.000,-2.800
2.582,1.100,-1.600,0.000,-2.700
2.583,1.800,-1.900,0.100,-2.600
2.584,2.500,-2.200,0.200,-2.500
2.585,3.000,-2.200,0.300,-2.400
2.586,3.200,-2.000,0.300,-2.300
2.587,3.300,-1.600,0.300,-2.300
2.588,3.300,-1.300,0.300,-2.300
2.589,3.300,-1.000,0.300,-2.400
2.590,3.200,-0.700,0.300,-2.400
2.591,3.100,-0.400,0.300,-2.300
2.592,3.000,-0.200,0.200,-2.300
2.593,2.900,0.000,0.200,-2.200
2.594,3.000,0.000,0.000,-2.200
2.595,3.100,0.000,-0.200,-2.100
2.596,3.200,-0.100,-0.300,-2.000
2.597,3.300,-0.300,-0.500,-1.900
2.598,3.300,-0.400,-0.500,-1.800
2.599,3.200,-0.600,-0.600,-1.700
2.600,3.100,-0.700,-0.600,-1.700
2.601,2.700,-0.900,-0.600,-1.600
2.602,2.100,-1.000,-0.600,-1.500
2.603,1.400,-1.200,-0.500,-1.200
2.604,0.700,-1.300,-0.400,-1.000
2.605,0.000,-1.400,-0.300,-0.800
2.606,-0.700,-1.500,-0.300,-0.600
2.607,-1.500,-1.600,-0.300,-0.500
2.608,-2.200,-1.600,-0.300,-0.500
2.609,-2.600,-1.600,-0.200,-0.500
2.610,-2.700,-1.700,-0.200,-0.500
2.611,-2.500,-1.700,-0.200,-0.500
2.612,-2.500,-1.600,-0.100,-0.400
2.613,-2.700,-1.500,-0.100,-0.400
2.614,-3.200,-1.400,0.000,-0.300
2.615,-3.500,-1.200,-0.100,-0.200
2.616,-3.400,-1.100,-0.100,-0.100
2.617,-2.700,-0.900,-0.200,-0.100
2.618,-1.900,-0.700,-0.200,-0.100
2.619,-1.000,-0.300,-0.200,-0.100
2.620,-0.200,0.000,-0.100,-0.100
2.621,0.500,0.200,0.000,-0.200
2.622,1.100,0.200,0.000,-0.200
2.623,1.600,0.200,0.000,-0.200
2.624,1.800,0.000,0.000,-0.300
2.625,1.600,0.000,0.000,-0.300
2.626,1.300,-0.100,0.100,-0.300
2.627,0.900,-0.200,0.200,-0.300
2.628,0.300,-0.500,0.300,-0.300
2.629,-0.300,-0.800,0.400,-0.200
2.630,-1.000,-1.200,0.500,-0.200
2.631,-1.500,-1.500,0.400,-0.100
2.632,-1.700,-1.500,0.400,0.000
2.633,-1.500,-1.300,0.300,0.100
2.634,-1.100,-1.000,0.300,0.000
2.635,-0.600,-0.700,0.200,-0.100
2.636,-0.200,-0.300,0.200,-0.300
2.637,0.300,0.000,0.100,-0.300
2.638,0.900,0.300,0.000,-0.300
2.639,1.600,0.600,0.000,-0.300
2.640,2.100,0.900,-0.100,-0.300
2.641,2.300,0.900,-0.200,-0.300
2.642,2.300,0.900,-0.200,-0.400
2.643,2.300,0.900,-0.100,-0.400
2.644,2.200,0.900,0.000,-0.300
2.645,2.100,0.800,0.100,0.000
2.646,2.000,0.700,0.200,0.200
2.647,1.900,0.500,0.200,0.300
2.648,1.800,0.100,0.200,0.300
2.649,1.700,-0.300,0.200,0.200
2.650,1.600,-0.800,0.300,0.200
2.651,1.500,-1.200,0.400,0.200
2.652,1.200,-1.600,0.500,0.200
2.653,0.900,-2.000,0.600,0.300
2.654,0.500,-2.400,0.700,0.300
2.655,0.000,-2.700,0.800,0.200
2.656,-0.600,-2.900,0.900,0.100
2.657,-1.200,-3.100,1.000,0.000
2.658,-1.800,-3.300,1.200,-0.100
2.659,-2.300,-3.400,1.200,-0.200
2.660,-2.600,-3.600,1.300,-0.200
2.661,-2.700,-3.700,1.300,-0.200
2.662,-2.600,-3.800,1.400,-0.200
2.663,-2.500,-3.800,1.500,-0.100
2.664,-2.300,-3.900,1.600,-0.100
2.665,-2.100,-4.000,1.700,-0.100
2.666,-2.100,-4.100,1.800,-0.100
2.667,-2.000,-4.300,1.800,-0.100
2.668,-2.200,-4.300,1.800,-0.200
2.669,-2.500,-4.300,1.900,-0.200
2.670,-2.800,-4.200,1.900,-0.300
2.671,-3.200,-4.200,1.900,-0.300
2.672,-3.500,-4.100,1.800,-0.200
2.673,-3.700,-4.100,1.800,-0.100
2.674,-3.800,-4.000,1.900,-0.100
2.675,-3.800,-4.100,2.000,-0.100
2.676,-3.600,-4.400,2.100,-0.200
2.677,-3.300,-5.000,2.100,-0.400
2.678,-2.900,-5.700,2.100,-0.600
2.679,-2.600,-6.300,2.100,-0.700
2.680,-2.400,-6.800,2.200,-0.800
2.681,-2.400,-7.200,2.200,-0.800
2.682,-2.400,-7.600,2.300,-0.900
2.683,-2.400,-8.000,2.400,-1.100
2.684,-2.700,-8.200,2.400,-1.200
2.685,-3.300,-8.100,2.500,-1.300
2.686,-4.100,-7.600,2.600,-1.300
2.687,-5.000,-7.000,2.800,-1.300
2.688,-5.800,-6.400,2.900,-1.400
2.689,-6.600,-5.900,3.100,-1.500
2.690,-7.300,-5.400,3.200,-1.600
2.691,-8.100,-5.000,3.200,-1.800
2.692,-8.800,-4.500,3.300,-2.000
2.693,-9.300,-4.100,3.300,-2.200
2.694,-9.700,-3.900,3.300,-2.400
2.695,-9.900,-3.900,3.300,-2.600
2.696,-10.100,-4.000,3.400,-2.800
2.697,-10.200,-4.200,3.600,-2.800
2.698,-10.200,-4.400,3.700,-2.800
2.699,-10.200,-4.700,4.000,-2.800
2.700,-10.200,-5.100,4.200,-2.800
2.701,-10.300,-5.600,4.500,-2.800
2.702,-10.700,-6.200,4.800,-2.900
2.703,-11.000,-6.800,5.100,-3.000
2.704,-11.200,-7.400,5.400,-3.100
2.705,-11.600,-8.100,5.700,-3.100
2.706,-12.600,-9.000,5.900,-3.100
2.707,-14.400,-10.100,6.000,-3.200
2.708,-16.200,-11.100,6.000,-3.200
2.709,-17.100,-11.600,6.100,-3.200
2.710,-16.900,-11.600,6.200,-3.200
2.711,-16.200,-11.300,6.200,-3.100
2.712,-16.300,-11.200,6.200,-3.100
2.713,-17.900,-11.400,6.200,-3.000
2.714,-20.600,-12.000,6.100,-3.000
2.715,-23.000,-12.400,6.000,-3.000
2.716,-24.100,-12.500,6.000,-3.000
2.717,-23.700,-12.100,6.000,-3.100
2.718,-22.700,-11.500,5.900,-3.100
2.719,-21.800,-11.000,5.900,-3.200
2.720,-21.200,-10.800,5.800,-3.300
2.721,-20.500,-10.700,5.800,-3.300
2.722,-19.500,-10.800,5.700,-3.400
2.723,-18.200,-11.000,5.700,-3.500
2.724,-16.900,-11.300,5.700,-3.600
2.725,-15.800,-11.700,5.600,-3.800
2.726,-14.900,-12.200,5.500,-3.900
2.727,-13.900,-12.700,5.500,-4.100
2.728,-12.900,-13.200,5.400,-4.200
2.729,-12.000,-13.600,5.400,-4.200
2.730,-11.400,-13.800,5.300,-4.300
2.731,-11.200,-13.800,5.200,-4.300
2.732,-11.000,-13.500,5.000,-4.300
2.733,-10.900,-12.900,4.900,-4.400
2.734,-10.800,-12.100,4.700,-4.500
2.735,-10.700,-11.200,4.600,-4.600
2.736,-10.700,-10.500,4.400,-4.700
2.737,-10.800,-9.900,4.200,-4.700
2.738,-10.700,-9.400,3.900,-4.700
2.739,-10.700,-9.000,3.700,-4.700
2.740,-10.700,-8.700,3.600,-4.600
2.741,-10.800,-8.200,3.400,-4.600
2.742,-10.900,-7.800,3.200,-4.500
2.743,-11.100,-7.300,3.100,-4.500
2.744,-11.100,-6.700,2.900,-4.500
2.745,-11.100,-6.000,2.800,-4.400
2.746,-11.200,-5.100,2.700,-4.200
2.747,-11.300,-4.100,2.600,-4.000
2.748,-11.100,-3.100,2.400,-3.800
2.749,-10.800,-2.200,2.300,-3.700
2.750,-10.300,-1.500,2.200,-3.600
2.751,-9.700,-1.000,2.100,-3.600
2.752,-9.100,-0.600,2.000,-3.400
2.753,-8.500,-0.300,2.000,-3.200
2.754,-7.900,-0.100,1.900,-3.000
2.755,-7.200,-0.100,1.800,-2.700
2.756,-6.600,-0.300,1.800,-2.600
2.757,-6.000,-0.700,1.800,-2.400
2.758,-5.600,-1.000,1.700,-2.300
2.759,-5.200,-1.200,1.600,-2.200
2.760,-5.000,-1.200,1.500,-2.000
2.761,-4.600,-1.000,1.300,-1.900
2.762,-4.300,-0.600,1.100,-1.700
2.763,-4.000,-0.300,0.900,-1.600
2.764,-3.700,0.100,0.600,-1.600
2.765,-3.500,0.500,0.300,-1.500
2.766,-3.200,0.900,0.000,-1.500
2.767,-2.800,1.300,-0.300,-1.400
2.768,-2.500,1.600,-0.700,-1.400
2.769,-2.300,1.800,-1.100,-1.300
2.770,-2.200,1.700,-1.400,-1.200
2.771,-2.200,1.400,-1.600,-1.100
2.772,-2.300,0.900,-1.600,-1.000
2.773,-2.400,0.300,-1.600,-0.900
2.774,-2.500,-0.600,-1.800,-0.800
2.775,-2.700,-1.700,-2.100,-0.600
2.776,-3.100,-3.000,-2.400,-0.400
2.777,-3.500,-4.200,-2.500,-0.200
2.778,-3.900,-5.300,-2.200,0.000
2.779,-4.000,-6.200,-1.700,0.100
2.780,-4.000,-6.800,-1.300,0.200
2.781,-3.900,-7.100,-1.100,0.200
2.782,-3.700,-7.100,-1.100,0.200
2.783,-3.300,-6.700,-1.200,0.100
2.784,-2.700,-6.100,-1.200,0.100
2.785,-1.600,-5.300,-1.200,0.200
2.786,-0.100,-4.500,-1.200,0.100
2.787,1.600,-3.700,-1.400,0.100
2.788,3.200,-3.100,-1.700,0.000
2.789,4.600,-2.500,-1.900,0.000
2.790,5.900,-1.900,-2.000,-0.100
2.791,7.200,-1.400,-2.100,-0.200
2.792,8.300,-1.000,-2.300,-0.300
2.793,9.200,-0.900,-2.400,-0.300
2.794,9.800,-0.900,-2.400,-0.500
2.795,9.900,-0.900,-2.200,-0.500
2.796,9.600,-0.700,-1.900,-0.600
2.797,9.200,-0.100,-1.600,-0.500
2.798,8.700,0.900,-1.400,-0.500
2.799,8.100,2.000,-1.200,-0.500
2.800,7.400,2.800,-1.000,-0.400
2.801,6.600,3.300,-0.800,-0.300
2.802,5.800,3.600,-0.700,-0.200
2.803,5.100,4.000,-0.600,0.000
2.804,4.600,4.600,-0.600,0.000
2.805,4.400,5.100,-0.700,0.000
2.806,4.400,5.300,-0.900,0.000
2.807,4.500,4.800,-1.100,0.000
2.808,4.800,4.200,-1.200,0.000
2.809,4.900,4.200,-1.400,0.200
2.810,4.900,4.800,-1.500,0.300
2.811,4.800,5.700,-1.600,0.400
2.812,4.800,5.800,-1.700,0.300
2.813,4.800,4.600,-1.700,0.100
2.814,4.700,2.400,-1.700,0.000
2.815,4.500,0.400,-1.600,0.000
2.816,3.900,-0.600,-1.500,0.200
2.817,3.100,-0.600,-1.500,0.400
2.818,2.100,-0.200,-1.400,0.600
2.819,1.100,0.100,-1.400,0.700
2.820,0.100,0.100,-1.500,0.700
2.821,-0.700,0.200,-1.500,0.600
2.822,-1.200,0.800,-1.500,0.700
2.823,-1.500,1.900,-1.500,0.700
2.824,-1.300,3.200,-1.400,0.700
2.825,-0.900,4.400,-1.300,0.800
2.826,-0.300,5.500,-1.200,0.800
2.827,0.400,6.600,-1.000,0.900
2.828,1.300,7.800,-0.800,0.900
2.829,2.600,9.000,-0.600,1.000
2.830,4.200,10.000,-0.400,1.200
2.831,5.800,10.600,-0.200,1.400
2.832,7.100,10.800,0.000,1.600
2.833,8.100,10.700,0.300,1.900
2.834,8.700,10.400,0.600,2.300
2.835,9.200,10.000,1.000,2.700
2.836,9.600,9.400,1.400,3.200
2.837,9.900,8.400,1.900,3.700
2.838,10.000,7.200,2.400,4.200
2.839,9.700,5.800,2.900,4.800
2.840,9.200,4.600,3.300,5.300
2.841,8.500,3.600,3.700,5.800
2.842,7.800,3.000,4.000,6.200
2.843,7.000,2.600,4.300,6.700
2.844,6.300,2.300,4.600,7.200
2.845,5.700,1.900,4.900,7.700
2.846,5.100,1.500,5.200,8.300
2.847,4.600,1.300,5.500,8.700
2.848,4.100,1.300,5.800,9.000
2.849,3.600,1.600,6.200,9.200
2.850,3.200,2.200,6.700,9.300
2.851,2.800,2.900,7.200,9.400
2.852,2.400,3.600,7.800,9.600
2.853,2.100,4.300,8.100,9.800
2.854,1.800,5.000,8.400,9.900
2.855,1.500,5.700,8.500,9.800
2.856,1.300,6.400,8.500,9.600
2.857,1.300,7.000,8.500,9.300
2.858,1.600,7.600,8.200,9.000
2.859,2.200,8.100,7.800,8.600
2.860,2.900,8.300,7.200,8.100
2.861,3.600,8.400,6.400,7.700
2.862,4.300,8.400,5.600,7.100
2.863,5.000,8.100,4.600,6.600
2.864,5.700,7.800,3.600,5.900
2.865,6.500,7.500,2.600,5.200
2.866,7.100,7.200,1.700,4.500
2.867,7.600,6.700,0.700,3.800
2.868,7.900,6.000,-0.200,3.000
2.869,8.100,5.100,-1.300,2.200
2.870,8.300,3.800,-2.400,1.300
2.871,8.400,2.200,-3.600,0.300
2.872,8.500,0.400,-4.900,-0.900
2.873,8.700,-1.600,-6.100,-2.100
2.874,8.800,-3.900,-7.500,-3.600
2.875,8.900,-6.600,-9.100,-5.200
2.876,8.800,-9.800,-10.800,-7.000
2.877,8.800,-13.500,-12.600,-9.200
2.878,9.000,-17.600,-14.300,-11.600
2.879,9.500,-22.200,-15.900,-14.300
2.880,10.200,-27.000,-17.700,-17.200
2.881,10.800,-31.900,-19.700,-20.200
2.882,11.300,-36.900,-21.900,-23.400
2.883,11.800,-42.100,-24.200,-26.800
2.884,12.400,-47.600,-26.500,-30.200
2.885,13.200,-53.600,-28.500,-33.700
2.886,14.000,-60.000,-30.400,-37.300
2.887,14.100,-66.800,-32.000,-40.900
2.888,13.300,-73.700,-33.200,-44.500
2.889,11.200,-80.400,-34.000,-47.900
2.890,8.100,-86.900,-34.400,-51.100
2.891,4.300,-92.800,-34.300,-54.000
2.892,0.400,-98.100,-34.000,-56.400
2.893,-3.400,-102.400,-33.600,-58.300
2.894,-6.500,-105.500,-33.500,-59.600
2.895,-8.400,-107.100,-33.700,-60.400
2.896,-9.200,-107.100,-34.100,-60.500
2.897,-9.000,-105.600,-34.400,-60.000
2.898,-8.300,-102.800,-34.300,-58.900
2.899,-7.800,-98.700,-33.600,-57.300
2.900,-7.500,-93.500,-32.200,-55.100
2.901,-7.700,-87.000,-30.100,-52.600
2.902,-8.100,-79.500,-27.300,-49.600
2.903,-9.000,-71.300,-23.800,-46.300
2.904,-10.300,-62.300,-19.500,-42.500
2.905,-11.700,-52.700,-14.900,-38.300
2.906,-12.900,-42.400,-10.200,-33.700
2.907,-13.900,-31.600,-5.700,-28.700
2.908,-15.200,-21.300,-1.400,-23.400
2.909,-17.500,-12.200,2.800,-18.000
2.910,-21.200,-4.900,7.000,-12.800
2.911,-25.800,1.100,11.200,-7.900
2.912,-30.400,6.700,15.300,-3.400
2.913,-34.300,12.400,18.900,0.400
2.914,-37.100,17.900,21.900,3.800
2.915,-39.200,22.500,24.100,6.700
2.916,-40.900,25.500,25.300,9.000
2.917,-42.000,26.800,25.700,10.900
2.918,-42.000,27.100,25.100,12.300
2.919,-40.200,27.300,23.700,13.300
2.920,-36.500,27.400,21.400,14.000
2.921,-31.300,27.400,18.600,14.400
2.922,-25.100,27.000,15.600,14.400
2.923,-18.500,26.200,12.500,14.200
2.924,-11.900,25.300,9.500,13.600
2.925,-5.500,24.500,6.700,12.800
2.926,0.600,23.700,4.200,12.000
2.927,6.000,22.900,2.000,11.200
2.928,10.400,21.900,0.200,10.500
2.929,13.900,20.700,-1.300,9.900
2.930,16.500,19.600,-2.500,9.300
2.931,18.200,18.600,-3.500,8.600
2.932,19.300,17.700,-4.400,8.000
2.933,20.000,17.000,-5.200,7.500
2.934,20.200,16.400,-5.800,6.900
2.935,20.100,15.700,-6.300,6.400
2.936,19.900,15.100,-6.700,5.900
2.937,19.800,14.400,-6.900,5.400
2.938,19.700,13.600,-7.200,5.000
2.939,19.800,12.700,-7.400,4.600
2.940,19.900,11.600,-7.500,4.200
2.941,19.800,10.300,-7.500,3.800
2.942,19.500,8.800,-7.400,3.300
2.943,19.000,7.300,-7.100,2.900
2.944,18.400,5.900,-6.800,2.500
2.945,17.600,4.400,-6.400,2.200
2.946,16.600,2.800,-6.100,1.900
2.947,15.400,1.300,-5.700,1.500
2.948,14.000,0.000,-5.400,1.200
2.949,12.600,-0.900,-5.000,0.800
2.950,11.200,-1.400,-4.600,0.500
2.951,10.000,-1.300,-4.300,0.300
2.952,8.900,-1.000,-4.000,0.200
2.953,7.900,-0.600,-3.700,0.300
2.954,7.000,0.200,-3.300,0.300
2.955,6.300,1.100,-2.800,0.400
2.956,5.800,2.200,-2.400,0.500
2.957,5.600,3.300,-1.900,0.500
2.958,5.400,4.300,-1.500,0.500
2.959,5.300,5.100,-1.200,0.600
2.960,5.200,5.600,-1.000,0.600
2.961,5.100,6.000,-0.800,0.600
2.962,4.900,6.200,-0.700,0.500
2.963,4.700,6.300,-0.600,0.500
2.964,4.600,6.200,-0.500,0.400
2.965,4.300,5.900,-0.500,0.200
2.966,4.000,5.400,-0.500,0.100
2.967,3.400,4.800,-0.600,0.000
2.968,2.800,4.100,-0.800,-0.100
2.969,2.100,3.400,-1.000,-0.100
2.970,1.600,2.600,-1.300,-0.100
2.971,1.200,1.900,-1.800,-0.100
2.972,0.900,1.200,-2.400,-0.200
2.973,0.600,0.800,-3.000,-0.200
2.974,0.400,0.500,-3.400,-0.300
2.975,0.400,0.300,-3.500,-0.300
2.976,0.700,0.000,-3.400,-0.400
2.977,1.400,-0.400,-3.300,-0.500
2.978,2.400,-1.000,-3.300,-0.600
2.979,3.300,-1.600,-3.300,-0.600
2.980,4.100,-2.100,-3.000,-0.600
2.981,4.800,-2.500,-2.500,-0.600
2.982,5.600,-2.700,-1.500,-0.500
2.983,6.400,-2.700,-0.400,-0.600
2.984,7.100,-2.700,0.700,-0.600
2.985,7.400,-2.700,1.700,-0.700
2.986,7.400,-2.700,2.500,-0.900
2.987,7.200,-2.700,3.100,-1.100
2.988,6.900,-2.700,3.600,-1.300
2.989,6.700,-2.700,3.800,-1.600
2.990,6.400,-2.700,3.900,-1.900
2.991,6.100,-2.700,3.800,-2.100
2.992,5.600,-2.600,3.600,-2.100
2.993,5.100,-2.500,3.200,-2.100
2.994,4.700,-2.500,2.700,-2.100
2.995,4.400,-2.500,1.900,-2.100
2.996,4.300,-2.500,1.100,-2.300
2.997,4.300,-2.600,0.200,-2.400
2.998,4.300,-2.600,-0.600,-2.600
2.999,4.400,-2.600,-1.200,-2.800
3.000,4.500,-2.600,-1.800,-2.900
3.001,4.600,-2.800,-2.400,-3.000
3.002,4.700,-3.100,-2.700,-3.000
3.003,4.800,-3.400,-3.000,-3.000
3.004,4.800,-3.700,-3.000,-2.900
3.005,4.700,-3.900,-2.800,-2.700
3.006,4.500,-4.000,-2.600,-2.700
3.007,4.200,-4.200,-2.200,-2.700
3.008,3.800,-4.300,-2.000,-2.800
3.009,3.600,-4.400,-1.700,-2.800
3.010,3.600,-4.300,-1.300,-2.800
3.011,3.600,-4.300,-0.900,-2.800
3.012,3.700,-4.400,-0.600,-2.800
3.013,3.800,-4.700,-0.400,-2.900
3.014,3.900,-5.100,-0.400,-3.100
3.015,4.200,-5.400,-0.700,-3.300
3.016,4.600,-5.700,-1.000,-3.300
3.017,5.100,-5.700,-1.400,-3.300
3.018,5.800,-5.800,-1.700,-3.300
3.019,6.500,-6.000,-2.000,-3.300
3.020,7.000,-6.200,-2.300,-3.300
3.021,7.300,-6.300,-2.600,-3.300
3.022,7.500,-6.300,-3.000,-3.300
3.023,7.500,-6.200,-3.100,-3.300
3.024,7.500,-6.000,-3.200,-3.400
3.025,7.400,-5.800,-3.100,-3.500
3.026,7.300,-5.700,-2.900,-3.600
3.027,7.200,-5.400,-2.700,-3.600
3.028,7.000,-5.100,-2.400,-3.700
3.029,6.700,-4.900,-2.000,-3.800
3.030,6.500,-4.800,-1.500,-3.800
3.031,6.200,-4.800,-0.900,-3.800
3.032,6.000,-4.800,-0.200,-3.700
3.033,5.800,-4.900,0.500,-3.600
3.034,5.600,-5.100,1.200,-3.600
3.035,5.400,-5.400,1.700,-3.700
3.036,5.200,-5.800,2.000,-3.900
3.037,5.200,-6.200,2.300,-4.100
3.038,5.100,-6.600,2.500,-4.100
3.039,5.200,-6.900,2.600,-3.900
3.040,5.200,-7.300,2.500,-3.700
3.041,5.200,-7.800,2.200,-3.500
3.042,5.300,-8.400,1.500,-3.400
3.043,5.300,-8.900,0.700,-3.300
3.044,5.300,-9.300,-0.200,-3.400
3.045,5.300,-9.500,-1.100,-3.500
3.046,5.200,-9.600,-2.000,-3.500
3.047,5.000,-9.600,-2.900,-3.500
3.048,4.800,-9.500,-3.800,-3.500
3.049,4.600,-9.200,-4.800,-3.400
3.050,4.500,-8.800,-5.700,-3.200
3.051,4.400,-8.400,-6.500,-3.100
3.052,4.300,-8.100,-6.900,-3.000
3.053,4.200,-7.600,-7.000,-3.000
3.054,4.100,-7.000,-7.000,-3.000
3.055,4.200,-6.400,-6.900,-3.000
3.056,4.200,-6.000,-6.600,-3.100
3.057,4.300,-6.000,-6.100,-3.100
3.058,4.400,-6.400,-5.400,-3.100
3.059,4.500,-6.900,-4.500,-3.100
3.060,4.700,-7.500,-3.600,-3.000
3.061,4.800,-7.800,-3.000,-3.000
3.062,4.900,-8.100,-2.700,-2.900
3.063,5.000,-8.300,-2.500,-2.800
3.064,5.100,-8.600,-2.400,-2.900
3.065,5.200,-8.700,-2.300,-3.000
3.066,5.300,-8.500,-2.500,-3.100
3.067,5.300,-8.100,-2.800,-3.100
3.068,5.300,-7.600,-3.300,-3.200
3.069,5.400,-7.200,-3.800,-3.300
3.070,5.400,-7.000,-4.000,-3.400
3.071,5.400,-6.900,-4.100,-3.500
3.072,5.400,-6.700,-4.100,-3.700
3.073,5.400,-6.500,-4.200,-3.800
3.074,5.400,-6.300,-4.200,-3.900
3.075,5.400,-6.100,-4.300,-4.000
3.076,5.500,-6.100,-4.300,-4.100
3.077,5.600,-6.300,-4.500,-4.100
3.078,5.600,-6.500,-4.700,-4.200
3.079,5.700,-6.800,-5.100,-4.200
3.080,5.600,-7.100,-5.600,-4.300
3.081,5.600,-7.300,-6.100,-4.300
3.082,5.600,-7.500,-6.700,-4.300
3.083,5.600,-7.700,-7.200,-4.300
3.084,5.600,-7.900,-7.800,-4.300
3.085,5.500,-8.000,-8.200,-4.300
3.086,5.400,-8.100,-8.300,-4.300
3.087,5.400,-8.200,-7.900,-4.300
3.088,5.300,-8.300,-7.200,-4.400
3.089,5.300,-8.400,-6.300,-4.500
3.090,5.200,-8.400,-5.400,-4.600
3.091,5.100,-8.400,-4.400,-4.700
3.092,5.100,-8.400,-3.300,-4.800
3.093,5.000,-8.300,-2.200,-4.800
3.094,5.000,-8.300,-1.000,-4.900
3.095,5.100,-8.300,0.000,-4.900
3.096,5.100,-8.400,0.800,-4.900
3.097,5.100,-8.700,1.200,-4.800
3.098,5.200,-9.100,1.400,-4.700
3.099,5.200,-9.500,1.200,-4.700
3.100,5.200,-10.000,0.900,-4.700
3.101,5.200,-10.400,0.400,-4.800
3.102,5.200,-10.900,-0.200,-4.900
3.103,5.200,-11.400,-1.100,-5.000
3.104,5.100,-12.100,-2.100,-5.000
3.105,5.100,-12.700,-3.200,-5.100
3.106,5.000,-13.200,-4.200,-5.100
3.107,5.100,-13.500,-5.200,-5.100
3.108,5.100,-13.600,-6.000,-5.100
3.109,5.200,-13.800,-6.700,-5.200
3.110,5.300,-14.000,-7.200,-5.200
3.111,5.300,-14.200,-7.600,-5.200
3.112,5.200,-14.100,-7.800,-5.100
3.113,5.100,-13.800,-7.800,-5.000
3.114,5.000,-13.200,-7.700,-4.800
3.115,4.900,-12.600,-7.500,-4.700
3.116,4.800,-12.300,-7.200,-4.700
3.117,4.700,-12.300,-6.800,-4.800
3.118,4.700,-12.300,-6.400,-4.800
3.119,4.700,-12.500,-5.900,-4.900
3.120,4.700,-12.500,-5.400,-5.000
3.121,4.700,-12.600,-4.900,-5.000
3.122,4.800,-12.800,-4.500,-5.000
3.123,4.800,-13.000,-4.100,-5.100
3.124,4.700,-13.200,-3.900,-5.300
3.125,4.600,-13.200,-3.800,-5.400
3.126,4.600,-13.200,-3.800,-5.600
3.127,4.700,-13.100,-3.900,-5.600
3.128,4.800,-13.000,-3.900,-5.700
3.129,4.900,-12.900,-4.000,-5.700
3.130,4.900,-12.900,-4.200,-5.700
3.131,4.900,-13.100,-4.400,-5.800
3.132,4.900,-13.700,-4.500,-5.900
3.133,4.900,-14.500,-4.600,-5.900
3.134,4.900,-15.300,-4.600,-5.800
3.135,5.000,-15.900,-4.600,-5.800
3.136,5.000,-16.500,-4.600,-5.700
3.137,5.000,-16.800,-4.600,-5.700
3.138,4.900,-17.000,-4.600,-5.700
3.139,4.800,-16.800,-4.700,-5.600
3.140,4.700,-16.000,-4.800,-5.500
3.141,4.500,-14.700,-4.800,-5.400
3.142,4.400,-13.100,-4.800,-5.300
3.143,4.400,-11.600,-4.700,-5.200
3.144,4.300,-10.400,-4.600,-5.000
3.145,4.200,-9.400,-4.400,-4.900
3.146,4.000,-8.400,-4.200,-4.700
3.147,3.900,-7.500,-3.800,-4.600
3.148,3.600,-7.100,-3.300,-4.600
3.149,3.400,-7.400,-3.000,-4.700
3.150,3.200,-8.300,-2.700,-4.800
3.151,3.000,-9.500,-2.600,-4.900
3.152,2.700,-10.600,-2.500,-4.800
3.153,2.500,-11.500,-2.300,-4.800
3.154,2.300,-12.300,-2.200,-4.700
3.155,2.000,-13.300,-2.000,-4.600
3.156,1.800,-14.200,-1.900,-4.500
3.157,1.500,-14.800,-1.700,-4.500
3.158,1.200,-15.100,-1.400,-4.500
3.159,1.000,-15.000,-1.000,-4.400
3.160,0.700,-14.800,-0.600,-4.400
3.161,0.500,-14.700,-0.200,-4.500
3.162,0.300,-14.500,0.100,-4.600
3.163,0.100,-14.300,0.300,-4.700
3.164,0.000,-14.000,0.600,-4.800
3.165,-0.200,-13.600,0.900,-4.900
3.166,-0.400,-13.200,1.200,-5.000
3.167,-0.700,-12.900,1.500,-5.200
3.168,-0.900,-12.700,1.800,-5.400
3.169,-1.200,-12.600,2.100,-5.700
3.170,-1.400,-12.300,2.500,-5.700
3.171,-1.700,-12.100,2.800,-5.600
3.172,-2.000,-11.900,3.000,-5.400
3.173,-2.200,-11.600,3.200,-5.100
3.174,-2.500,-11.400,3.400,-4.800
3.175,-2.700,-11.100,3.700,-4.700
3.176,-2.900,-10.800,3.900,-4.600
3.177,-3.200,-10.500,3.900,-4.500
3.178,-3.400,-10.200,3.600,-4.300
3.179,-3.600,-10.100,3.100,-4.200
3.180,-3.800,-10.000,2.600,-4.100
3.181,-4.000,-9.900,2.200,-3.900
3.182,-4.200,-9.800,1.800,-3.800
3.183,-4.400,-9.800,1.400,-3.600
3.184,-4.700,-10.000,1.000,-3.400
3.185,-4.800,-10.500,0.600,-3.200
3.186,-5.000,-11.100,0.300,-3.100
3.187,-5.100,-11.600,0.200,-3.000
3.188,-5.200,-12.000,0.300,-2.800
3.189,-5.300,-12.000,0.200,-2.700
3.190,-5.300,-12.000,0.200,-2.700
3.191,-5.200,-12.000,0.100,-2.600
3.192,-5.200,-11.900,0.100,-2.500
3.193,-5.100,-11.700,0.000,-2.500
3.194,-5.000,-11.400,-0.200,-2.500
3.195,-4.900,-10.900,-0.500,-2.500
3.196,-4.800,-10.300,-1.000,-2.500
3.197,-4.700,-9.600,-1.500,-2.500
3.198,-4.500,-8.800,-1.800,-2.500
3.199,-4.500,-7.800,-1.900,-2.400
3.200,-4.400,-7.000,-1.900,-2.400
3.201,-4.200,-6.500,-1.900,-2.300
3.202,-4.100,-6.100,-1.800,-2.200
3.203,-3.800,-5.700,-1.500,-2.200
3.204,-3.600,-5.000,-1.100,-2.200
3.205,-3.400,-4.500,-0.400,-2.200
3.206,-3.200,-4.500,0.200,-2.100
3.207,-3.200,-5.300,0.800,-2.000
3.208,-3.100,-6.300,1.200,-1.800
3.209,-2.900,-6.600,1.500,-1.500
3.210,-2.800,-5.800,1.800,-1.200
3.211,-2.600,-4.700,2.100,-1.000
3.212,-2.500,-4.500,2.200,-0.800
3.213,-2.500,-5.900,2.100,-0.600
3.214,-2.500,-8.600,1.700,-0.500
3.215,-2.600,-11.100,1.200,-0.300
3.216,-2.700,-12.300,0.700,-0.200
3.217,-2.600,-12.300,0.300,-0.200
3.218,-2.600,-11.800,0.100,-0.200
3.219,-2.500,-11.400,0.000,-0.200
3.220,-2.400,-11.200,0.000,-0.300
3.221,-2.400,-10.800,0.000,-0.400
3.222,-2.300,-9.900,0.300,-0.500
3.223,-2.200,-8.500,0.800,-0.600
3.224,-2.100,-7.300,1.400,-0.600
3.225,-2.000,-6.500,1.900,-0.500
3.226,-1.900,-6.000,2.400,-0.400
3.227,-1.800,-5.700,2.800,-0.500
3.228,-1.700,-5.100,3.200,-0.600
3.229,-1.600,-4.400,3.500,-0.700
3.230,-1.500,-3.700,3.600,-0.800
3.231,-1.500,-3.300,3.400,-0.900
3.232,-1.500,-3.000,3.100,-0.900
3.233,-1.500,-2.900,2.600,-0.900
3.234,-1.500,-2.700,2.200,-0.900
3.235,-1.500,-2.700,1.900,-0.800
3.236,-1.500,-2.600,1.600,-0.700
3.237,-1.500,-2.500,1.200,-0.600
3.238,-1.500,-2.600,0.900,-0.500
3.239,-1.400,-2.700,0.500,-0.500
3.240,-1.300,-2.900,0.200,-0.500
3.241,-1.300,-3.000,0.000,-0.500
3.242,-1.200,-3.100,-0.100,-0.600
3.243,-1.100,-3.200,-0.200,-0.600
3.244,-1.000,-3.300,-0.300,-0.600
3.245,-0.900,-3.400,-0.400,-0.500
3.246,-0.900,-3.500,-0.500,-0.300
3.247,-0.800,-3.400,-0.500,-0.300
3.248,-0.800,-3.100,-0.600,-0.300
3.249,-0.800,-2.600,-0.600,-0.300
3.250,-0.700,-1.900,-0.600,-0.500
3.251,-0.700,-1.200,-0.600,-0.500
3.252,-0.600,-0.700,-0.700,-0.500
3.253,-0.700,-0.400,-0.800,-0.400
3.254,-0.700,-0.200,-0.900,-0.300
3.255,-0.800,0.000,-1.000,-0.300
3.256,-0.900,0.200,-1.200,-0.300
3.257,-0.900,0.400,-1.300,-0.400
3.258,-1.000,0.400,-1.200,-0.400
3.259,-1.000,0.300,-1.000,-0.500
3.260,-1.100,0.100,-0.600,-0.400
3.261,-1.200,0.000,-0.300,-0.400
3.262,-1.300,0.000,0.100,-0.400
3.263,-1.500,0.100,0.500,-0.400
3.264,-1.600,0.100,0.900,-0.500
3.265,-1.700,0.200,1.300,-0.600
3.266,-1.700,0.400,1.500,-0.700
3.267,-1.700,0.800,1.600,-0.700
3.268,-1.600,1.400,1.600,-0.800
3.269,-1.500,2.100,1.400,-0.800
3.270,-1.300,2.700,1.100,-0.800
3.271,-1.200,3.100,0.700,-0.700
3.272,-1.000,3.500,0.300,-0.600
3.273,-0.800,4.100,0.000,-0.400
3.274,-0.600,4.700,-0.200,-0.300
3.275,-0.500,5.200,-0.300,-0.300
3.276,-0.300,5.200,-0.300,-0.200
3.277,-0.200,4.500,-0.200,-0.100
3.278,0.000,3.400,-0.200,0.000
3.279,0.000,2.300,-0.200,0.000
3.280,0.100,1.300,-0.200,0.100
3.281,0.100,0.400,-0.100,0.100
3.282,0.000,-0.500,0.100,0.100
3.283,-0.100,-1.500,0.300,0.000
3.284,-0.300,-2.300,0.400,0.000
3.285,-0.500,-2.500,0.500,0.000
3.286,-0.600,-2.200,0.600,0.000
3.287,-0.700,-1.700,0.800,0.000
3.288,-0.700,-1.300,1.000,-0.100
3.289,-0.700,-1.200,1.200,0.000
3.290,-0.800,-1.200,1.300,0.000
3.291,-0.800,-1.100,1.400,0.100
3.292,-0.900,-1.100,1.500,0.100
3.293,-1.000,-1.300,1.500,0.100
3.294,-1.100,-1.800,1.500,0.000
3.295,-1.200,-2.500,1.400,0.100
3.296,-1.200,-3.300,1.100,0.300
3.297,-1.200,-4.300,0.700,0.600
3.298,-1.200,-5.400,0.200,0.900
3.299,-1.100,-6.500,-0.300,1.000
3.300,-1.100,-7.400,-0.800,1.100
3.301,-1.000,-7.600,-1.100,1.100
3.302,-1.000,-7.200,-1.400,1.100
3.303,-0.900,-6.500,-1.600,1.200
3.304,-0.900,-5.700,-1.700,1.300
3.305,-0.900,-4.800,-1.400,1.500
3.306,-0.900,-3.100,-0.900,1.500
3.307,-0.800,-0.700,-0.300,1.500
3.308,-0.700,1.700,0.200,1.400
3.309,-0.600,2.800,0.700,1.200
3.310,-0.600,2.100,1.100,1.000
3.311,-0.500,0.500,1.600,0.800
3.312,-0.500,-0.300,2.000,0.400
3.313,-0.300,0.500,2.200,0.000
3.314,-0.200,2.600,2.200,-0.300
3.315,-0.100,4.300,1.800,-0.500
3.316,-0.100,4.400,1.200,-0.600
3.317,-0.300,2.600,0.700,-0.500
3.318,-0.500,-0.100,0.200,-0.400
3.319,-0.800,-2.600,-0.300,-0.300
3.320,-1.100,-4.500,-0.800,-0.200
3.321,-1.300,-6.300,-1.300,-0.100
3.322,-1.600,-8.200,-1.700,0.100
3.323,-1.900,-10.000,-2.000,0.300
3.324,-2.200,-11.400,-1.900,0.400
3.325,-2.300,-12.000,-1.600,0.500
3.326,-2.200,-12.100,-1.200,0.400
3.327,-1.900,-11.900,-0.900,0.300
3.328,-1.300,-11.500,-0.500,-0.100
3.329,-0.500,-10.800,0.000,-0.700
3.330,0.500,-9.700,0.600,-1.400
3.331,1.600,-8.100,1.100,-2.200
3.332,2.900,-6.400,1.600,-3.000
3.333,4.200,-4.800,1.800,-3.800
3.334,5.300,-3.400,1.800,-4.800
3.335,6.100,-2.000,1.900,-6.000
3.336,6.500,-0.500,2.100,-7.200
3.337,6.700,1.300,2.200,-8.100
3.338,6.700,3.200,2.200,-8.400
3.339,6.800,4.900,2.000,-8.100
3.340,6.500,6.100,1.600,-7.200
3.341,5.900,6.800,1.400,-6.200
3.342,4.700,7.100,1.700,-5.100
3.343,3.000,7.200,2.300,-4.100
3.344,1.100,6.900,3.100,-3.200
3.345,-0.700,6.400,3.800,-2.300
3.346,-2.300,5.400,4.500,-1.500
3.347,-3.500,4.200,5.000,-0.700
3.348,-4.500,2.900,5.500,0.100
3.349,-5.100,1.900,5.800,0.700
3.350,-5.400,1.200,5.800,1.100
3.351,-5.700,0.500,5.500,1.400
3.352,-5.800,-0.100,5.100,1.500
3.353,-5.900,-0.800,4.800,1.300
3.354,-6.000,-1.500,4.500,1.000
3.355,-6.200,-2.100,4.400,0.700
3.356,-6.300,-2.700,4.200,0.300
3.357,-6.600,-3.600,4.000,-0.100
3.358,-6.800,-4.500,3.700,-0.400
3.359,-7.000,-5.300,3.400,-0.700
3.360,-7.300,-5.900,3.300,-0.900
3.361,-7.600,-6.200,3.200,-1.000
3.362,-8.000,-6.300,3.200,-1.200
3.363,-8.400,-6.400,3.300,-1.400
3.364,-8.700,-6.100,3.400,-1.600
3.365,-9.000,-5.200,3.600,-1.800
3.366,-9.200,-3.800,3.800,-2.000
3.367,-9.400,-2.200,4.200,-2.100
3.368,-9.600,-1.100,4.500,-2.200
3.369,-9.800,-0.700,4.800,-2.200
3.370,-10.000,-0.900,5.000,-2.200
3.371,-10.300,-1.500,5.100,-2.100
3.372,-10.600,-2.400,5.300,-2.000
3.373,-10.900,-3.800,5.400,-1.900
3.374,-11.100,-5.700,5.500,-1.900
3.375,-11.400,-8.100,5.600,-1.900
3.376,-11.700,-10.500,5.600,-1.800
3.377,-12.000,-12.300,5.700,-1.800
3.378,-12.500,-13.500,5.800,-1.900
3.379,-12.900,-14.000,6.000,-2.100
3.380,-13.300,-14.100,6.100,-2.300
3.381,-13.600,-13.700,6.100,-2.600
3.382,-13.800,-12.700,6.100,-2.800
3.383,-14.000,-11.200,6.000,-3.000
3.384,-14.100,-9.300,5.900,-3.000
3.385,-14.300,-7.400,5.700,-3.100
3.386,-14.600,-5.700,5.300,-3.100
3.387,-15.000,-4.500,4.700,-3.100
3.388,-15.300,-3.700,4.000,-3.200
3.389,-15.500,-3.400,3.500,-3.200
3.390,-15.700,-3.300,3.100,-3.200
3.391,-15.800,-3.600,2.800,-3.200
3.392,-16.000,-4.000,2.500,-3.200
3.393,-16.100,-4.400,2.400,-3.100
3.394,-16.200,-4.800,2.300,-3.100
3.395,-16.400,-4.900,2.500,-3.100
3.396,-16.500,-4.900,2.900,-3.100
3.397,-16.700,-4.500,3.500,-3.200
3.398,-16.800,-3.900,4.100,-3.200
3.399,-16.800,-3.100,4.700,-3.300
3.400,-16.700,-2.400,5.300,-3.300
3.401,-16.700,-2.000,5.900,-3.400
3.402,-16.700,-1.800,6.500,-3.400
3.403,-16.700,-1.500,7.000,-3.400
3.404,-16.700,-1.300,7.500,-3.400
3.405,-16.600,-1.500,7.900,-3.500
3.406,-16.600,-2.600,8.200,-3.600
3.407,-16.500,-4.700,8.300,-3.800
3.408,-16.400,-6.800,8.300,-3.900
3.409,-16.200,-7.700,8.200,-4.000
3.410,-16.000,-7.200,8.100,-4.000
3.411,-15.800,-6.300,7.800,-4.100
3.412,-15.500,-6.400,7.500,-4.200
3.413,-15.300,-8.400,7.000,-4.300
3.414,-15.200,-11.700,6.400,-4.500
3.415,-15.000,-14.800,5.800,-4.600
3.416,-14.700,-16.400,5.200,-4.800
3.417,-14.400,-16.500,4.800,-4.800
3.418,-14.100,-16.100,4.400,-5.000
3.419,-13.800,-16.000,4.200,-5.100
3.420,-13.500,-15.900,3.900,-5.300
3.421,-13.100,-15.300,3.800,-5.500
3.422,-12.600,-14.000,3.800,-5.700
3.423,-12.100,-12.200,3.800,-5.800
3.424,-11.600,-10.800,3.800,-5.800
3.425,-11.100,-10.100,3.600,-5.800
3.426,-10.800,-9.900,3.300,-5.700
3.427,-10.400,-9.600,3.000,-5.600
3.428,-10.000,-9.400,2.700,-5.400
3.429,-9.600,-9.400,2.300,-5.100
3.430,-9.200,-10.000,1.900,-4.900
3.431,-8.700,-10.800,1.500,-4.800
3.432,-8.200,-11.300,1.000,-4.700
3.433,-7.800,-11.100,0.800,-4.600
3.434,-7.400,-10.500,0.700,-4.500
3.435,-7.000,-9.500,0.700,-4.300
3.436,-6.700,-8.400,0.900,-4.000
3.437,-6.300,-7.200,1.100,-3.800
3.438,-6.000,-5.500,1.300,-3.700
3.439,-5.600,-3.400,1.500,-3.700
3.440,-5.300,-1.200,1.900,-3.800
3.441,-4.900,0.700,2.300,-3.800
3.442,-4.500,2.200,2.600,-3.800
3.443,-4.100,3.400,2.700,-3.700
3.444,-3.600,4.200,2.800,-3.700
3.445,-3.200,4.900,2.700,-3.700
3.446,-2.700,5.300,2.600,-3.700
3.447,-2.300,5.200,2.400,-3.700
3.448,-2.000,4.500,2.100,-3.600
3.449,-1.600,3.400,1.500,-3.400
3.450,-1.200,2.100,0.800,-3.300
3.451,-0.800,1.000,0.100,-3.100
3.452,-0.500,0.200,-0.600,-3.000
3.453,-0.200,-0.300,-1.100,-3.000
3.454,0.000,-0.700,-1.400,-2.900
3.455,0.200,-0.900,-1.600,-2.800
3.456,0.500,-1.000,-1.800,-2.700
3.457,0.700,-0.700,-1.900,-2.700
3.458,1.100,-0.100,-1.700,-2.800
3.459,1.400,0.600,-1.100,-2.800
3.460,1.700,1.200,-0.500,-2.700
3.461,1.900,1.500,0.100,-2.600
3.462,2.000,1.500,0.700,-2.500
3.463,2.000,1.300,1.100,-2.500
3.464,2.100,1.100,1.600,-2.400
3.465,2.200,0.900,2.000,-2.300
3.466,2.300,0.500,2.200,-2.100
3.467,2.500,0.100,2.200,-1.800
3.468,2.700,-0.300,2.100,-1.500
3.469,2.800,-0.700,1.800,-1.100
3.470,2.900,-1.100,1.500,-0.800
3.471,2.900,-1.500,0.900,-0.500
3.472,2.900,-1.900,0.000,-0.300
3.473,3.000,-2.100,-0.900,-0.100
3.474,3.000,-2.200,-1.400,0.000
3.475,3.100,-2.200,-1.300,0.200
3.476,3.100,-2.300,-0.800,0.400
3.477,3.100,-2.500,-0.700,0.600
3.478,3.000,-2.700,-1.300,0.800
3.479,2.900,-2.800,-2.400,0.900
3.480,2.900,-2.700,-3.400,0.900
3.481,2.800,-2.300,-3.800,0.700
3.482,2.800,-1.800,-3.600,0.500
3.483,2.800,-1.100,-3.100,0.300
3.484,2.800,-0.100,-2.700,0.200
3.485,2.900,1.100,-2.400,0.000
3.486,2.900,2.500,-2.200,-0.100
3.487,3.000,4.000,-1.800,-0.100
3.488,3.000,5.200,-1.400,-0.100
3.489,3.000,6.300,-1.100,0.000
3.490,2.900,7.100,-1.000,0.000
3.491,3.000,7.900,-1.100,0.000
3.492,3.000,8.600,-1.200,0.000
3.493,3.000,9.200,-1.300,0.000
3.494,3.100,9.500,-1.500,-0.100
3.495,3.200,9.300,-1.700,-0.100
3.496,3.300,8.700,-2.000,0.000
3.497,3.300,8.000,-2.200,0.100
3.498,3.400,7.100,-2.200,0.300
3.499,3.400,6.200,-2.200,0.400
3.500,3.500,5.300,-2.100,0.500
3.501,3.600,4.600,-2.100,0.500
3.502,3.600,3.900,-1.900,0.600
3.503,3.600,3.600,-1.500,0.700
3.504,3.600,3.600,-1.200,0.900
3.505,3.600,4.000,-0.900,1.200
3.506,3.500,4.500,-0.800,1.400
3.507,3.400,5.100,-0.800,1.500
3.508,3.300,5.600,-1.000,1.500
3.509,3.300,6.000,-1.200,1.600
3.510,3.300,6.300,-1.400,1.700
3.511,3.300,6.400,-1.600,1.800
3.512,3.300,6.300,-2.000,1.800
3.513,3.200,5.900,-2.300,1.800
3.514,3.100,5.300,-2.500,1.700
3.515,3.000,4.700,-2.600,1.700
3.516,2.800,4.200,-2.600,1.700
3.517,2.800,3.900,-2.600,1.700
3.518,2.900,3.800,-2.500,1.800
3.519,3.000,3.700,-2.400,1.800
3.520,3.200,3.500,-2.100,1.700
3.521,3.300,3.100,-1.700,1.800
3.522,3.400,2.700,-1.100,1.900
3.523,3.500,2.400,-0.300,2.100
3.524,3.600,2.100,0.600,2.300
3.525,3.700,2.100,1.600,2.500
3.526,3.900,2.200,2.700,2.800
3.527,4.200,2.400,3.800,3.200
3.528,4.500,2.600,5.000,3.800
3.529,4.700,2.800,6.100,4.500
3.530,4.900,2.900,7.100,5.100
3.531,5.100,2.800,8.000,5.600
3.532,5.200,2.500,8.700,5.900
3.533,5.300,2.100,9.100,6.300
3.534,5.400,1.900,9.400,6.700
3.535,5.500,1.800,9.400,7.300
3.536,5.500,1.700,9.300,8.000
3.537,5.600,1.400,9.200,8.600
3.538,5.600,1.100,9.000,9.000
3.539,5.700,1.000,8.700,9.300
3.540,5.700,1.700,8.300,9.600
3.541,5.800,3.100,7.900,10.000
3.542,5.900,4.800,7.500,10.300
3.543,5.900,6.500,7.200,10.500
3.544,6.000,8.000,6.900,10.600
3.545,5.900,9.600,6.700,10.600
3.546,5.800,11.500,6.500,10.500
3.547,5.700,13.300,6.200,10.200
3.548,5.600,14.600,6.000,10.000
3.549,5.500,14.700,5.700,9.600
3.550,5.500,13.700,5.600,9.100
3.551,5.400,12.200,5.500,8.700
3.552,5.400,10.700,5.400,8.300
3.553,5.200,9.400,5.100,7.800
3.554,5.000,8.100,4.600,7.300
3.555,4.700,6.700,4.000,6.700
3.556,4.500,5.200,3.400,6.000
3.557,4.200,4.200,2.600,5.400
3.558,4.000,3.900,1.600,4.800
3.559,3.900,4.300,0.500,4.100
3.560,3.900,5.100,-0.700,3.200
3.561,4.000,5.900,-1.900,2.300
3.562,4.200,6.400,-3.100,1.300
3.563,4.500,6.800,-4.300,0.300
3.564,5.000,7.000,-5.600,-0.700
3.565,5.600,7.200,-6.700,-1.800
3.566,6.300,6.900,-7.700,-3.000
3.567,7.100,5.800,-8.500,-4.400
3.568,8.000,3.800,-9.100,-5.900
3.569,8.900,0.800,-9.600,-7.500
3.570,9.800,-2.900,-10.200,-9.100
3.571,10.800,-7.100,-10.700,-10.800
3.572,11.700,-11.600,-11.400,-12.700
3.573,12.600,-16.500,-12.300,-14.700
3.574,13.500,-21.900,-13.700,-17.000
3.575,14.300,-27.600,-15.500,-19.400
3.576,15.100,-33.400,-17.800,-22.100
3.577,15.900,-39.200,-20.200,-25.000
3.578,16.500,-44.800,-22.500,-28.000
3.579,16.900,-50.400,-24.700,-31.000
3.580,16.900,-56.100,-26.800,-34.200
3.581,16.400,-61.900,-28.900,-37.400
3.582,15.200,-67.600,-31.100,-40.600
3.583,13.300,-73.200,-32.900,-43.800
3.584,10.600,-78.600,-34.300,-46.900
3.585,7.200,-83.900,-34.900,-49.800
3.586,3.500,-89.200,-34.900,-52.400
3.587,-0.400,-94.100,-34.500,-54.600
3.588,-3.800,-98.600,-33.800,-56.400
3.589,-6.300,-102.400,-33.100,-57.800
3.590,-7.900,-105.100,-32.500,-58.600
3.591,-8.500,-106.800,-32.000,-58.900
3.592,-8.400,-107.400,-31.400,-58.600
3.593,-7.900,-107.000,-30.500,-57.600
3.594,-7.500,-105.500,-29.300,-56.000
3.595,-7.500,-102.800,-27.600,-53.800
3.596,-8.100,-98.900,-25.600,-51.100
3.597,-9.300,-94.100,-23.200,-47.900
3.598,-10.900,-88.500,-20.400,-44.200
3.599,-12.900,-82.300,-17.400,-40.000
3.600,-15.100,-75.200,-14.200,-35.500
3.601,-17.400,-67.200,-10.800,-30.800
3.602,-20.000,-58.600,-7.500,-26.000
3.603,-22.600,-49.800,-4.200,-21.100
3.604,-25.300,-40.900,-0.900,-16.200
3.605,-28.200,-31.500,2.400,-11.400
3.606,-31.000,-21.300,5.800,-7.000
3.607,-33.900,-10.600,9.300,-3.000
3.608,-36.800,-0.900,12.600,0.400
3.609,-39.400,6.200,15.600,3.300
3.610,-41.700,10.100,18.200,5.900
3.611,-43.400,12.100,20.400,8.000
3.612,-44.400,14.400,22.100,9.700
3.613,-44.500,18.500,23.400,10.900
3.614,-43.600,23.900,23.900,11.700
3.615,-41.600,28.600,23.800,12.300
3.616,-38.300,30.900,22.800,12.700
3.617,-34.000,30.700,21.100,13.000
3.618,-28.800,29.300,18.900,13.200
3.619,-22.900,28.200,16.400,13.200
3.620,-16.600,28.000,13.500,13.000
3.621,-10.300,28.500,10.500,12.700
3.622,-4.100,29.200,7.200,12.200
3.623,1.800,29.900,3.900,11.700
3.624,7.100,31.000,0.800,11.200
3.625,11.700,32.600,-1.800,10.700
3.626,15.600,34.500,-3.700,10.100
3.627,18.900,36.400,-5.200,9.600
3.628,21.400,38.100,-6.200,9.000
3.629,23.200,39.700,-6.900,8.600
3.630,24.500,41.000,-7.200,8.200
3.631,25.300,41.700,-7.200,7.800
3.632,25.700,41.400,-6.800,7.400
3.633,25.700,40.000,-6.300,6.900
3.634,25.400,37.700,-5.800,6.500
3.635,24.900,34.800,-5.400,6.000
3.636,24.200,31.700,-5.000,5.500
