'Elapsed time','AECG1','AECG2','AECG3','AECG4'
'seconds','uV','uV','uV','uV'
0.000,-18.900,-11.900,-22.000,-24.000
0.001,-18.500,-12.000,-21.800,-24.300
0.002,-18.100,-12.100,-21.700,-24.700
0.003,-18.200,-12.300,-22.100,-25.000
0.004,-18.800,-12.400,-22.700,-25.300
0.005,-19.700,-12.500,-23.400,-25.300
0.006,-20.600,-12.500,-23.800,-25.000
0.007,-20.900,-12.500,-23.700,-24.500
0.008,-20.700,-12.500,-23.000,-23.900
0.009,-20.100,-12.600,-22.300,-23.400
0.010,-19.600,-12.800,-21.700,-22.800
0.011,-19.400,-12.900,-21.500,-22.400
0.012,-19.500,-12.800,-21.700,-21.900
0.013,-19.600,-12.500,-22.100,-21.500
0.014,-19.400,-12.000,-22.200,-21.300
0.015,-18.900,-11.400,-22.100,-21.400
0.016,-18.300,-11.000,-21.800,-21.600
0.017,-18.000,-10.800,-21.700,-21.900
0.018,-18.100,-10.800,-21.900,-22.100
0.019,-18.600,-11.100,-22.400,-22.000
0.020,-19.300,-11.400,-23.100,-21.700
0.021,-19.900,-11.700,-23.600,-21.300
0.022,-20.300,-11.800,-23.900,-21.200
0.023,-20.300,-12.000,-23.800,-21.500
0.024,-20.100,-12.300,-23.600,-22.000
0.025,-19.900,-12.600,-23.400,-22.500
0.026,-19.600,-12.800,-23.400,-22.700
0.027,-19.500,-13.000,-23.600,-22.700
0.028,-19.600,-13.000,-23.700,-22.600
0.029,-19.900,-13.000,-23.700,-22.600
0.030,-20.300,-13.000,-23.500,-22.800
0.031,-20.700,-13.000,-23.300,-23.100
0.032,-20.900,-13.100,-23.000,-23.200
0.033,-20.900,-13.000,-22.800,-23.000
0.034,-20.600,-12.800,-22.600,-22.400
0.035,-20.200,-12.500,-22.400,-21.800
0.036,-19.900,-12.400,-22.300,-21.500
0.037,-19.700,-12.500,-22.300,-21.700
0.038,-19.600,-13.000,-22.600,-22.400
0.039,-19.400,-13.500,-22.800,-23.200
0.040,-19.100,-14.000,-22.900,-23.700
0.041,-18.700,-14.200,-22.500,-23.700
0.042,-18.600,-14.100,-21.900,-23.200
0.043,-18.800,-14.000,-21.200,-22.700
0.044,-19.400,-14.100,-20.800,-22.300
0.045,-20.000,-14.500,-21.000,-22.200
0.046,-20.500,-15.200,-21.700,-22.400
0.047,-20.600,-15.700,-22.600,-22.600
0.048,-20.400,-15.900,-23.300,-22.800
0.049,-20.000,-15.600,-23.600,-22.800
0.050,-19.700,-15.000,-23.500,-22.600
0.051,-19.600,-14.400,-23.200,-22.400
0.052,-19.600,-14.100,-22.900,-22.300
0.053,-19.500,-14.300,-22.900,-22.300
0.054,-19.400,-14.800,-23.000,-22.500
0.055,-19.100,-15.300,-23.300,-22.900
0.056,-18.900,-15.500,-23.700,-23.300
0.057,-18.900,-15.400,-24.100,-23.600
0.058,-19.400,-15.000,-24.500,-23.600
0.059,-20.100,-14.600,-24.900,-23.400
0.060,-20.800,-14.500,-25.100,-23.000
0.061,-21.300,-14.700,-25.100,-22.400
0.062,-21.300,-15.000,-24.900,-22.000
0.063,-20.800,-15.300,-24.400,-21.800
0.064,-20.100,-15.400,-23.800,-21.900
0.065,-19.500,-15.300,-23.200,-22.100
0.066,-19.200,-15.200,-22.800,-22.300
0.067,-19.300,-15.100,-22.600,-22.400
0.068,-19.800,-15.200,-22.700,-22.400
0.069,-20.500,-15.400,-22.900,-22.500
0.070,-21.200,-15.700,-23.100,-22.700
0.071,-21.700,-16.000,-23.200,-23.100
0.072,-21.900,-16.100,-23.000,-23.600
0.073,-21.700,-16.100,-22.600,-23.900
0.074,-21.100,-16.100,-22.200,-23.900
0.075,-20.400,-16.100,-22.000,-23.500
0.076,-19.700,-16.100,-22.000,-22.900
0.077,-19.200,-16.200,-22.300,-22.300
0.078,-19.300,-16.200,-22.800,-21.900
0.079,-19.700,-16.100,-23.300,-22.100
0.080,-20.400,-16.100,-23.900,-22.700
0.081,-21.000,-16.300,-24.500,-23.600
0.082,-21.300,-16.600,-25.100,-24.500
0.083,-21.300,-17.200,-25.700,-25.100
0.084,-21.200,-17.900,-26.100,-25.400
0.085,-21.100,-18.400,-26.300,-25.300
0.086,-21.300,-18.600,-26.200,-25.200
0.087,-21.700,-18.600,-26.100,-25.300
0.088,-22.100,-18.300,-26.000,-25.500
0.089,-22.300,-18.100,-26.000,-26.000
0.090,-22.300,-18.100,-26.200,-26.500
0.091,-22.000,-18.300,-26.400,-26.900
0.092,-21.800,-18.700,-26.500,-26.900
0.093,-21.700,-19.200,-26.600,-26.700
0.094,-21.900,-19.700,-26.700,-26.500
0.095,-22.300,-20.300,-27.000,-26.600
0.096,-22.600,-21.100,-27.500,-27.100
0.097,-22.800,-22.100,-28.200,-28.100
0.098,-22.900,-23.100,-28.800,-29.100
0.099,-22.900,-23.900,-29.200,-30.000
0.100,-22.900,-24.300,-29.100,-30.400
0.101,-23.100,-24.300,-28.800,-30.500
0.102,-23.300,-23.900,-28.500,-30.400
0.103,-23.500,-23.400,-28.400,-30.300
0.104,-23.700,-23.000,-28.800,-30.400
0.105,-23.700,-23.100,-29.400,-30.500
0.106,-23.800,-23.400,-30.100,-30.500
0.107,-23.900,-23.800,-30.400,-30.300
0.108,-24.200,-24.100,-30.300,-29.800
0.109,-24.500,-24.200,-29.900,-29.200
0.110,-24.800,-24.000,-29.400,-28.700
0.111,-24.900,-23.800,-29.100,-28.500
0.112,-24.900,-23.600,-29.100,-28.500
0.113,-24.700,-23.600,-29.300,-28.600
0.114,-24.500,-23.800,-29.700,-28.700
0.115,-24.400,-24.300,-30.000,-28.800
0.116,-24.600,-24.700,-30.300,-28.800
0.117,-24.900,-25.100,-30.400,-28.800
0.118,-25.300,-25.100,-30.400,-28.700
0.119,-25.700,-25.000,-30.600,-28.500
0.120,-26.000,-24.700,-30.900,-28.300
0.121,-26.100,-24.500,-31.400,-28.100
0.122,-26.000,-24.500,-31.800,-28.200
0.123,-26.000,-24.700,-32.300,-28.600
0.124,-26.000,-25.000,-32.700,-29.100
0.125,-26.100,-25.200,-33.100,-29.500
0.126,-26.300,-25.400,-33.300,-29.600
0.127,-26.400,-25.400,-33.300,-29.500
0.128,-26.400,-25.200,-33.100,-29.100
0.129,-26.300,-25.000,-32.700,-28.700
0.130,-26.200,-24.800,-32.200,-28.600
0.131,-26.200,-24.900,-31.800,-28.800
0.132,-26.300,-25.000,-31.500,-29.200
0.133,-26.500,-25.300,-31.300,-29.700
0.134,-26.600,-25.700,-31.300,-30.200
0.135,-26.600,-26.000,-31.300,-30.400
0.136,-26.400,-26.300,-31.400,-30.500
0.137,-26.200,-26.700,-31.600,-30.400
0.138,-26.200,-27.000,-31.900,-30.300
0.139,-26.400,-27.400,-32.300,-30.200
0.140,-26.800,-27.900,-32.600,-30.200
0.141,-27.100,-28.300,-32.800,-30.400
0.142,-27.400,-28.700,-32.900,-30.800
0.143,-27.500,-28.900,-32.900,-31.200
0.144,-27.600,-29.000,-33.000,-31.800
0.145,-27.800,-29.200,-33.100,-32.400
0.146,-28.100,-29.500,-33.300,-32.900
0.147,-28.400,-29.800,-33.500,-33.300
0.148,-28.600,-30.200,-33.600,-33.500
0.149,-28.600,-30.300,-33.800,-33.500
0.150,-28.600,-30.300,-33.900,-33.100
0.151,-28.500,-30.000,-34.100,-32.700
0.152,-28.400,-29.800,-34.400,-32.400
0.153,-28.400,-29.700,-34.600,-32.600
0.154,-28.300,-29.900,-34.900,-33.000
0.155,-28.400,-30.400,-35.200,-33.700
0.156,-28.600,-31.100,-35.500,-34.200
0.157,-29.200,-31.800,-35.700,-34.300
0.158,-29.900,-32.300,-35.900,-33.900
0.159,-30.500,-32.500,-36.100,-33.200
0.160,-30.600,-32.500,-36.200,-32.600
0.161,-30.000,-32.200,-36.300,-32.300
0.162,-29.100,-31.800,-36.400,-32.500
0.163,-28.200,-31.500,-36.500,-32.800
0.164,-27.900,-31.300,-36.500,-33.200
0.165,-28.300,-31.200,-36.600,-33.500
0.166,-29.100,-31.300,-36.600,-33.700
0.167,-29.700,-31.500,-36.600,-33.900
0.168,-29.800,-31.800,-36.600,-34.200
0.169,-29.400,-32.000,-36.600,-34.600
0.170,-28.800,-32.300,-36.800,-34.800
0.171,-28.400,-32.600,-37.000,-34.900
0.172,-28.600,-33.000,-37.200,-34.900
0.173,-29.100,-33.300,-37.400,-34.900
0.174,-29.800,-33.700,-37.600,-35.100
0.175,-30.200,-33.900,-37.800,-35.600
0.176,-30.200,-34.100,-38.000,-36.200
0.177,-30.100,-34.200,-38.100,-36.800
0.178,-30.100,-34.400,-38.100,-37.100
0.179,-30.400,-34.600,-38.200,-37.000
0.180,-31.000,-35.000,-38.300,-36.900
0.181,-31.700,-35.500,-38.500,-36.900
0.182,-32.200,-35.900,-38.800,-37.100
0.183,-32.500,-36.200,-39.200,-37.600
0.184,-32.600,-36.400,-39.600,-38.100
0.185,-32.500,-36.300,-40.000,-38.600
0.186,-32.400,-36.200,-40.400,-39.000
0.187,-32.400,-36.200,-40.800,-39.400
0.188,-32.300,-36.400,-41.100,-39.800
0.189,-32.300,-36.900,-41.200,-40.400
0.190,-32.200,-37.300,-41.000,-40.900
0.191,-32.200,-37.600,-40.700,-41.100
0.192,-32.100,-37.500,-40.500,-41.100
0.193,-32.300,-37.200,-40.600,-41.000
0.194,-32.700,-37.000,-41.200,-40.900
0.195,-33.300,-37.100,-42.100,-41.200
0.196,-34.200,-37.600,-43.000,-41.700
0.197,-34.900,-38.300,-43.300,-42.300
0.198,-35.400,-39.100,-43.100,-42.700
0.199,-35.500,-39.500,-42.400,-42.800
0.200,-35.300,-39.700,-41.900,-42.600
0.201,-35.100,-39.800,-41.800,-42.500
0.202,-35.200,-39.900,-42.500,-42.700
0.203,-35.700,-40.300,-43.500,-43.300
0.204,-36.200,-40.800,-44.700,-44.100
0.205,-36.600,-41.500,-45.400,-45.000
0.206,-36.400,-42.100,-45.700,-45.600
0.207,-35.900,-42.500,-45.600,-46.000
0.208,-35.400,-42.900,-45.600,-46.300
0.209,-35.300,-43.300,-45.800,-46.500
0.210,-35.800,-43.800,-46.300,-46.900
0.211,-36.800,-44.200,-46.900,-47.300
0.212,-37.800,-44.500,-47.300,-47.700
0.213,-38.400,-44.500,-47.500,-47.900
0.214,-38.300,-44.200,-47.300,-47.900
0.215,-37.800,-43.800,-46.900,-47.700
0.216,-37.100,-43.500,-46.600,-47.400
0.217,-36.600,-43.200,-46.300,-47.100
0.218,-36.400,-43.100,-46.100,-46.700
0.219,-36.300,-43.200,-45.800,-46.300
0.220,-36.100,-43.200,-45.500,-45.900
0.221,-36.000,-43.300,-45.200,-45.700
0.222,-35.900,-43.200,-45.000,-45.800
0.223,-36.200,-43.000,-45.100,-46.200
0.224,-36.700,-42.700,-45.400,-46.800
0.225,-37.300,-42.400,-45.800,-47.400
0.226,-37.600,-42.100,-46.100,-47.800
0.227,-37.500,-41.900,-46.200,-47.900
0.228,-37.200,-41.800,-46.000,-47.800
0.229,-36.700,-41.600,-45.600,-47.500
0.230,-36.500,-41.400,-45.200,-47.300
0.231,-36.500,-41.200,-44.900,-47.100
0.232,-36.600,-41.000,-44.800,-47.100
0.233,-36.600,-41.100,-44.800,-47.300
0.234,-36.200,-41.500,-44.900,-47.600
0.235,-35.700,-42.100,-45.100,-47.800
0.236,-35.300,-42.700,-45.400,-48.100
0.237,-35.300,-43.000,-45.800,-48.400
0.238,-36.000,-43.000,-46.100,-48.700
0.239,-36.900,-42.900,-46.400,-49.000
0.240,-37.700,-42.700,-46.400,-49.300
0.241,-38.000,-42.800,-46.200,-49.500
0.242,-37.700,-43.100,-46.000,-49.500
0.243,-37.100,-43.500,-45.700,-49.200
0.244,-36.500,-43.800,-45.600,-48.700
0.245,-36.400,-43.900,-45.600,-48.300
0.246,-36.600,-43.700,-45.700,-48.100
0.247,-37.000,-43.300,-45.800,-48.200
0.248,-37.300,-43.000,-45.800,-48.700
0.249,-37.400,-43.000,-46.000,-49.300
0.250,-37.200,-43.400,-46.300,-50.100
0.251,-37.200,-44.000,-46.800,-50.800
0.252,-37.300,-44.600,-47.500,-51.300
0.253,-37.500,-45.200,-48.000,-51.600
0.254,-37.700,-45.500,-48.300,-51.700
0.255,-37.500,-45.600,-48.100,-51.600
0.256,-37.000,-45.600,-47.700,-51.400
0.257,-36.200,-45.500,-47.100,-51.100
0.258,-35.600,-45.400,-46.600,-50.800
0.259,-35.400,-45.400,-46.400,-50.600
0.260,-35.800,-45.300,-46.500,-50.500
0.261,-36.800,-45.300,-46.800,-50.400
0.262,-37.900,-45.400,-47.200,-50.300
0.263,-38.800,-45.800,-47.500,-50.300
0.264,-39.400,-46.300,-47.700,-50.500
0.265,-39.500,-47.100,-47.700,-50.800
0.266,-39.200,-47.900,-47.600,-51.100
0.267,-38.700,-48.600,-47.400,-51.200
0.268,-38.200,-49.200,-47.300,-51.000
0.269,-37.900,-49.700,-47.300,-50.800
0.270,-37.900,-50.100,-47.400,-50.600
0.271,-38.000,-50.400,-47.500,-50.700
0.272,-38.300,-50.500,-47.600,-50.800
0.273,-38.600,-50.500,-47.600,-51.000
0.274,-38.800,-50.300,-47.400,-50.900
0.275,-38.800,-49.900,-47.200,-50.600
0.276,-38.700,-49.600,-47.000,-50.200
0.277,-38.400,-49.300,-47.000,-50.000
0.278,-38.000,-49.100,-47.100,-50.000
0.279,-37.500,-49.200,-47.300,-50.200
0.280,-37.200,-49.400,-47.400,-50.500
0.281,-37.200,-49.500,-47.400,-50.600
0.282,-37.700,-49.600,-47.300,-50.400
0.283,-38.300,-49.500,-47.000,-49.900
0.284,-38.800,-49.300,-46.700,-49.300
0.285,-39.000,-49.000,-46.600,-48.900
0.286,-38.700,-48.800,-46.700,-48.700
0.287,-38.100,-48.700,-47.200,-48.700
0.288,-37.500,-48.800,-48.000,-48.900
0.289,-37.300,-49.100,-48.800,-49.200
0.290,-37.500,-49.500,-49.600,-49.500
0.291,-37.900,-50.000,-50.000,-49.800
0.292,-38.400,-50.400,-50.100,-50.200
0.293,-38.700,-50.600,-50.000,-50.700
0.294,-38.700,-50.600,-49.800,-51.100
0.295,-38.700,-50.400,-49.700,-51.400
0.296,-38.900,-50.000,-49.800,-51.400
0.297,-39.200,-49.400,-49.900,-51.200
0.298,-39.600,-48.800,-50.000,-50.900
0.299,-39.800,-48.200,-49.900,-50.700
0.300,-39.800,-47.800,-49.800,-50.700
0.301,-39.500,-47.500,-49.600,-50.900
0.302,-39.100,-47.300,-49.700,-51.400
0.303,-38.800,-47.200,-49.900,-52.000
0.304,-38.800,-47.000,-50.200,-52.500
0.305,-38.900,-46.700,-50.500,-52.800
0.306,-39.000,-46.500,-50.600,-52.700
0.307,-38.800,-46.400,-50.500,-52.400
0.308,-38.300,-46.400,-50.100,-51.900
0.309,-37.800,-46.500,-49.600,-51.400
0.310,-37.400,-46.600,-49.200,-51.100
0.311,-37.500,-46.400,-49.100,-51.000
0.312,-37.900,-46.200,-49.200,-50.900
0.313,-38.500,-45.900,-49.500,-50.900
0.314,-38.800,-45.700,-49.800,-50.700
0.315,-38.900,-45.700,-50.100,-50.400
0.316,-38.600,-45.600,-50.200,-49.900
0.317,-38.300,-45.500,-50.200,-49.600
0.318,-38.100,-45.300,-50.100,-49.400
0.319,-38.200,-45.100,-49.900,-49.400
0.320,-38.600,-44.900,-49.700,-49.800
0.321,-39.100,-44.800,-49.500,-50.300
0.322,-39.300,-44.900,-49.500,-50.800
0.323,-39.200,-44.900,-49.500,-51.200
0.324,-38.800,-45.000,-49.500,-51.400
0.325,-38.300,-44.800,-49.500,-51.300
0.326,-37.800,-44.500,-49.500,-51.000
0.327,-37.600,-44.000,-49.300,-50.700
0.328,-37.500,-43.300,-49.000,-50.600
0.329,-37.400,-42.400,-48.700,-50.900
0.330,-37.000,-41.400,-48.600,-51.700
0.331,-36.300,-40.400,-48.500,-52.800
0.332,-35.300,-39.100,-48.600,-53.900
0.333,-34.200,-37.600,-48.700,-55.100
0.334,-33.200,-35.700,-48.700,-56.100
0.335,-32.300,-33.300,-48.500,-57.000
0.336,-31.500,-30.400,-48.100,-57.800
0.337,-30.700,-27.300,-47.500,-58.500
0.338,-29.900,-24.200,-46.900,-59.200
0.339,-29.200,-21.500,-46.300,-59.800
0.340,-28.600,-19.300,-45.700,-60.200
0.341,-28.200,-17.600,-44.900,-60.100
0.342,-27.900,-16.100,-43.900,-59.400
0.343,-27.700,-14.600,-42.400,-57.800
0.344,-27.600,-12.900,-40.800,-55.500
0.345,-27.500,-11.000,-39.100,-52.600
0.346,-27.500,-9.100,-37.600,-49.400
0.347,-27.400,-7.200,-36.200,-45.800
0.348,-27.200,-5.700,-34.600,-41.900
0.349,-27.000,-4.700,-32.800,-37.300
0.350,-27.100,-4.400,-30.500,-31.900
0.351,-27.900,-5.000,-28.200,-25.700
0.352,-29.600,-6.400,-26.200,-19.100
0.353,-32.100,-8.600,-24.800,-12.400
0.354,-35.000,-11.200,-24.100,-6.200
0.355,-37.800,-14.100,-23.700,-0.600
0.356,-40.200,-17.100,-23.600,4.800
0.357,-42.300,-20.500,-23.400,10.300
0.358,-44.400,-24.500,-23.200,16.300
0.359,-47.200,-29.400,-23.100,22.900
0.360,-50.700,-34.900,-23.000,30.000
0.361,-54.800,-40.700,-23.000,37.100
0.362,-58.900,-46.100,-22.800,43.700
0.363,-62.400,-50.800,-22.400,49.300
0.364,-65.000,-54.600,-22.100,53.700
0.365,-66.800,-57.800,-22.100,56.700
0.366,-68.300,-60.700,-22.700,58.600
0.367,-69.700,-63.400,-24.100,59.300
0.368,-71.200,-66.000,-26.100,58.900
0.369,-72.600,-68.300,-28.400,57.000
0.370,-73.700,-70.400,-30.900,53.600
0.371,-74.400,-72.700,-33.600,48.400
0.372,-74.800,-75.700,-36.900,41.700
0.373,-75.100,-79.700,-40.700,33.900
0.374,-75.600,-84.400,-44.900,25.800
0.375,-76.200,-89.500,-49.400,18.000
0.376,-77.000,-94.500,-53.600,10.900
0.377,-77.800,-98.900,-57.500,4.500
0.378,-78.500,-102.900,-61.100,-1.900
0.379,-78.900,-106.800,-64.600,-8.800
0.380,-79.000,-110.500,-68.300,-16.800
0.381,-78.700,-113.900,-71.900,-25.700
0.382,-78.100,-116.600,-75.200,-34.900
0.383,-77.200,-118.100,-77.800,-43.300
0.384,-76.200,-118.400,-79.600,-50.400
0.385,-75.200,-117.800,-80.700,-55.800
0.386,-74.100,-116.700,-81.400,-60.100
0.387,-73.100,-115.200,-82.000,-63.600
0.388,-71.800,-113.400,-82.300,-66.900
0.389,-70.400,-110.900,-82.300,-69.700
0.390,-68.900,-107.700,-81.800,-71.900
0.391,-67.400,-103.700,-80.900,-73.200
0.392,-66.100,-99.400,-79.900,-73.800
0.393,-64.900,-95.100,-78.900,-74.200
0.394,-63.700,-91.000,-78.200,-74.700
0.395,-62.300,-86.900,-77.700,-75.500
0.396,-60.700,-82.700,-76.900,-76.400
0.397,-59.100,-78.500,-75.800,-76.900
0.398,-57.900,-74.600,-74.300,-76.700
0.399,-57.200,-71.100,-72.600,-75.900
0.400,-56.900,-68.300,-71.200,-74.700
0.401,-56.700,-66.200,-70.300,-73.600
0.402,-56.400,-64.600,-69.800,-73.000
0.403,-55.700,-63.300,-69.500,-72.800
0.404,-54.700,-62.100,-69.100,-72.900
0.405,-53.700,-61.300,-68.500,-72.800
0.406,-52.700,-60.900,-67.900,-72.700
0.407,-52.100,-60.800,-67.400,-72.600
0.408,-51.700,-60.800,-67.200,-72.600
0.409,-51.500,-60.800,-67.200,-73.000
0.410,-51.300,-60.500,-67.400,-73.500
0.411,-51.100,-60.100,-67.600,-74.200
0.412,-50.800,-59.900,-67.600,-74.600
0.413,-50.600,-60.000,-67.400,-74.800
0.414,-50.300,-60.400,-67.200,-74.700
0.415,-50.000,-60.800,-67.000,-74.400
0.416,-49.600,-60.900,-66.800,-74.200
0.417,-49.300,-60.500,-66.700,-74.000
0.418,-49.100,-59.600,-66.400,-73.900
0.419,-49.100,-58.800,-66.200,-74.000
0.420,-49.300,-58.500,-66.100,-74.400
0.421,-49.400,-59.000,-66.300,-75.200
0.422,-49.600,-60.200,-67.000,-76.400
0.423,-49.600,-61.800,-68.000,-78.000
0.424,-49.700,-63.200,-69.000,-79.700
0.425,-49.600,-64.200,-69.600,-81.100
0.426,-49.500,-64.400,-69.300,-81.700
0.427,-49.100,-64.000,-68.300,-81.500
0.428,-48.300,-63.100,-66.600,-80.600
0.429,-47.400,-61.800,-64.900,-79.400
0.430,-46.500,-60.400,-63.700,-78.300
0.431,-45.900,-59.200,-63.200,-77.700
0.432,-45.700,-58.100,-63.100,-77.400
0.433,-45.900,-57.100,-63.200,-77.100
0.434,-46.100,-56.100,-62.800,-76.500
0.435,-46.100,-55.000,-61.800,-75.300
0.436,-45.900,-53.700,-60.600,-73.700
0.437,-45.800,-52.600,-59.600,-72.300
0.438,-45.800,-51.800,-59.200,-71.400
0.439,-46.100,-51.500,-59.400,-71.100
0.440,-46.500,-51.700,-59.900,-70.800
0.441,-46.700,-51.700,-59.900,-70.100
0.442,-46.400,-51.400,-59.100,-68.500
0.443,-45.700,-50.400,-57.500,-66.000
0.444,-44.800,-48.900,-55.500,-63.200
0.445,-43.900,-47.400,-53.900,-60.800
0.446,-43.200,-46.000,-53.000,-59.300
0.447,-42.800,-45.100,-52.900,-58.800
0.448,-42.500,-44.700,-53.300,-59.100
0.449,-42.100,-44.700,-53.800,-59.700
0.450,-41.900,-44.900,-54.200,-60.300
0.451,-41.800,-45.600,-54.800,-61.000
0.452,-42.100,-46.800,-55.600,-62.200
0.453,-42.800,-48.600,-56.900,-64.100
0.454,-43.700,-51.100,-58.700,-67.000
0.455,-44.700,-54.200,-61.000,-70.700
0.456,-45.600,-57.600,-63.600,-74.700
0.457,-46.500,-61.300,-66.200,-78.600
0.458,-47.400,-64.700,-68.600,-81.900
0.459,-48.300,-67.500,-70.400,-84.400
0.460,-49.200,-69.300,-71.400,-86.000
0.461,-49.900,-69.900,-71.500,-86.800
0.462,-50.100,-69.500,-71.000,-86.900
0.463,-50.000,-68.300,-70.100,-86.600
0.464,-49.500,-66.900,-69.300,-86.100
0.465,-48.800,-65.700,-68.600,-85.500
0.466,-48.200,-64.900,-68.200,-84.900
0.467,-47.800,-64.700,-67.900,-84.500
0.468,-47.700,-64.600,-67.600,-84.300
0.469,-47.800,-64.600,-67.200,-84.100
0.470,-47.900,-64.400,-66.900,-84.000
0.471,-48.100,-64.100,-66.800,-84.000
0.472,-48.200,-63.700,-67.000,-83.900
0.473,-48.100,-63.500,-67.300,-83.700
0.474,-48.000,-63.400,-67.700,-83.500
0.475,-47.800,-63.400,-67.900,-83.300
0.476,-47.700,-63.600,-68.000,-83.100
0.477,-47.900,-63.900,-68.000,-82.900
0.478,-48.300,-64.100,-68.000,-82.700
0.479,-48.800,-64.200,-68.100,-82.400
0.480,-48.900,-64.200,-68.100,-82.100
0.481,-48.600,-63.900,-67.900,-81.800
0.482,-48.100,-63.400,-67.400,-81.600
0.483,-47.500,-62.800,-66.600,-81.500
0.484,-47.300,-62.200,-65.800,-81.400
0.485,-47.600,-61.900,-65.200,-81.400
0.486,-48.200,-61.700,-65.000,-81.400
0.487,-48.900,-61.700,-65.200,-81.200
0.488,-49.300,-61.800,-65.400,-80.900
0.489,-49.300,-62.000,-65.500,-80.400
0.490,-49.000,-62.000,-65.400,-79.700
0.491,-48.800,-62.100,-65.100,-79.100
0.492,-48.900,-62.200,-64.800,-78.700
0.493,-49.100,-62.300,-64.500,-78.400
0.494,-49.400,-62.500,-64.300,-78.400
0.495,-49.500,-62.500,-64.000,-78.500
0.496,-49.300,-62.400,-63.800,-78.600
0.497,-48.900,-62.200,-63.500,-78.500
0.498,-48.500,-61.800,-63.500,-78.300
0.499,-48.300,-61.300,-63.700,-77.900
0.500,-48.300,-61.000,-64.000,-77.600
0.501,-48.500,-60.800,-64.300,-77.400
0.502,-48.900,-60.700,-64.400,-77.500
0.503,-49.200,-60.600,-64.000,-77.700
0.504,-49.300,-60.400,-63.300,-77.900
0.505,-49.100,-60.100,-62.600,-78.000
0.506,-48.600,-59.700,-62.000,-77.900
0.507,-47.800,-59.400,-61.700,-77.700
0.508,-47.100,-59.300,-61.800,-77.600
0.509,-46.700,-59.600,-62.200,-77.600
0.510,-46.800,-60.100,-62.800,-77.900
0.511,-47.300,-60.700,-63.300,-78.300
0.512,-48.000,-61.200,-63.800,-78.700
0.513,-48.600,-61.500,-64.100,-79.200
0.514,-48.800,-61.900,-64.300,-79.700
0.515,-48.800,-62.400,-64.400,-80.100
0.516,-48.800,-63.000,-64.500,-80.400
0.517,-49.000,-63.500,-64.600,-80.500
0.518,-49.500,-63.700,-64.500,-80.400
0.519,-50.100,-63.600,-64.500,-80.200
0.520,-50.600,-63.200,-64.400,-80.000
0.521,-50.800,-62.700,-64.400,-80.000
0.522,-50.600,-62.400,-64.400,-80.100
0.523,-50.300,-62.400,-64.500,-80.200
0.524,-50.300,-62.700,-64.700,-80.200
0.525,-50.500,-63.200,-65.000,-80.000
0.526,-51.000,-63.600,-65.200,-80.000
0.527,-51.300,-63.800,-65.400,-80.100
0.528,-51.300,-63.900,-65.500,-80.600
0.529,-51.000,-64.000,-65.600,-81.200
0.530,-50.400,-64.200,-65.700,-81.800
0.531,-50.100,-64.700,-65.700,-82.000
0.532,-50.100,-65.300,-65.800,-82.000
0.533,-50.600,-65.900,-65.800,-81.800
0.534,-51.300,-66.500,-65.800,-81.800
0.535,-52.000,-67.100,-65.800,-82.100
0.536,-52.400,-67.700,-66.000,-82.800
0.537,-52.800,-68.200,-66.300,-83.600
0.538,-53.200,-68.800,-66.900,-84.200
0.539,-53.900,-69.300,-67.600,-84.500
0.540,-54.700,-69.700,-68.300,-84.500
0.541,-55.300,-69.900,-68.800,-84.300
0.542,-55.400,-69.800,-69.100,-83.900
0.543,-55.000,-69.600,-69.100,-83.600
0.544,-54.300,-69.500,-68.800,-83.300
0.545,-53.700,-69.700,-68.500,-83.100
0.546,-53.500,-70.100,-68.200,-82.900
0.547,-53.700,-70.700,-68.000,-82.800
0.548,-54.200,-71.200,-68.000,-82.600
0.549,-54.800,-71.300,-68.000,-82.300
0.550,-55.100,-71.100,-68.100,-82.000
0.551,-55.200,-70.700,-68.200,-81.600
0.552,-55.100,-70.500,-68.300,-81.400
0.553,-55.200,-70.700,-68.500,-81.300
0.554,-55.400,-71.200,-68.600,-81.300
0.555,-55.800,-71.900,-68.700,-81.300
0.556,-56.400,-72.500,-68.700,-81.200
0.557,-56.900,-72.900,-68.800,-81.000
0.558,-57.400,-73.000,-68.900,-80.800
0.559,-57.800,-73.100,-69.200,-80.600
0.560,-57.900,-73.300,-69.700,-80.600
0.561,-57.800,-73.700,-70.200,-80.800
0.562,-57.500,-74.200,-70.400,-81.100
0.563,-57.200,-74.500,-70.400,-81.300
0.564,-57.100,-74.700,-70.000,-81.200
0.565,-57.300,-74.800,-69.500,-80.900
0.566,-57.600,-74.600,-68.900,-80.400
0.567,-57.800,-74.500,-68.500,-80.000
0.568,-57.700,-74.300,-68.300,-79.800
0.569,-57.500,-74.300,-68.200,-79.700
0.570,-57.200,-74.400,-68.200,-79.700
0.571,-57.100,-74.700,-68.200,-79.600
0.572,-57.300,-75.200,-68.300,-79.500
0.573,-57.700,-75.800,-68.500,-79.200
0.574,-58.000,-76.400,-68.700,-78.900
0.575,-58.100,-76.900,-68.900,-78.700
0.576,-58.200,-77.300,-69.100,-78.600
0.577,-58.300,-77.300,-69.300,-78.400
0.578,-58.800,-77.300,-69.500,-78.100
0.579,-59.700,-77.100,-69.700,-77.600
0.580,-60.700,-77.000,-69.900,-76.900
0.581,-61.500,-77.000,-70.100,-76.000
0.582,-61.900,-77.100,-69.900,-75.000
0.583,-61.800,-77.200,-69.400,-74.100
0.584,-61.400,-77.200,-68.600,-73.300
0.585,-61.100,-77.200,-67.700,-72.800
0.586,-60.800,-77.000,-66.900,-72.500
0.587,-60.700,-77.000,-66.600,-72.400
0.588,-60.700,-77.200,-66.800,-72.600
0.589,-60.700,-77.800,-67.300,-73.000
0.590,-60.900,-78.700,-68.200,-73.700
0.591,-61.200,-79.800,-69.000,-74.300
0.592,-61.800,-80.700,-69.700,-74.700
0.593,-62.400,-81.300,-70.100,-74.900
0.594,-62.900,-81.500,-70.200,-74.800
0.595,-63.100,-81.500,-70.400,-74.600
0.596,-63.200,-81.800,-70.500,-74.400
0.597,-63.200,-82.300,-70.900,-74.200
0.598,-63.500,-82.900,-71.200,-73.900
0.599,-64.200,-83.500,-71.500,-73.500
0.600,-65.100,-83.700,-71.500,-72.900
0.601,-66.000,-83.300,-71.200,-72.300
0.602,-66.500,-82.700,-70.700,-71.700
0.603,-66.400,-82.000,-70.200,-71.400
0.604,-65.900,-81.600,-70.000,-71.500
0.605,-65.300,-81.600,-70.000,-71.700
0.606,-64.900,-81.900,-70.200,-72.000
0.607,-65.000,-82.500,-70.400,-72.200
0.608,-65.600,-83.000,-70.400,-72.300
0.609,-66.300,-83.400,-70.300,-72.300
0.610,-66.900,-83.700,-70.200,-72.200
0.611,-67.300,-83.900,-70.100,-72.000
0.612,-67.600,-83.900,-70.200,-71.600
0.613,-67.700,-83.900,-70.400,-71.000
0.614,-67.900,-83.800,-70.700,-70.000
0.615,-68.000,-83.600,-71.000,-68.900
0.616,-68.000,-83.300,-71.000,-67.700
0.617,-67.800,-83.100,-70.800,-66.700
0.618,-67.700,-82.900,-70.500,-66.000
0.619,-67.600,-82.800,-70.200,-65.500
0.620,-67.900,-83.000,-70.000,-65.200
0.621,-68.700,-83.400,-70.000,-64.800
0.622,-69.800,-84.000,-70.300,-64.500
0.623,-70.900,-84.800,-70.600,-64.300
0.624,-71.700,-85.400,-70.900,-64.200
0.625,-71.800,-85.800,-71.100,-64.400
0.626,-71.400,-85.800,-71.100,-64.700
0.627,-70.500,-85.500,-70.800,-65.100
0.628,-69.500,-85.200,-70.400,-65.600
0.629,-68.800,-85.000,-70.100,-66.000
0.630,-68.500,-85.000,-70.000,-66.400
0.631,-68.600,-85.200,-70.200,-66.800
0.632,-68.800,-85.400,-70.400,-67.100
0.633,-68.900,-85.300,-70.400,-67.200
0.634,-68.800,-85.000,-70.100,-66.900
0.635,-68.600,-84.500,-69.400,-66.400
0.636,-68.400,-83.900,-68.600,-65.700
0.637,-68.400,-83.500,-67.800,-65.000
0.638,-68.700,-83.100,-67.400,-64.600
0.639,-69.100,-82.800,-67.400,-64.300
0.640,-69.500,-82.500,-67.700,-64.100
0.641,-69.600,-82.000,-68.100,-63.900
0.642,-69.500,-81.600,-68.400,-63.900
0.643,-69.200,-81.300,-68.500,-64.000
0.644,-68.900,-81.200,-68.700,-64.500
0.645,-69.000,-81.500,-69.000,-65.300
0.646,-69.300,-81.900,-69.300,-66.300
0.647,-69.600,-82.300,-69.600,-67.300
0.648,-69.800,-82.300,-69.700,-68.000
0.649,-69.600,-81.900,-69.300,-68.400
0.650,-68.900,-81.200,-68.800,-68.900
0.651,-68.000,-80.200,-68.300,-69.500
0.652,-67.100,-79.300,-68.100,-70.300
0.653,-66.400,-78.600,-68.200,-71.300
0.654,-66.000,-77.900,-68.400,-72.300
0.655,-65.800,-77.400,-68.500,-73.100
0.656,-65.600,-77.000,-68.300,-73.700
0.657,-65.500,-76.600,-68.000,-74.000
0.658,-65.400,-76.200,-67.800,-74.100
0.659,-65.400,-76.000,-67.900,-74.200
0.660,-65.400,-75.800,-68.300,-74.400
0.661,-65.400,-75.700,-68.800,-74.500
0.662,-65.200,-75.400,-68.900,-74.800
0.663,-64.700,-74.900,-68.700,-75.100
0.664,-63.900,-74.400,-68.100,-75.600
0.665,-62.900,-73.800,-67.400,-76.300
0.666,-61.900,-73.200,-66.900,-77.000
0.667,-60.900,-72.700,-66.500,-77.700
0.668,-60.000,-72.200,-66.200,-78.200
0.669,-59.300,-71.800,-65.800,-78.600
0.670,-58.800,-71.300,-65.200,-78.800
0.671,-58.400,-70.800,-64.500,-78.800
0.672,-58.000,-70.100,-63.700,-78.700
0.673,-57.500,-69.400,-63.100,-78.500
0.674,-56.900,-68.500,-62.900,-78.400
0.675,-56.300,-67.600,-63.200,-78.400
0.676,-55.700,-66.800,-63.700,-78.500
0.677,-55.500,-66.000,-64.300,-78.700
0.678,-55.500,-65.300,-64.700,-79.000
0.679,-55.700,-64.700,-64.800,-79.100
0.680,-55.800,-63.900,-64.600,-79.100
0.681,-55.600,-63.000,-64.200,-79.000
0.682,-55.100,-62.100,-63.800,-79.000
0.683,-54.600,-61.500,-63.600,-79.300
0.684,-54.300,-61.400,-63.700,-79.900
0.685,-54.400,-61.700,-64.000,-80.900
0.686,-54.800,-62.400,-64.500,-82.000
0.687,-55.000,-63.000,-64.900,-83.100
0.688,-54.800,-63.400,-65.100,-83.900
0.689,-54.000,-63.500,-65.000,-84.400
0.690,-53.000,-63.300,-64.700,-84.900
0.691,-52.200,-63.000,-64.500,-85.300
0.692,-51.800,-62.900,-64.400,-85.800
0.693,-52.000,-63.000,-64.400,-86.400
0.694,-52.300,-63.200,-64.600,-87.000
0.695,-52.500,-63.400,-64.700,-87.500
0.696,-52.400,-63.400,-64.800,-87.900
0.697,-52.100,-63.200,-64.700,-88.100
0.698,-51.800,-62.900,-64.600,-88.300
0.699,-51.600,-62.500,-64.400,-88.100
0.700,-51.700,-62.000,-64.100,-87.600
0.701,-51.600,-61.600,-63.800,-86.800
0.702,-51.500,-61.100,-63.500,-85.700
0.703,-51.100,-60.700,-63.100,-84.700
0.704,-50.800,-60.300,-62.900,-84.100
0.705,-50.700,-60.100,-62.900,-84.200
0.706,-50.700,-60.200,-63.100,-84.800
0.707,-50.700,-60.600,-63.500,-85.600
0.708,-50.400,-61.400,-64.000,-86.500
0.709,-49.800,-62.300,-64.300,-87.000
0.710,-49.000,-63.100,-64.200,-87.100
0.711,-48.200,-63.800,-63.900,-86.900
0.712,-47.600,-64.100,-63.500,-86.600
0.713,-47.400,-64.100,-63.000,-86.300
0.714,-47.300,-64.000,-62.800,-86.000
0.715,-47.300,-63.700,-62.700,-85.700
0.716,-47.200,-63.200,-62.700,-85.300
0.717,-47.200,-62.500,-62.600,-84.800
0.718,-47.400,-61.700,-62.200,-84.300
0.719,-47.800,-60.900,-61.700,-84.000
0.720,-48.300,-60.300,-61.200,-84.000
0.721,-48.600,-60.000,-60.900,-84.200
0.722,-48.700,-60.000,-60.800,-84.400
0.723,-48.400,-60.100,-60.900,-84.500
0.724,-48.100,-60.000,-61.100,-84.500
0.725,-47.800,-59.700,-61.100,-84.600
0.726,-47.700,-59.200,-60.900,-84.800
0.727,-47.700,-58.800,-60.500,-85.100
0.728,-47.400,-58.500,-59.800,-85.400
0.729,-46.700,-58.300,-58.900,-85.300
0.730,-45.700,-58.200,-57.800,-84.700
0.731,-44.700,-57.900,-56.700,-83.700
0.732,-43.900,-57.400,-55.700,-82.800
0.733,-43.700,-57.100,-55.000,-82.200
0.734,-43.700,-56.900,-54.800,-82.200
0.735,-43.900,-57.000,-55.100,-82.400
0.736,-43.900,-57.000,-55.400,-82.400
0.737,-43.700,-56.800,-55.500,-81.700
0.738,-43.400,-55.900,-55.200,-80.300
0.739,-43.100,-54.600,-54.300,-78.500
0.740,-43.000,-53.200,-53.100,-76.800
0.741,-43.100,-52.300,-52.000,-75.800
0.742,-43.200,-52.000,-51.300,-75.800
0.743,-43.400,-52.200,-51.200,-76.500
0.744,-43.400,-52.700,-51.500,-77.600
0.745,-43.100,-53.100,-51.800,-78.400
0.746,-42.700,-53.100,-52.000,-78.800
0.747,-41.900,-52.900,-51.800,-78.600
0.748,-40.900,-52.700,-51.300,-78.100
0.749,-39.900,-52.500,-50.600,-77.300
0.750,-39.000,-52.500,-50.100,-76.500
0.751,-38.400,-52.400,-49.600,-75.900
0.752,-38.100,-52.200,-49.300,-75.400
0.753,-38.100,-51.800,-49.000,-75.100
0.754,-38.200,-51.200,-48.500,-74.700
0.755,-38.200,-50.500,-47.800,-74.200
0.756,-38.100,-49.800,-47.100,-73.500
0.757,-38.000,-49.100,-46.600,-72.700
0.758,-38.000,-48.500,-46.300,-71.800
0.759,-38.000,-48.200,-46.300,-71.100
0.760,-38.200,-48.000,-46.400,-70.500
0.761,-38.300,-48.000,-46.500,-70.000
0.762,-38.400,-47.800,-46.400,-69.600
0.763,-38.300,-47.500,-46.000,-69.200
0.764,-38.000,-47.000,-45.400,-68.900
0.765,-37.600,-46.500,-44.800,-68.800
0.766,-37.100,-46.100,-44.600,-69.000
0.767,-36.400,-45.800,-44.600,-69.500
0.768,-35.600,-45.700,-44.800,-70.000
0.769,-34.700,-45.500,-44.900,-70.200
0.770,-34.100,-45.300,-44.900,-70.000
0.771,-33.700,-45.000,-44.500,-69.400
0.772,-33.600,-44.700,-44.100,-68.700
0.773,-33.800,-44.600,-43.800,-68.100
0.774,-33.800,-44.700,-43.600,-67.600
0.775,-33.700,-44.800,-43.500,-67.400
0.776,-33.400,-44.700,-43.400,-67.000
0.777,-33.100,-44.300,-43.000,-66.500
0.778,-33.000,-43.700,-42.400,-65.700
0.779,-33.300,-43.100,-41.800,-64.800
0.780,-34.200,-42.700,-41.400,-64.200
0.781,-35.200,-42.500,-41.300,-64.100
0.782,-36.200,-42.500,-41.400,-64.300
0.783,-36.700,-42.500,-41.700,-64.800
0.784,-36.700,-42.500,-41.800,-65.400
0.785,-36.200,-42.600,-41.600,-65.800
0.786,-35.400,-42.700,-41.200,-66.000
0.787,-34.500,-42.900,-40.500,-66.000
0.788,-33.400,-43.000,-39.800,-65.900
0.789,-32.400,-43.000,-39.100,-65.800
0.790,-31.200,-42.600,-38.500,-65.700
0.791,-30.300,-42.000,-38.100,-65.700
0.792,-29.600,-41.200,-37.800,-65.600
0.793,-29.300,-40.600,-37.600,-65.500
0.794,-29.300,-40.400,-37.400,-65.400
0.795,-29.600,-40.500,-37.300,-65.300
0.796,-29.800,-40.600,-37.300,-65.200
0.797,-30.000,-40.600,-37.300,-65.100
0.798,-30.200,-40.400,-37.400,-64.900
0.799,-30.500,-40.000,-37.600,-64.700
0.800,-30.900,-39.600,-37.900,-64.400
0.801,-31.500,-39.400,-38.300,-64.200
0.802,-32.000,-39.700,-38.700,-64.100
0.803,-32.200,-40.300,-39.100,-64.200
0.804,-32.100,-41.000,-39.500,-64.300
0.805,-31.900,-41.600,-39.700,-64.300
0.806,-31.600,-42.000,-39.900,-64.100
0.807,-31.500,-42.000,-40.000,-63.600
0.808,-31.500,-41.800,-39.900,-63.000
0.809,-31.600,-41.500,-39.600,-62.400
0.810,-31.600,-41.300,-39.100,-61.900
0.811,-31.500,-41.300,-38.400,-61.600
0.812,-31.300,-41.300,-37.800,-61.400
0.813,-31.000,-41.200,-37.500,-61.100
0.814,-30.900,-41.000,-37.400,-60.700
0.815,-30.900,-40.700,-37.600,-60.200
0.816,-31.300,-40.500,-37.900,-59.700
0.817,-32.000,-40.400,-38.100,-59.300
0.818,-32.900,-40.500,-38.100,-59.000
0.819,-33.600,-40.600,-37.900,-58.800
0.820,-34.100,-40.500,-37.500,-58.600
0.821,-34.400,-40.200,-37.100,-58.300
0.822,-34.300,-39.700,-36.700,-57.900
0.823,-34.200,-39.000,-36.200,-57.300
0.824,-34.100,-38.300,-35.800,-56.600
0.825,-34.000,-37.800,-35.400,-55.900
0.826,-33.700,-37.600,-35.100,-55.500
0.827,-33.200,-37.500,-35.000,-55.400
0.828,-32.500,-37.500,-35.000,-55.700
0.829,-31.600,-37.500,-35.100,-56.300
0.830,-30.900,-37.400,-35.100,-56.800
0.831,-30.400,-37.200,-34.900,-56.900
0.832,-30.200,-37.200,-34.600,-56.600
0.833,-30.300,-37.300,-34.100,-55.900
0.834,-30.400,-37.600,-33.800,-55.300
0.835,-30.600,-38.100,-33.600,-54.900
0.836,-31.000,-38.500,-33.800,-55.100
0.837,-31.700,-38.900,-34.300,-55.700
0.838,-32.800,-39.000,-34.900,-56.400
0.839,-33.800,-39.000,-35.400,-57.100
0.840,-34.700,-38.900,-35.500,-57.400
0.841,-35.000,-38.800,-35.300,-57.500
0.842,-34.700,-38.700,-34.900,-57.300
0.843,-34.200,-38.700,-34.500,-57.000
0.844,-33.700,-38.600,-34.100,-56.600
0.845,-33.400,-38.400,-33.800,-56.300
0.846,-33.100,-38.000,-33.500,-56.000
0.847,-32.800,-37.400,-33.000,-55.900
0.848,-32.300,-36.700,-32.600,-56.100
0.849,-31.500,-36.100,-32.200,-56.400
0.850,-30.800,-35.600,-32.200,-56.700
0.851,-30.300,-35.300,-32.400,-56.700
0.852,-30.200,-35.100,-32.600,-56.500
0.853,-30.100,-35.100,-32.500,-55.900
0.854,-30.000,-35.000,-32.100,-55.000
0.855,-29.800,-34.900,-31.600,-54.200
0.856,-29.500,-34.700,-31.300,-53.600
0.857,-29.500,-34.500,-31.500,-53.200
0.858,-30.000,-34.400,-32.200,-52.900
0.859,-31.100,-34.500,-33.000,-52.800
0.860,-32.400,-34.700,-33.500,-52.600
0.861,-33.400,-34.800,-33.400,-52.300
0.862,-33.800,-34.900,-32.800,-51.900
0.863,-33.600,-35.000,-32.000,-51.400
0.864,-32.900,-35.000,-31.400,-50.800
0.865,-32.200,-35.200,-31.200,-50.300
0.866,-31.600,-35.500,-31.100,-50.000
0.867,-31.300,-35.900,-31.100,-50.100
0.868,-31.100,-36.200,-30.800,-50.700
0.869,-30.800,-36.400,-30.400,-51.700
0.870,-30.500,-36.500,-29.800,-52.700
0.871,-30.000,-36.400,-29.400,-53.400
0.872,-29.600,-36.300,-29.100,-53.400
0.873,-29.100,-36.300,-29.000,-52.800
0.874,-28.800,-36.200,-28.900,-51.800
0.875,-28.700,-36.000,-28.800,-50.700
0.876,-28.800,-35.700,-28.900,-49.900
0.877,-29.100,-35.300,-29.100,-49.400
0.878,-29.600,-34.900,-29.500,-49.400
0.879,-30.100,-34.700,-30.100,-49.600
0.880,-30.600,-34.700,-30.600,-50.000
0.881,-31.000,-35.000,-30.700,-50.500
0.882,-31.200,-35.300,-30.400,-50.900
0.883,-31.300,-35.500,-29.900,-51.200
0.884,-31.100,-35.700,-29.300,-51.400
0.885,-30.600,-35.700,-28.800,-51.300
0.886,-29.800,-35.700,-28.400,-51.200
0.887,-28.700,-35.600,-28.100,-51.100
0.888,-27.800,-35.600,-27.600,-51.000
0.889,-27.300,-35.400,-27.100,-50.900
0.890,-27.300,-35.300,-26.500,-50.900
0.891,-27.700,-35.100,-26.100,-50.800
0.892,-28.000,-34.900,-25.800,-50.700
0.893,-27.900,-34.600,-25.700,-50.500
0.894,-27.300,-34.200,-25.800,-50.200
0.895,-26.500,-33.500,-26.000,-49.800
0.896,-25.800,-32.700,-26.200,-49.300
0.897,-25.600,-32.000,-26.600,-48.900
0.898,-26.100,-31.800,-27.100,-48.600
0.899,-27.100,-32.000,-27.400,-48.300
0.900,-28.100,-32.700,-27.600,-48.200
0.901,-28.900,-33.300,-27.500,-48.000
0.902,-29.300,-33.500,-27.200,-47.800
0.903,-29.200,-33.400,-26.700,-47.600
0.904,-29.000,-33.000,-26.500,-47.600
0.905,-28.800,-32.900,-26.500,-47.800
0.906,-28.600,-33.200,-26.900,-48.400
0.907,-28.400,-34.200,-27.400,-49.300
0.908,-28.200,-35.500,-27.900,-50.500
0.909,-27.800,-36.900,-28.500,-51.700
0.910,-27.400,-37.900,-29.100,-52.800
0.911,-27.200,-38.300,-29.700,-53.500
0.912,-27.300,-38.300,-30.200,-53.700
0.913,-27.600,-37.800,-30.400,-53.200
0.914,-27.800,-37.100,-30.100,-52.100
0.915,-27.800,-36.100,-29.300,-50.700
0.916,-27.600,-35.000,-28.300,-49.400
0.917,-27.300,-33.900,-27.300,-48.400
0.918,-27.200,-32.900,-26.500,-47.700
0.919,-27.300,-31.900,-26.000,-47.200
0.920,-27.700,-30.800,-25.500,-46.300
0.921,-28.100,-29.500,-25.000,-44.900
0.922,-28.300,-28.200,-24.100,-42.900
0.923,-28.200,-26.900,-23.100,-40.800
0.924,-27.800,-25.800,-22.000,-38.800
0.925,-27.000,-24.800,-20.700,-37.000
0.926,-26.100,-23.900,-19.300,-35.200
0.927,-25.000,-22.800,-17.900,-33.100
0.928,-23.800,-21.600,-16.400,-30.700
0.929,-22.600,-20.200,-15.000,-28.100
0.930,-21.500,-18.900,-13.700,-25.700
0.931,-20.800,-17.800,-12.700,-23.900
0.932,-20.400,-17.000,-11.900,-22.800
0.933,-20.200,-16.300,-11.200,-22.300
0.934,-20.000,-15.900,-10.600,-22.300
0.935,-19.700,-15.600,-10.300,-22.400
0.936,-19.300,-15.700,-10.300,-22.800
0.937,-19.000,-16.300,-10.900,-23.600
0.938,-19.000,-17.700,-12.200,-25.100
0.939,-19.700,-19.800,-14.100,-27.600
0.940,-20.900,-22.600,-16.600,-31.000
0.941,-22.400,-25.900,-19.200,-34.900
0.942,-23.900,-29.300,-21.600,-38.800
0.943,-25.000,-32.300,-23.500,-42.000
0.944,-25.400,-34.400,-24.500,-44.000
0.945,-25.100,-35.300,-24.500,-44.700
0.946,-24.300,-35.000,-23.700,-44.300
0.947,-23.300,-33.700,-22.300,-43.100
0.948,-22.300,-31.900,-20.600,-41.400
0.949,-21.500,-30.200,-19.000,-39.600
0.950,-20.800,-28.900,-17.600,-38.000
0.951,-20.500,-28.400,-16.700,-36.600
0.952,-20.400,-28.300,-16.200,-35.800
0.953,-20.400,-28.400,-16.200,-35.400
0.954,-20.500,-28.500,-16.400,-35.500
0.955,-20.600,-28.500,-16.700,-35.800
0.956,-20.700,-28.400,-17.100,-36.300
0.957,-20.800,-28.300,-17.400,-36.600
0.958,-21.100,-28.200,-17.800,-36.900
0.959,-21.600,-28.200,-18.300,-37.200
0.960,-22.100,-28.200,-18.700,-37.600
0.961,-22.600,-28.200,-19.200,-38.000
0.962,-23.000,-28.100,-19.600,-38.300
0.963,-23.100,-28.200,-19.900,-38.400
0.964,-23.100,-28.400,-19.900,-38.300
0.965,-22.900,-28.800,-19.900,-38.100
0.966,-22.800,-29.200,-19.600,-38.000
0.967,-22.500,-29.600,-19.300,-38.100
0.968,-22.100,-29.900,-19.000,-38.300
0.969,-21.500,-29.900,-18.600,-38.400
0.970,-20.800,-29.800,-18.300,-38.200
0.971,-20.300,-29.500,-18.100,-37.700
0.972,-20.100,-29.200,-17.900,-37.000
0.973,-20.200,-28.800,-17.800,-36.200
0.974,-20.400,-28.300,-17.700,-35.600
0.975,-20.600,-27.700,-17.600,-35.000
0.976,-20.600,-27.000,-17.500,-34.500
0.977,-20.500,-26.400,-17.300,-33.800
0.978,-20.600,-25.800,-17.100,-33.000
0.979,-20.700,-25.400,-16.700,-32.100
0.980,-20.900,-25.000,-16.200,-31.400
0.981,-20.900,-24.900,-15.900,-31.200
0.982,-20.700,-24.800,-15.900,-31.600
0.983,-20.400,-25.000,-16.500,-32.400
0.984,-20.100,-25.400,-17.300,-33.300
0.985,-20.100,-26.000,-18.000,-34.100
0.986,-20.200,-26.600,-18.200,-34.400
0.987,-20.200,-27.300,-17.700,-34.100
0.988,-20.000,-27.800,-16.600,-33.500
0.989,-19.500,-28.000,-15.300,-32.800
0.990,-18.700,-28.000,-14.300,-32.300
0.991,-18.100,-27.700,-13.800,-32.100
0.992,-17.700,-27.300,-13.900,-32.100
0.993,-17.600,-26.900,-14.300,-32.300
0.994,-17.700,-26.700,-14.600,-32.600
0.995,-17.800,-26.700,-14.700,-32.700
0.996,-17.800,-26.900,-14.800,-32.900
0.997,-18.000,-27.200,-14.700,-33.000
0.998,-18.500,-27.400,-14.800,-33.100
0.999,-19.100,-27.400,-14.800,-33.300
1.000,-19.700,-27.300,-14.700,-33.500
1.001,-20.100,-27.300,-14.600,-33.700
1.002,-20.200,-27.500,-14.600,-33.900
1.003,-20.100,-27.900,-14.700,-33.900
1.004,-20.000,-28.200,-14.900,-33.800
1.005,-20.100,-28.400,-15.100,-33.600
1.006,-20.300,-28.200,-15.100,-33.200
1.007,-20.400,-27.600,-14.700,-32.500
1.008,-20.000,-26.900,-14.100,-31.700
1.009,-19.100,-26.300,-13.400,-30.800
1.010,-18.000,-26.000,-12.900,-30.100
1.011,-17.100,-26.000,-12.600,-29.500
1.012,-16.600,-26.300,-12.600,-29.400
1.013,-16.700,-26.800,-12.700,-29.600
1.014,-17.000,-27.100,-12.900,-30.000
1.015,-17.400,-27.400,-13.100,-30.500
1.016,-17.600,-27.400,-13.300,-30.800
1.017,-17.800,-27.100,-13.400,-30.900
1.018,-17.800,-26.500,-13.300,-30.500
1.019,-17.800,-25.700,-13.100,-30.000
1.020,-17.700,-24.800,-12.600,-29.500
1.021,-17.600,-24.100,-12.300,-29.200
1.022,-17.500,-23.600,-12.200,-29.400
1.023,-17.600,-23.400,-12.500,-29.900
1.024,-18.100,-23.500,-13.100,-30.600
1.025,-18.700,-23.700,-13.900,-31.400
1.026,-19.100,-23.900,-14.300,-31.900
1.027,-19.000,-24.100,-14.300,-32.100
1.028,-18.300,-24.300,-13.800,-32.100
1.029,-17.200,-24.700,-13.100,-32.000
1.030,-16.000,-25.200,-12.500,-32.000
1.031,-15.200,-25.700,-12.200,-32.100
1.032,-15.000,-26.000,-12.100,-32.200
1.033,-15.200,-26.000,-12.200,-32.100
1.034,-15.700,-25.600,-12.200,-31.800
1.035,-16.100,-25.100,-11.900,-31.300
1.036,-16.300,-24.500,-11.600,-31.000
1.037,-16.500,-24.100,-11.200,-31.000
1.038,-16.800,-23.800,-11.000,-31.200
1.039,-17.100,-23.600,-10.900,-31.500
1.040,-17.300,-23.500,-10.800,-31.400
1.041,-17.600,-23.400,-10.700,-30.800
1.042,-17.700,-23.300,-10.600,-29.800
1.043,-17.700,-23.200,-10.700,-28.900
1.044,-17.600,-23.300,-10.900,-28.500
1.045,-17.200,-23.400,-11.200,-28.600
1.046,-16.600,-23.500,-11.500,-29.100
1.047,-15.800,-23.400,-11.500,-29.700
1.048,-15.000,-23.200,-11.100,-29.900
1.049,-14.500,-22.900,-10.500,-29.700
1.050,-14.300,-22.700,-9.900,-29.200
1.051,-14.500,-22.800,-9.600,-28.700
1.052,-14.700,-23.100,-9.700,-28.500
1.053,-14.500,-23.600,-10.000,-28.500
1.054,-13.800,-24.100,-10.300,-28.500
1.055,-13.000,-24.300,-10.400,-28.400
1.056,-12.300,-24.100,-10.200,-27.900
1.057,-12.100,-23.600,-9.800,-27.300
1.058,-12.500,-23.100,-9.600,-26.800
1.059,-13.300,-22.800,-9.700,-26.600
1.060,-14.000,-23.000,-10.100,-26.600
1.061,-14.500,-23.500,-10.700,-26.900
1.062,-14.800,-24.200,-11.300,-27.200
1.063,-15.100,-24.900,-11.900,-27.300
1.064,-15.300,-25.600,-12.400,-27.300
1.065,-15.600,-26.100,-12.900,-27.100
1.066,-15.600,-26.600,-13.300,-26.900
1.067,-15.400,-27.200,-13.700,-26.800
1.068,-14.900,-27.800,-13.900,-26.800
1.069,-14.400,-28.400,-14.000,-26.600
1.070,-14.200,-28.800,-14.200,-26.200
1.071,-14.100,-28.900,-14.500,-25.700
1.072,-14.200,-28.800,-14.700,-25.000
1.073,-14.200,-28.600,-14.700,-24.400
1.074,-14.200,-28.300,-14.300,-23.800
1.075,-14.300,-28.200,-13.500,-23.400
1.076,-14.500,-28.200,-12.700,-23.100
1.077,-15.100,-28.100,-12.100,-23.100
1.078,-15.900,-28.000,-11.900,-23.300
1.079,-16.600,-27.600,-12.200,-23.700
1.080,-17.000,-27.300,-12.800,-24.300
1.081,-16.900,-26.900,-13.400,-24.700
1.082,-16.700,-26.800,-13.800,-25.000
1.083,-16.300,-26.900,-14.000,-25.000
1.084,-16.100,-27.200,-13.900,-24.800
1.085,-16.000,-27.600,-13.700,-24.400
1.086,-16.000,-28.100,-13.400,-24.000
1.087,-16.000,-28.500,-13.100,-23.400
1.088,-15.900,-28.600,-12.700,-22.800
1.089,-15.700,-28.500,-12.300,-22.100
1.090,-15.400,-28.000,-12.000,-21.500
1.091,-15.100,-27.300,-11.800,-21.000
1.092,-14.600,-26.600,-11.600,-20.900
1.093,-14.200,-26.100,-11.300,-20.900
1.094,-13.700,-25.800,-11.100,-21.200
1.095,-13.500,-25.800,-11.000,-21.600
1.096,-13.500,-25.900,-11.000,-21.800
1.097,-13.700,-25.900,-11.200,-21.900
1.098,-14.200,-25.600,-11.500,-21.700
1.099,-14.800,-25.000,-11.800,-21.300
1.100,-15.300,-24.100,-11.900,-21.000
1.101,-15.600,-23.300,-11.800,-20.700
1.102,-15.500,-22.600,-11.500,-20.700
1.103,-15.000,-22.200,-11.000,-20.900
1.104,-14.200,-22.000,-10.400,-21.200
1.105,-13.500,-22.000,-9.800,-21.300
1.106,-12.900,-22.000,-9.400,-21.100
1.107,-12.800,-22.000,-9.100,-20.600
1.108,-12.900,-21.800,-9.000,-19.800
1.109,-13.100,-21.500,-9.000,-19.100
1.110,-13.100,-21.200,-9.000,-18.700
1.111,-12.600,-20.900,-8.900,-18.500
1.112,-11.800,-20.700,-8.600,-18.500
1.113,-10.900,-20.500,-8.200,-18.700
1.114,-10.400,-20.300,-7.800,-18.800
1.115,-10.400,-20.100,-7.600,-18.800
1.116,-10.900,-20.000,-7.600,-18.800
1.117,-11.600,-20.000,-7.800,-18.700
1.118,-12.300,-20.300,-8.100,-18.800
1.119,-12.500,-20.700,-8.400,-19.000
1.120,-12.300,-21.100,-8.500,-19.100
1.121,-11.800,-21.100,-8.400,-19.100
1.122,-11.300,-20.700,-8.300,-19.000
1.123,-11.000,-20.000,-8.200,-18.800
1.124,-11.100,-19.400,-8.300,-18.800
1.125,-11.300,-19.300,-8.500,-19.000
1.126,-11.700,-19.700,-8.800,-19.500
1.127,-11.800,-20.600,-9.000,-20.000
1.128,-11.700,-21.500,-9.000,-20.400
1.129,-11.300,-22.100,-8.800,-20.600
1.130,-10.800,-21.900,-8.500,-20.500
1.131,-10.300,-21.200,-8.200,-20.300
1.132,-10.100,-20.200,-8.000,-20.000
1.133,-10.000,-19.300,-7.800,-19.800
1.134,-10.100,-18.700,-7.600,-19.800
1.135,-10.000,-18.300,-7.500,-20.000
1.136,-9.800,-18.100,-7.400,-20.700
1.137,-9.300,-17.500,-7.400,-21.800
1.138,-8.600,-16.400,-7.500,-23.300
1.139,-7.700,-14.500,-7.900,-25.000
1.140,-6.600,-11.900,-8.100,-26.600
1.141,-5.500,-8.800,-8.100,-27.900
1.142,-4.300,-5.200,-7.600,-28.700
1.143,-3.100,-1.500,-6.500,-29.200
1.144,-2.000,2.100,-4.900,-29.300
1.145,-0.900,5.300,-3.300,-29.200
1.146,0.100,8.100,-1.800,-28.800
1.147,0.900,10.300,-0.500,-28.100
1.148,1.400,12.000,0.600,-27.000
1.149,1.500,13.300,1.600,-25.500
1.150,1.100,14.500,2.800,-23.600
1.151,0.500,15.800,4.300,-21.000
1.152,-0.100,17.300,6.100,-17.600
1.153,-0.300,19.100,8.100,-13.100
1.154,-0.200,21.000,10.200,-7.400
1.155,0.100,22.400,12.300,-0.600
1.156,-0.100,22.800,14.200,6.600
1.157,-1.100,21.900,15.800,13.700
1.158,-3.200,19.600,17.000,20.200
1.159,-6.000,16.300,17.700,26.000
1.160,-9.200,12.600,18.000,31.300
1.161,-12.300,9.000,18.200,36.800
1.162,-15.000,5.500,18.500,42.800
1.163,-17.500,1.700,18.800,49.500
1.164,-20.200,-2.700,19.200,56.800
1.165,-23.300,-7.900,19.400,64.300
1.166,-26.800,-13.800,19.300,71.600
1.167,-30.300,-19.700,19.000,78.300
1.168,-33.600,-25.100,18.600,84.200
1.169,-36.200,-29.400,18.300,89.200
1.170,-38.200,-32.600,18.100,93.000
1.171,-39.800,-35.100,17.800,95.600
1.172,-41.300,-37.100,17.400,97.200
1.173,-42.600,-39.000,16.500,97.500
1.174,-43.700,-40.700,15.100,96.500
1.175,-44.500,-42.400,13.200,93.900
1.176,-44.700,-44.100,10.800,89.500
1.177,-44.600,-46.100,7.900,83.300
1.178,-44.300,-48.600,4.500,75.700
1.179,-44.400,-51.800,0.700,67.600
1.180,-44.900,-55.600,-3.300,59.700
1.181,-45.800,-59.800,-7.300,52.500
1.182,-47.000,-64.100,-11.300,46.000
1.183,-48.100,-68.400,-15.200,39.400
1.184,-48.900,-72.700,-19.200,32.100
1.185,-49.200,-76.900,-23.200,23.600
1.186,-48.900,-80.800,-27.100,14.000
1.187,-48.100,-84.200,-30.700,4.100
1.188,-46.800,-86.600,-33.700,-5.000
1.189,-45.100,-87.800,-35.600,-12.400
1.190,-43.400,-87.600,-36.700,-17.800
1.191,-41.900,-86.500,-37.200,-21.700
1.192,-40.600,-84.700,-37.300,-24.900
1.193,-39.500,-82.800,-37.600,-28.300
1.194,-38.600,-80.900,-38.000,-32.000
1.195,-37.500,-78.900,-38.400,-35.900
1.196,-36.200,-76.600,-38.400,-39.100
1.197,-34.700,-73.800,-37.900,-41.400
1.198,-33.300,-70.600,-36.800,-42.600
1.199,-32.200,-67.000,-35.400,-43.100
1.200,-31.400,-63.400,-34.100,-43.200
1.201,-30.900,-59.900,-33.100,-43.400
1.202,-30.300,-56.600,-32.400,-43.400
1.203,-29.500,-53.500,-31.900,-43.300
1.204,-28.600,-50.500,-31.200,-42.800
1.205,-27.500,-47.700,-30.100,-41.800
1.206,-26.400,-45.200,-28.800,-40.700
1.207,-25.400,-43.300,-27.500,-39.700
1.208,-24.600,-41.800,-26.600,-39.100
1.209,-24.100,-40.800,-26.100,-38.700
1.210,-23.700,-40.000,-26.100,-38.600
1.211,-23.500,-39.200,-26.200,-38.700
1.212,-23.300,-38.500,-26.000,-38.800
1.213,-22.700,-37.700,-25.500,-39.000
1.214,-21.700,-36.900,-24.800,-39.200
1.215,-20.500,-36.300,-24.200,-39.300
1.216,-19.200,-35.900,-23.800,-39.100
1.217,-18.400,-35.600,-23.700,-38.700
1.218,-18.300,-35.300,-23.700,-38.100
1.219,-18.700,-35.000,-23.500,-37.500
1.220,-19.200,-34.400,-23.000,-37.100
1.221,-19.500,-33.800,-22.300,-36.900
1.222,-19.200,-33.100,-21.500,-36.800
1.223,-18.500,-32.600,-21.000,-36.500
1.224,-17.700,-32.100,-20.900,-36.100
1.225,-17.200,-31.900,-21.000,-35.500
1.226,-17.000,-31.600,-21.000,-34.800
1.227,-17.000,-31.300,-20.700,-34.300
1.228,-17.000,-30.800,-20.100,-33.800
1.229,-16.700,-30.300,-19.400,-33.500
1.230,-16.200,-29.700,-18.800,-33.400
1.231,-15.800,-29.400,-18.700,-33.300
1.232,-15.400,-29.300,-19.000,-33.400
1.233,-15.200,-29.500,-19.300,-33.600
1.234,-14.800,-29.600,-19.500,-33.500
1.235,-14.300,-29.600,-19.200,-33.200
1.236,-13.700,-29.400,-18.500,-32.600
1.237,-13.000,-28.900,-17.800,-31.800
1.238,-12.600,-28.500,-17.400,-31.000
1.239,-12.400,-28.100,-17.400,-30.300
1.240,-12.400,-28.000,-17.600,-29.900
1.241,-12.300,-28.200,-17.800,-29.700
1.242,-12.100,-28.500,-17.700,-29.700
1.243,-11.900,-28.800,-17.300,-29.800
1.244,-11.800,-29.000,-16.800,-30.100
1.245,-11.900,-29.000,-16.500,-30.400
1.246,-12.000,-28.900,-16.500,-30.800
1.247,-12.200,-28.700,-16.700,-31.100
1.248,-12.100,-28.600,-17.100,-31.300
1.249,-11.900,-28.700,-17.400,-31.300
1.250,-11.800,-28.900,-17.600,-31.200
1.251,-11.800,-29.100,-17.700,-31.200
1.252,-11.900,-29.100,-17.600,-31.000
1.253,-11.800,-28.800,-17.300,-30.800
1.254,-11.300,-28.100,-16.700,-30.300
1.255,-10.500,-27.200,-15.700,-29.600
1.256,-9.500,-26.400,-14.600,-28.900
1.257,-8.800,-25.900,-13.600,-28.400
1.258,-8.700,-25.600,-12.900,-28.100
1.259,-9.200,-25.700,-12.700,-28.000
1.260,-9.900,-25.800,-12.800,-27.900
1.261,-10.300,-25.900,-13.000,-27.700
1.262,-10.500,-25.700,-13.000,-27.400
1.263,-10.300,-25.500,-12.900,-27.100
1.264,-10.100,-25.200,-12.700,-27.100
1.265,-10.100,-25.100,-12.600,-27.300
1.266,-10.300,-25.300,-12.700,-27.700
1.267,-10.400,-25.800,-12.800,-27.900
1.268,-10.300,-26.200,-12.900,-28.200
1.269,-9.900,-26.500,-13.000,-28.400
1.270,-9.300,-26.400,-13.000,-28.700
1.271,-9.000,-26.000,-13.100,-29.100
1.272,-8.900,-25.300,-13.300,-29.500
1.273,-9.100,-24.500,-13.700,-29.600
1.274,-9.500,-24.100,-14.100,-29.300
1.275,-9.800,-24.000,-14.500,-28.600
1.276,-10.000,-24.300,-14.700,-27.700
1.277,-10.100,-24.600,-14.900,-27.100
1.278,-10.100,-24.900,-15.200,-26.800
1.279,-9.900,-25.000,-15.400,-26.900
1.280,-9.700,-25.000,-15.400,-27.200
1.281,-9.300,-25.000,-15.200,-27.300
1.282,-8.800,-25.200,-14.700,-27.300
1.283,-8.400,-25.500,-14.100,-27.100
1.284,-8.100,-26.000,-13.700,-27.000
1.285,-8.200,-26.400,-13.400,-27.100
1.286,-8.600,-26.500,-13.300,-27.200
1.287,-9.100,-26.300,-13.300,-27.300
1.288,-9.700,-25.900,-13.200,-27.300
1.289,-10.000,-25.400,-12.900,-27.100
1.290,-10.100,-25.100,-12.500,-26.800
1.291,-9.900,-25.100,-12.200,-26.600
1.292,-9.600,-25.300,-12.200,-26.600
1.293,-9.400,-25.800,-12.700,-26.700
1.294,-9.500,-26.400,-13.500,-26.900
1.295,-9.800,-27.000,-14.400,-27.000
1.296,-10.200,-27.400,-15.100,-26.900
1.297,-10.600,-27.800,-15.300,-26.600
1.298,-10.900,-27.900,-15.000,-26.100
1.299,-10.800,-28.000,-14.400,-25.500
1.300,-10.500,-27.800,-13.700,-25.000
1.301,-10.000,-27.400,-13.100,-24.600
1.302,-9.500,-26.800,-12.700,-24.300
1.303,-9.200,-26.100,-12.600,-24.200
1.304,-9.200,-25.800,-12.800,-24.300
1.305,-9.600,-25.900,-13.200,-24.700
1.306,-10.200,-26.500,-13.600,-25.200
1.307,-10.700,-27.200,-14.000,-25.600
1.308,-11.100,-27.600,-14.100,-25.600
1.309,-11.000,-27.400,-13.700,-25.100
1.310,-10.400,-26.700,-12.900,-24.300
1.311,-9.700,-25.900,-12.000,-23.500
1.312,-9.000,-25.400,-11.400,-23.200
1.313,-8.800,-25.700,-11.400,-23.700
1.314,-9.000,-26.700,-12.200,-24.700
1.315,-9.700,-28.100,-13.300,-26.000
1.316,-10.400,-29.400,-14.300,-26.900
1.317,-11.000,-30.100,-14.900,-27.300
1.318,-11.300,-30.400,-15.100,-27.000
1.319,-11.300,-30.300,-15.100,-26.600
1.320,-11.200,-30.200,-15.200,-26.400
1.321,-11.200,-30.100,-15.400,-26.500
1.322,-11.400,-30.200,-15.700,-26.900
1.323,-11.600,-30.400,-15.800,-27.400
1.324,-12.000,-30.700,-15.800,-27.900
1.325,-12.200,-31.100,-15.800,-28.400
1.326,-12.500,-31.700,-16.000,-28.800
1.327,-12.600,-32.400,-16.600,-29.400
1.328,-12.700,-33.200,-17.300,-30.000
1.329,-12.800,-33.800,-18.000,-30.500
1.330,-12.800,-34.100,-18.300,-30.600
1.331,-12.800,-34.200,-18.200,-30.400
1.332,-12.800,-34.300,-17.800,-30.000
1.333,-12.900,-34.300,-17.400,-29.400
1.334,-13.000,-34.200,-17.000,-29.000
1.335,-13.200,-34.000,-16.900,-28.800
1.336,-13.600,-33.600,-17.000,-28.600
1.337,-14.000,-33.100,-17.000,-28.300
1.338,-14.200,-32.600,-16.800,-27.800
1.339,-14.200,-32.400,-16.600,-27.200
1.340,-14.000,-32.500,-16.400,-26.400
1.341,-13.700,-32.700,-16.300,-25.800
1.342,-13.300,-32.800,-16.200,-25.400
1.343,-13.100,-32.600,-16.100,-25.300
1.344,-13.100,-32.200,-15.900,-25.200
1.345,-13.200,-31.700,-15.600,-25.100
1.346,-13.300,-31.200,-15.300,-24.800
1.347,-13.400,-30.900,-15.100,-24.200
1.348,-13.300,-30.700,-15.100,-23.600
1.349,-13.100,-30.700,-15.400,-23.100
1.350,-13.000,-30.600,-15.700,-22.800
1.351,-13.100,-30.600,-16.100,-22.800
1.352,-13.300,-30.800,-16.300,-23.000
1.353,-13.700,-31.100,-16.400,-23.200
1.354,-14.000,-31.700,-16.500,-23.400
1.355,-14.200,-32.300,-16.600,-23.500
1.356,-14.100,-32.900,-16.900,-23.600
1.357,-13.900,-33.200,-17.200,-23.800
1.358,-13.800,-33.300,-17.400,-24.000
1.359,-13.900,-33.400,-17.400,-24.300
1.360,-14.500,-33.600,-17.300,-24.600
1.361,-15.200,-33.900,-17.300,-24.700
1.362,-15.800,-34.400,-17.300,-24.600
1.363,-16.000,-34.800,-17.500,-24.200
1.364,-16.000,-35.000,-17.800,-23.600
1.365,-15.800,-35.000,-18.000,-23.000
1.366,-15.800,-34.900,-18.200,-22.500
1.367,-16.200,-35.000,-18.200,-22.500
1.368,-17.000,-35.300,-18.400,-22.900
1.369,-18.000,-35.900,-18.800,-23.500
1.370,-18.600,-36.700,-19.300,-24.200
1.371,-18.700,-37.200,-19.900,-24.700
1.372,-18.200,-37.500,-20.400,-24.900
1.373,-17.600,-37.400,-20.600,-24.700
1.374,-17.200,-37.200,-20.400,-24.500
1.375,-17.400,-37.100,-20.000,-24.300
1.376,-17.900,-37.400,-19.500,-24.200
1.377,-18.600,-37.900,-19.100,-24.100
1.378,-19.200,-38.600,-19.100,-23.800
1.379,-19.600,-39.100,-19.200,-23.300
1.380,-19.600,-39.300,-19.500,-22.600
1.381,-19.500,-39.200,-19.800,-21.900
1.382,-19.500,-39.100,-20.000,-21.500
1.383,-19.600,-39.100,-20.100,-21.500
1.384,-19.900,-39.300,-20.300,-21.700
1.385,-20.300,-39.700,-20.500,-21.800
1.386,-20.600,-40.000,-21.000,-21.700
1.387,-20.800,-40.300,-21.500,-21.200
1.388,-20.900,-40.500,-22.000,-20.300
1.389,-20.900,-40.700,-22.400,-19.500
1.390,-21.000,-40.900,-22.500,-18.800
1.391,-21.100,-41.100,-22.400,-18.300
1.392,-21.300,-41.400,-22.100,-18.000
1.393,-21.500,-41.600,-21.900,-17.700
1.394,-21.800,-41.800,-21.700,-17.400
1.395,-22.100,-42.000,-21.600,-17.200
1.396,-22.500,-42.400,-21.700,-17.400
1.397,-23.100,-43.100,-21.900,-17.800
1.398,-23.700,-44.100,-22.300,-18.600
1.399,-24.400,-45.200,-22.800,-19.400
1.400,-24.900,-46.400,-23.400,-19.900
1.401,-25.100,-47.200,-23.900,-20.100
1.402,-25.000,-47.400,-24.200,-19.600
1.403,-24.800,-47.000,-24.100,-18.600
1.404,-24.700,-46.100,-23.400,-17.300
1.405,-24.800,-44.800,-22.200,-15.700
1.406,-25.000,-43.400,-20.900,-14.300
1.407,-25.300,-42.000,-19.800,-13.100
1.408,-25.400,-40.700,-18.900,-12.300
1.409,-25.300,-39.700,-18.300,-11.800
1.410,-25.000,-38.800,-17.800,-11.400
1.411,-24.700,-37.900,-17.200,-10.600
1.412,-24.600,-37.200,-16.300,-9.500
1.413,-24.800,-36.500,-15.200,-8.100
1.414,-25.000,-35.900,-14.100,-6.600
1.415,-25.200,-35.400,-13.200,-5.500
1.416,-25.000,-35.100,-12.600,-4.400
1.417,-24.700,-34.600,-12.100,-3.200
1.418,-24.100,-33.800,-11.500,-1.400
1.419,-23.700,-32.400,-10.700,1.300
1.420,-23.300,-30.400,-9.600,4.600
1.421,-23.100,-28.300,-8.500,7.700
1.422,-22.900,-26.400,-7.600,10.100
1.423,-22.700,-25.100,-7.000,11.500
1.424,-22.500,-24.500,-6.800,12.000
1.425,-22.500,-24.600,-6.900,12.000
1.426,-22.600,-25.000,-7.400,12.000
1.427,-22.900,-25.500,-8.200,11.800
1.428,-23.300,-26.100,-9.400,11.200
1.429,-23.600,-27.100,-10.900,9.800
1.430,-23.700,-28.800,-12.800,7.300
1.431,-23.900,-31.200,-14.900,4.000
1.432,-24.400,-34.300,-17.000,0.200
1.433,-25.300,-37.700,-19.200,-3.400
1.434,-26.500,-41.100,-21.100,-6.300
1.435,-27.800,-44.000,-22.700,-8.600
1.436,-28.900,-46.100,-23.900,-10.100
1.437,-29.400,-47.300,-24.400,-10.900
1.438,-29.300,-47.500,-24.200,-11.000
1.439,-28.800,-46.800,-23.400,-10.600
1.440,-28.200,-45.400,-22.200,-9.700
1.441,-27.600,-43.600,-21.000,-8.600
1.442,-27.200,-41.900,-20.100,-7.700
1.443,-26.900,-40.600,-19.600,-7.100
1.444,-26.700,-39.800,-19.500,-7.000
1.445,-26.600,-39.400,-19.600,-7.200
1.446,-26.600,-39.200,-19.900,-7.600
1.447,-26.800,-39.100,-20.100,-8.100
1.448,-27.200,-39.100,-20.300,-8.600
1.449,-27.600,-39.100,-20.400,-9.100
1.450,-27.800,-39.100,-20.700,-9.700
1.451,-27.600,-39.100,-21.000,-10.200
1.452,-27.200,-39.100,-21.300,-10.600
1.453,-26.700,-38.800,-21.500,-10.700
1.454,-26.300,-38.300,-21.500,-10.600
1.455,-26.100,-37.600,-21.100,-10.300
1.456,-26.100,-36.600,-20.400,-9.900
1.457,-26.100,-35.500,-19.500,-9.700
1.458,-25.900,-34.500,-18.600,-9.800
1.459,-25.300,-33.800,-18.000,-10.100
1.460,-24.500,-33.300,-17.800,-10.600
1.461,-23.500,-33.100,-17.900,-11.200
1.462,-22.600,-33.000,-18.100,-11.800
1.463,-21.900,-32.800,-18.200,-12.500
1.464,-21.600,-32.500,-18.100,-13.200
1.465,-21.600,-32.000,-18.000,-13.900
1.466,-21.800,-31.500,-18.000,-14.500
1.467,-22.100,-31.100,-18.200,-15.100
1.468,-22.400,-31.000,-18.600,-15.500
1.469,-22.600,-30.900,-18.800,-15.700
1.470,-22.600,-30.700,-18.800,-15.700
1.471,-22.300,-30.100,-18.300,-15.500
1.472,-21.600,-29.200,-17.500,-15.400
1.473,-20.600,-28.100,-16.600,-15.400
1.474,-19.500,-27.100,-15.800,-15.600
1.475,-18.500,-26.400,-15.400,-16.100
1.476,-17.900,-25.900,-15.400,-16.800
1.477,-17.600,-25.500,-15.500,-17.600
1.478,-17.600,-24.900,-15.700,-18.300
1.479,-17.500,-24.200,-15.900,-19.100
1.480,-17.300,-23.500,-16.000,-19.900
1.481,-17.000,-23.000,-16.300,-20.800
1.482,-16.700,-22.900,-16.500,-21.800
1.483,-16.500,-23.100,-16.700,-22.700
1.484,-16.100,-23.100,-16.400,-23.100
1.485,-15.400,-22.400,-15.500,-22.800
1.486,-14.300,-20.800,-13.900,-21.800
1.487,-12.800,-18.200,-11.700,-20.100
1.488,-11.400,-15.200,-9.600,-18.100
1.489,-10.300,-12.200,-7.800,-16.400
1.490,-9.700,-9.800,-6.600,-15.200
1.491,-9.400,-8.000,-5.800,-14.500
1.492,-9.300,-6.700,-5.300,-14.200
1.493,-9.000,-5.700,-4.800,-14.100
1.494,-8.400,-4.800,-4.200,-13.900
1.495,-7.700,-4.100,-3.700,-13.800
1.496,-7.100,-3.600,-3.300,-13.700
1.497,-6.700,-3.500,-3.400,-13.900
1.498,-6.300,-3.800,-3.800,-14.300
1.499,-5.900,-4.200,-4.400,-14.800
1.500,-5.400,-4.600,-4.800,-15.300
1.501,-4.800,-4.800,-5.000,-15.500
1.502,-4.200,-4.600,-4.800,-15.500
1.503,-3.700,-4.000,-4.500,-15.300
1.504,-3.400,-3.100,-4.100,-15.200
1.505,-3.100,-2.100,-4.000,-15.300
1.506,-2.700,-1.400,-4.100,-15.500
1.507,-2.400,-1.200,-4.400,-15.900
1.508,-2.000,-1.400,-4.600,-16.300
1.509,-1.600,-2.100,-4.500,-16.600
1.510,-1.400,-2.800,-4.200,-16.700
1.511,-1.400,-3.400,-3.700,-16.600
1.512,-1.500,-3.500,-3.400,-16.400
1.513,-1.700,-3.300,-3.500,-16.200
1.514,-1.900,-2.900,-3.900,-16.200
1.515,-1.900,-2.600,-4.300,-16.400
1.516,-1.600,-2.500,-4.500,-16.700
1.517,-1.100,-2.400,-4.300,-17.000
1.518,-0.400,-2.400,-3.600,-17.200
1.519,0.100,-2.300,-2.900,-17.300
1.520,0.500,-2.100,-2.400,-17.200
1.521,0.800,-1.900,-2.300,-17.000
1.522,0.900,-1.700,-2.500,-16.900
1.523,1.200,-1.800,-3.000,-16.700
1.524,1.500,-2.000,-3.200,-16.700
1.525,1.700,-2.300,-3.100,-16.700
1.526,1.800,-2.500,-2.700,-16.800
1.527,1.600,-2.500,-2.200,-16.900
1.528,1.500,-2.300,-1.800,-17.100
1.529,1.400,-1.800,-1.800,-17.200
1.530,1.600,-1.300,-2.000,-17.400
1.531,1.900,-1.000,-2.400,-17.500
1.532,2.300,-0.800,-2.800,-17.500
1.533,2.400,-0.900,-3.100,-17.500
1.534,2.300,-1.000,-3.200,-17.200
1.535,2.000,-1.100,-3.200,-16.900
1.536,1.800,-1.000,-3.200,-16.600
1.537,1.900,-0.800,-3.200,-16.400
1.538,2.300,-0.400,-3.300,-16.300
1.539,2.800,-0.100,-3.200,-16.300
1.540,3.100,0.100,-3.100,-16.400
1.541,3.100,0.300,-2.800,-16.400
1.542,2.900,0.300,-2.400,-16.300
1.543,2.600,0.300,-2.100,-16.200
1.544,2.400,0.200,-2.000,-16.300
1.545,2.400,-0.100,-2.200,-16.500
1.546,2.400,-0.400,-2.600,-16.700
1.547,2.400,-0.600,-3.000,-17.000
1.548,2.300,-0.600,-3.300,-17.100
1.549,2.200,-0.500,-3.500,-17.300
1.550,2.100,-0.300,-3.500,-17.400
1.551,2.000,-0.200,-3.400,-17.700
1.552,2.000,-0.300,-3.300,-17.900
1.553,1.900,-0.500,-3.300,-18.100
1.554,1.800,-0.700,-3.200,-17.800
1.555,1.800,-0.500,-3.000,-17.300
1.556,1.900,0.000,-2.500,-16.500
1.557,2.400,0.700,-1.800,-16.000
1.558,2.900,1.200,-0.900,-16.200
1.559,3.300,1.300,-0.200,-17.100
1.560,3.600,0.800,0.200,-18.400
1.561,3.600,0.000,0.300,-19.700
1.562,3.600,-0.700,0.000,-20.300
1.563,3.800,-0.900,-0.300,-20.100
1.564,4.400,-0.600,-0.600,-19.200
1.565,5.100,0.100,-0.700,-18.100
1.566,5.700,0.800,-0.700,-17.200
1.567,5.900,1.300,-0.500,-17.000
1.568,5.700,1.500,-0.400,-17.100
1.569,5.300,1.700,-0.300,-17.200
1.570,5.100,2.100,-0.100,-16.900
1.571,5.300,2.800,0.200,-16.100
1.572,5.700,3.500,0.500,-14.900
1.573,6.100,4.200,0.800,-13.900
1.574,6.200,4.600,0.900,-13.200
1.575,6.000,4.700,0.900,-12.900
1.576,5.700,4.800,1.000,-12.800
1.577,5.700,5.100,1.300,-12.500
1.578,6.200,5.600,1.900,-12.000
1.579,7.000,6.300,2.700,-11.100
1.580,7.700,7.100,3.300,-10.300
1.581,8.100,7.600,3.600,-9.700
1.582,8.000,7.900,3.500,-9.400
1.583,7.600,7.900,3.000,-9.300
1.584,7.200,7.800,2.600,-9.200
1.585,7.100,7.800,2.300,-9.000
1.586,7.300,8.000,2.300,-8.800
1.587,7.600,8.200,2.500,-8.500
1.588,7.900,8.500,2.800,-8.300
1.589,8.000,8.700,3.000,-8.100
1.590,8.000,8.800,3.100,-7.900
1.591,7.900,8.900,3.200,-7.800
1.592,7.900,9.100,3.400,-7.700
1.593,7.700,9.200,3.800,-7.600
1.594,7.500,9.400,4.200,-7.700
1.595,7.100,9.500,4.600,-7.800
1.596,6.800,9.600,4.800,-7.700
1.597,6.700,9.700,4.800,-7.500
1.598,7.000,9.700,4.600,-7.100
1.599,7.600,9.700,4.400,-6.700
1.600,8.300,9.700,4.300,-6.500
1.601,9.000,9.600,4.300,-6.400
1.602,9.500,9.500,4.500,-6.700
1.603,9.900,9.400,4.700,-7.100
1.604,10.200,9.200,4.900,-7.500
1.605,10.300,9.100,5.100,-7.700
1.606,10.200,9.100,5.400,-7.600
1.607,9.800,9.200,5.500,-7.200
1.608,9.400,9.300,5.600,-6.600
1.609,8.900,9.300,5.500,-6.100
1.610,8.500,9.200,5.400,-5.700
1.611,8.400,9.000,5.200,-5.500
1.612,8.300,8.900,5.000,-5.300
1.613,8.200,9.100,5.100,-5.300
1.614,8.100,9.500,5.300,-5.200
1.615,8.000,10.000,5.600,-5.200
1.616,8.100,10.300,5.900,-5.000
1.617,8.600,10.300,6.200,-4.800
1.618,9.300,9.800,6.400,-4.300
1.619,10.000,9.200,6.600,-3.700
1.620,10.700,8.800,6.700,-3.100
1.621,11.100,8.900,6.800,-2.700
1.622,11.300,9.200,6.800,-2.800
1.623,11.500,9.800,6.900,-3.200
1.624,11.600,10.300,6.900,-3.700
1.625,11.700,10.600,7.000,-3.900
1.626,11.700,10.700,7.100,-3.700
1.627,11.400,10.700,7.200,-3.000
1.628,10.900,10.700,7.400,-2.100
1.629,10.500,10.700,7.400,-1.400
1.630,10.100,10.600,7.400,-0.900
1.631,10.100,10.300,7.200,-0.800
1.632,10.200,9.900,7.100,-0.700
1.633,10.500,9.400,7.100,-0.500
1.634,10.700,9.200,7.100,-0.100
1.635,10.700,9.200,7.200,0.400
1.636,10.500,9.300,7.200,0.700
1.637,10.300,9.400,7.200,0.700
1.638,10.300,9.300,6.900,0.400
1.639,10.400,9.000,6.600,-0.100
1.640,10.700,8.600,6.300,-0.600
1.641,11.000,8.200,5.900,-1.000
1.642,11.200,7.700,5.700,-1.500
1.643,11.400,7.200,5.500,-2.000
1.644,11.500,6.600,5.400,-2.700
1.645,11.600,6.000,5.100,-3.500
1.646,11.600,5.400,4.700,-4.300
1.647,11.300,4.900,4.200,-5.000
1.648,10.800,4.700,3.600,-5.300
1.649,10.000,4.700,3.000,-5.300
1.650,9.200,4.900,2.600,-5.000
1.651,8.500,4.900,2.300,-4.700
1.652,8.000,4.900,1.900,-4.500
1.653,7.800,4.800,1.600,-4.400
1.654,8.000,4.900,1.200,-4.400
1.655,8.300,5.100,1.000,-4.400
1.656,8.800,5.600,1.100,-4.200
1.657,9.400,6.200,1.400,-4.000
1.658,10.100,6.700,2.000,-3.600
1.659,10.800,7.100,2.600,-3.200
1.660,11.400,7.300,3.200,-2.800
1.661,12.100,7.400,3.500,-2.200
1.662,12.700,7.500,3.800,-1.500
1.663,13.300,7.700,4.100,-0.500
1.664,13.800,8.000,4.400,0.600
1.665,14.000,8.300,4.800,1.500
1.666,13.800,8.800,5.200,2.000
1.667,13.200,9.400,5.300,2.000
1.668,12.200,10.000,5.200,1.600
1.669,11.200,10.600,5.000,1.200
1.670,10.500,11.000,4.900,0.900
1.671,10.100,11.100,4.800,1.000
1.672,10.200,11.000,4.900,1.400
1.673,10.400,10.900,5.200,1.900
1.674,10.700,10.900,5.500,2.300
1.675,10.900,11.000,5.800,2.500
1.676,11.100,11.300,5.900,2.300
1.677,11.400,11.400,5.900,1.900
1.678,11.700,11.400,5.800,1.500
1.679,11.900,11.300,5.700,1.100
1.680,12.000,11.000,5.800,0.800
1.681,12.200,11.000,6.200,0.700
1.682,12.700,11.100,6.800,0.700
1.683,13.500,11.500,7.500,0.600
1.684,14.600,11.900,8.000,0.500
1.685,15.400,12.100,8.100,0.400
1.686,15.700,12.100,7.800,0.300
1.687,15.300,12.100,7.300,0.400
1.688,14.300,12.100,6.900,0.500
1.689,13.200,12.200,6.800,0.800
1.690,12.600,12.400,7.100,1.200
1.691,12.600,12.600,7.500,1.600
1.692,13.100,12.800,8.000,1.900
1.693,13.500,13.000,8.400,2.300
1.694,13.500,13.300,8.600,2.700
1.695,13.100,13.600,8.800,3.100
1.696,12.700,14.000,8.800,3.600
1.697,12.700,14.300,9.000,4.100
1.698,13.500,14.400,9.200,4.400
1.699,14.700,14.400,9.400,4.400
1.700,16.000,14.100,9.800,4.200
1.701,17.000,13.900,10.400,3.900
1.702,17.300,13.800,11.000,3.900
1.703,17.200,14.000,11.700,4.200
1.704,17.100,14.300,12.200,4.800
1.705,17.200,14.600,12.400,5.500
1.706,17.300,14.800,12.200,5.900
1.707,17.200,14.700,11.700,6.100
1.708,16.800,14.600,11.100,6.000
1.709,16.200,14.600,10.700,6.000
1.710,15.500,14.800,10.700,6.300
1.711,15.100,15.200,11.000,6.900
1.712,15.200,15.500,11.200,7.300
1.713,15.500,15.400,11.200,7.300
1.714,15.700,14.900,10.700,6.700
1.715,15.600,14.200,9.900,5.700
1.716,15.300,13.500,9.100,4.700
1.717,15.200,13.300,8.800,4.000
1.718,15.500,13.600,9.100,3.800
1.719,16.300,14.100,9.900,3.900
1.720,17.400,14.500,10.800,4.000
1.721,18.200,14.500,11.300,3.900
1.722,18.600,14.100,11.300,3.600
1.723,18.600,13.700,11.000,3.400
1.724,18.400,13.600,10.800,3.600
1.725,18.400,14.000,11.100,4.200
1.726,18.500,14.800,11.800,5.200
1.727,18.800,15.700,12.600,6.100
1.728,18.900,16.400,13.000,6.800
1.729,18.700,16.700,12.900,6.900
1.730,18.200,16.700,12.400,6.800
1.731,17.500,16.700,11.800,6.700
1.732,16.800,16.900,11.600,6.800
1.733,16.400,17.300,12.000,7.400
1.734,16.300,17.900,12.700,8.200
1.735,16.600,18.500,13.600,8.900
1.736,17.300,19.000,14.400,9.300
1.737,18.300,19.500,15.000,9.600
1.738,19.300,19.900,15.400,9.800
1.739,20.200,20.200,15.800,10.100
1.740,20.800,20.500,16.200,10.600
1.741,21.200,20.600,16.700,11.400
1.742,21.400,20.700,17.200,12.100
1.743,21.600,20.800,17.700,12.700
1.744,21.900,21.000,18.300,13.100
1.745,22.300,21.500,18.800,13.300
1.746,22.600,22.000,19.400,13.500
1.747,22.500,22.600,19.800,13.800
1.748,22.100,23.100,20.000,14.100
1.749,21.500,23.200,19.900,14.300
1.750,21.100,23.200,19.800,14.300
1.751,20.900,23.000,19.600,14.300
1.752,21.000,22.700,19.500,14.200
1.753,21.200,22.600,19.500,14.300
1.754,21.500,22.600,19.600,14.600
1.755,21.700,22.700,19.700,15.100
1.756,22.100,22.900,19.900,15.800
1.757,22.800,23.300,20.200,16.500
1.758,23.800,23.900,20.700,17.300
1.759,24.900,24.600,21.400,18.000
1.760,25.700,25.300,22.100,18.600
1.761,26.100,25.700,22.700,19.000
1.762,26.100,25.900,23.000,19.400
1.763,25.800,25.800,23.200,19.500
1.764,25.600,25.600,23.200,19.400
1.765,25.700,25.500,23.300,19.200
1.766,26.000,25.500,23.400,18.900
1.767,26.300,25.600,23.600,18.700
1.768,26.300,25.700,23.800,18.700
1.769,26.000,25.800,24.000,19.000
1.770,25.700,26.100,24.300,19.700
1.771,25.400,26.500,24.700,20.700
1.772,25.200,27.200,25.100,21.700
1.773,25.000,28.000,25.400,22.600
1.774,24.800,28.500,25.500,23.000
1.775,24.600,28.600,25.400,23.000
1.776,24.700,28.200,25.300,22.400
1.777,25.100,27.500,25.200,21.700
1.778,25.900,26.900,25.300,21.100
1.779,26.900,26.500,25.500,20.700
1.780,27.700,26.500,25.800,20.800
1.781,28.100,26.800,26.000,21.100
1.782,28.100,27.300,26.100,21.600
1.783,28.000,27.600,26.300,22.000
1.784,28.100,27.900,26.500,22.400
1.785,28.500,28.000,26.800,22.800
1.786,28.900,28.100,27.000,23.100
1.787,29.100,28.100,27.100,23.400
1.788,28.800,28.100,26.900,23.500
1.789,28.100,28.000,26.500,23.400
1.790,27.300,27.800,26.100,23.000
1.791,26.600,27.600,25.800,22.600
1.792,26.000,27.300,25.800,22.300
1.793,25.600,27.000,26.100,22.200
1.794,25.400,27.000,26.500,22.500
1.795,25.400,27.300,26.800,23.200
1.796,25.600,27.800,27.200,23.900
1.797,26.300,28.400,27.400,24.700
1.798,27.200,28.900,27.600,25.200
1.799,28.200,29.100,27.900,25.600
1.800,29.100,28.900,28.300,25.600
1.801,29.900,28.600,28.800,25.500
1.802,30.600,28.300,29.500,25.400
1.803,31.100,28.400,30.400,25.300
1.804,31.600,28.700,31.300,25.300
1.805,31.900,29.300,32.000,25.500
1.806,31.700,29.700,32.400,25.800
1.807,31.100,29.900,32.400,26.300
1.808,30.400,29.900,32.100,26.700
1.809,29.700,30.000,31.600,27.000
1.810,29.400,30.200,31.000,27.200
1.811,29.300,30.700,30.300,27.400
1.812,29.200,31.300,29.600,27.700
1.813,29.100,31.800,29.100,28.400
1.814,28.800,32.000,28.800,29.300
1.815,28.700,31.900,28.700,30.300
1.816,29.000,31.700,29.000,31.000
1.817,29.700,31.800,29.600,31.500
1.818,30.700,32.000,30.300,31.600
1.819,31.800,32.200,30.900,31.400
1.820,32.500,32.300,31.400,31.000
1.821,32.900,32.000,31.600,30.700
1.822,32.900,31.400,31.700,30.400
1.823,32.700,30.800,31.900,30.200
1.824,32.500,30.500,32.200,30.100
1.825,32.300,30.600,32.700,30.100
1.826,32.200,31.100,33.100,30.100
1.827,32.100,31.600,33.300,30.100
1.828,31.900,31.900,33.200,30.100
1.829,31.800,32.000,32.800,30.200
1.830,31.700,32.100,32.500,30.400
1.831,31.700,32.400,32.300,30.700
1.832,31.700,33.100,32.400,31.300
1.833,31.700,34.000,32.600,32.000
1.834,31.700,34.800,32.900,32.700
1.835,31.700,35.100,33.000,33.100
1.836,31.700,35.000,32.800,33.200
1.837,31.800,34.300,32.500,33.000
1.838,32.000,33.500,32.100,32.800
1.839,32.400,32.900,31.800,32.700
1.840,33.100,32.800,31.700,32.700
1.841,33.900,33.100,31.900,32.800
1.842,34.800,33.700,32.300,32.900
1.843,35.300,34.200,33.000,33.000
1.844,35.400,34.700,33.700,33.100
1.845,34.800,34.800,34.400,33.200
1.846,33.700,34.900,34.800,33.400
1.847,32.600,34.800,34.900,33.600
1.848,31.800,34.800,34.500,33.600
1.849,31.600,34.900,33.900,33.400
1.850,32.000,35.000,33.300,32.900
1.851,32.800,35.000,32.900,32.200
1.852,33.600,34.900,32.800,31.400
1.853,34.000,34.700,32.900,30.800
1.854,34.000,34.500,33.300,30.500
1.855,33.700,34.400,33.700,30.500
1.856,33.600,34.500,34.000,30.700
1.857,33.800,34.800,34.200,31.000
1.858,34.500,35.300,34.400,31.300
1.859,35.400,35.900,34.600,31.600
1.860,36.400,36.400,34.800,31.900
1.861,37.200,36.600,35.000,32.200
1.862,37.600,36.700,35.200,32.600
1.863,37.700,36.500,35.300,33.100
1.864,37.600,36.400,35.500,33.500
1.865,37.300,36.400,35.600,33.700
1.866,37.000,36.500,35.800,33.700
1.867,36.700,36.500,35.900,33.600
1.868,36.300,36.200,35.900,33.300
1.869,36.000,35.700,35.700,33.100
1.870,35.700,34.800,35.300,33.000
1.871,35.400,34.000,34.700,33.100
1.872,34.900,33.400,34.100,33.100
1.873,34.400,33.100,33.500,33.100
1.874,34.000,33.200,33.000,33.000
1.875,33.700,33.300,32.700,32.900
1.876,33.900,33.500,32.600,32.800
1.877,34.500,33.600,32.800,32.800
1.878,35.400,33.600,33.100,32.900
1.879,36.300,33.700,33.400,32.900
1.880,37.000,33.800,33.500,32.700
1.881,37.400,34.000,33.500,32.200
1.882,37.500,34.000,33.200,31.500
1.883,37.400,33.900,33.000,30.800
1.884,37.200,33.600,32.700,30.000
1.885,36.900,33.100,32.500,29.300
1.886,36.500,32.600,32.300,28.600
1.887,35.800,32.000,31.800,27.900
1.888,34.900,31.200,31.100,27.100
1.889,34.100,30.400,30.100,26.300
1.890,33.400,29.300,29.100,25.600
1.891,33.000,28.300,28.300,25.000
1.892,33.000,27.600,27.900,24.700
1.893,33.200,27.300,27.800,24.800
1.894,33.500,27.600,28.100,25.400
1.895,34.000,28.400,28.600,26.400
1.896,34.500,29.300,29.100,27.500
1.897,35.100,30.200,29.600,28.500
1.898,35.700,30.900,29.900,29.000
1.899,36.400,31.500,30.300,29.300
1.900,37.100,32.100,30.900,29.500
1.901,37.800,33.000,31.900,30.200
1.902,38.700,34.200,33.300,31.600
1.903,39.500,35.500,34.800,33.600
1.904,40.000,36.800,36.100,35.800
1.905,40.100,37.900,37.000,37.800
1.906,39.600,38.700,37.300,39.300
1.907,38.800,39.500,37.500,40.600
1.908,38.000,40.400,37.800,42.000
1.909,37.600,41.700,38.600,43.900
1.910,37.600,43.200,39.800,46.400
1.911,38.000,44.800,41.300,49.100
1.912,38.600,46.200,42.600,51.600
1.913,39.000,47.300,43.500,53.400
1.914,39.300,48.100,44.000,54.400
1.915,39.600,48.600,44.200,54.700
1.916,40.100,48.800,44.400,54.300
1.917,40.800,48.600,44.400,53.500
1.918,41.600,48.100,44.100,52.400
1.919,42.100,46.900,43.500,50.700
1.920,42.000,45.100,42.200,48.500
1.921,41.400,42.500,40.400,45.500
1.922,40.400,39.400,38.100,42.000
1.923,39.300,35.900,35.800,38.200
1.924,38.500,32.500,33.600,34.400
1.925,37.900,29.500,31.900,31.200
1.926,37.300,27.400,30.800,28.700
1.927,36.600,26.200,30.200,27.300
1.928,35.700,25.900,30.200,27.000
1.929,34.900,26.300,30.500,27.500
1.930,34.500,27.100,31.000,28.600
1.931,34.500,28.100,31.600,29.700
1.932,34.700,29.000,32.100,30.800
1.933,34.800,29.800,32.500,31.700
1.934,34.700,30.300,32.600,32.300
1.935,34.400,30.600,32.500,32.800
1.936,34.100,30.700,32.200,33.100
1.937,34.300,30.700,31.900,33.200
1.938,34.900,30.600,31.700,33.000
1.939,35.700,30.500,31.500,32.800
1.940,36.400,30.600,31.500,32.800
1.941,36.700,30.700,31.400,33.100
1.942,36.600,31.100,31.500,33.700
1.943,36.400,31.500,31.600,34.700
1.944,36.200,32.000,32.000,35.600
1.945,36.200,32.300,32.400,36.200
1.946,36.200,32.600,33.000,36.500
1.947,36.100,32.700,33.500,36.400
1.948,35.700,32.800,33.800,36.200
1.949,35.300,33.000,33.900,36.200
1.950,35.100,33.600,34.000,36.400
1.951,35.100,34.300,34.100,36.800
1.952,35.200,35.100,34.100,37.200
1.953,35.300,35.700,34.100,37.400
1.954,35.300,35.900,34.000,37.300
1.955,35.200,35.900,33.700,36.900
1.956,35.500,35.700,33.400,36.400
1.957,36.300,35.700,33.400,36.100
1.958,37.600,36.000,33.800,36.200
1.959,38.900,36.600,34.500,36.600
1.960,39.900,37.300,35.400,37.200
1.961,40.200,37.800,36.000,37.500
1.962,40.000,37.900,36.200,37.500
1.963,39.600,37.600,36.000,37.000
1.964,39.300,37.200,35.500,36.400
1.965,39.300,36.800,35.000,36.200
1.966,39.300,36.800,34.700,36.400
1.967,39.000,37.000,34.700,37.100
1.968,38.400,37.500,34.800,37.800
1.969,37.600,37.900,34.800,38.000
1.970,37.100,38.100,34.800,37.700
1.971,37.200,38.100,34.500,36.800
1.972,37.700,37.900,34.200,36.000
1.973,38.400,37.600,33.700,35.600
1.974,38.700,37.300,33.200,35.800
1.975,38.500,37.000,32.700,36.400
1.976,38.100,36.800,32.500,37.200
1.977,37.700,36.700,32.500,37.600
1.978,37.800,36.600,32.900,37.800
1.979,38.600,36.700,33.700,37.700
1.980,39.900,36.800,34.700,37.700
1.981,41.100,37.000,35.600,37.900
1.982,41.900,37.000,36.200,38.300
1.983,42.100,36.900,36.300,38.500
1.984,41.600,36.800,36.200,38.400
1.985,40.800,36.800,35.800,37.800
1.986,40.100,37.200,35.400,36.900
1.987,39.600,37.900,34.900,35.900
1.988,39.400,39.100,34.600,34.600
1.989,39.500,40.800,34.200,33.200
1.990,39.800,42.800,33.900,31.500
1.991,40.300,45.100,33.700,29.700
1.992,41.100,47.700,33.800,27.900
1.993,42.100,50.600,34.200,26.400
1.994,43.500,53.800,34.900,25.300
1.995,45.200,57.100,35.800,24.700
1.996,47.100,60.200,36.900,24.700
1.997,48.800,62.900,38.200,25.300
1.998,50.100,65.100,39.700,26.500
1.999,50.900,67.100,41.400,28.400
2.000,51.400,69.000,43.200,30.900
2.001,51.800,70.900,45.100,33.900
2.002,52.200,72.800,46.900,37.100
2.003,52.600,74.400,48.500,40.500
2.004,52.500,75.500,49.800,44.100
2.005,51.800,76.100,50.900,48.200
2.006,50.100,76.100,51.900,53.100
2.007,47.700,75.800,53.100,59.000
2.008,44.900,75.100,54.400,65.800
2.009,42.400,74.200,55.900,72.900
2.010,40.500,72.800,57.400,79.800
2.011,39.000,71.000,58.900,86.200
2.012,37.600,68.600,60.200,92.300
2.013,35.700,65.500,61.200,98.300
2.014,33.300,61.900,62.100,104.600
2.015,30.400,57.700,62.800,111.500
2.016,27.300,53.100,63.600,118.900
2.017,24.500,48.400,64.400,126.500
2.018,22.100,43.900,65.400,133.700
2.019,19.900,39.900,66.500,140.100
2.020,17.900,36.200,67.600,145.500
2.021,15.800,32.900,68.400,149.800
2.022,13.900,30.000,68.800,153.100
2.023,12.200,27.400,68.800,155.500
2.024,11.200,25.200,68.300,156.700
2.025,10.700,23.600,67.100,156.700
2.026,10.300,22.200,65.100,155.000
2.027,9.700,20.700,62.200,151.600
2.028,8.600,18.400,58.500,146.800
2.029,7.000,15.100,54.200,140.800
2.030,5.300,10.800,49.700,134.200
2.031,3.800,5.900,45.500,127.400
2.032,2.700,1.000,41.900,120.900
2.033,2.200,-3.500,38.800,114.700
2.034,2.000,-7.400,36.100,108.800
2.035,2.100,-11.000,33.500,102.600
2.036,2.300,-14.400,30.500,95.800
2.037,2.800,-17.500,27.100,88.100
2.038,3.700,-20.300,23.500,79.500
2.039,4.900,-22.400,20.100,70.600
2.040,6.500,-23.600,17.200,62.000
2.041,8.100,-23.600,15.000,54.700
2.042,9.900,-22.500,13.600,48.900
2.043,11.500,-20.400,13.000,44.600
2.044,13.000,-17.500,13.100,41.300
2.045,14.200,-14.100,13.700,38.500
2.046,15.000,-10.300,14.800,36.000
2.047,15.500,-6.500,16.100,33.700
2.048,16.000,-2.600,17.500,31.900
2.049,16.700,1.300,18.700,30.800
2.050,17.800,5.100,19.500,30.200
2.051,19.400,8.800,20.000,29.900
2.052,21.300,12.400,20.400,29.700
2.053,23.200,16.000,21.000,29.200
2.054,24.900,19.400,21.900,28.700
2.055,26.300,22.600,23.300,28.400
2.056,27.600,25.500,25.000,28.600
2.057,28.900,28.000,26.700,29.200
2.058,30.400,30.100,28.300,30.000
2.059,31.800,31.800,29.500,30.800
2.060,33.100,33.100,30.300,31.200
2.061,34.000,34.100,30.800,31.100
2.062,34.700,34.900,30.900,30.600
2.063,35.100,35.500,30.800,29.900
2.064,35.400,36.000,30.600,29.400
2.065,35.500,36.400,30.300,29.000
2.066,35.400,36.600,29.900,28.900
2.067,35.200,36.400,29.400,28.900
2.068,34.800,36.100,28.900,28.700
2.069,34.600,35.800,28.500,28.400
2.070,34.500,35.700,28.200,27.900
2.071,34.600,35.900,27.900,27.600
2.072,34.700,36.400,27.500,27.500
2.073,34.700,36.900,27.000,27.700
2.074,34.700,37.100,26.500,28.100
2.075,35.100,37.100,26.200,28.400
2.076,35.900,36.900,26.500,28.500
2.077,37.200,36.700,27.200,28.400
2.078,38.600,36.800,28.300,28.100
2.079,39.900,37.000,29.400,27.900
2.080,40.500,37.500,30.300,28.000
2.081,40.700,37.900,30.900,28.400
2.082,40.600,38.400,31.200,29.100
2.083,40.600,38.700,31.600,29.900
2.084,40.900,39.100,32.000,30.400
2.085,41.400,39.500,32.500,30.500
2.086,41.600,39.800,32.700,30.200
2.087,41.200,39.900,32.500,29.600
2.088,40.500,39.900,32.100,29.100
2.089,39.500,39.700,31.700,29.000
2.090,38.700,39.700,31.600,29.300
2.091,38.300,39.800,32.000,29.900
2.092,38.200,40.200,32.600,30.400
2.093,38.300,40.600,33.100,30.600
2.094,38.600,41.000,33.300,30.500
2.095,39.100,41.300,33.300,30.500
2.096,39.800,41.500,33.300,30.600
2.097,40.800,41.800,33.600,31.100
2.098,41.700,42.000,34.200,31.600
2.099,42.500,42.100,34.800,32.000
2.100,42.900,42.200,35.200,31.900
2.101,43.100,42.100,35.300,31.600
2.102,43.400,42.100,35.100,31.200
2.103,43.900,42.200,34.900,31.200
2.104,44.500,42.500,35.000,31.600
2.105,44.900,42.900,35.200,32.300
2.106,44.800,43.200,35.500,33.000
2.107,44.100,43.300,35.600,33.600
2.108,43.000,43.200,35.500,34.000
2.109,41.800,43.100,35.000,34.100
2.110,40.900,43.100,34.600,34.100
2.111,40.300,43.100,34.200,34.100
2.112,40.100,43.200,34.000,33.900
2.113,40.000,43.200,34.100,33.600
2.114,40.000,43.300,34.300,33.300
2.115,40.300,43.400,34.600,33.100
2.116,41.100,43.700,35.100,33.100
2.117,42.200,44.000,35.600,33.300
2.118,43.500,44.400,36.000,33.800
2.119,44.400,44.500,36.200,34.200
2.120,44.800,44.300,36.400,34.500
2.121,44.800,43.900,36.500,34.700
2.122,44.800,43.400,36.700,34.800
2.123,45.100,43.200,37.100,35.000
2.124,45.600,43.400,37.600,35.300
2.125,46.100,43.800,37.900,35.700
2.126,46.100,44.400,37.800,35.900
2.127,45.300,44.700,37.300,36.000
2.128,43.800,44.700,36.500,35.900
2.129,42.100,44.300,35.700,35.600
2.130,40.800,43.900,35.100,35.200
2.131,40.400,43.500,34.800,34.800
2.132,40.800,43.500,34.900,34.500
2.133,41.600,43.900,35.300,34.400
2.134,42.500,44.500,35.700,34.400
2.135,43.100,45.100,36.100,34.500
2.136,43.400,45.600,36.600,34.700
2.137,43.800,46.000,37.000,34.700
2.138,44.400,46.200,37.400,34.600
2.139,45.100,46.400,37.800,34.600
2.140,45.900,46.400,38.000,34.700
2.141,46.500,46.300,38.200,35.000
2.142,46.700,46.000,38.500,35.500
2.143,46.600,45.400,38.900,36.000
2.144,46.200,44.700,39.200,36.500
2.145,45.600,44.200,39.300,36.800
2.146,44.900,43.900,39.100,37.100
2.147,44.100,43.800,38.600,37.400
2.148,43.300,43.800,38.000,37.700
2.149,42.700,43.800,37.400,38.000
2.150,42.300,43.700,37.200,38.100
2.151,42.200,43.600,37.200,37.900
2.152,42.300,43.600,37.500,37.500
2.153,42.400,43.700,37.700,37.200
2.154,42.500,43.800,37.800,36.900
2.155,42.500,43.800,37.800,36.900
2.156,42.600,43.500,37.800,37.000
2.157,42.900,43.100,37.900,37.000
2.158,43.600,42.500,38.000,36.800
2.159,44.500,42.100,38.300,36.500
2.160,45.300,41.800,38.400,36.200
2.161,45.900,41.500,38.400,35.900
2.162,46.200,41.300,38.200,35.800
2.163,46.200,41.000,37.900,35.600
2.164,46.000,40.600,37.600,35.500
2.165,45.400,40.400,37.300,35.300
2.166,44.500,40.300,37.000,35.100
2.167,43.300,40.200,36.600,35.100
2.168,42.100,40.200,36.100,35.300
2.169,41.200,40.000,35.600,35.700
2.170,40.700,39.700,35.300,36.500
2.171,40.700,39.400,35.200,37.500
2.172,41.000,39.200,35.200,38.400
2.173,41.400,39.200,35.300,39.200
2.174,41.500,39.300,35.300,39.500
2.175,41.500,39.300,35.000,39.200
2.176,41.600,39.200,34.400,38.600
2.177,41.900,38.800,33.700,37.700
2.178,42.600,38.100,33.300,36.700
2.179,43.400,37.400,33.100,35.800
2.180,44.300,36.800,33.200,35.200
2.181,44.800,36.500,33.400,34.800
2.182,44.900,36.600,33.400,34.700
2.183,44.600,36.700,33.300,35.000
2.184,44.000,36.900,33.200,35.400
2.185,43.200,36.800,33.000,35.900
2.186,42.300,36.400,33.000,36.200
2.187,41.300,35.900,33.100,36.300
2.188,40.300,35.400,33.100,36.000
2.189,39.500,34.900,33.000,35.400
2.190,38.800,34.600,32.700,34.700
2.191,38.300,34.300,32.500,34.000
2.192,37.900,34.000,32.300,33.600
2.193,37.600,33.600,32.300,33.300
2.194,37.300,33.200,32.500,33.200
2.195,37.400,33.000,32.800,33.300
2.196,37.800,33.100,33.200,33.400
2.197,38.600,33.300,33.700,33.500
2.198,39.500,33.600,34.100,33.700
2.199,40.100,33.700,34.400,33.900
2.200,40.300,33.400,34.300,33.900
2.201,40.000,32.800,33.900,33.900
2.202,39.500,32.100,33.100,33.800
2.203,38.900,31.400,32.300,33.600
2.204,38.600,30.900,31.700,33.400
2.205,38.400,30.700,31.300,33.200
2.206,37.900,30.700,31.200,32.900
2.207,37.000,30.700,31.200,32.700
2.208,35.800,30.700,31.200,32.600
2.209,34.600,30.400,31.000,32.800
2.210,33.700,29.900,30.900,33.300
2.211,33.500,29.300,30.800,33.900
2.212,33.700,28.600,30.800,34.400
2.213,34.000,28.000,30.700,34.700
2.214,34.100,27.700,30.600,34.400
2.215,34.100,27.500,30.500,33.900
2.216,33.900,27.500,30.400,33.300
2.217,33.700,27.600,30.400,32.800
2.218,33.700,27.500,30.400,32.600
2.219,33.900,27.300,30.500,32.500
2.220,34.200,26.900,30.500,32.600
2.221,34.500,26.300,30.600,32.600
2.222,34.700,25.900,30.700,32.900
2.223,34.800,25.500,30.900,33.400
2.224,34.800,25.300,31.200,34.200
2.225,34.600,25.200,31.400,35.300
2.226,33.900,25.200,31.300,36.300
2.227,32.900,25.000,30.800,37.000
2.228,31.600,24.700,30.200,37.300
2.229,30.200,24.200,29.600,37.400
2.230,28.900,23.800,29.300,37.500
2.231,28.000,23.500,29.400,37.800
2.232,27.600,23.400,29.700,38.400
2.233,27.700,23.700,30.100,38.900
2.234,28.300,24.100,30.500,39.300
2.235,29.100,24.700,30.800,39.600
2.236,30.000,25.200,31.100,39.800
2.237,30.800,25.500,31.500,40.100
2.238,31.500,25.700,31.800,40.600
2.239,32.000,25.800,32.000,41.300
2.240,32.200,25.800,32.000,42.000
2.241,32.400,26.000,32.000,42.600
2.242,32.500,26.200,32.000,43.200
2.243,32.500,26.500,32.200,43.900
2.244,32.200,26.800,32.700,44.900
2.245,31.600,27.000,33.300,46.200
2.246,30.700,27.200,33.800,47.700
2.247,29.900,27.200,33.900,49.000
2.248,29.200,27.100,33.600,50.100
2.249,28.800,27.000,33.100,50.700
2.250,28.700,26.900,32.500,50.900
2.251,28.500,26.800,32.200,50.800
2.252,28.100,26.700,32.300,50.700
2.253,27.500,26.700,32.700,50.700
2.254,26.900,26.800,33.300,50.800
2.255,26.800,27.000,33.800,51.200
2.256,27.300,27.000,34.200,51.600
2.257,28.300,26.800,34.600,52.100
2.258,29.300,26.400,34.900,52.500
2.259,29.800,26.000,35.400,52.800
2.260,29.800,25.700,35.900,53.100
2.261,29.200,25.600,36.300,53.300
2.262,28.500,25.600,36.600,53.500
2.263,28.100,25.800,36.600,53.900
2.264,28.000,26.000,36.500,54.300
2.265,28.100,26.000,36.200,54.800
2.266,28.000,25.800,35.900,55.300
2.267,27.500,25.600,35.700,55.700
2.268,26.600,25.300,35.700,56.000
2.269,25.600,25.000,35.700,56.100
2.270,24.700,24.600,35.800,56.200
2.271,24.200,24.300,36.000,56.300
2.272,24.000,24.000,36.100,56.600
2.273,23.900,24.000,36.200,56.900
2.274,24.000,24.100,36.200,57.400
2.275,24.100,24.500,36.400,58.000
2.276,24.500,24.800,36.700,58.600
2.277,25.100,25.000,37.100,59.300
2.278,25.800,25.000,37.400,60.000
2.279,26.300,24.900,37.500,60.600
2.280,26.600,24.700,37.100,61.000
2.281,26.600,24.400,36.200,61.300
2.282,26.300,24.200,35.200,61.500
2.283,26.100,24.100,34.400,61.800
2.284,26.000,24.200,34.300,62.400
2.285,25.900,24.500,34.900,63.300
2.286,25.700,24.900,35.800,64.300
2.287,25.200,25.300,36.700,65.200
2.288,24.600,25.500,36.900,65.700
2.289,23.800,25.600,36.400,65.700
2.290,23.200,25.500,35.600,65.200
2.291,22.900,25.500,34.700,64.600
2.292,22.800,25.700,34.200,64.200
2.293,23.000,26.200,34.200,64.000
2.294,23.200,26.900,34.400,63.900
2.295,23.400,27.400,34.600,63.600
2.296,23.600,27.700,34.500,62.900
2.297,24.000,27.600,34.300,62.000
2.298,24.400,27.200,34.000,61.100
2.299,24.900,26.500,34.000,60.600
2.300,25.300,25.800,34.400,60.600
2.301,25.700,25.200,35.000,60.900
2.302,26.000,24.800,35.600,61.200
2.303,26.200,24.600,36.000,61.300
2.304,26.200,24.800,36.100,60.900
2.305,26.100,25.300,35.900,60.300
2.306,25.800,26.000,35.500,59.700
2.307,25.000,26.600,35.000,59.300
2.308,24.100,27.000,34.500,59.100
2.309,23.200,27.100,34.100,58.900
2.310,22.500,27.000,33.800,58.500
2.311,22.300,27.000,33.600,57.800
2.312,22.600,27.100,33.500,56.700
2.313,23.100,27.500,33.500,55.500
2.314,23.700,27.900,33.600,54.400
2.315,24.400,28.400,33.800,53.500
2.316,25.000,28.900,34.300,52.800
2.317,25.800,29.400,35.000,52.400
2.318,26.800,29.800,35.600,52.000
2.319,27.800,30.300,36.100,51.700
2.320,28.700,30.900,36.300,51.300
2.321,29.500,31.500,36.300,50.900
2.322,30.000,32.100,36.300,50.300
2.323,30.400,32.600,36.400,49.600
2.324,30.700,32.900,36.600,48.700
2.325,30.600,33.000,36.600,47.600
2.326,30.200,33.000,36.300,46.400
2.327,29.400,32.900,35.600,45.200
2.328,28.400,32.900,34.800,44.100
2.329,27.700,33.200,34.000,43.200
2.330,27.400,33.700,33.500,42.700
2.331,27.600,34.400,33.400,42.500
2.332,28.100,35.200,33.400,42.500
2.333,28.800,35.700,33.300,42.400
2.334,29.200,36.000,33.000,41.900
2.335,29.400,36.000,32.600,41.100
2.336,29.600,35.900,32.300,39.900
2.337,30.100,35.700,32.400,38.700
2.338,30.900,35.800,32.800,37.900
2.339,32.000,36.000,33.300,37.400
2.340,33.300,36.400,33.800,37.400
2.341,34.400,36.800,34.000,37.400
2.342,35.200,37.200,34.100,37.300
2.343,35.600,37.600,34.100,36.900
2.344,35.700,37.900,34.200,36.400
2.345,35.400,38.300,34.500,36.100
2.346,35.000,38.700,34.800,36.000
2.347,34.400,39.200,35.100,36.100
2.348,33.900,39.700,35.100,36.300
2.349,33.600,39.900,35.000,36.300
2.350,33.400,39.900,34.600,35.800
2.351,33.300,40.000,34.100,34.700
2.352,33.400,40.100,33.500,33.400
2.353,33.600,40.400,33.100,32.200
2.354,34.000,40.900,33.000,31.200
2.355,34.500,41.200,33.100,30.800
2.356,35.200,41.200,33.300,30.700
2.357,35.900,40.900,33.600,30.900
2.358,36.600,40.400,33.900,31.000
2.359,37.100,40.000,34.000,30.800
2.360,37.600,39.800,34.100,30.400
2.361,38.100,39.800,34.300,29.800
2.362,38.600,39.800,34.700,29.200
2.363,39.200,39.600,35.000,28.900
2.364,39.600,39.300,35.300,29.000
2.365,39.600,38.900,35.300,29.400
2.366,39.100,38.600,35.000,30.000
2.367,38.100,38.700,34.600,30.500
2.368,36.900,38.900,34.100,30.900
2.369,35.800,39.200,33.800,30.900
2.370,35.100,39.300,33.700,30.700
2.371,34.900,39.100,33.700,30.300
2.372,35.100,38.600,33.600,29.800
2.373,35.400,38.000,33.500,29.400
2.374,35.800,37.500,33.200,29.000
2.375,36.100,37.200,33.000,28.500
2.376,36.400,36.900,32.700,27.900
2.377,36.900,36.400,32.500,27.300
2.378,37.300,35.800,32.200,26.500
2.379,37.600,34.800,31.600,25.800
2.380,37.600,33.700,30.700,24.900
2.381,37.400,32.500,29.700,24.000
2.382,37.100,31.600,28.800,23.100
2.383,37.000,31.100,28.600,22.300
2.384,37.200,31.200,29.100,21.900
2.385,37.500,32.100,30.200,21.900
2.386,37.700,33.400,31.300,22.400
2.387,37.500,34.900,32.200,23.100
2.388,36.700,36.100,32.600,23.600
2.389,35.700,36.600,32.500,23.800
2.390,34.800,36.600,32.300,24.000
2.391,34.400,36.400,32.400,24.400
2.392,34.700,36.600,33.000,25.400
2.393,35.400,37.500,33.900,26.800
2.394,36.200,39.000,34.800,28.500
2.395,36.900,40.800,35.500,30.000
2.396,37.500,42.200,36.200,31.300
2.397,38.200,43.000,36.900,32.600
2.398,39.100,43.400,37.900,34.100
2.399,40.200,43.600,39.100,36.300
2.400,41.200,44.100,40.300,39.000
2.401,41.900,45.000,41.300,41.800
2.402,42.100,46.200,41.900,43.900
2.403,42.000,47.400,42.100,45.100
2.404,41.800,48.200,42.200,45.200
2.405,41.400,48.600,42.100,44.600
2.406,41.100,48.600,42.000,43.800
2.407,40.700,48.400,41.700,43.000
2.408,40.000,48.000,41.000,42.100
2.409,39.200,47.200,39.800,41.000
2.410,38.400,45.900,38.100,39.100
2.411,37.600,43.800,35.900,36.400
2.412,36.800,40.800,33.400,32.700
2.413,35.900,37.200,30.800,28.400
2.414,35.100,33.300,28.200,23.900
2.415,34.300,29.500,26.200,19.800
2.416,33.800,26.300,24.800,16.500
2.417,33.900,24.300,24.300,14.300
2.418,34.700,23.600,24.500,13.200
2.419,35.800,24.100,25.100,12.900
2.420,36.900,25.300,25.700,13.200
2.421,37.600,26.700,26.200,13.800
2.422,37.600,27.800,26.500,14.500
2.423,37.100,28.200,26.600,15.100
2.424,36.400,28.000,26.800,15.500
2.425,35.800,27.500,27.000,15.700
2.426,35.400,27.100,27.100,15.700
2.427,35.000,26.900,27.100,15.700
2.428,34.500,27.000,26.800,15.800
2.429,33.900,27.100,26.400,15.800
2.430,33.100,27.000,26.000,15.800
2.431,32.300,26.700,25.700,15.700
2.432,31.700,26.100,25.500,15.400
2.433,31.300,25.500,25.200,15.100
2.434,31.200,25.100,24.900,14.900
2.435,31.200,24.900,24.400,14.900
2.436,31.300,24.800,23.900,14.900
2.437,31.500,24.600,23.300,14.700
2.438,32.000,24.300,22.800,14.100
2.439,32.700,23.700,22.500,13.100
2.440,33.300,23.200,22.300,12.100
2.441,33.800,22.800,22.300,11.500
2.442,33.800,22.700,22.400,11.400
2.443,33.400,22.800,22.400,11.900
2.444,32.600,22.900,22.500,12.400
2.445,31.600,22.800,22.300,12.700
2.446,30.500,22.600,22.000,12.300
2.447,29.400,22.000,21.400,11.400
2.448,28.400,21.200,20.500,10.300
2.449,27.500,20.400,19.500,9.300
2.450,26.600,19.600,18.600,8.900
2.451,25.800,19.200,17.800,8.900
2.452,25.200,19.000,17.200,9.100
2.453,24.900,19.000,16.700,9.200
2.454,25.100,19.200,16.200,9.100
2.455,25.800,19.200,15.700,8.500
2.456,26.800,18.800,15.300,7.700
2.457,27.900,18.200,15.100,6.800
2.458,28.900,17.400,15.100,6.000
2.459,29.600,16.600,15.400,5.500
2.460,30.000,15.900,15.900,5.300
2.461,30.100,15.400,16.300,5.100
2.462,30.000,14.800,16.400,4.900
2.463,29.700,14.200,16.200,4.500
2.464,29.200,13.500,15.800,4.000
2.465,28.500,13.000,15.400,3.400
2.466,27.500,12.900,15.400,3.100
2.467,26.500,13.100,15.600,3.100
2.468,25.600,13.400,15.900,3.300
2.469,24.900,13.500,15.900,3.500
2.470,24.300,13.300,15.600,3.500
2.471,23.600,12.700,14.800,3.100
2.472,22.700,12.000,13.900,2.500
2.473,21.800,11.500,13.100,2.000
2.474,21.000,11.300,12.800,1.900
2.475,20.900,11.400,13.000,2.300
2.476,21.500,11.700,13.500,2.900
2.477,22.900,11.800,14.200,3.500
2.478,24.600,11.700,14.700,3.500
2.479,26.000,11.200,14.900,3.100
2.480,26.800,10.700,14.900,2.300
2.481,26.800,10.300,15.000,1.700
2.482,26.400,10.200,15.200,1.400
2.483,25.800,10.400,15.400,1.800
2.484,25.300,10.800,15.600,2.500
2.485,24.900,11.400,15.600,3.300
2.486,24.600,12.100,15.300,3.900
2.487,24.100,12.600,14.900,4.000
2.488,23.400,13.000,14.500,3.800
2.489,22.500,13.300,14.200,3.500
2.490,21.600,13.300,14.000,3.200
2.491,20.800,13.400,13.800,3.000
2.492,20.400,13.400,13.600,3.000
2.493,20.300,13.500,13.200,3.000
2.494,20.600,13.400,12.900,3.100
2.495,21.300,13.100,12.800,3.200
2.496,22.000,12.500,12.800,3.300
2.497,22.700,11.800,12.900,3.500
2.498,23.200,11.100,13.100,3.600
2.499,23.600,10.800,13.200,3.600
2.500,23.900,11.000,13.500,3.500
2.501,24.300,11.500,14.000,3.200
2.502,24.700,12.100,14.600,2.800
2.503,24.900,12.500,15.300,2.500
2.504,24.700,12.500,15.800,2.300
2.505,23.900,12.100,15.900,2.300
2.506,22.500,11.700,15.600,2.400
2.507,21.000,11.500,14.800,2.500
2.508,19.800,11.600,13.900,2.700
2.509,19.000,11.900,13.000,2.800
2.510,18.800,12.000,12.200,2.900
2.511,18.800,11.800,11.700,2.900
2.512,18.800,11.200,11.200,2.800
2.513,18.800,10.500,10.800,2.700
2.514,18.700,10.100,10.600,2.500
2.515,18.900,10.100,10.500,2.500
2.516,19.400,10.500,10.700,2.600
2.517,20.200,11.000,10.900,2.800
2.518,21.200,11.300,11.100,2.900
2.519,22.200,11.300,11.300,3.000
2.520,23.100,10.900,11.600,2.900
2.521,23.800,10.400,11.800,2.700
2.522,24.200,10.100,12.100,2.500
2.523,24.300,10.200,12.500,2.300
2.524,23.800,10.400,12.800,2.100
2.525,22.900,10.500,12.800,1.800
2.526,21.400,10.200,12.400,1.500
2.527,19.800,9.500,11.700,1.000
2.528,18.300,8.600,10.800,0.500
2.529,17.200,7.800,10.000,0.100
2.530,16.500,7.300,9.300,-0.100
2.531,16.300,7.100,8.900,-0.100
2.532,16.500,7.100,8.900,0.200
2.533,16.900,7.300,9.000,0.600
2.534,17.300,7.600,9.300,0.900
2.535,17.700,7.800,9.500,1.100
2.536,18.100,8.100,9.600,1.100
2.537,18.600,8.500,9.600,0.900
2.538,19.200,8.800,9.500,0.600
2.539,19.800,8.900,9.500,0.200
2.540,20.400,8.800,9.600,-0.100
2.541,20.900,8.600,9.900,-0.400
2.542,21.100,8.200,10.300,-0.400
2.543,21.200,8.000,10.900,-0.300
2.544,21.000,7.800,11.400,0.100
2.545,20.700,7.800,11.700,0.700
2.546,20.200,7.900,11.700,1.400
2.547,19.600,8.000,11.500,2.000
2.548,19.000,7.900,11.100,2.500
2.549,18.200,7.900,10.500,2.900
2.550,17.500,7.800,10.000,3.100
2.551,16.800,7.900,9.500,3.300
2.552,16.200,8.000,9.200,3.500
2.553,15.800,8.100,8.800,3.600
2.554,15.700,8.000,8.700,3.500
2.555,15.900,7.700,8.600,3.300
2.556,16.400,7.400,8.900,3.100
2.557,17.100,7.200,9.200,2.900
2.558,17.900,7.300,9.600,2.900
2.559,18.600,7.700,9.800,3.000
2.560,19.100,8.100,9.700,2.900
2.561,19.300,8.500,9.300,2.500
2.562,19.300,8.600,8.900,1.800
2.563,19.200,8.400,8.800,1.000
2.564,19.000,7.900,9.000,0.300
2.565,18.700,7.600,9.400,0.000
2.566,18.100,7.400,9.600,0.200
2.567,17.300,7.600,9.500,0.600
2.568,16.400,7.900,8.800,1.000
2.569,15.500,8.200,7.900,1.200
2.570,14.900,8.300,7.100,1.100
2.571,14.500,8.000,6.400,0.800
2.572,14.400,7.500,6.100,0.600
2.573,14.400,7.000,5.900,0.500
2.574,14.600,6.500,5.800,0.600
2.575,15.100,6.400,5.800,0.600
2.576,15.800,6.400,5.900,0.400
2.577,16.700,6.700,6.200,0.000
2.578,17.600,6.900,6.800,-0.400
2.579,18.100,7.100,7.500,-0.500
2.580,18.300,7.100,8.200,-0.200
2.581,18.100,7.000,8.600,0.400
2.582,17.800,6.800,8.700,1.000
2.583,17.500,6.500,8.500,1.600
2.584,17.400,6.300,8.300,1.900
2.585,17.200,6.200,7.900,1.800
2.586,16.700,6.200,7.500,1.600
2.587,15.700,6.100,6.900,1.200
2.588,14.400,5.800,6.200,0.800
2.589,13.300,5.500,5.600,0.400
2.590,12.600,5.100,5.100,0.000
2.591,12.600,4.900,4.900,-0.300
2.592,13.100,4.900,5.000,-0.600
2.593,13.700,5.300,5.200,-0.800
2.594,14.100,5.800,5.500,-0.900
2.595,14.200,6.200,5.700,-1.000
2.596,14.100,6.300,5.700,-1.300
2.597,14.100,6.000,5.600,-1.600
2.598,14.500,5.600,5.700,-2.000
2.599,15.200,5.200,6.100,-2.300
2.600,15.900,5.200,6.600,-2.500
2.601,16.500,5.500,7.200,-2.500
2.602,16.700,5.900,7.700,-2.400
2.603,16.500,6.200,7.800,-2.300
2.604,16.000,6.300,7.700,-2.300
2.605,15.400,6.100,7.300,-2.400
2.606,14.800,5.800,6.800,-2.500
2.607,14.100,5.600,6.500,-2.500
2.608,13.600,5.600,6.400,-2.400
2.609,13.100,5.900,6.500,-2.000
2.610,12.700,6.500,6.800,-1.400
2.611,12.400,7.100,7.100,-0.900
2.612,12.200,7.700,7.300,-0.500
2.613,12.000,8.200,7.400,-0.300
2.614,12.000,8.300,7.400,-0.400
2.615,12.200,8.100,7.400,-0.500
2.616,12.700,7.900,7.500,-0.500
2.617,13.400,7.600,7.500,-0.400
2.618,14.200,7.600,7.700,-0.400
2.619,14.900,7.700,7.800,-0.600
2.620,15.400,7.800,8.000,-1.000
2.621,15.700,7.700,8.200,-1.600
2.622,15.800,7.500,8.400,-2.000
2.623,15.900,7.200,8.500,-2.100
2.624,15.800,6.900,8.600,-1.700
2.625,15.400,6.700,8.600,-1.000
2.626,14.700,6.800,8.500,-0.200
2.627,13.700,7.000,8.400,0.500
2.628,12.800,7.300,8.400,1.000
2.629,12.100,7.700,8.500,1.100
2.630,11.700,8.200,8.700,1.200
2.631,11.600,8.700,8.800,1.200
2.632,11.500,9.200,8.500,1.400
2.633,11.400,9.400,7.900,1.600
2.634,11.400,9.500,7.200,1.800
2.635,11.800,9.400,6.900,1.900
2.636,12.800,9.400,7.100,2.000
2.637,14.100,9.600,8.000,2.100
2.638,15.400,10.100,9.100,2.400
2.639,16.200,10.800,10.200,2.700
2.640,16.400,11.400,10.800,3.000
2.641,16.200,11.800,11.000,3.300
2.642,16.200,11.900,11.100,3.500
2.643,16.500,11.800,11.200,3.700
2.644,17.300,11.900,11.600,4.100
2.645,17.900,12.200,11.900,4.800
2.646,18.000,12.600,12.200,5.800
2.647,17.300,12.900,12.000,6.700
2.648,16.000,13.000,11.500,7.400
2.649,14.800,12.900,10.900,7.800
2.650,14.100,12.800,10.500,8.000
2.651,14.100,12.900,10.400,8.000
2.652,14.500,13.200,10.700,8.100
2.653,15.100,13.600,11.100,8.300
2.654,15.500,14.000,11.500,8.400
2.655,15.600,14.300,11.900,8.500
2.656,15.700,14.600,12.500,8.500
2.657,16.100,14.900,13.200,8.500
2.658,16.800,15.400,14.000,8.800
2.659,17.800,15.900,14.900,9.400
2.660,18.800,16.300,15.600,10.200
2.661,19.500,16.600,16.000,10.900
2.662,19.900,16.600,16.100,11.300
2.663,20.000,16.500,15.900,11.300
2.664,19.800,16.400,15.400,10.900
2.665,19.400,16.400,14.900,10.400
2.666,18.700,16.400,14.400,10.000
2.667,17.900,16.300,14.000,9.800
2.668,17.100,16.300,13.700,10.000
2.669,16.700,16.400,13.600,10.300
2.670,16.600,16.600,13.700,10.700
2.671,16.800,17.000,13.800,10.900
2.672,17.100,17.400,13.900,10.800
2.673,17.100,17.600,14.000,10.600
2.674,16.900,17.600,14.100,10.400
2.675,16.700,17.500,14.100,10.300
2.676,16.700,17.300,14.200,10.500
2.677,17.200,17.400,14.500,11.000
2.678,18.100,17.700,15.100,11.600
2.679,19.200,18.000,15.800,12.100
2.680,20.100,18.300,16.500,12.200
2.681,20.700,18.300,17.000,12.000
2.682,20.900,18.100,17.000,11.600
2.683,20.800,17.800,16.800,11.200
2.684,20.500,17.800,16.300,11.100
2.685,20.100,18.100,15.900,11.400
2.686,19.500,18.600,15.600,12.000
2.687,18.700,19.300,15.500,12.600
2.688,17.800,19.800,15.400,13.000
2.689,17.100,20.300,15.200,13.100
2.690,16.700,20.600,14.900,12.900
2.691,16.600,20.900,14.500,12.600
2.692,16.800,21.100,14.200,12.400
2.693,17.100,21.300,14.000,12.500
2.694,17.300,21.400,14.200,12.800
2.695,17.500,21.600,14.600,13.300
2.696,18.000,21.900,15.200,13.700
2.697,18.700,22.300,15.900,14.000
2.698,19.800,22.800,16.600,14.000
2.699,20.800,23.200,17.100,13.800
2.700,21.600,23.300,17.300,13.400
2.701,21.800,23.100,17.200,13.000
2.702,21.500,22.600,16.900,12.800
2.703,20.900,22.100,16.600,12.900
2.704,20.300,21.800,16.400,13.300
2.705,19.900,21.700,16.400,13.800
2.706,19.500,21.800,16.600,14.500
2.707,19.000,21.900,16.800,15.000
2.708,18.300,21.900,16.800,15.300
2.709,17.500,21.700,16.700,15.300
2.710,16.900,21.500,16.500,15.300
2.711,16.800,21.400,16.600,15.300
2.712,17.300,21.500,17.100,15.400
2.713,18.200,22.000,17.800,15.700
2.714,19.200,22.600,18.700,16.000
2.715,20.100,23.300,19.300,16.200
2.716,20.600,23.700,19.500,16.100
2.717,21.100,23.800,19.300,15.700
2.718,21.700,23.600,19.000,15.300
2.719,22.300,23.400,18.800,15.100
2.720,22.900,23.300,18.900,15.100
2.721,23.500,23.500,19.400,15.400
2.722,23.800,23.900,20.000,15.900
2.723,24.000,24.400,20.400,16.500
2.724,24.000,24.700,20.500,17.100
2.725,23.700,24.800,20.300,17.600
2.726,23.200,24.600,19.900,18.100
2.727,22.200,24.400,19.500,18.700
2.728,21.000,24.300,19.400,19.400
2.729,19.700,24.400,19.700,20.000
2.730,18.900,24.600,20.100,20.500
2.731,18.600,24.800,20.500,20.900
2.732,18.800,24.800,20.800,21.000
2.733,19.300,24.800,21.000,21.000
2.734,19.800,24.700,21.000,21.100
2.735,20.100,24.800,21.000,21.300
2.736,20.500,25.100,21.100,21.800
2.737,21.000,25.400,21.400,22.300
2.738,21.900,25.500,21.800,22.800
2.739,23.000,25.200,22.300,23.100
2.740,24.000,24.800,22.500,23.100
2.741,24.700,24.300,22.400,23.000
2.742,24.700,24.000,22.000,23.000
2.743,24.200,24.100,21.500,23.300
2.744,23.400,24.500,21.000,23.900
2.745,22.600,25.100,20.900,24.700
2.746,22.000,25.700,21.100,25.700
2.747,21.700,26.300,21.700,26.600
2.748,21.600,26.800,22.300,27.200
2.749,21.400,27.400,22.800,27.700
2.750,21.200,28.000,23.000,27.900
2.751,20.800,28.500,22.900,28.000
2.752,20.300,28.900,22.600,28.000
2.753,19.800,29.000,22.400,28.100
2.754,19.500,29.000,22.300,28.100
2.755,19.500,29.000,22.500,28.400
2.756,19.900,29.100,22.900,28.700
2.757,20.500,29.400,23.400,29.200
2.758,21.300,29.700,23.900,29.600
2.759,22.000,29.700,24.200,29.900
2.760,22.600,29.500,24.300,29.800
2.761,23.100,29.100,24.300,29.600
2.762,23.500,28.600,24.300,29.200
2.763,23.600,28.500,24.400,29.000
2.764,23.500,28.700,24.600,29.000
2.765,23.000,29.400,25.000,29.000
2.766,22.000,30.200,25.200,29.000
2.767,20.800,30.900,25.300,28.900
2.768,19.700,31.400,25.100,28.700
2.769,19.000,31.700,24.800,28.800
2.770,18.900,32.000,24.600,29.200
2.771,19.200,32.600,24.700,30.000
2.772,19.600,33.400,25.100,30.900
2.773,20.000,34.200,25.700,31.600
2.774,20.200,34.800,26.300,31.900
2.775,20.400,35.100,26.600,31.700
2.776,20.700,34.800,26.800,31.300
2.777,21.300,34.400,26.900,30.800
2.778,22.200,34.000,27.000,30.600
2.779,22.900,33.900,27.200,30.600
2.780,23.400,34.000,27.400,30.700
2.781,23.500,34.300,27.600,30.700
2.782,23.200,34.400,27.500,30.500
2.783,22.800,34.200,27.200,30.200
2.784,22.400,33.800,26.900,30.100
2.785,22.000,33.300,26.800,30.200
2.786,21.600,33.100,27.000,30.700
2.787,21.100,33.300,27.300,31.300
2.788,20.600,33.700,27.600,31.700
2.789,20.000,34.000,27.600,31.700
2.790,19.400,34.100,27.100,31.400
2.791,18.800,34.000,26.200,31.100
2.792,18.200,33.700,25.200,30.900
2.793,17.700,33.500,24.500,31.100
2.794,17.300,33.600,24.100,31.500
2.795,17.100,33.900,24.200,32.100
2.796,17.300,34.300,24.500,32.500
2.797,17.900,34.700,24.900,32.700
2.798,18.900,35.100,25.400,32.800
2.799,20.000,35.500,25.800,32.800
2.800,20.900,36.000,26.200,32.900
2.801,21.500,36.700,26.700,32.700
2.802,21.600,37.500,26.900,32.200
2.803,21.400,38.400,26.900,31.200
2.804,21.100,39.300,26.500,29.900
2.805,20.800,40.500,25.800,28.500
2.806,20.500,42.300,25.100,27.200
2.807,20.200,44.900,24.700,26.100
2.808,19.900,48.200,24.900,25.200
2.809,19.700,52.000,25.500,24.300
2.810,19.800,55.900,26.500,23.500
2.811,20.100,59.500,27.600,22.900
2.812,20.500,62.400,28.600,22.700
2.813,20.800,64.700,29.400,23.300
2.814,20.800,66.500,30.000,24.600
2.815,20.500,68.100,30.600,26.500
2.816,20.300,69.500,31.400,28.800
2.817,20.300,71.200,32.500,31.300
2.818,20.600,73.000,34.000,34.200
2.819,20.900,75.100,35.800,37.700
2.820,21.000,77.000,37.800,42.000
2.821,20.400,78.500,39.700,47.300
2.822,18.900,79.200,41.600,53.200
2.823,16.700,78.900,43.300,59.500
2.824,14.000,77.700,44.800,66.000
2.825,11.100,75.900,46.100,72.400
2.826,8.400,73.900,47.200,78.900
2.827,5.800,72.000,48.200,85.600
2.828,3.400,70.000,49.000,92.400
2.829,0.900,67.600,49.700,99.400
2.830,-1.900,64.400,50.300,106.700
2.831,-5.200,60.200,50.700,114.100
2.832,-9.000,55.200,51.100,121.600
2.833,-12.900,49.800,51.500,128.800
2.834,-16.500,44.800,51.900,135.600
2.835,-19.300,40.400,52.400,141.700
2.836,-21.300,36.800,52.900,146.900
2.837,-22.500,33.800,53.300,151.200
2.838,-23.400,31.100,53.600,154.400
2.839,-24.300,28.700,53.600,156.500
2.840,-25.200,26.600,53.100,157.500
2.841,-26.100,25.000,52.000,156.900
2.842,-26.700,23.700,50.100,154.500
2.843,-27.200,22.300,47.300,150.000
2.844,-27.600,20.300,43.600,143.700
2.845,-28.200,17.300,39.200,135.900
2.846,-29.300,13.200,34.500,127.600
2.847,-30.700,8.300,29.900,119.500
2.848,-32.200,3.200,25.700,112.400
2.849,-33.400,-1.700,22.100,106.200
2.850,-34.100,-6.100,19.100,100.500
2.851,-34.400,-10.200,16.200,94.300
2.852,-34.400,-13.900,13.300,87.100
2.853,-34.000,-17.300,10.200,78.600
2.854,-33.300,-20.100,7.000,69.400
2.855,-32.000,-21.800,3.900,60.600
2.856,-30.200,-22.200,1.500,53.100
2.857,-28.000,-21.300,0.100,47.300
2.858,-25.800,-19.400,-0.400,43.100
2.859,-23.700,-16.900,0.100,39.800
2.860,-21.900,-14.100,1.100,36.900
2.861,-20.200,-11.300,2.200,34.100
2.862,-18.600,-8.200,3.300,31.500
2.863,-16.900,-4.900,4.200,29.600
2.864,-15.300,-1.100,5.100,28.700
2.865,-14.100,3.000,6.200,28.500
2.866,-13.200,7.200,7.300,28.600
2.867,-12.600,11.200,8.500,28.400
2.868,-12.200,14.900,9.600,27.500
2.869,-11.600,18.000,10.300,26.100
2.870,-10.900,20.600,10.500,24.600
2.871,-10.100,22.800,10.400,23.600
2.872,-9.400,24.700,10.300,23.300
2.873,-8.700,26.500,10.500,23.900
2.874,-7.900,28.600,11.400,25.100
2.875,-6.800,30.900,12.900,26.600
2.876,-5.200,33.400,14.700,28.100
2.877,-3.100,35.800,16.500,29.400
2.878,-0.800,37.900,17.800,30.500
2.879,1.100,39.600,18.600,31.500
2.880,2.400,41.000,19.200,32.600
2.881,3.100,42.400,19.800,34.000
2.882,3.600,44.000,20.900,35.700
2.883,4.100,45.900,22.500,37.500
2.884,4.600,47.800,24.100,39.200
2.885,5.100,49.500,25.500,40.300
2.886,5.300,50.800,26.200,41.000
2.887,5.200,51.600,26.300,41.600
2.888,5.200,52.200,26.400,42.400
2.889,5.500,53.100,26.900,43.800
2.890,6.100,54.400,28.100,45.900
2.891,6.900,56.200,29.800,48.200
2.892,7.600,58.000,31.700,50.300
2.893,7.900,59.600,33.100,51.900
2.894,7.900,60.800,33.900,52.900
2.895,8.100,61.700,34.200,53.400
2.896,8.800,62.200,34.200,53.500
2.897,10.400,62.500,34.400,53.500
2.898,12.300,62.500,34.900,53.300
2.899,14.100,62.100,35.400,52.900
2.900,15.200,61.300,35.500,51.900
2.901,15.300,60.100,35.000,50.300
2.902,14.600,58.300,33.600,47.900
2.903,13.500,55.900,31.600,44.700
2.904,12.300,53.100,29.200,41.000
2.905,11.300,50.100,26.700,37.400
2.906,10.300,47.300,24.500,34.500
2.907,9.400,45.300,22.900,32.600
2.908,8.600,44.400,22.000,31.800
2.909,8.200,44.700,22.000,32.000
2.910,8.200,45.700,22.600,32.600
2.911,8.600,47.000,23.600,33.200
2.912,9.200,48.000,24.500,33.700
2.913,9.700,48.700,25.000,34.000
2.914,10.100,49.200,25.200,34.500
2.915,10.500,49.800,25.300,35.300
2.916,11.200,50.600,25.700,36.400
2.917,12.200,51.500,26.500,37.600
2.918,13.400,52.200,27.700,38.500
2.919,14.400,52.500,28.700,38.900
2.920,15.100,52.500,29.400,39.100
2.921,15.300,52.400,29.700,39.200
2.922,15.500,52.500,29.600,39.500
2.923,15.800,53.100,29.700,40.200
2.924,16.300,53.900,30.100,41.100
2.925,16.600,54.700,30.900,42.000
2.926,16.600,55.200,31.900,42.600
2.927,15.900,55.400,32.600,42.900
2.928,14.800,55.500,32.900,42.800
2.929,13.900,55.700,32.900,42.900
2.930,13.600,56.300,32.900,43.200
2.931,14.000,57.100,33.000,44.000
2.932,14.900,57.900,33.500,45.000
2.933,15.800,58.400,34.000,45.900
2.934,16.300,58.500,34.300,46.400
2.935,16.500,58.300,34.200,46.200
2.936,16.700,58.000,33.800,45.500
2.937,17.300,57.900,33.500,44.700
2.938,18.300,58.200,33.600,44.200
2.939,19.600,58.700,34.100,44.300
2.940,20.800,59.300,35.000,45.000
2.941,21.500,59.700,35.900,45.700
2.942,21.800,59.700,36.500,46.200
2.943,21.700,59.500,36.500,46.200
2.944,21.600,59.000,36.100,45.900
2.945,21.500,58.600,35.600,45.500
2.946,21.300,58.200,35.200,45.500
2.947,21.100,58.000,35.000,45.800
2.948,20.600,58.000,35.200,46.500
2.949,20.100,58.100,35.500,47.200
2.950,19.600,58.400,35.800,47.800
2.951,19.400,58.800,36.100,48.300
2.952,19.500,59.200,36.200,48.700
2.953,19.800,59.500,36.100,49.000
2.954,20.200,59.600,35.900,49.100
2.955,20.800,59.500,35.600,49.100
2.956,21.300,59.300,35.300,48.800
2.957,21.900,59.000,35.300,48.200
2.958,22.200,58.700,35.600,47.500
2.959,22.400,58.600,36.100,47.000
2.960,22.400,58.500,36.600,46.700
2.961,22.400,58.400,36.900,46.500
2.962,22.600,58.300,36.900,46.400
2.963,23.000,58.000,36.700,46.200
2.964,23.500,57.700,36.500,46.000
2.965,23.700,57.500,36.400,45.800
2.966,23.500,57.500,36.500,45.900
2.967,22.800,57.700,36.600,46.100
2.968,21.800,58.000,36.700,46.600
2.969,21.100,58.300,36.600,47.000
2.970,20.700,58.500,36.400,47.200
2.971,20.700,58.600,36.100,47.100
2.972,20.800,58.500,35.800,46.700
2.973,20.900,58.300,35.600,46.400
2.974,20.900,58.200,35.500,46.100
2.975,20.900,58.200,35.600,46.000
2.976,21.300,58.300,35.900,46.000
2.977,22.300,58.600,36.500,46.300
2.978,23.600,59.100,37.400,46.600
2.979,25.000,59.600,38.100,47.000
2.980,26.000,60.000,38.600,47.400
2.981,26.600,60.300,38.600,47.900
2.982,26.600,60.200,38.400,48.300
2.983,26.300,60.000,38.200,48.600
2.984,25.800,59.600,38.100,48.800
2.985,25.300,59.200,38.200,49.000
2.986,24.800,58.900,38.400,49.200
2.987,24.400,58.800,38.500,49.500
2.988,24.000,58.800,38.400,49.800
2.989,23.800,58.800,38.100,50.000
2.990,23.600,58.900,37.800,50.100
2.991,23.600,58.900,37.800,50.300
2.992,23.600,58.800,38.000,50.500
2.993,23.700,58.800,38.300,50.900
2.994,23.900,58.900,38.600,51.400
2.995,24.200,59.000,38.800,51.800
2.996,24.700,59.000,38.800,51.900
2.997,25.300,58.700,38.700,51.600
2.998,26.000,58.200,38.600,51.100
2.999,26.700,57.500,38.600,50.500
3.000,27.200,56.900,38.700,50.300
3.001,27.600,56.400,38.800,50.300
3.002,27.800,56.200,38.800,50.600
3.003,27.700,56.100,38.700,50.900
3.004,27.500,55.900,38.400,51.000
3.005,27.200,55.600,37.800,50.700
3.006,26.500,55.100,36.900,50.300
3.007,25.600,54.700,35.900,50.000
3.008,24.600,54.400,35.000,49.900
3.009,23.600,54.300,34.500,50.000
3.010,22.900,54.400,34.600,50.300
3.011,22.600,54.500,35.100,50.600
3.012,22.600,54.500,35.700,50.800
3.013,22.800,54.300,35.900,50.800
3.014,23.200,53.900,35.800,50.600
3.015,23.500,53.500,35.400,50.300
3.016,23.900,53.200,35.200,50.100
3.017,24.300,53.100,35.500,50.100
3.018,24.900,53.100,36.300,50.400
3.019,25.600,53.100,37.200,50.900
3.020,26.300,53.200,37.900,51.400
3.021,26.600,53.000,38.100,51.800
3.022,26.700,52.700,37.800,52.000
3.023,26.400,52.200,37.300,51.900
3.024,25.900,51.800,37.000,51.700
3.025,25.300,51.500,37.100,51.600
3.026,24.700,51.500,37.500,51.700
3.027,24.100,51.800,37.700,51.900
3.028,23.600,52.200,37.700,52.300
3.029,23.300,52.600,37.400,52.600
3.030,23.300,52.800,37.000,52.800
3.031,23.400,52.700,36.900,53.000
3.032,23.600,52.500,37.100,53.400
3.033,23.600,52.400,37.700,54.100
3.034,23.600,52.500,38.400,55.000
3.035,23.700,52.700,39.000,56.000
3.036,23.900,52.900,39.500,56.500
3.037,24.300,52.700,39.700,56.500
3.038,24.700,52.100,39.900,56.000
3.039,24.900,51.200,40.000,55.200
3.040,24.900,50.300,40.100,54.500
3.041,24.500,49.700,40.100,54.200
3.042,24.200,49.600,39.900,54.600
3.043,24.000,49.800,39.600,55.300
3.044,23.900,50.100,39.200,56.200
3.045,23.900,50.200,38.900,57.100
3.046,23.800,50.000,38.800,57.700
3.047,23.200,49.700,38.800,58.100
3.048,22.300,49.400,39.000,58.300
3.049,21.200,49.300,39.000,58.200
3.050,20.100,49.100,38.700,58.000
3.051,19.300,48.800,38.300,57.800
3.052,18.900,48.200,37.700,57.700
3.053,19.000,47.300,37.200,57.800
3.054,19.500,46.400,37.100,58.100
3.055,20.200,45.700,37.400,58.400
3.056,21.100,45.300,37.800,58.800
3.057,22.000,45.100,38.200,59.100
3.058,22.600,45.000,38.400,59.400
3.059,22.900,44.500,38.200,59.700
3.060,22.700,43.700,37.800,60.000
3.061,22.300,42.600,37.400,60.300
3.062,21.600,41.500,37.000,60.600
3.063,21.000,40.600,36.800,60.700
3.064,20.300,40.000,36.600,60.700
3.065,19.600,39.900,36.300,60.700
3.066,18.700,40.100,35.800,60.900
3.067,17.700,40.200,35.300,61.100
3.068,16.600,40.200,34.700,61.400
3.069,15.700,39.700,34.400,61.600
3.070,15.000,39.000,34.400,61.500
3.071,14.700,38.100,34.600,61.300
3.072,14.700,37.400,34.900,61.100
3.073,14.800,37.000,35.200,61.000
3.074,15.000,36.800,35.200,61.200
3.075,15.200,36.800,35.100,61.600
3.076,15.500,36.700,34.900,62.200
3.077,15.900,36.300,34.700,62.700
3.078,16.200,35.800,34.500,63.000
3.079,16.500,35.300,34.500,63.000
3.080,16.500,34.900,34.500,62.800
3.081,16.400,34.700,34.400,62.600
3.082,16.000,34.600,34.400,62.500
3.083,15.600,34.500,34.200,62.500
3.084,14.900,34.100,34.000,62.600
3.085,14.200,33.400,33.600,62.600
3.086,13.300,32.500,33.200,62.700
3.087,12.400,31.700,32.700,62.700
3.088,11.500,31.200,32.300,62.900
3.089,10.800,31.000,31.900,63.100
3.090,10.200,31.100,31.700,63.400
3.091,9.800,31.300,31.600,63.600
3.092,9.400,31.400,31.700,63.900
3.093,9.100,31.400,31.900,64.200
3.094,9.100,31.100,32.200,64.600
3.095,9.400,30.800,32.600,65.100
3.096,10.300,30.400,33.000,65.600
3.097,11.500,30.200,33.500,65.900
3.098,12.700,30.100,33.800,65.900
3.099,13.500,30.300,34.000,65.600
3.100,13.900,30.500,34.200,65.100
3.101,13.800,30.700,34.200,64.800
3.102,13.500,30.800,34.300,64.600
3.103,13.300,30.700,34.300,64.700
3.104,13.200,30.700,34.300,64.900
3.105,13.000,30.600,34.100,65.100
3.106,12.700,30.500,33.900,65.200
3.107,12.300,30.500,33.500,65.300
3.108,11.700,30.700,33.100,65.500
3.109,11.300,30.900,32.900,65.700
3.110,11.100,31.300,32.900,66.000
3.111,11.200,31.900,33.100,66.100
3.112,11.400,32.600,33.500,66.100
3.113,11.700,33.300,33.900,65.900
3.114,12.000,34.000,34.300,65.800
3.115,12.300,34.500,34.500,65.700
3.116,12.600,34.600,34.600,65.700
3.117,12.900,34.500,34.600,65.500
3.118,13.200,34.100,34.400,65.000
3.119,13.400,33.600,34.000,64.100
3.120,13.500,33.100,33.500,63.000
3.121,13.600,32.900,33.100,62.000
3.122,13.800,32.900,32.700,61.200
3.123,14.100,33.200,32.600,60.600
3.124,14.400,33.700,32.600,60.100
3.125,14.600,34.400,32.600,59.600
3.126,14.400,34.900,32.500,59.000
3.127,13.800,35.300,32.200,58.300
3.128,13.100,35.400,31.700,57.600
3.129,12.400,35.400,31.000,57.000
3.130,12.200,35.400,30.600,56.400
3.131,12.400,35.400,30.300,55.800
3.132,12.900,35.600,30.400,55.200
3.133,13.400,35.900,30.500,54.500
3.134,13.800,36.300,30.500,53.900
3.135,14.100,36.600,30.400,53.300
3.136,14.400,36.800,30.200,52.600
3.137,15.000,36.700,30.100,51.900
3.138,15.900,36.600,30.200,50.900
3.139,16.900,36.300,30.400,49.700
3.140,17.800,36.000,30.500,48.300
3.141,18.100,35.700,30.400,47.000
3.142,17.900,35.500,30.000,45.700
3.143,17.200,35.400,29.300,44.400
3.144,16.300,35.400,28.500,43.300
3.145,15.500,35.500,27.800,42.400
3.146,14.700,35.600,27.400,41.700
3.147,14.300,35.700,27.300,41.200
3.148,14.200,35.800,27.300,41.000
3.149,14.300,35.900,27.400,40.900
3.150,14.700,35.900,27.500,40.800
3.151,15.300,36.000,27.500,40.600
3.152,15.700,36.100,27.400,40.200
3.153,16.100,36.000,27.200,39.400
3.154,16.400,35.700,26.700,38.200
3.155,16.700,35.200,26.100,36.800
3.156,17.100,34.600,25.500,35.100
3.157,17.600,34.000,24.900,33.500
3.158,18.200,33.600,24.600,32.000
3.159,18.700,33.200,24.500,30.900
3.160,19.000,32.900,24.400,30.000
3.161,19.100,32.600,24.200,29.400
3.162,19.000,32.300,23.900,29.100
3.163,18.900,32.200,23.700,28.800
3.164,18.800,32.200,23.600,28.500
3.165,18.600,32.600,23.800,28.100
3.166,18.400,33.000,24.000,27.700
3.167,18.200,33.300,24.000,27.300
3.168,17.900,33.400,23.800,27.000
3.169,17.700,33.400,23.400,26.800
3.170,17.800,33.400,23.100,26.700
3.171,18.000,33.500,23.100,26.700
3.172,18.300,33.900,23.400,26.500
3.173,18.600,34.200,23.700,25.800
3.174,19.000,34.300,23.900,24.800
3.175,19.500,34.000,23.600,23.500
3.176,20.100,33.300,23.100,22.200
3.177,20.900,32.400,22.600,21.200
3.178,21.800,31.600,22.300,20.700
3.179,22.500,31.300,22.500,20.600
3.180,22.900,31.300,22.800,20.700
3.181,23.000,31.700,23.100,20.900
3.182,23.000,32.000,23.100,20.900
3.183,22.900,32.200,23.000,20.900
3.184,22.900,32.000,22.900,20.800
3.185,22.800,31.500,22.800,20.800
3.186,22.600,31.000,22.800,20.900
3.187,22.100,30.700,22.700,20.800
3.188,21.400,30.500,22.500,20.600
3.189,20.600,30.600,22.100,20.400
3.190,20.000,30.700,21.800,20.200
3.191,19.800,30.800,21.700,20.100
3.192,19.900,30.700,22.000,20.300
3.193,20.100,30.600,22.700,20.600
3.194,20.400,30.500,23.300,20.900
3.195,20.700,30.200,23.800,20.800
3.196,21.000,29.900,23.800,20.300
3.197,21.500,29.500,23.700,19.600
3.198,22.000,29.100,23.400,18.700
3.199,22.700,28.800,23.400,18.000
3.200,23.200,28.700,23.600,17.500
3.201,23.400,28.700,24.000,17.300
3.202,23.200,28.700,24.100,17.200
3.203,22.800,28.600,24.000,17.200
3.204,22.400,28.200,23.500,17.400
3.205,22.000,27.500,22.900,17.700
3.206,21.700,26.900,22.200,18.300
3.207,21.400,26.600,21.700,19.000
3.208,20.800,26.600,21.400,19.600
3.209,20.000,26.800,21.000,19.800
3.210,19.300,27.000,20.700,19.500
3.211,18.900,27.100,20.300,18.900
3.212,18.900,26.900,20.000,18.200
3.213,19.400,26.700,19.900,17.800
3.214,20.200,26.600,20.000,17.900
3.215,21.100,26.800,20.300,18.200
3.216,21.800,27.000,20.800,18.500
3.217,22.400,27.300,21.300,18.600
3.218,22.900,27.500,21.800,18.600
3.219,23.300,27.400,22.200,18.400
3.220,23.700,27.400,22.500,18.300
3.221,23.900,27.400,22.600,18.400
3.222,23.900,27.500,22.500,18.500
3.223,23.700,27.700,22.300,18.600
3.224,23.300,27.700,22.000,18.500
3.225,22.700,27.500,21.900,18.400
3.226,22.100,27.200,21.800,18.100
3.227,21.300,26.900,21.800,17.900
3.228,20.500,26.600,21.700,17.700
3.229,20.000,26.600,21.600,17.600
3.230,19.800,26.700,21.500,17.500
3.231,20.200,26.800,21.700,17.400
3.232,21.000,26.800,22.100,17.200
3.233,21.800,26.800,22.600,16.800
3.234,22.500,26.700,22.900,16.200
3.235,22.700,26.600,22.900,15.600
3.236,22.600,26.600,22.500,15.300
3.237,22.500,26.700,22.100,15.400
3.238,22.600,26.900,22.000,15.700
3.239,23.100,27.100,22.200,16.200
3.240,23.800,27.100,22.600,16.500
3.241,24.500,27.000,22.900,16.400
3.242,25.000,26.800,22.800,16.000
3.243,25.100,26.700,22.400,15.800
3.244,24.800,26.700,22.000,15.900
3.245,24.200,27.000,21.700,16.400
3.246,23.400,27.400,21.900,17.200
3.247,22.700,28.000,22.300,18.000
3.248,22.200,28.400,22.800,18.300
3.249,22.100,28.700,23.000,18.200
3.250,22.400,28.900,23.000,17.900
3.251,22.900,29.000,22.800,17.600
3.252,23.600,29.100,22.700,17.700
3.253,24.100,29.200,22.900,17.900
3.254,24.300,29.200,23.300,17.900
3.255,24.400,29.100,23.700,17.600
3.256,24.500,29.000,24.000,16.900
3.257,24.500,29.000,24.000,15.900
3.258,24.700,29.000,23.900,15.000
3.259,25.000,29.000,23.700,14.300
3.260,25.200,28.800,23.600,14.000
3.261,25.400,28.500,23.600,13.900
3.262,25.500,28.000,23.900,13.900
3.263,25.500,27.500,24.100,13.900
3.264,25.400,27.100,24.200,14.000
3.265,25.000,26.600,24.100,14.200
3.266,24.300,26.200,23.800,14.300
3.267,23.400,25.600,23.200,14.200
3.268,22.500,25.000,22.500,14.000
3.269,21.800,24.600,21.900,13.800
3.270,21.500,24.400,21.500,13.700
3.271,21.600,24.600,21.300,13.800
3.272,22.000,25.000,21.300,14.100
3.273,22.500,25.200,21.400,14.500
3.274,23.000,25.200,21.400,14.700
3.275,23.400,25.000,21.300,14.600
3.276,23.800,24.600,21.100,14.200
3.277,24.100,24.200,21.000,13.700
3.278,24.400,23.800,20.900,13.200
3.279,24.500,23.400,20.800,12.800
3.280,24.300,22.800,20.700,12.300
3.281,23.800,22.000,20.400,11.600
3.282,23.100,21.000,20.000,10.800
3.283,22.400,20.100,19.600,10.000
3.284,22.000,19.500,19.500,9.600
3.285,21.900,19.300,19.500,9.700
3.286,22.100,19.600,19.800,10.400
3.287,22.300,20.000,20.000,11.100
3.288,22.500,20.500,20.100,11.700
3.289,22.500,20.800,19.900,11.800
3.290,22.500,20.900,19.600,11.600
3.291,22.500,20.800,19.200,11.300
3.292,22.600,20.600,19.000,11.000
3.293,22.700,20.500,18.900,11.000
3.294,22.800,20.600,18.900,11.300
3.295,22.900,20.800,19.100,11.700
3.296,23.100,21.100,19.300,12.000
3.297,23.500,21.300,19.600,12.200
3.298,24.000,21.400,19.900,12.100
3.299,24.600,21.200,20.300,12.000
3.300,25.000,20.900,20.700,11.800
3.301,25.100,20.600,21.100,11.700
3.302,24.800,20.300,21.300,11.800
3.303,24.300,20.200,21.400,11.900
3.304,23.700,20.100,21.300,12.100
3.305,23.300,20.000,21.000,12.400
3.306,23.000,19.800,20.600,12.900
3.307,22.800,19.700,20.200,13.500
3.308,22.400,19.700,20.000,14.200
3.309,22.100,19.900,19.900,14.900
3.310,21.900,20.200,20.000,15.500
3.311,22.100,20.500,20.300,15.900
3.312,22.400,20.600,20.500,16.000
3.313,22.800,20.300,20.600,15.900
3.314,23.100,19.700,20.400,15.500
3.315,23.200,19.000,19.900,15.000
3.316,23.200,18.400,19.500,14.400
3.317,23.200,18.200,19.200,14.000
3.318,23.400,18.300,19.200,13.800
3.319,23.700,18.600,19.500,14.000
3.320,24.000,18.800,19.800,14.300
3.321,24.000,18.700,20.100,14.500
3.322,23.900,18.400,20.100,14.700
3.323,23.700,18.000,19.900,14.700
3.324,23.400,17.700,19.500,14.700
3.325,23.300,17.800,19.100,14.800
3.326,23.200,18.200,18.700,15.100
3.327,22.900,18.600,18.400,15.300
3.328,22.400,18.900,18.100,15.500
3.329,21.700,18.900,17.900,15.300
3.330,21.200,18.700,17.800,15.000
3.331,21.100,18.500,17.700,14.700
3.332,21.600,18.400,17.700,14.700
3.333,22.500,18.400,17.500,14.900
3.334,23.400,18.500,17.200,15.100
3.335,24.100,18.600,16.900,15.200
3.336,24.400,18.800,16.600,14.900
3.337,24.600,19.100,16.700,14.500
3.338,24.800,19.500,17.000,14.100
3.339,25.100,20.000,17.600,14.000
3.340,25.500,20.300,18.200,14.200
3.341,25.700,20.400,18.600,14.600
3.342,25.800,20.100,18.600,15.000
3.343,25.600,19.800,18.400,15.300
3.344,25.200,19.600,18.100,15.500
3.345,24.600,19.700,18.000,15.500
3.346,24.000,20.000,18.100,15.600
3.347,23.400,20.200,18.300,15.700
3.348,22.800,20.300,18.600,15.900
3.349,22.400,20.000,18.900,16.200
3.350,22.400,19.600,19.200,16.700
3.351,22.700,19.300,19.400,17.200
3.352,23.300,19.100,19.500,17.600
3.353,23.800,19.100,19.400,17.700
3.354,24.000,18.900,19.100,17.400
3.355,23.900,18.500,18.600,16.700
3.356,23.700,17.800,17.900,15.800
3.357,23.400,16.800,17.300,14.800
3.358,23.300,15.800,16.800,14.100
3.359,23.200,15.100,16.500,13.800
3.360,23.300,14.700,16.400,13.900
3.361,23.300,15.000,16.600,14.400
3.362,23.400,15.800,17.300,15.300
3.363,23.700,17.200,18.200,16.300
3.364,24.200,18.900,19.200,17.400
3.365,24.800,20.600,20.100,18.300
3.366,25.200,22.100,20.700,19.000
3.367,25.100,23.300,20.900,19.700
3.368,24.500,24.100,21.100,20.600
3.369,23.800,24.700,21.400,21.800
3.370,23.300,25.200,22.000,23.300
3.371,23.400,25.800,23.000,24.900
3.372,24.100,26.300,24.100,26.200
3.373,25.000,26.900,25.100,27.200
3.374,25.700,27.600,25.900,27.800
3.375,26.200,28.500,26.800,28.600
3.376,26.500,29.600,27.800,29.800
3.377,27.100,30.700,29.100,31.500
3.378,28.000,31.900,30.700,33.600
3.379,29.100,32.900,32.400,35.700
