'Elapsed time','AECG1','AECG2','AECG3','AECG4'
'seconds','uV','uV','uV','uV'
0.000,20.700,-23.600,-1.400,-18.500
0.001,20.500,-23.500,-1.400,-18.700
0.002,20.000,-23.400,-1.400,-19.000
0.003,19.600,-23.300,-1.400,-19.100
0.004,19.100,-23.400,-1.600,-19.200
0.005,18.600,-23.500,-2.000,-19.100
0.006,18.000,-23.900,-2.700,-19.200
0.007,17.300,-24.600,-3.400,-19.200
0.008,16.500,-25.300,-4.100,-19.200
0.009,16.000,-26.000,-4.600,-18.900
0.010,15.700,-26.500,-4.800,-18.200
0.011,15.800,-26.700,-4.800,-17.200
0.012,16.000,-26.700,-4.600,-16.300
0.013,16.100,-26.600,-4.600,-15.700
0.014,16.000,-26.700,-4.600,-15.500
0.015,15.800,-27.100,-4.700,-15.900
0.016,15.500,-27.700,-4.800,-16.500
0.017,15.300,-28.400,-4.800,-17.000
0.018,15.200,-29.100,-4.700,-17.300
0.019,15.100,-29.700,-4.700,-17.300
0.020,14.800,-30.000,-4.700,-17.000
0.021,14.400,-30.100,-4.700,-16.500
0.022,14.000,-30.000,-4.700,-16.000
0.023,13.700,-29.900,-4.500,-15.700
0.024,13.500,-30.000,-4.300,-15.500
0.025,13.400,-30.400,-4.200,-15.400
0.026,13.300,-31.000,-4.200,-15.300
0.027,13.200,-31.600,-4.400,-15.100
0.028,12.800,-32.000,-4.700,-14.800
0.029,12.200,-32.100,-4.800,-14.300
0.030,11.600,-31.700,-4.700,-13.700
0.031,11.000,-31.100,-4.400,-13.100
0.032,10.700,-30.600,-3.900,-12.500
0.033,10.600,-30.200,-3.400,-11.900
0.034,10.700,-30.100,-2.900,-11.500
0.035,10.700,-30.300,-2.600,-11.200
0.036,10.400,-30.700,-2.500,-10.900
0.037,10.000,-31.300,-2.500,-10.700
0.038,9.400,-31.800,-2.600,-10.500
0.039,9.000,-32.200,-2.800,-10.100
0.040,8.800,-32.500,-3.000,-9.600
0.041,8.900,-32.600,-3.200,-9.100
0.042,8.900,-32.900,-3.400,-9.100
0.043,8.600,-33.300,-4.000,-9.600
0.044,8.000,-34.000,-4.800,-10.700
0.045,7.000,-34.900,-5.900,-12.000
0.046,6.100,-35.800,-7.100,-13.000
0.047,5.400,-36.500,-8.000,-13.300
0.048,5.100,-36.900,-8.400,-12.700
0.049,4.800,-37.100,-8.300,-11.700
0.050,4.300,-37.300,-8.100,-10.900
0.051,3.200,-37.700,-8.000,-10.700
0.052,1.800,-38.400,-8.100,-11.200
0.053,0.200,-39.500,-8.600,-12.300
0.054,-1.000,-40.800,-9.300,-13.500
0.055,-1.600,-42.200,-10.000,-14.300
0.056,-1.700,-43.400,-10.500,-14.800
0.057,-1.500,-44.500,-10.900,-14.900
0.058,-1.500,-45.400,-11.200,-14.800
0.059,-1.900,-46.000,-11.500,-14.800
0.060,-2.500,-46.300,-11.800,-14.900
0.061,-3.200,-46.300,-12.000,-15.000
0.062,-3.500,-46.100,-12.200,-15.200
0.063,-3.600,-45.800,-12.300,-15.200
0.064,-3.600,-45.500,-12.500,-15.000
0.065,-3.700,-45.200,-12.600,-14.800
0.066,-4.100,-45.000,-12.700,-14.500
0.067,-4.700,-44.800,-12.800,-14.400
0.068,-5.400,-44.600,-12.900,-14.400
0.069,-5.900,-44.400,-13.100,-14.500
0.070,-6.200,-44.200,-13.500,-14.500
0.071,-6.200,-44.000,-13.900,-14.200
0.072,-6.200,-43.700,-14.200,-13.700
0.073,-6.000,-43.200,-14.200,-13.100
0.074,-5.900,-42.600,-13.800,-12.500
0.075,-5.600,-42.100,-13.100,-12.100
0.076,-5.300,-41.800,-12.400,-11.900
0.077,-5.100,-41.900,-12.000,-11.700
0.078,-5.000,-42.300,-12.000,-11.400
0.079,-5.200,-42.900,-12.400,-11.100
0.080,-5.600,-43.400,-12.900,-10.800
0.081,-6.100,-43.400,-13.200,-10.700
0.082,-6.500,-43.100,-13.200,-10.700
0.083,-6.800,-42.500,-13.100,-11.000
0.084,-7.000,-42.000,-13.000,-11.300
0.085,-7.300,-41.800,-13.100,-11.600
0.086,-7.600,-41.900,-13.200,-11.800
0.087,-7.800,-42.300,-13.400,-12.100
0.088,-7.900,-42.500,-13.400,-12.400
0.089,-7.700,-42.400,-13.200,-12.700
0.090,-7.500,-41.900,-12.800,-13.000
0.091,-7.500,-41.200,-12.500,-13.200
0.092,-8.100,-40.700,-12.300,-13.400
0.093,-9.000,-40.500,-12.500,-13.600
0.094,-9.800,-40.700,-13.000,-13.800
0.095,-10.100,-41.100,-13.700,-14.100
0.096,-9.800,-41.400,-14.400,-14.500
0.097,-8.900,-41.300,-15.000,-14.700
0.098,-8.000,-40.800,-15.500,-14.900
0.099,-7.600,-40.100,-15.900,-15.100
0.100,-7.900,-39.600,-16.500,-15.300
0.101,-8.700,-39.400,-17.200,-15.700
0.102,-9.500,-39.800,-18.000,-16.300
0.103,-9.900,-40.400,-18.700,-17.000
0.104,-9.800,-41.000,-19.400,-17.700
0.105,-9.500,-41.300,-19.900,-18.500
0.106,-9.400,-41.200,-20.300,-19.100
0.107,-9.700,-40.700,-20.700,-19.600
0.108,-10.400,-40.200,-21.000,-19.900
0.109,-11.100,-39.800,-21.200,-20.100
0.110,-11.600,-39.700,-21.400,-20.300
0.111,-11.700,-39.700,-21.600,-20.500
0.112,-11.400,-39.700,-22.000,-20.800
0.113,-10.900,-39.600,-22.500,-21.400
0.114,-10.200,-39.300,-23.000,-22.200
0.115,-9.600,-38.900,-23.400,-23.000
0.116,-9.100,-38.400,-23.300,-23.700
0.117,-8.700,-38.100,-22.800,-24.300
0.118,-8.400,-37.800,-21.900,-24.900
0.119,-8.200,-37.700,-21.100,-25.600
0.120,-8.000,-37.700,-20.600,-26.400
0.121,-7.800,-37.700,-20.400,-27.500
0.122,-7.700,-37.900,-20.600,-28.600
0.123,-7.800,-38.200,-20.900,-29.700
0.124,-8.000,-38.700,-21.300,-30.700
0.125,-8.600,-39.400,-21.700,-31.600
0.126,-9.300,-40.100,-22.200,-32.400
0.127,-10.000,-40.800,-22.700,-33.300
0.128,-10.500,-41.400,-23.200,-34.400
0.129,-10.600,-42.000,-23.800,-35.500
0.130,-10.700,-42.700,-24.400,-36.800
0.131,-11.000,-43.500,-25.200,-38.000
0.132,-11.500,-44.400,-26.100,-38.900
0.133,-12.200,-45.100,-26.900,-39.400
0.134,-12.700,-45.300,-27.300,-39.200
0.135,-12.600,-44.900,-26.900,-38.600
0.136,-11.800,-43.600,-25.600,-37.700
0.137,-10.700,-41.900,-24.000,-36.900
0.138,-9.700,-40.000,-22.500,-36.300
0.139,-9.200,-38.300,-21.700,-35.900
0.140,-9.100,-36.800,-21.400,-35.500
0.141,-9.200,-35.500,-21.200,-34.600
0.142,-9.000,-33.900,-20.500,-33.100
0.143,-8.500,-32.000,-19.000,-31.000
0.144,-7.700,-29.900,-17.000,-28.800
0.145,-7.100,-28.000,-15.300,-27.000
0.146,-6.800,-26.600,-14.300,-25.800
0.147,-6.800,-25.600,-14.100,-25.100
0.148,-6.900,-24.700,-14.300,-24.300
0.149,-6.700,-23.300,-14.100,-23.100
0.150,-6.400,-21.400,-13.300,-21.100
0.151,-6.000,-19.100,-11.900,-18.900
0.152,-5.800,-17.000,-10.400,-16.800
0.153,-5.700,-15.500,-9.200,-15.400
0.154,-5.600,-15.000,-8.700,-14.900
0.155,-5.100,-15.100,-8.700,-15.000
0.156,-4.200,-15.400,-9.000,-15.500
0.157,-3.200,-15.500,-9.300,-16.000
0.158,-2.600,-15.600,-9.700,-16.500
0.159,-2.700,-16.000,-10.400,-17.200
0.160,-3.600,-17.300,-11.800,-18.400
0.161,-5.000,-19.600,-13.900,-20.500
0.162,-6.500,-22.900,-16.600,-23.500
0.163,-7.700,-26.700,-19.600,-27.000
0.164,-8.500,-30.500,-22.500,-30.700
0.165,-9.000,-33.700,-24.900,-33.900
0.166,-9.600,-36.300,-26.600,-36.400
0.167,-10.300,-38.100,-27.400,-38.000
0.168,-11.100,-39.200,-27.600,-38.800
0.169,-12.000,-39.400,-27.200,-39.000
0.170,-12.600,-38.900,-26.400,-38.800
0.171,-12.900,-37.800,-25.600,-38.500
0.172,-12.800,-36.200,-25.000,-38.100
0.173,-12.600,-34.600,-24.600,-37.900
0.174,-12.300,-33.300,-24.500,-37.700
0.175,-12.200,-32.700,-24.400,-37.600
0.176,-12.100,-32.500,-24.200,-37.400
0.177,-12.000,-32.700,-23.900,-37.100
0.178,-11.700,-32.900,-23.500,-36.500
0.179,-11.300,-32.900,-23.200,-35.600
0.180,-10.700,-32.600,-22.900,-34.600
0.181,-10.200,-32.200,-22.700,-33.800
0.182,-10.000,-31.800,-22.700,-33.100
0.183,-10.000,-31.700,-22.800,-32.800
0.184,-10.400,-31.700,-22.900,-32.700
0.185,-11.000,-31.800,-23.000,-32.700
0.186,-11.700,-31.800,-23.000,-32.800
0.187,-12.600,-31.600,-23.000,-32.900
0.188,-13.400,-31.400,-23.000,-33.200
0.189,-14.100,-31.100,-23.000,-33.700
0.190,-14.500,-30.800,-23.200,-34.200
0.191,-14.700,-30.700,-23.400,-34.600
0.192,-14.500,-30.600,-23.600,-34.800
0.193,-14.200,-30.600,-23.700,-34.600
0.194,-13.900,-30.600,-23.700,-34.200
0.195,-13.600,-30.500,-23.500,-33.700
0.196,-13.400,-30.400,-23.200,-33.300
0.197,-13.300,-30.300,-22.900,-33.000
0.198,-13.300,-30.200,-22.800,-32.900
0.199,-13.300,-30.300,-22.800,-33.000
0.200,-13.100,-30.500,-23.000,-33.100
0.201,-12.700,-30.800,-23.100,-33.300
0.202,-12.300,-31.000,-23.200,-33.500
0.203,-12.000,-31.200,-23.100,-33.700
0.204,-12.000,-31.400,-23.100,-33.800
0.205,-12.400,-31.500,-23.000,-33.700
0.206,-13.100,-31.700,-23.000,-33.300
0.207,-13.800,-32.000,-23.100,-32.700
0.208,-14.400,-32.200,-23.200,-32.200
0.209,-14.800,-32.200,-23.200,-31.800
0.210,-15.000,-32.000,-23.300,-31.700
0.211,-15.300,-31.600,-23.500,-31.700
0.212,-15.500,-31.300,-23.900,-31.900
0.213,-15.700,-31.000,-24.500,-32.200
0.214,-15.600,-31.000,-25.000,-32.500
0.215,-15.100,-31.000,-25.400,-32.600
0.216,-14.400,-30.900,-25.300,-32.500
0.217,-13.600,-30.600,-24.800,-32.200
0.218,-13.000,-30.200,-24.100,-31.500
0.219,-12.600,-29.800,-23.500,-30.700
0.220,-12.400,-29.500,-23.000,-29.900
0.221,-12.300,-29.400,-22.800,-29.300
0.222,-12.200,-29.300,-22.500,-29.000
0.223,-12.000,-29.100,-22.200,-29.000
0.224,-11.900,-28.800,-21.700,-29.100
0.225,-11.900,-28.400,-21.100,-29.000
0.226,-12.000,-28.000,-20.700,-28.600
0.227,-12.100,-27.700,-20.600,-28.000
0.228,-12.300,-27.400,-20.900,-27.300
0.229,-12.600,-27.200,-21.400,-26.800
0.230,-13.100,-27.000,-21.900,-26.800
0.231,-13.800,-26.800,-22.300,-27.300
0.232,-14.500,-26.900,-22.300,-28.100
0.233,-14.900,-27.200,-22.200,-29.100
0.234,-15.000,-27.600,-22.000,-29.900
0.235,-14.600,-28.100,-21.900,-30.300
0.236,-14.100,-28.300,-21.900,-30.300
0.237,-13.500,-28.100,-21.800,-29.900
0.238,-13.100,-27.400,-21.600,-29.300
0.239,-12.800,-26.700,-21.200,-28.800
0.240,-12.400,-26.100,-20.600,-28.500
0.241,-11.800,-25.800,-20.000,-28.300
0.242,-11.100,-25.900,-19.700,-28.000
0.243,-10.500,-26.100,-19.600,-27.700
0.244,-10.300,-26.200,-19.800,-27.100
0.245,-10.500,-26.200,-20.100,-26.300
0.246,-10.900,-26.000,-20.100,-25.500
0.247,-11.300,-25.800,-19.900,-24.700
0.248,-11.500,-25.700,-19.400,-23.900
0.249,-11.600,-25.700,-18.900,-23.300
0.250,-11.700,-25.500,-18.700,-22.900
0.251,-11.800,-25.200,-18.900,-22.700
0.252,-12.000,-24.700,-19.400,-22.900
0.253,-12.200,-24.400,-19.900,-23.300
0.254,-12.300,-24.400,-20.300,-23.600
0.255,-12.300,-24.700,-20.300,-23.800
0.256,-12.100,-25.200,-20.200,-23.900
0.257,-11.800,-25.700,-20.000,-23.900
0.258,-11.500,-25.900,-20.000,-24.000
0.259,-11.100,-25.700,-20.200,-24.300
0.260,-10.600,-25.200,-20.200,-24.700
0.261,-9.900,-24.500,-20.000,-24.900
0.262,-9.200,-23.700,-19.400,-24.700
0.263,-8.700,-22.800,-18.600,-24.000
0.264,-8.300,-22.000,-17.800,-23.000
0.265,-8.100,-21.400,-17.100,-22.000
0.266,-8.100,-21.000,-16.900,-21.500
0.267,-8.100,-20.900,-17.000,-21.400
0.268,-8.100,-21.000,-17.200,-21.700
0.269,-8.000,-21.000,-17.500,-21.900
0.270,-8.000,-20.900,-17.600,-21.900
0.271,-8.200,-20.500,-17.600,-21.500
0.272,-8.600,-19.800,-17.400,-20.900
0.273,-9.000,-18.900,-17.200,-20.400
0.274,-9.400,-18.200,-17.000,-20.200
0.275,-9.500,-17.600,-16.900,-20.200
0.276,-9.300,-17.300,-16.900,-20.400
0.277,-8.800,-17.200,-17.100,-20.500
0.278,-8.100,-17.400,-17.300,-20.500
0.279,-7.300,-17.600,-17.500,-20.400
0.280,-6.600,-17.800,-17.500,-20.500
0.281,-6.100,-18.000,-17.300,-20.800
0.282,-5.800,-18.200,-17.100,-21.300
0.283,-5.700,-18.400,-17.000,-21.800
0.284,-5.700,-18.600,-17.000,-22.000
0.285,-5.900,-18.800,-17.300,-21.900
0.286,-6.100,-18.900,-17.700,-21.500
0.287,-6.500,-18.900,-18.100,-21.100
0.288,-7.000,-18.800,-18.300,-20.900
0.289,-7.600,-18.600,-18.200,-21.100
0.290,-8.000,-18.400,-17.800,-21.600
0.291,-8.300,-18.100,-17.300,-22.000
0.292,-8.300,-17.600,-16.800,-22.000
0.293,-8.000,-16.900,-16.400,-21.500
0.294,-7.500,-16.000,-16.000,-20.500
0.295,-7.000,-15.100,-15.600,-19.400
0.296,-6.500,-14.400,-15.200,-18.700
0.297,-6.000,-13.900,-14.600,-18.300
0.298,-5.600,-13.700,-13.900,-18.300
0.299,-5.000,-13.600,-13.200,-18.300
0.300,-4.300,-13.500,-12.600,-18.100
0.301,-3.400,-13.100,-12.000,-17.500
0.302,-2.500,-12.700,-11.400,-16.800
0.303,-1.900,-12.300,-11.000,-16.100
0.304,-1.800,-12.000,-10.600,-15.500
0.305,-2.100,-11.900,-10.400,-15.000
0.306,-2.800,-11.900,-10.200,-14.600
0.307,-3.600,-12.000,-10.100,-14.000
0.308,-4.300,-12.100,-10.000,-13.400
0.309,-4.700,-12.200,-9.900,-12.800
0.310,-4.700,-12.200,-9.800,-12.600
0.311,-4.400,-12.400,-9.800,-12.700
0.312,-3.900,-12.500,-9.900,-13.100
0.313,-3.500,-12.600,-9.900,-13.800
0.314,-3.200,-12.700,-10.000,-14.400
0.315,-3.300,-12.700,-10.100,-14.800
0.316,-3.400,-12.800,-10.300,-14.900
0.317,-3.600,-13.000,-10.500,-14.800
0.318,-3.500,-13.100,-10.800,-14.600
0.319,-3.100,-13.100,-11.000,-14.400
0.320,-2.600,-13.100,-11.200,-14.300
0.321,-2.300,-13.000,-11.100,-14.300
0.322,-2.300,-12.900,-10.900,-14.300
0.323,-2.600,-12.700,-10.700,-14.300
0.324,-3.300,-12.500,-10.400,-14.100
0.325,-4.000,-12.200,-10.200,-13.900
0.326,-4.500,-12.000,-10.100,-13.600
0.327,-4.700,-11.800,-10.100,-13.400
0.328,-4.800,-11.600,-10.400,-13.200
0.329,-4.800,-11.500,-10.900,-13.100
0.330,-4.800,-11.300,-11.500,-13.000
0.331,-5.000,-11.100,-12.300,-13.000
0.332,-5.500,-10.900,-13.100,-13.200
0.333,-6.000,-10.900,-13.600,-13.400
0.334,-6.500,-11.100,-13.800,-13.500
0.335,-6.700,-11.500,-13.700,-13.400
0.336,-6.500,-11.900,-13.300,-12.900
0.337,-5.800,-12.100,-13.000,-12.200
0.338,-4.800,-11.900,-12.700,-11.700
0.339,-3.700,-11.500,-12.500,-11.500
0.340,-2.900,-10.900,-12.500,-11.700
0.341,-2.400,-10.300,-12.500,-12.300
0.342,-2.300,-9.900,-12.400,-12.800
0.343,-2.400,-9.700,-12.200,-12.900
0.344,-2.500,-9.400,-12.000,-12.600
0.345,-2.500,-9.000,-11.600,-11.900
0.346,-2.400,-8.600,-11.200,-11.000
0.347,-2.400,-8.000,-10.600,-10.300
0.348,-2.500,-7.600,-10.100,-9.800
0.349,-2.800,-7.300,-9.800,-9.500
0.350,-3.200,-7.100,-9.800,-9.400
0.351,-3.800,-7.000,-10.000,-9.300
0.352,-4.300,-7.000,-10.400,-9.200
0.353,-4.800,-7.000,-10.700,-9.100
0.354,-5.100,-7.200,-10.800,-9.000
0.355,-5.300,-7.500,-10.600,-8.800
0.356,-5.200,-7.800,-10.200,-8.500
0.357,-5.000,-8.000,-9.800,-8.100
0.358,-4.600,-8.100,-9.600,-7.800
0.359,-4.100,-8.000,-9.600,-7.700
0.360,-3.400,-7.800,-9.800,-7.900
0.361,-2.600,-7.600,-9.900,-8.300
0.362,-1.700,-7.200,-9.800,-8.900
0.363,-1.000,-6.800,-9.400,-9.400
0.364,-0.700,-6.400,-8.800,-9.700
0.365,-0.600,-5.900,-8.300,-9.600
0.366,-0.700,-5.600,-8.000,-9.300
0.367,-0.800,-5.400,-8.100,-8.800
0.368,-0.900,-5.300,-8.500,-8.100
0.369,-0.800,-5.200,-9.000,-7.500
0.370,-0.800,-5.100,-9.400,-7.000
0.371,-1.100,-4.800,-9.500,-6.600
0.372,-1.700,-4.500,-9.400,-6.300
0.373,-2.300,-4.100,-9.100,-6.100
0.374,-2.600,-3.700,-8.800,-5.900
0.375,-2.400,-3.400,-8.800,-5.700
0.376,-1.900,-3.100,-8.900,-5.400
0.377,-1.100,-2.900,-9.200,-5.200
0.378,-0.400,-2.600,-9.400,-4.800
0.379,0.000,-2.400,-9.500,-4.400
0.380,0.400,-2.100,-9.300,-3.900
0.381,0.700,-1.900,-8.800,-3.500
0.382,1.200,-1.700,-8.300,-3.200
0.383,1.700,-1.600,-7.700,-3.100
0.384,2.100,-1.500,-7.200,-3.200
0.385,2.300,-1.300,-6.700,-3.300
0.386,2.400,-0.800,-6.100,-3.200
0.387,2.600,0.100,-5.500,-2.800
0.388,2.800,1.300,-4.800,-2.100
0.389,3.200,2.600,-4.200,-1.200
0.390,3.400,3.700,-3.700,-0.400
0.391,3.200,4.300,-3.500,0.300
0.392,2.800,4.400,-3.500,0.700
0.393,2.400,4.200,-3.700,1.000
0.394,2.400,4.100,-3.800,1.300
0.395,2.900,4.300,-3.700,1.600
0.396,3.800,4.900,-3.400,1.900
0.397,4.700,5.700,-2.900,2.000
0.398,5.100,6.300,-2.300,1.900
0.399,5.200,6.500,-2.000,1.700
0.400,5.100,6.600,-1.800,1.400
0.401,5.300,6.600,-1.700,1.500
0.402,5.900,6.700,-1.600,2.000
0.403,6.900,7.200,-1.400,2.900
0.404,7.700,7.900,-1.000,3.900
0.405,7.900,8.600,-0.600,4.800
0.406,7.500,9.400,-0.200,5.400
0.407,6.900,9.900,0.000,5.600
0.408,6.400,10.300,0.000,5.700
0.409,6.300,10.300,-0.100,5.900
0.410,6.500,10.100,-0.200,6.200
0.411,6.700,9.600,-0.400,6.700
0.412,6.400,9.200,-0.500,7.200
0.413,5.800,9.000,-0.500,7.300
0.414,5.100,9.000,-0.600,7.100
0.415,4.500,9.200,-0.700,6.400
0.416,4.400,9.300,-0.900,5.600
0.417,4.700,9.000,-1.000,4.700
0.418,5.100,8.500,-1.100,4.000
0.419,5.700,7.800,-0.900,3.500
0.420,6.200,7.300,-0.500,3.300
0.421,6.600,7.100,-0.100,3.200
0.422,7.000,7.100,0.400,3.300
0.423,7.300,7.000,0.800,3.500
0.424,7.300,6.700,1.100,3.900
0.425,7.000,6.200,1.100,4.200
0.426,6.500,5.600,0.900,4.400
0.427,5.900,5.200,0.500,4.300
0.428,5.300,4.900,0.000,4.100
0.429,4.900,4.800,-0.600,3.800
0.430,4.500,4.600,-1.000,3.700
0.431,4.300,4.400,-1.200,3.900
0.432,4.000,4.400,-1.000,4.300
0.433,3.900,4.600,-0.500,4.800
0.434,3.900,5.400,0.300,5.300
0.435,4.100,6.500,1.200,5.700
0.436,4.300,7.700,1.900,6.000
0.437,4.500,8.400,2.400,6.300
0.438,4.700,8.400,2.800,6.500
0.439,4.900,7.900,3.100,6.700
0.440,5.400,7.100,3.600,6.800
0.441,6.000,6.700,4.200,6.700
0.442,6.600,6.700,4.700,6.600
0.443,7.000,7.300,5.100,6.600
0.444,6.800,8.000,5.300,6.900
0.445,6.300,8.500,5.200,7.400
0.446,5.600,8.700,5.100,8.100
0.447,5.100,8.600,4.800,8.700
0.448,4.900,8.400,4.600,9.200
0.449,4.900,8.300,4.500,9.600
0.450,4.900,8.500,4.300,9.800
0.451,4.600,9.000,4.200,10.000
0.452,4.300,9.500,4.100,10.100
0.453,4.000,9.900,4.100,10.000
0.454,4.200,10.200,4.100,9.500
0.455,4.900,10.500,4.300,8.900
0.456,5.700,10.700,4.500,8.300
0.457,6.200,11.000,4.600,7.900
0.458,6.400,11.500,4.700,8.000
0.459,6.200,12.000,4.500,8.500
0.460,6.000,12.300,4.200,9.000
0.461,6.200,12.400,4.000,9.300
0.462,6.800,12.400,3.900,9.300
0.463,7.500,12.300,4.000,9.000
0.464,8.000,12.300,4.400,8.500
0.465,8.100,12.500,4.900,8.000
0.466,7.800,12.800,5.400,7.600
0.467,7.400,13.000,5.600,7.200
0.468,7.200,13.000,5.700,6.900
0.469,7.000,12.600,5.600,6.600
0.470,6.800,12.000,5.400,6.500
0.471,6.400,11.300,5.200,6.600
0.472,5.800,10.800,5.000,6.900
0.473,5.300,10.600,4.800,7.300
0.474,5.000,10.800,4.500,7.600
0.475,5.200,11.100,4.200,8.000
0.476,5.500,11.600,3.800,8.300
0.477,5.800,11.900,3.300,8.600
0.478,5.800,12.100,3.000,9.100
0.479,5.800,12.200,2.700,9.500
0.480,5.900,12.300,2.600,9.900
0.481,6.400,12.500,2.600,10.000
0.482,7.100,12.700,2.700,9.800
0.483,7.900,13.000,2.700,9.400
0.484,8.400,13.200,2.600,9.100
0.485,8.400,13.300,2.600,8.900
0.486,8.300,13.600,2.600,8.900
0.487,8.100,14.100,2.800,8.900
0.488,8.300,15.000,3.100,8.800
0.489,8.800,16.400,3.700,8.400
0.490,9.400,18.100,4.200,7.800
0.491,9.900,20.000,4.700,7.000
0.492,10.300,22.100,5.300,6.300
0.493,10.900,24.500,6.000,5.900
0.494,11.900,27.200,7.100,5.900
0.495,13.400,30.100,8.400,6.300
0.496,15.100,33.100,9.800,6.900
0.497,16.700,35.800,11.200,7.900
0.498,17.600,38.000,12.400,9.100
0.499,17.900,39.700,13.500,10.600
0.500,17.800,41.200,14.600,12.500
0.501,17.800,42.800,15.900,14.900
0.502,18.100,44.900,17.600,17.600
0.503,18.800,47.600,19.600,20.900
0.504,19.600,50.500,22.000,24.600
0.505,19.900,53.400,24.400,28.900
0.506,19.600,55.800,26.800,33.800
0.507,18.600,57.400,29.000,39.100
0.508,17.000,58.100,30.800,44.600
0.509,15.300,58.000,32.300,50.100
0.510,13.500,57.300,33.500,55.500
0.511,11.600,56.200,34.400,60.800
0.512,9.600,54.500,35.100,66.100
0.513,7.100,52.400,35.400,71.300
0.514,4.100,49.600,35.600,76.500
0.515,0.900,46.100,35.400,81.500
0.516,-2.200,42.100,35.200,86.400
0.517,-4.900,37.600,35.200,91.200
0.518,-7.100,33.000,35.400,96.100
0.519,-8.800,28.600,35.900,100.800
0.520,-10.200,24.500,36.500,105.200
0.521,-11.500,20.900,36.900,108.900
0.522,-12.800,17.800,36.900,111.200
0.523,-13.900,15.200,36.500,112.000
0.524,-14.700,13.200,35.500,111.100
0.525,-15.100,11.700,34.300,108.800
0.526,-15.000,10.400,32.800,105.200
0.527,-14.600,9.000,30.800,100.300
0.528,-14.300,6.900,28.300,94.200
0.529,-14.200,3.700,24.900,87.000
0.530,-14.300,-0.700,20.900,79.000
0.531,-14.600,-6.000,16.400,70.500
0.532,-14.900,-11.700,11.900,62.200
0.533,-15.400,-17.400,7.600,54.700
0.534,-15.800,-22.600,3.800,47.900
0.535,-16.300,-27.400,0.300,41.600
0.536,-16.700,-31.700,-3.200,35.600
0.537,-17.000,-35.700,-6.600,29.500
0.538,-17.000,-39.200,-9.900,23.400
0.539,-16.500,-41.800,-12.700,17.500
0.540,-15.600,-43.200,-14.700,12.200
0.541,-14.200,-43.300,-15.700,7.900
0.542,-12.500,-42.100,-15.900,4.600
0.543,-10.700,-40.000,-15.600,2.100
0.544,-9.100,-37.400,-14.900,0.000
0.545,-7.700,-34.700,-14.200,-1.800
0.546,-6.600,-31.900,-13.400,-3.300
0.547,-5.800,-29.000,-12.400,-4.400
0.548,-5.000,-26.000,-11.200,-4.900
0.549,-3.900,-22.900,-9.800,-4.700
0.550,-2.700,-19.600,-8.300,-4.000
0.551,-1.300,-16.100,-6.900,-3.100
0.552,-0.100,-12.700,-5.600,-2.200
0.553,0.800,-9.300,-4.300,-1.400
0.554,1.500,-6.100,-3.000,-0.600
0.555,2.000,-3.100,-1.800,0.200
0.556,2.600,-0.300,-0.800,1.100
0.557,3.400,2.200,-0.200,2.200
0.558,4.300,4.500,0.100,3.500
0.559,5.200,6.400,0.200,4.700
0.560,6.300,8.200,0.500,5.700
0.561,7.400,9.800,1.300,6.400
0.562,8.500,11.200,2.400,6.800
0.563,9.700,12.400,3.900,7.000
0.564,10.800,13.400,5.200,7.200
0.565,11.500,14.100,6.100,7.300
0.566,11.900,14.800,6.500,7.500
0.567,12.100,15.300,6.500,7.600
0.568,12.100,15.700,6.300,7.500
0.569,12.100,15.800,5.900,7.100
0.570,12.000,15.600,5.500,6.300
0.571,11.700,14.900,4.900,5.300
0.572,11.200,14.100,4.300,4.300
0.573,10.600,13.300,3.600,3.600
0.574,10.100,12.800,3.000,3.200
0.575,9.900,12.700,2.600,3.000
0.576,10.100,12.900,2.300,2.900
0.577,10.500,13.100,2.300,2.800
0.578,10.800,13.200,2.200,2.500
0.579,10.900,13.000,2.000,2.100
0.580,11.000,12.700,1.900,1.800
0.581,11.000,12.500,1.900,1.700
0.582,11.300,12.600,2.100,1.900
0.583,11.800,12.900,2.500,2.300
0.584,12.300,13.100,2.900,2.700
0.585,12.600,13.200,3.300,2.900
0.586,12.600,13.000,3.600,2.700
0.587,12.100,12.500,3.600,2.300
0.588,11.400,12.000,3.400,1.700
0.589,10.800,11.700,2.900,1.100
0.590,10.200,11.600,2.400,0.600
0.591,9.900,11.700,1.800,0.300
0.592,9.800,11.900,1.500,0.100
0.593,9.700,11.800,1.300,-0.100
0.594,9.600,11.500,1.300,-0.300
0.595,9.400,10.900,1.200,-0.700
0.596,9.100,10.200,0.800,-1.100
0.597,8.800,9.600,0.200,-1.400
0.598,8.500,9.300,-0.500,-1.600
0.599,8.600,9.500,-0.900,-1.600
0.600,9.200,9.900,-0.800,-1.400
0.601,10.300,10.600,-0.100,-0.900
0.602,11.600,11.300,1.000,-0.300
0.603,12.800,11.900,2.200,0.300
0.604,13.600,12.300,3.000,1.000
0.605,13.800,12.500,3.300,1.500
0.606,13.400,12.400,3.200,1.800
0.607,12.800,12.100,3.000,1.800
0.608,12.100,11.700,2.700,1.600
0.609,11.500,11.200,2.600,1.300
0.610,10.900,10.600,2.400,0.900
0.611,10.200,10.000,2.100,0.500
0.612,9.500,9.200,1.600,0.000
0.613,9.100,8.500,1.000,-0.500
0.614,9.000,7.800,0.500,-0.900
0.615,9.500,7.700,0.600,-1.100
0.616,10.400,8.100,1.100,-1.100
0.617,11.300,9.300,2.100,-0.700
0.618,11.800,10.800,3.100,-0.100
0.619,11.800,12.200,3.800,0.400
0.620,11.700,13.300,4.200,0.800
0.621,11.900,14.200,4.400,1.200
0.622,12.600,15.000,4.700,1.800
0.623,13.800,16.400,5.600,3.000
0.624,15.300,18.400,7.000,4.900
0.625,16.500,20.900,8.600,7.300
0.626,17.100,23.300,10.200,9.900
0.627,17.300,25.000,11.300,12.300
0.628,17.200,26.000,12.000,14.300
0.629,17.200,26.600,12.800,15.800
0.630,17.300,27.200,13.800,17.100
0.631,17.600,28.200,15.100,18.500
0.632,17.900,29.400,16.500,20.000
0.633,18.100,30.600,17.400,21.400
0.634,18.200,31.400,17.500,22.600
0.635,18.100,31.500,16.700,23.300
0.636,17.800,31.100,15.600,23.400
0.637,17.300,30.500,14.600,23.000
0.638,16.800,29.900,14.100,22.100
0.639,16.300,29.300,13.900,20.800
0.640,16.100,28.300,13.500,19.200
0.641,16.100,26.700,12.500,17.100
0.642,16.300,24.300,10.500,14.500
0.643,16.300,21.100,7.700,11.400
0.644,15.900,17.400,4.600,7.800
0.645,14.900,13.500,1.800,4.000
0.646,13.700,9.900,-0.500,0.300
0.647,12.600,6.900,-2.000,-2.700
0.648,11.900,4.900,-2.800,-4.800
0.649,11.500,4.000,-3.100,-5.800
0.650,11.300,3.800,-3.000,-6.000
0.651,10.900,4.100,-2.600,-5.700
0.652,10.300,4.600,-2.000,-5.200
0.653,9.700,5.100,-1.100,-4.700
0.654,9.400,5.700,-0.100,-4.100
0.655,9.400,6.300,0.700,-3.400
0.656,9.700,7.100,1.200,-2.600
0.657,9.900,7.900,1.300,-1.800
0.658,9.800,8.600,1.100,-1.100
0.659,9.400,8.900,0.800,-0.700
0.660,9.000,8.800,0.600,-0.600
0.661,8.800,8.400,0.700,-0.700
0.662,9.000,7.900,0.900,-1.000
0.663,9.500,7.300,1.100,-1.400
0.664,9.900,6.900,1.200,-1.700
0.665,10.100,6.800,1.000,-1.800
0.666,9.900,7.100,0.700,-1.600
0.667,9.700,7.600,0.300,-1.200
0.668,9.500,8.300,0.000,-0.800
0.669,9.600,8.900,-0.200,-0.500
0.670,9.600,9.300,-0.200,-0.500
0.671,9.500,9.500,-0.100,-0.800
0.672,9.100,9.400,0.000,-1.100
0.673,8.300,9.300,0.000,-1.200
0.674,7.500,9.200,0.000,-0.900
0.675,7.000,9.200,0.000,-0.500
0.676,6.800,9.200,-0.100,-0.100
0.677,7.200,9.100,-0.200,0.200
0.678,7.700,9.100,-0.200,0.400
0.679,8.300,9.200,-0.200,0.500
0.680,8.700,9.300,0.000,0.600
0.681,8.900,9.500,0.300,0.800
0.682,9.000,9.800,0.700,0.900
0.683,9.100,9.900,1.100,0.800
0.684,9.400,9.900,1.500,0.500
0.685,9.700,9.900,1.700,0.200
0.686,9.800,9.900,1.700,0.100
0.687,9.700,10.000,1.600,0.400
0.688,9.400,10.200,1.500,1.300
0.689,8.900,10.400,1.500,2.300
0.690,8.400,10.800,1.600,3.300
0.691,7.900,11.200,1.700,3.900
0.692,7.500,11.500,1.800,4.200
0.693,7.200,11.800,1.700,4.100
0.694,7.000,11.800,1.500,4.000
0.695,6.800,11.600,1.300,4.000
0.696,6.700,11.200,1.300,4.100
0.697,6.600,10.800,1.300,4.200
0.698,6.500,10.500,1.400,4.500
0.699,6.400,10.400,1.500,4.900
0.700,6.400,10.500,1.300,5.300
0.701,6.400,10.600,1.000,5.700
0.702,6.600,10.600,0.700,6.100
0.703,6.800,10.500,0.500,6.500
0.704,7.000,10.300,0.400,6.800
0.705,7.100,10.100,0.600,7.000
0.706,7.000,10.000,0.800,7.100
0.707,6.800,10.000,1.000,7.000
0.708,6.500,10.000,1.200,6.800
0.709,6.200,9.900,1.300,6.500
0.710,5.800,9.800,1.300,6.300
0.711,5.300,9.600,1.200,6.400
0.712,4.700,9.500,1.000,6.800
0.713,4.000,9.300,0.700,7.400
0.714,3.400,9.100,0.400,8.000
0.715,2.900,8.600,0.100,8.300
0.716,2.400,8.000,-0.100,8.200
0.717,2.000,7.300,-0.200,7.800
0.718,1.600,6.800,-0.300,7.400
0.719,1.300,6.600,-0.500,7.300
0.720,1.200,6.500,-0.800,7.700
0.721,1.500,6.600,-1.100,8.300
0.722,2.000,6.700,-1.300,9.000
0.723,2.500,6.700,-1.200,9.500
0.724,2.800,6.700,-1.000,9.700
0.725,2.900,6.700,-0.600,9.900
0.726,2.900,6.800,0.000,10.200
0.727,3.000,7.000,0.600,10.600
0.728,3.300,7.200,1.300,11.100
0.729,3.700,7.500,2.000,11.600
0.730,4.000,7.800,2.500,12.100
0.731,3.900,8.200,2.800,12.600
0.732,3.400,8.600,2.900,13.200
0.733,2.800,9.000,2.800,13.900
0.734,2.300,9.300,2.700,14.600
0.735,2.100,9.400,2.800,15.100
0.736,2.300,9.500,3.000,15.500
0.737,2.700,9.500,3.500,15.800
0.738,2.900,9.400,4.000,16.200
0.739,3.000,9.300,4.400,16.700
0.740,2.800,9.100,4.700,17.400
0.741,2.600,8.700,4.800,18.100
0.742,2.500,8.100,4.800,18.600
0.743,2.600,7.600,4.900,18.900
0.744,2.800,7.400,4.900,18.900
0.745,2.900,7.400,5.000,18.800
0.746,2.700,7.700,5.000,18.600
0.747,2.400,7.800,4.800,18.600
0.748,2.100,7.800,4.500,18.800
0.749,2.100,7.600,4.200,19.100
0.750,2.300,7.100,3.900,19.500
0.751,2.700,6.700,3.700,19.900
0.752,2.800,6.300,3.600,20.200
0.753,2.300,6.000,3.500,20.200
0.754,1.200,5.700,3.400,19.900
0.755,0.000,5.300,3.400,19.700
0.756,-1.200,5.000,3.400,19.600
0.757,-1.800,4.700,3.600,19.900
0.758,-1.900,4.600,3.800,20.400
0.759,-1.600,4.700,4.000,21.100
0.760,-1.000,4.800,4.200,21.700
0.761,-0.500,4.900,4.400,22.100
0.762,0.000,5.100,4.600,22.300
0.763,0.400,5.300,4.900,22.600
0.764,0.700,5.500,5.200,23.100
0.765,1.000,5.800,5.400,23.900
0.766,1.100,6.000,5.600,24.800
0.767,1.000,6.000,5.800,25.500
0.768,0.700,5.800,6.000,26.000
0.769,0.400,5.600,6.300,26.100
0.770,0.300,5.500,6.500,26.000
0.771,0.200,5.700,6.600,25.800
0.772,0.200,6.200,6.500,25.800
0.773,0.100,6.800,6.000,25.800
0.774,0.000,7.400,5.400,25.800
0.775,-0.100,7.600,4.900,25.800
0.776,-0.100,7.600,4.700,25.800
0.777,0.100,7.500,4.900,26.000
0.778,0.400,7.400,5.500,26.300
0.779,0.800,7.600,6.300,26.800
0.780,1.000,7.900,7.100,27.300
0.781,1.300,8.400,7.800,27.900
0.782,1.500,8.800,8.400,28.400
0.783,1.900,9.000,8.700,28.700
0.784,2.400,9.100,8.900,28.800
0.785,3.000,9.000,8.900,28.800
0.786,3.600,8.800,8.800,28.600
0.787,4.200,8.800,8.900,28.400
0.788,4.400,8.900,9.100,28.400
0.789,4.400,9.200,9.400,28.500
0.790,3.900,9.500,9.700,28.800
0.791,3.300,9.800,10.000,29.300
0.792,2.600,9.900,10.000,29.600
0.793,2.000,9.700,9.800,29.600
0.794,1.700,9.300,9.400,29.200
0.795,1.700,8.900,8.900,28.600
0.796,1.900,8.700,8.500,28.000
0.797,2.200,8.800,8.200,27.700
0.798,2.400,9.200,8.100,27.600
0.799,2.500,9.700,8.100,27.700
0.800,2.500,10.100,8.200,27.700
0.801,2.500,10.200,8.300,27.500
0.802,2.600,10.000,8.300,27.000
0.803,2.700,9.800,8.400,26.500
0.804,2.900,9.800,8.300,26.100
0.805,3.100,9.900,8.300,26.000
0.806,3.300,10.200,8.200,26.100
0.807,3.400,10.600,8.000,26.000
0.808,3.500,10.800,7.500,25.400
0.809,3.600,10.800,6.700,24.300
0.810,3.600,10.600,5.800,22.800
0.811,3.400,10.400,4.700,21.200
0.812,3.000,10.100,3.800,20.000
0.813,2.500,9.800,3.100,19.300
0.814,2.100,9.600,2.600,18.900
0.815,2.000,9.400,2.200,18.700
0.816,2.200,9.300,1.900,18.300
0.817,2.400,9.400,1.700,17.800
0.818,2.500,9.400,1.500,17.100
0.819,2.500,9.300,1.400,16.400
0.820,2.500,9.000,1.500,15.900
0.821,2.700,8.500,1.700,15.600
0.822,3.300,8.000,1.900,15.300
0.823,4.200,7.800,2.200,15.000
0.824,5.000,8.100,2.400,14.500
0.825,5.600,8.700,2.700,13.800
0.826,5.700,9.400,3.100,12.900
0.827,5.600,9.800,3.500,12.100
0.828,5.500,9.900,3.900,11.400
0.829,5.400,9.700,4.100,10.900
0.830,5.300,9.300,4.100,10.600
0.831,5.200,9.100,3.800,10.500
0.832,5.000,9.300,3.400,10.500
0.833,4.600,9.700,3.100,10.400
0.834,4.400,10.200,2.800,10.300
0.835,4.400,10.600,2.700,10.200
0.836,4.600,10.700,2.800,10.100
0.837,4.900,10.700,3.000,10.100
0.838,5.300,10.600,3.200,10.100
0.839,5.600,10.800,3.400,10.000
0.840,6.100,11.100,3.500,9.800
0.841,6.700,11.800,3.800,9.500
0.842,7.600,12.400,4.100,9.300
0.843,8.600,13.100,4.400,9.200
0.844,9.200,13.500,4.800,9.300
0.845,9.500,13.600,4.900,9.200
0.846,9.300,13.600,4.900,8.900
0.847,9.000,13.300,4.700,8.200
0.848,8.800,12.900,4.500,7.400
0.849,8.800,12.600,4.400,6.600
0.850,8.800,12.400,4.400,6.000
0.851,8.800,12.200,4.500,5.700
0.852,8.300,12.100,4.500,5.800
0.853,7.600,12.100,4.400,5.900
0.854,6.900,12.100,4.100,6.000
0.855,6.500,12.200,3.600,6.000
0.856,6.700,12.400,3.300,5.900
0.857,7.300,12.700,3.100,5.800
0.858,8.100,12.900,3.300,5.700
0.859,8.700,13.000,3.700,5.800
0.860,9.100,13.000,3.900,5.800
0.861,9.400,13.000,4.000,5.800
0.862,9.900,13.100,3.800,5.800
0.863,10.600,13.200,3.600,5.700
0.864,11.400,13.400,3.500,5.500
0.865,12.000,13.600,3.700,5.200
0.866,12.200,13.700,3.900,4.800
0.867,12.000,13.600,4.100,4.300
0.868,11.500,13.200,4.000,3.700
0.869,11.100,12.700,3.400,3.200
0.870,10.800,12.200,2.500,2.900
0.871,10.700,11.900,1.700,2.900
0.872,10.600,11.600,1.200,3.000
0.873,10.500,11.400,1.100,3.100
0.874,10.300,11.200,1.300,3.200
0.875,9.900,11.000,1.600,3.200
0.876,9.600,10.800,1.700,3.100
0.877,9.200,10.600,1.400,3.000
0.878,8.900,10.300,0.900,2.800
0.879,8.700,10.100,0.200,2.600
0.880,8.700,9.700,-0.500,2.200
0.881,8.700,9.300,-1.100,1.600
0.882,8.800,8.600,-1.600,0.800
0.883,8.900,7.900,-2.000,-0.100
0.884,8.900,7.100,-2.200,-0.900
0.885,8.900,6.500,-2.200,-1.600
0.886,9.000,6.200,-2.000,-2.000
0.887,9.200,6.100,-1.800,-2.200
0.888,9.600,6.100,-1.800,-2.400
0.889,9.800,6.000,-1.900,-2.500
0.890,9.700,5.700,-2.200,-2.700
0.891,9.200,5.500,-2.500,-2.900
0.892,8.500,5.400,-2.500,-3.000
0.893,7.700,5.500,-2.300,-3.100
0.894,7.100,5.700,-2.000,-3.100
0.895,6.700,5.700,-1.800,-3.300
0.896,6.600,5.300,-1.900,-3.700
0.897,6.500,4.600,-2.300,-4.200
0.898,6.300,3.700,-2.600,-4.700
0.899,6.000,3.000,-2.700,-5.200
0.900,5.800,2.800,-2.500,-5.500
0.901,5.800,3.000,-2.200,-5.600
0.902,6.200,3.400,-2.000,-5.500
0.903,6.600,3.700,-1.900,-5.400
0.904,7.000,3.600,-1.900,-5.100
0.905,7.300,3.400,-2.000,-4.700
0.906,7.500,3.200,-1.800,-4.300
0.907,7.700,3.300,-1.400,-3.900
0.908,8.000,3.800,-1.000,-3.500
0.909,8.300,4.300,-0.600,-3.400
0.910,8.400,4.600,-0.600,-3.500
0.911,8.300,4.500,-0.700,-3.700
0.912,7.900,4.100,-0.900,-3.900
0.913,7.300,3.700,-1.100,-4.100
0.914,6.600,3.500,-1.100,-4.300
0.915,6.200,3.600,-1.300,-4.500
0.916,5.900,3.800,-1.500,-4.900
0.917,5.800,4.000,-2.000,-5.300
0.918,5.600,3.900,-2.700,-5.700
0.919,5.300,3.500,-3.200,-6.100
0.920,5.000,3.100,-3.600,-6.400
0.921,4.900,2.700,-3.800,-6.600
0.922,5.000,2.500,-3.800,-7.000
0.923,5.400,2.300,-3.900,-7.600
0.924,5.800,2.100,-4.300,-8.300
0.925,6.200,1.900,-5.000,-9.000
0.926,6.300,1.600,-5.800,-9.500
0.927,6.200,1.400,-6.500,-9.500
0.928,5.900,1.500,-6.700,-9.000
0.929,5.600,1.900,-6.500,-8.300
0.930,5.300,2.500,-5.900,-7.400
0.931,5.000,3.000,-5.100,-6.500
0.932,4.600,3.400,-4.500,-5.800
0.933,4.100,3.500,-4.000,-5.400
0.934,3.800,3.400,-3.700,-5.200
0.935,3.700,3.200,-3.500,-5.200
0.936,4.000,3.000,-3.400,-5.300
0.937,4.400,3.000,-3.300,-5.500
0.938,4.700,3.100,-3.300,-5.800
0.939,5.000,3.300,-3.500,-6.200
0.940,5.000,3.400,-3.900,-6.700
0.941,5.000,3.500,-4.300,-7.200
0.942,4.900,3.400,-4.900,-7.700
0.943,4.800,3.100,-5.500,-8.400
0.944,4.700,2.700,-6.000,-9.000
0.945,4.500,2.200,-6.500,-9.500
0.946,4.400,1.700,-6.700,-9.600
0.947,4.500,1.400,-6.600,-9.300
0.948,4.700,1.400,-6.200,-8.600
0.949,5.000,1.700,-5.700,-7.900
0.950,5.000,2.200,-5.400,-7.300
0.951,4.800,2.700,-5.300,-7.100
0.952,4.200,2.900,-5.600,-7.100
0.953,3.600,2.800,-6.100,-7.300
0.954,3.200,2.400,-6.500,-7.400
0.955,3.100,1.800,-6.700,-7.400
0.956,3.100,1.100,-6.700,-7.400
0.957,3.100,0.600,-6.700,-7.500
0.958,2.700,0.200,-6.600,-7.700
0.959,2.100,0.000,-6.600,-8.000
0.960,1.400,0.000,-6.700,-8.200
0.961,1.200,0.100,-6.800,-8.200
0.962,1.600,0.300,-6.800,-8.000
0.963,2.500,0.500,-6.800,-7.800
0.964,3.400,0.800,-6.800,-7.600
0.965,4.200,1.100,-6.800,-7.500
0.966,4.700,1.400,-6.700,-7.500
0.967,4.800,1.700,-6.700,-7.500
0.968,4.700,2.000,-6.600,-7.500
0.969,4.300,2.000,-6.500,-7.500
0.970,3.700,1.900,-6.600,-7.700
0.971,2.700,1.700,-6.700,-8.200
0.972,1.600,1.300,-7.000,-8.700
0.973,0.500,0.800,-7.500,-9.300
0.974,-0.300,0.300,-8.000,-9.800
0.975,-0.500,-0.100,-8.600,-10.100
0.976,-0.400,-0.400,-9.100,-10.300
0.977,0.000,-0.600,-9.400,-10.500
0.978,0.300,-0.700,-9.600,-10.600
0.979,0.500,-0.700,-9.500,-10.700
0.980,0.700,-0.600,-9.300,-10.600
0.981,0.900,-0.500,-9.100,-10.400
0.982,1.400,-0.300,-8.800,-10.000
0.983,2.000,-0.200,-8.400,-9.600
0.984,2.600,0.000,-7.700,-9.200
0.985,3.200,0.300,-6.700,-8.800
0.986,3.800,0.800,-5.600,-8.500
0.987,4.300,1.500,-4.700,-8.200
0.988,4.600,2.200,-4.200,-7.900
0.989,4.600,2.700,-4.400,-7.600
0.990,4.400,3.000,-4.900,-7.300
0.991,4.000,2.900,-5.500,-7.200
0.992,3.300,2.700,-5.900,-7.200
0.993,2.700,2.300,-5.900,-7.500
0.994,2.300,1.900,-5.600,-7.800
0.995,2.000,1.500,-5.500,-8.100
0.996,1.900,1.400,-5.600,-8.300
0.997,1.800,1.400,-6.000,-8.300
0.998,1.700,1.600,-6.600,-8.300
0.999,1.700,1.900,-7.300,-8.500
1.000,1.600,2.000,-7.800,-9.000
1.001,1.600,1.900,-8.200,-9.500
1.002,1.800,1.300,-8.500,-10.000
1.003,2.000,0.600,-8.600,-10.100
1.004,2.300,0.100,-8.500,-9.800
1.005,2.500,0.100,-8.100,-9.100
1.006,2.800,0.700,-7.400,-8.400
1.007,3.100,1.700,-6.700,-7.900
1.008,3.400,2.500,-6.100,-7.800
1.009,3.600,2.800,-5.900,-8.200
1.010,3.800,2.300,-6.000,-8.800
1.011,3.800,1.200,-6.400,-9.400
1.012,3.600,0.100,-6.800,-9.800
1.013,3.000,-0.900,-7.000,-9.900
1.014,2.300,-1.400,-7.200,-9.900
1.015,1.600,-1.700,-7.400,-9.900
1.016,1.000,-1.900,-7.600,-10.000
1.017,0.700,-2.200,-7.900,-10.200
1.018,0.600,-2.600,-8.300,-10.600
1.019,0.600,-3.100,-8.600,-10.900
1.020,0.700,-3.400,-8.700,-11.300
1.021,0.900,-3.600,-8.700,-11.600
1.022,1.400,-3.600,-8.700,-12.000
1.023,2.100,-3.500,-8.700,-12.300
1.024,2.800,-3.500,-8.900,-12.500
1.025,3.400,-3.600,-9.200,-12.700
1.026,3.400,-3.900,-9.500,-12.900
1.027,3.000,-4.300,-9.700,-13.100
1.028,2.200,-4.800,-9.800,-13.500
1.029,1.300,-5.400,-9.700,-13.900
1.030,0.600,-5.800,-9.700,-14.200
1.031,0.200,-6.100,-9.800,-14.400
1.032,0.000,-6.100,-9.900,-14.200
1.033,0.000,-5.800,-10.000,-13.800
1.034,0.000,-5.400,-9.800,-13.300
1.035,0.000,-5.000,-9.300,-12.900
1.036,0.000,-4.800,-8.600,-12.500
1.037,0.000,-4.700,-7.900,-12.300
1.038,0.100,-4.700,-7.300,-12.200
1.039,0.300,-4.800,-7.100,-11.900
1.040,0.700,-4.900,-7.200,-11.600
1.041,1.100,-5.000,-7.600,-11.200
1.042,1.600,-5.200,-8.100,-10.900
1.043,1.900,-5.600,-8.600,-10.800
1.044,2.000,-6.000,-9.100,-10.900
1.045,2.000,-6.300,-9.400,-11.200
1.046,1.900,-6.400,-9.500,-11.600
1.047,1.900,-6.300,-9.300,-12.100
1.048,2.000,-5.900,-9.200,-12.500
1.049,2.100,-5.600,-9.100,-12.700
1.050,2.100,-5.400,-9.100,-12.600
1.051,1.900,-5.300,-9.400,-12.100
1.052,1.500,-5.400,-9.500,-11.300
1.053,1.000,-5.400,-9.500,-10.200
1.054,0.700,-5.200,-9.300,-9.300
1.055,0.600,-4.900,-8.900,-8.700
1.056,0.600,-4.600,-8.500,-8.600
1.057,0.700,-4.300,-8.200,-8.900
1.058,0.600,-4.100,-8.200,-9.100
1.059,0.500,-3.900,-8.300,-9.000
1.060,0.400,-3.900,-8.200,-8.700
1.061,0.400,-3.900,-8.000,-8.200
1.062,0.800,-4.100,-7.600,-7.800
1.063,1.400,-4.300,-7.200,-7.600
1.064,2.000,-4.500,-7.000,-7.700
1.065,2.400,-4.600,-7.000,-7.800
1.066,2.300,-4.400,-7.300,-7.800
1.067,1.800,-4.200,-7.700,-7.600
1.068,1.100,-4.000,-8.100,-7.400
1.069,0.400,-4.000,-8.300,-7.200
1.070,-0.100,-4.200,-8.400,-7.100
1.071,-0.400,-4.500,-8.500,-7.100
1.072,-0.600,-4.800,-8.700,-7.200
1.073,-1.000,-5.000,-9.000,-7.200
1.074,-1.500,-5.000,-9.400,-7.200
1.075,-2.000,-4.900,-9.700,-7.100
1.076,-2.300,-4.800,-9.900,-6.900
1.077,-2.300,-4.800,-10.000,-6.800
1.078,-2.200,-4.700,-10.100,-6.700
1.079,-1.900,-4.600,-10.100,-6.700
1.080,-1.700,-4.400,-10.000,-6.800
1.081,-1.500,-4.100,-9.800,-7.000
1.082,-1.300,-3.600,-9.500,-7.100
1.083,-1.000,-3.200,-9.000,-7.100
1.084,-0.500,-3.000,-8.600,-7.000
1.085,-0.200,-3.200,-8.600,-7.000
1.086,-0.100,-3.600,-9.100,-7.100
1.087,-0.400,-4.400,-10.200,-7.700
1.088,-0.900,-5.400,-11.800,-8.600
1.089,-1.600,-6.500,-13.600,-9.900
1.090,-2.400,-7.600,-15.300,-11.300
1.091,-3.200,-8.800,-16.700,-12.600
1.092,-3.800,-9.900,-17.500,-13.700
1.093,-4.400,-10.500,-17.800,-14.200
1.094,-4.700,-10.600,-17.600,-14.100
1.095,-4.900,-10.000,-16.900,-13.400
1.096,-4.800,-8.600,-16.100,-12.300
1.097,-4.500,-7.000,-15.200,-11.000
1.098,-4.200,-5.300,-14.500,-9.800
1.099,-3.800,-3.900,-13.900,-8.900
1.100,-3.400,-2.600,-13.200,-8.100
1.101,-3.000,-1.100,-12.200,-7.100
1.102,-2.400,0.900,-10.700,-5.600
1.103,-1.700,3.300,-9.000,-3.600
1.104,-0.900,5.800,-7.300,-1.300
1.105,-0.200,8.000,-5.900,1.100
1.106,0.300,9.500,-5.000,3.100
1.107,0.600,10.400,-4.500,4.800
1.108,0.700,11.300,-4.000,6.300
1.109,0.700,12.400,-3.400,7.800
1.110,0.600,13.900,-2.600,9.400
1.111,0.600,15.300,-1.700,10.900
1.112,0.500,16.300,-0.900,12.000
1.113,0.400,16.500,-0.300,12.500
1.114,0.100,16.100,-0.100,12.400
1.115,-0.300,15.300,-0.100,11.900
1.116,-0.800,14.500,-0.500,11.400
1.117,-1.100,13.800,-1.200,10.800
1.118,-1.200,13.300,-2.100,10.100
1.119,-1.100,12.500,-3.300,9.100
1.120,-0.900,11.200,-4.600,7.700
1.121,-0.700,9.200,-6.000,5.700
1.122,-0.900,6.700,-7.400,3.200
1.123,-1.500,3.700,-9.000,0.300
1.124,-2.600,0.500,-10.700,-2.700
1.125,-3.800,-2.600,-12.400,-5.300
1.126,-5.000,-5.400,-13.800,-7.400
1.127,-5.700,-7.400,-14.500,-8.600
1.128,-5.800,-8.400,-14.500,-9.100
1.129,-5.500,-8.400,-13.900,-8.800
1.130,-5.000,-7.600,-12.900,-8.000
1.131,-4.500,-6.400,-12.000,-6.900
1.132,-4.200,-5.100,-11.200,-5.800
1.133,-4.200,-3.900,-10.800,-4.800
1.134,-4.100,-3.000,-10.400,-3.800
1.135,-4.000,-2.300,-10.100,-3.000
1.136,-3.800,-1.600,-9.800,-2.200
1.137,-3.600,-1.000,-9.500,-1.600
1.138,-3.600,-0.400,-9.300,-1.200
1.139,-4.000,-0.200,-9.200,-1.200
1.140,-4.600,-0.200,-9.200,-1.300
1.141,-5.200,-0.700,-9.200,-1.700
1.142,-5.600,-1.200,-9.100,-2.000
1.143,-5.700,-1.800,-8.800,-2.100
1.144,-5.400,-2.100,-8.500,-1.900
1.145,-4.900,-2.200,-8.200,-1.500
1.146,-4.400,-2.000,-8.000,-0.900
1.147,-4.000,-1.800,-7.800,-0.300
1.148,-3.800,-1.400,-7.500,0.400
1.149,-3.700,-1.100,-7.300,1.000
1.150,-3.800,-0.700,-7.100,1.500
1.151,-4.000,-0.400,-7.000,1.700
1.152,-4.300,-0.100,-7.100,1.700
1.153,-4.800,0.000,-7.500,1.300
1.154,-5.300,0.100,-8.200,0.700
1.155,-5.500,0.100,-9.000,0.100
1.156,-5.500,0.100,-9.600,-0.200
1.157,-5.100,0.100,-9.800,-0.300
1.158,-4.500,0.200,-9.600,-0.100
1.159,-4.000,0.300,-9.100,0.100
1.160,-3.600,0.400,-8.600,-0.100
1.161,-3.600,0.400,-8.300,-0.600
1.162,-3.600,0.300,-8.400,-1.300
1.163,-3.700,0.200,-8.700,-2.000
1.164,-3.800,0.100,-9.000,-2.300
1.165,-3.800,0.100,-8.900,-2.100
1.166,-3.700,0.300,-8.500,-1.600
1.167,-3.500,0.600,-7.800,-1.200
1.168,-3.300,0.900,-7.400,-1.100
1.169,-2.800,1.100,-7.300,-1.400
1.170,-2.300,1.100,-7.700,-2.000
1.171,-1.800,0.800,-8.200,-2.500
1.172,-1.600,0.500,-8.700,-2.800
1.173,-1.700,0.300,-8.900,-2.700
1.174,-2.100,0.300,-8.900,-2.400
1.175,-2.800,0.400,-8.800,-2.000
1.176,-3.300,0.700,-8.800,-1.900
1.177,-3.500,1.000,-9.000,-1.900
1.178,-3.200,1.300,-9.200,-2.000
1.179,-2.300,1.600,-9.400,-2.000
1.180,-1.200,2.000,-9.200,-1.800
1.181,-0.100,2.500,-8.600,-1.600
1.182,0.600,3.100,-7.900,-1.400
1.183,0.900,3.600,-7.000,-1.500
1.184,0.900,3.900,-6.200,-1.600
1.185,0.800,4.000,-5.600,-1.700
1.186,0.900,3.900,-5.200,-1.500
1.187,1.200,3.800,-5.000,-1.100
1.188,1.600,4.000,-5.000,-0.500
1.189,1.800,4.500,-5.100,0.000
1.190,1.700,5.200,-5.200,0.300
1.191,1.400,6.000,-5.200,0.200
1.192,1.300,6.600,-5.200,-0.100
1.193,1.600,6.900,-5.100,-0.600
1.194,2.200,7.100,-5.000,-1.100
1.195,3.100,7.400,-5.000,-1.600
1.196,4.000,7.900,-4.900,-2.200
1.197,4.600,8.900,-4.900,-3.000
1.198,5.100,10.400,-4.800,-4.200
1.199,5.400,12.300,-4.600,-5.400
1.200,5.900,14.500,-4.100,-6.600
1.201,6.700,16.800,-3.500,-7.400
1.202,7.700,19.100,-2.800,-7.900
1.203,8.900,21.100,-2.000,-8.100
1.204,10.000,23.000,-1.200,-8.000
1.205,11.000,24.600,-0.200,-7.800
1.206,11.700,26.100,0.900,-7.300
1.207,12.200,27.800,2.000,-6.200
1.208,12.500,29.700,3.100,-4.200
1.209,12.700,31.900,4.200,-1.400
1.210,12.800,34.100,5.300,2.100
1.211,12.700,36.200,6.500,6.000
1.212,12.200,37.800,8.000,10.200
1.213,11.400,39.000,9.700,14.400
1.214,10.100,39.600,11.500,18.700
1.215,8.500,39.800,13.200,23.300
1.216,6.700,39.600,14.800,28.400
1.217,5.000,38.900,16.100,34.100
1.218,3.400,37.800,17.200,40.200
1.219,2.100,36.500,18.200,46.500
1.220,0.800,35.000,19.400,52.700
1.221,-0.500,33.200,20.600,58.500
1.222,-2.200,30.900,21.600,64.000
1.223,-4.400,27.900,22.500,69.100
1.224,-7.100,24.400,22.900,74.000
1.225,-10.100,20.400,23.200,78.800
1.226,-13.000,16.400,23.400,83.500
1.227,-15.600,12.700,23.700,88.000
1.228,-17.700,9.500,24.000,91.800
1.229,-19.300,6.800,24.000,94.700
1.230,-20.600,4.600,23.700,96.400
1.231,-21.700,2.700,22.800,96.800
1.232,-22.600,0.900,21.300,95.900
1.233,-23.300,-1.100,19.300,93.600
1.234,-23.800,-3.600,16.800,90.100
1.235,-24.100,-7.100,14.000,85.200
1.236,-24.400,-11.600,10.700,79.000
1.237,-24.900,-17.100,6.900,71.800
1.238,-25.500,-22.900,2.900,64.200
1.239,-26.100,-28.600,-1.200,56.800
1.240,-26.400,-33.500,-4.900,50.300
1.241,-26.600,-37.700,-8.200,44.700
1.242,-26.500,-41.300,-11.100,39.800
1.243,-26.200,-44.600,-13.800,34.700
1.244,-25.800,-47.800,-16.600,29.000
1.245,-25.300,-50.500,-19.500,22.500
1.246,-24.600,-52.500,-22.100,15.800
1.247,-23.700,-53.200,-24.200,9.500
1.248,-22.700,-52.700,-25.300,4.300
1.249,-21.500,-51.000,-25.600,0.300
1.250,-20.200,-48.600,-25.400,-2.600
1.251,-18.900,-45.700,-25.100,-5.000
1.252,-17.600,-42.700,-24.800,-7.000
1.253,-16.400,-39.500,-24.600,-8.600
1.254,-15.300,-36.100,-24.100,-9.800
1.255,-14.300,-32.700,-23.100,-10.400
1.256,-13.200,-29.200,-21.600,-10.600
1.257,-11.900,-25.800,-19.700,-10.500
1.258,-10.300,-22.500,-17.700,-10.600
1.259,-8.300,-19.300,-16.000,-10.800
1.260,-6.200,-16.100,-14.500,-11.000
1.261,-4.300,-12.900,-13.300,-11.000
1.262,-2.900,-9.800,-12.100,-10.600
1.263,-1.900,-7.000,-10.900,-9.800
1.264,-1.200,-4.700,-9.700,-8.800
1.265,-0.400,-2.800,-8.900,-8.000
1.266,0.500,-1.500,-8.500,-7.300
1.267,1.800,-0.400,-8.500,-7.000
1.268,3.000,0.600,-8.500,-6.800
1.269,3.900,1.400,-8.200,-6.700
1.270,4.100,2.200,-7.600,-6.700
1.271,3.600,2.700,-6.900,-6.700
1.272,2.900,3.100,-6.200,-6.800
1.273,2.300,3.100,-5.900,-7.000
1.274,2.400,3.000,-6.000,-7.300
1.275,3.000,2.900,-6.300,-7.600
1.276,4.100,2.800,-6.700,-7.800
1.277,5.200,2.900,-6.900,-8.000
1.278,6.100,3.000,-6.700,-8.100
1.279,6.700,3.200,-6.400,-8.300
1.280,7.100,3.400,-6.000,-8.500
1.281,7.500,3.500,-5.600,-9.000
1.282,8.000,3.400,-5.200,-9.500
1.283,8.600,3.200,-4.900,-10.100
1.284,9.100,3.000,-4.500,-10.600
1.285,9.500,2.900,-4.100,-10.800
1.286,9.800,2.900,-3.700,-10.800
1.287,10.000,3.200,-3.200,-10.500
1.288,10.300,3.600,-2.700,-10.000
1.289,10.600,4.000,-2.300,-9.500
1.290,10.800,4.400,-2.000,-9.100
1.291,10.900,4.500,-1.800,-8.900
1.292,11.000,4.600,-1.800,-8.800
1.293,11.200,4.500,-1.800,-8.800
1.294,11.600,4.400,-1.700,-8.800
1.295,12.000,4.400,-1.500,-8.900
1.296,12.200,4.400,-1.200,-9.000
1.297,12.100,4.300,-1.000,-9.100
1.298,12.000,4.300,-0.800,-9.200
1.299,12.000,4.200,-0.700,-9.200
1.300,12.400,4.100,-0.700,-9.100
1.301,13.100,4.100,-0.500,-8.900
1.302,14.100,4.000,-0.300,-8.600
1.303,14.900,3.900,-0.100,-8.400
1.304,15.500,3.700,0.100,-8.500
1.305,15.800,3.400,0.000,-8.700
1.306,16.000,3.100,-0.100,-9.000
1.307,16.100,2.700,-0.300,-9.200
1.308,16.100,2.500,-0.500,-9.200
1.309,16.000,2.300,-0.600,-9.100
1.310,15.800,2.100,-0.600,-8.800
1.311,15.400,2.000,-0.600,-8.600
1.312,15.000,1.800,-0.700,-8.500
1.313,14.800,1.700,-0.700,-8.500
1.314,14.800,1.600,-0.800,-8.700
1.315,14.900,1.800,-0.800,-8.900
1.316,15.100,2.100,-0.600,-9.200
1.317,15.300,2.400,-0.300,-9.400
1.318,15.400,2.500,0.300,-9.500
1.319,15.700,2.400,0.900,-9.500
1.320,16.200,2.000,1.400,-9.300
1.321,16.800,1.600,1.800,-8.900
1.322,17.400,1.300,2.000,-8.500
1.323,17.800,1.400,2.200,-8.000
1.324,18.000,1.800,2.400,-7.700
1.325,18.000,2.400,2.700,-7.500
1.326,18.100,2.700,3.200,-7.700
1.327,18.100,2.600,3.600,-7.900
1.328,18.100,2.200,3.800,-8.200
1.329,17.900,1.700,3.800,-8.300
1.330,17.600,1.300,3.700,-8.200
1.331,17.400,1.400,3.500,-7.800
1.332,17.300,1.900,3.700,-7.300
1.333,17.500,2.500,4.100,-6.800
1.334,17.800,3.100,4.600,-6.300
1.335,18.000,3.400,4.900,-6.000
1.336,17.800,3.400,4.900,-6.000
1.337,17.600,3.100,4.400,-6.200
1.338,17.400,2.900,3.800,-6.500
1.339,17.600,2.900,3.200,-6.900
1.340,18.200,3.000,3.000,-7.100
1.341,18.900,3.000,3.200,-7.100
1.342,19.300,3.000,3.500,-6.900
1.343,19.400,2.800,3.700,-6.600
1.344,19.300,2.400,3.700,-6.400
1.345,19.300,2.000,3.500,-6.200
1.346,19.800,1.700,3.200,-6.100
1.347,20.500,1.700,3.100,-6.200
1.348,20.900,1.800,3.200,-6.200
1.349,20.700,1.900,3.400,-6.300
1.350,19.800,1.900,3.500,-6.400
1.351,18.700,1.700,3.400,-6.600
1.352,17.800,1.300,3.100,-6.800
1.353,17.600,0.900,2.700,-7.100
1.354,17.800,0.700,2.300,-7.300
1.355,18.100,0.700,1.900,-7.300
1.356,17.900,1.000,1.700,-7.000
1.357,17.500,1.500,1.700,-6.400
1.358,17.200,2.100,2.000,-5.400
1.359,17.300,2.700,2.500,-4.400
1.360,18.100,3.300,3.300,-3.400
1.361,19.200,3.900,4.200,-2.700
1.362,20.200,4.600,5.100,-2.200
1.363,20.700,5.200,5.900,-2.000
1.364,20.800,5.600,6.400,-2.000
1.365,20.700,5.800,6.600,-2.000
1.366,20.800,5.700,6.800,-1.900
1.367,21.100,5.500,6.900,-1.700
1.368,21.300,5.200,7.100,-1.600
1.369,21.200,5.100,7.200,-1.500
1.370,20.600,5.000,7.100,-1.700
1.371,19.700,5.000,6.700,-2.000
1.372,18.700,4.900,6.200,-2.300
1.373,18.000,4.700,5.600,-2.600
1.374,17.500,4.500,5.200,-2.900
1.375,17.100,4.300,5.100,-2.900
1.376,16.700,4.400,5.300,-2.700
1.377,16.300,4.800,5.500,-2.400
1.378,16.200,5.300,5.700,-1.900
1.379,16.300,5.900,5.600,-1.300
1.380,16.800,6.100,5.400,-0.700
1.381,17.500,6.100,5.100,0.000
1.382,18.100,5.900,5.000,0.800
1.383,18.500,5.800,5.400,1.600
1.384,18.800,6.100,6.100,2.200
1.385,19.200,6.600,7.000,2.600
1.386,19.700,7.300,7.700,2.800
1.387,20.100,7.800,8.000,2.700
1.388,20.300,8.000,7.900,2.400
1.389,19.900,7.700,7.400,2.200
1.390,19.000,7.100,6.800,1.900
1.391,17.800,6.600,6.300,1.600
1.392,16.900,6.400,6.000,1.400
1.393,16.400,6.400,6.000,1.000
1.394,16.300,6.600,6.000,0.700
1.395,16.400,6.800,5.900,0.500
1.396,16.400,6.800,5.700,0.300
1.397,16.200,6.600,5.400,0.300
1.398,15.800,6.300,5.200,0.600
1.399,15.400,6.200,5.100,1.100
1.400,15.300,6.200,5.100,1.700
1.401,15.400,6.300,5.300,2.300
1.402,15.700,6.500,5.600,2.900
1.403,16.000,6.600,5.800,3.400
1.404,16.200,6.600,6.100,3.800
1.405,16.400,6.600,6.500,4.100
1.406,16.600,6.500,6.800,4.400
1.407,16.700,6.500,7.100,4.700
1.408,16.600,6.500,7.300,4.800
1.409,16.300,6.500,7.200,4.900
1.410,15.900,6.500,7.000,4.900
1.411,15.300,6.500,6.700,4.900
1.412,14.600,6.700,6.400,5.100
1.413,14.000,6.900,6.100,5.500
1.414,13.400,7.100,5.700,6.000
1.415,13.100,7.400,5.500,6.500
1.416,12.900,7.500,5.400,6.900
1.417,13.200,7.500,5.500,7.300
1.418,13.600,7.600,5.900,7.700
1.419,14.100,7.800,6.400,8.200
1.420,14.300,8.100,6.900,8.900
1.421,14.000,8.400,7.100,9.700
1.422,13.200,8.600,7.000,10.400
1.423,12.500,8.600,6.700,10.900
1.424,12.200,8.300,6.500,11.300
1.425,12.400,8.000,6.700,11.600
1.426,13.100,7.800,7.400,11.800
1.427,13.700,8.000,8.300,12.200
1.428,13.800,8.400,9.100,12.700
1.429,13.400,9.100,9.600,13.200
1.430,12.700,9.900,9.800,13.700
1.431,12.000,10.400,9.700,14.100
1.432,11.800,10.700,9.600,14.400
1.433,11.900,10.600,9.600,14.600
1.434,11.900,10.200,9.800,14.800
1.435,11.500,9.700,9.900,15.200
1.436,10.600,9.200,9.900,15.700
1.437,9.400,8.900,9.700,16.500
1.438,8.500,8.800,9.300,17.200
1.439,8.100,8.800,8.800,17.600
1.440,8.200,8.700,8.300,17.700
1.441,8.600,8.500,8.000,17.400
1.442,8.900,8.300,8.000,17.000
1.443,8.900,8.100,8.300,16.700
1.444,8.600,8.100,8.800,16.900
1.445,8.400,8.300,9.500,17.400
1.446,8.400,8.600,10.200,18.000
1.447,8.600,8.800,10.800,18.600
1.448,9.000,8.800,11.200,19.100
1.449,9.200,8.700,11.300,19.400
1.450,9.100,8.600,11.300,19.800
1.451,8.600,8.600,11.100,20.400
1.452,7.900,8.900,11.000,21.200
1.453,7.400,9.300,11.100,22.100
1.454,7.200,9.700,11.400,22.900
1.455,7.300,10.200,11.900,23.600
1.456,7.600,10.600,12.600,24.300
1.457,7.700,11.000,13.200,24.900
1.458,7.700,11.300,13.500,25.700
1.459,7.600,11.500,13.600,26.300
1.460,7.500,11.700,13.600,26.800
1.461,7.600,11.800,13.700,27.100
1.462,7.800,12.000,14.000,27.400
1.463,8.000,12.200,14.500,27.800
1.464,8.100,12.400,15.000,28.400
1.465,8.000,12.600,15.400,29.100
1.466,7.900,12.800,15.600,29.700
1.467,7.800,13.000,15.800,30.000
1.468,7.800,13.000,16.000,29.900
1.469,7.800,13.100,16.100,29.700
1.470,7.700,13.200,16.100,29.400
1.471,7.300,13.300,15.800,29.200
1.472,6.700,13.400,15.300,29.100
1.473,6.300,13.400,15.000,29.200
1.474,6.100,13.400,15.100,29.200
1.475,6.300,13.400,15.500,29.400
1.476,6.600,13.600,16.100,29.800
1.477,6.900,13.800,16.500,30.400
1.478,7.000,14.100,16.600,31.100
1.479,6.900,14.300,16.400,31.900
1.480,6.900,14.400,16.100,32.500
1.481,7.000,14.500,16.000,32.800
1.482,7.300,14.500,16.200,32.800
1.483,7.500,14.700,16.700,32.800
1.484,7.700,14.900,17.200,32.700
1.485,7.600,15.000,17.500,32.800
1.486,7.200,15.100,17.500,32.900
1.487,6.900,14.900,17.300,32.900
1.488,6.700,14.400,17.300,32.800
1.489,6.600,13.700,17.500,32.400
1.490,6.700,13.000,17.800,31.800
1.491,6.800,12.400,18.000,31.300
1.492,6.700,12.000,17.900,31.100
1.493,6.400,11.600,17.400,31.000
1.494,6.000,11.300,16.500,31.100
1.495,5.500,11.000,15.600,31.000
1.496,5.000,10.500,14.900,30.700
1.497,4.700,10.100,14.600,30.200
1.498,4.500,9.800,14.700,29.700
1.499,4.600,9.700,15.100,29.500
1.500,4.800,9.700,15.600,29.700
1.501,5.200,9.900,15.900,30.000
1.502,5.600,10.000,15.900,30.200
1.503,5.900,10.000,15.600,30.000
1.504,6.100,9.900,15.000,29.300
1.505,6.000,9.800,14.400,28.400
1.506,5.800,9.800,14.100,27.400
1.507,5.700,10.000,14.200,26.800
1.508,6.000,10.400,14.600,26.500
1.509,6.600,10.800,14.900,26.400
1.510,7.200,11.200,15.000,26.300
1.511,7.500,11.400,14.600,25.900
1.512,7.300,11.400,13.800,25.200
1.513,6.600,11.300,13.000,24.500
1.514,5.600,11.200,12.500,23.800
1.515,4.900,11.200,12.400,23.400
1.516,4.700,11.400,12.800,23.200
1.517,5.100,11.600,13.200,23.100
1.518,5.700,11.700,13.400,22.900
1.519,6.100,11.900,13.200,22.600
1.520,6.200,11.800,12.700,22.100
1.521,6.000,11.600,12.200,21.400
1.522,5.900,11.300,11.900,20.700
1.523,6.100,11.000,11.800,19.900
1.524,6.800,10.800,11.900,19.200
1.525,7.700,10.800,12.000,18.600
1.526,8.400,11.000,12.000,18.100
1.527,8.500,11.300,11.900,17.700
1.528,8.200,11.600,11.900,17.400
1.529,7.400,11.800,11.900,17.000
1.530,6.600,12.000,12.000,16.500
1.531,6.000,12.000,12.100,16.000
1.532,5.700,11.900,12.000,15.500
1.533,5.800,11.700,11.600,15.100
1.534,6.300,11.500,11.000,14.800
1.535,7.100,11.200,10.500,14.600
1.536,7.900,10.900,10.000,14.400
1.537,8.400,10.700,9.700,14.000
1.538,8.500,10.400,9.400,13.400
1.539,8.300,10.200,9.000,12.600
1.540,8.100,10.100,8.600,11.800
1.541,8.100,10.300,8.400,11.200
1.542,8.600,10.800,8.500,10.900
1.543,9.600,11.500,9.000,10.900
1.544,10.500,12.300,9.700,11.100
1.545,11.100,12.800,10.300,11.100
1.546,11.200,13.000,10.500,10.900
1.547,10.700,12.800,10.300,10.500
1.548,10.100,12.300,9.600,10.100
1.549,9.800,11.800,8.900,9.700
1.550,9.900,11.500,8.300,9.400
1.551,10.200,11.300,8.100,9.200
1.552,10.400,11.200,8.200,8.900
1.553,10.400,11.200,8.600,8.500
1.554,10.200,11.000,9.000,8.100
1.555,10.100,10.900,9.200,7.800
1.556,10.300,10.900,9.300,7.800
1.557,10.800,11.000,9.300,8.000
1.558,11.400,11.200,9.200,8.200
1.559,11.900,11.400,9.000,8.200
1.560,12.100,11.600,8.800,7.800
1.561,12.000,11.700,8.500,7.000
1.562,11.800,11.700,8.100,5.900
1.563,11.800,11.600,7.600,4.900
1.564,12.100,11.300,7.200,4.300
1.565,12.500,10.900,7.000,4.000
1.566,13.000,10.600,6.900,4.000
1.567,13.100,10.200,7.000,4.100
1.568,12.800,9.900,7.100,4.000
1.569,12.000,9.500,7.000,3.500
1.570,11.000,9.100,6.600,2.600
1.571,10.000,8.300,5.800,1.500
1.572,9.200,7.300,4.700,0.100
1.573,8.900,6.000,3.300,-1.300
1.574,8.900,4.600,2.100,-2.700
1.575,8.900,3.500,1.100,-3.900
1.576,8.900,2.800,0.700,-4.500
1.577,8.600,2.700,1.000,-4.400
1.578,8.200,3.500,1.900,-3.600
1.579,8.000,4.900,3.200,-2.600
1.580,8.300,6.700,4.500,-1.500
1.581,9.200,8.600,5.700,-0.800
1.582,10.400,10.200,6.500,-0.200
1.583,11.900,11.800,7.300,0.700
1.584,13.200,13.300,8.300,2.200
1.585,14.200,15.000,9.800,4.500
1.586,14.900,17.000,11.500,7.300
1.587,15.300,19.100,13.200,9.900
1.588,15.600,20.900,14.500,11.700
1.589,15.800,22.100,15.200,12.600
1.590,16.000,22.800,15.300,13.000
1.591,16.200,23.400,15.400,13.500
1.592,16.400,24.100,15.800,14.400
1.593,16.500,25.100,16.600,16.000
1.594,16.500,26.200,17.500,17.800
1.595,16.400,27.100,18.300,19.400
1.596,16.300,27.400,18.700,20.400
1.597,16.200,27.000,18.600,20.800
1.598,16.100,26.300,18.100,20.600
1.599,16.000,25.600,17.500,20.100
1.600,15.900,25.100,16.700,19.200
1.601,15.500,24.700,15.800,17.900
1.602,15.100,24.100,14.700,16.200
1.603,14.600,22.700,13.400,13.900
1.604,14.000,20.300,11.800,11.000
1.605,13.400,17.100,9.900,7.800
1.606,12.700,13.500,7.900,4.200
1.607,11.900,9.900,5.700,0.800
1.608,11.100,6.700,3.500,-2.200
1.609,10.300,4.200,1.500,-4.500
1.610,9.500,2.300,0.100,-6.000
1.611,8.800,1.300,-0.700,-6.600
1.612,8.500,0.900,-0.500,-6.500
1.613,8.500,1.200,0.300,-6.100
1.614,9.000,2.000,1.600,-5.300
1.615,9.700,3.100,2.800,-4.600
1.616,10.400,4.200,3.600,-3.800
1.617,10.800,5.100,3.800,-3.200
1.618,10.600,5.700,3.600,-2.700
1.619,10.100,5.900,3.100,-2.600
1.620,9.400,5.800,2.900,-2.500
1.621,9.000,5.800,3.000,-2.600
1.622,9.000,5.700,3.400,-2.500
1.623,9.100,5.800,3.900,-2.300
1.624,9.300,5.900,4.200,-2.000
1.625,9.300,5.900,3.900,-1.600
1.626,9.000,5.800,3.200,-1.500
1.627,8.600,5.600,2.300,-1.500
1.628,8.400,5.400,1.800,-1.900
1.629,8.400,5.100,1.800,-2.300
1.630,8.600,4.800,2.300,-2.800
1.631,8.900,4.500,3.100,-3.100
1.632,9.000,4.300,3.900,-3.200
1.633,9.000,4.100,4.300,-2.900
1.634,8.800,4.100,4.300,-2.300
1.635,8.500,4.300,4.100,-1.500
1.636,8.100,4.600,3.800,-0.700
1.637,7.800,4.900,3.600,0.000
1.638,7.400,5.300,3.300,0.400
1.639,7.200,5.700,3.000,0.600
1.640,7.200,5.900,2.800,0.500
1.641,7.600,6.100,2.700,0.200
1.642,8.000,6.200,2.800,-0.100
1.643,8.400,6.200,3.200,-0.600
1.644,8.500,6.200,3.700,-1.000
1.645,8.300,6.200,4.000,-1.200
1.646,8.000,6.100,4.000,-1.300
1.647,7.800,5.900,3.800,-1.200
1.648,8.000,5.700,3.600,-1.100
1.649,8.700,5.700,3.700,-0.900
1.650,9.500,5.700,3.900,-0.700
1.651,9.900,6.000,4.200,-0.600
1.652,9.700,6.300,4.300,-0.400
1.653,9.100,6.500,4.000,-0.200
1.654,8.300,6.500,3.500,-0.100
1.655,8.000,6.200,3.000,-0.100
1.656,8.300,5.700,2.800,-0.200
1.657,9.000,5.300,2.900,-0.200
1.658,9.600,5.300,3.100,-0.100
1.659,9.600,5.500,3.400,0.200
1.660,9.000,6.000,3.500,0.800
1.661,8.200,6.300,3.500,1.600
1.662,7.600,6.400,3.500,2.400
1.663,7.600,6.200,3.400,3.000
1.664,8.200,5.900,3.400,3.400
1.665,9.000,5.700,3.200,3.400
1.666,9.400,5.900,2.900,3.200
1.667,9.300,6.100,2.500,2.900
1.668,8.900,6.400,2.100,2.500
1.669,8.500,6.300,1.800,2.100
1.670,8.400,6.100,1.600,1.600
1.671,8.700,5.900,1.400,1.300
1.672,9.000,6.000,1.300,1.100
1.673,9.100,6.400,1.200,1.200
1.674,8.900,7.200,1.400,1.600
1.675,8.700,8.000,2.000,2.000
1.676,8.600,8.500,2.800,2.300
1.677,8.900,8.700,3.700,2.200
1.678,9.300,8.600,4.500,2.000
1.679,9.700,8.300,4.900,1.700
1.680,9.700,8.200,5.100,1.700
1.681,9.600,8.300,5.100,2.100
1.682,9.400,8.700,5.200,2.900
1.683,9.400,9.200,5.500,3.600
1.684,9.700,9.800,5.800,4.000
1.685,10.100,10.300,6.200,4.100
1.686,10.400,10.600,6.400,3.800
1.687,10.500,10.500,6.500,3.500
1.688,10.400,10.100,6.600,3.500
1.689,10.200,9.600,6.800,3.700
1.690,10.100,8.900,7.100,3.900
1.691,10.200,8.300,7.300,4.000
1.692,10.300,7.800,7.400,3.600
1.693,10.400,7.300,7.100,2.800
1.694,10.400,7.000,6.600,2.000
1.695,10.300,6.900,6.100,1.400
1.696,10.000,7.100,5.700,1.500
1.697,9.700,7.500,5.700,2.100
1.698,9.400,8.200,5.800,3.100
1.699,9.000,8.800,5.900,3.900
1.700,8.700,9.200,5.900,4.400
1.701,8.700,9.400,5.800,4.300
1.702,9.200,9.300,5.700,3.800
1.703,9.900,9.100,5.900,3.300
1.704,10.800,9.000,6.300,3.000
1.705,11.500,8.900,6.800,3.100
1.706,11.800,8.900,7.300,3.600
1.707,11.700,8.900,7.400,4.100
1.708,11.200,8.800,7.200,4.400
1.709,10.600,8.600,6.900,4.500
1.710,10.100,8.400,6.700,4.300
1.711,9.900,8.400,7.000,4.100
1.712,9.800,8.500,7.600,4.000
1.713,9.800,8.700,8.200,4.200
1.714,10.000,8.800,8.500,4.400
1.715,10.100,8.900,8.500,4.500
1.716,10.300,8.900,8.100,4.400
1.717,10.500,8.800,7.600,4.100
1.718,10.600,8.800,7.200,3.800
1.719,10.700,8.800,7.100,3.900
1.720,10.800,8.700,7.100,4.100
1.721,11.000,8.600,7.100,4.500
1.722,11.100,8.300,6.900,4.600
1.723,11.000,8.000,6.700,4.300
1.724,10.800,7.700,6.400,3.700
1.725,10.400,7.700,6.300,3.100
1.726,10.000,7.900,6.300,2.800
1.727,10.000,8.300,6.500,2.900
1.728,10.300,8.600,6.700,3.200
1.729,11.000,8.600,6.700,3.500
1.730,11.900,8.400,6.700,3.700
1.731,12.400,8.100,6.700,3.800
1.732,12.500,7.900,6.600,3.900
1.733,12.200,7.900,6.700,4.200
1.734,11.600,8.200,6.800,4.800
1.735,11.400,8.600,7.000,5.300
1.736,11.600,9.100,7.300,5.500
1.737,12.200,9.400,7.600,5.500
1.738,12.900,9.600,8.000,5.200
1.739,13.400,9.600,8.400,4.900
1.740,13.400,9.500,8.800,5.000
1.741,13.000,9.400,9.000,5.300
1.742,12.600,9.400,8.900,5.700
1.743,12.400,9.600,8.800,6.100
1.744,12.500,9.800,8.500,6.300
1.745,12.700,10.100,8.300,6.200
1.746,12.700,10.400,8.200,5.900
1.747,12.600,10.600,8.100,5.600
1.748,12.300,10.800,8.200,5.300
1.749,12.200,10.800,8.300,5.100
1.750,12.500,10.800,8.500,5.100
1.751,13.000,10.700,8.800,5.200
1.752,13.400,10.700,8.900,5.300
1.753,13.300,10.600,8.800,5.300
1.754,12.800,10.700,8.500,5.300
1.755,12.100,10.900,8.000,5.100
1.756,11.700,11.300,7.600,4.900
1.757,11.800,11.700,7.500,4.800
1.758,12.300,12.100,7.800,4.700
1.759,12.900,12.300,8.300,4.900
1.760,13.200,12.300,9.000,5.200
1.761,13.100,12.300,9.600,5.700
1.762,12.700,12.300,10.100,6.300
1.763,12.400,12.500,10.300,6.700
1.764,12.600,12.900,10.300,7.000
1.765,13.100,13.300,10.300,6.900
1.766,13.600,13.400,10.300,6.600
1.767,14.000,13.000,10.400,6.200
1.768,14.000,12.500,10.500,5.800
1.769,13.800,12.000,10.600,5.800
1.770,13.600,11.800,10.700,6.200
1.771,13.800,12.200,10.600,6.800
1.772,14.200,13.000,10.400,7.500
1.773,14.500,13.700,10.200,7.800
1.774,14.600,13.900,10.000,7.700
1.775,14.400,13.400,9.900,7.100
1.776,14.000,12.400,10.100,6.200
1.777,13.700,11.100,10.300,5.300
1.778,13.700,10.000,10.500,4.600
1.779,14.000,9.500,10.600,4.200
1.780,14.400,9.400,10.500,4.000
1.781,14.500,9.700,10.200,4.100
1.782,14.300,10.100,9.800,4.300
1.783,14.100,10.400,9.600,4.500
1.784,14.100,10.700,9.700,4.800
1.785,14.300,10.900,9.900,5.000
1.786,14.800,11.200,10.200,5.200
1.787,15.100,11.700,10.300,5.300
1.788,15.000,12.300,10.400,5.400
1.789,14.600,12.800,10.400,5.300
1.790,14.000,13.000,10.600,5.300
1.791,13.700,12.900,10.800,5.300
1.792,13.700,12.600,11.100,5.300
1.793,14.000,12.400,11.200,5.300
1.794,14.500,12.300,10.900,5.300
1.795,14.800,12.400,10.200,5.300
1.796,14.800,12.600,9.500,5.400
1.797,14.600,12.900,9.000,5.500
1.798,14.300,13.100,8.800,5.600
1.799,14.000,13.200,8.800,5.600
1.800,13.800,13.100,9.000,5.500
1.801,13.700,12.900,9.200,5.400
1.802,13.800,12.600,9.400,5.400
1.803,14.000,12.400,9.500,5.400
1.804,14.100,12.200,9.600,5.400
1.805,14.100,12.100,9.800,5.500
1.806,13.800,12.100,10.000,5.400
1.807,13.200,12.000,10.100,5.100
1.808,12.800,11.700,10.100,4.800
1.809,12.800,11.400,10.000,4.300
1.810,13.300,11.000,9.900,3.800
1.811,14.100,10.800,9.800,3.500
1.812,14.800,10.700,9.600,3.200
1.813,15.000,10.700,9.500,3.000
1.814,14.600,10.800,9.400,2.900
1.815,13.900,10.800,9.400,2.900
1.816,13.500,10.700,9.600,2.800
1.817,13.500,10.500,9.900,2.800
1.818,13.800,10.300,10.200,2.900
1.819,14.100,10.300,10.300,3.100
1.820,14.300,10.500,10.200,3.200
1.821,14.100,10.600,9.900,3.300
1.822,13.800,10.600,9.600,3.200
1.823,13.500,10.400,9.400,3.000
1.824,13.300,10.000,9.500,2.800
1.825,13.100,9.600,9.700,2.800
1.826,12.800,9.300,10.000,3.100
1.827,12.400,9.200,10.400,3.500
1.828,12.100,9.300,10.800,3.900
1.829,12.200,9.400,11.100,4.000
1.830,12.700,9.500,11.200,3.700
1.831,13.400,9.400,10.900,3.200
1.832,14.100,9.300,10.100,2.700
1.833,14.600,9.100,8.900,2.300
1.834,14.700,9.000,7.600,2.100
1.835,14.500,8.900,6.400,2.000
1.836,14.200,8.900,5.700,1.800
1.837,13.800,8.800,5.400,1.500
1.838,13.400,8.700,5.500,1.000
1.839,13.000,8.500,5.900,0.700
1.840,12.600,8.400,6.200,0.800
1.841,12.400,8.300,6.500,1.000
1.842,12.500,8.200,6.700,1.300
1.843,12.700,8.200,6.800,1.300
1.844,13.100,8.000,6.700,0.800
1.845,13.300,7.700,6.600,0.100
1.846,13.300,7.200,6.400,-0.700
1.847,13.100,6.800,6.300,-1.300
1.848,12.800,6.500,6.300,-1.400
1.849,12.900,6.500,6.400,-1.100
1.850,13.200,6.700,6.500,-0.600
1.851,13.800,7.200,6.500,-0.200
1.852,14.300,7.600,6.300,0.000
1.853,14.500,7.900,6.000,0.000
1.854,14.300,8.100,5.700,0.100
1.855,13.900,8.200,5.600,0.200
1.856,13.400,8.200,5.700,0.400
1.857,13.100,8.100,6.100,0.400
1.858,13.000,7.900,6.500,0.300
1.859,12.900,7.500,6.700,0.000
1.860,12.900,7.000,6.500,-0.400
1.861,12.700,6.200,6.100,-0.700
1.862,12.400,5.500,5.700,-0.800
1.863,12.100,4.900,5.300,-0.700
1.864,12.100,4.600,5.000,-0.500
1.865,12.200,4.500,4.700,-0.500
1.866,12.400,4.600,4.400,-0.800
1.867,12.400,4.400,3.900,-1.500
1.868,12.200,4.000,3.300,-2.400
1.869,11.800,3.300,3.000,-3.300
1.870,11.500,2.300,3.000,-3.900
1.871,11.300,1.500,3.200,-4.100
1.872,11.400,0.900,3.600,-4.000
1.873,11.600,0.800,3.900,-3.700
1.874,11.700,1.000,4.000,-3.200
1.875,11.600,1.300,3.900,-2.800
1.876,11.200,1.600,3.900,-2.400
1.877,10.600,1.900,3.900,-2.000
1.878,10.200,2.000,4.100,-1.500
1.879,10.100,2.200,4.300,-0.800
1.880,10.200,2.300,4.500,0.100
1.881,10.500,2.300,4.600,0.900
1.882,10.700,2.000,4.700,1.600
1.883,10.800,1.600,4.800,1.900
1.884,10.800,1.200,4.900,2.000
1.885,10.900,0.900,5.100,1.900
1.886,10.900,0.900,5.200,2.000
1.887,11.100,1.200,5.200,2.100
1.888,11.100,1.800,5.000,2.500
1.889,11.100,2.300,4.800,2.800
1.890,10.800,2.600,4.700,2.900
1.891,10.300,2.700,4.500,2.700
1.892,9.700,2.400,4.200,2.300
1.893,9.300,1.800,3.900,1.600
1.894,9.000,1.200,3.500,1.000
1.895,9.100,0.700,3.200,0.600
1.896,9.500,0.500,3.100,0.500
1.897,10.000,0.700,3.300,0.500
1.898,10.500,1.200,3.700,0.600
1.899,10.800,1.900,4.000,0.600
1.900,11.000,2.400,4.200,0.700
1.901,10.900,2.800,4.200,0.700
1.902,10.800,2.900,4.400,0.900
1.903,10.700,2.900,4.600,1.100
1.904,10.700,3.000,5.100,1.300
1.905,10.800,3.200,5.500,1.400
1.906,11.000,3.700,5.800,1.400
1.907,11.100,4.200,5.900,1.300
1.908,11.200,4.600,5.900,1.200
1.909,11.400,5.100,5.900,1.200
1.910,11.700,5.600,6.200,1.400
1.911,12.000,6.200,6.600,1.700
1.912,12.200,7.100,7.100,2.100
1.913,12.300,8.000,7.300,2.400
1.914,12.200,8.600,7.200,2.600
1.915,12.000,8.900,6.900,2.800
1.916,11.900,8.700,6.500,2.900
1.917,11.900,8.100,6.300,3.100
1.918,11.900,7.400,6.300,3.400
1.919,11.900,6.900,6.600,3.600
1.920,11.800,6.600,7.100,3.700
1.921,11.600,6.700,7.600,3.900
1.922,11.400,6.900,8.100,3.900
1.923,11.400,7.100,8.400,3.900
1.924,11.700,7.100,8.600,3.800
1.925,12.000,7.000,8.500,3.600
1.926,12.200,6.700,8.300,3.200
1.927,12.100,6.400,7.800,2.900
1.928,11.600,6.100,7.300,2.600
1.929,10.800,6.000,6.900,2.400
1.930,10.200,6.000,6.500,2.300
1.931,9.800,6.200,6.400,2.400
1.932,10.000,6.500,6.500,2.600
1.933,10.500,6.900,6.700,2.800
1.934,11.000,7.300,6.800,2.900
1.935,11.300,7.700,6.900,3.000
1.936,11.500,8.200,6.700,2.700
1.937,11.800,9.000,6.500,2.100
1.938,12.500,10.200,6.400,1.200
1.939,13.800,11.800,6.700,0.100
1.940,15.300,14.000,7.300,-1.000
1.941,16.900,16.700,8.200,-2.000
1.942,18.100,19.500,9.000,-2.600
1.943,18.800,22.400,9.700,-3.000
1.944,19.000,24.900,10.100,-3.100
1.945,18.900,27.100,10.400,-3.000
1.946,18.800,28.800,10.900,-2.400
1.947,18.800,30.400,11.900,-1.400
1.948,18.800,32.100,13.300,0.300
1.949,19.100,33.900,15.200,2.500
1.950,19.400,36.000,17.300,5.000
1.951,19.900,38.200,19.400,7.900
1.952,20.100,40.500,21.300,11.000
1.953,20.000,42.600,22.900,14.400
1.954,19.300,44.200,24.100,18.200
1.955,18.100,45.200,25.000,22.500
1.956,16.700,45.400,25.800,27.200
1.957,15.300,44.800,26.700,32.100
1.958,13.900,43.500,27.700,37.100
1.959,12.500,41.700,28.900,42.300
1.960,10.900,39.800,30.200,47.600
1.961,8.800,37.900,31.300,53.100
1.962,6.200,35.900,32.200,58.900
1.963,3.300,33.500,32.800,64.900
1.964,0.400,30.600,33.100,70.900
1.965,-2.300,26.900,33.100,76.800
1.966,-4.800,22.800,33.100,82.400
1.967,-7.200,18.700,33.100,87.700
1.968,-9.400,15.000,33.000,92.500
1.969,-11.500,11.900,32.900,96.400
1.970,-13.400,9.400,32.600,99.100
1.971,-14.900,7.000,31.900,100.500
1.972,-15.900,4.600,30.900,100.600
1.973,-16.500,2.100,29.600,99.300
1.974,-16.700,-0.500,28.100,96.700
1.975,-16.700,-3.200,26.300,92.800
1.976,-16.900,-6.100,24.100,87.700
1.977,-17.400,-9.300,21.200,81.500
1.978,-18.200,-13.200,17.700,74.300
1.979,-19.500,-17.700,13.600,66.800
1.980,-20.800,-22.600,9.300,59.600
1.981,-21.900,-27.600,5.400,53.100
1.982,-22.500,-32.500,2.100,47.400
1.983,-22.700,-37.100,-0.700,42.100
1.984,-22.500,-41.500,-3.300,36.600
1.985,-22.300,-45.300,-6.100,30.500
1.986,-22.200,-48.300,-9.200,23.700
1.987,-22.200,-50.300,-12.200,16.900
1.988,-21.900,-51.000,-14.800,10.800
1.989,-21.200,-50.400,-16.500,5.900
1.990,-19.900,-48.800,-17.500,2.200
1.991,-18.100,-46.700,-17.900,-0.600
1.992,-16.400,-44.500,-18.100,-3.100
1.993,-14.900,-42.200,-18.200,-5.500
1.994,-13.700,-39.800,-18.100,-8.000
1.995,-12.800,-37.100,-17.600,-10.000
1.996,-11.900,-34.300,-16.700,-11.400
1.997,-10.900,-31.300,-15.300,-12.100
1.998,-9.500,-28.300,-13.800,-12.400
1.999,-8.100,-25.400,-12.400,-12.500
2.000,-6.600,-22.500,-11.200,-12.600
2.001,-5.100,-19.500,-10.100,-12.500
2.002,-3.700,-16.300,-9.000,-12.000
2.003,-2.500,-12.900,-7.800,-11.000
2.004,-1.400,-9.700,-6.600,-9.700
2.005,-0.500,-7.000,-5.600,-8.500
2.006,0.000,-5.100,-4.800,-7.700
2.007,0.300,-3.900,-4.300,-7.200
2.008,0.800,-3.100,-3.800,-7.000
2.009,1.400,-2.500,-3.400,-6.700
2.010,2.200,-1.600,-3.100,-6.200
2.011,3.100,-0.600,-3.100,-5.800
2.012,3.700,0.300,-3.300,-5.800
2.013,3.900,1.000,-3.500,-6.400
2.014,3.800,1.300,-3.700,-7.300
2.015,3.400,1.200,-3.400,-8.200
2.016,3.200,0.900,-2.900,-8.700
2.017,3.200,0.600,-2.300,-8.600
2.018,3.600,0.500,-2.000,-8.200
2.019,4.200,0.600,-2.100,-7.900
2.020,4.900,0.800,-2.500,-7.800
2.021,5.500,1.000,-3.000,-8.000
2.022,6.100,1.200,-3.300,-8.200
2.023,6.700,1.500,-3.000,-8.100
2.024,7.300,1.900,-2.300,-7.500
2.025,7.700,2.500,-1.400,-6.700
2.026,8.000,3.300,-0.500,-5.900
2.027,8.200,4.100,0.100,-5.400
2.028,8.200,4.700,0.500,-5.500
2.029,8.100,4.900,0.500,-5.900
2.030,8.000,4.800,0.300,-6.500
2.031,8.000,4.600,0.000,-6.900
2.032,8.200,4.300,-0.100,-6.900
2.033,8.500,4.300,0.000,-6.700
2.034,8.700,4.400,0.500,-6.300
2.035,8.900,4.600,1.000,-5.800
2.036,8.900,4.700,1.500,-5.600
2.037,8.700,4.800,1.800,-5.700
2.038,8.500,4.600,1.600,-6.200
2.039,8.300,4.200,1.200,-6.800
2.040,8.300,3.600,0.500,-7.400
2.041,8.400,3.000,-0.200,-7.800
2.042,8.700,2.600,-0.900,-7.700
2.043,9.000,2.300,-1.300,-7.300
2.044,9.200,2.400,-1.300,-6.600
2.045,9.200,2.600,-1.100,-5.900
2.046,9.100,3.000,-0.500,-5.400
2.047,9.000,3.300,0.200,-5.300
2.048,9.000,3.400,0.800,-5.600
2.049,9.000,3.200,1.100,-6.200
2.050,9.100,2.700,1.000,-7.000
2.051,9.000,2.100,0.600,-8.000
2.052,8.400,1.200,-0.200,-9.000
2.053,7.700,0.200,-1.100,-10.100
2.054,6.900,-0.700,-1.900,-11.100
2.055,6.400,-1.200,-2.400,-11.600
2.056,6.500,-1.200,-2.200,-11.400
2.057,7.100,-0.700,-1.400,-10.600
2.058,7.800,0.400,-0.200,-9.500
2.059,8.300,1.600,1.200,-8.400
2.060,8.500,2.900,2.400,-7.700
2.061,8.500,4.000,3.300,-7.200
2.062,8.800,5.300,4.100,-6.600
2.063,9.600,6.900,5.200,-5.500
2.064,10.900,8.900,6.600,-3.600
2.065,12.300,11.200,8.300,-1.100
2.066,13.200,13.500,9.700,1.500
2.067,13.500,15.400,10.600,3.900
2.068,13.300,16.900,11.000,5.800
2.069,13.200,18.200,11.000,7.400
2.070,13.600,19.400,11.300,9.000
2.071,14.600,20.700,12.100,10.700
2.072,15.700,22.000,13.200,12.500
2.073,16.300,23.000,14.300,14.000
2.074,16.200,23.500,15.000,14.900
2.075,15.500,23.400,15.100,15.300
2.076,14.600,22.900,14.800,15.300
2.077,14.200,22.400,14.500,15.000
2.078,14.300,21.900,14.300,14.500
2.079,14.900,21.500,14.100,13.500
2.080,15.400,20.900,13.600,11.900
2.081,15.400,19.800,12.500,9.500
2.082,14.800,18.100,10.600,6.500
2.083,13.600,15.500,8.200,3.100
2.084,12.400,12.400,5.700,-0.500
2.085,11.200,8.800,3.400,-3.900
2.086,10.500,5.200,1.400,-7.100
2.087,10.100,1.800,-0.200,-9.900
2.088,10.200,-0.800,-1.600,-12.100
2.089,10.500,-2.500,-2.600,-13.400
2.090,10.800,-3.100,-3.300,-13.800
2.091,11.000,-2.800,-3.400,-13.300
2.092,10.700,-2.000,-2.900,-12.200
2.093,10.100,-0.900,-1.900,-10.900
2.094,9.300,0.200,-0.700,-9.700
2.095,8.800,1.000,0.500,-8.700
2.096,8.800,1.700,1.400,-7.900
2.097,9.300,2.000,2.000,-7.400
2.098,9.900,2.200,2.200,-6.900
2.099,10.400,2.100,2.100,-6.600
2.100,10.300,2.000,1.900,-6.600
2.101,9.800,1.900,1.700,-6.800
2.102,9.100,1.800,1.400,-7.100
2.103,8.500,1.900,1.200,-7.200
2.104,8.400,2.000,1.000,-7.100
2.105,8.700,1.900,1.100,-6.800
2.106,9.200,1.800,1.200,-6.300
2.107,9.600,1.400,1.500,-6.000
2.108,9.800,1.100,1.700,-5.900
2.109,9.600,1.000,1.800,-6.100
2.110,9.200,1.000,1.600,-6.500
2.111,8.800,1.300,1.300,-6.800
2.112,8.400,1.600,0.800,-6.900
2.113,8.200,1.900,0.400,-7.000
2.114,8.000,2.000,0.100,-6.900
2.115,8.000,2.000,0.100,-6.900
2.116,8.000,2.000,0.200,-7.000
2.117,8.000,1.900,0.400,-7.000
2.118,8.100,1.800,0.500,-6.900
2.119,8.200,1.600,0.400,-6.800
2.120,8.200,1.100,0.100,-6.800
2.121,7.900,0.600,-0.400,-6.900
2.122,7.400,0.100,-0.800,-7.000
2.123,6.800,-0.100,-1.000,-7.200
2.124,6.400,0.100,-1.000,-7.100
2.125,6.200,0.600,-0.600,-6.800
2.126,6.500,0.900,-0.200,-6.500
2.127,6.900,1.000,0.200,-6.300
2.128,7.200,0.600,0.500,-6.500
2.129,7.100,0.000,0.500,-7.000
2.130,6.600,-0.700,0.400,-7.700
2.131,5.900,-1.300,0.100,-8.400
2.132,5.300,-1.600,-0.100,-8.800
2.133,5.100,-1.700,-0.400,-8.900
2.134,5.300,-1.900,-0.700,-8.800
2.135,5.700,-2.200,-1.100,-8.600
2.136,6.100,-2.600,-1.500,-8.500
2.137,6.100,-2.800,-1.900,-8.500
2.138,5.800,-2.900,-2.100,-8.500
2.139,5.200,-2.700,-2.000,-8.500
2.140,4.700,-2.300,-1.600,-8.200
2.141,4.500,-1.900,-1.100,-7.700
2.142,4.800,-1.600,-0.400,-7.000
2.143,5.300,-1.400,0.100,-6.300
2.144,5.900,-1.300,0.400,-5.900
2.145,6.100,-1.300,0.400,-5.700
2.146,6.000,-1.300,0.300,-5.900
2.147,5.400,-1.400,0.000,-6.200
2.148,4.800,-1.400,-0.300,-6.400
2.149,4.400,-1.500,-0.400,-6.500
2.150,4.300,-1.700,-0.600,-6.300
2.151,4.500,-2.000,-0.800,-5.800
2.152,4.600,-2.400,-1.200,-5.400
2.153,4.600,-2.800,-1.800,-5.100
2.154,4.200,-3.100,-2.400,-4.900
2.155,3.700,-3.300,-3.000,-4.900
2.156,3.300,-3.400,-3.400,-5.100
2.157,3.000,-3.700,-3.500,-5.400
2.158,3.000,-4.100,-3.300,-5.800
2.159,3.000,-4.700,-2.800,-6.200
2.160,3.100,-5.200,-2.100,-6.300
2.161,2.900,-5.500,-1.400,-6.200
2.162,2.400,-5.400,-0.700,-5.800
2.163,1.700,-5.200,-0.400,-5.200
2.164,1.000,-5.000,-0.500,-4.800
2.165,0.600,-5.100,-1.100,-4.600
2.166,0.500,-5.500,-1.700,-4.600
2.167,0.900,-6.100,-2.300,-4.800
2.168,1.600,-6.500,-2.500,-5.000
2.169,2.300,-6.600,-2.300,-4.900
2.170,2.700,-6.300,-2.100,-4.700
2.171,2.700,-6.000,-2.000,-4.400
2.172,2.200,-5.700,-2.200,-4.100
2.173,1.600,-5.800,-2.500,-4.000
2.174,0.900,-6.000,-2.700,-4.000
2.175,0.600,-6.200,-2.600,-3.900
2.176,0.600,-6.000,-1.900,-3.800
2.177,0.800,-5.500,-1.000,-3.400
2.178,1.300,-4.700,0.000,-2.900
2.179,1.700,-4.100,0.800,-2.400
2.180,1.900,-3.900,1.100,-1.900
2.181,1.800,-4.100,1.000,-1.600
2.182,1.300,-4.600,0.600,-1.400
2.183,0.600,-5.000,0.200,-1.300
2.184,-0.100,-5.100,0.000,-1.100
2.185,-0.600,-4.900,-0.100,-0.800
2.186,-0.900,-4.600,-0.200,-0.400
2.187,-0.900,-4.600,-0.300,-0.100
2.188,-1.000,-4.900,-0.700,0.100
2.189,-1.300,-5.600,-1.300,0.000
2.190,-2.000,-6.300,-1.900,-0.100
2.191,-2.600,-7.000,-2.500,-0.300
2.192,-3.100,-7.400,-2.900,-0.200
2.193,-3.000,-7.700,-3.000,0.100
2.194,-2.500,-8.000,-3.000,0.600
2.195,-1.800,-8.400,-2.900,1.100
2.196,-1.400,-8.800,-2.900,1.500
2.197,-1.400,-9.100,-2.900,1.600
2.198,-1.800,-9.400,-3.000,1.500
2.199,-2.400,-9.600,-3.200,1.200
2.200,-2.900,-9.900,-3.400,1.000
2.201,-3.100,-10.200,-3.600,0.800
2.202,-3.100,-10.400,-3.600,0.800
2.203,-3.200,-10.300,-3.400,0.900
2.204,-3.400,-9.800,-3.000,1.200
2.205,-3.800,-9.000,-2.600,1.700
2.206,-4.400,-8.100,-2.200,2.300
2.207,-4.800,-7.400,-2.000,2.900
2.208,-5.200,-7.100,-1.900,3.300
2.209,-5.300,-7.200,-2.000,3.500
2.210,-5.400,-7.600,-2.200,3.500
2.211,-5.600,-8.100,-2.400,3.200
2.212,-5.900,-8.500,-2.700,3.000
2.213,-6.300,-8.900,-3.000,3.100
2.214,-6.700,-9.100,-3.200,3.500
2.215,-6.900,-9.100,-3.300,4.200
2.216,-7.000,-8.800,-3.100,5.200
2.217,-6.800,-8.300,-2.800,6.200
2.218,-6.700,-7.600,-2.300,7.200
2.219,-6.500,-7.000,-1.900,7.900
2.220,-6.500,-6.600,-1.600,8.500
2.221,-6.500,-6.300,-1.400,8.900
2.222,-6.600,-6.200,-1.400,9.200
2.223,-6.600,-6.100,-1.500,9.300
2.224,-6.500,-5.900,-1.500,9.200
2.225,-6.400,-5.700,-1.300,9.200
2.226,-6.100,-5.500,-1.000,9.200
2.227,-5.600,-5.300,-0.600,9.400
2.228,-5.000,-5.100,-0.100,9.600
2.229,-4.500,-5.000,0.200,9.700
2.230,-4.100,-4.800,0.400,9.500
2.231,-4.100,-4.500,0.400,9.200
2.232,-4.600,-4.300,0.300,8.900
2.233,-5.300,-4.200,0.100,8.800
2.234,-6.100,-4.200,-0.100,9.000
2.235,-6.500,-4.400,-0.200,9.400
2.236,-6.500,-4.800,-0.200,10.000
2.237,-6.100,-5.100,-0.100,10.400
2.238,-5.700,-5.300,-0.100,10.800
2.239,-5.400,-5.300,0.000,10.900
2.240,-5.500,-5.100,0.000,11.000
2.241,-5.700,-4.800,-0.100,11.000
2.242,-5.900,-4.500,-0.400,11.000
2.243,-5.900,-4.400,-0.800,10.900
2.244,-5.600,-4.500,-1.000,10.700
2.245,-5.200,-4.600,-0.900,10.600
2.246,-5.000,-4.400,-0.600,10.600
2.247,-4.900,-4.100,-0.100,10.800
2.248,-5.100,-3.500,0.300,11.100
2.249,-5.400,-3.000,0.400,11.200
2.250,-5.600,-2.900,0.200,11.100
2.251,-5.500,-3.300,-0.300,10.700
2.252,-5.200,-4.100,-0.800,10.000
2.253,-4.900,-4.900,-1.200,9.200
2.254,-4.800,-5.600,-1.400,8.500
2.255,-4.900,-5.900,-1.600,7.900
2.256,-5.300,-5.900,-1.800,7.400
2.257,-5.600,-5.800,-2.000,6.900
2.258,-5.700,-5.800,-2.200,6.400
2.259,-5.400,-5.700,-2.200,5.900
2.260,-4.700,-5.500,-2.100,5.500
2.261,-3.800,-5.100,-2.000,5.300
2.262,-3.000,-4.400,-1.900,5.100
2.263,-2.600,-3.500,-1.900,5.100
2.264,-2.500,-2.500,-2.000,5.000
2.265,-2.600,-1.800,-2.100,4.800
2.266,-2.700,-1.400,-2.000,4.500
2.267,-2.700,-1.400,-1.700,4.300
2.268,-2.500,-1.700,-1.300,4.200
2.269,-2.200,-2.000,-1.000,4.100
2.270,-1.900,-2.300,-0.900,3.900
2.271,-1.700,-2.500,-1.000,3.500
2.272,-1.400,-2.500,-1.100,2.800
2.273,-1.100,-2.500,-1.000,2.100
2.274,-0.800,-2.500,-0.800,1.400
2.275,-0.700,-2.600,-0.600,1.000
2.276,-0.700,-2.600,-0.500,1.000
2.277,-0.900,-2.400,-0.600,1.100
2.278,-0.900,-2.000,-1.000,1.300
2.279,-0.700,-1.500,-1.400,1.100
2.280,-0.200,-1.100,-1.800,0.600
2.281,0.500,-0.800,-2.100,-0.300
2.282,1.100,-0.900,-2.200,-1.300
2.283,1.200,-1.200,-2.300,-2.200
2.284,0.700,-1.500,-2.500,-3.000
2.285,-0.100,-1.700,-2.800,-3.700
2.286,-0.900,-1.700,-3.200,-4.300
2.287,-1.100,-1.700,-3.600,-5.000
2.288,-0.700,-1.700,-4.000,-5.600
2.289,0.200,-1.800,-4.200,-6.200
2.290,1.300,-1.900,-4.400,-6.600
2.291,2.100,-1.800,-4.300,-6.800
2.292,2.400,-1.600,-4.000,-7.000
2.293,2.500,-1.300,-3.600,-7.200
2.294,2.500,-1.300,-3.400,-7.400
2.295,2.600,-1.500,-3.400,-7.600
2.296,2.900,-2.000,-3.800,-8.000
2.297,3.100,-2.500,-4.500,-8.400
2.298,3.300,-2.900,-5.200,-8.800
2.299,3.300,-3.000,-5.500,-9.300
2.300,3.100,-3.000,-5.500,-10.000
2.301,2.900,-3.100,-5.300,-10.800
2.302,2.500,-3.500,-5.000,-11.700
2.303,1.900,-3.900,-5.000,-12.500
2.304,1.300,-4.300,-5.300,-13.100
2.305,1.000,-4.300,-5.800,-13.300
2.306,1.100,-4.000,-6.100,-13.300
2.307,1.800,-3.400,-6.200,-12.900
2.308,2.800,-2.900,-6.000,-12.400
2.309,3.700,-2.800,-5.800,-12.000
2.310,4.100,-2.900,-5.900,-11.800
2.311,3.800,-3.300,-6.400,-12.000
2.312,3.000,-3.700,-7.100,-12.400
2.313,2.400,-3.800,-8.000,-13.000
2.314,2.100,-3.800,-8.500,-13.500
2.315,2.400,-3.700,-8.600,-13.800
2.316,2.800,-3.800,-8.100,-13.800
2.317,3.000,-4.000,-7.500,-13.900
2.318,2.700,-4.300,-6.900,-14.200
2.319,1.900,-4.700,-6.700,-14.800
2.320,1.100,-5.100,-6.900,-15.500
2.321,0.600,-5.500,-7.400,-16.000
2.322,0.700,-5.800,-7.800,-16.100
2.323,1.300,-6.100,-8.000,-15.500
2.324,2.000,-6.200,-7.900,-14.600
2.325,2.600,-6.200,-7.600,-13.600
2.326,3.000,-6.200,-7.400,-13.100
2.327,3.100,-6.300,-7.400,-13.200
2.328,2.900,-6.400,-7.700,-13.900
2.329,2.800,-6.600,-8.100,-14.800
2.330,2.500,-6.800,-8.400,-15.500
2.331,2.200,-7.000,-8.500,-15.900
2.332,1.800,-7.300,-8.500,-15.800
2.333,1.300,-7.700,-8.600,-15.700
2.334,0.700,-8.200,-9.100,-15.700
2.335,0.200,-8.900,-10.000,-16.200
2.336,-0.300,-9.700,-11.200,-17.100
2.337,-0.800,-10.500,-12.400,-18.100
2.338,-1.300,-11.200,-13.400,-18.900
2.339,-1.700,-11.700,-13.800,-19.300
2.340,-1.900,-11.800,-13.600,-19.200
2.341,-1.600,-11.600,-13.200,-18.600
2.342,-1.000,-11.200,-12.600,-17.900
2.343,-0.300,-11.000,-12.300,-17.200
2.344,0.300,-11.000,-12.400,-16.900
2.345,0.400,-11.300,-12.800,-16.800
2.346,0.000,-11.700,-13.300,-17.000
2.347,-0.600,-12.000,-13.800,-17.200
2.348,-1.100,-11.900,-14.000,-17.300
2.349,-1.200,-11.400,-13.900,-17.200
2.350,-1.000,-10.700,-13.500,-17.100
2.351,-0.600,-10.200,-13.200,-17.000
2.352,-0.500,-10.100,-13.200,-17.000
2.353,-0.800,-10.400,-13.700,-17.200
2.354,-1.400,-11.000,-14.300,-17.400
2.355,-2.000,-11.500,-14.900,-17.700
2.356,-2.400,-11.900,-15.200,-18.000
2.357,-2.400,-12.000,-15.100,-18.300
2.358,-2.100,-12.100,-14.600,-18.500
2.359,-1.600,-12.100,-13.900,-18.500
2.360,-1.200,-12.200,-13.200,-18.400
2.361,-1.100,-12.000,-12.800,-18.100
2.362,-1.000,-11.800,-12.500,-17.700
2.363,-1.100,-11.300,-12.400,-17.300
2.364,-1.100,-10.900,-12.400,-17.100
2.365,-1.000,-10.600,-12.400,-17.100
2.366,-0.800,-10.500,-12.400,-17.300
2.367,-0.700,-10.500,-12.600,-17.500
2.368,-0.800,-10.800,-12.800,-17.700
2.369,-1.200,-11.200,-13.200,-17.800
2.370,-1.800,-11.700,-13.600,-17.700
2.371,-2.500,-12.200,-13.900,-17.700
2.372,-3.100,-12.600,-14.200,-17.800
2.373,-3.400,-12.700,-14.200,-18.100
2.374,-3.400,-12.500,-14.000,-18.500
2.375,-3.300,-12.000,-13.700,-18.900
2.376,-3.200,-11.700,-13.400,-19.200
2.377,-3.500,-11.600,-13.100,-19.100
2.378,-3.900,-12.000,-12.900,-18.800
2.379,-4.300,-12.700,-12.900,-18.200
2.380,-4.500,-13.500,-12.900,-17.600
2.381,-4.300,-14.000,-13.100,-17.400
2.382,-3.900,-14.100,-13.600,-17.500
2.383,-3.500,-14.200,-14.300,-18.200
2.384,-3.300,-14.300,-15.300,-19.100
2.385,-3.300,-14.700,-16.200,-20.100
2.386,-3.500,-15.200,-16.900,-20.900
2.387,-3.800,-15.800,-17.200,-21.300
2.388,-4.000,-16.200,-17.000,-21.500
2.389,-4.300,-16.200,-16.600,-21.500
2.390,-4.600,-16.100,-16.200,-21.600
2.391,-4.900,-16.100,-16.000,-21.700
2.392,-5.100,-16.300,-16.000,-21.900
2.393,-5.100,-16.600,-16.100,-22.000
2.394,-4.900,-16.900,-16.300,-22.100
2.395,-4.800,-17.000,-16.300,-22.100
2.396,-4.700,-16.900,-16.200,-22.100
2.397,-4.700,-16.700,-15.900,-22.000
2.398,-4.700,-16.600,-15.300,-21.700
2.399,-4.500,-16.800,-14.600,-21.200
2.400,-4.300,-17.200,-13.900,-20.600
2.401,-4.000,-17.600,-13.200,-20.100
2.402,-3.800,-17.800,-12.900,-19.900
2.403,-3.900,-17.800,-13.000,-20.200
2.404,-4.200,-17.600,-13.500,-20.700
2.405,-4.500,-17.600,-14.100,-21.300
2.406,-4.700,-17.800,-14.700,-21.600
2.407,-4.600,-18.200,-15.200,-21.600
2.408,-4.400,-18.700,-15.700,-21.400
2.409,-4.200,-19.000,-16.200,-21.300
2.410,-4.200,-18.900,-16.700,-21.400
2.411,-4.300,-18.400,-17.200,-21.700
2.412,-4.600,-17.900,-17.300,-22.100
2.413,-4.900,-17.600,-17.100,-22.100
2.414,-5.100,-17.600,-16.500,-21.700
2.415,-5.400,-17.900,-15.900,-21.200
2.416,-5.500,-18.300,-15.500,-20.800
2.417,-5.600,-18.600,-15.400,-20.700
2.418,-5.500,-18.600,-15.600,-21.100
2.419,-5.200,-18.300,-15.800,-21.500
2.420,-5.000,-17.900,-15.800,-21.800
2.421,-4.900,-17.600,-15.700,-21.700
2.422,-4.900,-17.500,-15.400,-21.400
2.423,-5.100,-17.600,-15.400,-21.000
2.424,-5.300,-17.700,-15.600,-20.900
2.425,-5.400,-17.700,-16.000,-20.900
2.426,-5.300,-17.500,-16.400,-21.000
2.427,-5.100,-17.100,-16.500,-20.900
2.428,-4.800,-16.700,-16.200,-20.600
2.429,-4.700,-16.500,-15.500,-20.300
2.430,-4.800,-16.600,-14.900,-20.100
2.431,-5.100,-17.200,-14.600,-20.500
2.432,-5.600,-18.000,-14.800,-21.300
2.433,-6.000,-18.900,-15.200,-22.200
2.434,-6.200,-19.700,-15.700,-23.000
2.435,-6.200,-20.100,-15.800,-23.300
2.436,-6.100,-20.200,-15.700,-23.100
2.437,-5.900,-20.200,-15.400,-22.500
2.438,-5.700,-20.100,-15.200,-21.700
2.439,-5.800,-20.200,-15.200,-21.100
2.440,-6.000,-20.500,-15.500,-21.000
2.441,-6.200,-20.900,-15.800,-21.300
2.442,-6.500,-21.200,-15.900,-21.900
2.443,-6.600,-21.400,-15.800,-22.600
2.444,-6.800,-21.600,-15.500,-23.300
2.445,-7.000,-21.800,-15.300,-23.900
2.446,-7.300,-22.000,-15.600,-24.500
2.447,-7.500,-22.400,-16.100,-25.200
2.448,-7.500,-22.700,-16.900,-25.800
2.449,-7.300,-22.900,-17.300,-26.300
2.450,-6.900,-22.900,-17.500,-26.700
2.451,-6.500,-22.700,-17.200,-27.000
2.452,-6.200,-22.800,-17.000,-27.200
2.453,-6.100,-23.100,-16.900,-27.400
2.454,-6.200,-23.700,-17.200,-27.600
2.455,-6.300,-24.500,-17.800,-27.700
2.456,-6.500,-25.200,-18.500,-27.600
2.457,-6.700,-25.700,-19.000,-27.400
2.458,-6.800,-25.800,-19.300,-27.100
2.459,-6.800,-25.700,-19.300,-27.100
2.460,-6.600,-25.700,-19.200,-27.300
2.461,-6.300,-25.700,-19.000,-27.600
2.462,-6.100,-25.900,-18.900,-27.900
2.463,-6.100,-26.000,-18.800,-27.800
2.464,-6.400,-26.000,-18.800,-27.400
2.465,-7.000,-25.800,-18.800,-26.900
2.466,-7.700,-25.400,-18.800,-26.600
2.467,-8.200,-25.100,-18.900,-26.600
2.468,-8.400,-24.900,-18.800,-27.100
2.469,-8.400,-25.000,-18.600,-27.600
2.470,-8.200,-25.300,-18.300,-28.000
2.471,-8.000,-25.600,-18.100,-28.000
2.472,-7.800,-25.800,-18.100,-27.800
2.473,-7.600,-25.700,-18.200,-27.500
2.474,-7.600,-25.300,-18.500,-27.300
2.475,-7.500,-24.800,-18.600,-27.100
2.476,-7.500,-24.500,-18.500,-27.000
2.477,-7.500,-24.400,-18.100,-26.700
2.478,-7.600,-24.500,-17.600,-26.500
2.479,-7.600,-24.800,-17.300,-26.400
2.480,-7.600,-25.200,-17.400,-26.600
2.481,-7.700,-25.600,-17.900,-27.100
2.482,-7.800,-25.800,-18.500,-27.700
2.483,-8.100,-26.000,-19.100,-28.300
2.484,-8.400,-26.100,-19.400,-28.500
2.485,-8.500,-26.000,-19.400,-28.500
2.486,-8.400,-26.000,-19.200,-28.400
2.487,-8.000,-25.900,-19.000,-28.500
2.488,-7.400,-25.800,-18.900,-28.700
2.489,-6.900,-25.900,-19.000,-29.000
2.490,-6.600,-26.100,-19.100,-29.200
2.491,-6.600,-26.200,-19.200,-29.100
2.492,-6.700,-26.300,-19.300,-28.900
2.493,-7.000,-26.100,-19.300,-28.700
2.494,-7.100,-26.000,-19.400,-28.700
2.495,-7.200,-26.100,-19.700,-29.100
2.496,-7.200,-26.400,-20.000,-29.600
2.497,-7.200,-27.100,-20.200,-30.000
2.498,-7.400,-27.800,-20.400,-30.100
2.499,-7.700,-28.400,-20.500,-29.900
2.500,-8.200,-28.700,-20.600,-29.600
2.501,-8.800,-28.700,-20.700,-29.400
2.502,-9.200,-28.500,-20.800,-29.400
2.503,-9.300,-28.300,-20.800,-29.600
2.504,-9.200,-28.200,-20.800,-29.800
2.505,-8.900,-28.000,-20.800,-29.800
2.506,-8.800,-27.700,-20.800,-29.600
2.507,-8.900,-27.300,-20.800,-29.300
2.508,-9.300,-27.000,-20.800,-29.000
2.509,-9.900,-26.800,-20.800,-28.700
2.510,-10.200,-26.900,-20.600,-28.300
2.511,-10.300,-27.200,-20.200,-28.000
2.512,-9.900,-27.500,-19.800,-27.700
2.513,-9.400,-27.800,-19.300,-27.500
2.514,-8.900,-27.800,-19.000,-27.400
2.515,-8.600,-27.600,-18.700,-27.500
2.516,-8.500,-27.400,-18.300,-27.600
2.517,-8.600,-27.200,-17.800,-27.600
2.518,-8.700,-27.100,-17.200,-27.400
2.519,-8.700,-27.300,-16.500,-27.100
2.520,-8.700,-27.500,-16.000,-26.700
2.521,-8.700,-27.700,-15.700,-26.500
2.522,-8.700,-27.800,-15.700,-26.700
2.523,-8.600,-27.700,-15.900,-27.200
2.524,-8.400,-27.700,-16.200,-27.900
2.525,-8.200,-27.900,-16.600,-28.500
2.526,-8.100,-28.300,-17.100,-29.000
2.527,-8.500,-29.100,-17.600,-29.300
2.528,-9.200,-30.000,-18.200,-29.700
2.529,-10.100,-31.100,-19.100,-30.300
2.530,-11.000,-32.100,-20.000,-31.300
2.531,-11.400,-32.900,-21.000,-32.500
2.532,-11.400,-33.100,-21.600,-33.300
2.533,-11.000,-32.800,-21.800,-33.500
2.534,-10.500,-31.800,-21.500,-32.900
2.535,-10.200,-30.500,-20.900,-31.700
2.536,-10.100,-28.900,-20.100,-30.500
2.537,-10.300,-27.400,-19.300,-29.300
2.538,-10.300,-26.000,-18.400,-28.400
2.539,-9.900,-24.500,-17.300,-27.400
2.540,-9.100,-22.700,-15.800,-25.800
2.541,-8.000,-20.400,-13.800,-23.500
2.542,-7.100,-18.100,-11.800,-20.800
2.543,-6.500,-15.900,-10.000,-17.900
2.544,-6.400,-14.300,-8.900,-15.600
2.545,-6.500,-13.200,-8.400,-13.800
2.546,-6.500,-12.400,-8.300,-12.500
2.547,-6.100,-11.500,-8.300,-11.300
2.548,-5.400,-10.200,-7.800,-9.900
2.549,-4.500,-8.800,-6.900,-8.400
2.550,-3.900,-7.600,-5.900,-7.000
2.551,-3.700,-7.000,-5.000,-6.000
2.552,-4.000,-7.100,-4.600,-5.600
2.553,-4.500,-7.600,-4.700,-5.700
2.554,-5.000,-8.300,-5.300,-6.100
2.555,-5.400,-8.800,-6.100,-6.600
2.556,-5.600,-9.300,-7.000,-7.400
2.557,-5.800,-10.200,-7.800,-8.800
2.558,-6.200,-11.600,-8.800,-11.000
2.559,-6.800,-13.900,-10.200,-13.800
2.560,-7.500,-16.900,-12.000,-17.000
2.561,-8.200,-20.400,-14.200,-20.400
2.562,-8.900,-23.900,-16.600,-23.600
2.563,-9.500,-27.200,-18.800,-26.500
2.564,-9.900,-29.900,-20.600,-28.900
2.565,-10.100,-31.700,-21.600,-30.700
2.566,-10.300,-32.600,-22.000,-31.600
2.567,-10.300,-32.400,-21.700,-31.600
2.568,-10.400,-31.500,-21.000,-30.900
2.569,-10.800,-30.200,-20.400,-29.700
2.570,-11.200,-29.000,-19.900,-28.600
2.571,-11.700,-28.100,-19.900,-27.900
2.572,-11.900,-27.600,-20.100,-27.600
2.573,-11.600,-27.200,-20.400,-27.500
2.574,-10.900,-26.800,-20.500,-27.500
2.575,-10.100,-26.400,-20.400,-27.300
2.576,-9.400,-26.000,-20.100,-26.900
2.577,-9.300,-25.800,-19.800,-26.500
2.578,-9.600,-26.000,-19.500,-26.200
2.579,-10.200,-26.200,-19.400,-26.300
2.580,-10.600,-26.500,-19.400,-26.600
2.581,-10.500,-26.600,-19.400,-26.900
2.582,-10.000,-26.500,-19.400,-26.900
2.583,-9.400,-26.300,-19.400,-26.600
2.584,-9.000,-26.200,-19.500,-26.200
2.585,-9.100,-26.400,-19.500,-25.900
2.586,-9.500,-26.700,-19.500,-25.800
2.587,-10.200,-27.000,-19.500,-26.200
2.588,-10.700,-27.300,-19.400,-26.600
2.589,-11.000,-27.500,-19.400,-26.800
2.590,-11.200,-27.600,-19.600,-26.800
2.591,-11.300,-27.700,-20.000,-26.500
2.592,-11.600,-27.800,-20.500,-26.300
2.593,-11.900,-27.900,-20.900,-26.400
2.594,-12.300,-27.900,-21.100,-26.800
2.595,-12.700,-27.700,-21.100,-27.400
2.596,-13.000,-27.500,-21.200,-28.000
2.597,-13.400,-27.200,-21.300,-28.300
2.598,-13.800,-27.000,-21.600,-28.400
2.599,-14.000,-27.100,-21.900,-28.300
2.600,-13.900,-27.400,-22.000,-28.100
2.601,-13.700,-28.000,-21.800,-27.900
2.602,-13.500,-28.800,-21.400,-27.800
2.603,-13.400,-29.700,-21.000,-27.600
2.604,-13.600,-30.500,-21.000,-27.400
2.605,-13.800,-31.100,-21.300,-27.300
2.606,-14.100,-31.300,-21.900,-27.300
2.607,-14.100,-31.100,-22.400,-27.400
2.608,-14.000,-30.600,-22.600,-27.800
2.609,-13.800,-30.000,-22.400,-28.100
2.610,-14.000,-29.700,-22.100,-28.300
2.611,-14.300,-29.800,-22.000,-28.500
2.612,-14.800,-30.400,-22.500,-28.500
2.613,-15.300,-31.300,-23.500,-28.500
2.614,-15.500,-32.200,-24.800,-28.600
2.615,-15.600,-33.000,-25.800,-28.800
2.616,-15.600,-33.500,-26.300,-28.900
2.617,-15.700,-33.800,-26.100,-28.900
2.618,-16.000,-33.900,-25.300,-28.800
2.619,-16.300,-34.000,-24.500,-28.700
2.620,-16.500,-34.100,-23.800,-28.600
2.621,-16.700,-34.400,-23.500,-28.600
2.622,-16.900,-34.600,-23.500,-28.700
2.623,-17.000,-34.900,-23.600,-28.700
2.624,-17.300,-34.900,-23.500,-28.500
2.625,-17.600,-34.600,-23.200,-28.100
2.626,-17.700,-34.100,-22.700,-27.700
2.627,-17.600,-33.300,-22.400,-27.300
2.628,-17.400,-32.700,-22.200,-27.200
2.629,-17.000,-32.300,-22.200,-27.300
2.630,-16.800,-32.400,-22.300,-27.500
2.631,-16.600,-32.800,-22.400,-27.600
2.632,-16.500,-33.300,-22.500,-27.600
2.633,-16.600,-33.600,-22.400,-27.500
2.634,-16.700,-33.500,-22.500,-27.400
2.635,-16.800,-33.200,-22.500,-27.400
2.636,-17.100,-32.800,-22.700,-27.500
2.637,-17.400,-32.600,-22.800,-27.500
2.638,-17.500,-32.600,-22.800,-27.300
2.639,-17.200,-32.900,-22.600,-27.100
2.640,-16.500,-33.200,-22.200,-26.800
2.641,-15.500,-33.300,-21.800,-26.800
2.642,-14.800,-33.100,-21.400,-27.100
2.643,-14.400,-32.600,-21.100,-27.500
2.644,-14.500,-31.800,-20.900,-27.700
2.645,-14.800,-31.000,-20.700,-27.400
2.646,-15.100,-30.000,-20.500,-26.500
2.647,-15.100,-29.200,-20.200,-25.400
2.648,-14.900,-28.600,-20.100,-24.500
2.649,-14.600,-28.300,-20.100,-24.200
2.650,-14.400,-28.500,-20.300,-24.500
2.651,-14.400,-29.000,-20.400,-25.100
2.652,-14.400,-29.500,-20.500,-25.800
2.653,-14.400,-29.600,-20.400,-26.200
2.654,-14.100,-29.400,-20.200,-26.300
2.655,-13.700,-28.900,-20.000,-26.400
2.656,-13.300,-28.400,-20.000,-26.500
2.657,-12.900,-28.100,-20.000,-26.800
2.658,-12.800,-28.100,-20.000,-27.100
2.659,-13.000,-28.300,-20.000,-27.100
2.660,-13.600,-28.400,-19.700,-26.800
2.661,-14.400,-28.300,-19.300,-26.400
2.662,-15.100,-27.900,-18.900,-26.000
2.663,-15.500,-27.600,-18.600,-25.900
2.664,-15.500,-27.500,-18.600,-26.000
2.665,-14.900,-27.600,-18.900,-26.300
2.666,-14.100,-27.900,-19.300,-26.600
2.667,-13.400,-28.200,-19.600,-26.700
2.668,-13.000,-28.100,-19.800,-26.700
2.669,-12.900,-27.800,-19.700,-26.600
2.670,-13.200,-27.300,-19.400,-26.300
2.671,-13.400,-26.900,-19.000,-25.900
2.672,-13.700,-26.800,-18.600,-25.500
2.673,-13.800,-27.000,-18.400,-25.300
2.674,-13.800,-27.300,-18.400,-25.300
2.675,-13.800,-27.500,-18.400,-25.400
2.676,-13.800,-27.400,-18.500,-25.800
2.677,-13.800,-27.000,-18.700,-26.000
2.678,-13.800,-26.300,-18.900,-26.100
2.679,-13.600,-25.300,-19.200,-25.900
2.680,-13.300,-24.300,-19.600,-25.600
2.681,-12.500,-23.000,-19.900,-25.300
2.682,-11.400,-21.400,-19.900,-25.400
2.683,-10.100,-19.300,-19.400,-25.900
2.684,-8.600,-16.700,-18.500,-26.800
2.685,-7.400,-13.700,-17.300,-27.800
2.686,-6.500,-10.400,-16.000,-28.400
2.687,-5.900,-7.100,-14.700,-28.300
2.688,-5.400,-3.900,-13.500,-27.500
2.689,-4.900,-1.000,-12.200,-26.000
2.690,-4.200,1.600,-10.800,-24.000
2.691,-3.500,3.800,-9.100,-21.800
2.692,-3.000,5.700,-7.400,-19.400
2.693,-2.700,7.300,-5.600,-16.800
2.694,-2.700,8.900,-3.800,-13.700
2.695,-3.100,10.700,-2.000,-10.100
2.696,-3.700,12.700,-0.200,-5.800
2.697,-4.500,14.900,1.700,-1.000
2.698,-5.600,16.800,3.400,4.200
2.699,-6.800,18.000,5.000,9.600
2.700,-8.100,18.200,6.400,15.100
2.701,-9.400,17.400,7.800,20.900
2.702,-10.900,15.900,9.300,27.000
2.703,-12.500,14.100,10.800,33.200
2.704,-14.300,12.200,12.400,39.500
2.705,-16.300,9.900,13.700,45.600
2.706,-18.500,7.100,14.500,51.300
2.707,-20.900,3.500,14.700,56.600
2.708,-23.500,-0.800,14.400,61.700
2.709,-26.300,-5.400,13.800,66.600
2.710,-29.400,-9.900,13.200,71.400
2.711,-32.600,-13.900,12.900,75.900
2.712,-35.500,-17.200,12.800,79.800
2.713,-37.800,-19.900,12.700,82.400
2.714,-39.200,-22.200,12.400,83.600
2.715,-40.000,-24.300,11.600,83.300
2.716,-40.500,-26.300,10.300,81.500
2.717,-41.000,-28.400,8.200,78.300
2.718,-41.500,-30.700,5.500,73.900
2.719,-42.000,-33.300,2.200,68.300
2.720,-42.100,-36.200,-1.400,61.600
2.721,-41.800,-39.400,-5.100,54.200
2.722,-41.200,-42.800,-8.800,46.400
2.723,-40.800,-46.500,-12.300,38.700
2.724,-41.000,-50.400,-15.400,31.300
2.725,-41.700,-54.700,-18.300,24.400
2.726,-42.500,-59.300,-21.200,17.500
2.727,-43.000,-64.000,-24.300,10.500
2.728,-42.700,-68.300,-27.400,3.300
2.729,-41.800,-71.700,-30.700,-3.800
2.730,-40.500,-73.900,-33.700,-10.400
2.731,-39.500,-74.900,-36.100,-16.000
2.732,-38.800,-74.900,-37.700,-20.400
2.733,-38.200,-74.400,-38.400,-23.800
2.734,-37.600,-73.600,-38.500,-26.500
2.735,-36.500,-72.600,-38.300,-29.000
2.736,-35.200,-71.300,-38.200,-31.500
2.737,-33.900,-69.600,-38.200,-34.100
2.738,-32.900,-67.400,-38.500,-36.600
2.739,-32.100,-64.900,-38.800,-38.500
2.740,-31.400,-62.200,-39.000,-39.600
2.741,-30.500,-59.400,-38.700,-40.100
2.742,-29.400,-56.500,-38.000,-40.100
2.743,-28.100,-53.600,-36.900,-39.800
2.744,-26.800,-50.500,-35.500,-39.600
2.745,-25.800,-47.400,-34.000,-39.300
2.746,-24.900,-44.400,-32.500,-39.000
2.747,-24.200,-41.700,-31.100,-38.400
2.748,-23.400,-39.500,-29.900,-37.500
2.749,-22.700,-37.600,-28.900,-36.100
2.750,-22.200,-36.000,-27.900,-34.500
2.751,-22.100,-34.500,-27.100,-33.100
2.752,-22.200,-33.000,-26.400,-32.100
2.753,-22.300,-31.700,-25.900,-31.700
2.754,-22.200,-30.700,-25.700,-31.800
2.755,-21.700,-30.100,-25.700,-32.300
2.756,-21.100,-29.800,-25.800,-32.800
2.757,-20.500,-29.800,-26.000,-33.100
2.758,-20.300,-29.600,-26.200,-33.100
2.759,-20.300,-29.300,-26.000,-32.800
2.760,-20.500,-28.800,-25.700,-32.300
2.761,-20.400,-28.200,-25.000,-31.900
2.762,-20.000,-27.700,-24.300,-31.600
2.763,-19.200,-27.300,-23.500,-31.400
2.764,-18.400,-27.000,-22.800,-31.100
2.765,-17.700,-26.800,-22.300,-30.900
2.766,-17.400,-26.600,-22.000,-30.600
2.767,-17.200,-26.300,-22.100,-30.200
2.768,-17.200,-25.900,-22.300,-30.000
2.769,-17.200,-25.600,-22.800,-29.800
2.770,-17.200,-25.500,-23.200,-29.700
2.771,-17.300,-25.500,-23.400,-29.600
2.772,-17.300,-25.600,-23.400,-29.400
2.773,-17.400,-25.600,-23.200,-29.200
2.774,-17.500,-25.600,-23.000,-29.100
2.775,-17.700,-25.700,-23.000,-29.400
2.776,-17.900,-26.100,-23.300,-30.000
2.777,-18.200,-26.800,-23.800,-30.800
2.778,-18.300,-27.700,-24.200,-31.600
2.779,-18.200,-28.400,-24.200,-32.000
2.780,-17.700,-28.600,-23.900,-31.900
2.781,-16.900,-28.300,-23.200,-31.300
2.782,-16.100,-27.600,-22.500,-30.600
2.783,-15.500,-27.000,-22.100,-30.000
2.784,-15.200,-26.800,-22.100,-29.900
2.785,-15.100,-26.800,-22.300,-30.200
2.786,-14.900,-26.900,-22.600,-30.600
2.787,-14.500,-26.900,-22.800,-31.000
2.788,-13.900,-26.700,-22.800,-31.000
2.789,-13.400,-26.400,-22.700,-30.800
2.790,-13.300,-26.000,-22.700,-30.400
2.791,-13.700,-25.900,-22.800,-29.900
2.792,-14.500,-26.000,-23.000,-29.600
2.793,-15.300,-26.000,-23.000,-29.400
2.794,-15.700,-26.100,-23.000,-29.400
2.795,-15.500,-26.200,-22.800,-29.500
2.796,-15.100,-26.300,-22.700,-29.800
2.797,-14.700,-26.600,-22.500,-30.000
2.798,-14.700,-27.100,-22.400,-30.200
2.799,-15.000,-27.500,-22.400,-30.300
2.800,-15.400,-27.900,-22.300,-30.100
2.801,-15.700,-28.000,-22.300,-29.800
2.802,-15.700,-28.000,-22.300,-29.500
2.803,-15.500,-27.900,-22.400,-29.200
2.804,-15.100,-27.800,-22.400,-29.200
2.805,-14.800,-27.500,-22.500,-29.200
2.806,-14.600,-27.100,-22.300,-29.100
2.807,-14.400,-26.400,-22.000,-28.900
2.808,-14.100,-25.800,-21.600,-28.600
2.809,-13.700,-25.300,-21.200,-28.300
2.810,-13.500,-25.300,-20.900,-28.100
2.811,-13.500,-25.700,-20.800,-28.100
2.812,-13.800,-26.300,-20.900,-28.300
2.813,-14.300,-26.900,-21.000,-28.500
2.814,-14.600,-27.300,-20.900,-28.600
2.815,-14.600,-27.300,-20.600,-28.700
2.816,-14.300,-27.100,-20.300,-28.700
2.817,-13.900,-26.800,-20.100,-28.900
2.818,-13.700,-26.600,-20.200,-29.300
2.819,-13.800,-26.400,-20.600,-29.900
2.820,-14.400,-26.300,-21.200,-30.700
2.821,-15.000,-26.300,-21.900,-31.400
2.822,-15.400,-26.400,-22.300,-32.000
2.823,-15.300,-26.500,-22.600,-32.400
2.824,-14.700,-26.600,-22.500,-32.500
2.825,-14.000,-26.600,-22.400,-32.400
2.826,-13.400,-26.500,-22.300,-32.100
2.827,-13.200,-26.200,-22.100,-31.800
2.828,-13.300,-25.800,-22.000,-31.500
2.829,-13.700,-25.300,-21.900,-31.200
2.830,-14.200,-25.000,-21.700,-30.900
2.831,-14.600,-25.000,-21.600,-30.700
2.832,-14.800,-25.200,-21.400,-30.400
2.833,-14.900,-25.700,-21.300,-30.200
2.834,-14.700,-26.000,-21.100,-30.000
2.835,-14.300,-26.300,-21.000,-29.800
2.836,-13.900,-26.300,-20.900,-29.500
2.837,-13.600,-26.300,-20.700,-29.100
2.838,-13.600,-26.300,-20.600,-28.600
2.839,-13.900,-26.600,-20.500,-28.000
2.840,-14.300,-27.000,-20.300,-27.500
2.841,-14.600,-27.500,-20.200,-27.300
2.842,-14.700,-27.800,-20.300,-27.300
2.843,-14.400,-27.900,-20.600,-27.500
2.844,-14.100,-27.800,-21.200,-27.800
2.845,-13.900,-27.700,-21.900,-28.100
2.846,-13.800,-27.800,-22.600,-28.500
2.847,-13.800,-28.000,-23.100,-28.700
2.848,-13.800,-28.200,-23.300,-28.700
2.849,-13.700,-28.200,-23.200,-28.600
2.850,-13.500,-27.800,-22.900,-28.200
2.851,-13.300,-27.100,-22.400,-27.600
2.852,-13.200,-26.300,-21.900,-26.900
2.853,-13.400,-25.800,-21.600,-26.400
2.854,-13.600,-25.600,-21.600,-26.100
2.855,-13.900,-25.800,-21.900,-26.400
2.856,-14.100,-26.300,-22.400,-27.000
2.857,-14.200,-26.800,-22.700,-27.700
2.858,-14.100,-27.100,-22.700,-28.300
2.859,-14.100,-27.200,-22.400,-28.600
2.860,-14.100,-27.000,-21.900,-28.500
2.861,-14.100,-26.800,-21.400,-28.100
2.862,-14.200,-26.700,-21.200,-27.700
2.863,-14.100,-26.800,-21.200,-27.400
2.864,-14.000,-26.900,-21.400,-27.300
2.865,-13.700,-27.100,-21.600,-27.400
2.866,-13.500,-27.000,-21.700,-27.500
2.867,-13.500,-26.800,-21.700,-27.600
2.868,-13.700,-26.400,-21.700,-27.600
2.869,-14.100,-26.000,-21.800,-27.400
2.870,-14.600,-25.800,-21.800,-27.200
2.871,-15.100,-25.900,-21.900,-27.000
2.872,-15.600,-26.200,-21.800,-27.000
2.873,-15.800,-26.600,-21.700,-27.200
2.874,-15.900,-27.000,-21.600,-27.600
2.875,-15.900,-27.200,-21.600,-27.900
2.876,-15.700,-27.200,-21.700,-28.000
2.877,-15.500,-27.000,-21.800,-27.600
2.878,-15.500,-26.700,-21.800,-27.000
2.879,-15.700,-26.400,-21.800,-26.200
2.880,-16.100,-26.200,-21.700,-25.600
2.881,-16.500,-26.100,-21.700,-25.400
2.882,-16.700,-26.000,-21.800,-25.600
2.883,-16.500,-26.000,-21.900,-25.800
2.884,-15.900,-25.900,-21.700,-25.700
2.885,-15.000,-25.600,-21.200,-25.100
2.886,-14.200,-25.300,-20.600,-24.200
2.887,-13.600,-25.000,-19.800,-23.300
2.888,-13.500,-25.100,-19.300,-22.700
2.889,-14.000,-25.300,-19.000,-22.600
2.890,-14.900,-25.700,-18.900,-22.900
2.891,-15.800,-25.900,-18.900,-23.300
2.892,-16.500,-25.800,-18.800,-23.500
2.893,-16.700,-25.200,-18.700,-23.300
2.894,-16.200,-24.400,-18.500,-23.000
2.895,-15.500,-23.600,-18.300,-22.600
2.896,-14.700,-23.100,-18.100,-22.500
2.897,-14.400,-22.700,-18.000,-22.600
2.898,-14.600,-22.600,-17.800,-22.700
2.899,-15.200,-22.500,-17.700,-22.500
2.900,-15.900,-22.400,-17.700,-22.000
2.901,-16.300,-22.500,-17.900,-21.300
2.902,-16.400,-22.700,-18.400,-20.600
2.903,-16.300,-23.200,-19.300,-20.300
2.904,-16.100,-23.700,-20.300,-20.100
2.905,-16.200,-24.200,-21.000,-20.000
2.906,-16.400,-24.600,-21.300,-19.700
2.907,-16.600,-24.900,-20.900,-19.000
2.908,-16.700,-25.000,-20.000,-18.200
2.909,-16.600,-25.200,-19.000,-17.500
2.910,-16.500,-25.300,-18.100,-17.100
2.911,-16.600,-25.600,-17.700,-17.300
2.912,-17.100,-25.800,-17.800,-17.700
2.913,-17.900,-26.200,-18.300,-18.000
2.914,-18.700,-26.600,-18.800,-18.100
2.915,-19.300,-27.100,-19.100,-17.900
2.916,-19.500,-27.400,-18.900,-17.400
2.917,-19.200,-27.500,-18.500,-16.900
2.918,-18.900,-27.200,-17.900,-16.500
2.919,-18.700,-26.600,-17.600,-16.400
2.920,-19.000,-26.000,-17.600,-16.400
2.921,-19.500,-25.700,-17.800,-16.400
2.922,-20.200,-25.700,-18.200,-16.500
2.923,-20.700,-26.200,-18.600,-16.700
2.924,-20.900,-27.000,-18.800,-16.900
2.925,-20.800,-27.700,-18.900,-17.100
2.926,-20.500,-28.300,-19.000,-17.200
2.927,-20.400,-28.700,-19.200,-17.200
2.928,-20.400,-29.000,-19.600,-16.900
2.929,-20.600,-29.300,-20.200,-16.700
2.930,-20.900,-29.700,-20.700,-16.600
2.931,-21.200,-30.300,-21.100,-16.800
2.932,-21.400,-30.900,-21.400,-17.300
2.933,-21.700,-31.400,-21.400,-18.000
2.934,-21.900,-31.800,-21.300,-18.500
2.935,-22.400,-31.900,-21.200,-18.700
2.936,-22.900,-31.900,-21.100,-18.600
2.937,-23.400,-31.700,-21.000,-18.100
2.938,-23.600,-31.600,-20.800,-17.500
2.939,-23.600,-31.400,-20.500,-16.800
2.940,-23.400,-31.200,-20.000,-16.100
2.941,-23.100,-31.000,-19.500,-15.600
2.942,-23.000,-30.800,-19.000,-15.300
2.943,-23.000,-30.600,-18.800,-15.000
2.944,-23.300,-30.400,-19.000,-14.700
2.945,-23.500,-30.200,-19.500,-14.300
2.946,-23.700,-30.000,-20.000,-13.600
2.947,-23.900,-29.800,-20.400,-12.700
2.948,-24.000,-29.700,-20.400,-11.800
2.949,-24.300,-29.700,-20.000,-11.100
2.950,-24.800,-29.700,-19.500,-10.700
2.951,-25.300,-29.800,-19.100,-10.700
2.952,-25.800,-29.900,-19.100,-11.000
2.953,-26.100,-30.000,-19.400,-11.300
2.954,-26.200,-30.200,-19.900,-11.500
2.955,-26.200,-30.400,-20.300,-11.600
2.956,-26.200,-30.600,-20.600,-11.600
2.957,-26.200,-30.600,-20.600,-11.600
2.958,-26.100,-30.600,-20.500,-11.500
2.959,-26.000,-30.400,-20.400,-11.400
2.960,-25.700,-30.000,-20.400,-11.000
2.961,-25.400,-29.700,-20.400,-10.600
2.962,-25.200,-29.300,-20.200,-10.100
2.963,-25.200,-29.000,-19.800,-9.600
2.964,-25.300,-28.800,-19.200,-9.300
2.965,-25.500,-28.500,-18.500,-9.000
2.966,-25.500,-28.300,-18.100,-8.800
2.967,-25.400,-28.000,-18.100,-8.500
2.968,-25.100,-27.800,-18.400,-8.300
2.969,-24.800,-27.500,-18.900,-8.100
2.970,-24.800,-27.200,-19.200,-8.100
2.971,-25.100,-26.900,-19.300,-8.200
2.972,-25.600,-26.700,-19.000,-8.400
2.973,-26.100,-26.700,-18.600,-8.600
2.974,-26.400,-27.000,-18.100,-8.600
2.975,-26.400,-27.600,-17.800,-8.600
2.976,-26.300,-28.200,-17.800,-8.500
2.977,-26.300,-28.600,-18.100,-8.500
2.978,-26.500,-28.700,-18.600,-8.600
2.979,-27.000,-28.500,-19.400,-8.700
2.980,-27.600,-28.100,-20.200,-8.700
2.981,-27.900,-27.700,-20.700,-8.600
2.982,-27.800,-27.400,-20.800,-8.200
2.983,-27.300,-27.000,-20.200,-7.800
2.984,-26.600,-26.500,-19.400,-7.400
2.985,-26.100,-25.900,-18.600,-7.400
2.986,-26.000,-25.500,-18.400,-7.900
2.987,-26.200,-25.200,-19.000,-8.800
2.988,-26.600,-25.300,-20.000,-9.800
2.989,-26.800,-25.500,-21.000,-10.700
2.990,-26.600,-25.600,-21.400,-11.000
2.991,-26.200,-25.400,-21.000,-10.900
2.992,-25.600,-24.900,-20.100,-10.400
2.993,-25.300,-24.200,-19.000,-9.800
2.994,-25.300,-23.500,-18.400,-9.500
2.995,-25.400,-23.100,-18.400,-9.500
2.996,-25.500,-22.900,-18.800,-9.800
2.997,-25.500,-22.700,-19.300,-10.200
2.998,-25.100,-22.500,-19.400,-10.600
2.999,-24.600,-22.100,-19.200,-10.900
3.000,-24.100,-21.700,-18.700,-11.100
3.001,-23.800,-21.500,-18.400,-11.600
3.002,-23.800,-21.700,-18.600,-12.400
3.003,-24.000,-22.300,-19.400,-13.500
3.004,-24.200,-23.200,-20.300,-14.900
3.005,-24.500,-24.100,-20.900,-16.200
3.006,-24.500,-24.400,-20.800,-17.100
3.007,-24.200,-23.800,-19.900,-17.200
3.008,-23.700,-22.400,-18.500,-16.600
3.009,-22.900,-20.400,-17.100,-15.600
3.010,-21.900,-18.400,-16.000,-14.800
3.011,-21.100,-16.800,-15.300,-14.500
3.012,-20.500,-15.700,-14.900,-14.600
3.013,-20.200,-14.900,-14.400,-14.800
3.014,-20.200,-13.800,-13.600,-14.700
3.015,-20.300,-12.200,-12.500,-13.900
3.016,-20.200,-10.100,-11.400,-12.600
3.017,-20.000,-8.000,-10.500,-11.100
3.018,-19.300,-6.200,-9.900,-9.800
3.019,-18.400,-4.900,-9.500,-8.700
3.020,-17.400,-4.000,-9.100,-7.500
3.021,-16.300,-2.900,-8.500,-6.200
3.022,-15.500,-1.400,-7.700,-4.500
3.023,-15.100,0.500,-6.800,-2.700
3.024,-15.000,2.400,-6.000,-1.300
3.025,-15.200,3.600,-5.700,-0.600
3.026,-15.300,4.000,-5.800,-0.700
3.027,-15.100,3.600,-6.300,-1.500
3.028,-14.700,2.900,-7.100,-2.600
3.029,-14.300,2.400,-8.000,-3.900
3.030,-14.000,2.200,-9.000,-5.300
3.031,-14.100,2.000,-10.100,-6.900
3.032,-14.400,1.300,-11.500,-9.100
3.033,-14.800,-0.300,-13.300,-11.900
3.034,-15.200,-3.000,-15.400,-15.100
3.035,-15.500,-6.500,-17.700,-18.700
3.036,-15.900,-10.500,-20.000,-22.300
3.037,-16.500,-14.100,-22.100,-25.600
3.038,-17.200,-17.200,-23.700,-28.200
3.039,-17.800,-19.200,-24.600,-30.100
3.040,-18.000,-20.300,-25.000,-31.300
3.041,-17.800,-20.500,-24.900,-31.800
3.042,-17.300,-20.100,-24.400,-31.800
3.043,-16.800,-19.300,-23.600,-31.500
3.044,-16.600,-18.100,-22.500,-30.900
3.045,-16.700,-16.900,-21.300,-30.300
3.046,-16.900,-15.700,-20.200,-29.700
3.047,-16.900,-14.700,-19.400,-29.300
3.048,-16.500,-14.100,-19.100,-29.000
3.049,-15.800,-13.900,-19.400,-28.900
3.050,-15.100,-14.100,-19.800,-28.900
3.051,-14.500,-14.400,-20.200,-29.000
3.052,-14.300,-14.800,-20.300,-29.000
3.053,-14.100,-14.900,-20.000,-29.000
3.054,-14.000,-14.800,-19.500,-29.100
3.055,-13.900,-14.500,-19.000,-29.100
3.056,-13.800,-14.100,-18.700,-29.300
3.057,-13.800,-13.800,-18.900,-29.300
3.058,-14.000,-13.600,-19.200,-29.200
3.059,-14.100,-13.400,-19.500,-28.900
3.060,-14.300,-13.400,-19.700,-28.600
3.061,-14.400,-13.300,-19.500,-28.300
3.062,-14.500,-13.300,-19.100,-28.200
3.063,-14.600,-13.200,-18.600,-28.300
3.064,-14.800,-13.100,-18.200,-28.300
3.065,-14.900,-13.000,-17.900,-28.200
3.066,-14.700,-12.800,-17.700,-27.900
3.067,-14.200,-12.600,-17.600,-27.600
3.068,-13.300,-12.500,-17.600,-27.600
3.069,-12.400,-12.500,-17.700,-27.900
3.070,-11.700,-12.500,-17.900,-28.500
3.071,-11.400,-12.600,-18.200,-29.200
3.072,-11.400,-12.600,-18.400,-29.600
3.073,-11.600,-12.600,-18.500,-29.500
3.074,-11.900,-12.400,-18.600,-29.100
3.075,-12.200,-12.100,-18.500,-28.400
3.076,-12.500,-11.800,-18.400,-27.800
3.077,-12.700,-11.400,-18.100,-27.300
3.078,-12.800,-11.000,-17.700,-27.000
3.079,-12.600,-10.700,-17.300,-26.800
3.080,-12.100,-10.400,-16.900,-26.500
3.081,-11.300,-10.300,-16.600,-26.100
3.082,-10.500,-10.200,-16.300,-25.600
3.083,-9.900,-10.100,-16.100,-25.200
3.084,-9.700,-9.900,-15.800,-24.900
3.085,-9.800,-9.700,-15.500,-24.900
3.086,-9.900,-9.500,-15.000,-25.100
3.087,-9.900,-9.500,-14.600,-25.300
3.088,-9.500,-9.500,-14.200,-25.500
3.089,-8.800,-9.500,-14.000,-25.700
3.090,-8.300,-9.400,-14.200,-25.700
3.091,-8.200,-9.200,-14.600,-25.800
3.092,-8.600,-8.800,-15.100,-25.800
3.093,-9.200,-8.600,-15.700,-26.000
3.094,-9.900,-8.700,-16.000,-26.200
3.095,-10.100,-9.000,-16.000,-26.200
3.096,-9.900,-9.600,-15.500,-26.100
3.097,-9.300,-10.000,-14.800,-25.800
3.098,-8.600,-10.200,-14.100,-25.400
3.099,-8.200,-10.000,-13.600,-25.200
3.100,-8.100,-9.700,-13.500,-25.300
3.101,-8.400,-9.400,-13.900,-25.600
3.102,-8.600,-9.200,-14.400,-25.900
3.103,-8.600,-9.100,-14.700,-26.000
3.104,-8.400,-8.900,-14.600,-25.900
3.105,-8.000,-8.500,-14.100,-25.600
3.106,-7.500,-8.000,-13.300,-25.200
3.107,-7.100,-7.400,-12.700,-25.100
3.108,-6.700,-7.000,-12.400,-25.100
3.109,-6.400,-6.900,-12.500,-25.100
3.110,-6.200,-6.800,-12.700,-25.000
3.111,-5.900,-6.800,-12.800,-24.500
3.112,-5.800,-6.700,-12.700,-23.800
3.113,-5.900,-6.500,-12.300,-23.000
3.114,-6.000,-6.200,-11.900,-22.500
3.115,-6.300,-6.100,-11.700,-22.400
3.116,-6.400,-6.300,-11.600,-22.700
3.117,-6.500,-6.600,-11.600,-23.300
3.118,-6.400,-6.900,-11.700,-23.900
3.119,-6.100,-7.200,-11.900,-24.300
3.120,-5.900,-7.400,-12.000,-24.400
3.121,-5.800,-7.500,-12.200,-24.200
3.122,-5.800,-7.600,-12.400,-23.700
3.123,-5.900,-7.700,-12.500,-23.100
3.124,-6.000,-7.800,-12.400,-22.500
3.125,-6.000,-7.700,-12.100,-21.900
3.126,-6.000,-7.400,-11.600,-21.600
3.127,-5.800,-7.000,-11.100,-21.400
3.128,-5.500,-6.500,-10.700,-21.500
3.129,-5.100,-6.200,-10.300,-21.800
3.130,-4.600,-6.000,-9.900,-22.100
3.131,-4.000,-6.100,-9.500,-22.100
3.132,-3.600,-6.200,-8.900,-21.800
3.133,-3.300,-6.200,-8.200,-21.300
3.134,-3.200,-6.000,-7.800,-20.600
3.135,-3.100,-5.800,-7.700,-19.900
3.136,-3.200,-5.400,-8.000,-19.500
3.137,-3.200,-5.100,-8.600,-19.300
3.138,-3.300,-4.700,-9.100,-19.200
3.139,-3.300,-4.300,-9.300,-19.000
3.140,-3.400,-3.800,-8.900,-18.700
3.141,-3.200,-3.300,-8.200,-18.100
3.142,-2.900,-2.700,-7.200,-17.500
3.143,-2.200,-2.100,-6.200,-16.900
3.144,-1.400,-1.600,-5.500,-16.300
3.145,-0.700,-1.200,-5.100,-16.100
3.146,-0.200,-0.700,-5.000,-16.100
3.147,0.100,-0.400,-5.000,-16.300
3.148,0.300,-0.300,-5.100,-16.700
3.149,0.500,-0.300,-5.000,-17.000
3.150,0.700,-0.300,-4.900,-17.000
3.151,0.900,-0.400,-4.600,-16.800
3.152,1.000,-0.300,-4.300,-16.300
3.153,0.900,0.000,-4.000,-15.800
3.154,0.700,0.300,-3.900,-15.300
3.155,0.300,0.600,-4.100,-14.900
3.156,-0.200,0.600,-4.400,-14.700
3.157,-0.700,0.400,-4.900,-14.600
3.158,-1.100,0.000,-5.300,-14.600
3.159,-1.400,-0.400,-5.600,-14.600
3.160,-1.500,-0.700,-5.600,-14.700
3.161,-1.000,-0.800,-5.300,-14.800
3.162,-0.200,-1.000,-4.900,-14.800
3.163,0.800,-1.200,-4.500,-14.900
3.164,1.700,-1.500,-4.200,-15.000
3.165,2.100,-1.700,-4.200,-15.100
3.166,1.900,-1.800,-4.400,-15.100
3.167,1.200,-1.700,-4.800,-15.200
3.168,0.500,-1.500,-5.100,-15.100
3.169,-0.200,-1.300,-5.300,-15.100
3.170,-0.600,-1.400,-5.300,-15.000
3.171,-0.900,-1.700,-5.100,-15.000
3.172,-1.100,-2.100,-4.700,-14.900
3.173,-1.200,-2.400,-4.500,-14.900
3.174,-1.400,-2.600,-4.300,-14.900
3.175,-1.600,-2.500,-4.400,-14.800
3.176,-1.700,-2.300,-4.500,-14.500
3.177,-1.700,-2.000,-4.700,-14.200
3.178,-1.700,-1.600,-4.700,-13.700
3.179,-1.700,-1.200,-4.600,-13.300
3.180,-1.600,-0.900,-4.500,-13.000
3.181,-1.400,-0.700,-4.400,-13.000
3.182,-0.900,-0.700,-4.400,-13.100
3.183,-0.500,-0.700,-4.600,-13.400
3.184,-0.100,-0.900,-4.900,-13.700
3.185,0.000,-1.000,-5.300,-14.000
3.186,-0.100,-1.100,-5.800,-14.000
3.187,-0.300,-1.100,-6.100,-13.900
3.188,-0.300,-1.000,-6.200,-13.500
3.189,-0.200,-0.800,-6.100,-13.100
3.190,0.200,-0.500,-5.900,-12.800
3.191,0.500,-0.300,-5.700,-12.700
3.192,0.500,0.000,-5.700,-12.900
3.193,0.300,0.100,-5.800,-13.200
3.194,-0.200,-0.100,-6.000,-13.600
3.195,-0.700,-0.500,-6.300,-13.700
3.196,-1.000,-1.000,-6.600,-13.700
3.197,-1.100,-1.300,-6.700,-13.500
3.198,-1.100,-1.500,-6.600,-13.500
3.199,-1.000,-1.300,-6.400,-13.700
3.200,-0.900,-1.000,-6.000,-14.100
3.201,-0.600,-0.800,-5.700,-14.500
3.202,-0.200,-0.600,-5.500,-14.800
3.203,0.200,-0.700,-5.300,-14.600
3.204,0.700,-0.800,-5.300,-14.200
3.205,0.900,-0.900,-5.400,-13.700
3.206,1.000,-0.900,-5.500,-13.500
3.207,0.800,-0.900,-5.700,-13.600
3.208,0.500,-1.000,-5.900,-13.900
3.209,0.200,-1.200,-6.300,-14.300
3.210,-0.100,-1.400,-6.800,-14.400
3.211,-0.300,-1.600,-7.300,-14.400
3.212,-0.500,-1.700,-7.900,-14.300
3.213,-0.500,-1.800,-8.400,-14.400
3.214,-0.500,-1.900,-8.700,-14.800
3.215,-0.600,-2.200,-8.800,-15.400
3.216,-0.700,-2.500,-8.800,-16.000
3.217,-1.000,-2.800,-8.800,-16.300
3.218,-1.300,-3.100,-8.700,-16.200
3.219,-1.600,-3.300,-8.800,-15.800
3.220,-1.600,-3.400,-8.900,-15.400
3.221,-1.400,-3.500,-9.000,-15.200
3.222,-1.200,-3.700,-9.100,-15.400
3.223,-1.100,-4.000,-9.000,-15.900
3.224,-1.200,-4.500,-9.000,-16.700
3.225,-1.500,-4.900,-8.900,-17.500
3.226,-1.900,-5.300,-8.900,-18.200
3.227,-2.100,-5.700,-9.000,-18.700
3.228,-2.000,-6.100,-9.400,-19.000
3.229,-1.700,-6.600,-9.800,-19.000
3.230,-1.500,-7.100,-10.200,-18.900
3.231,-1.600,-7.500,-10.400,-18.700
3.232,-1.900,-7.800,-10.400,-18.400
3.233,-2.300,-8.000,-10.100,-18.200
3.234,-2.700,-8.100,-9.900,-18.000
3.235,-2.900,-8.200,-9.900,-18.000
3.236,-2.800,-8.200,-10.100,-18.000
3.237,-2.400,-8.300,-10.400,-18.000
3.238,-2.200,-8.300,-10.700,-18.000
3.239,-2.100,-8.300,-10.800,-18.100
3.240,-2.400,-8.300,-10.700,-18.300
3.241,-2.900,-8.200,-10.400,-18.500
3.242,-3.500,-8.200,-10.000,-18.700
3.243,-3.800,-8.300,-9.800,-18.900
3.244,-3.900,-8.400,-9.700,-18.900
3.245,-3.600,-8.600,-10.000,-18.800
3.246,-3.100,-8.800,-10.400,-18.600
3.247,-2.600,-9.000,-11.000,-18.500
3.248,-2.200,-9.100,-11.600,-18.600
3.249,-2.100,-9.200,-12.100,-18.800
3.250,-2.200,-9.200,-12.200,-19.000
3.251,-2.400,-9.100,-12.000,-19.300
3.252,-2.700,-8.900,-11.400,-19.400
3.253,-3.000,-8.500,-10.800,-19.300
3.254,-3.200,-8.100,-10.400,-19.000
3.255,-3.300,-7.600,-10.400,-18.600
3.256,-3.200,-7.400,-10.700,-18.300
3.257,-3.100,-7.400,-11.000,-18.100
3.258,-2.900,-7.500,-11.300,-18.000
3.259,-2.600,-7.700,-11.300,-18.100
3.260,-2.400,-7.900,-11.000,-18.300
3.261,-2.300,-7.900,-10.700,-18.400
3.262,-2.300,-7.700,-10.600,-18.400
3.263,-2.500,-7.500,-10.800,-18.100
3.264,-2.800,-7.400,-11.100,-17.800
3.265,-3.100,-7.400,-11.500,-17.600
3.266,-3.200,-7.600,-11.700,-17.600
3.267,-3.100,-7.800,-11.700,-17.900
3.268,-3.000,-8.000,-11.700,-18.200
3.269,-3.000,-8.200,-11.700,-18.400
3.270,-3.300,-8.200,-11.800,-18.200
3.271,-3.800,-8.100,-11.800,-17.700
3.272,-4.200,-8.100,-11.800,-17.000
3.273,-4.500,-8.200,-11.700,-16.400
3.274,-4.500,-8.300,-11.600,-16.200
3.275,-4.300,-8.700,-11.600,-16.200
3.276,-4.100,-9.000,-11.600,-16.500
3.277,-4.000,-9.300,-11.700,-16.800
3.278,-4.000,-9.500,-11.800,-17.000
3.279,-3.900,-9.500,-11.600,-17.000
3.280,-3.900,-9.400,-11.400,-17.000
3.281,-3.800,-9.200,-11.000,-17.000
3.282,-4.000,-9.000,-10.700,-17.100
3.283,-4.300,-8.900,-10.500,-17.300
3.284,-4.800,-8.800,-10.400,-17.600
3.285,-5.100,-8.800,-10.400,-17.700
3.286,-5.100,-8.800,-10.500,-17.800
3.287,-4.800,-8.900,-10.800,-17.700
3.288,-4.300,-9.000,-11.100,-17.800
3.289,-4.000,-9.200,-11.300,-17.900
3.290,-3.900,-9.400,-11.300,-18.300
3.291,-3.900,-9.500,-11.100,-18.800
3.292,-4.000,-9.400,-10.600,-19.200
3.293,-3.900,-9.200,-10.100,-19.300
3.294,-3.600,-9.100,-9.600,-19.000
3.295,-3.400,-9.200,-9.400,-18.500
3.296,-3.300,-9.400,-9.600,-18.100
3.297,-3.500,-9.600,-9.900,-17.900
3.298,-3.700,-9.800,-10.200,-18.000
3.299,-3.800,-9.700,-10.500,-18.400
3.300,-3.700,-9.400,-10.600,-18.800
3.301,-3.500,-9.100,-10.800,-19.000
3.302,-3.400,-8.900,-11.000,-18.900
3.303,-3.600,-8.700,-11.500,-18.700
3.304,-4.200,-8.700,-12.100,-18.500
3.305,-4.800,-8.600,-12.500,-18.500
3.306,-5.400,-8.500,-12.600,-18.500
3.307,-5.500,-8.300,-12.300,-18.500
3.308,-5.300,-8.100,-11.500,-18.500
3.309,-4.900,-8.000,-10.700,-18.500
3.310,-4.500,-8.000,-10.100,-18.700
3.311,-4.300,-8.200,-9.800,-18.900
3.312,-4.200,-8.300,-9.900,-19.300
3.313,-4.200,-8.300,-10.000,-19.500
3.314,-4.200,-8.200,-9.800,-19.400
3.315,-4.000,-8.000,-9.400,-19.000
3.316,-3.800,-7.700,-8.800,-18.300
3.317,-3.800,-7.400,-8.400,-17.600
3.318,-4.000,-7.200,-8.400,-17.100
3.319,-4.400,-7.000,-8.900,-16.800
3.320,-4.800,-7.000,-9.500,-16.900
3.321,-4.900,-7.200,-10.100,-17.300
3.322,-4.700,-7.400,-10.500,-17.900
3.323,-4.200,-7.500,-10.600,-18.400
3.324,-3.800,-7.600,-10.500,-18.700
3.325,-3.600,-7.600,-10.300,-18.700
3.326,-3.700,-7.500,-10.000,-18.300
3.327,-3.900,-7.300,-9.600,-17.800
3.328,-4.000,-7.300,-9.200,-17.400
3.329,-3.800,-7.400,-8.700,-17.400
3.330,-3.300,-7.500,-8.400,-17.700
3.331,-2.900,-7.500,-8.500,-18.200
3.332,-2.700,-7.400,-8.800,-18.600
3.333,-2.900,-7.100,-9.300,-18.900
3.334,-3.300,-6.900,-9.600,-18.800
3.335,-3.800,-6.800,-9.700,-18.600
3.336,-4.000,-6.900,-9.600,-18.300
3.337,-3.900,-7.200,-9.400,-18.000
3.338,-3.600,-7.500,-9.400,-17.900
3.339,-3.400,-7.900,-9.700,-17.800
3.340,-3.400,-8.100,-10.300,-17.800
3.341,-3.600,-8.300,-10.800,-17.800
3.342,-4.000,-8.500,-11.100,-17.800
3.343,-4.400,-8.800,-11.200,-17.600
3.344,-4.600,-9.000,-11.000,-17.300
3.345,-4.600,-9.100,-10.700,-16.900
3.346,-4.500,-9.000,-10.400,-16.600
3.347,-4.300,-8.800,-10.200,-16.400
3.348,-4.100,-8.600,-10.200,-16.300
3.349,-3.900,-8.400,-10.300,-16.400
3.350,-3.900,-8.300,-10.500,-16.600
3.351,-4.000,-8.300,-10.700,-16.700
3.352,-4.300,-8.400,-11.100,-16.600
3.353,-4.800,-8.600,-11.300,-16.300
3.354,-5.200,-8.800,-11.400,-15.700
3.355,-5.500,-9.100,-11.100,-15.000
3.356,-5.400,-9.300,-10.500,-14.300
3.357,-5.200,-9.400,-9.600,-13.700
3.358,-4.900,-9.400,-8.800,-13.300
3.359,-4.700,-9.100,-8.100,-13.200
3.360,-4.700,-8.800,-7.800,-13.200
3.361,-4.800,-8.700,-8.000,-13.300
3.362,-4.900,-8.800,-8.400,-13.300
3.363,-5.000,-9.100,-8.900,-13.200
3.364,-5.100,-9.500,-9.400,-13.100
3.365,-5.200,-9.900,-9.700,-12.900
3.366,-5.400,-10.100,-9.700,-12.900
3.367,-5.600,-10.100,-9.700,-13.100
3.368,-5.700,-10.000,-9.600,-13.400
3.369,-5.700,-9.900,-9.700,-13.800
3.370,-5.800,-9.800,-9.900,-14.000
3.371,-6.000,-10.000,-10.300,-14.000
3.372,-6.400,-10.300,-10.600,-13.800
3.373,-6.700,-10.800,-10.800,-13.500
3.374,-6.800,-11.300,-10.700,-13.100
3.375,-6.500,-11.700,-10.300,-12.800
3.376,-5.900,-11.800,-9.800,-12.600
3.377,-5.300,-11.500,-9.600,-12.700
3.378,-4.900,-11.100,-9.700,-12.900
3.379,-4.800,-10.700,-10.100,-13.400
3.380,-4.800,-10.500,-10.700,-14.000
3.381,-4.700,-10.400,-11.100,-14.400
3.382,-4.300,-10.200,-11.100,-14.500
3.383,-3.700,-9.900,-10.700,-14.300
3.384,-3.200,-9.300,-10.200,-13.900
3.385,-3.100,-8.500,-10.000,-13.600
3.386,-3.600,-7.900,-10.200,-13.600
3.387,-4.400,-7.600,-10.900,-13.900
3.388,-5.300,-7.700,-11.700,-14.300
3.389,-5.900,-8.000,-12.300,-14.600
3.390,-6.100,-8.300,-12.400,-14.700
3.391,-6.000,-8.400,-12.200,-14.700
3.392,-5.700,-8.100,-11.800,-14.700
3.393,-5.400,-7.800,-11.400,-14.800
3.394,-5.100,-7.500,-11.300,-14.800
3.395,-4.700,-7.400,-11.300,-14.800
3.396,-4.300,-7.500,-11.400,-14.600
3.397,-3.800,-7.600,-11.300,-14.400
3.398,-3.500,-7.800,-11.100,-14.300
3.399,-3.200,-8.000,-10.900,-14.700
3.400,-3.200,-8.300,-10.800,-15.400
3.401,-3.200,-8.700,-10.800,-16.100
3.402,-3.200,-9.200,-11.000,-16.400
3.403,-3.200,-9.600,-11.100,-16.300
3.404,-3.200,-9.700,-11.200,-15.800
3.405,-3.200,-9.600,-11.100,-15.300
3.406,-3.300,-9.300,-10.900,-15.300
3.407,-3.300,-9.100,-10.700,-15.900
3.408,-3.300,-9.000,-10.300,-16.900
3.409,-3.300,-9.100,-10.100,-17.900
3.410,-3.200,-9.100,-9.900,-18.500
3.411,-3.100,-9.000,-9.900,-18.600
3.412,-2.900,-8.800,-10.000,-18.300
3.413,-2.700,-8.700,-10.200,-18.000
3.414,-2.500,-8.600,-10.500,-17.800
3.415,-2.400,-8.700,-10.600,-17.800
3.416,-2.400,-8.600,-10.500,-17.900
3.417,-2.300,-8.000,-10.100,-17.900
3.418,-1.900,-6.700,-9.600,-17.900
3.419,-1.100,-4.700,-9.000,-18.000
3.420,0.300,-2.400,-8.500,-18.400
3.421,2.000,0.000,-8.100,-19.200
3.422,3.600,2.300,-7.700,-20.200
3.423,4.800,4.600,-7.200,-21.000
3.424,5.600,6.900,-6.400,-21.300
3.425,6.100,9.600,-5.100,-20.700
3.426,6.600,12.400,-3.400,-19.500
3.427,7.200,15.300,-1.400,-17.800
3.428,7.900,18.000,0.600,-15.900
3.429,8.300,20.400,2.400,-13.800
3.430,8.300,22.500,3.900,-11.500
3.431,7.900,24.500,5.000,-8.900
3.432,7.200,26.500,6.000,-6.000
3.433,6.600,28.400,7.200,-2.800
3.434,6.200,30.100,8.700,0.800
3.435,5.900,31.400,10.700,4.900
3.436,5.600,32.300,13.000,9.600
3.437,5.000,32.600,15.400,15.000
3.438,4.000,32.300,17.500,20.900
3.439,2.700,31.400,19.100,27.000
3.440,1.000,30.000,20.300,33.000
3.441,-0.900,28.100,21.000,38.700
3.442,-3.000,25.900,21.400,44.100
3.443,-5.500,23.400,21.600,49.400
3.444,-8.300,20.600,21.800,54.900
3.445,-11.200,17.500,22.100,60.600
3.446,-13.900,14.200,22.500,66.400
3.447,-16.300,10.700,23.000,71.800
3.448,-18.400,7.200,23.700,76.700
3.449,-20.300,3.900,24.200,80.700
3.450,-22.100,0.800,24.600,83.700
3.451,-23.800,-1.900,24.500,85.800
3.452,-25.400,-4.200,23.800,86.900
3.453,-26.700,-6.200,22.700,86.900
3.454,-27.700,-8.200,21.100,85.600
3.455,-28.400,-10.300,19.100,82.800
3.456,-28.800,-12.900,16.700,78.400
3.457,-29.100,-16.200,13.900,72.500
3.458,-29.300,-20.400,10.400,65.400
3.459,-29.400,-25.400,6.400,57.700
3.460,-29.700,-30.800,2.200,50.100
3.461,-30.000,-36.300,-1.800,43.300
3.462,-30.600,-41.400,-5.500,37.500
3.463,-31.300,-46.100,-8.600,32.400
3.464,-32.000,-50.100,-11.400,27.600
3.465,-32.400,-53.700,-14.200,22.500
3.466,-32.500,-56.600,-17.100,16.500
3.467,-32.100,-58.900,-20.000,10.000
3.468,-31.200,-60.300,-22.600,3.400
3.469,-30.000,-60.500,-24.600,-2.500
3.470,-28.600,-59.700,-25.600,-7.400
3.471,-27.100,-57.900,-25.900,-11.100
3.472,-25.500,-55.600,-25.900,-14.100
3.473,-23.900,-53.200,-26.100,-16.800
3.474,-22.500,-51.100,-26.600,-19.600
3.475,-21.500,-49.200,-27.400,-22.300
3.476,-20.800,-47.500,-28.100,-24.900
3.477,-20.400,-45.500,-28.200,-26.800
3.478,-19.800,-43.100,-27.400,-27.900
3.479,-18.700,-39.900,-25.600,-28.000
3.480,-16.900,-36.000,-23.000,-27.300
3.481,-14.600,-31.500,-20.200,-26.100
3.482,-12.100,-26.800,-17.700,-24.700
3.483,-10.200,-22.300,-15.800,-23.400
3.484,-9.000,-18.300,-14.500,-22.300
3.485,-8.500,-14.800,-13.600,-21.200
3.486,-8.200,-11.500,-12.500,-20.000
3.487,-7.800,-8.400,-11.000,-18.100
3.488,-6.800,-5.100,-8.900,-15.700
3.489,-5.600,-1.700,-6.600,-12.900
3.490,-4.200,1.400,-4.300,-10.200
3.491,-3.100,3.900,-2.600,-7.900
3.492,-2.300,5.800,-1.500,-6.300
3.493,-1.700,7.100,-1.000,-5.100
3.494,-1.200,8.400,-0.500,-4.000
3.495,-0.500,9.800,0.000,-2.600
3.496,0.300,11.500,0.700,-0.800
3.497,1.000,13.100,1.500,1.000
3.498,1.600,14.400,2.300,2.500
