'Elapsed time','AECG1','AECG2','AECG3','AECG4'
'seconds','uV','uV','uV','uV'
0.000,211.000,195.500,220.500,164.500
0.001,210.500,195.500,220.000,164.000
0.002,211.000,196.000,221.000,164.500
0.003,210.500,195.500,221.000,164.000
0.004,210.500,196.000,221.500,164.500
0.005,209.500,196.000,221.500,164.000
0.006,210.000,196.500,222.500,164.500
0.007,209.500,196.500,223.000,164.500
0.008,210.000,197.000,224.000,165.500
0.009,210.000,197.500,224.000,165.500
0.010,210.500,198.500,225.000,166.500
0.011,210.500,198.500,224.500,166.500
0.012,211.500,199.000,225.000,167.000
0.013,211.000,198.500,225.000,166.500
0.014,211.500,198.500,225.000,166.500
0.015,211.000,198.000,224.500,165.500
0.016,211.500,197.500,224.500,165.500
0.017,211.500,196.500,223.500,165.000
0.018,212.000,196.500,223.500,164.500
0.019,211.500,195.500,222.500,163.500
0.020,212.000,195.500,222.000,163.500
0.021,211.500,194.500,221.000,162.500
0.022,212.000,194.000,221.000,163.000
0.023,212.000,193.500,220.000,162.500
0.024,212.000,193.500,220.000,163.500
0.025,212.000,193.000,219.500,163.500
0.026,212.000,193.500,220.000,164.500
0.027,212.000,193.500,219.500,165.000
0.028,212.000,194.000,219.500,165.500
0.029,212.000,194.000,218.500,165.500
0.030,212.500,194.500,218.500,166.000
0.031,212.500,194.000,217.500,165.500
0.032,213.000,194.000,217.000,165.500
0.033,213.000,193.000,216.000,165.000
0.034,213.000,192.500,215.500,165.500
0.035,212.500,191.500,214.000,165.000
0.036,213.000,191.500,213.000,164.500
0.037,212.500,190.500,211.500,164.000
0.038,212.500,190.500,210.500,163.500
0.039,212.500,189.500,208.500,163.000
0.040,213.000,189.500,207.500,163.000
0.041,213.000,188.500,205.500,162.500
0.042,213.500,188.500,205.000,162.500
0.043,213.500,188.000,203.500,162.500
0.044,213.500,188.000,202.500,162.500
0.045,213.000,187.000,201.000,162.000
0.046,213.000,186.500,200.000,162.000
0.047,212.500,185.000,198.500,161.500
0.048,213.000,185.000,197.500,161.500
0.049,212.500,184.000,196.000,161.000
0.050,213.000,184.500,195.500,161.000
0.051,213.000,185.000,194.500,160.500
0.052,213.500,186.000,194.500,161.000
0.053,213.500,186.500,194.500,161.500
0.054,213.500,188.000,195.000,162.500
0.055,213.500,188.500,195.000,163.000
0.056,213.500,189.500,196.500,164.500
0.057,213.500,190.000,197.000,165.500
0.058,214.000,191.500,198.500,167.000
0.059,214.000,192.000,199.500,167.500
0.060,214.500,193.500,200.500,169.000
0.061,214.500,194.000,200.500,169.000
0.062,215.000,195.000,201.500,170.000
0.063,214.500,195.000,201.500,169.500
0.064,215.000,195.500,202.000,169.500
0.065,214.500,195.500,201.500,169.000
0.066,214.500,196.000,201.500,168.500
0.067,214.000,195.500,200.500,167.500
0.068,214.500,195.500,200.500,167.000
0.069,214.000,195.000,199.500,165.500
0.070,214.500,194.500,199.000,165.000
0.071,214.000,193.500,198.000,163.500
0.072,215.000,193.000,197.500,163.000
0.073,215.000,192.000,196.000,161.500
0.074,215.500,191.500,195.500,160.000
0.075,215.500,190.500,195.000,158.500
0.076,215.500,190.000,195.000,158.000
0.077,215.000,189.500,194.500,157.000
0.078,215.500,189.500,195.000,156.500
0.079,215.000,188.500,195.000,155.500
0.080,215.500,188.500,195.500,155.500
0.081,215.000,187.500,195.500,155.000
0.082,215.500,187.500,196.500,155.000
0.083,215.500,187.000,196.500,154.500
0.084,215.500,187.500,197.500,155.000
0.085,215.000,187.500,198.000,154.500
0.086,215.500,188.000,199.500,155.500
0.087,215.000,188.500,200.500,155.500
0.088,215.000,189.000,202.000,156.000
0.089,214.500,189.000,203.000,156.000
0.090,215.000,189.500,204.500,156.000
0.091,214.000,189.000,205.000,156.000
0.092,214.000,189.500,206.000,156.000
0.093,213.500,189.000,206.500,155.000
0.094,213.000,189.000,207.000,155.000
0.095,212.500,188.500,207.000,154.500
0.096,212.500,188.500,207.500,154.500
0.097,212.000,188.000,207.500,154.500
0.098,212.500,188.000,207.500,154.500
0.099,212.000,187.500,207.500,154.500
0.100,213.000,188.000,208.000,155.000
0.101,213.000,187.500,208.000,155.000
0.102,213.500,188.000,208.500,155.500
0.103,213.000,187.500,208.500,155.500
0.104,213.000,188.000,209.000,156.000
0.105,212.500,187.500,209.000,156.000
0.106,213.000,187.500,209.500,156.500
0.107,212.500,187.000,209.000,157.000
0.108,213.000,187.500,209.500,158.000
0.109,212.500,187.000,209.500,158.500
0.110,213.000,187.000,210.000,159.500
0.111,212.500,186.500,209.500,160.000
0.112,212.500,186.500,210.000,161.000
0.113,212.000,185.500,209.500,161.000
0.114,212.000,185.500,209.500,161.500
0.115,211.500,184.500,209.000,161.500
0.116,211.500,185.000,209.500,162.000
0.117,210.500,184.500,209.000,161.500
0.118,210.500,185.000,209.000,161.500
0.119,209.500,184.500,208.500,161.500
0.120,209.500,184.500,208.500,161.500
0.121,209.000,184.000,208.000,161.500
0.122,209.500,184.000,208.500,161.500
0.123,209.000,183.500,208.500,161.500
0.124,209.000,183.500,209.500,162.000
0.125,209.000,183.000,210.000,162.500
0.126,209.500,183.000,211.500,163.500
0.127,209.500,183.000,212.000,164.000
0.128,210.000,183.500,213.000,165.000
0.129,209.500,183.000,213.500,165.500
0.130,210.000,183.500,214.500,166.000
0.131,209.000,183.500,215.000,166.000
0.132,209.000,184.500,216.000,166.500
0.133,208.000,185.000,216.500,166.500
0.134,208.000,186.000,217.500,167.500
0.135,207.000,186.000,217.500,167.500
0.136,207.000,187.000,218.500,168.500
0.137,206.500,187.000,218.500,168.500
0.138,206.500,187.500,219.500,168.500
0.139,206.500,187.000,219.000,168.500
0.140,206.500,187.500,219.500,168.500
0.141,206.500,187.000,219.000,168.000
0.142,207.000,187.000,219.000,168.500
0.143,207.000,187.000,219.000,168.000
0.144,207.500,187.500,219.000,168.500
0.145,207.500,187.500,219.000,168.500
0.146,208.000,188.500,219.500,169.000
0.147,207.500,189.000,219.500,169.000
0.148,208.000,190.000,220.500,170.000
0.149,207.500,190.000,220.000,170.000
0.150,207.500,191.000,220.500,170.000
0.151,207.000,191.000,220.000,170.000
0.152,207.500,192.000,220.000,170.000
0.153,207.000,192.000,219.500,169.500
0.154,207.500,192.500,219.500,169.500
0.155,207.500,192.500,219.000,169.000
0.156,208.000,193.500,219.500,169.500
0.157,207.500,193.500,219.000,169.000
0.158,207.500,194.000,219.000,169.000
0.159,207.000,194.000,218.000,168.500
0.160,207.000,195.000,218.000,168.500
0.161,206.500,195.000,217.000,168.500
0.162,206.500,195.500,217.000,168.500
0.163,206.000,195.500,216.000,168.000
0.164,206.000,196.000,216.500,168.500
0.165,205.500,196.000,216.000,168.500
0.166,205.500,196.500,216.500,169.000
0.167,205.000,196.000,216.500,169.000
0.168,205.000,197.000,217.000,169.500
0.169,204.500,197.000,216.500,169.500
0.170,205.000,198.000,217.500,170.000
0.171,205.000,198.500,217.500,170.000
0.172,205.500,199.500,217.500,170.500
0.173,205.500,200.000,217.000,170.000
0.174,206.500,200.500,217.000,170.000
0.175,206.500,200.000,216.500,169.500
0.176,206.500,200.500,216.500,169.000
0.177,206.000,200.000,216.000,168.000
0.178,206.500,200.500,216.000,167.500
0.179,206.000,200.500,216.000,167.000
0.180,206.000,201.500,216.500,167.000
0.181,205.500,201.500,216.500,166.500
0.182,206.000,202.500,217.000,166.500
0.183,206.000,203.000,217.500,166.500
0.184,206.500,204.000,218.000,167.000
0.185,206.000,204.000,218.000,167.000
0.186,206.500,205.000,219.000,167.500
0.187,206.500,205.000,219.000,167.000
0.188,207.000,205.500,219.500,167.500
0.189,206.500,205.000,219.500,167.000
0.190,207.000,205.500,220.000,167.000
0.191,206.500,204.500,220.000,166.500
0.192,207.000,204.500,220.500,166.500
0.193,206.500,204.000,220.000,166.000
0.194,207.000,204.000,220.500,166.000
0.195,206.500,203.500,220.000,166.000
0.196,207.000,204.000,220.000,166.000
0.197,207.000,204.000,219.000,165.500
0.198,208.000,204.500,219.000,165.500
0.199,208.000,205.000,218.500,165.000
0.200,208.500,205.500,218.500,164.500
0.201,208.000,205.000,218.000,164.000
0.202,208.500,205.000,218.000,163.500
0.203,208.500,204.500,218.000,163.000
0.204,209.000,204.500,218.500,163.500
0.205,209.000,204.000,218.500,163.500
0.206,209.500,204.500,219.000,164.000
0.207,209.500,204.000,218.500,164.000
0.208,210.000,204.000,219.000,165.000
0.209,209.500,203.500,218.500,165.000
0.210,209.500,203.500,219.000,165.000
0.211,209.000,202.500,218.500,164.500
0.212,209.000,202.500,219.000,165.000
0.213,208.000,202.000,219.000,164.500
0.214,208.500,202.500,219.500,165.000
0.215,208.000,202.500,219.500,165.000
0.216,208.000,202.500,220.500,165.500
0.217,207.500,202.000,220.000,165.000
0.218,208.000,201.500,220.000,165.000
0.219,207.500,200.000,219.500,164.500
0.220,207.500,199.500,219.500,164.500
0.221,207.000,198.500,219.000,164.000
0.222,207.000,198.500,219.000,164.000
0.223,207.000,197.500,218.500,163.500
0.224,207.500,198.000,218.500,164.000
0.225,207.500,197.500,218.000,163.500
0.226,208.000,197.500,218.000,164.000
0.227,207.500,196.500,217.500,164.000
0.228,208.000,196.500,218.000,164.500
0.229,208.000,196.000,217.500,164.000
0.230,208.500,196.000,218.000,164.500
0.231,208.500,195.500,218.000,164.000
0.232,209.000,195.500,218.500,164.000
0.233,208.500,194.500,218.000,164.000
0.234,209.000,194.500,218.500,164.000
0.235,209.000,193.500,218.000,163.500
0.236,209.500,193.500,218.000,163.000
0.237,209.000,192.000,217.500,162.500
0.238,209.500,191.500,217.500,162.500
0.239,209.500,190.500,216.500,162.000
0.240,210.000,189.500,216.500,162.000
0.241,209.500,188.500,215.500,161.500
0.242,210.000,188.000,215.500,161.500
0.243,209.500,187.000,215.000,161.000
0.244,210.000,186.500,215.000,161.000
0.245,209.500,185.500,214.500,160.500
0.246,209.500,185.000,214.500,160.500
0.247,208.500,184.000,214.000,160.500
0.248,209.000,184.000,214.000,161.000
0.249,208.500,183.000,213.500,161.000
0.250,209.000,183.000,214.000,161.500
0.251,208.500,182.500,213.500,161.000
0.252,208.500,182.500,213.500,161.500
0.253,208.000,182.000,213.000,161.000
0.254,208.500,182.000,213.000,161.000
0.255,208.000,181.500,212.500,160.500
0.256,208.500,181.000,213.000,160.500
0.257,208.500,180.500,212.500,160.000
0.258,209.000,180.500,213.000,160.000
0.259,209.000,179.500,212.500,159.500
0.260,209.500,179.500,213.000,159.500
0.261,209.000,179.000,213.000,159.000
0.262,209.000,179.000,214.000,159.500
0.263,208.000,178.500,214.000,159.000
0.264,208.000,178.500,214.500,159.000
0.265,207.500,178.000,214.500,158.500
0.266,207.500,178.000,215.000,158.500
0.267,207.000,177.500,215.000,158.500
0.268,207.000,178.000,215.500,158.500
0.269,207.000,177.500,215.500,158.500
0.270,207.000,178.000,216.500,159.000
0.271,206.500,177.500,216.500,158.500
0.272,207.000,178.500,217.500,159.000
0.273,206.500,178.500,218.000,158.500
0.274,207.000,179.000,219.000,159.000
0.275,206.500,179.000,219.500,158.500
0.276,207.000,179.500,220.500,158.500
0.277,206.500,179.000,220.500,157.500
0.278,207.000,179.000,221.000,157.000
0.279,207.000,178.500,220.500,156.500
0.280,207.000,178.500,221.000,156.000
0.281,206.500,178.000,221.000,155.500
0.282,207.000,178.500,221.000,155.500
0.283,207.000,178.000,221.000,155.000
0.284,208.000,178.000,221.500,155.000
0.285,208.000,177.500,221.000,154.500
0.286,209.000,177.500,222.000,154.500
0.287,209.000,177.000,222.000,154.500
0.288,210.000,177.000,223.000,155.000
0.289,210.000,176.500,223.000,155.500
0.290,210.500,176.500,223.500,156.000
0.291,210.000,176.000,223.500,156.500
0.292,210.500,176.000,224.000,157.000
0.293,210.500,175.000,223.500,156.500
0.294,210.500,175.000,224.000,157.000
0.295,210.500,174.000,223.500,157.000
0.296,210.500,174.000,224.000,157.000
0.297,210.000,173.500,223.500,156.500
0.298,210.000,173.000,223.500,156.500
0.299,209.500,172.500,223.000,156.000
0.300,209.500,172.500,223.000,156.000
0.301,208.500,172.000,223.000,155.500
0.302,209.000,172.500,223.500,156.000
0.303,208.500,172.000,224.000,156.000
0.304,208.500,172.500,225.000,157.000
0.305,208.000,172.500,225.000,157.000
0.306,208.500,173.000,226.000,157.500
0.307,208.000,173.000,226.000,157.500
0.308,208.000,173.000,226.500,158.000
0.309,207.500,172.000,226.000,158.000
0.310,208.000,172.000,226.500,158.500
0.311,207.500,171.500,226.500,158.500
0.312,208.000,171.500,227.500,159.500
0.313,208.000,171.000,227.500,159.500
0.314,208.000,171.000,228.000,160.000
0.315,207.500,170.500,227.500,159.500
0.316,207.500,170.000,227.500,160.000
0.317,207.000,169.500,226.500,159.500
0.318,207.500,169.500,226.500,160.000
0.319,207.500,169.000,226.000,159.500
0.320,208.000,169.500,226.000,159.500
0.321,207.500,169.000,225.500,159.000
0.322,208.000,170.000,226.000,159.000
0.323,207.500,170.000,226.000,159.000
0.324,207.500,170.500,226.500,159.000
0.325,206.500,170.500,226.000,159.000
0.326,206.500,171.500,227.000,159.500
0.327,206.000,171.500,227.000,159.000
0.328,206.000,172.500,227.500,159.500
0.329,205.500,172.500,227.000,159.500
0.330,206.000,173.500,228.000,160.000
0.331,205.500,173.500,228.000,160.000
0.332,206.500,174.500,228.500,160.500
0.333,206.000,174.500,228.500,160.000
0.334,206.500,175.000,229.500,160.500
0.335,206.500,174.500,229.500,160.000
0.336,207.000,175.000,230.000,160.000
0.337,206.500,174.500,229.500,159.500
0.338,207.000,175.000,230.000,159.500
0.339,206.500,174.500,229.500,159.000
0.340,207.000,175.000,230.000,159.000
0.341,206.500,175.000,230.000,158.500
0.342,207.000,175.500,230.500,159.000
0.343,206.500,175.000,230.500,158.500
0.344,207.000,175.500,231.500,159.000
0.345,206.500,175.500,231.500,158.500
0.346,206.500,176.000,232.000,159.000
0.347,206.000,176.000,232.000,158.500
0.348,206.000,176.500,233.000,159.000
0.349,205.500,177.000,233.500,159.000
0.350,206.000,178.000,234.500,159.500
0.351,206.000,178.000,234.500,159.500
0.352,206.500,178.000,235.000,159.500
0.353,206.500,177.500,235.000,159.000
0.354,207.000,177.500,235.500,158.500
0.355,206.500,177.000,235.500,157.500
0.356,207.000,177.000,236.500,157.500
0.357,207.000,176.500,236.500,156.500
0.358,207.000,177.000,237.500,156.500
0.359,206.500,176.500,238.000,156.500
0.360,207.000,177.000,239.000,156.500
0.361,206.500,177.000,239.000,156.500
0.362,207.000,177.500,239.500,157.000
0.363,206.500,177.000,239.500,156.500
0.364,207.000,177.500,240.000,157.000
0.365,207.000,177.000,240.000,156.500
0.366,207.500,177.500,240.500,156.500
0.367,207.500,177.000,241.000,156.000
0.368,207.500,177.000,241.500,156.500
0.369,207.000,176.000,241.500,156.500
0.370,207.500,176.000,242.500,157.500
0.371,207.000,175.500,242.000,157.500
0.372,207.500,175.500,242.500,158.000
0.373,207.500,175.500,242.500,157.500
0.374,208.000,175.500,243.000,158.000
0.375,207.500,175.500,243.000,158.000
0.376,208.000,175.500,243.500,158.500
0.377,208.000,175.000,243.000,158.000
0.378,208.500,175.500,243.000,158.000
0.379,208.500,175.000,242.500,157.500
0.380,209.000,175.000,242.000,157.500
0.381,209.000,174.500,241.000,157.000
0.382,209.500,174.500,241.000,157.000
0.383,209.000,174.000,240.000,156.500
0.384,209.500,174.000,240.500,157.000
0.385,209.000,173.500,240.000,157.000
0.386,209.500,173.500,240.000,157.500
0.387,209.000,173.000,239.500,157.500
0.388,209.500,173.000,240.000,158.500
0.389,209.000,172.500,239.500,158.500
0.390,209.500,173.000,240.000,159.500
0.391,209.500,173.000,240.000,159.500
0.392,210.500,173.500,240.500,160.000
0.393,210.500,173.500,240.000,160.000
0.394,210.500,173.500,240.500,160.000
0.395,210.000,173.000,240.000,159.500
0.396,210.500,173.500,240.000,159.500
0.397,210.000,173.000,239.500,159.000
0.398,210.000,173.000,239.500,159.500
0.399,209.000,172.500,238.500,159.000
0.400,209.000,172.500,238.500,159.500
0.401,208.000,172.500,238.000,159.500
0.402,208.500,172.500,238.500,159.500
0.403,208.000,172.500,238.000,159.500
0.404,208.500,172.500,238.500,159.500
0.405,208.000,172.000,238.000,159.000
0.406,208.500,172.000,238.000,159.500
0.407,208.500,171.500,237.500,159.000
0.408,209.000,171.500,237.500,159.500
0.409,209.000,170.500,237.000,159.000
0.410,209.500,170.500,237.000,159.000
0.411,209.000,170.000,236.500,158.500
0.412,209.500,170.000,236.500,159.000
0.413,209.000,169.500,236.500,158.500
0.414,210.000,169.500,236.500,159.000
0.415,210.000,168.500,236.000,158.500
0.416,210.500,168.500,236.000,158.500
0.417,210.500,168.000,235.000,158.000
0.418,211.000,168.000,234.500,158.000
0.419,211.000,167.500,234.000,157.500
0.420,211.500,167.500,234.000,157.500
0.421,211.000,167.500,233.000,157.000
0.422,211.000,167.500,233.500,157.000
0.423,210.500,167.500,233.000,156.500
0.424,211.000,167.500,233.000,156.500
0.425,210.000,167.500,232.500,156.500
0.426,210.000,168.000,233.000,157.000
0.427,209.500,167.500,232.500,157.000
0.428,209.500,167.500,233.000,158.000
0.429,209.000,167.500,233.000,158.000
0.430,209.500,167.500,233.500,159.000
0.431,209.000,167.500,233.500,159.500
0.432,209.500,168.000,234.000,160.000
0.433,209.500,168.000,234.000,160.000
0.434,209.500,169.000,234.000,160.000
0.435,209.000,169.000,233.500,159.500
0.436,209.000,170.000,233.500,159.500
0.437,208.500,170.000,232.500,159.000
0.438,208.500,170.500,232.500,159.000
0.439,208.500,170.500,232.000,159.000
0.440,209.000,171.000,232.000,159.000
0.441,209.500,170.500,231.500,159.000
0.442,210.500,171.000,231.500,159.500
0.443,210.500,170.500,230.500,159.500
0.444,211.500,170.500,230.500,160.000
0.445,211.500,169.500,230.000,160.000
0.446,211.500,169.500,230.500,161.000
0.447,211.000,169.000,230.000,161.500
0.448,211.000,169.000,230.500,162.000
0.449,210.500,169.000,230.500,162.500
0.450,211.000,169.000,231.500,163.000
0.451,210.500,169.000,231.500,163.000
0.452,211.500,169.000,232.000,163.500
0.453,211.500,169.000,232.000,163.000
0.454,212.000,169.000,232.000,163.500
0.455,212.000,169.000,231.500,163.500
0.456,212.500,169.500,232.000,164.000
0.457,212.500,169.000,231.000,164.000
0.458,213.000,169.000,231.000,164.500
0.459,213.000,168.500,230.500,164.000
0.460,213.500,168.500,230.500,164.500
0.461,213.500,168.000,229.500,164.500
0.462,214.000,168.500,230.000,165.000
0.463,213.500,168.000,229.500,165.000
0.464,214.000,168.500,230.000,165.500
0.465,214.000,168.000,229.500,165.500
0.466,214.000,168.500,230.000,166.000
0.467,214.000,168.500,229.500,166.000
0.468,214.500,169.500,230.000,167.000
0.469,214.500,170.000,230.000,167.000
0.470,215.000,171.500,231.000,168.000
0.471,214.500,172.000,231.500,168.500
0.472,214.500,172.500,232.500,169.500
0.473,214.000,173.000,233.000,170.000
0.474,214.000,173.500,233.500,170.000
0.475,213.500,173.000,233.000,169.500
0.476,214.000,173.000,232.500,169.500
0.477,214.000,172.000,231.500,168.500
0.478,214.500,172.000,231.000,168.500
0.479,215.000,171.000,230.000,167.500
0.480,215.500,171.500,230.000,168.000
0.481,215.500,171.000,229.000,167.500
0.482,216.500,172.000,229.000,168.500
0.483,216.000,172.000,228.500,168.500
0.484,216.500,173.000,229.500,170.000
0.485,216.500,173.500,230.000,171.000
0.486,216.500,175.000,231.500,172.500
0.487,216.500,175.500,232.500,174.000
0.488,216.500,177.000,234.500,176.000
0.489,216.500,178.000,236.000,177.500
0.490,216.500,179.500,238.000,179.500
0.491,216.500,180.000,238.500,180.500
0.492,216.500,181.000,240.000,182.000
0.493,216.500,181.000,240.000,182.000
0.494,217.000,181.500,240.500,182.500
0.495,217.000,181.000,239.500,182.000
0.496,217.500,180.500,239.000,182.000
0.497,217.000,179.500,237.500,181.000
0.498,217.500,179.000,236.500,180.500
0.499,217.000,177.500,234.500,179.000
0.500,217.500,176.500,233.000,177.500
0.501,217.000,175.000,230.500,175.500
0.502,217.000,174.000,228.000,174.000
0.503,216.500,172.500,225.500,172.000
0.504,216.500,171.500,223.500,171.000
0.505,216.000,170.500,221.500,169.500
0.506,215.500,170.000,220.500,169.500
0.507,214.500,169.500,219.500,169.000
0.508,214.500,169.500,220.000,169.500
0.509,214.000,169.000,219.500,169.500
0.510,214.000,169.000,220.000,170.500
0.511,213.500,168.500,219.500,170.000
0.512,214.000,168.500,220.000,170.500
0.513,213.500,167.500,219.500,169.500
0.514,213.500,167.000,219.000,169.000
0.515,212.500,166.500,218.000,167.500
0.516,212.500,166.000,217.500,166.000
0.517,212.000,165.500,216.000,164.000
0.518,212.500,165.500,215.000,163.000
0.519,212.000,165.000,213.500,161.000
0.520,212.500,165.000,212.500,159.500
0.521,212.500,164.500,211.500,158.000
0.522,213.000,165.000,211.000,157.000
0.523,212.500,164.500,210.000,156.000
0.524,212.500,165.000,210.500,156.000
0.525,212.000,164.500,210.000,155.500
0.526,212.500,164.500,211.000,156.000
0.527,212.000,164.500,211.500,156.500
0.528,212.000,165.500,213.000,157.500
0.529,211.500,165.500,213.500,158.000
0.530,212.000,166.500,215.000,159.500
0.531,211.000,167.000,215.000,160.000
0.532,211.000,168.000,216.000,161.000
0.533,210.500,168.000,215.500,161.000
0.534,210.500,168.000,216.000,161.500
0.535,210.000,167.000,215.500,161.000
0.536,210.500,166.500,215.500,161.000
0.537,210.000,165.500,214.500,160.000
0.538,210.500,165.000,215.000,160.000
0.539,210.000,164.500,214.500,159.000
0.540,210.500,165.000,215.000,159.000
0.541,210.000,165.500,214.500,158.500
0.542,211.000,166.000,214.500,158.500
0.543,210.500,166.500,214.000,158.500
0.544,211.000,167.500,214.500,159.000
0.545,210.500,167.500,214.000,159.000
0.546,211.000,168.000,214.500,159.500
0.547,210.500,167.500,214.500,159.000
0.548,210.500,168.000,215.500,159.500
0.549,210.000,167.500,215.500,159.500
0.550,210.500,168.000,216.500,160.000
0.551,210.500,168.000,217.000,160.500
0.552,211.000,169.000,218.000,161.000
0.553,211.000,169.000,218.000,161.500
0.554,211.000,169.500,218.500,162.000
0.555,210.500,169.500,218.500,162.000
0.556,211.000,170.000,219.000,162.500
0.557,210.000,170.000,219.000,162.500
0.558,210.000,170.500,219.500,163.000
0.559,209.500,170.500,220.000,163.500
0.560,209.000,171.000,220.500,164.500
0.561,208.500,171.000,221.000,164.500
0.562,208.500,171.500,221.500,165.500
0.563,208.000,171.500,221.500,165.000
0.564,208.500,172.000,222.000,165.500
0.565,208.500,172.500,221.500,165.000
0.566,209.000,173.000,222.000,165.000
0.567,209.000,173.500,221.500,164.500
0.568,210.000,174.000,221.500,164.500
0.569,210.500,174.500,221.000,164.500
0.570,211.000,175.500,221.500,165.000
0.571,211.000,175.500,221.500,165.000
0.572,211.500,176.500,221.500,165.000
0.573,211.500,176.000,221.000,164.500
0.574,211.500,176.500,221.000,165.000
0.575,210.500,176.500,220.500,164.500
0.576,210.500,177.000,220.000,164.500
0.577,210.000,177.500,219.500,164.000
0.578,210.000,178.000,220.000,164.500
0.579,209.000,178.500,219.500,164.500
0.580,209.500,179.000,220.000,165.000
0.581,209.000,179.000,220.000,165.000
0.582,209.500,179.500,220.500,165.500
0.583,209.500,179.500,220.000,165.000
0.584,210.000,179.500,220.500,165.500
0.585,210.000,179.500,220.000,165.500
0.586,210.000,179.500,220.500,166.000
0.587,210.000,179.500,220.500,166.000
0.588,210.000,180.000,221.000,166.500
0.589,210.000,180.000,220.500,166.000
0.590,210.500,180.500,221.500,166.500
0.591,210.500,180.500,221.500,166.000
0.592,211.000,181.500,222.000,166.000
0.593,210.500,181.500,222.000,166.000
0.594,211.000,181.500,222.500,166.000
0.595,210.500,181.000,222.500,166.000
0.596,211.000,181.000,222.500,166.000
0.597,210.500,180.500,222.000,165.000
0.598,210.500,180.000,222.000,165.000
0.599,210.500,179.500,221.000,164.500
0.600,211.000,179.500,221.000,164.500
0.601,210.500,179.500,220.500,163.500
0.602,211.500,179.500,220.500,163.500
0.603,211.500,179.000,220.500,163.000
0.604,212.000,179.500,220.500,163.500
0.605,212.000,179.000,220.000,163.000
0.606,212.500,179.000,220.500,163.000
0.607,212.500,178.500,220.000,162.000
0.608,213.000,178.500,220.000,162.500
0.609,212.500,178.500,219.500,162.000
0.610,212.500,179.000,219.500,162.500
0.611,212.000,179.000,219.500,162.500
0.612,212.000,179.500,219.500,162.500
0.613,211.500,179.500,219.500,162.500
0.614,212.000,180.000,219.500,162.500
0.615,211.500,179.500,219.000,161.500
0.616,212.000,179.500,219.500,161.500
0.617,212.000,179.000,219.000,160.500
0.618,212.500,179.000,219.000,161.000
0.619,212.000,178.500,218.000,160.500
0.620,212.000,178.500,218.000,161.000
0.621,211.500,178.000,217.000,161.000
0.622,211.500,178.500,217.500,162.000
0.623,211.000,178.000,217.000,162.500
0.624,211.000,178.000,217.500,164.000
0.625,211.000,177.500,217.500,165.000
0.626,211.500,177.500,218.000,167.000
0.627,211.000,176.500,218.000,169.000
0.628,212.000,176.000,218.500,171.000
0.629,212.000,175.000,218.000,172.500
0.630,212.500,174.000,217.500,174.000
0.631,212.000,172.500,215.500,174.500
0.632,212.500,171.000,214.000,175.000
0.633,212.500,168.500,211.000,175.000
0.634,213.500,166.500,208.500,175.000
0.635,214.000,164.000,205.000,174.000
0.636,214.500,161.000,201.000,173.500
0.637,215.000,157.000,195.500,171.500
0.638,216.500,153.000,190.000,169.500
0.639,217.500,148.000,184.000,167.000
0.640,219.000,143.500,178.500,165.000
0.641,220.000,138.500,172.500,162.500
0.642,221.500,134.000,168.000,161.000
0.643,222.500,129.000,162.000,159.000
0.644,224.500,123.500,156.000,157.000
0.645,226.000,117.000,148.000,153.000
0.646,228.500,109.500,138.000,148.500
0.647,230.500,100.500,126.000,141.500
0.648,233.500,91.500,113.000,134.000
0.649,236.000,82.000,99.000,125.000
0.650,239.500,73.500,86.000,116.500
0.651,241.500,65.500,74.500,108.500
0.652,244.500,60.000,66.500,102.500
0.653,245.500,56.500,61.000,98.000
0.654,247.000,55.500,58.500,95.500
0.655,246.500,56.000,58.000,93.500
0.656,246.500,58.500,60.500,92.500
0.657,245.000,62.000,63.500,91.500
0.658,243.500,67.000,69.000,91.500
0.659,241.000,72.000,74.500,91.000
0.660,239.000,78.500,82.000,92.000
0.661,236.000,85.000,89.000,92.000
0.662,234.000,92.500,97.500,93.000
0.663,231.500,99.500,105.000,93.500
0.664,229.500,107.500,114.000,95.500
0.665,227.000,114.500,122.500,97.500
0.666,225.000,123.000,132.000,101.500
0.667,222.000,130.500,142.000,105.500
0.668,220.000,139.000,152.500,111.000
0.669,217.500,146.500,162.500,116.000
0.670,215.500,155.000,172.500,121.000
0.671,213.000,162.500,182.000,125.000
0.672,211.000,170.000,190.500,129.000
0.673,208.500,176.500,198.000,131.500
0.674,207.000,183.000,204.500,133.500
0.675,204.500,187.500,209.500,135.000
0.676,203.500,191.500,214.000,136.500
0.677,201.500,194.500,217.500,137.500
0.678,201.000,197.000,221.000,139.500
0.679,200.000,199.000,223.500,141.000
0.680,200.000,200.500,226.000,143.500
0.681,199.500,201.500,227.500,145.500
0.682,200.000,202.000,229.000,148.500
0.683,199.500,202.000,229.500,151.000
0.684,199.500,202.000,230.000,153.000
0.685,199.000,201.000,229.500,155.000
0.686,199.500,200.500,229.500,157.000
0.687,199.000,199.500,229.000,158.500
0.688,199.500,199.000,229.500,160.500
0.689,199.500,198.000,229.500,161.500
0.690,200.500,197.500,230.000,163.000
0.691,200.500,196.500,229.500,163.500
0.692,201.500,196.000,229.500,164.500
0.693,201.500,195.000,228.500,165.000
0.694,202.000,195.000,228.500,165.500
0.695,202.000,194.000,228.000,166.000
0.696,202.000,194.000,228.000,166.500
0.697,201.000,193.500,228.000,166.500
0.698,201.000,193.000,228.500,166.500
0.699,200.500,192.500,228.500,166.500
0.700,201.000,192.500,229.000,167.000
0.701,200.500,192.000,229.500,167.000
0.702,201.000,192.500,230.000,167.500
0.703,200.500,192.000,230.000,167.500
0.704,201.000,192.500,231.000,168.500
0.705,200.500,192.500,231.000,169.000
0.706,201.000,192.500,231.500,170.000
0.707,201.000,192.000,231.500,170.500
0.708,201.500,192.500,232.500,171.000
0.709,201.000,192.000,232.000,171.500
0.710,201.500,192.500,232.500,172.000
0.711,201.500,192.000,232.500,171.500
0.712,202.000,192.500,232.500,172.000
0.713,201.500,192.500,232.000,172.000
0.714,202.000,193.000,232.000,172.500
0.715,202.000,193.000,232.000,172.500
0.716,202.500,194.000,232.500,173.000
0.717,202.500,194.000,232.000,173.000
0.718,203.500,194.500,232.500,173.500
0.719,203.000,194.000,232.500,173.000
0.720,203.500,194.500,232.500,173.000
0.721,203.500,194.000,232.000,172.500
0.722,203.500,194.000,232.000,173.000
0.723,203.000,193.000,231.500,172.500
0.724,203.500,193.500,232.000,173.500
0.725,203.000,193.000,231.500,173.500
0.726,203.500,193.500,231.500,174.500
0.727,203.500,193.000,231.000,175.000
0.728,203.500,193.500,231.500,176.000
0.729,203.500,193.000,231.500,176.000
0.730,204.000,193.000,231.500,177.000
0.731,203.500,192.000,231.500,177.000
0.732,204.000,192.000,231.500,177.500
0.733,204.000,191.000,231.000,177.500
0.734,204.000,191.500,231.000,178.000
0.735,204.000,191.000,230.500,178.000
0.736,204.000,191.000,230.500,178.000
0.737,203.500,190.500,229.500,177.500
0.738,203.500,191.000,229.500,177.500
0.739,203.000,190.500,229.000,177.500
0.740,203.500,190.500,229.000,177.500
0.741,203.000,190.000,229.000,177.500
0.742,203.500,190.000,229.500,178.000
0.743,203.000,189.500,229.000,178.000
0.744,203.500,189.500,229.500,178.500
0.745,203.500,189.000,229.000,178.500
0.746,203.500,189.500,229.000,179.000
0.747,203.500,189.500,228.500,179.000
0.748,204.000,190.500,229.000,179.000
0.749,204.000,190.500,229.000,179.000
0.750,205.000,191.500,229.000,179.000
0.751,205.000,191.500,229.000,179.000
0.752,205.500,192.000,229.500,179.000
0.753,205.000,191.500,229.500,178.500
0.754,205.500,192.000,230.000,179.000
0.755,205.000,191.500,229.500,178.500
0.756,205.500,192.000,230.000,178.500
0.757,205.000,192.000,229.000,178.000
0.758,205.500,192.500,229.000,178.000
0.759,205.500,192.000,228.000,177.000
0.760,206.000,192.000,227.500,177.000
0.761,205.500,191.500,227.000,176.500
0.762,206.000,191.500,227.000,176.500
0.763,205.500,191.000,226.500,176.000
0.764,206.000,191.000,227.000,176.000
0.765,206.000,190.500,226.500,175.500
0.766,206.000,190.500,226.500,175.500
0.767,205.500,190.000,226.000,175.000
0.768,206.000,190.000,226.000,175.500
0.769,205.000,190.000,225.500,175.000
0.770,205.000,190.500,226.000,175.500
0.771,204.500,190.500,225.500,175.500
0.772,205.000,191.000,226.500,176.000
0.773,204.500,191.000,226.500,175.500
0.774,205.000,191.000,227.000,176.000
0.775,205.000,190.500,226.500,175.500
0.776,205.500,190.500,227.500,176.000
0.777,205.500,189.500,227.500,175.500
0.778,206.000,189.500,228.000,176.000
0.779,205.500,189.000,227.500,175.500
0.780,206.000,188.500,227.500,175.500
0.781,205.500,187.500,227.000,175.000
0.782,205.500,187.500,227.000,175.500
0.783,205.000,187.000,226.500,175.000
0.784,205.500,187.000,226.500,175.500
0.785,205.000,186.500,226.500,175.500
0.786,205.500,186.500,227.000,176.500
0.787,205.000,186.500,227.000,176.500
0.788,205.500,187.000,228.000,177.500
0.789,205.500,186.500,227.500,177.500
0.790,206.000,186.500,228.000,178.000
0.791,206.000,185.500,227.500,177.500
0.792,206.500,185.500,228.000,178.000
0.793,206.500,185.000,227.500,178.000
0.794,207.000,185.000,227.500,178.500
0.795,206.500,184.500,227.000,178.500
0.796,207.000,184.500,227.000,179.000
0.797,207.000,184.500,227.000,179.000
0.798,207.500,184.500,227.500,179.500
0.799,207.500,184.000,227.000,179.500
0.800,208.000,184.500,227.500,180.000
0.801,208.000,184.000,227.000,180.000
0.802,208.500,184.500,227.500,180.500
0.803,208.500,184.500,226.500,180.500
0.804,209.000,185.000,226.500,181.000
0.805,208.500,184.500,226.000,181.000
0.806,209.000,185.000,226.000,181.000
0.807,209.000,184.500,225.500,180.500
0.808,209.000,184.500,225.500,181.000
0.809,208.500,183.500,225.000,180.500
0.810,208.500,183.500,225.000,180.500
0.811,207.500,182.500,224.500,180.500
0.812,207.000,182.500,224.500,180.500
0.813,206.500,182.000,224.000,180.000
0.814,206.500,182.000,224.000,180.500
0.815,206.500,181.000,223.500,180.000
0.816,207.500,181.000,223.000,180.000
0.817,207.500,180.000,222.500,180.000
0.818,208.500,180.000,222.500,180.500
0.819,208.500,179.000,222.000,180.500
0.820,209.500,179.000,222.500,181.000
0.821,209.500,178.000,222.000,181.000
0.822,210.000,178.000,222.500,181.500
0.823,209.500,177.000,222.000,181.500
0.824,210.000,177.000,222.000,182.500
0.825,210.000,176.500,221.500,182.500
0.826,210.000,176.500,222.000,183.500
0.827,209.500,176.000,221.500,183.500
0.828,210.000,176.000,222.000,184.500
0.829,209.500,175.000,221.000,185.000
0.830,209.500,174.500,221.000,185.500
0.831,209.500,173.500,220.000,185.500
0.832,210.000,173.000,219.500,186.000
0.833,210.000,172.000,218.500,186.000
0.834,210.500,172.000,218.500,187.000
0.835,210.000,171.500,217.500,187.000
0.836,210.500,171.500,218.000,188.000
0.837,210.500,171.000,217.500,188.500
0.838,211.000,170.500,217.000,189.500
0.839,211.000,169.500,216.000,189.500
0.840,212.000,169.000,215.500,190.500
0.841,212.000,168.000,214.500,191.000
0.842,212.500,167.000,214.000,192.000
0.843,212.000,165.500,213.000,192.500
0.844,212.500,165.000,213.000,193.500
0.845,212.000,163.500,212.000,193.500
0.846,212.500,163.000,212.000,195.000
0.847,212.000,162.000,211.500,195.500
0.848,212.500,162.000,212.000,197.000
0.849,212.000,161.500,211.500,197.500
0.850,212.000,161.500,211.500,199.000
0.851,211.500,161.500,211.000,199.500
0.852,212.000,161.500,211.000,201.000
0.853,212.000,161.000,210.500,201.500
0.854,212.500,161.000,210.500,202.500
0.855,212.500,160.000,210.000,202.500
0.856,213.500,160.000,209.500,203.500
0.857,214.000,159.000,209.000,203.500
0.858,214.500,159.000,208.500,204.000
0.859,214.000,158.000,207.500,204.000
0.860,214.500,158.000,207.500,204.500
0.861,214.000,157.500,206.500,204.500
0.862,214.500,157.500,206.500,205.500
0.863,214.000,157.000,205.500,205.500
0.864,214.500,157.000,205.500,206.500
0.865,214.500,156.500,204.500,206.500
0.866,215.000,157.000,204.500,207.500
0.867,214.500,156.500,203.500,207.500
0.868,214.500,157.000,203.500,208.000
0.869,214.000,157.000,203.000,208.000
0.870,214.000,157.500,203.500,208.500
0.871,213.000,157.000,203.000,208.500
0.872,213.500,157.500,202.500,209.000
0.873,213.000,157.500,202.000,209.000
0.874,213.000,158.500,201.500,209.500
0.875,213.000,158.500,201.000,210.000
0.876,213.500,159.500,201.000,210.500
0.877,213.500,159.500,200.000,210.500
0.878,214.000,160.500,200.000,211.000
0.879,213.500,160.500,199.500,210.500
0.880,214.000,161.000,199.500,210.500
0.881,213.500,160.500,198.500,209.500
0.882,214.000,160.500,198.500,209.500
0.883,213.000,160.500,197.500,208.500
0.884,213.000,160.500,197.000,208.500
0.885,212.500,160.000,196.000,207.500
0.886,212.500,160.500,195.500,208.000
0.887,212.000,160.000,194.500,207.500
0.888,212.500,160.500,194.500,208.500
0.889,212.500,161.000,194.000,208.500
0.890,213.000,161.500,194.000,209.500
0.891,213.000,161.000,193.500,209.500
0.892,213.500,161.500,193.500,209.500
0.893,213.500,161.000,193.000,209.500
0.894,213.500,161.500,193.000,209.500
0.895,213.000,161.000,192.000,209.500
0.896,213.000,161.500,192.000,209.500
0.897,212.500,161.500,191.000,208.500
0.898,212.500,161.500,191.000,208.500
0.899,211.500,161.000,190.000,208.000
0.900,211.500,161.500,190.000,208.000
0.901,211.000,161.000,189.500,207.500
0.902,211.000,161.000,189.000,207.500
0.903,210.500,161.000,188.500,207.000
0.904,211.000,161.000,188.500,207.500
0.905,210.500,161.000,188.000,207.000
0.906,211.000,161.500,188.000,207.000
0.907,210.500,161.500,188.000,207.000
0.908,210.500,162.000,188.500,207.000
0.909,210.000,161.500,188.000,206.500
0.910,210.000,162.000,189.000,207.000
0.911,209.500,161.500,189.000,206.500
0.912,209.500,161.500,190.000,207.000
0.913,208.500,161.500,190.000,207.000
0.914,208.500,162.000,191.000,208.000
0.915,208.000,162.000,192.000,208.500
0.916,208.000,163.500,194.000,209.500
0.917,207.500,164.500,195.500,210.500
0.918,208.000,166.000,198.000,212.000
0.919,207.500,167.500,200.500,213.000
0.920,208.000,169.500,203.000,215.000
0.921,208.000,170.500,205.000,216.000
0.922,208.500,172.500,207.500,218.000
0.923,208.500,174.000,209.000,219.000
0.924,209.000,175.500,211.500,220.000
0.925,209.000,176.000,212.500,220.500
0.926,209.500,177.000,214.000,221.000
0.927,209.000,176.500,214.000,220.500
0.928,209.000,177.000,214.500,220.500
0.929,208.500,176.500,214.500,219.000
0.930,208.500,176.000,215.000,218.500
0.931,208.000,175.000,214.500,217.500
0.932,208.000,174.500,214.000,216.500
0.933,207.500,173.500,213.500,215.000
0.934,208.000,172.500,213.000,214.000
0.935,207.500,171.500,212.500,212.500
0.936,207.500,170.500,212.000,212.000
0.937,207.000,169.500,211.500,211.000
0.938,207.000,169.000,211.500,210.000
0.939,206.500,168.000,211.500,209.000
0.940,206.000,168.000,212.000,209.000
0.941,205.500,167.500,212.500,208.000
0.942,205.500,168.000,213.500,208.000
0.943,205.500,167.500,214.000,207.500
0.944,206.000,167.500,215.000,207.500
0.945,206.000,167.500,215.500,207.500
0.946,206.500,168.000,216.500,207.500
0.947,206.000,167.500,217.000,207.000
0.948,206.500,168.000,218.000,207.500
0.949,206.500,168.500,218.500,207.000
0.950,206.500,169.000,219.000,207.000
0.951,206.000,169.500,219.000,206.500
0.952,206.000,170.000,220.000,206.500
0.953,205.000,170.500,219.500,206.000
0.954,205.000,171.000,220.000,206.000
0.955,204.500,171.000,219.500,205.500
0.956,205.000,171.500,220.000,205.500
0.957,204.500,171.000,219.500,204.500
0.958,205.000,171.500,220.000,204.000
0.959,204.500,171.500,219.500,203.000
0.960,205.000,171.500,220.000,203.000
0.961,204.500,171.500,219.500,202.500
0.962,205.500,172.000,220.000,202.500
0.963,205.500,172.000,219.500,201.500
0.964,206.000,172.500,220.500,201.500
0.965,205.500,173.000,220.500,201.000
0.966,206.000,173.500,221.000,201.000
0.967,206.000,174.000,221.500,200.500
0.968,206.500,174.500,222.000,201.000
0.969,206.500,175.000,222.000,200.500
0.970,207.000,175.500,222.500,201.000
0.971,206.500,175.500,222.500,200.500
0.972,207.000,176.000,223.000,200.500
0.973,206.000,176.000,223.000,200.000
0.974,206.000,176.500,223.500,200.000
0.975,205.500,176.000,223.500,199.500
0.976,206.000,176.000,223.500,199.000
0.977,205.500,175.500,223.000,198.000
0.978,205.500,175.000,223.000,197.500
0.979,205.000,174.500,222.500,196.500
0.980,205.500,174.500,222.500,196.000
0.981,205.000,174.500,221.500,195.000
0.982,205.000,175.000,221.500,195.000
0.983,204.500,175.000,221.000,194.500
0.984,204.500,176.000,221.500,194.500
0.985,204.500,176.500,221.000,194.500
0.986,205.000,177.500,221.500,194.500
0.987,204.500,178.000,221.500,194.500
0.988,205.000,179.500,222.000,194.500
0.989,205.000,180.000,222.000,194.000
0.990,205.500,180.500,222.500,194.500
0.991,205.500,180.500,222.000,194.000
0.992,206.000,181.000,222.500,193.500
0.993,206.000,180.500,222.000,192.500
0.994,206.500,180.000,222.000,192.000
0.995,206.000,179.500,221.000,191.000
0.996,206.500,179.500,221.500,190.500
0.997,206.500,179.000,221.000,189.000
0.998,207.000,179.000,221.000,188.500
0.999,207.000,178.500,220.500,187.000
1.000,207.500,178.500,221.000,186.500
1.001,207.500,178.000,220.500,185.000
1.002,208.000,178.500,221.000,184.500
1.003,207.500,178.000,220.500,183.500
1.004,208.000,179.000,221.000,183.500
1.005,208.000,179.000,221.000,183.000
1.006,208.000,179.500,221.500,183.000
1.007,207.500,179.500,221.500,182.500
1.008,207.500,180.000,222.500,182.500
1.009,207.000,180.500,222.500,181.500
1.010,207.500,181.000,223.000,181.500
1.011,207.000,181.000,222.500,181.000
1.012,207.000,181.500,223.000,181.000
1.013,206.500,181.500,223.000,180.500
1.014,206.500,182.000,223.500,180.000
1.015,206.000,181.500,223.000,179.000
1.016,206.000,181.500,223.500,179.000
1.017,205.500,181.000,223.000,178.000
1.018,205.500,181.500,223.000,177.500
1.019,205.500,181.000,222.500,176.000
1.020,205.500,181.500,223.000,175.500
1.021,205.500,181.500,222.500,174.500
1.022,206.000,182.000,223.000,174.500
1.023,205.500,182.000,222.500,173.500
1.024,206.000,182.000,223.000,173.500
1.025,206.000,181.500,223.000,173.000
1.026,207.000,182.000,223.500,173.500
1.027,207.000,181.500,223.500,173.000
1.028,207.500,181.500,224.000,172.500
1.029,207.500,181.500,223.500,171.500
1.030,207.500,181.500,224.000,171.500
1.031,207.000,181.500,224.000,170.500
1.032,207.500,181.500,224.500,170.000
1.033,206.500,181.000,224.000,169.000
1.034,207.000,181.000,224.500,168.500
1.035,206.500,180.500,224.000,167.500
1.036,207.000,180.000,223.500,167.000
1.037,206.500,179.500,222.500,166.500
1.038,206.500,179.500,222.500,166.500
1.039,206.500,179.000,222.000,165.500
1.040,207.000,179.500,222.000,165.500
1.041,206.500,179.500,221.500,165.000
1.042,207.000,180.500,222.000,165.000
1.043,206.500,180.500,221.500,164.500
1.044,207.000,181.000,222.000,164.500
1.045,206.500,181.000,221.500,164.500
1.046,207.000,182.000,222.000,165.000
1.047,206.500,182.000,221.500,165.000
1.048,207.000,182.500,222.500,165.000
1.049,206.500,182.500,222.000,165.000
1.050,207.000,183.000,222.500,165.000
1.051,206.500,182.500,222.000,164.000
1.052,207.000,183.000,222.500,164.000
1.053,206.500,183.000,222.000,163.500
1.054,207.000,183.000,222.000,163.500
1.055,206.500,183.000,221.000,163.000
1.056,206.500,183.500,221.500,163.000
1.057,206.000,183.500,221.000,162.500
1.058,206.000,184.500,221.000,162.500
1.059,205.500,184.500,220.500,162.000
1.060,206.000,185.000,220.500,162.000
1.061,205.500,185.000,220.000,161.500
1.062,206.000,185.500,220.500,162.000
1.063,206.000,186.000,220.000,161.500
1.064,206.500,186.500,220.500,162.000
1.065,206.500,186.500,220.500,161.500
1.066,207.000,187.000,221.500,162.000
1.067,207.000,186.500,221.500,161.500
1.068,207.500,187.000,222.000,161.500
1.069,207.000,186.500,222.000,160.500
1.070,207.500,186.500,222.000,160.500
1.071,207.000,186.000,221.500,160.000
1.072,207.000,186.500,222.000,160.000
1.073,207.000,186.000,221.500,159.500
1.074,207.500,186.500,221.500,160.000
1.075,207.000,186.000,221.000,159.500
1.076,207.500,186.000,221.000,159.500
1.077,207.000,185.000,220.000,159.000
1.078,207.000,185.000,220.000,159.000
1.079,206.500,184.000,219.000,158.500
1.080,207.000,183.500,219.500,158.500
1.081,206.500,183.000,219.000,158.000
1.082,207.000,182.500,219.500,158.500
1.083,207.000,182.000,219.500,158.000
1.084,207.500,181.500,220.500,158.500
1.085,207.000,180.500,220.500,158.500
1.086,207.000,180.500,221.000,158.500
1.087,206.500,179.500,221.000,158.000
1.088,207.000,179.500,221.000,158.000
1.089,206.500,179.500,220.500,157.500
1.090,206.500,180.000,221.000,158.000
1.091,206.000,180.000,220.500,157.500
1.092,206.500,181.000,221.000,158.000
1.093,206.500,181.500,220.500,158.000
1.094,207.000,182.000,221.000,158.500
1.095,207.000,182.000,221.000,158.500
1.096,207.500,183.000,221.500,159.000
1.097,207.500,182.500,221.000,158.500
1.098,208.000,183.000,221.500,158.500
1.099,208.000,182.500,221.500,158.000
1.100,208.500,182.500,221.500,158.000
1.101,208.000,182.500,221.000,157.500
1.102,208.500,182.500,221.500,158.000
1.103,208.000,182.500,221.500,158.000
1.104,208.000,183.000,222.000,158.500
1.105,207.500,182.500,222.000,158.500
1.106,208.000,183.000,223.000,159.500
1.107,207.500,183.000,222.500,159.500
1.108,208.000,183.500,223.000,160.500
1.109,208.000,183.000,223.000,160.500
1.110,208.500,183.500,223.500,161.000
1.111,208.000,183.500,223.500,161.500
1.112,208.500,184.000,224.000,162.000
1.113,208.500,184.000,224.000,162.000
1.114,209.000,184.500,224.500,162.500
1.115,208.500,184.000,224.000,162.000
1.116,209.000,183.500,224.000,161.500
1.117,208.500,182.500,223.000,161.000
1.118,209.000,182.500,222.500,160.500
1.119,208.000,181.500,221.500,160.000
1.120,208.000,181.500,221.500,159.500
1.121,207.500,181.000,221.000,159.000
1.122,207.500,181.500,221.500,159.500
1.123,207.000,181.500,221.000,159.000
1.124,207.500,182.500,222.000,159.500
1.125,207.000,182.500,222.000,159.000
1.126,207.000,183.000,223.000,159.500
1.127,207.000,183.000,223.000,159.500
1.128,207.500,183.500,223.500,160.500
1.129,207.500,183.500,223.500,160.500
1.130,208.000,184.500,224.500,161.500
1.131,207.500,184.500,224.000,161.500
1.132,208.000,184.500,224.500,162.000
1.133,207.500,184.500,224.000,162.000
1.134,207.500,184.500,224.000,162.500
1.135,207.000,184.000,223.500,162.500
1.136,206.500,184.500,223.500,162.500
1.137,206.000,183.500,223.000,162.000
1.138,206.000,183.500,223.000,162.000
1.139,205.500,182.000,222.000,161.000
1.140,206.000,181.500,222.000,160.500
1.141,206.000,180.500,221.500,160.000
1.142,206.500,180.500,221.500,160.000
1.143,206.000,180.000,221.500,159.500
1.144,206.500,180.500,222.000,160.500
1.145,206.000,180.500,222.000,161.000
1.146,206.000,181.500,222.500,162.000
1.147,205.000,181.500,222.500,162.500
1.148,205.000,182.000,223.500,163.500
1.149,204.500,182.000,223.500,164.000
1.150,204.500,182.500,224.000,164.500
1.151,204.500,182.000,223.500,164.500
1.152,204.500,182.500,223.500,164.500
1.153,204.500,182.000,223.000,164.000
1.154,205.000,182.500,223.000,164.000
1.155,205.000,182.000,222.500,164.000
1.156,205.500,182.500,223.000,164.500
1.157,205.500,182.000,223.000,164.500
1.158,206.500,182.000,223.500,164.500
1.159,206.500,181.500,223.000,164.000
1.160,207.000,181.500,223.500,164.500
1.161,206.500,181.000,223.000,164.000
1.162,207.000,181.000,223.500,164.000
1.163,207.000,180.000,223.000,163.500
1.164,207.500,180.000,223.500,164.000
1.165,207.500,179.500,223.000,164.000
1.166,208.000,179.500,223.000,164.500
1.167,208.000,179.000,222.500,164.500
1.168,208.500,179.500,223.000,164.500
1.169,208.000,179.000,222.500,164.500
1.170,208.000,179.000,222.500,165.000
1.171,207.500,178.500,222.000,165.000
1.172,208.000,178.500,222.000,165.500
1.173,207.500,177.500,221.500,165.000
1.174,208.500,177.500,221.500,165.500
1.175,208.500,177.000,221.000,165.500
1.176,209.000,177.000,221.500,166.000
1.177,209.000,176.500,221.000,165.500
1.178,209.500,176.500,221.500,166.000
1.179,209.000,176.500,221.000,166.000
1.180,209.500,177.000,221.500,166.000
1.181,209.000,177.000,221.000,165.000
1.182,209.000,178.000,221.000,165.000
1.183,208.500,178.000,220.500,164.500
1.184,209.000,178.500,221.000,165.000
1.185,208.500,178.500,220.500,165.000
1.186,209.000,179.000,221.000,165.500
1.187,208.500,179.000,221.000,165.500
1.188,208.500,179.500,221.500,166.500
1.189,208.000,179.000,221.500,166.500
1.190,208.500,179.500,221.500,166.500
1.191,208.000,179.500,220.500,166.000
1.192,208.500,179.500,220.500,166.500
1.193,208.000,179.000,220.000,166.000
1.194,208.500,179.500,220.500,166.500
1.195,208.500,179.000,220.500,166.500
1.196,209.000,179.000,220.500,166.500
1.197,208.500,178.500,220.000,166.000
1.198,208.500,178.500,220.000,166.000
1.199,208.000,178.000,219.500,165.500
1.200,208.000,178.000,219.500,165.500
1.201,207.500,178.000,218.500,165.000
1.202,207.500,178.000,218.500,165.000
1.203,207.500,178.000,218.500,164.500
1.204,207.500,178.500,219.000,165.000
1.205,207.500,179.000,219.500,165.000
1.206,208.000,180.000,220.000,166.000
1.207,207.500,180.000,220.000,166.000
1.208,207.500,181.000,220.500,166.500
1.209,207.000,181.000,220.500,166.500
1.210,207.000,182.000,220.500,167.000
1.211,206.500,181.500,220.500,167.000
1.212,206.500,182.000,221.000,168.000
1.213,206.500,181.500,220.500,168.000
1.214,207.000,181.500,221.000,168.000
1.215,206.500,181.000,220.500,167.500
1.216,207.000,181.000,220.500,168.000
1.217,206.500,180.500,220.000,167.500
1.218,207.000,181.000,220.000,167.500
1.219,206.500,180.500,219.500,167.000
1.220,206.500,180.500,219.500,167.000
1.221,206.000,179.500,219.000,166.500
1.222,206.000,180.000,219.500,166.500
1.223,205.500,179.500,219.000,166.000
1.224,206.000,179.500,219.000,166.000
1.225,205.500,179.000,219.000,166.000
1.226,206.000,179.500,219.500,167.000
1.227,205.500,179.500,219.500,167.000
1.228,206.000,180.000,220.000,168.000
1.229,205.500,179.500,220.000,168.000
1.230,206.000,180.000,221.000,168.500
1.231,206.000,180.000,221.000,168.500
1.232,206.500,180.000,221.000,169.000
1.233,206.500,179.500,220.500,169.000
1.234,207.000,179.500,220.500,169.000
1.235,207.000,179.000,220.000,168.500
1.236,207.500,179.000,220.500,168.500
1.237,207.500,179.000,220.000,168.500
1.238,208.000,179.000,220.000,168.500
1.239,207.500,179.000,219.500,168.500
1.240,208.000,179.500,219.500,168.500
1.241,207.500,179.000,219.000,168.000
1.242,208.000,179.000,219.500,168.500
1.243,207.500,178.500,219.000,168.000
1.244,207.500,178.500,219.500,168.500
1.245,207.000,178.000,219.000,168.500
1.246,207.000,178.000,220.000,169.000
1.247,206.500,177.500,220.000,169.000
1.248,207.000,177.500,220.500,170.000
1.249,206.500,177.000,220.000,170.000
1.250,206.500,177.000,220.500,170.500
1.251,206.000,176.500,220.000,171.000
1.252,206.000,177.000,220.500,172.000
1.253,205.500,176.500,220.500,172.500
1.254,206.000,176.500,220.500,173.000
1.255,206.000,176.000,220.000,173.000
1.256,206.500,176.000,220.000,173.500
1.257,206.500,175.500,219.500,173.000
1.258,207.000,175.500,219.500,173.000
1.259,206.500,175.000,219.000,172.500
1.260,207.000,175.000,219.000,173.000
1.261,206.500,174.500,218.500,172.500
1.262,206.500,174.500,219.000,172.500
1.263,206.500,174.000,219.000,172.500
1.264,206.500,174.000,219.500,173.000
1.265,206.000,173.500,219.500,173.000
1.266,206.500,173.500,220.500,173.500
1.267,206.000,173.000,220.500,173.500
1.268,206.000,173.000,221.000,174.000
1.269,205.000,173.000,220.500,174.000
1.270,205.000,173.000,221.000,174.500
1.271,204.500,173.000,220.500,174.500
1.272,204.500,174.000,220.500,175.000
1.273,204.500,174.000,220.000,174.500
1.274,204.500,175.000,220.500,175.000
1.275,204.000,175.000,219.500,174.500
1.276,204.500,175.500,220.000,174.500
1.277,204.000,175.000,219.500,173.500
1.278,204.500,175.000,220.000,173.500
1.279,204.000,174.000,219.500,173.000
1.280,204.500,173.500,220.000,173.000
1.281,204.500,172.500,219.500,172.500
1.282,205.000,172.000,220.000,172.500
1.283,205.000,171.000,219.500,172.000
1.284,205.500,171.000,220.000,172.500
1.285,205.000,170.000,219.500,172.500
1.286,205.500,170.500,220.000,173.000
1.287,205.500,170.000,220.000,173.000
1.288,205.500,170.000,220.500,174.000
1.289,205.500,170.000,220.500,174.000
1.290,206.000,170.500,221.500,174.500
1.291,206.000,170.500,221.500,174.500
1.292,206.500,171.000,222.500,175.000
1.293,206.500,170.500,222.000,175.000
1.294,207.000,171.000,222.500,175.500
1.295,207.000,170.500,222.000,175.500
1.296,207.000,170.500,222.500,175.500
1.297,207.000,170.000,222.000,175.000
1.298,207.000,170.000,222.000,175.000
1.299,206.500,169.000,221.500,175.000
1.300,206.500,169.000,221.500,175.000
1.301,206.000,168.500,221.500,175.000
1.302,206.500,169.000,222.000,176.000
1.303,206.000,169.000,221.500,176.000
1.304,206.500,169.500,222.000,176.500
1.305,206.000,170.000,221.500,176.000
1.306,206.000,170.500,222.000,176.500
1.307,205.500,171.000,221.500,176.500
1.308,205.500,171.500,221.500,177.000
1.309,205.000,172.000,220.500,176.500
1.310,205.000,172.500,221.000,177.000
1.311,204.500,172.500,220.500,177.000
1.312,205.000,173.000,221.000,177.500
1.313,204.500,173.000,220.500,177.500
1.314,205.000,173.500,221.500,178.000
1.315,204.500,174.000,221.500,178.000
1.316,205.000,174.500,222.000,179.000
1.317,205.000,175.000,221.500,179.000
1.318,205.500,175.500,222.500,179.000
1.319,205.000,175.500,222.500,179.000
1.320,205.000,176.000,223.000,179.000
1.321,204.500,176.000,222.500,178.500
1.322,205.000,176.500,223.000,178.500
1.323,204.500,176.500,222.500,178.000
1.324,204.500,177.000,223.500,178.500
1.325,203.500,177.000,223.500,178.500
1.326,203.500,177.500,224.500,179.000
1.327,203.000,177.500,224.500,179.000
1.328,203.500,178.000,225.000,180.000
1.329,203.000,178.000,225.000,180.000
1.330,203.500,178.500,225.000,180.000
1.331,203.000,178.500,224.500,180.000
1.332,203.500,179.000,224.500,180.000
1.333,202.500,178.500,224.000,179.500
1.334,202.500,179.000,224.500,180.000
1.335,202.000,178.500,224.000,179.500
1.336,201.500,179.000,223.500,180.000
1.337,201.000,178.500,222.500,179.500
1.338,200.500,178.000,222.500,179.000
1.339,200.000,177.000,221.500,178.500
1.340,200.000,176.500,221.500,178.000
1.341,199.500,175.000,220.500,177.500
1.342,199.500,175.000,220.500,177.500
1.343,199.000,174.000,220.000,177.000
1.344,199.000,174.000,220.500,177.000
1.345,198.500,173.500,220.500,177.000
1.346,199.000,173.500,221.000,178.000
1.347,199.000,174.000,221.500,178.500
1.348,200.000,175.000,223.500,180.500
1.349,200.000,176.000,225.000,182.000
1.350,201.000,178.000,227.000,184.500
1.351,201.000,179.000,229.000,187.000
1.352,201.500,181.000,231.500,189.500
1.353,201.000,182.000,233.000,191.000
1.354,201.000,183.500,235.000,192.500
1.355,200.500,183.500,235.500,192.500
1.356,200.500,184.000,236.000,193.000
1.357,200.500,183.000,235.500,192.500
1.358,201.000,183.000,235.500,192.500
1.359,201.000,182.000,234.500,191.500
1.360,201.500,181.500,234.000,191.000
1.361,201.500,180.000,232.500,190.000
1.362,202.000,179.500,232.000,189.000
1.363,202.000,178.000,230.500,187.500
1.364,202.500,177.000,229.000,186.500
1.365,203.000,175.000,227.000,185.000
1.366,203.500,174.000,226.000,184.000
1.367,203.500,172.500,224.000,182.500
1.368,204.000,172.000,223.000,182.000
1.369,204.000,171.500,221.500,181.000
1.370,204.500,172.000,221.500,181.000
1.371,204.000,172.000,220.500,180.000
1.372,204.500,172.500,220.500,180.000
1.373,204.500,172.000,219.500,179.500
1.374,205.000,172.000,219.000,179.000
1.375,205.000,171.500,218.000,178.500
1.376,205.500,171.500,218.000,178.500
1.377,205.000,171.000,217.000,178.000
1.378,205.500,171.000,217.000,178.000
1.379,205.500,170.500,216.500,177.500
1.380,206.000,170.500,216.500,178.000
1.381,206.000,170.500,215.500,177.500
1.382,206.500,170.500,216.000,177.500
1.383,206.000,170.500,215.500,177.000
1.384,206.000,171.000,216.000,177.000
1.385,205.500,170.500,215.500,176.000
1.386,206.000,170.500,215.500,175.500
1.387,205.500,170.000,215.000,174.500
1.388,206.000,170.000,215.000,174.000
1.389,205.500,169.000,214.500,172.500
1.390,206.000,169.000,214.000,172.000
1.391,206.000,168.500,212.500,171.000
1.392,206.000,168.500,212.500,170.500
1.393,206.000,168.500,212.000,169.500
1.394,206.000,169.000,213.000,169.000
1.395,206.000,169.000,213.000,169.000
1.396,206.000,169.500,214.000,169.500
1.397,205.500,170.000,214.000,169.500
1.398,206.000,170.500,215.000,170.000
1.399,205.500,170.500,214.500,170.000
1.400,205.500,171.500,215.000,171.000
1.401,205.500,171.500,215.000,171.000
1.402,206.000,172.000,215.000,171.500
1.403,205.500,171.500,214.500,171.000
1.404,206.000,171.500,214.500,171.500
1.405,205.500,171.000,214.000,171.500
1.406,206.000,171.500,214.500,172.000
1.407,205.500,171.000,214.000,171.500
1.408,205.500,171.500,214.500,172.000
1.409,205.000,171.500,214.500,172.000
1.410,205.500,172.000,215.500,172.000
1.411,205.000,172.000,215.500,171.500
1.412,205.000,172.500,215.500,172.000
1.413,204.500,172.500,215.000,171.500
1.414,205.000,173.000,215.500,171.500
1.415,205.000,172.500,215.000,171.500
1.416,205.500,172.500,215.000,171.500
1.417,205.500,172.000,215.000,170.500
1.418,206.500,172.500,215.000,170.500
1.419,206.500,172.000,215.000,170.000
1.420,207.000,172.500,215.000,170.500
1.421,206.500,172.500,215.000,170.500
1.422,207.000,173.000,215.000,171.000
1.423,206.500,172.500,215.000,171.000
1.424,206.500,173.000,215.500,172.000
1.425,205.500,173.000,216.000,172.000
1.426,205.500,174.000,217.000,173.000
1.427,205.000,174.000,217.000,173.000
1.428,205.500,175.000,218.500,174.000
1.429,205.000,175.000,219.000,174.000
1.430,205.500,176.000,220.000,174.500
1.431,205.500,176.000,220.000,174.500
1.432,205.500,176.000,220.500,174.500
1.433,205.500,176.000,220.000,174.500
1.434,206.000,176.000,220.500,174.500
1.435,205.500,175.500,220.000,174.000
1.436,206.000,175.500,220.000,174.000
1.437,205.500,175.000,219.500,173.500
1.438,205.500,175.500,219.500,173.500
1.439,205.000,175.000,219.500,173.000
1.440,205.500,175.500,220.000,173.000
1.441,205.000,175.000,219.500,172.500
1.442,205.000,175.000,220.000,172.500
1.443,205.000,174.500,219.500,172.000
1.444,205.000,174.500,220.000,172.000
1.445,204.500,174.000,220.000,172.000
1.446,204.500,174.000,220.500,172.000
1.447,204.000,174.000,220.500,172.000
1.448,204.000,174.500,221.000,172.000
1.449,203.500,174.000,220.500,172.000
1.450,204.000,174.500,221.000,172.500
1.451,203.500,174.500,220.500,172.500
1.452,204.500,174.500,220.500,172.500
1.453,204.500,174.000,220.000,172.000
1.454,205.000,174.000,220.000,172.500
1.455,205.000,173.500,220.000,172.000
1.456,205.500,173.500,220.000,171.500
1.457,205.500,173.000,219.500,170.500
1.458,206.000,173.000,219.500,170.500
1.459,205.500,172.500,218.500,169.500
1.460,206.000,173.000,218.500,169.500
1.461,206.000,173.000,217.500,169.000
1.462,206.500,174.000,217.500,169.500
1.463,206.000,174.000,217.000,169.000
1.464,206.500,174.500,217.500,169.500
1.465,206.500,174.000,217.000,169.500
1.466,207.000,174.500,217.000,170.000
1.467,206.500,174.000,216.500,169.500
1.468,206.500,174.000,217.000,170.000
1.469,206.000,173.500,216.500,170.000
1.470,206.000,174.000,217.000,170.500
1.471,205.500,173.500,216.500,170.000
1.472,206.000,174.000,217.000,170.000
1.473,205.500,173.500,216.500,170.000
1.474,206.000,174.000,216.500,170.000
1.475,206.000,173.500,215.500,170.000
1.476,206.500,174.000,215.500,170.000
1.477,206.000,174.000,215.000,170.000
1.478,206.500,174.500,215.000,170.500
1.479,206.500,174.500,215.000,170.000
1.480,206.500,174.500,215.000,170.500
1.481,206.500,174.000,215.000,170.000
1.482,206.500,174.500,215.500,170.500
1.483,206.000,174.000,215.000,170.000
1.484,206.500,174.500,215.500,171.000
1.485,206.500,174.500,215.000,171.000
1.486,207.000,175.000,216.000,172.000
1.487,206.500,175.000,216.000,172.500
1.488,206.500,175.000,216.500,173.500
1.489,206.000,174.500,216.500,173.500
1.490,206.500,174.500,217.000,175.000
1.491,206.000,173.500,217.000,176.000
1.492,206.500,173.500,218.000,177.500
1.493,206.500,173.000,218.000,179.000
1.494,207.000,172.500,218.500,181.000
1.495,207.500,171.500,218.500,182.000
1.496,208.500,171.000,218.500,183.500
1.497,208.500,169.500,217.000,184.000
1.498,209.500,168.500,216.000,185.000
1.499,210.000,166.500,214.000,185.500
1.500,211.000,165.000,212.500,186.000
1.501,211.500,162.500,209.500,185.500
1.502,212.500,160.000,207.000,185.500
1.503,213.000,157.000,203.500,184.500
1.504,214.000,154.000,200.000,183.500
1.505,214.500,150.000,195.500,181.500
1.506,216.000,146.500,190.500,180.000
1.507,216.500,142.000,185.000,178.000
1.508,218.000,138.500,180.000,176.500
1.509,218.500,134.000,174.500,175.000
1.510,220.500,130.500,169.500,174.000
1.511,221.500,125.500,163.500,171.500
1.512,224.000,121.000,157.000,169.000
1.513,225.500,114.500,148.000,165.000
1.514,228.500,107.500,138.000,159.500
1.515,230.500,98.500,125.000,152.000
1.516,233.500,89.500,112.000,143.500
1.517,236.000,80.000,98.000,134.000
1.518,239.000,71.500,85.500,125.000
1.519,240.500,64.000,74.000,117.000
1.520,242.500,58.500,66.000,111.000
1.521,243.000,54.500,60.500,106.000
1.522,244.000,53.000,58.500,103.500
1.523,243.000,53.000,58.000,101.500
1.524,243.000,55.500,60.500,101.500
1.525,241.500,59.000,64.000,101.500
1.526,240.500,64.500,69.500,102.500
1.527,239.000,70.000,76.000,103.500
1.528,237.500,77.500,83.500,105.000
1.529,235.000,84.500,91.000,106.000
1.530,233.500,92.000,99.000,107.500
1.531,231.000,98.500,106.500,108.500
1.532,229.000,106.000,115.000,110.500
1.533,226.500,112.500,123.500,113.000
1.534,224.500,120.000,132.500,116.500
1.535,222.000,127.000,141.500,120.500
1.536,220.000,134.500,151.500,125.000
1.537,217.500,142.000,161.000,129.500
1.538,215.500,150.000,171.000,134.500
1.539,213.000,157.500,180.000,138.500
1.540,211.500,164.500,188.500,142.000
1.541,209.500,170.000,196.000,144.500
1.542,208.500,175.500,202.500,147.000
1.543,206.500,179.500,208.000,149.000
1.544,205.500,183.000,213.000,151.000
1.545,204.000,185.500,217.000,153.000
1.546,203.500,188.500,221.500,155.500
1.547,202.500,190.000,224.500,158.000
1.548,202.000,191.500,228.000,161.000
1.549,201.000,192.000,230.000,163.500
1.550,201.000,193.000,232.000,166.500
1.551,200.500,192.500,232.500,168.500
1.552,200.500,192.500,233.500,170.500
1.553,200.000,191.500,233.000,172.000
1.554,200.500,191.500,233.000,174.000
1.555,200.500,191.000,232.500,175.000
1.556,201.000,191.000,232.500,177.000
1.557,201.000,190.500,231.500,177.500
1.558,202.000,190.000,231.500,178.500
1.559,202.000,189.500,231.000,178.500
1.560,202.500,189.000,231.500,179.500
1.561,202.500,188.500,231.000,179.500
1.562,203.500,188.500,231.500,180.500
1.563,203.500,188.500,231.500,180.500
1.564,204.500,189.000,232.000,181.500
1.565,205.000,189.000,232.000,182.000
1.566,206.000,189.500,233.000,183.000
1.567,206.000,189.500,233.500,183.500
1.568,206.500,190.000,234.500,184.500
1.569,206.500,190.000,234.500,185.000
1.570,207.000,190.500,235.000,185.500
1.571,207.000,190.500,235.000,185.500
1.572,208.000,191.000,236.000,186.000
1.573,208.000,190.500,235.500,186.000
1.574,208.500,190.500,236.000,186.500
1.575,208.500,190.000,235.500,186.000
1.576,209.000,190.000,236.000,186.500
1.577,209.000,189.000,235.500,186.500
1.578,209.500,189.000,235.500,187.000
1.579,209.000,188.000,235.000,186.500
1.580,209.000,187.500,235.500,187.000
1.581,208.500,186.500,235.000,187.000
1.582,209.000,186.500,235.500,188.000
1.583,209.000,186.000,235.000,188.000
1.584,209.500,186.500,235.500,189.000
1.585,209.000,186.000,235.500,189.500
1.586,209.500,186.500,235.500,190.500
1.587,209.500,186.000,235.500,190.500
1.588,209.500,186.000,235.500,191.500
1.589,209.000,185.500,235.000,191.500
1.590,209.500,186.000,235.500,192.000
1.591,209.000,185.500,235.500,192.500
1.592,209.000,186.000,236.000,193.500
1.593,209.000,185.500,236.000,194.000
1.594,209.500,186.000,236.500,195.000
1.595,209.500,186.000,236.000,195.500
1.596,210.000,186.500,236.000,196.000
1.597,209.500,186.000,235.500,196.000
1.598,210.000,186.000,235.500,196.500
1.599,209.500,185.500,235.000,196.000
1.600,209.500,185.500,235.000,196.500
1.601,209.000,185.000,234.500,196.000
1.602,209.000,185.000,235.000,196.500
1.603,208.000,184.000,234.500,196.500
1.604,208.000,184.000,235.000,197.000
1.605,207.000,183.000,234.500,197.000
1.606,207.000,183.000,235.000,197.500
1.607,206.500,182.000,234.500,197.000
1.608,207.000,182.500,235.000,197.500
1.609,206.500,182.000,235.000,197.500
1.610,207.000,182.500,235.500,198.000
1.611,206.500,182.500,235.500,197.500
1.612,206.500,183.500,236.500,198.000
1.613,206.000,183.500,236.500,198.000
1.614,206.000,183.500,236.500,198.000
1.615,205.500,183.000,236.000,197.000
1.616,206.000,183.500,236.000,197.000
1.617,205.500,183.000,235.500,196.000
1.618,206.000,183.000,235.500,196.000
1.619,206.000,182.500,235.500,195.500
1.620,206.500,183.000,235.500,195.500
1.621,206.000,182.500,235.500,195.000
1.622,206.500,183.000,235.500,195.000
1.623,206.000,183.000,235.000,194.500
1.624,206.000,183.500,235.500,195.000
1.625,205.500,183.500,234.500,194.500
1.626,206.000,184.500,234.500,194.500
1.627,206.000,184.500,234.000,194.000
1.628,206.500,185.000,234.000,194.500
1.629,206.000,185.000,233.500,194.000
1.630,206.500,185.500,234.000,194.000
1.631,206.500,185.000,233.500,193.500
1.632,206.500,185.500,234.000,194.000
1.633,206.000,185.500,233.500,193.000
1.634,206.500,186.000,233.500,193.000
1.635,206.000,186.000,233.000,192.500
1.636,206.500,186.500,233.000,192.500
1.637,206.500,186.000,232.000,192.000
1.638,207.000,186.500,232.500,192.000
1.639,207.000,186.500,232.000,191.500
1.640,207.500,187.000,232.000,191.500
1.641,207.000,186.500,231.500,191.000
1.642,207.000,187.000,232.000,190.500
1.643,207.000,186.500,231.500,190.000
1.644,208.000,186.500,232.000,189.500
1.645,208.000,186.000,231.500,189.000
1.646,208.500,186.000,232.000,189.000
1.647,208.500,185.500,231.500,189.000
1.648,209.000,186.000,231.500,189.500
1.649,209.000,186.000,231.000,189.500
1.650,209.000,186.500,231.000,190.000
1.651,208.500,186.500,231.000,190.000
1.652,208.500,187.000,231.000,191.000
1.653,208.000,186.500,230.500,190.500
1.654,208.500,186.500,230.500,191.000
1.655,208.000,186.000,229.500,190.500
1.656,208.500,186.000,229.500,190.500
1.657,208.500,185.000,228.500,190.000
1.658,209.000,185.000,229.000,190.500
1.659,208.500,184.500,228.500,190.000
1.660,209.000,185.000,228.500,190.500
1.661,208.500,184.500,228.500,190.000
1.662,208.500,185.000,229.000,190.500
1.663,208.000,185.000,229.000,190.000
1.664,208.500,185.500,229.500,190.500
1.665,208.000,185.000,229.500,190.500
1.666,208.500,185.500,230.000,191.000
1.667,208.000,185.000,229.500,190.500
1.668,208.500,185.000,230.000,191.000
1.669,208.000,184.000,229.500,191.000
1.670,208.000,183.500,229.500,191.500
1.671,207.500,183.000,229.000,191.000
1.672,207.500,182.500,229.500,191.500
1.673,207.000,182.000,229.000,191.000
1.674,207.500,181.500,229.500,191.500
1.675,207.000,181.000,229.000,191.000
1.676,207.000,181.000,229.000,191.000
1.677,206.500,180.500,228.500,190.000
1.678,206.500,180.500,228.500,190.000
1.679,206.500,179.500,228.000,189.000
1.680,207.000,179.500,228.500,189.500
1.681,207.000,178.500,228.000,189.000
1.682,207.500,178.500,228.000,189.500
1.683,207.000,177.500,227.500,189.500
1.684,207.500,177.500,227.500,190.000
1.685,207.500,177.000,227.500,190.000
1.686,208.000,177.000,228.000,190.500
1.687,207.500,176.500,228.000,191.000
1.688,208.000,177.000,228.500,191.500
1.689,208.000,176.500,228.500,192.000
1.690,208.500,177.000,228.500,193.000
1.691,208.000,176.500,228.500,193.000
1.692,208.000,177.000,228.500,194.000
1.693,207.500,176.500,228.000,194.500
1.694,207.500,177.000,228.500,195.500
1.695,207.000,176.500,228.000,196.000
1.696,207.500,176.500,228.000,197.000
1.697,207.000,175.500,227.500,197.000
1.698,207.500,175.000,227.500,197.500
1.699,207.000,174.000,227.000,197.500
1.700,207.000,174.000,227.000,198.500
1.701,206.500,173.500,226.000,199.000
1.702,207.000,173.500,226.000,200.000
1.703,207.000,173.500,225.500,201.000
1.704,207.500,173.500,226.000,202.000
1.705,207.000,173.000,225.000,203.000
1.706,207.500,173.000,225.000,204.000
1.707,207.500,172.000,224.500,204.000
1.708,207.500,171.500,224.000,205.500
1.709,207.500,170.500,223.500,206.000
1.710,207.500,170.500,223.500,207.500
1.711,207.500,170.000,223.000,208.500
1.712,208.000,170.500,223.000,210.000
1.713,207.500,170.000,222.000,210.500
1.714,208.000,169.500,221.500,211.500
1.715,208.000,168.500,220.500,211.500
1.716,208.500,168.000,220.000,212.000
1.717,208.000,166.500,219.000,212.000
1.718,208.500,166.000,218.500,212.500
1.719,208.000,165.000,217.000,212.500
1.720,208.000,164.500,217.000,213.000
1.721,207.500,164.000,216.000,213.500
1.722,207.500,163.500,216.000,214.500
1.723,207.000,163.000,215.000,215.500
1.724,207.500,162.500,215.000,216.500
1.725,207.000,162.000,214.500,217.500
1.726,207.500,162.000,214.500,218.500
1.727,207.500,161.500,213.500,219.500
1.728,208.000,162.000,214.000,220.500
1.729,208.000,161.500,213.500,221.000
1.730,208.500,161.500,213.500,222.000
1.731,208.500,161.000,213.000,222.500
1.732,209.000,160.500,213.000,223.000
1.733,208.500,159.500,212.000,222.500
1.734,209.000,159.000,211.500,223.000
1.735,209.000,158.000,210.000,222.500
1.736,209.000,157.500,209.500,223.000
1.737,208.500,157.000,208.500,222.500
1.738,209.000,157.000,208.000,223.000
1.739,208.500,157.000,207.500,222.500
1.740,208.500,157.500,207.500,223.000
1.741,208.000,158.000,207.000,223.000
1.742,208.000,158.500,207.000,224.000
1.743,207.500,158.500,206.500,224.000
1.744,207.500,159.000,206.500,224.500
1.745,207.000,159.000,205.500,224.000
1.746,207.000,159.000,205.000,224.000
1.747,206.000,159.000,204.000,223.000
1.748,206.500,159.000,204.000,223.000
1.749,206.000,158.500,203.000,222.500
1.750,206.500,158.500,203.000,222.500
1.751,206.000,158.000,202.000,222.000
1.752,206.000,158.000,202.000,222.500
1.753,205.500,158.000,201.500,222.000
1.754,205.500,158.500,201.500,222.000
1.755,205.000,159.000,201.000,221.000
1.756,205.000,160.000,200.500,221.000
1.757,204.500,160.500,199.500,220.500
1.758,205.000,161.000,199.500,220.500
1.759,205.000,161.500,198.500,220.000
1.760,205.500,162.000,198.500,220.500
1.761,205.500,162.000,198.000,220.000
1.762,206.000,162.500,198.000,220.000
1.763,206.000,162.500,197.500,219.500
1.764,206.500,163.000,197.500,219.500
1.765,206.000,163.000,197.000,219.000
1.766,206.500,163.500,197.000,219.500
1.767,206.000,163.500,197.000,219.000
1.768,206.500,164.000,197.500,219.500
1.769,206.500,164.000,197.000,219.000
1.770,207.000,164.500,197.500,219.500
1.771,206.500,164.000,197.500,219.000
1.772,206.500,164.500,197.500,219.500
1.773,206.000,164.000,197.000,219.000
1.774,206.500,164.500,197.000,219.000
1.775,206.000,164.000,196.000,218.500
1.776,206.500,164.000,196.000,218.000
1.777,206.000,164.000,195.500,217.500
1.778,206.500,164.000,195.500,217.500
1.779,206.000,164.000,195.500,217.500
1.780,206.000,165.000,196.500,218.000
1.781,205.500,165.000,197.500,218.000
1.782,206.000,166.500,199.000,219.500
1.783,205.500,167.000,200.500,220.500
1.784,206.000,169.000,203.000,222.000
1.785,205.500,170.000,205.000,223.500
1.786,206.000,172.500,208.000,225.500
1.787,206.000,174.000,210.000,226.500
1.788,206.500,175.500,212.500,228.000
1.789,206.000,176.500,214.000,228.500
1.790,206.000,177.000,215.000,229.000
1.791,205.500,177.000,215.500,229.000
1.792,205.500,177.500,216.000,229.000
1.793,204.500,177.000,216.000,228.000
1.794,204.500,176.500,216.000,227.500
1.795,204.000,175.500,215.500,226.000
1.796,204.000,175.000,215.500,225.000
1.797,203.500,174.000,214.500,223.000
1.798,204.000,173.000,213.500,221.500
1.799,203.500,171.500,212.500,219.000
1.800,204.000,170.500,212.000,218.000
1.801,204.000,169.500,211.000,216.500
1.802,204.500,169.000,210.500,216.000
1.803,204.500,168.500,210.000,215.000
1.804,204.500,168.500,210.500,214.500
1.805,204.000,168.000,210.500,214.000
1.806,204.000,168.000,211.500,214.500
1.807,203.000,167.500,212.000,214.000
1.808,203.000,168.000,213.500,214.500
1.809,202.000,168.000,214.000,214.000
1.810,202.000,168.500,215.500,214.500
1.811,201.500,168.500,216.000,214.000
1.812,201.500,169.500,217.000,214.500
1.813,201.000,169.500,217.500,214.000
1.814,201.000,170.500,218.500,214.000
1.815,200.000,170.500,218.500,213.000
1.816,200.000,171.500,219.500,213.000
1.817,199.500,171.500,219.000,212.000
1.818,200.000,172.000,219.500,211.500
1.819,200.000,172.000,219.500,210.500
1.820,200.500,172.500,219.500,210.000
1.821,200.500,172.500,219.500,208.500
1.822,201.500,173.500,220.000,208.500
1.823,201.000,173.500,220.000,207.500
1.824,201.500,174.000,220.500,207.500
1.825,201.500,174.000,220.000,207.000
1.826,201.500,174.500,220.500,207.000
1.827,201.000,174.000,220.000,206.500
1.828,201.500,174.500,220.500,207.000
1.829,201.000,174.000,220.500,206.500
1.830,201.500,175.000,221.500,206.500
1.831,201.000,175.000,221.500,206.000
1.832,201.000,175.500,222.000,206.000
1.833,200.500,175.500,222.000,205.500
1.834,201.000,176.500,222.500,205.500
1.835,201.000,176.500,222.500,205.000
1.836,202.000,177.000,223.000,204.500
1.837,202.000,177.000,222.500,204.000
1.838,202.500,178.000,223.000,204.000
1.839,202.000,178.000,223.000,203.000
1.840,202.500,179.000,223.500,203.000
1.841,202.000,179.000,223.500,202.500
1.842,202.500,180.000,224.000,202.500
1.843,202.000,180.000,223.500,202.000
1.844,202.000,180.500,224.000,202.000
1.845,201.500,180.500,223.500,201.500
1.846,202.000,181.500,223.500,201.500
1.847,201.500,182.000,223.500,201.000
1.848,202.000,183.000,224.500,201.500
1.849,201.500,183.500,224.500,201.000
1.850,202.000,184.500,225.000,201.000
1.851,201.500,185.000,225.000,200.500
1.852,202.000,186.000,226.000,200.500
1.853,202.000,186.500,226.000,200.000
1.854,203.000,187.000,226.500,199.500
1.855,203.000,186.500,226.000,198.000
1.856,204.000,186.500,226.000,197.500
1.857,203.500,186.000,225.500,196.500
1.858,204.000,186.000,225.000,196.000
1.859,204.000,185.500,224.500,194.500
1.860,204.500,186.000,224.500,194.500
1.861,204.000,186.000,224.000,193.500
1.862,204.500,187.000,224.500,194.000
1.863,204.500,187.000,224.500,193.500
1.864,205.000,188.000,225.000,193.000
1.865,205.000,188.000,224.500,192.000
1.866,205.500,188.500,225.500,192.000
1.867,205.000,188.500,225.500,191.000
1.868,205.500,189.000,226.000,190.500
1.869,205.000,188.500,226.000,189.500
1.870,205.500,189.000,226.500,189.500
1.871,205.000,188.500,226.500,188.500
1.872,205.500,189.000,227.000,188.000
1.873,205.000,188.500,226.500,186.500
1.874,205.500,189.000,227.000,186.000
1.875,205.000,188.500,226.500,185.000
1.876,205.500,188.500,226.500,184.500
1.877,205.500,188.000,226.000,183.000
1.878,206.000,188.000,226.000,182.500
1.879,206.000,187.000,226.000,181.000
1.880,206.500,187.000,226.000,180.500
1.881,206.000,186.500,226.000,179.500
1.882,206.000,187.000,226.000,179.000
1.883,205.000,186.500,226.000,178.000
1.884,205.000,187.000,226.000,178.000
1.885,204.500,186.500,225.500,177.000
1.886,205.000,186.500,226.000,176.500
1.887,204.500,186.000,225.500,176.000
1.888,205.000,186.000,225.500,176.000
1.889,205.000,185.500,225.000,175.500
1.890,205.500,185.500,225.000,176.000
1.891,205.500,185.000,224.500,175.500
1.892,206.000,185.500,225.000,176.000
1.893,206.000,185.000,225.000,175.500
1.894,206.500,185.500,225.500,175.500
1.895,206.500,185.500,225.000,174.500
1.896,207.000,186.000,225.500,174.500
1.897,207.000,185.500,224.500,173.500
1.898,207.000,186.000,225.000,173.000
1.899,206.500,186.000,224.500,172.500
1.900,206.500,186.000,225.000,172.000
1.901,206.000,185.500,224.500,171.500
1.902,206.000,186.000,225.000,171.500
1.903,205.500,185.500,224.500,171.000
1.904,206.000,185.500,225.500,171.000
1.905,206.000,185.500,225.500,170.500
1.906,206.500,185.500,226.000,170.500
1.907,206.000,185.000,226.000,170.000
1.908,206.000,185.000,226.500,170.000
1.909,205.500,184.500,226.500,169.500
1.910,205.500,185.000,226.500,169.500
1.911,204.500,184.500,226.000,169.000
1.912,204.500,185.000,226.500,169.000
1.913,204.000,185.000,226.000,168.500
1.914,204.000,185.500,226.500,168.500
1.915,203.500,185.500,226.500,168.000
1.916,204.000,186.000,227.000,168.500
1.917,203.500,186.000,226.500,168.000
1.918,203.500,186.000,226.500,168.000
1.919,203.000,186.000,226.000,167.000
1.920,203.000,186.000,226.000,167.000
1.921,203.000,185.500,225.500,166.000
1.922,203.500,186.000,225.000,166.000
1.923,203.000,185.500,224.500,165.000
1.924,203.500,185.500,225.000,165.500
1.925,203.500,185.000,225.000,165.000
1.926,203.500,185.500,225.500,165.500
1.927,203.000,185.500,225.000,165.500
1.928,203.500,186.500,225.500,165.500
1.929,203.000,186.500,225.500,165.000
1.930,203.000,186.500,225.500,165.500
1.931,202.500,186.500,225.000,165.000
1.932,202.500,186.500,225.000,165.000
1.933,202.500,186.500,224.500,164.500
1.934,202.500,186.500,224.500,164.500
1.935,202.000,186.000,224.000,164.000
1.936,202.500,186.000,224.500,164.500
1.937,202.000,185.500,224.000,164.000
1.938,202.000,185.500,224.000,164.000
1.939,201.500,185.000,223.500,163.000
1.940,201.500,185.500,223.500,163.000
1.941,201.000,185.000,223.000,162.500
1.942,201.000,185.000,223.000,162.500
1.943,200.500,184.000,222.500,162.000
1.944,201.000,184.000,222.500,162.000
1.945,200.500,183.500,222.500,162.000
1.946,201.000,183.500,223.000,163.000
1.947,200.500,183.000,223.000,163.000
1.948,201.000,183.500,224.000,163.500
1.949,201.000,183.000,224.500,164.000
1.950,201.500,183.500,225.000,164.500
1.951,201.500,183.500,225.000,164.500
1.952,202.000,184.500,225.500,164.500
1.953,201.500,184.500,225.500,164.000
1.954,202.000,185.000,225.500,164.500
1.955,201.500,185.000,225.000,164.000
1.956,201.500,185.000,225.500,164.000
1.957,201.500,185.000,225.000,163.500
1.958,201.500,185.500,225.500,164.000
1.959,201.000,185.000,225.000,164.000
1.960,201.000,185.500,225.500,164.500
1.961,200.500,185.500,225.500,164.500
1.962,201.000,185.500,226.000,165.000
1.963,200.500,185.000,225.500,165.000
1.964,201.000,185.000,226.500,165.500
1.965,201.000,185.000,226.500,165.500
1.966,201.500,185.500,227.000,166.500
1.967,201.500,185.500,226.500,166.500
1.968,202.000,186.000,227.000,167.000
1.969,201.500,186.000,227.000,167.000
1.970,201.500,186.500,227.500,167.500
1.971,201.000,186.500,227.000,167.000
1.972,201.000,187.000,227.500,167.000
1.973,200.500,187.000,227.500,166.500
1.974,200.500,187.500,227.500,167.000
1.975,200.000,187.000,227.000,167.000
1.976,200.500,187.000,227.000,167.500
1.977,200.000,186.500,226.500,167.000
1.978,201.000,186.500,226.500,167.000
1.979,201.000,185.500,225.500,166.500
1.980,201.500,186.000,226.000,166.500
1.981,201.500,185.500,225.500,166.000
1.982,202.000,186.000,225.500,166.000
1.983,201.500,186.000,225.500,166.000
1.984,201.500,186.000,226.000,166.500
1.985,201.000,186.000,225.500,166.500
1.986,201.000,186.000,226.000,167.000
1.987,200.500,185.500,225.500,166.500
1.988,200.500,186.000,226.000,167.000
1.989,200.000,185.500,225.500,167.500
1.990,200.000,185.500,226.000,168.000
1.991,200.000,185.000,226.000,168.500
1.992,200.000,185.500,226.500,169.500
1.993,200.000,185.000,226.500,169.500
1.994,200.000,185.000,227.000,170.000
1.995,200.000,184.500,227.000,170.000
1.996,200.000,184.500,227.500,170.000
1.997,200.000,184.000,227.500,170.000
1.998,200.500,184.500,227.500,170.500
1.999,200.500,184.000,227.000,170.500
2.000,201.000,184.500,227.500,171.000
2.001,201.000,184.500,227.000,171.500
2.002,201.500,185.500,227.500,172.500
2.003,201.500,185.500,227.000,173.000
2.004,202.000,186.500,228.000,174.000
2.005,202.000,186.500,228.000,174.500
2.006,202.500,187.500,229.000,175.000
2.007,202.000,187.500,229.500,175.500
2.008,202.000,188.000,231.000,176.000
2.009,201.500,188.000,231.500,176.000
2.010,201.500,189.000,232.500,176.500
2.011,201.000,189.000,232.500,177.000
2.012,201.500,190.000,233.500,177.500
2.013,201.000,190.000,233.000,177.500
2.014,201.500,190.500,233.000,178.000
2.015,201.000,190.000,232.000,178.000
2.016,201.000,190.500,232.000,178.000
2.017,200.500,190.500,231.000,177.500
2.018,201.000,190.500,231.000,178.000
2.019,201.000,190.500,231.000,177.500
2.020,201.500,191.000,231.500,178.000
2.021,201.000,191.000,231.500,178.000
2.022,201.500,191.500,232.000,179.000
2.023,201.000,191.000,232.000,179.000
2.024,201.000,191.500,232.500,179.500
2.025,200.500,191.000,232.500,179.500
2.026,200.500,191.000,233.000,180.500
2.027,200.000,190.500,232.500,180.500
2.028,200.500,191.000,232.500,181.000
2.029,200.500,190.500,231.500,181.000
2.030,200.500,190.500,230.500,181.500
2.031,200.000,190.000,229.500,181.000
2.032,200.000,190.000,229.000,181.500
2.033,199.500,189.500,228.000,181.000
2.034,199.500,189.500,228.000,181.000
2.035,198.500,189.000,227.500,180.500
2.036,198.500,188.500,228.000,180.500
2.037,198.000,188.000,228.000,180.500
2.038,198.500,188.000,228.500,180.500
2.039,198.000,187.500,228.000,180.000
2.040,198.500,187.500,228.500,180.000
2.041,198.500,187.000,228.500,179.500
2.042,199.000,187.000,228.500,180.000
2.043,199.000,187.000,228.500,179.500
2.044,200.000,187.000,229.000,180.000
2.045,200.000,187.000,229.000,180.500
2.046,200.500,187.500,229.500,181.000
2.047,200.000,187.500,229.000,181.000
2.048,200.500,188.000,229.500,182.000
2.049,200.000,188.000,229.000,182.000
2.050,200.000,188.500,229.000,182.500
2.051,199.000,188.500,229.000,182.500
2.052,199.500,188.500,229.500,183.500
2.053,199.000,188.000,229.000,183.500
2.054,199.500,188.500,229.500,184.000
2.055,199.000,188.000,229.500,184.000
2.056,199.500,188.500,229.500,184.500
2.057,199.000,188.000,229.000,184.000
2.058,199.500,188.500,229.500,184.000
2.059,199.500,188.000,229.000,184.000
2.060,199.500,188.500,229.500,184.000
2.061,199.500,188.000,229.500,184.000
2.062,199.500,188.000,230.000,184.000
2.063,199.500,187.500,229.500,184.000
2.064,199.500,187.500,230.000,184.500
2.065,199.500,186.500,230.000,184.500
2.066,200.000,187.000,230.500,184.500
2.067,200.000,186.500,230.000,184.500
2.068,200.500,187.000,230.000,184.500
2.069,200.500,186.500,229.500,184.500
2.070,201.500,187.000,229.500,185.500
2.071,201.500,187.000,229.000,185.500
2.072,201.500,187.500,229.500,186.500
2.073,201.000,187.000,229.000,186.500
2.074,201.500,187.500,229.500,187.500
2.075,201.000,187.500,229.000,187.000
2.076,201.000,187.500,229.000,187.500
2.077,200.500,187.000,228.500,186.500
2.078,201.000,187.000,228.500,186.500
2.079,201.000,186.500,228.000,186.000
2.080,201.500,187.000,228.500,186.500
2.081,201.500,186.500,228.500,186.000
2.082,202.500,187.000,229.000,186.500
2.083,202.500,186.500,228.500,186.500
2.084,203.000,187.500,229.500,187.500
2.085,203.000,187.500,229.500,187.500
2.086,203.500,188.000,230.500,188.500
2.087,203.000,188.000,231.000,189.000
2.088,203.500,188.500,232.000,190.000
2.089,203.500,188.500,231.500,190.000
2.090,203.500,188.500,232.000,190.500
2.091,203.000,188.000,231.000,190.500
2.092,203.000,188.000,231.500,190.500
2.093,202.500,187.500,231.000,190.000
2.094,202.500,188.000,231.000,190.000
2.095,202.500,187.500,230.500,190.000
2.096,202.500,187.500,231.000,190.500
2.097,202.500,187.000,230.500,190.000
2.098,203.000,187.500,231.000,190.500
2.099,202.500,187.500,230.500,190.500
2.100,203.000,188.000,230.500,191.000
2.101,203.000,187.500,229.500,190.500
2.102,203.000,187.500,229.500,191.000
2.103,202.500,187.000,229.000,191.000
2.104,202.500,187.500,229.500,191.000
2.105,202.000,187.500,229.500,190.500
2.106,202.000,187.500,230.000,191.000
2.107,201.000,187.000,230.000,191.000
2.108,201.000,187.500,230.500,192.000
2.109,200.500,187.000,230.000,192.500
2.110,201.000,187.500,230.500,193.000
2.111,200.500,187.000,230.500,193.000
2.112,200.500,187.500,231.000,194.000
2.113,200.000,187.000,231.000,193.500
2.114,200.000,187.500,231.500,194.000
2.115,199.500,187.500,231.000,194.000
2.116,200.000,188.000,231.500,194.500
2.117,199.500,187.500,231.000,194.000
2.118,200.000,187.500,231.000,194.500
2.119,200.000,186.500,230.500,194.000
2.120,200.500,186.000,230.000,194.000
2.121,200.500,185.000,229.000,193.500
2.122,201.500,185.000,229.000,193.000
2.123,201.000,184.000,228.000,192.500
2.124,201.500,184.000,228.000,192.500
2.125,201.500,183.500,227.500,192.500
2.126,201.500,184.000,227.500,193.000
2.127,201.500,183.500,227.500,193.000
2.128,202.000,184.000,228.000,193.500
2.129,201.500,183.500,228.000,193.500
2.130,202.000,184.000,228.500,194.000
2.131,201.500,183.500,228.000,193.500
2.132,202.000,184.000,228.500,194.000
2.133,201.500,184.000,228.000,194.000
2.134,201.500,184.000,228.000,194.500
2.135,201.000,184.000,228.000,194.500
2.136,201.500,184.000,228.500,195.000
2.137,201.500,184.000,228.500,194.500
2.138,202.500,184.000,229.500,195.000
2.139,202.500,184.000,229.000,194.500
2.140,202.500,184.000,229.500,194.500
2.141,202.000,183.500,229.000,193.500
2.142,202.000,183.500,229.000,193.500
2.143,201.500,183.000,228.500,193.000
2.144,201.500,182.500,228.500,193.000
2.145,201.000,182.000,228.000,193.000
2.146,201.000,182.000,228.500,193.500
2.147,200.500,181.000,228.500,193.500
2.148,201.000,181.000,228.500,194.000
2.149,200.500,180.500,228.000,194.000
2.150,200.500,180.000,228.000,194.000
2.151,200.000,179.500,227.500,193.500
2.152,200.500,180.000,228.000,194.000
2.153,200.000,180.000,228.000,193.500
2.154,200.500,181.000,229.000,194.000
2.155,200.000,181.000,229.000,194.000
2.156,200.500,182.000,230.000,195.000
2.157,200.500,182.000,230.000,195.000
2.158,200.500,182.500,230.500,195.500
2.159,200.000,182.000,230.000,195.000
2.160,200.000,182.000,230.000,194.500
2.161,199.500,181.000,229.000,194.000
2.162,200.000,180.500,229.000,194.000
2.163,200.000,180.000,228.500,194.000
2.164,200.500,180.000,229.000,194.500
2.165,200.000,180.000,229.000,194.500
2.166,200.500,180.500,229.500,195.000
2.167,200.500,181.000,230.000,195.500
2.168,200.500,182.000,231.000,196.000
2.169,200.000,182.000,231.500,196.500
2.170,200.500,182.500,232.500,197.000
2.171,200.000,182.500,233.000,197.000
2.172,200.500,183.000,234.000,197.500
2.173,200.500,183.000,234.000,197.500
2.174,200.500,183.000,234.500,198.000
2.175,200.500,183.000,234.500,197.500
2.176,201.000,183.500,235.500,197.500
2.177,201.000,183.000,235.000,197.000
2.178,201.500,183.500,235.500,197.000
2.179,201.500,183.000,235.000,196.500
2.180,202.000,183.000,235.500,196.500
2.181,201.500,182.500,234.500,196.000
2.182,202.000,182.500,235.000,196.500
2.183,201.500,182.000,234.500,196.500
2.184,202.500,182.500,235.000,197.000
2.185,202.500,182.000,234.500,197.000
2.186,203.500,182.000,235.000,197.500
2.187,203.500,181.500,234.500,197.500
2.188,204.500,182.000,235.000,198.000
2.189,204.000,181.500,234.500,197.500
2.190,204.500,182.000,234.500,198.000
2.191,204.500,181.500,234.000,198.000
2.192,205.000,182.000,234.000,198.500
2.193,205.000,181.500,234.000,198.000
2.194,205.500,181.500,234.500,198.500
2.195,205.000,181.000,234.500,198.000
2.196,205.500,181.500,235.000,198.000
2.197,205.000,181.000,234.500,197.500
2.198,205.000,181.000,235.000,198.000
2.199,205.000,181.000,235.000,197.500
2.200,205.500,181.500,235.000,198.000
2.201,205.000,181.500,234.500,197.500
2.202,205.500,182.000,235.000,197.500
2.203,205.000,181.500,235.000,197.000
2.204,205.000,182.000,235.000,197.500
2.205,204.500,181.500,234.500,197.000
2.206,205.000,181.500,235.000,197.000
2.207,204.500,181.000,234.500,196.500
2.208,204.500,181.000,235.000,196.500
2.209,203.500,181.000,235.000,196.500
2.210,203.500,182.000,235.500,197.000
2.211,203.000,182.500,236.000,197.000
2.212,203.000,183.500,237.000,198.000
2.213,202.500,184.000,237.500,198.500
2.214,203.000,185.000,238.500,200.000
2.215,203.000,186.000,239.000,201.000
2.216,204.000,187.000,240.500,203.000
2.217,204.500,188.000,241.500,204.000
2.218,205.500,189.000,243.500,205.500
2.219,205.500,190.000,245.000,206.500
2.220,206.500,191.500,247.500,208.000
2.221,206.500,192.500,248.500,208.500
2.222,207.000,193.500,250.000,209.500
2.223,207.000,194.000,250.500,209.500
2.224,207.000,194.500,251.000,210.000
2.225,206.500,194.000,250.000,209.500
2.226,207.000,194.000,249.500,209.000
2.227,206.000,193.000,247.500,208.000
2.228,206.000,192.000,246.500,207.500
2.229,205.000,191.000,244.500,206.000
2.230,205.500,190.000,243.000,205.000
2.231,205.000,188.500,240.500,203.000
2.232,205.000,187.500,239.000,202.000
2.233,204.500,186.000,237.000,200.000
2.234,205.000,185.500,236.500,199.500
2.235,205.000,184.500,235.000,198.500
2.236,205.500,184.500,234.500,198.500
2.237,205.500,184.000,234.000,198.000
2.238,206.000,184.000,234.000,198.000
2.239,206.000,184.000,233.000,197.500
2.240,206.500,184.500,233.000,197.500
2.241,206.000,184.000,232.000,197.000
2.242,206.500,184.000,232.000,196.500
2.243,206.000,184.000,231.500,196.000
2.244,206.000,184.000,231.500,196.000
2.245,206.000,184.000,231.500,196.000
2.246,206.500,184.500,232.500,197.000
2.247,206.500,185.000,232.500,197.000
2.248,207.000,186.000,234.000,198.500
2.249,207.000,186.500,234.000,199.000
2.250,207.500,187.500,235.500,200.000
2.251,207.500,187.500,236.000,200.000
2.252,207.500,188.500,237.000,201.000
2.253,207.500,188.500,237.500,201.000
2.254,207.500,189.000,238.500,201.500
2.255,207.500,188.500,239.000,201.000
2.256,208.000,189.500,239.500,201.500
2.257,208.500,189.500,239.500,201.500
2.258,209.000,190.000,240.000,202.000
2.259,209.000,190.000,239.500,201.500
2.260,209.500,190.000,240.000,201.000
2.261,209.500,189.500,239.000,200.500
2.262,209.500,189.500,239.000,200.000
2.263,209.000,188.500,238.500,199.500
2.264,209.500,188.500,238.500,200.000
2.265,209.000,187.500,238.000,200.000
2.266,209.000,187.000,238.000,201.000
2.267,209.000,186.000,237.500,201.000
2.268,209.500,185.500,237.000,202.000
2.269,209.500,184.500,236.000,202.000
2.270,210.500,184.500,235.500,202.500
2.271,210.500,183.500,234.500,202.500
2.272,211.000,183.000,234.000,203.000
2.273,211.000,182.500,232.500,202.500
2.274,211.500,182.000,232.000,202.500
2.275,211.000,181.500,230.500,201.500
2.276,211.500,181.500,230.500,201.000
2.277,211.500,180.500,229.000,200.000
2.278,212.000,180.500,229.000,200.000
2.279,211.500,180.000,228.000,199.500
2.280,212.000,180.000,228.000,199.500
2.281,211.500,179.500,227.000,199.000
2.282,212.000,180.000,227.000,199.500
2.283,211.500,179.500,226.500,199.000
2.284,211.500,179.500,226.500,199.500
2.285,211.000,179.000,226.000,199.000
2.286,211.000,179.000,226.000,199.000
2.287,211.000,178.500,225.000,198.500
2.288,211.000,178.500,225.500,198.500
2.289,210.500,178.000,225.000,198.500
2.290,211.000,178.500,225.000,199.000
2.291,210.500,178.000,224.500,199.000
2.292,211.000,178.500,224.500,199.500
2.293,211.000,178.000,224.000,199.500
2.294,211.000,178.000,224.500,199.500
2.295,211.000,177.500,224.500,199.000
2.296,211.000,178.000,225.000,199.000
2.297,210.500,178.000,225.000,198.500
2.298,211.000,178.000,225.000,198.000
2.299,210.500,177.000,224.000,197.000
2.300,210.500,176.500,223.500,196.000
2.301,210.500,175.000,221.500,194.000
2.302,210.500,174.500,220.500,193.000
2.303,210.500,173.500,219.000,191.500
2.304,210.500,173.000,218.000,190.000
2.305,210.500,173.000,216.500,188.500
2.306,210.500,174.000,216.500,188.000
2.307,210.500,174.500,216.000,187.000
2.308,210.500,176.000,217.000,187.000
2.309,210.500,177.000,217.500,187.000
2.310,211.000,178.500,219.000,188.000
2.311,210.500,179.500,219.500,188.000
2.312,211.000,180.000,220.500,188.500
2.313,210.500,180.000,220.500,188.500
2.314,210.500,180.500,221.000,189.000
2.315,210.000,180.000,220.500,189.000
2.316,210.000,180.500,220.000,189.000
2.317,209.000,180.000,219.000,188.000
2.318,209.500,179.500,218.500,188.000
2.319,209.000,179.000,217.000,187.000
2.320,209.500,179.000,217.000,187.000
2.321,209.000,178.500,216.000,186.000
2.322,209.000,178.500,216.000,186.000
2.323,208.500,178.500,216.000,185.000
2.324,208.500,179.000,216.500,185.000
2.325,208.000,179.500,216.500,184.000
2.326,208.000,180.000,217.000,184.500
2.327,207.500,180.500,217.000,184.000
2.328,208.000,181.000,218.000,185.000
2.329,208.000,181.500,218.500,185.000
2.330,208.500,182.500,219.500,186.000
2.331,208.500,183.000,219.500,186.000
2.332,209.000,184.000,220.500,186.500
2.333,209.000,184.000,220.500,186.000
2.334,209.500,184.500,221.000,186.000
2.335,209.500,184.000,220.500,185.500
2.336,210.000,184.000,220.500,185.500
2.337,209.500,183.000,220.000,184.500
2.338,210.000,183.500,219.500,184.500
2.339,209.500,183.000,219.000,184.000
2.340,209.500,184.000,219.500,184.500
2.341,209.000,184.000,220.000,184.500
2.342,209.000,185.000,221.000,185.500
2.343,208.500,185.500,222.000,185.500
2.344,208.500,187.000,223.000,186.500
2.345,208.000,187.500,224.000,186.500
2.346,208.000,188.500,225.000,187.500
2.347,207.500,189.000,225.500,187.500
2.348,208.000,190.000,226.500,187.500
2.349,207.500,190.500,226.500,187.500
2.350,208.000,191.500,227.500,187.500
2.351,207.500,191.500,227.000,187.000
2.352,207.500,192.000,227.500,187.000
2.353,207.000,191.500,226.500,186.500
2.354,207.500,192.000,226.500,186.500
2.355,207.000,191.500,225.500,186.500
2.356,208.000,191.500,225.500,186.500
2.357,208.000,190.500,225.000,186.500
2.358,209.000,190.500,225.000,187.000
2.359,209.000,190.000,224.500,187.000
2.360,210.000,189.500,224.500,187.500
2.361,210.000,188.500,224.000,187.500
2.362,210.500,188.500,224.500,187.500
2.363,210.000,188.000,224.000,187.000
2.364,210.500,188.500,224.000,187.500
2.365,210.500,188.000,223.500,187.000
2.366,211.000,188.500,224.000,187.500
2.367,211.000,189.000,224.000,187.500
2.368,211.500,190.000,225.000,188.500
2.369,211.000,190.000,225.000,189.000
2.370,211.500,191.000,225.500,189.500
2.371,211.500,191.500,225.500,189.500
2.372,211.500,192.500,226.500,190.000
2.373,210.500,192.500,226.500,190.000
2.374,211.000,193.500,227.500,190.500
2.375,210.500,194.000,227.500,190.500
2.376,210.500,194.500,228.000,191.000
2.377,210.000,194.000,227.500,190.500
2.378,210.500,194.500,228.000,191.000
2.379,210.000,194.000,227.500,190.500
2.380,210.500,194.000,227.500,190.500
2.381,210.500,193.500,227.500,190.500
2.382,211.000,194.000,228.000,191.000
2.383,211.000,194.000,227.500,191.000
2.384,211.500,194.500,228.000,191.500
2.385,211.000,194.500,228.000,191.500
2.386,211.000,195.000,228.500,192.500
2.387,210.000,194.500,228.000,192.500
2.388,210.000,195.000,228.500,193.000
2.389,209.500,194.500,228.500,192.500
2.390,209.500,194.500,229.000,193.000
2.391,209.000,194.000,229.000,193.000
2.392,209.500,194.000,229.000,193.500
2.393,209.000,193.500,229.000,193.000
2.394,209.500,194.000,229.000,193.500
2.395,209.000,193.500,228.500,193.500
2.396,209.000,194.000,229.000,193.500
2.397,208.500,194.000,229.000,193.000
2.398,208.500,194.500,229.500,193.000
2.399,208.000,194.000,229.000,192.500
2.400,208.000,194.500,229.000,192.500
2.401,208.000,194.000,229.000,192.500
2.402,208.500,194.500,229.000,193.000
2.403,208.500,194.500,228.500,193.000
2.404,209.000,195.000,229.000,194.000
2.405,208.500,195.000,228.500,195.000
2.406,209.000,195.500,228.500,196.500
2.407,209.000,195.500,228.000,197.500
2.408,210.000,195.500,228.000,199.000
2.409,210.000,194.500,227.500,200.500
2.410,211.000,193.500,227.000,202.000
2.411,211.000,191.500,226.000,203.000
2.412,212.000,189.500,224.500,203.500
2.413,212.500,187.000,222.000,203.500
2.414,213.500,184.500,219.500,203.500
2.415,214.000,181.000,215.500,202.500
2.416,215.500,177.500,212.000,201.500
2.417,216.000,173.500,206.500,199.000
2.418,217.500,169.500,201.500,197.000
2.419,218.000,165.000,195.500,194.500
2.420,219.500,161.000,190.000,192.500
2.421,220.500,156.500,184.500,190.000
2.422,222.000,152.500,180.000,189.000
2.423,222.500,148.000,174.500,187.000
2.424,224.500,143.500,169.000,185.500
2.425,225.500,137.500,161.000,182.500
2.426,228.000,130.000,152.000,178.000
2.427,230.000,121.000,140.500,171.500
2.428,233.000,112.000,128.000,164.500
2.429,235.500,101.500,113.500,155.500
2.430,239.000,92.500,100.500,147.000
2.431,241.000,83.500,88.000,138.000
2.432,243.500,77.000,78.000,131.500
2.433,244.500,72.500,70.500,126.000
2.434,245.500,70.500,67.000,122.500
2.435,245.500,70.000,66.000,120.500
2.436,245.500,72.000,67.500,120.000
2.437,244.500,74.500,70.500,120.000
2.438,244.500,79.000,76.000,121.500
2.439,243.000,84.000,81.500,122.500
2.440,242.000,90.000,89.000,124.000
2.441,240.000,96.000,96.000,125.500
2.442,238.500,103.000,104.000,127.000
2.443,236.500,110.000,112.000,128.500
2.444,234.500,117.500,120.500,130.500
2.445,232.000,124.500,128.500,132.500
2.446,230.500,132.500,138.000,135.500
2.447,228.000,139.500,147.000,139.000
2.448,226.000,147.500,157.500,144.000
2.449,223.000,155.000,167.500,148.500
2.450,220.500,163.500,179.000,154.500
2.451,217.500,171.000,189.000,159.000
2.452,215.000,178.500,199.500,163.500
2.453,212.500,185.000,208.000,166.000
2.454,211.000,191.000,215.500,168.500
2.455,209.500,195.500,221.000,169.500
2.456,208.500,199.500,225.500,170.500
2.457,207.000,202.000,228.500,171.000
2.458,206.500,204.500,231.500,171.500
2.459,205.000,205.500,233.000,172.000
2.460,205.000,206.500,235.000,173.500
2.461,204.000,206.500,236.500,175.000
2.462,204.500,207.000,238.500,177.500
2.463,204.000,206.000,239.500,179.500
2.464,204.500,206.000,240.500,182.000
2.465,204.500,205.000,241.000,183.500
2.466,205.000,204.000,241.500,185.500
2.467,204.500,203.000,240.500,187.000
2.468,205.000,202.000,240.500,188.500
2.469,204.500,201.000,240.000,189.000
2.470,205.000,201.000,240.000,190.500
2.471,205.000,200.500,239.500,191.000
2.472,205.500,200.500,239.500,192.000
2.473,205.000,200.000,238.500,192.000
2.474,205.000,200.000,238.500,193.000
2.475,204.500,199.500,238.000,193.000
2.476,204.500,199.500,238.000,193.500
2.477,204.000,198.500,237.500,193.500
2.478,204.500,198.500,238.000,194.000
2.479,204.000,198.000,238.000,194.000
2.480,204.000,198.500,238.500,194.000
2.481,203.500,198.000,238.500,193.500
2.482,203.500,198.500,239.000,193.500
2.483,203.000,198.500,238.500,193.500
2.484,203.000,199.000,238.500,194.000
2.485,202.500,198.500,238.000,193.500
2.486,203.000,199.000,238.500,194.500
2.487,203.000,198.500,238.500,194.500
2.488,204.000,199.000,239.000,195.500
2.489,203.500,199.000,239.000,195.500
2.490,204.000,199.000,239.500,196.000
2.491,204.000,199.000,239.500,196.000
2.492,204.000,199.500,240.000,197.000
2.493,203.500,199.000,240.000,197.000
2.494,204.000,198.500,240.000,197.000
2.495,204.000,197.500,239.000,196.500
2.496,204.500,197.500,238.500,197.000
2.497,204.500,196.500,237.000,196.000
2.498,205.500,196.000,236.500,196.000
2.499,205.500,195.500,235.500,195.000
2.500,206.000,195.500,235.000,194.500
2.501,206.000,195.000,234.500,194.000
2.502,206.000,195.000,234.500,194.000
2.503,205.500,194.500,234.500,193.000
2.504,206.000,194.500,234.500,193.500
2.505,205.000,194.000,234.000,193.000
2.506,205.000,194.000,234.000,193.500
2.507,204.500,193.000,233.500,193.000
2.508,204.500,193.000,233.500,193.500
2.509,204.000,192.500,232.500,193.500
2.510,204.000,192.500,233.000,194.000
2.511,203.500,192.500,233.000,194.500
2.512,204.000,193.000,233.500,195.000
2.513,204.000,193.000,233.500,195.500
2.514,204.000,193.500,234.500,196.000
2.515,203.000,193.500,234.000,196.000
2.516,203.000,194.000,234.500,196.000
2.517,202.000,193.500,234.000,195.500
2.518,202.000,193.500,234.000,195.500
2.519,201.000,193.000,233.500,194.500
2.520,201.000,193.000,233.500,194.000
2.521,200.500,192.500,232.500,193.500
2.522,201.000,192.500,233.000,193.000
2.523,200.500,192.500,232.500,192.500
2.524,201.500,193.000,233.000,192.000
2.525,201.500,193.000,232.500,191.500
2.526,202.000,194.000,233.000,192.000
2.527,202.000,194.000,232.500,191.500
2.528,202.500,195.000,233.500,192.000
2.529,202.000,195.500,233.500,192.000
2.530,202.000,196.000,234.000,193.000
2.531,201.500,195.500,234.000,193.000
2.532,201.500,196.000,234.500,193.500
2.533,201.500,196.000,234.500,193.500
2.534,202.000,196.000,234.500,193.500
2.535,202.000,195.000,233.500,193.000
2.536,202.500,195.000,233.500,193.000
2.537,202.500,194.500,232.500,192.500
2.538,203.000,195.000,232.000,192.000
2.539,202.500,194.500,231.500,191.000
2.540,203.000,195.500,231.500,190.500
2.541,203.000,195.500,231.000,189.500
2.542,203.500,196.500,231.500,189.500
2.543,203.000,197.000,231.000,189.500
2.544,203.000,197.500,231.000,190.000
2.545,202.000,197.500,230.500,189.500
2.546,202.000,198.500,231.000,190.000
2.547,201.500,198.500,231.000,190.000
2.548,201.500,199.000,231.000,190.000
2.549,201.500,198.500,231.000,190.000
2.550,202.000,199.000,231.000,190.000
2.551,202.000,199.000,231.000,190.000
2.552,202.500,199.500,231.500,190.000
2.553,202.500,199.000,231.500,190.000
2.554,203.000,199.500,232.000,190.000
2.555,202.000,199.000,231.500,189.500
2.556,202.000,199.000,231.500,189.500
2.557,201.500,198.500,231.000,188.500
2.558,202.000,199.000,231.000,188.500
2.559,201.500,198.500,230.000,187.500
2.560,202.000,199.000,229.500,187.000
2.561,202.000,198.500,229.000,186.500
2.562,202.500,199.000,229.000,186.500
2.563,202.500,198.500,228.000,186.000
2.564,203.000,199.500,228.000,186.500
2.565,203.000,199.500,227.500,186.500
2.566,203.500,199.500,228.000,187.000
2.567,203.000,199.000,227.500,186.500
2.568,202.500,199.500,228.000,187.000
2.569,201.500,199.500,227.500,187.000
2.570,201.500,200.000,228.000,188.000
2.571,200.500,199.500,227.500,188.000
2.572,200.000,199.500,228.000,188.000
2.573,199.500,198.500,228.000,187.500
2.574,199.500,198.500,228.500,188.000
2.575,199.000,197.500,228.500,187.500
2.576,199.500,197.000,228.500,187.000
2.577,199.000,196.500,228.000,186.000
2.578,199.500,196.500,228.500,186.000
2.579,199.000,195.500,228.000,185.000
2.580,199.500,195.500,228.000,185.000
2.581,199.500,195.000,227.500,184.000
2.582,200.500,195.000,228.000,184.000
2.583,200.500,194.000,228.000,183.500
2.584,201.000,194.000,228.500,184.000
2.585,201.000,193.500,228.000,183.500
2.586,201.500,194.000,228.500,184.000
2.587,201.000,193.500,228.500,183.500
2.588,201.500,194.000,228.500,184.000
2.589,201.500,193.500,228.000,184.000
2.590,202.000,194.000,228.000,184.000
2.591,202.000,193.500,227.500,184.000
2.592,202.500,193.500,227.000,184.000
2.593,202.500,192.500,226.000,183.500
2.594,203.000,192.500,225.500,183.500
2.595,203.000,192.000,224.500,183.000
2.596,203.500,192.000,223.500,183.000
2.597,203.000,192.000,222.000,182.500
2.598,203.500,192.000,221.500,183.000
2.599,203.500,192.000,220.500,182.500
2.600,204.000,192.500,220.000,183.000
2.601,204.000,192.500,219.500,182.500
2.602,204.000,193.000,219.500,183.000
2.603,204.000,192.500,219.000,183.000
2.604,204.000,193.000,219.500,183.500
2.605,204.000,192.500,219.500,183.500
2.606,204.000,192.500,220.000,184.000
2.607,204.000,192.000,220.000,184.000
2.608,204.500,192.000,220.500,184.500
2.609,204.500,191.500,220.000,184.500
2.610,205.000,191.500,220.000,185.500
2.611,205.000,190.500,219.500,185.000
2.612,205.500,190.500,219.000,185.500
2.613,205.000,190.000,218.000,185.500
2.614,205.500,190.000,218.000,186.000
2.615,205.000,189.500,217.500,186.000
2.616,205.500,189.500,218.000,186.500
2.617,205.500,189.000,217.500,186.500
2.618,206.000,189.000,217.500,187.000
2.619,206.000,188.000,217.000,187.000
2.620,206.500,188.000,217.000,187.500
2.621,206.000,187.000,216.000,187.500
2.622,206.500,187.000,216.500,188.000
2.623,206.500,186.500,216.000,188.000
2.624,207.000,187.000,216.500,189.000
2.625,207.000,186.500,216.000,189.500
2.626,207.500,186.500,216.500,190.500
2.627,207.000,185.500,215.500,191.000
2.628,207.000,185.500,215.500,192.000
2.629,206.500,184.500,214.500,192.500
2.630,207.000,184.500,214.500,193.500
2.631,206.500,183.500,213.000,194.000
2.632,207.000,183.000,213.000,194.500
2.633,207.000,182.000,212.000,194.500
2.634,207.500,181.500,212.000,195.000
2.635,207.500,180.500,211.000,194.500
2.636,207.500,180.000,210.500,194.000
2.637,207.000,179.500,210.000,193.000
2.638,207.500,179.000,209.500,193.000
2.639,207.000,178.000,208.500,192.000
2.640,207.000,177.500,208.000,191.500
2.641,207.000,176.500,207.000,191.000
2.642,207.500,176.000,206.500,191.000
2.643,207.000,175.000,205.500,190.500
2.644,207.500,175.000,205.000,191.000
2.645,207.500,174.000,204.500,191.500
2.646,207.500,174.500,204.500,192.500
2.647,207.500,175.000,204.000,193.500
2.648,207.500,176.000,205.000,195.000
2.649,207.500,176.500,205.500,196.000
2.650,207.500,178.500,207.000,197.500
2.651,207.500,179.500,208.000,199.000
2.652,207.500,181.000,209.500,200.500
2.653,207.500,182.000,210.500,201.000
2.654,208.000,183.000,211.500,202.000
2.655,208.000,183.000,211.500,202.000
2.656,208.500,183.500,212.000,202.500
2.657,208.500,183.500,211.500,202.000
2.658,209.000,183.500,211.000,201.500
2.659,209.000,183.000,210.000,200.500
2.660,209.500,183.000,209.500,199.500
2.661,209.000,182.000,208.000,198.000
2.662,209.500,181.500,207.500,197.000
2.663,209.000,180.000,205.500,195.500
2.664,209.000,179.500,204.500,194.500
2.665,208.500,178.000,203.000,192.500
2.666,208.500,177.000,201.500,191.500
2.667,208.000,176.000,200.000,190.000
2.668,208.000,175.500,199.000,189.000
2.669,208.000,175.000,198.000,187.500
2.670,208.500,175.500,198.000,187.500
2.671,208.500,175.500,197.500,187.000
2.672,209.000,176.500,198.000,187.500
2.673,209.000,176.500,197.500,187.500
2.674,209.500,177.000,198.000,188.000
2.675,209.000,177.000,197.500,187.500
2.676,209.500,177.500,197.500,188.000
2.677,209.500,177.000,196.500,187.500
2.678,210.000,177.500,196.500,187.500
2.679,209.500,177.500,195.500,187.000
2.680,210.000,178.000,195.000,187.000
2.681,209.500,177.500,194.500,186.500
2.682,210.000,178.000,194.000,186.500
2.683,210.000,177.500,193.500,186.000
2.684,210.500,177.500,193.500,186.000
2.685,210.500,177.500,193.000,185.000
2.686,211.000,178.000,193.000,185.500
2.687,210.500,178.000,193.000,185.000
2.688,211.000,178.500,193.500,185.500
2.689,211.000,178.500,193.500,185.500
2.690,211.500,179.000,194.000,186.000
2.691,211.000,178.500,194.000,185.500
2.692,211.500,178.500,194.500,185.500
2.693,211.000,177.500,194.000,185.000
2.694,211.000,177.500,194.000,185.000
2.695,210.500,177.000,193.500,184.500
2.696,211.000,177.000,194.000,185.000
2.697,210.500,176.500,193.500,185.000
2.698,211.000,177.000,194.000,186.000
2.699,210.500,177.000,194.000,186.000
2.700,211.000,177.500,195.000,187.000
2.701,211.000,177.500,195.000,187.000
2.702,211.500,178.000,196.500,187.500
2.703,211.000,178.000,197.000,187.500
2.704,211.500,178.500,198.000,188.000
2.705,211.500,178.500,198.500,188.000
2.706,212.000,178.500,199.500,188.500
2.707,212.000,178.000,199.500,188.500
2.708,213.000,178.000,200.500,189.000
2.709,213.000,177.500,200.500,188.500
2.710,213.500,177.500,201.500,189.000
2.711,213.500,177.000,201.500,189.000
2.712,214.000,177.500,203.000,189.500
2.713,214.000,177.500,203.500,189.500
2.714,214.500,178.000,205.500,190.000
2.715,214.000,178.000,206.500,189.500
2.716,214.000,178.500,208.000,190.000
2.717,213.000,178.000,208.500,189.500
2.718,213.500,178.500,209.500,189.000
2.719,213.000,178.000,209.500,188.000
2.720,213.000,178.500,209.500,188.000
2.721,212.500,178.500,209.000,187.000
2.722,212.500,178.500,209.500,187.000
2.723,211.500,178.000,209.000,186.000
2.724,211.000,178.500,209.500,186.000
2.725,210.500,178.500,209.500,185.500
2.726,210.500,179.500,210.500,185.500
2.727,210.000,179.500,211.000,185.000
2.728,210.000,180.500,212.000,185.500
2.729,210.000,181.000,212.500,185.500
2.730,210.500,182.000,213.500,186.000
2.731,210.500,182.000,214.000,186.000
2.732,211.000,182.500,215.500,186.500
2.733,211.000,182.500,216.500,186.500
2.734,211.000,183.500,218.000,187.000
2.735,210.500,183.000,219.000,187.000
2.736,210.000,183.500,220.000,187.000
2.737,209.000,183.500,220.500,186.500
2.738,208.500,184.000,221.000,187.000
2.739,207.500,184.000,220.500,186.500
2.740,207.500,185.000,221.000,186.500
2.741,207.000,185.000,220.500,186.000
2.742,207.000,185.500,220.500,186.000
2.743,206.000,185.500,220.000,185.500
2.744,206.000,186.000,220.500,185.500
2.745,205.500,186.000,220.500,185.000
2.746,205.500,187.000,221.500,185.000
2.747,205.500,187.500,222.000,185.000
2.748,206.000,188.500,223.000,185.000
2.749,206.000,189.000,223.000,184.500
2.750,206.500,189.000,223.500,185.000
2.751,206.500,188.500,222.500,184.500
2.752,207.000,188.500,222.500,184.500
2.753,207.000,187.500,221.500,183.500
2.754,207.000,188.000,221.500,183.500
2.755,206.500,187.500,220.500,183.000
2.756,206.500,188.000,220.500,183.000
2.757,205.500,188.000,220.000,182.500
2.758,205.000,188.500,220.000,182.500
2.759,204.500,188.500,219.000,182.000
2.760,204.500,188.500,218.500,182.000
2.761,204.500,188.500,218.000,181.000
2.762,204.500,189.000,218.000,181.000
2.763,204.500,189.500,218.000,180.000
2.764,205.000,190.500,219.000,180.500
2.765,204.500,191.000,219.500,180.000
2.766,205.000,192.000,221.000,180.500
2.767,204.500,192.000,221.500,180.500
2.768,205.000,192.500,222.500,181.000
2.769,204.500,192.500,222.000,180.500
2.770,205.000,192.500,222.500,180.500
2.771,204.500,192.000,222.000,180.000
2.772,204.500,192.000,222.000,179.500
2.773,204.000,191.500,221.000,178.500
2.774,204.000,192.000,221.000,178.500
2.775,203.500,191.500,220.000,177.500
2.776,203.500,192.000,220.000,177.500
2.777,203.500,191.500,219.000,176.500
2.778,204.000,192.000,219.500,176.500
2.779,203.500,192.000,219.000,176.000
2.780,204.000,192.500,220.000,176.000
2.781,204.000,192.500,220.000,175.500
2.782,204.000,193.000,221.000,175.500
2.783,203.500,193.000,221.000,175.000
2.784,203.500,193.500,221.500,175.000
2.785,203.000,193.000,221.000,175.000
2.786,203.000,193.500,221.000,175.000
2.787,202.500,193.000,220.500,174.500
2.788,203.000,193.000,220.500,174.500
2.789,202.500,192.500,219.500,174.000
2.790,203.000,192.500,219.500,173.500
2.791,203.000,191.500,218.500,172.500
2.792,203.500,191.500,218.500,172.000
2.793,203.000,190.500,217.500,171.000
2.794,203.500,190.000,218.000,171.000
2.795,203.000,189.000,217.500,170.500
2.796,203.000,188.500,218.000,170.500
2.797,202.500,188.000,218.000,170.500
2.798,202.500,188.500,218.000,170.500
2.799,202.000,188.000,217.000,170.500
2.800,202.500,188.000,216.500,170.500
2.801,202.000,187.000,215.500,169.500
2.802,202.500,187.000,215.000,170.000
2.803,202.500,186.000,214.000,169.500
2.804,203.000,185.500,214.500,170.000
2.805,202.500,185.000,214.500,170.000
2.806,203.000,185.500,215.500,170.500
2.807,202.500,185.500,216.000,171.000
2.808,202.500,186.500,217.500,171.500
2.809,202.000,186.500,218.500,171.500
2.810,202.000,187.500,220.000,172.000
2.811,201.500,187.500,220.500,172.000
2.812,201.500,188.000,221.000,172.500
2.813,201.000,188.000,221.000,172.500
2.814,201.500,188.000,221.000,173.000
2.815,201.500,187.500,220.000,172.500
2.816,202.000,188.000,219.500,172.500
2.817,201.500,187.000,218.500,171.500
2.818,202.000,187.000,218.000,171.500
2.819,201.500,186.500,217.500,171.000
2.820,202.000,187.000,217.500,170.500
2.821,201.500,186.500,217.500,170.000
2.822,201.500,187.500,218.000,170.500
2.823,201.500,187.500,218.000,170.500
2.824,201.500,188.500,219.000,171.000
2.825,201.000,188.500,219.500,171.000
2.826,201.500,189.000,220.500,171.500
2.827,201.000,189.000,220.500,171.000
2.828,201.500,189.000,221.000,171.500
2.829,201.500,188.500,220.500,171.000
2.830,202.000,188.500,220.500,171.000
2.831,201.500,188.000,219.500,170.500
2.832,202.000,188.000,219.500,170.500
2.833,201.500,187.500,219.000,170.000
2.834,201.500,188.000,219.000,170.500
2.835,201.000,188.000,218.500,170.000
2.836,201.000,188.500,219.000,170.500
2.837,200.500,188.500,219.000,170.000
2.838,201.000,189.500,219.500,170.500
2.839,200.500,189.500,219.000,170.000
2.840,200.500,189.500,219.000,170.000
2.841,200.500,189.000,218.000,169.000
2.842,201.000,189.500,218.000,169.000
2.843,201.000,189.000,217.000,168.000
2.844,202.000,189.000,217.500,168.500
2.845,202.000,188.500,217.000,168.000
2.846,203.000,189.000,218.000,168.500
2.847,203.500,188.500,218.500,168.500
2.848,204.000,189.000,219.500,169.500
2.849,203.500,189.000,219.500,169.500
2.850,204.000,189.000,219.500,170.000
2.851,203.500,188.500,219.000,170.000
2.852,204.000,188.500,219.000,170.500
2.853,203.500,188.000,218.500,170.000
2.854,203.500,188.000,218.500,169.500
2.855,203.000,187.000,217.500,169.000
2.856,203.500,187.000,217.500,168.500
2.857,203.500,186.000,216.500,168.000
2.858,204.000,186.000,216.500,168.000
2.859,203.500,185.500,215.500,167.500
2.860,204.000,185.500,215.000,167.500
2.861,203.500,184.500,214.000,167.000
2.862,203.500,184.500,214.000,167.000
2.863,203.500,183.500,213.000,166.500
2.864,203.500,183.500,213.000,166.500
2.865,203.000,183.000,212.500,166.000
2.866,203.500,183.000,213.000,166.500
2.867,203.000,183.000,213.000,167.000
2.868,203.000,184.000,214.000,168.000
2.869,202.500,184.000,214.000,168.500
2.870,203.000,184.500,215.000,169.500
2.871,203.000,183.500,214.500,169.500
2.872,203.500,183.500,214.500,170.000
2.873,203.500,182.500,213.500,169.500
2.874,204.000,182.000,213.000,169.500
2.875,204.000,181.000,212.000,168.500
2.876,204.500,181.000,212.000,168.500
2.877,204.000,180.500,211.000,168.000
2.878,204.500,180.500,211.500,168.000
2.879,204.000,180.000,211.000,167.500
2.880,204.500,180.000,211.500,167.500
2.881,204.000,179.500,211.500,167.000
2.882,204.000,180.000,212.500,167.500
2.883,203.500,179.500,213.000,167.500
2.884,204.000,180.000,214.000,168.000
2.885,204.000,180.000,214.500,168.500
2.886,204.500,180.500,215.500,169.500
2.887,204.000,180.500,215.500,169.500
2.888,204.000,181.000,216.000,170.000
2.889,203.500,181.000,216.000,170.500
2.890,204.000,182.000,217.000,171.000
2.891,203.500,182.000,217.500,170.500
2.892,204.000,182.500,218.500,171.000
2.893,203.500,182.000,218.500,170.500
2.894,204.500,182.500,219.000,170.500
2.895,204.500,182.000,218.500,170.000
2.896,205.000,181.500,218.500,170.000
2.897,204.500,181.000,217.500,169.500
2.898,205.000,180.500,217.000,169.500
2.899,205.000,180.000,216.000,169.000
2.900,205.000,180.000,215.500,169.000
2.901,205.000,179.000,215.000,169.000
2.902,205.500,179.000,215.000,169.000
2.903,205.500,178.000,214.500,169.000
2.904,206.000,178.000,215.000,169.000
2.905,206.000,177.000,214.500,169.000
2.906,206.500,177.000,215.000,169.500
2.907,206.500,176.500,214.500,169.000
2.908,207.000,176.500,215.000,169.500
2.909,206.500,176.500,215.000,169.500
2.910,207.000,177.000,215.500,170.000
2.911,207.000,177.000,215.500,170.000
2.912,207.500,177.500,216.000,171.000
2.913,207.000,177.500,216.000,171.000
2.914,208.000,177.500,216.000,171.500
2.915,208.000,177.000,215.500,171.000
2.916,208.500,177.000,215.500,171.000
2.917,208.500,176.500,214.500,170.000
2.918,209.000,177.000,214.500,170.000
2.919,208.500,176.500,213.500,169.000
2.920,209.000,176.500,213.500,169.000
2.921,208.500,176.500,213.000,168.000
2.922,208.500,176.500,213.500,168.000
2.923,208.000,176.500,213.000,167.500
2.924,208.500,176.500,213.500,168.000
2.925,208.500,176.500,213.500,167.500
2.926,209.000,176.500,214.000,168.000
2.927,209.000,176.000,213.500,167.500
2.928,209.500,176.500,214.000,167.500
2.929,209.500,176.000,213.500,167.000
2.930,210.000,176.000,214.000,167.500
2.931,210.000,176.000,214.000,167.000
2.932,210.500,176.500,215.000,167.500
2.933,210.500,176.500,215.500,167.500
2.934,210.500,177.000,216.000,168.000
2.935,210.000,177.000,216.000,167.500
2.936,210.000,177.500,216.000,167.500
2.937,209.000,177.000,215.500,167.000
2.938,209.000,177.000,215.500,166.500
2.939,208.500,176.500,214.500,165.500
2.940,209.000,176.000,215.000,165.500
2.941,209.000,175.500,214.500,164.500
2.942,210.000,175.500,214.500,164.500
2.943,210.000,175.500,214.000,164.000
2.944,210.500,175.500,214.500,164.000
2.945,210.500,175.500,214.000,163.500
2.946,211.500,176.000,214.500,163.500
2.947,211.500,175.500,214.500,163.000
2.948,211.500,176.000,215.000,163.500
2.949,211.500,175.500,214.500,163.000
2.950,211.500,175.500,215.000,163.500
2.951,211.500,175.000,215.000,163.000
2.952,211.500,175.000,215.500,163.500
2.953,211.500,174.500,215.000,163.000
2.954,211.500,175.000,215.500,163.500
2.955,211.000,175.000,215.500,163.000
2.956,211.000,175.500,216.000,163.500
2.957,210.500,175.000,216.500,163.500
2.958,210.500,175.500,217.000,163.500
2.959,210.000,175.000,217.000,163.500
2.960,210.500,175.000,217.500,164.000
2.961,210.000,174.000,217.500,164.000
2.962,210.500,174.000,217.500,164.500
2.963,210.000,173.500,217.000,164.000
2.964,210.500,173.500,217.000,164.500
2.965,210.000,172.500,216.000,164.000
2.966,210.000,172.500,216.000,164.000
2.967,210.000,171.500,215.000,164.000
2.968,210.000,172.000,215.500,164.000
2.969,209.500,171.500,215.000,164.000
2.970,210.000,172.000,215.500,164.500
2.971,209.500,171.500,215.500,164.500
2.972,209.500,171.500,216.500,165.000
2.973,209.000,171.000,216.500,165.000
2.974,209.000,171.000,217.000,165.500
2.975,208.500,171.000,217.000,165.500
2.976,209.000,171.000,217.000,166.000
2.977,208.500,171.000,217.000,166.000
2.978,209.000,171.500,217.000,166.500
2.979,208.500,171.500,217.000,166.500
2.980,209.000,172.000,217.000,167.000
2.981,209.000,171.500,217.000,167.000
2.982,209.000,172.000,217.500,167.500
2.983,209.000,172.000,217.500,167.500
2.984,209.000,173.000,218.500,168.000
2.985,209.000,173.000,218.500,167.500
2.986,209.500,174.000,219.000,167.500
2.987,209.500,174.000,218.500,167.000
2.988,210.000,174.000,219.000,167.000
2.989,210.000,173.500,218.500,166.500
2.990,210.500,173.500,218.500,166.000
2.991,210.500,172.500,217.500,165.500
2.992,211.000,172.500,218.000,165.500
2.993,210.500,172.000,217.500,165.000
2.994,211.000,172.000,218.000,165.500
2.995,211.000,171.500,217.500,165.000
2.996,211.500,171.500,218.000,165.500
2.997,211.000,171.000,217.500,165.500
2.998,211.500,171.000,218.000,166.000
2.999,211.000,170.500,217.500,166.000
3.000,211.000,171.000,218.000,166.500
3.001,210.000,170.500,217.500,166.500
3.002,210.000,170.500,217.500,166.500
3.003,209.500,170.000,217.000,166.000
3.004,210.000,169.500,217.000,166.500
3.005,210.000,168.500,216.500,166.000
3.006,210.500,168.000,216.500,166.000
3.007,210.000,167.000,216.000,165.500
3.008,210.500,167.500,216.500,165.500
3.009,210.000,167.500,216.500,165.500
3.010,210.500,168.500,217.000,166.500
3.011,210.500,169.000,217.500,166.500
3.012,210.500,170.500,218.500,167.500
3.013,210.500,171.500,219.000,168.000
3.014,210.500,173.000,220.500,169.000
3.015,210.000,173.500,220.500,169.500
3.016,210.000,174.500,221.500,170.500
3.017,209.500,174.500,221.000,170.500
3.018,209.500,175.000,221.500,170.500
3.019,209.000,175.000,220.500,169.500
3.020,209.500,175.000,220.500,169.500
3.021,209.000,174.000,219.500,168.500
3.022,209.500,174.000,219.000,168.000
3.023,209.000,173.500,218.500,167.500
3.024,209.500,174.000,218.500,167.000
3.025,209.500,173.500,218.500,166.500
3.026,209.500,174.000,219.000,167.000
3.027,209.000,173.500,218.500,167.000
3.028,209.000,174.000,219.000,168.000
3.029,208.500,173.500,218.500,168.000
3.030,208.000,173.500,218.000,168.500
3.031,207.500,172.500,217.000,168.500
3.032,207.500,172.500,216.500,168.500
3.033,207.500,172.000,216.000,168.500
3.034,208.000,172.000,216.000,168.500
3.035,208.000,171.500,215.500,168.000
3.036,209.000,171.500,216.000,168.000
3.037,208.500,171.500,215.500,168.000
3.038,209.000,171.500,216.500,168.500
3.039,209.000,171.500,216.500,168.500
3.040,209.000,172.000,217.000,169.000
3.041,209.000,171.500,217.000,168.500
3.042,209.500,172.000,217.500,169.000
3.043,209.000,172.000,217.500,169.000
3.044,209.500,172.500,218.000,170.000
3.045,209.500,172.500,217.500,170.000
3.046,210.000,173.500,218.500,170.500
3.047,209.500,173.500,218.500,170.500
3.048,209.500,174.500,219.000,171.500
3.049,208.500,175.000,219.000,171.500
3.050,209.000,175.500,220.000,172.000
3.051,208.500,175.000,219.500,171.500
3.052,209.000,175.000,220.000,172.000
3.053,209.000,174.500,219.000,172.000
3.054,209.500,175.000,219.000,172.000
3.055,209.000,174.500,218.000,171.500
3.056,209.500,174.500,218.000,171.000
3.057,209.500,173.500,217.000,169.500
3.058,209.500,173.500,216.500,169.000
3.059,209.500,172.000,215.000,168.000
3.060,210.000,171.500,214.500,167.500
3.061,209.500,170.500,213.500,167.000
3.062,209.500,170.500,213.000,167.000
3.063,209.000,169.500,212.000,167.000
3.064,209.000,169.500,212.000,167.500
3.065,208.500,169.000,211.500,167.500
3.066,208.500,169.500,212.000,168.000
3.067,208.000,169.500,211.500,168.000
3.068,207.500,170.500,212.000,168.500
3.069,207.000,170.500,212.000,169.000
3.070,206.500,171.000,212.500,169.500
3.071,206.000,171.000,212.500,169.000
3.072,205.500,171.000,212.500,169.000
3.073,205.000,170.000,211.500,168.500
3.074,205.000,170.000,211.000,168.500
3.075,204.000,169.000,210.000,167.500
3.076,204.000,168.500,210.000,168.000
3.077,203.000,168.000,209.500,167.500
3.078,203.000,168.500,210.500,168.500
3.079,202.500,168.500,210.500,168.500
3.080,203.000,169.000,212.000,170.000
3.081,202.500,170.000,213.500,171.000
3.082,203.000,171.500,215.500,172.500
3.083,202.500,173.000,217.500,174.000
3.084,203.500,174.500,219.500,176.000
3.085,203.500,175.500,221.000,177.500
3.086,204.000,176.500,222.000,178.500
3.087,203.500,176.500,222.000,179.000
3.088,204.000,176.500,222.500,179.500
3.089,203.500,175.500,221.500,179.500
3.090,203.500,175.500,221.000,180.000
3.091,203.000,174.500,219.500,179.500
3.092,203.500,174.500,219.500,179.000
3.093,203.000,173.500,218.500,177.500
3.094,203.500,173.000,217.500,177.000
3.095,203.500,171.500,216.000,175.500
3.096,203.500,171.000,214.500,174.500
3.097,203.000,169.000,212.500,172.500
3.098,203.000,168.000,210.500,171.500
3.099,202.500,166.000,208.500,170.000
3.100,203.000,165.000,207.000,169.000
3.101,202.500,163.500,205.000,167.500
3.102,203.000,163.000,204.500,167.000
3.103,202.500,162.500,203.000,166.000
3.104,203.000,162.500,203.000,166.000
3.105,202.500,162.500,203.000,166.000
3.106,203.000,163.000,203.500,166.500
3.107,202.500,163.000,204.000,166.500
3.108,203.000,164.000,205.000,167.500
3.109,202.500,164.000,205.000,167.500
3.110,202.500,164.500,206.000,168.500
3.111,202.000,164.000,206.000,169.000
3.112,202.000,164.500,207.000,169.500
3.113,201.500,164.000,207.000,169.000
3.114,201.500,164.000,207.500,169.500
3.115,201.000,163.500,207.500,169.000
3.116,201.000,163.500,208.000,169.500
3.117,200.500,163.500,208.000,169.000
3.118,201.000,163.500,209.000,169.500
3.119,201.000,163.500,209.000,169.500
3.120,201.500,164.000,209.500,170.500
3.121,201.500,163.500,209.500,170.500
3.122,201.500,164.000,210.000,171.000
3.123,201.000,164.000,210.000,171.500
3.124,201.500,164.500,210.500,172.500
3.125,201.000,164.000,210.500,172.500
3.126,201.500,164.000,211.000,173.500
3.127,201.500,163.500,210.500,174.000
3.128,202.000,164.000,211.000,175.000
3.129,202.000,163.500,211.000,175.000
3.130,202.500,164.000,212.000,176.000
3.131,202.500,164.000,212.000,176.500
3.132,203.000,164.500,212.500,177.000
3.133,203.000,164.000,212.500,176.500
3.134,203.500,164.000,212.500,177.000
3.135,204.000,163.000,211.500,176.000
3.136,204.500,162.500,211.000,176.000
3.137,204.500,162.000,210.000,175.000
3.138,205.000,161.500,210.000,174.500
3.139,205.000,161.000,209.500,174.000
3.140,205.000,161.000,209.000,173.500
3.141,204.500,161.000,208.000,173.000
3.142,204.500,161.000,208.000,172.500
3.143,204.500,161.000,207.000,172.000
3.144,205.000,161.000,206.500,171.500
3.145,204.500,160.500,205.500,171.000
3.146,205.000,160.500,206.000,171.500
3.147,205.000,160.000,206.000,171.500
3.148,205.000,160.000,206.500,172.500
3.149,204.500,159.500,207.000,173.000
3.150,204.500,159.500,208.000,174.000
3.151,204.000,159.500,208.000,174.500
3.152,204.000,160.000,209.000,175.000
3.153,204.000,160.000,209.000,175.000
3.154,204.500,160.500,209.500,175.000
3.155,204.000,160.500,209.000,174.500
3.156,204.500,160.500,208.500,174.000
3.157,204.000,160.000,207.000,172.500
