'Elapsed time','AECG1','AECG2','AECG3','AECG4'
'seconds','uV','uV','uV','uV'
0.000,-796.500,-446.500,-1127.500,-617.500
0.001,-799.000,-447.500,-1130.000,-620.000
0.002,-802.000,-449.000,-1133.000,-623.000
0.003,-804.500,-450.500,-1136.500,-626.000
0.004,-807.000,-452.000,-1139.000,-628.500
0.005,-809.500,-453.000,-1141.500,-630.500
0.006,-811.500,-453.000,-1143.000,-631.500
0.007,-813.000,-453.000,-1143.500,-631.500
0.008,-814.500,-452.500,-1144.000,-631.000
0.009,-816.500,-452.000,-1144.000,-630.000
0.010,-818.500,-452.000,-1144.000,-628.500
0.011,-820.000,-451.500,-1144.500,-627.000
0.012,-821.500,-451.500,-1144.500,-625.500
0.013,-823.000,-451.000,-1144.500,-624.000
0.014,-824.500,-450.500,-1144.500,-622.500
0.015,-826.000,-451.000,-1145.000,-622.500
0.016,-828.500,-451.500,-1146.500,-623.000
0.017,-831.000,-453.000,-1148.500,-624.500
0.018,-834.000,-455.000,-1151.500,-627.000
0.019,-837.000,-457.000,-1155.000,-630.000
0.020,-840.000,-459.000,-1158.500,-633.500
0.021,-842.500,-461.000,-1162.000,-636.500
0.022,-845.000,-462.500,-1165.000,-639.500
0.023,-846.500,-463.500,-1167.500,-642.500
0.024,-848.000,-464.000,-1169.500,-644.500
0.025,-849.500,-464.500,-1172.000,-646.500
0.026,-851.000,-464.500,-1173.500,-647.500
0.027,-852.000,-464.500,-1174.500,-648.000
0.028,-852.500,-464.000,-1175.000,-647.000
0.029,-853.000,-463.000,-1175.000,-645.500
0.030,-853.500,-461.500,-1174.000,-643.500
0.031,-854.000,-460.000,-1173.500,-641.500
0.032,-854.500,-459.000,-1172.500,-639.500
0.033,-856.000,-458.000,-1172.000,-637.500
0.034,-857.500,-457.500,-1172.000,-636.500
0.035,-859.000,-457.000,-1172.500,-636.500
0.036,-861.000,-457.000,-1173.500,-636.500
0.037,-863.000,-457.500,-1174.500,-637.000
0.038,-865.000,-458.000,-1176.000,-638.000
0.039,-867.500,-459.000,-1178.000,-640.000
0.040,-869.000,-460.000,-1180.000,-641.500
0.041,-871.000,-461.000,-1182.000,-643.500
0.042,-873.000,-461.500,-1184.000,-645.500
0.043,-875.000,-462.500,-1186.500,-647.500
0.044,-877.000,-463.500,-1189.000,-649.500
0.045,-879.500,-465.000,-1191.500,-651.500
0.046,-881.500,-466.000,-1194.000,-653.000
0.047,-883.500,-466.500,-1195.500,-653.500
0.048,-885.000,-466.500,-1196.500,-653.500
0.049,-886.000,-466.000,-1196.500,-652.000
0.050,-886.500,-465.000,-1196.000,-650.500
0.051,-888.000,-464.500,-1196.000,-649.000
0.052,-890.000,-464.500,-1196.000,-648.000
0.053,-892.000,-464.500,-1197.000,-647.500
0.054,-894.000,-465.000,-1197.500,-647.000
0.055,-895.500,-465.000,-1198.500,-646.500
0.056,-897.000,-465.500,-1199.500,-647.000
0.057,-899.000,-466.500,-1201.000,-648.000
0.058,-901.000,-467.500,-1203.500,-650.000
0.059,-904.000,-469.000,-1207.000,-652.500
0.060,-906.500,-471.000,-1210.500,-655.500
0.061,-909.500,-472.500,-1213.500,-658.500
0.062,-911.500,-473.500,-1216.500,-661.000
0.063,-913.000,-474.500,-1219.000,-663.500
0.064,-915.000,-475.500,-1221.000,-665.500
0.065,-916.500,-476.000,-1223.000,-667.000
0.066,-918.500,-476.500,-1224.500,-668.000
0.067,-919.500,-476.500,-1225.500,-668.500
0.068,-920.500,-476.500,-1226.000,-667.500
0.069,-921.500,-475.500,-1226.500,-666.500
0.070,-923.000,-475.500,-1226.500,-665.000
0.071,-924.500,-475.000,-1227.000,-664.000
0.072,-926.000,-475.000,-1227.500,-663.000
0.073,-928.000,-475.000,-1228.000,-662.000
0.074,-929.500,-475.000,-1228.500,-661.500
0.075,-930.500,-474.500,-1229.000,-661.000
0.076,-932.000,-474.500,-1230.000,-661.500
0.077,-933.500,-475.000,-1231.000,-662.000
0.078,-935.500,-475.500,-1232.500,-663.500
0.079,-937.500,-477.000,-1235.000,-665.500
0.080,-940.000,-478.500,-1237.500,-668.000
0.081,-942.000,-480.500,-1240.500,-670.500
0.082,-944.500,-482.000,-1243.500,-673.500
0.083,-946.500,-483.000,-1246.000,-676.000
0.084,-948.000,-483.500,-1248.000,-678.000
0.085,-949.500,-484.000,-1250.000,-679.500
0.086,-951.000,-484.000,-1251.000,-680.500
0.087,-952.500,-484.000,-1252.000,-680.500
0.088,-953.500,-483.500,-1252.500,-680.000
0.089,-954.000,-483.000,-1252.000,-679.000
0.090,-955.000,-482.000,-1252.000,-677.000
0.091,-956.000,-481.500,-1251.500,-675.500
0.092,-957.500,-481.000,-1251.000,-674.000
0.093,-959.500,-481.000,-1251.500,-673.000
0.094,-961.500,-481.500,-1252.500,-673.500
0.095,-964.000,-482.500,-1254.000,-674.000
0.096,-966.500,-484.000,-1256.000,-675.500
0.097,-969.000,-485.000,-1258.500,-677.000
0.098,-971.500,-486.500,-1261.000,-679.000
0.099,-974.000,-488.000,-1263.500,-681.500
0.100,-976.500,-489.500,-1266.500,-684.500
0.101,-979.000,-491.000,-1269.000,-687.500
0.102,-981.500,-492.500,-1272.000,-690.500
0.103,-983.500,-493.500,-1274.000,-693.000
0.104,-985.000,-494.500,-1276.000,-695.000
0.105,-986.500,-494.500,-1277.000,-696.500
0.106,-986.500,-494.000,-1277.000,-696.500
0.107,-986.500,-492.500,-1276.500,-695.500
0.108,-986.000,-490.500,-1275.500,-693.500
0.109,-985.500,-489.000,-1274.000,-691.000
0.110,-985.000,-487.000,-1273.000,-688.500
0.111,-985.000,-485.500,-1271.500,-685.500
0.112,-985.500,-484.500,-1271.000,-683.000
0.113,-986.000,-483.500,-1270.000,-681.500
0.114,-987.000,-483.000,-1270.000,-680.500
0.115,-988.500,-483.000,-1270.500,-680.500
0.116,-990.000,-483.500,-1271.500,-681.000
0.117,-992.000,-484.000,-1273.000,-682.000
0.118,-993.500,-484.500,-1274.000,-683.000
0.119,-994.500,-484.500,-1275.000,-684.000
0.120,-995.000,-484.500,-1276.000,-685.000
0.121,-995.000,-483.000,-1276.000,-685.500
0.122,-994.000,-481.500,-1275.500,-685.000
0.123,-992.500,-479.000,-1274.500,-684.000
0.124,-990.500,-476.500,-1273.000,-682.500
0.125,-989.500,-474.000,-1271.500,-681.000
0.126,-988.500,-472.000,-1270.500,-680.000
0.127,-988.500,-471.000,-1270.000,-679.000
0.128,-989.000,-469.500,-1269.500,-677.500
0.129,-989.500,-468.500,-1268.500,-675.500
0.130,-990.000,-467.000,-1267.500,-673.500
0.131,-991.000,-466.000,-1266.500,-671.500
0.132,-993.000,-466.000,-1266.500,-670.500
0.133,-995.000,-467.000,-1267.500,-670.500
0.134,-997.500,-468.000,-1268.500,-671.000
0.135,-999.500,-468.500,-1270.000,-671.500
0.136,-1001.000,-469.000,-1271.000,-672.500
0.137,-1001.500,-469.000,-1271.500,-673.000
0.138,-1002.000,-468.000,-1271.500,-673.000
0.139,-1001.500,-467.000,-1271.000,-672.500
0.140,-1001.000,-465.500,-1270.500,-672.500
0.141,-1000.500,-464.000,-1270.500,-672.500
0.142,-1000.500,-462.500,-1270.500,-672.500
0.143,-1000.500,-462.000,-1270.500,-673.500
0.144,-1001.500,-461.500,-1271.500,-674.500
0.145,-1002.500,-461.000,-1272.000,-675.500
0.146,-1003.000,-460.500,-1272.000,-675.000
0.147,-1002.500,-458.000,-1270.500,-673.500
0.148,-1001.000,-455.500,-1268.000,-670.000
0.149,-999.000,-452.000,-1265.000,-666.000
0.150,-998.000,-449.500,-1262.500,-662.500
0.151,-997.500,-447.500,-1260.500,-659.500
0.152,-998.500,-446.500,-1260.000,-657.500
0.153,-1000.000,-446.500,-1260.000,-656.500
0.154,-1002.000,-446.500,-1261.000,-656.500
0.155,-1004.500,-447.500,-1262.500,-657.500
0.156,-1006.500,-448.500,-1264.500,-658.500
0.157,-1008.500,-449.000,-1266.000,-659.500
0.158,-1010.000,-449.500,-1267.000,-660.500
0.159,-1011.000,-449.500,-1268.000,-661.500
0.160,-1012.000,-449.500,-1269.000,-663.000
0.161,-1013.000,-450.000,-1270.000,-664.000
0.162,-1013.500,-450.000,-1271.000,-665.500
0.163,-1014.500,-450.000,-1272.000,-667.000
0.164,-1015.000,-449.500,-1273.000,-667.500
0.165,-1015.500,-449.000,-1273.500,-668.500
0.166,-1017.000,-449.500,-1275.000,-669.500
0.167,-1018.500,-450.000,-1276.500,-670.500
0.168,-1020.500,-450.500,-1277.500,-671.000
0.169,-1022.500,-450.500,-1278.500,-670.500
0.170,-1024.000,-450.500,-1279.500,-670.000
0.171,-1026.000,-451.000,-1280.000,-669.500
0.172,-1028.500,-451.500,-1281.000,-669.000
0.173,-1031.000,-452.500,-1282.000,-669.000
0.174,-1033.500,-454.000,-1283.500,-670.000
0.175,-1036.000,-455.500,-1285.000,-671.000
0.176,-1039.000,-457.000,-1287.500,-672.500
0.177,-1042.000,-459.000,-1290.000,-675.000
0.178,-1045.500,-461.000,-1293.000,-678.000
0.179,-1048.500,-463.500,-1296.000,-681.000
0.180,-1051.500,-465.500,-1299.500,-684.500
0.181,-1055.000,-468.000,-1303.500,-688.500
0.182,-1058.500,-471.000,-1308.000,-693.000
0.183,-1063.000,-475.000,-1312.500,-698.000
0.184,-1068.000,-479.000,-1317.500,-703.500
0.185,-1073.000,-483.000,-1322.500,-708.000
0.186,-1078.000,-486.500,-1327.000,-712.500
0.187,-1082.500,-490.000,-1331.000,-715.500
0.188,-1087.000,-493.000,-1334.500,-718.500
0.189,-1091.500,-496.000,-1338.000,-721.000
0.190,-1096.000,-499.000,-1341.500,-723.500
0.191,-1100.500,-502.000,-1344.500,-725.500
0.192,-1105.000,-505.000,-1347.500,-727.500
0.193,-1109.000,-507.500,-1350.500,-729.500
0.194,-1113.000,-510.500,-1353.500,-732.000
0.195,-1117.500,-513.000,-1357.000,-735.000
0.196,-1121.500,-516.500,-1361.000,-738.500
0.197,-1126.000,-519.500,-1365.000,-742.500
0.198,-1130.000,-523.000,-1369.500,-747.000
0.199,-1134.000,-526.500,-1374.000,-751.500
0.200,-1137.500,-529.500,-1378.000,-755.500
0.201,-1140.500,-532.000,-1381.500,-759.500
0.202,-1143.500,-534.500,-1385.000,-763.000
0.203,-1146.500,-536.500,-1388.000,-766.500
0.204,-1149.000,-538.000,-1390.500,-769.500
0.205,-1152.000,-539.500,-1393.000,-772.000
0.206,-1154.000,-540.500,-1394.500,-774.000
0.207,-1156.500,-541.500,-1396.000,-775.000
0.208,-1159.000,-542.500,-1397.500,-775.500
0.209,-1161.500,-543.500,-1399.000,-776.000
0.210,-1164.500,-545.000,-1400.500,-776.500
0.211,-1166.500,-545.500,-1401.500,-776.000
0.212,-1168.500,-545.500,-1401.500,-775.000
0.213,-1169.500,-545.000,-1401.000,-774.000
0.214,-1170.500,-545.000,-1401.000,-773.000
0.215,-1172.000,-545.000,-1401.500,-773.500
0.216,-1174.000,-546.000,-1402.500,-774.500
0.217,-1177.000,-547.500,-1405.000,-776.500
0.218,-1179.000,-548.500,-1407.000,-778.500
0.219,-1181.500,-550.000,-1409.500,-781.000
0.220,-1183.500,-552.000,-1412.500,-784.000
0.221,-1186.500,-553.500,-1415.500,-787.500
0.222,-1189.000,-556.000,-1419.000,-791.000
0.223,-1191.500,-558.000,-1422.000,-794.000
0.224,-1193.500,-559.500,-1424.500,-797.000
0.225,-1195.500,-560.500,-1426.500,-798.500
0.226,-1197.000,-561.000,-1428.000,-800.000
0.227,-1198.000,-561.500,-1428.500,-800.000
0.228,-1199.000,-561.500,-1429.000,-799.500
0.229,-1200.000,-561.000,-1429.000,-798.500
0.230,-1201.500,-561.500,-1429.500,-797.500
0.231,-1203.000,-561.500,-1430.000,-796.500
0.232,-1205.500,-562.500,-1430.500,-796.500
0.233,-1208.000,-563.500,-1431.500,-796.500
0.234,-1211.000,-565.000,-1433.000,-797.500
0.235,-1214.000,-567.000,-1435.500,-799.500
0.236,-1217.500,-570.000,-1438.500,-802.000
0.237,-1221.500,-573.000,-1442.500,-805.500
0.238,-1225.500,-577.000,-1446.500,-810.000
0.239,-1230.000,-580.500,-1451.500,-814.500
0.240,-1233.500,-584.000,-1455.500,-819.000
0.241,-1236.500,-586.500,-1459.000,-823.000
0.242,-1238.000,-588.000,-1461.500,-825.500
0.243,-1238.000,-587.500,-1462.000,-826.000
0.244,-1235.500,-585.000,-1460.000,-824.500
0.245,-1231.000,-580.000,-1455.500,-820.000
0.246,-1225.000,-573.000,-1449.000,-812.500
0.247,-1217.000,-564.000,-1440.000,-802.500
0.248,-1207.500,-553.500,-1429.000,-790.500
0.249,-1198.000,-542.000,-1417.500,-777.500
0.250,-1188.000,-530.500,-1405.000,-764.000
0.251,-1178.500,-519.000,-1393.500,-750.500
0.252,-1169.000,-507.500,-1381.500,-737.000
0.253,-1159.000,-496.000,-1369.000,-723.500
0.254,-1147.000,-482.500,-1355.000,-708.500
0.255,-1132.500,-466.500,-1339.000,-691.000
0.256,-1115.000,-447.500,-1319.500,-670.500
0.257,-1094.500,-425.000,-1297.000,-647.000
0.258,-1071.000,-400.500,-1272.500,-621.000
0.259,-1046.500,-375.000,-1246.000,-594.000
0.260,-1020.500,-348.000,-1219.500,-566.000
0.261,-993.500,-320.000,-1191.500,-537.000
0.262,-964.500,-289.500,-1161.000,-505.500
0.263,-931.500,-255.500,-1127.000,-470.500
0.264,-895.000,-217.500,-1089.000,-432.000
0.265,-855.500,-176.500,-1047.500,-389.000
0.266,-813.500,-133.000,-1004.000,-344.000
0.267,-771.500,-89.500,-959.500,-297.500
0.268,-730.500,-47.000,-916.000,-252.500
0.269,-694.000,-8.500,-877.000,-211.500
0.270,-664.500,23.000,-845.000,-178.000
0.271,-645.000,44.000,-823.500,-155.000
0.272,-637.500,52.500,-815.000,-145.500
0.273,-645.000,46.000,-821.000,-152.000
0.274,-666.500,24.500,-843.000,-174.500
0.275,-701.000,-10.000,-878.000,-210.500
0.276,-743.500,-52.500,-922.500,-256.000
0.277,-790.000,-100.000,-971.000,-306.000
0.278,-837.500,-148.000,-1021.000,-357.000
0.279,-883.500,-194.500,-1070.000,-407.000
0.280,-927.500,-239.000,-1116.500,-455.000
0.281,-968.500,-281.500,-1161.000,-500.000
0.282,-1008.000,-321.500,-1203.500,-543.500
0.283,-1047.000,-361.000,-1245.000,-585.500
0.284,-1085.500,-400.000,-1286.000,-627.000
0.285,-1124.000,-439.000,-1326.000,-668.000
0.286,-1161.000,-476.000,-1364.500,-706.500
0.287,-1194.500,-509.500,-1399.500,-741.000
0.288,-1224.000,-538.000,-1428.500,-770.000
0.289,-1248.000,-561.500,-1452.000,-792.500
0.290,-1267.500,-580.000,-1471.000,-810.500
0.291,-1284.000,-595.500,-1486.500,-825.000
0.292,-1298.500,-609.000,-1500.000,-837.500
0.293,-1312.000,-621.500,-1513.000,-849.500
0.294,-1324.500,-633.000,-1524.500,-861.000
0.295,-1336.000,-643.500,-1535.000,-871.000
0.296,-1345.500,-652.000,-1544.000,-879.500
0.297,-1353.000,-659.500,-1551.500,-886.500
0.298,-1359.500,-665.000,-1557.000,-892.500
0.299,-1364.500,-669.000,-1562.000,-897.000
0.300,-1368.000,-672.500,-1565.500,-901.000
0.301,-1371.000,-674.500,-1568.500,-904.000
0.302,-1373.000,-675.500,-1570.000,-906.000
0.303,-1374.000,-675.500,-1570.500,-906.500
0.304,-1373.000,-674.000,-1569.500,-906.000
0.305,-1371.500,-671.500,-1567.500,-904.000
0.306,-1369.500,-669.000,-1565.000,-901.000
0.307,-1367.500,-665.500,-1562.000,-897.500
0.308,-1365.500,-662.000,-1558.500,-893.500
0.309,-1363.000,-658.500,-1555.000,-888.500
0.310,-1360.500,-654.500,-1551.000,-883.500
0.311,-1358.500,-651.000,-1547.500,-878.500
0.312,-1356.500,-648.000,-1544.000,-874.000
0.313,-1355.500,-645.500,-1541.500,-870.000
0.314,-1354.500,-644.000,-1540.000,-867.500
0.315,-1354.500,-643.000,-1539.500,-866.000
0.316,-1355.500,-643.000,-1539.500,-865.500
0.317,-1356.500,-643.000,-1540.000,-866.000
0.318,-1357.500,-643.500,-1541.000,-866.500
0.319,-1359.000,-644.000,-1541.500,-867.500
0.320,-1360.500,-644.500,-1543.000,-869.000
0.321,-1361.500,-645.000,-1544.500,-870.000
0.322,-1362.000,-645.000,-1545.000,-871.000
0.323,-1362.000,-644.500,-1545.500,-871.500
0.324,-1361.500,-643.500,-1545.000,-871.000
0.325,-1361.000,-642.000,-1544.500,-870.000
0.326,-1360.500,-640.500,-1543.500,-868.500
0.327,-1360.500,-639.500,-1543.000,-867.000
0.328,-1361.000,-638.500,-1542.500,-865.500
0.329,-1362.500,-638.500,-1542.500,-864.500
0.330,-1364.000,-639.000,-1543.000,-863.500
0.331,-1366.000,-639.500,-1543.500,-863.000
0.332,-1368.000,-640.000,-1544.500,-862.000
0.333,-1370.000,-640.000,-1545.000,-861.500
0.334,-1371.000,-640.000,-1545.000,-860.500
0.335,-1372.500,-640.000,-1545.500,-860.500
0.336,-1374.500,-640.500,-1547.000,-861.000
0.337,-1377.000,-642.000,-1549.000,-862.500
0.338,-1379.500,-644.000,-1551.500,-864.500
0.339,-1382.000,-646.000,-1554.500,-866.500
0.340,-1384.000,-647.000,-1557.000,-869.000
0.341,-1386.000,-648.500,-1559.000,-871.000
0.342,-1387.500,-649.500,-1561.000,-873.000
0.343,-1389.000,-650.500,-1563.000,-874.500
0.344,-1390.500,-651.500,-1565.000,-876.000
0.345,-1392.000,-652.500,-1566.500,-877.500
0.346,-1393.500,-653.000,-1568.500,-878.500
0.347,-1395.000,-653.500,-1569.500,-878.500
0.348,-1397.000,-654.000,-1570.500,-878.500
0.349,-1398.500,-654.500,-1571.500,-877.500
0.350,-1401.000,-655.000,-1572.500,-877.000
0.351,-1403.000,-656.000,-1573.500,-876.500
0.352,-1405.500,-657.000,-1574.500,-876.000
0.353,-1406.500,-657.000,-1575.000,-875.500
0.354,-1407.500,-656.500,-1574.500,-874.000
0.355,-1407.500,-656.000,-1574.000,-873.000
0.356,-1408.500,-655.500,-1574.500,-872.500
0.357,-1410.000,-656.500,-1575.500,-873.500
0.358,-1412.000,-658.000,-1577.500,-875.500
0.359,-1414.000,-659.500,-1580.500,-878.000
0.360,-1416.500,-661.500,-1583.500,-881.000
0.361,-1419.000,-663.500,-1587.000,-884.500
0.362,-1421.000,-665.500,-1590.000,-887.000
0.363,-1422.500,-666.500,-1592.500,-889.000
0.364,-1423.000,-666.500,-1593.500,-890.000
0.365,-1423.000,-665.500,-1594.000,-890.000
0.366,-1422.000,-664.500,-1593.500,-889.000
0.367,-1422.000,-663.500,-1593.000,-888.000
0.368,-1422.000,-662.500,-1593.000,-886.500
0.369,-1423.000,-662.000,-1593.000,-885.000
0.370,-1424.000,-662.000,-1593.500,-883.500
0.371,-1425.500,-662.000,-1593.500,-882.500
0.372,-1426.500,-662.000,-1593.500,-881.000
0.373,-1427.500,-662.000,-1593.500,-880.000
0.374,-1428.500,-662.000,-1593.500,-879.000
0.375,-1430.000,-662.000,-1593.500,-878.500
0.376,-1431.000,-662.000,-1594.000,-878.500
0.377,-1432.500,-662.500,-1595.000,-879.000
0.378,-1433.500,-662.500,-1595.500,-879.500
0.379,-1434.000,-662.500,-1596.500,-880.000
0.380,-1434.500,-663.000,-1597.500,-880.500
0.381,-1435.000,-663.000,-1599.000,-882.000
0.382,-1436.500,-664.000,-1601.000,-883.500
0.383,-1438.000,-665.000,-1603.000,-886.000
0.384,-1440.000,-666.000,-1605.000,-888.000
0.385,-1441.500,-666.500,-1607.000,-889.500
0.386,-1442.500,-667.000,-1607.500,-890.000
0.387,-1442.500,-666.000,-1607.500,-889.500
0.388,-1442.500,-665.000,-1606.500,-887.500
0.389,-1442.000,-664.000,-1605.500,-885.500
0.390,-1442.000,-663.000,-1604.500,-883.000
0.391,-1443.000,-662.500,-1604.000,-881.500
0.392,-1444.000,-663.000,-1604.000,-880.000
0.393,-1445.500,-663.500,-1604.500,-879.500
0.394,-1446.500,-663.500,-1604.500,-878.500
0.395,-1447.000,-664.000,-1604.500,-878.000
0.396,-1448.000,-664.500,-1605.000,-877.500
0.397,-1449.000,-665.000,-1605.500,-878.000
0.398,-1451.000,-666.500,-1607.500,-879.500
0.399,-1452.500,-668.000,-1609.500,-881.000
0.400,-1455.000,-670.500,-1612.000,-883.500
0.401,-1457.000,-672.500,-1614.500,-886.000
0.402,-1458.500,-674.500,-1616.500,-888.500
0.403,-1460.000,-676.000,-1618.500,-890.500
0.404,-1461.000,-677.500,-1620.000,-892.000
0.405,-1461.000,-678.000,-1620.500,-892.500
0.406,-1461.000,-678.500,-1620.500,-892.000
0.407,-1460.500,-678.000,-1620.000,-890.500
0.408,-1460.000,-677.500,-1618.500,-888.500
0.409,-1459.000,-676.500,-1617.500,-886.000
0.410,-1458.500,-676.000,-1616.000,-883.500
0.411,-1458.500,-676.000,-1615.000,-881.000
0.412,-1459.000,-676.000,-1614.000,-879.000
0.413,-1459.500,-676.500,-1613.500,-877.500
0.414,-1460.000,-677.000,-1614.000,-877.000
0.415,-1461.000,-678.000,-1614.500,-876.500
0.416,-1462.000,-679.000,-1615.000,-877.000
0.417,-1463.000,-680.500,-1616.000,-877.500
0.418,-1464.000,-682.000,-1617.500,-878.500
0.419,-1465.000,-683.500,-1618.500,-879.500
0.420,-1465.500,-684.500,-1619.500,-880.500
0.421,-1465.500,-684.500,-1620.000,-881.000
0.422,-1465.500,-684.500,-1620.000,-881.000
0.423,-1465.000,-685.000,-1620.000,-881.500
0.424,-1465.000,-685.000,-1620.000,-882.000
0.425,-1464.500,-685.000,-1620.000,-882.000
0.426,-1464.500,-685.000,-1620.000,-881.500
0.427,-1465.000,-685.000,-1620.000,-881.000
0.428,-1465.500,-685.000,-1619.500,-879.500
0.429,-1465.500,-685.000,-1619.000,-878.000
0.430,-1466.000,-685.000,-1618.000,-875.500
0.431,-1466.000,-684.500,-1617.000,-873.000
0.432,-1466.000,-684.000,-1615.500,-871.000
0.433,-1466.500,-683.500,-1614.500,-868.500
0.434,-1466.500,-683.500,-1613.500,-867.000
0.435,-1466.500,-683.000,-1612.500,-865.500
0.436,-1466.500,-683.000,-1612.000,-864.500
0.437,-1466.500,-683.000,-1612.000,-864.000
0.438,-1466.500,-683.000,-1612.000,-864.000
0.439,-1467.000,-683.000,-1612.000,-864.000
0.440,-1467.000,-683.000,-1612.000,-864.000
0.441,-1467.000,-682.500,-1612.000,-864.000
0.442,-1466.500,-682.000,-1612.000,-864.000
0.443,-1466.000,-681.500,-1611.500,-864.000
0.444,-1465.500,-681.000,-1611.500,-863.500
0.445,-1465.000,-680.500,-1611.000,-863.000
0.446,-1464.500,-679.500,-1610.000,-861.500
0.447,-1463.000,-678.000,-1608.000,-859.000
0.448,-1461.500,-676.000,-1606.000,-855.000
0.449,-1460.000,-673.500,-1603.000,-850.500
0.450,-1457.500,-671.000,-1599.500,-846.000
0.451,-1455.500,-668.000,-1596.000,-841.000
0.452,-1453.500,-665.500,-1593.000,-836.000
0.453,-1452.000,-663.000,-1590.000,-832.500
0.454,-1450.500,-661.000,-1587.500,-829.000
0.455,-1449.000,-659.500,-1585.000,-825.500
0.456,-1448.000,-657.500,-1583.000,-823.000
0.457,-1447.000,-656.000,-1581.000,-820.500
0.458,-1446.000,-655.000,-1580.000,-819.000
0.459,-1445.500,-654.000,-1579.000,-817.500
0.460,-1445.000,-653.500,-1578.500,-816.500
0.461,-1444.000,-652.500,-1577.500,-815.500
0.462,-1443.000,-651.500,-1576.500,-814.500
0.463,-1441.000,-650.000,-1575.000,-813.000
0.464,-1439.500,-648.000,-1573.500,-811.000
0.465,-1438.500,-646.500,-1571.500,-809.000
0.466,-1436.500,-644.500,-1569.000,-806.500
0.467,-1435.000,-642.500,-1566.000,-802.500
0.468,-1433.000,-640.000,-1562.500,-798.500
0.469,-1430.500,-636.500,-1559.000,-793.000
0.470,-1428.500,-633.500,-1554.500,-788.000
0.471,-1426.500,-630.500,-1551.000,-783.000
0.472,-1425.000,-628.000,-1547.500,-778.500
0.473,-1424.000,-626.000,-1544.500,-775.000
0.474,-1422.500,-624.500,-1542.500,-772.000
0.475,-1421.500,-623.000,-1540.500,-769.500
0.476,-1420.500,-621.500,-1539.000,-767.500
0.477,-1419.500,-620.500,-1538.000,-766.500
0.478,-1419.000,-620.000,-1537.500,-765.500
0.479,-1419.000,-620.000,-1537.500,-765.500
0.480,-1419.000,-620.000,-1538.000,-765.500
0.481,-1418.500,-620.000,-1538.500,-765.500
0.482,-1418.000,-619.000,-1538.000,-765.500
0.483,-1416.500,-617.500,-1536.500,-764.000
0.484,-1414.500,-616.000,-1535.000,-762.500
0.485,-1412.500,-614.000,-1533.000,-761.000
0.486,-1411.000,-612.500,-1531.500,-758.500
0.487,-1409.500,-610.500,-1529.000,-756.000
0.488,-1408.000,-608.000,-1526.000,-752.000
0.489,-1405.500,-605.500,-1522.500,-747.000
0.490,-1404.000,-602.500,-1518.500,-742.000
0.491,-1402.000,-600.000,-1515.000,-737.000
0.492,-1401.000,-597.500,-1511.500,-732.500
0.493,-1399.500,-595.000,-1508.500,-728.000
0.494,-1398.000,-593.000,-1505.000,-724.000
0.495,-1397.000,-590.500,-1502.000,-720.500
0.496,-1397.000,-589.500,-1500.500,-718.500
0.497,-1398.500,-590.500,-1500.500,-718.000
0.498,-1401.000,-592.500,-1502.000,-719.500
0.499,-1403.500,-595.000,-1504.500,-721.500
0.500,-1405.500,-596.500,-1506.000,-723.500
0.501,-1406.500,-597.500,-1507.000,-724.500
0.502,-1407.000,-597.500,-1507.500,-725.000
0.503,-1407.000,-598.000,-1507.500,-725.500
0.504,-1407.500,-598.500,-1508.000,-725.500
0.505,-1408.500,-599.000,-1508.500,-726.000
0.506,-1409.500,-600.000,-1509.000,-726.000
0.507,-1411.000,-601.000,-1509.500,-726.000
0.508,-1412.000,-602.000,-1510.000,-725.500
0.509,-1413.500,-603.000,-1510.500,-724.500
0.510,-1415.500,-604.000,-1511.000,-724.000
0.511,-1417.500,-605.500,-1511.500,-723.000
0.512,-1420.000,-607.000,-1512.000,-723.000
0.513,-1422.500,-609.000,-1513.000,-723.500
0.514,-1425.500,-611.500,-1515.000,-724.500
0.515,-1429.000,-614.500,-1517.000,-726.500
0.516,-1433.500,-618.000,-1520.500,-730.000
0.517,-1438.000,-622.500,-1525.000,-734.000
0.518,-1443.500,-628.000,-1530.000,-739.000
0.519,-1449.500,-633.500,-1535.500,-745.000
0.520,-1455.500,-639.500,-1541.000,-751.000
0.521,-1461.000,-645.000,-1547.000,-757.000
0.522,-1467.000,-651.000,-1553.000,-763.000
0.523,-1472.000,-656.500,-1558.500,-769.000
0.524,-1477.500,-662.000,-1564.000,-775.000
0.525,-1482.500,-667.000,-1569.000,-780.000
0.526,-1487.500,-672.000,-1573.000,-784.500
0.527,-1492.000,-676.500,-1577.000,-788.000
0.528,-1496.000,-680.000,-1580.000,-790.000
0.529,-1500.500,-683.500,-1582.500,-792.000
0.530,-1505.000,-687.500,-1586.000,-794.500
0.531,-1511.000,-692.500,-1590.000,-797.500
0.532,-1517.000,-698.000,-1594.500,-801.000
0.533,-1523.000,-703.500,-1599.000,-805.000
0.534,-1529.500,-709.500,-1604.000,-810.000
0.535,-1535.500,-715.500,-1609.000,-814.500
0.536,-1541.500,-721.500,-1614.000,-820.000
0.537,-1548.000,-727.500,-1619.500,-825.500
0.538,-1554.500,-734.000,-1626.000,-832.000
0.539,-1561.000,-740.500,-1632.000,-838.500
0.540,-1567.500,-747.000,-1638.000,-845.000
0.541,-1573.500,-753.500,-1644.500,-852.000
0.542,-1579.500,-759.500,-1650.500,-858.500
0.543,-1585.500,-765.500,-1656.500,-865.000
0.544,-1591.500,-772.000,-1662.500,-871.000
0.545,-1598.000,-778.000,-1668.500,-877.000
0.546,-1603.500,-783.500,-1673.500,-882.000
0.547,-1609.500,-789.000,-1679.000,-886.500
0.548,-1615.000,-794.500,-1683.500,-890.000
0.549,-1620.000,-799.000,-1688.000,-893.500
0.550,-1625.500,-804.000,-1692.000,-896.000
0.551,-1631.000,-808.500,-1695.500,-898.500
0.552,-1636.000,-813.000,-1699.500,-901.500
0.553,-1641.500,-818.000,-1703.500,-905.000
0.554,-1647.000,-823.000,-1708.000,-909.000
0.555,-1652.000,-828.000,-1712.500,-913.000
0.556,-1657.500,-833.000,-1718.000,-917.500
0.557,-1662.500,-838.500,-1723.500,-922.000
0.558,-1667.500,-843.500,-1730.000,-926.500
0.559,-1672.500,-848.500,-1737.000,-931.500
0.560,-1677.500,-853.000,-1743.500,-936.000
0.561,-1681.000,-857.000,-1749.500,-940.000
0.562,-1684.500,-860.500,-1755.000,-943.500
0.563,-1687.500,-863.500,-1760.000,-946.500
0.564,-1690.500,-867.000,-1765.500,-950.000
0.565,-1694.000,-870.500,-1771.000,-953.000
0.566,-1697.500,-873.500,-1776.000,-955.000
0.567,-1700.000,-876.000,-1780.000,-956.500
0.568,-1702.000,-878.000,-1783.500,-956.500
0.569,-1704.500,-880.000,-1786.500,-956.500
0.570,-1707.000,-882.500,-1790.000,-957.000
0.571,-1710.000,-885.000,-1793.000,-957.000
0.572,-1713.000,-887.500,-1796.000,-957.500
0.573,-1716.000,-890.000,-1798.500,-958.000
0.574,-1719.000,-892.500,-1801.000,-958.500
0.575,-1722.000,-895.000,-1804.000,-960.500
0.576,-1725.500,-898.500,-1807.500,-962.500
0.577,-1729.000,-902.000,-1811.500,-965.500
0.578,-1732.500,-905.500,-1816.000,-968.500
0.579,-1736.000,-909.500,-1820.500,-972.000
0.580,-1740.000,-913.500,-1825.000,-975.500
0.581,-1743.500,-917.500,-1829.500,-979.500
0.582,-1747.000,-921.500,-1833.500,-983.000
0.583,-1750.000,-924.500,-1837.000,-986.500
0.584,-1752.500,-927.000,-1840.000,-989.000
0.585,-1754.000,-929.000,-1842.500,-991.000
0.586,-1755.500,-930.500,-1844.000,-991.500
0.587,-1757.000,-931.500,-1845.500,-991.500
0.588,-1758.000,-932.000,-1846.000,-991.000
0.589,-1759.000,-933.000,-1846.500,-989.500
0.590,-1760.000,-933.500,-1847.000,-988.500
0.591,-1761.500,-934.000,-1847.000,-986.500
0.592,-1762.500,-934.500,-1847.500,-985.500
0.593,-1764.000,-935.500,-1848.000,-984.500
0.594,-1766.000,-937.000,-1849.000,-985.000
0.595,-1768.500,-939.500,-1851.000,-986.000
0.596,-1771.500,-942.500,-1853.500,-988.000
0.597,-1774.500,-945.500,-1856.500,-990.500
0.598,-1778.000,-949.500,-1860.000,-993.500
0.599,-1781.000,-953.000,-1863.500,-997.000
0.600,-1783.500,-956.000,-1866.500,-1000.000
0.601,-1785.000,-958.500,-1869.000,-1002.500
0.602,-1786.500,-960.500,-1871.500,-1004.500
0.603,-1787.500,-962.000,-1873.500,-1006.000
0.604,-1788.000,-963.000,-1875.000,-1007.000
0.605,-1789.500,-964.500,-1876.500,-1008.500
0.606,-1791.000,-966.500,-1878.000,-1009.500
0.607,-1793.000,-968.500,-1879.500,-1010.000
0.608,-1795.000,-970.000,-1881.000,-1010.500
0.609,-1796.500,-971.500,-1881.500,-1010.000
0.610,-1797.500,-972.500,-1882.000,-1009.000
0.611,-1798.500,-973.500,-1882.000,-1008.000
0.612,-1799.500,-974.500,-1882.500,-1006.500
0.613,-1800.500,-975.000,-1882.500,-1005.500
0.614,-1801.000,-975.500,-1882.500,-1004.500
0.615,-1801.500,-975.500,-1882.500,-1004.000
0.616,-1801.500,-976.000,-1882.500,-1003.500
0.617,-1802.000,-976.000,-1883.000,-1003.000
0.618,-1802.500,-977.500,-1884.000,-1004.000
0.619,-1804.000,-979.000,-1886.000,-1005.500
0.620,-1806.000,-981.500,-1888.500,-1008.500
0.621,-1808.000,-984.500,-1891.500,-1011.000
0.622,-1810.000,-986.500,-1894.000,-1014.000
0.623,-1811.500,-988.500,-1896.500,-1016.000
0.624,-1812.500,-990.000,-1897.500,-1017.500
0.625,-1813.500,-991.000,-1898.500,-1018.500
0.626,-1814.500,-992.500,-1899.500,-1019.500
0.627,-1816.000,-994.000,-1900.500,-1020.000
0.628,-1818.000,-995.500,-1901.500,-1020.000
0.629,-1819.500,-996.000,-1901.500,-1019.500
0.630,-1819.500,-996.000,-1901.000,-1017.500
0.631,-1819.500,-996.000,-1900.000,-1015.000
0.632,-1820.000,-996.000,-1899.000,-1013.000
0.633,-1820.500,-996.500,-1898.500,-1012.000
0.634,-1821.000,-997.000,-1898.500,-1011.000
0.635,-1821.500,-998.000,-1898.000,-1011.000
0.636,-1822.500,-999.500,-1898.500,-1011.000
0.637,-1824.000,-1001.000,-1900.000,-1012.500
0.638,-1826.000,-1003.500,-1902.500,-1015.000
0.639,-1828.500,-1006.500,-1905.500,-1018.000
0.640,-1831.500,-1010.000,-1909.000,-1022.000
0.641,-1834.000,-1013.000,-1912.500,-1025.500
0.642,-1836.000,-1015.500,-1915.000,-1028.500
0.643,-1837.000,-1017.000,-1916.500,-1030.000
0.644,-1837.000,-1018.000,-1917.000,-1030.500
0.645,-1836.500,-1017.500,-1916.500,-1030.000
0.646,-1836.000,-1017.500,-1916.000,-1029.500
0.647,-1836.500,-1018.500,-1916.000,-1029.500
0.648,-1838.500,-1020.500,-1917.500,-1030.000
0.649,-1841.000,-1023.000,-1919.000,-1030.500
0.650,-1843.500,-1025.000,-1920.000,-1030.500
0.651,-1845.000,-1026.500,-1920.500,-1029.500
0.652,-1846.500,-1027.000,-1920.500,-1029.000
0.653,-1847.500,-1028.000,-1920.500,-1028.500
0.654,-1848.500,-1029.000,-1921.000,-1028.000
0.655,-1850.000,-1030.500,-1921.500,-1028.500
0.656,-1851.500,-1032.500,-1922.500,-1029.500
0.657,-1853.000,-1034.000,-1924.000,-1031.000
0.658,-1854.500,-1036.000,-1925.000,-1032.500
0.659,-1855.500,-1037.500,-1926.500,-1034.500
0.660,-1856.000,-1039.000,-1928.000,-1036.500
0.661,-1857.000,-1040.500,-1929.500,-1038.500
0.662,-1858.000,-1042.500,-1931.000,-1040.500
0.663,-1859.500,-1044.000,-1933.000,-1042.500
0.664,-1860.500,-1046.000,-1934.500,-1044.500
0.665,-1861.500,-1047.500,-1935.500,-1045.500
0.666,-1862.000,-1048.500,-1936.000,-1046.000
0.667,-1862.000,-1049.000,-1936.000,-1045.500
0.668,-1862.500,-1049.000,-1935.500,-1044.500
0.669,-1862.500,-1049.000,-1935.000,-1043.000
0.670,-1863.500,-1049.500,-1935.000,-1042.000
0.671,-1864.500,-1050.000,-1934.500,-1040.500
0.672,-1866.000,-1051.000,-1934.500,-1040.000
0.673,-1867.500,-1052.000,-1934.500,-1039.000
0.674,-1868.500,-1053.000,-1934.500,-1039.000
0.675,-1870.000,-1054.500,-1935.000,-1039.500
0.676,-1872.000,-1056.500,-1936.000,-1040.500
0.677,-1873.500,-1058.500,-1937.500,-1042.000
0.678,-1874.500,-1060.500,-1939.000,-1043.500
0.679,-1876.000,-1062.500,-1940.500,-1045.500
0.680,-1877.000,-1064.500,-1942.500,-1047.500
0.681,-1878.500,-1066.500,-1944.500,-1049.500
0.682,-1880.000,-1068.500,-1946.000,-1052.000
0.683,-1880.500,-1070.000,-1948.000,-1054.000
0.684,-1881.500,-1071.000,-1949.000,-1055.500
0.685,-1882.000,-1072.000,-1949.500,-1056.500
0.686,-1882.000,-1072.500,-1950.000,-1057.000
0.687,-1882.500,-1073.000,-1949.500,-1056.500
0.688,-1883.000,-1073.500,-1949.500,-1056.000
0.689,-1883.500,-1074.000,-1948.500,-1054.500
0.690,-1884.000,-1074.000,-1948.000,-1053.000
0.691,-1884.500,-1074.500,-1947.000,-1051.500
0.692,-1885.500,-1075.500,-1946.500,-1050.500
0.693,-1886.500,-1076.000,-1946.000,-1049.500
0.694,-1887.500,-1077.500,-1946.000,-1049.500
0.695,-1889.000,-1079.000,-1946.500,-1050.000
0.696,-1890.500,-1080.500,-1947.000,-1050.500
0.697,-1891.500,-1082.500,-1948.000,-1051.500
0.698,-1892.500,-1084.000,-1949.000,-1053.000
0.699,-1893.000,-1085.500,-1950.000,-1054.000
0.700,-1893.500,-1087.000,-1951.000,-1055.500
0.701,-1894.000,-1088.000,-1952.000,-1057.000
0.702,-1894.000,-1089.000,-1953.000,-1058.500
0.703,-1894.000,-1090.000,-1953.500,-1060.000
0.704,-1894.500,-1091.000,-1954.500,-1061.500
0.705,-1895.500,-1092.500,-1955.500,-1062.500
0.706,-1896.500,-1094.000,-1956.500,-1063.500
0.707,-1897.500,-1095.500,-1957.000,-1063.500
0.708,-1898.500,-1097.000,-1957.500,-1063.500
0.709,-1899.500,-1098.000,-1957.500,-1062.500
0.710,-1901.000,-1099.500,-1957.500,-1062.000
0.711,-1902.000,-1100.500,-1957.500,-1061.000
0.712,-1902.500,-1101.500,-1957.500,-1060.500
0.713,-1904.000,-1103.000,-1958.000,-1060.000
0.714,-1905.500,-1105.000,-1959.000,-1060.500
0.715,-1907.000,-1107.000,-1960.500,-1061.500
0.716,-1908.500,-1109.500,-1961.500,-1063.000
0.717,-1909.500,-1111.500,-1962.500,-1064.000
0.718,-1910.500,-1113.000,-1963.500,-1065.500
0.719,-1911.000,-1114.500,-1964.500,-1066.500
0.720,-1912.000,-1116.000,-1965.500,-1068.000
0.721,-1912.000,-1118.000,-1966.500,-1069.000
0.722,-1912.500,-1119.500,-1968.000,-1071.000
0.723,-1913.000,-1121.500,-1969.500,-1072.500
0.724,-1913.500,-1123.500,-1971.000,-1074.000
0.725,-1914.500,-1125.000,-1972.000,-1075.500
0.726,-1915.000,-1126.500,-1973.000,-1076.000
0.727,-1915.500,-1128.000,-1973.000,-1076.000
0.728,-1916.000,-1129.000,-1973.000,-1075.000
0.729,-1916.500,-1130.500,-1973.000,-1074.000
0.730,-1917.000,-1131.500,-1972.500,-1073.000
0.731,-1918.000,-1133.000,-1972.500,-1072.000
0.732,-1918.500,-1134.500,-1972.500,-1071.000
0.733,-1919.500,-1136.000,-1972.000,-1070.000
0.734,-1920.500,-1137.000,-1971.500,-1069.500
0.735,-1921.000,-1138.000,-1971.500,-1069.500
0.736,-1921.500,-1139.500,-1971.500,-1070.000
0.737,-1922.500,-1141.000,-1972.500,-1071.000
0.738,-1923.500,-1143.000,-1973.500,-1072.000
0.739,-1925.000,-1145.500,-1975.500,-1074.500
0.740,-1926.500,-1148.500,-1978.500,-1077.000
0.741,-1928.500,-1151.500,-1981.000,-1080.000
0.742,-1930.000,-1154.000,-1983.500,-1082.500
0.743,-1931.500,-1156.500,-1985.500,-1085.000
0.744,-1932.500,-1159.000,-1987.000,-1087.000
0.745,-1933.500,-1161.000,-1988.500,-1088.500
0.746,-1934.000,-1162.500,-1989.500,-1089.000
0.747,-1934.000,-1163.000,-1989.000,-1088.500
0.748,-1933.500,-1163.000,-1988.000,-1087.000
0.749,-1933.000,-1163.000,-1986.500,-1084.500
0.750,-1932.500,-1163.000,-1985.000,-1082.000
0.751,-1932.500,-1163.500,-1983.500,-1080.000
0.752,-1932.500,-1164.000,-1983.000,-1078.500
0.753,-1933.000,-1165.000,-1982.500,-1077.500
0.754,-1933.500,-1166.500,-1982.500,-1077.500
0.755,-1934.500,-1168.000,-1983.000,-1078.000
0.756,-1935.500,-1170.000,-1984.500,-1079.000
0.757,-1937.500,-1173.000,-1986.500,-1081.500
0.758,-1939.500,-1176.000,-1989.000,-1084.000
0.759,-1941.500,-1179.000,-1991.500,-1086.500
0.760,-1943.000,-1182.000,-1994.000,-1089.000
0.761,-1944.000,-1184.500,-1996.000,-1091.500
0.762,-1945.000,-1186.500,-1997.500,-1093.500
0.763,-1946.000,-1188.500,-1999.000,-1095.500
0.764,-1946.500,-1190.500,-2000.500,-1097.500
0.765,-1947.500,-1192.500,-2001.500,-1098.500
0.766,-1948.500,-1194.000,-2002.000,-1099.000
0.767,-1948.500,-1194.500,-2002.000,-1098.500
0.768,-1948.500,-1195.000,-2001.000,-1097.500
0.769,-1948.500,-1195.000,-2000.500,-1095.500
0.770,-1949.000,-1195.500,-1999.500,-1093.500
0.771,-1949.000,-1196.000,-1998.500,-1092.000
0.772,-1949.500,-1196.500,-1998.000,-1090.500
0.773,-1950.000,-1197.000,-1997.500,-1089.500
0.774,-1950.500,-1198.000,-1997.500,-1089.000
0.775,-1951.500,-1199.500,-1998.000,-1089.500
0.776,-1952.000,-1201.000,-1998.500,-1090.000
0.777,-1952.500,-1202.500,-1999.500,-1091.000
0.778,-1953.500,-1204.000,-2001.000,-1092.500
0.779,-1953.500,-1205.500,-2002.000,-1094.000
0.780,-1953.500,-1207.000,-2003.000,-1095.000
0.781,-1953.500,-1207.500,-2003.500,-1096.500
0.782,-1953.000,-1208.500,-2004.000,-1097.500
0.783,-1953.000,-1209.500,-2005.000,-1098.500
0.784,-1953.000,-1210.500,-2005.500,-1100.000
0.785,-1953.000,-1211.000,-2006.000,-1100.500
0.786,-1952.000,-1211.000,-2005.500,-1099.500
0.787,-1950.500,-1210.000,-2003.500,-1097.500
0.788,-1948.500,-1208.500,-2000.500,-1094.500
0.789,-1946.000,-1206.000,-1997.000,-1090.500
0.790,-1943.500,-1203.500,-1993.500,-1086.000
0.791,-1941.000,-1201.500,-1990.500,-1082.000
0.792,-1939.500,-1200.500,-1988.000,-1079.000
0.793,-1938.500,-1200.000,-1986.500,-1076.500
0.794,-1938.500,-1200.000,-1985.500,-1075.500
0.795,-1938.500,-1201.000,-1985.500,-1075.500
0.796,-1939.500,-1202.500,-1986.000,-1076.000
0.797,-1940.000,-1204.000,-1986.500,-1077.000
0.798,-1940.500,-1205.000,-1987.000,-1077.500
0.799,-1940.500,-1206.000,-1987.500,-1078.500
0.800,-1940.500,-1206.500,-1988.000,-1079.500
0.801,-1940.000,-1207.500,-1989.000,-1080.500
0.802,-1940.000,-1208.500,-1990.000,-1082.000
0.803,-1940.000,-1209.500,-1991.000,-1083.500
0.804,-1939.500,-1210.500,-1991.500,-1084.500
0.805,-1939.000,-1211.000,-1992.000,-1084.500
0.806,-1938.000,-1210.500,-1991.000,-1083.500
0.807,-1936.000,-1209.000,-1989.000,-1081.500
0.808,-1933.500,-1207.000,-1986.000,-1078.000
0.809,-1931.500,-1205.000,-1982.500,-1074.500
0.810,-1930.000,-1203.500,-1980.000,-1071.000
0.811,-1929.000,-1202.500,-1978.000,-1068.000
0.812,-1928.000,-1201.500,-1976.500,-1065.500
0.813,-1927.000,-1200.500,-1974.500,-1063.000
0.814,-1925.500,-1199.500,-1973.000,-1060.500
0.815,-1923.500,-1198.000,-1971.000,-1058.000
0.816,-1921.500,-1197.000,-1969.000,-1056.000
0.817,-1919.500,-1195.500,-1967.500,-1054.500
0.818,-1918.000,-1195.000,-1966.500,-1053.500
0.819,-1918.000,-1195.500,-1966.500,-1054.500
0.820,-1919.000,-1197.000,-1968.500,-1057.000
0.821,-1921.000,-1200.000,-1971.500,-1060.500
0.822,-1923.500,-1203.000,-1975.000,-1064.000
0.823,-1925.000,-1205.500,-1977.500,-1067.000
0.824,-1926.000,-1206.500,-1979.000,-1068.500
0.825,-1925.500,-1207.000,-1979.500,-1069.000
0.826,-1925.000,-1207.000,-1979.000,-1068.500
0.827,-1924.000,-1206.500,-1978.000,-1067.500
0.828,-1922.500,-1205.500,-1976.000,-1065.000
0.829,-1920.500,-1204.000,-1973.500,-1062.000
0.830,-1919.000,-1202.000,-1971.000,-1058.500
0.831,-1918.000,-1201.000,-1969.000,-1055.500
0.832,-1918.000,-1200.500,-1968.000,-1053.500
0.833,-1918.500,-1201.000,-1968.000,-1053.000
0.834,-1920.000,-1202.000,-1969.000,-1053.000
0.835,-1921.500,-1203.500,-1970.000,-1054.000
0.836,-1923.500,-1205.500,-1971.500,-1055.500
0.837,-1925.500,-1208.000,-1974.000,-1058.000
0.838,-1927.500,-1210.500,-1976.500,-1060.500
0.839,-1929.500,-1213.500,-1979.500,-1063.500
0.840,-1932.000,-1216.000,-1982.500,-1067.000
0.841,-1934.000,-1219.000,-1986.000,-1070.500
0.842,-1936.500,-1221.500,-1989.500,-1074.000
0.843,-1938.500,-1224.500,-1992.500,-1077.000
0.844,-1940.500,-1226.500,-1995.500,-1080.000
0.845,-1942.000,-1228.500,-1997.500,-1082.000
0.846,-1943.500,-1230.500,-1999.500,-1083.500
0.847,-1945.500,-1232.500,-2001.000,-1085.000
0.848,-1948.000,-1234.500,-2003.500,-1086.500
0.849,-1951.000,-1237.500,-2006.000,-1088.000
0.850,-1954.500,-1240.500,-2009.000,-1090.000
0.851,-1958.500,-1244.000,-2012.000,-1092.000
0.852,-1962.500,-1247.500,-2015.000,-1094.500
0.853,-1966.500,-1251.000,-2018.500,-1097.500
0.854,-1970.000,-1255.000,-2022.000,-1100.500
0.855,-1974.000,-1259.000,-2025.500,-1104.000
0.856,-1978.000,-1263.500,-2030.000,-1108.500
0.857,-1982.500,-1268.500,-2035.000,-1113.000
0.858,-1986.500,-1273.500,-2040.000,-1118.000
0.859,-1990.500,-1277.500,-2044.500,-1123.000
0.860,-1993.000,-1281.000,-2049.000,-1127.500
0.861,-1995.500,-1284.000,-2052.500,-1131.500
0.862,-1998.000,-1286.500,-2056.000,-1135.500
0.863,-2000.500,-1289.500,-2059.500,-1139.500
0.864,-2002.500,-1292.000,-2063.000,-1143.000
0.865,-2004.500,-1294.500,-2065.500,-1146.000
0.866,-2006.000,-1296.500,-2067.500,-1148.000
0.867,-2007.000,-1297.500,-2068.500,-1148.500
0.868,-2007.500,-1298.000,-2069.000,-1148.500
0.869,-2008.000,-1298.500,-2069.000,-1148.000
0.870,-2009.000,-1299.000,-2069.500,-1147.000
0.871,-2010.000,-1300.000,-2070.000,-1147.000
0.872,-2012.000,-1301.500,-2071.500,-1147.000
0.873,-2014.000,-1303.000,-2073.000,-1148.000
0.874,-2015.500,-1305.000,-2074.500,-1149.000
0.875,-2017.000,-1306.000,-2075.500,-1149.500
0.876,-2018.000,-1306.500,-2076.500,-1150.500
0.877,-2019.000,-1307.500,-2077.000,-1151.500
0.878,-2020.000,-1308.500,-2078.500,-1153.000
0.879,-2021.500,-1310.000,-2080.500,-1155.500
0.880,-2022.500,-1311.500,-2083.000,-1158.000
0.881,-2024.000,-1313.000,-2085.500,-1160.500
0.882,-2024.500,-1314.000,-2087.000,-1162.500
0.883,-2025.000,-1315.000,-2088.500,-1164.500
0.884,-2025.000,-1315.000,-2089.500,-1165.500
0.885,-2025.000,-1315.000,-2090.500,-1166.500
0.886,-2025.500,-1315.000,-2091.000,-1167.000
0.887,-2025.500,-1315.000,-2091.000,-1167.000
0.888,-2025.500,-1315.000,-2091.500,-1166.500
0.889,-2026.000,-1315.000,-2091.500,-1165.500
0.890,-2026.500,-1315.000,-2091.000,-1164.500
0.891,-2027.000,-1315.000,-2091.000,-1163.500
0.892,-2027.500,-1315.000,-2090.500,-1162.000
0.893,-2027.000,-1314.500,-2090.000,-1161.000
0.894,-2027.000,-1314.500,-2089.500,-1160.500
0.895,-2027.500,-1315.000,-2090.000,-1160.500
0.896,-2028.000,-1316.000,-2091.000,-1161.500
0.897,-2029.500,-1317.500,-2093.000,-1163.500
0.898,-2031.500,-1320.000,-2095.500,-1166.000
0.899,-2033.500,-1322.000,-2098.500,-1169.500
0.900,-2035.500,-1324.500,-2102.000,-1173.000
0.901,-2038.000,-1327.500,-2105.500,-1177.500
0.902,-2041.000,-1330.500,-2109.500,-1182.500
0.903,-2044.000,-1334.000,-2114.000,-1188.000
0.904,-2047.500,-1338.000,-2118.500,-1193.000
0.905,-2050.500,-1341.500,-2122.500,-1198.000
0.906,-2053.000,-1344.000,-2125.500,-1201.500
0.907,-2054.500,-1346.000,-2127.500,-1203.500
0.908,-2055.000,-1346.000,-2128.000,-1203.500
0.909,-2054.000,-1345.000,-2126.500,-1201.500
0.910,-2051.000,-1341.500,-2123.000,-1197.000
0.911,-2046.000,-1336.000,-2117.000,-1190.000
0.912,-2039.000,-1329.000,-2109.000,-1181.500
0.913,-2031.000,-1320.500,-2100.000,-1172.000
0.914,-2021.500,-1310.500,-2089.500,-1161.000
0.915,-2011.000,-1300.000,-2078.500,-1149.500
0.916,-2000.500,-1289.000,-2067.000,-1138.000
0.917,-1989.500,-1278.000,-2056.000,-1127.000
0.918,-1979.500,-1267.000,-2045.000,-1116.000
0.919,-1969.000,-1256.500,-2034.000,-1105.500
0.920,-1958.000,-1245.000,-2022.500,-1094.500
0.921,-1944.500,-1231.500,-2009.000,-1081.000
0.922,-1928.500,-1215.500,-1992.500,-1064.500
0.923,-1909.000,-1195.500,-1972.500,-1044.500
0.924,-1886.500,-1172.500,-1949.000,-1021.000
0.925,-1861.500,-1147.000,-1922.500,-994.000
0.926,-1835.000,-1119.500,-1894.000,-965.000
0.927,-1807.000,-1091.000,-1864.500,-934.000
0.928,-1777.000,-1060.000,-1832.500,-900.500
0.929,-1744.500,-1026.000,-1797.500,-864.000
0.930,-1708.000,-988.500,-1759.000,-824.000
0.931,-1669.000,-948.000,-1717.500,-780.500
0.932,-1627.500,-905.500,-1674.000,-735.500
0.933,-1585.000,-862.500,-1629.500,-690.000
0.934,-1544.000,-820.500,-1586.500,-646.000
0.935,-1505.500,-781.000,-1547.000,-605.500
0.936,-1472.500,-747.500,-1512.500,-571.000
0.937,-1447.000,-721.500,-1486.500,-545.500
0.938,-1432.500,-707.000,-1472.000,-532.000
0.939,-1430.500,-705.000,-1471.500,-533.000
0.940,-1443.000,-718.000,-1486.000,-549.500
0.941,-1469.000,-745.000,-1514.500,-580.000
0.942,-1505.000,-782.500,-1554.000,-622.000
0.943,-1546.000,-825.000,-1599.000,-669.000
0.944,-1589.500,-869.500,-1645.500,-718.000
0.945,-1631.500,-913.500,-1691.500,-766.000
0.946,-1672.500,-955.500,-1735.000,-811.000
0.947,-1710.500,-994.500,-1775.500,-853.000
0.948,-1746.500,-1031.500,-1813.500,-892.000
0.949,-1782.000,-1067.500,-1850.500,-929.000
0.950,-1817.500,-1103.500,-1887.500,-966.500
0.951,-1855.000,-1141.000,-1925.500,-1004.000
0.952,-1892.000,-1178.500,-1963.500,-1042.000
0.953,-1928.000,-1214.500,-2000.000,-1078.500
0.954,-1959.500,-1246.500,-2033.000,-1111.000
0.955,-1986.500,-1274.000,-2061.000,-1139.000
0.956,-2009.000,-1296.500,-2084.500,-1162.000
0.957,-2027.500,-1315.500,-2104.000,-1182.000
0.958,-2043.500,-1332.000,-2121.000,-1199.000
0.959,-2057.000,-1346.500,-2136.000,-1214.500
0.960,-2069.500,-1359.000,-2149.500,-1229.000
0.961,-2080.000,-1370.000,-2162.000,-1242.000
0.962,-2089.500,-1380.500,-2173.500,-1254.000
0.963,-2098.000,-1389.000,-2183.500,-1264.500
0.964,-2104.500,-1396.000,-2191.500,-1273.000
0.965,-2109.500,-1401.000,-2197.500,-1278.500
0.966,-2111.500,-1403.500,-2200.500,-1281.500
0.967,-2112.500,-1404.000,-2201.500,-1282.000
0.968,-2111.500,-1402.500,-2200.000,-1280.000
0.969,-2110.000,-1400.500,-2198.000,-1277.000
0.970,-2107.500,-1397.500,-2195.000,-1273.000
0.971,-2105.500,-1394.500,-2192.000,-1269.000
0.972,-2103.500,-1392.000,-2189.500,-1265.000
0.973,-2101.500,-1389.500,-2187.000,-1262.000
0.974,-2099.500,-1387.000,-2184.500,-1259.500
0.975,-2097.500,-1385.000,-2182.500,-1257.500
0.976,-2095.000,-1382.500,-2181.000,-1255.500
0.977,-2092.500,-1380.000,-2179.000,-1254.000
0.978,-2090.500,-1377.500,-2177.000,-1252.500
0.979,-2088.000,-1375.500,-2176.000,-1251.500
0.980,-2086.000,-1373.500,-2174.500,-1251.000
0.981,-2084.000,-1371.500,-2174.000,-1251.000
0.982,-2082.000,-1370.000,-2173.000,-1251.000
0.983,-2080.500,-1368.500,-2173.000,-1251.500
0.984,-2079.500,-1367.500,-2173.000,-1252.000
0.985,-2078.500,-1366.500,-2172.500,-1252.000
0.986,-2077.500,-1365.000,-2171.500,-1251.000
0.987,-2076.000,-1363.500,-2170.500,-1250.000
0.988,-2075.000,-1362.000,-2169.000,-1248.000
0.989,-2074.000,-1360.500,-2167.500,-1246.000
0.990,-2073.000,-1359.000,-2166.500,-1244.000
0.991,-2072.500,-1358.000,-2165.000,-1242.000
0.992,-2071.500,-1357.000,-2164.000,-1240.000
0.993,-2071.000,-1355.500,-2163.000,-1238.500
0.994,-2070.000,-1354.500,-2162.500,-1238.000
0.995,-2069.500,-1353.500,-2162.500,-1237.500
0.996,-2069.000,-1353.000,-2162.500,-1237.500
0.997,-2068.500,-1353.000,-2162.500,-1238.000
0.998,-2068.500,-1353.000,-2163.500,-1239.000
0.999,-2068.500,-1353.000,-2165.000,-1240.500
1.000,-2069.000,-1354.000,-2166.500,-1243.000
1.001,-2069.500,-1355.000,-2168.000,-1245.500
1.002,-2070.000,-1356.000,-2170.000,-1248.500
1.003,-2070.500,-1356.500,-2171.500,-1250.500
1.004,-2070.000,-1356.500,-2172.000,-1252.000
1.005,-2069.000,-1355.500,-2171.500,-1252.500
1.006,-2067.500,-1354.000,-2170.000,-1251.500
1.007,-2066.000,-1352.000,-2168.500,-1250.000
1.008,-2064.500,-1350.500,-2167.000,-1248.000
1.009,-2063.500,-1349.000,-2166.000,-1246.500
1.010,-2063.000,-1348.000,-2165.500,-1245.000
1.011,-2063.000,-1347.500,-2165.000,-1244.000
1.012,-2063.000,-1347.500,-2165.000,-1243.000
1.013,-2063.000,-1347.500,-2165.500,-1243.000
1.014,-2063.500,-1347.500,-2165.500,-1243.000
1.015,-2064.000,-1347.500,-2166.000,-1243.500
1.016,-2064.500,-1348.000,-2166.500,-1244.000
1.017,-2065.000,-1348.500,-2167.500,-1245.000
1.018,-2065.500,-1349.000,-2168.500,-1247.000
1.019,-2066.000,-1350.000,-2170.000,-1249.000
1.020,-2066.000,-1351.000,-2171.000,-1251.000
1.021,-2066.000,-1351.000,-2172.000,-1253.000
1.022,-2065.500,-1351.000,-2172.500,-1254.500
1.023,-2064.500,-1350.500,-2173.000,-1256.000
1.024,-2064.000,-1350.500,-2173.500,-1257.000
1.025,-2063.500,-1350.000,-2174.000,-1258.000
1.026,-2063.000,-1349.500,-2173.500,-1258.500
1.027,-2062.000,-1348.500,-2173.000,-1258.000
1.028,-2061.500,-1348.000,-2172.000,-1257.000
1.029,-2061.000,-1347.000,-2171.000,-1256.000
1.030,-2061.000,-1346.000,-2170.500,-1254.500
1.031,-2061.000,-1346.000,-2170.500,-1254.000
1.032,-2061.500,-1346.000,-2171.000,-1253.500
1.033,-2062.000,-1346.000,-2171.500,-1253.500
1.034,-2062.500,-1346.000,-2172.000,-1254.000
1.035,-2062.500,-1346.500,-2172.500,-1254.500
1.036,-2063.000,-1346.500,-2173.500,-1255.500
1.037,-2063.000,-1346.500,-2174.500,-1256.500
1.038,-2063.500,-1347.000,-2176.000,-1258.000
1.039,-2063.500,-1347.500,-2177.000,-1260.000
1.040,-2063.500,-1347.500,-2178.000,-1261.500
1.041,-2063.000,-1347.500,-2179.000,-1263.000
1.042,-2061.500,-1346.500,-2179.000,-1264.000
1.043,-2060.000,-1345.500,-2178.500,-1264.500
1.044,-2058.500,-1344.500,-2178.500,-1264.500
1.045,-2057.000,-1343.000,-2177.500,-1264.500
1.046,-2055.500,-1341.500,-2177.000,-1263.500
1.047,-2054.000,-1340.000,-2176.000,-1262.500
1.048,-2052.500,-1339.000,-2175.000,-1261.000
1.049,-2051.500,-1337.500,-2173.500,-1259.500
1.050,-2050.500,-1336.000,-2172.500,-1257.500
1.051,-2050.000,-1335.000,-2171.500,-1255.500
1.052,-2049.500,-1334.000,-2170.500,-1254.500
1.053,-2049.500,-1333.500,-2170.000,-1253.500
1.054,-2049.000,-1333.000,-2170.000,-1253.000
1.055,-2048.500,-1333.000,-2170.000,-1253.000
1.056,-2048.000,-1332.500,-2169.500,-1252.500
1.057,-2047.000,-1331.500,-2169.500,-1252.500
1.058,-2045.500,-1331.000,-2169.000,-1253.000
1.059,-2044.000,-1330.000,-2169.000,-1253.500
1.060,-2042.500,-1329.500,-2168.500,-1254.000
1.061,-2041.500,-1329.000,-2169.000,-1255.500
1.062,-2040.500,-1328.500,-2169.500,-1257.000
1.063,-2040.000,-1329.000,-2170.500,-1258.500
1.064,-2040.000,-1329.000,-2171.500,-1260.500
1.065,-2040.000,-1329.500,-2172.500,-1262.000
1.066,-2039.500,-1329.000,-2173.000,-1262.500
1.067,-2039.000,-1329.000,-2173.000,-1262.500
1.068,-2039.000,-1328.500,-2173.000,-1262.500
1.069,-2038.500,-1328.000,-2172.500,-1261.500
1.070,-2038.000,-1327.000,-2172.000,-1260.500
1.071,-2037.500,-1326.000,-2170.500,-1259.000
1.072,-2036.000,-1324.000,-2168.500,-1256.500
1.073,-2033.500,-1321.500,-2166.000,-1254.000
1.074,-2031.000,-1319.500,-2163.500,-1251.500
1.075,-2029.500,-1318.000,-2161.500,-1250.500
1.076,-2028.500,-1317.000,-2161.000,-1250.500
1.077,-2028.000,-1317.000,-2161.500,-1252.000
1.078,-2027.500,-1317.000,-2162.000,-1253.000
1.079,-2027.000,-1317.000,-2163.000,-1255.000
1.080,-2027.000,-1317.500,-2164.500,-1257.000
1.081,-2027.000,-1318.000,-2166.500,-1259.500
1.082,-2027.000,-1318.500,-2168.000,-1262.000
1.083,-2026.500,-1318.000,-2169.000,-1263.500
1.084,-2024.000,-1316.000,-2168.000,-1263.000
1.085,-2020.500,-1313.000,-2165.500,-1261.000
1.086,-2016.500,-1309.000,-2162.000,-1257.500
1.087,-2012.500,-1305.500,-2158.000,-1254.000
1.088,-2009.000,-1302.000,-2155.000,-1250.500
1.089,-2007.000,-1299.500,-2152.500,-1247.500
1.090,-2006.000,-1298.000,-2151.000,-1245.500
1.091,-2005.500,-1297.500,-2150.500,-1244.000
1.092,-2005.500,-1297.000,-2149.500,-1243.000
1.093,-2005.000,-1296.500,-2149.000,-1242.000
1.094,-2004.500,-1296.000,-2148.500,-1241.500
1.095,-2004.000,-1295.500,-2148.500,-1241.500
1.096,-2003.000,-1294.500,-2148.000,-1241.000
1.097,-2001.500,-1293.500,-2147.500,-1240.500
1.098,-1999.500,-1292.000,-2146.500,-1240.500
1.099,-1997.500,-1290.500,-2146.000,-1240.500
1.100,-1996.000,-1289.500,-2146.000,-1241.000
1.101,-1994.000,-1288.000,-2145.500,-1241.500
1.102,-1992.500,-1287.000,-2145.500,-1242.000
1.103,-1990.500,-1285.500,-2145.000,-1242.000
1.104,-1988.500,-1284.000,-2144.000,-1242.000
1.105,-1987.000,-1283.000,-2143.500,-1241.500
1.106,-1985.000,-1281.000,-2142.000,-1240.500
1.107,-1983.500,-1279.500,-2141.000,-1239.000
1.108,-1981.500,-1277.000,-2139.000,-1236.500
1.109,-1979.000,-1274.500,-2136.500,-1233.000
1.110,-1976.500,-1271.500,-2133.500,-1229.500
1.111,-1973.500,-1268.500,-2130.000,-1225.500
1.112,-1971.000,-1265.500,-2127.000,-1221.500
1.113,-1968.500,-1262.500,-2124.000,-1218.500
1.114,-1966.000,-1260.000,-2121.000,-1215.500
1.115,-1963.500,-1257.500,-2118.500,-1213.500
1.116,-1961.500,-1255.000,-2116.000,-1212.000
1.117,-1960.000,-1253.500,-2114.500,-1211.000
1.118,-1958.000,-1251.500,-2113.000,-1210.000
1.119,-1955.500,-1249.500,-2112.000,-1209.500
1.120,-1952.500,-1247.500,-2111.000,-1209.000
1.121,-1949.500,-1245.000,-2109.500,-1208.000
1.122,-1947.000,-1242.500,-2108.000,-1207.500
1.123,-1944.500,-1240.500,-2107.000,-1207.500
1.124,-1942.500,-1239.000,-2105.500,-1207.000
1.125,-1940.500,-1236.500,-2103.500,-1206.000
1.126,-1938.000,-1234.000,-2101.000,-1204.000
1.127,-1934.500,-1230.500,-2098.000,-1200.500
1.128,-1931.000,-1226.500,-2094.500,-1196.500
1.129,-1928.000,-1223.000,-2091.000,-1192.500
1.130,-1925.000,-1219.500,-2087.500,-1188.000
1.131,-1922.000,-1216.000,-2084.000,-1184.000
1.132,-1918.500,-1212.000,-2080.000,-1180.000
1.133,-1914.500,-1208.000,-2075.500,-1175.500
1.134,-1911.000,-1204.000,-2071.500,-1172.000
1.135,-1907.500,-1200.000,-2068.000,-1168.500
1.136,-1904.000,-1196.500,-2065.000,-1165.500
1.137,-1901.000,-1193.000,-2062.500,-1163.500
1.138,-1898.500,-1190.500,-2061.000,-1162.000
1.139,-1896.500,-1188.500,-2060.000,-1161.500
1.140,-1894.500,-1186.500,-2059.000,-1161.500
1.141,-1892.000,-1185.000,-2058.000,-1161.500
1.142,-1889.000,-1182.500,-2056.500,-1161.000
1.143,-1886.000,-1179.500,-2054.500,-1160.000
1.144,-1882.500,-1176.000,-2052.000,-1158.000
1.145,-1878.500,-1172.000,-2048.500,-1155.000
1.146,-1874.000,-1167.500,-2044.500,-1151.000
1.147,-1869.500,-1162.500,-2040.000,-1146.500
1.148,-1865.500,-1158.000,-2035.500,-1142.000
1.149,-1862.000,-1154.500,-2032.000,-1138.500
1.150,-1859.500,-1151.500,-2029.000,-1135.000
1.151,-1857.500,-1149.000,-2026.500,-1132.000
1.152,-1855.500,-1146.500,-2023.000,-1128.500
1.153,-1852.500,-1142.500,-2019.500,-1124.500
1.154,-1848.500,-1138.500,-2015.000,-1120.500
1.155,-1845.500,-1135.000,-2011.500,-1117.000
1.156,-1842.500,-1132.500,-2009.000,-1115.000
1.157,-1841.000,-1131.000,-2008.000,-1114.500
1.158,-1839.500,-1130.000,-2007.500,-1114.500
1.159,-1838.500,-1129.500,-2008.000,-1115.000
1.160,-1837.500,-1129.000,-2008.500,-1116.000
1.161,-1836.500,-1128.500,-2009.000,-1117.500
1.162,-1836.000,-1128.000,-2009.000,-1118.500
1.163,-1835.000,-1127.000,-2009.000,-1119.000
1.164,-1833.000,-1125.000,-2008.000,-1118.500
1.165,-1830.000,-1122.500,-2006.000,-1117.000
1.166,-1827.000,-1119.000,-2003.000,-1114.500
1.167,-1823.500,-1115.500,-2000.000,-1111.500
1.168,-1821.000,-1112.000,-1997.000,-1108.500
1.169,-1818.500,-1109.500,-1994.500,-1105.000
1.170,-1817.000,-1107.500,-1992.500,-1102.500
1.171,-1816.000,-1106.000,-1991.000,-1100.500
1.172,-1816.000,-1105.500,-1990.500,-1099.500
1.173,-1816.000,-1105.000,-1990.000,-1099.000
1.174,-1816.000,-1105.000,-1990.000,-1099.500
1.175,-1816.500,-1105.500,-1991.000,-1100.000
1.176,-1817.000,-1106.000,-1992.000,-1101.500
1.177,-1818.000,-1107.500,-1994.000,-1103.500
1.178,-1819.000,-1109.000,-1996.500,-1106.500
1.179,-1820.500,-1111.000,-1999.500,-1110.500
1.180,-1822.500,-1113.500,-2003.000,-1114.500
1.181,-1824.500,-1116.000,-2006.500,-1119.000
1.182,-1826.500,-1119.000,-2010.000,-1123.500
1.183,-1829.000,-1121.500,-2014.000,-1128.500
1.184,-1831.000,-1124.000,-2017.000,-1132.500
1.185,-1832.500,-1126.000,-2019.500,-1135.500
1.186,-1833.500,-1127.000,-2021.500,-1137.500
1.187,-1834.500,-1128.000,-2023.000,-1139.500
1.188,-1836.000,-1129.500,-2025.000,-1140.500
1.189,-1838.000,-1132.000,-2027.000,-1142.500
1.190,-1840.500,-1134.500,-2029.500,-1144.500
1.191,-1844.000,-1137.500,-2033.000,-1147.500
1.192,-1848.000,-1141.500,-2036.500,-1151.500
1.193,-1852.500,-1145.500,-2041.000,-1156.000
1.194,-1857.000,-1150.000,-2045.500,-1160.500
1.195,-1861.000,-1154.000,-2050.000,-1165.500
1.196,-1865.500,-1158.500,-2055.000,-1171.000
1.197,-1870.000,-1163.500,-2060.500,-1177.000
1.198,-1874.000,-1168.000,-2066.000,-1183.500
1.199,-1877.500,-1172.500,-2071.000,-1189.500
1.200,-1881.000,-1176.500,-2076.000,-1195.000
1.201,-1884.000,-1180.500,-2081.000,-1201.000
1.202,-1888.000,-1185.000,-2087.000,-1207.500
1.203,-1892.000,-1189.500,-2092.500,-1214.000
1.204,-1896.000,-1194.000,-2098.500,-1220.500
1.205,-1899.500,-1198.000,-2103.000,-1226.000
1.206,-1902.500,-1201.500,-2107.500,-1230.500
1.207,-1905.500,-1204.500,-2111.000,-1234.000
1.208,-1908.500,-1207.500,-2114.000,-1237.000
1.209,-1911.000,-1210.500,-2117.500,-1239.500
1.210,-1914.000,-1213.000,-2120.500,-1242.000
1.211,-1917.000,-1216.000,-2123.500,-1244.500
1.212,-1920.500,-1219.000,-2126.500,-1247.500
1.213,-1924.000,-1222.000,-2129.500,-1251.000
1.214,-1927.500,-1225.500,-2133.500,-1255.000
1.215,-1932.000,-1229.500,-2138.000,-1260.000
1.216,-1936.000,-1234.000,-2143.000,-1265.500
1.217,-1940.000,-1238.000,-2148.000,-1271.000
1.218,-1943.500,-1242.000,-2153.000,-1276.500
1.219,-1947.000,-1245.500,-2158.000,-1282.000
1.220,-1950.000,-1249.000,-2162.500,-1287.500
1.221,-1953.000,-1252.500,-2167.500,-1293.500
1.222,-1955.500,-1256.000,-2172.000,-1299.000
1.223,-1957.500,-1259.000,-2176.000,-1303.500
1.224,-1959.000,-1261.000,-2179.000,-1307.500
1.225,-1960.000,-1262.000,-2181.000,-1310.000
1.226,-1960.500,-1262.500,-2182.000,-1312.000
1.227,-1960.500,-1263.000,-2182.500,-1312.500
1.228,-1960.500,-1263.000,-2183.000,-1312.500
1.229,-1961.000,-1263.500,-2183.500,-1313.000
1.230,-1962.500,-1264.000,-2184.500,-1313.500
1.231,-1964.000,-1265.000,-2186.000,-1314.000
1.232,-1965.500,-1266.500,-2187.500,-1315.500
1.233,-1967.500,-1268.500,-2189.000,-1317.000
1.234,-1969.500,-1270.500,-2191.500,-1319.500
1.235,-1972.000,-1273.000,-2194.000,-1322.500
1.236,-1974.500,-1275.500,-2197.500,-1326.000
1.237,-1977.000,-1278.500,-2201.000,-1330.000
1.238,-1979.500,-1281.000,-2204.500,-1334.000
1.239,-1981.500,-1283.500,-2207.500,-1338.000
1.240,-1983.000,-1285.500,-2210.500,-1341.500
1.241,-1984.500,-1287.500,-2213.500,-1345.500
1.242,-1985.000,-1289.500,-2216.000,-1349.000
1.243,-1985.500,-1290.500,-2218.000,-1352.000
1.244,-1986.000,-1291.500,-2220.000,-1354.500
1.245,-1986.500,-1292.500,-2221.500,-1356.000
1.246,-1986.500,-1293.000,-2222.000,-1357.000
1.247,-1986.500,-1293.000,-2222.500,-1357.500
1.248,-1986.500,-1293.000,-2222.500,-1357.500
1.249,-1986.000,-1292.500,-2222.000,-1356.500
1.250,-1986.000,-1292.000,-2221.500,-1355.500
1.251,-1986.000,-1292.000,-2221.500,-1355.000
1.252,-1986.500,-1292.000,-2222.000,-1355.000
1.253,-1987.500,-1293.000,-2223.000,-1356.000
1.254,-1989.000,-1294.000,-2224.500,-1357.500
1.255,-1990.000,-1295.000,-2226.000,-1359.500
1.256,-1991.500,-1296.500,-2227.500,-1361.500
1.257,-1992.500,-1298.000,-2230.000,-1364.000
1.258,-1993.500,-1299.500,-2232.000,-1366.500
1.259,-1994.500,-1300.500,-2234.500,-1369.500
1.260,-1994.500,-1301.500,-2236.000,-1372.000
1.261,-1995.000,-1302.000,-2238.000,-1374.500
1.262,-1995.000,-1302.500,-2239.000,-1377.000
1.263,-1994.500,-1303.000,-2240.500,-1379.000
1.264,-1994.500,-1303.500,-2241.500,-1381.000
1.265,-1994.000,-1303.500,-2242.000,-1382.000
1.266,-1993.000,-1302.500,-2242.000,-1382.000
1.267,-1991.500,-1301.500,-2241.000,-1381.500
1.268,-1990.000,-1300.000,-2239.500,-1379.500
1.269,-1988.500,-1298.500,-2237.500,-1377.500
1.270,-1987.500,-1297.000,-2236.500,-1375.500
1.271,-1987.500,-1297.000,-2236.000,-1374.500
1.272,-1988.000,-1297.000,-2236.000,-1374.000
1.273,-1988.500,-1297.000,-2236.000,-1374.000
1.274,-1988.500,-1297.000,-2236.000,-1374.000
1.275,-1988.500,-1297.000,-2236.000,-1374.000
1.276,-1988.000,-1297.000,-2236.500,-1375.000
1.277,-1988.000,-1297.500,-2237.500,-1376.500
1.278,-1988.000,-1298.000,-2239.000,-1379.000
1.279,-1989.000,-1299.500,-2241.000,-1381.500
1.280,-1989.500,-1301.000,-2243.000,-1384.500
1.281,-1990.000,-1302.000,-2245.000,-1387.500
1.282,-1990.500,-1303.500,-2247.000,-1390.500
1.283,-1991.000,-1304.000,-2248.500,-1392.500
1.284,-1991.000,-1304.500,-2249.500,-1394.500
1.285,-1991.000,-1305.000,-2250.500,-1395.500
1.286,-1990.000,-1304.500,-2250.500,-1396.000
1.287,-1988.500,-1303.000,-2250.000,-1394.500
1.288,-1986.000,-1301.000,-2247.500,-1392.000
1.289,-1983.500,-1298.000,-2245.000,-1389.000
1.290,-1981.500,-1296.000,-2243.000,-1386.000
1.291,-1980.500,-1294.500,-2242.000,-1384.500
1.292,-1980.000,-1294.000,-2241.000,-1383.000
1.293,-1979.500,-1293.000,-2240.500,-1382.500
1.294,-1979.000,-1293.000,-2240.500,-1382.500
1.295,-1978.500,-1292.500,-2240.500,-1383.000
1.296,-1978.500,-1292.500,-2241.500,-1384.500
1.297,-1979.000,-1293.500,-2243.000,-1386.500
1.298,-1980.500,-1295.000,-2245.500,-1389.000
1.299,-1981.500,-1297.500,-2248.500,-1392.500
1.300,-1982.500,-1299.000,-2251.500,-1396.000
1.301,-1983.000,-1300.000,-2253.500,-1399.000
1.302,-1983.500,-1301.000,-2255.500,-1401.500
1.303,-1983.000,-1301.000,-2256.500,-1403.000
1.304,-1982.000,-1301.000,-2257.000,-1404.000
1.305,-1980.500,-1300.000,-2256.500,-1404.500
1.306,-1979.000,-1298.500,-2256.000,-1404.000
1.307,-1978.000,-1297.500,-2255.500,-1403.500
1.308,-1977.500,-1297.000,-2255.000,-1402.500
1.309,-1976.500,-1296.000,-2254.000,-1401.500
1.310,-1975.500,-1295.000,-2253.000,-1399.000
1.311,-1974.000,-1293.500,-2251.500,-1397.000
1.312,-1973.500,-1292.500,-2250.500,-1395.500
1.313,-1973.000,-1292.000,-2250.000,-1394.500
1.314,-1972.500,-1292.000,-2249.500,-1394.500
1.315,-1972.500,-1291.500,-2249.500,-1394.500
1.316,-1972.000,-1291.500,-2249.500,-1395.000
1.317,-1971.000,-1291.500,-2250.000,-1395.000
1.318,-1970.000,-1291.000,-2250.000,-1396.000
1.319,-1969.000,-1290.500,-2250.500,-1397.000
1.320,-1967.500,-1290.000,-2251.000,-1398.500
1.321,-1967.000,-1290.500,-2252.500,-1400.000
1.322,-1967.000,-1291.000,-2254.000,-1402.500
1.323,-1967.000,-1291.500,-2256.000,-1405.000
1.324,-1966.500,-1291.500,-2257.000,-1406.500
1.325,-1966.000,-1291.500,-2257.500,-1407.000
1.326,-1965.000,-1291.000,-2257.000,-1407.000
1.327,-1964.000,-1290.000,-2256.500,-1405.500
1.328,-1962.500,-1288.000,-2255.000,-1403.500
1.329,-1961.000,-1286.000,-2253.000,-1401.000
1.330,-1959.000,-1284.000,-2251.000,-1398.500
1.331,-1958.000,-1282.500,-2249.500,-1396.500
1.332,-1957.000,-1281.500,-2248.500,-1394.500
1.333,-1956.500,-1281.000,-2248.000,-1394.000
1.334,-1956.500,-1281.000,-2248.000,-1394.000
1.335,-1957.000,-1281.500,-2249.000,-1394.500
1.336,-1957.000,-1282.500,-2250.000,-1396.000
1.337,-1957.500,-1283.000,-2251.000,-1397.500
1.338,-1957.000,-1283.500,-2252.000,-1399.500
1.339,-1957.000,-1283.500,-2253.500,-1401.000
1.340,-1956.500,-1284.000,-2254.500,-1403.000
1.341,-1956.000,-1284.500,-2256.000,-1405.500
1.342,-1956.000,-1285.000,-2257.500,-1407.500
1.343,-1955.500,-1285.500,-2258.000,-1409.500
1.344,-1954.500,-1285.000,-2258.500,-1410.500
1.345,-1953.500,-1284.000,-2258.000,-1410.500
1.346,-1952.000,-1283.000,-2257.000,-1410.000
1.347,-1951.000,-1282.000,-2256.500,-1409.000
1.348,-1950.500,-1281.000,-2256.000,-1408.000
1.349,-1950.000,-1280.500,-2255.500,-1406.500
1.350,-1949.500,-1279.500,-2255.000,-1405.000
1.351,-1948.500,-1278.000,-2253.500,-1403.000
1.352,-1947.000,-1276.500,-2252.500,-1401.000
1.353,-1946.500,-1276.000,-2251.500,-1400.000
1.354,-1946.000,-1276.000,-2251.500,-1400.000
1.355,-1946.500,-1276.000,-2252.000,-1400.500
1.356,-1947.000,-1277.000,-2253.500,-1402.000
1.357,-1948.000,-1278.000,-2255.000,-1404.000
1.358,-1949.000,-1278.500,-2257.000,-1406.000
1.359,-1949.000,-1279.500,-2258.500,-1408.000
1.360,-1949.500,-1280.000,-2260.000,-1410.500
1.361,-1949.000,-1281.000,-2261.500,-1412.500
1.362,-1949.000,-1281.500,-2262.500,-1414.500
1.363,-1948.500,-1281.500,-2263.500,-1416.500
1.364,-1948.500,-1282.000,-2264.500,-1418.000
1.365,-1948.000,-1282.000,-2265.000,-1419.000
1.366,-1947.500,-1281.500,-2265.500,-1419.500
1.367,-1947.000,-1281.000,-2265.500,-1419.000
1.368,-1946.500,-1280.500,-2265.000,-1418.000
1.369,-1946.000,-1280.500,-2265.000,-1417.500
1.370,-1946.000,-1280.500,-2264.500,-1416.500
1.371,-1946.000,-1280.000,-2264.500,-1415.500
1.372,-1945.500,-1280.000,-2264.000,-1414.500
1.373,-1945.000,-1279.500,-2263.500,-1414.000
1.374,-1944.500,-1279.000,-2263.500,-1413.500
1.375,-1944.000,-1279.000,-2263.500,-1413.500
1.376,-1944.000,-1278.500,-2264.000,-1414.000
1.377,-1943.000,-1278.500,-2264.000,-1414.500
1.378,-1942.500,-1278.000,-2264.000,-1415.500
1.379,-1942.000,-1278.000,-2264.500,-1416.500
1.380,-1941.500,-1278.500,-2265.500,-1418.500
1.381,-1942.000,-1279.500,-2267.000,-1421.000
1.382,-1942.500,-1281.000,-2269.000,-1423.500
1.383,-1943.500,-1282.000,-2271.000,-1426.000
1.384,-1944.000,-1283.000,-2272.500,-1428.000
1.385,-1944.000,-1283.500,-2273.500,-1429.500
1.386,-1943.500,-1283.500,-2274.000,-1429.500
1.387,-1943.000,-1282.500,-2273.500,-1428.500
1.388,-1942.000,-1281.500,-2273.000,-1427.000
1.389,-1941.000,-1280.500,-2272.000,-1425.000
1.390,-1940.000,-1279.500,-2271.000,-1423.500
1.391,-1940.000,-1279.500,-2271.000,-1422.500
1.392,-1940.000,-1280.000,-2272.000,-1423.000
1.393,-1941.000,-1281.000,-2273.500,-1424.000
1.394,-1942.000,-1283.000,-2275.000,-1426.000
1.395,-1943.000,-1284.000,-2276.500,-1428.000
1.396,-1943.000,-1284.500,-2277.000,-1429.500
1.397,-1942.000,-1284.500,-2277.500,-1430.500
1.398,-1941.000,-1284.000,-2277.500,-1431.000
1.399,-1939.500,-1283.500,-2278.000,-1432.500
1.400,-1939.000,-1284.000,-2279.000,-1434.500
1.401,-1938.500,-1284.500,-2280.500,-1436.500
1.402,-1938.500,-1285.000,-2282.000,-1439.000
1.403,-1938.500,-1285.500,-2283.500,-1441.000
1.404,-1938.000,-1285.500,-2284.000,-1442.000
1.405,-1937.000,-1285.000,-2283.500,-1442.500
1.406,-1935.500,-1283.500,-2282.000,-1441.000
1.407,-1933.500,-1281.500,-2280.000,-1439.000
1.408,-1931.000,-1279.000,-2277.000,-1435.500
1.409,-1928.500,-1276.000,-2274.000,-1432.000
1.410,-1926.500,-1273.500,-2271.500,-1429.000
1.411,-1925.500,-1272.000,-2270.000,-1426.500
1.412,-1925.500,-1272.000,-2269.500,-1425.500
1.413,-1926.000,-1272.500,-2270.000,-1425.500
1.414,-1927.000,-1273.000,-2270.500,-1426.000
1.415,-1927.000,-1273.000,-2270.500,-1426.000
1.416,-1926.500,-1273.000,-2270.500,-1426.000
1.417,-1925.500,-1272.000,-2270.500,-1426.000
1.418,-1925.000,-1272.000,-2270.500,-1426.500
1.419,-1924.500,-1272.000,-2271.500,-1427.500
1.420,-1924.500,-1272.500,-2272.500,-1429.000
1.421,-1924.500,-1273.000,-2274.000,-1431.500
1.422,-1924.500,-1274.000,-2276.000,-1434.000
1.423,-1925.000,-1274.500,-2277.500,-1436.000
1.424,-1925.000,-1275.500,-2279.000,-1438.000
1.425,-1924.500,-1275.500,-2279.500,-1439.000
1.426,-1923.500,-1274.500,-2279.500,-1438.500
1.427,-1922.500,-1273.500,-2279.000,-1437.500
1.428,-1921.500,-1272.500,-2278.000,-1436.000
1.429,-1921.000,-1271.500,-2277.500,-1434.000
1.430,-1920.000,-1270.500,-2276.500,-1432.500
1.431,-1919.500,-1269.500,-2276.000,-1431.000
1.432,-1918.500,-1268.500,-2275.500,-1429.500
1.433,-1918.000,-1268.000,-2274.500,-1428.000
1.434,-1917.000,-1267.000,-2273.500,-1427.000
1.435,-1915.500,-1266.000,-2273.000,-1426.500
1.436,-1915.000,-1265.500,-2272.500,-1427.000
1.437,-1914.500,-1266.000,-2273.000,-1428.000
1.438,-1915.000,-1266.500,-2274.500,-1430.000
1.439,-1915.000,-1267.500,-2276.000,-1432.500
1.440,-1915.000,-1268.500,-2277.500,-1435.000
1.441,-1914.500,-1268.500,-2278.500,-1437.000
1.442,-1913.500,-1268.000,-2279.000,-1438.000
1.443,-1912.000,-1268.000,-2279.000,-1439.000
1.444,-1911.000,-1267.500,-2279.000,-1439.500
1.445,-1909.500,-1266.500,-2279.000,-1439.500
1.446,-1907.500,-1265.500,-2278.000,-1439.000
1.447,-1905.500,-1263.500,-2276.000,-1437.000
1.448,-1902.500,-1260.500,-2273.500,-1434.000
1.449,-1899.500,-1257.500,-2270.000,-1429.500
1.450,-1896.500,-1254.000,-2266.500,-1425.500
1.451,-1893.500,-1250.000,-2263.500,-1421.000
1.452,-1890.500,-1247.000,-2260.000,-1417.500
1.453,-1888.000,-1244.000,-2257.500,-1414.000
1.454,-1885.500,-1241.500,-2255.000,-1412.000
1.455,-1883.000,-1239.500,-2253.500,-1410.000
1.456,-1881.000,-1237.500,-2251.500,-1408.500
1.457,-1879.000,-1236.500,-2250.500,-1408.000
1.458,-1878.000,-1235.500,-2250.500,-1408.500
1.459,-1877.500,-1236.000,-2251.500,-1410.000
1.460,-1878.000,-1237.500,-2253.000,-1412.500
1.461,-1879.000,-1238.500,-2255.000,-1415.500
1.462,-1879.000,-1239.500,-2256.000,-1418.000
1.463,-1878.500,-1239.500,-2257.000,-1419.500
1.464,-1877.500,-1239.000,-2257.000,-1420.000
1.465,-1876.000,-1238.000,-2257.000,-1420.500
1.466,-1875.000,-1237.000,-2256.500,-1420.000
1.467,-1874.000,-1236.500,-2256.000,-1419.500
1.468,-1872.500,-1235.000,-2255.000,-1417.500
1.469,-1870.500,-1232.500,-2252.500,-1414.500
1.470,-1867.500,-1229.500,-2249.000,-1410.500
1.471,-1864.000,-1225.500,-2245.000,-1406.000
1.472,-1860.500,-1222.000,-2241.000,-1401.500
1.473,-1857.500,-1219.000,-2238.000,-1398.000
1.474,-1854.500,-1216.500,-2235.500,-1395.500
1.475,-1852.500,-1214.000,-2233.500,-1393.500
1.476,-1850.500,-1212.500,-2232.000,-1392.500
1.477,-1848.500,-1211.000,-2231.000,-1392.000
1.478,-1846.500,-1210.000,-2230.000,-1391.500
1.479,-1844.500,-1208.500,-2229.000,-1391.500
1.480,-1842.500,-1207.000,-2228.000,-1391.500
1.481,-1840.500,-1206.000,-2228.000,-1392.000
1.482,-1839.500,-1205.500,-2228.000,-1393.000
1.483,-1838.500,-1205.000,-2228.500,-1394.500
1.484,-1838.500,-1205.000,-2229.000,-1395.500
1.485,-1838.500,-1205.500,-2230.000,-1397.000
1.486,-1838.000,-1205.500,-2230.000,-1397.500
1.487,-1838.000,-1205.000,-2230.000,-1397.000
1.488,-1837.000,-1204.000,-2229.500,-1396.000
1.489,-1836.000,-1203.000,-2228.000,-1394.500
1.490,-1834.500,-1201.500,-2226.500,-1392.000
1.491,-1833.000,-1199.500,-2224.500,-1389.500
1.492,-1831.000,-1197.500,-2222.500,-1387.500
1.493,-1829.000,-1195.500,-2220.000,-1385.000
1.494,-1827.000,-1193.000,-2218.000,-1383.000
1.495,-1825.000,-1191.500,-2216.000,-1382.000
1.496,-1824.000,-1190.500,-2215.500,-1381.500
1.497,-1824.000,-1190.500,-2216.000,-1382.500
1.498,-1824.500,-1191.500,-2217.500,-1385.000
1.499,-1825.500,-1193.500,-2219.500,-1388.000
1.500,-1826.500,-1195.000,-2222.000,-1391.500
1.501,-1827.500,-1197.000,-2225.000,-1395.000
1.502,-1828.500,-1199.000,-2227.500,-1398.500
1.503,-1829.500,-1201.000,-2230.000,-1401.500
1.504,-1829.500,-1202.000,-2231.500,-1404.000
1.505,-1829.500,-1202.000,-2232.500,-1405.000
1.506,-1829.000,-1202.000,-2232.500,-1405.500
1.507,-1828.500,-1202.000,-2232.500,-1405.500
1.508,-1828.500,-1201.500,-2232.500,-1405.000
1.509,-1828.500,-1201.000,-2232.000,-1404.500
1.510,-1829.000,-1201.500,-2231.500,-1404.000
1.511,-1829.500,-1202.000,-2232.000,-1404.000
1.512,-1831.000,-1203.500,-2233.000,-1405.000
1.513,-1833.500,-1205.500,-2235.000,-1407.500
1.514,-1836.500,-1208.500,-2238.000,-1410.500
1.515,-1839.500,-1212.000,-2242.000,-1415.000
1.516,-1843.500,-1216.000,-2246.000,-1420.000
1.517,-1847.500,-1220.000,-2251.000,-1425.000
1.518,-1851.000,-1224.500,-2256.000,-1430.500
1.519,-1854.000,-1228.000,-2260.500,-1435.000
1.520,-1856.000,-1231.000,-2264.500,-1440.000
1.521,-1858.500,-1234.000,-2268.500,-1444.500
1.522,-1860.500,-1237.000,-2272.500,-1449.000
1.523,-1862.500,-1240.000,-2276.000,-1453.500
1.524,-1864.000,-1242.000,-2279.000,-1457.000
1.525,-1865.500,-1244.000,-2282.000,-1460.000
1.526,-1867.000,-1245.500,-2284.000,-1462.000
1.527,-1868.500,-1247.500,-2285.500,-1464.000
1.528,-1869.500,-1248.500,-2287.000,-1465.500
1.529,-1871.000,-1250.000,-2287.500,-1466.000
1.530,-1872.000,-1251.000,-2288.000,-1466.500
1.531,-1872.500,-1251.500,-2288.000,-1466.500
1.532,-1873.000,-1251.500,-2288.000,-1466.500
1.533,-1873.000,-1251.500,-2288.000,-1466.500
1.534,-1873.000,-1252.000,-2288.500,-1467.000
1.535,-1873.500,-1252.500,-2289.500,-1468.000
1.536,-1874.500,-1254.000,-2291.000,-1470.000
1.537,-1876.000,-1255.500,-2293.000,-1473.000
1.538,-1877.000,-1257.500,-2295.500,-1475.500
1.539,-1878.000,-1259.000,-2297.500,-1478.500
1.540,-1878.500,-1260.000,-2299.000,-1481.000
1.541,-1878.000,-1260.500,-2300.000,-1483.000
1.542,-1878.000,-1261.000,-2300.500,-1485.000
1.543,-1877.500,-1261.000,-2301.000,-1486.500
1.544,-1877.000,-1261.000,-2301.500,-1487.500
1.545,-1876.500,-1261.000,-2302.000,-1488.500
1.546,-1876.500,-1261.000,-2302.000,-1489.000
1.547,-1876.000,-1261.000,-2302.000,-1489.000
1.548,-1876.000,-1261.000,-2301.500,-1488.500
1.549,-1875.500,-1260.500,-2301.000,-1487.500
1.550,-1875.000,-1260.000,-2300.000,-1486.000
1.551,-1874.000,-1259.000,-2299.000,-1484.500
1.552,-1873.000,-1257.500,-2297.500,-1483.000
1.553,-1871.500,-1256.500,-2296.000,-1481.500
1.554,-1871.000,-1255.500,-2295.000,-1480.500
1.555,-1870.500,-1255.000,-2295.000,-1481.000
1.556,-1871.000,-1255.500,-2295.500,-1482.000
1.557,-1872.000,-1257.000,-2297.500,-1484.500
1.558,-1873.000,-1258.500,-2299.500,-1487.000
1.559,-1874.000,-1260.500,-2302.000,-1490.500
1.560,-1875.000,-1262.500,-2304.500,-1493.500
1.561,-1875.500,-1263.500,-2306.500,-1496.500
1.562,-1876.000,-1264.500,-2308.000,-1499.500
1.563,-1876.000,-1265.500,-2309.500,-1502.000
1.564,-1876.500,-1266.000,-2310.500,-1504.500
1.565,-1877.000,-1267.000,-2312.000,-1506.500
1.566,-1878.500,-1268.000,-2313.500,-1509.000
1.567,-1880.000,-1270.000,-2315.500,-1511.000
1.568,-1882.000,-1272.000,-2317.500,-1513.000
1.569,-1884.000,-1274.000,-2319.500,-1515.000
1.570,-1885.500,-1275.500,-2321.500,-1516.500
1.571,-1887.000,-1277.000,-2323.000,-1517.500
1.572,-1887.000,-1277.000,-2323.000,-1517.000
1.573,-1885.500,-1275.000,-2321.500,-1515.500
1.574,-1881.500,-1271.000,-2317.500,-1511.500
1.575,-1875.500,-1265.000,-2312.000,-1506.000
1.576,-1868.000,-1258.000,-2304.500,-1499.500
1.577,-1859.500,-1249.500,-2296.500,-1491.500
1.578,-1849.500,-1240.000,-2287.500,-1483.000
1.579,-1839.500,-1230.000,-2278.000,-1474.000
1.580,-1829.000,-1219.500,-2268.000,-1464.500
1.581,-1819.000,-1209.500,-2258.000,-1455.500
1.582,-1808.000,-1198.500,-2248.000,-1445.500
1.583,-1796.000,-1187.000,-2236.000,-1434.500
1.584,-1782.000,-1173.000,-2222.500,-1421.000
1.585,-1765.000,-1156.000,-2205.500,-1404.000
1.586,-1745.500,-1136.000,-2184.500,-1383.000
1.587,-1722.500,-1112.500,-2160.500,-1358.500
1.588,-1697.000,-1086.500,-2133.500,-1330.500
1.589,-1670.500,-1058.500,-2104.500,-1300.500
1.590,-1642.000,-1029.000,-2074.500,-1269.000
1.591,-1613.000,-998.500,-2042.500,-1236.000
1.592,-1581.500,-966.500,-2009.000,-1201.500
1.593,-1547.500,-931.500,-1973.000,-1164.000
1.594,-1510.500,-893.500,-1934.000,-1124.500
1.595,-1470.500,-852.500,-1892.000,-1081.500
1.596,-1428.000,-809.500,-1848.500,-1037.500
1.597,-1384.500,-766.000,-1804.000,-992.500
1.598,-1342.000,-723.000,-1761.000,-949.000
1.599,-1302.500,-683.500,-1721.500,-909.500
1.600,-1269.500,-650.500,-1688.500,-877.000
1.601,-1245.500,-626.500,-1665.000,-854.500
1.602,-1234.000,-615.000,-1654.000,-844.500
1.603,-1236.000,-617.500,-1657.500,-849.500
1.604,-1252.000,-634.500,-1675.000,-869.000
1.605,-1280.000,-663.500,-1705.500,-901.000
1.606,-1316.500,-700.500,-1744.000,-941.000
1.607,-1356.500,-742.000,-1786.500,-985.000
1.608,-1397.500,-784.000,-1830.500,-1030.000
1.609,-1438.500,-826.500,-1874.000,-1074.000
1.610,-1478.500,-867.500,-1916.500,-1117.000
1.611,-1517.500,-907.000,-1957.000,-1158.500
1.612,-1555.000,-946.000,-1996.500,-1199.000
1.613,-1592.500,-984.000,-2035.500,-1239.000
1.614,-1630.000,-1022.500,-2075.000,-1279.000
1.615,-1667.500,-1061.000,-2114.000,-1319.500
1.616,-1703.500,-1098.500,-2152.500,-1358.500
1.617,-1736.500,-1133.000,-2187.500,-1395.000
1.618,-1765.500,-1163.000,-2218.500,-1427.000
1.619,-1790.000,-1188.500,-2245.000,-1454.500
1.620,-1811.000,-1210.500,-2267.500,-1478.000
1.621,-1828.500,-1229.000,-2287.000,-1498.500
1.622,-1843.000,-1245.500,-2304.000,-1516.500
1.623,-1856.000,-1259.500,-2319.000,-1532.500
1.624,-1867.000,-1271.500,-2331.500,-1546.000
1.625,-1876.500,-1281.500,-2342.500,-1557.500
1.626,-1884.500,-1290.000,-2351.000,-1566.500
1.627,-1891.000,-1296.500,-2357.500,-1573.500
1.628,-1896.000,-1301.000,-2362.000,-1577.500
1.629,-1899.500,-1304.000,-2365.000,-1580.000
1.630,-1901.500,-1306.000,-2366.500,-1580.500
1.631,-1902.000,-1306.500,-2366.500,-1580.500
1.632,-1901.500,-1305.500,-2365.500,-1579.000
1.633,-1900.000,-1304.000,-2364.000,-1577.500
1.634,-1897.500,-1302.000,-2361.500,-1575.000
1.635,-1895.000,-1299.000,-2358.500,-1573.000
1.636,-1891.500,-1296.000,-2356.000,-1570.500
1.637,-1888.000,-1293.000,-2353.000,-1568.500
1.638,-1884.500,-1290.500,-2350.500,-1566.500
1.639,-1882.000,-1288.500,-2349.000,-1566.000
1.640,-1879.500,-1287.000,-2347.500,-1565.500
1.641,-1877.500,-1285.500,-2346.500,-1565.500
1.642,-1875.000,-1284.000,-2345.500,-1565.500
1.643,-1873.000,-1282.500,-2344.000,-1565.500
1.644,-1870.000,-1280.500,-2342.500,-1564.500
1.645,-1867.500,-1278.000,-2341.000,-1563.000
1.646,-1864.500,-1275.500,-2338.500,-1561.500
1.647,-1861.500,-1273.000,-2336.000,-1559.000
1.648,-1859.000,-1271.000,-2334.000,-1556.000
1.649,-1857.000,-1269.000,-2331.500,-1553.500
1.650,-1855.000,-1267.000,-2329.000,-1550.500
1.651,-1853.000,-1265.000,-2327.000,-1548.000
1.652,-1851.000,-1263.000,-2324.500,-1545.500
1.653,-1849.000,-1261.500,-2322.500,-1543.500
1.654,-1847.000,-1260.000,-2321.000,-1542.000
1.655,-1846.000,-1259.000,-2320.000,-1541.500
1.656,-1845.500,-1259.000,-2320.000,-1542.000
1.657,-1845.000,-1259.000,-2320.000,-1543.000
1.658,-1844.500,-1259.500,-2320.500,-1544.000
1.659,-1844.500,-1260.000,-2321.500,-1546.000
1.660,-1844.500,-1260.500,-2322.000,-1547.500
1.661,-1843.500,-1261.000,-2323.000,-1549.000
1.662,-1842.500,-1260.500,-2323.000,-1550.000
1.663,-1841.500,-1260.500,-2323.500,-1551.000
1.664,-1840.500,-1260.500,-2323.500,-1551.500
1.665,-1840.000,-1260.000,-2323.500,-1552.000
1.666,-1839.000,-1260.000,-2323.000,-1552.000
1.667,-1838.500,-1259.500,-2322.500,-1551.500
1.668,-1838.000,-1259.000,-2322.000,-1550.500
1.669,-1837.000,-1258.000,-2320.500,-1548.500
1.670,-1836.000,-1256.500,-2319.000,-1546.500
1.671,-1835.000,-1255.500,-2317.500,-1544.500
1.672,-1834.500,-1254.500,-2316.000,-1543.000
1.673,-1834.000,-1254.500,-2315.500,-1543.000
1.674,-1834.500,-1255.000,-2316.000,-1543.500
1.675,-1834.500,-1256.000,-2316.500,-1544.000
1.676,-1834.500,-1256.500,-2317.000,-1545.500
1.677,-1834.000,-1257.000,-2317.500,-1546.000
1.678,-1833.000,-1257.000,-2317.500,-1547.000
1.679,-1832.000,-1256.500,-2317.500,-1547.500
1.680,-1831.000,-1256.500,-2318.000,-1548.500
1.681,-1829.500,-1256.500,-2318.000,-1550.000
1.682,-1829.000,-1256.500,-2318.000,-1551.000
1.683,-1828.000,-1256.500,-2318.500,-1552.500
1.684,-1827.500,-1257.000,-2319.000,-1554.000
1.685,-1827.000,-1257.500,-2319.000,-1554.500
1.686,-1827.000,-1258.500,-2319.500,-1555.500
1.687,-1827.500,-1259.500,-2320.000,-1555.500
1.688,-1827.000,-1260.000,-2320.000,-1555.500
1.689,-1826.500,-1259.500,-2319.000,-1554.000
1.690,-1824.500,-1258.000,-2317.000,-1551.000
1.691,-1822.000,-1255.500,-2313.500,-1547.500
1.692,-1819.000,-1253.000,-2310.500,-1544.000
1.693,-1816.500,-1250.500,-2307.500,-1541.000
1.694,-1813.500,-1248.500,-2304.500,-1538.500
1.695,-1812.000,-1247.000,-2303.000,-1537.500
1.696,-1811.500,-1247.500,-2303.000,-1537.500
1.697,-1812.000,-1249.000,-2304.500,-1540.000
1.698,-1813.500,-1251.500,-2306.500,-1543.000
1.699,-1814.000,-1253.000,-2308.500,-1546.000
1.700,-1814.000,-1254.500,-2309.500,-1548.000
1.701,-1813.000,-1254.500,-2309.500,-1549.500
1.702,-1812.000,-1255.000,-2310.000,-1551.000
1.703,-1810.500,-1255.000,-2310.000,-1552.000
1.704,-1809.500,-1255.000,-2310.000,-1552.500
1.705,-1808.000,-1255.000,-2309.500,-1552.500
1.706,-1806.000,-1254.000,-2308.000,-1551.500
1.707,-1804.000,-1252.500,-2306.000,-1549.000
1.708,-1802.000,-1251.000,-2304.000,-1546.500
1.709,-1800.000,-1249.500,-2301.500,-1543.500
1.710,-1798.500,-1248.500,-2300.000,-1541.500
1.711,-1797.500,-1248.000,-2298.000,-1539.500
1.712,-1796.500,-1247.500,-2296.500,-1538.500
1.713,-1795.500,-1247.000,-2295.500,-1537.000
1.714,-1794.500,-1246.500,-2294.500,-1537.000
1.715,-1794.000,-1247.000,-2294.000,-1537.000
1.716,-1793.500,-1248.000,-2294.000,-1538.000
1.717,-1793.000,-1248.500,-2294.000,-1539.000
1.718,-1792.000,-1249.000,-2294.000,-1539.500
1.719,-1790.500,-1249.000,-2294.000,-1540.000
1.720,-1789.000,-1248.500,-2294.000,-1540.500
1.721,-1787.000,-1248.000,-2294.000,-1541.000
1.722,-1786.000,-1248.000,-2294.000,-1542.000
1.723,-1785.000,-1248.500,-2294.000,-1542.500
1.724,-1784.000,-1249.000,-2294.000,-1543.500
1.725,-1783.000,-1248.500,-2293.500,-1543.000
1.726,-1781.500,-1248.000,-2292.000,-1542.000
1.727,-1779.500,-1247.000,-2290.000,-1540.000
1.728,-1777.500,-1245.500,-2288.000,-1537.500
1.729,-1775.500,-1244.000,-2286.000,-1535.000
1.730,-1774.500,-1243.500,-2284.500,-1533.000
1.731,-1774.000,-1244.000,-2284.000,-1532.000
1.732,-1774.500,-1244.500,-2283.500,-1531.500
1.733,-1774.500,-1245.500,-2283.500,-1531.000
1.734,-1774.000,-1246.000,-2283.500,-1531.000
1.735,-1773.000,-1246.000,-2282.500,-1530.500
1.736,-1771.000,-1245.000,-2281.500,-1529.000
1.737,-1768.500,-1244.000,-2279.500,-1528.000
1.738,-1766.000,-1242.500,-2278.000,-1527.000
1.739,-1764.000,-1241.500,-2277.000,-1526.500
1.740,-1762.000,-1241.500,-2276.500,-1526.500
1.741,-1761.000,-1241.500,-2276.500,-1527.500
1.742,-1760.000,-1241.500,-2277.000,-1528.000
1.743,-1758.500,-1241.000,-2276.500,-1528.500
1.744,-1756.500,-1240.000,-2275.500,-1528.000
1.745,-1754.500,-1239.500,-2274.500,-1527.000
1.746,-1752.000,-1238.000,-2273.000,-1525.000
1.747,-1749.500,-1236.500,-2271.000,-1523.000
1.748,-1747.500,-1235.500,-2268.500,-1520.500
1.749,-1745.500,-1234.000,-2266.500,-1517.500
1.750,-1744.000,-1233.000,-2264.500,-1514.500
1.751,-1743.000,-1232.000,-2262.500,-1512.000
1.752,-1742.000,-1231.000,-2261.000,-1510.000
1.753,-1741.000,-1230.500,-2259.500,-1508.500
1.754,-1740.500,-1231.000,-2259.000,-1508.000
1.755,-1740.500,-1232.000,-2259.000,-1508.500
1.756,-1741.000,-1233.000,-2259.000,-1509.500
1.757,-1741.000,-1234.500,-2259.500,-1511.000
1.758,-1741.000,-1235.500,-2260.000,-1512.000
1.759,-1740.000,-1236.000,-2260.000,-1513.000
1.760,-1738.500,-1235.000,-2259.500,-1513.500
1.761,-1736.000,-1234.000,-2258.500,-1513.000
1.762,-1733.500,-1233.000,-2257.500,-1512.500
1.763,-1731.000,-1231.500,-2256.500,-1512.000
1.764,-1728.500,-1230.500,-2254.500,-1511.000
1.765,-1725.500,-1228.500,-2252.500,-1509.500
1.766,-1722.000,-1226.000,-2249.500,-1506.500
1.767,-1718.500,-1223.500,-2246.000,-1502.500
1.768,-1715.000,-1220.500,-2242.500,-1498.500
1.769,-1712.500,-1218.500,-2239.500,-1494.500
1.770,-1710.000,-1216.500,-2236.500,-1490.500
1.771,-1708.000,-1215.000,-2233.500,-1487.500
1.772,-1705.500,-1213.000,-2231.000,-1484.000
1.773,-1702.500,-1211.000,-2228.000,-1480.500
1.774,-1699.500,-1208.500,-2225.000,-1477.000
1.775,-1696.500,-1206.500,-2222.000,-1474.500
1.776,-1694.000,-1205.000,-2220.000,-1472.500
1.777,-1691.500,-1204.000,-2218.500,-1471.500
1.778,-1689.500,-1203.000,-2217.500,-1470.500
1.779,-1688.000,-1203.000,-2216.500,-1470.500
1.780,-1686.000,-1203.000,-2216.000,-1470.500
1.781,-1684.000,-1202.500,-2215.000,-1470.500
1.782,-1681.500,-1201.500,-2213.500,-1470.000
1.783,-1678.000,-1200.000,-2211.000,-1468.000
1.784,-1674.000,-1197.500,-2207.500,-1465.500
1.785,-1670.000,-1195.000,-2203.500,-1462.000
1.786,-1666.500,-1192.500,-2199.500,-1458.500
1.787,-1663.000,-1190.000,-2195.500,-1454.000
1.788,-1659.500,-1187.500,-2191.500,-1449.500
1.789,-1656.000,-1185.000,-2187.000,-1444.500
1.790,-1652.500,-1182.500,-2183.000,-1439.500
1.791,-1649.000,-1180.500,-2179.000,-1434.500
1.792,-1645.500,-1178.500,-2175.000,-1430.500
1.793,-1642.000,-1176.500,-2171.000,-1426.500
1.794,-1638.500,-1174.500,-2167.500,-1422.500
1.795,-1634.500,-1172.500,-2163.500,-1419.000
1.796,-1630.500,-1170.500,-2160.000,-1415.500
1.797,-1626.000,-1168.500,-2156.500,-1412.500
1.798,-1622.500,-1167.500,-2154.000,-1409.500
1.799,-1618.500,-1166.000,-2151.500,-1407.500
1.800,-1614.500,-1165.000,-2149.000,-1405.500
1.801,-1610.500,-1164.000,-2146.500,-1403.500
1.802,-1607.000,-1163.000,-2143.500,-1401.500
1.803,-1603.000,-1162.000,-2141.000,-1399.500
1.804,-1599.000,-1160.500,-2137.500,-1396.500
1.805,-1595.000,-1159.000,-2133.500,-1393.000
1.806,-1590.000,-1156.500,-2128.500,-1388.500
1.807,-1585.500,-1154.000,-2124.000,-1383.000
1.808,-1581.000,-1151.500,-2118.500,-1377.500
1.809,-1577.000,-1149.000,-2113.500,-1371.500
1.810,-1573.000,-1147.000,-2108.500,-1365.500
1.811,-1569.000,-1145.500,-2104.000,-1360.500
1.812,-1566.000,-1144.500,-2100.000,-1356.000
1.813,-1563.500,-1144.500,-2097.000,-1353.000
1.814,-1561.000,-1144.500,-2094.500,-1350.000
1.815,-1559.000,-1145.000,-2093.000,-1348.500
1.816,-1557.500,-1146.000,-2092.000,-1347.500
1.817,-1556.000,-1147.500,-2091.000,-1347.000
1.818,-1554.500,-1149.000,-2090.500,-1346.500
1.819,-1553.000,-1150.000,-2090.000,-1346.500
1.820,-1551.500,-1151.500,-2090.000,-1346.500
1.821,-1550.000,-1152.500,-2089.000,-1346.500
1.822,-1547.000,-1153.000,-2088.000,-1345.500
1.823,-1543.500,-1152.500,-2085.500,-1343.500
1.824,-1540.000,-1152.000,-2083.000,-1341.000
1.825,-1535.500,-1150.500,-2079.500,-1338.000
1.826,-1531.500,-1149.000,-2076.000,-1333.500
1.827,-1527.000,-1147.500,-2072.000,-1329.000
1.828,-1523.000,-1146.000,-2068.500,-1324.000
1.829,-1520.000,-1145.000,-2065.500,-1320.000
1.830,-1518.000,-1145.000,-2063.000,-1316.500
1.831,-1516.500,-1146.000,-2061.500,-1313.500
1.832,-1515.500,-1147.500,-2059.500,-1311.500
1.833,-1514.500,-1148.500,-2058.000,-1310.000
1.834,-1513.500,-1150.000,-2057.000,-1308.500
1.835,-1512.500,-1151.500,-2056.000,-1307.500
1.836,-1512.000,-1153.500,-2055.500,-1307.000
1.837,-1511.500,-1156.000,-2055.500,-1307.500
1.838,-1511.000,-1158.500,-2055.500,-1308.000
1.839,-1510.500,-1160.500,-2056.000,-1309.000
1.840,-1510.000,-1163.000,-2056.500,-1310.000
1.841,-1509.500,-1165.000,-2057.000,-1311.000
1.842,-1509.000,-1167.500,-2057.500,-1313.000
1.843,-1509.500,-1171.000,-2058.500,-1315.000
1.844,-1510.500,-1174.500,-2060.500,-1317.500
1.845,-1512.000,-1178.500,-2062.500,-1320.000
1.846,-1513.000,-1182.500,-2064.500,-1321.500
1.847,-1514.500,-1186.000,-2066.000,-1323.500
1.848,-1516.000,-1190.000,-2068.000,-1325.000
1.849,-1517.500,-1194.500,-2070.500,-1326.500
1.850,-1520.000,-1198.500,-2072.500,-1328.000
1.851,-1522.500,-1203.000,-2075.000,-1330.000
1.852,-1524.500,-1207.500,-2077.500,-1332.500
1.853,-1526.500,-1212.000,-2080.000,-1335.000
1.854,-1528.500,-1217.000,-2082.500,-1338.000
1.855,-1531.000,-1222.000,-2086.000,-1341.500
1.856,-1534.000,-1227.500,-2090.000,-1346.000
1.857,-1537.000,-1233.000,-2094.500,-1350.500
1.858,-1541.000,-1240.000,-2099.500,-1356.500
1.859,-1545.500,-1247.500,-2105.500,-1363.500
1.860,-1551.000,-1255.000,-2112.000,-1371.500
1.861,-1555.500,-1262.500,-2118.000,-1378.500
1.862,-1559.000,-1269.000,-2122.500,-1384.500
1.863,-1561.500,-1273.500,-2125.500,-1388.000
1.864,-1562.000,-1276.500,-2127.000,-1390.500
1.865,-1563.000,-1279.500,-2128.000,-1391.500
1.866,-1564.000,-1282.500,-2129.000,-1393.000
1.867,-1566.000,-1286.500,-2131.000,-1394.500
1.868,-1569.000,-1291.500,-2133.500,-1396.500
1.869,-1573.000,-1297.000,-2137.000,-1399.000
1.870,-1577.000,-1303.000,-2140.500,-1402.000
1.871,-1581.000,-1309.000,-2144.000,-1405.000
1.872,-1585.500,-1314.500,-2148.000,-1408.500
1.873,-1589.500,-1320.500,-2152.000,-1412.500
1.874,-1593.000,-1326.500,-2156.500,-1417.000
1.875,-1597.500,-1332.500,-2160.500,-1421.500
1.876,-1601.500,-1338.500,-2165.500,-1426.500
1.877,-1606.000,-1345.000,-2170.500,-1432.500
1.878,-1611.000,-1352.500,-2176.500,-1439.000
1.879,-1616.500,-1359.500,-2183.000,-1446.000
1.880,-1621.000,-1367.000,-2189.000,-1452.500
1.881,-1626.000,-1373.500,-2195.000,-1459.000
1.882,-1630.000,-1380.000,-2200.500,-1465.500
1.883,-1633.500,-1386.000,-2205.000,-1471.000
1.884,-1636.500,-1390.500,-2209.000,-1475.500
1.885,-1638.000,-1394.000,-2211.000,-1478.000
1.886,-1638.500,-1396.500,-2212.500,-1479.500
1.887,-1638.500,-1397.500,-2212.500,-1479.000
1.888,-1638.000,-1398.500,-2212.000,-1478.000
1.889,-1637.500,-1399.500,-2211.500,-1477.000
1.890,-1637.500,-1401.000,-2211.500,-1476.000
1.891,-1638.500,-1403.500,-2212.000,-1476.000
1.892,-1640.500,-1406.500,-2213.000,-1477.500
1.893,-1642.000,-1409.500,-2214.500,-1479.000
1.894,-1643.500,-1412.500,-2216.500,-1481.000
1.895,-1645.000,-1415.500,-2217.500,-1483.000
1.896,-1646.500,-1418.500,-2219.500,-1485.000
1.897,-1647.500,-1421.500,-2221.500,-1487.500
1.898,-1648.500,-1424.000,-2223.000,-1490.000
1.899,-1649.000,-1426.000,-2225.000,-1492.500
1.900,-1649.000,-1428.000,-2226.500,-1494.500
1.901,-1649.000,-1430.000,-2228.000,-1496.500
1.902,-1650.000,-1432.500,-2229.500,-1499.000
1.903,-1651.500,-1435.500,-2232.000,-1502.500
1.904,-1653.000,-1438.500,-2234.500,-1505.500
1.905,-1654.500,-1441.500,-2236.500,-1507.500
1.906,-1655.000,-1443.000,-2237.500,-1508.500
1.907,-1655.500,-1444.500,-2237.500,-1508.000
1.908,-1655.000,-1445.000,-2237.000,-1507.000
1.909,-1655.000,-1445.500,-2236.000,-1505.500
1.910,-1655.000,-1446.500,-2235.500,-1504.500
1.911,-1655.500,-1448.000,-2235.500,-1504.000
1.912,-1657.000,-1450.500,-2236.500,-1504.500
1.913,-1658.500,-1453.000,-2237.500,-1505.500
1.914,-1659.500,-1455.000,-2238.500,-1507.000
1.915,-1660.500,-1457.000,-2239.500,-1508.500
1.916,-1661.500,-1459.000,-2240.500,-1510.000
1.917,-1662.000,-1461.000,-2242.000,-1511.500
1.918,-1663.000,-1463.000,-2243.000,-1513.500
1.919,-1663.000,-1464.500,-2244.000,-1515.000
1.920,-1662.500,-1465.500,-2244.000,-1516.000
1.921,-1661.500,-1466.000,-2244.500,-1516.500
1.922,-1660.500,-1466.500,-2244.500,-1517.500
1.923,-1660.000,-1467.000,-2245.000,-1518.000
1.924,-1659.500,-1467.500,-2245.000,-1518.500
1.925,-1659.000,-1468.000,-2245.000,-1519.000
1.926,-1659.000,-1469.000,-2245.000,-1519.000
1.927,-1659.000,-1470.000,-2245.000,-1518.000
1.928,-1658.000,-1469.500,-2243.500,-1516.000
1.929,-1656.000,-1468.000,-2241.000,-1513.000
1.930,-1653.500,-1466.000,-2238.000,-1509.000
1.931,-1651.000,-1464.000,-2235.500,-1505.500
1.932,-1649.500,-1463.000,-2233.000,-1502.500
1.933,-1648.500,-1462.500,-2232.000,-1501.000
1.934,-1648.000,-1462.500,-2231.500,-1500.500
1.935,-1648.000,-1464.000,-2231.500,-1501.000
1.936,-1649.000,-1465.500,-2232.500,-1502.500
1.937,-1649.500,-1467.000,-2233.500,-1504.000
1.938,-1650.000,-1468.500,-2234.500,-1505.500
1.939,-1650.500,-1470.000,-2236.000,-1507.500
1.940,-1651.500,-1472.000,-2238.000,-1510.000
1.941,-1652.000,-1474.000,-2239.500,-1512.500
1.942,-1652.000,-1475.000,-2240.500,-1514.000
1.943,-1651.500,-1475.000,-2240.500,-1515.000
1.944,-1650.000,-1474.500,-2239.500,-1514.500
1.945,-1648.500,-1474.000,-2238.500,-1514.000
1.946,-1647.500,-1473.500,-2237.500,-1513.000
1.947,-1647.000,-1473.500,-2236.500,-1512.000
1.948,-1646.000,-1473.000,-2235.000,-1510.500
1.949,-1645.000,-1472.500,-2233.500,-1508.500
1.950,-1644.000,-1472.000,-2232.000,-1506.000
1.951,-1643.500,-1472.000,-2231.000,-1504.500
1.952,-1643.000,-1472.000,-2230.000,-1503.000
1.953,-1642.500,-1472.000,-2229.000,-1502.500
1.954,-1642.000,-1472.000,-2228.500,-1502.000
1.955,-1642.000,-1472.500,-2228.000,-1502.000
1.956,-1642.000,-1473.500,-2228.500,-1502.500
1.957,-1642.500,-1475.000,-2229.500,-1504.000
1.958,-1643.000,-1476.500,-2231.000,-1506.000
1.959,-1643.500,-1478.000,-2232.000,-1508.500
1.960,-1643.000,-1478.500,-2232.500,-1510.000
1.961,-1642.500,-1479.000,-2233.000,-1511.500
1.962,-1641.500,-1479.000,-2233.000,-1512.500
1.963,-1640.000,-1479.000,-2233.000,-1513.000
1.964,-1639.000,-1478.500,-2232.500,-1513.000
1.965,-1638.000,-1478.000,-2231.500,-1513.000
1.966,-1637.000,-1477.500,-2231.000,-1512.500
1.967,-1637.000,-1477.500,-2230.500,-1512.000
1.968,-1636.500,-1477.500,-2229.500,-1511.000
1.969,-1636.000,-1477.500,-2229.000,-1509.500
1.970,-1636.000,-1477.000,-2228.000,-1508.000
1.971,-1635.500,-1477.000,-2227.000,-1506.500
1.972,-1635.000,-1476.500,-2226.000,-1505.500
1.973,-1634.000,-1476.000,-2225.000,-1504.000
1.974,-1632.500,-1475.000,-2224.000,-1503.000
1.975,-1631.000,-1474.000,-2222.500,-1502.000
1.976,-1629.500,-1473.500,-2222.000,-1501.500
1.977,-1628.500,-1473.000,-2221.500,-1502.000
1.978,-1628.500,-1473.500,-2222.000,-1502.500
1.979,-1628.000,-1474.000,-2222.500,-1504.000
1.980,-1628.000,-1475.000,-2223.000,-1505.500
1.981,-1627.500,-1475.500,-2223.500,-1507.000
1.982,-1627.000,-1475.500,-2224.000,-1508.500
1.983,-1626.500,-1476.000,-2224.500,-1509.500
1.984,-1625.500,-1476.000,-2224.000,-1509.500
1.985,-1625.000,-1475.500,-2224.000,-1509.500
1.986,-1624.000,-1475.000,-2223.000,-1509.000
1.987,-1624.000,-1475.000,-2222.500,-1508.000
1.988,-1623.500,-1474.500,-2222.000,-1506.500
1.989,-1623.000,-1474.000,-2220.500,-1505.000
1.990,-1622.000,-1473.000,-2218.500,-1502.000
1.991,-1620.000,-1471.500,-2216.500,-1499.000
1.992,-1618.500,-1470.000,-2214.500,-1496.500
1.993,-1617.500,-1469.000,-2213.000,-1495.000
1.994,-1616.000,-1468.000,-2211.500,-1493.500
1.995,-1615.000,-1467.000,-2210.500,-1492.500
1.996,-1614.000,-1466.500,-2210.000,-1492.500
1.997,-1614.000,-1466.500,-2210.000,-1493.500
1.998,-1613.500,-1467.000,-2210.500,-1494.500
1.999,-1613.000,-1466.500,-2210.500,-1495.000
2.000,-1611.500,-1466.000,-2211.000,-1496.000
2.001,-1611.000,-1466.000,-2211.500,-1497.000
2.002,-1610.500,-1466.500,-2212.500,-1499.000
2.003,-1610.500,-1467.500,-2213.500,-1500.500
2.004,-1610.500,-1468.000,-2214.500,-1502.000
2.005,-1610.000,-1468.000,-2214.500,-1502.000
2.006,-1608.500,-1467.000,-2214.000,-1501.000
2.007,-1606.500,-1465.000,-2212.000,-1499.000
2.008,-1605.000,-1463.500,-2210.000,-1496.500
2.009,-1604.000,-1462.000,-2208.500,-1494.000
2.010,-1604.000,-1461.500,-2207.500,-1492.500
2.011,-1604.500,-1462.000,-2207.000,-1491.500
2.012,-1605.000,-1461.500,-2206.500,-1490.500
2.013,-1605.000,-1461.500,-2206.000,-1490.000
2.014,-1604.500,-1461.000,-2205.500,-1489.500
2.015,-1604.500,-1461.000,-2205.500,-1490.000
2.016,-1604.500,-1461.500,-2206.000,-1491.000
2.017,-1604.500,-1461.500,-2206.500,-1491.500
2.018,-1603.500,-1461.000,-2206.000,-1491.500
2.019,-1602.000,-1460.500,-2205.500,-1492.000
2.020,-1601.000,-1460.000,-2206.000,-1492.500
2.021,-1600.500,-1460.500,-2206.500,-1493.500
2.022,-1600.500,-1461.000,-2207.500,-1495.500
2.023,-1600.500,-1461.000,-2208.500,-1497.000
2.024,-1600.500,-1461.500,-2209.500,-1498.500
2.025,-1600.000,-1461.500,-2209.500,-1499.000
2.026,-1599.500,-1461.000,-2209.000,-1498.500
2.027,-1598.500,-1460.000,-2208.000,-1497.500
2.028,-1597.500,-1458.500,-2206.500,-1495.500
2.029,-1596.500,-1457.000,-2205.000,-1493.000
2.030,-1595.000,-1455.500,-2203.000,-1490.500
2.031,-1594.000,-1454.000,-2201.000,-1488.000
2.032,-1592.500,-1453.000,-2199.500,-1486.000
2.033,-1591.500,-1452.000,-2198.000,-1485.000
2.034,-1590.500,-1451.000,-2197.500,-1484.500
2.035,-1590.000,-1450.500,-2197.000,-1484.500
2.036,-1589.500,-1450.000,-2197.000,-1484.500
2.037,-1589.000,-1450.000,-2197.000,-1485.500
2.038,-1588.500,-1449.500,-2197.000,-1486.000
2.039,-1588.000,-1449.500,-2197.500,-1487.500
2.040,-1587.500,-1449.500,-2198.000,-1488.500
2.041,-1586.500,-1449.000,-2198.500,-1489.500
2.042,-1584.500,-1448.000,-2198.000,-1489.500
2.043,-1582.500,-1446.500,-2197.000,-1489.500
2.044,-1581.000,-1445.000,-2196.000,-1489.000
2.045,-1580.000,-1444.500,-2196.000,-1488.500
2.046,-1579.500,-1444.000,-2196.000,-1488.500
2.047,-1580.000,-1444.500,-2196.000,-1488.500
2.048,-1580.500,-1445.000,-2196.500,-1488.500
2.049,-1581.500,-1445.500,-2197.000,-1488.000
2.050,-1582.500,-1446.500,-2197.500,-1488.000
2.051,-1584.000,-1447.500,-2198.000,-1488.500
2.052,-1584.500,-1448.000,-2198.000,-1488.500
2.053,-1585.000,-1448.500,-2197.500,-1488.000
2.054,-1584.500,-1448.000,-2197.500,-1487.500
2.055,-1584.500,-1448.000,-2197.000,-1487.000
2.056,-1584.000,-1448.000,-2197.000,-1487.000
2.057,-1583.000,-1447.000,-2197.000,-1487.000
2.058,-1581.500,-1446.500,-2196.500,-1487.500
2.059,-1580.000,-1446.000,-2196.500,-1488.000
2.060,-1579.500,-1446.000,-2197.500,-1490.000
2.061,-1579.500,-1447.000,-2199.000,-1492.000
2.062,-1580.000,-1447.500,-2200.500,-1494.500
2.063,-1579.500,-1448.000,-2201.000,-1495.500
2.064,-1578.500,-1447.000,-2200.500,-1495.500
2.065,-1576.500,-1445.000,-2199.000,-1494.000
2.066,-1574.000,-1442.500,-2196.500,-1491.000
2.067,-1571.000,-1440.000,-2193.500,-1488.000
2.068,-1569.000,-1437.500,-2191.000,-1485.000
2.069,-1568.000,-1436.000,-2189.000,-1482.500
2.070,-1568.000,-1435.500,-2188.500,-1481.000
2.071,-1568.000,-1435.500,-2188.000,-1480.000
2.072,-1568.000,-1435.000,-2187.000,-1479.000
2.073,-1567.000,-1434.500,-2186.500,-1478.000
2.074,-1566.500,-1434.000,-2185.500,-1477.000
2.075,-1565.500,-1433.500,-2185.000,-1477.000
2.076,-1565.500,-1433.500,-2185.500,-1477.000
2.077,-1565.500,-1434.000,-2186.500,-1478.500
2.078,-1566.000,-1435.000,-2187.500,-1480.500
2.079,-1566.500,-1436.000,-2189.500,-1482.500
2.080,-1567.500,-1437.500,-2191.000,-1485.000
2.081,-1568.000,-1438.500,-2193.000,-1487.500
2.082,-1568.000,-1439.500,-2194.000,-1489.500
2.083,-1568.500,-1440.000,-2195.000,-1491.000
2.084,-1568.500,-1440.500,-2196.000,-1492.500
2.085,-1568.500,-1441.000,-2196.500,-1493.000
2.086,-1568.500,-1441.000,-2196.500,-1493.000
2.087,-1568.000,-1440.000,-2196.000,-1492.000
2.088,-1566.500,-1438.000,-2194.000,-1489.500
2.089,-1564.500,-1436.000,-2191.500,-1486.500
2.090,-1562.500,-1434.000,-2189.500,-1483.500
2.091,-1561.500,-1432.500,-2187.500,-1481.500
2.092,-1561.000,-1431.500,-2187.000,-1480.000
2.093,-1561.000,-1431.500,-2186.500,-1479.500
2.094,-1561.000,-1431.500,-2186.000,-1479.500
2.095,-1561.500,-1432.000,-2186.000,-1480.000
2.096,-1561.000,-1432.000,-2186.000,-1480.500
2.097,-1560.000,-1431.500,-2185.500,-1480.500
2.098,-1558.000,-1429.500,-2184.000,-1480.000
2.099,-1555.500,-1427.500,-2182.500,-1479.000
2.100,-1553.500,-1426.000,-2181.500,-1479.000
2.101,-1552.000,-1425.000,-2181.000,-1480.000
2.102,-1551.500,-1425.000,-2181.500,-1481.000
2.103,-1551.500,-1425.500,-2182.500,-1482.500
2.104,-1551.500,-1426.000,-2183.000,-1483.500
2.105,-1551.000,-1425.500,-2183.000,-1483.500
2.106,-1550.000,-1424.500,-2182.000,-1482.000
2.107,-1548.000,-1422.500,-2179.500,-1479.500
2.108,-1544.500,-1419.000,-2176.000,-1475.500
2.109,-1540.500,-1415.000,-2171.000,-1470.000
2.110,-1535.500,-1409.500,-2165.500,-1463.500
2.111,-1530.000,-1403.500,-2159.500,-1457.000
2.112,-1525.000,-1398.500,-2154.000,-1451.500
2.113,-1522.000,-1395.000,-2150.500,-1448.000
2.114,-1519.500,-1393.000,-2148.000,-1445.500
2.115,-1518.500,-1392.000,-2147.000,-1444.500
2.116,-1517.500,-1391.000,-2146.500,-1444.500
2.117,-1517.000,-1390.500,-2147.000,-1445.000
2.118,-1517.000,-1390.500,-2147.500,-1446.000
2.119,-1516.500,-1390.500,-2148.000,-1447.000
2.120,-1516.000,-1390.500,-2148.500,-1448.000
2.121,-1515.500,-1390.000,-2148.500,-1449.000
2.122,-1514.000,-1389.500,-2148.500,-1449.500
2.123,-1512.500,-1388.000,-2147.500,-1449.000
2.124,-1510.500,-1386.500,-2146.000,-1448.000
2.125,-1508.000,-1384.500,-2144.500,-1446.500
2.126,-1506.500,-1383.000,-2142.500,-1445.000
2.127,-1505.000,-1381.000,-2141.000,-1443.000
2.128,-1503.500,-1379.000,-2139.000,-1440.500
2.129,-1501.000,-1376.500,-2136.000,-1437.000
2.130,-1498.500,-1373.500,-2133.000,-1433.000
2.131,-1496.000,-1370.500,-2130.000,-1429.500
2.132,-1494.500,-1368.500,-2127.500,-1426.500
2.133,-1493.000,-1367.000,-2126.000,-1424.500
2.134,-1492.000,-1366.000,-2125.000,-1423.500
2.135,-1490.500,-1365.000,-2123.500,-1423.000
2.136,-1488.500,-1362.500,-2121.500,-1421.000
2.137,-1484.500,-1359.000,-2118.500,-1418.000
2.138,-1480.000,-1355.000,-2114.500,-1414.500
2.139,-1475.000,-1350.500,-2110.000,-1411.000
2.140,-1471.000,-1346.500,-2107.000,-1408.500
2.141,-1468.000,-1344.000,-2105.000,-1407.000
2.142,-1466.000,-1342.000,-2103.500,-1406.500
2.143,-1464.500,-1341.000,-2103.000,-1406.500
2.144,-1464.000,-1340.500,-2103.000,-1407.000
2.145,-1464.000,-1341.000,-2103.000,-1407.500
2.146,-1464.500,-1341.500,-2103.500,-1408.000
2.147,-1464.500,-1341.500,-2103.500,-1408.000
2.148,-1464.000,-1341.000,-2102.500,-1407.000
2.149,-1463.000,-1339.500,-2101.500,-1404.500
2.150,-1462.000,-1338.000,-2099.500,-1402.000
2.151,-1460.000,-1335.500,-2097.000,-1399.000
2.152,-1457.500,-1333.000,-2094.000,-1395.500
2.153,-1455.000,-1330.000,-2091.000,-1392.500
2.154,-1453.000,-1327.500,-2088.500,-1390.000
2.155,-1451.500,-1326.000,-2087.000,-1388.500
2.156,-1451.500,-1326.000,-2087.000,-1389.000
2.157,-1453.000,-1328.000,-2089.000,-1391.500
2.158,-1455.000,-1330.000,-2091.500,-1394.500
2.159,-1456.500,-1332.000,-2094.000,-1397.500
2.160,-1457.500,-1333.500,-2096.000,-1400.500
2.161,-1458.000,-1334.500,-2097.500,-1402.000
2.162,-1457.000,-1334.500,-2098.000,-1403.500
2.163,-1456.000,-1333.500,-2098.000,-1404.000
2.164,-1454.000,-1332.000,-2097.500,-1404.000
2.165,-1453.000,-1331.000,-2096.500,-1404.000
2.166,-1452.500,-1330.500,-2096.500,-1404.000
2.167,-1453.000,-1331.000,-2097.000,-1404.500
2.168,-1454.500,-1332.000,-2098.000,-1405.000
2.169,-1457.000,-1334.000,-2099.500,-1406.500
2.170,-1459.500,-1336.500,-2102.000,-1408.500
2.171,-1463.500,-1340.000,-2105.000,-1411.000
2.172,-1467.500,-1344.000,-2109.000,-1414.500
2.173,-1472.000,-1348.000,-2113.000,-1418.000
2.174,-1475.500,-1351.500,-2116.500,-1421.500
2.175,-1478.500,-1354.000,-2119.500,-1424.500
2.176,-1481.000,-1356.500,-2122.000,-1427.500
2.177,-1483.500,-1359.000,-2125.000,-1431.000
2.178,-1486.000,-1362.000,-2128.500,-1435.000
2.179,-1489.000,-1365.500,-2132.500,-1440.000
2.180,-1492.000,-1369.000,-2136.500,-1445.000
2.181,-1494.500,-1372.500,-2140.000,-1450.000
2.182,-1497.000,-1375.500,-2144.000,-1455.000
2.183,-1499.500,-1378.500,-2147.000,-1459.000
2.184,-1501.500,-1380.500,-2149.000,-1462.500
2.185,-1502.500,-1382.000,-2150.500,-1464.500
2.186,-1503.500,-1382.500,-2151.000,-1465.500
2.187,-1503.500,-1382.500,-2150.500,-1465.000
2.188,-1503.500,-1382.000,-2150.000,-1464.500
2.189,-1503.500,-1382.000,-2149.500,-1463.500
2.190,-1503.500,-1382.000,-2149.500,-1462.500
2.191,-1503.500,-1381.500,-2149.000,-1461.500
2.192,-1503.000,-1380.500,-2148.000,-1460.000
2.193,-1501.500,-1379.000,-2146.000,-1458.000
2.194,-1500.000,-1377.500,-2144.500,-1456.500
2.195,-1499.500,-1376.500,-2144.000,-1456.000
2.196,-1499.000,-1377.000,-2144.500,-1456.500
2.197,-1499.500,-1377.500,-2146.000,-1458.500
2.198,-1500.500,-1379.000,-2147.500,-1460.500
2.199,-1501.500,-1380.500,-2150.000,-1463.500
2.200,-1502.500,-1382.000,-2152.500,-1466.500
2.201,-1503.500,-1384.000,-2154.500,-1469.500
2.202,-1504.500,-1385.500,-2156.500,-1472.500
2.203,-1505.000,-1386.000,-2158.000,-1474.000
2.204,-1504.000,-1385.500,-2157.500,-1474.000
2.205,-1501.500,-1383.500,-2156.000,-1472.500
2.206,-1499.000,-1381.000,-2153.500,-1470.000
2.207,-1497.000,-1379.000,-2152.000,-1468.000
2.208,-1496.500,-1378.000,-2150.500,-1466.500
2.209,-1496.500,-1378.000,-2150.000,-1465.000
2.210,-1496.500,-1378.000,-2149.500,-1464.000
2.211,-1496.500,-1377.500,-2148.500,-1462.500
2.212,-1496.500,-1377.500,-2148.500,-1462.000
2.213,-1498.000,-1378.500,-2149.000,-1463.000
2.214,-1500.000,-1381.000,-2151.000,-1465.000
2.215,-1502.500,-1383.000,-2153.500,-1467.500
2.216,-1504.500,-1385.000,-2155.500,-1470.500
2.217,-1505.500,-1386.500,-2157.000,-1472.500
2.218,-1506.000,-1387.500,-2158.500,-1474.500
2.219,-1506.000,-1388.000,-2159.500,-1476.500
2.220,-1506.000,-1388.500,-2160.500,-1478.000
2.221,-1505.000,-1388.500,-2161.000,-1480.000
2.222,-1505.000,-1388.500,-2162.000,-1481.500
2.223,-1505.000,-1389.000,-2163.000,-1484.000
2.224,-1506.000,-1390.500,-2165.000,-1486.500
2.225,-1507.000,-1392.000,-2167.000,-1488.500
2.226,-1508.500,-1393.000,-2168.500,-1490.500
2.227,-1509.500,-1394.000,-2170.000,-1491.500
2.228,-1510.000,-1394.500,-2170.000,-1492.000
2.229,-1509.500,-1394.000,-2169.500,-1490.500
2.230,-1507.500,-1392.000,-2167.500,-1488.000
2.231,-1504.500,-1388.500,-2164.000,-1484.000
2.232,-1499.500,-1383.500,-2158.500,-1478.500
2.233,-1493.000,-1376.500,-2151.500,-1471.000
2.234,-1484.000,-1367.500,-2142.500,-1461.500
2.235,-1473.500,-1356.500,-2131.500,-1450.500
2.236,-1461.500,-1344.500,-2119.500,-1438.500
2.237,-1449.500,-1332.500,-2107.000,-1426.000
2.238,-1437.500,-1320.000,-2095.000,-1414.000
2.239,-1425.500,-1308.500,-2083.500,-1402.500
2.240,-1414.000,-1296.500,-2072.000,-1391.500
2.241,-1401.500,-1284.000,-2059.500,-1379.500
2.242,-1387.000,-1269.500,-2045.000,-1365.500
2.243,-1369.000,-1251.500,-2027.000,-1347.500
2.244,-1348.000,-1230.000,-2005.000,-1325.500
2.245,-1323.000,-1204.500,-1979.000,-1299.000
2.246,-1295.500,-1176.000,-1950.000,-1269.500
2.247,-1266.500,-1146.500,-1919.000,-1237.500
2.248,-1237.000,-1115.500,-1887.500,-1204.500
2.249,-1206.500,-1084.000,-1855.000,-1170.000
2.250,-1174.000,-1051.000,-1820.500,-1133.500
2.251,-1138.500,-1014.500,-1783.000,-1094.000
2.252,-1099.500,-974.500,-1742.000,-1051.500
2.253,-1058.500,-932.500,-1698.500,-1007.000
2.254,-1016.000,-889.500,-1654.500,-961.500
2.255,-975.500,-847.500,-1611.500,-918.000
2.256,-937.000,-809.000,-1571.500,-877.500
2.257,-904.000,-775.000,-1537.000,-843.000
2.258,-878.000,-749.000,-1511.000,-817.000
2.259,-862.500,-733.500,-1495.500,-803.000
2.260,-858.500,-730.000,-1493.000,-802.000
2.261,-868.000,-740.500,-1504.500,-815.500
2.262,-891.000,-764.500,-1530.000,-843.500
2.263,-925.000,-800.000,-1566.500,-883.000
2.264,-966.000,-842.500,-1610.500,-929.500
2.265,-1010.500,-888.000,-1657.000,-978.500
2.266,-1055.000,-934.000,-1704.000,-1027.000
2.267,-1097.500,-977.500,-1748.500,-1072.500
2.268,-1136.500,-1017.000,-1789.500,-1113.500
2.269,-1171.500,-1053.000,-1826.000,-1150.000
2.270,-1203.500,-1085.500,-1859.000,-1183.500
2.271,-1234.500,-1116.500,-1890.500,-1215.500
2.272,-1265.000,-1147.500,-1922.500,-1247.500
2.273,-1295.500,-1179.000,-1954.500,-1280.000
2.274,-1326.000,-1210.000,-1986.500,-1312.500
2.275,-1354.500,-1239.500,-2016.000,-1343.000
2.276,-1379.500,-1265.500,-2042.500,-1370.000
2.277,-1401.000,-1287.000,-2065.000,-1393.000
2.278,-1418.000,-1305.000,-2084.000,-1412.500
2.279,-1432.500,-1320.500,-2100.000,-1429.000
2.280,-1445.000,-1333.500,-2114.000,-1444.000
2.281,-1455.000,-1344.500,-2126.000,-1456.500
2.282,-1464.500,-1354.500,-2137.000,-1468.500
2.283,-1473.500,-1364.000,-2146.500,-1479.000
2.284,-1481.500,-1372.000,-2155.500,-1488.000
2.285,-1488.500,-1379.000,-2162.500,-1495.500
2.286,-1494.000,-1384.500,-2168.500,-1500.500
2.287,-1498.500,-1388.500,-2172.500,-1504.000
2.288,-1502.000,-1391.500,-2175.500,-1506.000
2.289,-1504.500,-1393.500,-2177.500,-1507.500
2.290,-1506.500,-1395.500,-2178.500,-1507.500
2.291,-1508.000,-1396.500,-2178.500,-1507.500
2.292,-1507.500,-1396.000,-2178.000,-1506.500
2.293,-1506.500,-1395.000,-2176.000,-1504.500
2.294,-1504.500,-1392.500,-2174.000,-1502.000
2.295,-1501.500,-1389.500,-2171.000,-1499.000
2.296,-1497.500,-1386.000,-2167.000,-1495.500
2.297,-1493.000,-1381.500,-2162.500,-1491.500
2.298,-1488.000,-1377.000,-2158.000,-1487.500
2.299,-1483.500,-1372.500,-2154.000,-1484.000
2.300,-1479.000,-1368.000,-2150.000,-1480.500
2.301,-1475.000,-1364.000,-2147.000,-1478.000
2.302,-1471.000,-1361.000,-2144.500,-1476.000
2.303,-1468.500,-1358.500,-2143.000,-1475.000
2.304,-1466.500,-1357.000,-2142.500,-1475.000
2.305,-1465.500,-1356.500,-2142.500,-1475.500
2.306,-1464.000,-1355.000,-2142.000,-1475.000
2.307,-1462.000,-1353.500,-2141.000,-1473.000
2.308,-1460.000,-1351.500,-2139.000,-1470.500
2.309,-1458.000,-1349.500,-2137.000,-1467.500
2.310,-1456.000,-1347.500,-2135.000,-1465.000
2.311,-1454.000,-1346.000,-2133.500,-1462.500
2.312,-1452.000,-1344.000,-2131.500,-1460.500
2.313,-1450.000,-1342.000,-2129.500,-1458.000
2.314,-1448.000,-1340.000,-2127.000,-1456.000
2.315,-1445.500,-1337.500,-2125.000,-1454.000
2.316,-1443.000,-1335.000,-2123.000,-1452.000
2.317,-1440.500,-1333.000,-2121.500,-1450.500
2.318,-1438.500,-1331.000,-2120.500,-1449.500
2.319,-1437.500,-1330.500,-2120.500,-1450.000
2.320,-1437.500,-1331.000,-2121.500,-1452.000
2.321,-1439.000,-1332.500,-2123.500,-1455.000
2.322,-1440.500,-1334.500,-2125.500,-1458.000
2.323,-1441.000,-1335.000,-2126.500,-1459.500
2.324,-1440.000,-1334.500,-2126.000,-1459.500
2.325,-1438.500,-1333.000,-2124.500,-1458.000
2.326,-1437.000,-1331.500,-2123.000,-1456.000
2.327,-1436.000,-1330.000,-2121.500,-1454.000
2.328,-1435.000,-1329.000,-2120.500,-1452.000
2.329,-1434.500,-1328.000,-2119.000,-1449.500
2.330,-1434.000,-1327.500,-2118.000,-1447.500
2.331,-1432.500,-1326.000,-2116.500,-1445.500
2.332,-1431.000,-1324.500,-2114.500,-1443.000
2.333,-1428.500,-1322.000,-2111.500,-1440.000
2.334,-1425.500,-1319.000,-2108.500,-1437.000
2.335,-1422.500,-1316.000,-2105.500,-1434.500
2.336,-1419.500,-1313.500,-2103.000,-1432.500
2.337,-1417.000,-1311.000,-2101.000,-1431.000
2.338,-1416.000,-1310.000,-2100.000,-1431.500
2.339,-1416.000,-1310.000,-2101.000,-1433.500
2.340,-1417.000,-1312.000,-2103.000,-1436.500
2.341,-1418.000,-1313.500,-2105.000,-1439.500
2.342,-1418.500,-1314.500,-2106.500,-1441.500
2.343,-1418.500,-1314.500,-2107.000,-1442.500
2.344,-1418.500,-1314.500,-2107.000,-1443.000
2.345,-1418.500,-1314.500,-2107.500,-1443.000
2.346,-1418.500,-1314.500,-2107.000,-1443.000
2.347,-1418.000,-1314.500,-2106.500,-1442.000
2.348,-1417.000,-1313.500,-2104.500,-1440.000
2.349,-1415.500,-1311.500,-2102.000,-1437.000
2.350,-1413.500,-1309.500,-2099.500,-1433.500
2.351,-1411.500,-1307.500,-2097.000,-1430.500
2.352,-1411.000,-1306.500,-2095.500,-1429.000
2.353,-1411.500,-1307.000,-2095.500,-1429.000
2.354,-1412.500,-1308.000,-2096.500,-1430.000
2.355,-1413.000,-1309.000,-2097.000,-1431.000
2.356,-1412.500,-1309.000,-2096.500,-1431.500
2.357,-1411.500,-1308.000,-2096.000,-1431.000
2.358,-1410.000,-1307.000,-2095.000,-1431.000
2.359,-1409.000,-1307.000,-2095.000,-1432.000
2.360,-1408.000,-1306.500,-2095.000,-1433.000
2.361,-1407.000,-1306.500,-2095.000,-1434.000
2.362,-1405.000,-1305.500,-2094.500,-1434.000
2.363,-1402.500,-1303.500,-2092.500,-1433.000
2.364,-1399.500,-1301.000,-2090.500,-1431.500
2.365,-1396.500,-1298.500,-2088.000,-1429.000
2.366,-1394.000,-1296.000,-2085.000,-1426.000
2.367,-1392.000,-1294.000,-2083.000,-1423.500
2.368,-1391.000,-1292.500,-2081.000,-1421.000
2.369,-1390.500,-1292.000,-2080.000,-1419.500
2.370,-1391.000,-1292.000,-2079.500,-1418.000
2.371,-1391.500,-1292.500,-2079.500,-1417.500
2.372,-1392.000,-1292.500,-2079.500,-1417.500
2.373,-1392.000,-1292.500,-2079.500,-1417.500
2.374,-1391.500,-1292.500,-2079.000,-1417.500
2.375,-1390.500,-1291.500,-2078.000,-1417.000
2.376,-1389.000,-1290.500,-2077.000,-1416.000
2.377,-1387.500,-1289.500,-2076.000,-1415.500
2.378,-1386.500,-1288.500,-2075.500,-1415.500
2.379,-1385.000,-1287.500,-2075.000,-1415.500
2.380,-1383.500,-1286.000,-2074.000,-1415.500
2.381,-1382.000,-1285.000,-2073.500,-1415.500
2.382,-1381.500,-1284.500,-2073.500,-1416.500
2.383,-1381.000,-1284.500,-2074.000,-1417.500
2.384,-1380.000,-1284.000,-2074.000,-1417.500
2.385,-1378.500,-1283.000,-2073.000,-1416.500
2.386,-1376.500,-1281.000,-2071.000,-1414.000
2.387,-1373.500,-1278.500,-2068.000,-1410.500
2.388,-1371.500,-1275.500,-2065.000,-1406.500
2.389,-1369.000,-1273.000,-2062.000,-1403.000
2.390,-1367.500,-1271.000,-2059.500,-1399.500
2.391,-1366.500,-1269.500,-2057.500,-1397.000
2.392,-1366.000,-1268.500,-2056.000,-1395.500
2.393,-1366.000,-1268.000,-2055.000,-1394.500
2.394,-1365.500,-1267.500,-2054.500,-1394.000
2.395,-1364.500,-1266.500,-2053.500,-1393.500
2.396,-1363.500,-1265.500,-2052.500,-1393.000
2.397,-1362.000,-1264.500,-2052.000,-1393.000
2.398,-1360.500,-1263.500,-2051.500,-1393.000
2.399,-1359.500,-1263.000,-2051.000,-1393.500
2.400,-1359.000,-1262.000,-2051.000,-1394.000
2.401,-1358.000,-1261.500,-2050.500,-1394.500
2.402,-1356.500,-1261.000,-2049.500,-1394.500
2.403,-1354.500,-1260.000,-2048.500,-1394.500
2.404,-1352.500,-1258.500,-2047.000,-1393.000
2.405,-1350.500,-1256.500,-2045.000,-1391.000
2.406,-1347.500,-1254.000,-2042.500,-1388.500
2.407,-1344.500,-1251.000,-2040.000,-1385.000
2.408,-1341.500,-1248.000,-2037.000,-1381.000
2.409,-1338.500,-1244.500,-2034.000,-1376.500
2.410,-1335.500,-1241.000,-2030.500,-1371.500
2.411,-1332.500,-1238.000,-2027.500,-1367.500
2.412,-1330.000,-1235.000,-2025.000,-1363.500
2.413,-1328.000,-1233.000,-2023.000,-1361.000
2.414,-1326.500,-1231.000,-2021.500,-1359.000
2.415,-1325.500,-1230.000,-2021.000,-1358.500
2.416,-1325.000,-1229.500,-2021.000,-1358.500
2.417,-1324.500,-1229.500,-2021.500,-1359.000
2.418,-1324.000,-1229.500,-2022.000,-1360.000
2.419,-1324.000,-1230.000,-2022.500,-1361.000
2.420,-1323.500,-1230.500,-2023.000,-1362.500
2.421,-1322.500,-1230.000,-2023.500,-1363.500
2.422,-1320.500,-1228.500,-2022.000,-1362.500
2.423,-1317.500,-1226.000,-2020.000,-1361.000
2.424,-1314.000,-1223.000,-2017.500,-1358.500
2.425,-1311.000,-1220.000,-2014.500,-1356.000
2.426,-1308.500,-1217.000,-2011.500,-1352.500
2.427,-1305.500,-1214.000,-2008.500,-1348.500
2.428,-1302.500,-1211.000,-2005.000,-1344.500
2.429,-1300.000,-1207.500,-2001.500,-1340.000
2.430,-1297.500,-1204.500,-1998.000,-1336.000
2.431,-1295.000,-1202.000,-1994.500,-1332.500
2.432,-1293.000,-1199.500,-1991.500,-1329.000
2.433,-1291.000,-1197.500,-1989.000,-1326.500
2.434,-1289.500,-1195.500,-1986.500,-1324.000
2.435,-1287.500,-1193.500,-1984.500,-1322.500
2.436,-1286.000,-1191.500,-1982.500,-1321.000
2.437,-1284.000,-1189.500,-1980.500,-1319.500
2.438,-1281.500,-1188.000,-1979.000,-1318.000
2.439,-1279.000,-1186.000,-1977.500,-1317.000
2.440,-1277.000,-1185.000,-1976.000,-1316.500
2.441,-1275.000,-1183.500,-1974.500,-1316.000
2.442,-1272.500,-1181.500,-1973.000,-1314.500
2.443,-1269.000,-1178.500,-1970.000,-1312.500
2.444,-1265.000,-1175.000,-1966.500,-1309.500
2.445,-1260.500,-1170.500,-1962.000,-1305.500
2.446,-1255.500,-1165.000,-1956.000,-1300.000
2.447,-1249.000,-1158.500,-1949.000,-1292.500
2.448,-1242.000,-1151.000,-1941.500,-1284.500
2.449,-1236.000,-1144.500,-1934.000,-1277.000
2.450,-1231.000,-1139.000,-1927.500,-1270.500
2.451,-1226.500,-1134.000,-1922.500,-1264.500
2.452,-1222.500,-1129.500,-1917.000,-1259.000
2.453,-1218.000,-1124.500,-1912.000,-1254.000
2.454,-1213.500,-1120.000,-1906.500,-1248.500
2.455,-1209.000,-1115.500,-1901.500,-1244.000
2.456,-1205.000,-1111.500,-1897.000,-1240.000
2.457,-1201.500,-1108.000,-1894.000,-1237.000
2.458,-1198.500,-1105.500,-1891.500,-1235.000
2.459,-1196.500,-1103.000,-1889.500,-1234.000
2.460,-1194.500,-1101.500,-1888.500,-1234.000
2.461,-1193.000,-1100.000,-1888.000,-1233.500
2.462,-1190.500,-1098.000,-1886.500,-1233.000
2.463,-1187.500,-1095.500,-1884.000,-1231.000
2.464,-1183.500,-1092.000,-1880.500,-1228.500
2.465,-1179.500,-1088.500,-1877.000,-1225.000
2.466,-1176.000,-1084.500,-1873.000,-1221.000
2.467,-1172.000,-1080.500,-1869.000,-1216.500
2.468,-1168.000,-1076.500,-1864.500,-1211.500
2.469,-1164.000,-1072.000,-1859.500,-1206.000
2.470,-1160.000,-1067.500,-1854.500,-1200.000
2.471,-1156.000,-1062.500,-1849.500,-1194.000
2.472,-1151.500,-1058.000,-1844.500,-1188.500
2.473,-1147.000,-1053.500,-1839.500,-1183.000
2.474,-1142.500,-1049.000,-1834.500,-1178.000
2.475,-1138.500,-1045.000,-1830.000,-1174.000
2.476,-1135.000,-1042.000,-1827.000,-1171.000
2.477,-1132.500,-1039.000,-1824.500,-1169.500
2.478,-1130.500,-1037.500,-1823.000,-1168.500
2.479,-1129.500,-1036.500,-1822.500,-1169.000
2.480,-1128.500,-1036.000,-1822.500,-1170.000
2.481,-1127.500,-1035.000,-1822.000,-1171.000
2.482,-1125.500,-1034.000,-1821.000,-1171.000
2.483,-1123.500,-1032.000,-1819.000,-1170.000
2.484,-1120.500,-1029.500,-1817.000,-1168.000
2.485,-1117.500,-1026.500,-1814.000,-1165.500
2.486,-1114.000,-1023.000,-1810.500,-1162.000
2.487,-1110.500,-1019.500,-1807.000,-1158.000
2.488,-1107.500,-1016.000,-1803.500,-1154.000
2.489,-1105.500,-1013.500,-1800.500,-1150.000
2.490,-1103.500,-1011.000,-1798.000,-1147.000
2.491,-1102.000,-1009.000,-1795.500,-1144.500
2.492,-1100.500,-1007.000,-1793.000,-1141.500
2.493,-1099.000,-1005.500,-1791.000,-1140.000
2.494,-1098.000,-1004.500,-1790.000,-1139.000
2.495,-1098.500,-1005.000,-1790.000,-1139.500
2.496,-1100.000,-1006.500,-1791.500,-1142.000
2.497,-1102.500,-1009.000,-1794.500,-1145.000
2.498,-1104.500,-1011.500,-1797.000,-1148.500
2.499,-1105.000,-1012.500,-1798.500,-1150.500
2.500,-1104.000,-1012.500,-1798.500,-1151.500
2.501,-1102.500,-1012.000,-1798.500,-1152.500
2.502,-1102.000,-1012.000,-1799.000,-1153.500
2.503,-1102.500,-1013.000,-1800.000,-1155.500
2.504,-1103.500,-1015.000,-1802.000,-1158.500
2.505,-1106.000,-1017.500,-1804.500,-1161.000
2.506,-1108.500,-1020.000,-1807.500,-1163.500
2.507,-1111.000,-1022.500,-1810.000,-1166.000
2.508,-1113.500,-1024.500,-1812.000,-1167.500
2.509,-1115.500,-1026.500,-1813.500,-1168.500
2.510,-1118.000,-1028.500,-1815.000,-1169.500
2.511,-1121.000,-1031.000,-1817.000,-1171.000
2.512,-1124.500,-1034.000,-1820.000,-1173.500
2.513,-1129.000,-1038.000,-1823.500,-1177.500
2.514,-1133.500,-1042.500,-1828.000,-1182.000
2.515,-1137.500,-1046.500,-1832.500,-1187.000
2.516,-1141.000,-1050.500,-1836.500,-1191.500
2.517,-1144.000,-1054.000,-1840.500,-1196.000
2.518,-1147.000,-1057.500,-1844.500,-1200.500
2.519,-1149.500,-1061.000,-1849.000,-1206.000
2.520,-1153.000,-1065.500,-1854.000,-1211.500
2.521,-1157.500,-1070.000,-1859.500,-1218.000
2.522,-1161.500,-1075.000,-1865.000,-1224.500
2.523,-1165.500,-1079.500,-1870.000,-1230.000
2.524,-1169.000,-1083.500,-1873.500,-1235.000
2.525,-1172.000,-1086.500,-1877.000,-1238.500
2.526,-1175.000,-1089.500,-1880.000,-1241.500
2.527,-1177.500,-1092.000,-1882.000,-1243.500
2.528,-1179.000,-1094.000,-1883.500,-1245.000
2.529,-1180.500,-1095.000,-1884.500,-1245.000
2.530,-1181.500,-1096.000,-1885.000,-1245.500
2.531,-1183.500,-1098.000,-1887.000,-1246.500
2.532,-1186.500,-1100.500,-1889.500,-1249.000
2.533,-1189.500,-1103.500,-1892.500,-1252.000
2.534,-1193.000,-1107.000,-1895.500,-1256.000
2.535,-1196.500,-1110.500,-1899.500,-1260.000
2.536,-1200.500,-1114.500,-1903.500,-1265.000
2.537,-1204.500,-1119.000,-1908.000,-1270.500
2.538,-1208.500,-1123.500,-1912.500,-1276.000
2.539,-1212.000,-1127.500,-1917.000,-1281.500
2.540,-1215.000,-1131.000,-1921.000,-1287.000
2.541,-1217.500,-1134.500,-1924.500,-1292.000
2.542,-1220.000,-1138.000,-1928.000,-1296.500
2.543,-1222.500,-1141.000,-1931.000,-1301.000
2.544,-1224.500,-1143.500,-1934.000,-1304.500
2.545,-1226.500,-1146.000,-1936.500,-1307.000
2.546,-1228.000,-1148.000,-1938.000,-1308.500
2.547,-1229.500,-1149.000,-1939.000,-1309.500
2.548,-1230.500,-1150.500,-1940.000,-1310.000
2.549,-1232.500,-1152.000,-1941.000,-1310.500
2.550,-1234.000,-1153.000,-1941.500,-1311.000
2.551,-1235.000,-1154.500,-1942.000,-1311.500
2.552,-1235.500,-1155.000,-1942.500,-1311.500
2.553,-1236.000,-1155.500,-1943.000,-1312.000
2.554,-1236.500,-1156.000,-1943.000,-1312.500
2.555,-1237.000,-1156.500,-1943.500,-1314.000
2.556,-1237.500,-1157.500,-1945.000,-1315.500
2.557,-1239.000,-1159.000,-1947.000,-1318.500
2.558,-1241.500,-1161.500,-1949.500,-1322.500
2.559,-1243.500,-1164.500,-1952.500,-1326.500
2.560,-1245.000,-1166.000,-1955.000,-1329.500
2.561,-1245.000,-1167.000,-1956.000,-1331.500
2.562,-1244.000,-1167.000,-1955.500,-1332.500
2.563,-1243.000,-1166.000,-1955.500,-1333.000
2.564,-1242.000,-1165.500,-1955.000,-1333.000
2.565,-1241.000,-1165.000,-1954.000,-1333.000
2.566,-1240.000,-1164.000,-1953.000,-1332.500
2.567,-1239.500,-1163.500,-1952.000,-1331.000
2.568,-1239.000,-1163.000,-1950.500,-1329.500
2.569,-1239.000,-1162.500,-1949.500,-1328.000
2.570,-1239.500,-1162.000,-1948.500,-1327.000
2.571,-1240.000,-1162.500,-1948.000,-1326.500
2.572,-1241.000,-1163.000,-1948.000,-1326.500
2.573,-1241.500,-1163.500,-1948.000,-1326.500
2.574,-1241.500,-1163.500,-1948.000,-1326.500
2.575,-1241.000,-1163.500,-1948.000,-1327.000
2.576,-1241.000,-1164.000,-1948.500,-1327.500
2.577,-1240.500,-1164.000,-1948.500,-1328.000
2.578,-1239.500,-1163.500,-1948.500,-1328.500
2.579,-1238.000,-1163.000,-1948.500,-1329.000
2.580,-1237.000,-1163.000,-1948.000,-1329.500
2.581,-1237.000,-1163.500,-1949.000,-1331.500
2.582,-1238.000,-1165.000,-1950.500,-1333.500
2.583,-1239.000,-1166.500,-1952.000,-1336.500
2.584,-1240.000,-1168.000,-1953.500,-1338.500
2.585,-1240.500,-1168.500,-1954.000,-1339.000
2.586,-1240.000,-1168.000,-1953.500,-1338.000
2.587,-1239.000,-1167.000,-1952.000,-1336.500
2.588,-1238.500,-1166.000,-1951.000,-1335.000
2.589,-1237.500,-1165.000,-1949.500,-1333.000
2.590,-1237.000,-1164.000,-1947.500,-1331.000
2.591,-1236.500,-1163.500,-1946.000,-1329.500
2.592,-1236.000,-1162.500,-1945.000,-1328.000
2.593,-1235.500,-1162.000,-1943.500,-1327.000
2.594,-1234.500,-1161.000,-1942.500,-1326.500
2.595,-1234.000,-1160.500,-1941.500,-1326.000
2.596,-1233.500,-1160.000,-1941.000,-1326.500
2.597,-1233.500,-1160.500,-1941.500,-1327.500
2.598,-1233.500,-1161.000,-1941.500,-1328.500
2.599,-1233.000,-1160.500,-1941.500,-1329.500
2.600,-1232.000,-1160.000,-1941.500,-1330.000
2.601,-1231.000,-1159.500,-1941.500,-1331.000
2.602,-1230.500,-1159.500,-1941.500,-1332.000
2.603,-1230.500,-1159.500,-1942.000,-1333.000
2.604,-1230.000,-1159.000,-1942.000,-1333.500
2.605,-1229.500,-1158.500,-1941.500,-1333.000
2.606,-1228.500,-1157.500,-1940.000,-1331.500
2.607,-1227.000,-1156.500,-1938.500,-1330.000
2.608,-1226.000,-1155.500,-1937.500,-1327.500
2.609,-1226.000,-1155.000,-1936.500,-1326.000
2.610,-1226.000,-1155.500,-1936.000,-1325.000
2.611,-1227.000,-1156.000,-1936.000,-1324.500
2.612,-1228.000,-1157.000,-1936.500,-1325.000
2.613,-1229.000,-1157.500,-1936.500,-1325.500
2.614,-1230.000,-1158.000,-1936.500,-1326.000
2.615,-1230.000,-1158.500,-1936.500,-1326.500
2.616,-1229.500,-1158.000,-1936.500,-1327.000
2.617,-1228.500,-1157.000,-1935.500,-1327.000
2.618,-1227.000,-1156.500,-1935.000,-1327.000
2.619,-1225.500,-1155.500,-1934.500,-1327.500
2.620,-1225.000,-1155.000,-1934.500,-1328.500
2.621,-1224.000,-1154.500,-1934.000,-1329.500
2.622,-1222.500,-1154.000,-1933.500,-1330.000
2.623,-1221.500,-1153.500,-1933.000,-1330.000
2.624,-1220.500,-1153.500,-1932.500,-1330.500
2.625,-1220.000,-1153.000,-1932.500,-1331.000
2.626,-1219.000,-1152.500,-1931.500,-1330.000
2.627,-1218.500,-1152.000,-1930.500,-1329.000
2.628,-1217.500,-1151.000,-1929.000,-1327.000
2.629,-1217.500,-1150.000,-1928.000,-1325.500
2.630,-1217.500,-1149.500,-1927.000,-1324.000
2.631,-1217.500,-1149.500,-1926.000,-1323.000
2.632,-1218.000,-1149.500,-1925.500,-1322.500
2.633,-1218.000,-1150.000,-1925.500,-1322.500
2.634,-1218.500,-1150.500,-1925.500,-1323.000
2.635,-1219.000,-1151.500,-1926.000,-1324.000
2.636,-1220.000,-1152.500,-1927.000,-1325.500
2.637,-1220.000,-1153.000,-1927.500,-1326.500
2.638,-1220.500,-1153.500,-1928.500,-1328.000
2.639,-1221.000,-1155.000,-1930.000,-1330.500
