'Elapsed time','AECG1','AECG2','AECG3','AECG4'
'seconds','uV','uV','uV','uV'
0.000,-13.000,-1.000,-8.000,-9.000
0.001,-117.500,-6.000,-69.500,-78.000
0.002,-136.000,-6.500,-80.500,-90.000
0.003,-146.000,-7.000,-86.000,-96.500
0.004,-150.500,-7.500,-89.000,-99.500
0.005,-151.500,-8.000,-90.000,-101.500
0.006,-151.000,-9.500,-90.500,-103.000
0.007,-149.500,-10.500,-90.500,-104.000
0.008,-147.500,-12.000,-91.000,-105.500
0.009,-145.500,-14.000,-90.500,-107.000
0.010,-143.000,-15.000,-90.500,-108.000
0.011,-141.000,-16.500,-90.000,-109.000
0.012,-139.000,-17.500,-89.500,-109.500
0.013,-138.000,-18.000,-89.000,-109.000
0.014,-138.000,-18.000,-88.500,-108.000
0.015,-139.000,-18.000,-87.500,-107.000
0.016,-141.000,-17.000,-87.000,-105.500
0.017,-144.500,-16.000,-86.000,-104.000
0.018,-148.000,-14.500,-85.500,-102.000
0.019,-151.500,-13.000,-85.000,-100.500
0.020,-155.000,-11.000,-84.500,-99.000
0.021,-158.500,-9.500,-84.500,-98.000
0.022,-161.500,-8.000,-84.500,-97.000
0.023,-164.000,-7.500,-84.500,-97.000
0.024,-166.000,-7.500,-85.000,-97.000
0.025,-167.500,-8.000,-85.500,-98.000
0.026,-167.500,-9.000,-86.000,-99.500
0.027,-166.000,-10.500,-87.000,-101.000
0.028,-163.500,-12.000,-87.000,-102.500
0.029,-160.500,-14.000,-87.500,-104.000
0.030,-157.500,-15.500,-87.500,-105.000
0.031,-155.000,-17.500,-88.000,-106.500
0.032,-153.500,-19.000,-88.000,-107.000
0.033,-153.000,-20.000,-88.000,-106.500
0.034,-153.500,-20.500,-87.500,-106.000
0.035,-155.000,-21.000,-87.500,-105.000
0.036,-157.500,-20.500,-87.000,-103.500
0.037,-160.500,-19.500,-87.000,-102.500
0.038,-164.000,-18.500,-87.000,-101.000
0.039,-167.500,-17.500,-87.000,-100.000
0.040,-171.000,-16.000,-87.000,-98.500
0.041,-174.000,-15.000,-87.000,-97.500
0.042,-176.500,-13.500,-87.000,-97.000
0.043,-178.000,-13.000,-87.500,-96.500
0.044,-178.500,-12.500,-87.500,-96.500
0.045,-178.000,-12.500,-88.500,-97.500
0.046,-176.000,-13.500,-89.000,-98.500
0.047,-174.000,-15.000,-90.000,-99.500
0.048,-171.500,-16.500,-90.500,-101.000
0.049,-169.000,-18.000,-90.500,-102.500
0.050,-167.000,-20.000,-91.000,-103.500
0.051,-165.000,-21.000,-90.500,-104.000
0.052,-164.000,-22.000,-90.000,-104.000
0.053,-163.000,-22.500,-89.500,-104.000
0.054,-162.500,-22.500,-88.500,-103.000
0.055,-163.500,-22.000,-88.000,-102.000
0.056,-165.000,-21.500,-87.000,-100.500
0.057,-168.000,-20.500,-86.500,-98.500
0.058,-172.000,-19.500,-85.500,-97.000
0.059,-176.000,-18.000,-85.000,-95.000
0.060,-180.000,-16.500,-85.000,-93.500
0.061,-183.000,-15.500,-85.000,-92.000
0.062,-185.000,-14.500,-85.000,-91.500
0.063,-186.000,-14.000,-85.500,-91.500
0.064,-186.000,-14.500,-86.000,-91.500
0.065,-184.500,-15.000,-86.500,-92.500
0.066,-182.500,-16.000,-87.500,-93.500
0.067,-180.000,-17.500,-88.000,-94.500
0.068,-177.500,-19.500,-88.500,-96.000
0.069,-174.500,-21.000,-89.000,-97.500
0.070,-172.000,-23.000,-89.000,-98.500
0.071,-169.500,-24.500,-89.000,-99.000
0.072,-168.000,-25.500,-89.000,-99.500
0.073,-167.000,-27.000,-88.500,-99.000
0.074,-167.000,-27.500,-88.000,-98.500
0.075,-168.000,-28.000,-88.000,-97.000
0.076,-170.000,-27.500,-87.500,-96.000
0.077,-172.000,-27.000,-87.000,-94.500
0.078,-175.000,-25.500,-86.500,-92.500
0.079,-178.500,-24.000,-86.500,-91.000
0.080,-182.000,-22.500,-86.500,-89.000
0.081,-185.500,-21.000,-86.500,-88.000
0.082,-188.000,-20.500,-87.000,-87.000
0.083,-190.500,-20.000,-87.500,-87.000
0.084,-192.000,-20.000,-88.000,-87.500
0.085,-193.000,-20.500,-88.500,-88.500
0.086,-193.000,-21.500,-89.500,-90.000
0.087,-192.500,-22.500,-89.500,-91.500
0.088,-191.500,-24.000,-90.000,-92.500
0.089,-189.500,-25.500,-90.000,-93.500
0.090,-187.500,-27.000,-89.500,-94.000
0.091,-185.500,-28.000,-89.000,-94.000
0.092,-184.000,-29.000,-88.500,-94.000
0.093,-182.500,-30.000,-87.500,-93.000
0.094,-182.000,-30.500,-86.500,-92.000
0.095,-182.500,-30.500,-86.000,-91.000
0.096,-184.000,-30.500,-85.000,-89.500
0.097,-186.500,-30.000,-84.500,-88.000
0.098,-189.500,-28.500,-84.000,-87.000
0.099,-193.500,-27.000,-83.500,-85.500
0.100,-197.500,-25.500,-83.500,-84.500
0.101,-201.000,-24.000,-83.500,-83.500
0.102,-204.000,-23.000,-84.000,-82.500
0.103,-206.500,-22.500,-84.000,-82.500
0.104,-207.500,-22.500,-84.500,-82.500
0.105,-208.000,-22.500,-85.000,-83.500
0.106,-207.500,-23.500,-86.000,-85.000
0.107,-206.000,-25.000,-86.500,-86.500
0.108,-203.500,-26.500,-87.000,-88.500
0.109,-201.000,-28.500,-87.500,-90.500
0.110,-197.500,-30.500,-88.000,-92.000
0.111,-195.000,-32.000,-88.000,-92.500
0.112,-192.500,-33.500,-88.000,-93.000
0.113,-191.000,-34.500,-88.000,-93.000
0.114,-190.500,-35.000,-88.000,-92.500
0.115,-191.500,-35.500,-87.500,-92.000
0.116,-193.500,-35.000,-88.000,-91.000
0.117,-196.000,-34.500,-88.000,-89.500
0.118,-199.000,-34.000,-88.000,-88.500
0.119,-202.500,-32.500,-88.000,-87.500
0.120,-206.000,-31.500,-88.500,-86.500
0.121,-209.500,-30.500,-88.500,-85.500
0.122,-212.500,-30.000,-89.500,-85.500
0.123,-214.500,-30.000,-90.500,-85.500
0.124,-215.500,-30.500,-91.500,-86.500
0.125,-216.000,-31.500,-92.500,-87.500
0.126,-215.000,-33.000,-93.500,-89.000
0.127,-213.500,-34.500,-94.500,-91.000
0.128,-211.500,-36.500,-95.500,-93.000
0.129,-209.000,-38.500,-96.000,-94.500
0.130,-206.000,-40.500,-96.000,-95.500
0.131,-203.500,-42.500,-96.000,-96.500
0.132,-201.500,-43.500,-96.000,-96.500
0.133,-200.500,-44.500,-95.500,-96.500
0.134,-200.500,-45.500,-95.000,-95.500
0.135,-201.500,-45.500,-94.500,-95.000
0.136,-203.000,-45.000,-94.000,-93.500
0.137,-205.000,-44.000,-93.500,-92.000
0.138,-208.000,-43.000,-93.000,-90.500
0.139,-211.000,-41.500,-92.500,-89.000
0.140,-214.000,-40.000,-92.500,-87.000
0.141,-217.000,-39.000,-92.000,-86.000
0.142,-220.000,-38.000,-92.500,-85.000
0.143,-222.000,-37.500,-92.500,-84.500
0.144,-224.000,-37.500,-93.000,-84.000
0.145,-224.500,-37.500,-93.500,-84.500
0.146,-224.000,-38.500,-94.000,-85.000
0.147,-222.500,-39.500,-94.500,-85.500
0.148,-220.500,-41.000,-95.000,-86.500
0.149,-218.000,-42.000,-95.000,-87.500
0.150,-215.000,-43.500,-94.500,-88.000
0.151,-213.000,-45.000,-94.000,-88.000
0.152,-211.000,-46.000,-93.000,-88.000
0.153,-210.500,-47.000,-92.000,-87.500
0.154,-210.000,-47.500,-91.000,-86.500
0.155,-211.000,-47.500,-90.500,-85.000
0.156,-212.000,-46.500,-89.500,-83.500
0.157,-213.500,-45.500,-88.500,-82.000
0.158,-215.500,-44.500,-88.000,-80.500
0.159,-218.500,-43.000,-87.500,-79.000
0.160,-221.000,-42.000,-87.500,-78.000
0.161,-224.000,-41.000,-87.500,-77.500
0.162,-226.500,-40.500,-88.000,-77.000
0.163,-228.500,-40.500,-88.500,-77.000
0.164,-229.000,-41.000,-89.500,-77.500
0.165,-228.000,-42.000,-90.500,-78.000
0.166,-226.000,-43.000,-91.500,-79.000
0.167,-223.000,-45.000,-92.000,-80.000
0.168,-219.000,-46.500,-93.000,-81.000
0.169,-215.500,-48.500,-93.500,-82.500
0.170,-211.500,-50.000,-93.500,-83.500
0.171,-208.000,-51.500,-93.500,-84.500
0.172,-205.500,-53.000,-93.500,-85.000
0.173,-203.500,-54.000,-93.000,-85.000
0.174,-202.000,-54.500,-92.500,-85.000
0.175,-201.500,-54.500,-92.000,-84.000
0.176,-201.000,-54.500,-91.500,-83.000
0.177,-201.500,-54.000,-91.500,-82.000
0.178,-202.000,-53.000,-91.500,-80.500
0.179,-203.000,-51.500,-91.500,-79.000
0.180,-204.000,-50.500,-91.500,-77.500
0.181,-205.000,-49.000,-91.500,-77.000
0.182,-205.500,-48.500,-92.000,-76.500
0.183,-206.500,-48.000,-93.000,-76.500
0.184,-206.500,-48.000,-94.000,-77.000
0.185,-206.500,-49.000,-94.500,-78.000
0.186,-205.500,-50.000,-95.500,-79.500
0.187,-204.500,-51.500,-96.500,-81.000
0.188,-202.500,-54.000,-97.000,-83.000
0.189,-200.500,-56.000,-97.500,-84.500
0.190,-198.500,-58.000,-98.000,-86.000
0.191,-196.000,-60.000,-98.500,-87.500
0.192,-194.500,-61.500,-98.500,-88.000
0.193,-193.500,-62.500,-98.500,-88.500
0.194,-193.500,-62.500,-98.000,-88.500
0.195,-194.500,-62.500,-98.000,-88.000
0.196,-196.500,-61.500,-97.500,-87.500
0.197,-198.500,-61.000,-97.500,-86.500
0.198,-201.000,-59.500,-97.000,-86.000
0.199,-203.000,-58.500,-97.500,-85.500
0.200,-204.500,-57.000,-97.500,-84.500
0.201,-206.000,-56.000,-98.000,-84.000
0.202,-206.500,-55.000,-98.000,-84.000
0.203,-206.500,-54.000,-98.500,-84.000
0.204,-206.500,-53.500,-99.000,-84.500
0.205,-206.000,-53.500,-99.000,-85.000
0.206,-205.000,-54.000,-99.000,-86.000
0.207,-204.000,-55.000,-99.500,-87.000
0.208,-202.000,-56.000,-99.500,-88.500
0.209,-200.000,-57.500,-99.500,-90.000
0.210,-198.000,-58.500,-99.500,-91.500
0.211,-196.000,-60.000,-99.500,-92.500
0.212,-194.500,-61.000,-99.000,-93.000
0.213,-193.500,-61.500,-98.500,-93.500
0.214,-193.000,-61.500,-98.000,-93.000
0.215,-194.000,-61.500,-97.500,-92.500
0.216,-195.500,-60.500,-96.500,-91.500
0.217,-198.000,-59.500,-96.000,-90.000
0.218,-200.500,-58.000,-95.000,-88.500
0.219,-203.500,-56.000,-94.500,-87.000
0.220,-206.000,-54.000,-94.000,-85.500
0.221,-208.500,-52.500,-93.500,-84.000
0.222,-210.000,-50.500,-93.500,-83.000
0.223,-210.000,-49.500,-93.000,-82.000
0.224,-209.500,-48.500,-92.500,-82.000
0.225,-207.500,-48.000,-92.000,-82.000
0.226,-205.000,-48.000,-92.000,-82.500
0.227,-201.500,-48.500,-92.000,-83.500
0.228,-198.500,-49.500,-91.500,-85.000
0.229,-195.500,-50.500,-91.500,-86.500
0.230,-192.500,-52.000,-91.000,-87.500
0.231,-189.500,-53.500,-90.500,-88.500
0.232,-187.000,-54.500,-90.500,-89.500
0.233,-185.500,-55.500,-89.500,-89.500
0.234,-184.500,-56.000,-89.000,-89.500
0.235,-184.000,-56.000,-89.000,-89.000
0.236,-184.000,-55.500,-88.500,-88.500
0.237,-184.500,-54.500,-88.000,-87.500
0.238,-185.500,-53.500,-88.000,-87.000
0.239,-186.500,-52.000,-88.000,-86.000
0.240,-187.500,-50.500,-88.000,-85.500
0.241,-188.000,-49.500,-88.000,-85.000
0.242,-188.000,-48.500,-88.500,-84.500
0.243,-187.000,-47.500,-88.500,-84.500
0.244,-185.500,-47.000,-89.000,-84.500
0.245,-183.500,-47.500,-89.000,-85.000
0.246,-181.500,-48.000,-89.500,-86.000
0.247,-179.000,-49.000,-90.000,-87.500
0.248,-176.500,-50.500,-90.500,-89.000
0.249,-174.000,-52.500,-91.000,-91.000
0.250,-170.500,-54.000,-91.000,-92.000
0.251,-167.500,-56.000,-91.000,-93.000
0.252,-164.500,-57.500,-90.500,-93.500
0.253,-162.000,-58.000,-90.000,-93.000
0.254,-160.500,-58.500,-89.500,-92.500
0.255,-160.000,-58.500,-89.000,-91.500
0.256,-161.000,-57.500,-88.000,-90.500
0.257,-162.500,-56.000,-87.500,-89.000
0.258,-164.500,-54.000,-86.500,-87.500
0.259,-167.000,-52.000,-85.500,-86.000
0.260,-169.500,-49.500,-85.000,-84.500
0.261,-172.000,-47.500,-84.500,-83.500
0.262,-173.500,-46.000,-84.500,-83.000
0.263,-174.500,-45.500,-85.000,-83.000
0.264,-175.000,-45.000,-85.500,-83.500
0.265,-174.500,-45.500,-86.500,-84.500
0.266,-173.000,-46.500,-87.000,-86.500
0.267,-171.500,-48.000,-88.000,-88.500
0.268,-169.000,-50.000,-88.500,-91.500
0.269,-166.000,-51.500,-89.000,-95.000
0.270,-162.500,-53.000,-89.000,-99.000
0.271,-159.500,-54.500,-89.000,-103.000
0.272,-156.500,-55.500,-88.500,-106.000
0.273,-154.500,-56.000,-87.500,-108.000
0.274,-153.000,-56.000,-86.500,-109.500
0.275,-153.000,-55.000,-85.000,-109.500
0.276,-154.000,-54.000,-83.500,-109.500
0.277,-156.000,-52.000,-82.000,-109.000
0.278,-158.500,-50.000,-81.000,-109.000
0.279,-161.000,-48.000,-80.000,-108.500
0.280,-164.000,-46.000,-79.000,-108.000
0.281,-166.000,-44.000,-78.500,-107.500
0.282,-167.500,-42.500,-78.000,-107.500
0.283,-168.500,-41.000,-78.000,-107.500
0.284,-169.000,-40.500,-78.500,-108.000
0.285,-168.000,-40.500,-79.000,-109.000
0.286,-167.000,-41.000,-80.000,-110.500
0.287,-165.000,-42.500,-81.000,-112.000
0.288,-163.000,-44.000,-81.500,-114.000
0.289,-160.500,-46.500,-82.000,-116.000
0.290,-158.000,-48.500,-82.500,-118.000
0.291,-155.500,-51.000,-83.000,-120.000
0.292,-153.000,-53.000,-83.000,-121.000
0.293,-150.500,-55.000,-83.500,-122.500
0.294,-149.000,-57.000,-84.000,-123.500
0.295,-148.000,-59.000,-85.000,-124.500
0.296,-148.000,-60.500,-86.000,-125.500
0.297,-149.000,-62.000,-87.000,-126.500
0.298,-151.000,-62.000,-88.000,-126.500
0.299,-153.500,-62.000,-88.500,-126.500
0.300,-157.000,-61.000,-88.500,-125.500
0.301,-159.500,-59.500,-88.000,-124.500
0.302,-162.000,-58.500,-88.000,-124.000
0.303,-164.000,-58.000,-88.000,-124.000
0.304,-165.000,-58.000,-88.500,-124.500
0.305,-165.000,-58.500,-89.000,-125.500
0.306,-164.500,-59.500,-89.500,-127.000
0.307,-163.500,-60.500,-90.000,-128.500
0.308,-162.000,-62.000,-90.500,-130.000
0.309,-160.500,-63.000,-90.500,-131.500
0.310,-159.000,-64.500,-90.500,-133.000
0.311,-157.500,-66.000,-90.500,-134.000
0.312,-156.500,-67.500,-90.500,-135.000
0.313,-156.000,-69.000,-90.000,-135.500
0.314,-155.500,-69.500,-90.000,-135.500
0.315,-156.000,-69.500,-89.500,-135.000
0.316,-157.000,-69.000,-88.500,-134.000
0.317,-158.000,-67.500,-87.500,-132.500
0.318,-160.000,-66.000,-86.500,-131.000
0.319,-162.000,-64.000,-85.500,-129.000
0.320,-164.000,-62.000,-85.000,-127.000
0.321,-166.000,-60.000,-84.500,-125.500
0.322,-168.000,-58.500,-84.000,-124.500
0.323,-170.000,-57.500,-84.000,-124.000
0.324,-171.000,-56.500,-84.500,-123.500
0.325,-171.000,-56.500,-84.500,-124.000
0.326,-171.000,-57.000,-85.000,-125.000
0.327,-170.500,-58.000,-85.500,-126.000
0.328,-170.000,-59.500,-85.500,-127.500
0.329,-168.500,-60.500,-85.000,-128.500
0.330,-167.000,-62.000,-85.000,-129.500
0.331,-165.000,-63.500,-84.500,-130.000
0.332,-163.000,-65.500,-84.500,-130.500
0.333,-161.000,-66.500,-84.000,-130.500
0.334,-160.000,-68.000,-84.000,-130.500
0.335,-159.500,-68.500,-83.500,-129.500
0.336,-160.000,-68.500,-83.500,-128.500
0.337,-162.000,-67.500,-83.000,-127.000
0.338,-164.500,-66.500,-83.000,-125.000
0.339,-167.500,-65.000,-82.500,-123.500
0.340,-170.500,-63.500,-82.500,-121.500
0.341,-173.000,-62.500,-83.000,-119.500
0.342,-175.500,-61.500,-83.500,-117.500
0.343,-177.500,-61.000,-84.000,-116.000
0.344,-179.000,-61.500,-84.500,-114.000
0.345,-179.000,-62.000,-85.000,-113.000
0.346,-178.000,-63.000,-86.000,-111.500
0.347,-176.000,-64.500,-86.000,-111.000
0.348,-173.000,-66.000,-86.500,-110.000
0.349,-170.000,-67.500,-86.500,-109.500
0.350,-167.000,-68.500,-86.500,-109.000
0.351,-164.500,-70.000,-86.500,-108.000
0.352,-163.500,-71.000,-86.000,-107.000
0.353,-162.500,-72.000,-85.000,-105.500
0.354,-163.000,-72.000,-84.500,-103.500
0.355,-163.500,-71.500,-83.500,-101.000
0.356,-165.000,-70.500,-82.000,-98.000
0.357,-166.500,-69.000,-81.000,-95.000
0.358,-168.500,-67.000,-80.000,-91.500
0.359,-170.500,-65.000,-79.500,-88.500
0.360,-172.500,-63.000,-78.500,-86.000
0.361,-174.500,-61.000,-78.500,-83.500
0.362,-175.500,-59.000,-78.000,-81.500
0.363,-176.500,-58.000,-78.000,-79.500
0.364,-176.500,-57.000,-78.000,-78.500
0.365,-175.500,-57.000,-78.000,-77.500
0.366,-173.000,-57.500,-78.500,-77.000
0.367,-170.000,-58.000,-78.500,-76.500
0.368,-167.000,-59.500,-78.500,-76.500
0.369,-163.500,-61.000,-78.500,-76.500
0.370,-161.000,-62.500,-78.000,-76.500
0.371,-158.500,-64.000,-78.000,-76.000
0.372,-157.500,-65.500,-77.500,-75.500
0.373,-157.500,-66.500,-77.000,-75.000
0.374,-158.500,-67.000,-77.000,-74.500
0.375,-161.000,-67.500,-77.000,-73.500
0.376,-164.000,-67.500,-76.500,-72.500
0.377,-167.500,-67.500,-76.500,-71.500
0.378,-171.500,-67.000,-76.500,-70.500
0.379,-175.500,-66.000,-77.000,-69.000
0.380,-180.000,-65.000,-77.000,-68.000
0.381,-184.000,-64.500,-77.000,-67.500
0.382,-188.000,-63.500,-77.500,-67.000
0.383,-191.000,-63.500,-78.000,-67.000
0.384,-194.000,-64.000,-79.000,-67.500
0.385,-196.000,-65.000,-80.000,-69.000
0.386,-197.000,-66.500,-81.000,-70.000
0.387,-197.000,-68.500,-82.000,-72.000
0.388,-196.000,-70.500,-83.000,-73.500
0.389,-195.000,-72.500,-84.000,-75.000
0.390,-193.500,-74.500,-84.500,-76.500
0.391,-192.500,-76.500,-85.000,-77.500
0.392,-192.000,-78.000,-85.000,-78.000
0.393,-192.000,-79.000,-85.000,-78.000
0.394,-192.500,-79.500,-84.500,-77.500
0.395,-193.500,-79.000,-84.000,-76.500
0.396,-195.500,-78.000,-83.000,-75.000
0.397,-197.500,-77.000,-82.500,-74.000
0.398,-200.000,-75.500,-82.000,-72.000
0.399,-203.000,-74.000,-82.000,-70.500
0.400,-205.500,-72.500,-82.000,-69.500
0.401,-207.500,-71.500,-82.500,-68.500
0.402,-209.500,-70.500,-82.500,-67.500
0.403,-210.000,-70.000,-82.500,-67.000
0.404,-210.500,-69.500,-83.000,-67.000
0.405,-210.500,-69.500,-83.500,-67.000
0.406,-210.000,-70.000,-84.000,-68.000
0.407,-209.500,-71.000,-84.500,-69.000
0.408,-208.500,-72.000,-85.000,-70.500
0.409,-207.500,-73.500,-85.500,-71.500
0.410,-206.500,-75.000,-85.500,-72.500
0.411,-205.000,-76.000,-85.000,-73.000
0.412,-204.000,-77.000,-84.500,-73.000
0.413,-203.500,-77.500,-84.000,-72.500
0.414,-203.000,-77.500,-83.000,-72.000
0.415,-203.000,-77.500,-82.500,-71.000
0.416,-203.500,-76.500,-81.500,-69.500
0.417,-205.000,-75.500,-80.500,-68.000
0.418,-206.500,-74.000,-80.000,-66.000
0.419,-209.000,-72.000,-79.500,-64.500
0.420,-211.500,-70.500,-79.500,-63.500
0.421,-214.000,-69.500,-80.000,-62.500
0.422,-216.500,-68.500,-80.500,-61.500
0.423,-218.000,-68.000,-81.500,-61.500
0.424,-218.000,-68.000,-82.000,-62.000
0.425,-217.500,-68.500,-83.000,-63.000
0.426,-215.500,-69.500,-84.000,-64.500
0.427,-212.500,-71.500,-85.000,-66.500
0.428,-208.500,-74.000,-85.500,-68.500
0.429,-204.500,-76.000,-86.500,-70.000
0.430,-200.000,-78.500,-86.500,-71.500
0.431,-196.000,-80.000,-86.500,-72.500
0.432,-193.000,-81.500,-86.500,-73.000
0.433,-191.500,-82.000,-86.000,-72.500
0.434,-191.000,-82.500,-85.500,-72.000
0.435,-192.000,-82.500,-85.000,-71.000
0.436,-193.500,-82.000,-84.500,-69.500
0.437,-196.000,-81.500,-84.500,-68.000
0.438,-199.500,-80.000,-84.000,-66.500
0.439,-202.500,-79.000,-83.500,-65.000
0.440,-205.500,-77.500,-83.500,-63.000
0.441,-208.000,-76.000,-83.500,-62.000
0.442,-209.500,-75.000,-83.500,-60.500
0.443,-210.000,-74.000,-84.000,-60.000
0.444,-209.000,-73.500,-84.000,-59.500
0.445,-207.000,-73.500,-84.500,-60.000
0.446,-204.500,-74.000,-84.500,-60.000
0.447,-201.500,-75.000,-84.500,-61.000
0.448,-198.500,-76.500,-84.000,-61.500
0.449,-195.500,-78.000,-83.500,-62.500
0.450,-193.000,-79.500,-82.500,-63.000
0.451,-191.500,-80.500,-81.500,-63.000
0.452,-190.500,-81.500,-80.500,-63.000
0.453,-190.500,-82.000,-79.500,-63.000
0.454,-191.500,-82.000,-78.500,-62.000
0.455,-193.500,-81.500,-77.500,-61.000
0.456,-196.000,-80.500,-76.500,-59.500
0.457,-198.500,-79.500,-76.000,-57.500
0.458,-202.000,-78.500,-75.500,-55.500
0.459,-205.000,-77.000,-74.500,-53.500
0.460,-208.000,-75.500,-74.500,-52.000
0.461,-211.000,-74.500,-74.000,-50.500
0.462,-213.000,-74.000,-74.000,-49.500
0.463,-214.500,-73.000,-74.000,-49.000
0.464,-214.500,-73.000,-74.500,-49.000
0.465,-214.000,-73.000,-74.500,-49.000
0.466,-212.500,-73.500,-74.500,-50.000
0.467,-211.000,-74.500,-75.000,-51.000
0.468,-209.000,-76.500,-75.000,-52.500
0.469,-207.000,-78.000,-75.500,-54.000
0.470,-205.500,-80.000,-75.500,-55.500
0.471,-204.000,-82.000,-75.500,-56.500
0.472,-203.000,-83.500,-75.000,-57.000
0.473,-202.500,-84.500,-74.500,-57.500
0.474,-203.000,-85.000,-74.000,-57.000
0.475,-204.000,-85.000,-73.000,-55.500
0.476,-205.500,-84.500,-72.000,-54.000
0.477,-207.500,-83.000,-71.000,-52.000
0.478,-209.500,-81.500,-70.000,-49.500
0.479,-212.000,-79.500,-69.000,-47.000
0.480,-214.500,-77.500,-68.000,-45.000
0.481,-217.500,-76.000,-67.000,-43.000
0.482,-219.500,-75.000,-66.500,-42.000
0.483,-221.000,-74.000,-66.500,-42.000
0.484,-222.000,-74.000,-66.500,-42.000
0.485,-222.000,-74.000,-67.000,-42.500
0.486,-221.000,-74.500,-67.000,-43.500
0.487,-219.500,-75.500,-67.500,-45.000
0.488,-218.000,-76.500,-67.500,-46.500
0.489,-216.000,-78.500,-68.000,-48.000
0.490,-214.000,-80.500,-68.000,-49.500
0.491,-212.500,-82.500,-68.500,-51.000
0.492,-211.500,-84.000,-68.500,-52.000
0.493,-210.500,-85.000,-68.000,-52.500
0.494,-210.000,-86.000,-68.000,-52.500
0.495,-209.500,-86.000,-67.500,-52.000
0.496,-210.000,-85.000,-67.000,-51.000
0.497,-210.500,-84.000,-66.500,-49.500
0.498,-212.000,-83.000,-66.000,-48.000
0.499,-213.500,-81.000,-65.500,-46.500
0.500,-215.500,-79.500,-65.000,-45.500
0.501,-217.000,-77.500,-65.000,-44.000
0.502,-219.000,-75.500,-64.500,-43.000
0.503,-220.000,-74.000,-64.500,-42.500
0.504,-220.000,-73.000,-64.000,-42.000
0.505,-220.000,-73.000,-64.000,-42.500
0.506,-218.500,-73.000,-64.000,-43.000
0.507,-216.500,-74.000,-64.000,-44.500
0.508,-214.000,-75.500,-64.000,-46.000
0.509,-211.000,-77.500,-64.500,-47.500
0.510,-207.500,-79.500,-64.500,-49.500
0.511,-204.500,-81.000,-65.000,-51.000
0.512,-202.000,-83.000,-65.000,-52.000
0.513,-200.000,-84.000,-64.500,-53.000
0.514,-200.000,-84.500,-64.500,-53.000
0.515,-202.000,-84.000,-64.000,-52.500
0.516,-205.000,-83.500,-63.500,-52.000
0.517,-209.500,-82.500,-63.000,-51.000
0.518,-214.000,-81.500,-63.000,-49.500
0.519,-218.500,-80.000,-62.500,-48.500
0.520,-222.000,-78.500,-62.500,-47.000
0.521,-224.500,-77.000,-62.500,-46.000
0.522,-226.000,-75.500,-62.000,-45.000
0.523,-227.000,-75.000,-62.000,-44.500
0.524,-227.000,-75.000,-62.500,-44.500
0.525,-227.000,-75.000,-62.500,-45.000
0.526,-226.000,-76.000,-63.000,-46.500
0.527,-224.500,-77.500,-64.000,-48.000
0.528,-222.500,-79.000,-64.500,-50.000
0.529,-220.500,-81.000,-65.000,-51.500
0.530,-218.500,-83.000,-65.000,-53.000
0.531,-217.000,-84.500,-65.500,-54.500
0.532,-216.000,-86.000,-65.000,-55.000
0.533,-216.000,-87.000,-64.500,-55.000
0.534,-216.500,-87.500,-64.000,-54.500
0.535,-218.000,-88.000,-63.500,-53.500
0.536,-220.000,-87.500,-62.500,-51.500
0.537,-222.000,-86.000,-62.000,-49.500
0.538,-224.500,-85.000,-61.000,-47.500
0.539,-226.500,-83.000,-60.500,-45.500
0.540,-228.500,-81.000,-60.500,-43.500
0.541,-229.500,-79.000,-60.000,-42.000
0.542,-230.000,-77.500,-60.000,-41.500
0.543,-230.000,-76.000,-60.000,-40.500
0.544,-229.500,-75.500,-60.000,-40.500
0.545,-228.500,-75.500,-60.000,-40.500
0.546,-227.000,-76.000,-60.000,-41.000
0.547,-225.000,-77.000,-60.500,-42.000
0.548,-223.000,-78.500,-60.500,-43.500
0.549,-220.500,-80.500,-60.500,-45.000
0.550,-218.500,-82.500,-61.000,-47.000
0.551,-217.000,-84.000,-61.000,-48.500
0.552,-215.500,-85.500,-60.500,-49.500
0.553,-214.500,-86.500,-60.500,-50.000
0.554,-215.000,-87.000,-60.000,-50.500
0.555,-215.500,-87.000,-59.500,-50.000
0.556,-217.500,-87.000,-59.000,-49.500
0.557,-219.500,-86.000,-58.500,-48.500
0.558,-222.500,-85.000,-58.000,-47.500
0.559,-225.000,-83.500,-58.000,-47.000
0.560,-228.000,-82.500,-58.000,-46.000
0.561,-230.000,-81.000,-58.000,-46.000
0.562,-231.500,-80.500,-58.500,-45.500
0.563,-232.500,-80.000,-58.500,-46.000
0.564,-232.000,-79.500,-59.000,-46.500
0.565,-231.000,-80.000,-59.500,-47.500
0.566,-229.000,-81.000,-60.000,-48.500
0.567,-226.500,-82.000,-60.500,-50.500
0.568,-224.000,-84.000,-61.000,-52.000
0.569,-221.500,-86.000,-61.500,-54.000
0.570,-219.000,-88.000,-62.000,-55.500
0.571,-217.000,-90.000,-62.000,-57.000
0.572,-215.000,-91.500,-62.000,-58.000
0.573,-213.000,-93.000,-61.500,-58.000
0.574,-211.500,-94.000,-61.000,-58.000
0.575,-210.000,-95.000,-60.500,-57.000
0.576,-210.000,-95.500,-60.000,-55.500
0.577,-210.500,-96.000,-60.000,-54.000
0.578,-211.500,-96.000,-60.000,-52.500
0.579,-213.500,-96.000,-60.000,-51.000
0.580,-215.500,-96.500,-60.500,-49.500
0.581,-217.000,-96.500,-61.000,-48.500
0.582,-218.500,-97.500,-61.000,-47.000
0.583,-219.000,-98.500,-62.000,-46.500
0.584,-219.000,-100.000,-62.500,-46.000
0.585,-218.000,-102.000,-63.000,-45.500
0.586,-216.500,-104.000,-63.000,-45.500
0.587,-214.000,-106.000,-63.500,-45.500
0.588,-211.000,-108.500,-63.500,-45.500
0.589,-208.000,-111.000,-63.000,-46.000
0.590,-205.000,-113.000,-63.000,-46.500
0.591,-203.000,-115.000,-62.500,-46.500
0.592,-201.500,-116.000,-62.000,-47.000
0.593,-201.000,-116.000,-61.000,-46.500
0.594,-201.500,-115.000,-59.500,-46.000
0.595,-203.000,-113.500,-58.000,-45.000
0.596,-205.500,-110.500,-56.000,-43.000
0.597,-208.000,-107.000,-54.000,-41.000
0.598,-211.500,-103.000,-52.000,-39.500
0.599,-216.000,-99.000,-50.000,-38.000
0.600,-220.000,-94.500,-48.500,-37.500
0.601,-224.000,-90.000,-47.500,-37.000
0.602,-227.500,-86.500,-47.000,-37.000
0.603,-230.000,-84.000,-46.500,-38.000
0.604,-231.500,-82.500,-47.000,-38.500
0.605,-232.000,-82.000,-47.500,-40.000
0.606,-231.000,-82.500,-48.000,-42.000
0.607,-228.500,-83.500,-48.500,-44.000
0.608,-225.500,-85.000,-49.000,-46.000
0.609,-221.500,-86.500,-49.000,-48.500
0.610,-217.500,-88.000,-49.000,-50.000
0.611,-213.500,-89.000,-49.000,-51.500
0.612,-210.000,-90.000,-48.500,-52.500
0.613,-207.000,-90.500,-48.000,-52.500
0.614,-205.500,-90.500,-47.000,-52.000
0.615,-204.500,-89.500,-45.500,-50.500
0.616,-204.500,-88.500,-44.000,-49.000
0.617,-205.500,-87.000,-43.000,-47.000
0.618,-207.500,-85.000,-41.500,-45.000
0.619,-209.500,-83.000,-41.000,-43.000
0.620,-211.500,-81.000,-40.500,-41.500
0.621,-213.000,-79.500,-40.500,-40.500
0.622,-214.500,-78.000,-40.500,-39.500
0.623,-214.500,-77.500,-41.000,-39.000
0.624,-213.500,-77.000,-41.000,-39.000
0.625,-211.500,-77.500,-41.500,-39.500
0.626,-208.500,-78.500,-41.500,-40.500
0.627,-204.000,-79.500,-42.000,-41.500
0.628,-199.500,-81.500,-42.000,-42.500
0.629,-194.500,-83.000,-42.500,-44.000
0.630,-189.500,-84.500,-42.500,-45.000
0.631,-185.000,-85.500,-42.500,-46.000
0.632,-181.000,-86.500,-42.000,-46.500
0.633,-177.500,-87.000,-41.500,-46.500
0.634,-174.500,-87.000,-41.000,-45.500
0.635,-172.500,-86.500,-40.000,-44.000
0.636,-171.500,-86.000,-39.000,-42.500
0.637,-172.000,-84.500,-38.000,-40.000
0.638,-173.000,-83.000,-37.500,-38.000
0.639,-174.500,-81.500,-36.500,-36.500
0.640,-176.500,-80.000,-36.500,-35.000
0.641,-178.000,-79.000,-36.500,-34.000
0.642,-179.500,-78.000,-36.500,-34.000
0.643,-180.500,-78.000,-37.000,-34.500
0.644,-180.500,-78.000,-37.500,-35.500
0.645,-180.000,-79.000,-39.000,-37.000
0.646,-178.500,-80.500,-40.000,-39.000
0.647,-176.500,-82.500,-41.000,-41.000
0.648,-174.000,-84.500,-42.000,-43.000
0.649,-171.500,-86.500,-42.500,-45.000
0.650,-169.000,-88.500,-43.000,-47.000
0.651,-167.000,-90.500,-43.500,-48.000
0.652,-166.000,-92.000,-43.500,-49.000
0.653,-165.000,-93.500,-43.500,-49.500
0.654,-164.500,-94.000,-43.500,-49.500
0.655,-164.500,-94.500,-43.500,-49.000
0.656,-165.000,-94.500,-43.500,-48.500
0.657,-166.000,-94.000,-43.500,-48.000
0.658,-167.000,-93.000,-43.500,-47.000
0.659,-168.500,-92.000,-43.500,-46.000
0.660,-170.000,-91.000,-44.000,-45.500
0.661,-172.000,-90.000,-44.000,-44.500
0.662,-173.000,-89.000,-44.500,-44.000
0.663,-173.000,-88.000,-44.500,-44.000
0.664,-172.000,-87.500,-45.000,-44.000
0.665,-170.500,-87.000,-45.000,-44.000
0.666,-168.000,-87.500,-45.500,-45.000
0.667,-165.500,-88.500,-46.000,-46.000
0.668,-163.000,-90.000,-46.500,-47.500
0.669,-160.500,-92.000,-47.000,-49.000
0.670,-158.000,-93.500,-47.500,-50.500
0.671,-156.000,-95.000,-47.500,-51.500
0.672,-154.000,-96.500,-47.500,-52.500
0.673,-152.000,-97.500,-47.500,-53.000
0.674,-151.500,-98.000,-46.500,-53.000
0.675,-151.500,-98.500,-46.000,-52.000
0.676,-153.000,-98.000,-45.500,-51.000
0.677,-156.000,-97.500,-45.000,-50.000
0.678,-160.000,-97.000,-45.000,-49.500
0.679,-164.000,-96.000,-45.500,-48.500
0.680,-168.000,-95.000,-45.500,-48.000
0.681,-171.000,-94.500,-46.000,-48.000
0.682,-173.500,-93.500,-47.000,-48.000
0.683,-174.500,-93.500,-47.500,-48.500
0.684,-175.500,-94.000,-48.500,-49.500
0.685,-175.500,-95.000,-50.000,-51.000
0.686,-174.500,-96.500,-51.000,-52.500
0.687,-173.500,-98.000,-52.000,-54.500
0.688,-171.500,-100.000,-52.500,-56.000
0.689,-169.500,-102.000,-53.000,-58.000
0.690,-167.000,-104.000,-53.000,-59.000
0.691,-164.000,-105.500,-53.000,-60.000
0.692,-162.000,-106.500,-52.500,-60.000
0.693,-160.500,-107.000,-52.000,-59.500
0.694,-159.500,-107.500,-51.500,-59.000
0.695,-159.000,-107.000,-51.000,-57.500
0.696,-159.500,-106.500,-50.000,-56.000
0.697,-160.500,-105.500,-49.500,-54.500
0.698,-162.000,-104.000,-48.500,-52.500
0.699,-164.000,-102.500,-47.500,-50.500
0.700,-166.500,-101.500,-47.000,-49.000
0.701,-169.000,-100.000,-46.500,-48.000
0.702,-170.500,-99.000,-46.000,-47.000
0.703,-171.500,-98.000,-45.500,-46.500
0.704,-171.000,-97.500,-45.500,-46.500
0.705,-169.000,-97.500,-45.500,-47.000
0.706,-166.500,-98.000,-46.000,-48.000
0.707,-163.500,-99.000,-46.000,-49.000
0.708,-160.000,-100.500,-46.000,-50.000
0.709,-157.000,-102.000,-46.000,-51.500
0.710,-153.500,-103.500,-46.500,-52.500
0.711,-151.000,-105.000,-46.500,-53.500
0.712,-149.000,-106.000,-46.500,-53.500
0.713,-148.000,-106.500,-46.500,-53.500
0.714,-148.000,-107.000,-46.000,-52.500
0.715,-148.500,-107.000,-45.000,-51.500
0.716,-149.500,-107.000,-44.500,-50.000
0.717,-151.500,-106.000,-44.000,-48.500
0.718,-153.000,-105.000,-44.000,-47.000
0.719,-155.500,-104.000,-43.500,-46.000
0.720,-157.500,-103.000,-44.000,-44.500
0.721,-159.500,-101.500,-44.000,-43.500
0.722,-160.500,-100.500,-44.500,-43.000
0.723,-161.500,-99.500,-44.500,-42.500
0.724,-161.000,-99.500,-45.000,-42.500
0.725,-160.000,-99.500,-45.500,-43.000
0.726,-158.000,-100.500,-46.000,-43.500
0.727,-155.000,-101.500,-46.000,-44.500
0.728,-151.500,-103.000,-46.000,-45.500
0.729,-148.000,-105.000,-46.000,-47.000
0.730,-144.000,-106.500,-46.000,-47.500
0.731,-140.500,-108.500,-45.500,-48.500
0.732,-138.000,-110.000,-45.000,-48.500
0.733,-136.000,-111.000,-44.500,-48.000
0.734,-135.000,-111.500,-44.000,-47.500
0.735,-135.000,-111.500,-43.500,-46.500
0.736,-136.000,-111.000,-43.000,-45.000
0.737,-137.500,-110.000,-42.500,-43.500
0.738,-139.500,-108.500,-42.000,-42.000
0.739,-141.500,-106.500,-41.500,-40.500
0.740,-143.500,-104.500,-41.000,-39.000
0.741,-144.500,-103.000,-41.000,-38.000
0.742,-144.500,-101.500,-41.000,-37.000
0.743,-144.000,-101.000,-41.000,-36.000
0.744,-142.000,-101.000,-41.500,-36.000
0.745,-140.000,-101.500,-42.500,-36.500
0.746,-136.500,-103.000,-43.500,-37.500
0.747,-133.000,-105.000,-44.500,-39.000
0.748,-129.000,-107.500,-46.000,-41.000
0.749,-124.500,-110.500,-47.000,-43.000
0.750,-120.000,-113.500,-48.500,-45.500
0.751,-116.000,-116.500,-50.000,-47.500
0.752,-112.500,-119.500,-51.000,-49.000
0.753,-109.500,-121.500,-52.000,-50.000
0.754,-108.000,-123.000,-52.000,-50.500
0.755,-107.000,-123.500,-52.000,-50.000
0.756,-107.500,-123.000,-52.000,-49.500
0.757,-108.500,-122.000,-51.500,-48.000
0.758,-110.000,-121.000,-50.500,-46.500
0.759,-111.500,-119.000,-50.000,-44.500
0.760,-113.500,-116.500,-49.000,-42.500
0.761,-115.000,-114.000,-48.000,-41.000
0.762,-116.000,-111.500,-46.500,-39.500
0.763,-116.500,-109.500,-45.500,-38.500
0.764,-117.000,-108.000,-44.500,-38.000
0.765,-116.500,-106.500,-43.500,-38.000
0.766,-115.000,-106.500,-43.000,-39.000
0.767,-113.000,-107.500,-43.000,-40.000
0.768,-110.000,-109.000,-43.500,-41.500
0.769,-106.500,-110.500,-43.500,-43.000
0.770,-103.000,-112.500,-44.000,-44.000
0.771,-100.500,-114.000,-43.500,-45.000
0.772,-98.500,-114.500,-42.500,-45.000
0.773,-97.000,-115.000,-41.500,-44.000
0.774,-96.500,-114.500,-40.000,-43.000
0.775,-97.000,-114.000,-38.500,-41.500
0.776,-98.000,-112.500,-37.000,-39.000
0.777,-100.000,-111.000,-35.500,-37.000
0.778,-102.500,-109.000,-34.000,-34.500
0.779,-105.500,-107.000,-33.000,-32.500
0.780,-109.000,-105.000,-32.000,-31.000
0.781,-112.500,-103.000,-31.000,-29.500
0.782,-115.500,-101.000,-30.500,-28.500
0.783,-118.000,-100.000,-30.000,-28.000
0.784,-119.000,-99.500,-30.000,-28.500
0.785,-119.000,-100.000,-30.500,-29.500
0.786,-117.500,-101.500,-31.500,-30.500
0.787,-115.500,-103.000,-32.500,-32.500
0.788,-112.500,-105.500,-33.500,-34.000
0.789,-109.000,-107.500,-34.000,-35.500
0.790,-105.500,-110.000,-34.500,-36.500
0.791,-102.000,-112.000,-34.500,-37.500
0.792,-99.500,-113.500,-33.500,-37.500
0.793,-98.000,-114.000,-33.000,-37.000
0.794,-97.500,-114.500,-31.500,-36.500
0.795,-98.000,-114.500,-30.500,-35.500
0.796,-99.500,-113.500,-29.500,-34.000
0.797,-101.500,-112.500,-28.500,-32.000
0.798,-104.500,-111.000,-27.500,-30.500
0.799,-107.500,-110.000,-27.000,-29.500
0.800,-110.500,-108.500,-27.000,-28.000
0.801,-112.500,-107.500,-27.000,-27.000
0.802,-114.000,-107.000,-27.500,-26.500
0.803,-115.000,-107.000,-28.000,-26.000
0.804,-115.000,-107.000,-29.000,-26.500
0.805,-114.000,-108.000,-29.500,-27.000
0.806,-112.500,-109.000,-30.000,-28.500
0.807,-110.000,-110.000,-30.500,-30.000
0.808,-107.500,-111.500,-30.500,-31.000
0.809,-105.000,-113.500,-30.500,-32.500
0.810,-102.500,-115.500,-30.500,-33.500
0.811,-100.500,-117.000,-30.500,-34.500
0.812,-99.000,-119.000,-30.500,-35.500
0.813,-98.500,-120.000,-30.500,-36.000
0.814,-98.500,-121.000,-30.000,-36.500
0.815,-99.500,-121.500,-29.500,-36.000
0.816,-101.500,-121.000,-29.000,-35.000
0.817,-103.500,-120.500,-28.500,-33.500
0.818,-106.000,-119.000,-28.000,-32.000
0.819,-108.500,-117.500,-27.000,-30.000
0.820,-111.000,-116.000,-26.500,-28.500
0.821,-113.000,-114.500,-26.000,-27.000
0.822,-115.000,-113.000,-26.000,-26.000
0.823,-116.000,-112.000,-26.000,-25.500
0.824,-116.500,-111.000,-26.000,-25.000
0.825,-116.000,-111.000,-26.000,-25.500
0.826,-115.000,-111.000,-26.500,-25.500
0.827,-113.000,-112.000,-26.500,-26.000
0.828,-111.000,-113.000,-27.000,-26.500
0.829,-109.000,-114.500,-27.000,-27.000
0.830,-107.000,-116.000,-27.000,-27.500
0.831,-105.500,-117.000,-26.500,-28.000
0.832,-104.000,-117.500,-26.500,-28.000
0.833,-104.000,-118.000,-25.500,-28.000
0.834,-104.500,-118.000,-24.500,-27.500
0.835,-105.500,-117.500,-24.000,-26.500
0.836,-108.000,-116.500,-23.500,-26.000
0.837,-111.500,-115.500,-23.000,-25.500
0.838,-115.000,-114.500,-23.000,-25.000
0.839,-119.000,-113.500,-23.500,-24.500
0.840,-122.500,-113.000,-24.000,-24.000
0.841,-125.000,-112.000,-25.000,-24.000
0.842,-127.500,-111.500,-26.000,-24.000
0.843,-128.500,-111.500,-27.000,-24.500
0.844,-129.000,-111.500,-28.000,-25.500
0.845,-129.000,-112.000,-29.000,-26.500
0.846,-128.500,-113.500,-30.000,-28.000
0.847,-127.000,-115.000,-31.500,-30.000
0.848,-125.000,-117.000,-33.000,-32.000
0.849,-123.000,-119.500,-34.000,-34.000
0.850,-121.000,-121.500,-35.000,-35.500
0.851,-119.500,-124.000,-35.500,-37.000
0.852,-119.000,-125.500,-36.000,-38.500
0.853,-118.500,-126.500,-36.000,-39.000
0.854,-118.500,-127.000,-36.000,-39.000
0.855,-119.000,-127.000,-36.000,-38.500
0.856,-119.500,-126.000,-35.500,-38.000
0.857,-121.000,-125.000,-35.500,-36.500
0.858,-122.500,-123.500,-35.000,-35.000
0.859,-125.000,-122.000,-35.000,-33.500
0.860,-127.000,-120.000,-34.500,-32.500
0.861,-129.000,-118.500,-34.500,-31.000
0.862,-131.000,-117.000,-34.500,-30.000
0.863,-132.000,-116.000,-34.500,-29.500
0.864,-132.000,-116.000,-35.000,-29.000
0.865,-131.000,-116.000,-35.000,-29.500
0.866,-128.500,-116.500,-35.500,-30.000
0.867,-126.000,-117.500,-36.500,-30.500
0.868,-123.000,-118.500,-37.000,-31.500
0.869,-120.500,-120.500,-37.500,-32.500
0.870,-118.500,-122.000,-37.500,-33.500
0.871,-117.000,-123.500,-37.500,-34.000
0.872,-115.500,-124.500,-37.000,-34.000
0.873,-114.000,-125.500,-36.500,-33.500
0.874,-113.000,-126.000,-36.000,-33.000
0.875,-112.500,-126.000,-35.000,-32.000
0.876,-112.500,-125.500,-34.000,-30.500
0.877,-113.500,-124.500,-33.500,-29.500
0.878,-114.500,-123.500,-33.000,-28.500
0.879,-116.000,-122.000,-32.500,-28.000
0.880,-117.500,-120.000,-32.000,-27.000
0.881,-119.000,-118.500,-32.000,-26.500
0.882,-119.500,-117.000,-32.000,-26.000
0.883,-119.500,-116.000,-32.000,-25.500
0.884,-118.500,-115.500,-32.000,-25.500
0.885,-117.500,-115.500,-32.000,-26.000
0.886,-116.000,-116.500,-32.500,-27.000
0.887,-114.500,-117.500,-33.000,-28.500
0.888,-113.000,-119.000,-33.000,-30.000
0.889,-111.000,-121.000,-33.000,-31.500
0.890,-109.500,-122.500,-32.500,-33.000
0.891,-108.000,-124.000,-32.000,-34.000
0.892,-107.000,-125.000,-31.500,-34.500
0.893,-106.500,-125.500,-30.500,-34.500
0.894,-106.500,-125.500,-29.500,-33.500
0.895,-107.500,-125.500,-28.000,-32.500
0.896,-108.000,-124.500,-27.000,-31.000
0.897,-109.000,-123.000,-25.500,-29.000
0.898,-110.500,-121.000,-24.500,-27.000
0.899,-112.000,-119.000,-23.000,-25.000
0.900,-114.000,-117.000,-22.500,-23.500
0.901,-115.500,-115.000,-21.500,-22.000
0.902,-116.500,-114.000,-21.500,-21.500
0.903,-117.500,-113.000,-21.000,-21.000
0.904,-117.500,-113.000,-21.500,-21.500
0.905,-117.500,-113.500,-22.000,-22.500
0.906,-117.000,-114.500,-22.500,-24.000
0.907,-116.000,-116.500,-23.500,-26.000
0.908,-115.000,-118.500,-24.000,-28.500
0.909,-113.500,-120.500,-24.500,-30.000
0.910,-112.000,-122.500,-25.000,-31.500
0.911,-110.500,-124.000,-25.000,-33.000
0.912,-109.000,-125.500,-25.000,-33.500
0.913,-108.500,-126.500,-24.500,-33.500
0.914,-108.500,-127.000,-24.000,-33.500
0.915,-109.000,-127.000,-24.000,-33.000
0.916,-110.500,-126.500,-23.500,-31.500
0.917,-112.500,-125.500,-23.000,-30.000
0.918,-115.000,-124.500,-22.500,-28.500
0.919,-117.500,-123.000,-22.000,-26.500
0.920,-120.000,-121.500,-21.500,-24.500
0.921,-122.000,-120.000,-21.000,-23.500
0.922,-123.500,-118.500,-21.000,-22.500
0.923,-124.500,-117.500,-21.000,-22.000
0.924,-125.000,-116.500,-21.000,-22.500
0.925,-124.500,-116.500,-21.500,-23.000
0.926,-123.000,-117.000,-21.500,-24.500
0.927,-120.500,-117.500,-21.500,-25.500
0.928,-117.500,-118.500,-21.500,-27.000
0.929,-114.000,-120.000,-21.500,-27.500
0.930,-110.000,-121.000,-21.000,-28.000
0.931,-106.500,-122.000,-20.000,-28.500
0.932,-104.000,-122.500,-19.000,-28.500
0.933,-102.000,-123.000,-18.000,-28.000
0.934,-101.500,-123.000,-17.000,-27.000
0.935,-101.500,-122.500,-16.500,-26.500
0.936,-102.500,-122.000,-15.500,-25.500
0.937,-104.000,-121.000,-15.000,-24.000
0.938,-106.500,-120.000,-14.500,-22.500
0.939,-109.000,-119.000,-14.500,-21.000
0.940,-111.000,-118.000,-14.500,-20.000
0.941,-113.000,-117.500,-15.000,-19.000
0.942,-114.500,-117.000,-15.500,-18.500
0.943,-115.500,-116.500,-16.000,-18.500
0.944,-116.000,-117.000,-16.500,-19.000
0.945,-115.500,-117.500,-17.000,-19.500
0.946,-114.500,-118.500,-17.500,-20.500
0.947,-112.500,-120.000,-18.000,-21.500
0.948,-110.000,-121.500,-18.500,-22.500
0.949,-107.500,-123.500,-18.500,-23.500
0.950,-104.500,-125.500,-18.500,-24.500
0.951,-102.000,-127.000,-19.000,-26.000
0.952,-100.000,-129.000,-19.000,-27.000
0.953,-99.000,-130.500,-19.000,-27.500
0.954,-98.000,-131.000,-19.000,-28.000
0.955,-98.000,-131.500,-18.500,-28.000
0.956,-98.500,-131.500,-18.500,-27.500
0.957,-100.000,-130.500,-18.000,-26.500
0.958,-102.500,-129.500,-18.000,-25.500
0.959,-105.500,-128.000,-18.000,-24.500
0.960,-108.500,-127.000,-18.000,-23.500
0.961,-111.500,-125.500,-18.000,-23.000
0.962,-113.500,-124.500,-18.500,-22.500
0.963,-115.000,-124.000,-18.500,-21.500
0.964,-115.000,-124.000,-19.000,-21.500
0.965,-113.500,-124.000,-19.000,-22.000
0.966,-111.500,-124.500,-19.000,-23.000
0.967,-109.000,-125.000,-19.000,-24.000
0.968,-106.000,-126.500,-19.000,-26.000
0.969,-102.500,-128.000,-19.000,-27.500
0.970,-99.000,-129.500,-19.000,-29.000
0.971,-95.500,-131.000,-19.000,-30.000
0.972,-93.000,-132.500,-18.500,-30.000
0.973,-91.000,-133.000,-18.000,-30.000
0.974,-89.500,-133.500,-17.500,-29.000
0.975,-89.500,-133.000,-17.000,-28.000
0.976,-90.500,-132.500,-16.500,-27.000
0.977,-91.500,-131.500,-16.500,-26.000
0.978,-93.000,-130.000,-16.000,-24.500
0.979,-94.500,-128.000,-15.500,-23.500
0.980,-95.500,-126.500,-15.000,-22.000
0.981,-96.500,-124.500,-14.500,-21.500
0.982,-97.000,-123.500,-14.000,-20.500
0.983,-97.000,-122.500,-14.000,-20.500
0.984,-96.500,-122.500,-14.000,-21.000
0.985,-96.000,-122.500,-14.500,-21.500
0.986,-94.500,-123.500,-14.500,-22.500
0.987,-93.000,-125.000,-15.000,-24.000
0.988,-91.500,-127.000,-15.500,-25.500
0.989,-90.000,-129.000,-15.500,-27.000
0.990,-89.000,-131.000,-16.000,-29.000
0.991,-88.000,-133.000,-16.000,-30.000
0.992,-88.000,-135.000,-16.000,-31.000
0.993,-88.000,-136.000,-16.000,-31.500
0.994,-89.500,-136.500,-15.500,-31.000
0.995,-91.000,-136.500,-15.000,-30.500
0.996,-93.500,-136.000,-14.000,-29.000
0.997,-96.500,-135.500,-13.500,-27.500
0.998,-99.500,-134.500,-13.000,-26.000
0.999,-102.500,-133.500,-13.000,-24.500
1.000,-106.000,-132.500,-13.000,-23.000
1.001,-109.500,-132.000,-13.500,-22.000
1.002,-112.500,-131.500,-14.000,-22.000
1.003,-115.000,-132.000,-15.500,-22.500
1.004,-116.500,-132.500,-17.000,-23.500
1.005,-117.000,-134.000,-18.500,-24.500
1.006,-116.500,-135.500,-19.500,-26.000
1.007,-115.000,-137.000,-20.500,-27.500
1.008,-112.500,-139.000,-21.000,-29.000
1.009,-109.500,-140.500,-21.500,-30.500
1.010,-106.000,-142.500,-21.500,-31.500
1.011,-102.500,-143.500,-21.500,-32.000
1.012,-99.000,-144.500,-21.000,-32.000
1.013,-96.000,-144.500,-20.000,-32.000
1.014,-94.000,-144.500,-19.000,-31.500
1.015,-93.500,-144.000,-17.500,-30.000
1.016,-94.000,-143.000,-16.500,-29.000
1.017,-95.500,-142.000,-15.500,-27.500
1.018,-98.000,-140.500,-14.500,-25.500
1.019,-100.500,-139.000,-14.500,-24.000
1.020,-103.000,-137.500,-14.000,-22.500
1.021,-105.000,-136.500,-14.000,-21.000
1.022,-106.000,-135.500,-14.000,-20.000
1.023,-106.500,-135.000,-14.000,-19.500
1.024,-106.000,-135.000,-14.000,-19.500
1.025,-105.000,-135.000,-14.500,-20.000
1.026,-103.500,-136.000,-14.500,-21.000
1.027,-101.500,-137.500,-15.000,-22.500
1.028,-99.500,-139.500,-15.500,-24.000
1.029,-96.500,-141.500,-16.000,-25.500
1.030,-93.500,-143.500,-16.500,-27.000
1.031,-91.000,-145.500,-16.500,-28.000
1.032,-88.500,-147.000,-16.000,-28.500
1.033,-86.500,-148.000,-16.000,-28.000
1.034,-86.000,-149.000,-15.500,-28.000
1.035,-86.500,-149.000,-15.500,-27.500
1.036,-87.500,-149.000,-15.000,-26.500
1.037,-89.000,-148.500,-14.500,-25.500
1.038,-90.500,-147.500,-14.000,-24.000
1.039,-92.000,-146.000,-13.500,-22.000
1.040,-94.000,-144.500,-13.000,-20.000
1.041,-95.500,-143.000,-12.000,-18.500
1.042,-97.000,-141.500,-12.000,-17.000
1.043,-98.000,-140.500,-11.500,-16.000
1.044,-98.500,-140.000,-12.000,-16.000
1.045,-98.500,-140.500,-12.500,-17.000
1.046,-98.000,-141.500,-13.000,-18.000
1.047,-96.500,-142.500,-13.500,-19.500
1.048,-95.000,-144.500,-14.000,-21.500
1.049,-92.500,-146.000,-14.500,-23.500
1.050,-89.500,-148.000,-14.500,-24.500
1.051,-86.000,-149.500,-14.500,-25.500
1.052,-83.500,-151.000,-14.000,-26.500
1.053,-81.000,-151.500,-13.500,-26.000
1.054,-80.000,-152.000,-13.000,-25.500
1.055,-79.500,-152.000,-12.000,-24.500
1.056,-80.500,-151.500,-11.500,-23.500
1.057,-81.500,-150.500,-11.000,-22.000
1.058,-83.000,-149.000,-10.500,-20.500
1.059,-85.000,-147.500,-10.000,-18.500
1.060,-86.500,-146.000,-10.000,-17.000
1.061,-88.000,-144.500,-10.000,-16.000
1.062,-89.500,-143.500,-10.000,-15.000
1.063,-90.000,-143.000,-10.000,-14.000
1.064,-90.000,-143.000,-10.500,-14.000
1.065,-89.500,-143.000,-10.500,-14.500
1.066,-88.500,-144.000,-10.500,-15.000
1.067,-87.500,-145.500,-11.000,-15.500
1.068,-86.500,-147.000,-11.000,-16.500
1.069,-85.500,-149.000,-11.500,-17.500
1.070,-84.500,-151.500,-12.000,-19.000
1.071,-83.500,-153.500,-12.500,-20.500
1.072,-83.000,-155.500,-13.000,-22.000
1.073,-82.500,-157.000,-13.000,-23.000
1.074,-82.500,-158.500,-12.500,-23.500
1.075,-83.000,-159.000,-12.000,-23.500
1.076,-84.500,-159.000,-11.500,-23.000
1.077,-87.000,-158.000,-10.500,-22.000
1.078,-90.500,-157.000,-9.500,-21.000
1.079,-94.000,-155.500,-9.000,-20.000
1.080,-97.500,-154.000,-8.500,-19.000
1.081,-100.500,-152.000,-8.000,-18.000
1.082,-102.500,-150.000,-7.500,-17.000
1.083,-103.500,-149.000,-7.000,-16.000
1.084,-103.500,-148.000,-7.000,-15.500
1.085,-102.000,-147.500,-7.500,-15.500
1.086,-99.500,-148.500,-8.000,-16.500
1.087,-97.000,-149.500,-8.500,-17.500
1.088,-93.500,-151.500,-9.000,-19.500
1.089,-90.500,-153.500,-9.000,-21.000
1.090,-87.500,-155.000,-9.500,-22.500
1.091,-85.000,-156.500,-9.000,-23.000
1.092,-83.000,-158.000,-8.500,-23.500
1.093,-81.500,-158.500,-8.000,-23.000
1.094,-80.500,-158.500,-7.000,-22.000
1.095,-80.500,-158.000,-6.000,-21.000
1.096,-80.500,-157.000,-4.500,-20.000
1.097,-81.500,-156.000,-3.500,-18.500
1.098,-83.000,-154.500,-2.500,-17.500
1.099,-84.500,-153.000,-2.000,-16.500
1.100,-86.000,-151.000,-1.500,-15.500
1.101,-87.500,-149.500,-1.500,-14.500
1.102,-88.500,-148.500,-1.000,-14.000
1.103,-89.500,-147.000,-1.000,-14.000
1.104,-90.000,-146.500,-0.500,-14.000
1.105,-90.000,-146.000,-0.500,-14.500
1.106,-89.500,-146.500,-0.500,-15.000
1.107,-88.000,-147.000,-0.500,-15.500
1.108,-86.000,-147.500,-0.500,-16.500
1.109,-83.500,-148.500,-0.500,-17.500
1.110,-80.500,-150.000,0.500,-18.500
1.111,-77.500,-151.000,1.500,-19.000
1.112,-74.500,-151.500,2.500,-19.000
1.113,-72.000,-152.000,3.500,-19.000
1.114,-71.000,-151.500,4.500,-18.000
1.115,-70.500,-151.000,5.500,-17.500
1.116,-71.000,-150.500,6.000,-16.000
1.117,-72.000,-149.000,7.000,-15.000
1.118,-74.000,-148.000,7.500,-13.500
1.119,-76.000,-146.500,7.500,-12.000
1.120,-78.500,-145.000,7.500,-11.000
1.121,-81.000,-143.500,7.500,-10.000
1.122,-83.500,-142.500,7.000,-9.000
1.123,-85.000,-141.500,6.500,-9.000
1.124,-86.500,-141.000,6.000,-9.000
1.125,-86.500,-141.000,5.500,-9.500
1.126,-86.000,-141.500,5.500,-10.500
1.127,-84.500,-142.500,5.000,-11.500
1.128,-82.500,-143.500,5.000,-13.000
1.129,-80.500,-145.000,5.000,-14.000
1.130,-77.500,-146.500,5.000,-15.000
1.131,-75.000,-147.500,5.500,-15.000
1.132,-72.500,-148.000,6.500,-15.000
1.133,-70.000,-148.500,7.500,-14.000
1.134,-68.000,-147.500,9.000,-13.000
1.135,-66.500,-146.500,10.500,-11.000
1.136,-65.500,-145.000,11.500,-9.500
1.137,-65.500,-143.000,13.000,-7.500
1.138,-66.500,-141.000,14.000,-5.500
1.139,-68.500,-139.000,14.000,-4.500
1.140,-71.500,-137.000,14.500,-3.500
1.141,-74.500,-135.500,14.500,-2.500
1.142,-77.000,-134.500,14.000,-2.500
1.143,-79.000,-133.500,14.000,-2.500
1.144,-80.000,-133.000,13.500,-3.000
1.145,-80.500,-133.500,12.500,-4.000
1.146,-80.000,-134.000,12.000,-5.000
1.147,-79.000,-135.000,11.500,-6.500
1.148,-77.500,-136.500,11.000,-7.500
1.149,-76.000,-137.500,11.000,-9.000
1.150,-74.000,-139.000,11.500,-10.000
1.151,-72.500,-140.000,12.000,-11.000
1.152,-71.000,-141.000,12.500,-11.000
1.153,-70.000,-141.000,13.500,-10.500
1.154,-70.000,-141.000,14.500,-10.000
1.155,-70.500,-140.000,16.000,-8.500
1.156,-71.500,-139.000,17.000,-7.000
1.157,-73.500,-137.500,18.000,-5.000
1.158,-75.500,-136.000,19.000,-3.000
1.159,-78.000,-134.000,19.500,-1.500
1.160,-80.500,-132.000,19.500,0.000
1.161,-82.500,-130.500,20.000,1.000
1.162,-84.500,-129.000,19.500,1.500
1.163,-86.000,-128.000,19.500,2.000
1.164,-86.500,-128.000,19.000,1.000
1.165,-86.500,-128.000,19.000,0.500
1.166,-85.500,-129.000,18.500,-1.500
1.167,-84.000,-130.500,18.000,-3.000
1.168,-82.000,-132.000,17.500,-5.000
1.169,-80.000,-134.000,17.500,-7.000
1.170,-77.500,-135.500,17.000,-8.500
1.171,-75.500,-137.500,17.500,-10.000
1.172,-73.500,-139.000,17.500,-11.000
1.173,-72.500,-140.000,18.000,-11.000
1.174,-72.500,-140.500,18.500,-11.000
1.175,-73.500,-141.000,19.000,-10.500
1.176,-75.500,-140.500,19.000,-10.000
1.177,-77.500,-140.000,19.500,-8.500
1.178,-80.500,-139.500,20.000,-7.500
1.179,-83.500,-138.500,20.500,-6.500
1.180,-86.000,-137.000,21.000,-5.000
1.181,-88.500,-136.000,21.000,-4.000
1.182,-90.000,-134.500,21.000,-3.000
1.183,-91.000,-134.000,21.000,-2.500
1.184,-91.500,-133.500,21.000,-2.500
1.185,-91.000,-133.500,20.500,-3.000
1.186,-89.500,-134.000,20.000,-4.000
1.187,-87.500,-135.000,20.000,-5.000
1.188,-85.000,-136.000,19.500,-6.000
1.189,-82.000,-137.000,19.500,-7.000
1.190,-79.500,-138.500,19.500,-8.000
1.191,-77.000,-139.500,19.500,-8.500
1.192,-75.000,-140.500,19.500,-8.500
1.193,-73.500,-141.500,20.000,-8.000
1.194,-73.000,-142.000,20.500,-7.500
1.195,-73.000,-142.500,20.500,-6.500
1.196,-74.000,-142.500,20.500,-5.500
1.197,-75.500,-142.000,20.500,-4.000
1.198,-77.500,-141.500,20.000,-3.000
1.199,-79.500,-140.500,19.500,-2.000
1.200,-80.500,-140.000,19.000,-1.000
1.201,-81.500,-139.500,18.500,0.000
1.202,-81.500,-139.000,17.000,0.000
1.203,-81.000,-139.500,16.000,-0.500
1.204,-79.500,-140.500,14.500,-1.500
1.205,-78.000,-142.000,12.500,-2.500
1.206,-75.500,-143.500,11.000,-4.000
1.207,-72.500,-145.000,10.000,-5.000
1.208,-69.500,-146.000,10.000,-6.000
1.209,-66.500,-147.500,10.000,-6.500
1.210,-64.000,-149.000,10.000,-7.500
1.211,-62.000,-150.000,10.500,-8.000
1.212,-60.500,-151.000,11.500,-8.500
1.213,-60.000,-152.000,12.000,-8.500
1.214,-60.500,-152.500,13.000,-8.500
1.215,-61.500,-152.000,14.000,-7.500
1.216,-63.500,-151.500,15.500,-6.500
1.217,-66.000,-149.500,16.500,-5.000
1.218,-69.000,-147.500,17.500,-3.000
1.219,-71.500,-145.500,18.500,-1.000
1.220,-73.500,-143.500,19.000,0.500
1.221,-75.500,-142.000,19.500,1.500
1.222,-77.000,-140.500,19.000,2.500
1.223,-78.000,-140.000,19.000,2.500
1.224,-78.500,-140.000,19.000,2.500
1.225,-78.000,-140.000,18.500,2.000
1.226,-76.500,-141.000,19.000,1.000
1.227,-74.500,-142.000,19.000,0.500
1.228,-71.500,-143.000,19.500,-0.500
1.229,-68.000,-144.500,20.000,-1.000
1.230,-64.000,-146.000,21.000,-1.500
1.231,-60.500,-147.500,22.000,-1.500
1.232,-57.500,-148.500,23.000,-1.000
1.233,-54.500,-149.500,24.500,0.500
1.234,-52.500,-150.000,25.500,2.000
1.235,-51.500,-150.500,27.000,4.000
1.236,-51.000,-151.000,28.000,6.500
1.237,-51.500,-151.000,29.000,8.500
1.238,-52.500,-151.000,30.000,11.000
1.239,-53.500,-151.000,30.000,13.000
1.240,-55.000,-151.000,30.000,15.000
1.241,-56.500,-151.500,29.500,16.500
1.242,-58.000,-152.500,28.500,18.000
1.243,-59.000,-153.000,27.500,19.000
1.244,-60.000,-154.000,27.000,19.500
1.245,-60.500,-155.500,26.000,19.500
1.246,-60.500,-156.500,25.500,19.500
1.247,-60.500,-157.500,25.000,18.500
1.248,-60.000,-158.500,25.000,17.000
1.249,-59.000,-159.000,25.000,16.000
1.250,-58.000,-159.000,25.500,15.000
1.251,-57.000,-159.000,26.000,14.500
1.252,-56.500,-158.500,27.000,14.000
1.253,-57.000,-157.000,28.000,14.000
1.254,-58.000,-155.500,29.500,14.000
1.255,-60.000,-153.500,30.500,14.500
1.256,-62.500,-151.000,31.500,15.500
1.257,-65.500,-148.500,32.500,16.500
1.258,-69.000,-146.000,33.500,17.500
1.259,-72.000,-143.500,34.500,19.000
1.260,-75.000,-140.500,35.000,20.000
1.261,-77.500,-138.000,35.500,21.000
1.262,-79.000,-136.500,35.500,22.000
1.263,-80.500,-135.000,35.000,22.000
1.264,-81.000,-134.000,34.500,21.500
1.265,-81.000,-134.000,34.000,20.000
1.266,-80.000,-134.500,33.000,18.500
1.267,-78.000,-135.500,32.500,17.000
1.268,-76.000,-136.500,32.000,15.000
1.269,-73.500,-138.000,32.000,13.000
1.270,-71.500,-139.500,31.500,11.500
1.271,-69.500,-141.500,31.000,9.500
1.272,-67.500,-142.500,31.000,9.000
1.273,-66.500,-143.000,31.500,8.500
1.274,-66.000,-143.500,32.000,9.000
1.275,-66.500,-143.000,33.000,10.000
1.276,-67.000,-142.500,33.500,11.000
1.277,-68.000,-141.500,34.000,12.500
1.278,-69.500,-140.000,34.000,14.000
1.279,-71.000,-139.000,34.500,15.000
1.280,-73.000,-138.000,34.000,16.500
1.281,-74.000,-136.500,34.000,17.500
1.282,-75.000,-135.500,34.000,18.000
1.283,-75.000,-135.000,33.500,18.000
1.284,-74.000,-134.500,33.000,17.500
1.285,-73.000,-134.500,32.500,17.000
1.286,-71.000,-135.000,32.000,15.500
1.287,-68.500,-136.500,31.500,14.000
1.288,-66.000,-137.500,31.000,12.000
1.289,-63.000,-139.500,30.500,10.000
1.290,-60.000,-141.000,30.500,8.500
1.291,-57.500,-142.500,30.500,8.000
1.292,-54.500,-143.500,31.500,7.500
1.293,-52.500,-144.000,32.000,7.500
1.294,-51.000,-144.500,33.000,8.500
1.295,-50.500,-144.000,34.000,9.500
1.296,-51.000,-143.500,35.000,11.000
1.297,-52.000,-142.500,35.500,12.500
1.298,-54.000,-141.000,36.000,14.500
1.299,-56.000,-139.000,36.500,16.500
1.300,-58.500,-137.500,36.500,18.000
1.301,-60.500,-136.000,36.500,19.000
1.302,-62.500,-134.500,36.000,20.000
1.303,-64.000,-133.500,36.000,20.000
1.304,-64.500,-133.500,35.500,20.000
1.305,-64.000,-133.500,34.500,19.500
1.306,-62.500,-134.000,34.000,18.500
1.307,-60.000,-135.500,33.000,17.500
1.308,-57.000,-136.500,32.500,16.500
1.309,-53.500,-138.500,32.000,15.500
1.310,-49.500,-140.500,32.000,14.000
1.311,-45.500,-142.000,32.000,13.500
1.312,-42.500,-144.000,32.500,13.000
1.313,-40.500,-145.000,33.500,13.000
1.314,-40.000,-145.500,34.500,13.500
1.315,-40.500,-145.000,35.500,14.000
1.316,-42.000,-144.000,36.000,15.000
1.317,-45.000,-142.500,37.000,16.000
1.318,-48.000,-141.000,37.000,17.000
1.319,-51.500,-139.000,37.000,18.000
1.320,-55.000,-137.500,37.000,18.500
1.321,-57.500,-136.500,37.000,19.500
1.322,-60.000,-135.500,36.500,20.000
1.323,-61.000,-134.500,36.000,20.000
1.324,-61.500,-134.500,35.500,20.000
1.325,-60.500,-134.500,35.000,20.000
1.326,-58.500,-135.000,34.500,19.500
1.327,-55.500,-136.000,34.500,18.000
1.328,-52.500,-137.500,34.000,17.000
1.329,-49.000,-139.000,33.500,15.000
1.330,-46.000,-140.500,33.000,13.500
1.331,-44.000,-142.500,33.000,12.000
1.332,-42.500,-144.000,32.500,10.500
1.333,-41.500,-145.000,32.500,10.000
1.334,-41.500,-145.500,32.500,10.000
1.335,-42.000,-145.500,33.000,10.500
1.336,-43.000,-144.500,33.500,12.500
1.337,-44.500,-143.000,34.500,14.500
1.338,-46.500,-141.500,35.000,17.000
1.339,-48.500,-140.000,35.500,19.000
1.340,-51.000,-138.500,35.500,21.000
1.341,-53.500,-137.000,35.500,22.000
1.342,-55.500,-136.000,35.500,23.000
1.343,-57.000,-135.000,35.000,23.500
1.344,-57.500,-135.000,34.500,23.500
1.345,-57.500,-135.500,33.500,23.000
1.346,-56.500,-136.000,32.500,22.000
1.347,-54.500,-137.000,32.000,20.500
1.348,-52.000,-138.500,31.000,19.500
1.349,-49.000,-139.500,31.000,18.000
1.350,-46.000,-141.000,30.500,17.500
1.351,-43.500,-142.000,30.500,17.000
1.352,-41.500,-143.000,30.500,17.000
1.353,-40.000,-143.500,30.500,17.000
1.354,-39.500,-144.000,30.500,17.000
1.355,-40.000,-144.000,30.500,17.000
1.356,-41.000,-143.500,30.500,17.000
1.357,-43.500,-143.000,30.500,18.000
1.358,-46.000,-141.500,31.000,18.500
1.359,-48.500,-140.000,31.000,19.500
1.360,-51.000,-138.500,31.000,20.500
1.361,-53.500,-137.500,31.000,21.500
1.362,-55.000,-136.500,31.000,21.500
1.363,-56.000,-136.000,30.500,21.000
1.364,-56.000,-136.000,30.000,20.500
1.365,-55.500,-136.000,29.000,20.000
1.366,-54.000,-137.000,28.500,18.500
1.367,-51.500,-138.500,28.000,17.500
1.368,-48.500,-140.000,27.500,16.000
1.369,-45.500,-141.500,27.000,14.000
1.370,-42.500,-143.000,27.000,12.500
1.371,-40.000,-145.000,26.500,11.000
1.372,-38.500,-146.500,26.500,10.000
1.373,-37.000,-147.500,26.500,9.500
1.374,-36.500,-148.500,27.000,9.500
1.375,-36.500,-148.500,27.500,10.000
1.376,-37.500,-148.000,28.000,11.500
1.377,-39.500,-147.000,28.500,12.500
1.378,-41.500,-146.000,28.500,14.500
1.379,-43.500,-144.500,28.500,15.500
1.380,-45.500,-143.500,28.500,17.000
1.381,-47.000,-142.500,28.000,17.500
1.382,-48.500,-141.500,28.000,18.500
1.383,-49.000,-140.500,27.500,18.500
1.384,-48.500,-140.500,27.500,18.000
1.385,-47.500,-140.500,27.500,17.500
1.386,-45.500,-141.000,27.000,17.000
1.387,-43.000,-142.500,26.500,15.500
1.388,-39.500,-143.500,26.500,14.500
1.389,-36.000,-145.000,26.500,13.500
1.390,-32.000,-146.500,27.000,12.500
1.391,-28.500,-147.000,27.500,12.000
1.392,-25.000,-147.500,28.500,11.500
1.393,-22.500,-148.000,29.500,11.500
1.394,-21.000,-147.500,30.500,12.500
1.395,-20.500,-147.000,31.500,13.500
1.396,-20.500,-146.000,32.500,14.500
1.397,-21.500,-144.500,33.500,16.500
1.398,-23.000,-143.000,34.500,18.000
1.399,-25.000,-141.500,35.000,20.000
1.400,-26.500,-139.500,35.500,21.500
1.401,-28.000,-137.500,36.000,23.500
1.402,-28.500,-136.000,36.500,24.500
1.403,-28.500,-135.000,36.500,25.500
1.404,-27.500,-134.500,37.000,25.500
1.405,-26.000,-134.500,37.000,25.500
1.406,-24.000,-135.000,37.000,24.500
1.407,-21.500,-135.500,37.000,23.500
1.408,-19.000,-137.000,37.000,22.500
1.409,-16.500,-138.500,37.000,21.000
1.410,-14.000,-139.500,37.000,20.000
1.411,-12.500,-141.000,37.000,19.000
1.412,-11.500,-142.000,37.000,19.000
1.413,-11.500,-143.000,37.500,19.000
1.414,-12.000,-143.500,38.000,19.000
1.415,-13.000,-143.500,38.500,20.000
1.416,-14.500,-143.500,39.000,21.000
1.417,-16.500,-142.500,39.000,22.000
1.418,-19.000,-141.500,39.500,23.500
1.419,-21.500,-140.000,40.000,25.000
1.420,-24.000,-138.500,40.000,26.000
1.421,-26.000,-137.000,40.000,27.000
1.422,-27.500,-136.000,39.500,27.500
1.423,-28.000,-135.500,39.500,27.500
1.424,-28.000,-135.000,39.000,27.000
1.425,-27.000,-135.000,38.500,26.000
1.426,-26.000,-135.500,38.000,25.000
1.427,-24.000,-136.500,38.000,23.500
1.428,-22.000,-138.000,37.500,22.000
1.429,-19.500,-139.000,37.500,21.000
1.430,-17.000,-140.500,37.500,20.500
1.431,-15.000,-141.500,38.000,20.000
1.432,-13.500,-142.500,38.500,20.000
1.433,-12.500,-143.000,39.000,20.500
1.434,-13.000,-143.500,39.000,21.000
1.435,-14.500,-143.500,39.500,22.000
1.436,-16.500,-143.000,40.000,23.500
1.437,-19.000,-142.500,40.000,25.000
1.438,-22.500,-141.000,40.500,26.500
1.439,-25.500,-140.000,40.500,27.500
1.440,-28.500,-138.500,40.000,29.000
1.441,-31.500,-137.500,40.000,30.000
1.442,-33.500,-136.500,40.000,30.500
1.443,-35.000,-136.000,39.500,30.500
1.444,-35.500,-135.500,39.000,30.000
1.445,-35.000,-136.000,38.500,29.000
1.446,-33.500,-136.500,37.500,28.000
1.447,-31.500,-137.500,37.000,26.500
1.448,-29.000,-139.000,36.000,25.500
1.449,-25.500,-141.000,36.000,24.000
1.450,-22.000,-143.000,35.500,22.500
1.451,-18.500,-144.500,35.500,21.000
1.452,-15.500,-146.000,35.500,20.500
1.453,-13.500,-147.000,35.500,20.000
1.454,-12.500,-147.500,36.000,20.500
1.455,-12.500,-147.500,36.000,21.500
1.456,-14.000,-147.000,36.500,22.500
1.457,-16.000,-146.000,36.500,23.500
1.458,-19.000,-145.000,36.500,24.500
1.459,-22.500,-143.500,36.500,25.500
1.460,-25.500,-142.500,36.500,26.500
1.461,-27.500,-141.000,36.500,27.000
1.462,-29.500,-139.500,37.000,28.000
1.463,-30.000,-139.000,37.000,28.500
1.464,-30.500,-138.500,37.000,29.000
1.465,-29.500,-138.500,37.000,29.500
1.466,-28.000,-139.000,37.000,28.500
1.467,-25.500,-140.000,36.500,27.500
1.468,-22.500,-141.500,36.500,26.000
1.469,-19.000,-143.000,36.000,24.500
1.470,-15.500,-144.500,36.000,23.000
1.471,-12.000,-146.000,36.500,22.500
1.472,-9.000,-147.000,37.000,22.000
1.473,-6.500,-147.500,38.000,22.000
1.474,-5.000,-147.500,39.000,22.500
1.475,-5.000,-147.000,40.000,23.000
1.476,-6.000,-146.000,41.000,24.500
1.477,-7.500,-145.000,42.000,25.500
1.478,-10.000,-144.000,42.000,27.000
1.479,-13.000,-142.500,42.500,28.000
1.480,-16.000,-141.500,42.500,29.000
1.481,-19.500,-141.000,42.000,30.000
1.482,-22.500,-140.000,42.000,30.000
1.483,-25.500,-139.500,41.500,30.000
1.484,-27.500,-139.000,41.000,29.000
1.485,-28.500,-139.500,40.000,28.000
1.486,-29.000,-140.500,39.000,26.000
1.487,-29.000,-142.000,38.000,23.500
1.488,-28.500,-143.500,37.000,21.500
1.489,-28.000,-145.500,36.000,19.500
1.490,-27.500,-147.500,35.500,18.000
1.491,-26.500,-149.500,35.500,17.000
1.492,-25.500,-150.500,36.000,16.500
1.493,-24.500,-151.500,37.000,16.500
1.494,-24.000,-151.500,37.500,17.000
1.495,-23.500,-151.500,38.500,18.000
1.496,-24.000,-150.500,39.500,19.500
1.497,-26.000,-149.000,40.500,21.500
1.498,-28.000,-147.500,41.000,23.000
1.499,-31.000,-146.000,41.500,24.000
1.500,-33.500,-144.000,42.000,25.000
1.501,-36.000,-142.500,42.000,25.500
1.502,-38.000,-141.500,42.000,26.000
1.503,-39.000,-140.500,42.000,26.000
1.504,-39.500,-139.500,41.500,25.500
1.505,-39.000,-139.500,41.500,24.500
1.506,-37.500,-139.500,41.500,23.500
1.507,-35.000,-140.500,41.000,22.000
1.508,-32.000,-141.000,41.000,20.500
1.509,-28.500,-142.500,41.000,19.000
1.510,-25.000,-143.500,41.500,18.000
1.511,-22.000,-144.000,42.000,17.000
1.512,-20.500,-145.000,42.500,16.500
1.513,-19.500,-145.500,43.000,16.500
1.514,-20.000,-145.500,44.000,17.000
1.515,-21.500,-145.000,44.500,17.500
1.516,-24.500,-144.500,45.000,18.500
1.517,-27.500,-143.500,45.000,19.500
1.518,-31.500,-142.500,45.000,20.500
1.519,-35.500,-141.000,45.000,22.000
1.520,-38.500,-139.500,45.000,23.000
1.521,-41.500,-138.000,44.500,24.000
1.522,-43.500,-137.000,44.500,24.500
1.523,-44.500,-136.000,44.500,25.000
1.524,-45.000,-135.500,44.000,25.000
1.525,-44.500,-135.500,44.000,24.500
1.526,-43.000,-136.500,44.000,23.500
1.527,-40.500,-137.500,43.500,22.500
1.528,-37.000,-138.500,43.500,21.500
1.529,-33.500,-140.000,43.500,20.500
1.530,-30.500,-141.500,43.500,19.000
1.531,-28.000,-143.000,43.500,18.500
1.532,-26.000,-144.000,44.000,18.000
1.533,-25.000,-144.500,44.500,18.000
1.534,-24.500,-144.000,45.000,18.500
1.535,-24.500,-143.500,46.000,20.000
1.536,-26.000,-142.000,47.000,21.500
1.537,-28.000,-140.500,48.000,23.500
1.538,-31.000,-139.000,48.500,25.000
1.539,-35.000,-137.500,49.000,27.000
1.540,-38.500,-136.000,49.000,28.500
1.541,-41.500,-134.500,49.000,29.500
1.542,-44.000,-133.500,49.000,30.000
1.543,-45.000,-132.500,49.000,30.000
1.544,-45.000,-132.000,49.000,30.000
1.545,-44.000,-131.500,49.000,30.000
1.546,-41.500,-132.000,49.000,29.000
1.547,-38.500,-132.500,49.000,28.000
1.548,-35.000,-133.500,49.000,26.500
1.549,-31.000,-134.500,49.500,24.500
1.550,-26.500,-136.000,50.000,22.000
1.551,-22.500,-137.000,50.500,19.500
1.552,-19.000,-137.500,51.000,16.000
1.553,-16.500,-138.000,51.500,13.000
1.554,-15.000,-138.500,52.000,10.000
1.555,-14.500,-138.000,52.500,7.500
1.556,-15.000,-138.000,53.000,5.500
1.557,-17.000,-137.000,53.000,4.000
1.558,-19.000,-136.500,53.000,3.000
1.559,-21.500,-135.500,52.500,1.500
1.560,-23.500,-134.000,52.500,0.500
1.561,-25.500,-133.000,52.000,-0.500
1.562,-26.500,-132.500,51.500,-2.000
1.563,-27.000,-131.500,50.500,-3.500
1.564,-26.500,-131.500,50.000,-5.000
1.565,-25.000,-132.000,49.000,-7.000
1.566,-23.000,-132.500,48.500,-9.000
1.567,-20.500,-134.000,48.500,-11.500
1.568,-17.500,-135.500,48.000,-14.000
1.569,-14.500,-137.500,48.000,-16.500
1.570,-11.500,-139.000,48.000,-18.500
1.571,-9.000,-140.500,48.000,-20.000
1.572,-7.000,-141.000,48.500,-21.000
1.573,-6.000,-141.500,49.500,-21.000
1.574,-5.500,-141.500,50.500,-21.000
1.575,-6.000,-140.500,51.500,-20.000
1.576,-7.000,-139.500,52.500,-19.000
1.577,-8.000,-138.000,53.500,-18.000
1.578,-10.000,-136.500,54.000,-16.500
1.579,-11.500,-135.000,55.000,-15.500
1.580,-13.500,-133.500,55.500,-14.500
1.581,-15.500,-131.500,56.000,-13.500
1.582,-17.000,-130.000,56.500,-12.500
1.583,-18.500,-128.500,57.000,-12.500
1.584,-19.000,-128.000,57.000,-13.000
1.585,-18.500,-127.500,57.000,-13.500
1.586,-17.000,-127.500,56.500,-14.500
1.587,-14.500,-128.000,56.500,-16.000
1.588,-11.000,-128.500,56.500,-17.000
1.589,-7.000,-129.500,56.500,-18.000
1.590,-3.000,-130.500,57.000,-18.500
1.591,0.500,-131.500,57.500,-19.000
1.592,3.000,-132.500,58.500,-19.000
1.593,4.500,-132.500,59.500,-19.000
1.594,5.000,-132.500,60.500,-18.500
1.595,4.500,-132.000,62.000,-17.500
1.596,4.000,-131.000,63.000,-16.000
1.597,2.500,-130.000,64.000,-14.500
1.598,1.000,-128.500,64.500,-13.000
1.599,-0.500,-127.000,65.000,-11.500
1.600,-2.000,-125.000,65.000,-10.000
1.601,-4.000,-123.500,65.500,-9.000
1.602,-5.500,-122.000,65.000,-8.500
1.603,-7.000,-121.000,64.500,-8.000
1.604,-8.000,-120.500,64.000,-8.000
1.605,-8.000,-121.000,63.500,-8.500
1.606,-7.500,-121.500,63.000,-9.000
1.607,-6.000,-122.500,62.500,-9.500
1.608,-4.000,-124.000,62.000,-10.500
1.609,-1.000,-125.000,62.000,-11.000
1.610,2.500,-126.500,62.500,-12.000
1.611,6.000,-127.500,63.000,-12.500
1.612,9.500,-128.000,63.000,-12.500
1.613,12.000,-128.500,63.500,-12.500
1.614,13.500,-129.000,64.500,-12.000
1.615,14.500,-128.500,65.000,-11.000
1.616,14.000,-128.000,65.500,-9.500
1.617,12.500,-127.500,66.000,-7.500
1.618,10.500,-126.000,66.000,-6.000
1.619,8.000,-125.000,66.500,-4.500
1.620,5.500,-123.500,66.500,-3.000
1.621,3.000,-122.000,66.000,-2.000
1.622,1.000,-121.000,65.500,-1.500
1.623,-0.500,-120.500,65.000,-1.500
1.624,-1.500,-120.500,64.500,-2.000
1.625,-2.000,-121.000,63.500,-2.500
1.626,-2.000,-122.500,62.500,-3.500
1.627,-1.000,-124.500,62.000,-5.000
1.628,0.500,-126.500,61.000,-6.500
1.629,2.000,-129.000,60.500,-8.500
1.630,3.000,-131.500,59.500,-10.000
1.631,4.000,-134.000,59.000,-11.000
1.632,4.500,-136.000,58.500,-11.500
1.633,4.500,-137.500,58.500,-12.000
1.634,4.500,-138.500,58.000,-12.000
1.635,4.000,-139.000,58.000,-11.500
1.636,3.000,-139.000,58.000,-11.000
1.637,1.000,-138.500,57.500,-10.000
1.638,-1.500,-137.500,57.500,-9.500
1.639,-4.000,-136.000,57.500,-8.500
1.640,-6.500,-135.000,57.000,-7.000
1.641,-8.500,-134.000,57.000,-6.000
1.642,-9.500,-133.000,56.500,-5.000
1.643,-9.000,-132.500,56.500,-4.500
1.644,-8.000,-132.000,56.000,-4.000
1.645,-6.000,-132.000,55.500,-4.000
1.646,-3.500,-133.000,55.500,-4.500
1.647,-0.500,-134.000,55.000,-5.000
1.648,3.000,-135.000,54.500,-5.500
1.649,5.500,-137.000,54.500,-6.000
1.650,8.000,-138.500,54.500,-6.000
1.651,10.000,-140.000,54.500,-5.500
1.652,11.500,-141.500,54.500,-4.500
1.653,12.000,-142.500,54.500,-3.000
1.654,11.500,-143.000,54.500,-1.000
1.655,10.000,-143.500,54.500,1.500
1.656,8.000,-143.500,54.500,4.500
1.657,5.000,-143.500,54.500,7.000
1.658,2.500,-143.000,54.500,9.000
1.659,0.500,-142.500,54.000,11.000
1.660,-1.500,-142.500,53.000,13.000
1.661,-3.000,-142.500,52.000,14.500
1.662,-3.500,-142.500,50.500,15.500
1.663,-3.500,-143.500,49.000,16.500
1.664,-3.000,-144.500,48.000,16.500
1.665,-1.000,-146.000,46.500,16.000
1.666,1.000,-147.000,45.500,15.500
1.667,3.000,-148.500,45.000,14.500
1.668,5.500,-150.000,44.500,13.500
1.669,8.000,-151.500,44.500,12.500
1.670,10.000,-152.500,44.500,11.500
1.671,11.500,-154.000,44.500,11.000
1.672,12.500,-155.500,45.000,11.000
1.673,12.000,-156.000,45.000,11.500
1.674,11.000,-156.000,45.500,12.500
1.675,8.500,-155.000,46.500,14.000
1.676,5.000,-153.500,48.000,16.500
1.677,1.500,-151.500,49.500,19.000
1.678,-2.000,-149.000,51.000,21.500
1.679,-5.500,-146.500,52.000,24.000
1.680,-8.000,-143.500,53.500,26.000
1.681,-10.000,-141.500,54.000,28.000
1.682,-11.500,-139.500,55.000,29.500
1.683,-12.000,-138.000,55.000,30.500
1.684,-12.000,-137.000,55.000,31.000
1.685,-10.500,-136.500,55.000,31.000
1.686,-9.000,-136.500,55.000,31.000
1.687,-6.000,-136.500,55.500,30.500
1.688,-3.000,-137.000,56.000,30.000
1.689,0.000,-137.500,56.500,29.500
1.690,3.000,-138.500,57.500,29.000
1.691,5.500,-139.000,58.000,29.000
1.692,7.500,-140.000,59.000,29.500
1.693,9.000,-140.000,60.500,30.500
1.694,10.000,-140.000,61.500,32.000
1.695,10.000,-139.500,62.500,33.500
1.696,9.500,-138.000,63.500,35.500
1.697,8.500,-136.500,64.500,38.000
1.698,7.000,-134.500,65.500,40.000
1.699,5.500,-133.000,65.500,42.000
1.700,3.500,-131.500,65.500,43.500
1.701,2.000,-130.000,65.000,44.500
1.702,1.000,-129.500,64.500,45.000
1.703,0.500,-129.500,63.500,45.000
1.704,1.000,-129.500,62.500,44.500
1.705,2.500,-130.000,62.000,44.000
1.706,5.000,-131.000,61.500,43.500
1.707,8.000,-132.000,61.000,43.000
1.708,12.000,-133.000,61.000,42.500
1.709,15.500,-134.500,61.000,42.000
1.710,19.000,-135.500,61.000,41.500
1.711,22.000,-137.000,61.000,41.500
1.712,24.000,-137.500,61.500,42.000
1.713,25.500,-138.000,62.500,43.000
1.714,26.000,-138.000,63.000,44.000
1.715,25.500,-138.000,64.500,45.500
1.716,24.000,-137.000,65.500,47.000
1.717,22.000,-135.500,66.000,48.000
1.718,20.000,-134.500,66.500,49.500
1.719,17.500,-133.000,67.000,50.500
1.720,15.500,-131.500,67.000,51.500
1.721,13.000,-130.500,67.000,52.000
1.722,11.500,-129.500,66.500,52.500
1.723,10.000,-129.000,66.000,52.500
1.724,9.000,-129.000,65.500,52.000
1.725,9.000,-129.500,65.000,51.000
1.726,9.500,-130.000,64.000,49.500
1.727,11.000,-131.500,63.500,47.500
1.728,12.500,-133.500,62.500,46.000
1.729,15.000,-135.500,62.000,44.000
1.730,17.000,-137.500,61.500,42.500
1.731,19.000,-139.500,61.500,41.500
1.732,20.500,-141.500,61.500,40.500
1.733,21.500,-142.500,61.500,40.500
1.734,21.500,-143.500,61.000,40.500
1.735,20.500,-144.000,61.000,41.000
1.736,19.000,-144.000,61.000,41.500
1.737,17.000,-143.500,61.000,42.500
1.738,14.500,-142.000,60.500,43.500
1.739,11.500,-141.000,60.500,44.500
1.740,9.000,-139.500,60.000,45.500
1.741,6.500,-138.000,59.500,46.000
1.742,4.500,-137.000,59.000,46.500
1.743,3.500,-136.500,58.500,46.500
1.744,3.000,-136.500,57.500,46.000
1.745,3.000,-136.500,57.000,45.500
1.746,4.000,-137.000,56.500,44.500
1.747,6.000,-138.000,56.500,43.500
1.748,8.500,-139.500,56.500,42.000
1.749,11.500,-141.000,56.500,41.000
1.750,14.500,-142.500,56.500,39.500
1.751,17.500,-144.500,56.500,38.500
1.752,20.000,-146.000,57.000,38.000
1.753,21.000,-147.500,57.500,37.500
1.754,21.000,-148.000,57.500,37.000
1.755,20.000,-148.500,58.000,37.500
1.756,17.500,-149.000,58.000,38.500
1.757,15.000,-148.500,58.500,39.500
1.758,11.500,-148.000,59.000,41.000
1.759,8.000,-147.000,59.000,42.500
1.760,4.500,-146.000,58.500,43.500
1.761,0.500,-145.000,58.500,44.000
1.762,-2.500,-144.500,57.500,44.500
1.763,-4.500,-144.500,57.000,44.500
1.764,-5.000,-144.500,56.000,43.500
1.765,-5.000,-145.500,55.000,42.500
1.766,-4.000,-146.500,54.000,41.000
1.767,-2.000,-148.000,53.500,39.500
1.768,1.000,-149.500,52.500,37.500
1.769,4.000,-151.500,52.000,36.000
1.770,7.500,-153.000,51.500,34.500
1.771,10.500,-155.000,51.500,34.000
1.772,13.500,-156.500,51.500,34.000
1.773,15.500,-157.000,52.000,34.500
1.774,16.500,-157.500,52.500,35.500
1.775,17.000,-157.000,53.000,36.500
1.776,17.000,-156.500,53.500,38.000
1.777,15.500,-155.500,54.000,39.500
1.778,13.000,-154.000,54.500,40.500
1.779,10.000,-152.500,54.500,42.000
1.780,7.000,-151.500,54.500,43.000
1.781,3.500,-151.000,54.500,44.000
1.782,1.000,-150.000,54.000,45.000
1.783,-1.000,-149.500,53.500,45.000
1.784,-2.500,-149.500,53.000,45.000
1.785,-2.500,-149.500,53.000,45.000
1.786,-2.500,-150.500,52.500,44.500
1.787,-1.500,-151.500,52.000,44.000
1.788,0.000,-153.000,51.500,43.000
1.789,1.500,-154.500,51.000,42.000
1.790,3.500,-156.000,51.000,41.500
1.791,5.000,-157.500,51.000,40.500
1.792,6.500,-159.000,51.000,40.000
1.793,7.000,-159.500,51.500,40.000
1.794,6.500,-160.500,51.500,40.000
1.795,5.500,-160.500,52.000,40.500
1.796,4.000,-160.000,52.500,41.000
1.797,1.500,-159.500,52.500,42.000
1.798,-1.500,-158.000,52.500,43.500
1.799,-4.000,-157.000,52.500,44.500
1.800,-6.500,-155.500,52.500,45.500
1.801,-8.000,-154.000,52.500,46.500
1.802,-9.500,-153.000,52.000,47.000
1.803,-10.500,-152.000,51.500,47.000
1.804,-11.000,-152.000,50.500,46.500
1.805,-11.500,-152.500,49.500,45.500
1.806,-11.500,-153.500,48.000,44.000
1.807,-11.000,-155.000,47.000,42.000
1.808,-10.500,-156.000,46.500,40.500
1.809,-9.000,-157.500,46.000,39.000
1.810,-7.500,-159.000,46.000,37.500
1.811,-6.500,-161.000,46.500,36.000
1.812,-5.500,-162.500,46.500,35.000
1.813,-5.000,-163.500,47.000,34.500
1.814,-5.000,-164.500,47.500,34.500
1.815,-5.000,-164.500,48.000,35.000
1.816,-6.000,-164.500,48.000,35.500
1.817,-7.500,-164.000,48.000,36.000
1.818,-9.500,-163.000,48.000,37.000
1.819,-11.500,-162.000,48.000,38.000
1.820,-14.000,-161.000,47.500,38.500
1.821,-16.000,-160.000,47.000,38.500
1.822,-18.500,-159.000,46.000,38.500
1.823,-20.000,-158.500,45.000,37.500
1.824,-21.000,-159.000,43.500,36.500
1.825,-21.500,-160.000,42.000,34.500
1.826,-21.500,-161.500,40.500,32.500
1.827,-21.500,-163.500,39.000,30.000
1.828,-21.500,-165.500,38.000,28.000
1.829,-22.000,-168.000,37.000,26.000
1.830,-23.000,-170.000,36.000,24.000
1.831,-24.000,-172.000,36.000,23.000
1.832,-26.000,-173.500,35.500,22.000
1.833,-28.000,-174.500,36.000,22.000
1.834,-30.500,-175.000,36.000,22.000
1.835,-33.500,-175.000,36.000,23.000
1.836,-36.500,-174.500,36.500,24.000
1.837,-39.500,-173.500,36.500,25.000
1.838,-43.000,-172.500,36.500,26.000
1.839,-46.000,-171.500,36.500,27.000
1.840,-49.000,-170.000,36.000,28.000
1.841,-51.500,-169.000,36.000,29.500
1.842,-53.000,-168.000,36.000,30.000
1.843,-54.500,-167.000,35.500,30.000
1.844,-55.000,-166.500,35.000,29.000
1.845,-55.000,-166.500,34.500,28.000
1.846,-54.500,-167.000,34.000,26.500
1.847,-54.000,-168.000,33.500,25.000
1.848,-52.500,-169.500,33.000,23.000
1.849,-51.500,-171.000,33.000,21.500
1.850,-49.500,-172.500,33.000,20.000
1.851,-47.500,-174.000,33.000,19.000
1.852,-46.000,-175.000,33.000,18.500
1.853,-45.000,-176.000,34.000,18.500
1.854,-44.500,-176.000,34.500,18.500
1.855,-45.000,-176.000,35.500,19.500
1.856,-46.500,-175.000,36.500,20.500
1.857,-48.500,-174.000,37.000,22.000
1.858,-50.500,-172.000,38.000,23.500
1.859,-53.500,-170.000,38.500,25.000
1.860,-56.000,-168.000,39.000,26.500
1.861,-58.000,-166.000,39.500,27.500
1.862,-60.000,-164.500,39.500,28.500
1.863,-61.500,-163.500,40.000,29.000
1.864,-62.500,-162.500,39.500,29.000
1.865,-63.000,-162.500,39.500,28.500
1.866,-63.000,-162.500,39.000,27.500
1.867,-62.000,-163.500,38.500,26.500
1.868,-60.500,-164.500,37.500,25.000
1.869,-58.000,-166.000,37.500,23.500
1.870,-55.500,-167.000,37.000,22.500
1.871,-53.000,-168.500,37.000,22.000
1.872,-51.000,-169.500,37.000,21.500
1.873,-49.500,-170.000,37.500,22.000
1.874,-48.500,-170.000,38.000,23.000
1.875,-48.500,-169.500,39.000,24.000
1.876,-49.500,-169.000,39.500,25.500
1.877,-51.000,-168.000,39.500,27.500
1.878,-53.500,-166.500,40.000,29.500
1.879,-56.000,-165.000,40.000,31.500
1.880,-58.500,-163.500,40.000,33.000
1.881,-60.500,-162.000,39.500,34.000
1.882,-61.500,-160.500,39.000,34.500
1.883,-62.000,-160.000,38.500,34.500
1.884,-61.500,-160.000,37.500,34.000
1.885,-60.000,-160.500,36.500,33.000
1.886,-58.500,-162.000,35.500,31.500
1.887,-57.000,-163.500,34.500,29.500
1.888,-55.000,-166.000,33.500,27.500
1.889,-52.500,-168.000,32.500,26.000
1.890,-50.000,-170.500,32.000,24.500
1.891,-47.500,-173.000,32.000,23.500
1.892,-45.500,-175.000,31.500,23.000
1.893,-44.000,-176.500,32.000,23.000
1.894,-43.000,-177.500,32.500,23.500
1.895,-43.000,-178.000,33.000,24.500
1.896,-43.500,-178.500,33.500,26.000
1.897,-45.500,-178.500,34.000,28.000
1.898,-47.500,-178.500,34.500,30.000
1.899,-50.500,-178.000,35.000,32.500
1.900,-53.000,-177.500,35.500,34.500
1.901,-55.000,-177.000,35.500,36.500
1.902,-56.500,-176.500,36.000,38.500
1.903,-57.000,-177.000,35.500,39.500
1.904,-56.500,-177.500,35.500,40.500
1.905,-55.500,-179.000,35.000,41.000
1.906,-53.000,-180.500,34.000,40.500
1.907,-50.500,-183.000,33.500,39.500
1.908,-47.500,-185.000,33.000,38.500
1.909,-44.500,-187.000,32.500,37.000
1.910,-42.000,-189.000,32.000,35.500
1.911,-39.500,-190.000,32.000,34.500
1.912,-38.500,-190.500,32.000,34.000
1.913,-38.000,-190.000,32.500,33.500
1.914,-39.000,-189.000,33.500,34.000
1.915,-41.000,-187.000,34.500,34.500
1.916,-43.500,-184.500,36.000,35.000
1.917,-47.000,-181.000,37.500,36.000
1.918,-51.000,-177.500,38.500,37.000
1.919,-55.500,-173.500,39.500,37.500
1.920,-59.000,-170.500,40.500,38.500
1.921,-62.500,-167.500,41.000,39.000
1.922,-65.500,-165.000,41.000,39.000
1.923,-67.500,-163.000,41.000,38.500
1.924,-69.000,-162.500,40.500,37.500
1.925,-69.500,-162.000,39.500,36.500
1.926,-69.000,-162.500,39.000,34.500
1.927,-68.000,-163.000,38.000,32.500
1.928,-65.500,-164.000,37.500,30.000
1.929,-62.500,-165.000,37.000,28.000
1.930,-59.500,-166.000,37.000,26.000
1.931,-56.500,-167.000,37.000,24.500
1.932,-54.000,-168.000,37.500,24.000
1.933,-52.000,-168.500,38.000,23.000
1.934,-50.500,-169.000,38.000,23.000
1.935,-49.500,-169.000,38.000,23.000
1.936,-49.500,-168.500,38.000,23.500
1.937,-50.500,-168.000,37.500,24.000
1.938,-51.500,-167.500,37.000,24.500
1.939,-53.500,-166.500,36.500,25.000
1.940,-55.500,-166.000,36.000,25.500
1.941,-57.500,-165.000,35.000,25.500
1.942,-58.500,-164.500,34.000,26.000
1.943,-59.500,-164.000,33.500,26.000
1.944,-59.500,-163.500,33.000,25.500
1.945,-58.000,-163.500,33.000,25.000
1.946,-56.000,-163.500,33.000,24.500
1.947,-53.000,-164.500,33.000,23.500
1.948,-49.500,-165.500,33.000,22.500
1.949,-46.000,-166.500,33.000,21.500
1.950,-42.500,-168.000,33.000,20.500
1.951,-40.000,-169.000,33.500,19.500
1.952,-38.000,-170.000,34.000,19.000
1.953,-36.500,-171.000,35.000,19.000
1.954,-36.500,-171.000,35.500,19.500
1.955,-37.000,-170.500,36.500,20.500
1.956,-38.000,-170.000,37.500,21.500
1.957,-39.000,-168.500,38.000,23.000
1.958,-40.500,-167.000,39.000,25.000
1.959,-42.000,-165.500,39.500,26.500
1.960,-43.500,-163.500,40.000,28.000
1.961,-44.500,-162.000,40.000,29.000
1.962,-45.500,-160.500,40.000,29.500
1.963,-45.500,-159.500,40.000,30.000
1.964,-45.500,-158.500,40.000,29.500
1.965,-45.000,-158.500,39.500,29.500
1.966,-43.500,-159.000,39.000,28.500
1.967,-42.000,-160.000,38.500,27.500
1.968,-39.500,-161.500,38.000,26.500
1.969,-36.000,-162.500,38.000,25.000
1.970,-32.000,-163.500,38.000,24.000
1.971,-28.000,-164.500,38.500,23.500
1.972,-24.500,-165.000,39.500,23.500
1.973,-21.500,-165.000,40.000,23.500
1.974,-19.500,-165.000,40.500,24.500
1.975,-18.500,-165.000,41.500,25.500
1.976,-18.500,-164.000,42.000,26.500
1.977,-19.500,-162.500,42.500,28.500
1.978,-21.000,-161.000,43.500,30.500
1.979,-23.500,-159.000,44.500,32.000
1.980,-26.000,-156.500,45.000,34.000
1.981,-28.000,-154.500,45.500,35.000
1.982,-30.000,-152.500,46.000,36.000
1.983,-31.000,-151.500,46.000,36.500
1.984,-31.500,-150.500,45.500,36.000
1.985,-31.000,-150.500,45.000,35.500
1.986,-30.000,-151.000,44.500,35.000
1.987,-28.000,-152.000,44.000,33.500
1.988,-25.000,-153.500,43.500,32.000
1.989,-21.500,-155.500,43.000,30.000
1.990,-18.000,-157.500,42.000,28.000
1.991,-14.500,-159.500,41.500,26.500
1.992,-12.000,-161.000,41.500,26.000
1.993,-10.500,-162.000,41.500,25.500
1.994,-10.500,-162.500,41.500,26.000
1.995,-11.500,-162.500,42.000,27.000
1.996,-14.000,-162.000,42.000,28.000
1.997,-17.000,-161.000,42.500,29.000
1.998,-20.000,-160.000,42.500,30.000
1.999,-23.500,-158.500,42.500,30.500
2.000,-27.000,-157.000,42.500,31.500
2.001,-29.500,-155.500,42.000,32.000
2.002,-32.000,-154.500,42.000,32.000
2.003,-33.500,-153.500,41.500,32.500
2.004,-34.500,-153.000,41.000,33.000
2.005,-33.500,-152.500,40.500,32.500
2.006,-32.000,-153.000,40.500,32.000
2.007,-29.000,-153.500,40.000,31.500
2.008,-25.500,-154.500,40.000,30.500
2.009,-22.500,-155.500,40.000,30.000
2.010,-19.000,-157.000,40.500,29.000
2.011,-16.000,-158.000,41.000,28.500
2.012,-13.500,-158.500,41.500,28.000
2.013,-11.000,-159.500,42.000,28.000
2.014,-9.500,-159.500,42.500,28.000
2.015,-9.000,-159.000,43.000,28.500
2.016,-9.500,-158.500,43.000,29.500
2.017,-11.000,-157.500,43.500,30.000
2.018,-13.000,-156.000,44.000,31.500
2.019,-15.000,-154.000,44.500,32.500
2.020,-16.500,-152.500,44.500,34.000
2.021,-18.000,-150.500,45.000,35.500
2.022,-19.500,-149.500,45.000,36.000
2.023,-20.500,-148.500,45.000,36.500
2.024,-21.000,-148.000,44.500,36.000
2.025,-21.500,-148.000,44.000,35.500
2.026,-21.500,-149.000,43.500,34.500
2.027,-21.000,-150.000,43.000,33.000
2.028,-20.000,-152.000,42.000,31.500
2.029,-18.500,-153.500,42.000,30.000
2.030,-16.500,-155.000,42.000,29.000
2.031,-14.500,-156.500,42.000,28.000
2.032,-12.500,-157.000,42.500,28.000
2.033,-10.000,-157.000,43.500,29.000
2.034,-8.500,-156.500,45.000,29.500
2.035,-7.500,-156.000,46.000,31.000
2.036,-7.500,-154.500,47.000,32.000
2.037,-8.500,-153.500,48.000,33.000
2.038,-10.500,-152.000,49.000,34.000
2.039,-13.500,-150.500,49.000,35.500
2.040,-16.000,-149.000,49.000,36.500
2.041,-18.500,-147.500,49.000,37.000
2.042,-20.000,-146.000,49.000,38.000
2.043,-20.000,-145.000,48.500,38.000
2.044,-19.500,-144.500,48.500,38.000
2.045,-18.000,-144.500,48.000,37.500
2.046,-16.000,-145.000,47.500,36.500
2.047,-13.500,-146.000,47.500,35.000
2.048,-10.500,-147.500,47.000,33.500
2.049,-7.500,-149.000,46.500,32.000
2.050,-4.500,-150.500,46.500,31.000
2.051,-2.000,-152.500,47.000,30.500
2.052,0.500,-153.500,47.000,30.500
2.053,2.500,-154.500,47.500,30.500
2.054,4.000,-154.500,48.000,31.500
2.055,4.500,-154.500,48.500,32.500
2.056,4.000,-154.000,49.000,33.500
2.057,3.000,-153.000,50.000,35.000
2.058,1.500,-151.500,50.500,36.500
2.059,-0.500,-150.000,51.000,38.500
2.060,-2.500,-148.500,51.500,40.000
2.061,-4.500,-147.000,52.000,41.500
2.062,-6.000,-145.500,52.000,42.500
2.063,-7.000,-144.000,52.000,43.000
2.064,-7.000,-143.500,51.500,43.500
2.065,-6.500,-143.000,51.000,43.000
2.066,-5.500,-143.500,50.500,42.000
2.067,-4.000,-144.500,50.000,40.500
2.068,-2.000,-146.000,49.500,38.500
2.069,0.500,-147.500,49.000,36.500
2.070,2.500,-149.000,48.500,35.000
2.071,4.000,-151.000,48.500,34.000
2.072,5.000,-152.000,48.500,33.500
2.073,5.000,-152.500,49.000,34.000
2.074,5.000,-152.500,49.500,34.500
2.075,3.500,-152.000,50.500,36.000
2.076,2.000,-151.000,51.000,37.000
2.077,-0.500,-149.500,52.000,38.500
2.078,-3.500,-148.000,52.500,40.000
2.079,-6.500,-146.000,53.000,41.500
2.080,-9.000,-144.000,53.500,43.000
2.081,-12.000,-142.500,53.500,44.000
2.082,-14.000,-141.000,53.000,44.500
2.083,-15.500,-140.000,53.000,44.500
2.084,-16.000,-139.500,52.500,44.500
2.085,-16.000,-139.500,52.000,43.500
2.086,-14.500,-140.500,51.500,42.500
2.087,-13.000,-141.500,51.000,41.000
2.088,-10.500,-143.000,50.500,39.500
2.089,-8.000,-145.000,50.000,37.500
2.090,-5.000,-146.500,49.500,36.000
2.091,-3.000,-148.000,49.000,35.000
2.092,-1.500,-149.500,49.000,34.000
2.093,-1.000,-150.000,49.000,33.500
2.094,-1.500,-150.500,49.000,33.500
2.095,-3.500,-150.500,49.500,34.000
2.096,-6.500,-149.500,49.500,35.000
2.097,-10.500,-148.500,50.000,36.000
2.098,-15.000,-147.000,50.000,37.500
2.099,-19.500,-145.000,50.000,38.500
2.100,-24.500,-143.000,50.500,39.500
2.101,-29.000,-141.500,50.000,40.500
2.102,-33.000,-140.000,50.000,41.000
2.103,-36.000,-139.500,49.000,41.000
2.104,-38.000,-139.000,48.500,40.500
2.105,-39.000,-139.500,48.000,40.000
2.106,-38.000,-140.500,47.000,38.500
2.107,-36.000,-141.500,46.500,37.000
2.108,-33.000,-143.500,46.000,35.500
2.109,-29.500,-146.000,45.000,33.500
2.110,-26.500,-148.500,44.000,31.500
2.111,-23.500,-151.000,43.000,30.000
2.112,-21.000,-153.500,42.000,28.500
2.113,-19.500,-155.500,41.500,27.500
2.114,-18.500,-157.500,40.500,26.500
2.115,-18.500,-159.000,39.500,26.500
2.116,-20.000,-159.500,39.000,26.500
2.117,-23.000,-159.500,38.500,27.500
2.118,-26.500,-159.000,38.500,28.500
2.119,-31.000,-157.500,38.500,29.500
2.120,-35.000,-156.500,38.500,31.000
2.121,-38.000,-155.000,38.500,32.000
2.122,-40.500,-153.500,39.000,33.000
2.123,-41.000,-152.000,39.000,34.000
2.124,-41.000,-151.500,39.000,34.500
2.125,-40.000,-151.000,39.000,34.500
2.126,-38.000,-151.000,39.500,34.500
2.127,-36.000,-151.500,39.500,34.000
2.128,-34.000,-152.000,39.500,33.000
2.129,-31.500,-153.500,39.500,31.500
2.130,-29.500,-154.500,39.500,30.000
2.131,-27.500,-156.000,40.000,29.000
2.132,-25.500,-157.000,40.500,28.500
2.133,-24.000,-158.000,41.000,28.500
2.134,-23.500,-158.000,42.000,29.500
2.135,-23.500,-157.500,43.000,30.500
2.136,-24.500,-156.500,44.500,32.500
2.137,-26.000,-154.500,45.500,34.500
2.138,-28.500,-152.000,46.500,37.000
2.139,-32.000,-149.500,47.500,39.000
2.140,-35.500,-147.000,48.500,41.000
2.141,-38.500,-145.000,48.500,42.500
2.142,-42.000,-143.000,48.500,43.500
2.143,-44.000,-141.500,48.500,43.500
2.144,-45.500,-140.500,48.000,43.500
2.145,-46.000,-140.000,47.500,42.500
2.146,-45.000,-140.000,46.500,41.000
2.147,-43.500,-141.000,45.500,39.000
2.148,-40.500,-143.000,44.500,36.500
2.149,-37.000,-145.500,42.500,34.000
2.150,-33.000,-148.000,41.000,31.000
2.151,-29.000,-151.000,39.500,28.500
2.152,-26.000,-153.500,38.000,26.500
2.153,-23.500,-155.500,37.000,25.500
2.154,-22.500,-156.000,36.500,25.000
2.155,-23.000,-156.000,36.500,25.000
2.156,-24.000,-154.500,37.000,26.000
2.157,-26.000,-153.000,37.500,27.500
2.158,-28.000,-151.000,38.500,29.500
2.159,-30.500,-148.500,39.000,31.000
2.160,-32.500,-146.500,39.500,33.000
2.161,-34.500,-144.000,39.500,34.500
2.162,-35.500,-142.000,40.000,36.000
2.163,-36.000,-140.500,40.000,36.500
2.164,-35.500,-139.500,40.000,37.000
2.165,-34.000,-138.500,39.500,37.000
2.166,-31.500,-138.500,39.500,36.500
2.167,-27.500,-139.000,39.000,36.000
2.168,-23.000,-139.500,39.000,35.000
2.169,-18.500,-140.500,39.000,33.500
2.170,-14.500,-141.500,39.000,32.500
2.171,-11.000,-142.500,39.500,31.500
2.172,-8.500,-143.500,40.000,30.500
2.173,-7.000,-143.500,40.500,30.500
2.174,-6.500,-143.500,41.000,30.500
2.175,-7.500,-143.000,41.500,31.500
2.176,-9.000,-142.000,42.000,32.500
2.177,-11.500,-141.000,42.000,34.000
2.178,-14.500,-139.500,42.500,35.500
2.179,-17.500,-138.000,42.500,36.500
2.180,-21.000,-136.500,42.000,38.000
2.181,-24.000,-135.000,42.000,39.000
2.182,-26.500,-134.000,41.500,39.500
2.183,-28.000,-133.000,41.000,39.500
2.184,-28.500,-133.000,40.500,39.000
2.185,-28.500,-133.000,40.000,38.500
2.186,-27.000,-133.500,39.000,37.000
2.187,-25.500,-134.000,38.500,36.000
2.188,-23.000,-135.000,38.500,34.500
2.189,-21.000,-135.500,38.500,33.000
2.190,-18.500,-136.500,38.500,31.500
2.191,-16.500,-137.000,38.500,30.500
2.192,-15.000,-137.500,39.000,30.000
2.193,-14.000,-137.500,39.500,30.000
2.194,-13.000,-137.500,40.000,30.000
2.195,-13.000,-137.000,40.500,30.500
2.196,-13.500,-136.000,41.000,31.500
2.197,-14.500,-134.500,41.500,32.500
2.198,-16.500,-133.000,42.000,34.000
2.199,-18.500,-131.500,42.000,35.000
2.200,-20.500,-130.000,42.000,36.000
2.201,-23.000,-128.500,42.000,36.500
2.202,-25.500,-127.500,42.000,37.000
2.203,-27.500,-126.500,41.500,37.000
2.204,-29.000,-126.500,41.000,36.500
2.205,-29.500,-126.500,40.500,35.500
2.206,-28.500,-127.000,40.000,34.000
2.207,-26.500,-128.000,39.500,32.500
2.208,-23.500,-129.500,39.500,31.000
2.209,-19.500,-131.000,39.500,30.000
2.210,-15.500,-132.500,39.000,28.500
2.211,-11.500,-134.000,39.500,28.000
2.212,-8.500,-135.500,39.500,27.500
2.213,-6.500,-136.000,40.000,27.500
2.214,-5.500,-136.000,40.500,28.000
2.215,-5.500,-135.000,41.000,28.500
2.216,-7.000,-134.000,42.000,30.000
2.217,-9.000,-132.000,43.000,31.500
2.218,-12.000,-130.500,43.500,33.000
2.219,-15.500,-128.500,44.500,35.000
2.220,-19.000,-126.500,44.500,36.500
2.221,-22.000,-124.500,45.000,37.500
2.222,-24.000,-123.000,45.000,38.500
2.223,-25.500,-121.500,45.500,38.500
2.224,-26.500,-120.500,45.500,38.500
2.225,-26.000,-119.500,46.000,38.000
2.226,-24.500,-119.500,46.000,37.000
2.227,-22.000,-120.000,46.500,36.000
2.228,-19.000,-120.500,46.500,35.000
2.229,-16.000,-121.500,47.000,34.000
2.230,-12.000,-122.500,47.500,33.500
2.231,-8.500,-123.500,48.000,33.000
2.232,-5.500,-124.500,48.500,33.000
2.233,-3.000,-125.000,49.000,33.500
2.234,-1.000,-125.500,50.000,34.000
2.235,0.000,-125.000,50.500,35.000
2.236,0.500,-124.000,51.500,36.000
2.237,-0.500,-123.000,52.500,37.500
2.238,-1.500,-121.000,53.000,38.500
2.239,-2.500,-119.000,54.000,40.000
2.240,-4.000,-117.000,54.000,41.000
2.241,-5.500,-115.500,54.500,41.500
2.242,-6.500,-114.000,54.000,42.000
2.243,-6.500,-113.500,54.000,42.000
2.244,-6.500,-113.000,53.500,42.000
2.245,-5.500,-113.000,53.000,41.000
2.246,-3.500,-113.500,53.000,40.500
2.247,-0.500,-114.000,53.000,39.500
2.248,3.000,-115.500,53.000,38.000
2.249,6.500,-117.000,53.000,36.500
2.250,9.500,-118.000,53.500,35.000
2.251,13.000,-119.000,54.000,34.000
2.252,15.500,-120.000,54.500,33.500
2.253,17.500,-120.500,55.000,33.500
2.254,19.500,-120.000,56.000,34.000
2.255,20.500,-119.500,57.000,35.000
2.256,20.500,-118.500,57.500,36.500
2.257,19.500,-117.000,58.500,38.000
2.258,18.000,-115.500,58.500,39.500
2.259,16.500,-114.000,59.000,41.000
2.260,14.500,-112.000,59.000,42.500
2.261,13.500,-111.000,58.500,44.000
2.262,12.500,-110.000,58.000,44.500
2.263,13.000,-109.000,57.500,44.500
2.264,14.000,-109.000,57.000,44.000
2.265,16.000,-109.000,56.500,43.500
2.266,18.500,-109.500,56.500,43.000
2.267,22.000,-110.500,56.000,42.000
2.268,25.500,-111.500,56.000,41.500
2.269,29.000,-113.000,55.500,40.500
2.270,32.500,-114.500,55.500,40.000
2.271,35.000,-116.000,55.500,39.500
2.272,37.500,-117.000,56.000,39.000
2.273,39.000,-118.000,57.000,39.500
2.274,39.000,-118.000,57.500,40.000
2.275,38.000,-118.000,58.500,41.000
2.276,35.500,-117.500,58.500,41.500
2.277,32.500,-117.000,59.000,42.500
2.278,29.000,-116.000,59.000,43.500
2.279,26.500,-114.500,59.000,45.000
2.280,24.000,-113.000,59.000,46.000
2.281,22.500,-111.500,59.000,47.500
2.282,21.500,-110.000,59.000,48.500
2.283,21.000,-109.000,59.500,49.000
2.284,21.000,-108.000,59.000,49.500
2.285,21.000,-108.000,59.000,49.000
2.286,21.500,-108.500,58.500,48.000
2.287,22.500,-109.500,58.000,46.500
2.288,24.000,-111.000,57.500,45.000
2.289,26.000,-113.000,56.500,43.500
2.290,29.000,-115.000,56.000,42.000
2.291,31.500,-117.000,56.000,40.500
2.292,34.000,-118.000,56.000,40.000
2.293,35.500,-119.000,56.500,40.000
2.294,35.500,-119.000,57.000,40.500
2.295,35.000,-118.500,58.000,41.000
2.296,33.500,-117.500,59.000,42.500
2.297,31.000,-116.500,59.500,43.500
2.298,28.500,-115.000,59.500,45.000
2.299,26.000,-114.000,59.500,46.500
2.300,23.500,-112.500,59.500,47.500
2.301,21.000,-111.500,59.500,48.500
2.302,19.500,-110.500,59.000,49.000
2.303,18.000,-110.000,58.500,49.000
2.304,17.000,-110.000,58.000,49.000
2.305,17.000,-110.000,57.000,48.000
2.306,17.500,-111.000,56.000,46.500
2.307,19.000,-112.000,55.000,45.000
2.308,21.000,-113.500,54.000,43.000
2.309,23.500,-115.000,53.500,41.500
2.310,26.000,-117.000,53.000,40.000
2.311,28.000,-118.000,52.500,38.500
2.312,29.500,-119.000,53.000,38.000
2.313,30.000,-120.000,53.500,38.000
2.314,30.000,-120.000,54.500,38.500
2.315,29.000,-119.500,55.000,39.500
2.316,27.500,-118.500,56.000,40.500
2.317,25.500,-117.500,57.000,42.000
2.318,23.500,-115.500,57.500,44.000
2.319,21.500,-114.000,58.000,45.500
2.320,20.000,-112.000,58.500,47.000
2.321,19.000,-110.000,58.500,48.500
2.322,18.500,-108.500,58.500,49.500
2.323,18.000,-107.500,58.000,50.500
2.324,19.000,-107.000,58.000,50.500
2.325,20.000,-106.500,57.500,50.500
2.326,22.000,-107.000,57.500,50.500
2.327,25.000,-107.500,57.500,50.000
2.328,28.000,-108.000,57.000,49.000
2.329,30.500,-109.500,57.000,48.000
2.330,33.500,-110.500,56.500,47.000
2.331,35.500,-112.000,56.500,46.000
2.332,37.000,-113.000,56.500,45.000
2.333,37.500,-113.500,56.500,44.500
2.334,37.500,-114.000,56.500,44.500
2.335,36.500,-114.000,56.500,44.500
2.336,34.500,-113.500,56.500,45.000
2.337,32.000,-112.500,56.500,45.000
2.338,28.500,-111.500,56.500,45.500
2.339,25.500,-110.500,56.000,46.500
2.340,22.000,-109.000,56.000,47.500
2.341,19.500,-108.000,55.500,48.000
2.342,17.500,-106.500,55.500,49.000
2.343,17.000,-106.000,55.000,49.000
2.344,17.500,-105.500,54.500,49.000
2.345,18.500,-105.500,53.500,48.000
2.346,20.000,-106.000,53.000,46.500
2.347,22.000,-107.500,51.500,45.000
2.348,25.000,-109.000,50.500,43.000
2.349,28.000,-110.500,49.500,41.500
2.350,31.000,-112.500,49.000,40.000
2.351,33.500,-114.500,48.500,39.500
2.352,36.000,-115.500,48.500,39.000
2.353,37.500,-116.000,49.000,39.000
2.354,39.000,-116.000,49.500,40.000
2.355,39.500,-115.500,50.500,41.000
2.356,39.500,-114.500,51.000,42.500
2.357,39.000,-113.000,52.000,44.000
2.358,38.500,-111.000,52.500,45.500
2.359,38.000,-109.000,53.000,47.000
2.360,37.500,-107.000,53.000,48.000
2.361,37.500,-105.500,53.000,49.000
2.362,38.000,-104.000,53.000,50.000
2.363,39.000,-103.500,52.000,50.000
2.364,40.500,-103.000,51.000,50.000
2.365,42.500,-103.500,49.500,49.000
2.366,45.000,-105.000,48.000,48.000
2.367,48.500,-106.500,47.000,46.500
2.368,52.500,-108.000,46.000,44.500
2.369,57.000,-110.000,45.500,43.500
2.370,61.500,-111.000,45.000,42.000
2.371,66.000,-112.500,45.500,41.500
2.372,69.500,-113.000,45.500,41.000
2.373,72.500,-113.500,46.000,41.500
2.374,74.500,-113.500,46.500,42.000
2.375,75.500,-113.000,47.000,43.000
2.376,76.000,-112.000,47.500,44.000
2.377,75.000,-111.000,48.000,46.000
2.378,74.000,-109.500,48.000,47.500
2.379,72.000,-108.000,48.500,49.500
2.380,70.000,-106.000,48.000,51.000
2.381,68.000,-104.500,48.000,52.500
2.382,66.500,-103.000,47.500,53.500
2.383,65.500,-101.500,47.000,53.500
2.384,66.000,-101.000,46.500,54.000
2.385,67.000,-101.000,46.500,53.500
2.386,69.000,-101.500,46.000,53.000
2.387,71.500,-102.500,45.500,52.000
2.388,74.000,-103.500,45.500,51.000
2.389,77.000,-105.000,45.500,50.000
2.390,79.000,-106.500,45.500,49.000
2.391,81.000,-107.500,46.000,48.000
2.392,82.000,-109.000,46.000,47.500
2.393,82.000,-110.000,46.000,47.000
2.394,81.000,-111.000,46.000,47.000
2.395,79.000,-111.500,46.000,47.500
2.396,75.500,-111.500,46.000,48.000
2.397,72.000,-111.000,45.500,49.500
2.398,68.000,-110.500,45.000,51.000
2.399,63.500,-109.500,45.000,52.500
2.400,60.000,-108.000,44.500,54.000
2.401,56.500,-107.000,44.000,55.000
2.402,53.500,-106.000,43.000,55.500
2.403,51.000,-105.500,42.500,55.500
2.404,50.000,-105.000,41.500,55.000
2.405,49.500,-105.500,40.500,54.000
2.406,50.000,-106.500,40.000,52.000
2.407,52.000,-108.000,39.000,50.000
2.408,54.500,-110.000,37.500,47.500
2.409,57.500,-112.000,36.500,45.000
2.410,60.500,-114.500,35.500,42.500
2.411,63.000,-116.500,34.500,40.500
2.412,65.500,-118.500,33.500,39.500
2.413,67.000,-120.000,33.500,39.000
2.414,68.000,-120.500,33.500,39.000
2.415,68.500,-120.500,33.500,40.000
2.416,68.000,-120.000,34.000,41.000
2.417,66.500,-119.000,34.500,42.500
2.418,64.000,-118.000,35.000,43.500
2.419,61.000,-116.500,35.000,45.000
2.420,58.000,-115.000,35.500,46.000
2.421,55.000,-113.500,35.500,46.500
2.422,52.500,-112.500,35.500,47.000
2.423,51.500,-111.500,35.500,47.000
2.424,51.000,-111.000,35.500,46.500
2.425,52.000,-110.500,35.500,45.500
2.426,53.500,-111.000,35.500,44.000
2.427,56.000,-111.500,35.500,43.000
2.428,59.500,-112.500,35.500,41.500
2.429,63.000,-114.000,35.500,40.500
2.430,66.500,-116.000,35.500,39.500
2.431,69.500,-118.000,35.500,38.500
2.432,72.500,-119.500,35.500,38.000
2.433,74.500,-121.000,35.500,37.500
2.434,76.000,-122.500,35.500,37.500
2.435,76.500,-122.500,35.500,38.000
2.436,76.000,-122.500,35.500,39.000
2.437,74.500,-122.000,36.000,40.500
2.438,72.000,-121.000,36.000,41.500
2.439,69.500,-119.500,36.000,43.000
2.440,66.500,-118.000,36.000,44.500
2.441,63.500,-116.500,36.000,45.500
2.442,61.000,-115.000,36.000,46.000
2.443,59.000,-114.000,35.500,46.000
2.444,58.000,-114.000,35.000,45.500
2.445,57.500,-114.000,34.000,44.500
2.446,58.500,-114.500,33.500,43.000
2.447,60.500,-115.000,32.500,41.500
2.448,63.000,-116.500,32.000,40.500
2.449,65.500,-117.500,32.000,39.500
2.450,68.500,-119.000,32.000,38.500
2.451,71.000,-120.000,32.000,38.000
2.452,72.500,-121.000,32.500,37.500
2.453,73.500,-121.500,33.500,38.000
2.454,73.500,-121.000,34.000,38.500
2.455,73.000,-120.500,35.000,39.000
2.456,71.500,-119.500,35.500,40.000
2.457,69.500,-118.500,36.500,41.000
2.458,67.000,-117.000,36.500,42.000
2.459,64.500,-115.500,37.000,43.000
2.460,62.000,-114.000,37.000,44.000
2.461,59.000,-112.500,36.500,44.500
2.462,56.500,-111.500,36.000,44.500
2.463,55.000,-111.000,35.000,44.500
2.464,54.000,-110.500,34.000,43.500
2.465,53.500,-111.000,33.000,42.500
2.466,54.500,-112.000,32.000,41.000
2.467,56.500,-113.000,31.000,39.500
2.468,59.000,-114.000,30.500,37.500
2.469,61.000,-115.500,30.000,36.500
2.470,63.500,-117.500,30.000,35.500
2.471,65.000,-119.000,30.000,35.000
2.472,66.500,-120.000,30.000,34.500
2.473,67.000,-121.000,29.500,34.000
2.474,67.000,-121.500,29.500,34.000
2.475,66.500,-122.000,29.000,34.500
2.476,65.000,-122.000,29.000,35.000
2.477,63.500,-121.500,29.000,36.000
2.478,61.000,-121.000,28.500,37.000
2.479,58.500,-120.000,28.500,38.000
2.480,55.500,-118.500,28.500,39.000
2.481,52.500,-117.500,28.000,39.500
2.482,50.000,-116.000,28.000,40.000
2.483,47.500,-114.500,27.500,40.500
2.484,46.500,-113.500,27.000,40.000
2.485,46.500,-113.500,27.000,39.000
2.486,47.500,-114.000,26.500,38.000
2.487,49.000,-115.000,26.000,36.500
2.488,51.500,-116.500,25.500,35.000
2.489,54.000,-118.000,25.000,33.500
2.490,56.500,-119.500,24.500,32.000
2.491,58.000,-121.000,24.500,31.000
2.492,59.000,-122.500,24.500,30.000
2.493,59.000,-123.000,24.500,30.000
2.494,58.000,-123.000,25.500,30.500
2.495,56.000,-122.500,26.000,31.500
2.496,53.500,-121.500,26.500,32.500
2.497,50.000,-120.000,27.500,34.000
2.498,46.000,-118.000,28.000,36.000
2.499,42.500,-116.000,28.500,37.500
2.500,38.500,-114.000,29.000,39.000
2.501,35.000,-112.000,29.000,40.000
2.502,32.500,-110.500,29.000,40.500
2.503,30.000,-109.000,28.500,40.500
2.504,28.500,-108.500,28.000,40.000
2.505,27.500,-108.000,27.500,39.500
2.506,27.000,-108.500,27.000,38.500
2.507,27.500,-109.500,26.500,37.500
2.508,28.500,-110.500,26.000,36.000
2.509,30.000,-112.000,26.000,35.000
2.510,31.500,-113.500,26.000,34.000
2.511,32.500,-115.000,26.500,33.000
2.512,33.500,-116.000,27.000,33.000
2.513,33.500,-116.500,27.500,33.000
2.514,33.500,-116.500,28.000,33.500
2.515,32.500,-116.000,29.000,34.500
2.516,31.500,-115.000,29.500,36.000
2.517,30.500,-113.500,30.000,37.000
2.518,29.000,-112.000,30.500,38.500
2.519,28.000,-110.500,30.500,39.500
2.520,26.500,-109.000,30.500,40.000
2.521,25.000,-108.000,30.500,41.000
2.522,24.000,-106.500,30.000,41.000
2.523,22.500,-105.500,29.500,41.000
2.524,21.500,-105.000,29.000,40.500
2.525,20.500,-105.000,28.000,39.500
2.526,20.500,-106.000,26.500,38.500
2.527,20.500,-107.500,25.500,37.000
2.528,21.500,-109.500,24.500,35.500
2.529,22.500,-111.500,24.000,33.500
2.530,24.000,-114.000,23.000,32.000
2.531,26.000,-116.000,22.500,31.000
2.532,27.500,-118.000,22.000,30.000
2.533,29.000,-119.500,22.000,29.500
2.534,29.500,-120.000,21.500,29.500
2.535,29.000,-120.500,21.500,30.000
2.536,27.500,-120.000,21.500,30.500
2.537,25.000,-119.500,21.000,31.500
2.538,21.500,-118.500,20.500,32.500
2.539,18.000,-117.500,20.000,33.000
2.540,15.000,-116.500,19.500,34.000
2.541,12.000,-115.500,19.000,34.500
2.542,10.000,-114.500,18.000,35.000
2.543,8.500,-114.000,17.000,35.500
2.544,8.000,-114.500,16.000,35.000
2.545,8.500,-115.000,15.000,35.000
2.546,10.500,-116.000,14.500,34.000
2.547,14.000,-117.500,13.500,33.000
2.548,18.000,-119.500,13.000,32.000
2.549,22.500,-121.500,12.500,30.500
2.550,27.000,-123.500,12.500,29.500
2.551,30.500,-125.500,12.500,28.500
2.552,33.500,-128.000,12.500,28.000
2.553,36.000,-130.000,13.000,28.500
2.554,37.000,-131.500,13.000,29.000
2.555,37.500,-133.000,13.500,30.500
2.556,37.000,-134.000,14.000,32.500
2.557,35.500,-134.000,14.500,34.500
2.558,34.000,-134.500,15.000,37.000
2.559,32.000,-134.000,15.500,39.500
2.560,30.500,-134.000,16.000,41.500
2.561,29.500,-134.000,16.000,43.500
2.562,28.000,-134.500,15.500,45.000
2.563,27.000,-134.500,15.000,46.000
2.564,26.000,-135.500,14.000,46.500
2.565,25.500,-136.000,13.500,46.500
2.566,25.500,-137.000,12.500,45.500
2.567,25.500,-137.500,12.000,44.000
2.568,27.000,-138.500,11.500,42.500
2.569,29.000,-139.500,11.500,40.500
2.570,31.500,-140.500,11.000,39.000
2.571,34.000,-141.500,11.000,37.000
2.572,36.500,-142.000,10.500,35.500
2.573,38.500,-141.500,10.500,34.500
2.574,38.500,-141.000,10.500,34.000
2.575,38.000,-139.000,11.000,33.500
2.576,36.000,-136.500,11.500,33.500
2.577,33.000,-133.500,12.500,34.500
2.578,29.500,-130.500,13.500,35.500
2.579,26.000,-127.000,14.500,36.500
2.580,22.500,-123.500,15.000,38.500
2.581,19.500,-120.500,15.500,40.000
2.582,16.500,-118.000,16.000,41.000
2.583,13.500,-116.000,16.000,41.000
2.584,12.000,-114.500,16.000,41.000
2.585,10.500,-113.000,16.000,40.000
2.586,9.500,-112.000,16.500,39.000
2.587,9.500,-111.500,16.500,37.500
2.588,10.000,-111.500,17.000,36.000
2.589,11.000,-112.000,17.500,34.500
2.590,12.000,-113.000,17.500,33.500
2.591,13.500,-114.500,17.500,32.000
2.592,14.000,-115.500,18.000,31.500
2.593,14.500,-116.500,18.000,31.500
2.594,14.000,-116.500,18.500,32.000
2.595,13.000,-116.000,19.000,33.000
2.596,12.000,-115.000,20.000,34.500
2.597,11.000,-113.500,21.000,36.500
2.598,9.500,-111.000,21.500,38.500
2.599,7.500,-108.500,22.500,40.500
2.600,5.500,-106.000,23.500,42.500
2.601,3.500,-103.500,24.000,44.000
2.602,2.000,-101.000,25.000,45.500
2.603,1.000,-99.000,25.500,46.500
2.604,1.000,-98.000,25.500,47.000
2.605,2.500,-97.000,25.500,46.500
2.606,4.000,-97.000,25.500,45.500
2.607,7.000,-97.500,25.500,44.500
2.608,10.000,-98.500,25.000,42.500
2.609,14.000,-100.500,24.500,41.000
2.610,17.500,-102.000,24.000,39.500
2.611,21.000,-103.500,24.000,37.500
2.612,23.500,-105.000,23.500,36.500
2.613,25.000,-106.000,23.000,35.500
2.614,25.000,-107.000,22.500,35.000
2.615,24.000,-107.000,22.500,35.500
2.616,22.000,-106.000,22.000,36.500
2.617,19.000,-105.000,22.500,37.500
2.618,16.000,-103.500,22.500,38.500
2.619,12.500,-101.500,22.500,40.000
2.620,9.000,-99.000,23.000,41.500
2.621,6.000,-97.500,23.000,42.500
2.622,4.000,-95.500,23.000,43.500
2.623,3.000,-94.500,23.000,43.500
2.624,3.000,-94.000,22.500,43.500
2.625,4.000,-94.500,22.500,43.000
2.626,6.000,-95.000,21.500,41.500
2.627,8.000,-96.500,21.000,40.000
2.628,10.500,-98.500,20.500,38.000
2.629,13.000,-100.000,19.500,36.500
2.630,15.000,-102.000,19.500,35.000
2.631,16.500,-103.500,19.500,33.500
2.632,17.500,-104.000,20.000,33.000
2.633,18.000,-104.500,20.500,33.000
2.634,17.500,-104.000,21.500,33.500
2.635,17.000,-103.500,22.500,34.000
2.636,16.000,-102.500,23.500,35.500
2.637,15.000,-101.000,24.000,37.000
2.638,14.000,-99.500,24.500,38.500
2.639,13.000,-97.500,25.500,40.500
2.640,12.000,-95.000,26.000,42.000
2.641,11.000,-93.500,26.000,44.000
2.642,10.000,-92.000,26.000,45.000
2.643,9.500,-91.000,26.000,46.000
2.644,9.000,-90.500,25.500,46.000
2.645,9.500,-91.000,25.500,45.500
2.646,10.500,-91.500,25.000,45.000
2.647,12.500,-92.500,24.500,43.500
2.648,15.500,-93.500,24.500,42.000
2.649,19.000,-94.500,24.500,40.000
2.650,22.500,-96.000,25.000,38.500
2.651,26.000,-97.000,25.500,37.500
2.652,29.000,-98.000,26.000,36.500
2.653,31.000,-98.500,26.500,36.500
2.654,32.500,-98.500,27.000,36.500
2.655,32.000,-98.500,27.500,37.000
2.656,31.000,-97.500,28.000,38.000
2.657,29.000,-96.000,28.500,39.500
2.658,26.000,-94.000,29.000,41.500
2.659,23.000,-91.500,29.500,43.000
2.660,20.500,-89.500,30.000,44.500
2.661,17.500,-87.000,30.500,46.000
2.662,16.000,-85.000,30.500,47.000
2.663,15.000,-83.500,30.500,48.000
2.664,15.000,-82.000,31.000,48.500
2.665,16.000,-81.500,31.000,48.500
2.666,18.000,-81.000,31.000,48.500
2.667,20.500,-81.500,31.000,48.000
2.668,23.500,-82.000,31.000,47.500
2.669,26.500,-82.500,31.500,46.500
2.670,29.000,-83.500,31.500,45.500
2.671,31.000,-84.000,31.500,45.000
2.672,32.500,-85.000,31.500,44.500
2.673,33.000,-85.500,32.000,44.500
2.674,33.500,-86.000,32.000,44.500
2.675,33.000,-85.500,32.000,45.000
2.676,32.000,-85.000,32.000,45.500
2.677,31.000,-84.000,32.000,46.500
2.678,29.500,-82.500,32.500,48.000
2.679,27.500,-81.000,32.500,49.500
2.680,26.000,-79.000,32.500,51.000
2.681,24.500,-77.500,32.500,52.000
2.682,23.500,-75.500,32.000,52.500
2.683,23.000,-74.500,32.000,53.000
2.684,23.500,-73.500,31.500,53.000
2.685,24.000,-73.500,31.000,52.500
2.686,26.000,-73.500,31.000,52.000
2.687,28.000,-74.500,30.500,51.000
2.688,30.000,-75.500,30.000,50.000
2.689,32.500,-77.000,30.000,49.000
2.690,35.000,-78.500,30.000,48.500
2.691,36.500,-80.000,30.000,48.000
2.692,37.500,-81.500,30.000,47.500
2.693,37.500,-82.000,30.500,47.500
2.694,37.000,-82.500,30.500,47.500
2.695,35.500,-82.000,31.000,48.000
2.696,33.500,-81.500,31.000,48.500
2.697,30.500,-80.500,31.000,49.500
2.698,26.500,-79.000,31.000,50.500
2.699,23.000,-78.000,31.000,51.500
2.700,19.000,-76.500,30.500,52.500
2.701,15.500,-75.500,30.000,53.000
2.702,13.000,-75.000,29.500,53.500
2.703,11.000,-74.500,29.000,53.500
2.704,10.500,-74.500,28.500,53.000
2.705,10.000,-75.000,28.000,52.000
2.706,11.000,-76.000,27.000,50.500
2.707,12.000,-77.500,26.500,48.500
2.708,13.000,-79.500,25.500,46.500
2.709,14.000,-81.500,24.000,44.000
2.710,15.500,-84.000,23.000,42.000
2.711,16.500,-86.000,22.500,40.000
2.712,17.000,-87.500,21.500,38.500
2.713,17.500,-88.500,21.500,37.500
2.714,17.000,-89.000,22.000,38.000
2.715,15.500,-88.500,22.500,38.500
2.716,13.500,-87.500,23.000,40.000
2.717,11.000,-86.000,23.500,41.500
2.718,8.000,-84.500,24.000,43.500
2.719,5.000,-82.500,24.500,45.500
2.720,2.000,-81.000,24.500,47.000
2.721,-1.000,-79.500,24.500,48.000
2.722,-4.000,-78.000,24.500,48.500
2.723,-6.000,-77.000,24.500,49.000
2.724,-7.500,-77.000,24.000,49.000
2.725,-8.500,-77.000,23.500,48.500
2.726,-8.500,-78.000,22.500,47.500
2.727,-8.000,-79.000,22.000,46.500
2.728,-7.000,-81.000,21.000,45.000
2.729,-5.500,-83.500,20.000,43.500
2.730,-4.500,-86.000,19.500,41.500
2.731,-3.500,-88.000,19.000,40.000
2.732,-2.500,-90.000,18.500,39.000
2.733,-1.500,-91.000,18.500,38.500
2.734,-1.500,-92.000,18.500,38.500
2.735,-1.500,-92.000,18.500,39.000
2.736,-2.500,-91.500,19.000,39.500
2.737,-3.500,-90.000,19.500,41.000
2.738,-5.000,-88.500,19.500,42.000
2.739,-7.000,-87.000,20.000,43.500
2.740,-8.500,-84.500,20.500,45.000
2.741,-10.000,-82.500,21.000,46.000
2.742,-11.000,-81.000,21.000,47.000
2.743,-11.000,-79.500,21.500,47.000
2.744,-10.500,-78.000,22.000,47.500
2.745,-8.500,-77.500,22.000,47.000
2.746,-6.500,-77.000,22.500,46.500
2.747,-3.500,-77.000,22.500,45.500
2.748,-0.500,-77.500,23.000,44.500
2.749,3.000,-78.500,23.500,43.500
2.750,6.000,-79.500,23.500,42.500
2.751,9.500,-80.500,24.000,41.500
2.752,12.000,-81.500,24.000,41.000
2.753,14.000,-82.000,24.500,41.000
2.754,15.500,-82.500,25.000,41.000
2.755,15.500,-82.000,26.000,42.000
2.756,15.000,-81.000,27.000,43.000
2.757,14.000,-80.000,28.000,44.500
2.758,12.000,-78.000,29.000,46.000
2.759,10.000,-76.000,29.500,48.000
2.760,8.000,-74.000,30.000,49.500
2.761,6.000,-72.500,30.500,50.500
2.762,4.500,-71.000,30.500,51.000
2.763,3.500,-69.500,30.500,51.500
2.764,2.500,-69.000,30.000,51.000
2.765,2.500,-69.000,29.500,50.500
2.766,3.500,-69.500,29.000,49.500
2.767,5.000,-70.000,29.000,48.500
2.768,7.000,-71.500,28.500,47.500
2.769,9.500,-72.500,28.500,46.500
2.770,11.500,-74.000,28.500,45.500
2.771,13.500,-75.000,29.000,45.000
2.772,15.000,-75.500,29.500,44.500
2.773,16.000,-76.000,30.000,44.500
2.774,16.000,-76.000,30.500,45.000
2.775,16.000,-75.500,31.500,46.000
2.776,15.000,-74.500,32.500,47.500
2.777,14.000,-73.000,33.500,49.000
2.778,12.000,-71.500,34.000,50.500
2.779,10.000,-69.500,34.000,52.000
2.780,8.000,-68.000,34.000,53.000
2.781,6.000,-66.500,33.500,54.000
2.782,4.500,-65.000,33.000,54.500
2.783,3.500,-64.500,32.500,54.000
2.784,3.000,-64.000,31.500,53.000
2.785,4.500,-64.000,30.500,51.500
2.786,6.500,-64.500,30.000,50.000
2.787,9.500,-66.000,29.500,48.500
2.788,13.500,-67.500,29.000,47.000
2.789,17.500,-69.000,28.500,46.000
2.790,21.500,-70.500,28.500,44.500
2.791,25.000,-72.000,28.500,44.000
2.792,27.000,-73.000,28.500,43.500
2.793,28.500,-74.000,29.000,43.500
2.794,29.000,-74.000,29.500,44.500
2.795,28.000,-73.500,30.500,45.500
2.796,26.500,-73.000,31.000,46.500
2.797,24.000,-71.500,31.500,48.500
2.798,21.000,-70.500,32.000,50.000
2.799,17.000,-68.500,32.000,51.500
2.800,13.500,-67.000,32.000,52.500
2.801,10.000,-65.500,31.500,53.500
2.802,6.500,-64.500,31.000,54.000
2.803,3.500,-63.500,30.500,54.000
2.804,1.500,-63.000,29.500,53.000
2.805,0.500,-63.500,28.500,52.000
2.806,0.000,-64.000,28.000,50.500
2.807,1.000,-65.000,27.000,49.000
2.808,3.000,-66.500,26.000,47.000
2.809,5.000,-68.000,25.500,44.500
2.810,7.000,-69.500,24.500,42.500
2.811,9.000,-71.000,24.000,41.000
2.812,10.000,-72.000,23.500,40.000
2.813,11.000,-73.000,23.500,39.500
2.814,11.000,-73.000,24.000,39.500
2.815,11.000,-73.000,24.000,40.500
2.816,10.500,-72.500,24.000,41.000
2.817,9.000,-71.500,24.000,42.000
2.818,7.000,-70.000,24.000,43.000
2.819,4.000,-68.500,23.500,44.000
2.820,1.000,-67.000,23.500,44.500
2.821,-2.500,-65.500,23.000,45.000
2.822,-5.000,-64.500,22.500,45.500
2.823,-7.000,-63.500,22.000,45.500
2.824,-8.000,-63.000,22.000,45.500
2.825,-8.000,-62.500,21.500,45.000
2.826,-7.000,-62.500,21.000,44.000
2.827,-5.000,-63.000,21.000,43.500
2.828,-3.000,-64.000,20.500,42.500
2.829,-1.000,-65.000,21.000,41.500
2.830,0.500,-66.000,21.000,40.500
2.831,1.500,-66.500,21.500,39.500
2.832,2.500,-67.000,22.000,39.000
2.833,3.000,-67.000,23.000,39.000
2.834,2.500,-67.000,24.000,39.500
2.835,2.000,-66.000,25.000,40.500
2.836,0.000,-65.000,25.500,41.500
2.837,-2.500,-63.500,26.000,43.000
2.838,-5.500,-62.000,26.500,44.000
2.839,-8.500,-60.500,26.500,45.000
2.840,-11.500,-58.500,26.500,46.000
2.841,-14.000,-57.000,26.500,46.500
2.842,-16.000,-56.000,26.000,47.000
2.843,-17.000,-55.000,25.500,47.000
2.844,-17.000,-54.500,25.000,46.500
2.845,-16.000,-54.500,24.500,45.000
2.846,-14.500,-55.000,23.500,43.500
2.847,-12.500,-56.500,23.000,42.000
2.848,-10.000,-58.000,22.000,40.000
2.849,-8.000,-60.000,21.000,38.500
2.850,-5.500,-61.500,20.500,37.000
2.851,-3.500,-63.000,20.500,35.500
2.852,-2.000,-63.500,20.500,35.000
2.853,-1.000,-63.500,21.000,35.000
2.854,-0.500,-63.500,22.000,35.000
2.855,0.000,-62.500,23.000,36.000
2.856,-0.500,-61.500,24.000,36.500
2.857,-1.000,-60.500,24.500,37.500
2.858,-2.000,-59.500,24.500,38.000
2.859,-3.500,-58.500,24.500,39.000
2.860,-5.000,-57.500,24.000,39.000
2.861,-6.000,-56.500,23.500,39.500
2.862,-7.000,-55.500,23.500,39.500
2.863,-7.500,-55.000,23.000,39.500
2.864,-7.500,-54.500,22.500,39.500
2.865,-6.500,-54.500,22.500,38.500
2.866,-4.500,-55.000,22.000,37.500
2.867,-2.500,-56.000,21.500,36.000
2.868,0.500,-57.500,21.000,34.000
2.869,3.500,-59.000,20.500,32.000
2.870,6.000,-61.000,20.000,30.500
2.871,9.000,-63.000,19.500,29.000
2.872,11.500,-65.000,19.000,27.500
2.873,14.000,-66.000,19.000,27.000
2.874,16.000,-67.000,19.000,26.500
2.875,16.500,-67.000,19.000,26.500
2.876,16.500,-67.000,19.000,27.000
2.877,14.500,-66.500,19.500,27.500
2.878,11.500,-66.000,19.500,29.000
2.879,8.000,-64.500,20.000,30.000
2.880,5.000,-63.000,20.500,31.500
2.881,2.000,-61.500,21.000,33.000
2.882,0.500,-60.000,21.500,34.000
2.883,0.500,-59.000,22.000,35.000
2.884,1.000,-58.000,22.000,35.000
2.885,3.000,-57.500,22.000,34.500
2.886,5.500,-57.500,22.000,33.500
2.887,8.500,-58.500,21.500,32.500
2.888,11.500,-59.500,21.500,30.500
2.889,15.000,-61.000,21.000,29.000
2.890,17.500,-62.500,21.000,27.500
2.891,20.000,-64.000,20.500,26.000
2.892,21.500,-65.500,20.500,25.500
2.893,22.500,-66.500,21.000,25.000
2.894,23.000,-67.000,21.500,25.500
2.895,22.500,-66.500,22.000,26.000
2.896,21.500,-66.000,22.500,27.500
2.897,20.000,-64.500,23.000,29.000
2.898,18.000,-63.000,23.500,30.500
2.899,15.000,-61.500,24.000,31.500
2.900,12.500,-59.500,24.500,33.000
2.901,10.000,-58.000,25.000,34.000
2.902,7.500,-56.500,25.000,35.000
2.903,6.000,-55.000,25.000,35.000
2.904,5.000,-54.000,25.000,35.000
2.905,5.500,-53.500,25.000,35.000
2.906,6.000,-53.500,24.500,34.500
2.907,7.000,-54.000,24.000,33.500
2.908,9.000,-55.000,24.000,32.500
2.909,10.500,-56.500,23.500,31.000
2.910,13.000,-58.000,23.500,30.000
2.911,14.500,-59.000,23.500,29.000
2.912,16.000,-60.500,23.500,28.500
2.913,16.500,-61.000,23.500,28.000
2.914,16.500,-61.500,24.000,28.000
2.915,16.000,-61.500,24.000,28.500
2.916,15.000,-60.500,24.000,29.500
2.917,13.000,-59.500,24.000,30.500
2.918,10.500,-58.500,24.500,31.500
2.919,8.000,-56.500,24.500,32.500
2.920,5.000,-55.000,24.500,33.500
2.921,2.000,-53.500,24.500,34.000
2.922,-0.500,-52.500,24.500,34.500
2.923,-2.000,-52.000,24.000,34.500
2.924,-3.000,-51.500,23.500,34.000
2.925,-3.000,-51.500,23.000,33.000
2.926,-2.000,-52.000,22.500,32.500
2.927,-0.500,-53.000,22.000,31.000
2.928,2.000,-54.000,21.500,30.000
2.929,5.000,-55.000,21.500,28.500
2.930,8.000,-56.000,21.500,27.500
2.931,10.500,-57.500,21.500,26.500
2.932,12.500,-58.500,21.500,25.500
2.933,14.000,-59.500,21.500,25.000
2.934,14.000,-60.500,21.500,24.500
2.935,14.000,-60.500,22.000,24.500
2.936,12.500,-60.500,22.000,25.000
2.937,11.000,-60.000,22.500,26.000
2.938,9.000,-58.500,22.500,27.000
2.939,7.000,-57.000,23.000,28.000
2.940,5.000,-55.000,23.000,28.000
2.941,3.500,-53.000,23.000,27.500
2.942,2.500,-51.000,23.000,26.000
2.943,2.000,-50.000,23.500,23.500
2.944,2.500,-49.000,23.500,20.000
2.945,4.000,-48.500,23.500,17.000
2.946,6.500,-48.500,23.500,13.500
2.947,9.500,-49.000,23.500,10.000
2.948,13.000,-50.000,23.500,6.500
2.949,16.500,-51.500,23.500,3.000
2.950,20.000,-52.500,23.500,0.000
2.951,22.500,-53.500,24.000,-2.000
2.952,24.500,-54.000,25.000,-4.000
2.953,26.000,-54.000,26.000,-4.500
2.954,26.500,-54.000,27.000,-5.000
2.955,25.500,-53.500,27.500,-5.000
2.956,24.000,-53.000,28.500,-4.500
2.957,21.000,-52.000,29.000,-4.000
2.958,18.000,-50.500,29.500,-3.500
2.959,14.500,-49.500,30.000,-3.000
2.960,12.000,-48.000,30.000,-3.000
2.961,9.500,-47.000,29.500,-3.000
2.962,8.500,-46.000,29.000,-3.500
2.963,8.000,-45.500,28.000,-5.000
2.964,8.500,-45.500,27.000,-6.000
2.965,10.000,-46.000,26.500,-7.500
2.966,12.000,-46.500,25.500,-9.000
2.967,14.500,-48.000,25.000,-10.500
2.968,17.000,-49.500,24.500,-12.500
2.969,19.500,-51.500,24.000,-14.500
2.970,22.000,-53.500,23.500,-16.500
2.971,24.000,-55.000,23.500,-18.000
2.972,26.000,-56.000,23.500,-19.500
2.973,27.000,-56.500,23.500,-20.000
2.974,27.500,-57.000,24.000,-20.000
2.975,28.000,-56.500,24.500,-19.500
2.976,27.500,-56.500,25.000,-18.500
2.977,26.500,-55.500,25.500,-17.500
2.978,24.500,-54.500,25.500,-16.000
2.979,22.500,-53.000,25.500,-15.000
2.980,20.500,-51.500,26.000,-14.000
2.981,18.500,-50.000,26.000,-13.000
2.982,17.000,-49.000,25.500,-13.000
2.983,16.000,-48.000,25.500,-13.000
2.984,15.500,-47.500,25.000,-13.500
2.985,16.000,-47.500,24.500,-14.000
2.986,17.000,-48.000,24.000,-15.500
2.987,18.500,-49.000,23.000,-16.500
2.988,21.000,-51.000,22.500,-18.500
2.989,23.500,-53.000,22.000,-20.000
2.990,26.000,-55.000,21.000,-22.000
2.991,28.000,-56.500,20.500,-23.000
2.992,29.500,-58.000,20.000,-24.000
2.993,31.000,-59.500,20.000,-24.500
2.994,32.000,-59.500,20.000,-24.000
2.995,33.000,-59.500,20.500,-23.500
2.996,33.000,-58.500,20.500,-22.500
2.997,32.000,-57.500,21.000,-21.000
2.998,30.500,-55.500,21.500,-19.500
2.999,28.000,-54.000,22.000,-18.000
3.000,25.500,-52.000,22.000,-17.000
3.001,23.000,-50.000,22.000,-16.000
3.002,20.000,-48.500,21.500,-15.500
3.003,18.000,-47.500,21.000,-15.500
3.004,16.500,-47.000,20.500,-16.000
3.005,15.500,-47.000,20.000,-17.000
3.006,16.000,-47.500,19.000,-18.500
3.007,17.000,-49.000,18.000,-20.000
3.008,18.500,-50.500,17.000,-22.000
3.009,21.000,-52.500,16.000,-24.000
3.010,23.000,-55.000,15.000,-25.500
3.011,25.500,-57.000,14.000,-27.000
3.012,27.000,-59.000,13.500,-28.500
3.013,28.000,-60.000,13.000,-29.000
3.014,28.500,-61.000,12.500,-29.500
3.015,28.000,-61.500,12.000,-29.000
3.016,27.000,-62.000,11.500,-28.500
3.017,26.000,-62.000,10.500,-27.500
3.018,24.000,-61.500,9.500,-27.000
3.019,22.000,-61.500,8.500,-26.500
3.020,20.000,-61.000,7.000,-26.000
3.021,18.000,-61.000,5.000,-26.500
3.022,16.500,-61.500,3.000,-27.000
3.023,15.000,-62.000,1.000,-28.000
3.024,14.500,-62.500,-0.500,-29.000
3.025,14.000,-63.000,-1.500,-30.000
3.026,14.500,-64.000,-2.000,-31.000
3.027,16.000,-64.500,-2.500,-31.500
3.028,17.500,-65.000,-2.500,-32.500
3.029,20.000,-65.500,-2.000,-33.000
3.030,22.500,-66.500,-1.500,-33.500
3.031,24.500,-67.000,-1.000,-33.500
3.032,26.000,-67.500,-0.500,-33.500
3.033,26.500,-67.000,0.500,-32.500
3.034,26.000,-66.500,2.000,-31.000
3.035,24.500,-65.500,3.000,-29.000
3.036,22.000,-64.000,4.500,-26.500
3.037,19.500,-62.000,5.000,-23.500
3.038,17.000,-60.500,5.500,-20.500
3.039,14.500,-58.500,6.000,-17.500
3.040,12.000,-57.000,6.000,-14.000
3.041,10.500,-55.500,6.000,-11.000
3.042,9.000,-53.500,6.000,-8.000
3.043,8.000,-52.500,6.000,-6.000
3.044,7.000,-51.000,6.000,-4.000
3.045,7.000,-50.000,6.000,-2.500
3.046,7.000,-49.000,6.500,-1.000
3.047,8.000,-49.000,6.500,-0.500
3.048,9.500,-49.500,7.000,0.500
3.049,10.500,-50.000,7.000,1.000
3.050,12.000,-51.000,7.000,1.500
3.051,13.500,-52.500,7.500,2.000
3.052,14.500,-53.000,7.500,3.000
3.053,15.000,-53.500,8.500,4.000
3.054,14.500,-53.500,9.000,5.000
3.055,14.000,-53.500,10.000,6.500
3.056,13.000,-53.000,10.000,7.500
3.057,11.500,-52.500,10.000,9.000
3.058,10.500,-52.000,10.000,10.500
3.059,9.500,-51.500,10.000,12.000
3.060,8.500,-50.500,9.500,14.000
3.061,8.500,-49.500,9.500,16.000
3.062,9.000,-48.500,9.500,17.000
3.063,10.000,-48.000,9.000,18.000
3.064,11.500,-47.000,9.000,18.500
3.065,13.500,-47.000,8.500,18.000
3.066,16.000,-47.500,8.000,17.500
3.067,19.000,-48.000,7.500,16.500
3.068,22.000,-49.000,7.000,15.500
3.069,25.000,-50.500,6.500,14.000
3.070,27.500,-52.500,6.000,13.000
3.071,30.000,-54.000,5.500,12.500
3.072,32.500,-55.000,5.500,12.500
3.073,34.000,-56.000,6.000,13.000
3.074,34.500,-56.000,7.000,14.000
3.075,34.500,-55.000,8.000,16.000
3.076,33.500,-54.000,8.500,17.500
3.077,31.500,-52.500,9.000,19.500
3.078,29.000,-51.000,9.500,21.000
3.079,26.000,-49.500,10.000,22.500
3.080,23.500,-47.500,10.500,24.500
3.081,21.000,-45.500,11.000,26.000
3.082,19.000,-44.500,11.000,27.500
3.083,18.500,-43.500,10.500,28.500
3.084,19.000,-43.000,9.500,29.000
3.085,20.000,-43.000,8.500,28.500
3.086,22.500,-44.000,7.500,28.000
3.087,25.000,-45.500,6.500,27.000
3.088,28.500,-47.000,5.500,26.000
3.089,31.500,-48.500,4.500,24.500
3.090,34.500,-50.000,4.000,24.000
3.091,37.500,-51.000,4.000,23.500
3.092,40.000,-52.000,4.500,23.500
3.093,42.000,-52.500,5.000,24.500
3.094,43.000,-52.500,5.500,25.500
3.095,43.000,-52.000,6.500,27.000
3.096,42.000,-51.000,7.500,28.500
3.097,41.000,-49.500,8.000,30.000
3.098,40.000,-48.000,9.000,32.000
3.099,38.000,-45.500,9.500,33.500
3.100,36.000,-43.500,10.000,35.500
3.101,34.000,-41.500,10.000,37.000
3.102,32.000,-40.000,10.000,38.000
3.103,30.500,-39.500,10.000,38.500
3.104,29.000,-39.000,9.500,38.500
3.105,29.000,-39.500,9.000,38.000
3.106,29.500,-40.500,8.000,37.000
3.107,31.500,-41.500,7.500,35.500
3.108,34.000,-43.500,6.500,33.500
3.109,36.500,-45.000,6.000,32.000
3.110,39.500,-47.000,5.500,30.500
3.111,42.000,-48.500,5.000,29.500
3.112,43.500,-49.500,5.000,28.500
3.113,44.000,-50.500,5.000,28.500
3.114,43.500,-50.500,5.000,28.500
3.115,42.500,-50.000,5.000,28.500
3.116,41.000,-49.500,5.000,29.500
3.117,39.000,-48.000,5.500,30.500
3.118,36.500,-46.500,5.500,32.000
3.119,34.500,-45.000,5.500,33.500
3.120,32.000,-43.000,6.000,35.000
3.121,30.000,-41.500,5.500,36.000
3.122,28.000,-40.000,5.500,37.000
3.123,27.000,-39.500,5.000,37.500
3.124,26.500,-39.500,4.500,37.000
3.125,26.000,-39.500,4.000,36.500
3.126,27.000,-40.500,3.000,35.000
3.127,28.000,-42.000,2.500,34.000
3.128,29.500,-43.500,2.000,33.000
3.129,31.500,-45.500,1.500,32.000
3.130,33.500,-47.000,1.500,31.000
3.131,36.000,-48.500,1.500,30.500
3.132,37.500,-50.000,1.500,30.000
3.133,39.500,-51.000,1.500,29.500
3.134,40.500,-51.500,2.000,29.500
3.135,41.000,-52.000,2.000,30.000
3.136,41.000,-52.000,2.000,30.500
3.137,40.500,-51.500,2.000,31.000
3.138,39.000,-51.000,2.000,32.000
3.139,37.500,-50.000,2.000,33.000
3.140,35.000,-48.500,2.000,33.500
3.141,33.500,-47.000,2.000,35.000
3.142,31.500,-45.500,2.000,36.000
3.143,31.000,-44.500,2.500,36.500
3.144,30.500,-43.500,2.500,37.000
3.145,31.000,-43.000,2.000,36.500
3.146,32.500,-43.500,1.500,36.000
3.147,34.000,-44.000,1.000,34.500
3.148,36.500,-45.500,0.500,33.000
3.149,39.000,-47.000,0.000,31.500
3.150,41.500,-49.000,-0.500,30.500
3.151,44.000,-50.000,-0.500,29.500
3.152,46.000,-51.000,0.000,29.000
3.153,47.000,-51.500,0.500,29.500
3.154,47.500,-51.500,1.000,30.000
3.155,47.000,-51.000,2.000,31.000
3.156,46.500,-50.000,3.000,32.500
3.157,45.000,-48.500,4.500,34.500
3.158,44.000,-46.500,5.500,36.500
3.159,42.500,-44.000,6.500,38.500
3.160,41.000,-42.000,7.500,40.500
3.161,39.000,-39.500,8.000,42.000
3.162,38.000,-37.500,8.500,43.500
3.163,36.500,-36.000,8.500,44.500
3.164,36.000,-35.000,8.500,45.000
3.165,36.000,-35.000,8.000,45.000
3.166,37.000,-35.000,7.000,44.000
3.167,39.000,-36.000,6.500,43.000
3.168,41.500,-37.000,6.000,41.500
3.169,44.000,-38.000,6.000,41.000
3.170,47.000,-39.000,6.000,40.500
3.171,49.500,-40.000,6.000,40.000
3.172,51.500,-40.500,6.500,40.500
3.173,52.500,-41.000,7.000,40.500
3.174,52.500,-41.000,7.500,41.000
3.175,51.500,-40.500,8.000,42.000
3.176,50.000,-40.000,8.500,43.000
3.177,48.000,-39.000,8.500,44.000
3.178,45.000,-37.500,8.500,45.000
3.179,42.000,-36.000,8.500,46.000
3.180,39.000,-34.500,8.000,46.500
3.181,36.000,-33.000,8.000,47.500
3.182,33.000,-32.000,7.500,48.000
3.183,31.000,-31.500,6.500,48.000
3.184,30.000,-31.500,5.500,47.500
3.185,29.500,-32.000,4.500,46.500
3.186,30.000,-33.000,4.000,45.500
3.187,31.000,-34.500,3.000,44.500
3.188,32.500,-36.500,2.000,43.000
3.189,34.500,-38.000,1.000,41.000
3.190,37.000,-40.000,0.000,39.500
3.191,39.000,-42.000,-0.500,38.500
3.192,41.000,-43.500,-0.500,37.500
3.193,42.000,-44.500,-0.500,37.500
3.194,42.000,-45.500,-0.500,37.500
3.195,41.500,-46.000,-0.500,38.000
3.196,40.500,-46.000,0.000,39.000
3.197,38.500,-45.500,0.000,40.000
3.198,36.000,-44.500,0.000,41.500
3.199,33.500,-43.500,0.000,43.000
3.200,31.000,-42.000,0.000,44.500
3.201,29.500,-41.000,0.000,46.000
3.202,29.000,-39.500,0.000,47.000
3.203,29.500,-39.000,0.000,48.500
3.204,31.500,-38.500,-0.500,50.000
3.205,33.500,-39.000,-0.500,51.000
3.206,36.500,-40.000,-1.000,51.500
3.207,39.500,-41.500,-1.500,51.500
3.208,43.000,-43.500,-1.500,51.500
3.209,46.000,-46.000,-1.500,51.500
3.210,49.000,-48.500,-1.500,52.000
3.211,52.000,-50.500,-1.000,53.000
3.212,54.500,-52.000,-0.500,54.000
3.213,56.000,-53.500,0.500,55.000
3.214,56.500,-53.500,1.500,56.500
3.215,56.000,-53.000,2.500,57.500
3.216,54.000,-51.000,4.000,59.000
3.217,51.000,-48.500,5.000,60.500
3.218,48.000,-45.500,6.500,62.000
3.219,44.500,-42.000,7.500,63.000
3.220,41.500,-38.000,9.000,64.000
3.221,39.500,-34.000,10.000,65.000
3.222,37.500,-29.500,11.000,65.000
3.223,36.500,-26.000,12.000,65.000
3.224,36.000,-22.500,12.500,64.500
3.225,36.000,-19.500,13.500,64.000
3.226,36.500,-18.000,14.000,63.000
3.227,38.000,-16.500,14.000,61.500
3.228,40.000,-16.000,14.500,60.000
3.229,42.500,-16.000,14.500,58.500
