'Elapsed time','AECG1','AECG2','AECG3','AECG4'
'seconds','uV','uV','uV','uV'
0.000,-2.000,35.000,-28.000,37.500
0.001,-2.500,34.500,-28.000,37.500
0.002,-2.500,34.500,-28.000,37.500
0.003,-2.500,34.000,-28.000,37.500
0.004,-2.500,33.500,-28.500,37.000
0.005,-2.000,33.000,-28.500,36.500
0.006,-2.500,32.500,-29.000,36.500
0.007,-3.000,32.500,-29.000,36.000
0.008,-3.000,32.000,-29.500,35.500
0.009,-2.500,32.000,-29.500,35.500
0.010,-1.500,32.000,-29.500,35.500
0.011,-0.500,32.000,-29.500,36.000
0.012,0.000,32.000,-29.500,36.000
0.013,0.000,32.000,-29.500,36.500
0.014,-0.500,32.500,-29.500,37.000
0.015,-0.500,32.500,-29.000,37.500
0.016,-0.500,33.000,-28.500,37.500
0.017,-0.500,33.500,-28.000,38.000
0.018,0.500,34.000,-27.500,38.500
0.019,2.500,34.000,-27.000,38.500
0.020,4.000,34.000,-27.000,39.000
0.021,5.500,34.000,-26.500,39.000
0.022,6.500,34.500,-26.000,39.000
0.023,6.500,34.500,-26.000,39.000
0.024,5.500,34.500,-26.000,39.000
0.025,4.000,34.000,-26.000,38.500
0.026,2.500,34.000,-26.500,38.000
0.027,1.500,34.000,-26.500,37.500
0.028,0.500,33.500,-27.000,37.500
0.029,0.000,34.000,-27.000,37.000
0.030,-1.500,34.000,-27.000,37.000
0.031,-3.000,34.000,-27.000,36.500
0.032,-4.000,34.000,-27.000,36.500
0.033,-4.500,34.000,-27.000,37.000
0.034,-4.500,34.500,-27.000,37.000
0.035,-4.000,34.500,-27.000,37.500
0.036,-4.500,34.500,-27.500,37.500
0.037,-5.000,34.500,-27.500,38.000
0.038,-6.000,34.500,-27.000,38.500
0.039,-7.000,34.000,-27.000,38.500
0.040,-7.500,34.000,-27.000,38.500
0.041,-7.500,34.000,-26.500,38.500
0.042,-7.500,34.000,-26.500,38.500
0.043,-7.500,34.000,-26.500,38.500
0.044,-6.500,34.000,-26.500,38.500
0.045,-4.500,34.000,-26.500,38.500
0.046,-2.000,34.000,-26.000,38.000
0.047,0.500,33.500,-26.000,38.000
0.048,2.000,33.500,-26.500,37.500
0.049,2.500,33.500,-26.500,37.500
0.050,2.000,33.500,-27.000,37.000
0.051,1.500,33.500,-27.000,37.000
0.052,1.000,33.500,-27.500,37.000
0.053,0.500,33.500,-27.000,37.000
0.054,0.500,33.500,-27.000,37.000
0.055,1.000,33.500,-27.000,37.500
0.056,2.500,33.500,-26.500,38.000
0.057,3.500,33.000,-26.500,38.000
0.058,4.500,33.000,-26.500,38.500
0.059,5.500,33.000,-26.500,38.500
0.060,6.000,32.500,-26.500,38.500
0.061,6.500,32.500,-26.500,38.500
0.062,6.500,32.000,-27.000,38.500
0.063,6.000,32.000,-27.000,38.000
0.064,5.000,31.500,-27.000,38.000
0.065,4.000,31.000,-27.000,37.500
0.066,3.000,30.500,-27.000,37.500
0.067,2.500,30.500,-27.000,37.000
0.068,2.500,31.000,-27.000,37.000
0.069,2.500,31.000,-26.500,37.000
0.070,3.000,31.500,-26.500,37.000
0.071,4.000,32.000,-26.500,37.000
0.072,6.000,32.000,-26.500,37.000
0.073,7.000,32.000,-26.500,37.000
0.074,7.000,32.000,-26.000,37.500
0.075,5.500,32.500,-25.500,38.000
0.076,4.500,33.000,-25.000,39.000
0.077,4.000,33.500,-24.500,40.000
0.078,4.500,33.500,-24.000,41.000
0.079,6.500,33.500,-23.500,41.500
0.080,8.500,34.000,-23.000,42.000
0.081,10.500,34.000,-22.500,42.500
0.082,11.500,34.000,-22.500,42.500
0.083,11.500,34.000,-22.500,42.500
0.084,11.500,34.000,-22.500,42.500
0.085,11.000,34.000,-22.500,42.500
0.086,9.500,34.000,-23.000,42.000
0.087,8.000,33.500,-23.000,41.500
0.088,7.000,33.000,-23.500,41.000
0.089,6.500,32.500,-24.000,41.000
0.090,7.000,32.500,-24.500,40.500
0.091,9.500,32.500,-24.500,40.500
0.092,12.500,32.500,-24.500,40.500
0.093,15.000,33.000,-24.000,41.000
0.094,16.000,33.500,-24.000,41.500
0.095,15.000,33.500,-24.000,41.500
0.096,12.500,33.500,-24.000,42.000
0.097,10.500,33.500,-24.000,42.000
0.098,9.500,33.500,-24.000,42.500
0.099,9.500,33.000,-24.000,42.500
0.100,9.500,33.000,-23.500,42.000
0.101,9.000,33.000,-23.500,42.000
0.102,8.500,32.500,-24.000,42.000
0.103,8.500,32.500,-24.000,41.500
0.104,8.500,32.000,-24.500,41.000
0.105,8.500,32.000,-25.000,40.500
0.106,8.500,31.500,-25.500,40.000
0.107,8.500,31.500,-26.000,39.000
0.108,9.500,31.000,-26.500,38.500
0.109,10.000,31.000,-26.500,38.500
0.110,9.500,31.000,-26.500,38.500
0.111,8.000,31.000,-26.500,38.500
0.112,6.500,31.500,-26.500,39.000
0.113,5.000,31.500,-26.000,39.000
0.114,4.000,32.000,-26.000,39.500
0.115,3.500,32.500,-26.000,39.500
0.116,3.500,33.000,-25.500,39.500
0.117,3.500,33.000,-25.500,39.500
0.118,3.500,33.500,-25.500,39.000
0.119,3.500,33.500,-25.000,38.500
0.120,3.500,33.500,-25.000,38.500
0.121,2.000,33.500,-24.500,38.000
0.122,-0.500,33.000,-24.500,38.000
0.123,-4.000,33.000,-24.500,38.000
0.124,-6.500,32.500,-24.500,37.500
0.125,-8.500,32.500,-25.000,37.000
0.126,-9.500,32.000,-25.500,37.000
0.127,-10.000,32.000,-26.000,36.500
0.128,-10.000,32.000,-26.000,36.000
0.129,-10.000,32.000,-26.500,35.500
0.130,-9.000,32.000,-26.500,35.000
0.131,-7.000,32.000,-27.000,34.500
0.132,-4.000,32.000,-27.000,34.000
0.133,-1.500,32.000,-27.000,34.000
0.134,0.500,32.000,-26.500,34.000
0.135,0.500,32.000,-26.500,34.500
0.136,0.500,32.000,-26.500,34.500
0.137,0.000,32.000,-26.500,35.000
0.138,0.000,32.000,-26.500,35.000
0.139,0.000,32.000,-27.000,35.000
0.140,-0.500,32.000,-27.000,35.500
0.141,-1.000,32.000,-27.000,35.000
0.142,-2.000,31.500,-27.000,35.000
0.143,-2.500,31.500,-27.000,34.500
0.144,-2.500,31.000,-27.000,34.500
0.145,-2.000,30.500,-27.500,34.000
0.146,-1.000,30.000,-28.000,33.000
0.147,-1.000,29.000,-29.000,32.500
0.148,-1.000,28.500,-29.500,31.500
0.149,-1.500,28.000,-30.000,31.000
0.150,-1.000,28.000,-30.500,30.500
0.151,0.000,28.000,-31.000,30.500
0.152,2.000,28.000,-31.500,30.000
0.153,4.000,28.000,-31.500,30.500
0.154,6.000,28.500,-31.500,30.500
0.155,7.500,28.500,-31.000,31.000
0.156,9.000,28.500,-31.000,31.000
0.157,10.500,28.500,-31.000,31.000
0.158,12.000,28.000,-31.000,31.500
0.159,12.000,28.000,-31.000,31.500
0.160,9.500,27.500,-31.500,31.000
0.161,6.000,27.500,-31.500,31.000
0.162,1.500,27.000,-31.500,31.000
0.163,-2.000,27.000,-31.000,31.000
0.164,-4.000,27.000,-31.000,31.000
0.165,-4.000,27.000,-31.000,30.500
0.166,-3.500,27.000,-31.000,30.500
0.167,-3.500,26.500,-31.000,30.500
0.168,-3.500,26.500,-31.000,30.500
0.169,-4.000,26.500,-31.500,30.000
0.170,-5.000,26.500,-32.000,30.000
0.171,-5.500,26.000,-32.500,29.500
0.172,-6.500,26.000,-33.000,29.000
0.173,-6.500,25.500,-33.500,28.500
0.174,-6.500,25.000,-34.000,28.000
0.175,-6.000,24.500,-34.500,27.500
0.176,-5.500,24.000,-35.000,27.000
0.177,-5.000,23.000,-35.500,26.500
0.178,-4.500,22.000,-36.000,26.000
0.179,-4.500,21.500,-36.500,26.000
0.180,-3.500,21.000,-37.000,26.000
0.181,-3.000,21.000,-37.000,26.000
0.182,-2.500,21.500,-36.500,26.000
0.183,-3.000,22.000,-36.000,26.500
0.184,-4.000,23.000,-35.000,27.000
0.185,-4.000,24.000,-34.500,27.500
0.186,-4.000,25.000,-33.500,28.000
0.187,-4.000,25.500,-33.000,28.500
0.188,-4.000,26.000,-32.500,28.500
0.189,-4.500,26.500,-32.000,28.500
0.190,-5.000,26.500,-32.000,28.500
0.191,-4.500,27.000,-32.000,28.500
0.192,-2.000,27.000,-32.000,28.500
0.193,1.000,27.500,-32.000,29.000
0.194,3.500,27.500,-32.000,29.000
0.195,5.000,27.500,-32.000,29.000
0.196,6.000,27.500,-32.000,29.500
0.197,5.500,27.500,-32.000,29.500
0.198,4.000,27.000,-32.500,29.500
0.199,2.500,27.000,-32.500,29.500
0.200,1.000,26.000,-33.000,29.000
0.201,-0.500,25.500,-33.000,28.500
0.202,-1.500,25.000,-33.500,28.500
0.203,-3.000,24.500,-33.500,28.000
0.204,-4.000,24.000,-34.000,28.000
0.205,-4.500,23.500,-34.000,27.500
0.206,-4.000,23.500,-34.500,27.000
0.207,-3.500,23.000,-34.500,27.000
0.208,-3.500,23.000,-34.500,26.500
0.209,-4.000,23.000,-35.000,26.500
0.210,-4.500,23.000,-35.000,26.500
0.211,-5.000,22.500,-35.000,26.500
0.212,-4.500,22.500,-35.500,26.500
0.213,-4.000,22.500,-36.000,26.500
0.214,-3.000,22.500,-36.000,26.500
0.215,-2.000,22.500,-36.000,27.000
0.216,-0.500,22.500,-36.000,27.500
0.217,0.500,23.000,-35.500,27.500
0.218,1.000,23.000,-35.500,28.000
0.219,1.000,23.500,-35.000,28.000
0.220,0.500,23.000,-34.500,27.500
0.221,0.500,23.000,-34.500,27.500
0.222,1.000,22.500,-34.500,27.000
0.223,1.000,22.000,-34.500,27.000
0.224,-0.500,22.000,-35.000,27.000
0.225,-2.500,21.500,-35.000,26.500
0.226,-3.500,21.000,-35.000,26.500
0.227,-4.000,21.000,-35.500,26.500
0.228,-4.000,21.000,-35.500,26.500
0.229,-3.000,21.000,-35.500,26.500
0.230,-2.000,21.000,-35.500,26.500
0.231,-1.000,21.000,-35.500,26.500
0.232,0.500,21.000,-35.500,26.000
0.233,1.500,21.000,-35.500,26.000
0.234,2.500,21.000,-35.500,26.000
0.235,3.500,21.000,-35.500,26.000
0.236,5.000,21.500,-35.500,26.500
0.237,6.500,21.500,-35.500,26.500
0.238,7.000,21.000,-35.500,27.000
0.239,6.500,21.000,-35.500,27.000
0.240,5.000,20.500,-35.500,27.000
0.241,3.000,20.500,-35.500,27.000
0.242,2.500,20.500,-35.500,27.000
0.243,3.500,20.000,-35.500,27.000
0.244,5.500,20.000,-35.500,26.500
0.245,6.500,19.500,-36.000,26.500
0.246,6.000,19.000,-36.500,26.500
0.247,4.000,18.500,-37.000,26.000
0.248,2.000,18.500,-37.500,26.000
0.249,0.000,18.500,-37.500,25.500
0.250,-1.500,18.000,-37.500,25.500
0.251,-2.500,18.000,-38.000,25.500
0.252,-3.000,18.000,-38.000,25.500
0.253,-2.000,18.000,-38.000,26.000
0.254,0.000,18.000,-37.500,26.500
0.255,2.500,18.500,-37.500,27.000
0.256,5.500,18.500,-37.500,28.000
0.257,8.000,18.500,-37.000,28.500
0.258,9.500,19.000,-37.000,28.500
0.259,10.000,19.000,-36.500,29.000
0.260,9.000,19.000,-36.500,29.000
0.261,8.000,19.000,-36.000,29.000
0.262,7.000,19.000,-36.000,29.000
0.263,7.000,18.500,-36.000,28.500
0.264,7.500,18.500,-36.000,28.500
0.265,8.500,18.500,-36.000,28.000
0.266,9.000,18.000,-36.000,28.000
0.267,8.500,17.500,-36.500,27.500
0.268,7.000,17.500,-36.500,27.000
0.269,5.500,17.500,-37.000,27.000
0.270,4.000,17.500,-37.000,27.000
0.271,3.500,18.000,-37.000,27.000
0.272,2.500,18.000,-37.000,27.000
0.273,2.500,18.000,-37.000,27.500
0.274,3.500,18.000,-37.000,28.000
0.275,5.500,18.000,-37.000,28.500
0.276,8.000,18.000,-37.000,29.000
0.277,10.000,18.000,-37.000,29.500
0.278,12.000,18.000,-36.500,29.500
0.279,12.500,18.000,-36.500,29.000
0.280,12.500,18.000,-36.500,29.000
0.281,11.500,18.000,-36.500,28.500
0.282,11.000,17.500,-36.500,28.500
0.283,10.500,17.000,-36.500,28.000
0.284,11.500,16.500,-37.000,28.000
0.285,13.000,16.000,-37.000,27.500
0.286,15.000,15.500,-37.000,27.000
0.287,16.000,15.000,-37.000,27.000
0.288,15.500,15.000,-37.000,27.000
0.289,14.000,15.000,-37.000,26.500
0.290,13.000,15.000,-37.000,26.500
0.291,11.500,15.000,-37.000,26.500
0.292,10.500,15.000,-37.000,26.500
0.293,9.000,15.000,-37.500,26.500
0.294,7.500,15.000,-37.500,26.500
0.295,6.000,15.500,-37.500,27.000
0.296,5.000,15.500,-37.000,27.000
0.297,5.500,15.500,-37.000,27.000
0.298,6.500,15.000,-36.500,27.500
0.299,9.000,15.000,-36.000,27.500
0.300,11.500,14.500,-36.000,27.500
0.301,14.000,14.500,-36.000,27.500
0.302,16.000,14.000,-36.000,27.000
0.303,17.500,14.000,-36.500,27.000
0.304,18.000,13.500,-36.500,26.500
0.305,17.000,13.000,-37.000,26.000
0.306,14.500,12.500,-37.500,25.500
0.307,11.000,12.000,-38.000,25.000
0.308,9.000,11.500,-38.500,24.500
0.309,7.500,11.500,-38.500,24.500
0.310,6.500,11.000,-39.000,24.000
0.311,6.000,11.000,-39.000,24.000
0.312,6.000,11.000,-39.500,24.000
0.313,6.000,11.000,-39.500,24.500
0.314,7.000,11.000,-39.000,25.000
0.315,8.500,11.500,-38.500,25.500
0.316,10.000,12.000,-38.000,26.000
0.317,11.500,12.500,-37.000,27.000
0.318,12.500,13.000,-37.000,27.500
0.319,13.000,13.000,-36.500,27.500
0.320,12.500,13.000,-36.500,28.000
0.321,11.000,13.000,-36.500,28.000
0.322,9.000,12.500,-36.500,27.500
0.323,7.000,12.000,-36.500,27.500
0.324,4.500,11.500,-36.500,27.000
0.325,1.500,11.000,-37.000,26.500
0.326,-0.500,11.000,-37.500,26.000
0.327,-1.000,10.500,-37.500,25.000
0.328,-1.000,10.500,-38.000,24.500
0.329,-1.000,10.000,-38.000,24.500
0.330,-1.000,10.500,-38.000,24.000
0.331,-0.500,10.500,-38.000,24.000
0.332,0.000,10.500,-38.000,24.500
0.333,0.000,10.000,-38.000,24.500
0.334,-0.500,10.000,-38.000,25.000
0.335,-0.500,10.000,-38.500,25.000
0.336,-0.500,10.500,-38.500,25.500
0.337,-0.500,10.500,-38.500,26.000
0.338,0.500,10.500,-38.500,26.000
0.339,0.500,10.500,-38.500,25.500
0.340,0.500,10.500,-38.000,25.500
0.341,0.000,10.000,-38.000,25.500
0.342,0.000,9.500,-38.000,25.500
0.343,1.000,9.500,-37.500,25.500
0.344,2.000,9.000,-37.500,25.500
0.345,3.500,8.500,-37.500,25.000
0.346,4.000,8.500,-37.500,25.000
0.347,3.500,8.500,-37.500,24.500
0.348,3.000,8.500,-37.500,24.000
0.349,1.500,8.500,-37.500,24.000
0.350,0.500,9.000,-37.500,24.500
0.351,0.000,9.500,-37.000,24.500
0.352,-0.500,10.000,-36.500,24.500
0.353,-0.500,10.500,-36.000,25.000
0.354,-0.500,11.000,-36.000,25.000
0.355,-0.500,11.000,-35.500,25.500
0.356,0.000,11.500,-35.000,25.500
0.357,1.000,12.000,-35.000,26.000
0.358,2.500,12.000,-34.500,26.500
0.359,3.500,12.500,-34.500,27.000
0.360,4.500,12.500,-34.500,27.000
0.361,5.000,12.000,-34.500,27.500
0.362,5.000,12.000,-34.500,27.500
0.363,4.500,11.500,-34.000,28.000
0.364,2.500,11.500,-34.000,28.000
0.365,0.000,11.500,-33.500,28.000
0.366,-2.000,11.000,-33.500,27.500
0.367,-2.500,11.000,-34.000,27.000
0.368,-1.500,10.500,-34.500,26.500
0.369,0.000,10.000,-35.000,26.000
0.370,2.500,9.500,-35.500,25.500
0.371,5.500,9.500,-35.500,25.500
0.372,9.000,9.500,-36.000,25.500
0.373,11.500,9.000,-36.000,25.500
0.374,13.000,9.000,-36.000,25.500
0.375,13.500,9.000,-36.000,25.500
0.376,13.000,9.000,-36.000,26.000
0.377,13.000,9.000,-35.500,26.000
0.378,13.000,9.000,-35.500,26.000
0.379,12.500,9.000,-35.500,26.000
0.380,10.500,9.000,-35.000,26.000
0.381,8.500,9.500,-35.000,25.500
0.382,7.500,9.500,-35.000,25.500
0.383,7.500,9.500,-35.000,25.500
0.384,8.500,9.000,-35.500,25.000
0.385,8.500,8.500,-35.500,24.500
0.386,8.500,8.000,-36.000,24.000
0.387,7.500,7.500,-36.500,23.500
0.388,6.500,7.500,-36.500,23.000
0.389,5.500,7.000,-36.500,22.500
0.390,4.000,7.000,-36.500,22.500
0.391,3.000,7.000,-36.500,22.500
0.392,3.000,7.500,-36.000,22.500
0.393,4.000,7.500,-36.000,23.000
0.394,5.000,7.500,-36.000,23.000
0.395,6.500,7.500,-36.000,23.500
0.396,7.000,8.000,-36.000,24.000
0.397,7.500,8.000,-36.000,24.000
0.398,7.500,8.000,-36.000,24.500
0.399,6.500,8.500,-36.000,24.500
0.400,5.500,8.500,-35.500,24.500
0.401,4.000,8.500,-35.500,24.500
0.402,2.500,8.000,-35.500,24.500
0.403,1.500,7.500,-35.500,24.000
0.404,2.000,7.000,-36.000,24.000
0.405,4.000,6.500,-36.500,23.500
0.406,6.000,6.000,-36.500,23.500
0.407,8.500,6.000,-37.000,23.000
0.408,10.500,5.500,-37.000,22.500
0.409,11.000,5.500,-37.500,22.500
0.410,10.500,5.500,-37.500,22.500
0.411,8.500,5.500,-37.500,22.500
0.412,5.500,6.000,-37.500,22.500
0.413,2.500,6.000,-38.000,23.000
0.414,1.000,5.500,-38.000,23.000
0.415,0.500,5.500,-38.000,23.000
0.416,1.500,5.500,-38.000,23.000
0.417,2.500,5.000,-38.000,23.000
0.418,3.500,5.000,-38.000,23.500
0.419,4.000,5.000,-38.000,23.500
0.420,4.500,5.000,-38.000,23.500
0.421,4.000,5.000,-38.000,24.000
0.422,3.000,5.000,-38.000,24.000
0.423,2.000,5.000,-38.000,24.000
0.424,0.500,4.500,-38.000,24.000
0.425,0.500,4.500,-38.500,23.500
0.426,1.500,3.500,-38.500,23.500
0.427,3.500,3.500,-39.000,23.500
0.428,6.000,3.000,-40.000,23.000
0.429,7.500,3.000,-40.500,23.000
0.430,8.500,2.500,-40.500,23.000
0.431,8.500,2.500,-40.500,23.000
0.432,8.500,2.500,-40.500,23.000
0.433,8.000,2.500,-40.500,23.500
0.434,7.500,2.500,-40.000,24.000
0.435,6.000,2.500,-39.500,24.500
0.436,4.500,2.500,-39.000,25.000
0.437,4.000,2.500,-39.000,25.500
0.438,4.000,2.500,-38.500,26.000
0.439,4.000,2.500,-38.500,26.000
0.440,4.000,2.500,-38.500,26.500
0.441,3.500,2.500,-38.500,26.500
0.442,2.000,2.500,-38.500,26.500
0.443,1.500,2.000,-38.500,26.500
0.444,1.000,2.000,-38.500,26.000
0.445,1.000,1.500,-38.500,25.500
0.446,0.000,1.500,-38.500,25.500
0.447,-0.500,1.500,-38.500,25.000
0.448,-1.000,1.500,-38.500,24.500
0.449,-2.000,1.500,-38.000,24.500
0.450,-4.500,2.000,-38.000,24.500
0.451,-7.500,2.000,-38.000,24.500
0.452,-10.500,2.000,-37.500,24.500
0.453,-11.500,2.000,-37.500,24.500
0.454,-10.500,2.000,-37.500,24.500
0.455,-7.500,2.000,-37.500,25.000
0.456,-4.000,2.000,-37.500,25.500
0.457,-0.500,2.000,-37.500,26.000
0.458,1.500,2.000,-37.500,26.000
0.459,2.000,2.000,-37.500,26.500
0.460,0.500,2.000,-37.000,26.500
0.461,-2.000,1.500,-37.000,27.000
0.462,-3.500,1.500,-37.000,27.000
0.463,-3.500,1.000,-37.000,26.500
0.464,-3.500,1.000,-37.000,26.000
0.465,-3.000,1.000,-37.000,26.000
0.466,-3.000,1.000,-37.500,25.500
0.467,-3.500,1.000,-37.500,25.000
0.468,-4.000,1.000,-38.000,24.500
0.469,-4.000,0.500,-38.000,24.500
0.470,-4.500,0.500,-38.000,24.500
0.471,-5.000,0.500,-38.500,24.500
0.472,-5.000,1.000,-38.500,24.500
0.473,-4.000,1.000,-38.500,24.500
0.474,-2.500,1.000,-38.500,25.000
0.475,-1.000,1.500,-38.500,25.000
0.476,-1.000,1.500,-38.500,25.500
0.477,-2.500,2.000,-38.000,26.000
0.478,-4.000,2.500,-37.500,26.500
0.479,-5.000,3.000,-37.000,26.500
0.480,-5.500,3.000,-37.000,27.000
0.481,-6.000,2.500,-36.500,27.000
0.482,-5.000,2.000,-37.000,27.000
0.483,-3.000,1.500,-37.000,26.500
0.484,0.500,1.000,-38.000,26.000
0.485,4.000,0.000,-38.500,25.000
0.486,5.500,-0.500,-39.000,24.500
0.487,4.500,-1.000,-39.500,24.000
0.488,2.500,-1.500,-39.500,23.500
0.489,-0.500,-1.500,-40.000,23.500
0.490,-2.000,-2.000,-40.000,23.500
0.491,-2.000,-2.000,-40.000,23.500
0.492,-2.000,-2.000,-40.000,23.500
0.493,-2.000,-2.000,-40.000,23.500
0.494,-3.000,-2.000,-40.500,23.500
0.495,-5.000,-2.000,-40.500,23.500
0.496,-6.500,-2.000,-40.500,24.000
0.497,-7.500,-2.000,-40.500,24.000
0.498,-8.000,-1.500,-40.500,24.500
0.499,-8.500,-1.500,-40.000,25.000
0.500,-8.000,-1.500,-40.000,25.000
0.501,-6.500,-1.500,-39.500,25.000
0.502,-4.500,-2.000,-39.500,25.000
0.503,-1.500,-2.500,-40.000,24.500
0.504,1.000,-3.000,-40.000,24.500
0.505,3.000,-3.500,-40.000,24.500
0.506,4.000,-4.000,-40.500,24.500
0.507,3.500,-4.500,-40.500,24.000
0.508,3.000,-4.500,-40.500,23.500
0.509,2.500,-5.000,-41.000,23.500
0.510,1.500,-5.000,-41.000,23.500
0.511,-0.500,-5.500,-41.000,23.000
0.512,-2.000,-5.000,-41.000,23.500
0.513,-3.500,-5.000,-41.000,23.500
0.514,-4.000,-5.000,-41.000,23.500
0.515,-3.000,-5.000,-41.000,23.500
0.516,-2.000,-5.000,-41.000,24.000
0.517,-1.000,-5.000,-41.000,24.000
0.518,-1.500,-5.000,-41.000,24.500
0.519,-2.000,-5.000,-41.000,24.500
0.520,-2.500,-5.000,-41.000,24.500
0.521,-3.000,-5.000,-41.000,25.000
0.522,-4.000,-5.000,-41.000,25.000
0.523,-4.500,-5.500,-41.000,25.000
0.524,-5.000,-5.500,-41.000,25.000
0.525,-4.500,-5.500,-41.000,24.500
0.526,-4.000,-6.000,-41.500,24.000
0.527,-3.500,-6.500,-41.500,23.500
0.528,-3.000,-7.000,-42.000,23.000
0.529,-2.500,-7.000,-42.500,22.500
0.530,-1.500,-7.500,-42.500,22.500
0.531,1.000,-7.500,-43.000,22.000
0.532,3.000,-7.000,-43.000,22.000
0.533,5.000,-7.000,-43.000,22.000
0.534,6.000,-7.000,-43.000,22.500
0.535,5.500,-7.000,-43.000,22.500
0.536,4.500,-7.000,-43.000,23.000
0.537,2.500,-7.000,-43.000,23.000
0.538,-0.500,-7.000,-42.500,23.000
0.539,-3.500,-7.000,-42.500,22.500
0.540,-5.500,-7.500,-42.500,22.000
0.541,-7.000,-8.000,-43.000,21.000
0.542,-8.000,-8.500,-43.500,20.000
0.543,-8.000,-9.500,-44.500,19.000
0.544,-7.500,-10.500,-45.500,17.500
0.545,-6.000,-12.000,-46.500,16.000
0.546,-4.500,-13.000,-48.000,15.000
0.547,-4.500,-14.000,-49.000,13.500
0.548,-6.000,-14.500,-50.000,13.000
0.549,-9.000,-15.000,-50.500,12.500
0.550,-11.500,-15.500,-50.500,12.500
0.551,-12.500,-15.500,-50.500,13.000
0.552,-11.500,-15.500,-50.000,14.000
0.553,-10.500,-15.500,-49.500,15.500
0.554,-9.000,-15.500,-48.500,16.500
0.555,-8.000,-15.500,-48.000,18.000
0.556,-6.000,-15.500,-47.000,19.500
0.557,-4.000,-15.500,-46.000,21.000
0.558,-3.000,-15.500,-45.000,23.000
0.559,-2.000,-15.500,-43.500,25.500
0.560,-2.000,-15.500,-42.500,28.000
0.561,-2.000,-15.500,-40.500,30.500
0.562,-2.000,-15.500,-39.000,32.500
0.563,-2.500,-15.500,-37.500,35.000
0.564,-2.000,-15.000,-36.000,37.000
0.565,-1.500,-15.000,-34.500,39.000
0.566,0.000,-15.000,-34.000,40.000
0.567,2.000,-15.500,-33.500,41.000
0.568,4.000,-15.500,-33.000,41.500
0.569,4.500,-15.500,-33.000,41.500
0.570,4.000,-15.500,-33.000,41.000
0.571,2.000,-15.000,-33.500,40.500
0.572,-0.500,-15.000,-34.000,39.500
0.573,-2.500,-14.500,-34.500,38.000
0.574,-3.000,-14.500,-35.500,36.000
0.575,-2.000,-13.500,-37.000,33.500
0.576,0.000,-12.500,-38.000,31.500
0.577,1.000,-11.000,-39.000,29.500
0.578,1.000,-9.500,-39.000,28.000
0.579,1.000,-7.500,-39.000,26.500
0.580,1.000,-6.000,-38.500,26.000
0.581,2.000,-4.500,-38.000,26.000
0.582,3.000,-3.500,-37.500,26.000
0.583,4.000,-3.000,-37.000,26.500
0.584,6.000,-2.500,-36.500,26.500
0.585,7.500,-2.500,-36.500,27.000
0.586,9.000,-2.000,-36.500,27.000
0.587,10.000,-2.000,-36.500,27.500
0.588,10.500,-2.000,-37.000,27.500
0.589,10.000,-2.000,-37.500,27.500
0.590,8.500,-2.500,-38.000,27.000
0.591,6.500,-3.000,-38.500,26.500
0.592,4.000,-3.500,-39.500,25.500
0.593,1.500,-4.000,-40.000,25.000
0.594,0.000,-4.500,-40.500,25.000
0.595,-1.000,-5.000,-40.500,24.500
0.596,-1.000,-5.500,-41.000,24.500
0.597,-1.000,-5.500,-41.000,24.500
0.598,-0.500,-6.000,-41.500,24.500
0.599,0.000,-6.500,-42.500,24.000
0.600,0.500,-7.000,-43.000,23.500
0.601,1.500,-7.500,-44.000,23.000
0.602,2.500,-8.500,-44.500,22.000
0.603,3.000,-9.500,-45.500,21.500
0.604,4.000,-10.000,-46.000,21.000
0.605,4.500,-10.500,-46.500,20.500
0.606,4.500,-11.000,-47.000,20.000
0.607,4.000,-11.500,-47.500,19.500
0.608,2.000,-11.500,-47.500,19.000
0.609,0.000,-11.500,-47.500,19.000
0.610,-0.500,-11.500,-48.000,18.500
0.611,0.500,-11.500,-48.000,18.500
0.612,2.500,-11.500,-48.500,18.000
0.613,4.000,-12.000,-48.500,18.000
0.614,4.000,-12.000,-49.000,18.000
0.615,2.500,-12.500,-49.000,18.000
0.616,-0.500,-12.500,-49.500,18.500
0.617,-3.500,-13.000,-49.500,18.500
0.618,-6.000,-13.500,-49.500,19.000
0.619,-7.000,-13.500,-50.000,19.000
0.620,-6.000,-14.000,-50.000,19.000
0.621,-4.000,-15.000,-50.500,18.500
0.622,-1.500,-16.000,-51.000,18.000
0.623,1.000,-16.500,-52.000,17.500
0.624,3.000,-17.500,-52.500,16.500
0.625,4.500,-18.000,-53.000,16.000
0.626,5.500,-18.000,-53.500,15.500
0.627,5.000,-18.000,-53.500,15.500
0.628,4.000,-17.000,-53.000,16.000
0.629,2.000,-16.000,-52.500,16.500
0.630,-0.500,-14.500,-51.500,17.000
0.631,-2.500,-13.500,-50.500,18.000
0.632,-4.000,-13.000,-50.000,18.500
0.633,-4.500,-12.500,-49.500,19.000
0.634,-4.000,-12.000,-49.500,19.500
0.635,-3.000,-12.000,-49.500,20.000
0.636,0.000,-12.000,-49.500,20.500
0.637,3.000,-12.000,-50.000,21.000
0.638,5.000,-12.000,-50.000,21.000
0.639,6.500,-12.000,-50.500,21.000
0.640,6.500,-12.500,-50.500,20.500
0.641,5.500,-13.000,-51.000,20.000
0.642,4.500,-14.000,-51.500,19.500
0.643,2.500,-14.500,-52.000,19.000
0.644,0.500,-15.000,-52.500,18.500
0.645,-1.500,-15.500,-53.000,18.000
0.646,-3.000,-16.000,-53.500,17.000
0.647,-4.000,-16.500,-54.000,16.500
0.648,-4.500,-16.500,-54.500,16.000
0.649,-3.500,-16.500,-55.000,15.500
0.650,-2.000,-16.500,-55.000,15.500
0.651,-1.000,-16.500,-55.000,15.500
0.652,-1.500,-16.000,-55.000,15.500
0.653,-2.500,-16.000,-54.500,16.000
0.654,-4.500,-15.500,-54.000,16.500
0.655,-6.500,-15.500,-54.000,17.000
0.656,-8.500,-15.000,-53.500,17.500
0.657,-10.000,-15.000,-53.000,18.000
0.658,-10.500,-15.000,-52.500,18.500
0.659,-9.000,-15.000,-52.500,18.500
0.660,-7.000,-15.000,-52.500,18.500
0.661,-5.000,-15.000,-52.500,18.500
0.662,-4.000,-15.500,-53.000,18.000
0.663,-4.000,-15.500,-53.000,18.000
0.664,-4.000,-16.000,-53.500,18.000
0.665,-4.000,-16.500,-54.000,17.500
0.666,-4.000,-17.000,-54.000,17.000
0.667,-4.000,-17.000,-54.500,16.500
0.668,-4.500,-17.000,-54.500,16.500
0.669,-5.500,-17.000,-54.500,16.000
0.670,-6.000,-17.000,-54.500,16.000
0.671,-6.500,-17.000,-55.000,15.500
0.672,-6.000,-17.000,-55.000,15.500
0.673,-5.000,-17.500,-55.500,15.000
0.674,-4.000,-17.500,-56.000,15.000
0.675,-3.000,-18.000,-56.000,15.000
0.676,-3.000,-18.000,-56.500,15.000
0.677,-3.500,-18.000,-56.500,15.000
0.678,-3.500,-18.500,-56.500,15.500
0.679,-2.500,-18.500,-56.500,15.500
0.680,-1.500,-18.500,-56.000,15.000
0.681,0.000,-19.000,-56.000,15.000
0.682,1.500,-19.500,-56.000,15.000
0.683,3.500,-20.000,-56.500,15.000
0.684,4.000,-20.000,-56.500,14.500
0.685,4.000,-20.500,-57.000,14.000
0.686,3.500,-20.500,-57.500,13.500
0.687,3.000,-21.000,-57.500,13.000
0.688,3.000,-21.000,-58.000,12.500
0.689,3.000,-21.500,-58.000,12.500
0.690,2.500,-21.500,-58.500,12.000
0.691,2.500,-21.500,-58.500,12.000
0.692,2.000,-21.500,-58.000,12.000
0.693,1.000,-21.000,-58.000,12.000
0.694,-0.500,-21.000,-58.000,12.500
0.695,-1.500,-20.500,-57.500,12.500
0.696,-2.500,-20.000,-57.500,13.000
0.697,-3.000,-20.000,-57.500,13.500
0.698,-3.500,-20.000,-57.500,14.000
0.699,-4.500,-20.000,-57.500,14.000
0.700,-6.000,-20.000,-57.000,14.500
0.701,-8.000,-20.000,-57.000,14.500
0.702,-9.500,-20.000,-56.500,14.500
0.703,-10.000,-20.000,-56.500,14.500
0.704,-10.000,-20.500,-56.500,14.000
0.705,-9.500,-21.000,-57.000,14.000
0.706,-10.000,-21.000,-57.000,13.500
0.707,-10.000,-21.500,-57.500,13.500
0.708,-10.500,-21.500,-57.500,13.500
0.709,-10.000,-21.500,-57.500,13.000
0.710,-9.000,-22.000,-58.000,13.000
0.711,-8.000,-22.000,-58.500,12.500
0.712,-7.000,-22.000,-59.000,12.500
0.713,-6.000,-22.000,-59.000,12.500
0.714,-4.500,-22.000,-59.000,13.000
0.715,-3.500,-22.500,-59.000,13.500
0.716,-3.000,-22.500,-58.500,13.500
0.717,-3.500,-22.500,-58.500,14.000
0.718,-4.000,-22.500,-58.500,14.500
0.719,-4.000,-22.000,-58.000,14.500
0.720,-4.500,-22.000,-58.000,15.000
0.721,-5.500,-22.000,-58.000,15.000
0.722,-6.500,-22.000,-58.000,15.000
0.723,-6.000,-22.500,-58.000,15.000
0.724,-4.500,-22.500,-58.000,15.000
0.725,-1.000,-22.500,-58.500,15.000
0.726,3.000,-23.000,-58.500,14.500
0.727,6.500,-23.000,-58.500,14.000
0.728,8.500,-23.000,-58.500,14.000
0.729,9.000,-22.500,-58.500,13.500
0.730,8.000,-22.000,-58.500,13.500
0.731,7.500,-22.000,-58.500,13.000
0.732,7.000,-21.500,-58.500,12.500
0.733,7.000,-21.000,-58.000,12.000
0.734,6.000,-21.000,-58.000,12.000
0.735,4.500,-20.500,-57.500,11.500
0.736,2.000,-20.500,-57.000,11.500
0.737,-0.500,-20.500,-57.000,11.500
0.738,-1.500,-20.500,-57.000,12.000
0.739,-1.000,-20.500,-57.000,12.000
0.740,1.000,-21.000,-57.000,12.000
0.741,2.500,-21.500,-57.500,12.500
0.742,3.500,-22.000,-58.000,12.500
0.743,2.500,-22.500,-58.500,12.500
0.744,0.500,-23.500,-59.000,12.500
0.745,-2.000,-24.000,-59.500,12.000
0.746,-4.000,-24.000,-59.500,12.000
0.747,-6.000,-24.500,-60.000,12.000
0.748,-6.500,-24.500,-60.000,12.000
0.749,-7.000,-24.500,-60.500,12.000
0.750,-6.500,-24.500,-61.000,12.500
0.751,-6.000,-24.500,-61.000,13.000
0.752,-4.500,-24.500,-61.500,13.000
0.753,-3.000,-24.500,-61.500,13.500
0.754,-1.000,-24.500,-61.500,14.000
0.755,0.500,-24.000,-61.500,14.500
0.756,2.000,-24.000,-61.000,15.000
0.757,3.000,-24.000,-61.000,15.500
0.758,3.500,-23.500,-60.500,15.500
0.759,4.000,-23.500,-60.000,15.000
0.760,4.000,-23.500,-60.000,15.000
0.761,4.000,-24.000,-60.000,14.500
0.762,4.500,-24.500,-60.000,14.500
0.763,5.000,-25.000,-60.500,14.500
0.764,4.500,-25.500,-61.000,14.500
0.765,3.500,-25.500,-61.500,14.500
0.766,2.000,-26.000,-61.500,15.000
0.767,-0.500,-26.000,-61.500,15.000
0.768,-2.500,-26.000,-61.500,15.000
0.769,-4.500,-26.000,-61.500,15.000
0.770,-6.000,-25.500,-61.000,15.500
0.771,-7.000,-25.500,-60.500,15.500
0.772,-8.000,-25.000,-60.000,15.500
0.773,-8.500,-24.500,-59.500,15.500
0.774,-7.000,-24.500,-59.500,16.000
0.775,-4.500,-24.500,-59.000,16.500
0.776,-1.000,-24.000,-59.000,17.000
0.777,2.500,-24.000,-59.000,17.500
0.778,4.500,-24.000,-59.000,17.500
0.779,6.000,-23.500,-59.000,18.000
0.780,7.000,-23.500,-59.000,18.000
0.781,8.000,-23.500,-59.000,18.500
0.782,8.500,-24.000,-59.000,18.500
0.783,8.000,-24.500,-59.000,18.500
0.784,6.500,-25.000,-59.000,18.500
0.785,5.000,-25.000,-59.000,18.500
0.786,3.000,-25.500,-59.000,18.000
0.787,2.500,-25.500,-59.500,17.500
0.788,2.500,-25.500,-59.500,17.500
0.789,2.500,-26.000,-60.000,17.000
0.790,2.000,-26.500,-60.500,17.000
0.791,2.000,-26.500,-61.000,17.000
0.792,2.500,-27.000,-61.000,17.000
0.793,3.500,-26.500,-61.000,17.500
0.794,4.000,-26.500,-60.500,17.500
0.795,4.000,-26.000,-60.000,18.000
0.796,4.000,-26.000,-59.500,18.500
0.797,4.000,-25.500,-59.000,19.000
0.798,5.000,-25.500,-59.000,19.000
0.799,6.000,-25.500,-58.500,19.500
0.800,6.500,-25.000,-58.500,20.000
0.801,6.500,-25.000,-58.500,20.000
0.802,6.500,-25.000,-58.000,20.000
0.803,7.000,-25.500,-58.000,19.500
0.804,7.500,-25.500,-58.000,19.500
0.805,9.000,-25.500,-58.500,19.500
0.806,10.500,-26.000,-58.500,19.000
0.807,11.500,-25.500,-58.500,19.000
0.808,12.000,-25.500,-59.000,18.500
0.809,11.500,-25.500,-59.000,18.500
0.810,10.000,-25.000,-58.500,18.500
0.811,8.000,-25.000,-58.500,18.500
0.812,6.000,-25.000,-58.000,19.000
0.813,5.000,-24.500,-58.000,19.500
0.814,4.500,-24.500,-57.500,20.000
0.815,4.000,-24.500,-57.500,20.500
0.816,3.500,-24.000,-57.000,21.500
0.817,3.500,-24.000,-57.000,22.000
0.818,5.000,-24.000,-56.500,22.000
0.819,6.500,-24.000,-56.500,22.000
0.820,8.000,-24.000,-56.500,22.500
0.821,8.500,-24.000,-56.000,22.500
0.822,8.500,-24.000,-56.000,22.500
0.823,9.500,-24.000,-55.500,23.000
0.824,11.500,-24.500,-56.000,22.500
0.825,15.000,-25.000,-56.500,22.500
0.826,19.000,-25.000,-57.000,22.000
0.827,22.000,-25.500,-57.500,21.500
0.828,23.500,-26.000,-58.000,21.000
0.829,24.000,-26.500,-58.500,20.500
0.830,24.000,-27.000,-59.000,20.000
0.831,24.500,-27.000,-59.500,20.000
0.832,24.500,-27.000,-59.500,19.500
0.833,23.500,-27.000,-59.500,19.500
0.834,22.500,-27.000,-59.500,19.500
0.835,21.000,-27.000,-59.500,19.500
0.836,19.500,-27.000,-59.500,19.500
0.837,18.500,-27.000,-59.500,20.000
0.838,17.500,-27.000,-59.000,20.500
0.839,16.000,-27.000,-59.000,20.500
0.840,14.500,-27.000,-59.000,20.500
0.841,13.000,-27.000,-59.000,20.500
0.842,12.000,-27.000,-59.500,20.000
0.843,11.500,-27.500,-59.500,19.500
0.844,10.000,-28.500,-60.000,18.500
0.845,8.000,-29.000,-60.500,18.000
0.846,5.500,-29.500,-61.000,17.000
0.847,3.500,-30.000,-61.500,16.500
0.848,1.000,-30.500,-62.000,16.000
0.849,-1.500,-30.500,-62.500,15.500
0.850,-3.500,-30.500,-63.000,15.000
0.851,-4.500,-30.500,-63.000,15.000
0.852,-3.000,-30.500,-63.000,14.500
0.853,-1.000,-30.500,-63.500,14.500
0.854,1.500,-30.500,-63.500,14.500
0.855,4.000,-30.000,-63.500,14.000
0.856,6.500,-30.000,-63.500,14.500
0.857,8.500,-30.000,-63.500,14.500
0.858,9.500,-30.000,-63.500,14.500
0.859,9.500,-29.500,-63.500,14.500
0.860,8.500,-29.500,-63.500,14.500
0.861,5.500,-29.500,-63.500,14.000
0.862,2.000,-29.500,-63.000,14.000
0.863,-0.500,-29.500,-63.000,14.000
0.864,-1.000,-29.500,-62.500,13.500
0.865,-1.000,-30.000,-62.500,12.500
0.866,-0.500,-30.000,-63.000,12.000
0.867,-0.500,-30.000,-63.000,11.000
0.868,-1.000,-30.000,-63.500,10.500
0.869,-1.000,-30.000,-64.000,10.000
0.870,-1.000,-30.000,-64.000,9.500
0.871,-0.500,-30.000,-64.500,9.500
0.872,-1.000,-30.000,-64.500,9.500
0.873,-3.000,-30.000,-64.500,9.500
0.874,-4.500,-30.000,-65.000,9.500
0.875,-5.000,-30.000,-65.000,10.000
0.876,-4.000,-30.000,-65.000,10.000
0.877,-1.500,-30.000,-64.500,10.500
0.878,2.500,-29.500,-64.500,10.500
0.879,6.500,-29.500,-64.000,10.500
0.880,9.000,-29.000,-64.000,10.500
0.881,10.500,-29.000,-64.000,10.500
0.882,10.000,-29.000,-64.000,10.500
0.883,8.000,-29.000,-64.000,10.000
0.884,5.500,-29.500,-64.000,10.000
0.885,3.000,-29.500,-64.500,9.500
0.886,1.000,-29.500,-64.500,9.000
0.887,0.500,-29.500,-64.500,8.500
0.888,2.000,-29.500,-65.000,8.000
0.889,4.500,-29.500,-65.500,7.000
0.890,6.500,-29.500,-66.000,6.500
0.891,7.500,-30.000,-66.000,6.500
0.892,8.000,-30.000,-66.500,6.000
0.893,8.000,-30.000,-66.500,6.000
0.894,8.000,-30.000,-67.000,6.000
0.895,8.000,-30.000,-67.000,6.000
0.896,8.500,-30.000,-67.500,6.000
0.897,9.500,-30.000,-67.500,6.000
0.898,11.000,-30.000,-67.500,6.000
0.899,12.500,-30.000,-67.500,6.000
0.900,13.000,-30.000,-67.500,6.000
0.901,13.000,-30.000,-67.500,5.500
0.902,12.000,-30.000,-67.500,5.500
0.903,10.500,-30.000,-67.500,5.000
0.904,9.000,-30.500,-67.500,5.000
0.905,8.500,-30.500,-68.000,5.000
0.906,9.500,-31.000,-68.000,4.500
0.907,11.500,-31.000,-68.500,4.500
0.908,13.000,-31.500,-68.500,4.000
0.909,13.500,-31.500,-69.000,4.000
0.910,12.500,-32.000,-69.500,4.000
0.911,11.000,-32.000,-69.500,4.000
0.912,9.500,-32.000,-69.500,4.000
0.913,8.500,-31.500,-69.500,4.000
0.914,7.500,-31.000,-69.500,4.500
0.915,6.500,-30.500,-69.000,5.000
0.916,6.500,-29.500,-68.500,5.500
0.917,7.000,-29.000,-67.500,6.000
0.918,7.000,-28.500,-67.000,6.500
0.919,6.000,-28.500,-66.500,6.500
0.920,3.500,-28.500,-66.500,7.000
0.921,1.000,-29.000,-66.500,6.500
0.922,-1.500,-29.500,-66.500,6.500
0.923,-3.500,-30.000,-67.000,6.000
0.924,-4.500,-30.500,-67.000,5.500
0.925,-3.500,-31.000,-67.500,5.000
0.926,-1.000,-31.500,-68.000,4.500
0.927,2.000,-31.500,-68.000,4.000
0.928,5.000,-32.000,-68.500,3.500
0.929,7.000,-32.000,-68.500,3.000
0.930,8.500,-32.000,-69.000,3.000
0.931,9.000,-32.000,-69.000,3.000
0.932,8.000,-32.000,-69.000,3.000
0.933,7.000,-32.000,-68.500,3.000
0.934,5.500,-31.500,-68.500,3.500
0.935,5.000,-31.500,-68.500,3.500
0.936,5.000,-31.500,-68.500,4.000
0.937,5.000,-31.500,-68.500,4.500
0.938,5.000,-31.000,-69.000,4.500
0.939,5.000,-31.500,-69.000,4.500
0.940,4.500,-31.500,-69.000,5.000
0.941,4.500,-31.500,-69.000,4.500
0.942,4.500,-31.500,-69.000,4.000
0.943,5.000,-32.000,-69.500,4.000
0.944,7.000,-32.000,-69.500,3.000
0.945,9.000,-32.500,-70.000,2.500
0.946,10.000,-32.500,-70.000,2.000
0.947,9.500,-32.500,-70.000,1.500
0.948,8.000,-32.500,-70.000,1.500
0.949,6.000,-32.500,-70.500,1.000
0.950,4.000,-32.500,-70.500,0.500
0.951,3.000,-33.000,-71.000,0.500
0.952,2.500,-33.000,-71.000,0.500
0.953,2.000,-33.000,-71.000,1.000
0.954,1.500,-32.500,-71.000,1.500
0.955,1.000,-32.500,-70.500,2.000
0.956,0.500,-32.000,-70.000,2.500
0.957,-0.500,-31.500,-69.500,2.500
0.958,-1.000,-31.000,-69.500,2.500
0.959,-2.000,-31.000,-69.000,3.000
0.960,-3.500,-30.500,-69.000,3.000
0.961,-5.000,-30.500,-69.000,3.000
0.962,-6.000,-31.000,-69.000,3.000
0.963,-5.500,-31.000,-69.000,2.500
0.964,-4.500,-31.000,-69.000,2.500
0.965,-3.000,-31.500,-69.000,2.000
0.966,-2.500,-31.500,-69.000,2.000
0.967,-2.000,-31.500,-69.000,2.000
0.968,-1.500,-31.500,-69.500,2.000
0.969,-1.000,-32.000,-69.500,1.500
0.970,0.000,-32.000,-70.000,1.500
0.971,1.500,-32.000,-70.000,1.500
0.972,3.500,-32.000,-70.500,1.500
0.973,5.500,-32.500,-70.500,1.500
0.974,7.500,-32.000,-70.500,1.500
0.975,8.000,-32.000,-70.500,2.000
0.976,7.000,-32.000,-70.000,2.000
0.977,5.500,-31.500,-70.000,2.500
0.978,3.500,-31.500,-69.500,2.500
0.979,2.500,-31.000,-69.500,2.500
0.980,2.000,-31.000,-69.000,2.500
0.981,2.500,-31.000,-69.000,3.000
0.982,2.500,-31.000,-69.000,3.000
0.983,2.000,-30.500,-69.000,2.500
0.984,0.500,-30.500,-69.500,2.500
0.985,-2.000,-30.500,-69.500,2.500
0.986,-4.000,-30.500,-69.500,2.000
0.987,-6.000,-31.000,-70.000,1.500
0.988,-7.500,-31.000,-70.000,1.500
0.989,-9.000,-31.000,-69.500,1.500
0.990,-9.500,-30.500,-69.500,2.000
0.991,-9.500,-30.000,-69.000,2.000
0.992,-9.000,-29.500,-69.000,2.000
0.993,-8.000,-29.500,-68.500,2.000
0.994,-7.000,-29.500,-69.000,2.000
0.995,-6.000,-29.500,-68.500,2.000
0.996,-6.000,-29.500,-68.500,2.500
0.997,-6.000,-29.000,-68.000,3.000
0.998,-6.000,-29.000,-68.000,3.500
0.999,-7.500,-28.500,-67.500,4.000
1.000,-10.000,-28.000,-67.500,4.000
1.001,-12.500,-28.000,-67.000,4.000
1.002,-14.000,-28.000,-67.000,4.000
1.003,-13.500,-28.500,-67.000,4.000
1.004,-12.000,-29.000,-67.500,3.500
1.005,-10.500,-29.000,-67.500,3.000
1.006,-9.500,-29.000,-67.500,2.500
1.007,-9.000,-29.500,-68.000,2.500
1.008,-8.500,-29.500,-68.000,2.000
1.009,-8.500,-29.500,-68.500,2.000
1.010,-8.500,-29.000,-68.500,2.000
1.011,-9.000,-29.000,-68.500,2.000
1.012,-9.000,-29.000,-68.000,2.500
1.013,-8.500,-28.500,-67.500,2.500
1.014,-7.500,-28.000,-67.500,3.000
1.015,-6.000,-28.000,-67.000,3.500
1.016,-5.000,-27.500,-67.000,3.500
1.017,-5.500,-27.500,-67.000,4.000
1.018,-7.500,-27.000,-67.000,4.000
1.019,-11.000,-27.000,-67.000,4.500
1.020,-14.000,-26.500,-66.500,4.500
1.021,-15.000,-26.500,-66.000,5.000
1.022,-14.500,-26.000,-66.000,5.500
1.023,-12.000,-26.500,-66.000,6.000
1.024,-9.000,-26.500,-66.500,5.500
1.025,-6.500,-27.000,-66.500,5.500
1.026,-5.000,-27.500,-67.000,5.000
1.027,-3.500,-28.000,-67.000,5.000
1.028,-2.500,-28.000,-67.500,4.500
1.029,-1.000,-28.000,-67.500,4.000
1.030,1.000,-28.000,-68.000,3.500
1.031,2.500,-28.000,-68.000,3.000
1.032,3.500,-28.000,-68.000,3.000
1.033,4.000,-28.000,-68.000,3.500
1.034,4.000,-27.500,-68.000,3.500
1.035,3.500,-27.500,-68.000,4.000
1.036,4.000,-27.000,-67.500,4.500
1.037,5.500,-27.000,-67.500,4.500
1.038,8.000,-26.500,-67.000,5.000
1.039,10.500,-26.500,-67.000,5.000
1.040,11.500,-26.500,-66.500,5.000
1.041,11.000,-26.000,-66.500,5.000
1.042,8.500,-26.000,-66.500,5.000
1.043,5.500,-26.000,-66.500,5.000
1.044,3.000,-26.000,-66.500,5.000
1.045,0.000,-26.000,-67.000,4.500
1.046,-2.000,-26.500,-67.500,4.500
1.047,-3.000,-26.500,-67.500,4.000
1.048,-2.500,-27.000,-68.000,3.500
1.049,-1.500,-27.000,-68.000,3.500
1.050,-0.500,-27.000,-68.000,3.500
1.051,0.000,-27.000,-68.000,3.500
1.052,-0.500,-26.500,-67.500,3.500
1.053,0.000,-26.500,-68.000,4.000
1.054,1.000,-26.500,-68.000,4.000
1.055,3.000,-26.000,-68.000,4.000
1.056,4.500,-26.000,-68.000,4.000
1.057,5.000,-26.000,-68.000,4.500
1.058,4.500,-26.000,-68.500,4.500
1.059,2.500,-26.500,-68.500,4.500
1.060,0.500,-27.000,-69.000,4.000
1.061,-1.000,-27.500,-69.000,4.000
1.062,-2.000,-28.000,-70.000,3.500
1.063,-2.500,-29.000,-70.500,3.500
1.064,-3.000,-29.500,-71.000,2.500
1.065,-2.500,-30.500,-71.500,2.000
1.066,-2.000,-31.500,-72.000,1.000
1.067,-1.500,-32.500,-73.000,0.000
1.068,-1.000,-33.500,-73.500,-1.000
1.069,-1.000,-34.000,-74.000,-1.500
1.070,-1.000,-34.500,-74.500,-2.000
1.071,-2.000,-34.000,-74.000,-2.000
1.072,-3.000,-33.500,-73.500,-1.500
1.073,-4.000,-32.500,-73.000,-0.500
1.074,-4.500,-31.000,-72.000,1.000
1.075,-4.500,-29.500,-70.500,2.000
1.076,-4.000,-27.500,-69.000,3.500
1.077,-3.000,-26.000,-68.000,4.500
1.078,-2.000,-25.000,-67.000,5.000
1.079,-2.000,-24.500,-66.000,5.500
1.080,-2.000,-24.000,-65.500,5.500
1.081,-3.000,-23.500,-65.000,6.000
1.082,-4.000,-23.000,-65.000,6.000
1.083,-5.000,-23.000,-65.000,5.500
1.084,-4.500,-23.500,-65.000,5.500
1.085,-4.000,-24.000,-65.500,5.000
1.086,-3.000,-25.000,-66.500,4.000
1.087,-3.000,-26.000,-67.000,3.500
1.088,-4.000,-26.500,-67.500,3.000
1.089,-6.500,-26.500,-68.000,2.500
1.090,-10.000,-27.000,-68.500,2.000
1.091,-13.500,-27.000,-68.500,1.500
1.092,-16.000,-27.000,-69.000,1.500
1.093,-18.000,-27.000,-69.000,2.000
1.094,-19.000,-27.000,-68.500,2.000
1.095,-19.000,-26.500,-68.500,2.500
1.096,-18.000,-26.000,-68.000,3.000
1.097,-17.000,-26.000,-67.500,3.500
1.098,-16.000,-25.500,-67.500,3.500
1.099,-15.000,-25.500,-67.000,4.000
1.100,-14.500,-25.500,-66.500,3.500
1.101,-14.000,-25.000,-66.500,3.500
1.102,-13.500,-25.500,-66.500,3.500
1.103,-12.500,-25.500,-66.500,3.000
1.104,-11.500,-26.000,-67.000,2.500
1.105,-10.000,-26.500,-68.000,2.000
1.106,-8.500,-27.000,-68.500,1.500
1.107,-7.000,-27.500,-69.000,1.000
1.108,-6.500,-27.500,-69.500,1.000
1.109,-6.500,-28.000,-69.500,0.500
1.110,-7.000,-28.000,-70.000,0.000
1.111,-8.000,-28.000,-70.000,0.000
1.112,-9.000,-28.000,-70.000,-0.500
1.113,-9.000,-28.000,-70.000,-0.500
1.114,-7.500,-28.000,-70.000,0.000
1.115,-5.500,-27.500,-70.000,0.000
1.116,-3.500,-27.500,-69.500,0.500
1.117,-2.000,-27.000,-69.500,0.500
1.118,-2.500,-26.500,-69.500,1.000
1.119,-3.000,-26.500,-69.000,1.000
1.120,-3.500,-26.000,-69.000,1.000
1.121,-3.000,-26.000,-69.000,1.000
1.122,-2.500,-26.000,-69.000,1.000
1.123,-2.500,-25.500,-68.500,0.500
1.124,-4.000,-25.500,-68.500,0.500
1.125,-5.500,-25.000,-68.000,0.500
1.126,-6.500,-25.000,-67.500,0.000
1.127,-5.500,-25.000,-67.500,0.000
1.128,-4.500,-25.500,-67.500,0.000
1.129,-3.500,-25.500,-67.500,-0.500
1.130,-3.500,-25.500,-68.000,-0.500
1.131,-3.500,-25.500,-68.000,-0.500
1.132,-4.000,-25.500,-67.500,-0.500
1.133,-5.000,-25.000,-67.500,0.000
1.134,-6.000,-24.500,-67.500,0.000
1.135,-7.000,-24.500,-67.500,0.500
1.136,-8.000,-24.000,-67.500,1.000
1.137,-8.000,-24.500,-67.500,1.000
1.138,-7.500,-24.500,-67.500,1.500
1.139,-6.000,-24.500,-68.000,2.000
1.140,-5.000,-24.500,-68.000,2.000
1.141,-4.000,-25.000,-68.000,2.000
1.142,-4.000,-25.000,-68.000,2.000
1.143,-4.000,-25.000,-68.000,2.000
1.144,-4.000,-25.000,-68.000,2.000
1.145,-4.500,-25.500,-68.000,1.500
1.146,-5.500,-25.500,-68.000,1.500
1.147,-6.000,-26.000,-68.500,1.000
1.148,-6.000,-26.000,-69.000,0.500
1.149,-3.500,-26.500,-69.500,-0.500
1.150,0.000,-26.500,-70.000,-0.500
1.151,2.500,-26.500,-70.500,-0.500
1.152,2.000,-26.500,-70.000,-0.500
1.153,-0.500,-26.000,-70.000,0.000
1.154,-4.000,-25.500,-69.500,0.500
1.155,-6.500,-25.000,-69.000,0.500
1.156,-7.000,-24.500,-68.500,1.000
1.157,-5.000,-24.500,-68.000,1.500
1.158,-1.000,-24.000,-67.500,2.000
1.159,3.000,-24.000,-67.000,2.000
1.160,5.500,-23.500,-67.000,2.000
1.161,6.000,-23.500,-66.500,2.500
1.162,6.000,-23.500,-66.500,2.500
1.163,5.000,-24.000,-67.000,2.500
1.164,4.000,-24.000,-67.000,2.000
1.165,3.500,-24.500,-67.500,2.000
1.166,3.000,-25.000,-67.500,1.500
1.167,2.000,-25.000,-67.500,1.500
1.168,0.000,-25.000,-67.000,1.500
1.169,-3.000,-25.000,-67.000,1.500
1.170,-6.000,-24.500,-67.000,1.500
1.171,-8.500,-24.500,-67.000,1.500
1.172,-10.000,-24.000,-67.000,1.500
1.173,-11.000,-23.500,-67.000,2.000
1.174,-10.000,-23.000,-66.500,2.000
1.175,-8.000,-22.500,-66.000,3.000
1.176,-5.500,-22.500,-66.000,3.500
1.177,-3.000,-22.500,-65.500,4.000
1.178,-0.500,-22.500,-65.500,4.000
1.179,2.000,-22.500,-65.500,4.500
1.180,2.500,-22.500,-65.500,4.500
1.181,2.000,-23.000,-65.500,5.000
1.182,0.500,-23.000,-65.500,5.500
1.183,-1.000,-23.000,-65.500,5.000
1.184,-2.500,-23.500,-65.500,5.000
1.185,-4.500,-23.500,-65.500,4.500
1.186,-5.500,-24.000,-66.000,4.000
1.187,-7.000,-24.000,-66.000,3.000
1.188,-7.500,-24.500,-66.500,2.500
1.189,-7.500,-24.500,-67.000,2.000
1.190,-7.500,-25.000,-67.000,2.000
1.191,-7.500,-25.000,-67.000,2.000
1.192,-7.500,-25.000,-67.000,2.000
1.193,-7.500,-24.500,-67.000,2.000
1.194,-7.000,-24.500,-67.000,2.500
1.195,-7.000,-24.000,-66.500,3.000
1.196,-7.000,-24.000,-66.500,3.500
1.197,-6.500,-24.000,-66.000,4.000
1.198,-6.000,-24.000,-65.500,4.000
1.199,-5.500,-23.500,-65.500,4.500
1.200,-6.000,-23.500,-65.500,4.500
1.201,-6.500,-23.500,-65.500,4.000
1.202,-7.000,-23.500,-66.000,4.000
1.203,-7.000,-23.500,-66.000,3.500
1.204,-7.000,-24.000,-66.500,3.000
1.205,-7.000,-24.000,-67.000,2.500
1.206,-6.500,-24.500,-67.000,2.000
1.207,-6.500,-24.500,-67.500,1.500
1.208,-7.000,-24.500,-68.000,1.500
1.209,-6.500,-24.500,-68.000,1.000
1.210,-5.000,-24.000,-68.000,0.500
1.211,-3.500,-23.500,-68.000,0.500
1.212,-2.000,-23.000,-68.000,0.500
1.213,-1.500,-22.500,-67.500,0.500
1.214,-1.500,-22.000,-67.000,1.000
1.215,-2.000,-21.500,-67.000,1.500
1.216,-2.000,-21.000,-67.000,1.500
1.217,-2.500,-20.500,-66.500,2.000
1.218,-3.500,-20.000,-66.000,2.500
1.219,-5.000,-20.000,-66.000,2.500
1.220,-7.000,-20.000,-65.500,2.500
1.221,-8.000,-20.500,-65.500,2.500
1.222,-9.000,-20.500,-65.500,2.500
1.223,-9.000,-21.000,-65.500,2.500
1.224,-8.500,-21.500,-66.000,2.000
1.225,-7.000,-22.000,-66.500,1.500
1.226,-5.500,-22.000,-67.000,1.000
1.227,-3.500,-22.000,-67.000,0.000
1.228,-1.500,-22.000,-67.000,-0.500
1.229,0.000,-22.500,-67.500,-1.000
1.230,0.000,-22.500,-67.500,-1.500
1.231,-1.000,-22.500,-68.000,-1.500
1.232,-1.500,-23.000,-68.500,-1.500
1.233,-1.500,-23.000,-69.000,-1.500
1.234,-0.500,-23.000,-69.000,-1.000
1.235,0.500,-23.000,-69.000,-0.500
1.236,1.000,-22.500,-68.500,0.000
1.237,1.000,-22.500,-68.000,0.500
1.238,0.000,-22.500,-67.500,1.000
1.239,-1.500,-22.000,-67.000,1.000
1.240,-3.500,-22.000,-67.000,1.000
1.241,-6.000,-22.000,-67.000,1.000
1.242,-8.500,-22.000,-67.000,1.000
1.243,-10.000,-22.500,-67.000,1.000
1.244,-10.000,-22.500,-67.000,0.500
1.245,-10.000,-22.500,-67.500,-0.500
1.246,-9.500,-23.000,-67.500,-1.000
1.247,-10.000,-23.000,-67.500,-1.500
1.248,-10.000,-23.000,-68.000,-2.000
1.249,-9.500,-23.000,-68.000,-2.000
1.250,-9.000,-23.000,-68.000,-2.500
1.251,-8.000,-22.500,-68.000,-2.500
1.252,-7.000,-22.000,-68.000,-2.500
1.253,-6.000,-22.000,-67.500,-2.500
1.254,-5.000,-21.500,-67.000,-2.500
1.255,-4.500,-21.000,-67.000,-2.500
1.256,-4.500,-21.000,-66.500,-2.000
1.257,-4.500,-20.500,-66.000,-2.000
1.258,-5.000,-20.500,-66.000,-2.000
1.259,-5.000,-20.500,-65.500,-1.500
1.260,-5.500,-20.500,-65.500,-2.000
1.261,-5.000,-20.500,-66.000,-2.000
1.262,-4.500,-21.000,-66.000,-2.500
1.263,-3.500,-21.000,-66.000,-2.500
1.264,-2.500,-21.500,-66.500,-3.000
1.265,-2.000,-21.500,-66.500,-3.000
1.266,-2.500,-21.500,-67.000,-3.500
1.267,-3.000,-22.000,-67.000,-4.000
1.268,-4.500,-22.000,-67.500,-4.500
1.269,-7.000,-22.000,-67.500,-5.000
1.270,-9.500,-22.000,-68.000,-5.500
1.271,-11.500,-22.500,-68.500,-6.000
1.272,-13.000,-23.000,-69.000,-7.000
1.273,-14.000,-23.500,-70.000,-8.000
1.274,-14.000,-24.000,-70.500,-8.500
1.275,-13.000,-25.000,-71.500,-9.500
1.276,-11.000,-25.500,-72.500,-10.000
1.277,-8.500,-26.000,-73.000,-10.500
1.278,-6.000,-26.500,-73.500,-11.000
1.279,-4.000,-27.000,-74.000,-11.000
1.280,-3.000,-27.500,-74.500,-11.000
1.281,-3.500,-28.000,-74.000,-10.500
1.282,-5.000,-28.500,-74.000,-10.000
1.283,-6.500,-29.000,-74.000,-9.500
1.284,-7.000,-30.000,-73.500,-9.000
1.285,-7.000,-30.500,-73.000,-8.500
1.286,-6.500,-31.000,-73.000,-8.000
1.287,-7.000,-31.000,-72.500,-7.000
1.288,-7.500,-31.000,-72.000,-6.500
1.289,-8.500,-31.000,-71.500,-5.000
1.290,-8.500,-31.000,-70.500,-3.500
1.291,-8.500,-30.500,-69.000,-1.500
1.292,-8.000,-30.000,-67.500,1.000
1.293,-8.000,-29.500,-66.000,3.500
1.294,-8.500,-29.000,-64.500,5.500
1.295,-9.000,-28.500,-63.000,8.000
1.296,-9.500,-28.000,-61.500,10.000
1.297,-9.000,-27.500,-59.500,12.500
1.298,-9.000,-27.000,-58.000,14.000
1.299,-9.000,-26.500,-57.000,15.500
1.300,-9.500,-26.000,-56.000,16.500
1.301,-9.500,-26.000,-55.500,17.000
1.302,-8.500,-26.500,-56.000,16.500
1.303,-8.000,-26.500,-57.000,15.500
1.304,-8.000,-27.000,-58.500,13.500
1.305,-8.500,-27.500,-60.000,11.500
1.306,-9.500,-27.500,-61.500,8.500
1.307,-10.000,-27.000,-63.000,6.000
1.308,-10.500,-26.000,-64.000,3.000
1.309,-11.000,-24.500,-64.500,0.500
1.310,-11.500,-22.500,-64.500,-1.500
1.311,-12.500,-21.000,-64.500,-2.500
1.312,-13.500,-19.000,-64.000,-3.000
1.313,-14.500,-18.000,-63.500,-3.000
1.314,-15.000,-16.500,-62.500,-2.000
1.315,-14.000,-15.500,-62.000,-1.000
1.316,-12.500,-15.000,-61.000,0.500
1.317,-11.500,-14.500,-61.000,1.000
1.318,-10.000,-14.500,-60.500,1.500
1.319,-8.500,-14.500,-60.500,2.000
1.320,-8.000,-15.000,-60.500,1.500
1.321,-8.500,-15.500,-60.500,1.500
1.322,-10.000,-16.000,-61.000,1.000
1.323,-12.000,-16.500,-61.500,0.000
1.324,-14.000,-17.500,-62.000,-1.000
1.325,-15.000,-18.000,-62.500,-2.000
1.326,-15.500,-19.000,-63.500,-3.000
1.327,-15.000,-20.000,-64.500,-4.000
1.328,-14.000,-20.500,-65.500,-4.500
1.329,-13.000,-21.500,-66.000,-5.500
1.330,-12.500,-21.500,-66.500,-6.000
1.331,-13.000,-22.000,-67.000,-6.500
1.332,-13.500,-22.000,-67.000,-6.500
1.333,-14.000,-22.000,-67.000,-6.500
1.334,-14.500,-21.500,-67.000,-6.000
1.335,-15.000,-21.000,-67.000,-6.000
1.336,-16.000,-21.000,-67.000,-5.500
1.337,-16.500,-21.000,-66.500,-5.000
1.338,-17.500,-21.000,-66.000,-4.500
1.339,-18.500,-21.000,-66.000,-4.500
1.340,-19.500,-21.000,-65.500,-4.500
1.341,-20.000,-21.500,-65.500,-4.500
1.342,-19.500,-21.500,-66.000,-5.000
1.343,-17.000,-22.000,-66.000,-5.500
1.344,-13.000,-22.500,-66.500,-6.000
1.345,-9.500,-23.000,-66.500,-6.500
1.346,-7.500,-23.000,-66.500,-7.000
1.347,-7.000,-23.000,-66.500,-7.500
1.348,-8.000,-22.500,-66.500,-7.500
1.349,-10.000,-22.500,-66.500,-7.500
1.350,-13.000,-22.000,-66.500,-7.500
1.351,-16.000,-22.000,-66.500,-7.500
1.352,-18.500,-22.000,-66.500,-7.500
1.353,-20.000,-21.500,-66.500,-7.000
1.354,-21.000,-21.500,-66.500,-7.000
1.355,-22.000,-21.500,-66.500,-6.500
1.356,-22.500,-22.000,-66.500,-6.500
1.357,-22.000,-22.000,-66.500,-6.000
1.358,-20.500,-22.000,-66.500,-6.000
1.359,-19.000,-22.500,-67.000,-6.000
1.360,-18.000,-22.500,-67.000,-6.500
1.361,-17.000,-23.000,-67.000,-6.500
1.362,-15.500,-23.000,-67.000,-6.500
1.363,-13.000,-23.500,-67.000,-6.500
1.364,-9.500,-23.500,-67.000,-7.000
1.365,-7.000,-24.000,-67.000,-7.000
1.366,-5.000,-24.000,-67.000,-7.500
1.367,-4.000,-24.000,-67.000,-7.500
1.368,-2.500,-24.000,-67.000,-8.000
1.369,-1.000,-24.000,-67.500,-8.000
1.370,1.000,-24.000,-68.000,-8.500
1.371,3.000,-24.000,-68.000,-8.500
1.372,5.000,-24.000,-68.000,-9.000
1.373,6.500,-24.000,-68.000,-8.500
1.374,7.500,-23.500,-68.500,-8.500
1.375,7.500,-23.500,-68.000,-8.500
1.376,5.500,-23.000,-68.000,-8.000
1.377,3.000,-23.000,-68.000,-8.000
1.378,-1.000,-22.500,-67.500,-7.500
1.379,-5.000,-22.000,-67.500,-7.500
1.380,-8.500,-22.000,-67.000,-7.000
1.381,-10.500,-22.000,-67.000,-7.000
1.382,-10.000,-22.000,-67.000,-7.000
1.383,-8.000,-22.500,-66.500,-7.000
1.384,-5.500,-22.500,-66.500,-7.500
1.385,-2.000,-23.000,-66.500,-8.000
1.386,1.000,-23.500,-66.500,-8.500
1.387,3.500,-23.500,-67.000,-9.000
1.388,4.000,-24.000,-67.000,-9.500
1.389,3.000,-24.500,-67.500,-10.000
1.390,2.000,-24.500,-68.000,-10.500
1.391,0.500,-24.500,-68.000,-11.000
1.392,-0.500,-24.500,-68.500,-11.000
1.393,-2.500,-24.000,-68.000,-10.500
1.394,-4.500,-23.500,-67.500,-10.000
1.395,-6.000,-23.000,-67.000,-9.500
1.396,-6.500,-23.000,-66.500,-9.000
1.397,-5.500,-22.500,-66.500,-9.000
1.398,-4.000,-22.500,-66.000,-8.500
1.399,-2.500,-22.500,-66.000,-8.500
1.400,-1.500,-23.000,-66.000,-8.500
1.401,-1.000,-23.500,-66.000,-8.500
1.402,-1.000,-24.000,-66.000,-8.500
1.403,-1.500,-24.500,-66.500,-8.500
1.404,-2.000,-25.000,-66.500,-8.500
1.405,-2.000,-25.000,-67.000,-9.000
1.406,-2.000,-25.000,-67.000,-9.000
1.407,-1.500,-25.000,-67.000,-9.500
1.408,-0.500,-24.500,-67.000,-10.000
1.409,-0.500,-24.500,-67.000,-10.500
1.410,-0.500,-24.500,-67.000,-10.500
1.411,-1.000,-24.500,-67.000,-11.000
1.412,-1.000,-24.500,-67.000,-11.500
1.413,0.000,-24.000,-67.000,-11.000
1.414,1.500,-24.000,-67.000,-11.000
1.415,3.500,-24.000,-66.500,-10.500
1.416,5.000,-24.000,-66.500,-9.500
1.417,5.500,-23.500,-66.000,-9.500
1.418,5.500,-23.000,-65.500,-9.000
1.419,3.500,-22.500,-65.500,-9.000
1.420,1.000,-22.000,-65.000,-8.500
1.421,-2.500,-22.000,-64.500,-8.500
1.422,-6.000,-22.000,-64.000,-8.500
1.423,-8.500,-22.000,-64.000,-8.500
1.424,-10.500,-22.000,-63.500,-9.000
1.425,-12.000,-22.000,-63.500,-9.000
1.426,-12.500,-22.500,-63.500,-9.500
1.427,-12.500,-23.000,-63.500,-10.000
1.428,-12.000,-23.000,-63.500,-10.500
1.429,-10.500,-23.000,-63.500,-10.500
1.430,-8.500,-23.000,-64.000,-11.000
1.431,-6.000,-23.000,-64.000,-11.000
1.432,-3.000,-23.000,-64.000,-11.000
1.433,-0.500,-23.000,-64.000,-11.000
1.434,1.000,-22.500,-63.500,-11.000
1.435,0.500,-22.500,-63.500,-10.500
1.436,-1.500,-22.500,-63.500,-10.000
1.437,-4.500,-22.000,-63.000,-10.000
1.438,-8.000,-22.000,-63.000,-9.500
1.439,-10.500,-22.000,-62.500,-10.000
1.440,-12.500,-22.000,-62.500,-10.000
1.441,-12.500,-22.000,-62.000,-10.000
1.442,-11.500,-22.000,-62.000,-10.000
1.443,-10.000,-22.000,-62.000,-10.000
1.444,-8.500,-22.000,-62.000,-10.500
1.445,-6.500,-22.000,-62.000,-10.500
1.446,-4.500,-22.500,-62.000,-11.000
1.447,-3.500,-23.000,-62.500,-11.500
1.448,-3.000,-23.000,-63.000,-12.000
1.449,-3.000,-23.500,-63.500,-12.500
1.450,-3.000,-24.000,-64.000,-13.000
1.451,-3.000,-24.000,-64.000,-13.500
1.452,-3.500,-23.500,-64.500,-13.500
1.453,-4.000,-23.000,-64.500,-13.500
1.454,-4.500,-23.000,-64.000,-13.000
1.455,-4.500,-22.500,-63.500,-12.500
1.456,-4.500,-22.000,-63.500,-12.000
1.457,-4.500,-21.500,-63.000,-11.500
1.458,-5.000,-21.500,-62.500,-11.000
1.459,-5.500,-21.500,-62.500,-10.500
1.460,-6.000,-21.500,-62.000,-10.500
1.461,-6.000,-21.500,-62.000,-10.500
1.462,-6.500,-22.000,-62.000,-10.500
1.463,-6.500,-22.500,-62.500,-10.000
1.464,-6.500,-23.000,-62.500,-10.000
1.465,-8.000,-23.000,-62.500,-10.000
1.466,-10.500,-23.000,-62.000,-10.000
1.467,-13.000,-22.500,-62.000,-10.500
1.468,-15.000,-22.000,-61.500,-11.000
1.469,-15.000,-22.000,-61.500,-11.500
1.470,-14.000,-22.000,-61.500,-11.500
1.471,-12.500,-22.000,-61.000,-12.000
1.472,-11.000,-21.500,-61.000,-12.000
1.473,-10.500,-21.500,-60.500,-11.500
1.474,-11.500,-21.000,-60.500,-11.500
1.475,-14.000,-21.000,-60.500,-11.000
1.476,-16.000,-20.500,-60.000,-11.000
1.477,-17.000,-20.000,-59.500,-10.500
1.478,-16.500,-20.000,-59.000,-10.000
1.479,-15.500,-20.000,-59.000,-10.000
1.480,-14.000,-20.000,-58.500,-10.000
1.481,-12.500,-20.500,-58.500,-10.000
1.482,-10.500,-21.000,-59.000,-10.000
1.483,-8.500,-21.500,-59.500,-10.500
1.484,-7.000,-22.000,-60.000,-11.000
1.485,-5.500,-22.500,-60.500,-11.500
1.486,-5.000,-22.500,-60.500,-12.000
1.487,-5.000,-23.000,-61.000,-12.000
1.488,-4.000,-22.500,-61.000,-12.000
1.489,-2.500,-22.500,-61.000,-12.000
1.490,-0.500,-22.500,-61.000,-12.000
1.491,1.000,-22.000,-61.000,-11.500
1.492,0.500,-22.000,-61.000,-11.500
1.493,-1.500,-22.000,-61.000,-11.500
1.494,-3.500,-22.000,-60.500,-11.000
1.495,-5.000,-22.000,-60.500,-11.000
1.496,-5.500,-22.000,-60.000,-10.500
1.497,-7.000,-21.500,-60.000,-10.000
1.498,-8.500,-21.000,-59.500,-9.500
1.499,-10.000,-21.000,-59.000,-9.500
1.500,-12.000,-21.000,-59.000,-9.500
1.501,-14.500,-21.000,-59.000,-9.500
1.502,-16.500,-21.500,-59.000,-9.500
1.503,-17.500,-22.000,-59.000,-10.000
1.504,-17.500,-22.500,-59.000,-10.500
1.505,-17.000,-23.500,-59.000,-11.000
1.506,-17.000,-24.500,-59.500,-11.500
1.507,-16.500,-25.500,-60.000,-12.500
1.508,-16.500,-26.000,-61.000,-13.000
1.509,-16.000,-27.000,-62.000,-13.500
1.510,-16.000,-28.000,-62.500,-14.000
1.511,-16.500,-28.500,-63.500,-14.500
1.512,-17.000,-29.000,-64.000,-14.500
1.513,-17.000,-29.000,-64.000,-14.500
1.514,-16.000,-28.500,-63.500,-13.500
1.515,-14.500,-27.500,-62.500,-13.000
1.516,-12.500,-26.000,-61.000,-11.500
1.517,-11.500,-24.500,-59.500,-10.500
1.518,-11.000,-23.000,-58.000,-9.500
1.519,-11.500,-21.500,-56.500,-8.500
1.520,-12.000,-20.500,-55.500,-7.500
1.521,-13.000,-20.000,-55.000,-7.500
1.522,-13.000,-20.000,-54.500,-7.000
1.523,-13.500,-20.000,-54.000,-7.000
1.524,-15.000,-20.500,-54.500,-7.500
1.525,-17.000,-20.500,-54.500,-7.500
1.526,-18.500,-21.000,-54.500,-8.000
1.527,-19.000,-21.500,-55.000,-8.500
1.528,-18.500,-22.000,-55.500,-9.000
1.529,-17.000,-22.000,-55.500,-9.500
1.530,-16.000,-22.000,-55.500,-9.500
1.531,-15.000,-22.500,-56.000,-9.500
1.532,-14.500,-22.500,-56.000,-9.500
1.533,-13.500,-22.000,-56.000,-9.500
1.534,-12.000,-22.000,-56.000,-9.500
1.535,-10.000,-22.000,-56.000,-9.000
1.536,-8.000,-22.000,-56.000,-8.500
1.537,-6.500,-21.500,-56.000,-8.000
1.538,-6.000,-21.500,-55.500,-7.500
1.539,-6.000,-21.500,-55.500,-7.000
1.540,-7.000,-21.500,-55.000,-7.000
1.541,-7.500,-22.000,-55.000,-6.500
1.542,-7.500,-22.000,-54.500,-6.500
1.543,-8.000,-22.500,-54.500,-6.500
1.544,-8.500,-22.500,-54.500,-7.000
1.545,-10.000,-23.000,-54.500,-7.000
1.546,-12.000,-23.000,-54.500,-7.500
1.547,-13.500,-23.000,-54.500,-8.000
1.548,-14.000,-23.500,-54.500,-8.000
1.549,-13.000,-23.500,-55.000,-8.500
1.550,-11.000,-23.500,-55.000,-8.500
1.551,-9.000,-23.000,-55.000,-8.500
1.552,-8.500,-23.000,-55.000,-8.000
1.553,-9.500,-23.000,-55.000,-7.500
1.554,-11.500,-23.000,-54.500,-7.500
1.555,-13.500,-22.500,-54.500,-7.000
1.556,-14.500,-22.500,-54.000,-6.500
1.557,-14.500,-22.000,-54.000,-6.000
1.558,-13.500,-22.000,-53.500,-6.000
1.559,-12.500,-22.000,-53.000,-6.000
1.560,-11.500,-22.000,-53.000,-6.000
1.561,-11.000,-22.000,-53.000,-6.500
1.562,-10.500,-22.000,-53.000,-7.000
1.563,-9.500,-22.500,-53.000,-7.500
1.564,-8.000,-23.000,-53.000,-8.500
1.565,-6.000,-23.000,-53.000,-9.000
1.566,-3.500,-23.500,-53.500,-9.500
1.567,-2.000,-24.000,-53.500,-10.000
1.568,-1.000,-24.000,-54.000,-10.000
1.569,-1.000,-24.000,-54.000,-10.500
1.570,-2.500,-24.000,-54.500,-10.500
1.571,-4.000,-24.000,-54.500,-11.000
1.572,-5.000,-24.000,-54.500,-11.000
1.573,-5.500,-23.500,-55.000,-11.000
1.574,-6.000,-23.500,-54.500,-11.500
1.575,-7.000,-23.500,-54.500,-11.000
1.576,-9.000,-23.000,-54.500,-11.000
1.577,-11.000,-23.000,-54.000,-11.000
1.578,-13.000,-23.000,-54.000,-11.000
1.579,-13.500,-23.000,-54.000,-11.500
1.580,-12.500,-23.500,-54.000,-11.500
1.581,-10.000,-23.500,-54.000,-12.000
1.582,-7.500,-24.000,-54.500,-12.500
1.583,-6.000,-24.000,-54.500,-12.500
1.584,-5.000,-24.500,-54.500,-13.000
1.585,-4.500,-25.000,-55.000,-13.500
1.586,-5.000,-25.500,-55.000,-14.000
1.587,-7.000,-25.500,-55.000,-14.500
1.588,-10.000,-26.000,-55.500,-15.000
1.589,-13.500,-26.000,-56.000,-15.500
1.590,-17.000,-26.000,-56.500,-16.000
1.591,-19.500,-26.000,-56.500,-16.000
1.592,-21.500,-26.000,-56.500,-16.500
1.593,-21.500,-26.000,-56.500,-16.500
1.594,-21.000,-25.500,-56.500,-16.500
1.595,-19.500,-25.500,-56.500,-16.000
1.596,-18.000,-25.000,-56.500,-16.000
1.597,-16.500,-25.000,-56.000,-16.000
1.598,-15.500,-24.500,-56.000,-15.500
1.599,-15.000,-24.500,-55.500,-15.500
1.600,-16.000,-24.500,-55.500,-15.500
1.601,-17.000,-24.500,-55.500,-15.500
1.602,-18.000,-24.500,-55.500,-16.000
1.603,-18.000,-25.000,-55.500,-16.500
1.604,-17.000,-25.000,-55.500,-17.000
1.605,-15.500,-25.500,-56.000,-17.500
1.606,-13.500,-25.500,-56.000,-18.000
1.607,-12.500,-26.000,-56.000,-18.500
1.608,-12.000,-26.000,-56.000,-19.000
1.609,-12.500,-26.000,-56.000,-19.500
1.610,-13.500,-26.000,-56.500,-20.000
1.611,-15.000,-26.000,-56.500,-20.000
1.612,-16.000,-26.000,-57.000,-20.500
1.613,-16.500,-25.500,-57.000,-20.500
1.614,-16.000,-25.500,-56.500,-20.500
1.615,-14.500,-25.500,-56.500,-20.000
1.616,-12.500,-25.000,-56.500,-20.000
1.617,-11.000,-25.000,-56.000,-20.000
1.618,-10.000,-25.000,-56.000,-19.500
1.619,-10.000,-25.000,-55.500,-19.500
1.620,-11.000,-25.000,-55.500,-20.000
1.621,-12.500,-25.000,-55.500,-20.000
1.622,-14.500,-25.000,-55.500,-20.500
1.623,-17.000,-25.000,-55.000,-20.500
1.624,-18.500,-25.000,-55.000,-20.500
1.625,-19.000,-25.000,-55.000,-21.000
1.626,-18.000,-25.000,-55.000,-21.000
1.627,-16.000,-25.500,-55.000,-21.500
1.628,-14.000,-25.500,-55.000,-21.500
1.629,-14.000,-25.000,-55.000,-22.000
1.630,-16.000,-25.000,-55.000,-22.500
1.631,-18.000,-25.000,-55.000,-22.500
1.632,-19.000,-25.000,-55.500,-22.500
1.633,-19.500,-25.000,-55.500,-22.500
1.634,-18.500,-24.500,-55.500,-22.500
1.635,-18.000,-24.500,-55.000,-22.000
1.636,-17.000,-24.000,-55.000,-22.000
1.637,-17.000,-24.000,-54.500,-21.500
1.638,-17.000,-23.500,-54.500,-21.500
1.639,-17.000,-23.500,-54.500,-22.000
1.640,-15.500,-23.500,-54.000,-22.000
1.641,-14.500,-24.000,-54.000,-22.500
1.642,-13.500,-24.000,-53.500,-22.500
1.643,-13.000,-24.000,-52.500,-23.000
1.644,-12.500,-24.000,-52.000,-23.000
1.645,-11.500,-24.000,-51.000,-23.000
1.646,-10.500,-24.000,-50.500,-23.500
1.647,-10.000,-23.500,-50.000,-24.000
1.648,-10.500,-23.500,-49.500,-24.000
1.649,-10.500,-24.000,-49.500,-24.500
1.650,-10.500,-24.000,-49.500,-25.000
1.651,-10.000,-24.000,-49.500,-25.000
1.652,-9.500,-24.000,-49.500,-25.000
1.653,-9.500,-24.000,-49.500,-25.000
1.654,-9.500,-24.000,-49.000,-24.500
1.655,-9.500,-24.000,-48.500,-24.000
1.656,-9.500,-23.500,-48.000,-23.500
1.657,-10.000,-23.500,-48.000,-23.000
1.658,-11.000,-23.500,-47.500,-22.500
1.659,-13.000,-23.500,-47.500,-22.500
1.660,-14.500,-23.500,-47.500,-22.500
1.661,-16.000,-23.500,-47.500,-22.500
1.662,-16.500,-23.500,-47.500,-23.000
1.663,-17.500,-24.000,-47.500,-23.500
1.664,-18.000,-24.500,-48.000,-23.500
1.665,-18.500,-25.000,-48.000,-24.000
1.666,-18.500,-25.000,-48.500,-24.500
1.667,-17.500,-25.500,-48.500,-25.000
1.668,-16.000,-25.500,-49.000,-25.000
1.669,-15.000,-26.000,-49.000,-25.500
1.670,-15.500,-26.000,-49.000,-25.500
1.671,-16.500,-26.000,-49.500,-25.500
1.672,-17.500,-26.000,-49.500,-25.500
1.673,-17.500,-26.500,-49.500,-25.500
1.674,-16.000,-26.500,-49.500,-25.500
1.675,-13.500,-26.000,-49.500,-25.000
1.676,-11.000,-26.000,-49.000,-25.000
1.677,-8.500,-25.500,-48.500,-24.500
1.678,-7.000,-25.000,-48.000,-24.500
1.679,-5.000,-25.000,-48.000,-24.500
1.680,-3.500,-25.000,-47.500,-25.000
1.681,-2.000,-25.000,-47.500,-25.000
1.682,0.000,-25.000,-47.500,-25.000
1.683,1.000,-25.000,-47.500,-25.000
1.684,1.500,-25.000,-47.500,-25.500
1.685,1.500,-25.000,-47.500,-25.500
1.686,1.000,-25.000,-48.000,-26.000
1.687,1.000,-25.500,-48.000,-26.000
1.688,-0.500,-25.500,-48.000,-26.500
1.689,-1.500,-25.500,-48.000,-26.500
1.690,-3.500,-25.000,-47.500,-26.500
1.691,-6.000,-24.500,-47.000,-26.500
1.692,-8.000,-24.000,-46.500,-26.500
1.693,-9.000,-23.000,-46.000,-26.000
1.694,-8.500,-22.500,-45.500,-25.500
1.695,-6.500,-22.500,-45.000,-25.000
1.696,-5.000,-22.000,-44.500,-24.500
1.697,-4.000,-22.000,-44.000,-24.000
1.698,-4.500,-21.500,-43.500,-24.000
1.699,-5.500,-21.500,-43.500,-23.500
1.700,-7.000,-21.500,-43.000,-24.000
1.701,-9.500,-21.500,-43.000,-24.000
1.702,-11.500,-21.500,-43.000,-24.500
1.703,-13.500,-21.500,-43.000,-25.000
1.704,-14.000,-21.500,-43.000,-25.000
1.705,-15.000,-21.000,-42.500,-25.000
1.706,-16.000,-21.000,-42.500,-25.000
1.707,-16.000,-21.500,-42.500,-25.000
1.708,-15.500,-21.500,-43.000,-25.500
1.709,-14.500,-22.000,-43.000,-25.500
1.710,-13.500,-22.000,-43.500,-26.000
1.711,-12.000,-22.500,-43.500,-26.500
1.712,-11.000,-22.500,-43.500,-26.500
1.713,-10.500,-22.500,-43.500,-26.500
1.714,-11.000,-22.500,-43.500,-26.500
1.715,-11.000,-22.000,-43.500,-26.500
1.716,-10.500,-22.000,-43.000,-26.000
1.717,-10.000,-22.000,-43.000,-25.500
1.718,-10.000,-22.000,-42.500,-25.500
1.719,-10.500,-22.000,-42.500,-25.500
1.720,-11.500,-22.000,-42.000,-25.500
1.721,-12.000,-22.000,-42.000,-25.500
1.722,-11.500,-22.000,-42.000,-25.500
1.723,-11.000,-22.500,-42.000,-26.000
1.724,-11.000,-22.500,-42.000,-26.500
1.725,-11.500,-22.500,-42.000,-27.000
1.726,-12.000,-22.500,-42.000,-27.500
1.727,-12.500,-23.000,-42.500,-28.500
1.728,-12.000,-23.000,-42.500,-29.000
1.729,-12.500,-23.500,-43.000,-29.000
1.730,-13.000,-23.500,-43.500,-29.500
1.731,-13.500,-23.500,-43.500,-29.500
1.732,-13.500,-23.500,-43.500,-29.500
1.733,-13.000,-23.500,-43.500,-29.500
1.734,-13.000,-23.500,-43.500,-29.500
1.735,-14.000,-23.000,-43.500,-29.000
1.736,-15.500,-23.000,-43.500,-29.000
1.737,-17.000,-22.500,-43.500,-28.500
1.738,-17.500,-22.500,-43.500,-28.500
1.739,-18.500,-22.500,-43.000,-28.000
1.740,-19.500,-22.500,-43.000,-28.000
1.741,-20.500,-22.500,-43.000,-28.000
1.742,-20.500,-23.000,-43.000,-27.500
1.743,-19.500,-23.000,-43.000,-27.500
1.744,-18.500,-23.500,-43.000,-28.000
1.745,-17.500,-23.500,-43.000,-28.000
1.746,-17.000,-24.000,-43.000,-28.500
1.747,-16.500,-24.000,-43.000,-29.000
1.748,-16.000,-23.500,-43.000,-29.000
1.749,-15.000,-23.500,-43.000,-29.000
1.750,-14.500,-23.000,-43.000,-29.500
1.751,-14.000,-23.000,-43.500,-29.500
1.752,-14.000,-23.000,-43.500,-29.500
1.753,-15.500,-23.000,-43.500,-29.500
1.754,-17.500,-23.000,-43.000,-29.500
1.755,-19.500,-22.500,-42.500,-29.000
1.756,-20.500,-22.500,-42.000,-28.500
1.757,-19.500,-22.500,-41.500,-28.000
1.758,-17.500,-22.000,-41.500,-27.500
1.759,-14.500,-22.000,-41.500,-27.500
1.760,-12.500,-22.000,-41.500,-27.500
1.761,-11.500,-22.000,-41.500,-27.500
1.762,-11.000,-22.000,-41.500,-27.500
1.763,-11.000,-22.000,-41.500,-28.000
1.764,-11.500,-22.500,-41.500,-28.500
1.765,-12.500,-23.000,-42.000,-29.000
1.766,-13.500,-23.500,-42.000,-29.500
1.767,-14.500,-23.500,-42.000,-30.000
1.768,-15.000,-23.500,-42.000,-30.500
1.769,-14.500,-23.500,-42.000,-31.000
1.770,-14.000,-23.500,-42.500,-31.000
1.771,-13.500,-23.500,-42.500,-31.000
1.772,-13.000,-23.500,-43.000,-31.000
1.773,-12.500,-23.500,-43.000,-31.000
1.774,-11.500,-23.500,-43.000,-30.500
1.775,-10.500,-23.000,-42.500,-30.000
1.776,-10.000,-23.000,-42.500,-30.000
1.777,-9.500,-23.000,-42.500,-30.000
1.778,-10.000,-23.000,-42.500,-30.000
1.779,-10.000,-23.000,-42.500,-30.000
1.780,-10.500,-23.500,-42.500,-30.000
1.781,-11.000,-23.500,-42.500,-30.500
1.782,-11.000,-24.000,-42.500,-31.000
1.783,-11.000,-24.500,-42.500,-31.000
1.784,-10.000,-24.500,-42.500,-31.500
1.785,-9.000,-24.500,-43.000,-32.000
1.786,-8.000,-24.500,-43.000,-32.500
1.787,-8.000,-25.000,-43.000,-33.000
1.788,-7.500,-25.000,-43.500,-33.500
1.789,-7.500,-25.000,-44.000,-34.000
1.790,-7.000,-25.000,-44.000,-34.000
1.791,-7.500,-25.000,-44.500,-34.500
1.792,-8.500,-24.500,-44.500,-34.500
1.793,-8.500,-24.500,-44.000,-34.000
1.794,-8.000,-24.000,-44.000,-34.000
1.795,-8.000,-24.000,-43.500,-33.500
1.796,-8.000,-23.500,-43.000,-33.000
1.797,-8.500,-23.000,-42.500,-32.500
1.798,-8.500,-23.000,-42.000,-32.500
1.799,-8.000,-23.000,-41.500,-32.000
1.800,-7.500,-23.000,-41.500,-32.000
1.801,-6.500,-22.500,-41.000,-32.500
1.802,-6.000,-23.000,-41.000,-32.500
1.803,-6.000,-23.000,-41.500,-33.000
1.804,-7.000,-23.000,-41.500,-33.500
1.805,-7.500,-23.500,-41.500,-33.500
1.806,-7.000,-23.500,-42.000,-34.000
1.807,-6.500,-24.000,-42.000,-34.000
1.808,-6.000,-24.000,-42.500,-34.000
1.809,-5.500,-24.000,-42.500,-34.000
1.810,-5.500,-24.000,-42.500,-34.500
1.811,-5.500,-24.000,-42.500,-34.500
1.812,-5.500,-23.500,-42.500,-34.500
1.813,-5.500,-23.500,-42.000,-34.000
1.814,-5.000,-23.000,-42.000,-34.000
1.815,-5.500,-23.000,-42.000,-34.000
1.816,-6.500,-22.500,-42.000,-33.500
1.817,-8.000,-22.500,-42.000,-33.000
1.818,-9.500,-22.500,-42.000,-33.000
1.819,-11.000,-22.500,-42.000,-33.000
1.820,-11.500,-22.500,-41.500,-33.000
1.821,-11.000,-23.000,-41.500,-33.000
1.822,-9.500,-23.500,-41.500,-33.500
1.823,-8.000,-24.000,-42.000,-34.000
1.824,-7.000,-25.000,-42.500,-34.500
1.825,-7.500,-26.000,-42.500,-35.000
1.826,-8.000,-26.500,-43.000,-35.500
1.827,-8.000,-27.000,-43.500,-36.000
1.828,-6.500,-27.500,-43.500,-36.500
1.829,-4.500,-27.500,-44.000,-37.000
1.830,-3.000,-27.500,-44.000,-37.000
1.831,-1.000,-27.500,-44.000,-37.000
1.832,0.500,-27.000,-44.000,-37.000
1.833,1.500,-27.000,-44.000,-37.000
1.834,2.000,-27.000,-44.000,-37.000
1.835,2.500,-27.000,-43.500,-37.000
1.836,3.500,-26.500,-43.500,-36.500
1.837,4.500,-26.500,-43.000,-36.500
1.838,6.000,-26.500,-43.000,-36.000
1.839,8.000,-26.500,-43.000,-36.000
1.840,10.500,-26.500,-43.000,-35.500
1.841,12.500,-26.500,-43.000,-35.500
1.842,14.500,-27.000,-43.000,-35.500
1.843,15.500,-27.000,-43.000,-35.500
1.844,15.500,-27.000,-43.000,-35.500
1.845,14.500,-26.500,-42.500,-35.500
1.846,12.500,-26.500,-42.000,-36.000
1.847,10.500,-26.000,-41.500,-36.000
1.848,8.500,-25.500,-41.500,-36.000
1.849,6.000,-25.500,-41.000,-36.500
1.850,3.000,-25.000,-41.000,-36.500
1.851,0.500,-25.000,-41.000,-36.500
1.852,-1.500,-24.500,-41.000,-36.500
1.853,-2.500,-24.500,-40.500,-36.500
1.854,-3.500,-24.000,-40.500,-36.000
1.855,-4.000,-24.000,-40.500,-36.000
1.856,-4.500,-24.000,-40.000,-35.500
1.857,-4.000,-23.500,-40.000,-35.500
1.858,-3.500,-23.500,-39.500,-35.000
1.859,-3.000,-23.500,-39.500,-35.000
1.860,-2.500,-23.500,-39.500,-34.500
1.861,-3.000,-23.500,-39.500,-34.500
1.862,-4.000,-24.000,-39.500,-35.000
1.863,-6.000,-24.500,-39.500,-35.000
1.864,-8.500,-25.000,-39.500,-35.500
1.865,-10.500,-25.000,-39.500,-36.000
1.866,-11.500,-25.000,-39.500,-36.000
1.867,-11.500,-25.000,-40.000,-36.500
1.868,-10.500,-25.500,-40.500,-37.000
1.869,-9.000,-25.500,-41.000,-37.000
1.870,-7.000,-25.500,-41.500,-37.000
1.871,-5.000,-26.000,-41.500,-37.000
1.872,-3.500,-26.000,-42.000,-37.000
1.873,-2.000,-25.500,-42.000,-36.500
1.874,-1.500,-25.500,-41.500,-36.500
1.875,-1.000,-25.000,-41.500,-36.000
1.876,-1.500,-24.500,-41.000,-35.500
1.877,-2.500,-24.500,-41.000,-35.000
1.878,-3.000,-24.000,-40.500,-34.500
1.879,-2.500,-24.000,-40.500,-34.000
1.880,-1.000,-24.000,-40.000,-34.000
1.881,1.500,-24.000,-40.000,-34.000
1.882,4.500,-24.000,-40.000,-34.500
1.883,7.000,-24.500,-40.500,-35.000
1.884,8.500,-24.500,-40.500,-35.500
1.885,8.000,-25.000,-41.000,-36.000
1.886,6.000,-25.000,-41.000,-36.500
1.887,3.500,-25.500,-41.500,-36.500
1.888,0.500,-25.500,-41.500,-36.500
1.889,-1.500,-25.000,-41.000,-36.500
1.890,-3.500,-25.000,-41.000,-36.000
1.891,-5.000,-24.500,-41.000,-36.000
1.892,-5.000,-24.500,-40.500,-36.000
1.893,-4.500,-24.000,-40.500,-36.000
1.894,-4.000,-24.000,-40.500,-35.500
1.895,-2.500,-23.500,-40.500,-35.500
1.896,-1.000,-23.500,-40.000,-35.000
1.897,0.000,-23.000,-40.000,-35.000
1.898,-0.500,-22.500,-39.500,-34.500
1.899,-2.000,-22.500,-39.500,-34.500
1.900,-3.000,-22.000,-39.500,-34.500
1.901,-3.500,-22.000,-39.500,-34.000
1.902,-4.000,-22.000,-39.000,-34.000
1.903,-4.500,-22.500,-39.000,-34.000
1.904,-5.500,-23.000,-39.000,-34.500
1.905,-7.000,-23.000,-39.000,-34.500
1.906,-8.000,-23.500,-39.500,-35.000
1.907,-8.000,-23.500,-39.500,-35.500
1.908,-7.500,-23.500,-39.500,-36.000
1.909,-5.500,-23.500,-40.000,-36.500
1.910,-3.500,-23.500,-40.000,-36.500
1.911,-2.500,-23.000,-40.000,-36.500
1.912,-2.500,-23.000,-40.000,-36.000
1.913,-2.500,-22.500,-40.000,-36.000
1.914,-3.000,-22.500,-40.000,-35.500
1.915,-2.500,-22.500,-39.500,-35.000
1.916,-1.500,-22.000,-39.500,-34.500
1.917,0.000,-22.000,-39.000,-34.000
1.918,1.500,-22.000,-38.500,-33.500
1.919,3.000,-22.000,-38.500,-33.000
1.920,4.500,-22.000,-38.500,-33.000
1.921,5.500,-22.000,-38.500,-32.500
1.922,6.000,-22.500,-38.500,-32.500
1.923,6.000,-22.500,-39.000,-32.500
1.924,5.500,-23.000,-39.000,-33.000
1.925,5.000,-23.000,-39.500,-33.000
1.926,5.500,-23.000,-39.500,-33.500
1.927,6.500,-23.000,-39.500,-33.500
1.928,7.500,-23.500,-39.500,-34.000
1.929,8.500,-23.500,-39.500,-34.500
1.930,8.000,-23.000,-40.000,-34.500
1.931,7.000,-23.000,-39.500,-35.000
1.932,5.500,-22.500,-39.500,-35.000
1.933,3.500,-22.000,-39.500,-34.500
1.934,2.000,-21.500,-39.500,-34.500
1.935,1.000,-21.000,-39.000,-34.000
1.936,-0.500,-20.500,-38.500,-33.500
1.937,-2.000,-20.000,-38.000,-33.000
1.938,-3.500,-19.500,-37.500,-32.500
1.939,-5.000,-19.500,-37.500,-32.500
1.940,-5.000,-20.000,-37.000,-32.000
1.941,-4.000,-21.000,-37.500,-32.500
1.942,-2.000,-22.000,-38.500,-33.000
1.943,0.500,-23.000,-39.000,-33.500
1.944,2.500,-24.000,-40.000,-34.500
1.945,4.500,-24.500,-40.500,-35.000
1.946,4.500,-25.500,-41.000,-36.000
1.947,3.000,-26.000,-42.000,-37.000
1.948,-0.500,-27.000,-42.500,-38.000
1.949,-4.500,-27.500,-43.000,-39.000
1.950,-7.000,-28.000,-43.500,-39.500
1.951,-8.500,-28.000,-43.500,-39.500
1.952,-9.500,-28.000,-43.500,-40.000
1.953,-10.500,-28.000,-43.500,-40.000
1.954,-11.500,-27.000,-43.500,-39.500
1.955,-12.000,-26.000,-43.000,-39.000
1.956,-11.500,-24.500,-42.000,-38.500
1.957,-10.500,-23.500,-41.000,-37.500
1.958,-9.500,-22.000,-40.000,-36.500
1.959,-9.500,-21.000,-39.000,-36.000
1.960,-10.000,-20.500,-38.500,-35.000
1.961,-10.500,-20.000,-38.500,-35.000
1.962,-10.500,-19.500,-38.000,-34.500
1.963,-10.500,-19.500,-38.000,-34.500
1.964,-9.500,-19.500,-38.000,-34.500
1.965,-7.500,-19.500,-38.500,-35.000
1.966,-5.500,-20.000,-38.500,-35.500
1.967,-4.000,-20.500,-39.000,-36.500
1.968,-1.500,-20.500,-39.000,-37.000
1.969,1.000,-21.000,-39.500,-37.500
1.970,3.000,-21.000,-40.000,-38.000
1.971,4.000,-21.500,-40.000,-38.000
1.972,3.500,-21.500,-40.500,-38.000
1.973,3.000,-21.500,-40.500,-38.000
1.974,3.000,-21.500,-40.500,-38.000
1.975,3.500,-21.000,-40.000,-37.500
1.976,5.000,-20.500,-39.500,-37.000
1.977,7.000,-20.000,-38.500,-36.500
1.978,8.000,-19.000,-38.000,-36.500
1.979,8.500,-18.500,-37.000,-36.000
1.980,8.000,-18.000,-36.500,-36.000
1.981,7.000,-18.000,-36.500,-35.500
1.982,5.000,-18.000,-36.500,-35.500
1.983,3.000,-18.500,-36.500,-35.500
1.984,2.000,-19.000,-37.000,-35.500
1.985,2.000,-19.500,-37.500,-35.500
1.986,2.000,-19.500,-38.000,-36.000
1.987,1.500,-20.000,-38.000,-36.500
1.988,1.500,-20.000,-38.000,-37.000
1.989,0.500,-19.500,-38.000,-37.000
1.990,-1.000,-19.500,-38.000,-37.500
1.991,-2.000,-19.500,-38.000,-37.500
1.992,-3.000,-19.500,-38.000,-37.500
1.993,-3.000,-19.500,-38.500,-37.500
1.994,-2.500,-19.500,-38.500,-37.500
1.995,-2.500,-19.500,-38.500,-37.500
1.996,-2.000,-19.500,-38.500,-37.500
1.997,-1.500,-19.500,-38.500,-37.500
1.998,-0.500,-19.000,-38.500,-37.500
1.999,0.000,-19.000,-38.000,-37.000
2.000,-0.500,-19.000,-38.000,-37.000
2.001,-2.000,-19.500,-38.000,-37.000
2.002,-3.000,-19.500,-38.000,-37.000
2.003,-4.000,-19.500,-38.500,-37.000
2.004,-3.500,-20.000,-38.500,-37.500
2.005,-2.000,-20.000,-38.500,-37.500
2.006,-0.500,-20.000,-38.500,-38.000
2.007,2.000,-20.500,-39.000,-38.000
2.008,5.000,-20.500,-39.000,-38.500
2.009,8.500,-20.500,-39.500,-39.000
2.010,11.000,-20.500,-39.500,-39.000
2.011,12.000,-20.500,-39.500,-39.000
2.012,11.000,-20.000,-39.500,-39.000
2.013,9.500,-20.000,-39.500,-39.000
2.014,7.500,-19.500,-39.500,-39.000
2.015,6.500,-19.500,-39.500,-39.000
2.016,6.500,-19.000,-39.500,-39.000
2.017,7.500,-19.000,-39.000,-38.500
2.018,9.000,-18.500,-39.000,-38.500
2.019,9.000,-18.500,-39.000,-38.500
2.020,8.000,-18.500,-39.000,-38.500
2.021,5.500,-19.000,-39.500,-39.500
2.022,4.000,-20.000,-40.000,-40.000
2.023,4.000,-21.000,-41.000,-41.500
2.024,4.500,-22.000,-42.000,-42.500
2.025,5.500,-23.000,-43.000,-43.500
2.026,6.500,-24.000,-44.000,-44.000
2.027,7.500,-24.500,-44.500,-45.000
2.028,8.500,-25.000,-45.000,-45.500
2.029,8.500,-25.000,-45.000,-45.500
2.030,8.000,-25.500,-45.000,-45.000
2.031,7.000,-25.500,-45.000,-44.500
2.032,6.000,-25.500,-44.500,-43.500
2.033,7.000,-25.500,-44.000,-42.500
2.034,9.000,-25.000,-43.000,-41.000
2.035,11.000,-25.000,-42.000,-39.500
2.036,11.000,-24.500,-40.500,-37.500
2.037,9.500,-24.000,-39.500,-36.000
2.038,8.000,-23.500,-38.000,-33.500
2.039,6.500,-23.000,-36.500,-31.500
2.040,6.000,-23.000,-35.000,-29.000
2.041,6.000,-23.000,-33.500,-27.000
2.042,7.000,-23.000,-32.000,-25.000
2.043,8.000,-23.000,-31.000,-23.000
2.044,9.000,-22.500,-30.000,-21.500
2.045,10.000,-22.500,-29.000,-20.000
2.046,10.000,-22.000,-28.500,-18.500
2.047,9.500,-22.000,-28.000,-17.500
2.048,9.000,-22.000,-27.500,-16.500
2.049,8.500,-22.000,-27.500,-16.000
2.050,9.000,-21.500,-27.500,-16.500
2.051,10.000,-21.500,-28.000,-17.000
2.052,11.500,-21.000,-29.000,-18.500
2.053,12.000,-21.000,-30.000,-20.000
2.054,12.000,-20.500,-31.500,-22.500
2.055,11.500,-20.000,-32.500,-24.500
2.056,10.000,-19.000,-34.000,-27.000
2.057,8.000,-17.500,-34.500,-29.000
2.058,6.000,-16.000,-35.000,-30.500
2.059,4.500,-15.000,-34.500,-31.500
2.060,3.000,-13.500,-34.000,-32.000
2.061,1.000,-12.000,-33.500,-32.000
2.062,-1.000,-11.000,-32.500,-32.000
2.063,-2.500,-10.000,-32.000,-31.500
2.064,-3.000,-9.000,-31.000,-31.000
2.065,-2.000,-8.500,-30.500,-30.500
2.066,-1.000,-8.500,-30.500,-30.000
2.067,0.500,-8.500,-30.500,-30.000
2.068,1.500,-8.500,-30.500,-30.000
2.069,3.500,-8.500,-30.500,-30.000
2.070,6.000,-8.500,-31.000,-30.500
2.071,8.000,-9.000,-31.500,-31.500
2.072,9.000,-9.500,-32.000,-32.000
2.073,8.000,-10.000,-32.500,-32.500
2.074,6.000,-10.500,-33.000,-33.000
2.075,4.000,-10.500,-33.500,-33.000
2.076,2.500,-11.000,-33.500,-33.000
2.077,2.000,-11.000,-33.500,-33.000
2.078,1.000,-11.000,-33.500,-33.000
2.079,0.500,-11.000,-33.500,-33.000
2.080,-0.500,-11.000,-33.500,-33.500
2.081,-0.500,-11.500,-33.500,-33.500
2.082,-0.500,-12.000,-34.000,-34.000
2.083,0.000,-13.000,-34.500,-34.500
2.084,1.000,-13.500,-35.000,-35.000
2.085,2.500,-14.000,-35.500,-35.500
2.086,4.500,-14.500,-36.000,-36.000
2.087,7.500,-15.000,-36.000,-36.500
2.088,10.000,-15.000,-36.500,-36.500
2.089,12.500,-15.500,-37.000,-37.000
2.090,13.500,-15.500,-37.500,-37.500
2.091,13.000,-15.000,-37.500,-37.500
2.092,11.500,-15.000,-37.500,-37.500
2.093,10.000,-15.000,-37.000,-37.000
2.094,8.000,-14.500,-37.000,-36.500
2.095,7.000,-14.000,-36.500,-36.000
2.096,6.500,-14.000,-36.000,-35.500
2.097,6.500,-13.500,-36.000,-35.000
2.098,7.000,-13.500,-35.500,-35.000
2.099,8.000,-13.000,-35.500,-34.500
2.100,9.000,-13.000,-35.500,-34.500
2.101,10.500,-13.000,-35.500,-34.500
2.102,11.500,-13.000,-35.000,-35.000
2.103,12.500,-13.000,-35.000,-35.000
2.104,12.000,-13.000,-35.000,-35.500
2.105,11.000,-13.000,-35.000,-35.500
2.106,9.500,-13.000,-35.000,-36.000
2.107,8.000,-13.500,-35.500,-36.500
2.108,7.000,-13.500,-35.500,-37.000
2.109,5.000,-13.500,-35.500,-37.500
2.110,2.500,-13.000,-36.000,-37.500
2.111,1.000,-13.000,-36.000,-37.500
2.112,1.000,-13.000,-35.500,-38.000
2.113,3.000,-12.500,-35.500,-37.500
2.114,5.500,-12.500,-35.000,-37.500
2.115,8.000,-12.000,-35.000,-37.000
2.116,8.500,-11.500,-35.000,-36.500
2.117,8.000,-11.500,-34.500,-36.000
2.118,7.500,-11.500,-34.500,-36.000
2.119,7.000,-11.000,-34.500,-35.500
2.120,6.000,-11.000,-34.500,-35.500
2.121,5.000,-11.000,-34.000,-35.500
2.122,4.000,-11.000,-34.000,-36.000
2.123,4.500,-11.000,-34.000,-36.500
2.124,4.500,-11.000,-34.000,-37.000
2.125,4.500,-11.000,-34.000,-37.500
2.126,4.500,-11.500,-34.500,-38.000
2.127,4.500,-12.000,-34.500,-38.500
2.128,5.000,-12.500,-35.000,-38.500
2.129,5.000,-13.000,-35.500,-38.500
2.130,3.500,-13.000,-35.500,-38.500
2.131,1.500,-13.000,-36.000,-38.500
2.132,-1.500,-13.000,-36.000,-38.000
2.133,-4.000,-13.000,-36.500,-38.000
2.134,-6.500,-12.500,-36.000,-38.000
2.135,-8.500,-12.000,-36.000,-38.000
2.136,-10.000,-12.000,-35.500,-37.500
2.137,-11.000,-11.500,-35.500,-37.500
2.138,-11.000,-11.500,-35.500,-37.500
2.139,-9.500,-11.000,-35.500,-37.000
2.140,-6.000,-11.000,-35.000,-37.000
2.141,-2.500,-10.500,-34.500,-36.500
2.142,1.000,-10.500,-34.000,-36.500
2.143,3.500,-11.000,-34.500,-37.000
2.144,5.500,-11.000,-34.500,-37.000
2.145,7.000,-11.000,-35.000,-37.500
2.146,7.000,-11.500,-35.000,-38.000
2.147,6.000,-11.000,-35.500,-38.500
2.148,4.500,-11.000,-35.500,-38.500
2.149,2.500,-10.500,-35.500,-38.500
2.150,1.000,-10.500,-35.500,-38.500
2.151,-0.500,-10.000,-35.000,-38.500
2.152,-1.500,-9.500,-34.500,-38.500
2.153,-2.500,-9.000,-34.500,-38.000
2.154,-2.000,-9.000,-34.500,-37.500
2.155,-1.000,-8.500,-34.500,-37.500
2.156,-0.500,-8.500,-34.500,-37.000
2.157,-1.000,-9.000,-34.500,-37.000
2.158,-2.000,-9.000,-34.500,-36.500
2.159,-3.000,-9.000,-34.500,-36.500
2.160,-3.000,-9.000,-34.500,-36.500
2.161,-2.000,-9.000,-34.500,-36.500
2.162,-1.000,-9.500,-34.500,-36.500
2.163,0.500,-9.500,-34.500,-36.500
2.164,1.000,-9.500,-34.500,-37.000
2.165,1.500,-9.500,-34.500,-37.500
2.166,1.500,-9.500,-34.500,-38.000
2.167,1.500,-9.500,-34.500,-38.500
2.168,2.500,-9.500,-34.500,-38.500
2.169,3.500,-9.500,-35.000,-39.000
2.170,3.500,-9.500,-35.500,-39.000
2.171,2.000,-9.500,-35.500,-39.500
2.172,0.500,-9.500,-35.500,-39.500
2.173,-1.000,-9.000,-35.500,-39.500
2.174,-1.500,-9.000,-35.500,-39.500
2.175,-1.000,-8.500,-35.000,-39.000
2.176,0.000,-8.000,-34.500,-38.500
2.177,0.500,-8.000,-34.500,-38.500
2.178,1.500,-8.000,-34.000,-38.000
2.179,1.500,-8.000,-34.000,-38.000
2.180,1.500,-8.500,-34.500,-38.000
2.181,1.000,-9.000,-34.500,-38.000
2.182,0.500,-9.000,-35.000,-38.000
2.183,0.500,-9.500,-35.000,-38.000
2.184,0.000,-9.500,-35.500,-38.500
2.185,-1.000,-10.000,-35.500,-39.000
2.186,-2.000,-10.000,-35.500,-39.500
2.187,-2.500,-10.500,-36.000,-40.000
2.188,-3.000,-10.500,-36.500,-40.000
2.189,-2.500,-10.500,-37.000,-40.500
2.190,-2.500,-10.500,-37.000,-41.000
2.191,-2.000,-10.500,-37.000,-41.000
2.192,-1.000,-10.000,-36.500,-40.500
2.193,1.000,-10.000,-36.500,-40.000
2.194,3.500,-9.500,-36.000,-39.500
2.195,5.500,-9.000,-36.000,-39.000
2.196,6.500,-9.000,-35.500,-38.500
2.197,6.500,-8.500,-35.500,-38.000
2.198,5.500,-8.500,-35.000,-37.500
2.199,5.000,-8.000,-34.500,-37.000
2.200,4.500,-7.500,-34.500,-37.000
2.201,3.500,-7.500,-34.000,-37.000
2.202,1.500,-7.500,-34.000,-37.000
2.203,0.000,-7.000,-34.000,-37.500
2.204,-2.000,-7.000,-34.000,-37.500
2.205,-3.500,-7.000,-34.000,-38.000
2.206,-4.000,-7.000,-34.000,-38.000
2.207,-4.000,-7.000,-33.500,-38.500
2.208,-3.000,-7.000,-33.500,-38.500
2.209,-1.500,-6.500,-33.500,-39.000
2.210,-1.000,-6.500,-33.500,-39.000
2.211,-0.500,-6.500,-33.000,-39.000
2.212,0.500,-6.500,-33.000,-39.500
2.213,1.500,-6.500,-33.000,-39.500
2.214,3.500,-6.000,-33.000,-39.500
2.215,5.500,-5.500,-32.500,-39.500
2.216,7.000,-5.000,-32.500,-39.500
2.217,8.000,-4.500,-32.000,-39.500
2.218,8.500,-4.500,-31.500,-39.500
2.219,8.000,-4.000,-31.500,-39.000
2.220,7.000,-4.000,-31.000,-39.000
2.221,5.500,-4.000,-31.000,-39.000
2.222,3.000,-4.000,-31.000,-38.500
2.223,-0.500,-4.500,-31.000,-38.500
2.224,-3.500,-4.500,-31.500,-38.500
2.225,-5.000,-5.000,-32.000,-38.500
2.226,-4.000,-5.500,-32.500,-38.500
2.227,-2.000,-5.500,-33.000,-39.000
2.228,0.500,-6.000,-33.500,-39.000
2.229,2.000,-6.000,-33.500,-39.500
2.230,3.500,-6.500,-33.500,-39.000
2.231,4.000,-6.500,-34.000,-39.000
2.232,3.000,-6.500,-34.000,-38.500
2.233,1.000,-6.000,-34.000,-37.500
2.234,0.000,-6.000,-34.000,-37.000
2.235,0.000,-5.500,-34.000,-36.500
2.236,0.500,-5.000,-34.000,-36.000
2.237,1.000,-5.000,-33.500,-36.000
2.238,1.000,-4.500,-33.500,-36.000
2.239,0.500,-4.500,-33.000,-36.500
2.240,-0.500,-4.000,-33.000,-37.000
2.241,-1.500,-4.000,-33.000,-38.000
2.242,-2.000,-4.500,-33.000,-38.000
2.243,-2.000,-4.500,-33.000,-38.500
2.244,-2.000,-5.000,-33.500,-38.000
2.245,-2.000,-5.500,-33.500,-38.000
2.246,-1.500,-5.500,-33.500,-37.500
2.247,-1.000,-6.000,-34.000,-37.500
2.248,-0.500,-6.000,-34.000,-37.500
2.249,0.000,-6.000,-34.000,-37.500
2.250,0.000,-6.000,-34.500,-37.500
2.251,-0.500,-6.000,-34.500,-37.500
2.252,-1.000,-5.500,-34.500,-38.000
2.253,-1.000,-5.500,-34.500,-38.000
2.254,-1.000,-5.500,-34.500,-37.500
2.255,-1.000,-5.500,-34.500,-37.500
2.256,-1.500,-5.500,-34.500,-37.000
2.257,-2.000,-5.500,-34.500,-36.500
2.258,-2.500,-5.000,-34.000,-36.500
2.259,-2.000,-5.500,-34.000,-36.000
2.260,-1.500,-5.500,-34.000,-36.000
2.261,-1.000,-6.000,-34.500,-36.500
2.262,-0.500,-6.500,-34.500,-36.500
2.263,-0.500,-6.500,-34.000,-37.000
2.264,-1.000,-7.000,-34.000,-37.500
2.265,-1.500,-7.000,-34.500,-38.500
2.266,-2.000,-7.500,-34.500,-39.000
2.267,-2.500,-7.500,-34.500,-40.000
2.268,-3.000,-7.500,-35.000,-40.500
2.269,-3.500,-7.500,-35.000,-40.500
2.270,-3.500,-7.500,-35.500,-40.500
2.271,-4.000,-7.000,-35.500,-40.500
2.272,-4.500,-7.000,-35.500,-40.000
2.273,-5.000,-6.500,-35.000,-39.500
2.274,-4.500,-6.000,-35.000,-39.500
2.275,-4.000,-5.500,-34.500,-39.000
2.276,-3.000,-5.000,-34.500,-38.500
2.277,-2.000,-5.000,-34.000,-38.000
2.278,-1.000,-5.000,-34.000,-37.000
2.279,-1.000,-5.000,-33.500,-36.500
2.280,-1.500,-5.000,-33.500,-36.000
2.281,-2.500,-5.000,-33.500,-35.500
2.282,-3.500,-5.000,-33.500,-35.000
2.283,-4.500,-5.000,-34.000,-34.500
2.284,-5.000,-5.500,-34.000,-34.500
2.285,-5.500,-5.500,-34.500,-34.500
2.286,-5.500,-5.500,-34.500,-34.500
2.287,-5.500,-5.500,-34.000,-34.500
2.288,-4.500,-5.000,-34.000,-35.000
2.289,-3.000,-5.000,-34.000,-35.000
2.290,-1.500,-5.000,-33.500,-35.000
2.291,0.000,-4.500,-33.500,-35.000
2.292,1.000,-4.500,-33.500,-35.000
2.293,1.000,-4.000,-33.500,-34.500
2.294,1.000,-3.500,-33.000,-34.000
2.295,0.500,-3.000,-33.000,-33.500
2.296,-0.500,-2.000,-32.500,-33.000
2.297,-2.500,-1.500,-32.000,-32.500
2.298,-4.500,-1.000,-31.500,-32.000
2.299,-6.000,-0.500,-31.000,-31.500
2.300,-6.500,0.000,-31.000,-31.000
2.301,-5.000,0.000,-30.500,-31.000
2.302,-3.000,0.000,-31.000,-31.000
2.303,-1.000,-0.500,-31.000,-31.000
2.304,0.500,-0.500,-31.500,-31.500
2.305,1.000,-1.000,-31.500,-31.500
2.306,1.000,-1.000,-32.000,-32.000
2.307,0.000,-1.500,-32.000,-32.500
2.308,-1.000,-1.500,-32.000,-32.500
2.309,-2.500,-1.500,-32.000,-33.000
2.310,-4.500,-1.500,-32.500,-33.000
2.311,-6.000,-1.500,-32.500,-33.500
2.312,-6.500,-1.000,-32.500,-33.500
2.313,-6.000,-1.000,-33.000,-33.500
2.314,-4.000,-1.000,-33.000,-33.500
2.315,-3.000,-1.000,-33.500,-33.000
2.316,-3.000,-1.000,-33.500,-33.000
2.317,-3.500,-1.000,-33.500,-33.000
2.318,-4.000,-1.000,-33.500,-33.000
2.319,-4.000,-1.000,-33.500,-33.500
2.320,-3.500,-1.000,-33.500,-34.000
2.321,-2.500,-1.000,-34.000,-34.000
2.322,-1.000,-1.000,-34.000,-34.500
2.323,0.500,-1.500,-34.500,-35.000
2.324,1.500,-1.500,-35.000,-35.500
2.325,2.000,-2.000,-35.500,-36.500
2.326,1.500,-2.500,-36.000,-37.000
2.327,0.000,-3.000,-36.500,-38.000
2.328,-1.500,-3.500,-37.500,-38.500
2.329,-2.000,-4.000,-37.500,-39.000
2.330,-1.500,-4.000,-38.000,-39.500
2.331,1.000,-4.000,-38.500,-40.000
2.332,3.500,-4.000,-38.500,-40.000
2.333,5.500,-4.000,-39.000,-40.500
2.334,6.000,-4.000,-39.000,-40.500
2.335,6.000,-3.500,-38.500,-40.500
2.336,5.000,-3.500,-38.500,-40.500
2.337,3.500,-3.000,-38.500,-40.500
2.338,2.500,-2.500,-38.000,-40.500
2.339,1.500,-2.000,-38.000,-40.500
2.340,1.500,-1.500,-37.500,-40.500
2.341,1.500,-1.000,-37.000,-40.500
2.342,1.000,-1.000,-37.000,-41.000
2.343,0.500,-1.500,-37.000,-41.000
2.344,-0.500,-1.500,-37.500,-41.500
2.345,-0.500,-2.000,-37.500,-42.000
2.346,0.500,-2.500,-38.500,-42.500
2.347,1.500,-2.500,-39.000,-43.000
2.348,3.000,-2.500,-39.000,-43.500
2.349,4.500,-2.500,-39.500,-44.000
2.350,5.000,-2.000,-40.000,-44.500
2.351,4.500,-2.000,-40.000,-45.000
2.352,3.000,-1.500,-40.500,-45.000
2.353,1.000,-1.000,-40.500,-45.000
2.354,-0.500,-0.500,-40.500,-45.000
2.355,-1.500,0.000,-40.500,-44.500
2.356,-1.500,0.500,-40.500,-44.500
2.357,-1.500,0.500,-40.500,-44.500
2.358,-1.500,1.000,-40.500,-44.500
2.359,-1.000,1.000,-40.500,-44.500
2.360,0.500,1.000,-40.500,-44.500
2.361,3.500,0.500,-40.500,-44.500
2.362,6.500,0.000,-41.000,-44.500
2.363,8.000,-0.500,-41.000,-45.000
2.364,8.000,-0.500,-41.500,-45.500
2.365,7.000,-0.500,-41.500,-46.000
2.366,6.500,-0.500,-42.000,-46.500
2.367,6.000,-0.500,-42.000,-47.000
2.368,5.500,-0.500,-42.500,-47.500
2.369,5.500,-0.500,-43.000,-48.000
2.370,5.500,-0.500,-43.000,-48.500
2.371,6.500,-1.000,-43.500,-48.500
2.372,8.000,-1.000,-44.000,-48.500
2.373,9.500,-1.000,-44.000,-48.500
2.374,10.500,-1.000,-44.000,-48.500
2.375,11.000,-1.000,-44.000,-48.000
2.376,11.000,-0.500,-43.500,-48.000
2.377,10.000,-0.500,-43.500,-47.500
2.378,8.000,0.000,-43.000,-47.000
2.379,6.000,0.000,-43.500,-47.000
2.380,4.500,0.500,-43.500,-47.000
2.381,4.000,0.500,-43.500,-47.000
2.382,4.000,0.500,-43.500,-47.500
2.383,3.500,0.000,-43.500,-47.500
2.384,3.500,-0.500,-44.000,-48.000
2.385,3.000,-1.000,-44.500,-49.000
2.386,2.500,-1.500,-45.500,-50.000
2.387,2.000,-2.500,-46.000,-50.500
2.388,2.500,-3.000,-46.500,-51.500
2.389,4.000,-4.000,-47.500,-52.000
2.390,6.000,-4.500,-48.000,-52.000
2.391,7.000,-4.500,-48.500,-52.500
2.392,6.500,-4.000,-48.500,-52.000
2.393,5.500,-3.000,-48.000,-51.000
2.394,4.000,-1.000,-46.500,-50.000
2.395,3.000,1.000,-45.500,-48.500
2.396,2.500,3.000,-44.000,-47.500
2.397,3.000,5.000,-42.500,-46.000
2.398,4.000,6.000,-42.000,-45.500
2.399,5.000,6.500,-41.500,-44.500
2.400,5.500,6.500,-41.000,-44.500
2.401,5.000,6.500,-41.000,-44.000
2.402,5.500,6.000,-41.500,-44.500
2.403,6.500,5.500,-42.000,-45.000
2.404,7.000,5.000,-42.500,-45.500
2.405,7.000,4.000,-43.000,-46.000
2.406,6.000,3.500,-43.500,-47.000
2.407,5.000,3.000,-44.000,-47.500
2.408,4.000,2.500,-45.000,-48.000
2.409,3.500,2.000,-45.000,-48.000
2.410,3.500,2.000,-45.500,-48.000
2.411,3.000,2.000,-45.500,-48.000
2.412,3.000,2.500,-45.500,-48.000
2.413,3.000,2.500,-45.500,-48.000
2.414,2.500,3.000,-45.500,-48.000
2.415,2.500,3.000,-45.500,-48.000
2.416,3.000,3.500,-45.500,-48.000
2.417,4.000,3.500,-45.500,-48.000
2.418,4.500,3.500,-45.500,-48.000
2.419,5.000,3.000,-45.000,-48.000
2.420,5.000,3.000,-45.000,-48.000
2.421,4.500,2.500,-45.000,-48.000
2.422,3.000,2.500,-45.000,-48.000
2.423,2.000,2.000,-45.000,-48.500
2.424,0.500,2.000,-45.000,-48.500
2.425,-0.500,2.000,-45.500,-49.000
2.426,-0.500,2.000,-46.000,-49.500
2.427,0.000,1.500,-46.500,-50.000
2.428,1.000,1.500,-46.500,-50.500
2.429,1.500,1.500,-47.000,-50.500
2.430,2.500,1.500,-47.000,-50.500
2.431,3.500,2.000,-47.000,-50.500
2.432,4.500,2.000,-47.000,-50.500
2.433,5.000,2.500,-47.000,-50.500
2.434,5.500,2.500,-47.000,-50.500
2.435,6.000,3.000,-47.000,-50.000
2.436,6.500,3.000,-47.000,-50.000
2.437,6.500,3.500,-47.000,-50.000
2.438,6.000,4.000,-47.000,-50.000
2.439,4.500,4.000,-47.000,-50.000
2.440,2.500,4.000,-47.500,-50.000
2.441,-1.000,4.000,-47.500,-50.000
2.442,-4.000,4.000,-47.500,-50.000
2.443,-5.500,4.000,-48.000,-50.000
2.444,-5.000,3.500,-48.000,-50.000
2.445,-3.000,3.500,-48.000,-50.500
2.446,0.500,3.000,-48.500,-51.000
2.447,3.000,2.500,-48.500,-51.000
2.448,5.000,2.500,-49.000,-51.500
2.449,6.500,2.000,-49.500,-52.000
2.450,7.500,2.000,-50.000,-52.500
2.451,7.000,1.500,-50.500,-52.500
2.452,5.500,1.500,-51.000,-52.500
2.453,3.500,2.000,-51.000,-52.500
2.454,2.500,2.000,-51.000,-52.000
2.455,3.000,2.500,-51.000,-51.500
2.456,3.500,3.000,-51.000,-51.000
2.457,4.500,3.000,-51.500,-51.000
2.458,5.500,3.000,-51.500,-50.500
2.459,5.500,3.000,-51.500,-50.500
2.460,4.500,3.000,-51.500,-50.500
2.461,2.500,3.000,-51.500,-50.500
2.462,0.500,2.500,-51.500,-50.500
2.463,-1.500,2.500,-51.500,-50.500
2.464,-2.500,2.500,-52.000,-51.000
2.465,-2.000,2.500,-52.000,-51.500
2.466,-0.500,2.500,-52.000,-51.500
2.467,2.000,2.500,-52.500,-52.000
2.468,4.500,2.500,-52.000,-52.500
2.469,6.000,3.000,-52.000,-52.500
2.470,6.500,3.000,-51.500,-52.500
2.471,7.000,3.500,-51.500,-52.500
2.472,7.000,4.000,-51.500,-52.500
2.473,8.000,4.500,-51.500,-52.000
2.474,9.500,5.000,-51.000,-51.500
2.475,11.000,5.500,-51.000,-51.000
2.476,11.000,5.500,-50.500,-50.500
2.477,10.500,5.500,-50.500,-50.500
2.478,9.500,5.500,-50.000,-50.000
2.479,10.000,6.000,-50.000,-50.000
2.480,11.500,6.000,-50.500,-50.000
2.481,12.500,6.000,-50.500,-50.000
2.482,13.000,5.500,-51.000,-50.500
2.483,12.000,5.000,-51.500,-51.000
2.484,10.500,4.500,-52.000,-51.500
2.485,9.000,4.500,-52.500,-52.500
2.486,7.500,4.000,-53.000,-53.000
2.487,6.000,4.000,-53.500,-53.000
2.488,4.500,4.000,-53.500,-53.000
2.489,2.500,3.500,-53.500,-53.000
2.490,1.500,3.500,-53.500,-52.500
2.491,1.000,3.500,-53.500,-52.000
2.492,1.500,3.500,-53.500,-52.000
2.493,2.000,3.500,-53.500,-51.500
2.494,1.500,4.000,-53.000,-51.000
2.495,0.500,4.500,-53.000,-50.500
2.496,-0.500,5.000,-53.000,-50.000
2.497,-1.500,5.500,-52.500,-50.000
2.498,-1.000,5.500,-52.500,-49.500
2.499,1.000,6.000,-52.500,-49.500
2.500,4.000,6.000,-52.500,-50.000
2.501,8.000,6.000,-52.500,-50.000
2.502,11.000,5.500,-52.500,-50.000
2.503,12.500,5.000,-52.500,-50.000
2.504,12.500,4.500,-53.000,-50.500
2.505,12.000,4.500,-53.000,-51.000
2.506,11.500,4.000,-53.500,-51.000
2.507,11.500,4.000,-53.500,-51.500
2.508,11.000,3.500,-53.500,-52.000
2.509,10.000,4.000,-54.000,-52.000
2.510,9.000,4.500,-54.000,-52.500
2.511,9.000,5.000,-54.000,-52.000
2.512,9.000,5.500,-54.000,-52.000
2.513,9.000,6.000,-54.000,-52.000
2.514,9.000,6.500,-53.500,-51.500
2.515,8.000,7.000,-53.500,-51.000
2.516,8.000,7.500,-53.000,-51.000
2.517,8.000,8.000,-52.500,-50.500
2.518,8.500,8.500,-52.000,-50.000
2.519,9.500,8.500,-52.000,-50.000
2.520,10.000,8.500,-52.000,-49.500
2.521,9.500,8.000,-52.500,-49.500
2.522,8.500,8.000,-53.000,-50.000
2.523,7.500,7.500,-53.000,-50.000
2.524,7.000,7.500,-53.000,-50.500
2.525,7.000,7.000,-53.500,-50.500
2.526,7.500,6.500,-53.500,-51.000
2.527,8.500,6.500,-54.000,-51.500
2.528,9.500,6.500,-54.500,-51.500
2.529,10.000,7.000,-54.500,-52.000
2.530,9.500,7.000,-54.500,-52.000
2.531,9.000,7.500,-54.500,-51.500
2.532,9.000,7.500,-54.500,-51.500
2.533,9.000,7.500,-55.000,-51.500
2.534,9.500,7.500,-55.000,-51.500
2.535,9.500,8.000,-55.500,-51.500
2.536,8.500,8.000,-55.500,-51.500
2.537,7.000,8.500,-55.500,-51.500
2.538,5.500,8.500,-55.500,-51.500
2.539,3.500,9.000,-55.000,-51.000
2.540,2.500,9.000,-55.000,-51.000
2.541,1.500,9.000,-55.000,-51.000
2.542,2.000,8.500,-55.000,-51.000
2.543,3.500,8.500,-55.000,-51.000
2.544,6.000,8.000,-55.000,-51.500
2.545,9.000,7.500,-55.500,-51.500
2.546,11.500,7.500,-55.500,-52.000
2.547,12.500,7.500,-55.500,-52.500
2.548,12.500,7.500,-56.000,-52.500
2.549,11.500,8.000,-56.000,-53.000
2.550,10.500,8.000,-55.500,-53.500
2.551,11.000,8.000,-55.500,-53.500
2.552,11.500,8.500,-55.500,-54.000
2.553,11.500,9.000,-55.500,-53.500
2.554,11.500,9.500,-55.000,-53.500
2.555,12.000,9.500,-55.000,-53.000
2.556,12.500,10.000,-55.000,-52.500
2.557,13.500,10.000,-55.000,-52.000
2.558,12.500,10.000,-55.000,-51.500
2.559,10.500,10.000,-54.500,-51.000
2.560,7.000,10.000,-54.500,-51.000
2.561,3.500,10.000,-54.500,-51.000
2.562,0.500,10.000,-54.500,-51.000
2.563,-2.000,10.000,-54.500,-51.000
2.564,-4.000,9.500,-55.000,-51.000
2.565,-5.000,9.500,-55.000,-51.000
2.566,-6.000,9.000,-55.500,-51.500
2.567,-6.500,9.000,-56.000,-51.500
2.568,-6.000,8.500,-56.500,-52.000
2.569,-5.000,8.500,-56.500,-52.500
2.570,-3.500,8.500,-57.000,-52.500
2.571,-2.500,9.000,-57.000,-53.000
2.572,-3.000,9.000,-57.000,-53.000
2.573,-4.500,9.000,-57.000,-52.500
2.574,-5.500,9.000,-57.000,-52.500
2.575,-6.500,9.000,-57.000,-52.000
2.576,-7.000,9.000,-56.500,-52.000
2.577,-7.500,9.000,-56.500,-51.500
2.578,-7.500,9.000,-56.500,-51.500
2.579,-6.500,9.000,-56.500,-51.500
2.580,-5.000,8.500,-56.500,-51.500
2.581,-2.500,8.500,-56.500,-51.500
2.582,0.000,8.500,-56.500,-51.500
2.583,2.500,8.500,-56.500,-51.500
2.584,3.500,8.000,-57.000,-52.000
2.585,3.500,7.500,-57.500,-52.500
2.586,3.000,7.000,-58.000,-53.000
2.587,3.000,7.000,-58.000,-53.500
2.588,3.000,6.500,-58.500,-53.500
2.589,2.500,6.500,-58.500,-54.000
2.590,2.000,6.500,-58.500,-54.000
2.591,1.500,7.000,-58.500,-54.000
2.592,2.000,7.500,-58.500,-54.000
2.593,2.500,8.000,-58.000,-53.500
2.594,3.000,8.500,-57.500,-53.000
2.595,3.500,9.000,-57.000,-52.500
2.596,3.000,9.500,-57.000,-52.000
2.597,2.500,10.000,-56.500,-52.000
2.598,2.000,10.000,-56.500,-51.500
2.599,1.000,10.000,-56.000,-51.500
2.600,1.000,10.000,-56.000,-51.500
2.601,1.500,10.000,-56.000,-51.500
2.602,3.000,9.500,-56.500,-52.000
2.603,4.500,9.000,-56.500,-52.000
2.604,5.500,9.000,-57.000,-52.500
2.605,5.500,8.500,-57.000,-53.000
2.606,5.500,8.500,-57.000,-53.000
2.607,5.000,8.500,-57.500,-53.500
2.608,4.500,8.500,-57.500,-53.500
2.609,3.000,8.500,-58.000,-54.000
2.610,0.500,9.000,-58.000,-54.000
2.611,-2.000,9.000,-58.500,-54.000
2.612,-3.000,9.000,-58.500,-53.500
2.613,-3.500,9.000,-59.000,-53.500
2.614,-3.500,9.000,-59.000,-53.000
2.615,-3.000,9.500,-59.000,-52.500
2.616,-2.500,9.500,-59.000,-52.000
2.617,0.000,9.500,-59.000,-52.000
2.618,4.000,9.500,-59.000,-51.500
2.619,7.500,9.500,-58.500,-51.500
2.620,9.500,9.500,-58.500,-51.500
2.621,10.500,9.500,-58.500,-51.500
2.622,10.500,9.000,-59.000,-51.500
2.623,9.500,9.000,-59.000,-51.500
2.624,7.500,8.500,-59.500,-52.000
2.625,4.500,8.000,-60.500,-52.500
2.626,1.000,7.500,-60.500,-53.000
2.627,-3.000,7.000,-61.000,-53.500
2.628,-5.500,7.000,-61.000,-54.000
2.629,-6.500,7.000,-61.000,-54.500
2.630,-6.000,7.000,-61.000,-54.500
2.631,-5.000,7.000,-61.000,-54.500
2.632,-3.000,7.500,-61.000,-54.500
2.633,-1.500,7.500,-61.000,-54.500
2.634,-1.500,8.000,-61.000,-54.000
2.635,-2.500,8.500,-60.500,-54.000
2.636,-5.000,9.000,-60.500,-53.500
2.637,-7.000,9.500,-60.000,-53.000
2.638,-7.500,9.500,-59.500,-53.000
2.639,-6.500,9.500,-60.000,-53.000
2.640,-4.000,9.500,-60.000,-53.000
2.641,-2.000,9.000,-60.000,-53.000
2.642,-2.000,9.000,-60.000,-53.500
2.643,-3.000,9.000,-60.500,-53.500
2.644,-4.500,9.000,-60.500,-54.000
2.645,-5.500,8.500,-60.500,-54.500
2.646,-4.500,8.500,-61.000,-55.000
2.647,-2.000,8.500,-61.000,-55.500
2.648,1.000,8.500,-61.500,-56.000
2.649,2.500,8.500,-61.500,-56.000
2.650,3.000,8.500,-61.500,-56.500
2.651,1.500,8.500,-62.000,-56.500
2.652,-0.500,9.000,-62.000,-56.000
2.653,-1.500,9.000,-61.500,-56.000
2.654,-1.500,9.500,-61.500,-55.500
2.655,-1.000,10.000,-61.000,-55.000
2.656,-1.000,10.500,-60.500,-54.500
2.657,-1.500,10.500,-60.500,-54.500
2.658,-2.500,11.000,-60.000,-54.000
2.659,-2.500,11.000,-60.000,-54.000
2.660,-2.000,11.000,-60.000,-54.000
2.661,-1.500,11.000,-60.500,-54.000
2.662,-0.500,10.500,-60.500,-54.000
2.663,0.000,10.000,-60.500,-54.500
2.664,0.500,9.500,-61.000,-55.000
2.665,1.500,9.000,-61.000,-55.000
2.666,2.000,8.500,-61.500,-55.500
2.667,2.500,8.500,-61.500,-56.000
2.668,2.500,8.500,-62.000,-56.000
2.669,2.500,8.500,-62.000,-56.000
2.670,3.000,8.500,-62.000,-56.500
2.671,3.500,9.000,-62.000,-56.000
2.672,4.000,9.500,-62.000,-56.000
2.673,3.500,9.500,-61.500,-55.500
2.674,2.000,10.000,-61.500,-55.000
2.675,-0.500,10.500,-61.500,-54.500
2.676,-3.000,11.000,-61.500,-54.000
2.677,-4.500,11.500,-61.000,-53.500
2.678,-5.000,11.500,-61.000,-53.500
2.679,-4.500,11.500,-61.000,-53.500
2.680,-3.500,11.500,-61.000,-53.500
2.681,-3.000,11.500,-60.500,-53.000
2.682,-3.000,11.500,-60.500,-53.500
2.683,-4.000,12.000,-60.500,-53.500
2.684,-5.000,12.000,-60.500,-53.500
2.685,-6.000,12.000,-61.000,-54.000
2.686,-7.000,12.000,-61.000,-54.500
2.687,-6.500,11.500,-61.500,-55.000
2.688,-5.000,11.500,-62.000,-55.500
2.689,-3.500,11.000,-62.000,-56.000
2.690,-2.000,11.000,-62.500,-56.000
2.691,-1.000,11.000,-62.500,-56.000
2.692,-1.000,11.000,-63.000,-56.000
2.693,-1.000,11.500,-63.000,-56.000
2.694,-1.000,11.500,-63.000,-55.500
2.695,-1.500,11.500,-63.000,-55.500
2.696,-2.500,12.000,-62.500,-55.000
2.697,-4.500,12.500,-62.500,-54.500
2.698,-6.000,12.500,-62.500,-54.500
2.699,-6.500,13.000,-62.500,-54.500
2.700,-7.500,13.000,-62.500,-54.500
2.701,-8.000,12.500,-63.000,-54.500
2.702,-8.500,12.000,-63.000,-55.000
2.703,-7.500,11.500,-63.500,-55.500
2.704,-6.000,11.000,-63.500,-56.000
2.705,-4.000,10.500,-64.500,-56.500
2.706,-1.500,10.500,-65.000,-57.000
2.707,1.000,10.000,-65.500,-57.500
2.708,2.500,9.500,-66.000,-58.000
2.709,4.000,9.500,-66.000,-58.000
2.710,5.500,10.000,-66.000,-58.000
2.711,6.500,10.000,-66.000,-58.000
2.712,7.000,10.500,-66.000,-58.000
2.713,7.500,10.500,-66.000,-58.000
2.714,8.000,11.000,-66.000,-58.000
2.715,8.000,11.000,-66.000,-57.500
2.716,7.000,11.500,-66.000,-57.000
2.717,6.000,12.000,-66.000,-57.000
2.718,4.500,12.000,-65.500,-56.500
2.719,3.000,12.000,-65.500,-56.500
2.720,2.000,12.000,-65.500,-56.500
2.721,1.000,12.000,-65.000,-56.000
2.722,-0.500,12.500,-64.500,-56.000
2.723,-1.500,12.500,-64.500,-56.000
2.724,-2.000,12.500,-64.500,-56.000
2.725,-1.500,12.500,-64.500,-56.500
2.726,-0.500,12.000,-65.000,-57.000
2.727,-0.500,12.000,-65.500,-57.500
2.728,-0.500,12.000,-65.500,-57.500
2.729,-1.500,12.000,-65.500,-57.500
2.730,-2.000,12.000,-66.000,-57.500
2.731,-2.000,12.000,-66.000,-57.500
2.732,-1.000,12.500,-66.000,-57.000
2.733,0.000,12.500,-66.000,-57.000
2.734,0.500,12.500,-66.000,-57.000
2.735,1.000,13.000,-66.000,-56.500
2.736,2.500,13.000,-66.000,-56.500
2.737,4.500,13.000,-66.000,-56.000
2.738,6.500,13.500,-66.000,-56.000
2.739,7.500,13.500,-66.000,-56.000
2.740,8.000,13.500,-66.000,-56.500
2.741,8.000,13.500,-66.000,-56.500
2.742,9.000,13.000,-66.000,-57.000
2.743,9.500,12.500,-66.500,-57.500
2.744,9.500,12.500,-66.500,-58.000
2.745,9.000,12.000,-66.500,-58.500
2.746,9.000,11.500,-67.000,-59.000
2.747,9.000,11.000,-67.000,-59.000
2.748,9.500,11.000,-67.000,-59.500
2.749,11.000,11.000,-67.500,-59.500
2.750,13.500,11.000,-67.500,-59.500
2.751,16.500,11.500,-67.500,-59.500
2.752,18.500,11.500,-67.500,-59.500
2.753,18.500,11.500,-67.500,-59.500
2.754,17.500,12.000,-68.000,-59.000
2.755,15.500,12.000,-68.000,-59.000
2.756,13.500,12.500,-68.000,-58.500
2.757,11.500,12.500,-67.500,-58.500
2.758,10.000,13.000,-67.500,-58.500
2.759,8.500,13.000,-67.000,-58.000
2.760,7.000,13.000,-66.500,-58.000
2.761,6.500,12.500,-66.500,-58.000
2.762,6.500,12.500,-66.500,-58.500
2.763,7.000,12.000,-67.000,-58.500
2.764,7.500,12.000,-67.500,-59.000
2.765,8.000,11.500,-67.500,-59.500
2.766,8.000,11.500,-68.000,-60.000
2.767,8.000,11.500,-68.500,-60.500
2.768,8.000,11.500,-69.000,-61.000
2.769,8.000,11.500,-69.000,-61.500
2.770,8.500,11.500,-69.500,-62.000
2.771,9.000,11.500,-70.000,-62.500
2.772,9.000,11.500,-70.500,-62.500
2.773,8.000,11.000,-71.000,-63.000
2.774,7.000,10.500,-71.500,-63.500
2.775,5.500,10.500,-72.000,-64.000
2.776,4.000,10.000,-72.500,-64.500
2.777,3.000,9.500,-73.000,-64.500
2.778,3.500,9.500,-73.000,-64.500
2.779,5.000,9.000,-73.000,-64.500
2.780,7.000,8.500,-73.000,-64.500
2.781,8.500,8.500,-73.000,-64.000
2.782,9.500,7.500,-73.000,-63.500
2.783,10.000,7.000,-73.000,-63.000
2.784,9.500,6.500,-73.000,-63.000
2.785,9.500,6.000,-73.000,-62.000
2.786,9.000,6.000,-72.500,-61.500
2.787,9.000,6.000,-72.000,-60.000
2.788,9.000,6.000,-71.500,-59.000
2.789,8.500,6.500,-70.500,-57.500
2.790,9.000,7.000,-69.000,-55.500
2.791,8.500,8.000,-67.500,-53.500
2.792,8.000,8.500,-66.000,-51.000
2.793,7.000,9.000,-64.500,-48.500
2.794,6.000,10.000,-63.000,-46.000
2.795,5.000,10.500,-61.500,-43.500
2.796,5.000,11.000,-60.000,-41.500
2.797,5.000,11.500,-59.000,-39.500
2.798,5.000,11.500,-58.000,-38.000
2.799,4.500,12.000,-57.000,-36.500
2.800,4.000,12.000,-56.500,-36.000
2.801,3.500,12.500,-56.000,-35.500
2.802,2.500,12.500,-56.000,-36.000
2.803,1.000,12.500,-56.500,-37.500
2.804,-0.500,12.500,-57.500,-39.500
2.805,-2.000,12.500,-59.000,-42.000
2.806,-2.500,13.000,-60.000,-45.000
2.807,-2.500,13.500,-61.500,-48.000
2.808,-1.500,14.500,-62.500,-50.500
2.809,-0.500,16.000,-63.500,-52.500
2.810,0.000,17.500,-64.000,-54.000
2.811,0.500,19.000,-64.500,-54.500
2.812,0.500,20.000,-64.500,-54.500
2.813,0.000,21.500,-64.000,-54.000
2.814,-1.000,22.500,-63.500,-53.000
2.815,-2.500,23.500,-63.000,-52.500
2.816,-4.000,24.000,-62.000,-51.500
2.817,-3.500,24.500,-61.500,-51.000
2.818,-1.500,24.500,-61.500,-50.500
2.819,1.000,24.500,-61.000,-50.500
2.820,2.500,24.000,-61.500,-50.500
2.821,3.500,23.500,-62.000,-51.000
2.822,4.000,22.000,-63.000,-52.000
2.823,4.000,20.500,-64.000,-53.500
2.824,4.000,19.000,-65.500,-54.500
2.825,3.000,17.500,-66.500,-56.000
2.826,2.000,16.500,-67.500,-57.000
2.827,1.500,15.500,-68.000,-57.500
2.828,0.500,15.500,-68.500,-58.000
2.829,0.500,15.500,-69.000,-58.500
2.830,0.500,16.500,-69.000,-58.000
2.831,1.500,17.000,-68.500,-57.500
2.832,2.500,18.000,-68.000,-57.000
2.833,3.500,19.000,-67.500,-56.000
2.834,3.500,20.000,-67.000,-55.500
2.835,3.500,20.500,-66.500,-54.500
2.836,2.500,21.000,-66.000,-54.000
2.837,1.500,21.000,-65.500,-53.500
2.838,1.000,21.000,-65.500,-53.500
2.839,0.500,21.000,-65.500,-53.500
2.840,1.000,21.000,-65.500,-54.000
2.841,1.500,20.500,-66.000,-54.000
2.842,2.500,20.500,-66.500,-54.500
2.843,3.000,20.000,-67.000,-55.000
2.844,3.000,19.500,-67.500,-55.500
2.845,2.500,19.000,-68.000,-56.000
2.846,2.000,18.500,-68.000,-56.500
2.847,2.500,18.500,-68.500,-56.500
2.848,3.500,18.000,-69.000,-57.000
2.849,5.000,18.000,-69.000,-57.000
2.850,5.500,18.000,-69.500,-57.500
2.851,4.500,18.000,-69.500,-57.500
2.852,3.000,18.000,-69.500,-57.500
2.853,0.500,18.000,-69.500,-57.500
2.854,-1.000,18.500,-69.500,-57.000
2.855,-2.500,18.500,-69.500,-57.000
2.856,-3.500,19.000,-69.000,-56.500
2.857,-4.000,19.000,-69.000,-56.500
2.858,-4.000,19.500,-68.500,-56.000
2.859,-3.500,19.500,-68.000,-55.500
2.860,-2.500,19.500,-67.500,-55.500
2.861,-1.500,20.000,-67.500,-55.500
2.862,-1.500,19.500,-67.500,-55.500
2.863,-1.500,19.500,-67.500,-55.500
2.864,-2.000,19.500,-67.500,-55.500
2.865,-2.500,19.000,-67.500,-56.000
2.866,-3.000,19.000,-68.000,-56.000
2.867,-2.500,19.000,-68.000,-56.500
2.868,-2.000,18.500,-68.500,-57.000
2.869,-2.000,18.500,-69.000,-57.000
2.870,-2.000,18.000,-69.500,-57.500
2.871,-1.000,18.000,-69.500,-57.500
2.872,1.500,18.000,-69.500,-57.000
2.873,4.500,18.500,-69.000,-56.500
2.874,8.000,19.000,-68.500,-56.000
2.875,10.000,19.500,-68.000,-55.500
2.876,11.000,20.000,-68.000,-55.500
2.877,10.000,20.500,-67.500,-55.000
2.878,8.500,21.000,-67.500,-54.500
2.879,7.000,21.500,-67.000,-54.500
2.880,5.000,21.500,-67.000,-54.000
2.881,3.000,21.500,-66.500,-54.000
2.882,2.000,21.500,-66.500,-54.500
2.883,1.000,21.000,-67.000,-55.000
2.884,1.500,20.500,-67.000,-55.500
2.885,2.000,20.500,-67.500,-56.000
2.886,3.000,20.000,-68.000,-56.500
2.887,3.000,19.500,-68.500,-57.000
2.888,2.500,19.500,-68.500,-57.000
2.889,1.000,19.500,-68.500,-57.500
2.890,-1.500,19.500,-68.500,-57.500
2.891,-4.000,20.000,-68.500,-57.000
2.892,-5.500,20.000,-68.500,-57.000
2.893,-5.000,20.500,-68.000,-56.500
2.894,-2.500,20.500,-68.000,-56.000
2.895,1.000,21.000,-68.000,-55.500
2.896,4.000,21.000,-67.500,-55.000
2.897,6.000,21.500,-67.500,-55.000
2.898,7.000,21.500,-67.500,-55.000
2.899,6.500,21.500,-67.500,-54.500
2.900,5.500,21.000,-67.500,-54.500
2.901,4.500,21.000,-67.500,-54.500
2.902,4.000,21.000,-67.500,-54.500
2.903,4.500,20.500,-67.500,-54.500
2.904,6.000,20.500,-68.000,-55.000
2.905,7.000,20.000,-68.500,-55.500
2.906,7.000,20.000,-68.500,-55.500
2.907,6.500,20.000,-69.000,-56.000
2.908,5.500,20.000,-69.000,-56.000
2.909,5.000,20.000,-69.000,-56.500
2.910,4.000,20.500,-68.500,-56.500
2.911,2.500,21.000,-68.500,-56.000
2.912,-0.500,21.500,-68.000,-56.000
2.913,-3.500,22.000,-68.000,-56.000
2.914,-6.500,22.000,-68.000,-56.000
2.915,-8.000,22.000,-68.000,-56.000
2.916,-8.500,22.500,-68.000,-55.500
2.917,-8.500,22.500,-67.500,-55.000
2.918,-8.500,22.500,-67.500,-55.000
2.919,-9.000,23.000,-67.500,-54.500
2.920,-10.000,23.000,-67.000,-54.500
2.921,-10.500,23.000,-67.000,-54.500
2.922,-10.000,23.000,-67.000,-55.000
2.923,-9.500,23.000,-67.000,-55.000
2.924,-8.500,23.000,-66.500,-55.000
2.925,-8.500,23.000,-66.500,-55.000
2.926,-9.000,23.000,-66.000,-55.000
2.927,-10.000,23.000,-66.500,-55.500
2.928,-10.000,23.000,-66.500,-55.500
2.929,-8.500,22.500,-67.000,-56.000
2.930,-7.000,22.500,-67.000,-56.000
2.931,-5.500,22.500,-67.000,-56.000
2.932,-4.500,22.500,-67.000,-56.000
2.933,-4.500,23.000,-67.000,-56.000
2.934,-4.000,23.000,-67.000,-56.000
2.935,-3.500,22.500,-67.000,-55.500
2.936,-2.000,22.500,-67.000,-55.500
2.937,0.000,22.500,-66.500,-55.000
2.938,2.500,23.000,-66.500,-55.000
2.939,5.000,23.000,-66.000,-54.500
2.940,5.500,23.500,-66.000,-54.500
2.941,4.000,23.500,-65.500,-54.500
2.942,1.500,23.500,-65.500,-54.500
2.943,-1.000,23.000,-65.500,-55.000
2.944,-2.000,23.000,-65.500,-55.000
2.945,-1.500,23.000,-65.500,-55.500
2.946,-0.500,22.500,-66.000,-55.500
2.947,0.000,22.500,-66.000,-56.000
2.948,-0.500,22.500,-66.500,-56.000
2.949,-2.000,22.500,-66.500,-56.500
2.950,-3.000,22.000,-67.000,-56.500
2.951,-3.000,22.000,-67.000,-56.500
2.952,-2.500,22.000,-67.500,-57.000
2.953,-1.500,22.000,-67.500,-57.000
2.954,-1.500,22.500,-67.500,-57.000
2.955,-1.500,22.500,-67.500,-57.000
2.956,-2.000,23.000,-67.000,-56.500
2.957,-4.000,23.500,-67.000,-56.000
2.958,-6.500,24.000,-66.500,-55.500
2.959,-8.000,24.000,-66.000,-55.000
2.960,-8.000,24.500,-65.500,-54.500
2.961,-6.500,24.500,-65.000,-54.500
2.962,-5.500,24.500,-65.000,-54.500
2.963,-4.500,24.000,-65.000,-55.000
2.964,-4.500,24.000,-65.000,-55.000
2.965,-4.500,24.000,-65.000,-55.500
2.966,-4.500,24.000,-65.000,-55.500
2.967,-4.500,24.000,-65.000,-55.500
2.968,-4.500,24.000,-65.000,-56.000
2.969,-4.000,24.000,-65.000,-56.000
2.970,-4.000,24.000,-65.000,-56.000
2.971,-4.000,24.500,-65.000,-55.500
2.972,-4.000,25.000,-65.000,-55.500
2.973,-4.500,25.000,-65.000,-55.000
2.974,-4.500,25.500,-65.000,-54.500
2.975,-5.000,25.500,-64.500,-53.500
2.976,-4.500,25.500,-64.500,-53.000
2.977,-3.000,25.500,-64.000,-52.500
2.978,-1.000,26.000,-64.000,-52.000
2.979,0.500,26.000,-63.500,-52.000
2.980,0.000,26.000,-63.500,-52.000
2.981,-1.500,26.000,-63.500,-52.000
2.982,-3.000,25.500,-63.000,-52.000
2.983,-3.000,25.500,-63.500,-52.500
2.984,-1.500,25.000,-63.500,-53.000
2.985,0.500,25.000,-64.000,-53.500
2.986,2.000,24.500,-64.500,-54.000
2.987,2.500,24.500,-65.000,-54.500
2.988,3.000,24.500,-65.000,-54.500
2.989,3.500,24.500,-65.000,-54.500
2.990,3.500,25.000,-65.000,-54.500
2.991,3.000,25.000,-64.500,-54.000
2.992,2.000,25.500,-64.000,-53.500
2.993,0.500,26.000,-64.000,-53.000
2.994,-1.000,26.500,-63.500,-52.500
2.995,-2.500,27.000,-63.000,-52.000
2.996,-4.000,27.000,-62.500,-51.500
2.997,-4.500,27.000,-62.500,-51.000
2.998,-5.000,27.000,-62.000,-51.000
2.999,-4.500,27.000,-62.000,-51.000
3.000,-4.000,27.000,-62.000,-51.000
3.001,-3.500,27.000,-62.000,-51.000
3.002,-2.500,26.500,-62.000,-51.000
3.003,-0.500,26.000,-62.500,-51.000
3.004,1.500,26.000,-62.500,-51.000
3.005,3.000,25.500,-62.500,-51.500
3.006,4.500,25.000,-62.500,-51.500
3.007,4.500,24.500,-63.000,-52.000
3.008,4.500,24.500,-63.000,-52.000
3.009,3.500,24.500,-63.000,-52.500
3.010,2.000,24.500,-63.000,-52.500
3.011,1.000,24.500,-63.000,-52.500
3.012,0.500,25.000,-63.000,-52.000
3.013,1.000,25.000,-63.000,-52.000
3.014,2.000,25.500,-62.500,-51.500
3.015,3.000,26.000,-62.500,-51.000
3.016,5.000,26.000,-62.500,-50.500
3.017,7.000,26.500,-62.000,-49.500
3.018,8.500,26.500,-62.000,-49.000
3.019,9.500,26.500,-61.500,-49.000
3.020,9.500,26.500,-61.500,-48.500
3.021,9.000,26.500,-61.000,-48.500
3.022,9.000,26.500,-61.000,-48.000
3.023,9.500,26.500,-60.500,-47.500
3.024,10.000,26.500,-60.000,-47.500
3.025,10.000,26.500,-60.000,-47.500
3.026,10.000,27.000,-59.500,-47.000
3.027,9.500,27.500,-59.500,-47.000
3.028,8.500,28.000,-59.000,-47.000
3.029,8.000,28.500,-59.000,-47.000
3.030,8.000,28.500,-59.000,-47.000
3.031,9.000,29.000,-58.500,-47.000
3.032,9.500,29.000,-58.500,-47.000
3.033,9.500,29.000,-58.500,-46.500
3.034,9.000,29.500,-58.000,-46.000
3.035,8.500,29.500,-58.000,-45.500
3.036,8.000,30.000,-57.500,-45.000
3.037,8.000,30.000,-57.500,-44.500
3.038,8.500,30.000,-57.000,-44.000
3.039,9.500,30.000,-57.000,-44.000
3.040,11.000,30.000,-57.500,-44.000
3.041,12.000,29.500,-57.500,-44.000
3.042,12.500,29.000,-57.500,-44.000
3.043,12.000,29.000,-58.000,-44.000
3.044,12.000,28.500,-58.000,-44.000
3.045,11.500,28.500,-58.000,-44.500
3.046,11.500,28.000,-58.000,-44.500
3.047,11.000,28.000,-58.000,-44.500
3.048,10.500,28.500,-58.000,-44.500
3.049,9.000,29.000,-57.500,-44.500
3.050,7.000,29.500,-57.000,-44.000
3.051,4.000,30.000,-56.500,-43.500
3.052,2.000,30.500,-56.000,-43.000
3.053,0.500,31.000,-55.500,-42.500
3.054,-0.500,31.500,-55.500,-42.000
3.055,-1.000,32.000,-55.000,-41.500
3.056,0.000,32.500,-55.000,-41.000
3.057,1.500,32.500,-55.000,-41.000
3.058,4.000,32.500,-54.500,-40.500
3.059,7.000,32.500,-54.500,-40.500
3.060,9.500,32.500,-54.500,-40.000
3.061,12.000,32.000,-54.500,-40.000
3.062,13.000,31.500,-54.500,-40.500
3.063,13.000,31.500,-55.000,-40.500
3.064,11.500,31.000,-55.000,-41.000
3.065,9.000,30.500,-55.500,-41.500
3.066,6.000,30.500,-56.000,-42.000
3.067,3.500,30.000,-56.000,-42.500
3.068,1.500,30.000,-56.500,-43.000
3.069,1.500,30.000,-56.500,-43.500
3.070,3.000,30.000,-56.500,-43.500
3.071,4.000,30.000,-56.500,-43.500
3.072,5.000,30.500,-56.500,-44.000
3.073,4.500,30.500,-57.000,-44.000
3.074,4.500,31.000,-57.000,-44.000
3.075,4.500,31.000,-57.000,-44.000
3.076,4.500,31.000,-57.000,-44.000
3.077,4.000,31.000,-57.500,-44.500
3.078,3.500,31.000,-57.500,-44.500
3.079,2.500,31.000,-57.500,-45.000
3.080,2.000,31.000,-57.500,-45.000
3.081,2.000,31.000,-58.000,-45.500
3.082,3.000,31.500,-58.000,-45.500
3.083,4.500,31.500,-58.000,-46.000
3.084,7.000,31.000,-58.000,-46.000
3.085,9.000,31.000,-58.000,-46.500
3.086,11.000,30.500,-58.500,-46.500
3.087,12.500,30.000,-58.500,-47.000
3.088,14.000,30.000,-59.000,-47.500
3.089,15.000,30.000,-59.000,-48.000
3.090,15.500,30.000,-59.500,-48.500
3.091,15.000,29.500,-60.000,-49.000
3.092,14.500,29.500,-60.000,-49.000
3.093,14.000,29.500,-60.500,-49.000
3.094,14.000,29.500,-60.500,-49.000
3.095,13.500,29.500,-60.500,-49.000
3.096,13.000,30.000,-60.000,-48.500
3.097,12.500,30.000,-60.000,-48.000
3.098,11.500,30.500,-60.000,-48.000
3.099,11.500,30.500,-60.000,-48.000
3.100,12.000,30.500,-60.000,-48.000
3.101,13.000,30.500,-60.000,-48.500
3.102,13.500,30.000,-60.500,-48.500
3.103,14.000,30.000,-60.500,-49.000
3.104,14.000,30.000,-61.000,-49.500
3.105,14.500,29.500,-61.000,-50.000
3.106,15.000,30.000,-61.000,-50.000
3.107,15.000,30.000,-61.000,-50.500
3.108,15.000,30.000,-61.500,-50.500
3.109,15.000,30.000,-61.500,-50.500
3.110,14.500,30.500,-61.500,-50.500
3.111,13.000,30.500,-61.500,-50.500
3.112,12.500,31.000,-61.000,-50.000
3.113,12.000,31.500,-61.000,-50.000
3.114,12.000,32.000,-60.500,-49.500
3.115,12.000,32.000,-60.000,-49.500
3.116,12.000,32.500,-60.000,-49.000
3.117,12.000,33.000,-59.500,-48.500
3.118,11.000,33.000,-59.500,-48.000
3.119,10.000,33.000,-59.500,-48.000
3.120,8.000,33.000,-59.500,-47.500
3.121,7.000,33.000,-60.000,-47.500
3.122,7.000,33.000,-60.000,-47.500
3.123,8.000,32.500,-60.500,-48.000
3.124,9.500,32.000,-60.500,-48.000
3.125,10.500,31.500,-60.500,-48.500
3.126,10.000,31.500,-61.000,-49.000
3.127,9.000,31.000,-61.000,-49.000
3.128,9.000,31.000,-61.500,-49.500
3.129,9.500,31.000,-61.500,-49.500
3.130,11.500,31.000,-61.500,-50.000
3.131,13.500,31.500,-62.000,-49.500
3.132,14.500,31.500,-61.500,-49.500
3.133,14.500,32.000,-61.500,-49.000
3.134,14.500,32.000,-61.500,-49.000
3.135,15.500,32.500,-61.500,-48.500
3.136,17.000,32.500,-61.000,-48.000
3.137,18.500,33.000,-61.000,-47.500
3.138,19.000,33.500,-60.500,-47.000
3.139,17.500,34.000,-60.000,-47.000
3.140,15.000,34.000,-59.500,-46.500
3.141,12.000,34.000,-59.500,-46.500
3.142,7.500,34.000,-59.000,-46.500
3.143,3.000,34.000,-59.500,-47.000
3.144,-0.500,33.500,-59.500,-47.000
3.145,-2.000,33.000,-60.000,-47.500
3.146,-1.500,32.000,-60.500,-48.000
3.147,-0.500,32.000,-60.500,-48.500
3.148,1.500,31.500,-61.000,-49.000
3.149,2.500,31.000,-61.500,-49.500
3.150,2.500,31.000,-62.000,-50.000
3.151,2.500,31.000,-62.000,-50.000
3.152,2.500,31.000,-62.000,-50.000
3.153,3.000,31.500,-62.000,-50.000
3.154,4.000,31.500,-62.000,-49.500
3.155,5.500,32.000,-62.000,-49.500
3.156,6.500,32.500,-61.500,-49.000
3.157,7.500,33.000,-61.000,-49.000
3.158,8.500,33.000,-61.000,-48.500
3.159,8.500,33.500,-60.500,-48.500
3.160,8.000,34.000,-60.000,-48.000
3.161,6.000,34.500,-60.000,-48.000
3.162,4.000,34.000,-60.000,-47.500
3.163,2.000,33.500,-60.500,-48.000
3.164,1.000,33.000,-60.500,-48.000
3.165,1.000,32.000,-61.500,-48.500
3.166,1.000,31.500,-61.500,-49.000
3.167,1.500,31.000,-62.000,-49.000
3.168,2.000,31.000,-62.500,-49.500
3.169,3.000,31.000,-62.500,-49.500
3.170,5.000,31.500,-62.500,-49.500
3.171,7.000,32.000,-62.500,-50.000
3.172,8.500,32.500,-62.500,-50.000
3.173,8.000,33.000,-62.000,-49.500
3.174,5.500,34.000,-62.000,-49.500
3.175,3.000,34.500,-61.500,-49.000
3.176,1.000,35.000,-61.000,-48.500
3.177,0.500,35.500,-60.500,-48.000
3.178,0.500,36.000,-60.500,-47.500
3.179,1.000,36.000,-60.000,-47.000
3.180,1.500,36.000,-60.500,-47.000
3.181,2.500,36.000,-60.500,-47.000
3.182,3.000,35.500,-60.500,-47.000
3.183,4.000,35.500,-60.500,-47.000
3.184,4.500,35.000,-60.500,-47.500
3.185,4.000,35.000,-60.500,-47.500
3.186,3.500,35.000,-60.000,-47.500
3.187,4.500,35.000,-60.000,-48.000
3.188,7.000,35.000,-60.000,-48.000
3.189,9.500,35.000,-60.500,-48.500
3.190,10.500,35.000,-61.000,-48.500
3.191,10.000,35.000,-61.000,-48.500
3.192,8.500,35.500,-61.500,-48.500
3.193,6.500,35.500,-62.000,-48.500
3.194,4.500,36.000,-62.000,-48.000
3.195,3.000,36.000,-61.500,-47.500
3.196,3.500,36.500,-61.500,-47.000
3.197,4.500,37.000,-61.000,-46.500
3.198,5.500,37.000,-60.500,-46.000
3.199,6.000,37.000,-60.000,-45.500
3.200,5.500,37.000,-60.000,-45.500
3.201,4.500,37.000,-60.000,-46.000
3.202,3.000,37.000,-60.000,-46.000
3.203,1.500,36.500,-60.000,-46.500
3.204,0.000,36.500,-60.500,-46.500
3.205,-0.500,36.500,-60.500,-47.000
3.206,-0.500,36.000,-60.500,-47.000
3.207,0.000,36.000,-61.000,-47.500
3.208,0.500,36.000,-61.000,-47.500
3.209,1.000,36.500,-61.000,-47.500
3.210,1.000,36.500,-61.000,-47.500
3.211,1.500,37.000,-61.000,-47.000
3.212,2.000,37.000,-61.000,-46.500
3.213,2.000,37.500,-60.500,-46.000
3.214,2.000,38.000,-60.500,-45.500
3.215,1.500,38.500,-60.500,-45.500
3.216,2.000,38.500,-60.000,-45.000
3.217,2.500,39.000,-60.000,-45.000
3.218,4.500,39.000,-60.000,-45.000
3.219,6.500,39.000,-60.000,-45.000
3.220,7.500,39.000,-60.000,-45.000
3.221,7.500,39.000,-60.500,-45.500
3.222,6.500,38.500,-60.500,-45.500
3.223,4.500,38.000,-61.000,-46.000
3.224,2.500,37.500,-61.500,-46.000
3.225,1.000,37.000,-61.500,-46.500
3.226,1.000,37.000,-62.000,-47.000
3.227,2.000,36.000,-62.500,-47.500
3.228,4.000,36.000,-62.500,-47.500
3.229,5.500,35.500,-63.000,-48.000
3.230,6.000,35.500,-63.000,-48.000
3.231,6.000,36.000,-62.500,-47.500
3.232,7.500,36.000,-62.500,-47.500
3.233,9.500,36.500,-62.000,-47.000
3.234,12.000,37.000,-61.500,-46.500
3.235,13.500,37.500,-61.000,-46.000
3.236,13.000,38.000,-60.500,-45.500
3.237,10.500,38.000,-60.500,-45.000
3.238,6.000,38.500,-60.000,-44.500
3.239,1.500,39.000,-59.500,-44.500
3.240,-3.500,39.500,-59.000,-44.000
3.241,-7.500,40.000,-58.500,-43.500
3.242,-10.000,40.000,-58.000,-43.500
3.243,-10.500,40.000,-58.000,-43.500
3.244,-9.500,40.000,-58.500,-44.000
3.245,-8.000,39.500,-59.000,-44.500
3.246,-6.000,39.000,-60.000,-45.000
3.247,-4.500,39.000,-60.500,-45.500
3.248,-3.500,38.500,-61.000,-46.000
3.249,-3.500,38.500,-61.000,-46.500
3.250,-3.500,39.000,-61.000,-46.500
3.251,-3.500,39.000,-61.000,-46.500
3.252,-4.000,39.000,-61.000,-46.500
3.253,-4.500,39.000,-61.000,-46.500
3.254,-5.000,38.500,-61.000,-46.500
3.255,-5.000,38.500,-61.500,-46.500
3.256,-5.000,38.000,-61.500,-46.000
3.257,-5.000,37.500,-61.500,-46.000
3.258,-5.000,37.000,-62.000,-46.000
3.259,-5.000,36.500,-62.500,-46.000
3.260,-5.000,36.000,-63.000,-46.500
3.261,-5.500,35.000,-63.500,-47.000
3.262,-5.000,34.000,-64.500,-48.000
3.263,-5.000,33.000,-65.000,-48.500
3.264,-5.500,32.500,-66.000,-49.000
3.265,-6.000,32.000,-66.000,-49.500
3.266,-5.500,32.000,-66.000,-49.500
3.267,-5.000,33.000,-65.500,-49.000
3.268,-5.000,34.000,-64.500,-48.500
3.269,-6.000,36.000,-63.500,-47.500
3.270,-7.000,37.500,-62.000,-46.500
3.271,-6.500,39.000,-61.500,-46.000
3.272,-5.000,40.000,-60.500,-45.500
3.273,-4.000,41.000,-60.000,-45.000
3.274,-3.500,42.000,-59.000,-44.500
3.275,-4.000,42.500,-59.000,-44.000
3.276,-5.000,43.000,-58.500,-43.500
3.277,-6.000,43.000,-58.500,-43.000
3.278,-5.500,43.000,-58.500,-42.500
3.279,-4.500,43.000,-58.500,-42.500
3.280,-3.500,42.500,-59.000,-42.500
3.281,-2.500,42.000,-59.500,-43.000
3.282,-2.500,41.000,-60.000,-43.500
3.283,-3.500,40.500,-60.500,-44.000
3.284,-5.500,40.000,-60.500,-44.500
3.285,-8.000,39.500,-61.000,-45.000
3.286,-9.500,39.500,-61.000,-45.000
3.287,-10.500,39.000,-61.500,-45.000
3.288,-10.500,39.000,-62.000,-45.500
3.289,-10.500,38.500,-62.000,-45.500
3.290,-10.500,38.500,-62.500,-45.500
3.291,-10.500,38.500,-62.500,-45.500
3.292,-10.500,38.500,-62.000,-45.500
3.293,-10.000,39.000,-62.000,-45.500
3.294,-9.000,39.500,-61.500,-45.000
3.295,-8.500,39.500,-61.000,-45.000
3.296,-8.000,40.000,-60.500,-44.500
3.297,-8.000,40.500,-60.500,-44.000
3.298,-7.500,40.500,-60.500,-43.500
3.299,-7.000,40.500,-60.500,-43.000
3.300,-6.000,40.500,-60.500,-43.000
3.301,-5.000,40.500,-60.500,-43.000
3.302,-3.500,40.500,-60.500,-43.000
3.303,-2.500,40.000,-60.500,-43.500
3.304,-1.500,40.000,-60.500,-44.000
3.305,-1.000,40.000,-61.000,-44.000
3.306,-1.000,39.500,-61.000,-44.500
3.307,-1.000,39.000,-61.500,-44.500
3.308,-1.000,39.000,-61.500,-44.500
3.309,0.000,38.500,-62.000,-44.500
3.310,2.000,38.000,-62.000,-45.000
3.311,4.000,38.000,-62.000,-45.000
3.312,6.500,38.500,-62.000,-44.500
3.313,8.000,39.000,-61.500,-44.500
3.314,8.500,39.500,-61.000,-43.500
3.315,8.000,40.500,-60.500,-43.000
3.316,7.000,41.000,-60.000,-42.500
3.317,5.500,41.500,-59.500,-42.000
3.318,3.500,42.000,-59.000,-41.500
3.319,1.500,42.000,-59.000,-41.500
3.320,0.000,42.000,-58.500,-41.500
3.321,-0.500,41.500,-59.000,-41.500
3.322,0.000,41.500,-59.000,-41.500
3.323,0.500,41.000,-59.000,-41.500
3.324,0.500,41.000,-59.000,-42.000
3.325,0.000,41.000,-59.500,-42.500
3.326,0.000,40.500,-59.500,-42.500
3.327,0.000,40.500,-59.500,-43.000
3.328,-0.500,40.000,-60.000,-43.500
3.329,-2.000,40.000,-60.000,-43.500
3.330,-3.500,40.000,-60.500,-43.500
3.331,-4.500,40.000,-60.500,-43.500
3.332,-4.500,40.000,-60.000,-43.000
3.333,-3.500,40.500,-60.000,-42.500
3.334,-3.000,40.500,-60.000,-42.500
3.335,-3.000,40.500,-60.000,-42.000
3.336,-2.500,40.500,-59.500,-41.500
3.337,-1.500,41.000,-59.500,-41.000
3.338,1.000,41.000,-59.000,-40.500
3.339,3.500,41.000,-58.500,-40.000
3.340,6.000,41.500,-58.500,-39.500
3.341,7.500,41.500,-58.000,-39.500
3.342,7.000,41.500,-58.000,-39.500
3.343,6.000,41.000,-58.000,-39.500
3.344,4.500,41.000,-58.000,-40.000
3.345,3.000,40.500,-58.500,-40.500
3.346,1.500,40.500,-58.500,-41.000
3.347,0.000,40.500,-59.000,-41.500
3.348,-1.000,40.500,-59.000,-42.000
3.349,-2.000,40.500,-59.000,-42.000
3.350,-1.500,41.000,-59.000,-42.000
3.351,-1.500,41.000,-59.000,-41.500
3.352,-1.000,41.500,-59.000,-41.500
3.353,-1.000,41.500,-58.500,-41.000
3.354,-0.500,42.000,-58.500,-40.500
3.355,0.500,42.500,-58.000,-40.000
3.356,1.500,42.500,-57.500,-39.000
3.357,2.500,42.500,-57.000,-38.500
3.358,2.500,42.500,-57.000,-38.500
3.359,1.000,42.500,-56.500,-38.000
3.360,-1.000,43.000,-56.500,-38.000
3.361,-3.000,43.000,-56.500,-37.500
3.362,-3.500,43.000,-56.500,-37.500
3.363,-3.500,43.000,-56.500,-37.500
3.364,-1.500,43.000,-56.500,-37.500
3.365,0.500,43.000,-56.500,-37.500
3.366,2.500,42.500,-56.500,-37.500
3.367,4.000,42.500,-56.000,-38.000
3.368,5.000,42.500,-56.500,-38.000
3.369,6.500,42.000,-56.500,-38.500
3.370,8.500,42.000,-56.500,-38.500
3.371,10.500,42.000,-57.000,-38.500
3.372,12.000,42.000,-57.500,-38.500
3.373,13.000,42.000,-57.500,-38.500
3.374,13.000,42.000,-58.000,-38.500
3.375,12.000,42.000,-58.000,-38.000
3.376,11.000,42.500,-57.500,-37.500
