'Elapsed time','AECG1','AECG2','AECG3','AECG4'
'seconds','uV','uV','uV','uV'
0.000,-206.000,-130.000,-106.500,-85.000
0.001,-207.500,-131.000,-107.500,-86.000
0.002,-208.500,-132.500,-108.500,-87.500
0.003,-210.000,-134.000,-110.000,-88.500
0.004,-212.000,-136.000,-112.000,-91.000
0.005,-215.000,-138.500,-114.500,-93.500
0.006,-217.500,-141.500,-117.500,-96.500
0.007,-220.500,-144.500,-120.000,-99.000
0.008,-223.500,-148.000,-123.500,-102.500
0.009,-227.000,-151.500,-127.500,-106.500
0.010,-230.000,-156.000,-132.000,-111.000
0.011,-232.500,-159.000,-135.000,-114.000
0.012,-233.000,-160.000,-136.500,-115.000
0.013,-231.000,-159.000,-135.500,-114.000
0.014,-227.500,-156.000,-132.500,-111.500
0.015,-223.500,-152.500,-129.500,-108.000
0.016,-220.500,-149.000,-125.500,-104.500
0.017,-218.000,-145.500,-122.500,-101.500
0.018,-216.500,-143.500,-120.000,-99.000
0.019,-217.000,-143.000,-119.000,-98.500
0.020,-219.000,-144.000,-120.000,-99.500
0.021,-222.000,-146.500,-122.000,-101.500
0.022,-225.500,-149.500,-125.000,-104.500
0.023,-228.500,-152.500,-128.000,-107.500
0.024,-230.500,-155.000,-130.000,-109.500
0.025,-231.500,-156.000,-130.500,-110.500
0.026,-231.000,-156.000,-130.500,-110.500
0.027,-230.500,-156.000,-130.500,-110.500
0.028,-231.000,-156.500,-131.000,-111.000
0.029,-232.000,-158.000,-132.500,-113.000
0.030,-234.000,-160.500,-135.500,-116.000
0.031,-236.000,-163.500,-138.500,-119.000
0.032,-237.000,-165.500,-140.500,-121.000
0.033,-236.500,-165.500,-141.000,-121.500
0.034,-234.000,-163.500,-139.000,-119.500
0.035,-230.500,-160.000,-135.500,-116.000
0.036,-227.500,-156.500,-132.000,-112.500
0.037,-224.500,-153.000,-129.000,-109.500
0.038,-222.500,-149.500,-125.500,-106.500
0.039,-221.000,-147.000,-123.000,-103.500
0.040,-220.500,-145.500,-121.500,-102.000
0.041,-222.500,-147.000,-123.000,-103.000
0.042,-226.500,-151.000,-127.000,-107.000
0.043,-233.500,-157.500,-133.500,-113.500
0.044,-241.500,-165.500,-141.500,-122.000
0.045,-251.000,-175.000,-151.500,-132.000
0.046,-261.000,-185.500,-162.000,-142.500
0.047,-271.000,-196.000,-172.500,-153.500
0.048,-280.500,-205.500,-182.500,-164.000
0.049,-288.500,-214.500,-191.500,-173.500
0.050,-295.000,-221.500,-199.000,-181.000
0.051,-298.500,-226.500,-204.000,-186.500
0.052,-298.000,-226.500,-204.000,-186.500
0.053,-291.500,-221.500,-198.500,-181.500
0.054,-280.000,-211.000,-188.000,-170.500
0.055,-265.000,-196.000,-172.500,-155.000
0.056,-246.000,-177.000,-153.000,-135.500
0.057,-223.500,-153.500,-129.500,-111.500
0.058,-197.000,-126.000,-101.500,-83.500
0.059,-167.500,-95.500,-69.500,-52.000
0.060,-135.500,-62.000,-35.500,-18.000
0.061,-101.000,-27.000,0.500,18.500
0.062,-65.500,9.000,37.500,55.500
0.063,-30.000,45.500,74.500,93.000
0.064,7.000,82.500,112.500,131.000
0.065,45.000,121.000,151.500,170.500
0.066,86.000,162.500,194.000,213.000
0.067,131.000,207.500,239.500,259.000
0.068,178.500,255.500,288.000,308.000
0.069,228.500,305.000,338.000,358.500
0.070,278.500,355.000,388.500,409.500
0.071,328.500,404.500,439.000,460.000
0.072,375.000,451.000,486.000,507.000
0.073,413.500,489.500,524.500,545.500
0.074,439.500,515.500,550.500,571.500
0.075,450.000,526.500,561.000,581.500
0.076,445.000,521.500,556.000,576.000
0.077,426.500,504.000,537.500,557.500
0.078,398.500,476.500,510.000,530.000
0.079,365.500,444.000,477.000,496.500
0.080,329.500,408.500,441.500,461.000
0.081,292.500,371.500,404.000,423.500
0.082,255.000,334.500,366.500,386.000
0.083,218.000,297.500,329.000,348.500
0.084,181.000,259.500,291.000,310.000
0.085,142.500,221.000,252.000,270.500
0.086,103.500,181.500,212.000,230.000
0.087,64.500,141.500,171.500,189.500
0.088,25.000,101.000,130.500,148.000
0.089,-14.000,61.000,90.000,107.500
0.090,-51.000,23.500,51.500,68.500
0.091,-84.000,-11.000,17.000,33.500
0.092,-112.500,-41.000,-13.500,3.500
0.093,-136.500,-66.500,-39.500,-23.000
0.094,-158.000,-88.500,-62.000,-45.500
0.095,-177.500,-108.500,-82.000,-66.000
0.096,-195.500,-126.500,-100.000,-84.000
0.097,-211.000,-141.500,-115.500,-99.500
0.098,-225.000,-155.000,-128.500,-113.500
0.099,-237.500,-167.000,-140.500,-125.500
0.100,-248.500,-177.500,-150.500,-136.000
0.101,-256.500,-185.000,-158.000,-143.000
0.102,-260.500,-189.000,-161.000,-147.000
0.103,-261.000,-189.000,-161.000,-147.000
0.104,-258.000,-186.000,-158.000,-144.000
0.105,-253.000,-181.500,-153.000,-139.000
0.106,-248.000,-177.000,-148.500,-134.500
0.107,-244.500,-173.500,-145.000,-131.000
0.108,-242.000,-171.500,-143.500,-129.500
0.109,-240.500,-170.500,-142.500,-128.500
0.110,-239.500,-169.500,-142.500,-128.000
0.111,-237.500,-168.500,-141.500,-127.000
0.112,-235.000,-167.000,-140.000,-125.500
0.113,-232.000,-164.500,-138.000,-123.500
0.114,-228.000,-161.000,-134.500,-120.000
0.115,-223.500,-157.000,-130.000,-116.000
0.116,-218.500,-151.500,-125.000,-111.000
0.117,-214.500,-147.500,-120.000,-106.500
0.118,-213.000,-145.000,-117.500,-104.000
0.119,-214.000,-145.000,-117.500,-104.000
0.120,-217.500,-147.500,-119.500,-106.500
0.121,-222.000,-151.500,-123.000,-110.000
0.122,-226.500,-155.500,-126.500,-114.000
0.123,-229.500,-159.000,-129.500,-117.500
0.124,-232.000,-161.000,-131.500,-119.500
0.125,-233.000,-162.500,-133.000,-121.000
0.126,-234.000,-163.500,-134.000,-122.500
0.127,-234.500,-164.000,-135.000,-123.500
0.128,-235.500,-165.500,-136.500,-125.000
0.129,-237.000,-168.000,-139.000,-127.500
0.130,-240.000,-171.000,-142.000,-131.500
0.131,-242.500,-174.500,-145.500,-135.000
0.132,-243.500,-176.500,-148.000,-137.000
0.133,-243.500,-177.000,-148.500,-137.500
0.134,-242.000,-175.500,-147.500,-136.500
0.135,-240.000,-173.500,-146.000,-135.000
0.136,-238.000,-171.000,-143.500,-132.500
0.137,-235.000,-168.000,-140.000,-129.000
0.138,-232.000,-164.000,-136.000,-125.000
0.139,-229.500,-160.500,-132.000,-121.000
0.140,-228.000,-158.500,-130.000,-119.000
0.141,-228.500,-158.500,-129.500,-118.500
0.142,-230.000,-159.500,-131.000,-119.500
0.143,-231.500,-161.000,-132.500,-121.000
0.144,-232.500,-162.000,-133.500,-122.000
0.145,-233.000,-162.000,-134.000,-122.500
0.146,-233.500,-163.000,-135.000,-123.500
0.147,-234.500,-164.000,-136.500,-125.000
0.148,-235.500,-165.000,-138.000,-127.000
0.149,-235.500,-165.500,-138.500,-128.000
0.150,-234.000,-165.000,-138.500,-128.500
0.151,-232.500,-164.500,-138.500,-128.500
0.152,-232.000,-164.500,-139.500,-129.500
0.153,-232.000,-165.500,-141.000,-131.500
0.154,-232.500,-166.500,-142.500,-133.500
0.155,-232.000,-166.000,-143.000,-134.500
0.156,-230.000,-164.000,-141.000,-133.000
0.157,-227.000,-160.500,-137.500,-130.000
0.158,-225.000,-157.500,-134.500,-126.500
0.159,-224.500,-155.500,-132.000,-124.000
0.160,-225.000,-155.500,-131.000,-123.000
0.161,-226.500,-156.500,-131.000,-122.500
0.162,-228.000,-158.000,-131.000,-122.000
0.163,-229.500,-159.000,-131.000,-121.000
0.164,-230.500,-160.000,-131.000,-120.000
0.165,-232.000,-161.500,-131.500,-119.500
0.166,-234.500,-164.000,-133.000,-120.500
0.167,-237.500,-167.000,-135.500,-123.000
0.168,-240.000,-169.500,-137.500,-125.500
0.169,-241.500,-171.500,-139.500,-128.000
0.170,-242.000,-172.500,-140.500,-130.000
0.171,-242.500,-173.000,-141.500,-131.500
0.172,-241.500,-172.500,-141.500,-132.500
0.173,-239.000,-171.000,-140.500,-132.000
0.174,-235.000,-167.500,-137.500,-130.000
0.175,-230.000,-162.500,-133.500,-126.500
0.176,-226.000,-158.000,-130.000,-123.000
0.177,-224.000,-155.000,-127.000,-121.000
0.178,-223.500,-153.500,-126.000,-120.000
0.179,-224.500,-153.500,-126.000,-120.000
0.180,-226.000,-154.500,-126.500,-121.000
0.181,-228.000,-156.000,-128.000,-122.000
0.182,-231.000,-158.000,-130.000,-124.000
0.183,-234.000,-161.000,-132.500,-126.500
0.184,-237.000,-164.000,-135.500,-129.500
0.185,-240.000,-167.000,-138.500,-132.000
0.186,-242.000,-169.500,-141.000,-134.000
0.187,-243.000,-171.000,-142.500,-135.500
0.188,-243.000,-171.500,-143.000,-136.500
0.189,-242.500,-171.500,-143.000,-136.500
0.190,-241.500,-171.500,-143.000,-137.000
0.191,-241.000,-171.500,-143.500,-137.000
0.192,-239.500,-171.000,-143.500,-137.000
0.193,-238.000,-169.500,-142.500,-136.000
0.194,-235.000,-167.000,-140.500,-133.500
0.195,-231.000,-163.500,-137.000,-130.000
0.196,-227.000,-159.000,-132.500,-125.500
0.197,-222.000,-153.500,-127.500,-120.000
0.198,-218.000,-149.000,-122.500,-115.500
0.199,-216.000,-145.500,-119.000,-112.000
0.200,-215.500,-144.000,-118.000,-111.000
0.201,-217.500,-145.000,-118.500,-112.000
0.202,-220.500,-147.500,-120.500,-114.000
0.203,-223.500,-150.000,-123.500,-117.000
0.204,-226.500,-153.500,-126.500,-120.000
0.205,-230.000,-157.000,-130.000,-123.500
0.206,-233.000,-160.500,-133.500,-127.000
0.207,-235.000,-163.000,-136.000,-129.500
0.208,-235.500,-164.500,-137.500,-130.500
0.209,-235.000,-164.000,-137.500,-131.000
0.210,-233.500,-163.500,-137.000,-130.500
0.211,-232.500,-163.000,-136.500,-130.500
0.212,-232.500,-163.500,-137.500,-131.000
0.213,-232.500,-164.000,-138.000,-131.500
0.214,-231.500,-163.500,-137.500,-131.500
0.215,-229.500,-162.000,-136.000,-130.000
0.216,-227.000,-159.000,-133.000,-127.500
0.217,-224.000,-155.500,-130.000,-124.000
0.218,-221.500,-152.500,-127.000,-121.000
0.219,-221.000,-150.500,-125.000,-119.000
0.220,-221.000,-149.500,-124.000,-118.000
0.221,-221.000,-148.500,-123.000,-117.000
0.222,-220.000,-147.500,-122.000,-115.500
0.223,-219.000,-146.000,-120.500,-114.000
0.224,-218.000,-145.000,-119.000,-112.500
0.225,-217.500,-144.500,-119.000,-112.000
0.226,-218.000,-145.500,-119.500,-113.000
0.227,-219.500,-147.500,-121.500,-115.000
0.228,-223.000,-151.000,-125.000,-119.000
0.229,-227.000,-155.500,-129.500,-123.500
0.230,-232.000,-161.000,-135.000,-129.000
0.231,-235.500,-165.500,-139.500,-133.500
0.232,-237.000,-167.500,-142.000,-135.500
0.233,-234.500,-166.000,-140.500,-134.000
0.234,-229.500,-161.000,-136.000,-129.500
0.235,-223.000,-154.500,-129.500,-123.000
0.236,-217.500,-148.500,-123.500,-117.000
0.237,-213.000,-143.500,-118.000,-112.000
0.238,-210.500,-139.500,-114.000,-108.000
0.239,-209.500,-137.500,-112.000,-105.500
0.240,-210.000,-137.000,-111.500,-105.000
0.241,-211.500,-137.500,-112.000,-106.000
0.242,-213.000,-138.500,-112.500,-106.500
0.243,-213.000,-138.500,-112.500,-106.000
0.244,-212.500,-137.500,-111.500,-105.000
0.245,-211.500,-137.000,-111.000,-104.500
0.246,-212.000,-137.500,-111.500,-105.000
0.247,-213.500,-139.000,-113.500,-107.500
0.248,-216.000,-142.000,-116.500,-110.000
0.249,-218.000,-144.500,-119.000,-113.000
0.250,-219.000,-146.500,-121.000,-115.000
0.251,-219.000,-147.500,-122.500,-116.500
0.252,-218.500,-147.500,-122.500,-116.500
0.253,-216.500,-146.500,-121.500,-115.500
0.254,-213.500,-143.500,-119.000,-113.000
0.255,-209.000,-139.000,-115.000,-108.500
0.256,-204.000,-133.500,-109.500,-103.000
0.257,-200.000,-128.500,-105.000,-98.000
0.258,-197.500,-125.000,-101.000,-94.000
0.259,-197.000,-123.500,-99.500,-92.500
0.260,-198.500,-124.000,-99.500,-93.000
0.261,-200.000,-125.000,-100.500,-94.000
0.262,-201.000,-125.500,-101.000,-94.000
0.263,-200.000,-124.500,-100.000,-93.000
0.264,-198.500,-122.500,-98.000,-91.500
0.265,-196.500,-121.000,-96.500,-90.500
0.266,-196.000,-120.500,-96.000,-90.000
0.267,-196.500,-121.500,-97.000,-91.000
0.268,-198.000,-123.500,-99.000,-93.500
0.269,-200.000,-126.500,-101.500,-96.000
0.270,-202.000,-129.000,-104.500,-99.000
0.271,-204.000,-131.500,-107.000,-101.500
0.272,-205.000,-133.500,-109.000,-103.500
0.273,-205.500,-135.000,-110.000,-104.500
0.274,-204.500,-134.000,-109.500,-104.000
0.275,-201.500,-131.500,-106.500,-101.000
0.276,-197.000,-126.500,-102.000,-96.500
0.277,-191.500,-120.500,-96.000,-90.500
0.278,-186.000,-114.000,-89.000,-83.500
0.279,-181.500,-109.000,-83.500,-78.500
0.280,-179.500,-106.000,-80.500,-75.500
0.281,-179.500,-105.500,-79.500,-74.500
0.282,-180.000,-105.500,-79.500,-74.500
0.283,-180.000,-105.500,-79.000,-74.000
0.284,-180.000,-105.000,-79.000,-74.000
0.285,-180.000,-105.500,-79.500,-74.000
0.286,-181.000,-106.500,-80.500,-75.000
0.287,-182.000,-108.000,-81.500,-76.000
0.288,-182.500,-108.500,-82.500,-76.500
0.289,-182.000,-108.500,-82.000,-76.500
0.290,-180.500,-107.500,-81.500,-75.500
0.291,-178.000,-106.000,-80.000,-74.000
0.292,-175.000,-104.000,-78.000,-72.000
0.293,-171.000,-100.500,-75.000,-69.000
0.294,-167.000,-97.500,-71.500,-65.500
0.295,-163.500,-94.500,-68.000,-62.000
0.296,-160.500,-91.500,-65.000,-59.000
0.297,-158.500,-88.500,-62.000,-56.500
0.298,-157.000,-86.000,-59.500,-54.000
0.299,-156.500,-84.500,-58.000,-52.500
0.300,-158.000,-85.000,-58.000,-53.000
0.301,-160.000,-86.500,-59.000,-54.500
0.302,-162.500,-88.500,-61.000,-56.500
0.303,-164.000,-89.500,-62.000,-57.500
0.304,-163.500,-89.000,-61.000,-56.500
0.305,-160.500,-86.000,-58.500,-53.500
0.306,-157.000,-83.000,-55.000,-50.500
0.307,-155.000,-80.500,-53.000,-48.500
0.308,-155.000,-80.500,-53.000,-48.500
0.309,-156.000,-82.500,-54.500,-50.500
0.310,-158.000,-85.000,-57.500,-53.500
0.311,-159.500,-88.000,-60.000,-56.500
0.312,-160.000,-89.000,-61.500,-57.500
0.313,-158.500,-88.500,-61.000,-57.000
0.314,-155.500,-86.000,-59.000,-55.000
0.315,-152.000,-82.500,-56.000,-51.500
0.316,-148.000,-78.000,-51.500,-47.000
0.317,-143.500,-73.000,-47.000,-42.000
0.318,-140.000,-68.500,-42.500,-37.500
0.319,-138.500,-65.500,-39.500,-34.500
0.320,-139.000,-65.000,-39.000,-34.000
0.321,-141.000,-66.000,-40.000,-35.000
0.322,-144.000,-69.000,-42.500,-37.500
0.323,-147.000,-71.500,-45.000,-40.500
0.324,-150.000,-74.000,-48.000,-43.000
0.325,-152.500,-76.500,-50.000,-45.500
0.326,-154.000,-78.000,-51.500,-47.000
0.327,-154.500,-79.000,-52.000,-48.000
0.328,-153.500,-79.000,-52.000,-47.500
0.329,-152.500,-78.500,-52.000,-47.000
0.330,-151.500,-78.500,-52.000,-47.000
0.331,-151.000,-79.000,-52.500,-47.500
0.332,-150.500,-79.000,-53.000,-48.000
0.333,-150.000,-79.000,-53.500,-48.000
0.334,-149.500,-78.500,-53.500,-48.000
0.335,-148.500,-77.500,-52.500,-47.500
0.336,-147.500,-76.000,-51.000,-46.000
0.337,-146.000,-74.000,-48.500,-44.000
0.338,-144.500,-71.500,-46.000,-41.500
0.339,-143.500,-69.500,-44.000,-39.000
0.340,-143.500,-68.500,-43.000,-38.500
0.341,-144.500,-69.500,-43.500,-39.000
0.342,-147.000,-71.500,-45.500,-41.000
0.343,-150.000,-75.000,-49.000,-44.500
0.344,-154.500,-79.500,-53.500,-49.500
0.345,-160.000,-85.500,-59.500,-55.500
0.346,-165.500,-91.500,-65.000,-61.000
0.347,-169.500,-95.500,-69.500,-65.500
0.348,-171.500,-98.000,-72.000,-68.000
0.349,-172.500,-99.000,-73.000,-69.500
0.350,-173.000,-100.000,-75.000,-71.500
0.351,-174.000,-102.000,-77.000,-73.500
0.352,-175.500,-104.000,-79.000,-76.000
0.353,-176.000,-105.000,-80.500,-77.000
0.354,-175.000,-105.000,-80.500,-76.500
0.355,-174.000,-104.000,-79.500,-75.500
0.356,-173.000,-102.500,-78.000,-74.000
0.357,-172.000,-101.500,-76.500,-72.500
0.358,-171.500,-100.000,-75.000,-71.500
0.359,-172.000,-100.000,-74.500,-71.000
0.360,-174.000,-101.000,-75.500,-72.000
0.361,-177.000,-103.500,-78.000,-74.500
0.362,-180.500,-106.500,-81.000,-77.500
0.363,-182.500,-108.500,-83.000,-79.500
0.364,-184.000,-110.000,-84.500,-81.000
0.365,-186.000,-111.500,-86.500,-83.000
0.366,-188.500,-114.000,-89.500,-85.500
0.367,-193.000,-118.500,-94.000,-90.500
0.368,-198.500,-124.500,-100.000,-96.500
0.369,-204.500,-131.500,-107.000,-103.500
0.370,-210.000,-137.500,-113.000,-109.500
0.371,-213.000,-141.000,-117.000,-113.500
0.372,-213.000,-142.000,-118.000,-115.000
0.373,-211.500,-141.000,-117.500,-114.000
0.374,-209.000,-139.000,-115.000,-112.000
0.375,-205.500,-136.000,-112.000,-109.000
0.376,-201.500,-131.500,-107.500,-104.500
0.377,-197.000,-126.500,-102.500,-99.000
0.378,-193.000,-121.500,-97.500,-94.000
0.379,-191.000,-119.000,-94.000,-91.000
0.380,-191.000,-118.000,-93.500,-90.000
0.381,-192.500,-119.000,-94.000,-90.500
0.382,-194.000,-120.000,-95.000,-91.500
0.383,-196.000,-122.000,-96.500,-93.000
0.384,-198.500,-124.500,-99.000,-96.000
0.385,-201.500,-128.000,-102.500,-99.000
0.386,-205.000,-131.500,-106.000,-103.000
0.387,-208.000,-134.500,-109.000,-106.500
0.388,-210.000,-137.000,-112.000,-109.500
0.389,-211.000,-138.500,-113.500,-111.500
0.390,-211.500,-140.000,-115.000,-113.000
0.391,-212.500,-141.500,-116.500,-114.500
0.392,-213.000,-143.000,-118.000,-116.500
0.393,-213.000,-143.500,-118.500,-117.000
0.394,-211.500,-142.500,-117.500,-116.000
0.395,-209.000,-140.000,-115.500,-114.000
0.396,-206.500,-137.500,-112.500,-111.000
0.397,-205.000,-135.000,-110.000,-108.500
0.398,-204.000,-133.000,-108.000,-106.000
0.399,-204.000,-132.000,-107.000,-105.000
0.400,-205.000,-132.000,-106.500,-105.000
0.401,-207.000,-133.000,-107.500,-106.000
0.402,-209.000,-135.000,-109.500,-107.500
0.403,-210.500,-136.500,-111.000,-109.000
0.404,-211.000,-136.500,-111.000,-109.000
0.405,-210.000,-135.500,-110.500,-108.000
0.406,-208.500,-134.500,-109.500,-107.000
0.407,-208.500,-134.500,-109.000,-107.500
0.408,-209.000,-136.000,-110.500,-109.000
0.409,-211.000,-138.500,-113.000,-111.500
0.410,-213.500,-141.500,-116.000,-115.000
0.411,-215.500,-144.500,-119.500,-118.500
0.412,-217.500,-147.500,-122.000,-121.500
0.413,-218.500,-149.000,-124.000,-123.000
0.414,-218.500,-150.000,-124.500,-123.500
0.415,-217.000,-148.500,-123.000,-122.000
0.416,-213.500,-145.000,-119.500,-118.500
0.417,-209.000,-139.500,-114.000,-113.000
0.418,-204.000,-134.000,-108.500,-107.500
0.419,-201.000,-129.500,-104.500,-103.500
0.420,-200.000,-127.500,-102.500,-101.500
0.421,-201.500,-128.500,-103.500,-102.000
0.422,-204.500,-131.000,-106.000,-104.500
0.423,-207.500,-134.000,-109.500,-107.500
0.424,-210.000,-137.000,-112.000,-110.500
0.425,-212.500,-139.000,-114.500,-113.000
0.426,-214.000,-141.000,-116.000,-115.000
0.427,-215.000,-142.000,-117.000,-116.000
0.428,-215.000,-142.500,-117.500,-116.500
0.429,-214.000,-142.000,-117.000,-116.500
0.430,-212.000,-141.500,-116.500,-116.000
0.431,-210.500,-140.500,-116.000,-115.500
0.432,-209.000,-140.000,-115.500,-115.000
0.433,-207.500,-139.000,-115.000,-114.500
0.434,-206.000,-138.000,-114.000,-113.500
0.435,-203.500,-136.000,-112.000,-111.500
0.436,-201.000,-133.000,-109.000,-108.500
0.437,-198.500,-130.000,-106.000,-105.500
0.438,-196.500,-127.000,-103.000,-103.000
0.439,-196.000,-125.500,-102.000,-102.000
0.440,-197.000,-126.000,-102.000,-102.000
0.441,-199.000,-127.000,-103.000,-103.000
0.442,-200.500,-128.000,-104.000,-104.000
0.443,-201.500,-129.000,-104.500,-105.000
0.444,-203.000,-130.000,-106.000,-106.000
0.445,-204.500,-131.500,-107.500,-107.500
0.446,-206.500,-133.500,-109.500,-110.000
0.447,-208.500,-136.000,-111.500,-112.000
0.448,-209.500,-137.000,-113.000,-113.500
0.449,-209.500,-138.000,-114.000,-114.500
0.450,-209.500,-138.500,-114.500,-115.000
0.451,-210.000,-140.000,-116.000,-116.500
0.452,-210.500,-141.500,-118.000,-118.000
0.453,-210.500,-141.500,-118.500,-118.500
0.454,-209.500,-141.000,-117.500,-118.500
0.455,-208.500,-140.000,-117.000,-118.000
0.456,-208.000,-139.500,-116.500,-117.500
0.457,-208.500,-139.500,-116.000,-117.500
0.458,-208.000,-139.000,-115.000,-116.500
0.459,-208.000,-138.000,-114.000,-115.500
0.460,-209.000,-138.000,-114.000,-115.500
0.461,-210.500,-139.000,-114.500,-116.000
0.462,-211.500,-139.500,-115.000,-117.000
0.463,-212.000,-139.500,-115.000,-117.000
0.464,-212.000,-140.000,-115.000,-117.500
0.465,-213.000,-140.500,-115.500,-118.000
0.466,-214.000,-142.000,-117.500,-119.500
0.467,-215.500,-143.500,-119.000,-121.000
0.468,-216.000,-144.500,-120.000,-122.000
0.469,-217.000,-146.000,-121.500,-123.000
0.470,-218.500,-148.000,-123.500,-125.500
0.471,-220.500,-150.500,-126.500,-128.500
0.472,-221.500,-152.500,-129.000,-130.500
0.473,-221.000,-152.000,-129.000,-131.000
0.474,-218.500,-150.000,-127.500,-129.000
0.475,-214.500,-146.500,-123.500,-125.500
0.476,-209.500,-141.000,-118.500,-120.000
0.477,-204.500,-135.500,-113.000,-114.500
0.478,-200.500,-130.500,-107.500,-109.000
0.479,-199.000,-127.500,-104.500,-106.000
0.480,-199.500,-127.000,-104.000,-105.500
0.481,-202.500,-129.000,-106.000,-107.500
0.482,-205.500,-131.500,-108.500,-110.500
0.483,-209.000,-135.000,-111.500,-114.000
0.484,-213.000,-138.500,-115.500,-117.500
0.485,-216.000,-141.500,-118.500,-121.000
0.486,-218.000,-143.500,-121.000,-123.500
0.487,-218.000,-144.000,-121.000,-123.500
0.488,-216.000,-142.500,-120.000,-122.500
0.489,-214.500,-141.500,-119.000,-121.500
0.490,-214.500,-142.000,-120.000,-123.000
0.491,-216.500,-145.000,-123.000,-125.500
0.492,-218.500,-148.000,-126.000,-128.500
0.493,-219.000,-149.500,-127.500,-130.000
0.494,-217.500,-149.000,-127.000,-129.500
0.495,-215.000,-146.500,-124.000,-127.000
0.496,-211.500,-142.500,-120.000,-123.000
0.497,-207.500,-138.000,-115.500,-118.500
0.498,-204.000,-133.500,-111.000,-114.000
0.499,-201.500,-130.500,-107.500,-110.500
0.500,-201.000,-128.500,-105.500,-109.000
0.501,-202.000,-129.000,-105.500,-109.500
0.502,-204.500,-131.000,-107.500,-111.000
0.503,-207.000,-133.500,-109.500,-113.500
0.504,-210.000,-136.000,-112.000,-115.500
0.505,-212.000,-138.500,-114.500,-117.500
0.506,-214.000,-140.500,-116.500,-119.500
0.507,-215.000,-142.000,-118.000,-120.500
0.508,-215.500,-143.500,-120.000,-122.500
0.509,-217.000,-145.000,-122.000,-124.000
0.510,-218.500,-147.500,-124.500,-127.000
0.511,-220.500,-150.000,-127.000,-129.500
0.512,-221.500,-152.000,-129.000,-132.000
0.513,-221.500,-152.000,-129.500,-132.500
0.514,-219.000,-150.000,-128.000,-130.500
0.515,-215.500,-147.000,-125.000,-127.500
0.516,-212.000,-143.500,-121.500,-123.500
0.517,-209.500,-140.500,-118.000,-120.500
0.518,-208.000,-138.500,-116.000,-118.500
0.519,-208.000,-137.500,-115.000,-117.500
0.520,-208.500,-137.000,-114.500,-117.000
0.521,-209.500,-137.000,-114.500,-117.000
0.522,-210.000,-137.500,-114.500,-117.000
0.523,-211.000,-138.000,-115.000,-117.500
0.524,-212.000,-139.000,-116.000,-118.500
0.525,-213.500,-140.500,-117.500,-120.000
0.526,-214.000,-141.500,-118.500,-121.000
0.527,-214.500,-142.000,-119.000,-121.500
0.528,-214.000,-142.500,-119.000,-122.000
0.529,-214.500,-143.000,-120.000,-123.500
0.530,-215.500,-145.000,-122.500,-125.500
0.531,-217.000,-147.500,-125.000,-128.500
0.532,-217.500,-149.000,-126.500,-130.000
0.533,-216.500,-149.000,-126.500,-129.500
0.534,-215.000,-147.500,-125.500,-128.500
0.535,-214.000,-146.500,-124.500,-127.500
0.536,-213.000,-145.000,-123.000,-126.500
0.537,-211.000,-143.000,-120.500,-124.000
0.538,-208.000,-139.000,-116.500,-120.000
0.539,-204.500,-134.500,-112.500,-115.500
0.540,-202.500,-132.000,-109.500,-112.500
0.541,-202.000,-131.000,-108.500,-112.000
0.542,-203.500,-132.000,-109.500,-112.500
0.543,-205.500,-134.000,-111.000,-114.500
0.544,-208.000,-136.000,-113.500,-117.000
0.545,-210.000,-138.500,-115.500,-119.000
0.546,-211.500,-140.500,-117.500,-121.500
0.547,-213.000,-142.000,-119.500,-123.500
0.548,-214.500,-144.000,-121.500,-126.000
0.549,-216.000,-146.500,-124.500,-128.500
0.550,-218.500,-149.000,-128.000,-132.500
0.551,-221.000,-152.500,-132.000,-137.000
0.552,-223.000,-155.500,-135.500,-141.000
0.553,-224.000,-157.000,-138.000,-143.500
0.554,-222.000,-156.000,-137.000,-142.500
0.555,-218.000,-152.000,-133.500,-139.000
0.556,-212.000,-146.000,-127.500,-133.000
0.557,-206.000,-139.000,-120.500,-125.500
0.558,-201.000,-133.500,-114.500,-119.000
0.559,-198.500,-129.500,-110.000,-114.000
0.560,-199.000,-129.000,-108.000,-111.500
0.561,-201.500,-131.000,-109.000,-112.000
0.562,-206.500,-135.000,-111.500,-114.000
0.563,-212.000,-140.000,-115.500,-117.000
0.564,-217.500,-145.500,-120.000,-121.000
0.565,-223.000,-151.000,-125.000,-125.500
0.566,-228.000,-155.500,-129.000,-129.500
0.567,-231.000,-158.500,-131.500,-132.000
0.568,-232.000,-159.000,-132.000,-133.000
0.569,-230.500,-158.000,-131.000,-133.000
0.570,-228.000,-156.500,-130.000,-132.500
0.571,-225.500,-154.500,-128.500,-132.000
0.572,-223.000,-153.000,-128.000,-132.000
0.573,-221.000,-151.500,-128.000,-132.500
0.574,-219.000,-150.500,-127.500,-132.000
0.575,-216.000,-148.000,-125.500,-130.000
0.576,-212.000,-143.500,-121.500,-126.500
0.577,-207.500,-138.500,-116.500,-121.500
0.578,-203.000,-133.000,-111.000,-116.000
0.579,-199.500,-128.000,-106.000,-111.000
0.580,-197.000,-125.000,-103.000,-107.500
0.581,-196.000,-123.500,-101.000,-105.500
0.582,-194.500,-121.500,-99.000,-103.500
0.583,-192.500,-119.000,-96.000,-100.500
0.584,-189.500,-116.500,-93.000,-97.500
0.585,-187.500,-114.500,-91.000,-95.500
0.586,-186.500,-114.000,-90.000,-94.500
0.587,-186.000,-113.500,-89.500,-94.000
0.588,-185.000,-113.000,-88.500,-93.000
0.589,-184.000,-112.500,-88.000,-92.500
0.590,-183.000,-112.500,-88.000,-93.000
0.591,-183.000,-113.000,-89.500,-94.000
0.592,-183.000,-114.000,-90.500,-95.000
0.593,-182.000,-113.500,-90.500,-94.500
0.594,-179.000,-111.000,-88.500,-92.000
0.595,-175.000,-107.000,-84.500,-88.500
0.596,-171.000,-102.500,-80.000,-84.000
0.597,-167.000,-98.000,-75.500,-79.000
0.598,-164.000,-94.000,-70.500,-74.500
0.599,-161.500,-90.500,-67.000,-71.500
0.600,-162.000,-89.500,-66.000,-70.500
0.601,-164.000,-91.000,-67.500,-71.500
0.602,-167.000,-93.500,-69.500,-74.000
0.603,-169.000,-95.000,-71.000,-75.500
0.604,-169.000,-95.000,-70.500,-75.000
0.605,-167.000,-93.000,-68.500,-73.000
0.606,-163.500,-90.000,-65.500,-70.000
0.607,-159.500,-86.500,-62.000,-67.000
0.608,-156.500,-84.000,-59.500,-64.500
0.609,-155.500,-83.500,-58.500,-64.000
0.610,-155.500,-84.000,-59.500,-65.000
0.611,-157.000,-86.500,-62.000,-67.500
0.612,-158.500,-88.000,-64.000,-70.000
0.613,-158.000,-88.500,-64.500,-70.500
0.614,-156.500,-87.500,-63.500,-69.500
0.615,-153.500,-84.500,-61.000,-67.000
0.616,-150.000,-81.000,-57.500,-63.000
0.617,-147.000,-77.500,-54.000,-59.500
0.618,-145.000,-74.500,-51.000,-56.500
0.619,-144.000,-73.000,-49.000,-55.000
0.620,-144.000,-72.000,-48.000,-54.000
0.621,-144.500,-72.500,-48.000,-53.500
0.622,-146.000,-73.500,-48.500,-54.500
0.623,-148.500,-75.500,-50.500,-56.000
0.624,-151.000,-78.000,-52.500,-58.000
0.625,-152.500,-79.500,-53.500,-59.500
0.626,-153.000,-80.000,-54.500,-60.000
0.627,-153.500,-81.000,-55.500,-60.500
0.628,-156.000,-83.500,-58.000,-63.500
0.629,-160.000,-88.500,-63.000,-68.000
0.630,-166.000,-95.000,-69.500,-75.000
0.631,-171.500,-101.000,-76.500,-81.500
0.632,-175.000,-105.500,-81.000,-86.500
0.633,-176.500,-107.500,-83.500,-88.500
0.634,-175.500,-107.500,-83.500,-88.500
0.635,-174.000,-106.000,-82.000,-87.000
0.636,-172.500,-104.000,-80.500,-85.000
0.637,-172.000,-102.500,-79.000,-84.000
0.638,-173.000,-103.000,-79.500,-84.500
0.639,-177.000,-105.500,-82.000,-87.000
0.640,-182.000,-109.500,-86.000,-91.500
0.641,-188.000,-114.500,-91.000,-97.000
0.642,-193.500,-119.500,-96.000,-102.000
0.643,-198.500,-124.500,-101.000,-107.000
0.644,-203.000,-129.000,-105.500,-111.500
0.645,-207.500,-133.000,-110.000,-115.500
0.646,-211.500,-137.000,-114.000,-119.500
0.647,-214.500,-140.000,-117.500,-123.000
0.648,-217.000,-143.500,-120.500,-126.500
0.649,-220.000,-147.000,-124.000,-130.000
0.650,-223.000,-151.000,-128.000,-134.000
0.651,-226.000,-154.500,-132.000,-138.000
0.652,-227.500,-157.000,-134.500,-140.500
0.653,-226.500,-157.500,-135.000,-141.000
0.654,-224.000,-155.500,-133.500,-139.000
0.655,-221.500,-153.000,-131.000,-136.500
0.656,-219.500,-150.500,-129.000,-134.500
0.657,-218.000,-149.000,-127.000,-132.500
0.658,-217.500,-147.000,-125.000,-131.000
0.659,-216.500,-145.000,-122.500,-129.000
0.660,-215.500,-143.000,-120.500,-127.000
0.661,-215.500,-142.500,-119.500,-126.500
0.662,-217.000,-143.000,-120.000,-127.000
0.663,-219.000,-145.000,-121.500,-128.500
0.664,-221.000,-147.000,-124.000,-130.500
0.665,-223.500,-149.500,-126.500,-133.000
0.666,-226.000,-152.000,-129.000,-135.500
0.667,-228.500,-155.000,-131.500,-138.000
0.668,-231.000,-157.500,-134.000,-140.500
0.669,-232.000,-159.000,-136.000,-142.000
0.670,-233.000,-160.500,-137.000,-143.500
0.671,-233.000,-161.500,-138.000,-145.000
0.672,-232.500,-161.500,-138.500,-145.500
0.673,-230.500,-160.500,-137.500,-144.500
0.674,-227.500,-158.500,-135.500,-142.500
0.675,-224.500,-155.500,-133.000,-140.000
0.676,-221.500,-152.500,-130.000,-137.000
0.677,-220.000,-150.000,-127.500,-135.000
0.678,-218.500,-147.500,-125.500,-132.500
0.679,-217.000,-145.000,-123.000,-130.000
0.680,-215.500,-142.500,-120.500,-127.500
0.681,-215.500,-141.500,-119.000,-126.500
0.682,-217.000,-142.500,-120.000,-127.500
0.683,-221.000,-146.500,-124.000,-131.500
0.684,-227.000,-152.500,-129.500,-137.500
0.685,-233.000,-158.500,-135.500,-143.500
0.686,-237.000,-163.000,-139.500,-147.500
0.687,-238.500,-165.000,-141.500,-149.500
0.688,-239.000,-165.500,-142.500,-150.000
0.689,-239.500,-166.500,-144.000,-151.500
0.690,-241.000,-168.500,-146.000,-153.500
0.691,-242.500,-170.500,-148.500,-155.500
0.692,-243.000,-171.500,-150.000,-156.500
0.693,-242.000,-171.500,-150.000,-156.500
0.694,-240.500,-170.500,-149.000,-155.500
0.695,-239.000,-169.000,-147.500,-154.500
0.696,-237.500,-167.500,-146.000,-153.000
0.697,-236.000,-166.000,-144.000,-151.500
0.698,-235.500,-164.500,-142.500,-150.000
0.699,-236.000,-164.000,-142.000,-149.500
0.700,-238.000,-165.500,-143.000,-150.500
0.701,-242.500,-169.500,-147.000,-155.000
0.702,-249.500,-176.500,-153.500,-161.500
0.703,-258.000,-184.500,-162.000,-170.500
0.704,-266.500,-193.500,-171.000,-179.500
0.705,-274.000,-201.500,-179.000,-187.500
0.706,-280.000,-208.000,-185.500,-194.000
0.707,-284.500,-212.500,-190.500,-199.000
0.708,-287.000,-215.500,-193.500,-202.000
0.709,-286.500,-215.500,-194.000,-202.500
0.710,-283.500,-213.000,-192.000,-200.000
0.711,-277.000,-207.500,-186.000,-194.500
0.712,-266.500,-197.500,-177.000,-184.500
0.713,-252.000,-183.500,-162.500,-170.000
0.714,-232.000,-164.000,-143.000,-150.500
0.715,-207.000,-139.000,-117.500,-124.500
0.716,-176.500,-108.000,-86.000,-93.000
0.717,-142.500,-73.000,-50.500,-57.000
0.718,-106.500,-36.500,-12.500,-19.500
0.719,-71.000,0.500,25.000,18.500
0.720,-36.500,36.500,62.000,55.000
0.721,-2.500,71.500,98.000,91.500
0.722,32.500,107.500,134.500,128.500
0.723,70.500,145.500,174.000,168.000
0.724,112.000,187.500,216.500,211.500
0.725,158.000,234.000,263.500,259.000
0.726,208.500,284.500,315.000,310.500
0.727,261.000,337.000,368.500,364.000
0.728,311.500,388.000,419.500,416.000
0.729,355.500,432.000,464.000,460.500
0.730,387.500,464.500,496.500,493.000
0.731,405.500,482.000,514.000,510.000
0.732,407.500,484.000,515.500,511.000
0.733,396.500,472.500,503.000,498.500
0.734,375.500,451.000,480.500,476.000
0.735,349.000,424.000,452.500,447.500
0.736,319.500,395.000,422.500,417.500
0.737,290.000,365.500,393.000,387.000
0.738,260.000,336.000,363.000,356.500
0.739,228.500,305.500,332.000,325.500
0.740,195.500,273.000,299.500,292.500
0.741,161.500,239.500,265.500,258.500
0.742,127.000,205.500,231.000,223.500
0.743,92.500,171.000,196.500,188.500
0.744,58.000,136.500,161.000,153.000
0.745,23.000,101.500,126.000,117.500
0.746,-11.500,67.000,90.500,82.000
0.747,-44.500,33.000,56.500,47.500
0.748,-75.500,1.500,24.500,15.500
0.749,-103.000,-27.500,-4.500,-13.500
0.750,-128.000,-53.500,-31.000,-40.000
0.751,-150.500,-77.000,-55.000,-64.000
0.752,-170.500,-98.000,-76.500,-86.000
0.753,-188.000,-117.000,-95.500,-105.000
0.754,-203.000,-132.500,-111.000,-120.500
0.755,-214.500,-144.500,-123.500,-133.000
0.756,-224.000,-154.000,-133.000,-142.500
0.757,-231.000,-161.000,-139.500,-149.500
0.758,-235.500,-165.000,-143.500,-153.500
0.759,-238.000,-166.500,-145.000,-155.000
0.760,-238.500,-166.000,-144.500,-155.000
0.761,-238.000,-164.500,-142.500,-153.500
0.762,-237.000,-163.000,-141.000,-152.000
0.763,-236.500,-162.000,-140.000,-151.000
0.764,-235.500,-161.000,-139.000,-150.000
0.765,-234.500,-160.000,-138.000,-149.000
0.766,-233.500,-159.000,-136.500,-148.000
0.767,-232.000,-157.500,-135.500,-146.500
0.768,-231.000,-157.000,-135.000,-146.500
0.769,-231.500,-157.500,-136.000,-147.500
0.770,-233.000,-160.000,-138.500,-150.000
0.771,-235.500,-163.000,-141.500,-153.500
0.772,-237.500,-166.000,-144.500,-156.500
0.773,-238.500,-167.500,-146.500,-158.500
0.774,-238.000,-167.500,-147.000,-159.000
0.775,-236.500,-166.500,-146.500,-158.000
0.776,-235.000,-164.500,-144.500,-156.500
0.777,-233.000,-161.500,-142.000,-153.500
0.778,-230.500,-158.000,-138.500,-150.000
0.779,-228.500,-155.000,-135.000,-147.000
0.780,-228.000,-153.500,-133.000,-145.000
0.781,-229.000,-154.000,-133.500,-145.500
0.782,-231.500,-155.500,-135.000,-147.500
0.783,-234.500,-158.000,-137.500,-150.000
0.784,-237.000,-161.000,-140.500,-153.000
0.785,-240.000,-164.000,-143.500,-156.000
0.786,-242.500,-166.500,-146.000,-159.000
0.787,-244.000,-168.500,-148.000,-161.000
0.788,-245.500,-170.000,-149.500,-162.500
0.789,-246.000,-171.000,-150.500,-163.500
0.790,-247.000,-172.500,-152.000,-165.000
0.791,-248.500,-174.500,-154.000,-167.500
0.792,-250.000,-177.000,-156.500,-170.000
0.793,-251.000,-178.500,-158.500,-172.000
0.794,-250.000,-178.000,-158.500,-172.000
0.795,-247.500,-175.500,-156.000,-169.500
0.796,-243.000,-171.500,-152.000,-165.500
0.797,-239.000,-167.000,-147.500,-160.500
0.798,-236.500,-163.500,-144.000,-157.000
0.799,-236.500,-162.000,-142.500,-156.000
0.800,-238.000,-163.000,-143.500,-156.500
0.801,-241.000,-165.000,-145.000,-158.500
0.802,-243.500,-167.000,-146.500,-160.000
0.803,-244.500,-168.500,-147.500,-161.500
0.804,-245.000,-168.500,-147.500,-161.500
0.805,-245.000,-168.000,-147.000,-161.500
0.806,-244.000,-167.500,-146.000,-160.500
0.807,-243.000,-166.500,-145.000,-159.500
0.808,-242.500,-166.500,-145.000,-159.500
0.809,-244.000,-168.000,-147.000,-161.500
0.810,-247.500,-172.000,-151.500,-166.000
0.811,-253.000,-178.000,-157.500,-172.000
0.812,-257.500,-183.500,-163.000,-177.500
0.813,-259.000,-186.000,-165.500,-180.000
0.814,-257.000,-184.500,-164.500,-178.500
0.815,-252.000,-179.500,-159.500,-174.000
0.816,-245.500,-173.000,-153.000,-167.500
0.817,-239.000,-166.500,-146.000,-160.500
0.818,-234.000,-160.500,-140.000,-154.500
0.819,-231.500,-157.000,-136.500,-151.000
0.820,-232.000,-156.000,-135.500,-150.000
0.821,-234.000,-158.000,-137.500,-151.500
0.822,-237.500,-160.500,-139.500,-154.500
0.823,-239.500,-163.000,-141.500,-156.500
0.824,-240.500,-164.000,-142.500,-157.000
0.825,-240.500,-164.000,-142.500,-157.000
0.826,-240.000,-163.500,-142.000,-156.500
0.827,-239.000,-163.000,-141.000,-155.500
0.828,-238.500,-163.000,-141.500,-155.500
0.829,-239.500,-164.000,-142.500,-157.000
0.830,-241.000,-167.000,-145.500,-160.000
0.831,-243.500,-170.500,-149.000,-163.500
0.832,-245.500,-173.500,-152.500,-166.500
0.833,-246.000,-175.000,-154.000,-168.500
0.834,-245.000,-174.500,-153.500,-168.000
0.835,-242.500,-172.500,-152.000,-166.500
0.836,-239.500,-169.500,-149.000,-163.500
0.837,-236.000,-165.500,-145.000,-159.500
0.838,-232.500,-161.000,-140.500,-155.000
0.839,-230.500,-158.000,-137.500,-152.000
0.840,-230.500,-157.000,-136.000,-151.000
0.841,-231.500,-157.000,-136.000,-150.500
0.842,-233.000,-157.500,-136.000,-151.000
0.843,-234.000,-158.000,-136.500,-152.000
0.844,-235.000,-159.000,-137.500,-152.500
0.845,-236.500,-160.500,-139.000,-154.000
0.846,-238.500,-162.500,-141.000,-156.000
0.847,-240.500,-165.000,-143.000,-158.000
0.848,-242.500,-167.500,-145.500,-160.500
0.849,-244.500,-169.500,-148.000,-163.000
0.850,-246.500,-172.500,-150.500,-166.000
0.851,-248.500,-175.000,-153.000,-168.500
0.852,-249.000,-176.500,-155.000,-170.000
0.853,-248.500,-176.500,-155.500,-170.500
0.854,-246.500,-175.000,-154.000,-169.000
0.855,-243.500,-172.500,-151.500,-166.500
0.856,-240.000,-168.500,-148.000,-163.000
0.857,-236.000,-164.500,-143.500,-158.500
0.858,-233.000,-160.500,-139.500,-154.500
0.859,-230.500,-157.000,-136.000,-151.000
0.860,-230.000,-155.500,-134.500,-149.500
0.861,-231.000,-155.000,-134.000,-149.500
0.862,-232.000,-156.000,-135.000,-150.000
0.863,-233.000,-156.500,-135.500,-150.500
0.864,-234.500,-157.500,-136.000,-151.500
0.865,-236.000,-159.000,-138.000,-153.000
0.866,-238.500,-162.000,-140.500,-156.000
0.867,-241.500,-165.500,-143.500,-159.500
0.868,-244.500,-168.500,-147.500,-163.000
0.869,-247.000,-172.000,-150.500,-166.000
0.870,-248.500,-174.000,-153.000,-168.500
0.871,-249.000,-175.000,-154.000,-170.000
0.872,-247.000,-174.000,-153.500,-169.000
0.873,-243.500,-171.000,-151.000,-166.500
0.874,-239.500,-167.500,-147.000,-162.500
0.875,-236.000,-164.000,-143.500,-159.000
0.876,-233.000,-160.500,-140.000,-156.000
0.877,-231.000,-158.000,-137.500,-153.000
0.878,-230.000,-156.000,-135.500,-151.000
0.879,-230.000,-155.000,-134.000,-150.000
0.880,-230.500,-154.500,-133.500,-149.500
0.881,-232.000,-155.000,-134.000,-150.000
0.882,-233.500,-156.000,-135.000,-151.000
0.883,-235.000,-157.500,-136.000,-152.000
0.884,-236.000,-158.500,-137.000,-153.000
0.885,-236.000,-159.000,-137.500,-153.000
0.886,-236.000,-159.500,-137.500,-153.000
0.887,-236.000,-159.500,-137.500,-153.000
0.888,-235.500,-159.500,-138.000,-153.500
0.889,-236.000,-160.500,-139.000,-154.500
0.890,-236.500,-161.500,-140.500,-156.000
0.891,-237.500,-163.500,-142.500,-158.000
0.892,-238.500,-165.500,-144.500,-160.000
0.893,-238.500,-166.000,-145.500,-161.000
0.894,-236.500,-165.000,-144.000,-160.000
0.895,-233.500,-161.500,-141.000,-157.000
0.896,-229.500,-157.500,-137.000,-152.500
0.897,-225.500,-152.500,-132.000,-148.000
0.898,-222.000,-148.500,-128.000,-143.500
0.899,-219.500,-145.000,-124.500,-140.000
0.900,-217.500,-142.000,-121.500,-137.000
0.901,-216.500,-140.000,-119.000,-134.500
0.902,-215.000,-138.000,-117.500,-133.000
0.903,-214.000,-137.000,-116.000,-132.000
0.904,-213.500,-136.500,-115.000,-131.000
0.905,-214.000,-137.000,-116.000,-132.000
0.906,-217.000,-140.000,-118.500,-135.000
0.907,-222.000,-145.000,-124.000,-140.500
0.908,-228.500,-152.000,-131.000,-147.000
0.909,-234.000,-158.000,-137.500,-153.500
0.910,-237.000,-161.500,-141.500,-157.000
0.911,-237.500,-162.500,-142.500,-158.500
0.912,-235.000,-161.000,-141.000,-157.000
0.913,-231.000,-158.000,-137.500,-154.000
0.914,-225.500,-153.000,-133.000,-149.500
0.915,-220.000,-147.500,-128.000,-144.000
0.916,-214.000,-141.500,-122.000,-138.000
0.917,-208.500,-135.500,-116.000,-132.000
0.918,-204.000,-130.000,-110.500,-126.000
0.919,-201.000,-126.000,-106.500,-122.000
0.920,-200.500,-124.000,-105.000,-120.000
0.921,-202.000,-125.000,-105.500,-120.500
0.922,-205.000,-127.500,-107.500,-123.000
0.923,-208.000,-130.000,-110.000,-125.500
0.924,-209.500,-131.500,-111.500,-127.500
0.925,-209.000,-131.500,-111.000,-127.000
0.926,-206.500,-129.000,-108.500,-125.000
0.927,-203.500,-126.500,-106.000,-122.500
0.928,-201.000,-124.500,-104.500,-121.000
0.929,-201.000,-125.000,-105.000,-121.500
0.930,-203.000,-128.000,-108.500,-124.500
0.931,-206.000,-131.500,-112.000,-128.500
0.932,-208.000,-134.000,-115.000,-131.000
0.933,-208.000,-134.500,-115.500,-131.500
0.934,-205.500,-132.500,-114.000,-129.500
0.935,-201.500,-129.000,-110.000,-126.000
0.936,-197.000,-124.000,-105.500,-121.000
0.937,-192.000,-118.500,-100.000,-115.500
0.938,-187.000,-113.500,-94.500,-109.500
0.939,-184.000,-109.000,-90.000,-105.500
0.940,-182.000,-106.500,-87.500,-103.000
0.941,-182.000,-106.000,-86.500,-102.000
0.942,-182.500,-105.500,-86.500,-102.500
0.943,-183.500,-106.000,-87.000,-103.000
0.944,-183.500,-105.500,-87.000,-103.000
0.945,-183.000,-105.000,-86.500,-103.000
0.946,-182.000,-104.500,-86.000,-102.500
0.947,-181.000,-103.500,-85.500,-102.500
0.948,-180.000,-103.500,-85.500,-103.000
0.949,-180.000,-104.000,-86.500,-104.500
0.950,-180.500,-105.000,-88.500,-107.000
0.951,-181.500,-107.000,-90.500,-109.000
0.952,-181.000,-107.500,-91.500,-110.500
0.953,-179.500,-106.500,-90.500,-109.500
0.954,-176.500,-104.500,-88.000,-106.500
0.955,-174.000,-102.000,-84.500,-103.000
0.956,-171.000,-98.500,-80.500,-98.500
0.957,-169.000,-96.000,-76.500,-94.000
0.958,-167.500,-93.500,-73.000,-89.500
0.959,-167.500,-92.000,-70.000,-86.000
0.960,-169.000,-92.500,-69.000,-84.500
0.961,-171.000,-93.500,-69.000,-84.000
0.962,-173.000,-94.500,-69.500,-84.000
0.963,-173.500,-94.500,-69.000,-83.000
0.964,-172.000,-92.500,-67.000,-81.000
0.965,-170.000,-90.500,-65.000,-79.000
0.966,-168.500,-88.500,-63.500,-78.500
0.967,-167.500,-88.000,-63.500,-79.000
0.968,-167.500,-88.500,-64.500,-80.500
0.969,-167.500,-89.000,-66.000,-82.500
0.970,-167.500,-89.500,-67.000,-84.500
0.971,-166.500,-89.500,-68.000,-85.500
0.972,-165.000,-89.000,-68.000,-85.500
0.973,-163.000,-87.500,-66.500,-84.500
0.974,-159.500,-84.500,-64.000,-82.000
0.975,-156.000,-81.000,-60.500,-78.500
0.976,-152.500,-77.000,-56.500,-74.500
0.977,-149.500,-73.500,-53.000,-71.000
0.978,-147.500,-70.500,-50.000,-67.500
0.979,-145.500,-68.000,-47.000,-64.500
0.980,-144.000,-65.500,-44.500,-62.000
0.981,-143.500,-64.500,-43.000,-60.500
0.982,-144.000,-64.000,-42.500,-60.000
0.983,-144.500,-64.500,-42.500,-60.500
0.984,-146.000,-65.500,-44.000,-61.500
0.985,-148.000,-67.500,-46.000,-64.000
0.986,-150.500,-70.500,-49.000,-67.000
0.987,-153.000,-73.000,-52.000,-70.000
0.988,-155.000,-75.500,-55.000,-72.500
0.989,-157.000,-78.000,-57.500,-75.000
0.990,-158.500,-80.000,-60.000,-78.000
0.991,-160.000,-82.000,-62.500,-80.500
0.992,-161.000,-84.000,-64.500,-83.000
0.993,-162.000,-85.000,-66.500,-84.500
0.994,-162.500,-86.000,-67.500,-85.500
0.995,-162.000,-85.500,-67.000,-85.500
0.996,-160.500,-83.500,-65.000,-84.000
0.997,-158.500,-81.000,-62.000,-81.000
0.998,-156.000,-77.500,-58.500,-77.500
0.999,-154.500,-75.000,-55.500,-74.500
1.000,-154.500,-74.000,-54.500,-74.000
1.001,-156.000,-75.000,-55.500,-75.000
1.002,-159.000,-77.500,-58.000,-77.500
1.003,-162.000,-80.500,-61.000,-80.000
1.004,-164.000,-82.000,-63.000,-82.000
1.005,-165.000,-83.000,-63.500,-83.000
1.006,-166.000,-84.000,-64.500,-84.000
1.007,-167.500,-86.000,-66.500,-86.000
1.008,-171.000,-90.500,-70.500,-90.500
1.009,-176.500,-96.500,-76.500,-96.500
1.010,-182.000,-102.500,-83.000,-103.000
1.011,-186.500,-108.000,-89.000,-108.500
1.012,-188.500,-111.000,-92.500,-112.000
1.013,-189.000,-112.000,-94.000,-113.500
1.014,-187.500,-111.500,-93.500,-113.000
1.015,-185.500,-109.500,-92.000,-111.500
1.016,-183.500,-107.500,-90.000,-109.500
1.017,-182.000,-105.500,-88.000,-107.500
1.018,-182.000,-104.500,-87.500,-107.000
1.019,-184.000,-105.500,-88.000,-108.000
1.020,-188.000,-108.500,-90.500,-110.500
1.021,-192.500,-113.000,-94.500,-114.500
1.022,-197.000,-117.000,-98.000,-118.500
1.023,-200.500,-121.000,-101.500,-122.000
1.024,-203.500,-123.500,-104.500,-124.500
1.025,-205.000,-125.000,-105.500,-126.000
1.026,-205.000,-125.000,-105.500,-126.000
1.027,-204.000,-124.000,-105.000,-125.500
1.028,-203.000,-123.500,-104.500,-125.000
1.029,-203.500,-124.500,-105.500,-126.000
1.030,-205.500,-127.500,-108.500,-129.000
1.031,-208.500,-131.000,-112.000,-133.500
1.032,-211.500,-134.500,-116.000,-137.500
1.033,-213.000,-137.000,-118.500,-140.000
1.034,-212.500,-137.000,-118.500,-140.500
1.035,-210.500,-135.500,-117.000,-138.500
1.036,-207.500,-132.500,-114.000,-135.500
1.037,-205.000,-129.500,-111.000,-132.500
1.038,-204.000,-127.500,-109.000,-130.500
1.039,-204.000,-126.500,-108.000,-130.000
1.040,-206.000,-127.000,-108.500,-130.500
1.041,-208.000,-128.500,-109.500,-131.500
1.042,-210.000,-130.000,-111.000,-133.000
1.043,-211.000,-130.500,-111.500,-133.500
1.044,-212.000,-131.500,-112.000,-134.000
1.045,-212.000,-131.500,-112.500,-134.000
1.046,-212.000,-132.000,-113.000,-134.500
1.047,-213.000,-133.000,-114.500,-135.500
1.048,-215.000,-135.500,-117.000,-138.000
1.049,-218.500,-139.500,-121.000,-142.000
1.050,-223.500,-145.000,-126.500,-148.000
1.051,-229.000,-151.000,-133.000,-154.500
1.052,-233.500,-156.500,-138.500,-160.000
1.053,-235.500,-159.500,-141.500,-163.000
1.054,-234.000,-158.500,-140.500,-162.000
1.055,-228.500,-153.500,-135.500,-157.000
1.056,-221.500,-146.000,-128.500,-150.000
1.057,-214.500,-138.500,-120.500,-142.500
1.058,-209.000,-132.500,-114.500,-136.500
1.059,-207.000,-129.500,-111.500,-133.500
1.060,-208.000,-129.500,-111.500,-133.500
1.061,-211.000,-132.000,-113.500,-135.500
1.062,-214.000,-134.500,-116.000,-138.000
1.063,-216.000,-136.500,-118.000,-140.000
1.064,-217.000,-138.000,-119.000,-141.000
1.065,-217.500,-138.500,-119.500,-141.500
1.066,-217.000,-138.500,-119.500,-141.500
1.067,-216.500,-138.500,-119.000,-141.500
1.068,-216.000,-138.000,-119.000,-141.500
1.069,-216.000,-138.500,-119.000,-142.000
1.070,-216.500,-140.000,-120.500,-143.500
1.071,-218.500,-143.000,-123.500,-146.500
1.072,-221.000,-146.500,-127.000,-150.000
1.073,-223.000,-149.000,-130.000,-153.000
1.074,-223.500,-150.500,-131.000,-154.000
1.075,-222.500,-149.500,-130.500,-153.000
1.076,-220.000,-147.500,-128.500,-150.500
1.077,-217.000,-143.500,-125.000,-146.500
1.078,-214.000,-140.000,-121.000,-143.000
1.079,-212.500,-137.500,-118.500,-140.500
1.080,-213.000,-137.000,-118.000,-140.000
1.081,-214.000,-138.000,-118.500,-141.000
1.082,-215.000,-139.000,-119.000,-141.500
1.083,-215.000,-139.000,-118.500,-141.500
1.084,-214.000,-137.500,-117.500,-140.000
1.085,-212.500,-136.000,-116.000,-138.500
1.086,-211.500,-135.500,-115.000,-137.500
1.087,-211.500,-136.000,-115.500,-138.000
1.088,-213.000,-137.500,-117.500,-139.500
1.089,-215.000,-140.000,-120.000,-142.500
1.090,-216.500,-142.500,-122.000,-145.000
1.091,-217.500,-144.500,-124.000,-147.000
1.092,-217.500,-145.500,-125.000,-148.000
1.093,-217.500,-145.500,-125.500,-148.500
1.094,-217.000,-145.500,-125.500,-148.500
1.095,-216.500,-145.000,-125.500,-148.500
1.096,-216.500,-144.500,-125.500,-148.000
1.097,-215.500,-143.000,-124.000,-146.500
1.098,-214.000,-140.500,-122.000,-144.000
1.099,-212.500,-138.000,-119.000,-141.000
1.100,-211.500,-136.000,-117.000,-139.000
1.101,-212.000,-135.500,-116.500,-138.500
1.102,-213.500,-136.000,-117.000,-139.000
1.103,-215.000,-137.500,-118.000,-140.500
1.104,-216.000,-139.000,-119.000,-141.500
1.105,-217.000,-140.000,-120.000,-142.500
1.106,-217.500,-141.000,-120.500,-143.000
1.107,-217.500,-141.500,-121.000,-143.500
1.108,-218.000,-142.000,-122.000,-144.500
1.109,-219.000,-143.000,-123.500,-146.000
1.110,-221.000,-146.000,-126.000,-149.000
1.111,-224.000,-149.500,-130.000,-153.000
1.112,-227.000,-153.500,-134.000,-157.000
1.113,-228.500,-155.500,-136.500,-159.000
1.114,-227.500,-155.500,-136.000,-158.500
1.115,-224.500,-153.000,-133.000,-155.500
1.116,-220.500,-148.500,-129.000,-151.500
1.117,-216.000,-143.500,-124.000,-146.500
1.118,-212.000,-138.500,-119.000,-141.500
1.119,-210.000,-135.500,-115.500,-138.500
1.120,-210.000,-134.500,-114.500,-137.500
1.121,-212.500,-136.000,-116.000,-139.000
1.122,-216.000,-139.000,-119.000,-142.000
1.123,-219.500,-141.500,-121.500,-144.500
1.124,-221.500,-144.000,-123.500,-146.500
1.125,-223.500,-146.000,-125.500,-148.500
1.126,-225.000,-147.500,-127.000,-150.000
1.127,-226.000,-148.500,-128.000,-151.500
1.128,-226.000,-149.500,-129.000,-152.000
1.129,-226.000,-150.000,-129.500,-153.000
1.130,-226.500,-151.000,-131.000,-154.000
1.131,-227.500,-152.500,-133.000,-156.000
1.132,-228.500,-154.000,-135.000,-158.500
1.133,-229.000,-155.000,-136.000,-159.500
1.134,-228.000,-155.000,-136.000,-159.500
1.135,-226.500,-153.500,-134.500,-158.000
1.136,-223.500,-150.500,-132.000,-155.500
1.137,-220.500,-147.000,-128.000,-151.500
1.138,-217.500,-143.000,-124.500,-147.500
1.139,-214.500,-139.500,-120.500,-143.500
1.140,-212.500,-136.000,-117.500,-140.500
1.141,-210.500,-133.500,-114.500,-137.500
1.142,-210.000,-132.500,-113.500,-136.500
1.143,-211.000,-133.500,-114.500,-137.500
1.144,-214.500,-137.000,-117.500,-141.000
1.145,-219.000,-141.500,-121.500,-145.500
1.146,-222.500,-145.000,-125.500,-149.500
1.147,-224.500,-147.000,-127.500,-152.000
1.148,-225.000,-148.000,-128.500,-153.000
1.149,-225.500,-149.000,-129.500,-154.000
1.150,-227.000,-151.000,-132.000,-156.500
1.151,-230.000,-154.500,-135.500,-160.000
1.152,-232.000,-157.500,-139.000,-163.500
1.153,-232.500,-159.000,-141.000,-165.000
1.154,-231.000,-158.000,-140.000,-164.000
1.155,-227.500,-155.000,-137.000,-161.000
1.156,-222.500,-150.000,-132.500,-156.500
1.157,-217.500,-145.000,-127.000,-151.000
1.158,-213.500,-140.000,-122.500,-146.500
1.159,-211.000,-136.500,-119.000,-143.000
1.160,-210.500,-135.000,-118.000,-141.500
1.161,-212.500,-136.500,-119.000,-142.500
1.162,-215.500,-139.000,-121.500,-145.000
1.163,-219.000,-142.500,-124.500,-148.500
1.164,-222.000,-145.500,-127.500,-151.500
1.165,-224.000,-148.000,-130.000,-153.500
1.166,-225.500,-149.500,-131.500,-155.500
1.167,-226.000,-151.000,-133.000,-156.500
1.168,-227.000,-152.000,-134.500,-158.000
1.169,-228.500,-154.000,-136.500,-160.500
1.170,-231.000,-157.000,-139.500,-163.500
1.171,-233.000,-160.000,-143.000,-166.500
1.172,-234.000,-161.500,-144.500,-168.000
1.173,-232.500,-161.000,-144.000,-167.500
1.174,-228.500,-158.000,-141.000,-164.500
1.175,-224.000,-153.500,-136.500,-160.500
1.176,-220.000,-149.500,-132.500,-156.500
1.177,-217.500,-146.000,-129.000,-153.000
1.178,-215.000,-142.500,-125.500,-149.500
1.179,-214.000,-140.000,-123.000,-147.000
1.180,-214.000,-139.000,-121.500,-146.000
1.181,-215.500,-139.500,-122.000,-146.500
1.182,-218.500,-141.500,-124.000,-149.000
1.183,-221.000,-144.000,-126.500,-151.500
1.184,-222.500,-145.000,-127.500,-152.500
1.185,-221.500,-144.500,-126.500,-151.500
1.186,-219.500,-142.500,-124.500,-149.500
1.187,-217.000,-140.500,-122.000,-147.000
1.188,-215.000,-139.000,-121.000,-146.000
1.189,-215.000,-140.000,-122.000,-146.500
1.190,-217.500,-143.500,-125.500,-150.000
1.191,-222.000,-148.500,-131.000,-155.500
1.192,-226.500,-154.000,-136.500,-161.000
1.193,-229.000,-157.500,-140.500,-164.500
1.194,-229.000,-158.000,-141.000,-165.000
1.195,-227.000,-155.500,-139.000,-163.000
1.196,-223.000,-151.500,-135.000,-159.000
1.197,-219.000,-147.000,-130.500,-154.500
1.198,-216.000,-142.500,-126.000,-150.500
1.199,-214.500,-140.000,-123.500,-147.500
1.200,-214.500,-139.000,-122.000,-146.500
1.201,-215.500,-139.500,-122.500,-146.500
1.202,-217.500,-141.000,-124.000,-147.500
1.203,-219.500,-142.500,-125.000,-149.000
1.204,-220.500,-143.500,-126.500,-150.000
1.205,-222.000,-145.000,-128.000,-151.000
1.206,-223.500,-146.500,-129.500,-153.000
1.207,-225.000,-148.500,-131.500,-154.500
1.208,-226.000,-150.000,-133.000,-156.500
1.209,-227.500,-151.500,-134.500,-158.000
1.210,-229.000,-153.500,-136.500,-160.500
1.211,-230.500,-155.500,-139.000,-162.500
1.212,-231.500,-157.000,-140.500,-164.500
1.213,-231.000,-157.000,-141.500,-165.000
1.214,-229.500,-156.000,-140.000,-164.000
1.215,-227.000,-153.500,-137.500,-161.500
1.216,-223.000,-150.000,-133.500,-157.500
1.217,-219.000,-145.500,-129.000,-153.000
1.218,-215.500,-141.500,-124.500,-148.000
1.219,-213.000,-138.000,-121.000,-144.500
1.220,-213.000,-137.000,-119.500,-143.000
1.221,-214.500,-138.000,-120.000,-143.500
1.222,-217.000,-140.000,-121.500,-145.500
1.223,-219.500,-142.000,-123.500,-147.500
1.224,-221.000,-143.500,-125.000,-149.500
1.225,-222.500,-145.000,-126.000,-150.500
1.226,-223.000,-145.500,-127.000,-151.500
1.227,-224.000,-147.000,-128.000,-152.500
1.228,-225.000,-148.000,-129.500,-154.000
1.229,-226.500,-150.000,-131.500,-156.000
1.230,-227.500,-151.500,-134.000,-158.000
1.231,-228.500,-153.000,-136.000,-160.000
1.232,-229.500,-154.500,-138.000,-162.000
1.233,-229.500,-155.000,-139.000,-163.000
1.234,-228.000,-154.500,-138.500,-162.500
1.235,-225.500,-152.000,-136.500,-160.500
1.236,-222.500,-148.500,-133.000,-157.000
1.237,-219.000,-144.500,-129.000,-153.500
1.238,-216.500,-141.000,-125.500,-150.000
1.239,-215.000,-138.500,-123.000,-147.500
1.240,-214.000,-137.000,-120.500,-146.000
1.241,-213.500,-135.500,-119.000,-144.000
1.242,-212.000,-133.500,-117.000,-142.000
1.243,-210.000,-131.000,-114.500,-139.500
1.244,-207.000,-128.000,-111.000,-136.500
1.245,-203.500,-125.000,-108.000,-133.500
1.246,-200.500,-122.000,-105.000,-131.000
1.247,-198.500,-120.000,-103.000,-129.000
1.248,-197.000,-118.500,-102.000,-128.000
1.249,-196.500,-118.500,-102.500,-128.500
1.250,-196.500,-119.500,-103.500,-129.500
1.251,-197.000,-120.500,-105.000,-131.000
1.252,-196.500,-121.000,-105.500,-131.500
1.253,-194.500,-119.000,-104.000,-130.000
1.254,-189.500,-115.000,-100.000,-126.000
1.255,-183.000,-108.500,-93.500,-120.000
1.256,-175.500,-101.000,-86.000,-112.500
1.257,-168.500,-93.500,-78.000,-105.000
1.258,-162.500,-87.000,-71.500,-98.500
1.259,-158.500,-82.000,-66.500,-93.500
1.260,-158.500,-81.000,-65.500,-92.500
1.261,-161.500,-83.500,-68.000,-95.000
1.262,-167.000,-88.500,-73.000,-99.500
1.263,-172.000,-93.000,-77.000,-103.500
1.264,-174.000,-95.500,-79.000,-105.500
1.265,-174.500,-95.500,-79.500,-105.500
1.266,-174.000,-95.000,-78.500,-105.000
1.267,-173.500,-95.000,-78.000,-104.500
1.268,-174.500,-96.000,-79.500,-106.000
1.269,-177.000,-98.500,-82.500,-109.000
1.270,-180.000,-102.500,-86.000,-113.000
1.271,-183.000,-105.500,-89.500,-116.500
1.272,-184.000,-107.500,-91.500,-118.500
1.273,-182.500,-107.000,-91.000,-118.000
1.274,-179.000,-104.000,-88.000,-115.000
1.275,-173.500,-98.500,-82.500,-109.500
1.276,-166.500,-91.500,-76.000,-102.500
1.277,-159.500,-84.000,-68.500,-95.000
1.278,-153.000,-77.000,-61.500,-88.000
1.279,-148.500,-72.000,-56.000,-83.000
1.280,-146.500,-69.000,-53.000,-80.000
1.281,-146.500,-68.500,-52.500,-79.500
1.282,-148.500,-70.000,-53.500,-80.500
1.283,-151.500,-72.000,-55.500,-82.500
1.284,-153.500,-74.500,-57.500,-84.500
1.285,-154.500,-76.000,-59.000,-85.500
1.286,-156.000,-77.000,-60.000,-86.500
1.287,-157.500,-78.500,-62.000,-88.000
1.288,-159.500,-81.500,-65.000,-91.000
1.289,-162.500,-85.000,-68.500,-94.500
1.290,-166.000,-89.000,-73.000,-98.500
1.291,-169.500,-93.500,-77.500,-103.000
1.292,-173.000,-97.500,-81.500,-107.000
1.293,-174.000,-100.000,-84.000,-109.000
1.294,-173.500,-99.500,-83.500,-109.000
1.295,-171.000,-97.500,-81.500,-107.000
1.296,-168.500,-94.500,-78.500,-104.000
1.297,-166.500,-92.000,-76.000,-101.500
1.298,-166.000,-91.000,-75.000,-100.500
1.299,-167.500,-91.500,-75.500,-101.000
1.300,-170.500,-93.000,-77.500,-103.000
1.301,-175.000,-96.500,-81.000,-106.500
1.302,-180.000,-101.000,-85.500,-111.500
1.303,-186.000,-106.500,-91.500,-117.000
1.304,-192.000,-112.500,-97.500,-123.500
1.305,-198.500,-119.000,-104.000,-130.000
1.306,-204.500,-125.000,-110.000,-136.000
1.307,-209.000,-130.500,-114.500,-141.000
1.308,-212.500,-134.000,-118.500,-145.500
1.309,-216.000,-138.000,-122.500,-149.500
1.310,-220.000,-143.000,-127.500,-154.500
1.311,-224.000,-147.500,-132.500,-159.500
1.312,-227.500,-151.500,-136.500,-163.500
1.313,-228.000,-153.000,-138.000,-165.000
1.314,-226.000,-151.500,-136.500,-163.500
1.315,-222.000,-148.000,-133.000,-159.500
1.316,-217.500,-143.500,-128.500,-155.000
1.317,-214.000,-139.500,-124.500,-151.000
1.318,-212.000,-136.500,-121.500,-148.000
1.319,-211.000,-135.000,-119.500,-146.000
1.320,-212.500,-134.500,-119.500,-146.000
1.321,-215.000,-136.000,-120.500,-147.500
1.322,-218.500,-139.000,-123.500,-150.000
1.323,-222.000,-142.000,-126.500,-153.000
1.324,-224.500,-144.500,-129.500,-156.000
1.325,-226.500,-146.500,-131.500,-158.000
1.326,-228.500,-148.500,-133.500,-159.500
1.327,-230.000,-150.500,-135.500,-161.500
1.328,-232.500,-153.000,-138.500,-164.000
1.329,-234.500,-156.000,-142.000,-167.500
1.330,-237.500,-159.000,-145.500,-171.000
1.331,-240.000,-162.500,-149.000,-174.500
1.332,-242.500,-166.000,-152.500,-178.500
1.333,-243.500,-168.000,-155.000,-181.000
1.334,-243.500,-169.000,-156.000,-182.500
1.335,-242.500,-168.500,-156.000,-182.000
1.336,-240.000,-166.500,-154.000,-180.000
1.337,-236.500,-162.500,-150.000,-176.000
1.338,-232.000,-157.500,-144.500,-171.000
1.339,-228.000,-152.500,-139.500,-166.500
1.340,-226.000,-149.500,-136.500,-164.000
1.341,-226.000,-149.000,-135.500,-163.500
1.342,-227.000,-149.500,-136.500,-164.500
1.343,-228.000,-150.500,-138.000,-166.000
1.344,-229.000,-151.000,-139.000,-167.500
1.345,-229.500,-152.000,-140.500,-169.000
1.346,-230.500,-153.500,-142.000,-170.500
1.347,-232.500,-156.000,-145.000,-173.500
1.348,-235.500,-159.500,-149.000,-177.000
1.349,-239.000,-163.500,-152.500,-180.500
1.350,-241.500,-167.000,-155.500,-182.500
1.351,-244.000,-169.500,-157.500,-184.500
1.352,-246.000,-172.500,-159.500,-185.500
1.353,-247.500,-174.500,-160.500,-185.500
1.354,-247.500,-175.000,-160.000,-184.500
1.355,-246.000,-174.000,-158.000,-181.500
1.356,-244.000,-171.500,-155.000,-177.500
1.357,-241.000,-168.000,-150.500,-173.000
1.358,-238.000,-164.500,-146.500,-168.500
1.359,-236.500,-161.000,-143.000,-165.500
1.360,-236.000,-160.000,-141.500,-164.000
1.361,-238.000,-160.500,-142.500,-165.500
1.362,-241.000,-163.000,-145.000,-169.000
1.363,-244.500,-166.500,-149.000,-174.000
1.364,-248.000,-170.000,-153.500,-179.000
1.365,-252.000,-174.000,-158.500,-184.500
1.366,-257.500,-180.000,-165.000,-191.500
1.367,-265.500,-188.500,-174.000,-201.000
1.368,-275.000,-198.500,-184.500,-212.000
1.369,-285.000,-209.000,-195.500,-223.000
1.370,-293.500,-218.000,-205.000,-232.500
1.371,-299.000,-224.500,-211.500,-239.000
1.372,-300.000,-227.000,-214.000,-241.000
1.373,-296.500,-224.000,-211.000,-238.500
1.374,-288.500,-216.500,-203.500,-230.500
1.375,-276.500,-204.500,-191.500,-218.500
1.376,-261.000,-189.000,-176.000,-202.000
1.377,-242.500,-170.500,-157.000,-183.000
1.378,-222.500,-149.000,-135.000,-161.000
1.379,-200.000,-125.000,-110.500,-136.500
1.380,-175.500,-99.500,-84.500,-110.000
1.381,-149.000,-71.500,-56.000,-81.000
1.382,-120.000,-42.000,-25.500,-50.500
1.383,-89.000,-10.000,7.000,-17.500
1.384,-55.500,23.500,41.500,17.500
1.385,-20.500,59.500,78.000,54.000
1.386,17.000,97.000,116.000,93.000
1.387,56.500,136.000,156.000,133.000
1.388,97.500,177.500,197.500,175.500
1.389,141.000,221.000,242.000,220.000
1.390,187.000,266.500,288.500,266.500
1.391,234.000,313.500,336.000,314.500
1.392,279.000,358.000,381.000,360.000
1.393,318.500,397.500,421.000,400.000
1.394,349.500,428.000,452.000,431.000
1.395,368.500,447.000,470.500,450.000
1.396,373.500,452.500,475.500,454.500
1.397,365.500,445.000,467.000,446.000
1.398,346.500,426.500,448.500,427.000
1.399,320.500,401.500,423.000,401.500
1.400,291.500,373.000,394.000,372.000
1.401,259.500,342.000,363.000,340.500
1.402,226.500,309.000,329.500,306.500
1.403,192.000,274.500,294.500,271.500
1.404,158.000,240.000,260.000,236.500
1.405,125.500,207.500,227.000,203.500
1.406,95.500,176.500,196.500,172.500
1.407,66.500,147.000,166.000,142.500
1.408,36.500,116.500,135.000,111.000
1.409,4.500,84.000,101.500,77.500
1.410,-29.500,49.500,66.500,42.500
1.411,-62.000,16.000,32.000,8.500
1.412,-91.000,-14.500,1.000,-22.500
1.413,-115.500,-40.000,-25.000,-48.500
1.414,-135.000,-61.000,-46.500,-70.000
1.415,-151.500,-78.000,-64.000,-87.000
1.416,-165.000,-92.000,-78.500,-101.500
1.417,-177.000,-104.500,-90.500,-113.500
1.418,-188.500,-115.500,-101.500,-124.500
1.419,-200.000,-126.500,-112.500,-135.500
1.420,-212.500,-137.500,-124.000,-146.500
1.421,-224.000,-148.000,-134.500,-157.500
1.422,-233.500,-157.000,-143.500,-166.500
1.423,-239.500,-162.500,-149.500,-172.000
1.424,-242.000,-165.000,-152.000,-174.500
1.425,-242.000,-165.000,-152.000,-174.500
1.426,-241.500,-164.500,-151.500,-174.000
1.427,-240.500,-164.000,-151.000,-174.000
1.428,-240.000,-164.000,-151.000,-174.000
1.429,-239.500,-163.500,-150.500,-173.500
1.430,-238.500,-163.500,-150.500,-174.000
1.431,-238.000,-164.000,-150.500,-174.000
1.432,-238.000,-164.500,-151.500,-174.500
1.433,-237.500,-165.000,-152.000,-175.000
1.434,-236.500,-165.000,-151.500,-174.500
1.435,-234.500,-163.000,-150.000,-173.000
1.436,-231.500,-160.000,-147.500,-170.000
1.437,-228.000,-156.000,-143.500,-166.500
1.438,-224.500,-152.000,-139.500,-162.500
1.439,-222.500,-149.000,-136.500,-159.500
1.440,-222.500,-148.500,-135.500,-159.000
1.441,-225.000,-150.500,-137.500,-161.000
1.442,-229.500,-154.000,-141.000,-164.500
1.443,-234.000,-158.500,-145.000,-168.000
1.444,-237.000,-161.500,-148.000,-171.000
1.445,-238.500,-163.000,-149.000,-172.500
1.446,-239.000,-163.500,-150.000,-173.500
1.447,-240.000,-164.500,-150.500,-174.500
1.448,-241.500,-166.500,-153.000,-176.500
1.449,-244.000,-169.500,-156.000,-180.000
1.450,-247.000,-173.000,-159.500,-183.500
1.451,-249.000,-176.500,-162.500,-187.000
1.452,-250.000,-178.500,-164.500,-189.000
1.453,-249.500,-179.000,-165.000,-189.000
1.454,-247.000,-177.000,-163.000,-187.000
1.455,-243.000,-173.000,-159.000,-183.500
1.456,-238.500,-169.000,-154.500,-179.000
1.457,-235.500,-165.000,-150.500,-175.500
1.458,-234.000,-163.000,-148.500,-173.000
1.459,-234.000,-162.000,-147.500,-172.000
1.460,-235.500,-162.500,-148.000,-172.500
1.461,-237.500,-163.500,-149.000,-173.000
1.462,-238.500,-164.500,-149.500,-173.500
1.463,-239.000,-164.500,-149.500,-173.500
1.464,-238.500,-164.000,-149.000,-173.000
1.465,-238.500,-164.000,-149.000,-173.000
1.466,-239.500,-164.500,-149.500,-174.000
1.467,-241.000,-167.000,-152.000,-176.000
1.468,-244.500,-170.500,-155.500,-180.000
1.469,-248.500,-175.500,-160.500,-184.500
1.470,-253.000,-180.500,-165.500,-189.500
1.471,-256.000,-183.500,-169.500,-193.500
1.472,-256.000,-184.500,-170.500,-194.500
1.473,-253.500,-182.500,-169.000,-192.500
1.474,-248.000,-177.500,-164.500,-187.500
1.475,-241.500,-171.000,-158.000,-181.500
1.476,-235.500,-164.500,-151.500,-175.000
1.477,-231.000,-159.000,-146.500,-169.500
1.478,-228.500,-155.500,-142.500,-166.000
1.479,-227.500,-153.500,-140.500,-164.000
1.480,-228.000,-153.000,-139.500,-163.500
1.481,-229.500,-154.000,-140.500,-164.500
1.482,-232.000,-156.000,-142.500,-166.500
1.483,-234.500,-158.000,-144.500,-169.000
1.484,-237.000,-160.000,-146.500,-171.000
1.485,-239.000,-162.000,-149.000,-173.000
1.486,-241.000,-164.500,-151.000,-175.500
1.487,-243.500,-167.000,-153.500,-178.000
1.488,-245.000,-168.500,-155.500,-180.000
1.489,-246.000,-169.500,-157.000,-181.000
1.490,-246.000,-170.000,-157.500,-182.000
1.491,-246.000,-171.000,-158.500,-183.000
1.492,-246.500,-172.500,-160.500,-185.000
1.493,-247.500,-174.000,-162.000,-187.000
1.494,-247.000,-174.500,-162.500,-187.000
1.495,-244.500,-172.500,-160.000,-185.000
1.496,-240.500,-168.500,-156.500,-181.000
1.497,-236.500,-164.000,-152.000,-176.500
1.498,-233.000,-160.000,-147.500,-172.500
1.499,-230.500,-156.500,-144.000,-169.000
1.500,-229.500,-154.000,-141.500,-166.500
1.501,-230.000,-153.500,-141.000,-166.000
1.502,-232.000,-155.500,-142.500,-167.500
1.503,-235.000,-158.000,-145.500,-170.500
1.504,-239.000,-162.000,-149.000,-174.000
1.505,-242.000,-165.500,-152.500,-177.500
1.506,-244.500,-168.000,-155.000,-180.000
1.507,-245.500,-169.500,-156.500,-181.500
1.508,-245.500,-170.500,-157.000,-182.500
1.509,-245.500,-171.000,-157.500,-183.000
1.510,-246.000,-172.000,-158.500,-184.000
1.511,-246.500,-173.000,-159.500,-185.500
1.512,-247.000,-174.000,-161.000,-187.000
1.513,-246.500,-174.000,-161.500,-187.000
1.514,-243.500,-172.000,-159.500,-185.000
1.515,-239.000,-167.500,-155.000,-180.500
1.516,-233.500,-162.000,-150.000,-175.500
1.517,-230.000,-157.500,-146.000,-171.000
1.518,-228.000,-155.000,-143.500,-168.500
1.519,-228.500,-154.000,-142.500,-167.500
1.520,-230.000,-154.500,-142.500,-167.500
1.521,-232.500,-156.000,-143.500,-169.000
1.522,-235.000,-157.500,-145.000,-170.000
1.523,-237.000,-159.000,-146.500,-171.500
1.524,-238.000,-160.000,-147.000,-172.500
1.525,-238.500,-160.500,-147.500,-172.500
1.526,-239.000,-161.000,-148.000,-173.000
1.527,-239.500,-162.000,-149.000,-174.000
1.528,-240.500,-163.500,-150.500,-175.500
1.529,-241.000,-165.000,-152.500,-177.000
1.530,-242.000,-166.000,-154.000,-178.500
1.531,-242.000,-167.000,-155.000,-180.000
1.532,-241.500,-167.000,-155.500,-180.000
1.533,-240.000,-166.500,-155.000,-179.500
1.534,-238.500,-165.000,-154.000,-178.500
1.535,-237.000,-164.000,-153.000,-177.500
1.536,-235.500,-162.500,-151.500,-176.000
1.537,-233.500,-160.000,-149.000,-173.500
1.538,-231.000,-156.500,-146.000,-170.000
1.539,-229.000,-154.000,-143.000,-167.000
1.540,-229.000,-153.000,-141.500,-166.000
1.541,-230.500,-154.000,-142.000,-166.000
1.542,-232.000,-155.000,-142.500,-167.000
1.543,-232.500,-155.500,-143.000,-167.000
1.544,-232.500,-155.000,-142.000,-166.500
1.545,-232.000,-155.000,-141.500,-166.000
1.546,-232.000,-154.500,-141.500,-166.000
1.547,-232.500,-155.000,-142.000,-166.500
1.548,-233.000,-156.000,-142.500,-167.500
1.549,-233.000,-156.500,-143.500,-168.500
1.550,-233.500,-157.500,-144.500,-169.500
1.551,-234.500,-159.500,-146.500,-171.500
1.552,-235.500,-161.000,-148.500,-173.000
1.553,-235.500,-162.000,-150.000,-174.500
1.554,-234.000,-161.500,-149.500,-174.000
1.555,-231.500,-159.500,-147.500,-171.500
1.556,-227.500,-155.500,-143.500,-168.000
1.557,-223.500,-151.000,-139.000,-163.500
1.558,-220.000,-147.000,-134.500,-159.500
1.559,-218.000,-143.500,-131.500,-156.000
1.560,-217.500,-141.500,-129.500,-154.000
1.561,-218.000,-141.500,-128.500,-154.000
1.562,-219.500,-142.000,-129.000,-154.500
1.563,-221.000,-143.000,-130.000,-155.500
1.564,-222.000,-144.000,-130.500,-156.000
1.565,-223.000,-145.000,-131.500,-157.000
1.566,-224.000,-146.000,-132.500,-158.000
1.567,-225.500,-147.500,-133.500,-159.000
1.568,-226.500,-149.500,-135.500,-161.000
1.569,-228.000,-151.000,-137.500,-162.500
1.570,-228.500,-153.000,-139.000,-164.000
1.571,-228.500,-153.500,-140.000,-164.500
1.572,-227.000,-153.000,-139.500,-164.000
1.573,-225.000,-151.500,-138.500,-162.500
1.574,-223.000,-149.000,-136.500,-160.500
1.575,-220.000,-146.500,-133.500,-157.500
1.576,-216.500,-142.500,-129.500,-153.500
1.577,-212.500,-138.000,-125.500,-149.000
1.578,-209.000,-133.500,-121.000,-145.000
1.579,-206.500,-130.000,-117.000,-141.500
1.580,-205.000,-128.000,-115.000,-139.000
1.581,-205.500,-127.000,-113.500,-138.000
1.582,-205.500,-127.000,-113.000,-137.500
1.583,-206.000,-126.500,-112.500,-137.000
1.584,-205.500,-126.000,-112.000,-136.500
1.585,-204.500,-125.500,-111.500,-135.500
1.586,-203.500,-124.500,-110.500,-134.500
1.587,-202.500,-123.500,-110.000,-133.500
1.588,-201.000,-123.000,-109.000,-132.500
1.589,-200.000,-122.500,-108.500,-132.000
1.590,-200.000,-123.500,-109.500,-133.000
1.591,-202.000,-126.000,-112.500,-136.000
1.592,-206.000,-130.500,-117.000,-141.000
1.593,-209.500,-135.000,-122.000,-145.500
1.594,-211.000,-137.500,-124.500,-148.000
1.595,-209.000,-136.500,-123.000,-146.500
1.596,-204.000,-131.500,-118.000,-141.500
1.597,-197.000,-124.000,-110.500,-134.000
1.598,-190.500,-116.500,-103.000,-126.500
1.599,-185.000,-110.000,-96.500,-120.500
1.600,-181.500,-106.000,-92.000,-116.000
1.601,-180.500,-104.500,-90.000,-114.000
1.602,-181.000,-104.500,-90.000,-114.000
1.603,-182.000,-105.000,-90.500,-114.000
1.604,-182.500,-105.000,-90.500,-114.500
1.605,-182.500,-105.000,-90.500,-114.000
1.606,-182.500,-104.500,-90.500,-114.000
1.607,-182.500,-104.500,-90.500,-114.000
1.608,-183.000,-105.500,-92.000,-115.500
1.609,-185.000,-108.000,-94.500,-118.000
1.610,-188.000,-111.500,-98.500,-121.500
1.611,-191.000,-115.500,-102.500,-126.000
1.612,-193.000,-118.000,-105.500,-128.500
1.613,-192.500,-118.500,-106.000,-129.500
1.614,-190.500,-117.000,-104.500,-128.000
1.615,-186.000,-113.000,-100.500,-124.000
1.616,-181.000,-108.000,-95.000,-118.500
1.617,-175.000,-101.500,-88.500,-112.000
1.618,-169.500,-95.000,-82.000,-105.500
1.619,-165.000,-89.500,-76.500,-99.500
1.620,-161.500,-85.000,-72.000,-95.500
1.621,-159.500,-82.500,-69.500,-92.500
1.622,-158.500,-81.000,-68.000,-91.000
1.623,-158.500,-80.000,-67.500,-90.500
1.624,-158.000,-79.500,-67.000,-89.500
1.625,-158.000,-79.000,-66.500,-89.000
1.626,-157.500,-79.000,-66.000,-89.000
1.627,-158.000,-80.000,-67.000,-89.500
1.628,-158.500,-81.000,-68.000,-90.500
1.629,-160.000,-82.500,-70.000,-92.500
1.630,-161.500,-84.500,-72.000,-94.500
1.631,-162.500,-86.500,-74.000,-96.500
1.632,-163.500,-88.000,-75.500,-98.000
1.633,-162.500,-88.000,-76.000,-98.000
1.634,-160.000,-86.000,-74.000,-96.500
1.635,-156.000,-82.500,-71.000,-93.000
1.636,-151.500,-78.500,-66.500,-88.500
1.637,-147.500,-74.000,-62.000,-84.000
1.638,-145.000,-70.500,-58.000,-80.500
1.639,-144.000,-68.000,-55.500,-78.000
1.640,-144.000,-67.000,-54.500,-77.000
1.641,-145.000,-67.500,-55.000,-77.500
1.642,-146.500,-68.500,-55.500,-78.000
1.643,-146.500,-68.000,-55.000,-77.500
1.644,-145.000,-66.500,-53.500,-76.000
1.645,-144.000,-64.500,-52.000,-74.500
1.646,-144.000,-64.500,-51.500,-74.500
1.647,-145.500,-66.000,-53.500,-76.500
1.648,-148.000,-68.500,-56.000,-79.500
1.649,-150.500,-71.000,-59.000,-82.500
1.650,-152.000,-73.500,-62.000,-85.000
1.651,-154.000,-76.000,-64.500,-87.500
1.652,-155.000,-78.000,-67.000,-90.000
1.653,-156.000,-79.500,-69.000,-91.500
1.654,-155.500,-79.500,-69.500,-92.500
1.655,-154.500,-78.500,-69.000,-91.500
1.656,-152.500,-76.500,-66.500,-89.500
1.657,-149.500,-73.000,-63.000,-86.500
1.658,-146.500,-69.500,-59.500,-82.500
1.659,-145.000,-67.500,-56.500,-80.500
1.660,-146.000,-67.500,-56.500,-80.500
1.661,-149.500,-70.000,-59.000,-82.500
1.662,-153.500,-74.000,-62.500,-86.500
1.663,-157.500,-77.500,-66.000,-90.000
1.664,-161.000,-81.000,-69.500,-93.500
1.665,-163.500,-83.500,-72.000,-96.500
1.666,-165.500,-86.000,-74.000,-98.500
1.667,-167.000,-87.500,-76.000,-100.500
1.668,-169.500,-90.000,-79.000,-103.500
1.669,-173.000,-94.000,-82.500,-107.500
1.670,-176.500,-98.000,-87.500,-112.000
1.671,-180.000,-102.500,-91.500,-116.500
1.672,-182.000,-105.500,-95.000,-120.000
1.673,-182.500,-107.000,-96.500,-121.500
1.674,-182.000,-107.000,-96.500,-121.500
1.675,-181.000,-106.000,-95.500,-120.500
1.676,-179.500,-104.500,-93.500,-118.500
1.677,-178.000,-103.000,-91.500,-116.500
1.678,-177.000,-101.000,-90.000,-114.000
1.679,-177.000,-100.000,-88.500,-113.000
1.680,-178.000,-100.500,-89.000,-113.000
1.681,-180.500,-102.500,-90.500,-115.000
1.682,-184.000,-105.500,-93.500,-118.000
1.683,-187.500,-108.500,-96.500,-121.000
1.684,-191.000,-111.500,-99.000,-124.000
1.685,-193.000,-114.000,-101.500,-126.500
1.686,-195.000,-116.500,-103.500,-128.500
1.687,-196.500,-118.000,-105.000,-130.500
1.688,-198.000,-120.000,-107.000,-132.500
1.689,-200.000,-122.500,-110.000,-135.000
1.690,-202.500,-125.500,-113.500,-138.500
1.691,-205.500,-129.000,-117.000,-142.500
1.692,-208.500,-132.500,-121.000,-146.500
1.693,-211.500,-136.500,-125.000,-150.500
1.694,-214.500,-140.000,-128.500,-154.000
1.695,-216.500,-142.000,-131.000,-156.500
1.696,-216.500,-142.500,-131.500,-157.000
1.697,-215.000,-140.500,-129.000,-154.500
1.698,-211.500,-136.500,-125.000,-151.000
1.699,-208.000,-132.000,-120.500,-146.500
1.700,-205.000,-128.000,-116.500,-142.500
1.701,-203.500,-125.000,-114.000,-140.000
1.702,-203.500,-124.500,-113.000,-139.500
1.703,-204.500,-125.000,-113.500,-140.500
1.704,-207.500,-127.000,-116.000,-142.500
1.705,-211.500,-131.000,-119.500,-146.500
1.706,-217.000,-137.000,-125.500,-152.500
1.707,-223.000,-143.000,-132.000,-158.500
1.708,-228.000,-148.500,-137.500,-164.000
1.709,-230.500,-152.000,-141.000,-167.000
1.710,-230.500,-152.500,-142.000,-168.000
1.711,-228.500,-151.500,-141.000,-167.500
1.712,-226.000,-150.000,-139.500,-166.000
1.713,-223.500,-148.000,-138.000,-164.500
1.714,-220.500,-146.000,-135.500,-162.000
1.715,-217.000,-142.500,-132.000,-158.500
1.716,-213.000,-138.500,-128.000,-154.500
1.717,-209.500,-135.000,-124.000,-150.500
1.718,-207.500,-132.000,-121.500,-148.000
1.719,-207.500,-131.000,-120.000,-146.500
1.720,-209.000,-131.500,-120.500,-146.500
1.721,-210.500,-132.000,-121.000,-147.000
1.722,-212.000,-133.000,-121.500,-147.500
1.723,-213.000,-133.500,-122.000,-148.000
1.724,-212.500,-133.500,-121.500,-147.500
1.725,-212.500,-133.500,-121.500,-147.500
1.726,-214.000,-135.000,-123.500,-149.500
1.727,-217.000,-138.500,-127.000,-153.000
1.728,-221.500,-143.500,-132.000,-158.000
1.729,-225.500,-148.000,-136.500,-162.500
1.730,-228.000,-151.500,-140.500,-167.000
1.731,-230.000,-154.000,-143.500,-170.000
1.732,-230.000,-155.000,-145.000,-171.500
1.733,-228.500,-154.500,-145.000,-172.000
1.734,-226.000,-153.000,-143.500,-171.000
1.735,-223.000,-150.500,-141.500,-169.000
1.736,-219.000,-146.500,-138.500,-166.000
1.737,-214.500,-142.000,-134.000,-162.000
1.738,-210.500,-137.500,-130.000,-158.000
1.739,-208.000,-134.500,-127.500,-155.500
1.740,-208.500,-133.500,-127.000,-155.000
1.741,-210.000,-135.000,-127.500,-155.500
1.742,-213.000,-137.000,-129.000,-156.500
1.743,-215.500,-139.500,-130.500,-157.500
1.744,-217.500,-141.500,-131.500,-158.000
1.745,-219.500,-143.500,-132.500,-158.000
1.746,-221.500,-145.500,-133.500,-158.000
1.747,-224.000,-148.000,-135.000,-159.000
1.748,-227.000,-151.000,-137.500,-160.500
1.749,-230.500,-154.500,-140.000,-163.000
1.750,-233.500,-158.000,-143.000,-165.500
1.751,-235.500,-160.500,-145.500,-167.500
1.752,-236.500,-162.000,-147.000,-169.500
1.753,-235.000,-161.500,-147.000,-169.500
1.754,-232.000,-159.000,-145.000,-168.000
1.755,-227.500,-154.500,-141.500,-165.000
1.756,-222.000,-149.000,-137.000,-161.000
1.757,-216.000,-143.500,-132.000,-156.500
1.758,-211.500,-138.000,-127.500,-152.500
1.759,-208.000,-134.000,-124.000,-149.000
1.760,-206.000,-131.000,-121.000,-146.500
1.761,-206.000,-130.000,-120.000,-145.500
1.762,-208.000,-131.500,-121.000,-146.500
1.763,-211.000,-134.000,-124.000,-149.000
1.764,-215.000,-138.000,-128.000,-152.500
1.765,-219.500,-143.000,-132.000,-157.000
1.766,-223.000,-147.000,-136.000,-160.500
1.767,-225.500,-149.500,-138.500,-162.500
1.768,-227.000,-151.000,-140.000,-164.500
1.769,-227.500,-152.500,-141.500,-165.500
1.770,-228.500,-153.500,-143.000,-167.000
1.771,-229.000,-155.000,-144.500,-168.500
1.772,-229.500,-156.500,-146.000,-170.000
1.773,-228.500,-156.500,-146.000,-170.500
1.774,-226.500,-155.000,-144.500,-169.000
1.775,-223.000,-152.000,-141.500,-166.000
1.776,-218.500,-147.500,-137.500,-161.500
1.777,-213.500,-142.500,-132.000,-156.500
1.778,-209.000,-137.000,-127.000,-151.000
1.779,-205.500,-133.000,-122.500,-146.500
1.780,-204.500,-131.000,-120.500,-144.500
1.781,-206.500,-132.000,-121.500,-145.000
1.782,-210.500,-135.000,-124.500,-148.500
1.783,-215.500,-140.000,-129.000,-153.000
1.784,-220.500,-144.500,-133.500,-157.500
1.785,-224.000,-147.500,-137.000,-161.000
1.786,-225.500,-149.500,-138.500,-162.000
1.787,-225.500,-149.500,-138.500,-162.500
1.788,-225.500,-149.500,-138.500,-162.500
1.789,-225.500,-150.000,-139.500,-163.500
1.790,-226.000,-151.500,-140.500,-165.000
1.791,-227.000,-153.000,-142.000,-166.500
1.792,-226.500,-153.500,-143.000,-167.500
1.793,-225.000,-152.500,-142.500,-167.000
1.794,-221.500,-150.000,-140.000,-164.500
1.795,-216.500,-145.500,-136.000,-160.500
1.796,-211.500,-140.500,-131.000,-155.500
1.797,-207.500,-136.000,-126.500,-150.500
1.798,-205.000,-132.500,-123.000,-147.500
1.799,-205.000,-132.000,-122.500,-146.500
1.800,-207.500,-133.000,-124.000,-148.000
1.801,-212.000,-136.500,-127.000,-151.000
1.802,-217.000,-140.500,-131.000,-155.000
1.803,-221.500,-145.000,-135.000,-159.000
1.804,-225.000,-148.500,-138.500,-162.500
1.805,-227.000,-150.500,-140.000,-163.500
1.806,-227.000,-150.500,-140.000,-164.000
1.807,-226.000,-150.500,-140.000,-163.500
1.808,-225.500,-150.000,-139.500,-163.000
1.809,-224.000,-149.500,-139.000,-162.500
1.810,-223.000,-148.500,-138.500,-162.000
1.811,-222.000,-148.500,-138.500,-162.000
1.812,-221.500,-148.500,-139.000,-163.000
1.813,-222.000,-150.000,-140.500,-164.500
1.814,-222.500,-150.500,-141.500,-165.500
1.815,-221.500,-150.000,-141.000,-165.500
1.816,-219.500,-148.000,-138.500,-163.500
1.817,-216.000,-144.000,-134.500,-159.500
1.818,-212.500,-139.500,-130.000,-154.500
1.819,-209.000,-135.500,-125.500,-150.500
1.820,-207.500,-133.000,-123.000,-148.000
1.821,-209.000,-133.500,-123.500,-148.000
1.822,-212.500,-136.500,-126.500,-151.000
1.823,-218.000,-141.500,-131.500,-156.000
1.824,-224.000,-147.500,-136.500,-161.500
1.825,-229.000,-152.500,-141.500,-166.500
1.826,-233.000,-156.500,-145.500,-170.500
1.827,-236.000,-160.000,-149.000,-173.000
1.828,-237.000,-161.500,-150.500,-174.500
1.829,-236.500,-161.000,-150.000,-174.000
1.830,-234.000,-159.000,-148.500,-172.000
1.831,-231.000,-157.500,-146.500,-170.500
1.832,-229.000,-156.000,-145.500,-169.500
1.833,-228.500,-156.000,-145.000,-169.500
1.834,-227.500,-156.000,-145.000,-169.500
1.835,-226.500,-155.000,-144.500,-169.000
1.836,-224.500,-153.000,-142.500,-167.000
1.837,-222.000,-150.500,-139.500,-164.000
1.838,-219.000,-147.000,-136.000,-161.000
1.839,-217.000,-144.000,-132.500,-157.500
1.840,-216.000,-142.000,-131.000,-155.500
1.841,-217.000,-142.500,-131.000,-155.500
1.842,-219.500,-144.000,-132.500,-157.000
1.843,-223.000,-147.000,-135.000,-160.000
1.844,-226.000,-150.000,-138.000,-162.500
1.845,-227.500,-151.500,-139.000,-164.000
1.846,-228.000,-152.000,-139.500,-164.500
1.847,-227.000,-151.500,-139.000,-164.000
1.848,-226.500,-151.500,-138.500,-163.500
1.849,-226.000,-151.500,-138.500,-164.000
1.850,-225.500,-152.000,-139.000,-165.000
1.851,-225.500,-152.500,-140.000,-165.500
1.852,-225.000,-153.000,-140.500,-166.500
1.853,-224.500,-153.000,-141.000,-167.000
1.854,-223.000,-152.000,-140.500,-166.500
1.855,-221.500,-151.000,-139.500,-165.500
1.856,-221.000,-150.000,-138.500,-165.000
1.857,-220.500,-149.000,-138.000,-164.500
1.858,-220.500,-148.500,-137.000,-164.000
1.859,-220.500,-147.500,-136.000,-162.500
1.860,-220.500,-146.500,-135.000,-161.500
1.861,-221.000,-145.500,-134.000,-160.000
1.862,-221.500,-145.500,-133.500,-160.000
1.863,-222.500,-146.500,-134.000,-160.000
1.864,-223.500,-147.000,-134.500,-160.000
1.865,-224.500,-148.000,-135.500,-161.000
1.866,-226.000,-149.000,-137.000,-162.500
1.867,-227.500,-151.000,-139.000,-164.500
1.868,-229.000,-153.000,-140.500,-166.500
1.869,-230.000,-154.000,-142.000,-168.000
1.870,-230.000,-154.500,-143.000,-169.000
1.871,-230.000,-155.000,-143.500,-169.500
1.872,-229.500,-155.500,-144.000,-170.000
1.873,-229.000,-155.500,-144.500,-170.500
1.874,-228.500,-155.000,-144.000,-170.000
1.875,-226.500,-153.500,-143.000,-168.500
1.876,-223.500,-150.000,-139.500,-165.500
1.877,-219.500,-145.500,-135.000,-161.000
1.878,-215.500,-141.000,-130.000,-156.500
1.879,-213.000,-138.000,-126.500,-153.000
1.880,-213.000,-137.000,-125.500,-151.500
1.881,-215.500,-138.500,-127.000,-153.000
1.882,-220.000,-142.500,-130.500,-156.500
1.883,-225.500,-147.500,-135.500,-162.000
1.884,-231.000,-152.500,-141.000,-167.000
1.885,-235.500,-157.500,-145.500,-172.000
1.886,-238.500,-160.500,-148.500,-175.000
1.887,-239.500,-161.500,-150.000,-176.500
1.888,-239.000,-161.500,-149.500,-176.000
1.889,-238.000,-160.500,-148.500,-175.500
1.890,-237.500,-160.500,-149.000,-175.500
1.891,-237.500,-161.000,-149.500,-176.500
1.892,-236.500,-161.000,-149.500,-176.500
1.893,-234.000,-159.500,-148.000,-175.000
1.894,-230.000,-156.000,-145.000,-172.000
1.895,-226.000,-153.000,-141.500,-168.500
1.896,-223.000,-149.500,-138.500,-165.500
1.897,-219.500,-146.000,-134.500,-162.000
1.898,-216.000,-142.000,-130.000,-158.000
1.899,-212.000,-137.000,-125.000,-153.000
1.900,-208.500,-132.500,-120.500,-148.500
1.901,-206.500,-129.500,-117.000,-145.500
1.902,-205.000,-127.500,-115.000,-143.000
1.903,-204.500,-126.000,-113.500,-141.000
1.904,-203.500,-125.000,-112.500,-140.000
1.905,-203.000,-124.500,-111.500,-139.000
1.906,-202.500,-124.000,-111.000,-138.500
1.907,-201.500,-123.000,-110.500,-138.000
1.908,-200.500,-122.500,-110.000,-137.500
1.909,-199.500,-122.000,-109.500,-137.000
1.910,-198.000,-121.500,-109.000,-137.000
1.911,-197.000,-121.000,-108.500,-137.000
1.912,-196.000,-121.000,-108.500,-137.000
1.913,-194.000,-120.000,-107.500,-136.000
1.914,-190.500,-117.000,-105.000,-133.000
1.915,-185.000,-112.500,-100.000,-128.500
1.916,-179.000,-106.000,-94.000,-122.000
1.917,-172.500,-99.500,-87.500,-115.500
1.918,-168.000,-93.500,-82.000,-110.000
1.919,-166.000,-90.500,-78.500,-107.000
1.920,-166.500,-90.000,-78.000,-106.500
1.921,-169.500,-91.500,-79.500,-108.500
1.922,-172.500,-94.000,-81.500,-110.500
1.923,-175.000,-96.000,-83.000,-112.500
1.924,-176.000,-97.500,-84.000,-113.000
1.925,-176.000,-97.500,-84.000,-113.000
1.926,-175.500,-97.000,-83.500,-112.000
1.927,-175.000,-96.500,-83.000,-111.500
1.928,-174.000,-95.500,-82.500,-111.000
1.929,-173.000,-95.000,-82.000,-110.500
1.930,-172.500,-94.500,-82.000,-110.500
1.931,-172.500,-95.000,-82.500,-111.000
1.932,-172.500,-95.500,-84.000,-112.000
1.933,-173.000,-96.500,-85.000,-113.000
1.934,-172.000,-96.500,-85.000,-113.000
1.935,-169.500,-94.500,-83.500,-111.000
1.936,-166.000,-91.000,-79.500,-107.500
1.937,-161.500,-86.000,-75.000,-102.500
1.938,-157.500,-81.500,-70.000,-97.500
1.939,-154.500,-77.500,-65.500,-93.500
1.940,-153.500,-75.500,-63.000,-91.000
1.941,-154.000,-75.000,-62.000,-90.000
1.942,-155.000,-76.000,-62.500,-91.000
1.943,-157.000,-77.000,-63.500,-92.000
1.944,-158.500,-78.500,-65.000,-93.500
1.945,-160.500,-80.500,-67.500,-95.500
1.946,-163.500,-83.500,-70.500,-98.500
1.947,-166.000,-86.000,-73.000,-101.500
1.948,-167.500,-88.000,-74.500,-103.000
1.949,-167.500,-88.500,-75.000,-104.000
1.950,-167.500,-89.500,-76.000,-105.000
1.951,-169.500,-92.000,-79.000,-108.000
1.952,-173.000,-96.500,-83.500,-112.500
1.953,-176.500,-101.000,-88.000,-117.000
1.954,-179.000,-104.000,-91.000,-120.000
1.955,-179.500,-105.000,-92.000,-121.000
1.956,-179.000,-104.000,-91.500,-120.000
1.957,-177.500,-101.500,-89.000,-118.000
1.958,-176.000,-99.500,-87.000,-116.000
1.959,-175.500,-98.000,-85.500,-114.500
1.960,-176.500,-97.500,-85.000,-114.000
1.961,-179.000,-99.000,-86.000,-115.000
1.962,-182.500,-102.000,-89.000,-118.000
1.963,-186.500,-106.000,-92.500,-122.000
1.964,-191.000,-110.500,-97.000,-126.000
1.965,-195.500,-115.000,-101.500,-130.500
1.966,-200.000,-119.500,-106.000,-135.000
1.967,-205.000,-125.000,-111.500,-140.000
1.968,-210.500,-131.000,-117.500,-146.000
1.969,-216.500,-137.500,-124.000,-152.500
1.970,-222.500,-144.500,-131.000,-159.500
1.971,-228.500,-151.000,-137.500,-166.000
1.972,-233.000,-156.500,-143.000,-172.000
1.973,-235.500,-160.000,-146.500,-175.500
1.974,-236.000,-161.500,-148.000,-177.000
1.975,-234.500,-160.500,-147.000,-176.500
1.976,-232.000,-158.000,-144.500,-174.000
1.977,-228.000,-154.000,-140.500,-170.000
1.978,-224.000,-149.500,-136.000,-165.500
1.979,-221.000,-145.500,-132.500,-161.500
1.980,-220.000,-143.500,-130.000,-159.500
1.981,-221.000,-143.500,-130.000,-159.000
1.982,-222.500,-144.000,-131.000,-160.000
1.983,-223.500,-145.000,-131.500,-161.000
1.984,-224.000,-145.500,-132.000,-161.500
1.985,-225.500,-147.000,-133.500,-163.000
1.986,-228.000,-150.000,-136.500,-165.500
1.987,-232.000,-154.000,-140.500,-169.500
1.988,-236.500,-159.000,-145.500,-174.000
1.989,-241.000,-163.000,-150.000,-178.500
1.990,-244.500,-167.000,-154.000,-183.000
1.991,-246.500,-169.500,-157.000,-186.000
1.992,-246.500,-170.500,-158.000,-187.000
1.993,-244.500,-169.000,-157.000,-186.000
1.994,-241.000,-166.000,-154.000,-182.500
1.995,-237.000,-162.500,-151.000,-179.500
1.996,-235.000,-160.500,-149.000,-177.500
1.997,-235.000,-160.500,-149.000,-177.000
1.998,-236.000,-160.500,-149.000,-177.000
1.999,-236.000,-159.500,-148.000,-176.000
2.000,-234.500,-157.000,-145.000,-173.000
2.001,-232.500,-154.000,-142.000,-170.000
2.002,-231.000,-152.000,-140.000,-168.000
2.003,-231.000,-151.000,-139.000,-167.500
2.004,-232.000,-151.500,-139.500,-167.500
2.005,-233.000,-153.000,-140.500,-168.500
2.006,-234.500,-154.500,-142.000,-170.000
2.007,-236.000,-155.500,-143.000,-171.000
2.008,-237.000,-157.000,-144.500,-172.000
2.009,-238.000,-158.500,-146.000,-173.500
2.010,-239.500,-160.500,-149.000,-176.000
2.011,-242.500,-164.000,-152.500,-179.500
2.012,-245.000,-168.000,-156.500,-183.500
2.013,-246.500,-170.500,-159.000,-186.000
2.014,-246.000,-170.500,-159.500,-186.500
2.015,-243.000,-168.500,-157.500,-184.000
2.016,-238.500,-164.000,-153.000,-180.000
2.017,-233.500,-158.500,-147.500,-174.500
2.018,-229.500,-153.500,-142.500,-170.000
2.019,-227.500,-151.000,-139.000,-167.000
2.020,-228.500,-151.000,-139.000,-167.000
2.021,-233.000,-154.500,-142.000,-170.000
2.022,-240.000,-161.000,-148.000,-176.000
2.023,-248.000,-169.000,-156.000,-184.000
2.024,-256.000,-177.000,-164.000,-192.000
2.025,-263.500,-184.500,-171.500,-199.500
2.026,-270.500,-191.500,-179.000,-206.500
2.027,-276.500,-198.000,-186.000,-213.000
2.028,-282.000,-204.000,-192.000,-219.000
2.029,-286.500,-209.000,-197.500,-224.500
2.030,-290.500,-214.000,-202.500,-229.500
2.031,-293.000,-217.500,-206.500,-233.500
2.032,-293.000,-218.500,-207.500,-235.000
2.033,-289.000,-215.500,-204.500,-232.000
2.034,-280.000,-207.500,-196.000,-223.500
2.035,-266.500,-194.500,-183.000,-210.000
2.036,-249.500,-177.000,-165.000,-192.500
2.037,-228.000,-154.500,-143.000,-170.000
2.038,-201.500,-127.500,-115.500,-142.000
2.039,-171.500,-96.500,-83.500,-110.500
2.040,-139.500,-63.000,-49.500,-76.000
2.041,-107.000,-29.000,-15.500,-41.500
2.042,-75.000,3.500,18.000,-7.500
2.043,-43.500,35.500,51.000,25.500
2.044,-11.500,68.500,84.500,59.500
2.045,22.000,102.500,119.500,95.000
2.046,58.000,139.000,156.500,132.000
2.047,96.000,177.000,195.500,171.500
2.048,137.000,218.500,237.500,214.000
2.049,182.000,263.500,283.500,260.000
2.050,229.000,310.000,331.000,308.000
2.051,275.000,356.000,377.500,354.500
2.052,316.000,396.500,418.500,396.000
2.053,347.000,427.500,449.500,427.000
2.054,364.500,445.000,466.500,444.000
2.055,367.500,448.000,469.000,446.500
2.056,357.500,438.500,458.500,436.000
2.057,338.000,419.000,439.000,416.000
2.058,313.500,395.000,414.000,391.000
2.059,285.500,367.500,386.500,363.000
2.060,255.000,337.500,356.000,332.500
2.061,221.000,304.000,322.000,299.000
2.062,185.500,269.000,287.000,263.500
2.063,151.000,234.500,252.500,229.000
2.064,119.500,203.500,221.000,197.000
2.065,91.000,174.500,192.000,168.000
2.066,63.000,146.500,164.000,139.000
2.067,34.000,117.000,134.000,109.000
2.068,2.500,85.500,101.500,76.000
2.069,-30.000,52.000,67.500,42.500
2.070,-62.000,19.000,34.000,8.500
2.071,-92.000,-12.500,2.000,-23.000
2.072,-119.000,-40.500,-27.000,-51.500
2.073,-142.500,-65.000,-52.000,-76.500
2.074,-162.500,-85.500,-73.000,-97.500
2.075,-178.500,-102.000,-90.000,-114.500
2.076,-192.000,-115.500,-103.000,-128.000
2.077,-203.000,-126.500,-114.000,-139.000
2.078,-212.500,-135.500,-123.000,-148.500
2.079,-221.500,-143.500,-131.000,-157.000
2.080,-230.000,-151.000,-138.500,-164.000
2.081,-237.000,-157.500,-144.500,-170.500
2.082,-242.000,-161.500,-148.500,-174.500
2.083,-244.000,-163.500,-149.500,-176.000
2.084,-243.500,-163.000,-149.000,-175.500
2.085,-242.000,-161.500,-147.500,-174.000
2.086,-241.000,-160.500,-146.500,-173.000
2.087,-241.500,-161.000,-147.000,-173.500
2.088,-243.000,-163.000,-149.000,-175.500
2.089,-245.000,-165.000,-151.500,-178.000
2.090,-246.000,-166.500,-153.000,-180.000
2.091,-245.500,-166.500,-153.500,-180.000
2.092,-244.000,-165.500,-152.500,-179.500
2.093,-241.500,-164.000,-151.500,-178.500
2.094,-240.500,-163.500,-150.500,-178.000
2.095,-240.500,-164.000,-151.000,-178.500
2.096,-241.500,-165.000,-152.000,-179.500
2.097,-242.500,-165.500,-152.500,-180.000
2.098,-242.500,-164.500,-151.500,-179.000
2.099,-241.500,-163.000,-149.500,-177.000
2.100,-240.500,-161.500,-147.500,-175.000
2.101,-240.000,-160.000,-146.000,-173.500
2.102,-240.000,-159.000,-145.000,-172.500
2.103,-240.000,-159.000,-144.500,-172.000
2.104,-240.000,-159.000,-144.500,-172.000
2.105,-240.000,-159.000,-144.000,-172.000
2.106,-239.500,-159.000,-144.000,-172.000
2.107,-240.500,-160.500,-145.000,-173.500
2.108,-243.500,-163.500,-148.000,-176.500
2.109,-247.500,-168.000,-152.500,-181.000
2.110,-252.000,-173.000,-157.500,-186.000
2.111,-255.000,-176.500,-162.000,-190.500
2.112,-257.000,-179.000,-164.500,-193.000
2.113,-257.000,-180.000,-165.500,-194.000
2.114,-256.000,-179.500,-165.500,-194.500
2.115,-254.000,-178.000,-164.500,-193.000
2.116,-251.000,-175.000,-161.500,-190.000
2.117,-246.500,-170.500,-156.500,-185.500
2.118,-241.000,-165.000,-151.000,-179.500
2.119,-237.000,-160.000,-145.500,-174.500
2.120,-235.500,-158.000,-142.500,-172.000
2.121,-237.000,-158.500,-143.000,-172.000
2.122,-240.000,-161.000,-145.000,-175.000
2.123,-244.500,-165.000,-148.500,-178.500
2.124,-248.000,-168.500,-152.000,-182.000
2.125,-250.500,-171.000,-155.000,-184.500
2.126,-251.500,-172.500,-156.500,-186.000
2.127,-252.000,-173.500,-157.500,-186.500
2.128,-252.000,-173.500,-158.000,-187.500
2.129,-252.000,-174.500,-159.000,-188.500
2.130,-253.000,-176.000,-161.500,-191.000
2.131,-255.000,-179.000,-164.500,-194.500
2.132,-257.000,-182.000,-168.000,-198.000
2.133,-258.000,-184.000,-170.500,-201.000
2.134,-257.500,-184.000,-171.500,-202.000
2.135,-255.500,-182.000,-170.500,-201.000
2.136,-252.000,-178.500,-167.500,-198.500
2.137,-247.500,-173.500,-163.500,-194.500
2.138,-243.000,-168.500,-158.000,-190.000
2.139,-239.000,-163.500,-153.000,-184.500
2.140,-236.500,-160.000,-149.000,-180.500
2.141,-237.000,-159.000,-147.500,-178.500
2.142,-239.500,-161.000,-148.500,-178.500
2.143,-242.500,-164.000,-150.500,-179.500
2.144,-246.500,-167.500,-153.000,-181.000
2.145,-250.500,-171.000,-155.500,-183.000
2.146,-255.000,-175.000,-158.500,-185.000
2.147,-259.000,-179.000,-162.000,-187.500
2.148,-263.000,-182.500,-165.000,-190.500
2.149,-266.000,-186.000,-168.000,-193.000
2.150,-268.000,-188.000,-170.500,-195.500
2.151,-268.500,-189.500,-171.500,-197.000
2.152,-268.000,-189.000,-172.000,-198.000
2.153,-265.500,-187.500,-171.000,-197.500
2.154,-262.000,-185.000,-169.500,-196.000
2.155,-257.500,-180.500,-166.500,-193.500
2.156,-252.500,-176.000,-162.500,-190.000
2.157,-248.000,-171.000,-158.000,-186.500
2.158,-244.500,-167.000,-154.500,-183.000
2.159,-242.500,-164.000,-151.500,-180.500
2.160,-242.500,-163.000,-150.500,-179.000
2.161,-244.000,-164.000,-150.500,-179.500
2.162,-246.500,-165.500,-152.500,-181.000
2.163,-248.500,-167.500,-154.000,-182.000
2.164,-249.500,-168.000,-154.000,-182.500
2.165,-248.500,-167.000,-152.500,-181.000
2.166,-246.500,-165.000,-150.500,-178.500
2.167,-244.500,-163.500,-149.000,-177.500
2.168,-244.500,-163.500,-149.500,-178.000
2.169,-245.500,-165.500,-151.000,-180.000
2.170,-247.500,-168.000,-154.000,-182.500
2.171,-250.000,-171.000,-157.000,-185.500
2.172,-252.000,-173.500,-160.000,-188.500
2.173,-253.500,-175.500,-162.000,-191.000
2.174,-254.000,-176.500,-163.000,-192.000
2.175,-252.000,-175.000,-162.000,-190.500
2.176,-248.500,-171.500,-158.500,-187.000
2.177,-243.500,-166.000,-153.000,-181.500
2.178,-238.000,-160.000,-147.000,-175.000
2.179,-234.000,-155.000,-142.000,-170.000
2.180,-232.500,-152.000,-139.000,-167.000
2.181,-233.500,-152.000,-139.000,-167.000
2.182,-236.500,-154.500,-141.000,-169.000
2.183,-240.500,-158.000,-144.500,-172.500
2.184,-243.000,-161.000,-147.000,-175.000
2.185,-244.500,-162.500,-148.500,-176.500
2.186,-245.000,-163.000,-149.000,-176.500
2.187,-244.500,-163.500,-149.000,-176.500
2.188,-245.000,-164.500,-150.000,-177.000
2.189,-246.500,-166.500,-152.000,-179.000
2.190,-249.000,-169.500,-155.000,-182.000
2.191,-251.500,-172.500,-158.500,-185.500
2.192,-253.500,-175.000,-161.500,-188.500
2.193,-253.500,-176.000,-162.500,-189.500
2.194,-251.500,-174.500,-161.500,-188.500
2.195,-248.000,-171.500,-158.500,-185.000
2.196,-243.500,-167.000,-154.000,-180.500
2.197,-238.500,-161.500,-148.500,-175.500
2.198,-233.000,-155.500,-142.500,-169.500
2.199,-229.000,-150.500,-137.000,-164.500
2.200,-227.000,-147.500,-134.000,-161.500
2.201,-227.500,-147.500,-133.500,-161.000
2.202,-230.000,-149.500,-135.500,-163.000
2.203,-233.000,-152.000,-138.000,-165.500
2.204,-235.500,-154.000,-140.000,-168.000
2.205,-237.000,-155.500,-141.500,-169.500
2.206,-238.500,-157.000,-142.500,-171.000
2.207,-240.500,-159.000,-144.500,-173.000
2.208,-242.500,-162.000,-147.000,-175.500
2.209,-245.000,-164.500,-150.000,-178.500
2.210,-247.000,-167.000,-152.500,-181.000
2.211,-248.000,-168.500,-154.000,-183.000
2.212,-248.000,-169.500,-155.000,-184.000
2.213,-247.500,-169.500,-155.000,-184.000
2.214,-245.500,-168.500,-153.500,-182.500
2.215,-242.500,-166.000,-151.000,-180.000
2.216,-239.000,-162.000,-147.500,-176.500
2.217,-235.000,-157.500,-143.500,-172.000
2.218,-231.000,-153.000,-139.000,-167.500
2.219,-227.000,-147.500,-134.000,-162.000
2.220,-223.500,-143.000,-129.000,-157.000
2.221,-221.500,-140.000,-126.000,-154.000
2.222,-221.500,-139.500,-125.000,-152.500
2.223,-222.500,-140.500,-126.000,-153.000
2.224,-224.000,-142.000,-127.000,-154.500
2.225,-225.500,-143.500,-128.500,-155.500
2.226,-226.000,-144.000,-129.000,-156.500
2.227,-225.500,-143.500,-128.500,-156.000
2.228,-224.500,-143.000,-128.000,-156.000
2.229,-223.500,-142.500,-128.000,-156.000
2.230,-224.500,-144.000,-129.000,-157.500
2.231,-225.500,-146.000,-131.500,-160.000
2.232,-226.500,-147.500,-133.500,-161.500
2.233,-225.500,-147.500,-133.500,-162.000
2.234,-224.000,-146.500,-133.000,-160.500
2.235,-223.000,-146.000,-132.000,-159.500
2.236,-223.000,-146.000,-131.500,-159.500
2.237,-223.000,-146.000,-131.500,-159.000
2.238,-222.500,-145.000,-130.500,-158.000
2.239,-221.000,-142.500,-128.000,-155.000
2.240,-219.000,-140.000,-125.000,-152.500
2.241,-217.500,-137.000,-122.000,-149.500
2.242,-215.500,-135.000,-119.500,-147.500
2.243,-214.000,-132.500,-117.500,-145.500
2.244,-213.000,-131.000,-115.500,-143.500
2.245,-212.000,-130.000,-114.500,-142.500
2.246,-211.500,-129.500,-114.000,-142.000
2.247,-211.500,-129.500,-114.000,-142.000
2.248,-211.000,-129.500,-114.000,-141.500
2.249,-209.000,-128.500,-113.000,-140.500
2.250,-206.000,-126.500,-111.000,-138.500
2.251,-202.500,-124.000,-109.000,-136.500
2.252,-200.500,-123.000,-108.000,-135.000
2.253,-199.500,-123.000,-108.000,-135.500
2.254,-199.500,-123.500,-108.500,-136.000
2.255,-198.500,-123.000,-108.000,-135.500
2.256,-197.000,-121.000,-106.500,-133.500
2.257,-194.000,-117.500,-103.500,-130.500
2.258,-191.000,-114.000,-99.500,-126.500
2.259,-188.000,-110.000,-95.500,-122.500
2.260,-186.000,-107.000,-92.000,-119.000
2.261,-185.000,-105.500,-90.000,-117.000
2.262,-185.500,-104.500,-89.500,-116.000
2.263,-185.500,-104.500,-89.000,-115.500
2.264,-185.500,-104.000,-88.500,-114.500
2.265,-185.000,-103.500,-88.000,-114.000
2.266,-184.500,-103.500,-87.500,-113.500
2.267,-184.500,-103.500,-87.500,-113.500
2.268,-184.500,-104.000,-88.000,-113.500
2.269,-185.000,-105.000,-88.500,-114.500
2.270,-186.000,-106.500,-90.000,-116.000
2.271,-187.000,-108.000,-91.500,-118.000
2.272,-188.000,-110.000,-93.500,-119.500
2.273,-188.000,-111.000,-94.500,-120.500
2.274,-187.000,-111.000,-94.500,-120.500
2.275,-185.000,-109.500,-93.000,-119.000
2.276,-181.000,-106.000,-89.500,-115.000
2.277,-175.000,-99.500,-83.000,-109.000
2.278,-168.000,-92.000,-75.500,-101.500
2.279,-162.000,-85.500,-69.000,-94.500
2.280,-159.500,-82.000,-65.000,-91.000
2.281,-160.000,-81.500,-64.500,-90.000
2.282,-162.000,-82.500,-65.500,-91.000
2.283,-163.500,-84.000,-66.500,-92.000
2.284,-164.500,-85.000,-67.000,-92.500
2.285,-165.000,-85.000,-67.000,-92.500
2.286,-165.000,-85.000,-67.000,-92.500
2.287,-165.000,-85.500,-67.500,-92.500
2.288,-165.500,-86.000,-68.000,-93.000
2.289,-166.000,-86.500,-69.000,-93.500
2.290,-166.500,-87.500,-70.000,-94.500
2.291,-167.500,-89.000,-72.000,-96.500
2.292,-168.500,-91.000,-74.000,-98.500
2.293,-169.000,-93.000,-76.000,-100.000
2.294,-168.500,-93.000,-76.000,-100.000
2.295,-166.500,-91.500,-74.500,-98.000
2.296,-163.000,-88.000,-71.500,-95.000
2.297,-159.000,-83.500,-67.000,-90.500
2.298,-155.000,-79.000,-62.500,-86.500
2.299,-152.000,-75.000,-58.500,-82.500
2.300,-150.000,-72.000,-55.500,-79.500
2.301,-148.500,-70.000,-53.000,-77.500
2.302,-147.500,-68.500,-51.500,-76.000
2.303,-146.500,-67.000,-50.000,-74.500
2.304,-145.000,-65.500,-48.000,-73.000
2.305,-144.500,-64.500,-47.000,-72.000
2.306,-144.500,-64.500,-47.000,-72.000
2.307,-146.000,-66.000,-49.000,-74.000
2.308,-148.500,-68.500,-51.500,-77.000
2.309,-152.000,-72.500,-56.000,-81.000
2.310,-156.000,-77.500,-60.500,-86.000
2.311,-160.000,-82.000,-65.000,-91.000
2.312,-163.000,-86.000,-69.500,-95.000
2.313,-164.000,-87.500,-71.500,-97.000
2.314,-162.500,-87.000,-70.500,-96.500
2.315,-159.000,-83.500,-67.500,-93.500
2.316,-155.000,-79.500,-63.500,-89.500
2.317,-151.500,-76.000,-60.000,-86.000
2.318,-150.000,-73.500,-58.000,-84.000
2.319,-150.000,-72.500,-57.000,-83.000
2.320,-152.000,-74.000,-58.000,-84.000
2.321,-155.500,-77.000,-61.000,-87.500
2.322,-160.500,-81.000,-65.000,-91.500
2.323,-164.500,-85.000,-68.500,-95.000
2.324,-168.000,-88.500,-72.000,-98.500
2.325,-171.000,-91.000,-75.000,-101.000
2.326,-174.000,-94.000,-78.000,-104.000
2.327,-177.500,-97.500,-81.500,-108.000
2.328,-180.500,-101.000,-85.500,-111.500
2.329,-183.500,-104.000,-88.500,-115.000
2.330,-185.500,-106.500,-91.000,-118.000
2.331,-186.500,-109.000,-93.000,-120.500
2.332,-187.500,-110.500,-94.500,-122.500
2.333,-187.000,-111.000,-95.500,-123.000
2.334,-185.000,-110.000,-94.500,-122.000
2.335,-183.000,-108.000,-93.000,-120.500
2.336,-180.500,-106.000,-91.000,-118.500
2.337,-179.500,-104.500,-89.500,-117.000
2.338,-179.500,-104.000,-89.000,-116.500
2.339,-181.500,-105.000,-90.000,-117.000
2.340,-184.500,-107.000,-92.000,-119.500
2.341,-189.000,-110.000,-95.500,-122.500
2.342,-193.500,-114.000,-99.000,-126.500
2.343,-198.000,-118.000,-103.000,-130.000
2.344,-201.000,-121.000,-106.000,-133.500
2.345,-203.500,-123.000,-108.000,-135.500
2.346,-205.000,-124.500,-109.500,-137.000
2.347,-206.500,-126.000,-111.500,-139.000
2.348,-208.000,-128.500,-114.000,-141.500
2.349,-210.500,-131.500,-117.000,-144.500
2.350,-213.000,-134.500,-120.500,-148.500
2.351,-216.000,-138.500,-124.000,-152.000
2.352,-218.500,-141.500,-127.500,-155.500
2.353,-219.000,-143.000,-129.000,-157.000
2.354,-217.500,-142.500,-128.500,-156.500
2.355,-214.500,-140.000,-126.000,-154.000
2.356,-212.000,-137.500,-123.500,-151.000
2.357,-211.000,-136.000,-122.000,-149.500
2.358,-212.000,-136.500,-122.500,-150.000
2.359,-214.000,-137.500,-123.500,-151.000
2.360,-215.500,-138.500,-124.000,-151.500
2.361,-216.000,-138.000,-123.500,-151.000
2.362,-215.500,-137.000,-122.000,-150.000
2.363,-215.000,-136.000,-121.000,-149.000
2.364,-214.000,-135.500,-120.000,-148.500
2.365,-214.500,-135.500,-120.000,-148.500
2.366,-215.500,-136.500,-121.000,-150.000
2.367,-216.500,-138.000,-122.500,-151.500
2.368,-218.500,-139.500,-124.000,-153.000
2.369,-220.000,-141.500,-126.000,-155.500
2.370,-221.500,-144.000,-128.500,-158.000
2.371,-223.500,-147.000,-131.500,-160.500
2.372,-225.500,-149.500,-134.500,-163.500
2.373,-227.000,-152.000,-137.000,-166.000
2.374,-227.500,-153.500,-138.500,-167.500
2.375,-227.500,-153.500,-138.500,-167.500
2.376,-226.000,-152.000,-137.000,-166.000
2.377,-223.500,-149.000,-134.500,-163.500
2.378,-221.000,-146.000,-131.500,-160.500
2.379,-220.000,-144.000,-129.500,-158.500
2.380,-220.500,-143.500,-129.000,-158.500
2.381,-222.500,-145.000,-130.000,-159.500
2.382,-225.000,-146.500,-131.500,-161.000
2.383,-226.500,-148.000,-133.000,-162.000
2.384,-226.500,-148.500,-133.000,-161.500
2.385,-226.000,-147.500,-132.000,-160.000
2.386,-224.500,-146.000,-130.500,-158.500
2.387,-223.500,-145.000,-129.500,-157.500
2.388,-223.500,-145.500,-130.000,-157.500
2.389,-224.500,-147.000,-132.000,-159.500
2.390,-227.000,-150.000,-135.000,-163.000
2.391,-230.000,-154.000,-139.000,-166.500
2.392,-232.000,-157.000,-142.500,-170.000
2.393,-232.500,-158.500,-144.000,-171.000
2.394,-231.000,-157.500,-143.000,-170.000
2.395,-228.500,-155.000,-140.500,-167.500
2.396,-225.000,-151.500,-137.000,-164.000
2.397,-221.500,-147.500,-133.500,-160.000
2.398,-218.500,-144.000,-130.000,-156.500
2.399,-217.000,-141.500,-127.500,-154.500
2.400,-217.000,-140.500,-126.500,-153.000
2.401,-218.500,-141.000,-126.500,-153.500
2.402,-220.500,-142.000,-127.500,-154.500
2.403,-222.000,-144.000,-129.000,-156.000
2.404,-224.000,-145.500,-130.500,-157.500
2.405,-225.000,-147.000,-131.500,-158.500
2.406,-225.500,-147.500,-132.000,-159.000
2.407,-225.500,-147.000,-132.000,-159.000
2.408,-225.000,-147.000,-132.000,-159.000
2.409,-225.000,-147.000,-132.500,-159.000
2.410,-225.000,-148.000,-133.500,-160.500
2.411,-226.500,-149.500,-136.000,-162.500
2.412,-228.000,-151.500,-138.500,-165.000
2.413,-229.500,-154.000,-141.000,-167.000
2.414,-230.500,-155.500,-142.500,-169.000
2.415,-231.000,-156.500,-143.500,-170.000
2.416,-230.500,-156.500,-143.500,-169.500
2.417,-229.000,-155.000,-141.000,-167.500
2.418,-225.500,-151.000,-137.000,-163.500
2.419,-221.000,-145.500,-131.000,-158.000
2.420,-216.500,-140.500,-125.500,-152.500
2.421,-213.500,-136.500,-122.000,-149.000
2.422,-212.500,-134.500,-119.500,-147.000
2.423,-213.000,-134.500,-119.500,-146.500
2.424,-214.500,-135.500,-120.500,-148.000
2.425,-216.500,-137.500,-122.500,-150.000
2.426,-218.500,-140.000,-125.000,-152.000
2.427,-220.500,-142.000,-127.500,-154.500
2.428,-222.500,-144.000,-129.500,-156.500
2.429,-224.000,-146.500,-132.000,-158.500
2.430,-225.500,-148.500,-134.500,-161.000
2.431,-227.500,-151.000,-137.000,-163.500
2.432,-229.500,-154.000,-140.000,-166.000
2.433,-230.500,-156.000,-142.000,-168.500
2.434,-230.500,-156.500,-143.000,-169.000
2.435,-229.500,-156.000,-142.000,-168.500
2.436,-228.000,-154.500,-141.000,-167.000
2.437,-226.500,-153.000,-139.000,-165.500
2.438,-225.000,-150.500,-137.000,-163.500
2.439,-223.500,-148.000,-134.000,-160.500
2.440,-222.000,-146.000,-132.000,-158.500
2.441,-221.500,-145.000,-130.500,-157.000
2.442,-223.000,-145.500,-131.000,-157.500
2.443,-225.000,-147.500,-132.500,-159.000
2.444,-227.000,-149.500,-134.500,-161.000
2.445,-229.000,-151.500,-136.500,-163.000
2.446,-231.000,-153.500,-138.000,-165.000
2.447,-232.500,-155.500,-140.000,-166.500
2.448,-233.500,-157.000,-141.500,-168.000
2.449,-234.000,-158.000,-142.500,-169.000
2.450,-234.500,-158.500,-143.000,-170.000
2.451,-234.500,-159.000,-144.000,-171.000
2.452,-234.000,-159.000,-144.500,-171.500
2.453,-232.000,-158.000,-144.000,-171.000
2.454,-229.000,-156.000,-142.000,-168.500
2.455,-226.000,-153.000,-139.500,-166.000
2.456,-224.500,-151.000,-137.500,-164.000
2.457,-224.000,-150.000,-136.500,-163.500
2.458,-224.000,-149.500,-136.000,-162.500
2.459,-224.000,-148.500,-135.000,-161.500
2.460,-225.000,-148.500,-134.000,-161.000
2.461,-226.500,-149.000,-134.500,-161.000
2.462,-228.000,-149.500,-135.000,-162.000
2.463,-229.000,-150.000,-135.000,-162.000
2.464,-229.000,-150.000,-135.000,-161.500
2.465,-229.500,-150.000,-135.000,-161.500
2.466,-230.000,-150.500,-135.500,-162.000
2.467,-230.500,-151.500,-136.500,-163.000
2.468,-231.000,-152.000,-137.000,-163.500
2.469,-231.500,-153.000,-138.000,-164.500
2.470,-232.000,-154.000,-139.000,-166.000
2.471,-233.500,-156.500,-141.500,-168.000
2.472,-236.000,-160.000,-145.500,-172.000
2.473,-239.500,-164.000,-149.500,-176.500
2.474,-242.000,-167.500,-153.000,-179.500
2.475,-242.000,-168.500,-154.000,-180.500
2.476,-239.000,-165.500,-151.000,-177.500
2.477,-233.500,-159.500,-145.000,-171.500
2.478,-226.500,-152.000,-137.500,-164.000
2.479,-220.500,-145.000,-130.000,-157.000
2.480,-216.500,-140.000,-125.000,-152.000
2.481,-215.500,-137.500,-123.000,-149.500
2.482,-216.500,-138.000,-123.000,-149.500
2.483,-218.500,-139.500,-124.500,-151.000
2.484,-220.500,-141.500,-126.500,-153.000
2.485,-222.000,-143.000,-127.500,-154.000
2.486,-223.500,-144.000,-129.000,-155.500
2.487,-224.500,-145.500,-130.500,-157.000
2.488,-226.500,-147.500,-132.500,-159.000
2.489,-228.500,-150.000,-135.000,-161.500
2.490,-231.000,-153.000,-138.500,-164.500
2.491,-233.000,-156.000,-141.500,-167.500
2.492,-234.000,-158.000,-143.500,-169.500
2.493,-234.000,-158.500,-144.500,-170.500
2.494,-233.000,-158.000,-144.500,-170.000
2.495,-232.000,-157.500,-144.000,-169.500
2.496,-230.500,-156.500,-143.000,-168.500
2.497,-228.500,-154.500,-141.000,-166.500
2.498,-226.000,-151.000,-137.500,-163.000
2.499,-222.500,-147.000,-132.500,-158.500
2.500,-219.500,-143.000,-128.500,-154.500
2.501,-218.000,-140.500,-126.000,-151.500
2.502,-218.000,-140.000,-125.000,-151.000
2.503,-219.500,-141.000,-126.000,-151.500
2.504,-222.000,-143.000,-128.500,-153.500
2.505,-225.000,-145.500,-131.000,-156.500
2.506,-227.000,-148.000,-133.000,-158.500
2.507,-228.000,-149.000,-134.500,-159.500
2.508,-228.000,-149.500,-135.000,-159.500
2.509,-227.500,-150.000,-135.500,-160.000
2.510,-228.500,-151.500,-137.000,-162.000
2.511,-231.500,-155.000,-140.500,-165.500
2.512,-235.000,-160.000,-145.500,-171.000
2.513,-238.500,-164.000,-150.000,-175.500
2.514,-240.000,-166.000,-152.000,-177.500
2.515,-239.000,-165.000,-151.500,-176.500
2.516,-235.500,-162.000,-148.500,-173.500
2.517,-231.000,-157.000,-143.500,-168.500
2.518,-226.500,-151.500,-138.500,-163.000
2.519,-222.500,-146.500,-133.500,-158.000
2.520,-220.000,-143.000,-129.500,-154.500
2.521,-219.500,-141.500,-128.000,-153.000
2.522,-220.500,-142.000,-128.500,-153.500
2.523,-223.000,-144.000,-130.000,-155.500
2.524,-225.000,-146.000,-132.000,-157.500
2.525,-227.000,-148.000,-133.500,-159.000
2.526,-228.000,-149.000,-135.000,-160.000
2.527,-228.500,-150.000,-136.000,-161.000
2.528,-229.000,-151.000,-137.000,-161.500
2.529,-230.000,-152.500,-139.000,-163.000
2.530,-231.500,-155.000,-141.500,-165.500
2.531,-233.000,-157.000,-144.000,-168.000
2.532,-232.500,-157.500,-145.000,-169.000
2.533,-230.500,-156.000,-144.000,-168.000
2.534,-225.000,-151.500,-139.500,-164.000
2.535,-218.000,-144.500,-133.000,-158.000
2.536,-210.000,-136.500,-125.500,-150.500
2.537,-202.000,-129.000,-118.500,-143.500
2.538,-195.500,-121.500,-111.500,-137.000
2.539,-190.000,-115.000,-106.000,-131.500
2.540,-185.000,-109.500,-100.500,-126.000
2.541,-180.000,-104.000,-95.000,-121.500
2.542,-176.000,-99.500,-91.000,-117.000
2.543,-173.000,-96.500,-87.500,-114.000
2.544,-171.500,-94.500,-85.500,-112.000
2.545,-170.500,-93.500,-84.500,-111.000
2.546,-171.500,-94.500,-84.500,-110.500
2.547,-173.000,-96.500,-85.500,-110.500
2.548,-175.500,-99.000,-87.000,-111.500
2.549,-178.000,-102.000,-89.000,-112.500
2.550,-181.000,-105.000,-91.000,-114.000
2.551,-185.000,-109.000,-94.000,-116.000
2.552,-188.500,-113.500,-97.500,-119.000
2.553,-191.000,-116.000,-100.000,-121.000
2.554,-191.000,-117.000,-100.500,-121.000
2.555,-189.000,-115.000,-98.500,-119.500
2.556,-185.000,-110.500,-94.500,-115.500
2.557,-180.000,-105.500,-89.500,-111.000
2.558,-175.500,-99.500,-84.500,-106.500
2.559,-171.000,-94.500,-79.500,-102.500
2.560,-167.500,-90.000,-75.000,-98.500
2.561,-164.500,-86.000,-71.500,-96.000
2.562,-162.000,-83.000,-68.500,-93.500
2.563,-160.000,-80.500,-66.000,-91.000
2.564,-158.000,-78.500,-64.000,-89.500
2.565,-157.000,-77.500,-63.000,-88.000
2.566,-156.500,-77.000,-62.500,-87.500
2.567,-156.500,-77.500,-63.000,-88.000
2.568,-158.000,-79.500,-65.000,-89.500
2.569,-161.000,-82.000,-68.000,-92.500
2.570,-164.000,-85.500,-71.500,-96.000
2.571,-167.000,-89.000,-75.000,-99.500
2.572,-168.500,-91.500,-78.000,-102.500
2.573,-169.500,-93.000,-80.000,-104.000
2.574,-169.500,-93.500,-80.500,-105.000
2.575,-168.500,-93.000,-80.000,-104.500
2.576,-166.500,-92.000,-78.500,-103.000
2.577,-164.500,-89.500,-76.500,-101.000
2.578,-162.500,-87.000,-74.000,-98.500
2.579,-162.000,-85.500,-72.000,-97.000
2.580,-163.500,-86.000,-72.500,-97.000
2.581,-167.500,-88.500,-75.000,-100.000
2.582,-172.500,-92.500,-79.000,-104.000
2.583,-177.000,-96.500,-83.000,-108.000
2.584,-180.000,-99.500,-86.000,-110.500
2.585,-182.000,-101.500,-88.000,-112.500
2.586,-185.000,-104.500,-91.000,-115.000
2.587,-188.000,-107.500,-94.500,-118.500
2.588,-191.500,-111.000,-98.000,-122.000
2.589,-194.500,-115.000,-102.000,-126.000
2.590,-198.000,-119.000,-106.000,-130.000
2.591,-201.500,-123.000,-110.500,-134.500
2.592,-205.500,-127.500,-115.000,-139.000
2.593,-208.000,-131.000,-118.500,-143.000
2.594,-209.000,-133.000,-120.000,-145.000
2.595,-209.000,-133.500,-120.500,-145.000
2.596,-208.500,-133.000,-120.000,-145.000
2.597,-208.500,-133.000,-120.000,-144.500
2.598,-209.500,-133.000,-120.000,-144.500
2.599,-211.000,-134.000,-121.000,-145.000
2.600,-213.500,-135.500,-122.000,-146.500
2.601,-216.500,-138.000,-124.000,-148.500
2.602,-220.500,-141.000,-126.500,-151.000
2.603,-224.000,-144.000,-129.500,-153.500
2.604,-226.500,-146.500,-132.000,-156.000
2.605,-228.500,-148.500,-134.000,-158.000
2.606,-230.000,-149.500,-135.500,-159.500
2.607,-231.000,-151.000,-137.000,-161.000
2.608,-232.500,-152.500,-139.000,-163.000
2.609,-234.500,-155.000,-141.500,-165.500
2.610,-238.000,-158.500,-145.000,-169.000
2.611,-241.500,-163.000,-149.500,-173.500
2.612,-245.500,-168.000,-154.500,-178.000
2.613,-248.500,-172.000,-158.500,-182.000
2.614,-249.000,-173.500,-160.500,-184.000
2.615,-247.500,-172.500,-159.500,-182.500
2.616,-243.500,-168.500,-156.000,-179.000
2.617,-238.000,-162.500,-150.000,-173.500
2.618,-232.000,-156.000,-143.500,-167.000
2.619,-227.500,-151.000,-138.500,-161.500
2.620,-226.000,-148.500,-135.500,-159.000
2.621,-227.500,-149.000,-136.000,-159.500
2.622,-231.000,-151.500,-138.500,-162.000
2.623,-234.500,-154.000,-141.500,-164.500
2.624,-236.500,-156.000,-143.000,-166.000
2.625,-237.500,-157.000,-144.500,-167.500
2.626,-238.500,-158.000,-145.500,-168.500
2.627,-239.500,-159.500,-146.500,-169.500
2.628,-241.000,-161.500,-148.500,-171.500
2.629,-243.000,-164.000,-151.000,-174.000
2.630,-245.500,-167.000,-154.000,-177.000
2.631,-247.500,-169.500,-157.000,-180.000
2.632,-248.500,-171.500,-159.000,-182.000
2.633,-248.000,-171.500,-159.500,-182.500
2.634,-244.500,-169.000,-157.000,-180.000
2.635,-238.500,-164.000,-152.000,-175.000
2.636,-232.000,-157.500,-146.000,-168.500
2.637,-226.500,-151.500,-140.000,-162.500
2.638,-221.500,-146.000,-134.500,-157.000
2.639,-218.000,-141.500,-130.000,-152.500
2.640,-215.500,-138.500,-126.500,-149.000
2.641,-216.000,-137.500,-125.500,-148.000
2.642,-218.000,-139.000,-127.000,-150.000
2.643,-222.500,-143.000,-131.000,-153.500
2.644,-227.500,-148.000,-136.000,-158.500
2.645,-233.500,-153.500,-141.500,-164.500
2.646,-239.000,-159.000,-146.500,-170.000
2.647,-242.500,-163.000,-150.500,-174.000
2.648,-244.500,-165.000,-152.500,-176.000
2.649,-246.000,-167.000,-154.000,-178.000
2.650,-248.500,-169.500,-157.500,-181.000
2.651,-252.500,-175.000,-162.500,-186.000
2.652,-258.500,-182.000,-169.500,-193.000
2.653,-265.000,-189.000,-177.000,-201.000
2.654,-270.500,-195.500,-184.000,-207.500
2.655,-274.500,-200.500,-189.000,-212.000
2.656,-277.000,-203.000,-192.000,-215.000
2.657,-278.000,-204.000,-193.000,-216.000
2.658,-277.500,-203.000,-193.000,-216.000
2.659,-277.500,-202.000,-192.000,-215.000
2.660,-278.000,-201.000,-191.500,-215.000
2.661,-279.000,-201.500,-191.500,-215.500
2.662,-280.500,-202.000,-192.000,-216.000
2.663,-280.500,-201.500,-191.500,-215.000
2.664,-278.000,-199.000,-188.500,-212.000
2.665,-271.500,-193.000,-182.000,-205.000
2.666,-261.500,-183.000,-172.000,-194.500
2.667,-247.500,-169.000,-157.500,-180.000
2.668,-229.500,-151.000,-139.500,-161.500
2.669,-208.000,-129.000,-117.500,-139.500
2.670,-183.500,-105.000,-93.000,-114.500
2.671,-157.000,-78.500,-66.500,-88.000
2.672,-128.500,-50.500,-38.000,-59.500
2.673,-98.500,-21.000,-8.000,-29.000
2.674,-66.000,11.000,24.500,4.000
2.675,-31.000,46.000,60.000,40.000
2.676,7.000,83.500,98.500,79.000
2.677,47.000,124.000,139.500,120.500
2.678,89.500,167.500,184.000,165.500
2.679,135.500,214.500,232.000,214.000
2.680,184.500,264.500,283.500,265.500
2.681,234.000,315.000,335.000,318.000
2.682,279.500,362.000,383.000,366.000
2.683,317.000,401.000,422.500,405.500
2.684,343.000,427.500,449.500,432.500
2.685,355.500,440.500,463.000,445.500
2.686,354.000,439.500,461.500,443.500
2.687,340.000,426.000,447.000,428.500
2.688,316.500,402.000,422.500,404.000
2.689,286.500,371.500,391.500,372.500
2.690,253.500,338.000,357.000,338.000
2.691,219.000,302.000,320.500,301.500
2.692,183.000,265.500,283.000,263.500
2.693,148.000,229.000,246.000,226.500
2.694,115.500,195.000,212.000,192.000
2.695,86.500,165.500,181.500,162.000
2.696,60.500,139.000,154.500,135.000
2.697,35.500,114.000,129.500,109.500
2.698,9.500,88.000,103.000,83.000
2.699,-19.500,60.000,75.000,54.500
2.700,-51.000,29.000,44.000,23.000
2.701,-84.000,-3.500,11.500,-9.500
2.702,-115.500,-35.000,-20.000,-41.500
2.703,-144.000,-63.500,-48.500,-70.000
2.704,-168.000,-88.000,-73.000,-94.000
2.705,-187.500,-107.500,-92.500,-114.000
2.706,-204.000,-124.000,-109.500,-131.000
2.707,-218.500,-139.000,-124.500,-146.000
2.708,-231.500,-153.000,-138.500,-160.000
2.709,-244.000,-166.000,-151.500,-173.500
2.710,-255.500,-178.000,-164.000,-185.500
2.711,-265.000,-188.000,-174.500,-196.000
2.712,-271.000,-195.500,-182.000,-203.000
2.713,-273.000,-198.500,-185.000,-206.500
2.714,-271.500,-197.500,-184.500,-206.000
2.715,-267.500,-194.500,-181.500,-203.000
2.716,-263.000,-189.500,-177.000,-198.000
2.717,-257.500,-184.000,-171.000,-192.500
2.718,-251.500,-177.500,-164.500,-186.500
2.719,-245.500,-171.000,-157.500,-179.500
2.720,-240.000,-164.500,-151.000,-173.000
2.721,-236.000,-159.000,-145.500,-167.000
2.722,-233.000,-155.500,-142.000,-163.500
2.723,-232.500,-154.500,-141.000,-162.500
2.724,-234.500,-156.500,-142.500,-164.000
2.725,-238.000,-160.000,-146.000,-167.500
2.726,-242.500,-164.000,-150.500,-171.000
2.727,-245.500,-167.500,-153.500,-174.000
2.728,-247.500,-169.500,-156.000,-176.500
2.729,-249.500,-171.500,-158.500,-178.500
2.730,-252.000,-174.500,-162.000,-182.000
2.731,-255.500,-178.500,-166.000,-186.000
2.732,-258.500,-182.000,-170.500,-190.500
2.733,-259.500,-184.500,-172.500,-192.500
2.734,-258.500,-184.000,-172.500,-192.500
2.735,-255.500,-181.500,-170.500,-190.000
2.736,-251.500,-178.000,-166.500,-186.000
2.737,-247.000,-173.500,-162.000,-181.500
2.738,-243.000,-168.500,-157.000,-176.500
2.739,-239.500,-164.000,-152.500,-172.000
2.740,-238.000,-161.500,-150.000,-169.000
2.741,-239.500,-162.000,-150.000,-169.500
2.742,-243.500,-164.500,-152.500,-172.000
2.743,-248.000,-168.500,-156.500,-175.500
2.744,-252.000,-172.000,-160.000,-179.500
2.745,-254.500,-174.500,-162.000,-182.000
2.746,-256.000,-176.500,-163.500,-183.500
2.747,-256.000,-177.000,-164.000,-184.000
2.748,-255.500,-176.500,-163.500,-184.000
2.749,-255.000,-176.500,-163.500,-184.000
2.750,-256.000,-178.000,-165.000,-185.500
2.751,-258.500,-181.000,-168.500,-189.000
2.752,-262.000,-185.500,-173.000,-193.500
2.753,-265.000,-189.500,-177.000,-197.500
2.754,-266.000,-191.000,-178.500,-199.000
2.755,-264.500,-190.000,-177.500,-198.000
2.756,-261.500,-187.000,-174.500,-195.000
2.757,-258.000,-183.000,-171.000,-191.000
2.758,-255.000,-179.500,-167.500,-187.500
2.759,-253.000,-176.500,-164.500,-184.500
2.760,-252.000,-174.500,-162.500,-182.500
2.761,-252.000,-174.000,-161.500,-181.500
2.762,-253.000,-174.000,-161.000,-181.500
2.763,-253.500,-174.000,-160.500,-181.000
2.764,-253.000,-173.000,-159.500,-180.000
2.765,-251.000,-171.500,-157.500,-178.000
2.766,-249.500,-170.000,-156.000,-176.000
2.767,-249.000,-169.000,-155.000,-175.500
2.768,-250.000,-170.500,-156.500,-176.500
2.769,-253.000,-173.500,-160.000,-180.500
2.770,-258.000,-179.000,-166.000,-186.000
2.771,-264.000,-185.000,-172.500,-192.500
2.772,-268.500,-190.500,-178.000,-198.500
2.773,-271.000,-194.000,-181.500,-201.500
2.774,-270.500,-194.000,-181.500,-202.000
2.775,-268.000,-192.000,-179.500,-199.500
2.776,-264.000,-188.500,-176.000,-196.000
2.777,-260.000,-184.000,-172.000,-191.000
2.778,-255.500,-179.000,-167.000,-186.000
2.779,-252.000,-174.500,-162.500,-181.000
2.780,-250.000,-171.500,-159.500,-178.000
2.781,-250.500,-171.500,-159.000,-177.500
2.782,-253.000,-173.000,-160.500,-179.500
2.783,-256.000,-176.000,-163.000,-182.000
2.784,-259.000,-178.500,-165.500,-184.500
2.785,-261.000,-180.500,-167.500,-187.000
2.786,-263.000,-182.000,-169.000,-188.500
2.787,-263.000,-182.500,-169.500,-189.000
2.788,-262.000,-181.500,-168.500,-188.000
2.789,-260.000,-180.000,-167.000,-187.000
2.790,-258.500,-179.500,-166.500,-186.000
2.791,-258.500,-180.000,-167.000,-187.500
2.792,-259.500,-182.000,-169.000,-189.500
2.793,-260.000,-183.500,-171.000,-191.000
2.794,-259.000,-183.000,-171.000,-191.000
2.795,-256.500,-181.000,-168.500,-188.500
2.796,-252.500,-177.000,-165.000,-184.500
2.797,-249.000,-173.500,-161.000,-181.000
2.798,-246.000,-170.000,-157.500,-177.500
2.799,-244.500,-167.500,-155.000,-175.000
2.800,-244.000,-166.000,-153.000,-173.000
2.801,-244.000,-165.000,-152.000,-172.000
2.802,-244.500,-164.500,-151.500,-171.500
2.803,-245.500,-164.500,-151.500,-171.500
2.804,-246.000,-165.000,-152.000,-171.500
2.805,-247.000,-165.500,-152.500,-172.000
2.806,-248.000,-166.500,-153.500,-173.000
2.807,-249.000,-168.500,-155.500,-175.000
2.808,-251.000,-170.500,-158.000,-177.500
2.809,-253.500,-173.500,-161.000,-180.500
2.810,-256.000,-176.500,-164.000,-184.000
2.811,-257.500,-179.000,-166.500,-186.500
2.812,-258.000,-180.000,-168.500,-188.000
2.813,-258.000,-180.500,-169.000,-189.000
2.814,-256.500,-180.000,-168.500,-188.500
2.815,-254.000,-178.000,-166.500,-186.500
2.816,-250.000,-174.000,-163.000,-182.500
2.817,-245.000,-169.000,-158.000,-177.500
2.818,-240.500,-164.000,-153.000,-172.000
2.819,-237.500,-159.500,-148.500,-168.000
2.820,-236.500,-157.500,-147.000,-166.000
2.821,-238.000,-158.500,-147.500,-167.000
2.822,-241.500,-161.000,-150.000,-169.500
2.823,-245.000,-164.000,-153.000,-172.500
2.824,-247.500,-166.500,-155.000,-174.500
2.825,-249.000,-168.000,-156.500,-176.000
2.826,-250.000,-169.000,-157.500,-177.500
2.827,-250.500,-170.000,-158.500,-178.000
2.828,-251.000,-171.000,-159.000,-179.000
2.829,-251.500,-171.500,-159.500,-180.000
2.830,-252.500,-173.000,-161.500,-181.500
2.831,-254.000,-175.000,-163.500,-184.000
2.832,-255.500,-177.500,-166.500,-186.500
2.833,-257.000,-180.000,-168.500,-189.000
2.834,-257.500,-181.000,-170.000,-190.000
2.835,-256.500,-180.500,-169.000,-189.500
2.836,-254.500,-178.000,-167.000,-187.000
2.837,-251.500,-174.500,-163.500,-183.500
2.838,-247.500,-170.000,-158.500,-178.500
2.839,-242.500,-164.000,-153.000,-172.500
2.840,-238.500,-159.000,-147.500,-167.000
2.841,-236.500,-156.000,-144.500,-163.500
2.842,-237.000,-156.000,-144.000,-163.000
2.843,-239.500,-157.500,-145.500,-165.000
2.844,-242.000,-159.500,-147.500,-166.500
2.845,-243.500,-160.500,-148.500,-168.000
2.846,-244.000,-161.500,-149.500,-169.000
2.847,-245.000,-162.500,-150.500,-170.000
2.848,-245.500,-163.500,-151.500,-171.000
2.849,-246.000,-164.500,-152.500,-172.000
2.850,-246.500,-165.000,-153.500,-173.000
2.851,-247.000,-166.000,-154.500,-173.500
2.852,-247.000,-167.000,-155.500,-174.500
2.853,-246.500,-167.000,-156.000,-175.000
2.854,-244.000,-166.000,-154.500,-173.500
2.855,-240.500,-163.000,-152.000,-171.000
2.856,-236.500,-158.500,-148.000,-167.000
2.857,-232.500,-154.000,-143.500,-162.000
2.858,-228.500,-149.000,-138.500,-157.000
2.859,-224.500,-144.500,-133.500,-152.000
2.860,-221.500,-140.000,-129.000,-148.000
2.861,-220.500,-138.500,-127.000,-145.500
2.862,-222.500,-139.500,-128.000,-146.500
2.863,-226.500,-143.000,-131.000,-150.000
2.864,-231.500,-148.000,-135.500,-154.500
2.865,-236.000,-152.500,-140.000,-158.500
2.866,-239.000,-156.000,-143.000,-161.500
2.867,-241.000,-157.500,-145.000,-163.000
2.868,-241.500,-158.500,-146.000,-163.500
2.869,-241.500,-159.000,-146.500,-164.000
2.870,-241.500,-159.500,-147.000,-164.500
2.871,-241.000,-159.500,-147.500,-164.500
2.872,-240.500,-160.000,-148.000,-164.500
2.873,-240.000,-160.500,-148.500,-165.000
2.874,-239.500,-160.500,-149.000,-165.000
2.875,-238.000,-159.500,-148.000,-164.000
2.876,-234.500,-156.500,-145.000,-161.000
2.877,-229.500,-151.500,-140.000,-156.000
2.878,-223.000,-144.500,-133.000,-149.000
2.879,-216.000,-136.500,-125.000,-141.000
2.880,-210.500,-130.500,-118.500,-134.500
2.881,-207.000,-126.500,-114.500,-130.500
2.882,-206.500,-125.000,-113.000,-129.000
2.883,-207.000,-125.500,-112.500,-129.000
2.884,-207.500,-125.500,-113.000,-129.500
2.885,-207.500,-126.000,-112.500,-129.000
2.886,-206.500,-125.500,-112.000,-128.500
2.887,-205.500,-124.500,-110.500,-127.500
2.888,-204.000,-123.500,-109.500,-126.000
2.889,-203.500,-123.000,-109.500,-126.000
2.890,-204.500,-125.000,-111.500,-128.000
2.891,-208.000,-128.500,-115.500,-132.000
2.892,-212.000,-133.000,-120.500,-136.500
2.893,-214.000,-136.000,-123.500,-139.500
2.894,-213.000,-136.000,-123.500,-139.000
2.895,-208.500,-132.000,-120.000,-135.000
2.896,-202.000,-126.000,-114.000,-129.000
2.897,-195.000,-119.000,-107.000,-121.500
2.898,-189.500,-113.000,-101.500,-115.500
2.899,-186.000,-109.000,-97.000,-111.500
2.900,-185.000,-107.000,-94.500,-109.000
2.901,-185.500,-106.500,-94.000,-108.500
2.902,-187.000,-107.500,-94.500,-109.000
2.903,-189.500,-109.000,-96.000,-110.000
2.904,-191.500,-111.000,-97.000,-111.500
2.905,-192.500,-111.500,-97.500,-112.000
