'Elapsed time','AECG1','AECG2','AECG3','AECG4'
'seconds','uV','uV','uV','uV'
0.000,40.000,-24.000,-11.500,-21.000
0.001,350.500,-208.500,-100.500,-185.500
0.002,402.500,-240.000,-115.500,-213.000
0.003,427.500,-255.500,-123.000,-227.000
0.004,437.000,-261.500,-125.500,-232.500
0.005,439.000,-262.500,-126.000,-234.000
0.006,438.000,-262.500,-126.000,-234.000
0.007,437.500,-261.500,-125.500,-233.500
0.008,438.000,-261.000,-125.500,-232.500
0.009,438.000,-260.500,-125.000,-232.000
0.010,437.500,-260.500,-125.000,-231.500
0.011,436.000,-260.000,-125.000,-231.000
0.012,435.000,-260.000,-125.000,-230.500
0.013,435.000,-260.000,-124.500,-230.500
0.014,436.500,-259.500,-124.500,-230.000
0.015,438.500,-259.500,-124.500,-230.000
0.016,440.500,-259.000,-124.500,-230.000
0.017,442.500,-258.500,-124.500,-230.500
0.018,444.000,-258.500,-124.000,-230.500
0.019,445.000,-258.000,-124.000,-231.000
0.020,444.500,-258.000,-124.000,-231.000
0.021,444.000,-258.000,-124.000,-230.500
0.022,443.500,-258.000,-124.000,-230.500
0.023,443.500,-258.000,-123.500,-230.000
0.024,443.500,-258.500,-123.500,-229.500
0.025,443.000,-258.500,-123.500,-229.000
0.026,441.500,-259.000,-124.000,-229.500
0.027,441.000,-259.500,-124.500,-230.000
0.028,440.500,-260.000,-125.500,-230.500
0.029,440.500,-260.500,-126.000,-231.500
0.030,440.500,-261.500,-126.500,-232.000
0.031,440.500,-262.000,-127.000,-232.500
0.032,440.500,-262.500,-127.500,-233.000
0.033,440.000,-263.000,-127.500,-233.500
0.034,440.000,-263.500,-128.000,-233.500
0.035,441.000,-264.000,-128.500,-234.000
0.036,442.000,-264.500,-129.000,-234.000
0.037,443.500,-265.000,-129.000,-233.500
0.038,444.000,-264.500,-129.000,-233.000
0.039,444.500,-264.000,-128.500,-232.500
0.040,444.000,-262.500,-127.500,-231.500
0.041,443.500,-261.000,-126.000,-231.000
0.042,444.000,-259.500,-124.500,-230.000
0.043,445.000,-257.500,-123.000,-229.000
0.044,447.000,-256.000,-121.500,-228.500
0.045,448.000,-254.500,-120.500,-228.000
0.046,447.500,-253.500,-120.000,-227.500
0.047,446.500,-252.500,-119.500,-227.500
0.048,444.500,-252.000,-119.500,-228.000
0.049,442.500,-252.000,-119.500,-228.000
0.050,440.500,-252.000,-120.000,-228.000
0.051,438.500,-252.500,-120.000,-228.000
0.052,437.500,-252.500,-120.500,-228.000
0.053,438.000,-252.500,-121.000,-228.500
0.054,439.000,-253.000,-121.000,-228.500
0.055,440.500,-253.000,-121.000,-229.000
0.056,440.000,-253.000,-121.500,-229.000
0.057,438.500,-253.000,-121.000,-228.500
0.058,435.500,-253.000,-121.000,-228.500
0.059,433.500,-253.500,-121.000,-228.000
0.060,432.500,-253.500,-121.500,-228.000
0.061,432.500,-254.000,-121.500,-228.000
0.062,434.000,-254.000,-121.500,-228.000
0.063,436.500,-254.000,-121.500,-228.000
0.064,439.500,-254.000,-121.500,-228.000
0.065,441.500,-254.000,-121.000,-228.000
0.066,443.000,-254.000,-121.500,-228.000
0.067,443.500,-254.000,-121.500,-228.500
0.068,444.000,-254.000,-122.000,-229.000
0.069,443.500,-253.500,-122.000,-229.000
0.070,442.500,-253.500,-122.000,-229.000
0.071,441.500,-253.000,-122.000,-229.000
0.072,441.000,-252.500,-122.000,-229.000
0.073,441.000,-252.500,-122.000,-228.500
0.074,440.500,-252.500,-122.000,-228.500
0.075,439.500,-252.500,-122.000,-228.500
0.076,437.500,-252.500,-122.000,-228.500
0.077,435.500,-252.500,-122.000,-228.500
0.078,434.000,-252.000,-122.000,-228.500
0.079,434.000,-251.500,-121.500,-228.500
0.080,434.000,-251.000,-121.000,-228.500
0.081,434.000,-250.500,-120.500,-228.500
0.082,434.500,-250.000,-120.500,-228.500
0.083,436.000,-250.000,-120.500,-228.500
0.084,437.000,-250.000,-120.500,-228.500
0.085,437.500,-250.000,-120.500,-229.000
0.086,438.000,-250.000,-121.000,-229.000
0.087,437.500,-250.000,-121.000,-229.000
0.088,436.500,-250.500,-121.500,-229.500
0.089,434.500,-250.500,-121.500,-229.500
0.090,432.500,-250.500,-121.500,-229.500
0.091,431.000,-250.000,-121.500,-229.500
0.092,429.500,-250.000,-121.500,-229.500
0.093,428.500,-249.500,-121.000,-229.500
0.094,428.000,-249.500,-121.000,-229.500
0.095,428.000,-249.500,-121.000,-229.000
0.096,429.000,-249.500,-121.000,-229.000
0.097,429.500,-249.500,-120.500,-229.000
0.098,430.500,-249.500,-121.000,-229.000
0.099,430.500,-249.500,-121.000,-229.000
0.100,430.500,-249.500,-121.000,-229.000
0.101,430.500,-249.500,-121.000,-229.500
0.102,430.500,-250.000,-121.000,-229.000
0.103,431.500,-250.000,-121.000,-229.000
0.104,433.500,-250.500,-121.000,-229.000
0.105,435.500,-250.500,-121.000,-229.000
0.106,437.500,-250.500,-121.000,-229.000
0.107,438.500,-250.500,-121.000,-229.500
0.108,438.500,-250.500,-121.000,-229.500
0.109,438.500,-250.500,-121.000,-230.000
0.110,438.500,-250.500,-121.500,-230.000
0.111,439.500,-251.000,-121.500,-230.500
0.112,441.000,-251.000,-122.000,-230.500
0.113,443.000,-250.500,-122.000,-230.500
0.114,445.000,-250.500,-122.000,-231.000
0.115,446.000,-250.000,-122.000,-231.000
0.116,445.500,-249.500,-122.000,-230.500
0.117,444.000,-249.500,-122.000,-230.500
0.118,443.000,-249.000,-121.500,-230.000
0.119,442.000,-249.000,-121.500,-229.500
0.120,441.500,-248.500,-121.000,-229.500
0.121,440.500,-248.500,-121.000,-229.500
0.122,438.500,-248.000,-120.500,-229.500
0.123,437.000,-247.500,-120.000,-229.500
0.124,436.500,-247.500,-120.000,-229.500
0.125,437.000,-247.500,-119.500,-229.500
0.126,439.500,-247.500,-119.500,-229.500
0.127,441.500,-247.000,-119.500,-229.500
0.128,443.500,-247.000,-119.000,-229.500
0.129,444.500,-246.500,-119.500,-230.000
0.130,444.000,-246.500,-119.500,-230.000
0.131,443.500,-246.500,-120.000,-230.000
0.132,443.000,-247.000,-120.500,-230.500
0.133,442.000,-247.000,-120.500,-230.500
0.134,440.000,-247.000,-121.000,-230.500
0.135,438.500,-246.500,-121.000,-230.500
0.136,438.000,-246.500,-120.500,-230.000
0.137,438.000,-246.000,-120.500,-229.500
0.138,437.500,-246.000,-120.000,-229.500
0.139,436.500,-246.000,-120.000,-229.000
0.140,435.500,-246.000,-120.000,-229.000
0.141,434.000,-246.000,-120.000,-229.000
0.142,432.500,-246.000,-120.000,-229.000
0.143,432.500,-246.000,-119.500,-229.000
0.144,433.000,-246.500,-119.500,-229.000
0.145,433.500,-246.500,-119.500,-229.000
0.146,434.000,-246.500,-119.500,-229.500
0.147,435.000,-246.500,-119.500,-229.500
0.148,436.000,-246.500,-120.000,-230.000
0.149,438.000,-246.500,-120.000,-230.500
0.150,441.000,-246.500,-120.500,-230.500
0.151,443.000,-246.500,-120.500,-231.000
0.152,443.500,-246.500,-120.500,-231.000
0.153,443.500,-246.500,-120.500,-231.000
0.154,443.000,-246.500,-120.500,-231.000
0.155,443.000,-246.500,-120.500,-231.000
0.156,442.000,-246.000,-120.500,-230.500
0.157,441.500,-246.000,-120.500,-230.500
0.158,441.000,-245.500,-120.000,-230.000
0.159,440.500,-245.500,-120.000,-230.000
0.160,440.500,-245.000,-120.000,-230.000
0.161,440.000,-245.000,-119.500,-230.000
0.162,439.500,-245.000,-119.500,-230.000
0.163,439.500,-245.000,-119.500,-230.000
0.164,439.000,-245.000,-119.500,-230.500
0.165,438.500,-245.500,-119.500,-230.500
0.166,438.000,-246.000,-119.500,-231.000
0.167,437.500,-246.000,-119.500,-231.000
0.168,437.500,-246.000,-119.500,-231.000
0.169,437.500,-245.500,-119.500,-231.000
0.170,438.000,-245.500,-119.500,-231.000
0.171,437.500,-245.000,-119.500,-231.500
0.172,436.500,-245.000,-120.000,-231.500
0.173,435.000,-245.000,-120.000,-231.500
0.174,433.500,-245.000,-120.000,-231.000
0.175,432.500,-245.000,-120.000,-231.000
0.176,433.000,-245.000,-120.000,-230.500
0.177,434.000,-244.500,-119.500,-230.000
0.178,436.000,-244.500,-119.500,-229.500
0.179,437.500,-244.000,-119.000,-229.500
0.180,438.500,-243.500,-118.500,-229.000
0.181,438.000,-243.500,-118.500,-229.000
0.182,436.000,-243.000,-118.500,-229.500
0.183,433.000,-243.000,-118.500,-229.500
0.184,430.000,-243.000,-118.500,-230.000
0.185,428.000,-243.000,-119.000,-230.000
0.186,427.500,-243.500,-119.000,-230.500
0.187,429.000,-243.500,-119.000,-230.500
0.188,432.000,-244.000,-119.000,-231.000
0.189,435.500,-244.000,-119.500,-231.000
0.190,438.500,-244.000,-119.500,-231.000
0.191,440.000,-244.000,-120.000,-231.500
0.192,440.000,-243.500,-120.000,-231.500
0.193,439.500,-243.500,-120.500,-231.500
0.194,438.000,-243.000,-120.500,-231.500
0.195,436.500,-242.500,-120.500,-231.000
0.196,437.000,-242.500,-120.500,-230.500
0.197,438.000,-242.000,-120.500,-230.000
0.198,439.000,-242.000,-120.500,-229.500
0.199,439.500,-241.500,-120.000,-229.500
0.200,439.000,-241.500,-120.000,-229.500
0.201,438.000,-241.500,-120.000,-229.500
0.202,436.000,-241.500,-120.000,-229.500
0.203,435.000,-241.500,-120.000,-229.500
0.204,434.500,-241.500,-120.000,-229.500
0.205,434.000,-242.000,-120.000,-229.500
0.206,434.500,-242.000,-120.500,-230.000
0.207,434.500,-242.500,-121.500,-231.000
0.208,435.000,-243.000,-122.000,-231.500
0.209,436.000,-243.000,-123.000,-232.500
0.210,436.500,-243.500,-124.000,-233.500
0.211,437.000,-244.000,-125.000,-234.500
0.212,436.500,-244.500,-125.500,-235.500
0.213,435.000,-244.500,-126.000,-236.500
0.214,433.500,-244.500,-126.500,-237.000
0.215,432.000,-244.500,-127.000,-237.500
0.216,431.000,-244.500,-127.000,-237.500
0.217,431.500,-244.500,-127.000,-237.000
0.218,432.000,-244.500,-126.500,-236.000
0.219,432.000,-244.000,-125.500,-235.000
0.220,430.500,-244.000,-124.500,-233.500
0.221,428.500,-243.500,-123.500,-232.000
0.222,425.500,-243.500,-122.500,-230.500
0.223,423.000,-243.000,-121.000,-229.000
0.224,421.000,-243.000,-120.000,-227.500
0.225,420.000,-242.500,-118.500,-225.500
0.226,419.500,-242.000,-117.000,-223.500
0.227,419.500,-242.000,-115.500,-221.000
0.228,421.000,-241.500,-113.500,-218.500
0.229,423.500,-241.000,-112.000,-215.500
0.230,426.000,-240.500,-110.000,-212.500
0.231,427.500,-240.500,-108.500,-209.500
0.232,428.500,-240.000,-107.000,-207.000
0.233,430.000,-239.500,-105.500,-205.000
0.234,431.000,-239.000,-104.000,-203.000
0.235,431.500,-238.500,-103.000,-201.000
0.236,431.500,-238.000,-102.000,-199.500
0.237,430.500,-237.500,-101.500,-198.000
0.238,429.000,-237.500,-101.000,-197.000
0.239,427.500,-237.500,-101.000,-197.000
0.240,426.000,-237.500,-101.500,-197.500
0.241,426.000,-237.500,-102.500,-199.000
0.242,427.000,-237.500,-104.000,-201.000
0.243,428.500,-238.000,-106.000,-204.000
0.244,429.500,-238.000,-108.000,-207.500
0.245,430.000,-237.500,-110.000,-211.500
0.246,428.500,-237.000,-112.000,-215.000
0.247,426.500,-235.500,-113.000,-218.500
0.248,424.500,-234.000,-114.000,-221.000
0.249,423.500,-232.500,-113.500,-222.500
0.250,422.000,-231.000,-113.000,-223.000
0.251,420.500,-229.500,-112.000,-222.500
0.252,419.000,-228.000,-111.000,-221.500
0.253,417.500,-227.000,-109.500,-220.500
0.254,416.500,-226.000,-108.500,-219.000
0.255,416.000,-225.000,-107.500,-218.000
0.256,415.500,-224.000,-107.000,-217.000
0.257,415.500,-224.000,-106.500,-216.500
0.258,416.500,-223.500,-107.000,-217.000
0.259,418.500,-223.500,-107.000,-217.000
0.260,421.000,-224.000,-107.500,-217.500
0.261,423.500,-224.000,-107.500,-218.000
0.262,425.000,-224.500,-108.000,-218.500
0.263,425.500,-224.500,-108.500,-219.000
0.264,425.500,-225.000,-109.000,-219.500
0.265,426.000,-225.500,-109.500,-220.500
0.266,427.000,-226.500,-110.000,-221.000
0.267,427.000,-227.000,-111.000,-222.000
0.268,426.000,-227.500,-111.500,-222.500
0.269,425.000,-228.000,-112.500,-223.500
0.270,424.000,-228.500,-113.000,-224.000
0.271,423.500,-229.000,-114.000,-225.000
0.272,424.000,-230.000,-114.500,-225.500
0.273,425.000,-230.500,-115.000,-226.000
0.274,426.500,-230.500,-116.000,-226.000
0.275,427.500,-231.000,-116.000,-226.500
0.276,428.500,-231.000,-116.500,-226.000
0.277,428.500,-231.000,-116.500,-226.000
0.278,428.500,-230.500,-116.500,-225.500
0.279,428.000,-230.500,-116.000,-225.500
0.280,428.000,-230.000,-116.000,-225.500
0.281,428.000,-229.500,-116.000,-225.500
0.282,428.000,-229.000,-115.500,-225.500
0.283,427.000,-229.000,-115.500,-225.500
0.284,425.500,-229.000,-115.000,-225.500
0.285,424.000,-229.000,-115.000,-226.000
0.286,422.500,-229.000,-115.000,-226.000
0.287,422.500,-229.000,-114.500,-226.000
0.288,423.000,-229.000,-114.500,-226.000
0.289,424.500,-229.000,-114.000,-226.500
0.290,426.500,-229.000,-114.000,-226.500
0.291,428.500,-229.000,-114.500,-226.500
0.292,429.000,-229.000,-114.500,-227.000
0.293,427.500,-229.000,-114.500,-227.000
0.294,425.000,-228.500,-115.000,-227.000
0.295,423.000,-228.500,-115.000,-226.500
0.296,422.000,-228.500,-115.000,-226.500
0.297,423.000,-228.000,-115.000,-226.500
0.298,424.500,-228.000,-115.000,-226.000
0.299,425.000,-227.500,-115.000,-225.500
0.300,424.500,-227.500,-114.500,-225.500
0.301,423.500,-227.000,-114.000,-225.000
0.302,423.500,-227.000,-114.000,-225.500
0.303,425.500,-227.000,-114.000,-225.500
0.304,428.000,-227.000,-114.000,-226.000
0.305,431.000,-227.500,-114.500,-226.500
0.306,433.000,-228.000,-115.000,-227.500
0.307,434.500,-228.500,-115.500,-228.000
0.308,434.500,-228.500,-116.000,-228.500
0.309,433.000,-229.000,-116.500,-229.000
0.310,431.000,-229.000,-117.000,-229.500
0.311,430.000,-228.500,-117.500,-229.500
0.312,429.500,-228.500,-117.500,-229.500
0.313,430.500,-228.000,-117.500,-229.000
0.314,431.500,-228.000,-117.500,-229.000
0.315,432.500,-228.000,-117.500,-228.500
0.316,432.500,-227.500,-117.000,-228.000
0.317,432.000,-227.000,-117.000,-227.500
0.318,431.500,-226.000,-116.500,-227.000
0.319,431.000,-225.500,-116.000,-227.000
0.320,430.500,-225.500,-116.000,-227.000
0.321,429.500,-225.500,-116.000,-227.000
0.322,429.000,-225.500,-116.000,-227.000
0.323,428.500,-225.500,-116.500,-227.000
0.324,428.500,-226.000,-116.500,-227.500
0.325,428.000,-226.000,-116.500,-227.500
0.326,427.500,-226.000,-116.500,-228.000
0.327,426.500,-226.000,-116.500,-228.000
0.328,424.500,-225.500,-116.000,-228.500
0.329,423.000,-225.500,-116.000,-228.500
0.330,423.000,-225.000,-115.500,-228.500
0.331,423.000,-225.000,-115.500,-228.500
0.332,424.000,-225.000,-115.500,-228.500
0.333,424.000,-224.500,-115.500,-228.500
0.334,424.000,-224.500,-115.500,-228.000
0.335,424.000,-224.500,-115.500,-228.000
0.336,423.500,-224.500,-115.500,-227.500
0.337,424.000,-224.500,-115.500,-227.000
0.338,425.000,-224.000,-115.500,-227.000
0.339,427.000,-223.500,-115.500,-226.500
0.340,429.000,-223.500,-115.000,-226.500
0.341,430.500,-223.000,-114.500,-226.000
0.342,432.000,-222.500,-114.000,-226.000
0.343,433.000,-222.500,-114.000,-226.500
0.344,434.000,-222.500,-113.500,-226.500
0.345,435.500,-222.000,-114.000,-226.500
0.346,437.000,-222.000,-114.000,-227.000
0.347,437.500,-222.000,-114.000,-227.000
0.348,436.500,-222.000,-114.500,-227.000
0.349,436.000,-222.000,-114.500,-227.000
0.350,436.500,-222.000,-114.000,-227.000
0.351,438.000,-221.500,-114.000,-226.500
0.352,440.000,-221.000,-113.500,-226.500
0.353,440.500,-221.000,-113.000,-226.000
0.354,440.000,-220.500,-113.000,-225.500
0.355,439.000,-220.500,-113.000,-225.500
0.356,439.000,-220.500,-113.000,-225.000
0.357,438.500,-220.000,-112.500,-225.000
0.358,437.500,-219.500,-112.500,-224.500
0.359,436.000,-219.000,-112.500,-224.000
0.360,433.500,-218.000,-112.000,-224.000
0.361,431.500,-218.000,-112.000,-223.500
0.362,430.000,-218.000,-112.000,-223.500
0.363,429.000,-218.000,-112.000,-223.000
0.364,428.500,-218.000,-112.000,-223.000
0.365,428.000,-218.000,-112.000,-223.500
0.366,427.500,-218.000,-112.000,-223.500
0.367,426.000,-218.500,-112.000,-224.000
0.368,424.500,-218.500,-112.000,-224.000
0.369,422.500,-218.500,-112.000,-224.000
0.370,420.500,-218.500,-111.500,-224.000
0.371,419.500,-218.500,-111.500,-224.000
0.372,419.000,-218.000,-111.500,-224.000
0.373,419.000,-218.000,-111.500,-224.000
0.374,420.000,-217.000,-111.000,-223.500
0.375,421.500,-216.500,-110.500,-223.500
0.376,423.000,-215.500,-110.000,-223.000
0.377,424.000,-214.500,-109.500,-222.500
0.378,424.000,-214.000,-109.500,-222.000
0.379,424.000,-213.000,-109.000,-221.500
0.380,424.000,-212.500,-108.500,-221.000
0.381,423.500,-212.000,-108.500,-221.000
0.382,422.500,-211.500,-108.000,-221.000
0.383,421.000,-211.500,-108.000,-221.000
0.384,420.000,-211.500,-108.000,-221.000
0.385,418.500,-211.500,-108.000,-221.500
0.386,418.000,-211.500,-108.000,-222.000
0.387,418.000,-211.500,-108.000,-222.000
0.388,419.000,-212.000,-108.000,-222.500
0.389,422.000,-212.000,-108.500,-222.500
0.390,425.000,-212.000,-108.500,-223.000
0.391,428.500,-211.500,-108.500,-223.000
0.392,430.500,-211.500,-108.500,-223.000
0.393,433.000,-211.000,-108.500,-222.500
0.394,435.000,-210.500,-108.500,-222.500
0.395,436.500,-210.500,-108.000,-222.000
0.396,437.500,-210.000,-108.000,-221.500
0.397,438.000,-210.000,-107.500,-221.000
0.398,437.500,-209.500,-107.500,-220.500
0.399,436.500,-209.500,-107.500,-220.000
0.400,435.000,-209.000,-107.000,-220.000
0.401,433.500,-209.000,-107.000,-219.500
0.402,433.000,-209.000,-106.500,-219.500
0.403,433.500,-208.500,-106.500,-219.500
0.404,435.000,-208.500,-106.500,-219.500
0.405,436.000,-208.500,-106.500,-220.000
0.406,436.500,-208.500,-106.000,-220.000
0.407,436.000,-208.500,-106.000,-220.000
0.408,435.500,-208.500,-106.000,-220.000
0.409,433.500,-208.500,-106.000,-220.000
0.410,431.500,-208.000,-106.000,-220.500
0.411,429.000,-207.500,-105.500,-220.000
0.412,427.000,-207.000,-105.000,-220.000
0.413,425.000,-206.500,-105.000,-219.500
0.414,424.500,-206.000,-104.500,-219.500
0.415,423.500,-205.500,-104.500,-219.500
0.416,423.000,-205.500,-104.500,-219.500
0.417,422.000,-205.000,-104.500,-219.000
0.418,421.500,-205.000,-104.500,-219.000
0.419,420.500,-204.500,-104.500,-218.500
0.420,420.000,-204.500,-104.500,-218.500
0.421,419.500,-204.000,-104.500,-218.500
0.422,419.500,-204.500,-104.000,-218.500
0.423,420.000,-204.500,-104.000,-218.500
0.424,421.000,-204.500,-104.000,-218.500
0.425,421.500,-205.000,-104.000,-218.500
0.426,421.500,-205.000,-104.000,-219.000
0.427,421.500,-205.000,-104.000,-219.000
0.428,421.500,-205.500,-104.000,-219.000
0.429,421.500,-205.500,-104.500,-219.500
0.430,421.500,-206.000,-104.500,-219.500
0.431,421.000,-206.000,-105.000,-220.000
0.432,420.500,-206.000,-105.500,-220.000
0.433,420.500,-206.000,-105.500,-220.000
0.434,420.000,-205.500,-105.500,-219.500
0.435,420.500,-205.500,-105.500,-219.500
0.436,421.000,-205.000,-105.000,-219.500
0.437,422.500,-204.500,-105.000,-219.500
0.438,423.500,-203.500,-104.500,-219.500
0.439,423.500,-203.000,-104.000,-219.000
0.440,422.000,-203.000,-103.500,-218.500
0.441,420.500,-202.500,-103.000,-218.000
0.442,418.500,-202.500,-102.500,-217.500
0.443,418.000,-202.500,-102.000,-217.000
0.444,418.000,-202.500,-102.000,-217.000
0.445,418.500,-202.500,-101.500,-217.000
0.446,418.000,-202.500,-101.500,-217.000
0.447,416.500,-202.500,-101.500,-217.500
0.448,413.000,-202.500,-101.500,-218.000
0.449,409.000,-203.000,-101.500,-218.000
0.450,405.000,-203.000,-102.000,-218.500
0.451,403.500,-203.500,-102.000,-219.000
0.452,403.500,-204.000,-102.500,-219.000
0.453,405.500,-204.000,-102.500,-219.000
0.454,408.000,-204.500,-102.500,-219.000
0.455,410.500,-205.000,-103.000,-219.500
0.456,412.000,-205.500,-104.000,-219.500
0.457,413.000,-206.500,-104.500,-219.500
0.458,414.000,-207.000,-105.000,-219.000
0.459,415.000,-207.000,-104.500,-218.500
0.460,416.000,-206.500,-104.000,-218.000
0.461,417.000,-205.500,-103.000,-217.000
0.462,418.000,-204.000,-101.500,-216.000
0.463,418.000,-202.500,-100.500,-214.500
0.464,417.500,-201.000,-99.000,-213.500
0.465,417.000,-199.000,-97.500,-212.500
0.466,416.000,-198.000,-96.500,-211.500
0.467,415.000,-197.000,-95.500,-211.000
0.468,415.000,-196.500,-95.000,-210.500
0.469,415.000,-196.500,-95.000,-210.500
0.470,415.500,-196.500,-95.000,-210.500
0.471,415.000,-196.500,-95.000,-210.500
0.472,414.000,-196.500,-95.000,-210.500
0.473,412.500,-196.500,-95.000,-210.000
0.474,411.500,-196.500,-95.000,-210.000
0.475,410.500,-196.500,-95.500,-210.000
0.476,410.500,-197.000,-96.000,-210.000
0.477,411.500,-197.000,-96.500,-210.000
0.478,414.000,-197.500,-96.500,-210.000
0.479,417.000,-197.500,-96.500,-209.500
0.480,420.000,-197.500,-96.500,-209.500
0.481,422.000,-197.000,-96.000,-209.000
0.482,423.500,-197.000,-95.500,-208.500
0.483,424.000,-196.500,-95.500,-208.500
0.484,424.500,-197.000,-95.000,-208.500
0.485,424.000,-197.000,-95.000,-208.500
0.486,423.000,-197.000,-95.000,-208.500
0.487,422.000,-197.000,-95.000,-208.500
0.488,421.000,-196.500,-94.500,-208.000
0.489,419.500,-196.000,-94.000,-208.000
0.490,417.000,-195.500,-93.500,-207.500
0.491,414.000,-195.000,-93.000,-207.000
0.492,411.500,-194.500,-92.500,-207.000
0.493,410.000,-194.500,-92.500,-206.500
0.494,409.500,-194.000,-92.000,-206.500
0.495,409.500,-193.500,-92.000,-206.000
0.496,410.000,-193.500,-91.500,-205.500
0.497,411.000,-193.000,-91.000,-205.000
0.498,412.000,-193.000,-91.000,-204.500
0.499,413.500,-193.000,-91.000,-204.000
0.500,414.000,-193.000,-91.500,-204.000
0.501,414.000,-193.500,-92.000,-204.000
0.502,414.500,-193.500,-92.500,-204.000
0.503,415.500,-194.000,-93.000,-204.000
0.504,417.000,-194.000,-93.000,-204.000
0.505,418.500,-194.000,-93.500,-204.500
0.506,419.500,-194.500,-93.500,-205.000
0.507,420.000,-194.500,-93.500,-205.500
0.508,419.500,-195.000,-94.000,-206.000
0.509,419.500,-195.000,-94.000,-207.000
0.510,418.500,-195.000,-94.500,-207.500
0.511,417.500,-195.000,-94.500,-207.500
0.512,416.000,-195.000,-95.000,-207.500
0.513,414.500,-195.000,-95.000,-207.500
0.514,413.000,-194.500,-95.000,-207.500
0.515,411.000,-194.500,-95.500,-207.500
0.516,409.500,-194.500,-95.500,-208.000
0.517,408.000,-194.000,-96.000,-208.000
0.518,407.000,-193.500,-96.000,-208.000
0.519,407.000,-193.000,-96.000,-208.000
0.520,407.000,-193.000,-96.000,-208.000
0.521,408.000,-192.500,-95.500,-208.000
0.522,410.000,-192.500,-95.500,-208.000
0.523,411.500,-192.500,-96.000,-208.500
0.524,412.000,-193.000,-96.000,-209.000
0.525,411.500,-193.000,-96.500,-209.500
0.526,411.000,-193.500,-96.500,-209.500
0.527,411.500,-193.500,-97.000,-210.000
0.528,413.000,-194.000,-97.500,-211.000
0.529,414.500,-194.000,-98.000,-211.500
0.530,415.500,-194.000,-98.500,-212.500
0.531,414.500,-194.000,-99.000,-213.000
0.532,412.500,-194.000,-99.500,-213.500
0.533,410.500,-194.000,-99.500,-213.500
0.534,409.500,-193.500,-100.000,-213.500
0.535,409.000,-193.000,-100.000,-214.000
0.536,408.500,-193.000,-100.000,-214.000
0.537,409.000,-192.500,-99.500,-214.000
0.538,409.000,-192.500,-99.500,-213.500
0.539,409.500,-192.000,-99.500,-213.500
0.540,410.000,-192.000,-99.500,-213.500
0.541,410.500,-192.000,-99.500,-213.500
0.542,411.000,-192.500,-99.500,-213.500
0.543,411.500,-192.500,-100.000,-214.000
0.544,411.000,-192.500,-100.000,-215.000
0.545,410.500,-193.000,-100.500,-215.500
0.546,410.500,-193.000,-100.500,-216.000
0.547,411.000,-193.000,-100.500,-216.500
0.548,411.500,-193.000,-100.500,-217.000
0.549,411.500,-192.500,-100.500,-217.000
0.550,410.500,-192.000,-101.000,-217.500
0.551,408.500,-191.500,-101.000,-218.000
0.552,406.000,-191.500,-101.000,-218.000
0.553,403.500,-191.500,-101.000,-218.000
0.554,402.000,-191.000,-101.000,-218.000
0.555,402.500,-191.000,-101.000,-217.500
0.556,403.000,-190.500,-101.000,-217.500
0.557,403.500,-190.500,-101.000,-217.000
0.558,403.000,-190.000,-100.500,-217.000
0.559,402.500,-189.000,-100.500,-216.500
0.560,403.500,-188.500,-100.000,-216.500
0.561,405.000,-188.000,-100.000,-216.500
0.562,406.500,-188.000,-100.000,-216.500
0.563,407.000,-188.000,-100.000,-216.500
0.564,406.500,-188.500,-100.000,-216.500
0.565,405.000,-188.500,-100.000,-217.000
0.566,402.500,-189.000,-100.000,-217.000
0.567,400.500,-189.000,-100.000,-217.000
0.568,398.500,-189.000,-100.000,-217.500
0.569,397.500,-189.000,-99.500,-217.500
0.570,396.000,-188.500,-99.500,-217.500
0.571,393.500,-188.500,-99.500,-218.000
0.572,389.500,-188.500,-99.000,-218.000
0.573,386.500,-188.000,-99.000,-218.000
0.574,385.000,-187.500,-99.000,-218.000
0.575,385.000,-187.000,-99.000,-218.000
0.576,387.000,-186.500,-99.500,-218.000
0.577,390.000,-186.500,-99.500,-218.000
0.578,393.500,-186.000,-99.500,-218.000
0.579,396.000,-186.000,-99.500,-217.500
0.580,397.500,-185.500,-99.000,-217.500
0.581,398.500,-185.500,-98.500,-217.500
0.582,398.500,-185.000,-98.000,-217.000
0.583,399.000,-185.000,-98.000,-217.000
0.584,399.500,-185.000,-97.500,-217.000
0.585,401.000,-185.000,-97.500,-217.000
0.586,402.500,-185.000,-97.500,-217.500
0.587,405.000,-185.000,-97.500,-217.500
0.588,406.500,-185.000,-97.500,-218.000
0.589,408.000,-185.000,-98.000,-218.500
0.590,410.000,-185.000,-98.000,-218.500
0.591,413.000,-185.000,-98.500,-219.000
0.592,416.000,-185.000,-99.000,-219.000
0.593,418.000,-185.000,-99.000,-219.500
0.594,418.500,-184.500,-99.000,-219.000
0.595,418.500,-184.500,-99.000,-219.000
0.596,418.000,-184.000,-99.000,-218.500
0.597,417.500,-183.500,-98.500,-218.000
0.598,417.500,-183.500,-98.000,-217.500
0.599,417.500,-183.000,-98.000,-217.000
0.600,417.500,-182.500,-98.000,-217.000
0.601,416.500,-182.500,-98.000,-217.000
0.602,415.500,-182.500,-98.000,-217.500
0.603,414.000,-182.500,-98.000,-218.000
0.604,411.500,-182.500,-98.000,-218.500
0.605,409.000,-182.500,-98.500,-218.500
0.606,406.500,-183.000,-98.500,-219.000
0.607,405.500,-183.000,-98.500,-219.000
0.608,405.000,-183.500,-98.500,-219.000
0.609,406.000,-183.500,-98.500,-219.000
0.610,407.500,-183.500,-98.500,-219.000
0.611,409.000,-183.500,-98.500,-219.000
0.612,410.000,-183.000,-98.500,-219.000
0.613,410.500,-182.500,-98.500,-219.000
0.614,410.000,-182.500,-98.500,-218.500
0.615,409.000,-182.000,-98.500,-218.500
0.616,408.500,-181.500,-98.500,-218.000
0.617,408.500,-181.000,-98.000,-218.000
0.618,409.000,-181.000,-97.500,-218.000
0.619,410.000,-180.500,-97.500,-217.500
0.620,411.000,-180.000,-97.000,-217.500
0.621,412.000,-180.000,-97.000,-217.000
0.622,412.500,-179.500,-97.000,-217.000
0.623,414.000,-179.500,-97.000,-217.000
0.624,415.000,-179.500,-97.000,-217.500
0.625,416.000,-179.500,-97.000,-217.500
0.626,416.000,-179.500,-97.000,-217.500
0.627,416.500,-179.500,-97.000,-218.000
0.628,416.000,-179.500,-97.500,-218.000
0.629,416.000,-179.500,-97.500,-218.500
0.630,416.000,-179.500,-97.500,-218.500
0.631,416.500,-179.000,-97.500,-218.500
0.632,416.000,-178.500,-97.000,-218.500
0.633,415.500,-178.500,-97.000,-218.500
0.634,414.000,-178.500,-97.000,-218.500
0.635,412.000,-178.000,-97.000,-218.000
0.636,411.000,-178.000,-96.500,-218.000
0.637,410.000,-177.500,-96.500,-217.500
0.638,410.000,-177.000,-96.000,-217.000
0.639,409.500,-176.500,-95.500,-216.500
0.640,408.500,-176.500,-95.500,-216.000
0.641,408.000,-176.000,-95.000,-215.500
0.642,407.500,-176.000,-95.000,-215.500
0.643,407.000,-176.000,-95.000,-215.500
0.644,407.000,-175.500,-95.000,-215.500
0.645,407.000,-175.500,-95.000,-216.000
0.646,407.000,-175.500,-94.500,-216.000
0.647,407.000,-175.000,-94.500,-216.000
0.648,407.000,-175.000,-94.000,-216.000
0.649,406.500,-174.500,-94.000,-216.000
0.650,405.500,-174.000,-93.500,-216.000
0.651,405.000,-173.500,-93.000,-216.000
0.652,404.500,-173.500,-93.000,-216.000
0.653,403.000,-173.000,-93.000,-215.500
0.654,400.500,-173.000,-93.000,-215.500
0.655,397.500,-173.000,-93.500,-215.000
0.656,394.500,-172.500,-93.500,-215.000
0.657,392.500,-172.500,-93.000,-214.500
0.658,391.500,-172.000,-93.000,-214.500
0.659,391.500,-171.500,-93.000,-214.000
0.660,392.000,-171.000,-92.500,-214.000
0.661,392.000,-170.500,-92.500,-214.000
0.662,392.500,-170.500,-92.000,-214.000
0.663,393.000,-170.500,-91.500,-213.500
0.664,393.500,-170.500,-91.500,-213.500
0.665,394.000,-170.500,-91.000,-213.500
0.666,395.000,-170.500,-91.000,-213.500
0.667,395.500,-170.500,-91.000,-213.500
0.668,396.000,-170.500,-91.500,-214.000
0.669,395.500,-170.500,-91.500,-214.000
0.670,394.000,-170.500,-91.500,-214.000
0.671,392.500,-170.500,-91.500,-214.000
0.672,392.500,-170.500,-91.500,-214.000
0.673,393.500,-170.500,-91.500,-213.500
0.674,395.000,-170.500,-91.500,-213.500
0.675,396.000,-170.500,-91.500,-213.500
0.676,397.500,-170.000,-91.500,-213.000
0.677,399.000,-169.500,-91.500,-212.500
0.678,400.500,-169.000,-91.000,-212.000
0.679,401.000,-168.500,-91.000,-211.500
0.680,400.500,-168.500,-91.000,-211.000
0.681,399.000,-168.000,-90.500,-211.000
0.682,397.500,-168.000,-90.500,-211.000
0.683,396.000,-168.000,-90.500,-211.000
0.684,394.500,-168.000,-90.500,-211.000
0.685,393.000,-168.000,-91.000,-211.000
0.686,392.000,-168.500,-91.000,-211.500
0.687,391.000,-169.000,-91.000,-211.500
0.688,390.500,-169.000,-91.500,-211.500
0.689,390.500,-169.500,-91.500,-212.000
0.690,390.500,-169.500,-92.000,-212.000
0.691,391.000,-169.500,-92.000,-212.000
0.692,391.500,-169.000,-92.500,-212.000
0.693,392.000,-168.500,-92.500,-212.000
0.694,392.000,-168.500,-92.500,-212.000
0.695,391.500,-168.500,-92.000,-211.500
0.696,391.000,-168.500,-92.000,-211.000
0.697,390.500,-168.000,-92.000,-211.000
0.698,391.500,-167.500,-91.500,-210.000
0.699,392.500,-167.500,-91.000,-210.000
0.700,394.000,-167.000,-91.000,-209.500
0.701,394.500,-166.500,-91.000,-209.500
0.702,394.000,-166.500,-91.000,-209.500
0.703,392.500,-166.500,-91.000,-210.000
0.704,391.000,-166.500,-91.500,-210.500
0.705,390.500,-166.500,-91.500,-210.500
0.706,390.500,-166.500,-91.500,-210.500
0.707,389.500,-166.500,-91.500,-211.000
0.708,388.500,-166.500,-91.500,-211.000
0.709,387.500,-166.500,-91.500,-211.000
0.710,386.000,-166.000,-91.000,-211.000
0.711,384.500,-165.500,-90.500,-210.500
0.712,383.500,-165.000,-90.500,-210.500
0.713,383.500,-164.500,-90.000,-210.000
0.714,385.000,-164.500,-89.500,-210.000
0.715,386.500,-164.000,-89.500,-209.500
0.716,387.500,-164.000,-89.500,-209.000
0.717,389.000,-163.500,-89.500,-208.500
0.718,390.500,-163.500,-89.000,-208.000
0.719,391.500,-163.000,-89.000,-207.500
0.720,392.500,-162.500,-89.000,-207.000
0.721,393.500,-162.000,-89.000,-207.000
0.722,395.000,-162.000,-89.000,-207.000
0.723,397.000,-161.500,-89.000,-206.500
0.724,398.000,-161.500,-89.000,-206.500
0.725,397.000,-161.500,-88.500,-206.500
0.726,395.000,-161.500,-88.500,-207.000
0.727,393.000,-161.500,-88.500,-207.000
0.728,391.000,-161.500,-89.000,-207.500
0.729,390.000,-162.000,-89.500,-208.000
0.730,389.000,-162.500,-89.500,-208.500
0.731,388.000,-162.500,-90.000,-208.500
0.732,387.500,-162.500,-90.000,-209.000
0.733,387.000,-162.000,-90.000,-209.000
0.734,386.500,-161.500,-90.000,-209.000
0.735,386.500,-161.000,-89.500,-208.500
0.736,386.500,-160.500,-89.000,-208.000
0.737,387.500,-160.500,-88.500,-207.000
0.738,388.000,-160.000,-88.000,-206.500
0.739,388.000,-159.500,-88.000,-206.000
0.740,387.500,-159.000,-87.500,-205.500
0.741,387.000,-158.500,-87.000,-205.500
0.742,386.000,-158.000,-86.500,-205.000
0.743,385.000,-157.500,-86.000,-205.000
0.744,384.000,-157.500,-86.000,-205.000
0.745,384.000,-157.500,-85.500,-205.000
0.746,383.500,-157.500,-86.000,-205.000
0.747,383.500,-158.000,-86.000,-205.000
0.748,384.000,-158.000,-86.000,-205.000
0.749,385.000,-158.000,-86.000,-205.000
0.750,387.000,-158.000,-86.000,-205.000
0.751,389.000,-158.000,-86.000,-205.000
0.752,390.500,-158.000,-86.000,-204.500
0.753,391.500,-157.500,-86.000,-204.500
0.754,392.500,-157.000,-86.000,-204.500
0.755,393.500,-156.500,-86.000,-204.500
0.756,394.500,-156.000,-86.000,-204.500
0.757,394.000,-156.000,-86.000,-204.000
0.758,392.000,-156.000,-85.500,-204.000
0.759,388.500,-156.000,-85.500,-203.500
0.760,384.500,-155.500,-85.500,-203.500
0.761,380.500,-155.500,-85.000,-203.000
0.762,378.500,-155.500,-85.000,-203.000
0.763,379.000,-155.500,-85.500,-203.000
0.764,381.000,-155.500,-85.500,-203.000
0.765,383.000,-156.000,-85.500,-203.000
0.766,384.500,-156.500,-86.000,-203.000
0.767,385.000,-157.000,-86.000,-203.000
0.768,385.500,-157.500,-86.500,-203.500
0.769,386.500,-157.500,-87.000,-204.000
0.770,387.500,-158.000,-87.000,-204.000
0.771,388.500,-158.000,-87.500,-204.000
0.772,388.500,-157.500,-87.000,-204.000
0.773,388.500,-157.500,-87.000,-204.000
0.774,389.500,-157.000,-87.000,-204.000
0.775,390.500,-156.500,-87.000,-204.000
0.776,391.500,-156.000,-87.000,-204.000
0.777,391.500,-155.500,-86.500,-203.500
0.778,391.500,-155.000,-86.000,-203.000
0.779,391.000,-154.500,-86.000,-203.000
0.780,390.500,-154.000,-85.500,-202.500
0.781,389.500,-153.500,-85.000,-202.000
0.782,387.000,-153.000,-84.500,-201.500
0.783,384.000,-153.000,-84.500,-201.000
0.784,381.500,-152.500,-84.000,-201.500
0.785,379.500,-152.500,-84.000,-201.500
0.786,379.000,-153.000,-84.000,-202.000
0.787,380.500,-153.000,-84.500,-202.500
0.788,382.500,-153.500,-84.500,-203.000
0.789,384.500,-153.500,-84.500,-203.000
0.790,386.000,-154.000,-84.500,-203.000
0.791,386.500,-154.000,-84.500,-203.000
0.792,386.500,-153.500,-84.500,-203.000
0.793,386.500,-153.500,-84.500,-203.000
0.794,386.000,-153.500,-84.500,-203.000
0.795,385.000,-153.000,-84.500,-202.500
0.796,384.000,-152.500,-84.500,-202.500
0.797,382.500,-152.000,-84.000,-201.500
0.798,380.500,-151.000,-83.000,-201.000
0.799,379.000,-150.500,-82.500,-200.000
0.800,377.000,-150.000,-81.500,-199.500
0.801,375.500,-149.500,-81.500,-199.500
0.802,374.500,-149.500,-81.000,-199.500
0.803,374.500,-149.000,-81.000,-199.500
0.804,374.000,-149.000,-81.000,-199.500
0.805,374.000,-149.500,-81.000,-200.000
0.806,373.500,-149.500,-81.500,-200.500
0.807,373.000,-150.000,-82.000,-201.000
0.808,373.000,-150.000,-82.000,-201.500
0.809,373.000,-150.000,-82.000,-201.500
0.810,373.500,-149.500,-82.000,-201.500
0.811,374.500,-149.500,-82.000,-201.500
0.812,376.000,-149.500,-82.000,-201.000
0.813,377.500,-149.000,-81.500,-201.000
0.814,378.000,-149.000,-81.500,-200.500
0.815,377.500,-148.500,-81.500,-200.500
0.816,377.000,-148.000,-81.000,-200.000
0.817,377.000,-147.500,-81.000,-199.500
0.818,377.500,-147.000,-80.500,-199.000
0.819,377.500,-146.500,-80.000,-198.500
0.820,377.000,-146.500,-80.000,-198.000
0.821,376.000,-146.000,-79.500,-198.000
0.822,375.000,-146.000,-79.000,-198.000
0.823,376.000,-146.000,-79.000,-197.500
0.824,378.000,-146.000,-78.500,-197.500
0.825,381.000,-146.000,-78.500,-197.500
0.826,383.000,-146.000,-78.500,-197.500
0.827,383.500,-145.500,-78.500,-197.500
0.828,383.500,-145.500,-79.000,-197.500
0.829,382.000,-145.500,-79.000,-198.000
0.830,380.500,-145.000,-79.500,-198.000
0.831,379.500,-145.000,-79.500,-198.000
0.832,378.000,-144.500,-79.000,-198.000
0.833,377.500,-144.500,-79.000,-198.000
0.834,378.500,-144.000,-79.000,-197.500
0.835,380.500,-143.500,-78.500,-197.000
0.836,382.000,-143.000,-78.000,-196.500
0.837,383.000,-142.500,-77.500,-196.000
0.838,382.500,-142.000,-77.000,-195.000
0.839,381.500,-141.500,-76.500,-194.500
0.840,380.500,-140.500,-76.000,-194.000
0.841,380.500,-140.000,-75.500,-193.500
0.842,380.000,-140.000,-75.000,-193.000
0.843,380.000,-139.500,-75.000,-193.500
0.844,380.500,-139.500,-75.000,-193.500
0.845,380.500,-139.500,-75.000,-193.500
0.846,381.000,-139.500,-75.000,-193.500
0.847,381.500,-139.500,-75.000,-193.500
0.848,381.000,-140.000,-74.500,-193.500
0.849,380.000,-140.000,-74.500,-193.000
0.850,378.500,-140.000,-74.500,-192.500
0.851,377.000,-140.000,-74.500,-192.500
0.852,376.000,-140.000,-74.500,-192.000
0.853,375.000,-139.500,-74.500,-191.500
0.854,374.000,-139.500,-74.000,-191.500
0.855,374.000,-139.500,-74.000,-191.000
0.856,374.500,-139.000,-74.500,-191.000
0.857,375.500,-139.000,-74.500,-191.000
0.858,376.500,-139.000,-74.500,-191.000
0.859,377.000,-138.500,-74.500,-191.500
0.860,376.000,-138.500,-74.500,-191.500
0.861,374.500,-138.500,-74.500,-191.500
0.862,373.500,-138.500,-74.500,-191.500
0.863,373.500,-138.500,-74.500,-191.500
0.864,374.000,-138.500,-74.500,-191.000
0.865,375.000,-139.000,-74.500,-191.000
0.866,376.000,-139.000,-74.000,-191.000
0.867,376.500,-139.000,-74.000,-191.000
0.868,376.500,-138.500,-74.000,-191.000
0.869,377.500,-138.500,-74.000,-191.000
0.870,378.500,-138.500,-73.500,-191.000
0.871,381.000,-138.500,-73.500,-191.000
0.872,383.500,-138.000,-73.500,-191.000
0.873,385.500,-138.000,-73.500,-191.000
0.874,386.500,-137.500,-73.500,-190.500
0.875,385.500,-137.000,-73.000,-190.000
0.876,383.500,-136.000,-72.500,-189.500
0.877,382.000,-135.500,-72.000,-189.500
0.878,382.500,-135.500,-71.500,-189.000
0.879,385.000,-135.500,-71.500,-189.000
0.880,388.500,-135.000,-71.500,-188.500
0.881,391.500,-135.000,-72.000,-188.500
0.882,394.000,-135.000,-72.000,-189.000
0.883,394.000,-135.000,-72.000,-189.000
0.884,392.000,-135.500,-72.000,-189.500
0.885,389.000,-135.500,-72.000,-189.500
0.886,386.000,-135.500,-72.000,-189.500
0.887,383.000,-135.500,-72.000,-190.000
0.888,381.000,-135.500,-72.000,-190.500
0.889,379.000,-135.500,-72.000,-190.500
0.890,378.000,-135.500,-72.500,-191.000
0.891,377.000,-135.500,-72.500,-191.500
0.892,376.500,-135.500,-73.000,-191.500
0.893,376.000,-135.500,-73.500,-192.000
0.894,375.500,-135.500,-73.500,-192.000
0.895,376.000,-136.000,-74.000,-192.000
0.896,377.000,-136.000,-74.000,-191.500
0.897,379.500,-136.000,-74.000,-191.000
0.898,382.500,-136.000,-73.500,-190.500
0.899,384.000,-136.000,-73.500,-190.000
0.900,384.000,-135.500,-73.000,-189.500
0.901,383.000,-135.500,-72.500,-189.500
0.902,382.000,-135.000,-72.500,-189.000
0.903,381.500,-135.000,-72.500,-189.000
0.904,381.500,-135.500,-72.500,-189.500
0.905,381.000,-135.500,-72.500,-189.500
0.906,380.500,-136.000,-72.500,-190.000
0.907,380.000,-136.000,-72.500,-190.000
0.908,380.000,-136.000,-73.000,-190.500
0.909,380.000,-136.500,-73.000,-190.500
0.910,380.500,-136.500,-73.500,-191.000
0.911,381.500,-137.000,-73.500,-191.000
0.912,382.000,-137.000,-74.000,-191.500
0.913,382.000,-137.000,-74.000,-191.000
0.914,381.500,-137.000,-74.000,-191.000
0.915,380.500,-137.000,-73.500,-191.000
0.916,380.000,-137.000,-73.500,-191.000
0.917,379.500,-137.000,-74.000,-191.000
0.918,379.000,-137.500,-74.000,-191.500
0.919,377.500,-138.000,-74.500,-192.000
0.920,375.500,-138.500,-75.000,-192.000
0.921,373.000,-139.000,-75.500,-192.500
0.922,371.500,-140.000,-76.500,-193.000
0.923,371.000,-141.000,-77.500,-193.500
0.924,372.000,-142.000,-78.000,-194.000
0.925,373.500,-142.500,-78.000,-194.500
0.926,374.500,-143.000,-78.000,-194.500
0.927,374.500,-142.500,-77.500,-194.000
0.928,374.500,-142.000,-76.500,-193.500
0.929,373.500,-140.500,-75.500,-192.500
0.930,372.000,-139.000,-74.500,-192.000
0.931,371.500,-137.500,-73.500,-191.000
0.932,371.000,-136.000,-72.500,-190.000
0.933,371.500,-135.000,-71.500,-189.500
0.934,372.500,-134.000,-70.500,-188.500
0.935,373.000,-133.000,-70.000,-188.000
0.936,374.000,-132.500,-69.500,-187.000
0.937,375.000,-132.500,-69.500,-187.000
0.938,376.500,-132.000,-69.000,-186.500
0.939,377.500,-132.000,-69.500,-186.500
0.940,378.500,-132.500,-69.500,-186.500
0.941,379.500,-132.500,-69.500,-186.500
0.942,380.000,-133.000,-70.000,-186.500
0.943,380.500,-133.500,-70.500,-187.000
0.944,380.500,-134.000,-70.500,-187.000
0.945,380.000,-134.000,-71.000,-187.500
0.946,380.000,-134.500,-71.500,-188.000
0.947,380.500,-135.000,-71.500,-188.000
0.948,380.500,-135.500,-71.500,-188.000
0.949,380.000,-135.500,-71.500,-188.500
0.950,379.000,-136.000,-71.500,-188.500
0.951,378.500,-136.500,-71.500,-188.500
0.952,377.500,-136.500,-71.500,-188.000
0.953,377.000,-136.500,-71.500,-188.000
0.954,376.500,-136.000,-71.500,-188.000
0.955,376.500,-136.000,-71.500,-188.000
0.956,376.000,-136.000,-71.000,-187.500
0.957,375.500,-135.500,-71.000,-187.000
0.958,374.500,-135.000,-70.000,-186.500
0.959,373.000,-134.000,-69.500,-186.000
0.960,371.000,-134.000,-69.000,-185.500
0.961,368.000,-133.500,-68.500,-185.500
0.962,365.000,-134.000,-69.000,-185.500
0.963,363.000,-134.000,-69.000,-185.500
0.964,362.500,-134.500,-70.000,-186.000
0.965,363.500,-135.000,-70.500,-186.500
0.966,366.000,-135.000,-70.500,-187.000
0.967,368.000,-135.500,-71.000,-187.500
0.968,369.000,-135.500,-71.000,-188.000
0.969,369.500,-135.500,-71.000,-188.500
0.970,370.000,-135.000,-71.000,-188.500
0.971,371.000,-135.000,-71.000,-188.500
0.972,372.000,-134.500,-71.000,-188.500
0.973,373.500,-134.500,-71.000,-188.500
0.974,374.500,-134.000,-70.500,-188.000
0.975,375.000,-133.500,-70.500,-188.000
0.976,376.000,-133.500,-70.500,-187.500
0.977,377.000,-133.500,-70.000,-187.000
0.978,377.500,-133.000,-70.000,-186.500
0.979,378.000,-132.500,-69.500,-186.500
0.980,377.500,-132.500,-69.500,-186.000
0.981,377.000,-132.000,-69.500,-186.000
0.982,377.000,-132.000,-69.500,-186.000
0.983,377.000,-132.000,-69.000,-186.000
0.984,378.000,-132.000,-69.000,-186.500
0.985,379.000,-132.000,-69.000,-186.500
0.986,379.500,-132.000,-69.000,-186.500
0.987,379.000,-132.500,-69.000,-186.500
0.988,377.500,-133.000,-69.000,-186.500
0.989,376.000,-133.000,-69.500,-186.500
0.990,375.000,-133.000,-69.500,-186.500
0.991,374.000,-133.500,-70.000,-186.500
0.992,374.000,-133.500,-70.000,-187.000
0.993,374.000,-133.500,-70.000,-186.500
0.994,374.000,-133.500,-70.000,-186.500
0.995,375.500,-133.000,-70.000,-186.500
0.996,377.000,-132.500,-69.500,-186.000
0.997,378.500,-132.000,-69.000,-186.000
0.998,379.500,-131.500,-69.000,-185.500
0.999,380.000,-131.000,-68.500,-185.000
1.000,380.500,-130.500,-68.000,-185.000
1.001,381.000,-130.500,-68.000,-184.500
1.002,382.000,-130.000,-68.000,-184.500
1.003,383.000,-129.500,-68.000,-184.000
1.004,384.000,-129.000,-67.500,-184.000
1.005,384.500,-128.500,-67.000,-184.000
1.006,385.000,-128.500,-66.500,-183.500
1.007,385.000,-128.000,-66.000,-183.500
1.008,385.500,-128.000,-66.000,-183.500
1.009,385.500,-128.000,-65.500,-183.500
1.010,384.500,-127.500,-65.500,-184.000
1.011,383.000,-127.500,-65.500,-184.000
1.012,381.500,-127.500,-66.000,-184.500
1.013,380.000,-127.500,-66.000,-184.500
1.014,379.000,-127.500,-66.000,-184.500
1.015,378.500,-127.500,-66.000,-184.500
1.016,378.000,-127.000,-66.000,-184.000
1.017,376.000,-127.000,-66.000,-183.500
1.018,374.000,-127.000,-65.500,-183.000
1.019,371.500,-126.500,-65.500,-182.500
1.020,371.000,-126.500,-65.500,-182.000
1.021,371.500,-126.000,-65.500,-181.500
1.022,373.000,-126.000,-65.500,-181.500
1.023,373.500,-126.000,-65.500,-181.500
1.024,372.500,-126.000,-65.500,-181.500
1.025,370.500,-126.500,-65.500,-182.000
1.026,369.000,-127.000,-66.000,-182.500
1.027,368.500,-127.000,-66.000,-183.000
1.028,369.000,-127.500,-66.500,-183.500
1.029,370.000,-127.500,-66.500,-183.500
1.030,371.000,-127.500,-66.500,-184.000
1.031,372.500,-127.500,-66.500,-184.000
1.032,373.500,-127.500,-66.500,-184.000
1.033,375.000,-127.500,-66.500,-183.500
1.034,375.500,-127.500,-66.500,-183.500
1.035,376.500,-127.500,-66.500,-183.500
1.036,377.000,-127.500,-66.500,-183.500
1.037,377.000,-128.000,-66.500,-183.500
1.038,376.500,-128.000,-67.000,-183.000
1.039,375.000,-128.000,-67.000,-183.000
1.040,373.500,-127.500,-67.000,-183.000
1.041,372.500,-127.500,-67.000,-183.000
1.042,372.500,-127.500,-67.000,-183.000
1.043,373.000,-127.500,-67.000,-183.000
1.044,373.500,-127.500,-67.500,-183.000
1.045,373.500,-128.000,-68.000,-183.000
1.046,374.000,-128.500,-68.500,-184.000
1.047,375.000,-129.500,-69.000,-185.000
1.048,376.000,-130.000,-70.000,-186.500
1.049,376.500,-131.000,-71.000,-188.000
1.050,376.500,-131.500,-72.000,-189.500
1.051,375.500,-132.000,-73.000,-190.500
1.052,373.500,-132.500,-73.500,-191.500
1.053,371.000,-132.500,-74.000,-192.000
1.054,369.500,-132.500,-74.500,-192.000
1.055,368.500,-132.500,-74.000,-192.000
1.056,369.000,-132.500,-74.000,-191.000
1.057,370.000,-132.000,-73.500,-190.500
1.058,371.000,-132.000,-72.500,-189.500
1.059,372.500,-131.500,-72.000,-188.000
1.060,372.500,-131.500,-71.000,-187.000
1.061,372.000,-131.500,-70.500,-185.500
1.062,369.500,-131.000,-70.000,-184.500
1.063,366.000,-131.000,-68.500,-182.500
1.064,362.000,-130.500,-67.000,-180.500
1.065,358.500,-130.000,-65.500,-178.000
1.066,357.500,-129.500,-63.500,-175.500
1.067,357.500,-129.500,-61.500,-172.500
1.068,359.000,-129.000,-59.500,-169.500
1.069,361.500,-129.000,-57.500,-166.500
1.070,364.000,-128.500,-55.500,-164.000
1.071,366.000,-128.000,-54.000,-161.500
1.072,368.500,-127.500,-52.500,-159.500
1.073,370.500,-127.000,-51.500,-157.500
1.074,373.000,-127.000,-51.000,-155.500
1.075,374.500,-127.000,-50.500,-154.500
1.076,375.000,-127.000,-50.000,-153.500
1.077,375.000,-127.000,-50.000,-153.000
1.078,374.000,-127.000,-50.500,-153.000
1.079,373.000,-127.500,-51.000,-154.000
1.080,371.000,-127.500,-52.500,-156.000
1.081,369.500,-128.000,-54.000,-158.500
1.082,368.500,-128.500,-56.000,-161.500
1.083,368.500,-128.500,-58.000,-165.000
1.084,369.000,-128.000,-60.000,-168.500
1.085,370.500,-127.500,-61.500,-171.500
1.086,371.000,-126.500,-63.000,-174.500
1.087,370.500,-125.500,-63.500,-176.500
1.088,369.000,-125.000,-64.000,-178.000
1.089,367.500,-124.000,-64.000,-178.500
1.090,367.000,-123.000,-63.500,-178.500
1.091,367.000,-122.000,-63.000,-178.000
1.092,367.500,-120.500,-62.500,-177.500
1.093,369.500,-119.500,-61.500,-176.500
1.094,371.500,-118.000,-60.500,-176.000
1.095,374.000,-117.500,-60.000,-175.500
1.096,374.500,-117.000,-59.500,-175.000
1.097,374.500,-116.500,-59.500,-175.000
1.098,373.500,-117.000,-59.500,-175.500
1.099,373.000,-117.000,-60.000,-175.500
1.100,373.000,-117.500,-60.500,-176.000
1.101,373.000,-118.500,-61.000,-176.000
1.102,372.500,-119.000,-61.500,-176.500
1.103,373.000,-119.500,-61.500,-176.500
1.104,373.500,-120.000,-62.000,-177.000
1.105,374.500,-121.000,-62.500,-178.000
1.106,376.500,-121.500,-63.000,-179.000
1.107,378.500,-122.500,-64.000,-179.500
1.108,380.000,-123.500,-64.500,-180.500
1.109,381.000,-124.000,-65.500,-181.000
1.110,381.000,-124.500,-66.000,-181.500
1.111,380.000,-124.500,-66.500,-181.500
1.112,378.500,-125.000,-67.000,-182.000
1.113,376.500,-125.500,-67.500,-182.000
1.114,375.500,-126.000,-67.500,-182.000
1.115,374.500,-126.000,-68.000,-182.000
1.116,374.000,-126.500,-68.000,-182.000
1.117,373.500,-126.500,-68.500,-182.000
1.118,373.500,-126.000,-68.500,-182.000
1.119,374.000,-126.000,-68.000,-182.000
1.120,373.500,-125.500,-68.000,-181.500
1.121,372.500,-125.000,-67.500,-181.500
1.122,371.500,-125.000,-67.500,-181.000
1.123,371.000,-125.000,-67.500,-181.000
1.124,372.000,-125.500,-68.000,-181.500
1.125,374.000,-126.000,-68.000,-181.500
1.126,376.000,-126.000,-68.500,-182.000
1.127,377.500,-126.500,-69.000,-182.500
1.128,377.500,-127.000,-69.500,-183.000
1.129,376.500,-127.000,-69.500,-183.500
1.130,373.500,-127.000,-69.500,-183.500
1.131,370.000,-127.000,-69.500,-184.000
1.132,367.000,-127.000,-69.500,-184.000
1.133,364.500,-127.000,-69.500,-183.500
1.134,363.000,-127.000,-69.000,-183.500
1.135,361.500,-127.000,-69.000,-183.000
1.136,361.500,-127.000,-69.000,-182.500
1.137,362.000,-127.000,-69.000,-182.500
1.138,363.500,-127.000,-69.000,-182.000
1.139,365.000,-127.000,-69.000,-182.000
1.140,365.500,-127.000,-68.500,-181.500
1.141,366.000,-127.000,-68.500,-181.500
1.142,365.500,-127.000,-68.000,-181.500
1.143,366.000,-127.000,-68.000,-181.500
1.144,367.500,-126.500,-68.000,-181.500
1.145,369.500,-127.000,-68.000,-182.000
1.146,371.000,-127.000,-68.000,-182.000
1.147,372.000,-127.000,-68.000,-182.000
1.148,372.500,-126.500,-68.000,-182.500
1.149,372.500,-126.500,-68.000,-182.500
1.150,371.500,-126.500,-68.000,-183.000
1.151,370.500,-126.500,-68.000,-183.000
1.152,369.500,-126.500,-68.000,-183.000
1.153,368.500,-126.000,-67.500,-183.000
1.154,367.000,-126.000,-67.500,-182.500
1.155,365.500,-125.500,-67.000,-182.000
1.156,364.500,-124.500,-66.500,-181.500
1.157,364.500,-124.000,-66.000,-181.000
1.158,365.500,-124.000,-65.500,-180.500
1.159,367.000,-124.000,-65.500,-180.000
1.160,367.500,-124.000,-65.500,-180.000
1.161,367.500,-124.000,-65.500,-179.500
1.162,367.000,-123.500,-65.000,-179.500
1.163,365.000,-123.500,-65.000,-179.500
1.164,363.500,-123.000,-64.500,-179.000
1.165,362.000,-122.500,-63.500,-179.000
1.166,362.000,-122.500,-63.500,-178.500
1.167,363.000,-123.000,-63.500,-178.500
1.168,364.500,-123.000,-63.500,-179.000
1.169,365.500,-123.500,-64.000,-179.000
1.170,366.000,-123.500,-64.000,-179.000
1.171,366.500,-123.500,-64.500,-179.500
1.172,366.500,-123.000,-64.500,-179.500
1.173,365.500,-123.000,-64.500,-179.500
1.174,364.000,-122.500,-64.500,-179.000
1.175,362.500,-122.500,-64.500,-179.000
1.176,361.500,-122.000,-64.500,-178.500
1.177,361.000,-122.000,-64.500,-178.000
1.178,361.500,-121.500,-64.500,-177.500
1.179,363.000,-121.500,-64.000,-177.500
1.180,365.000,-121.000,-64.000,-177.500
1.181,367.500,-121.000,-64.000,-177.500
1.182,368.500,-121.000,-64.000,-177.500
1.183,368.000,-121.000,-64.500,-177.500
1.184,365.500,-121.500,-64.500,-178.000
1.185,363.500,-121.500,-65.000,-178.000
1.186,362.500,-121.500,-65.000,-178.500
1.187,362.000,-121.500,-65.000,-178.500
1.188,362.500,-121.500,-65.500,-178.500
1.189,363.500,-121.500,-65.500,-179.000
1.190,364.000,-121.500,-66.000,-179.000
1.191,364.000,-121.500,-66.000,-179.000
1.192,363.500,-121.000,-66.000,-179.000
1.193,363.500,-121.000,-65.500,-179.000
1.194,363.000,-121.000,-65.500,-179.000
1.195,363.000,-120.500,-65.000,-178.500
1.196,363.000,-120.000,-64.500,-178.000
1.197,363.000,-119.000,-63.500,-177.000
1.198,363.000,-118.500,-62.500,-176.000
1.199,364.000,-117.500,-62.000,-175.500
1.200,365.500,-117.500,-61.500,-175.000
1.201,367.500,-117.000,-61.500,-174.500
1.202,369.000,-117.000,-61.500,-174.500
1.203,370.500,-117.000,-61.500,-175.000
1.204,371.500,-117.000,-61.500,-175.000
1.205,372.500,-117.000,-61.500,-175.000
1.206,372.500,-117.500,-61.500,-175.500
1.207,370.000,-117.500,-61.500,-176.000
1.208,366.000,-118.000,-62.000,-176.500
1.209,362.000,-118.000,-62.000,-176.500
1.210,358.000,-118.000,-62.000,-177.000
1.211,356.500,-118.500,-62.500,-177.000
1.212,356.500,-118.500,-63.000,-177.000
1.213,358.500,-118.500,-63.000,-177.500
1.214,362.000,-118.500,-63.500,-177.500
1.215,365.000,-118.500,-63.500,-177.500
1.216,367.000,-118.500,-63.500,-177.000
1.217,368.000,-118.500,-63.500,-177.000
1.218,368.000,-118.500,-63.000,-177.000
1.219,367.500,-118.500,-63.000,-176.500
1.220,367.000,-118.500,-63.000,-176.500
1.221,366.500,-118.000,-63.000,-176.500
1.222,366.000,-118.000,-62.500,-176.500
1.223,365.000,-118.000,-62.500,-176.500
1.224,365.000,-118.000,-62.500,-176.500
1.225,365.000,-118.000,-62.000,-176.500
1.226,365.000,-117.500,-62.000,-176.500
1.227,365.000,-117.500,-61.500,-176.500
1.228,365.000,-117.500,-61.500,-176.500
1.229,365.500,-118.000,-61.500,-176.500
1.230,366.000,-118.000,-61.500,-176.500
1.231,366.000,-118.000,-61.000,-176.500
1.232,365.500,-118.000,-61.000,-176.000
1.233,365.000,-118.000,-61.000,-176.000
1.234,364.000,-117.500,-61.000,-176.000
1.235,363.000,-117.000,-61.000,-176.000
1.236,362.000,-116.500,-60.500,-175.500
1.237,361.500,-116.000,-60.500,-175.000
1.238,362.000,-115.500,-60.000,-174.500
1.239,363.500,-115.500,-60.000,-174.000
1.240,365.000,-115.000,-60.000,-173.500
1.241,365.500,-115.000,-59.500,-173.000
1.242,365.500,-115.000,-60.000,-173.000
1.243,364.000,-115.000,-60.000,-173.000
1.244,362.500,-115.500,-60.000,-173.000
1.245,361.500,-116.000,-60.500,-173.500
1.246,361.000,-116.500,-61.000,-174.000
1.247,361.500,-117.000,-61.000,-174.500
1.248,362.500,-117.500,-61.500,-175.000
1.249,363.000,-117.500,-61.500,-175.500
1.250,362.500,-118.000,-62.000,-176.000
1.251,361.500,-118.000,-62.500,-176.500
1.252,359.500,-118.000,-62.500,-176.500
1.253,358.500,-118.500,-62.500,-176.500
1.254,359.000,-118.500,-62.500,-176.500
1.255,361.000,-118.000,-63.000,-176.500
1.256,364.000,-118.000,-63.000,-176.000
1.257,365.500,-118.000,-63.000,-176.000
1.258,366.500,-118.500,-63.000,-175.500
1.259,366.500,-118.000,-62.500,-175.500
1.260,366.000,-118.000,-62.500,-175.000
1.261,365.500,-118.000,-62.500,-175.000
1.262,365.000,-118.000,-62.500,-175.500
1.263,365.500,-118.000,-62.500,-175.500
1.264,366.000,-118.000,-62.500,-176.000
1.265,367.000,-118.500,-62.500,-176.000
1.266,367.500,-118.500,-62.500,-176.000
1.267,367.500,-119.000,-62.500,-176.000
1.268,366.000,-119.000,-63.000,-176.000
1.269,364.500,-119.000,-63.000,-176.000
1.270,362.000,-119.500,-63.000,-176.500
1.271,360.000,-119.500,-63.000,-176.500
1.272,358.000,-119.000,-63.000,-176.500
1.273,356.500,-119.000,-63.000,-176.500
1.274,356.000,-119.000,-62.500,-176.000
1.275,355.000,-118.500,-62.500,-175.500
1.276,355.000,-118.500,-62.000,-175.500
1.277,354.500,-118.500,-62.000,-175.000
1.278,354.000,-118.500,-61.500,-174.500
1.279,353.500,-118.000,-61.500,-174.000
1.280,353.000,-117.500,-61.000,-174.000
1.281,352.500,-117.000,-61.000,-173.500
1.282,352.000,-117.000,-60.500,-173.000
1.283,352.000,-116.500,-60.000,-173.000
1.284,352.000,-117.000,-60.000,-173.000
1.285,351.500,-117.500,-60.000,-173.000
1.286,351.000,-118.000,-60.000,-173.500
1.287,350.000,-118.000,-60.000,-174.000
1.288,350.000,-118.500,-60.500,-174.000
1.289,349.500,-119.000,-60.500,-174.500
1.290,349.000,-119.000,-61.000,-174.500
1.291,348.500,-118.500,-60.500,-174.000
1.292,348.500,-118.000,-60.000,-174.000
1.293,349.500,-117.500,-59.500,-173.500
1.294,351.000,-117.000,-59.000,-173.500
1.295,353.000,-116.500,-58.500,-173.000
1.296,355.000,-116.000,-58.500,-173.000
1.297,357.000,-116.000,-58.000,-173.000
1.298,358.500,-115.500,-58.000,-173.000
1.299,359.500,-115.500,-57.500,-172.500
1.300,360.500,-115.500,-57.500,-173.000
1.301,360.500,-115.500,-57.000,-173.000
1.302,360.000,-115.500,-57.000,-173.000
1.303,359.500,-115.500,-56.500,-172.500
1.304,359.500,-115.500,-56.500,-172.000
1.305,360.000,-115.500,-56.000,-171.000
1.306,360.500,-115.500,-56.000,-170.500
1.307,361.000,-115.500,-55.500,-170.500
1.308,360.500,-115.500,-55.500,-170.000
1.309,360.000,-115.500,-55.500,-170.000
1.310,358.500,-115.500,-55.500,-170.000
1.311,357.000,-115.500,-55.500,-169.500
1.312,356.000,-115.000,-56.000,-169.500
1.313,355.500,-115.000,-56.000,-169.000
1.314,356.500,-114.500,-55.500,-168.000
1.315,358.000,-114.500,-55.500,-167.000
1.316,359.500,-114.500,-55.000,-166.000
1.317,361.000,-114.000,-54.500,-165.000
1.318,361.500,-113.500,-53.500,-164.000
1.319,362.500,-113.000,-52.500,-163.500
1.320,362.500,-112.500,-52.000,-163.500
1.321,362.500,-112.000,-51.500,-163.500
1.322,361.500,-112.000,-51.000,-163.500
1.323,360.000,-112.000,-50.500,-164.000
1.324,357.500,-112.000,-50.000,-164.000
1.325,356.000,-112.000,-50.000,-164.000
1.326,356.000,-112.000,-49.500,-163.500
1.327,357.000,-112.000,-49.500,-163.000
1.328,359.500,-112.000,-49.500,-162.500
1.329,361.500,-111.500,-49.500,-162.000
1.330,363.000,-111.500,-49.000,-161.500
1.331,363.000,-111.000,-49.000,-161.000
1.332,361.500,-110.500,-49.000,-160.500
1.333,359.000,-110.500,-48.500,-160.000
1.334,356.500,-110.000,-48.500,-159.500
1.335,355.500,-109.500,-49.000,-159.500
1.336,355.500,-109.500,-49.000,-159.000
1.337,356.500,-109.500,-49.000,-159.000
1.338,358.500,-109.500,-49.000,-158.500
1.339,360.500,-109.500,-49.000,-158.000
1.340,362.000,-109.500,-48.500,-157.500
1.341,362.500,-110.000,-48.500,-157.500
1.342,362.500,-109.500,-48.500,-157.500
1.343,362.000,-109.500,-48.500,-157.500
1.344,361.500,-109.500,-48.500,-158.000
1.345,360.500,-110.000,-48.500,-158.500
1.346,360.000,-110.000,-49.000,-159.500
1.347,360.000,-110.000,-49.000,-160.000
1.348,361.500,-110.000,-49.500,-160.500
1.349,364.000,-110.500,-49.500,-161.500
1.350,365.000,-110.500,-50.000,-162.000
1.351,364.000,-111.000,-50.500,-162.000
1.352,361.000,-111.000,-51.000,-162.500
1.353,357.500,-111.000,-51.000,-163.000
1.354,354.500,-110.500,-51.000,-163.000
1.355,352.000,-110.000,-51.000,-163.500
1.356,350.500,-109.500,-51.000,-163.000
1.357,349.500,-109.000,-50.500,-163.000
1.358,349.000,-108.000,-50.000,-163.000
1.359,349.500,-108.000,-50.000,-162.500
1.360,350.000,-108.000,-50.000,-162.500
1.361,350.500,-108.000,-50.000,-162.500
1.362,351.000,-108.000,-50.500,-163.000
1.363,351.000,-108.500,-51.000,-163.500
1.364,351.000,-109.000,-51.500,-164.500
1.365,350.000,-110.000,-52.500,-165.500
1.366,348.000,-111.000,-53.500,-166.500
1.367,346.500,-111.500,-54.000,-167.500
1.368,345.000,-112.500,-55.000,-168.500
1.369,344.000,-113.000,-56.000,-169.000
1.370,344.000,-114.000,-56.500,-170.000
1.371,344.500,-114.000,-57.500,-170.500
1.372,344.500,-114.500,-58.000,-171.000
1.373,344.000,-115.000,-58.500,-171.500
1.374,343.000,-115.500,-59.000,-172.000
1.375,342.000,-116.500,-59.500,-172.500
1.376,341.500,-117.000,-60.000,-172.500
1.377,342.000,-117.500,-60.000,-172.500
1.378,343.000,-117.500,-60.000,-172.500
1.379,344.000,-117.500,-59.500,-172.000
1.380,344.500,-117.000,-59.000,-172.000
1.381,345.000,-116.500,-58.500,-171.500
1.382,345.000,-115.000,-57.500,-171.500
1.383,345.000,-114.000,-57.000,-171.000
1.384,344.500,-112.500,-56.500,-171.000
1.385,344.000,-111.500,-56.000,-171.500
1.386,344.500,-110.500,-56.000,-171.500
1.387,345.000,-110.500,-56.000,-171.500
1.388,345.000,-110.000,-56.000,-172.000
1.389,346.000,-110.000,-56.000,-172.500
1.390,347.000,-110.000,-56.000,-172.500
1.391,348.000,-110.000,-56.000,-173.000
1.392,348.000,-110.500,-56.500,-173.500
1.393,347.000,-110.500,-57.000,-174.000
1.394,345.500,-111.000,-57.500,-174.500
1.395,343.500,-112.000,-58.000,-175.000
1.396,341.500,-112.500,-58.500,-175.000
1.397,340.000,-112.500,-59.000,-175.500
1.398,339.500,-112.500,-59.500,-175.500
1.399,341.000,-112.500,-59.500,-175.500
1.400,342.500,-112.000,-59.500,-175.500
1.401,344.000,-111.500,-59.000,-175.500
1.402,344.000,-111.500,-59.000,-175.500
1.403,342.500,-111.000,-59.000,-175.500
1.404,341.500,-111.000,-58.500,-176.000
1.405,340.000,-111.000,-58.500,-176.000
1.406,339.000,-111.500,-59.000,-177.000
1.407,338.000,-112.000,-59.500,-177.500
1.408,336.500,-112.500,-60.000,-178.000
1.409,335.500,-112.500,-60.500,-178.500
1.410,334.500,-113.000,-61.000,-179.000
1.411,334.500,-113.000,-61.000,-179.000
1.412,335.500,-113.000,-61.500,-179.000
1.413,337.000,-113.000,-61.500,-179.500
1.414,338.000,-113.000,-61.500,-179.000
1.415,338.500,-113.000,-61.500,-179.000
1.416,338.000,-112.500,-61.500,-179.000
1.417,337.500,-112.500,-61.500,-178.500
1.418,336.500,-112.500,-61.500,-178.000
1.419,335.000,-112.500,-61.500,-177.500
1.420,333.500,-112.500,-61.500,-177.500
1.421,332.000,-112.500,-61.500,-177.500
1.422,332.000,-112.500,-61.500,-177.500
1.423,333.000,-112.500,-61.500,-177.500
1.424,335.000,-112.500,-61.500,-177.500
1.425,336.500,-112.500,-61.500,-177.500
1.426,337.000,-112.500,-61.000,-177.500
1.427,336.500,-112.500,-61.500,-177.500
1.428,336.000,-112.500,-61.500,-178.000
1.429,335.500,-112.500,-61.500,-178.000
1.430,335.000,-112.000,-62.000,-178.500
1.431,334.500,-112.000,-62.000,-178.500
1.432,335.000,-111.500,-61.500,-178.500
1.433,336.000,-111.000,-61.500,-178.000
1.434,338.000,-110.500,-61.000,-177.500
1.435,340.000,-110.500,-60.500,-177.000
1.436,341.000,-110.000,-60.500,-176.500
1.437,341.500,-109.500,-60.000,-176.000
1.438,341.000,-108.500,-59.000,-175.500
1.439,339.500,-108.000,-58.500,-174.500
1.440,338.000,-107.500,-58.000,-174.000
1.441,336.000,-107.000,-57.000,-173.500
1.442,334.500,-107.000,-57.000,-173.500
1.443,333.000,-107.000,-56.500,-174.000
1.444,332.500,-107.000,-56.500,-174.000
1.445,332.000,-107.000,-56.500,-174.000
1.446,332.000,-107.000,-56.500,-174.500
1.447,332.000,-107.500,-57.000,-174.500
1.448,332.000,-107.500,-57.000,-175.000
1.449,332.500,-108.000,-57.000,-175.000
1.450,333.000,-108.000,-57.500,-175.500
1.451,333.000,-108.500,-57.500,-175.500
1.452,333.000,-108.500,-57.500,-175.500
1.453,332.000,-108.500,-57.500,-175.500
1.454,330.000,-108.500,-57.500,-175.500
1.455,327.500,-108.000,-57.500,-175.500
1.456,326.000,-108.000,-57.500,-175.000
1.457,325.500,-108.000,-58.000,-175.000
1.458,326.000,-108.500,-58.000,-175.000
1.459,327.000,-108.000,-58.500,-175.000
1.460,328.000,-108.000,-58.500,-175.500
1.461,328.000,-108.000,-58.000,-175.500
1.462,328.500,-108.000,-58.000,-175.500
1.463,328.500,-108.000,-58.000,-175.500
1.464,328.500,-108.500,-58.500,-175.500
1.465,328.000,-108.500,-58.500,-175.500
1.466,328.000,-109.000,-59.000,-176.000
1.467,328.000,-109.000,-59.500,-176.000
1.468,328.500,-109.500,-59.500,-176.500
1.469,328.500,-109.500,-60.000,-176.500
1.470,328.500,-109.500,-60.500,-176.500
1.471,327.500,-109.500,-60.500,-176.500
1.472,327.000,-109.000,-60.500,-177.000
1.473,326.000,-109.000,-60.000,-177.000
1.474,326.500,-109.000,-60.000,-177.000
1.475,328.500,-109.000,-59.500,-177.000
1.476,330.000,-108.500,-59.500,-177.000
1.477,331.000,-108.500,-59.000,-176.500
1.478,330.000,-108.000,-59.000,-176.500
1.479,328.000,-107.500,-59.000,-176.000
1.480,326.500,-107.000,-58.500,-175.500
1.481,325.500,-107.000,-58.500,-175.500
1.482,325.000,-107.000,-58.500,-175.500
1.483,325.500,-107.000,-58.500,-175.500
1.484,326.000,-107.500,-58.500,-175.500
1.485,327.500,-107.500,-58.500,-176.000
1.486,329.000,-107.500,-58.500,-176.000
1.487,330.000,-108.000,-58.500,-176.500
1.488,330.500,-108.000,-58.500,-176.500
1.489,331.000,-108.500,-58.500,-176.500
1.490,330.500,-108.500,-58.500,-177.000
1.491,329.000,-109.000,-58.500,-177.000
1.492,327.500,-108.500,-58.500,-177.000
1.493,325.500,-108.500,-58.500,-177.000
1.494,324.500,-108.000,-58.500,-177.000
1.495,324.500,-108.000,-58.500,-177.000
1.496,325.500,-108.000,-58.500,-176.500
1.497,327.000,-108.000,-58.500,-176.500
1.498,328.500,-108.000,-58.500,-176.500
1.499,330.500,-108.000,-59.000,-176.000
1.500,332.000,-108.500,-59.000,-176.500
1.501,333.000,-109.000,-59.500,-176.500
1.502,332.500,-109.000,-59.500,-177.000
1.503,332.500,-109.500,-60.000,-177.000
1.504,332.500,-110.000,-60.000,-177.500
1.505,333.500,-110.500,-60.000,-177.500
1.506,334.000,-111.000,-60.500,-178.000
1.507,334.000,-111.500,-60.500,-178.500
1.508,334.000,-111.500,-61.000,-178.500
1.509,334.000,-112.000,-61.000,-179.000
1.510,335.000,-112.000,-61.500,-179.000
1.511,336.000,-112.500,-61.500,-179.500
1.512,338.500,-112.500,-62.000,-179.500
1.513,342.000,-112.000,-62.000,-179.500
1.514,346.000,-112.000,-62.000,-179.500
1.515,349.500,-111.500,-62.500,-179.500
1.516,351.500,-111.000,-62.500,-179.500
1.517,352.000,-111.000,-62.500,-179.500
1.518,350.500,-110.500,-62.500,-179.000
1.519,348.000,-110.000,-62.000,-179.000
1.520,345.000,-110.000,-62.000,-179.000
1.521,341.500,-110.000,-61.500,-178.500
1.522,338.000,-110.000,-61.000,-178.500
1.523,335.500,-110.000,-61.000,-178.500
1.524,333.500,-110.000,-60.500,-178.500
1.525,331.000,-110.000,-60.000,-178.500
1.526,329.000,-110.000,-60.000,-178.500
1.527,327.500,-110.000,-60.000,-179.000
1.528,326.000,-110.000,-60.000,-179.000
1.529,325.500,-110.500,-60.000,-179.500
1.530,325.500,-110.500,-60.000,-179.500
1.531,325.500,-110.500,-60.500,-180.000
1.532,326.000,-111.000,-60.500,-180.000
1.533,327.500,-111.000,-61.000,-180.000
1.534,330.500,-111.000,-61.000,-180.000
1.535,334.000,-110.500,-61.000,-179.500
1.536,337.500,-110.500,-60.500,-179.500
1.537,339.500,-110.000,-60.500,-179.000
1.538,341.500,-110.000,-60.000,-179.000
1.539,342.500,-109.500,-60.000,-178.500
1.540,343.500,-109.000,-59.500,-178.000
1.541,344.500,-108.500,-59.500,-177.500
1.542,344.000,-108.500,-59.000,-177.500
1.543,341.500,-108.000,-59.000,-177.000
1.544,338.500,-108.000,-59.000,-177.000
1.545,334.500,-108.500,-59.000,-177.000
1.546,331.000,-108.500,-59.000,-177.000
1.547,328.500,-108.500,-59.000,-177.500
1.548,327.500,-108.500,-58.500,-177.500
1.549,328.000,-108.500,-58.500,-178.000
1.550,329.500,-108.500,-58.500,-178.000
1.551,330.500,-108.500,-58.000,-178.000
1.552,332.000,-108.000,-58.000,-178.000
1.553,334.000,-107.500,-57.500,-177.500
1.554,336.500,-107.000,-57.500,-177.500
1.555,339.000,-107.000,-57.500,-177.000
1.556,340.000,-106.500,-57.000,-176.500
1.557,339.500,-106.500,-57.000,-176.000
1.558,338.000,-106.500,-56.500,-175.500
1.559,336.000,-106.000,-56.500,-175.000
1.560,334.500,-106.000,-56.000,-174.500
1.561,333.500,-106.000,-56.000,-174.500
1.562,333.000,-106.000,-56.000,-174.500
1.563,332.500,-106.000,-56.000,-174.500
1.564,331.500,-106.000,-56.000,-174.500
1.565,330.000,-106.000,-56.500,-175.000
1.566,328.500,-106.000,-56.500,-175.500
1.567,327.500,-106.500,-57.000,-175.500
1.568,327.000,-107.000,-57.500,-176.000
1.569,327.500,-107.000,-58.000,-176.000
1.570,328.500,-107.500,-58.000,-176.000
1.571,331.000,-107.500,-58.000,-176.000
1.572,334.500,-107.500,-58.000,-176.000
1.573,337.000,-107.000,-58.000,-175.500
1.574,338.500,-107.000,-58.500,-175.500
1.575,338.500,-107.000,-58.500,-175.500
1.576,338.000,-106.500,-58.500,-175.000
1.577,337.500,-106.000,-58.000,-175.000
1.578,336.500,-105.500,-57.500,-174.500
1.579,334.500,-105.000,-57.000,-174.000
1.580,332.500,-105.000,-56.500,-173.500
1.581,331.000,-104.500,-56.000,-173.500
1.582,330.000,-104.500,-56.000,-173.000
1.583,329.000,-104.500,-55.500,-173.000
1.584,328.500,-105.000,-55.500,-173.000
1.585,327.500,-105.000,-56.000,-173.000
1.586,326.500,-105.000,-56.000,-173.000
1.587,326.000,-105.500,-56.000,-173.500
1.588,326.000,-106.000,-56.500,-174.000
1.589,326.500,-106.000,-56.000,-174.000
1.590,328.000,-106.000,-56.000,-174.500
1.591,329.500,-106.000,-56.000,-174.500
1.592,331.500,-106.000,-56.000,-174.500
1.593,333.000,-105.500,-56.000,-174.500
1.594,334.000,-105.500,-56.000,-174.500
1.595,334.500,-105.000,-56.000,-174.000
1.596,334.000,-105.000,-55.500,-174.000
1.597,333.500,-104.500,-55.500,-173.500
1.598,333.500,-104.000,-55.000,-173.000
1.599,333.500,-104.000,-55.000,-173.000
1.600,333.500,-103.500,-55.000,-172.500
1.601,333.000,-103.500,-54.500,-172.500
1.602,332.500,-103.000,-54.500,-172.500
1.603,331.500,-102.500,-54.000,-172.000
1.604,331.000,-102.500,-53.500,-172.000
1.605,331.500,-102.500,-53.500,-171.500
1.606,331.500,-102.500,-53.500,-171.500
1.607,330.500,-103.500,-54.000,-172.000
1.608,329.500,-103.500,-54.500,-172.000
1.609,328.500,-104.000,-54.500,-172.500
1.610,329.500,-104.500,-54.500,-172.500
1.611,331.500,-105.000,-55.000,-173.000
1.612,334.000,-105.000,-55.000,-173.000
1.613,336.000,-105.000,-55.500,-172.500
1.614,338.500,-105.000,-55.500,-172.500
1.615,340.500,-105.000,-55.500,-172.500
1.616,342.500,-104.500,-55.500,-172.500
1.617,343.000,-104.500,-55.500,-172.000
1.618,342.500,-104.500,-55.500,-172.000
1.619,341.500,-104.000,-55.000,-171.500
1.620,340.500,-104.000,-55.000,-171.500
1.621,338.500,-103.500,-54.500,-171.000
1.622,335.500,-103.500,-54.000,-170.500
1.623,332.500,-103.500,-54.000,-170.500
1.624,330.000,-103.500,-53.500,-170.500
1.625,328.500,-103.500,-54.000,-170.500
1.626,327.000,-103.500,-54.000,-171.000
1.627,326.500,-103.500,-54.000,-171.500
1.628,326.000,-103.500,-54.000,-171.500
1.629,325.500,-103.500,-54.000,-172.000
1.630,326.000,-103.500,-53.500,-172.000
1.631,326.000,-103.500,-53.500,-172.500
1.632,326.000,-103.000,-53.500,-172.500
1.633,326.000,-103.000,-53.500,-172.500
1.634,325.500,-102.500,-53.500,-172.500
1.635,325.500,-102.500,-53.500,-172.000
1.636,325.500,-102.000,-53.500,-171.500
1.637,325.000,-101.500,-53.000,-171.500
1.638,324.500,-101.000,-53.000,-171.000
1.639,324.500,-101.000,-52.500,-170.500
1.640,324.500,-100.500,-52.500,-170.000
1.641,326.000,-100.500,-52.500,-170.000
1.642,327.500,-100.000,-52.000,-169.500
1.643,329.000,-100.000,-51.500,-169.500
1.644,329.000,-100.000,-51.000,-169.500
1.645,329.000,-100.500,-50.500,-169.500
1.646,328.500,-101.000,-50.500,-170.000
1.647,327.500,-101.500,-50.500,-170.000
1.648,326.500,-101.500,-50.500,-170.000
1.649,325.000,-102.000,-50.500,-170.500
1.650,325.000,-102.000,-50.500,-170.500
1.651,325.500,-102.000,-50.500,-170.500
1.652,326.000,-102.000,-50.500,-170.000
1.653,326.500,-101.500,-50.500,-170.000
1.654,325.500,-101.500,-50.500,-170.000
1.655,323.500,-101.000,-50.500,-169.500
1.656,321.500,-101.000,-50.500,-169.000
1.657,320.000,-100.500,-50.000,-169.000
1.658,319.500,-100.500,-50.000,-168.500
1.659,319.500,-100.500,-50.000,-168.000
1.660,319.500,-100.500,-50.000,-168.000
1.661,320.000,-100.500,-50.000,-168.000
1.662,321.500,-101.000,-50.500,-168.000
1.663,323.500,-101.000,-50.500,-168.000
1.664,325.000,-101.000,-50.500,-168.000
1.665,326.000,-101.500,-50.500,-167.500
1.666,326.000,-101.500,-50.000,-167.500
1.667,324.500,-102.000,-50.000,-167.500
1.668,322.000,-102.000,-50.000,-167.500
1.669,319.500,-102.000,-50.500,-168.000
1.670,317.500,-102.000,-50.500,-168.000
1.671,316.500,-102.000,-51.000,-168.500
1.672,317.000,-102.500,-51.000,-168.500
1.673,317.500,-102.500,-51.000,-168.500
1.674,318.500,-102.000,-51.000,-168.500
1.675,318.500,-101.500,-51.000,-168.000
1.676,318.000,-101.000,-50.500,-167.500
1.677,317.000,-100.000,-50.000,-167.500
1.678,315.000,-99.500,-49.500,-167.000
1.679,312.500,-99.500,-49.000,-166.500
1.680,310.500,-99.000,-49.000,-166.500
1.681,309.000,-99.000,-49.000,-166.500
1.682,309.000,-99.500,-49.000,-166.500
1.683,310.500,-100.000,-49.000,-167.000
1.684,313.000,-100.500,-49.500,-167.000
1.685,315.500,-101.000,-50.000,-167.500
1.686,318.500,-101.500,-50.500,-168.000
1.687,321.000,-101.500,-50.500,-168.000
1.688,322.000,-101.500,-51.000,-168.000
1.689,322.500,-101.500,-51.000,-168.500
1.690,322.500,-101.500,-51.000,-168.500
1.691,323.000,-101.500,-51.000,-169.000
1.692,324.500,-101.500,-51.500,-169.000
1.693,325.500,-101.000,-51.500,-169.500
1.694,325.500,-101.000,-52.000,-169.500
1.695,324.000,-101.000,-52.000,-170.000
1.696,321.000,-101.000,-52.000,-170.000
1.697,319.000,-101.000,-52.000,-170.000
1.698,318.500,-101.000,-52.000,-169.500
1.699,320.000,-101.000,-51.500,-168.500
1.700,321.500,-101.000,-51.500,-168.000
1.701,322.000,-101.000,-51.000,-167.500
1.702,320.500,-100.500,-51.000,-167.500
1.703,318.500,-100.500,-50.500,-167.500
1.704,316.500,-100.500,-50.500,-167.500
1.705,315.000,-101.000,-50.000,-167.500
1.706,315.000,-101.000,-50.000,-167.500
1.707,316.500,-101.000,-50.000,-167.500
1.708,319.000,-101.000,-50.000,-167.500
1.709,322.000,-101.000,-50.000,-167.500
1.710,325.000,-101.000,-50.000,-167.500
1.711,327.500,-101.000,-50.500,-168.000
1.712,328.500,-101.500,-50.500,-168.000
1.713,328.000,-101.500,-50.500,-168.000
1.714,327.000,-101.500,-50.500,-168.000
1.715,325.500,-101.000,-50.500,-167.500
1.716,324.000,-100.500,-50.000,-167.000
1.717,322.500,-100.000,-49.500,-166.500
1.718,321.000,-99.500,-49.500,-166.000
1.719,320.000,-99.000,-49.000,-166.000
1.720,319.500,-99.000,-48.500,-165.500
1.721,320.000,-98.500,-48.000,-165.500
1.722,321.000,-98.500,-48.000,-165.000
1.723,322.000,-98.500,-47.500,-165.000
1.724,322.500,-98.500,-47.500,-165.000
1.725,323.000,-98.500,-47.500,-164.500
1.726,323.000,-98.500,-47.500,-164.500
1.727,323.000,-98.500,-47.500,-164.500
1.728,322.000,-98.500,-47.000,-164.500
1.729,321.000,-98.500,-47.000,-164.500
1.730,319.000,-99.000,-47.000,-164.500
1.731,317.000,-99.000,-47.000,-164.500
1.732,315.000,-99.000,-47.000,-164.500
1.733,313.500,-99.000,-47.000,-165.000
1.734,313.000,-99.000,-47.000,-165.000
1.735,313.000,-99.000,-47.000,-165.000
1.736,314.000,-98.500,-47.000,-165.000
1.737,315.000,-98.500,-47.000,-165.000
1.738,315.500,-98.500,-47.000,-165.000
1.739,315.500,-99.000,-47.500,-165.000
1.740,315.500,-99.000,-47.500,-165.000
1.741,315.000,-99.000,-48.000,-164.500
1.742,315.000,-99.000,-48.000,-164.500
1.743,315.500,-99.500,-48.000,-165.000
1.744,317.000,-99.500,-48.000,-165.000
1.745,319.500,-100.000,-48.000,-165.000
1.746,321.500,-100.500,-48.500,-165.500
1.747,324.000,-101.000,-48.500,-166.000
1.748,325.500,-101.000,-49.000,-166.500
1.749,326.500,-101.500,-49.500,-167.000
1.750,326.500,-102.000,-49.500,-167.500
1.751,326.500,-102.500,-50.000,-168.000
1.752,325.500,-102.500,-50.000,-168.000
1.753,324.000,-102.500,-50.000,-168.000
1.754,322.000,-102.500,-50.000,-168.000
1.755,321.500,-102.500,-50.000,-168.000
1.756,322.000,-102.500,-50.000,-168.000
1.757,323.500,-102.000,-50.000,-167.500
1.758,325.000,-101.500,-49.500,-167.000
1.759,325.500,-101.500,-49.000,-166.500
1.760,325.500,-101.000,-48.500,-166.000
1.761,324.000,-100.500,-48.500,-166.000
1.762,323.500,-100.500,-48.000,-166.000
1.763,323.500,-100.500,-48.000,-165.500
1.764,324.500,-100.500,-48.000,-165.500
1.765,324.500,-100.500,-47.500,-165.500
1.766,325.000,-100.500,-47.500,-165.500
1.767,324.500,-100.500,-47.000,-165.500
1.768,324.000,-100.500,-47.000,-165.500
1.769,322.500,-100.500,-47.000,-165.000
1.770,320.000,-100.500,-47.000,-165.000
1.771,316.500,-100.500,-47.000,-165.000
1.772,314.000,-100.500,-47.000,-165.000
1.773,312.500,-100.500,-47.000,-164.500
1.774,312.500,-100.500,-47.000,-164.000
1.775,312.500,-100.500,-47.000,-163.500
1.776,313.000,-100.000,-46.500,-163.000
1.777,313.500,-99.500,-45.500,-162.000
1.778,314.500,-99.000,-45.000,-161.000
1.779,315.500,-98.000,-44.500,-160.500
1.780,317.500,-98.000,-44.000,-160.000
1.781,319.500,-97.500,-44.000,-160.000
1.782,321.500,-98.000,-44.000,-160.000
1.783,322.500,-98.000,-44.500,-160.000
1.784,322.500,-98.000,-44.500,-160.000
1.785,321.000,-98.500,-45.000,-160.000
1.786,320.500,-98.500,-45.000,-160.500
1.787,320.000,-98.500,-45.000,-160.500
1.788,319.000,-98.500,-45.000,-161.000
1.789,317.500,-98.500,-44.500,-161.000
1.790,315.500,-99.000,-44.500,-161.000
1.791,313.500,-99.000,-44.500,-161.000
1.792,312.500,-99.000,-44.500,-160.500
1.793,313.000,-99.000,-44.500,-160.500
1.794,315.000,-98.500,-44.500,-160.000
1.795,317.500,-98.500,-44.500,-160.000
1.796,320.000,-99.000,-44.500,-159.500
1.797,322.500,-99.000,-44.500,-159.500
1.798,324.500,-99.000,-44.000,-159.000
1.799,325.000,-99.000,-44.000,-159.000
1.800,324.500,-99.000,-43.500,-158.500
1.801,323.500,-99.000,-43.500,-158.500
1.802,323.000,-99.000,-43.500,-159.000
1.803,323.500,-99.000,-43.500,-159.500
1.804,324.500,-99.000,-43.500,-159.500
1.805,326.500,-99.000,-44.000,-159.500
1.806,327.000,-99.000,-44.000,-159.500
1.807,327.000,-99.000,-44.000,-159.500
1.808,326.500,-99.500,-44.000,-159.500
1.809,325.500,-100.000,-44.000,-159.000
1.810,324.500,-100.000,-44.000,-159.000
1.811,324.000,-100.000,-44.000,-159.000
1.812,323.500,-100.000,-44.000,-159.000
1.813,323.000,-99.500,-44.000,-158.500
1.814,322.500,-99.500,-44.000,-158.500
1.815,322.000,-99.000,-43.500,-158.000
1.816,322.000,-98.500,-43.000,-158.000
1.817,323.000,-98.500,-43.000,-157.500
1.818,324.000,-98.500,-43.000,-157.500
1.819,326.000,-98.500,-43.000,-157.500
1.820,328.500,-98.000,-43.000,-157.500
1.821,331.000,-98.000,-42.500,-157.000
1.822,333.500,-98.000,-42.500,-157.000
1.823,334.000,-97.500,-42.500,-157.000
1.824,333.000,-97.500,-42.500,-157.000
1.825,331.000,-97.500,-42.500,-157.000
1.826,329.000,-98.000,-42.000,-157.000
1.827,327.500,-98.000,-42.000,-157.500
1.828,326.000,-98.500,-42.500,-157.500
1.829,325.000,-99.000,-42.500,-158.000
1.830,324.500,-99.000,-42.500,-158.000
1.831,325.500,-99.500,-42.500,-158.000
1.832,327.000,-99.500,-42.500,-158.000
1.833,329.000,-99.500,-42.500,-158.000
1.834,330.500,-99.500,-42.500,-158.000
1.835,331.500,-99.500,-42.500,-158.000
1.836,331.500,-99.500,-42.500,-157.500
1.837,330.500,-99.500,-42.500,-157.000
1.838,329.500,-99.500,-42.500,-156.500
1.839,328.500,-99.500,-42.000,-156.000
1.840,327.000,-99.000,-42.000,-155.500
1.841,325.500,-99.000,-41.500,-155.500
1.842,325.500,-99.000,-41.500,-155.000
1.843,326.000,-99.000,-41.500,-155.000
1.844,327.500,-99.000,-41.500,-155.000
1.845,329.500,-99.500,-41.500,-155.000
1.846,330.500,-99.500,-42.000,-155.000
1.847,331.500,-100.000,-42.000,-154.500
1.848,332.000,-100.500,-42.000,-154.500
1.849,332.000,-100.500,-42.500,-154.500
1.850,331.000,-101.000,-42.500,-154.500
1.851,328.500,-101.500,-43.000,-154.500
1.852,325.500,-101.500,-43.000,-154.500
1.853,323.000,-102.000,-43.500,-154.500
1.854,321.000,-102.500,-43.500,-155.000
1.855,319.500,-103.000,-44.000,-155.000
1.856,319.000,-103.500,-44.500,-155.000
1.857,319.000,-104.500,-45.000,-155.000
1.858,320.000,-105.000,-45.500,-155.000
1.859,320.500,-106.000,-46.000,-155.000
1.860,320.500,-107.000,-46.500,-155.000
1.861,320.000,-108.000,-47.000,-155.500
1.862,319.000,-108.500,-47.500,-155.500
1.863,318.000,-108.500,-47.500,-156.000
1.864,318.000,-108.500,-47.500,-156.000
1.865,318.500,-108.000,-47.000,-155.500
1.866,320.000,-107.500,-46.500,-155.500
1.867,322.000,-106.500,-45.500,-155.000
1.868,323.500,-105.000,-44.500,-154.500
1.869,323.000,-104.000,-43.500,-154.000
1.870,321.500,-103.000,-42.500,-153.000
1.871,320.000,-102.000,-42.000,-152.500
1.872,319.500,-101.500,-41.000,-152.500
1.873,320.000,-101.000,-41.000,-152.000
1.874,320.000,-101.000,-40.500,-152.000
1.875,319.500,-100.500,-40.000,-152.000
1.876,319.500,-101.000,-40.500,-152.000
1.877,320.500,-101.000,-40.500,-152.000
1.878,321.500,-101.000,-40.500,-152.000
1.879,323.500,-101.000,-41.000,-151.500
1.880,325.500,-101.500,-41.000,-151.500
1.881,327.500,-102.000,-41.500,-152.000
1.882,329.000,-102.000,-42.000,-152.500
1.883,329.500,-102.500,-43.000,-153.000
1.884,329.500,-103.500,-44.000,-154.000
1.885,329.500,-104.000,-45.000,-155.000
1.886,328.500,-105.500,-45.500,-156.000
1.887,328.000,-106.500,-46.500,-157.000
1.888,328.000,-107.500,-47.000,-158.000
1.889,328.000,-108.000,-47.000,-158.500
1.890,328.000,-108.500,-47.500,-158.500
1.891,328.500,-109.000,-47.000,-158.000
1.892,329.500,-109.000,-47.000,-157.500
1.893,331.000,-109.000,-46.500,-156.500
1.894,333.000,-109.000,-46.000,-155.500
1.895,334.000,-109.000,-45.500,-154.500
1.896,333.500,-109.000,-45.000,-153.000
1.897,332.000,-109.000,-44.000,-151.500
1.898,330.000,-108.500,-42.500,-149.500
1.899,327.500,-108.000,-41.000,-147.000
1.900,326.000,-107.000,-39.500,-144.500
1.901,325.000,-106.500,-37.500,-142.000
1.902,326.000,-106.000,-35.500,-139.000
1.903,327.000,-105.500,-33.500,-136.500
1.904,328.000,-105.000,-32.000,-133.500
1.905,328.000,-105.000,-30.000,-131.500
1.906,327.500,-104.500,-28.500,-129.000
1.907,326.000,-104.500,-27.000,-127.000
1.908,324.000,-104.500,-25.500,-125.000
1.909,322.500,-104.000,-24.000,-123.500
1.910,322.500,-104.000,-23.000,-122.500
1.911,324.000,-103.500,-22.500,-121.500
1.912,326.000,-103.500,-22.500,-121.500
1.913,328.500,-103.500,-22.500,-122.000
1.914,331.000,-104.000,-23.500,-123.000
1.915,332.000,-104.500,-25.000,-125.000
1.916,332.500,-105.000,-26.500,-127.500
1.917,332.500,-105.500,-28.500,-130.500
1.918,331.500,-105.500,-30.000,-133.500
1.919,330.500,-105.000,-32.000,-137.000
1.920,328.500,-104.000,-33.500,-140.000
1.921,326.500,-103.000,-34.500,-143.000
1.922,325.000,-102.500,-35.500,-145.000
1.923,324.500,-101.500,-36.000,-146.500
1.924,324.500,-101.000,-36.000,-147.000
1.925,325.000,-100.000,-35.500,-146.500
1.926,325.000,-99.500,-34.500,-146.000
1.927,324.500,-98.500,-34.000,-145.500
1.928,323.500,-98.000,-33.000,-145.000
1.929,323.000,-97.000,-32.000,-144.500
1.930,322.500,-96.500,-31.000,-144.000
1.931,323.000,-96.000,-30.500,-144.000
1.932,323.500,-96.000,-30.000,-144.000
1.933,324.000,-96.000,-30.000,-144.000
1.934,324.000,-96.000,-30.000,-144.000
1.935,323.500,-96.500,-31.000,-144.500
1.936,322.500,-97.000,-31.500,-145.000
1.937,321.500,-97.000,-32.000,-145.500
1.938,321.000,-97.500,-32.500,-146.000
1.939,321.500,-97.500,-33.000,-146.000
1.940,322.500,-98.000,-33.500,-146.500
1.941,324.500,-98.000,-33.500,-146.500
1.942,326.000,-98.500,-34.000,-147.000
1.943,327.000,-99.500,-34.500,-147.000
1.944,326.500,-100.000,-34.500,-147.500
1.945,326.500,-101.000,-35.000,-148.000
1.946,326.000,-102.000,-35.500,-148.500
1.947,325.500,-102.500,-36.000,-148.500
1.948,324.000,-103.500,-36.500,-149.000
1.949,322.500,-104.500,-37.000,-150.000
1.950,321.500,-105.000,-38.000,-150.500
1.951,321.500,-106.000,-38.500,-150.500
1.952,322.000,-106.500,-38.500,-151.000
1.953,323.000,-107.000,-38.500,-150.500
1.954,323.000,-107.000,-38.500,-150.500
1.955,322.500,-107.000,-38.000,-150.000
1.956,321.500,-107.000,-38.000,-150.000
1.957,321.000,-107.000,-37.500,-149.500
1.958,320.000,-107.000,-37.500,-149.500
1.959,319.000,-107.000,-37.500,-149.500
1.960,317.500,-107.000,-37.500,-149.000
1.961,316.500,-107.000,-38.000,-149.000
1.962,315.500,-107.000,-38.000,-149.500
1.963,316.000,-107.000,-38.000,-149.500
1.964,317.500,-107.500,-38.000,-149.500
1.965,319.000,-108.000,-38.000,-149.500
1.966,320.500,-108.500,-38.000,-149.500
1.967,322.500,-108.500,-38.000,-149.500
1.968,324.000,-109.000,-38.000,-149.500
1.969,324.500,-109.500,-38.000,-149.500
1.970,324.000,-109.500,-38.500,-150.000
1.971,322.500,-109.500,-38.500,-150.000
1.972,321.000,-109.500,-38.500,-150.500
1.973,319.500,-109.500,-39.000,-150.500
1.974,318.000,-109.000,-39.000,-150.500
1.975,317.500,-108.500,-39.000,-150.000
1.976,317.000,-108.000,-38.500,-149.500
1.977,317.000,-108.000,-38.500,-149.500
1.978,317.500,-107.500,-38.000,-148.500
1.979,318.000,-107.500,-37.500,-148.000
1.980,318.500,-107.500,-36.500,-147.500
1.981,319.500,-107.500,-36.000,-147.500
1.982,319.500,-107.500,-36.000,-147.000
1.983,319.000,-107.500,-36.000,-147.000
1.984,319.000,-107.500,-36.500,-147.500
1.985,319.500,-108.000,-37.000,-148.000
1.986,319.500,-108.500,-37.500,-148.500
1.987,319.500,-109.000,-38.000,-149.500
1.988,319.500,-109.500,-38.500,-150.000
1.989,320.000,-109.500,-38.500,-150.000
1.990,321.000,-109.500,-38.500,-150.500
1.991,322.000,-110.000,-38.500,-150.500
1.992,323.500,-110.000,-39.000,-150.500
1.993,325.000,-110.000,-39.000,-150.500
1.994,327.000,-110.000,-39.000,-150.000
1.995,328.500,-110.000,-39.500,-150.000
1.996,330.000,-110.000,-39.500,-149.500
1.997,331.000,-110.000,-39.000,-149.000
1.998,331.500,-109.500,-39.000,-148.500
1.999,332.000,-109.500,-39.000,-148.000
2.000,332.000,-109.500,-39.000,-148.000
2.001,332.000,-109.500,-38.500,-148.000
2.002,333.000,-110.000,-38.500,-148.000
2.003,334.000,-110.500,-39.000,-148.500
2.004,335.000,-111.000,-39.000,-149.000
2.005,335.000,-111.000,-39.500,-149.000
2.006,335.000,-111.500,-39.500,-149.500
2.007,335.500,-111.500,-40.000,-149.500
2.008,336.500,-112.000,-40.000,-150.000
2.009,337.500,-112.000,-40.000,-150.000
2.010,337.500,-112.000,-40.000,-150.000
2.011,335.500,-112.500,-40.500,-150.000
2.012,332.000,-112.500,-40.500,-150.000
2.013,328.500,-113.000,-40.500,-150.000
2.014,327.000,-113.000,-40.500,-149.500
2.015,328.500,-112.500,-40.500,-149.500
2.016,331.000,-112.000,-40.500,-149.000
2.017,335.000,-111.500,-40.000,-148.000
2.018,338.000,-111.000,-39.500,-147.500
2.019,339.000,-110.500,-38.500,-147.000
2.020,337.500,-110.500,-38.000,-146.500
2.021,334.500,-110.000,-37.500,-146.000
2.022,332.000,-110.000,-37.000,-146.000
2.023,330.000,-110.000,-37.000,-146.000
2.024,329.000,-110.000,-37.000,-146.000
2.025,329.000,-110.000,-37.000,-146.000
2.026,329.500,-110.000,-37.500,-146.500
2.027,331.500,-110.500,-38.000,-147.000
2.028,333.000,-111.000,-38.500,-147.000
2.029,334.000,-111.500,-39.000,-147.500
2.030,332.500,-111.500,-39.000,-147.500
2.031,330.000,-111.500,-39.500,-148.000
2.032,327.000,-112.000,-39.500,-148.000
2.033,324.500,-112.000,-40.000,-148.000
2.034,323.000,-112.000,-40.000,-147.500
2.035,323.000,-112.000,-40.000,-147.500
2.036,324.000,-112.000,-39.500,-147.500
2.037,325.500,-112.000,-39.500,-147.000
2.038,327.500,-111.500,-39.000,-146.500
2.039,329.000,-111.500,-38.500,-145.500
2.040,329.000,-111.000,-38.500,-145.000
2.041,328.000,-110.500,-38.000,-145.000
2.042,327.000,-110.500,-37.500,-144.500
2.043,326.000,-110.500,-37.500,-144.500
2.044,326.000,-111.000,-37.500,-144.500
2.045,325.500,-111.000,-37.500,-144.500
2.046,325.000,-111.500,-37.500,-144.500
2.047,323.000,-112.000,-37.500,-145.000
2.048,321.000,-112.500,-38.000,-145.000
2.049,320.000,-112.500,-38.000,-145.500
2.050,320.000,-112.500,-38.000,-145.500
2.051,321.500,-112.500,-38.000,-145.000
2.052,323.500,-113.000,-38.000,-145.000
2.053,325.500,-113.000,-38.000,-145.000
2.054,326.000,-113.500,-38.000,-145.000
2.055,325.500,-113.500,-38.500,-144.500
2.056,326.000,-113.500,-39.000,-144.500
2.057,327.000,-113.000,-38.500,-144.000
2.058,329.000,-112.500,-38.500,-143.500
2.059,330.000,-112.000,-37.500,-143.000
2.060,330.500,-111.500,-37.000,-142.000
2.061,329.000,-111.000,-36.500,-141.500
2.062,326.500,-111.000,-36.000,-141.000
2.063,323.500,-111.000,-36.000,-141.000
2.064,321.000,-111.000,-36.000,-141.000
2.065,319.000,-111.500,-36.000,-141.000
2.066,317.500,-111.500,-36.500,-140.500
2.067,316.500,-112.000,-36.500,-141.000
2.068,315.500,-112.000,-36.500,-141.000
2.069,315.000,-112.500,-36.500,-141.500
2.070,316.000,-112.500,-36.500,-142.000
2.071,317.000,-112.500,-36.500,-142.000
2.072,319.000,-112.500,-36.500,-142.000
2.073,320.500,-112.500,-37.000,-142.500
2.074,321.500,-112.500,-37.000,-142.500
2.075,322.000,-112.500,-37.000,-142.500
2.076,322.000,-112.500,-37.000,-142.000
2.077,321.500,-112.500,-37.000,-141.500
2.078,320.500,-112.500,-37.000,-141.500
2.079,318.500,-112.000,-36.500,-141.000
2.080,316.500,-112.000,-36.500,-141.000
2.081,315.000,-112.500,-36.500,-141.000
2.082,314.500,-112.500,-36.500,-141.000
2.083,315.000,-112.500,-36.500,-140.500
2.084,317.000,-113.000,-36.500,-140.500
2.085,319.500,-113.000,-36.500,-140.500
2.086,321.500,-113.500,-37.000,-141.000
2.087,323.000,-114.000,-37.000,-141.000
2.088,323.500,-114.000,-37.000,-141.500
2.089,323.500,-114.000,-37.000,-141.500
2.090,323.000,-114.000,-37.000,-141.500
2.091,321.000,-114.000,-37.000,-141.500
2.092,318.500,-114.000,-37.000,-141.000
2.093,316.500,-113.500,-37.000,-141.000
2.094,316.000,-113.500,-36.500,-140.500
2.095,317.500,-113.000,-36.500,-140.000
2.096,320.000,-112.500,-36.000,-139.500
2.097,323.500,-112.000,-35.500,-139.000
2.098,326.500,-111.500,-35.000,-138.500
2.099,329.000,-111.500,-34.500,-138.000
2.100,330.500,-111.000,-34.500,-137.500
2.101,331.000,-111.000,-34.500,-137.500
2.102,329.500,-111.000,-34.500,-137.000
2.103,326.500,-111.000,-34.000,-136.500
2.104,323.500,-111.000,-34.000,-136.500
2.105,321.500,-111.000,-33.500,-136.500
2.106,320.000,-111.000,-33.500,-137.000
2.107,319.500,-111.000,-33.000,-137.000
2.108,319.500,-111.500,-33.000,-137.000
2.109,320.000,-111.500,-33.000,-137.000
2.110,320.500,-112.000,-33.000,-137.500
2.111,321.500,-112.000,-33.000,-137.500
2.112,321.000,-112.000,-33.000,-137.500
2.113,320.000,-112.000,-32.500,-137.000
2.114,319.000,-111.500,-32.500,-136.500
2.115,318.000,-111.500,-32.000,-136.500
2.116,316.500,-111.500,-32.000,-136.000
2.117,315.500,-111.500,-32.000,-135.500
2.118,313.500,-112.000,-32.000,-135.000
2.119,311.500,-111.500,-32.000,-134.500
2.120,309.500,-112.000,-32.000,-134.500
2.121,307.000,-112.000,-31.500,-134.500
2.122,305.000,-112.000,-31.500,-134.500
2.123,303.500,-112.000,-31.500,-134.500
2.124,302.500,-112.500,-31.500,-134.500
2.125,303.500,-113.000,-32.000,-134.500
2.126,305.000,-113.500,-32.000,-135.000
2.127,306.000,-114.000,-32.500,-135.500
2.128,306.500,-114.500,-33.000,-136.000
2.129,306.500,-115.000,-33.000,-136.000
2.130,306.500,-115.000,-33.000,-136.500
2.131,307.000,-115.500,-33.000,-136.500
2.132,308.000,-115.500,-33.000,-136.000
2.133,309.500,-116.000,-33.000,-136.000
2.134,310.000,-116.000,-33.000,-135.500
2.135,309.500,-116.000,-32.500,-135.000
2.136,309.000,-116.000,-32.500,-134.500
2.137,308.500,-116.000,-32.000,-134.000
2.138,309.500,-115.500,-31.500,-133.000
2.139,311.000,-115.500,-31.000,-132.500
2.140,312.500,-115.000,-30.500,-131.500
2.141,313.000,-115.000,-30.000,-131.000
2.142,313.500,-115.000,-30.000,-131.000
2.143,313.500,-115.500,-30.000,-131.000
2.144,313.500,-116.000,-30.000,-131.000
2.145,313.500,-116.500,-30.000,-131.000
2.146,314.000,-117.000,-30.000,-131.500
2.147,314.000,-117.000,-30.000,-131.500
2.148,314.000,-117.500,-30.000,-131.500
2.149,314.000,-117.500,-30.000,-131.500
2.150,314.500,-117.500,-29.500,-131.500
2.151,315.000,-117.500,-29.500,-131.500
2.152,314.500,-117.500,-29.500,-131.000
2.153,313.000,-118.000,-29.500,-131.000
2.154,311.500,-118.000,-29.500,-131.000
2.155,310.500,-118.000,-29.500,-130.500
2.156,309.500,-118.500,-29.500,-130.500
2.157,309.500,-118.500,-29.500,-130.000
2.158,309.000,-118.500,-29.500,-130.000
2.159,309.000,-118.500,-29.500,-129.500
2.160,308.000,-118.000,-29.000,-129.500
2.161,307.500,-118.000,-28.500,-129.000
2.162,307.500,-118.000,-28.500,-129.000
2.163,308.000,-118.500,-28.000,-129.000
2.164,307.500,-119.000,-28.500,-129.000
2.165,306.500,-120.000,-28.500,-129.000
2.166,305.500,-120.500,-29.000,-129.000
2.167,304.500,-121.000,-29.000,-129.000
2.168,304.500,-121.500,-29.500,-129.000
2.169,304.000,-121.500,-29.500,-129.500
2.170,303.500,-122.000,-29.500,-130.000
2.171,302.500,-122.000,-29.500,-130.000
2.172,302.500,-122.000,-29.500,-130.500
2.173,303.000,-122.500,-30.000,-131.000
2.174,304.000,-122.500,-30.000,-131.000
2.175,304.500,-122.500,-30.000,-131.000
2.176,305.000,-123.000,-30.000,-130.500
2.177,304.000,-123.000,-29.500,-130.000
2.178,302.500,-123.000,-29.500,-129.500
2.179,301.500,-123.000,-29.500,-129.500
2.180,301.500,-123.500,-29.500,-129.500
2.181,301.500,-123.500,-30.000,-129.500
2.182,300.500,-123.500,-30.000,-129.500
2.183,300.000,-123.500,-30.000,-130.000
2.184,299.000,-123.500,-30.000,-130.000
2.185,297.500,-123.500,-30.000,-130.500
2.186,296.500,-124.000,-30.500,-131.000
2.187,294.500,-124.000,-30.500,-131.500
2.188,293.000,-124.500,-31.000,-132.000
2.189,291.500,-125.500,-31.500,-132.500
2.190,291.000,-126.000,-32.000,-133.000
2.191,291.500,-126.500,-32.500,-133.500
2.192,291.500,-127.000,-33.000,-134.000
2.193,291.500,-127.000,-34.000,-135.000
2.194,292.000,-127.500,-34.500,-135.500
2.195,292.500,-127.500,-34.500,-136.000
2.196,294.000,-127.000,-35.000,-136.500
2.197,294.000,-127.000,-34.500,-136.500
2.198,293.500,-126.500,-34.500,-136.500
2.199,292.000,-126.500,-34.000,-136.500
2.200,291.000,-126.000,-33.500,-136.000
2.201,289.500,-126.000,-34.000,-136.500
2.202,288.500,-126.500,-34.500,-137.000
2.203,287.500,-127.000,-35.000,-137.500
2.204,287.000,-127.000,-36.000,-138.500
2.205,286.500,-128.000,-36.500,-139.000
2.206,286.500,-128.500,-37.500,-140.000
2.207,286.500,-129.500,-38.500,-140.500
2.208,287.000,-130.000,-39.000,-141.000
2.209,288.500,-130.500,-39.500,-141.500
2.210,289.500,-131.000,-40.500,-142.500
2.211,291.000,-131.500,-41.000,-143.000
2.212,292.500,-132.000,-41.000,-143.000
2.213,294.000,-132.000,-41.500,-143.500
2.214,296.500,-132.000,-42.000,-144.000
2.215,299.500,-132.000,-42.000,-144.000
2.216,302.000,-132.000,-42.000,-144.000
2.217,302.500,-132.000,-42.000,-144.000
2.218,301.500,-132.000,-42.000,-143.500
2.219,299.500,-131.500,-42.000,-143.000
2.220,296.500,-131.500,-42.000,-143.000
2.221,295.000,-131.000,-42.000,-143.000
2.222,295.000,-131.000,-42.000,-143.500
2.223,296.500,-131.000,-42.000,-143.500
2.224,298.500,-131.000,-42.500,-144.000
2.225,300.000,-131.000,-42.500,-144.500
2.226,300.500,-131.500,-43.000,-145.000
2.227,300.500,-132.000,-43.500,-145.500
2.228,300.000,-132.500,-43.500,-145.500
2.229,299.000,-132.500,-43.500,-146.000
2.230,298.500,-133.000,-44.000,-146.500
2.231,299.500,-133.000,-44.000,-146.500
2.232,301.000,-133.500,-44.000,-146.500
2.233,303.000,-133.500,-44.000,-146.500
2.234,304.500,-133.500,-44.500,-146.500
2.235,305.500,-134.000,-44.500,-147.000
2.236,305.500,-133.500,-44.500,-147.000
2.237,305.500,-133.500,-44.500,-147.500
2.238,305.000,-133.500,-44.500,-147.500
2.239,304.500,-133.500,-44.500,-148.000
2.240,303.000,-133.500,-45.000,-148.000
2.241,301.000,-134.000,-45.000,-148.500
2.242,299.000,-134.000,-45.000,-148.500
2.243,297.000,-134.500,-45.000,-148.500
2.244,295.500,-135.000,-45.000,-149.000
2.245,295.000,-135.500,-45.500,-149.000
2.246,295.500,-136.000,-45.500,-149.000
2.247,296.500,-136.500,-46.000,-149.500
2.248,297.500,-136.500,-46.500,-150.000
2.249,298.000,-137.000,-47.000,-150.500
2.250,298.000,-137.500,-47.000,-151.000
2.251,298.000,-137.500,-47.500,-151.500
2.252,298.000,-138.000,-48.000,-151.500
2.253,297.000,-138.000,-48.500,-152.000
2.254,296.000,-138.500,-48.500,-152.000
2.255,294.500,-138.500,-48.500,-152.000
2.256,293.000,-138.500,-48.500,-152.000
2.257,291.500,-138.000,-48.500,-151.500
2.258,290.500,-138.000,-48.000,-151.000
2.259,290.000,-137.500,-48.000,-151.000
2.260,290.500,-137.500,-48.000,-151.000
2.261,291.500,-138.000,-48.000,-151.000
2.262,292.500,-138.000,-48.000,-151.500
2.263,294.000,-138.500,-48.000,-151.500
2.264,296.000,-139.000,-48.500,-152.000
2.265,297.500,-139.500,-48.500,-152.500
2.266,298.500,-140.000,-49.000,-153.000
2.267,297.500,-140.500,-49.500,-153.500
2.268,296.000,-140.500,-50.000,-153.500
2.269,295.000,-141.000,-50.000,-154.000
2.270,294.500,-141.500,-50.000,-154.500
2.271,294.500,-141.500,-50.000,-154.500
2.272,294.500,-141.500,-49.500,-154.500
2.273,294.000,-141.000,-49.500,-154.000
2.274,293.500,-141.500,-49.500,-154.000
2.275,292.500,-141.500,-49.000,-153.500
2.276,292.500,-141.500,-49.000,-153.000
2.277,292.500,-141.500,-49.000,-153.000
2.278,293.500,-141.500,-48.500,-152.500
2.279,294.500,-141.500,-48.500,-152.500
2.280,295.500,-142.000,-49.000,-152.500
2.281,296.500,-142.000,-49.000,-152.500
2.282,297.500,-142.500,-49.500,-153.000
2.283,297.500,-142.500,-49.500,-153.500
2.284,297.500,-142.500,-49.500,-153.500
2.285,298.000,-142.500,-49.500,-154.000
2.286,298.000,-143.000,-50.000,-154.500
2.287,298.500,-143.500,-50.000,-154.500
2.288,299.000,-144.000,-50.500,-155.000
2.289,299.000,-144.500,-50.500,-155.000
2.290,298.500,-145.000,-51.000,-155.500
2.291,297.500,-145.500,-51.000,-155.500
2.292,296.500,-146.000,-51.500,-155.500
2.293,295.500,-146.500,-52.000,-155.500
2.294,294.500,-146.500,-52.500,-155.500
2.295,294.000,-147.000,-52.500,-155.500
2.296,294.500,-147.000,-52.500,-155.500
2.297,295.500,-146.500,-52.500,-155.500
2.298,296.500,-146.500,-52.500,-155.000
2.299,296.500,-147.000,-52.000,-155.000
2.300,296.000,-147.000,-52.000,-155.000
2.301,295.000,-147.500,-52.000,-155.000
2.302,294.000,-148.500,-52.500,-155.000
2.303,293.500,-149.000,-53.000,-155.000
2.304,293.000,-150.000,-53.500,-155.500
2.305,292.500,-151.000,-54.000,-156.000
2.306,292.500,-152.000,-55.000,-156.500
2.307,293.000,-153.000,-56.000,-157.500
2.308,292.500,-154.500,-57.000,-158.500
2.309,292.000,-155.500,-58.000,-159.000
2.310,291.000,-157.000,-59.000,-160.000
2.311,291.000,-158.000,-60.000,-161.000
2.312,291.500,-158.000,-60.500,-161.000
2.313,292.500,-158.000,-60.000,-161.000
2.314,293.500,-157.000,-59.500,-160.500
2.315,294.000,-156.000,-58.500,-159.500
2.316,294.500,-155.000,-57.500,-158.500
2.317,295.000,-153.500,-56.500,-157.500
2.318,296.500,-152.000,-55.000,-156.500
2.319,298.000,-150.000,-54.000,-155.500
2.320,300.000,-148.500,-52.500,-155.000
2.321,302.000,-147.500,-52.000,-154.500
2.322,303.500,-147.000,-51.500,-154.500
2.323,304.000,-147.000,-51.500,-154.500
2.324,304.000,-147.500,-52.000,-155.000
2.325,303.500,-148.000,-52.000,-155.000
2.326,302.500,-148.500,-52.500,-155.500
2.327,301.500,-149.500,-52.500,-155.500
2.328,300.500,-150.000,-52.500,-155.500
2.329,300.000,-151.000,-53.000,-156.000
2.330,299.500,-152.000,-53.500,-156.000
2.331,299.000,-152.500,-54.000,-156.500
2.332,298.000,-153.500,-54.500,-157.000
2.333,295.500,-154.000,-55.000,-157.500
2.334,293.000,-154.500,-55.500,-158.000
2.335,292.000,-155.000,-56.000,-158.500
2.336,292.000,-155.500,-56.500,-158.500
2.337,293.000,-155.500,-56.500,-158.500
2.338,294.500,-155.500,-56.500,-158.500
2.339,294.500,-155.500,-57.000,-158.500
2.340,294.000,-155.500,-57.000,-158.500
2.341,292.500,-156.000,-57.000,-158.500
2.342,291.500,-156.000,-57.500,-158.500
2.343,290.000,-156.000,-57.500,-158.500
2.344,288.500,-156.500,-57.500,-158.500
2.345,287.500,-157.000,-58.000,-158.500
2.346,287.500,-158.000,-58.000,-159.000
2.347,287.500,-158.500,-58.000,-159.000
2.348,288.000,-159.000,-58.000,-159.000
2.349,288.500,-159.500,-58.500,-159.000
2.350,289.500,-159.500,-58.500,-159.000
2.351,291.000,-160.000,-58.500,-159.500
2.352,293.000,-160.000,-59.000,-159.500
2.353,294.500,-160.000,-59.000,-159.000
2.354,295.500,-160.000,-58.500,-159.000
2.355,295.500,-160.000,-58.500,-158.500
2.356,295.500,-159.500,-58.500,-158.500
2.357,295.500,-160.000,-58.000,-158.000
2.358,296.000,-160.000,-58.000,-158.000
2.359,297.000,-160.000,-57.500,-157.500
2.360,296.500,-159.500,-57.000,-157.000
2.361,295.000,-159.500,-57.000,-157.000
2.362,293.500,-159.500,-56.500,-157.000
2.363,292.500,-160.000,-57.000,-157.000
2.364,292.500,-160.000,-57.500,-157.500
2.365,293.500,-160.500,-58.000,-158.500
2.366,295.000,-161.500,-58.500,-159.000
2.367,296.000,-162.000,-59.000,-160.000
2.368,297.000,-162.500,-59.500,-160.500
2.369,297.500,-163.500,-60.000,-161.000
2.370,297.500,-164.000,-60.500,-161.500
2.371,298.500,-164.500,-60.500,-161.500
2.372,299.500,-165.000,-61.000,-162.000
2.373,299.500,-165.000,-61.000,-162.000
2.374,298.000,-165.000,-61.000,-162.500
2.375,295.000,-165.000,-61.000,-162.500
2.376,291.500,-165.500,-61.000,-162.500
2.377,289.000,-165.500,-61.000,-162.500
2.378,288.000,-165.500,-61.000,-162.000
2.379,288.000,-165.500,-61.000,-161.500
2.380,288.500,-166.000,-61.000,-161.500
2.381,289.000,-166.500,-61.500,-161.500
2.382,289.000,-167.000,-61.500,-161.500
2.383,289.000,-167.500,-62.000,-162.000
2.384,289.500,-168.000,-62.000,-162.500
2.385,289.000,-168.500,-62.500,-162.500
2.386,288.500,-169.000,-62.500,-163.000
2.387,288.000,-169.000,-63.000,-163.000
2.388,287.500,-169.500,-63.000,-163.500
2.389,288.000,-169.500,-63.000,-163.500
2.390,289.500,-170.000,-63.000,-163.500
2.391,291.500,-170.000,-63.000,-163.500
2.392,293.500,-170.500,-63.000,-163.500
2.393,295.000,-170.500,-63.500,-163.500
2.394,295.500,-171.000,-64.000,-163.500
2.395,295.000,-171.000,-64.000,-163.500
2.396,293.000,-171.500,-64.000,-163.500
2.397,290.500,-171.500,-64.500,-163.500
2.398,287.000,-172.000,-64.000,-163.000
2.399,284.500,-172.000,-64.000,-163.000
2.400,282.500,-172.000,-64.000,-163.000
2.401,281.500,-172.000,-64.000,-163.000
2.402,281.500,-172.000,-64.000,-162.500
2.403,282.000,-172.000,-64.000,-162.500
2.404,283.000,-172.500,-63.500,-162.500
2.405,284.500,-173.000,-63.500,-163.000
2.406,286.000,-173.500,-63.500,-163.500
2.407,286.500,-174.000,-64.000,-164.000
2.408,287.000,-174.000,-64.500,-164.500
2.409,287.500,-174.500,-64.500,-165.000
2.410,287.500,-175.000,-65.000,-165.500
2.411,288.000,-175.000,-65.500,-165.500
2.412,288.000,-175.500,-65.500,-166.000
2.413,287.500,-175.500,-65.500,-165.500
2.414,286.500,-176.000,-66.000,-165.500
2.415,285.500,-176.500,-66.000,-165.500
2.416,284.500,-177.000,-66.000,-165.500
2.417,283.500,-177.500,-66.500,-165.000
2.418,283.500,-178.000,-66.500,-165.000
2.419,284.000,-178.000,-66.500,-164.500
2.420,284.500,-178.000,-66.500,-165.000
2.421,284.500,-178.500,-67.000,-165.000
2.422,284.000,-178.500,-67.000,-165.500
2.423,284.500,-179.000,-67.500,-166.000
2.424,286.500,-179.500,-68.000,-167.000
2.425,289.000,-180.000,-68.500,-167.500
2.426,291.500,-180.500,-69.000,-168.000
2.427,292.000,-181.500,-69.000,-168.000
2.428,290.500,-182.000,-69.000,-168.000
2.429,288.000,-182.500,-69.500,-168.500
2.430,286.000,-183.000,-70.000,-168.500
2.431,284.000,-183.500,-70.000,-169.000
2.432,283.500,-183.500,-70.500,-169.000
2.433,284.500,-183.500,-70.500,-169.500
2.434,285.500,-183.500,-70.500,-169.500
2.435,287.000,-184.000,-70.500,-169.500
2.436,288.500,-184.000,-70.500,-169.500
2.437,289.500,-184.000,-70.500,-169.500
2.438,290.500,-184.000,-70.500,-169.000
2.439,291.000,-184.000,-70.500,-168.500
2.440,290.000,-184.000,-70.000,-168.000
2.441,289.000,-184.000,-69.500,-168.000
2.442,287.500,-184.000,-69.000,-167.500
2.443,286.500,-184.000,-69.000,-167.500
2.444,285.500,-184.500,-69.000,-168.000
2.445,284.500,-185.000,-69.500,-168.000
2.446,284.000,-185.000,-70.000,-168.500
2.447,282.500,-185.500,-70.500,-169.000
2.448,282.000,-186.500,-71.000,-170.000
2.449,281.500,-187.000,-71.500,-170.500
2.450,281.500,-187.500,-72.000,-171.000
2.451,282.000,-188.500,-72.500,-171.500
2.452,283.000,-189.000,-72.500,-171.500
2.453,285.000,-189.000,-73.000,-171.500
2.454,287.000,-189.500,-73.000,-172.000
2.455,288.000,-190.000,-73.000,-171.500
2.456,287.500,-190.000,-73.000,-171.500
2.457,286.000,-190.000,-73.500,-171.500
2.458,284.500,-190.000,-73.500,-171.000
2.459,283.500,-190.000,-73.500,-170.500
2.460,282.500,-189.500,-73.500,-170.000
2.461,282.000,-190.000,-73.500,-170.000
2.462,282.000,-190.500,-74.000,-170.500
2.463,281.500,-191.000,-74.500,-171.000
2.464,281.000,-191.500,-75.000,-171.500
2.465,280.500,-192.000,-75.500,-172.000
2.466,280.500,-192.500,-76.000,-172.500
2.467,279.500,-193.000,-76.000,-172.500
2.468,277.500,-193.500,-76.500,-173.000
2.469,276.500,-194.000,-76.500,-173.500
2.470,276.000,-194.000,-76.500,-173.500
2.471,276.000,-194.500,-76.500,-174.000
2.472,277.000,-194.500,-76.500,-174.000
2.473,278.500,-195.000,-76.500,-174.000
2.474,280.500,-195.000,-77.000,-174.500
2.475,281.500,-195.000,-77.000,-174.500
2.476,282.000,-195.000,-77.000,-174.000
2.477,281.500,-195.000,-77.000,-174.000
2.478,280.500,-195.000,-76.500,-173.500
2.479,280.000,-195.000,-76.000,-173.500
2.480,280.500,-194.500,-75.500,-173.000
2.481,280.500,-194.500,-75.000,-172.500
2.482,281.000,-194.500,-75.000,-172.500
2.483,280.500,-194.500,-74.500,-172.500
2.484,279.500,-194.500,-74.500,-173.000
2.485,279.000,-195.000,-75.000,-173.500
2.486,279.000,-195.500,-75.000,-174.000
2.487,279.000,-196.500,-75.500,-174.000
2.488,280.500,-197.000,-75.500,-174.500
2.489,282.000,-197.500,-76.000,-175.000
2.490,283.500,-198.000,-76.500,-175.000
2.491,284.500,-198.500,-77.000,-175.500
2.492,284.000,-198.500,-77.000,-175.500
2.493,282.500,-198.500,-77.500,-175.500
2.494,279.500,-199.000,-77.500,-175.500
2.495,277.500,-199.000,-78.000,-175.500
2.496,277.000,-199.000,-78.500,-175.500
2.497,279.000,-199.500,-78.500,-175.500
2.498,282.000,-199.500,-78.500,-176.000
2.499,285.000,-199.500,-78.500,-176.000
2.500,288.000,-199.500,-78.500,-176.000
2.501,290.500,-199.500,-78.500,-176.000
2.502,292.000,-199.500,-79.000,-175.500
2.503,293.500,-200.000,-79.000,-175.500
2.504,293.500,-200.000,-79.000,-175.500
2.505,292.500,-200.500,-79.000,-175.500
2.506,291.500,-200.500,-79.000,-175.500
2.507,290.000,-201.000,-79.000,-176.000
2.508,288.500,-201.000,-79.000,-176.000
2.509,287.000,-201.500,-79.000,-176.500
2.510,285.500,-201.500,-79.500,-176.500
2.511,285.000,-202.000,-79.500,-177.000
2.512,284.000,-202.000,-79.500,-177.000
2.513,282.500,-202.500,-79.500,-177.500
2.514,281.500,-202.000,-79.000,-177.500
2.515,280.000,-202.000,-79.000,-177.000
2.516,279.000,-201.500,-78.500,-177.000
2.517,278.500,-201.000,-78.000,-176.500
2.518,279.000,-200.500,-78.000,-176.500
2.519,280.000,-200.500,-77.500,-176.000
2.520,281.000,-200.000,-77.000,-176.000
2.521,281.500,-200.000,-77.000,-176.000
2.522,282.000,-200.500,-76.500,-176.000
2.523,282.000,-200.500,-76.500,-176.000
2.524,282.000,-201.000,-76.500,-176.000
2.525,282.000,-201.000,-76.500,-176.500
2.526,283.000,-202.000,-77.000,-176.500
2.527,284.000,-202.500,-77.500,-177.000
2.528,284.500,-203.500,-78.500,-178.000
2.529,285.000,-204.000,-79.000,-178.000
2.530,285.000,-204.000,-79.500,-178.500
2.531,285.000,-204.000,-79.500,-179.000
2.532,284.500,-204.000,-79.500,-179.000
2.533,284.500,-204.000,-80.000,-179.000
2.534,284.500,-204.000,-80.000,-179.000
2.535,285.500,-204.000,-80.000,-178.500
2.536,286.500,-204.000,-80.000,-178.500
2.537,287.500,-204.000,-80.500,-178.000
2.538,288.000,-204.500,-80.500,-178.000
2.539,288.500,-204.500,-80.500,-178.000
2.540,288.500,-204.500,-80.500,-178.000
2.541,288.500,-205.000,-80.500,-178.000
2.542,287.500,-205.000,-80.500,-178.000
2.543,286.000,-205.500,-81.000,-178.000
2.544,285.000,-206.000,-81.000,-178.000
2.545,284.000,-206.500,-81.000,-178.000
2.546,283.000,-206.500,-80.500,-178.000
2.547,283.000,-207.000,-80.500,-178.000
2.548,283.500,-207.000,-80.000,-177.500
2.549,284.000,-207.500,-80.000,-177.500
2.550,284.500,-207.500,-80.000,-177.500
2.551,283.000,-207.500,-80.000,-178.000
2.552,280.500,-207.500,-80.500,-178.000
2.553,278.000,-207.500,-81.000,-178.500
2.554,277.000,-207.500,-81.500,-178.500
2.555,276.500,-207.500,-81.500,-178.500
2.556,276.500,-207.000,-81.500,-178.000
2.557,275.500,-207.000,-81.000,-177.500
2.558,274.500,-206.500,-81.000,-177.000
2.559,274.000,-206.500,-80.500,-176.500
2.560,275.000,-206.000,-80.000,-176.000
2.561,276.500,-206.000,-80.000,-176.000
2.562,276.500,-205.500,-79.500,-175.500
2.563,275.500,-205.500,-79.500,-175.500
2.564,272.500,-205.500,-79.000,-175.500
2.565,269.500,-205.500,-79.500,-175.500
2.566,267.500,-206.000,-79.500,-176.000
2.567,266.500,-206.000,-79.500,-176.000
2.568,267.000,-206.500,-80.000,-176.500
2.569,268.000,-207.000,-80.500,-177.000
2.570,270.000,-207.500,-80.500,-177.500
2.571,272.500,-208.000,-81.000,-178.000
2.572,275.500,-208.500,-81.000,-178.500
2.573,277.500,-209.000,-81.500,-179.000
2.574,279.000,-209.000,-81.500,-179.000
2.575,280.000,-209.500,-81.500,-179.000
2.576,280.500,-209.500,-81.500,-179.000
2.577,280.500,-210.000,-81.500,-179.000
2.578,281.000,-210.000,-81.500,-179.000
2.579,282.000,-210.000,-81.500,-179.000
2.580,284.000,-210.000,-82.000,-178.500
2.581,285.500,-210.000,-82.000,-178.500
2.582,286.500,-210.000,-82.500,-178.500
2.583,286.000,-210.000,-83.000,-179.000
2.584,284.000,-210.500,-83.000,-179.000
2.585,281.000,-210.500,-83.500,-179.000
2.586,278.500,-211.000,-83.500,-179.500
2.587,277.500,-211.000,-83.500,-179.500
2.588,276.500,-211.500,-84.000,-180.000
2.589,275.500,-211.500,-84.000,-180.500
2.590,274.000,-212.000,-84.000,-181.000
2.591,272.000,-212.000,-84.000,-181.000
2.592,270.500,-212.000,-84.500,-181.000
2.593,270.000,-212.000,-84.500,-181.000
2.594,270.000,-212.000,-84.500,-181.000
2.595,271.000,-212.000,-84.500,-181.000
2.596,273.000,-212.000,-84.500,-180.500
2.597,274.500,-212.000,-84.500,-180.500
2.598,276.000,-212.000,-84.500,-180.000
2.599,276.500,-212.000,-84.000,-180.000
2.600,276.500,-212.000,-83.500,-179.500
2.601,276.000,-211.500,-83.500,-179.500
2.602,274.500,-211.500,-83.500,-179.000
2.603,272.500,-211.500,-83.500,-179.000
2.604,271.000,-212.000,-83.500,-179.000
2.605,270.500,-212.000,-83.500,-179.500
2.606,270.000,-212.500,-84.000,-179.500
2.607,269.000,-213.000,-84.000,-180.000
2.608,268.500,-213.000,-84.500,-181.000
2.609,268.000,-213.500,-85.500,-182.000
2.610,268.000,-214.000,-86.000,-182.500
2.611,269.000,-214.000,-86.000,-182.500
2.612,271.000,-214.000,-86.000,-182.500
2.613,272.500,-214.000,-85.500,-182.500
2.614,274.000,-214.000,-85.500,-182.000
2.615,275.000,-214.000,-85.000,-181.500
2.616,275.500,-214.000,-84.500,-181.000
2.617,275.500,-213.500,-84.000,-180.500
2.618,274.500,-213.500,-83.500,-180.000
2.619,272.500,-213.000,-83.500,-180.000
2.620,271.500,-213.000,-83.500,-179.500
2.621,272.000,-213.000,-83.500,-179.500
2.622,272.500,-213.500,-84.000,-180.000
2.623,273.000,-213.500,-84.000,-180.000
2.624,273.000,-214.000,-84.000,-180.000
2.625,272.500,-214.500,-84.500,-180.500
2.626,271.500,-215.000,-85.000,-181.000
2.627,271.000,-216.000,-85.500,-181.500
2.628,272.000,-216.500,-86.000,-182.000
2.629,273.500,-216.500,-86.000,-182.500
2.630,274.500,-217.000,-86.500,-182.500
2.631,275.000,-217.000,-86.500,-182.500
2.632,273.500,-217.000,-86.500,-182.500
2.633,272.000,-217.000,-87.000,-183.000
2.634,272.000,-217.000,-87.000,-183.000
2.635,274.000,-217.000,-87.500,-183.000
2.636,277.500,-216.500,-87.500,-183.500
2.637,281.000,-216.500,-87.500,-183.500
2.638,283.500,-216.000,-87.500,-183.500
2.639,283.500,-216.000,-87.500,-183.500
2.640,282.000,-216.000,-87.000,-183.500
2.641,279.000,-216.000,-87.000,-183.500
2.642,276.000,-216.000,-86.500,-183.500
2.643,274.000,-216.000,-86.500,-183.500
2.644,273.000,-216.000,-86.500,-183.500
2.645,272.500,-216.000,-86.500,-183.500
2.646,271.000,-216.000,-86.500,-183.500
2.647,269.500,-216.000,-86.000,-183.500
2.648,268.000,-216.500,-86.000,-183.500
2.649,267.500,-216.500,-86.500,-184.000
2.650,267.500,-217.000,-86.500,-184.500
2.651,267.500,-217.500,-87.000,-185.000
2.652,268.000,-218.000,-87.500,-185.000
2.653,269.000,-218.000,-87.500,-185.500
2.654,270.500,-218.000,-87.500,-185.500
2.655,272.000,-218.000,-87.500,-186.000
2.656,274.000,-218.000,-87.500,-186.000
2.657,276.000,-218.000,-87.500,-186.000
2.658,277.000,-218.000,-87.500,-186.000
2.659,278.000,-218.000,-87.500,-185.500
2.660,277.500,-218.000,-87.000,-185.500
2.661,277.000,-218.500,-87.000,-185.500
2.662,276.500,-218.500,-87.000,-185.500
2.663,276.500,-219.000,-87.000,-185.500
2.664,276.000,-219.500,-87.500,-186.000
2.665,275.000,-220.500,-88.000,-186.000
2.666,273.500,-221.000,-88.500,-186.500
2.667,272.000,-221.500,-88.500,-187.000
2.668,271.000,-222.000,-89.000,-187.500
2.669,270.500,-222.500,-89.500,-188.000
2.670,271.000,-222.500,-89.500,-188.000
2.671,271.000,-222.500,-90.000,-188.500
2.672,270.500,-222.500,-90.000,-188.500
2.673,270.500,-222.500,-89.500,-188.500
2.674,270.000,-222.500,-89.500,-188.500
2.675,269.500,-222.000,-89.000,-188.000
2.676,269.500,-222.000,-89.000,-187.500
2.677,270.000,-221.500,-89.000,-187.500
2.678,271.500,-221.500,-89.000,-187.000
2.679,273.000,-221.000,-89.000,-186.500
2.680,273.500,-221.000,-88.500,-186.000
2.681,273.500,-221.000,-88.500,-186.000
2.682,272.000,-221.000,-88.500,-186.500
2.683,270.500,-221.000,-88.000,-187.000
2.684,268.500,-221.500,-88.000,-187.000
2.685,266.500,-221.500,-88.000,-187.500
2.686,263.500,-221.500,-88.500,-188.000
2.687,260.500,-222.000,-88.500,-188.500
2.688,257.500,-222.000,-89.000,-189.000
2.689,256.000,-222.500,-89.500,-189.500
2.690,256.500,-223.000,-89.500,-190.000
2.691,258.000,-223.000,-90.000,-190.500
2.692,260.500,-223.000,-90.000,-190.500
2.693,264.000,-223.000,-90.500,-190.500
2.694,267.500,-223.000,-90.000,-190.500
2.695,268.500,-223.000,-90.000,-190.500
2.696,266.500,-223.000,-90.000,-190.000
2.697,263.500,-223.000,-90.500,-190.000
2.698,261.000,-223.000,-90.500,-189.500
2.699,259.500,-223.000,-90.500,-189.500
2.700,259.500,-223.000,-90.500,-189.000
2.701,260.000,-223.500,-90.500,-189.000
2.702,261.500,-223.500,-90.500,-189.000
2.703,263.000,-223.500,-90.500,-189.500
2.704,264.000,-223.500,-90.000,-189.500
2.705,265.000,-224.000,-90.500,-190.000
2.706,264.500,-224.500,-90.500,-190.500
2.707,264.000,-225.000,-91.000,-191.000
2.708,263.000,-225.000,-91.000,-191.000
2.709,262.000,-225.500,-91.500,-191.500
2.710,261.500,-226.000,-91.500,-192.000
2.711,262.000,-226.000,-92.000,-192.500
2.712,263.500,-226.000,-92.000,-193.000
2.713,265.500,-226.500,-92.500,-193.000
2.714,267.500,-226.500,-93.000,-193.500
2.715,270.500,-227.000,-94.000,-194.000
2.716,272.500,-227.500,-94.500,-194.500
2.717,274.000,-228.000,-95.500,-195.500
2.718,274.000,-228.500,-96.000,-196.000
2.719,274.000,-229.000,-97.000,-197.000
2.720,274.000,-229.500,-97.500,-198.000
2.721,273.500,-230.500,-98.500,-199.000
2.722,272.000,-231.000,-99.500,-200.000
2.723,269.500,-232.000,-100.000,-200.500
2.724,266.500,-232.000,-100.000,-201.000
2.725,263.000,-232.500,-100.000,-201.000
2.726,260.500,-232.500,-99.500,-200.500
2.727,258.500,-233.000,-99.000,-200.000
2.728,257.500,-233.500,-98.500,-199.000
2.729,257.000,-233.500,-98.000,-198.500
2.730,257.500,-234.000,-97.500,-197.500
2.731,258.500,-234.000,-96.500,-196.000
2.732,259.500,-233.500,-95.000,-194.500
2.733,261.500,-233.500,-94.000,-192.500
2.734,263.500,-233.000,-92.500,-190.000
2.735,266.000,-232.500,-91.000,-187.000
2.736,268.500,-232.000,-89.000,-184.500
2.737,270.000,-231.500,-87.000,-181.000
2.738,269.500,-231.000,-85.000,-178.000
2.739,268.000,-231.000,-83.000,-175.500
2.740,267.000,-230.500,-81.500,-173.000
2.741,268.500,-230.500,-80.500,-171.000
2.742,271.000,-230.500,-79.500,-169.500
2.743,273.000,-230.000,-78.500,-168.000
2.744,274.000,-230.000,-78.000,-167.000
2.745,275.000,-230.500,-78.000,-167.000
2.746,275.500,-231.000,-78.000,-167.000
2.747,276.000,-232.000,-79.000,-168.000
2.748,276.500,-233.000,-81.000,-170.000
2.749,277.000,-234.000,-83.000,-172.500
2.750,277.000,-235.000,-85.500,-175.500
2.751,276.500,-236.000,-88.000,-179.000
2.752,275.500,-236.000,-90.000,-182.500
2.753,274.500,-235.000,-92.000,-186.000
2.754,274.000,-234.000,-93.000,-189.000
2.755,274.000,-232.500,-94.000,-191.500
2.756,274.000,-230.500,-94.500,-193.000
2.757,273.500,-229.000,-94.500,-193.500
2.758,273.000,-228.000,-94.500,-193.500
2.759,273.000,-227.000,-94.000,-193.000
2.760,273.000,-226.000,-93.500,-192.000
2.761,272.500,-225.500,-92.500,-191.000
2.762,272.000,-225.000,-91.500,-190.000
2.763,271.500,-224.000,-90.500,-189.500
2.764,271.500,-224.000,-90.000,-189.000
2.765,271.500,-223.500,-89.500,-189.000
2.766,272.000,-223.500,-89.500,-189.500
2.767,272.000,-223.500,-89.500,-190.000
2.768,270.000,-224.000,-90.000,-191.000
2.769,268.000,-225.000,-90.500,-192.000
2.770,266.500,-226.000,-91.500,-193.000
2.771,265.000,-227.000,-92.500,-194.000
2.772,264.000,-227.500,-94.000,-195.500
2.773,263.000,-228.500,-95.000,-196.500
2.774,262.000,-230.000,-96.000,-197.500
2.775,262.000,-231.000,-97.500,-198.000
2.776,262.500,-232.000,-98.500,-199.000
2.777,263.500,-233.000,-99.500,-199.500
2.778,265.000,-234.500,-100.500,-200.500
2.779,265.500,-235.500,-101.500,-201.000
2.780,264.000,-236.000,-102.000,-201.500
2.781,262.500,-237.000,-102.500,-202.000
2.782,262.000,-237.000,-103.000,-202.500
2.783,263.500,-237.000,-102.500,-202.000
2.784,265.500,-236.500,-102.000,-202.000
2.785,268.000,-236.000,-101.500,-201.500
2.786,270.000,-234.500,-100.500,-201.000
2.787,271.000,-233.500,-99.500,-200.500
2.788,271.500,-232.500,-99.000,-200.000
2.789,271.500,-231.500,-98.500,-200.000
2.790,271.500,-231.000,-98.000,-199.500
2.791,271.000,-231.000,-98.000,-200.000
2.792,270.500,-231.000,-98.000,-200.000
2.793,269.500,-231.000,-98.000,-200.000
2.794,267.000,-231.000,-98.500,-200.500
2.795,263.500,-231.000,-98.500,-200.500
2.796,259.500,-231.500,-99.000,-200.500
2.797,257.500,-232.000,-99.500,-201.000
2.798,257.500,-232.500,-100.000,-201.000
2.799,258.500,-233.000,-100.500,-201.000
2.800,260.000,-233.500,-101.000,-201.500
2.801,261.500,-234.000,-101.500,-202.000
2.802,263.500,-234.000,-102.000,-202.500
2.803,265.000,-234.500,-102.000,-202.500
2.804,265.500,-234.500,-102.000,-202.500
2.805,264.500,-234.500,-102.000,-203.000
2.806,263.000,-234.500,-102.500,-203.000
2.807,261.000,-234.500,-102.000,-203.000
2.808,259.500,-235.000,-102.000,-203.500
2.809,258.500,-235.000,-102.000,-203.500
2.810,258.000,-235.000,-102.000,-204.000
2.811,258.500,-235.000,-102.000,-204.000
2.812,260.500,-235.000,-102.000,-204.000
2.813,262.500,-235.000,-102.500,-204.500
2.814,264.500,-235.500,-103.000,-204.500
2.815,265.500,-235.500,-103.000,-205.000
2.816,265.500,-235.500,-103.500,-205.000
2.817,265.500,-235.500,-104.000,-205.000
2.818,265.000,-235.500,-104.000,-205.000
2.819,264.500,-235.500,-104.000,-205.000
2.820,264.500,-235.500,-104.000,-204.500
2.821,265.000,-235.500,-104.000,-204.500
2.822,265.000,-235.500,-104.000,-204.500
2.823,264.500,-236.000,-104.000,-204.500
2.824,264.500,-236.500,-104.000,-204.500
2.825,265.000,-237.000,-104.500,-205.000
2.826,265.500,-238.000,-105.000,-205.000
2.827,265.000,-238.500,-105.500,-205.500
2.828,264.500,-239.000,-106.000,-206.000
2.829,263.000,-239.000,-106.000,-206.500
2.830,262.500,-239.500,-106.500,-207.000
2.831,262.000,-239.500,-106.500,-207.500
2.832,262.000,-240.000,-107.000,-207.500
2.833,262.000,-240.000,-107.000,-207.500
2.834,261.500,-240.000,-107.000,-207.000
2.835,261.500,-240.000,-107.000,-206.500
2.836,262.500,-239.500,-107.000,-206.500
2.837,263.500,-239.000,-107.000,-206.000
2.838,265.000,-238.500,-106.500,-205.500
2.839,267.000,-238.000,-106.500,-205.500
2.840,269.000,-238.000,-106.500,-205.500
2.841,271.500,-238.000,-106.500,-205.500
2.842,273.500,-238.000,-106.500,-206.000
2.843,275.000,-237.500,-107.000,-206.000
2.844,275.000,-237.500,-107.000,-206.500
2.845,275.000,-237.500,-107.000,-207.000
2.846,274.000,-237.500,-107.500,-207.500
2.847,272.500,-238.000,-107.500,-208.000
2.848,270.500,-238.000,-108.000,-208.500
2.849,268.500,-238.000,-108.000,-208.500
2.850,267.500,-238.000,-108.000,-208.500
2.851,266.000,-238.000,-108.000,-208.500
2.852,264.000,-238.000,-108.500,-208.500
2.853,262.500,-238.000,-108.500,-208.500
2.854,262.500,-238.000,-108.500,-208.500
2.855,263.500,-238.000,-108.500,-208.000
2.856,265.500,-238.000,-109.000,-208.000
2.857,268.500,-238.000,-109.000,-207.500
2.858,270.500,-237.500,-109.000,-207.500
2.859,272.000,-237.500,-109.000,-207.500
2.860,273.000,-237.000,-109.000,-207.500
2.861,273.500,-237.000,-109.000,-208.000
2.862,273.500,-237.000,-109.500,-208.000
2.863,273.000,-237.000,-109.500,-208.500
2.864,272.500,-237.500,-109.500,-208.500
2.865,272.000,-237.500,-109.500,-208.500
2.866,271.500,-238.000,-109.500,-208.500
2.867,271.000,-238.000,-109.500,-208.500
2.868,271.000,-238.500,-109.500,-209.000
2.869,272.500,-238.500,-110.000,-209.500
2.870,274.000,-239.000,-110.500,-210.000
2.871,276.000,-239.000,-111.000,-210.500
2.872,277.500,-239.000,-111.000,-210.500
2.873,278.000,-239.000,-111.000,-210.500
2.874,277.500,-238.500,-111.500,-210.500
2.875,277.000,-238.500,-111.500,-210.000
2.876,276.500,-238.500,-111.500,-210.000
2.877,275.000,-238.000,-111.500,-210.000
2.878,274.000,-238.000,-111.500,-209.500
2.879,273.500,-238.000,-111.500,-209.500
2.880,272.500,-237.500,-111.000,-209.000
2.881,271.500,-237.500,-111.000,-209.000
2.882,270.000,-237.500,-110.500,-209.000
2.883,268.500,-238.000,-110.500,-208.500
2.884,267.000,-238.000,-110.000,-208.500
2.885,266.000,-238.000,-110.000,-209.000
2.886,265.500,-238.000,-110.500,-209.000
2.887,264.500,-238.500,-110.500,-209.500
2.888,264.000,-238.500,-111.000,-209.500
2.889,263.000,-238.500,-111.000,-210.500
2.890,261.500,-239.000,-111.500,-211.000
2.891,261.000,-239.000,-111.500,-211.000
2.892,261.000,-238.500,-112.000,-211.500
2.893,262.500,-238.000,-111.500,-211.500
2.894,264.000,-237.500,-111.500,-211.500
2.895,265.000,-237.000,-111.000,-211.000
2.896,265.500,-236.500,-111.000,-211.000
2.897,266.000,-236.500,-110.500,-211.000
2.898,266.000,-236.000,-110.000,-210.500
2.899,266.000,-235.500,-110.000,-210.500
2.900,266.500,-235.500,-110.000,-210.500
2.901,267.000,-235.500,-110.000,-210.500
2.902,266.500,-236.000,-110.500,-210.500
2.903,265.500,-236.000,-110.500,-210.500
2.904,265.000,-236.000,-111.000,-211.000
2.905,265.000,-236.000,-111.000,-211.000
2.906,266.000,-236.000,-111.500,-211.500
2.907,267.000,-236.500,-112.000,-212.000
2.908,268.000,-236.500,-112.000,-212.000
2.909,268.000,-237.000,-113.000,-212.500
2.910,267.500,-237.500,-113.500,-213.000
2.911,267.500,-238.000,-114.000,-213.500
2.912,268.000,-238.500,-114.500,-213.500
2.913,268.000,-238.500,-114.500,-214.000
2.914,268.500,-238.500,-114.500,-214.000
2.915,269.500,-238.500,-114.500,-214.000
2.916,271.500,-238.000,-114.500,-213.500
2.917,272.500,-238.000,-114.500,-213.500
2.918,272.500,-238.000,-114.000,-213.000
2.919,272.500,-237.500,-114.000,-213.000
2.920,272.500,-237.500,-114.000,-213.000
2.921,272.500,-238.000,-114.000,-213.000
2.922,273.000,-238.000,-114.500,-213.500
2.923,273.500,-238.500,-114.500,-213.500
2.924,273.500,-239.000,-115.000,-213.500
2.925,273.500,-239.500,-115.000,-214.000
2.926,272.500,-240.000,-115.000,-214.000
2.927,271.000,-240.000,-115.500,-214.000
2.928,269.500,-240.000,-115.500,-214.500
2.929,268.500,-240.000,-115.500,-214.500
2.930,267.500,-239.500,-115.500,-215.000
2.931,266.000,-239.500,-115.500,-215.000
2.932,264.500,-239.000,-115.500,-215.000
2.933,265.000,-239.000,-115.500,-215.000
2.934,266.500,-239.000,-116.000,-214.500
2.935,268.500,-239.000,-116.000,-214.500
2.936,269.000,-238.500,-116.000,-214.500
2.937,267.500,-238.500,-116.000,-214.000
2.938,264.500,-238.000,-115.500,-214.000
2.939,262.500,-238.000,-115.500,-213.500
2.940,262.000,-237.500,-115.500,-213.500
2.941,263.000,-237.500,-115.000,-213.500
2.942,265.000,-238.000,-115.000,-213.500
2.943,268.000,-238.000,-115.000,-214.000
2.944,270.500,-238.000,-115.000,-214.000
2.945,273.500,-238.500,-115.000,-214.500
2.946,277.000,-239.000,-115.500,-215.000
2.947,279.500,-239.500,-115.500,-216.000
2.948,281.500,-240.000,-116.000,-216.500
2.949,282.000,-240.500,-116.000,-217.000
2.950,281.500,-241.000,-116.500,-217.500
2.951,280.500,-241.500,-116.500,-218.000
2.952,278.500,-241.500,-117.000,-218.500
2.953,276.500,-241.000,-117.000,-218.000
2.954,275.000,-240.500,-117.500,-218.000
2.955,274.500,-240.000,-117.500,-217.500
2.956,274.500,-240.000,-117.500,-217.000
2.957,273.500,-240.000,-117.500,-216.500
2.958,273.000,-239.500,-117.000,-216.000
2.959,273.000,-239.500,-117.000,-215.500
2.960,273.500,-239.500,-116.500,-214.500
2.961,273.500,-239.500,-116.500,-213.500
2.962,272.500,-239.000,-116.000,-213.000
2.963,271.000,-239.000,-116.000,-212.000
2.964,269.500,-239.000,-115.500,-211.500
2.965,267.000,-238.500,-115.000,-211.500
2.966,265.000,-238.500,-115.000,-211.000
2.967,264.000,-238.500,-115.000,-211.500
2.968,264.500,-238.500,-115.000,-211.500
2.969,265.000,-239.000,-115.500,-212.500
2.970,266.000,-239.000,-116.000,-213.000
2.971,267.000,-239.500,-116.000,-213.500
2.972,267.500,-239.500,-116.500,-214.000
2.973,267.500,-240.000,-116.500,-214.000
2.974,267.000,-239.500,-116.500,-214.000
2.975,266.500,-239.500,-116.500,-213.500
2.976,266.000,-239.500,-116.000,-212.500
2.977,266.500,-239.000,-116.000,-211.500
2.978,267.500,-238.500,-115.500,-210.500
2.979,268.500,-238.500,-115.000,-210.000
2.980,268.500,-238.500,-115.000,-210.000
2.981,267.500,-238.500,-115.000,-210.000
2.982,265.000,-239.000,-115.500,-210.000
