'Elapsed time','AECG1','AECG2','AECG3','AECG4'
'seconds','uV','uV','uV','uV'
0.000,5.500,6.000,6.500,2.000
0.001,49.500,50.000,55.000,15.000
0.002,56.500,57.500,63.000,17.500
0.003,60.500,61.500,67.500,18.500
0.004,62.000,63.000,69.000,18.500
0.005,62.500,64.000,69.500,18.500
0.006,62.500,64.000,69.500,18.500
0.007,62.500,64.000,69.500,18.500
0.008,62.500,64.000,70.000,18.500
0.009,62.500,64.000,70.000,18.500
0.010,62.500,64.000,70.000,18.000
0.011,62.500,64.000,70.000,18.000
0.012,62.000,64.000,70.000,18.500
0.013,62.000,64.000,70.000,18.500
0.014,62.000,63.500,69.500,18.000
0.015,61.500,63.000,69.500,18.000
0.016,61.500,62.500,69.000,17.500
0.017,60.500,62.000,68.000,17.000
0.018,60.000,61.000,67.500,16.000
0.019,59.000,60.000,66.500,15.000
0.020,57.500,59.000,65.500,14.000
0.021,56.000,57.000,64.000,13.000
0.022,54.000,55.500,62.000,11.500
0.023,52.500,53.500,60.500,10.000
0.024,51.000,52.000,59.000,9.000
0.025,49.500,51.000,58.000,8.500
0.026,49.000,50.000,57.000,8.000
0.027,48.500,50.000,57.000,8.000
0.028,49.000,50.000,57.500,8.500
0.029,49.500,51.000,58.000,9.500
0.030,50.500,52.000,59.500,10.500
0.031,52.000,53.500,60.500,11.500
0.032,53.500,55.500,62.500,13.000
0.033,55.500,58.000,64.500,14.500
0.034,57.500,60.500,66.000,16.000
0.035,59.500,63.000,68.000,17.500
0.036,61.000,65.000,69.500,19.000
0.037,62.500,66.500,71.000,20.500
0.038,63.500,68.000,72.000,21.500
0.039,63.500,68.500,73.000,22.000
0.040,64.000,68.500,73.000,22.000
0.041,63.500,68.500,73.000,22.000
0.042,62.500,67.500,72.000,21.000
0.043,61.500,66.500,71.000,20.000
0.044,60.000,65.000,69.500,19.000
0.045,59.000,63.500,68.000,18.000
0.046,58.000,62.500,67.000,17.000
0.047,57.000,62.000,66.000,16.500
0.048,57.000,61.500,65.500,16.000
0.049,56.500,61.000,65.500,16.000
0.050,56.000,60.500,65.000,16.000
0.051,55.500,60.500,65.000,16.000
0.052,55.500,60.000,64.500,16.000
0.053,55.000,60.000,64.500,16.000
0.054,54.500,60.000,64.500,15.500
0.055,54.500,59.500,64.000,15.500
0.056,54.000,59.000,63.500,15.000
0.057,53.500,58.500,63.000,14.500
0.058,53.500,58.000,63.000,14.000
0.059,53.000,58.000,62.500,13.500
0.060,53.000,57.500,62.000,13.500
0.061,52.500,57.500,61.500,13.500
0.062,52.500,57.000,61.500,13.000
0.063,52.000,57.000,61.500,13.000
0.064,52.500,57.000,61.500,13.000
0.065,52.500,57.000,61.500,13.500
0.066,53.000,57.500,62.000,14.000
0.067,53.500,57.500,62.000,14.500
0.068,53.500,57.500,62.000,14.500
0.069,53.500,57.500,62.000,15.000
0.070,53.500,58.000,62.000,15.000
0.071,53.500,58.000,62.000,15.000
0.072,53.500,57.500,61.500,15.000
0.073,53.500,57.500,61.500,15.000
0.074,53.000,57.500,61.000,15.000
0.075,53.000,57.000,60.500,14.500
0.076,52.500,56.500,60.000,14.500
0.077,52.000,56.000,59.500,14.000
0.078,52.000,56.000,59.500,13.500
0.079,51.500,55.500,59.000,13.000
0.080,51.500,55.000,59.000,13.000
0.081,51.000,54.500,58.500,12.500
0.082,51.000,54.000,58.500,12.500
0.083,50.500,54.000,59.000,13.000
0.084,51.000,54.000,59.000,13.000
0.085,51.000,54.500,59.000,13.500
0.086,51.500,55.000,59.500,14.000
0.087,52.000,55.500,59.500,14.500
0.088,52.000,56.000,59.500,15.000
0.089,52.500,56.000,60.000,15.000
0.090,52.500,56.500,59.500,15.000
0.091,52.500,56.000,59.500,15.000
0.092,52.500,56.000,59.500,15.000
0.093,52.500,55.500,59.000,15.000
0.094,52.000,55.000,59.000,15.000
0.095,51.500,54.500,58.500,15.500
0.096,51.500,54.000,58.000,15.500
0.097,51.000,54.000,57.500,15.000
0.098,51.000,53.500,57.500,15.000
0.099,50.500,53.000,57.000,15.000
0.100,50.500,53.000,57.000,15.000
0.101,50.500,53.000,56.500,14.500
0.102,50.000,53.000,56.500,14.500
0.103,50.500,53.000,56.000,14.500
0.104,50.500,53.500,56.000,14.500
0.105,50.500,53.500,56.500,15.000
0.106,51.000,54.000,56.500,15.500
0.107,51.500,54.500,57.000,16.000
0.108,52.000,54.500,57.000,16.000
0.109,52.000,54.500,57.500,16.500
0.110,52.500,55.000,57.500,16.500
0.111,52.500,55.000,58.000,16.500
0.112,52.500,55.000,58.000,16.500
0.113,52.500,55.000,57.500,16.500
0.114,52.500,54.500,57.500,16.000
0.115,52.000,54.500,57.000,16.000
0.116,52.000,54.500,57.000,16.000
0.117,51.500,54.000,57.000,16.000
0.118,51.500,54.000,57.000,16.000
0.119,51.500,54.000,56.500,16.000
0.120,51.500,54.000,56.500,16.000
0.121,51.500,53.500,56.500,16.000
0.122,51.500,53.500,56.000,16.000
0.123,52.000,53.500,56.000,16.000
0.124,52.000,53.500,56.000,16.000
0.125,52.000,53.500,56.000,16.000
0.126,52.500,53.500,56.500,16.000
0.127,52.500,53.500,56.500,16.500
0.128,53.000,53.500,57.000,16.500
0.129,53.000,54.000,57.000,17.000
0.130,53.500,54.000,57.500,17.000
0.131,53.500,54.000,57.500,17.000
0.132,54.000,54.000,57.500,17.500
0.133,54.000,54.500,57.500,17.500
0.134,54.000,54.500,57.500,17.500
0.135,54.000,55.000,57.500,18.000
0.136,54.000,55.000,57.500,18.000
0.137,54.000,55.000,57.000,17.500
0.138,53.500,55.000,57.000,17.500
0.139,53.500,54.500,57.000,17.500
0.140,53.500,54.500,57.000,17.500
0.141,53.500,54.500,56.500,18.000
0.142,54.000,55.000,56.500,18.000
0.143,54.000,55.000,56.500,18.500
0.144,54.000,55.000,56.500,19.000
0.145,54.000,55.000,56.500,19.000
0.146,54.000,55.000,56.500,19.500
0.147,54.000,55.000,56.500,19.500
0.148,54.000,54.500,57.000,20.000
0.149,54.500,54.500,57.000,20.500
0.150,54.500,55.000,57.500,20.500
0.151,54.500,55.000,57.500,20.500
0.152,55.000,55.000,57.500,20.500
0.153,55.000,55.500,57.500,20.500
0.154,55.500,55.500,57.500,20.500
0.155,55.500,55.500,57.500,20.500
0.156,56.000,55.500,57.500,20.500
0.157,56.000,55.500,57.500,20.500
0.158,56.500,55.000,57.500,21.000
0.159,57.000,55.000,57.500,21.000
0.160,57.000,55.000,58.000,21.500
0.161,57.500,55.000,58.000,21.500
0.162,57.500,55.000,58.500,22.000
0.163,58.000,55.500,58.500,22.000
0.164,58.000,56.000,58.500,22.000
0.165,58.000,56.000,58.500,22.000
0.166,58.500,56.500,59.000,22.500
0.167,59.000,57.000,59.000,22.500
0.168,59.500,57.500,59.000,23.000
0.169,59.500,58.000,59.500,23.000
0.170,60.000,58.500,59.500,23.500
0.171,60.000,59.000,60.000,23.500
0.172,60.000,59.000,60.000,24.000
0.173,60.500,59.000,60.000,24.000
0.174,60.500,59.000,60.000,24.000
0.175,60.500,59.000,60.000,24.000
0.176,60.500,59.000,60.000,24.000
0.177,60.500,58.500,60.000,24.000
0.178,60.500,58.500,60.000,24.000
0.179,60.500,58.500,60.000,24.000
0.180,61.000,58.500,60.000,24.000
0.181,61.000,59.000,60.000,24.000
0.182,61.000,59.000,60.000,24.500
0.183,61.000,59.500,60.500,24.500
0.184,61.000,59.500,60.500,24.500
0.185,60.500,59.500,60.500,25.000
0.186,61.000,60.000,60.500,25.000
0.187,61.000,60.000,61.000,25.500
0.188,61.500,60.000,61.000,25.500
0.189,62.000,60.500,61.500,26.000
0.190,62.500,60.500,62.000,26.500
0.191,63.000,61.000,62.500,26.500
0.192,63.000,60.500,62.500,26.500
0.193,63.000,60.500,62.500,26.500
0.194,63.000,60.500,62.000,26.500
0.195,63.000,60.000,62.000,26.500
0.196,62.500,60.000,61.500,26.500
0.197,62.500,59.500,61.000,26.500
0.198,62.000,59.500,61.000,26.000
0.199,62.000,59.000,60.500,25.500
0.200,62.000,59.500,60.500,25.500
0.201,62.000,59.500,60.000,25.500
0.202,62.000,59.500,60.000,26.000
0.203,62.500,59.500,60.000,26.000
0.204,62.500,59.500,60.500,26.000
0.205,63.000,59.500,60.500,26.500
0.206,63.000,59.500,60.500,26.500
0.207,63.000,60.000,61.000,26.500
0.208,63.500,60.000,61.000,27.000
0.209,63.000,60.000,61.000,27.000
0.210,63.000,60.000,61.000,27.000
0.211,63.500,60.500,61.000,27.000
0.212,63.500,60.500,61.000,27.500
0.213,63.500,60.500,61.000,28.000
0.214,63.500,61.000,61.000,28.000
0.215,63.500,61.000,60.500,28.000
0.216,63.500,60.500,60.500,27.500
0.217,63.000,60.500,60.000,27.500
0.218,63.000,60.000,59.500,27.000
0.219,63.000,60.000,59.000,26.500
0.220,63.000,59.500,58.500,26.500
0.221,63.000,59.500,58.500,26.500
0.222,63.000,59.000,58.500,26.000
0.223,62.500,59.000,58.500,26.000
0.224,63.000,59.000,58.500,26.000
0.225,63.000,59.000,59.000,26.000
0.226,63.000,59.500,59.000,26.500
0.227,63.500,59.500,59.500,26.500
0.228,63.500,60.000,60.000,27.000
0.229,64.000,60.000,60.000,27.500
0.230,64.000,60.500,60.500,28.000
0.231,64.500,60.500,60.500,28.500
0.232,64.500,61.000,61.000,29.000
0.233,64.500,61.000,60.500,29.000
0.234,64.500,61.000,60.500,29.000
0.235,64.500,61.000,60.500,29.500
0.236,64.500,61.000,60.000,29.500
0.237,64.000,61.000,60.000,29.500
0.238,64.000,60.500,60.000,29.500
0.239,64.000,60.500,60.000,29.500
0.240,64.000,61.000,60.000,29.500
0.241,64.000,61.000,60.000,29.500
0.242,64.000,61.000,60.500,29.500
0.243,64.000,61.000,60.500,30.000
0.244,64.500,61.500,60.500,30.500
0.245,65.000,62.000,61.000,31.000
0.246,65.500,62.500,61.500,31.500
0.247,66.000,63.000,62.000,32.000
0.248,66.500,63.500,62.000,33.000
0.249,66.500,63.500,62.500,33.500
0.250,67.000,64.000,63.000,33.500
0.251,67.000,64.000,63.500,34.000
0.252,67.500,64.000,64.000,34.000
0.253,67.500,64.000,64.000,34.500
0.254,67.500,63.500,64.000,34.500
0.255,67.000,63.500,64.000,34.500
0.256,66.500,63.000,63.500,34.500
0.257,66.500,63.000,63.000,34.500
0.258,66.000,63.000,63.000,34.500
0.259,66.000,62.500,62.500,34.500
0.260,65.500,62.500,62.500,34.500
0.261,65.500,62.000,62.500,34.000
0.262,65.500,62.500,62.000,34.000
0.263,66.000,62.500,62.000,33.500
0.264,66.000,62.500,62.000,33.500
0.265,66.500,63.000,62.000,33.500
0.266,66.500,63.000,62.000,33.500
0.267,67.000,63.500,62.000,33.000
0.268,67.000,63.500,62.000,33.000
0.269,67.500,64.000,62.000,33.000
0.270,68.000,64.500,62.500,33.500
0.271,68.000,64.500,62.500,33.500
0.272,68.000,65.000,62.500,33.500
0.273,68.000,65.000,62.500,33.500
0.274,68.000,65.000,62.000,34.000
0.275,68.000,64.500,62.000,34.000
0.276,68.000,64.500,62.000,34.500
0.277,68.000,64.500,62.000,34.500
0.278,68.000,64.500,62.000,34.500
0.279,68.000,64.500,62.000,34.500
0.280,68.000,64.500,62.000,34.000
0.281,68.500,64.500,62.000,34.000
0.282,68.500,64.500,62.000,33.500
0.283,68.500,64.500,62.000,33.500
0.284,69.000,65.000,62.000,33.500
0.285,69.000,65.500,62.000,33.500
0.286,69.000,65.500,62.000,33.500
0.287,69.500,66.000,62.000,33.500
0.288,69.500,65.500,62.000,33.500
0.289,69.500,65.500,62.000,33.500
0.290,70.000,65.500,62.000,33.500
0.291,70.000,65.500,62.000,34.500
0.292,70.500,65.500,62.500,35.000
0.293,70.500,66.000,62.500,35.500
0.294,70.000,66.000,62.500,35.500
0.295,70.000,66.000,62.500,35.500
0.296,70.000,66.000,62.500,35.500
0.297,70.000,66.000,62.500,35.000
0.298,69.500,66.000,62.500,35.000
0.299,69.500,65.500,62.000,34.500
0.300,69.000,65.500,61.500,34.500
0.301,69.000,65.500,61.500,34.500
0.302,69.000,65.500,61.500,35.000
0.303,69.000,65.500,61.500,35.000
0.304,69.500,65.500,62.000,35.500
0.305,70.000,66.000,62.500,36.000
0.306,70.500,66.500,62.500,36.000
0.307,71.000,66.500,63.000,36.500
0.308,71.500,67.500,63.500,36.500
0.309,72.000,68.000,63.500,37.000
0.310,72.500,68.500,64.000,37.000
0.311,72.500,68.500,64.000,37.000
0.312,72.500,68.500,64.000,37.000
0.313,72.500,68.500,64.000,36.500
0.314,72.500,68.500,63.500,36.500
0.315,72.000,68.000,63.500,36.500
0.316,72.000,67.500,63.000,36.000
0.317,71.500,67.500,62.500,36.000
0.318,71.000,67.000,62.000,35.500
0.319,71.000,67.000,62.000,35.000
0.320,71.000,66.500,61.500,35.000
0.321,70.500,66.500,61.500,34.500
0.322,70.500,66.500,61.500,34.500
0.323,71.000,67.000,61.500,34.500
0.324,71.000,67.000,61.500,35.000
0.325,71.000,67.000,62.000,35.000
0.326,71.500,67.500,62.500,35.500
0.327,71.500,68.000,62.500,35.500
0.328,72.000,68.000,63.000,36.000
0.329,72.500,68.500,63.000,36.500
0.330,73.000,69.000,63.000,36.500
0.331,73.000,69.000,63.000,37.000
0.332,73.500,69.000,63.000,37.000
0.333,73.500,69.000,63.000,37.000
0.334,73.500,69.000,62.500,37.000
0.335,73.000,68.500,62.500,36.500
0.336,73.000,68.500,62.000,36.500
0.337,72.500,68.000,61.500,36.000
0.338,72.000,67.500,61.500,35.500
0.339,72.000,67.500,61.000,35.500
0.340,71.500,67.000,60.500,35.000
0.341,71.500,66.500,60.000,34.500
0.342,71.000,66.000,59.000,33.500
0.343,70.500,65.000,58.000,32.500
0.344,69.500,64.000,56.500,31.000
0.345,68.500,63.000,55.000,30.000
0.346,67.500,62.000,54.000,29.000
0.347,66.500,61.000,52.500,28.000
0.348,65.500,60.000,51.500,27.000
0.349,65.000,59.000,50.500,26.000
0.350,64.000,58.000,49.500,25.000
0.351,62.500,57.000,48.500,24.500
0.352,61.500,56.000,47.500,23.500
0.353,60.000,55.000,46.500,23.000
0.354,59.000,54.000,45.500,22.500
0.355,57.500,53.000,44.500,22.500
0.356,56.500,52.000,43.500,22.500
0.357,55.500,51.000,43.000,22.500
0.358,54.500,50.500,43.000,23.000
0.359,53.500,50.000,43.000,23.500
0.360,53.000,50.000,43.500,24.500
0.361,52.500,50.500,44.000,26.500
0.362,52.000,50.500,44.500,28.000
0.363,51.500,51.000,45.500,30.000
0.364,51.500,51.500,46.500,32.000
0.365,51.500,51.500,47.000,33.500
0.366,51.000,52.000,47.500,35.000
0.367,51.000,52.000,48.500,36.000
0.368,51.000,52.500,49.000,37.000
0.369,51.000,52.500,49.500,37.500
0.370,51.000,52.500,50.000,37.500
0.371,51.500,53.000,50.500,38.000
0.372,52.500,54.000,51.500,38.500
0.373,54.000,55.500,52.500,39.500
0.374,56.500,58.000,54.500,40.500
0.375,59.000,60.500,56.000,42.000
0.376,62.500,63.500,58.000,43.500
0.377,65.500,66.000,60.000,45.000
0.378,68.500,69.000,62.000,46.000
0.379,72.000,72.000,64.500,47.000
0.380,75.500,75.000,67.000,48.500
0.381,79.500,78.500,70.000,50.000
0.382,83.000,81.500,72.500,51.500
0.383,86.000,84.500,75.000,53.000
0.384,88.500,87.000,77.000,54.500
0.385,90.500,89.000,78.000,55.500
0.386,91.500,90.000,79.000,56.000
0.387,92.000,90.500,79.000,56.500
0.388,92.000,91.000,79.000,56.500
0.389,91.500,90.500,78.500,56.000
0.390,90.500,89.000,77.000,55.000
0.391,88.500,86.500,74.500,53.000
0.392,85.500,83.000,71.500,50.500
0.393,82.500,79.500,67.500,47.500
0.394,79.000,75.500,64.000,44.500
0.395,76.000,72.000,60.000,42.000
0.396,73.000,69.000,57.000,39.500
0.397,70.500,67.000,54.000,37.500
0.398,69.000,65.000,52.500,36.000
0.399,68.000,64.500,51.500,35.000
0.400,68.000,64.500,51.000,35.000
0.401,68.500,65.000,51.500,35.500
0.402,69.500,66.000,52.500,36.000
0.403,71.000,68.000,54.000,37.500
0.404,73.000,70.000,56.000,39.000
0.405,75.000,72.500,58.500,40.500
0.406,77.500,75.000,60.500,42.500
0.407,79.500,77.500,62.500,44.500
0.408,81.500,79.000,64.500,46.000
0.409,83.000,80.500,65.500,47.000
0.410,84.000,81.500,66.000,48.000
0.411,84.500,81.500,66.000,48.000
0.412,84.000,81.000,65.000,47.500
0.413,83.000,80.000,64.000,46.500
0.414,82.000,79.000,62.500,45.500
0.415,81.000,77.500,61.500,44.500
0.416,80.000,76.500,60.000,43.500
0.417,79.000,75.000,59.000,43.000
0.418,78.000,74.000,58.000,42.000
0.419,77.500,73.500,57.500,42.000
0.420,77.000,73.000,57.000,41.500
0.421,76.500,72.500,57.000,41.000
0.422,76.500,72.500,57.000,41.000
0.423,76.500,72.000,56.500,41.000
0.424,76.500,72.500,56.500,41.000
0.425,77.000,72.500,56.500,41.000
0.426,77.000,73.000,56.500,41.000
0.427,77.500,73.000,57.000,41.000
0.428,77.500,73.500,57.000,41.000
0.429,78.000,73.500,57.500,41.500
0.430,78.000,74.000,57.500,41.500
0.431,78.500,74.500,57.500,41.500
0.432,79.000,74.500,57.500,41.500
0.433,79.000,75.000,57.500,41.500
0.434,79.500,75.000,57.000,41.500
0.435,79.500,75.000,57.000,41.000
0.436,79.000,74.500,56.500,41.000
0.437,79.000,74.500,56.000,41.000
0.438,78.500,74.000,56.000,40.500
0.439,78.500,74.000,55.500,40.500
0.440,78.500,74.000,55.500,40.500
0.441,78.500,74.000,55.500,40.500
0.442,78.500,74.000,55.500,40.500
0.443,78.500,74.000,55.500,40.500
0.444,78.000,74.000,55.000,40.500
0.445,78.000,74.000,55.000,40.500
0.446,78.000,74.000,55.000,40.500
0.447,78.000,74.500,55.500,40.500
0.448,78.000,74.500,55.500,41.000
0.449,78.500,75.000,56.000,41.000
0.450,78.500,75.500,56.000,41.000
0.451,79.000,75.500,55.500,41.500
0.452,79.000,76.000,55.500,41.000
0.453,79.000,76.000,55.500,41.000
0.454,79.000,75.500,55.000,41.000
0.455,78.500,75.500,55.000,41.000
0.456,78.500,75.500,55.000,41.000
0.457,78.500,76.000,55.000,41.000
0.458,78.500,76.000,55.000,41.000
0.459,78.500,76.500,55.000,41.000
0.460,78.500,76.500,55.000,41.000
0.461,78.500,76.000,54.500,41.000
0.462,78.000,76.000,54.500,41.000
0.463,78.000,75.500,54.000,40.500
0.464,78.000,75.500,54.000,40.500
0.465,78.000,76.000,54.000,40.500
0.466,78.000,76.000,53.500,40.500
0.467,78.000,76.000,53.500,40.500
0.468,78.000,76.500,53.500,40.500
0.469,78.500,76.500,53.500,41.000
0.470,78.500,77.000,54.000,41.000
0.471,79.000,77.000,54.000,41.500
0.472,79.500,77.500,54.500,41.500
0.473,80.000,77.500,54.500,42.000
0.474,80.000,77.500,54.500,42.000
0.475,80.500,77.500,54.500,42.000
0.476,80.500,77.000,54.500,42.000
0.477,80.000,76.500,54.000,41.500
0.478,80.000,76.500,53.500,41.000
0.479,79.500,76.000,53.500,41.000
0.480,79.500,76.000,53.000,40.500
0.481,79.500,76.500,53.000,40.500
0.482,79.500,76.500,53.500,40.500
0.483,79.500,76.500,53.500,41.000
0.484,79.500,76.500,53.500,41.000
0.485,79.500,77.000,53.500,41.000
0.486,80.000,77.000,53.500,41.500
0.487,80.000,77.500,53.500,41.500
0.488,80.000,77.500,53.500,42.000
0.489,80.000,78.000,53.500,42.500
0.490,80.500,78.000,53.500,43.000
0.491,80.500,78.500,53.500,43.000
0.492,80.500,78.500,53.500,43.000
0.493,80.500,78.500,53.500,43.000
0.494,80.500,78.500,53.500,43.000
0.495,80.500,78.500,53.000,42.500
0.496,80.500,78.000,53.000,42.500
0.497,80.500,78.000,52.500,42.500
0.498,80.500,77.500,52.500,42.000
0.499,81.000,77.500,52.000,42.000
0.500,81.000,77.000,51.500,42.000
0.501,81.000,77.000,51.500,41.500
0.502,81.000,77.500,51.500,41.500
0.503,81.000,77.500,51.500,41.500
0.504,81.000,77.500,51.500,41.500
0.505,81.000,77.500,51.500,41.500
0.506,81.000,77.500,51.500,41.500
0.507,81.000,77.500,51.500,41.500
0.508,81.000,78.000,51.500,41.500
0.509,81.000,78.000,51.500,41.500
0.510,81.500,78.000,51.000,42.000
0.511,81.500,78.500,51.000,42.000
0.512,82.000,78.500,51.000,42.000
0.513,82.000,78.500,51.000,42.000
0.514,82.000,78.500,51.000,41.500
0.515,81.500,78.500,50.500,41.500
0.516,81.500,78.000,50.500,41.000
0.517,81.000,78.000,50.000,40.500
0.518,81.000,78.000,49.500,40.500
0.519,80.500,78.000,49.500,40.500
0.520,80.000,78.000,49.000,40.500
0.521,80.000,77.500,49.000,41.000
0.522,80.000,77.500,48.500,41.000
0.523,80.000,77.500,48.500,41.000
0.524,80.000,77.500,48.500,41.000
0.525,80.500,77.500,49.000,41.500
0.526,81.000,77.500,49.000,41.500
0.527,81.000,78.000,49.500,42.000
0.528,81.500,78.000,49.500,42.500
0.529,82.000,78.500,49.500,43.000
0.530,82.500,78.500,49.500,43.500
0.531,82.500,79.000,50.000,43.500
0.532,83.000,79.500,50.000,44.000
0.533,83.500,79.500,50.000,44.000
0.534,83.500,79.500,50.000,44.000
0.535,83.000,79.500,50.000,44.000
0.536,83.000,79.000,49.500,44.000
0.537,82.500,78.500,49.000,43.500
0.538,82.000,78.500,48.500,43.000
0.539,81.500,78.000,48.000,43.000
0.540,81.500,78.000,48.000,42.500
0.541,81.500,78.000,48.000,42.500
0.542,81.500,78.000,48.000,42.500
0.543,81.500,78.000,48.500,42.500
0.544,81.500,78.500,49.000,43.000
0.545,81.500,79.000,49.500,43.000
0.546,82.000,79.500,49.500,43.500
0.547,82.500,79.500,50.000,44.000
0.548,83.000,80.000,50.000,44.000
0.549,83.500,80.500,50.500,44.500
0.550,83.500,80.500,50.500,44.500
0.551,84.000,80.500,50.500,44.500
0.552,84.000,81.000,50.500,44.500
0.553,84.000,81.000,50.500,44.500
0.554,84.000,81.000,50.500,45.000
0.555,84.500,81.500,50.500,45.500
0.556,84.500,81.500,50.500,45.500
0.557,85.000,81.500,50.500,46.000
0.558,85.000,82.000,50.500,46.000
0.559,85.000,81.500,50.500,46.000
0.560,85.000,81.500,50.500,46.000
0.561,85.500,81.500,51.000,46.000
0.562,85.500,82.000,51.000,46.000
0.563,86.000,82.000,51.000,46.500
0.564,86.000,82.500,51.500,47.000
0.565,86.500,82.500,51.500,47.000
0.566,86.500,83.000,51.500,47.500
0.567,87.000,83.500,52.000,48.000
0.568,87.000,84.000,52.500,48.500
0.569,87.500,84.500,53.000,49.000
0.570,88.000,85.000,53.000,49.500
0.571,88.000,85.500,53.000,49.500
0.572,88.500,86.000,53.000,50.000
0.573,88.500,86.000,52.500,50.000
0.574,88.500,86.000,52.500,50.000
0.575,89.000,86.500,52.500,50.000
0.576,89.000,86.500,52.500,50.000
0.577,89.000,86.500,52.500,50.000
0.578,89.000,87.000,52.500,50.000
0.579,89.000,87.000,53.000,50.500
0.580,89.500,87.000,53.000,50.500
0.581,89.500,87.000,53.000,51.000
0.582,89.500,87.000,53.000,51.500
0.583,90.000,87.500,53.000,52.000
0.584,90.000,87.500,53.500,52.500
0.585,90.500,88.000,54.000,53.000
0.586,91.000,88.500,54.500,53.500
0.587,91.000,88.500,55.000,54.000
0.588,91.500,89.000,55.000,54.000
0.589,92.000,89.000,55.000,54.000
0.590,92.000,89.000,55.000,54.000
0.591,92.000,89.000,55.000,54.000
0.592,92.000,89.000,55.000,54.000
0.593,92.000,89.000,55.000,54.000
0.594,92.000,89.000,54.500,54.000
0.595,91.500,88.500,54.500,54.000
0.596,91.500,88.500,54.000,54.000
0.597,91.000,88.000,54.000,54.000
0.598,91.000,87.500,53.500,54.000
0.599,91.000,87.500,53.500,54.000
0.600,91.000,87.500,53.500,54.000
0.601,91.500,87.500,53.500,54.000
0.602,91.500,88.000,53.500,54.000
0.603,92.000,88.000,53.500,54.500
0.604,92.000,88.500,53.500,54.500
0.605,92.500,89.000,53.500,55.000
0.606,92.500,89.000,53.500,55.000
0.607,92.500,89.000,54.000,55.500
0.608,93.000,89.000,54.000,56.000
0.609,93.000,89.000,54.000,56.000
0.610,93.000,89.000,54.000,56.000
0.611,93.000,89.000,54.000,56.000
0.612,93.000,89.000,54.000,56.000
0.613,93.000,89.000,53.500,55.500
0.614,93.000,89.000,53.000,55.000
0.615,92.500,88.500,52.500,55.000
0.616,92.500,88.000,52.000,54.500
0.617,92.000,88.000,51.500,54.000
0.618,92.000,87.500,50.500,53.500
0.619,91.500,87.000,50.500,53.500
0.620,91.500,86.500,50.000,53.000
0.621,91.500,86.500,49.500,52.500
0.622,91.500,86.500,49.500,52.500
0.623,91.500,87.000,49.000,52.000
0.624,91.500,87.000,49.000,52.000
0.625,91.500,87.500,49.000,52.000
0.626,92.000,87.500,49.000,52.000
0.627,92.000,87.500,49.000,52.000
0.628,92.000,88.000,49.000,52.000
0.629,92.000,88.000,49.000,52.000
0.630,92.000,87.500,49.000,52.000
0.631,92.000,87.500,48.500,52.000
0.632,92.000,87.500,48.500,51.500
0.633,91.500,87.500,48.500,51.500
0.634,91.500,87.500,48.000,51.000
0.635,91.000,87.000,47.500,51.000
0.636,90.500,87.000,47.000,50.500
0.637,90.000,86.500,46.500,50.500
0.638,89.500,86.000,46.000,50.000
0.639,89.000,85.500,45.500,49.500
0.640,89.000,85.000,45.000,49.000
0.641,88.500,85.000,45.000,49.000
0.642,88.500,84.500,44.500,48.500
0.643,88.000,84.500,44.000,48.500
0.644,88.000,84.500,44.000,48.500
0.645,88.000,84.000,43.500,48.500
0.646,88.500,84.000,43.500,48.000
0.647,88.500,84.000,43.500,48.000
0.648,88.500,84.500,43.500,48.000
0.649,88.500,84.500,43.000,48.000
0.650,88.500,84.500,43.000,48.000
0.651,88.000,84.500,42.500,47.500
0.652,88.000,84.000,42.500,47.500
0.653,88.000,84.000,42.000,47.500
0.654,88.000,83.500,42.000,47.000
0.655,88.000,83.500,41.500,47.000
0.656,88.000,83.000,41.000,46.500
0.657,87.500,83.000,40.500,46.000
0.658,87.500,82.500,40.000,45.500
0.659,87.000,82.500,39.500,45.000
0.660,87.000,82.500,39.000,45.000
0.661,87.000,82.500,39.000,44.500
0.662,86.500,82.500,39.000,45.000
0.663,86.500,83.000,39.000,45.000
0.664,87.000,83.000,39.500,45.500
0.665,87.000,83.500,39.500,46.000
0.666,87.000,83.500,39.500,46.000
0.667,87.500,83.500,39.500,46.000
0.668,87.500,84.000,39.500,46.500
0.669,87.500,84.000,39.000,46.500
0.670,87.500,84.000,39.000,46.500
0.671,87.500,84.000,38.500,46.500
0.672,87.500,83.500,38.500,46.500
0.673,87.000,83.500,38.500,46.500
0.674,87.000,83.500,38.000,46.500
0.675,87.500,83.500,38.000,46.500
0.676,87.500,83.500,38.000,46.500
0.677,87.500,84.000,37.500,46.500
0.678,88.000,84.000,37.500,47.000
0.679,88.000,84.500,37.500,47.000
0.680,88.000,84.500,37.000,47.000
0.681,88.000,84.500,37.000,47.000
0.682,88.000,84.500,37.000,47.000
0.683,88.000,84.500,37.500,47.000
0.684,88.000,84.500,37.500,47.000
0.685,88.000,85.000,37.500,47.500
0.686,88.500,85.000,37.500,48.000
0.687,88.500,85.000,37.000,48.000
0.688,88.500,85.000,37.000,48.000
0.689,88.500,85.000,36.500,47.500
0.690,88.500,85.000,36.500,47.500
0.691,88.500,85.000,36.500,47.500
0.692,88.500,85.500,36.500,47.500
0.693,88.500,85.500,36.500,47.500
0.694,88.500,85.500,36.500,47.500
0.695,88.500,85.000,36.500,47.500
0.696,88.000,85.000,36.000,47.500
0.697,88.000,85.000,36.000,47.000
0.698,88.000,84.500,35.500,47.000
0.699,87.500,84.500,35.000,46.500
0.700,87.500,84.500,35.000,46.500
0.701,87.000,84.500,35.000,46.500
0.702,87.000,84.500,35.000,46.500
0.703,87.000,84.500,35.000,46.500
0.704,87.000,84.500,35.000,47.000
0.705,87.000,84.500,35.000,47.000
0.706,87.500,84.500,35.500,47.500
0.707,87.500,85.000,35.500,47.500
0.708,87.500,85.500,35.500,48.000
0.709,88.000,85.500,35.500,48.000
0.710,88.000,86.000,35.500,48.000
0.711,87.500,86.000,35.000,48.000
0.712,87.500,86.000,35.000,47.500
0.713,87.000,85.500,35.000,47.000
0.714,87.000,85.500,34.500,47.000
0.715,86.500,85.000,34.000,47.000
0.716,86.500,84.500,34.000,47.000
0.717,86.500,84.500,33.500,47.000
0.718,86.000,84.000,33.000,46.500
0.719,86.000,84.000,32.500,46.500
0.720,86.000,84.000,32.500,46.500
0.721,85.500,84.000,32.500,46.500
0.722,85.500,84.000,32.500,46.500
0.723,85.500,84.000,32.500,46.500
0.724,85.500,84.000,32.500,46.500
0.725,85.500,84.000,33.000,46.500
0.726,86.000,84.500,33.000,47.000
0.727,86.000,84.500,33.000,47.000
0.728,86.000,85.000,33.000,47.500
0.729,86.000,85.000,33.000,47.500
0.730,85.500,85.000,33.000,47.500
0.731,85.500,85.000,32.500,48.000
0.732,85.500,85.000,32.500,48.000
0.733,85.500,85.000,32.500,48.000
0.734,85.500,85.000,32.000,48.000
0.735,85.500,85.000,31.500,48.000
0.736,85.000,84.500,31.000,48.000
0.737,84.500,84.500,31.000,48.000
0.738,84.500,84.500,30.500,48.000
0.739,84.500,84.000,30.500,48.000
0.740,84.000,84.000,30.500,48.000
0.741,84.000,84.000,30.000,48.000
0.742,84.500,83.500,30.000,48.000
0.743,84.500,83.500,30.500,48.000
0.744,84.500,84.000,31.000,48.500
0.745,85.000,84.000,31.000,48.500
0.746,85.000,84.500,32.000,49.000
0.747,85.500,85.000,32.000,49.000
0.748,86.000,85.000,32.500,49.500
0.749,86.000,85.500,32.500,49.500
0.750,86.000,85.500,32.500,50.000
0.751,86.000,86.000,32.500,50.000
0.752,85.500,85.500,32.500,50.500
0.753,85.000,85.000,32.000,50.000
0.754,84.500,84.500,31.000,49.500
0.755,83.500,83.000,30.000,48.500
0.756,82.000,81.500,28.000,47.500
0.757,80.000,79.500,26.000,45.500
0.758,78.000,77.000,24.000,44.000
0.759,76.000,75.000,22.000,42.500
0.760,74.000,73.000,20.000,40.500
0.761,72.000,71.000,18.000,39.500
0.762,71.000,70.000,17.000,38.500
0.763,70.500,69.500,16.500,37.500
0.764,70.000,69.500,16.500,37.500
0.765,70.500,70.000,17.000,38.000
0.766,71.500,71.000,18.500,39.000
0.767,73.500,72.500,20.000,40.500
0.768,75.500,75.000,22.000,42.500
0.769,78.000,77.500,24.500,45.000
0.770,80.500,81.000,27.500,47.000
0.771,83.500,84.000,30.000,49.000
0.772,86.000,87.000,33.000,51.000
0.773,88.000,89.500,35.000,52.500
0.774,89.500,91.000,36.500,54.000
0.775,91.000,92.500,38.000,55.000
0.776,91.500,93.000,38.500,55.000
0.777,91.500,93.000,38.000,55.000
0.778,91.000,92.500,37.500,54.500
0.779,90.000,91.000,36.000,54.000
0.780,88.500,90.000,34.500,52.500
0.781,87.500,88.500,33.000,51.500
0.782,86.500,87.000,32.000,51.000
0.783,85.500,86.000,31.500,50.500
0.784,85.000,85.500,31.000,50.000
0.785,85.000,85.500,30.500,50.000
0.786,85.000,85.500,30.500,50.000
0.787,85.000,86.000,30.500,50.500
0.788,85.500,86.000,30.500,50.500
0.789,85.500,86.000,30.500,50.500
0.790,85.500,86.500,30.500,50.500
0.791,86.000,86.500,30.500,50.500
0.792,86.000,86.500,30.500,50.500
0.793,86.000,86.500,30.500,50.500
0.794,85.500,86.000,30.500,50.500
0.795,85.500,85.500,30.500,50.500
0.796,85.500,85.500,30.000,50.500
0.797,85.500,85.000,30.000,50.000
0.798,85.500,85.000,29.500,50.000
0.799,85.500,85.000,29.500,50.000
0.800,86.000,85.000,29.500,50.000
0.801,86.000,85.500,29.500,50.000
0.802,86.000,85.500,29.500,49.500
0.803,86.000,86.000,29.500,49.500
0.804,86.000,86.000,29.500,50.000
0.805,86.500,86.500,29.500,50.000
0.806,86.500,86.500,29.500,50.000
0.807,86.500,86.500,29.500,50.000
0.808,86.500,86.500,29.500,50.000
0.809,86.500,86.000,29.500,50.000
0.810,86.500,86.500,29.500,50.000
0.811,86.500,86.500,29.500,50.000
0.812,87.000,86.500,29.000,50.000
0.813,87.000,86.500,29.000,50.000
0.814,87.000,86.500,29.000,50.000
0.815,87.000,86.500,28.500,50.000
0.816,86.500,86.000,28.500,50.000
0.817,86.500,86.000,28.000,50.000
0.818,86.500,86.000,28.000,50.000
0.819,86.500,85.500,27.500,50.000
0.820,86.000,85.500,27.500,50.000
0.821,86.000,85.500,27.500,49.500
0.822,86.000,85.500,27.000,49.500
0.823,85.500,85.500,27.000,49.000
0.824,85.000,85.500,27.000,49.000
0.825,85.000,85.500,26.500,49.000
0.826,85.000,85.500,26.500,48.500
0.827,85.000,85.500,26.500,48.500
0.828,85.000,85.500,26.500,48.500
0.829,85.000,85.500,26.500,48.500
0.830,85.000,85.500,26.500,48.500
0.831,85.000,85.500,26.500,48.500
0.832,85.000,85.500,26.500,48.500
0.833,84.500,85.500,26.500,48.500
0.834,84.500,85.500,26.000,48.500
0.835,84.500,85.500,26.000,48.500
0.836,84.000,85.500,25.500,48.500
0.837,84.000,85.500,25.500,48.500
0.838,84.000,85.000,25.500,48.000
0.839,83.500,85.000,25.000,48.000
0.840,83.000,84.500,25.000,47.500
0.841,83.000,84.500,25.000,47.500
0.842,83.000,84.500,25.000,47.500
0.843,83.000,84.500,25.000,47.500
0.844,83.000,84.500,25.000,48.000
0.845,83.000,85.000,25.000,48.000
0.846,83.500,85.500,25.500,48.500
0.847,83.500,86.000,26.000,49.000
0.848,84.000,86.500,26.500,49.000
0.849,84.500,87.000,27.000,49.500
0.850,84.500,87.000,27.000,49.500
0.851,84.500,87.500,27.500,50.000
0.852,85.000,87.500,28.000,50.000
0.853,85.000,87.500,28.000,50.500
0.854,85.000,87.500,28.000,50.500
0.855,85.000,87.500,28.000,50.500
0.856,85.000,87.500,27.500,50.500
0.857,84.500,87.000,27.500,50.500
0.858,84.500,87.000,27.000,50.000
0.859,84.000,86.500,27.000,50.500
0.860,84.000,86.500,27.000,50.500
0.861,84.000,86.500,27.000,51.000
0.862,84.500,86.500,27.500,51.500
0.863,84.500,86.500,27.500,52.000
0.864,84.500,86.500,27.500,52.000
0.865,85.000,87.000,28.000,52.000
0.866,85.500,87.500,28.500,52.500
0.867,86.000,88.000,29.000,53.000
0.868,86.000,88.500,29.500,53.000
0.869,86.500,89.000,30.000,53.500
0.870,87.000,89.000,30.500,54.000
0.871,87.000,89.000,30.500,54.000
0.872,87.000,89.000,30.500,54.000
0.873,87.500,89.500,30.500,54.500
0.874,87.000,89.500,31.000,54.500
0.875,87.000,89.500,31.000,54.500
0.876,87.000,89.500,31.000,54.000
0.877,87.000,89.500,30.500,54.000
0.878,87.000,89.500,30.500,53.500
0.879,86.500,89.500,30.500,53.500
0.880,86.500,89.000,30.000,53.500
0.881,86.500,89.000,30.000,53.500
0.882,86.500,89.000,30.500,53.500
0.883,86.000,89.000,30.500,53.500
0.884,86.000,88.500,30.500,53.500
0.885,86.000,89.000,30.500,53.000
0.886,86.500,89.000,31.000,53.000
0.887,86.500,89.500,31.000,53.500
0.888,87.000,89.500,31.000,53.500
0.889,87.000,90.000,31.000,53.500
0.890,87.500,90.000,31.500,53.500
0.891,87.500,90.000,31.500,53.500
0.892,87.500,90.500,32.000,53.500
0.893,87.500,90.500,32.000,53.500
0.894,87.500,90.000,32.000,53.000
0.895,87.500,90.000,32.000,53.000
0.896,87.500,90.000,32.000,53.000
0.897,87.500,90.000,31.500,53.000
0.898,87.500,89.500,31.500,52.500
0.899,87.000,90.000,31.500,52.500
0.900,87.000,90.000,31.500,52.500
0.901,87.000,90.000,32.000,52.500
0.902,87.500,90.000,32.000,52.500
0.903,87.500,90.000,32.000,52.500
0.904,87.500,90.500,32.000,52.500
0.905,87.500,90.500,31.500,52.500
0.906,87.000,90.500,31.500,52.500
0.907,87.500,91.000,31.500,52.500
0.908,87.500,91.000,32.000,52.500
0.909,87.500,91.500,32.000,53.000
0.910,87.500,91.500,32.000,53.000
0.911,87.500,91.500,32.000,52.500
0.912,87.500,91.500,32.000,52.500
0.913,87.500,91.500,32.000,52.500
0.914,87.500,91.500,32.500,53.000
0.915,87.500,91.000,32.500,53.000
0.916,87.500,91.000,32.000,52.500
0.917,87.000,91.000,32.000,52.500
0.918,87.000,90.500,32.000,52.000
0.919,86.500,90.500,31.500,52.000
0.920,86.000,90.500,31.500,52.000
0.921,85.500,90.500,31.500,52.000
0.922,85.500,90.500,31.500,52.000
0.923,85.000,90.500,31.500,52.500
0.924,85.500,91.000,31.500,52.500
0.925,85.500,91.500,32.000,52.500
0.926,86.500,92.000,32.500,53.000
0.927,87.000,92.500,33.000,53.500
0.928,87.500,93.000,33.500,53.500
0.929,87.500,93.500,34.000,54.000
0.930,87.500,93.500,34.000,54.000
0.931,87.500,94.000,34.000,54.000
0.932,87.500,94.000,34.000,54.000
0.933,87.500,93.500,34.000,54.000
0.934,87.500,93.500,34.000,53.500
0.935,87.500,93.500,33.500,53.500
0.936,87.500,93.000,33.500,53.000
0.937,87.000,93.000,33.500,52.500
0.938,86.500,92.500,33.000,52.000
0.939,86.500,92.500,33.000,51.500
0.940,86.500,92.000,33.000,51.500
0.941,86.500,92.000,33.000,51.500
0.942,86.500,92.500,33.500,52.000
0.943,86.500,92.500,33.500,52.000
0.944,86.500,93.000,33.500,52.000
0.945,87.000,93.000,33.500,52.500
0.946,87.000,93.000,33.500,52.500
0.947,87.500,93.500,34.000,52.500
0.948,87.500,93.500,34.000,53.000
0.949,87.500,94.000,34.500,53.000
0.950,87.500,94.000,34.500,53.000
0.951,88.000,94.500,35.000,53.000
0.952,88.000,94.500,35.000,53.000
0.953,88.000,94.500,35.000,53.000
0.954,88.000,94.500,35.000,53.000
0.955,88.000,94.500,35.000,53.000
0.956,87.500,94.500,35.000,53.000
0.957,87.000,94.000,34.500,52.500
0.958,87.000,93.500,34.500,52.500
0.959,87.000,93.500,34.000,52.000
0.960,86.500,93.000,33.500,52.000
0.961,86.500,92.500,33.500,51.500
0.962,86.500,92.500,33.000,51.000
0.963,86.000,92.000,32.500,50.500
0.964,85.500,91.500,32.000,49.500
0.965,85.000,90.500,31.500,48.000
0.966,84.000,90.000,30.500,47.000
0.967,83.000,88.500,29.500,46.000
0.968,82.000,87.500,28.000,44.500
0.969,81.000,86.500,27.000,43.500
0.970,79.500,85.000,25.500,42.500
0.971,78.500,84.000,24.000,41.000
0.972,77.000,82.000,22.500,40.000
0.973,75.500,80.500,21.000,39.000
0.974,74.000,79.000,20.000,38.000
0.975,72.500,77.500,19.000,37.500
0.976,71.000,76.500,18.000,36.500
0.977,69.500,75.000,17.000,36.000
0.978,68.500,74.000,16.000,35.500
0.979,67.500,73.000,15.500,35.500
0.980,66.500,72.500,15.500,36.000
0.981,66.000,72.500,15.500,37.000
0.982,65.500,72.500,16.500,38.500
0.983,65.500,73.000,17.500,40.000
0.984,65.500,73.500,19.000,42.000
0.985,65.500,74.500,20.000,44.500
0.986,65.500,75.000,21.500,46.500
0.987,65.500,75.500,22.500,48.500
0.988,65.500,76.000,24.000,50.500
0.989,65.500,76.500,25.000,52.000
0.990,66.000,77.000,26.000,53.500
0.991,66.500,77.500,27.000,54.500
0.992,66.500,78.000,27.500,55.500
0.993,67.000,78.500,28.000,56.000
0.994,67.500,79.000,28.500,56.500
0.995,68.000,80.000,29.500,57.000
0.996,69.500,81.000,30.500,57.500
0.997,71.000,82.500,32.500,58.500
0.998,73.500,84.500,34.000,59.500
0.999,76.000,87.000,36.000,60.500
1.000,79.000,89.000,38.000,61.500
1.001,81.500,91.500,40.000,62.500
1.002,85.000,94.000,42.500,63.500
1.003,88.500,97.500,45.500,64.500
1.004,92.500,101.000,48.500,66.500
1.005,96.500,104.500,52.000,68.500
1.006,100.500,108.500,55.000,70.000
1.007,103.500,111.500,57.500,72.000
1.008,106.000,114.000,59.500,73.000
1.009,107.500,115.500,61.000,74.500
1.010,109.000,117.000,62.000,75.000
1.011,109.500,117.500,62.500,75.500
1.012,109.500,117.000,62.500,75.500
1.013,108.500,116.500,61.500,74.500
1.014,107.500,115.000,60.500,73.500
1.015,106.500,113.500,58.500,72.000
1.016,104.500,111.500,56.500,70.000
1.017,102.500,109.500,54.000,68.000
1.018,100.500,107.000,52.000,66.000
1.019,98.500,105.000,49.500,64.000
1.020,96.500,103.000,47.500,62.000
1.021,95.000,101.500,46.000,61.000
1.022,94.000,100.000,44.500,59.500
1.023,93.000,98.500,43.500,58.500
1.024,92.500,98.000,42.500,58.000
1.025,91.500,97.000,42.000,57.500
1.026,91.000,96.500,41.500,57.000
1.027,90.500,96.000,41.000,56.500
1.028,90.500,96.000,41.000,56.500
1.029,90.000,95.500,41.000,56.000
1.030,90.000,95.500,41.000,56.000
1.031,90.000,95.500,41.000,56.000
1.032,90.000,95.500,40.500,56.000
1.033,90.000,96.000,40.500,55.500
1.034,90.000,95.500,40.500,55.500
1.035,89.500,95.500,40.000,55.500
1.036,89.500,95.000,40.000,55.000
1.037,89.000,94.500,40.000,55.000
1.038,89.000,94.500,40.000,54.500
1.039,88.500,94.000,39.500,54.500
1.040,88.500,94.000,40.000,55.000
1.041,88.500,94.500,40.000,55.000
1.042,88.500,94.500,40.000,55.000
1.043,89.000,95.000,40.000,55.000
1.044,89.000,95.500,40.000,55.000
1.045,89.000,96.000,40.500,55.000
1.046,89.000,96.000,41.000,55.500
1.047,89.500,96.500,41.000,55.500
1.048,89.500,97.000,41.500,56.000
1.049,90.000,97.000,42.000,56.000
1.050,90.000,97.000,42.500,56.500
1.051,90.500,97.500,42.500,56.500
1.052,90.500,97.500,43.000,56.500
1.053,90.500,97.000,43.000,56.000
1.054,90.500,97.000,42.500,56.000
1.055,90.500,97.000,42.500,56.000
1.056,90.500,96.500,42.000,56.000
1.057,90.000,96.500,42.000,56.000
1.058,90.000,96.000,42.000,55.500
1.059,90.000,96.000,42.000,55.500
1.060,89.500,95.500,42.500,55.000
1.061,89.500,95.500,42.500,55.500
1.062,89.500,95.500,42.500,55.500
1.063,90.000,96.000,42.500,56.000
1.064,90.000,96.000,42.500,56.000
1.065,90.000,96.500,43.000,56.500
1.066,90.500,97.000,43.000,57.000
1.067,90.500,97.000,43.500,57.000
1.068,90.500,97.500,44.000,57.500
1.069,90.500,97.500,44.000,57.500
1.070,90.500,97.500,44.000,57.000
1.071,90.500,97.500,44.500,57.000
1.072,91.000,97.500,44.500,57.000
1.073,91.000,97.500,44.500,57.000
1.074,91.000,97.000,44.500,57.000
1.075,90.500,96.500,44.500,57.000
1.076,90.000,96.500,44.000,56.500
1.077,89.500,96.000,43.500,56.500
1.078,89.000,95.500,43.500,56.000
1.079,89.000,95.000,43.000,56.000
1.080,88.500,95.000,43.000,56.000
1.081,88.000,95.000,43.000,56.000
1.082,88.000,95.000,43.500,56.000
1.083,88.000,95.000,43.500,56.500
1.084,87.500,94.500,43.500,56.000
1.085,87.500,94.500,43.000,56.000
1.086,88.000,94.500,43.000,56.000
1.087,88.000,94.500,43.000,56.000
1.088,88.000,94.500,43.000,56.000
1.089,88.000,94.500,43.000,56.000
1.090,88.000,95.000,43.000,56.000
1.091,88.000,95.000,43.000,56.000
1.092,88.000,95.000,43.000,56.000
1.093,88.000,95.000,43.000,55.500
1.094,87.500,94.500,43.500,55.500
1.095,87.500,94.500,43.500,55.000
1.096,87.000,94.000,43.000,55.000
1.097,86.500,94.000,43.000,54.500
1.098,86.500,93.500,43.000,54.000
1.099,86.000,93.500,42.500,54.000
1.100,85.500,93.000,42.500,53.500
1.101,85.500,93.000,42.000,53.500
1.102,85.500,93.000,42.000,53.500
1.103,85.000,93.000,42.000,53.500
1.104,85.000,93.000,41.500,53.500
1.105,85.000,93.000,41.500,53.500
1.106,85.000,93.000,41.500,53.500
1.107,85.000,93.500,42.000,53.500
1.108,85.500,93.500,42.500,53.500
1.109,85.500,94.000,42.500,54.000
1.110,86.000,94.000,43.000,54.000
1.111,86.500,94.500,43.500,54.500
1.112,87.000,94.500,43.500,54.500
1.113,87.500,94.500,44.000,54.500
1.114,87.500,94.500,44.000,54.000
1.115,87.500,94.500,44.000,53.500
1.116,87.500,94.500,43.500,53.500
1.117,87.000,94.000,43.000,53.000
1.118,86.500,93.500,42.500,52.500
1.119,86.000,93.000,42.000,52.000
1.120,85.000,92.000,41.000,51.500
1.121,84.000,91.000,40.500,51.000
1.122,83.000,89.500,39.000,50.500
1.123,81.500,88.000,37.500,49.500
1.124,80.000,86.000,36.000,48.000
1.125,78.500,84.500,34.500,47.000
1.126,77.000,82.500,32.500,45.500
1.127,75.500,81.500,31.500,44.500
1.128,74.500,80.500,30.500,43.500
1.129,74.000,80.000,30.500,43.500
1.130,74.000,80.000,30.500,43.500
1.131,74.500,81.000,31.500,44.000
1.132,76.000,82.500,32.500,45.000
1.133,77.500,84.000,34.500,46.000
1.134,80.000,86.500,36.500,47.500
1.135,82.000,88.500,39.000,49.000
1.136,84.500,91.000,41.500,51.000
1.137,86.500,93.500,43.500,52.500
1.138,88.500,95.500,45.500,54.000
1.139,90.000,97.000,47.000,55.500
1.140,91.000,98.000,48.000,56.000
1.141,91.500,98.500,48.500,56.500
1.142,91.000,99.000,48.500,56.500
1.143,91.000,98.500,48.000,56.000
1.144,90.000,97.500,47.500,55.500
1.145,89.500,97.000,46.500,55.000
1.146,88.500,95.500,46.000,54.500
1.147,87.500,95.000,45.500,54.000
1.148,87.000,94.000,45.000,53.500
1.149,86.500,93.500,44.500,53.000
1.150,86.000,93.000,44.500,52.500
1.151,85.500,92.500,44.000,52.500
1.152,85.500,92.500,44.000,52.500
1.153,85.500,92.500,44.500,52.500
1.154,85.500,92.500,44.500,52.500
1.155,85.500,92.500,44.500,52.000
1.156,85.500,92.000,44.500,52.000
1.157,85.500,92.000,44.500,52.000
1.158,85.500,92.000,44.500,52.000
1.159,85.000,91.500,44.500,51.500
1.160,84.500,91.500,44.500,51.500
1.161,84.500,91.500,44.000,51.500
1.162,84.500,91.500,44.000,52.000
1.163,84.500,91.000,44.000,52.000
1.164,84.500,91.000,44.000,52.500
1.165,84.500,91.000,44.500,53.000
1.166,84.500,91.500,45.000,53.000
1.167,85.000,92.000,45.000,53.500
1.168,85.000,92.000,45.500,53.500
1.169,85.500,92.500,45.500,53.500
1.170,85.500,92.500,45.500,53.500
1.171,85.500,92.500,45.500,53.500
1.172,85.500,92.500,46.000,53.500
1.173,85.500,92.000,46.000,53.500
1.174,85.500,92.000,45.500,53.500
1.175,85.500,91.500,45.500,53.500
1.176,85.500,91.500,45.500,53.500
1.177,85.000,91.000,45.500,53.500
1.178,85.000,90.500,45.000,53.500
1.179,85.000,90.500,45.000,53.500
1.180,84.500,90.500,45.000,53.500
1.181,84.500,90.500,45.000,53.500
1.182,84.500,90.500,45.000,53.500
1.183,84.500,90.500,45.000,54.000
1.184,84.500,90.500,45.000,54.000
1.185,84.500,91.000,45.500,54.500
1.186,84.500,91.000,46.000,54.500
1.187,84.500,91.500,46.000,55.000
1.188,85.000,92.000,46.500,55.000
1.189,85.000,92.000,47.000,55.000
1.190,85.500,92.000,47.000,55.000
1.191,85.500,92.000,47.000,55.000
1.192,85.500,91.500,47.000,55.000
1.193,85.500,91.500,47.000,55.500
1.194,85.500,92.000,47.000,55.500
1.195,85.500,92.000,47.000,56.000
1.196,85.500,92.000,47.000,56.000
1.197,85.500,92.000,47.000,56.000
1.198,85.500,92.000,47.000,55.500
1.199,85.500,92.000,47.000,55.500
1.200,85.000,92.000,47.000,56.000
1.201,85.000,92.000,47.000,56.000
1.202,85.000,92.000,47.000,56.000
1.203,85.000,92.000,47.500,56.000
1.204,84.500,92.000,47.500,56.000
1.205,85.000,92.000,47.500,56.500
1.206,85.000,92.000,47.500,57.000
1.207,85.000,92.500,48.000,57.500
1.208,85.500,92.500,48.000,57.500
1.209,85.500,93.000,48.000,57.500
1.210,85.500,93.000,48.500,58.000
1.211,85.000,93.000,48.500,58.000
1.212,85.000,93.000,48.500,58.000
1.213,85.000,93.000,48.500,58.000
1.214,85.000,92.500,48.000,58.000
1.215,85.000,92.000,48.000,57.500
1.216,85.000,91.500,48.000,57.500
1.217,84.500,91.000,47.500,57.000
1.218,84.500,90.500,47.500,56.500
1.219,84.500,90.500,47.500,56.500
1.220,84.500,90.000,47.500,56.500
1.221,84.500,90.000,47.500,56.500
1.222,84.500,90.000,47.500,56.000
1.223,84.500,90.000,47.500,56.000
1.224,84.500,89.500,47.500,56.000
1.225,84.500,89.500,47.500,56.000
1.226,84.500,90.000,48.000,56.500
1.227,85.000,90.000,48.500,56.500
1.228,85.000,90.500,48.500,56.500
1.229,85.000,90.500,48.500,56.500
1.230,85.000,91.000,48.500,56.000
1.231,85.000,91.000,48.500,56.000
1.232,85.000,90.500,48.500,55.500
1.233,84.500,90.500,48.000,55.500
1.234,84.500,90.000,47.500,55.000
1.235,84.000,90.000,47.500,54.500
1.236,83.500,89.500,47.000,54.000
1.237,83.000,89.000,46.500,53.500
1.238,83.000,88.500,46.000,53.000
1.239,82.500,88.000,45.500,52.500
1.240,82.000,87.500,45.500,52.000
1.241,82.000,87.000,45.000,51.500
1.242,82.000,86.500,44.500,51.000
1.243,81.500,86.500,44.000,50.500
1.244,81.500,86.500,44.000,50.500
1.245,81.000,86.000,43.500,50.500
1.246,81.000,86.000,43.500,50.000
1.247,81.000,86.000,43.500,49.500
1.248,81.000,86.000,43.500,49.000
1.249,80.500,85.500,43.000,49.000
1.250,80.500,85.500,43.000,48.500
1.251,80.500,85.000,42.500,48.000
1.252,80.500,84.500,42.000,47.500
1.253,80.500,84.000,41.500,47.000
1.254,80.000,83.500,41.000,46.500
1.255,80.000,83.500,41.000,46.000
1.256,79.500,83.000,40.500,46.000
1.257,79.500,83.000,40.000,45.500
1.258,79.000,83.000,40.000,45.500
1.259,78.500,82.500,40.000,45.000
1.260,78.500,82.500,39.500,44.500
1.261,78.000,82.500,39.500,44.500
1.262,78.000,82.000,39.000,44.000
1.263,78.000,82.000,38.500,44.000
1.264,77.500,82.000,38.500,43.500
1.265,77.500,81.500,38.500,43.500
1.266,78.000,81.500,38.500,43.000
1.267,78.000,81.500,39.000,42.500
1.268,78.000,81.500,39.000,42.500
1.269,78.500,82.000,39.000,42.500
1.270,78.500,82.000,39.500,42.500
1.271,78.500,82.000,39.500,42.000
1.272,78.500,82.000,39.500,42.000
1.273,79.000,82.000,39.500,42.000
1.274,78.500,82.000,39.500,42.000
1.275,78.500,81.500,39.000,41.500
1.276,78.000,81.000,38.500,41.000
1.277,78.000,80.500,38.500,41.000
1.278,77.500,80.500,38.000,40.500
1.279,77.000,80.000,37.500,40.000
1.280,76.500,79.500,37.000,39.500
1.281,76.500,79.000,36.500,39.000
1.282,76.000,79.000,36.500,38.500
1.283,76.000,79.000,36.500,38.500
1.284,76.000,79.000,36.500,38.500
1.285,76.000,79.000,36.500,38.500
1.286,76.000,79.000,37.000,38.500
1.287,76.500,79.500,37.000,38.500
1.288,76.500,79.500,37.500,38.500
1.289,76.500,80.000,37.500,38.500
1.290,76.500,80.000,38.000,38.000
1.291,76.500,80.000,37.500,38.000
1.292,76.500,80.000,37.500,37.500
1.293,76.500,80.000,37.500,37.500
1.294,76.500,80.000,37.500,37.000
1.295,76.500,80.000,37.500,37.000
1.296,76.500,80.000,37.500,37.000
1.297,76.500,79.500,37.500,36.500
1.298,76.500,79.500,37.500,36.500
1.299,76.500,79.500,37.500,36.500
1.300,76.000,79.000,37.500,36.500
1.301,76.000,79.000,37.500,36.000
1.302,76.000,78.500,37.500,36.000
1.303,75.500,78.500,37.500,36.000
1.304,75.500,78.500,37.500,36.000
1.305,76.000,78.500,38.000,36.000
1.306,76.000,79.000,38.500,36.000
1.307,76.000,79.000,38.500,36.500
1.308,76.000,79.500,39.000,36.500
1.309,76.000,79.500,39.500,36.500
1.310,76.000,80.000,39.500,36.500
1.311,76.000,80.000,39.500,36.500
1.312,76.000,80.000,39.500,36.500
1.313,76.000,80.000,39.500,36.500
1.314,76.000,80.000,39.500,36.500
1.315,76.000,80.000,39.500,36.500
1.316,75.500,79.500,39.500,36.500
1.317,75.500,79.500,39.500,36.000
1.318,75.500,79.500,39.000,36.000
1.319,75.500,79.500,39.000,36.000
1.320,75.500,79.500,39.000,36.000
1.321,75.000,79.500,39.000,35.500
1.322,75.000,79.500,39.000,35.000
1.323,75.000,79.500,39.000,35.000
1.324,75.000,79.500,39.000,35.000
1.325,75.000,80.000,39.000,35.000
1.326,75.500,80.000,39.000,35.500
1.327,76.000,80.000,39.000,36.000
1.328,76.000,80.000,39.500,36.000
1.329,76.000,80.000,39.500,36.500
1.330,76.000,80.000,39.500,36.500
1.331,76.000,80.000,39.500,36.500
1.332,76.000,80.000,39.500,36.500
1.333,76.000,80.000,39.500,36.500
1.334,75.500,79.500,39.500,36.500
1.335,75.500,79.500,39.500,36.500
1.336,75.000,79.500,39.000,36.000
1.337,74.500,79.000,39.000,35.500
1.338,74.000,79.000,39.000,35.000
1.339,73.500,78.500,38.500,35.000
1.340,73.500,78.500,38.500,34.500
1.341,73.000,78.000,38.500,34.500
1.342,73.000,78.000,38.000,34.500
1.343,72.500,77.500,38.000,34.500
1.344,72.500,77.500,38.000,34.500
1.345,73.000,77.500,38.500,34.500
1.346,73.000,78.000,38.500,34.500
1.347,73.000,78.500,39.000,34.500
1.348,73.500,78.500,39.500,35.000
1.349,73.500,79.000,40.000,35.000
1.350,74.000,79.500,40.000,35.000
1.351,74.000,79.500,40.500,35.000
1.352,74.000,79.500,40.500,35.000
1.353,73.500,79.500,40.000,35.000
1.354,73.500,79.000,40.000,35.000
1.355,73.000,78.500,39.500,34.500
1.356,73.000,78.000,39.500,34.000
1.357,72.500,77.500,39.000,33.500
1.358,72.000,77.000,38.500,33.000
1.359,72.000,76.500,38.000,32.500
1.360,72.000,76.500,38.000,32.500
1.361,72.000,76.500,38.000,32.500
1.362,72.000,76.500,38.000,32.500
1.363,72.000,76.500,38.000,32.500
1.364,72.000,77.000,38.000,32.500
1.365,72.500,77.000,38.500,33.000
1.366,72.500,77.500,39.000,33.000
1.367,72.500,78.000,39.000,33.500
1.368,73.000,78.000,39.500,33.500
1.369,73.000,78.000,39.500,33.500
1.370,73.000,78.000,40.000,33.500
1.371,73.000,78.000,40.000,33.500
1.372,73.500,78.500,40.000,34.000
1.373,73.500,78.500,40.000,34.000
1.374,73.500,78.500,40.500,34.000
1.375,73.500,78.500,40.500,34.000
1.376,73.500,78.000,40.500,34.000
1.377,73.500,78.000,40.500,33.500
1.378,73.000,78.000,40.000,33.500
1.379,73.000,77.500,40.000,33.000
1.380,73.000,77.500,40.000,33.000
1.381,73.000,77.500,39.500,32.500
1.382,72.500,77.000,40.000,32.500
1.383,72.500,77.000,40.000,32.000
1.384,73.000,77.000,40.000,32.000
1.385,73.000,77.000,40.000,32.000
1.386,72.500,77.000,40.000,31.500
1.387,72.500,76.500,40.000,31.500
1.388,72.500,76.500,40.000,31.500
1.389,72.000,76.500,40.000,31.000
1.390,72.000,76.500,39.500,31.000
1.391,72.000,76.500,39.500,31.000
1.392,72.000,76.500,39.500,31.000
1.393,71.500,76.500,39.500,31.000
1.394,71.500,76.500,39.500,31.000
1.395,71.500,76.000,39.500,30.500
1.396,71.000,76.000,39.000,30.000
1.397,71.000,75.500,38.500,29.500
1.398,70.500,75.000,38.000,29.500
1.399,70.000,74.500,38.000,29.000
1.400,69.500,74.500,38.000,29.000
1.401,69.000,74.000,37.500,29.000
1.402,69.000,73.500,37.500,29.000
1.403,68.500,73.500,37.500,28.500
1.404,68.500,73.500,37.500,28.500
1.405,68.500,73.500,37.500,28.000
1.406,68.500,73.500,37.500,28.000
1.407,69.000,73.500,37.000,28.000
1.408,69.000,73.500,37.000,28.000
1.409,69.500,74.000,37.500,28.000
1.410,69.500,74.000,37.500,28.500
1.411,70.000,74.500,37.500,28.500
1.412,70.000,74.500,38.000,28.500
1.413,70.000,74.000,38.000,28.500
1.414,70.000,73.500,37.500,28.000
1.415,69.500,73.000,37.000,28.000
1.416,69.000,72.500,37.000,27.500
1.417,69.000,72.500,36.500,27.500
1.418,68.500,72.000,36.000,27.000
1.419,68.000,72.000,36.000,27.000
1.420,68.000,72.000,36.000,27.000
1.421,68.000,72.500,36.000,27.000
1.422,68.500,72.500,36.500,27.000
1.423,68.500,72.500,36.500,27.000
1.424,68.500,72.500,36.500,27.000
1.425,69.000,73.000,36.500,27.000
1.426,69.000,73.000,37.000,27.000
1.427,69.000,73.000,37.000,27.000
1.428,69.000,73.000,37.000,27.000
1.429,69.000,73.000,37.000,26.500
1.430,69.000,73.000,37.000,26.500
1.431,69.000,73.000,37.000,26.500
1.432,69.000,73.000,37.000,26.000
1.433,69.000,73.000,36.500,26.000
1.434,69.000,72.500,36.500,25.500
1.435,68.500,72.000,36.000,25.500
1.436,68.500,71.500,36.000,25.000
1.437,68.000,71.500,35.500,25.000
1.438,68.000,71.000,35.000,24.500
1.439,67.500,70.500,35.000,24.500
1.440,67.000,70.000,34.500,24.000
1.441,67.000,69.500,34.500,24.000
1.442,67.000,69.500,34.000,24.000
1.443,67.000,69.500,34.000,24.000
1.444,67.000,69.500,34.500,24.500
1.445,67.000,69.500,34.500,24.500
1.446,67.000,69.500,34.500,24.500
1.447,67.500,69.500,34.500,24.500
1.448,67.500,69.500,34.500,24.500
1.449,67.500,69.500,34.500,24.500
1.450,67.500,69.000,34.500,24.500
1.451,67.500,69.000,34.000,24.000
1.452,67.000,68.500,34.000,24.000
1.453,67.000,68.000,33.500,23.500
1.454,67.000,68.000,33.500,23.500
1.455,66.500,67.500,33.000,23.500
1.456,66.500,67.500,33.000,23.500
1.457,66.000,67.000,33.000,23.500
1.458,66.000,67.000,32.500,23.000
1.459,66.000,66.500,32.500,23.000
1.460,66.000,66.500,32.500,23.000
1.461,66.000,66.500,33.000,23.000
1.462,66.000,66.500,33.000,23.500
1.463,66.000,66.500,33.500,23.500
1.464,66.000,66.500,33.500,23.500
1.465,66.000,66.500,33.500,23.500
1.466,65.500,66.500,33.500,24.000
1.467,65.500,67.000,34.000,24.500
1.468,66.000,67.000,34.000,24.500
1.469,66.000,67.000,34.000,24.500
1.470,66.000,67.000,34.500,25.000
1.471,66.000,67.000,34.500,24.500
1.472,65.500,67.000,34.500,24.500
1.473,65.500,67.000,34.500,24.500
1.474,65.500,67.000,34.500,24.000
1.475,65.500,67.000,34.500,24.000
1.476,66.000,67.000,35.000,24.500
1.477,66.000,67.000,35.000,24.500
1.478,66.000,67.500,35.500,25.000
1.479,66.500,67.500,35.500,25.000
1.480,66.500,68.000,36.000,25.500
1.481,66.500,68.000,36.000,25.500
1.482,67.000,68.000,36.500,26.000
1.483,67.000,68.000,36.500,26.000
1.484,67.000,68.000,36.500,26.500
1.485,67.000,68.000,36.500,26.500
1.486,67.000,68.000,36.500,26.500
1.487,66.500,67.500,36.000,26.000
1.488,66.000,66.500,35.000,25.500
1.489,64.500,65.500,34.000,24.500
1.490,63.000,63.500,32.500,23.000
1.491,61.000,61.500,30.500,21.500
1.492,58.500,59.000,28.500,19.500
1.493,56.500,56.500,26.500,18.000
1.494,55.000,54.500,24.500,16.500
1.495,53.500,53.000,23.500,15.500
1.496,52.500,52.500,22.500,14.500
1.497,52.500,52.000,22.000,13.500
1.498,52.500,52.500,22.500,13.500
1.499,53.000,53.500,23.500,14.000
1.500,54.500,54.500,25.000,15.000
1.501,56.000,56.500,27.000,16.500
1.502,58.500,59.000,29.000,18.500
1.503,61.000,61.500,31.500,20.500
1.504,63.500,64.000,34.000,22.500
1.505,65.500,66.500,36.500,24.500
1.506,68.000,69.000,38.500,26.000
1.507,69.500,71.000,40.500,27.000
1.508,71.000,72.000,41.500,27.500
1.509,71.500,73.000,42.500,27.500
1.510,71.500,72.500,42.500,27.500
1.511,71.000,72.000,41.500,27.000
1.512,70.000,71.000,40.500,26.000
1.513,68.500,69.500,39.500,25.000
1.514,67.500,68.500,38.500,24.000
1.515,66.000,67.500,37.500,22.500
1.516,65.000,66.500,36.500,22.000
1.517,64.500,65.500,35.500,21.000
1.518,64.000,65.000,35.000,20.500
1.519,63.500,64.000,35.000,20.500
1.520,63.500,63.500,34.500,20.500
1.521,63.000,63.500,34.500,20.000
1.522,63.000,63.000,34.500,20.000
1.523,63.000,63.000,34.500,20.500
1.524,63.000,63.500,35.000,20.500
1.525,63.000,63.500,35.500,20.500
1.526,63.500,64.000,35.500,21.000
1.527,63.500,64.500,36.000,21.000
1.528,64.000,64.500,36.500,21.000
1.529,64.000,65.000,36.500,21.000
1.530,64.500,65.000,37.000,21.500
1.531,64.500,65.000,37.500,21.500
1.532,64.500,65.500,37.500,21.500
1.533,64.500,65.000,38.000,22.000
1.534,64.500,65.000,37.500,21.500
1.535,64.000,64.500,37.500,21.500
1.536,63.500,64.000,37.000,21.000
1.537,63.000,63.500,36.500,20.500
1.538,62.500,63.000,36.000,20.000
1.539,62.000,62.500,36.000,19.500
1.540,62.000,62.500,35.500,19.000
1.541,61.500,62.000,35.500,19.000
1.542,61.500,62.000,35.500,18.500
1.543,61.500,62.000,35.500,18.500
1.544,61.500,62.000,36.000,18.500
1.545,61.500,62.000,36.000,19.000
1.546,62.000,62.500,36.500,19.000
1.547,62.000,62.500,36.500,19.500
1.548,62.000,63.000,37.000,20.000
1.549,62.500,63.000,37.500,20.500
1.550,62.500,63.500,37.500,20.500
1.551,62.500,63.500,38.000,20.500
1.552,63.000,63.500,38.000,20.500
1.553,63.000,64.000,38.000,20.000
1.554,63.000,63.500,38.000,20.000
1.555,62.500,63.500,38.000,20.000
1.556,62.500,63.500,38.000,20.000
1.557,62.000,63.000,38.000,20.000
1.558,61.500,62.500,38.000,20.000
1.559,61.500,62.000,37.500,19.500
1.560,61.000,62.000,37.500,19.500
1.561,61.000,61.500,37.500,19.500
1.562,61.000,61.500,37.500,19.500
1.563,61.000,62.000,37.500,20.000
1.564,61.000,62.000,37.500,20.000
1.565,61.000,62.000,37.500,20.000
1.566,61.000,62.500,37.500,20.500
1.567,61.000,62.500,38.000,20.500
1.568,61.000,62.500,38.000,20.500
1.569,60.500,62.500,38.000,20.500
1.570,60.500,62.500,38.000,20.000
1.571,60.500,62.000,37.500,20.000
1.572,60.000,61.500,37.000,19.500
1.573,59.000,61.000,36.500,18.500
1.574,58.000,60.000,35.500,17.500
1.575,57.000,58.500,34.000,16.000
1.576,55.500,57.000,32.500,14.500
1.577,53.500,55.500,31.000,12.500
1.578,52.000,53.500,29.000,11.000
1.579,50.000,51.500,27.000,9.000
1.580,48.500,49.500,25.500,7.500
1.581,46.500,48.000,23.500,6.500
1.582,45.000,46.500,22.500,5.500
1.583,43.500,45.000,21.000,4.500
1.584,42.000,44.000,20.000,3.500
1.585,41.000,42.500,19.500,3.000
1.586,39.500,41.500,18.500,2.500
1.587,38.500,40.500,18.500,2.500
1.588,37.500,39.500,18.500,3.000
1.589,36.500,39.000,18.500,4.000
1.590,35.500,39.000,18.500,5.000
1.591,35.000,39.000,19.000,6.500
1.592,34.500,39.000,19.500,8.000
1.593,34.000,39.500,20.500,9.500
1.594,33.500,39.500,21.000,11.000
1.595,32.500,39.500,21.500,12.500
1.596,32.000,39.500,22.000,13.500
1.597,31.000,39.000,22.500,14.500
1.598,30.500,39.000,22.500,15.500
1.599,30.000,39.000,23.000,16.500
1.600,29.500,39.000,23.000,17.000
1.601,30.000,39.000,23.500,18.000
1.602,30.500,40.000,24.500,18.500
1.603,31.500,41.000,26.000,20.000
1.604,33.000,42.500,28.000,21.500
1.605,36.000,45.500,30.500,23.500
1.606,39.500,48.500,33.500,25.500
1.607,43.500,52.500,37.000,28.500
1.608,48.000,56.500,40.500,31.000
1.609,52.000,60.500,44.000,33.000
1.610,56.000,64.000,47.500,35.000
1.611,60.000,68.000,51.000,37.000
1.612,64.500,72.000,54.000,39.000
1.613,68.500,75.500,57.500,40.500
1.614,72.500,79.000,60.500,42.000
1.615,75.500,82.000,62.500,43.000
1.616,77.500,83.500,64.000,44.000
1.617,78.500,84.500,64.500,44.000
1.618,79.000,85.000,64.500,43.500
1.619,78.500,84.500,64.000,43.000
1.620,78.000,83.500,63.500,42.000
1.621,77.000,82.000,62.500,40.500
1.622,75.500,80.500,61.000,39.500
1.623,73.500,78.000,59.000,37.500
1.624,71.000,76.000,57.000,35.500
1.625,68.500,73.500,54.500,33.500
1.626,66.000,71.500,52.000,31.500
1.627,64.000,69.500,50.000,29.500
1.628,62.000,67.500,47.500,27.500
1.629,60.500,66.000,46.000,26.000
1.630,59.000,64.500,44.500,24.500
1.631,57.500,63.000,43.000,23.000
1.632,56.000,61.500,42.000,22.000
1.633,55.000,60.500,41.500,21.000
1.634,54.500,59.500,40.500,20.000
1.635,53.500,58.500,40.000,19.500
1.636,53.000,58.000,39.500,19.000
1.637,53.000,58.000,39.000,18.500
1.638,52.500,57.500,38.500,18.500
1.639,52.500,57.500,38.500,18.000
1.640,52.500,57.500,38.500,18.000
1.641,52.500,58.000,38.500,18.000
1.642,52.500,58.000,39.000,18.000
1.643,52.500,58.000,39.000,18.500
1.644,52.500,58.000,39.000,18.500
1.645,52.500,58.500,39.500,18.500
1.646,52.500,58.500,39.500,18.500
1.647,53.000,59.000,39.500,18.500
1.648,53.000,59.000,40.000,18.500
1.649,53.500,59.500,40.000,18.500
1.650,53.500,59.500,40.000,18.500
1.651,53.500,60.000,40.500,18.500
1.652,54.000,60.000,40.500,18.500
1.653,54.000,60.500,41.000,18.500
1.654,54.000,60.000,41.000,18.500
1.655,54.000,60.000,41.000,18.000
1.656,53.500,59.500,40.500,18.000
1.657,53.500,59.500,40.500,17.500
1.658,53.000,59.000,40.000,17.000
1.659,53.000,59.000,40.000,17.000
1.660,52.500,59.000,40.000,16.500
1.661,52.500,59.000,40.000,16.500
1.662,52.500,59.000,39.500,16.500
1.663,52.500,58.500,39.500,17.000
1.664,52.500,58.500,39.500,17.000
1.665,53.000,58.500,40.000,17.000
1.666,53.500,59.000,40.000,17.500
1.667,53.500,59.000,41.000,17.500
1.668,54.000,59.500,41.500,17.500
1.669,54.500,59.500,41.500,18.000
1.670,54.500,59.500,42.000,18.000
1.671,54.500,59.500,42.000,18.000
1.672,54.500,59.500,42.000,18.000
1.673,54.000,59.000,41.500,18.000
1.674,53.500,59.000,41.500,17.500
1.675,53.500,58.500,41.000,17.000
1.676,53.000,58.500,40.500,16.500
1.677,52.500,58.000,40.000,16.000
1.678,52.000,57.500,40.000,15.500
1.679,51.500,57.000,39.500,15.000
1.680,51.000,57.000,39.000,14.500
1.681,51.000,56.500,39.000,14.500
1.682,50.500,56.500,39.000,14.500
1.683,51.000,56.000,39.000,14.500
1.684,51.000,56.000,39.000,14.500
1.685,51.000,56.000,39.500,15.000
1.686,51.500,56.000,39.500,15.000
1.687,51.500,56.500,40.000,15.000
1.688,51.500,56.500,40.000,15.000
1.689,51.500,56.500,40.000,15.000
1.690,51.500,56.500,40.500,15.000
1.691,51.500,56.500,40.500,15.500
1.692,51.500,56.500,40.500,15.500
1.693,51.500,56.500,40.500,15.500
1.694,51.000,56.500,40.500,15.500
1.695,51.000,56.000,40.500,15.500
1.696,50.500,56.000,40.500,15.000
1.697,50.000,55.500,40.500,15.000
1.698,50.000,55.500,40.500,14.500
1.699,49.500,55.000,40.500,14.500
1.700,49.000,55.000,40.000,14.000
1.701,49.000,55.000,40.000,14.000
1.702,49.000,55.000,40.500,13.500
1.703,49.000,55.000,40.500,13.500
1.704,49.000,55.500,40.500,13.500
1.705,49.000,55.500,40.500,13.500
1.706,49.500,56.000,40.500,13.500
1.707,50.000,56.000,41.000,14.000
1.708,50.000,56.000,41.500,14.500
1.709,50.000,56.500,42.000,14.500
1.710,50.000,56.500,42.500,15.000
1.711,50.000,56.500,42.500,15.000
1.712,49.500,56.000,42.500,15.000
1.713,49.500,56.000,42.000,14.500
1.714,49.000,55.500,42.000,14.500
1.715,49.000,55.500,41.500,14.000
1.716,48.500,55.000,41.000,14.000
1.717,48.500,55.000,41.000,13.500
1.718,48.000,55.000,40.500,13.500
1.719,48.000,54.500,40.500,13.500
1.720,47.500,54.500,40.500,13.000
1.721,47.000,54.500,40.500,13.000
1.722,47.000,54.500,40.500,13.000
1.723,46.500,54.000,40.500,13.000
1.724,46.500,54.000,40.500,13.000
1.725,46.000,54.000,40.500,13.500
1.726,46.000,54.000,40.500,13.500
1.727,46.000,54.000,40.500,13.500
1.728,46.000,54.500,41.000,13.500
1.729,46.000,54.500,41.000,14.000
1.730,46.000,54.500,41.500,14.000
1.731,46.000,54.500,41.500,14.000
1.732,45.500,54.000,41.000,14.000
1.733,45.500,54.000,41.000,14.000
1.734,45.500,53.500,40.500,14.000
1.735,45.000,53.500,40.500,13.500
1.736,45.000,53.000,40.000,13.000
1.737,44.500,52.500,40.000,13.000
1.738,44.000,52.000,39.500,12.500
1.739,43.500,51.500,39.500,12.000
1.740,43.500,51.500,39.000,11.500
1.741,43.000,51.500,39.000,11.000
1.742,43.000,51.000,39.000,11.000
1.743,42.500,51.000,39.000,11.000
1.744,42.500,51.000,38.500,11.000
1.745,42.000,51.000,38.500,11.000
1.746,42.000,50.500,39.000,11.000
1.747,42.000,50.500,39.000,11.000
1.748,41.500,50.500,39.000,11.000
1.749,42.000,50.500,39.000,11.500
1.750,42.000,50.500,39.000,11.500
1.751,42.000,51.000,39.000,11.500
1.752,41.500,51.000,39.000,11.500
1.753,41.500,50.500,39.000,11.500
1.754,41.500,50.500,39.000,11.500
1.755,41.000,50.000,39.000,11.000
1.756,40.500,49.500,38.500,11.000
1.757,40.000,49.000,38.000,10.500
1.758,39.500,49.000,38.000,10.000
1.759,39.500,48.500,37.500,10.000
1.760,39.000,48.500,37.500,10.000
1.761,39.000,48.500,37.500,10.000
1.762,39.000,48.500,37.500,10.000
1.763,39.000,48.500,37.500,10.000
1.764,38.500,48.500,37.500,10.000
1.765,39.000,49.000,38.000,10.500
1.766,39.000,49.000,38.000,11.000
1.767,39.000,49.000,38.500,11.500
1.768,39.000,49.000,38.500,11.500
1.769,39.000,49.500,39.000,12.000
1.770,39.000,49.500,39.000,12.000
1.771,39.000,49.500,39.000,12.000
1.772,39.500,50.000,39.000,12.500
1.773,39.500,50.000,39.500,12.500
1.774,39.500,50.500,40.000,12.500
1.775,39.500,50.500,40.500,12.500
1.776,39.500,50.500,40.500,12.000
1.777,39.500,50.500,41.000,12.000
1.778,39.000,50.000,40.500,12.000
1.779,39.000,49.500,40.000,12.000
1.780,38.500,49.500,40.000,12.000
1.781,38.500,49.000,39.500,12.000
1.782,38.500,49.000,39.500,12.000
1.783,39.000,49.500,39.500,12.000
1.784,39.000,49.500,40.000,12.000
1.785,39.000,49.500,40.500,12.500
1.786,39.000,50.000,41.000,13.000
1.787,39.000,50.000,41.500,13.000
1.788,39.500,50.500,42.000,13.500
1.789,39.500,51.000,42.000,13.500
1.790,39.500,51.000,42.500,14.000
1.791,39.500,51.500,43.000,14.000
1.792,40.000,51.500,43.000,14.000
1.793,40.000,51.500,43.500,14.000
1.794,40.000,51.500,43.000,14.000
1.795,39.500,51.000,43.000,13.500
1.796,39.500,51.000,43.000,13.500
1.797,39.000,51.000,43.000,13.000
1.798,39.000,51.000,43.000,13.000
1.799,39.000,51.000,43.000,12.500
1.800,39.000,51.000,43.500,12.500
1.801,39.000,51.000,43.500,12.500
1.802,39.000,51.000,43.500,12.500
1.803,39.000,51.000,43.500,13.000
1.804,39.000,51.000,44.000,13.000
1.805,39.000,51.000,44.000,13.000
1.806,39.000,51.000,44.000,13.500
1.807,39.500,51.500,44.500,14.000
1.808,39.500,51.500,44.500,14.000
1.809,40.000,52.000,45.000,14.500
1.810,40.000,52.500,45.500,15.000
1.811,40.000,52.500,45.500,15.000
1.812,40.000,52.500,45.500,15.000
1.813,40.000,52.000,45.500,15.000
1.814,39.500,52.000,45.500,15.000
1.815,39.500,51.500,45.500,15.000
1.816,39.000,50.500,45.000,15.000
1.817,38.500,50.000,45.000,15.000
1.818,38.500,49.500,45.000,14.500
1.819,38.500,49.500,45.000,14.500
1.820,38.500,49.500,45.000,14.000
1.821,38.500,49.500,44.500,14.000
1.822,39.000,49.500,45.000,14.000
1.823,39.000,50.000,45.000,14.000
1.824,39.000,50.000,45.000,14.500
1.825,39.000,50.500,45.500,14.500
1.826,39.500,50.500,46.000,15.000
1.827,39.500,51.000,46.000,15.500
1.828,40.000,51.500,46.500,15.500
1.829,40.000,51.500,47.000,16.000
1.830,40.000,52.000,47.000,16.000
1.831,40.000,52.000,47.000,16.000
1.832,40.000,52.000,47.000,15.500
1.833,40.000,51.500,47.000,15.500
1.834,40.000,51.500,46.500,15.500
1.835,39.500,51.000,46.000,15.000
1.836,39.500,50.500,46.000,14.500
1.837,39.000,50.000,45.500,14.500
1.838,39.000,50.000,45.500,14.000
1.839,38.500,50.000,45.500,14.000
1.840,38.500,50.000,45.500,13.500
1.841,38.000,50.000,45.000,13.500
1.842,38.000,50.000,45.000,13.000
1.843,38.500,50.000,45.000,13.000
1.844,39.000,50.500,45.500,13.000
1.845,39.500,50.500,45.500,13.500
1.846,39.500,51.000,45.500,13.500
1.847,40.000,51.000,46.000,13.500
1.848,40.000,51.000,46.000,13.500
1.849,40.000,51.000,45.500,13.500
1.850,39.500,50.500,45.000,13.500
1.851,39.000,50.000,44.500,13.000
1.852,38.000,49.000,43.500,12.000
1.853,36.500,47.500,42.500,11.000
1.854,35.000,46.000,41.000,10.000
1.855,33.500,44.000,39.000,8.500
1.856,31.500,42.000,37.000,6.500
1.857,29.500,39.500,35.000,4.500
1.858,27.500,37.000,32.500,2.500
1.859,25.500,35.500,31.000,1.500
1.860,24.500,34.000,29.500,0.000
1.861,23.500,33.000,28.500,-1.000
1.862,23.500,32.500,28.500,-1.000
1.863,24.000,33.000,29.000,-1.000
1.864,25.000,34.000,30.000,-0.500
1.865,27.000,36.000,31.500,1.000
1.866,29.000,38.000,33.500,2.500
1.867,31.000,40.500,36.000,4.500
1.868,33.500,43.500,38.500,6.000
1.869,36.500,46.000,41.000,8.000
1.870,38.500,48.500,43.000,9.500
1.871,40.500,51.000,45.000,11.000
1.872,41.500,52.000,46.000,11.500
1.873,42.500,53.000,47.000,12.000
1.874,42.500,53.500,47.000,12.000
1.875,42.500,53.000,46.500,11.500
1.876,41.500,51.500,45.500,10.500
1.877,40.000,50.000,44.000,9.500
1.878,38.500,48.500,42.500,8.000
1.879,37.000,47.000,41.000,7.000
1.880,35.500,45.500,40.000,6.500
1.881,34.500,44.500,39.000,5.500
1.882,34.000,44.000,38.500,5.500
1.883,34.000,43.500,38.500,5.000
1.884,34.000,43.500,38.500,5.000
1.885,34.000,43.500,38.500,5.000
1.886,34.000,44.000,38.500,5.000
1.887,34.000,44.000,38.500,5.000
1.888,34.000,44.000,38.500,5.000
1.889,34.000,44.000,38.500,5.000
1.890,34.000,44.000,38.500,5.000
1.891,34.000,44.000,38.000,5.000
1.892,34.000,44.000,38.000,4.500
1.893,34.000,43.500,38.000,4.500
1.894,33.500,43.500,37.500,4.000
1.895,33.500,43.000,37.500,4.000
1.896,33.000,42.500,37.000,3.500
1.897,33.000,42.000,37.000,3.000
1.898,33.000,41.500,36.500,3.000
1.899,33.000,41.500,36.500,2.500
1.900,33.000,41.500,36.500,2.000
1.901,33.000,41.500,36.500,2.000
1.902,33.000,41.500,36.500,2.500
1.903,33.500,41.500,36.500,3.000
1.904,33.500,41.500,36.500,3.000
1.905,33.500,41.500,37.000,3.500
1.906,33.500,41.500,37.000,3.500
1.907,33.500,41.500,37.000,4.000
1.908,34.000,42.000,37.500,4.000
1.909,34.000,42.000,37.500,4.500
1.910,34.500,42.000,38.000,4.500
1.911,34.500,42.500,38.000,4.500
1.912,35.000,42.500,38.000,5.000
1.913,35.000,42.500,38.000,5.000
1.914,35.000,42.000,38.000,5.000
1.915,35.000,42.000,38.000,5.000
1.916,34.500,42.000,38.000,5.000
1.917,34.500,41.500,38.000,5.000
1.918,34.500,41.500,37.500,5.000
1.919,34.500,41.500,37.500,4.500
1.920,34.500,41.000,37.000,4.500
1.921,34.500,41.000,37.000,4.000
1.922,34.000,41.000,36.500,4.000
1.923,34.000,41.000,36.500,3.500
1.924,33.500,41.000,36.000,3.000
1.925,33.500,40.500,36.000,3.000
1.926,33.500,40.500,36.500,3.000
1.927,33.500,40.500,36.500,3.500
1.928,33.500,41.000,37.000,3.500
1.929,33.500,41.000,37.000,3.500
1.930,33.500,41.000,37.000,3.500
1.931,33.500,41.000,37.000,3.500
1.932,33.500,41.000,37.000,3.500
1.933,33.500,40.500,36.500,3.500
1.934,33.000,40.500,36.500,3.000
1.935,32.500,40.000,36.000,3.000
1.936,32.000,39.500,35.500,2.500
1.937,31.500,39.500,35.000,2.500
1.938,31.500,39.000,34.500,2.000
1.939,31.000,39.000,34.500,1.500
1.940,31.000,38.500,34.000,1.500
1.941,31.000,38.500,34.000,1.000
1.942,31.000,38.000,34.000,1.000
1.943,31.000,38.000,34.000,1.000
1.944,31.000,38.000,34.000,1.000
1.945,31.000,38.000,34.000,1.000
1.946,31.000,38.000,33.500,1.000
1.947,31.000,38.000,33.500,1.000
1.948,31.000,38.000,33.500,1.500
1.949,31.000,38.000,33.500,1.500
1.950,31.000,38.000,33.500,1.500
1.951,31.000,38.000,33.500,1.000
1.952,30.500,38.000,33.500,1.000
1.953,30.500,38.000,33.500,1.000
1.954,30.500,38.000,33.500,1.000
1.955,30.500,38.000,33.500,0.500
1.956,30.500,38.000,33.500,0.500
1.957,30.500,38.000,33.000,0.500
1.958,30.500,37.500,32.500,0.000
1.959,30.000,37.000,32.000,-0.500
1.960,30.000,36.500,32.000,-0.500
1.961,30.000,36.500,32.000,-0.500
1.962,30.000,36.000,32.000,-0.500
1.963,30.000,36.000,32.000,-0.500
1.964,30.000,36.000,32.500,-0.500
1.965,30.500,36.000,33.000,-0.500
1.966,30.500,36.500,33.000,-0.500
1.967,31.000,37.000,33.500,-0.500
1.968,31.500,37.500,33.500,-0.500
1.969,31.500,38.000,33.500,0.000
1.970,32.000,38.000,34.000,0.000
1.971,32.000,38.000,34.000,0.500
1.972,32.000,38.500,34.500,0.500
1.973,32.000,38.500,34.500,0.500
1.974,32.000,38.500,34.000,0.500
1.975,32.000,38.500,34.000,0.000
1.976,31.500,38.000,33.500,0.000
1.977,31.500,38.000,33.500,-0.500
1.978,31.000,37.500,33.500,-0.500
1.979,30.500,37.000,33.000,-0.500
1.980,30.500,37.000,33.000,-1.000
1.981,30.500,37.000,32.500,-1.000
1.982,30.500,36.500,32.000,-1.000
1.983,30.500,37.000,32.000,-1.500
1.984,30.500,37.000,32.500,-1.000
1.985,31.000,37.500,32.500,-1.000
1.986,31.500,37.500,33.000,-0.500
1.987,31.500,37.500,33.500,-0.500
1.988,32.000,37.500,33.500,-0.500
1.989,32.500,38.000,34.000,0.000
1.990,33.000,38.000,34.000,0.000
1.991,33.500,38.500,34.500,0.500
1.992,33.500,39.000,34.500,0.500
1.993,33.500,39.000,34.500,0.500
1.994,33.500,39.000,34.000,0.000
1.995,33.000,38.500,34.000,0.000
1.996,33.000,38.500,33.500,0.000
1.997,32.500,38.000,33.500,0.000
1.998,32.500,38.000,33.500,0.000
1.999,32.500,37.500,33.000,0.000
2.000,32.500,37.500,33.000,0.000
2.001,32.500,37.500,33.000,0.000
2.002,32.500,37.500,33.500,0.500
2.003,32.500,37.000,33.500,0.500
2.004,32.500,37.000,33.500,0.500
2.005,33.000,37.000,34.000,0.500
2.006,33.000,37.500,34.000,0.500
2.007,33.500,37.500,34.500,0.500
2.008,33.500,38.000,34.500,0.500
2.009,34.000,38.000,34.500,0.500
2.010,34.000,38.000,34.500,0.500
2.011,34.500,38.000,34.500,1.000
2.012,34.500,38.500,34.500,1.000
2.013,34.500,38.500,34.500,1.000
2.014,34.500,38.000,34.500,1.000
2.015,34.500,38.000,34.500,1.000
2.016,34.500,37.500,34.500,1.000
2.017,34.000,37.000,34.500,1.000
2.018,34.000,36.500,34.000,0.500
2.019,33.500,36.500,34.000,0.500
2.020,33.500,36.500,34.000,0.500
2.021,33.000,36.500,33.500,0.500
2.022,33.000,36.500,33.500,0.500
2.023,33.000,36.500,33.500,0.500
2.024,33.000,36.500,33.500,0.000
2.025,33.000,36.500,34.000,0.000
2.026,33.500,36.500,34.000,0.500
2.027,33.500,37.000,34.500,0.500
2.028,33.500,37.000,34.500,0.500
2.029,33.500,37.500,34.500,1.000
2.030,34.000,37.500,35.000,1.000
2.031,34.000,37.500,35.000,1.000
2.032,33.500,37.500,35.000,1.000
2.033,33.500,37.000,34.500,1.000
2.034,33.000,36.500,34.500,0.500
2.035,33.000,36.500,34.500,0.000
2.036,33.000,36.000,34.500,0.000
2.037,32.500,36.000,34.000,-0.500
2.038,32.500,35.500,34.000,-0.500
2.039,32.500,35.500,34.000,0.000
2.040,32.500,35.500,34.000,0.000
2.041,32.500,35.500,34.000,0.000
2.042,32.500,35.500,34.000,0.000
2.043,32.500,35.500,34.500,0.000
2.044,32.500,35.500,34.500,0.000
2.045,33.000,35.500,34.500,0.500
2.046,33.000,36.000,35.000,0.500
2.047,33.000,36.000,35.000,0.500
2.048,33.500,36.500,35.000,1.000
2.049,34.000,36.500,35.500,1.000
2.050,34.000,36.500,35.500,1.000
2.051,34.000,36.500,36.000,1.500
2.052,34.000,36.500,36.000,1.500
2.053,33.500,36.000,36.000,1.500
2.054,33.500,36.000,35.500,2.000
2.055,33.500,36.000,35.500,2.000
2.056,33.500,35.500,35.500,2.000
2.057,33.000,35.500,35.000,1.500
2.058,33.000,35.500,35.000,1.500
2.059,33.000,35.500,34.500,1.000
2.060,33.000,35.000,34.000,0.500
2.061,32.500,35.000,34.000,0.500
2.062,32.500,34.500,34.000,0.500
2.063,32.500,34.500,34.000,0.000
2.064,32.500,34.500,34.000,0.000
2.065,32.500,34.500,34.500,0.500
2.066,33.000,35.000,34.500,0.500
2.067,33.000,35.000,35.000,1.000
2.068,33.500,35.500,35.000,1.000
2.069,33.500,36.000,35.500,1.500
2.070,33.500,36.000,35.500,1.500
2.071,33.500,36.000,35.500,1.500
2.072,33.500,36.000,35.500,1.000
2.073,33.500,36.000,35.500,1.000
2.074,33.500,35.500,35.500,1.000
2.075,33.000,35.500,35.000,1.000
2.076,33.000,35.000,34.500,0.500
2.077,32.500,35.000,34.000,0.000
2.078,32.500,34.500,34.000,-0.500
2.079,32.000,34.000,33.500,-0.500
2.080,32.000,34.000,33.500,-0.500
2.081,32.000,34.000,33.000,-0.500
2.082,32.000,34.000,33.500,-0.500
2.083,32.000,34.000,33.500,-0.500
2.084,32.000,33.500,33.500,-0.500
2.085,32.000,33.500,33.500,-0.500
2.086,32.000,34.000,34.000,-0.500
2.087,32.500,34.000,34.000,-0.500
2.088,32.500,33.500,34.000,0.000
2.089,32.000,33.500,33.500,-0.500
2.090,32.000,33.500,33.500,-0.500
2.091,32.000,34.000,33.500,0.000
2.092,31.500,34.000,33.500,0.000
2.093,31.500,34.000,33.500,0.000
2.094,31.500,33.500,33.500,0.000
2.095,31.500,33.500,33.500,0.000
2.096,31.000,33.500,33.000,0.000
2.097,31.000,33.000,33.000,-0.500
2.098,30.500,33.000,33.000,-0.500
2.099,30.500,33.000,33.000,-0.500
2.100,30.000,32.500,32.500,-1.000
2.101,30.000,32.500,32.500,-1.000
2.102,29.500,32.000,32.500,-1.000
2.103,29.500,32.000,32.000,-1.000
2.104,29.500,32.000,32.000,-0.500
2.105,29.500,32.000,32.000,-0.500
2.106,30.000,32.000,32.500,0.000
2.107,30.500,32.500,32.500,0.500
2.108,31.000,32.500,33.000,0.500
2.109,31.500,33.000,33.500,1.000
2.110,31.500,33.500,33.500,1.000
2.111,32.000,34.000,34.000,1.000
2.112,32.000,34.000,34.500,1.500
2.113,32.000,34.500,34.500,1.500
2.114,32.000,34.500,34.500,2.000
2.115,32.000,34.000,34.500,2.000
2.116,31.500,34.000,34.000,1.500
2.117,31.500,34.000,34.000,1.500
2.118,31.000,33.500,33.500,1.000
2.119,30.500,33.500,33.500,0.500
2.120,30.500,33.000,33.000,0.500
2.121,30.000,32.500,32.500,0.500
2.122,30.000,32.500,32.500,0.500
2.123,30.000,32.000,32.500,0.500
2.124,30.000,32.000,32.500,1.000
2.125,30.500,32.500,33.000,1.000
2.126,30.500,32.500,33.000,1.000
2.127,31.000,32.500,33.000,1.500
2.128,31.000,33.000,33.000,1.500
2.129,31.500,33.000,33.500,1.500
2.130,31.500,32.500,33.500,1.000
2.131,31.000,32.500,33.500,1.000
2.132,31.000,32.500,33.500,1.000
2.133,31.000,32.500,33.500,0.500
2.134,30.500,32.500,33.000,0.500
2.135,30.500,32.000,32.500,-0.500
2.136,30.000,31.500,32.000,-1.000
2.137,29.500,31.000,31.500,-1.500
2.138,29.000,30.500,31.000,-2.000
2.139,28.500,30.000,30.500,-2.500
2.140,28.000,29.500,30.000,-2.500
2.141,27.500,29.500,30.000,-3.000
2.142,27.500,29.500,29.500,-3.500
2.143,27.500,29.500,29.500,-3.500
2.144,27.500,29.500,29.500,-4.000
2.145,28.000,29.500,30.000,-4.000
2.146,28.000,30.000,30.000,-3.500
2.147,28.000,30.500,30.500,-3.000
2.148,28.500,31.000,31.000,-2.500
2.149,28.500,31.000,31.500,-2.500
2.150,28.500,31.500,32.000,-2.500
2.151,29.000,31.500,32.000,-2.500
2.152,29.000,31.500,32.500,-2.500
2.153,29.000,31.500,32.000,-2.500
2.154,29.000,31.500,32.000,-2.500
2.155,28.500,31.000,31.500,-2.500
2.156,28.500,31.000,31.500,-2.500
2.157,28.500,31.000,31.500,-2.500
2.158,28.500,31.000,31.500,-2.500
2.159,28.500,31.000,31.500,-2.500
2.160,28.500,31.000,31.000,-2.500
2.161,28.500,31.000,31.000,-2.500
2.162,28.500,31.000,31.000,-2.500
2.163,28.500,31.000,31.000,-2.500
2.164,29.000,31.000,31.000,-2.500
2.165,29.000,31.000,31.000,-2.000
2.166,29.500,31.000,31.500,-2.000
2.167,29.500,31.500,31.500,-2.000
2.168,30.000,31.500,32.000,-1.500
2.169,30.000,31.500,32.000,-1.500
2.170,29.500,31.500,31.500,-1.500
2.171,29.500,31.500,31.500,-1.500
2.172,29.000,31.500,31.500,-2.000
2.173,29.000,31.000,31.000,-2.000
2.174,28.500,31.000,31.000,-2.500
2.175,28.000,31.000,30.500,-2.500
2.176,28.000,30.500,30.500,-3.000
2.177,27.500,30.000,30.000,-3.000
2.178,27.500,30.000,30.000,-3.500
2.179,27.000,29.500,29.500,-4.000
2.180,27.000,29.500,29.000,-4.000
2.181,27.000,29.500,29.000,-4.000
2.182,27.000,29.500,28.500,-4.000
2.183,27.000,29.500,28.500,-4.000
2.184,27.500,29.500,28.500,-3.500
2.185,27.500,29.500,28.500,-3.500
2.186,27.500,30.000,29.000,-3.500
2.187,27.500,30.000,29.500,-3.000
2.188,28.000,30.500,30.000,-3.000
2.189,28.000,31.000,30.000,-2.500
2.190,28.000,31.000,30.500,-2.500
2.191,28.000,31.000,30.000,-2.500
2.192,28.000,31.000,30.000,-3.000
2.193,28.000,31.000,29.500,-3.000
2.194,28.000,30.500,29.500,-3.000
2.195,27.500,30.000,29.000,-3.000
2.196,27.500,29.500,29.000,-3.000
2.197,27.000,29.000,28.500,-3.000
2.198,26.500,29.000,28.500,-3.500
2.199,26.000,28.500,28.000,-4.000
2.200,26.000,28.500,28.000,-4.000
2.201,26.000,28.500,27.500,-4.500
2.202,26.000,28.000,27.500,-4.500
2.203,26.000,28.000,27.000,-4.500
2.204,26.000,28.000,27.000,-4.500
2.205,26.000,27.500,27.000,-4.000
2.206,26.000,27.500,27.500,-4.000
2.207,26.500,28.000,27.500,-3.500
2.208,27.000,28.000,28.000,-3.500
2.209,27.500,28.500,28.500,-3.500
2.210,27.500,29.000,29.000,-3.000
2.211,28.000,29.000,29.000,-3.000
2.212,28.000,29.000,29.500,-3.000
2.213,28.000,29.000,29.500,-3.000
2.214,27.500,28.500,29.000,-3.500
2.215,27.000,28.000,28.500,-4.000
2.216,26.500,27.000,27.500,-4.500
2.217,25.500,25.500,26.500,-6.000
2.218,24.000,24.000,24.500,-7.000
2.219,22.500,22.500,22.500,-9.000
2.220,20.000,20.000,20.000,-11.000
2.221,17.500,17.000,17.500,-13.500
2.222,14.500,14.000,14.500,-16.500
2.223,11.500,10.500,11.000,-19.500
2.224,9.000,7.000,8.000,-22.000
2.225,6.500,4.500,5.500,-24.500
2.226,4.500,2.000,3.000,-27.000
2.227,3.000,0.000,1.500,-28.500
2.228,2.000,-1.500,0.500,-29.500
2.229,1.500,-2.000,0.000,-30.000
2.230,2.000,-2.000,0.500,-30.000
2.231,2.500,-1.500,1.000,-29.500
2.232,3.500,-0.500,1.500,-28.500
2.233,5.000,1.000,3.000,-27.500
2.234,6.000,2.500,4.000,-26.500
2.235,7.000,3.500,5.500,-25.000
2.236,7.500,4.500,7.000,-23.500
2.237,8.000,5.000,8.000,-22.500
2.238,7.500,5.000,8.500,-21.000
2.239,7.000,5.000,9.000,-19.500
2.240,6.000,4.500,9.500,-18.500
2.241,5.000,4.000,9.000,-17.500
2.242,3.500,3.000,9.000,-16.500
2.243,2.000,1.500,8.500,-15.500
2.244,0.500,0.500,8.500,-14.500
2.245,-0.500,0.000,8.500,-13.500
2.246,-1.000,-0.500,9.000,-12.000
2.247,-1.500,-0.500,9.500,-11.000
2.248,-1.000,0.000,10.000,-9.500
2.249,-1.000,0.500,11.000,-8.500
2.250,-0.500,1.500,12.000,-7.000
2.251,0.500,2.500,13.000,-5.500
2.252,2.500,4.500,15.000,-3.500
2.253,5.000,7.000,18.000,-1.500
2.254,8.500,10.500,21.500,1.500
2.255,12.500,14.500,25.000,4.500
2.256,16.500,18.000,28.500,7.000
2.257,20.500,22.000,32.000,9.000
2.258,25.000,26.000,35.500,11.000
2.259,29.000,30.000,38.500,13.000
2.260,34.000,34.000,42.000,15.000
2.261,38.500,38.000,45.500,17.000
2.262,43.500,42.500,48.500,18.500
2.263,47.500,46.000,51.500,20.000
2.264,50.500,48.000,53.500,21.000
2.265,52.000,49.500,54.000,21.000
2.266,52.500,49.500,54.000,20.500
2.267,52.000,49.000,53.000,19.000
2.268,51.000,47.500,51.500,18.000
2.269,49.500,46.000,50.000,16.000
2.270,47.000,44.000,48.000,14.500
2.271,44.500,41.500,45.500,12.000
2.272,42.000,38.500,43.000,9.500
2.273,39.500,35.500,40.000,7.000
2.274,36.500,33.000,37.000,4.500
2.275,34.000,30.500,34.000,2.000
2.276,32.000,28.000,31.500,-0.500
2.277,29.500,26.000,29.500,-2.500
2.278,28.000,24.000,27.500,-4.000
2.279,27.000,22.500,26.000,-5.500
2.280,26.000,21.500,25.000,-7.000
2.281,25.000,20.000,24.000,-7.500
2.282,24.500,19.500,23.000,-8.500
2.283,24.000,19.000,22.500,-9.000
2.284,24.000,18.500,22.500,-9.500
2.285,24.000,18.500,22.500,-9.500
2.286,24.000,19.000,22.500,-10.000
2.287,24.500,19.500,23.000,-9.500
2.288,24.500,19.500,23.000,-9.500
2.289,25.000,20.000,23.500,-9.500
2.290,25.000,20.000,23.500,-9.500
2.291,25.000,19.500,23.500,-9.500
2.292,25.000,19.500,23.500,-10.000
2.293,24.500,19.000,23.500,-10.000
2.294,24.500,19.000,23.500,-9.500
2.295,24.500,19.000,23.500,-9.500
2.296,24.000,18.500,24.000,-9.500
2.297,23.500,18.500,24.000,-10.000
2.298,23.500,18.500,24.000,-10.000
2.299,23.500,18.500,24.000,-10.000
2.300,23.000,18.000,23.500,-10.500
2.301,23.000,18.000,23.500,-10.500
2.302,22.500,18.000,23.000,-10.500
2.303,22.500,17.500,23.000,-10.500
2.304,22.500,17.500,23.000,-10.500
2.305,22.000,17.500,23.500,-10.500
2.306,22.000,18.000,23.500,-10.500
2.307,22.500,18.000,24.000,-10.000
2.308,23.000,18.500,24.500,-10.000
2.309,23.500,19.000,25.000,-9.500
2.310,23.500,19.500,25.500,-9.500
2.311,23.500,19.500,25.500,-10.000
2.312,23.500,19.500,25.500,-10.000
2.313,23.000,19.000,25.500,-10.000
2.314,23.000,19.000,25.500,-10.500
2.315,23.000,19.000,25.500,-10.500
2.316,22.500,18.500,25.000,-10.500
2.317,22.500,18.500,25.000,-10.500
2.318,22.500,18.000,25.000,-10.500
2.319,22.000,18.000,24.500,-10.500
2.320,22.000,18.000,24.500,-11.000
2.321,21.500,17.500,24.500,-10.500
2.322,21.500,17.500,24.500,-10.500
2.323,21.500,17.500,24.500,-10.500
2.324,21.500,17.500,24.000,-10.500
2.325,21.500,18.000,24.000,-11.000
2.326,21.500,18.000,24.000,-11.000
2.327,21.500,18.000,24.000,-11.500
2.328,21.500,18.000,24.000,-11.500
2.329,21.500,17.500,24.500,-11.000
2.330,21.500,17.500,24.500,-11.000
2.331,21.000,17.500,24.500,-11.000
2.332,21.000,17.500,24.500,-11.000
2.333,20.500,17.000,24.500,-11.000
2.334,20.500,17.000,24.500,-11.000
2.335,20.000,16.500,24.500,-11.000
2.336,20.000,16.500,24.500,-11.000
2.337,19.500,16.000,24.000,-11.500
2.338,19.000,15.500,24.000,-11.500
2.339,19.000,15.000,23.500,-12.000
2.340,18.500,14.500,23.000,-12.000
2.341,18.500,14.500,23.000,-12.500
2.342,18.500,14.500,23.000,-12.500
2.343,18.500,14.500,23.000,-12.500
2.344,18.500,14.500,23.000,-12.500
2.345,19.000,14.500,23.000,-13.000
2.346,19.000,14.500,23.000,-12.500
2.347,19.000,14.500,23.000,-12.500
2.348,19.000,14.500,23.500,-12.500
2.349,18.500,14.500,23.500,-12.500
2.350,18.500,14.500,23.500,-12.500
2.351,18.000,14.500,23.500,-12.500
2.352,18.000,14.500,23.500,-13.000
2.353,17.500,14.000,23.500,-13.000
2.354,17.500,14.000,23.000,-13.000
2.355,17.000,14.000,23.000,-13.000
2.356,17.000,13.500,22.500,-13.500
2.357,17.000,13.500,22.500,-14.000
2.358,16.500,13.000,22.000,-14.000
2.359,16.500,12.500,21.500,-14.500
2.360,16.500,12.500,21.500,-15.000
2.361,16.000,12.000,21.000,-15.000
2.362,16.000,12.000,21.000,-15.000
2.363,15.500,11.500,20.500,-15.000
2.364,15.500,11.500,20.500,-15.500
2.365,15.000,11.000,20.000,-15.500
2.366,15.000,11.000,20.500,-15.500
2.367,15.500,11.500,20.500,-15.500
2.368,15.500,11.500,21.000,-15.000
2.369,15.500,11.500,21.000,-15.000
2.370,15.500,11.500,21.000,-15.000
2.371,15.500,12.000,21.000,-15.500
2.372,15.500,11.500,21.000,-15.500
2.373,15.500,11.500,21.000,-16.000
2.374,15.000,11.500,20.500,-16.000
2.375,15.000,11.000,20.500,-16.000
2.376,14.500,11.000,20.000,-16.000
2.377,14.500,10.500,20.000,-16.000
2.378,14.500,10.500,20.000,-16.000
2.379,14.000,10.000,20.000,-16.000
2.380,14.000,10.000,20.000,-16.500
2.381,14.000,9.500,20.000,-16.500
2.382,14.000,9.500,19.500,-16.500
2.383,14.500,9.500,19.500,-16.000
2.384,14.000,9.500,20.000,-16.000
2.385,14.000,9.500,20.000,-16.000
2.386,14.000,9.500,20.000,-15.500
2.387,14.000,9.500,20.500,-15.500
2.388,14.000,9.500,20.500,-15.500
2.389,14.000,9.500,20.500,-15.000
2.390,14.000,9.500,20.500,-15.000
2.391,13.500,9.500,20.500,-15.000
2.392,13.500,9.000,20.000,-15.500
2.393,13.500,9.000,20.000,-15.500
2.394,13.000,8.500,20.000,-15.500
2.395,13.000,8.500,20.000,-15.500
2.396,12.500,8.000,20.000,-15.500
2.397,12.500,8.000,20.000,-15.500
2.398,12.000,7.500,20.000,-15.500
2.399,12.000,7.500,19.500,-15.500
2.400,11.500,7.500,19.500,-15.500
2.401,11.500,7.000,19.500,-15.500
2.402,11.500,7.000,19.500,-15.500
2.403,11.500,7.000,19.500,-15.500
2.404,11.500,7.000,19.000,-15.500
2.405,11.500,7.000,19.000,-15.500
2.406,11.500,7.000,19.000,-15.500
2.407,11.500,7.000,19.000,-15.500
2.408,12.000,7.000,18.500,-15.500
2.409,12.000,7.000,19.000,-15.000
2.410,12.500,7.000,19.000,-15.000
2.411,13.000,7.500,19.500,-14.500
2.412,13.000,7.500,19.500,-14.500
2.413,13.000,7.500,20.000,-14.500
2.414,13.000,7.500,19.500,-15.000
2.415,12.500,7.000,19.500,-15.000
2.416,12.500,7.000,19.500,-15.000
2.417,12.500,7.000,19.500,-15.000
2.418,12.500,7.000,19.500,-15.000
2.419,12.500,7.000,19.500,-14.500
2.420,12.500,7.000,19.500,-14.500
2.421,12.500,7.000,19.000,-14.500
2.422,12.500,7.000,19.000,-15.000
2.423,13.000,7.000,19.000,-14.500
2.424,13.000,7.000,19.500,-14.500
2.425,13.000,7.000,19.500,-14.000
2.426,13.000,7.000,20.000,-14.000
2.427,13.000,7.500,20.000,-13.500
2.428,13.500,7.500,20.000,-13.500
2.429,13.500,7.500,20.500,-13.000
2.430,13.500,7.500,20.500,-13.000
2.431,13.500,8.000,21.000,-12.500
2.432,13.500,8.000,21.500,-12.500
2.433,13.500,8.000,21.500,-12.500
2.434,13.500,8.000,21.500,-12.000
2.435,13.500,8.000,21.500,-12.000
2.436,13.000,7.500,21.500,-12.000
2.437,13.000,7.500,21.500,-12.000
2.438,12.500,7.000,21.000,-12.500
2.439,12.000,7.000,21.000,-12.500
2.440,12.000,7.000,21.000,-12.500
2.441,12.000,7.000,21.000,-12.500
2.442,12.000,7.000,21.000,-12.000
2.443,12.000,6.500,21.000,-12.000
2.444,12.000,7.000,21.000,-12.000
2.445,12.500,7.000,21.500,-11.500
2.446,12.500,7.500,22.000,-11.500
2.447,12.500,7.500,22.500,-11.000
2.448,12.500,8.000,22.500,-11.000
2.449,12.500,8.000,23.000,-10.500
2.450,12.500,8.500,23.500,-10.500
2.451,13.000,8.500,23.500,-10.500
2.452,13.000,8.500,23.500,-10.000
2.453,13.000,8.500,23.500,-10.000
2.454,13.000,8.500,23.500,-10.000
2.455,13.000,8.500,23.500,-10.000
2.456,13.000,8.500,23.000,-10.000
2.457,12.500,8.000,23.000,-10.000
2.458,12.500,8.000,23.000,-10.000
2.459,12.000,7.500,22.500,-10.000
2.460,12.000,7.000,22.500,-10.000
2.461,11.500,6.500,22.000,-10.000
2.462,11.500,6.500,22.000,-10.000
2.463,11.500,6.500,22.000,-10.000
2.464,12.000,6.500,22.000,-9.500
2.465,12.000,7.000,22.500,-9.500
2.466,12.500,7.000,23.000,-9.000
2.467,12.500,7.500,23.500,-9.000
2.468,13.000,8.000,23.500,-8.500
2.469,13.000,8.500,24.000,-8.000
2.470,13.000,9.000,24.500,-8.000
2.471,13.000,9.000,24.500,-7.500
2.472,13.000,9.000,25.000,-7.500
2.473,13.000,9.000,25.000,-7.500
2.474,12.500,9.000,24.500,-7.500
2.475,12.500,9.000,24.500,-7.500
2.476,12.000,8.500,24.500,-7.500
2.477,12.000,8.500,24.500,-7.500
2.478,12.000,8.500,24.500,-7.500
2.479,12.000,8.500,24.500,-7.500
2.480,12.500,8.500,24.500,-7.500
2.481,12.500,8.500,24.500,-7.500
2.482,13.000,8.500,24.500,-7.000
2.483,13.000,8.500,24.500,-7.000
2.484,13.500,8.500,24.500,-7.000
2.485,13.500,8.500,24.000,-7.000
2.486,13.500,8.500,24.000,-7.000
2.487,13.500,8.500,24.000,-7.000
2.488,13.500,9.000,24.500,-7.000
2.489,13.500,9.000,24.500,-7.000
2.490,13.500,9.500,25.000,-7.000
2.491,13.500,9.500,25.500,-7.000
2.492,13.500,9.500,25.500,-6.500
2.493,13.500,9.500,25.500,-6.500
2.494,14.000,9.500,25.500,-6.500
2.495,14.000,9.500,25.000,-7.000
2.496,13.500,9.000,25.000,-7.000
2.497,13.500,9.000,25.000,-7.500
2.498,13.500,8.500,24.500,-8.000
2.499,13.000,8.000,24.500,-8.500
2.500,13.000,8.000,24.000,-8.500
2.501,13.000,8.000,23.500,-9.000
2.502,12.500,7.500,23.000,-9.500
2.503,12.000,7.500,22.500,-9.500
2.504,11.500,7.000,22.500,-10.000
2.505,11.500,7.000,22.500,-10.500
2.506,11.000,7.000,22.500,-10.500
2.507,11.500,7.000,22.500,-11.000
2.508,11.500,7.000,22.500,-11.000
2.509,11.500,7.000,22.500,-11.500
2.510,11.500,7.000,22.500,-11.500
2.511,11.500,7.000,22.500,-12.000
2.512,11.500,7.000,22.000,-12.000
2.513,11.500,7.000,22.000,-12.500
2.514,11.000,7.000,22.000,-12.500
2.515,11.000,7.000,21.500,-12.500
2.516,11.000,6.500,21.500,-12.500
2.517,10.500,6.500,21.000,-13.000
2.518,10.500,6.500,21.000,-13.000
2.519,10.500,6.000,20.500,-13.500
2.520,10.500,6.000,20.500,-14.000
2.521,10.500,6.000,20.500,-14.000
2.522,10.500,6.000,20.500,-14.000
2.523,10.500,6.000,21.000,-14.000
2.524,11.000,6.500,21.000,-14.000
2.525,11.000,6.500,21.500,-14.000
2.526,11.000,7.000,21.500,-14.500
2.527,11.000,7.500,22.000,-14.500
2.528,11.000,7.500,22.000,-14.500
2.529,11.000,7.500,22.000,-14.500
2.530,11.000,7.500,22.000,-15.000
2.531,10.500,7.500,21.500,-15.000
2.532,10.500,7.000,21.000,-15.500
2.533,10.500,7.000,20.500,-15.500
2.534,10.500,7.000,20.500,-16.000
2.535,10.000,6.500,20.000,-16.500
2.536,10.000,6.500,20.000,-16.500
2.537,9.500,6.000,19.500,-17.000
2.538,9.500,5.500,19.500,-17.500
2.539,9.500,5.500,19.500,-18.000
2.540,9.500,5.000,19.000,-18.000
2.541,10.000,5.000,19.000,-18.000
2.542,10.000,5.000,19.000,-18.000
2.543,10.000,5.000,19.000,-18.000
2.544,10.500,5.500,19.000,-18.000
2.545,10.500,5.500,19.000,-17.500
2.546,10.500,6.000,19.000,-17.000
2.547,10.500,6.500,19.500,-16.500
2.548,10.500,6.500,20.000,-16.500
2.549,10.500,7.000,20.500,-16.500
2.550,11.000,7.500,21.000,-16.000
2.551,11.000,7.500,21.500,-16.000
2.552,11.000,8.000,21.500,-16.000
2.553,11.000,8.000,21.500,-16.000
2.554,11.000,8.000,21.500,-16.000
2.555,11.000,8.000,21.000,-16.000
2.556,10.500,8.000,21.000,-16.500
2.557,10.500,8.000,20.500,-16.500
2.558,10.500,7.500,20.500,-16.500
2.559,10.000,7.500,20.000,-16.500
2.560,10.500,7.500,20.000,-16.500
2.561,10.500,7.500,20.000,-16.500
2.562,10.500,7.500,20.000,-16.000
2.563,11.000,8.000,20.500,-16.000
2.564,11.500,8.500,21.000,-15.500
2.565,11.500,8.500,21.000,-15.000
2.566,11.500,9.000,21.500,-15.000
2.567,11.500,9.000,21.500,-15.000
2.568,11.500,9.000,21.500,-14.500
2.569,11.500,9.000,21.500,-15.000
2.570,11.500,9.000,22.000,-15.000
2.571,11.500,9.000,22.000,-15.000
2.572,12.000,9.500,22.000,-15.000
2.573,12.000,10.000,22.500,-14.500
2.574,12.500,10.000,22.500,-14.500
2.575,12.500,10.500,23.000,-14.500
2.576,13.000,10.500,23.000,-14.500
2.577,13.000,10.500,23.000,-14.500
2.578,12.500,10.000,23.000,-14.500
2.579,12.500,10.000,23.000,-14.500
2.580,12.000,9.500,22.500,-15.000
2.581,11.500,9.000,22.000,-15.000
2.582,11.000,8.500,21.500,-15.500
2.583,10.000,7.500,20.500,-16.000
2.584,9.000,6.500,19.500,-17.000
2.585,7.500,5.000,18.500,-17.500
2.586,6.000,3.000,17.000,-19.000
2.587,4.000,1.000,15.000,-20.000
2.588,2.000,-1.000,13.000,-21.500
2.589,0.500,-3.000,12.000,-22.500
2.590,-1.000,-4.500,10.500,-23.500
2.591,-2.000,-5.000,10.000,-24.000
2.592,-2.500,-5.500,9.500,-24.000
2.593,-2.500,-5.500,10.000,-24.000
2.594,-2.000,-5.000,10.500,-23.500
2.595,-1.000,-4.500,11.000,-22.500
2.596,0.500,-3.000,12.500,-21.500
2.597,2.500,-1.000,14.500,-20.500
2.598,5.000,1.500,16.500,-18.500
2.599,8.000,4.000,19.000,-16.500
2.600,10.500,7.000,21.500,-15.000
2.601,13.000,9.000,23.500,-13.000
2.602,15.000,11.000,25.500,-12.000
2.603,16.000,12.500,27.000,-11.000
2.604,17.000,13.000,28.000,-10.000
2.605,17.500,13.500,28.500,-10.000
2.606,17.500,13.500,28.500,-10.000
2.607,17.000,13.000,28.000,-10.500
2.608,16.000,12.000,27.000,-11.000
2.609,15.000,11.000,26.000,-12.000
2.610,14.000,10.000,25.000,-13.000
2.611,12.500,9.000,24.000,-13.500
2.612,12.000,8.000,23.500,-14.000
2.613,11.000,7.000,22.500,-14.500
2.614,10.500,6.500,22.000,-15.000
2.615,10.000,6.000,21.500,-15.500
2.616,10.000,5.500,21.000,-15.500
2.617,9.500,5.000,20.500,-16.000
2.618,9.500,4.500,20.500,-16.500
2.619,9.000,4.500,20.000,-17.000
2.620,9.000,4.000,19.500,-17.000
2.621,8.500,4.000,19.500,-17.000
2.622,8.500,4.000,19.500,-17.000
2.623,8.500,4.500,19.500,-17.000
2.624,8.500,4.500,19.500,-16.500
2.625,8.500,4.500,19.500,-16.500
2.626,8.500,4.500,19.500,-16.500
2.627,8.500,4.500,20.000,-16.000
2.628,9.000,4.500,20.000,-16.000
2.629,9.000,4.500,20.500,-16.000
2.630,9.000,4.000,20.500,-15.500
2.631,9.000,4.000,20.500,-15.500
2.632,9.000,4.000,20.500,-15.500
2.633,9.000,4.000,20.500,-15.500
2.634,8.500,4.000,20.500,-16.000
2.635,8.500,3.500,20.500,-16.000
2.636,8.500,3.500,20.000,-16.000
2.637,8.500,3.000,20.000,-16.500
2.638,8.000,3.000,19.500,-17.000
2.639,8.000,2.500,19.500,-17.000
2.640,7.500,2.000,19.000,-17.500
2.641,7.000,1.500,18.500,-18.000
2.642,6.500,1.000,18.000,-18.000
2.643,6.500,0.500,18.000,-18.000
2.644,7.000,0.500,18.000,-17.500
2.645,7.000,1.000,18.000,-17.500
2.646,7.500,1.500,18.500,-17.000
2.647,7.500,1.500,19.000,-17.000
2.648,8.000,1.500,19.500,-17.000
2.649,8.000,1.500,19.500,-17.000
2.650,8.000,2.000,19.500,-17.000
2.651,8.000,2.000,19.500,-17.000
2.652,8.000,2.000,19.500,-17.000
2.653,8.000,1.500,20.000,-17.000
2.654,8.000,1.500,20.000,-16.500
2.655,8.000,1.500,19.500,-17.000
2.656,8.000,1.000,19.500,-17.000
2.657,7.500,0.500,19.500,-17.000
2.658,7.500,0.000,19.000,-17.500
2.659,7.000,-0.500,19.000,-18.000
2.660,7.000,-1.000,19.000,-18.000
2.661,7.000,-1.000,19.000,-18.000
2.662,7.000,-1.000,18.500,-18.000
2.663,7.000,-1.000,18.500,-18.500
2.664,7.000,-0.500,18.500,-18.500
2.665,7.500,-0.500,19.000,-18.000
2.666,7.500,0.000,19.000,-18.000
2.667,8.000,0.500,19.500,-18.000
2.668,8.500,0.500,20.000,-17.500
2.669,8.500,1.000,20.000,-17.500
2.670,9.000,1.000,20.500,-17.500
2.671,9.000,1.000,20.500,-17.500
2.672,9.000,1.500,20.500,-17.500
2.673,9.000,1.500,20.500,-17.500
2.674,9.000,1.000,20.500,-17.500
2.675,8.500,1.000,20.000,-17.500
2.676,8.500,1.000,20.000,-17.500
2.677,8.000,0.500,19.500,-18.000
2.678,7.500,0.500,19.500,-18.000
2.679,7.500,0.000,19.000,-18.500
2.680,7.500,-0.500,19.000,-18.500
2.681,7.500,-1.000,18.500,-19.000
2.682,7.500,-1.500,18.500,-19.000
2.683,7.500,-1.500,18.500,-19.000
2.684,7.500,-1.500,18.500,-19.000
2.685,7.500,-1.500,18.500,-19.000
2.686,7.500,-1.000,18.500,-19.000
2.687,8.000,-1.000,18.500,-19.000
2.688,8.000,-0.500,19.000,-19.000
2.689,8.000,-0.500,19.000,-19.000
2.690,8.000,-0.500,19.500,-19.000
2.691,8.000,0.000,19.500,-19.000
2.692,8.000,0.000,19.500,-19.000
2.693,8.000,-0.500,19.500,-19.000
2.694,8.000,-0.500,19.500,-19.000
2.695,8.000,-0.500,19.500,-19.500
2.696,7.500,-1.000,19.000,-19.500
2.697,7.500,-1.000,18.500,-19.500
2.698,7.500,-1.500,18.000,-20.000
2.699,7.000,-2.000,18.000,-20.500
2.700,7.000,-2.000,17.500,-20.500
2.701,7.000,-2.500,17.500,-21.000
2.702,7.000,-2.500,17.000,-21.000
2.703,7.000,-2.500,17.000,-21.000
2.704,7.000,-2.500,17.000,-21.000
2.705,7.000,-2.500,17.000,-21.000
2.706,7.000,-2.500,17.000,-21.000
2.707,7.000,-2.500,17.500,-21.000
2.708,7.000,-2.500,17.000,-21.000
2.709,7.000,-2.500,17.000,-21.000
2.710,7.000,-2.000,17.500,-21.000
2.711,7.500,-2.000,17.500,-21.500
2.712,7.500,-2.000,17.500,-21.500
2.713,7.500,-2.500,17.500,-21.500
2.714,7.500,-2.500,17.000,-21.500
2.715,7.000,-3.000,17.000,-21.500
2.716,7.000,-3.500,17.000,-22.000
2.717,7.000,-3.500,16.500,-22.000
2.718,6.500,-3.500,16.500,-22.500
2.719,6.500,-4.000,16.500,-22.500
2.720,6.000,-4.000,16.500,-22.500
2.721,6.000,-4.000,16.500,-23.000
2.722,5.500,-4.000,16.500,-23.000
2.723,5.500,-4.000,16.500,-23.000
2.724,5.500,-4.000,16.500,-23.000
2.725,5.500,-4.000,16.500,-23.000
2.726,6.000,-4.000,17.000,-23.000
2.727,6.500,-4.000,17.000,-23.000
2.728,6.500,-3.500,17.500,-23.000
2.729,7.000,-3.500,17.500,-22.500
2.730,7.000,-3.500,17.500,-22.000
2.731,7.000,-3.500,17.500,-22.000
2.732,7.500,-3.000,17.500,-21.500
2.733,7.500,-3.000,17.500,-21.500
2.734,7.500,-3.000,17.500,-21.500
2.735,7.500,-3.500,17.500,-21.500
2.736,7.500,-3.500,17.500,-21.500
2.737,7.500,-3.500,17.000,-22.000
2.738,7.000,-4.000,17.000,-22.000
2.739,7.000,-4.000,17.000,-22.000
2.740,7.000,-4.000,17.000,-22.000
2.741,7.000,-4.000,17.000,-22.000
2.742,7.000,-4.000,17.000,-22.000
2.743,7.000,-4.000,17.000,-22.000
2.744,7.000,-4.000,16.500,-22.000
2.745,7.500,-3.500,17.000,-22.000
2.746,8.000,-3.000,17.000,-22.000
2.747,8.500,-2.500,17.500,-21.500
2.748,8.500,-2.000,17.500,-21.500
2.749,9.000,-1.500,18.000,-21.000
2.750,9.000,-1.500,18.500,-21.000
2.751,9.500,-1.500,18.500,-20.500
2.752,9.500,-1.000,18.500,-20.000
2.753,9.500,-1.500,18.500,-20.000
2.754,9.500,-1.500,18.000,-19.500
2.755,9.500,-2.000,18.000,-19.500
2.756,9.000,-2.000,18.000,-19.500
2.757,9.000,-2.500,18.000,-20.000
2.758,8.500,-3.000,18.000,-20.000
2.759,8.500,-3.000,18.000,-20.500
2.760,8.500,-3.000,18.000,-20.500
2.761,9.000,-3.000,18.000,-21.000
2.762,9.000,-3.000,18.000,-21.000
2.763,9.500,-2.500,18.000,-21.000
2.764,9.500,-2.500,18.500,-21.000
2.765,10.000,-2.000,18.500,-20.500
2.766,10.000,-1.500,18.500,-20.500
2.767,10.500,-1.000,19.000,-20.000
2.768,11.000,-0.500,19.500,-20.000
2.769,11.500,-0.500,19.500,-20.000
2.770,12.000,0.000,20.000,-20.000
2.771,12.000,0.500,20.000,-20.000
2.772,12.000,0.500,20.000,-20.000
2.773,12.000,0.500,20.000,-20.000
2.774,12.000,0.000,20.000,-20.500
2.775,11.500,0.000,20.000,-20.500
2.776,11.500,-0.500,20.000,-20.500
2.777,11.500,-1.000,19.500,-21.000
2.778,11.000,-1.500,19.500,-21.000
2.779,11.000,-1.500,19.500,-21.000
2.780,11.000,-2.000,19.500,-21.000
2.781,11.000,-2.000,19.500,-21.000
2.782,11.000,-1.500,19.000,-21.000
2.783,11.000,-1.500,19.000,-21.000
2.784,11.000,-1.500,19.000,-21.000
2.785,11.000,-1.500,19.000,-20.500
2.786,11.500,-1.000,19.500,-20.000
2.787,12.000,-1.000,20.000,-20.000
2.788,12.000,-1.000,20.500,-19.500
2.789,12.500,-0.500,21.000,-19.500
2.790,13.000,-0.500,21.000,-19.500
2.791,13.500,0.000,21.000,-19.500
2.792,13.500,0.000,21.000,-19.000
2.793,13.500,0.000,21.000,-19.000
2.794,13.500,0.000,21.000,-19.000
2.795,13.000,-0.500,21.000,-19.000
2.796,13.000,-0.500,21.000,-19.000
2.797,12.500,-0.500,20.500,-19.000
2.798,12.000,-1.000,20.500,-19.500
2.799,12.000,-1.000,20.000,-19.500
2.800,12.000,-1.500,20.000,-19.500
2.801,12.000,-1.500,20.000,-19.500
2.802,12.000,-1.500,20.000,-19.500
2.803,12.000,-1.500,20.500,-19.000
2.804,12.000,-1.500,20.500,-19.000
2.805,12.000,-1.500,21.000,-19.000
2.806,12.000,-1.000,21.000,-18.500
2.807,12.500,-1.000,21.500,-18.500
2.808,12.500,-1.000,22.000,-18.000
2.809,13.000,-1.000,22.500,-18.000
2.810,13.000,-0.500,23.000,-17.500
2.811,13.500,0.000,23.000,-17.500
2.812,14.000,0.000,23.500,-17.500
2.813,14.000,0.500,23.500,-17.000
2.814,14.500,0.500,24.000,-17.000
2.815,14.500,1.000,24.000,-17.000
2.816,15.000,1.000,24.000,-17.500
2.817,15.000,1.000,24.000,-17.500
2.818,15.500,1.000,24.000,-17.500
2.819,15.500,1.500,24.000,-17.500
2.820,15.500,1.500,24.000,-17.500
2.821,16.000,2.000,24.500,-17.000
2.822,16.000,2.000,25.000,-17.000
2.823,16.500,2.500,25.000,-16.500
2.824,16.500,2.500,25.500,-16.500
2.825,16.500,3.000,26.000,-16.000
2.826,16.500,3.000,26.000,-16.000
2.827,17.000,3.500,26.500,-15.500
2.828,17.000,4.000,27.000,-15.000
2.829,17.000,4.500,27.000,-15.000
2.830,17.000,4.500,27.500,-15.000
2.831,17.000,4.500,27.500,-15.000
2.832,17.000,4.500,27.500,-15.000
2.833,17.000,4.500,27.500,-15.000
2.834,17.000,4.000,27.500,-15.000
2.835,17.000,4.000,27.000,-15.500
2.836,17.000,3.500,27.000,-15.500
2.837,17.000,3.500,27.000,-16.000
2.838,17.000,3.500,27.000,-16.500
2.839,17.000,3.500,27.000,-17.000
2.840,17.000,3.500,27.000,-17.000
2.841,16.500,3.500,27.000,-17.500
2.842,16.500,3.000,26.500,-17.500
2.843,16.000,3.000,26.500,-17.500
2.844,16.000,3.000,27.000,-17.500
2.845,16.000,3.500,27.000,-17.500
2.846,16.500,3.500,27.500,-17.000
2.847,16.500,3.500,28.000,-16.500
2.848,17.000,4.000,28.000,-16.500
2.849,17.500,4.500,28.500,-16.500
2.850,17.500,5.000,28.500,-16.000
2.851,17.500,5.000,28.000,-16.000
2.852,17.500,5.000,27.500,-16.500
2.853,17.500,5.000,27.500,-16.500
2.854,17.500,5.000,27.000,-16.500
2.855,17.000,4.500,27.000,-17.000
2.856,17.000,4.500,26.500,-17.000
2.857,17.000,4.500,26.500,-17.500
2.858,16.500,4.000,26.000,-17.500
2.859,16.500,3.500,25.500,-18.000
2.860,16.500,3.500,25.500,-18.000
2.861,16.500,3.000,25.000,-18.000
2.862,16.000,3.000,25.000,-18.000
2.863,16.000,3.000,25.000,-18.000
2.864,16.000,3.500,25.000,-18.000
2.865,16.500,3.500,25.500,-17.500
2.866,16.500,4.000,26.000,-17.500
2.867,16.500,4.500,26.000,-17.500
2.868,17.000,4.500,26.500,-17.500
2.869,17.000,4.500,26.500,-17.500
2.870,17.000,4.500,27.000,-17.500
2.871,17.000,4.500,27.000,-17.500
2.872,17.000,5.000,27.000,-17.500
2.873,17.500,5.000,27.000,-17.500
2.874,17.500,4.500,27.000,-17.500
2.875,17.500,4.500,27.000,-17.500
2.876,17.500,4.500,27.000,-17.500
2.877,17.500,4.000,26.500,-17.500
2.878,17.500,4.000,26.500,-18.000
2.879,17.500,4.000,26.500,-18.000
2.880,17.000,4.000,26.500,-18.500
2.881,17.000,4.000,26.000,-18.500
2.882,17.000,4.000,26.000,-19.000
2.883,17.000,4.000,26.000,-19.000
2.884,17.500,4.000,26.000,-19.000
2.885,17.500,4.000,26.500,-19.000
2.886,17.500,4.000,27.000,-19.000
2.887,17.500,4.000,27.000,-18.500
2.888,18.000,4.500,27.500,-18.500
2.889,18.000,4.500,27.500,-18.000
2.890,18.000,5.000,27.500,-18.000
2.891,18.000,5.000,27.500,-17.500
2.892,18.000,5.000,27.500,-17.500
2.893,18.000,5.000,27.000,-17.500
2.894,18.000,5.000,27.000,-18.000
2.895,18.000,5.000,26.500,-18.000
2.896,18.000,5.000,26.500,-18.500
2.897,17.500,4.500,26.000,-18.500
2.898,17.500,4.500,26.000,-19.000
2.899,17.000,4.000,26.000,-19.000
2.900,17.000,4.000,25.500,-19.500
2.901,17.000,3.500,25.500,-20.000
2.902,17.000,3.500,25.500,-20.000
2.903,17.000,3.000,25.000,-20.000
2.904,17.000,3.000,25.000,-20.000
2.905,17.000,3.000,25.000,-20.000
2.906,17.000,3.000,25.000,-20.000
2.907,17.000,3.000,25.000,-20.000
2.908,17.000,3.000,25.000,-20.000
2.909,17.000,3.500,25.500,-19.500
2.910,17.000,3.500,25.500,-19.500
2.911,16.500,3.500,26.000,-19.500
2.912,16.500,3.000,26.000,-19.500
2.913,16.500,3.000,25.500,-19.500
2.914,16.000,3.000,25.500,-19.500
2.915,16.000,2.500,25.000,-20.000
2.916,15.500,2.000,24.500,-20.000
2.917,15.000,2.000,24.000,-20.500
2.918,15.000,1.000,24.000,-20.500
2.919,14.500,1.000,23.500,-21.000
2.920,14.500,0.500,23.500,-21.000
2.921,14.500,0.500,23.500,-21.000
2.922,14.500,1.000,23.500,-21.000
2.923,14.500,1.000,23.500,-21.000
2.924,15.000,1.500,23.500,-21.000
2.925,15.000,1.500,23.500,-21.000
2.926,15.000,1.500,23.500,-21.000
2.927,15.500,1.500,23.500,-21.500
2.928,15.500,1.000,23.500,-21.500
2.929,15.500,1.000,23.500,-22.000
2.930,15.500,0.500,23.000,-22.500
2.931,15.000,0.000,22.000,-23.000
2.932,15.000,-0.500,21.500,-24.000
2.933,14.000,-1.500,20.000,-25.500
2.934,13.000,-3.000,18.500,-27.000
2.935,12.000,-4.500,17.000,-28.500
2.936,10.500,-6.500,15.000,-30.000
2.937,9.000,-8.000,13.500,-31.500
2.938,7.500,-9.500,12.000,-33.000
2.939,6.000,-11.000,11.000,-34.500
2.940,5.000,-12.000,9.500,-35.500
2.941,3.500,-13.500,8.500,-36.500
2.942,2.500,-14.500,7.500,-37.000
2.943,1.000,-15.500,6.500,-37.500
2.944,-0.500,-16.500,5.500,-37.500
2.945,-1.500,-17.500,5.000,-37.500
2.946,-2.500,-18.000,4.500,-37.000
2.947,-4.000,-19.500,4.000,-36.500
2.948,-5.500,-20.500,4.000,-36.000
2.949,-6.500,-21.000,4.000,-35.000
2.950,-8.000,-22.000,3.500,-34.500
2.951,-9.500,-23.000,3.000,-33.500
2.952,-11.000,-24.500,2.500,-33.000
2.953,-13.000,-26.000,1.500,-32.500
2.954,-15.500,-28.000,0.500,-32.000
2.955,-17.500,-30.000,-1.000,-31.500
2.956,-19.500,-31.500,-2.000,-31.500
2.957,-21.000,-32.500,-2.500,-31.000
2.958,-21.500,-33.000,-2.500,-30.500
2.959,-21.500,-32.500,-2.000,-29.500
2.960,-21.000,-31.500,-0.500,-28.500
2.961,-19.000,-29.000,2.000,-26.000
2.962,-15.500,-26.000,5.500,-23.500
2.963,-11.000,-21.000,10.500,-19.500
2.964,-5.500,-15.000,16.000,-15.000
2.965,1.000,-8.500,22.500,-10.500
2.966,7.500,-2.000,28.500,-6.000
2.967,14.000,4.500,34.000,-2.000
2.968,19.500,10.000,38.500,1.500
2.969,24.500,15.000,43.000,4.000
2.970,29.500,19.500,46.500,6.000
2.971,34.500,23.500,50.000,8.000
2.972,38.500,27.000,53.000,9.500
2.973,42.000,29.500,55.000,10.000
2.974,43.500,31.000,56.000,10.000
2.975,44.500,31.000,55.500,9.500
2.976,43.500,30.000,54.500,8.500
2.977,42.500,28.500,53.000,6.500
2.978,40.500,26.500,50.500,4.500
2.979,38.000,24.000,48.500,2.500
2.980,36.000,21.500,46.000,0.500
2.981,33.500,19.500,43.000,-2.000
2.982,31.000,17.000,40.500,-4.000
2.983,28.500,14.500,38.000,-6.500
2.984,26.500,12.000,36.000,-8.500
2.985,25.000,10.000,33.500,-10.000
2.986,23.500,8.000,32.000,-11.500
2.987,22.000,6.500,30.500,-12.500
2.988,21.000,5.000,29.000,-13.500
2.989,20.000,4.000,28.000,-14.500
2.990,19.000,3.000,27.000,-15.500
2.991,18.500,2.500,26.500,-16.500
2.992,18.000,1.500,25.500,-17.000
2.993,17.500,1.500,25.500,-17.500
2.994,17.000,1.500,25.000,-17.500
2.995,16.500,1.000,25.000,-18.000
2.996,16.500,1.000,24.500,-18.000
2.997,16.000,0.500,24.500,-18.500
2.998,16.500,0.500,24.500,-19.000
2.999,16.500,0.000,24.000,-19.000
3.000,16.500,0.000,24.000,-19.000
3.001,16.500,-0.500,23.500,-19.000
3.002,16.500,-0.500,23.500,-19.000
3.003,16.500,-0.500,23.500,-19.500
3.004,16.500,-0.500,23.500,-19.500
3.005,16.500,-0.500,23.500,-19.500
3.006,16.500,-0.500,23.500,-19.500
3.007,16.500,-0.500,23.500,-19.500
3.008,16.500,0.000,23.500,-19.000
3.009,16.500,0.000,24.000,-19.000
3.010,16.500,0.000,24.000,-18.500
3.011,17.000,0.500,24.500,-18.500
3.012,17.000,0.500,24.500,-18.500
3.013,17.000,0.500,24.500,-18.500
3.014,17.000,0.500,24.500,-18.500
3.015,17.000,0.000,24.500,-18.500
3.016,17.000,0.000,24.000,-19.000
3.017,16.500,-0.500,24.000,-19.000
3.018,16.000,-1.000,23.500,-19.500
3.019,15.500,-1.500,23.500,-20.000
3.020,15.500,-2.000,23.000,-20.000
3.021,15.000,-2.000,23.000,-20.000
3.022,15.000,-2.000,23.000,-20.000
3.023,14.500,-2.000,23.000,-20.000
3.024,14.500,-2.000,23.000,-20.000
3.025,14.500,-2.500,23.000,-20.000
3.026,14.000,-2.500,23.000,-20.000
3.027,14.500,-2.000,23.500,-20.000
3.028,14.500,-2.000,23.500,-20.000
3.029,14.500,-2.000,24.000,-19.500
3.030,14.500,-1.500,24.500,-19.000
3.031,15.000,-1.500,24.500,-19.000
3.032,15.000,-1.500,25.000,-18.500
3.033,15.000,-1.500,25.000,-18.500
3.034,15.000,-1.500,25.000,-18.000
3.035,15.000,-1.500,25.500,-18.000
3.036,15.000,-1.500,25.500,-18.000
3.037,15.000,-1.500,25.500,-18.000
3.038,15.000,-1.500,25.500,-18.000
3.039,15.000,-1.500,25.500,-18.000
3.040,15.000,-2.000,25.500,-18.000
3.041,15.000,-2.000,25.500,-18.000
3.042,15.000,-2.000,25.500,-18.500
3.043,14.500,-2.000,25.500,-18.500
3.044,14.500,-2.000,25.000,-18.500
3.045,14.000,-2.000,25.000,-18.000
3.046,14.000,-2.000,25.500,-18.000
3.047,14.000,-2.000,25.500,-18.000
3.048,14.000,-2.000,25.500,-18.000
3.049,14.500,-1.500,26.000,-17.500
3.050,14.500,-1.500,26.000,-17.500
3.051,15.000,-1.000,26.000,-17.500
3.052,15.000,-1.000,26.500,-17.500
3.053,15.500,-1.000,26.500,-17.500
3.054,15.000,-1.000,26.500,-17.500
3.055,15.000,-1.000,26.500,-17.500
3.056,14.500,-1.500,26.000,-17.500
3.057,14.000,-2.000,26.000,-18.000
3.058,14.000,-2.500,25.500,-18.000
3.059,13.500,-3.000,25.000,-18.500
3.060,13.000,-3.000,25.000,-19.000
3.061,13.000,-3.500,24.500,-19.000
3.062,12.500,-3.500,24.500,-19.500
3.063,12.500,-4.000,24.000,-19.500
3.064,12.500,-4.000,24.000,-19.500
3.065,12.500,-4.000,24.500,-19.500
3.066,12.500,-4.000,24.500,-19.500
3.067,12.500,-4.000,24.500,-19.500
3.068,13.000,-3.500,25.000,-19.000
3.069,13.000,-3.500,25.000,-19.000
3.070,13.000,-3.000,25.500,-18.500
3.071,13.500,-3.000,25.500,-18.500
3.072,13.500,-3.000,25.500,-18.000
3.073,13.500,-3.000,25.500,-18.000
3.074,13.500,-3.000,25.500,-18.000
3.075,13.000,-3.000,26.000,-18.000
3.076,13.000,-3.000,26.000,-18.000
3.077,13.000,-3.500,26.000,-18.500
3.078,12.500,-3.500,25.500,-18.500
3.079,12.500,-4.000,25.500,-19.000
3.080,12.500,-4.000,25.000,-19.000
3.081,12.500,-4.500,25.000,-19.000
3.082,12.500,-4.500,25.000,-19.000
3.083,12.500,-4.500,25.000,-18.500
3.084,12.500,-4.500,25.500,-18.500
3.085,12.500,-4.500,25.500,-18.000
3.086,12.500,-4.500,26.000,-18.000
3.087,13.000,-4.500,26.000,-17.500
3.088,13.000,-4.000,26.000,-17.500
3.089,13.000,-4.000,26.000,-17.500
3.090,13.000,-4.000,26.000,-17.500
3.091,13.000,-4.000,26.000,-17.500
3.092,13.000,-4.000,26.000,-17.500
3.093,13.000,-4.000,26.000,-17.500
3.094,13.000,-4.000,26.000,-17.500
3.095,13.000,-4.500,26.000,-17.500
3.096,12.500,-5.000,26.000,-17.500
3.097,12.500,-5.500,25.500,-17.500
3.098,12.000,-6.000,25.000,-18.000
3.099,11.500,-6.000,25.000,-18.500
3.100,11.500,-6.500,24.500,-19.000
3.101,11.000,-6.500,24.000,-19.000
3.102,11.000,-6.500,24.000,-19.500
3.103,11.000,-6.500,24.500,-19.500
3.104,11.500,-6.500,24.500,-19.500
3.105,11.500,-6.500,24.500,-19.000
3.106,11.500,-6.000,24.500,-19.000
3.107,11.500,-6.000,24.500,-19.000
3.108,11.500,-6.000,24.500,-18.500
3.109,11.500,-6.000,24.500,-18.500
3.110,11.500,-6.000,24.500,-18.500
3.111,12.000,-6.000,24.500,-18.500
3.112,12.000,-6.000,24.500,-18.500
3.113,12.000,-6.000,25.000,-18.500
3.114,12.000,-6.000,25.000,-18.500
3.115,11.500,-6.500,25.000,-18.500
3.116,11.000,-7.000,24.500,-19.000
3.117,10.500,-7.000,24.500,-19.000
3.118,10.500,-7.500,24.000,-19.500
3.119,10.000,-8.000,23.500,-19.500
3.120,10.000,-8.000,23.500,-19.500
3.121,9.500,-8.000,23.000,-19.500
3.122,9.500,-8.500,23.000,-19.500
3.123,9.500,-8.500,23.000,-19.500
3.124,9.500,-8.500,23.500,-19.500
3.125,9.500,-8.500,23.500,-19.500
3.126,9.500,-8.500,23.500,-19.500
3.127,9.500,-8.500,23.500,-19.500
3.128,9.500,-8.500,23.500,-19.500
3.129,9.500,-8.500,23.500,-19.500
3.130,9.500,-8.500,23.500,-19.500
3.131,9.500,-8.500,24.000,-19.500
3.132,9.500,-8.000,24.000,-19.000
3.133,9.500,-8.000,24.000,-19.000
3.134,9.000,-8.500,24.000,-19.000
3.135,9.000,-8.500,23.500,-19.000
3.136,9.000,-8.500,23.500,-19.000
3.137,8.500,-8.500,23.000,-19.000
3.138,8.500,-8.500,23.000,-19.000
3.139,8.500,-8.500,23.000,-19.000
3.140,9.000,-8.500,23.000,-19.000
3.141,9.000,-8.000,23.000,-19.000
3.142,9.000,-8.000,23.000,-19.000
3.143,9.000,-8.000,23.000,-18.500
3.144,9.000,-8.000,23.000,-18.500
3.145,9.500,-7.500,23.500,-18.500
3.146,9.500,-7.500,23.500,-18.500
3.147,10.000,-7.000,24.000,-18.000
3.148,10.500,-6.500,24.500,-17.500
3.149,11.000,-6.500,25.500,-17.000
3.150,11.500,-6.000,25.500,-16.500
3.151,11.500,-5.500,26.000,-16.500
3.152,12.000,-5.000,26.000,-16.500
3.153,12.000,-4.500,26.500,-16.500
3.154,12.000,-4.500,26.500,-16.000
3.155,12.000,-4.500,26.500,-16.000
3.156,12.000,-4.500,26.500,-16.000
3.157,12.000,-4.500,26.500,-16.000
3.158,12.000,-5.000,26.000,-16.000
3.159,11.500,-5.000,26.000,-16.000
3.160,11.500,-5.500,26.000,-16.000
3.161,11.000,-5.500,26.000,-16.000
3.162,11.000,-5.500,26.000,-16.500
3.163,11.000,-5.500,26.000,-16.000
3.164,11.500,-5.000,26.500,-16.000
3.165,11.500,-5.000,26.500,-15.500
3.166,12.000,-4.500,27.000,-15.000
3.167,12.000,-4.500,27.500,-15.000
3.168,12.500,-4.000,28.000,-14.500
3.169,12.500,-4.000,28.000,-14.000
3.170,12.500,-4.000,28.000,-13.500
3.171,12.500,-3.500,28.000,-13.500
3.172,12.500,-3.500,28.000,-13.000
3.173,12.500,-3.500,28.500,-12.500
3.174,12.500,-3.500,28.500,-12.500
3.175,12.500,-3.500,28.500,-12.500
3.176,12.000,-4.000,28.500,-13.000
3.177,12.000,-4.500,28.500,-13.500
3.178,11.500,-4.500,28.000,-13.500
3.179,11.500,-5.000,28.000,-14.000
3.180,11.500,-5.000,28.000,-14.000
3.181,11.500,-5.000,28.000,-14.000
3.182,11.500,-5.000,28.000,-14.000
3.183,12.000,-4.500,28.000,-13.500
3.184,12.000,-4.500,28.500,-13.500
3.185,12.000,-4.000,29.000,-13.000
3.186,12.500,-3.500,29.500,-12.500
3.187,12.500,-3.000,30.000,-12.000
3.188,13.000,-2.500,30.500,-11.500
3.189,13.500,-2.000,31.000,-11.000
3.190,14.000,-1.500,31.500,-11.000
3.191,14.000,-1.500,32.000,-11.000
3.192,14.500,-1.500,32.000,-11.000
3.193,14.500,-1.500,31.500,-11.000
3.194,14.500,-1.500,31.500,-11.500
3.195,14.000,-2.000,31.000,-11.500
3.196,14.000,-2.000,31.000,-12.000
3.197,13.500,-2.000,30.500,-12.000
3.198,13.000,-2.500,30.500,-12.500
3.199,13.000,-2.500,30.000,-13.000
3.200,12.500,-3.000,30.000,-13.000
3.201,12.500,-3.000,30.000,-13.000
3.202,13.000,-3.000,29.500,-13.500
3.203,13.000,-2.500,29.500,-13.500
3.204,13.500,-2.500,29.500,-13.500
3.205,13.500,-2.000,30.000,-13.500
3.206,13.500,-2.000,30.000,-13.500
3.207,14.000,-1.500,30.500,-13.500
3.208,14.000,-1.000,31.000,-13.000
3.209,14.500,-1.000,31.000,-13.000
3.210,14.500,-1.000,31.500,-13.000
3.211,14.500,-1.000,31.000,-13.000
3.212,14.500,-1.000,31.000,-13.000
3.213,14.000,-1.500,30.500,-13.500
3.214,13.500,-1.500,30.000,-14.000
3.215,13.000,-2.000,29.500,-14.500
3.216,12.500,-2.500,29.000,-15.000
3.217,12.000,-3.000,28.000,-16.000
3.218,11.500,-3.500,27.500,-16.500
3.219,11.000,-4.000,27.000,-16.500
3.220,10.500,-4.000,26.500,-17.000
3.221,10.500,-4.000,26.000,-17.000
3.222,10.500,-4.000,26.000,-17.500
3.223,10.500,-4.500,26.000,-18.000
3.224,10.000,-4.500,26.000,-18.000
3.225,10.000,-4.500,26.000,-18.500
3.226,10.000,-4.500,26.000,-18.500
3.227,10.000,-4.500,26.000,-19.000
3.228,10.500,-4.000,26.500,-19.000
3.229,10.500,-4.000,26.500,-19.000
3.230,11.000,-4.000,26.500,-19.000
3.231,11.000,-4.000,26.500,-19.000
3.232,11.000,-4.000,26.500,-19.500
3.233,11.000,-4.500,26.500,-19.500
3.234,11.000,-4.500,26.000,-20.000
3.235,11.000,-5.000,26.000,-20.000
3.236,10.500,-5.000,26.000,-20.500
3.237,10.500,-5.500,25.500,-21.000
3.238,10.000,-6.000,25.000,-21.500
3.239,10.000,-6.000,25.000,-21.500
3.240,10.000,-6.000,24.500,-22.000
3.241,9.500,-6.500,24.000,-22.500
3.242,9.500,-6.500,24.000,-22.500
3.243,9.500,-6.000,24.000,-22.500
3.244,9.500,-6.000,24.500,-22.500
3.245,9.500,-6.000,24.500,-22.000
3.246,9.500,-5.500,24.500,-22.000
3.247,10.000,-5.500,24.500,-22.000
3.248,10.000,-5.000,25.000,-21.500
3.249,10.500,-5.000,25.000,-21.500
3.250,10.500,-4.500,25.500,-21.500
3.251,10.500,-4.500,25.500,-21.500
3.252,11.000,-3.500,26.000,-21.500
3.253,11.000,-3.000,26.000,-21.000
3.254,11.000,-2.500,26.500,-21.000
3.255,11.000,-2.500,26.500,-20.500
3.256,11.000,-2.500,26.500,-20.500
3.257,10.500,-3.000,26.000,-21.000
3.258,10.000,-3.500,25.500,-21.000
3.259,9.500,-4.000,25.500,-21.500
3.260,9.500,-4.000,25.000,-22.000
3.261,9.500,-4.500,24.500,-22.000
3.262,9.500,-4.500,24.500,-22.500
3.263,9.500,-5.000,24.000,-22.500
3.264,9.500,-5.000,24.000,-22.500
3.265,9.500,-5.000,24.000,-22.500
3.266,10.000,-5.000,24.000,-22.500
3.267,10.000,-4.500,24.500,-22.500
3.268,10.000,-4.000,25.000,-22.500
3.269,10.500,-4.000,25.000,-22.500
3.270,10.500,-3.500,25.500,-22.000
3.271,10.500,-3.500,25.500,-22.000
3.272,11.000,-3.500,26.000,-22.000
3.273,10.500,-4.000,26.000,-22.000
3.274,10.500,-4.000,25.500,-22.500
3.275,10.000,-4.500,25.500,-22.500
3.276,10.000,-4.500,25.500,-23.000
3.277,9.500,-5.000,25.500,-23.000
3.278,9.000,-5.500,25.500,-23.500
3.279,9.000,-5.500,25.000,-23.500
3.280,9.000,-6.000,24.500,-23.500
3.281,9.000,-6.000,24.000,-23.500
3.282,8.500,-5.500,24.000,-23.500
3.283,8.500,-5.500,23.500,-23.500
3.284,9.000,-5.500,24.000,-23.500
3.285,9.000,-5.500,24.000,-23.500
3.286,9.000,-5.500,24.500,-23.500
3.287,9.000,-5.500,25.000,-23.500
3.288,9.000,-5.000,25.000,-23.500
3.289,9.000,-5.000,25.000,-23.500
3.290,9.000,-4.500,25.000,-23.500
3.291,9.000,-4.500,25.000,-23.500
3.292,9.000,-4.500,25.000,-23.500
3.293,8.500,-4.500,25.000,-23.500
3.294,8.500,-5.000,25.000,-23.500
3.295,8.000,-5.000,24.500,-24.000
3.296,7.500,-5.000,24.000,-24.000
3.297,7.500,-5.500,23.500,-24.500
3.298,7.000,-6.000,23.000,-25.000
3.299,6.500,-6.500,22.500,-25.500
3.300,6.500,-6.500,22.500,-25.500
3.301,6.500,-6.500,22.000,-25.500
3.302,6.500,-6.500,22.000,-25.500
3.303,6.500,-6.500,22.000,-25.500
3.304,6.500,-6.500,22.000,-26.000
3.305,6.500,-7.000,21.500,-26.000
3.306,6.500,-7.000,21.500,-26.000
3.307,6.500,-7.000,22.000,-26.000
3.308,6.500,-6.500,22.000,-26.000
3.309,7.000,-6.500,22.500,-25.500
3.310,7.500,-6.000,23.000,-25.500
3.311,8.000,-5.500,23.000,-25.000
3.312,8.500,-5.500,23.000,-25.000
3.313,8.500,-5.500,23.000,-25.000
3.314,8.500,-5.500,23.000,-25.000
3.315,8.500,-5.500,23.000,-25.500
3.316,8.000,-5.500,22.500,-25.500
3.317,7.500,-6.000,22.500,-26.000
3.318,7.000,-6.500,21.500,-26.500
3.319,6.500,-7.500,21.000,-27.500
3.320,5.000,-8.500,19.500,-28.000
3.321,4.000,-10.000,18.000,-29.500
3.322,2.000,-11.500,16.500,-31.000
3.323,0.000,-13.500,14.500,-32.500
3.324,-2.000,-16.000,12.000,-34.000
3.325,-4.000,-18.000,10.000,-35.500
3.326,-5.500,-20.000,8.500,-36.500
3.327,-7.000,-21.500,7.000,-37.500
3.328,-8.000,-22.500,6.500,-38.000
3.329,-8.000,-23.500,6.000,-38.500
3.330,-8.000,-23.500,6.000,-38.500
3.331,-7.500,-23.000,6.500,-38.000
3.332,-6.500,-22.000,7.500,-37.000
3.333,-5.000,-20.000,9.000,-36.000
3.334,-3.000,-18.000,11.000,-34.500
3.335,-1.000,-16.000,13.000,-33.000
3.336,1.500,-13.500,15.500,-31.500
3.337,4.000,-11.000,17.500,-30.000
3.338,6.000,-9.000,19.500,-28.500
3.339,7.500,-7.000,21.000,-27.500
3.340,9.000,-6.000,22.000,-26.500
3.341,9.500,-5.000,22.500,-26.500
3.342,10.000,-4.500,23.000,-26.500
3.343,10.000,-5.000,22.500,-26.500
3.344,9.500,-5.500,22.000,-27.000
3.345,8.500,-6.500,21.000,-28.000
3.346,7.500,-7.500,19.500,-29.000
3.347,6.500,-8.500,18.500,-29.500
3.348,6.000,-9.500,18.000,-30.500
3.349,5.500,-10.000,17.000,-30.500
3.350,5.000,-10.500,16.500,-30.500
3.351,5.000,-10.500,16.500,-30.500
3.352,5.000,-10.500,16.500,-30.500
3.353,5.000,-10.500,16.500,-30.500
3.354,4.500,-11.000,16.500,-31.000
3.355,4.500,-11.000,16.500,-31.000
3.356,4.500,-11.500,16.000,-31.000
3.357,4.500,-11.500,15.500,-31.500
3.358,4.000,-12.000,15.000,-32.000
3.359,4.000,-12.000,15.000,-32.000
3.360,3.500,-12.000,14.500,-32.500
3.361,3.500,-12.500,14.000,-32.500
3.362,3.500,-12.500,14.000,-32.500
3.363,3.500,-12.500,14.000,-32.500
3.364,3.500,-12.000,14.000,-32.000
3.365,3.500,-12.000,14.000,-32.000
3.366,3.500,-12.000,14.000,-32.000
3.367,3.500,-11.500,14.500,-32.000
3.368,3.500,-11.500,14.500,-32.000
3.369,3.500,-11.500,14.500,-32.000
3.370,3.500,-11.500,15.000,-32.000
3.371,3.500,-11.500,15.000,-32.000
3.372,3.500,-11.500,15.000,-31.500
3.373,3.500,-11.500,15.000,-31.500
3.374,3.500,-11.500,15.000,-32.000
3.375,3.500,-11.500,15.000,-32.000
3.376,3.000,-12.000,14.500,-32.500
3.377,3.000,-12.000,14.500,-32.500
3.378,2.500,-12.000,14.000,-32.500
3.379,2.500,-12.500,14.000,-32.500
3.380,2.000,-12.500,14.000,-32.500
3.381,2.500,-12.500,14.000,-33.000
3.382,2.500,-12.500,14.000,-33.000
3.383,2.500,-12.000,14.000,-33.000
3.384,3.000,-12.000,14.000,-33.000
3.385,3.000,-12.000,14.000,-33.000
3.386,3.000,-12.000,14.000,-33.000
3.387,3.500,-11.500,14.500,-33.000
3.388,3.500,-11.500,14.500,-32.500
3.389,4.000,-11.500,15.000,-32.500
3.390,4.000,-11.500,15.000,-32.500
3.391,4.000,-11.500,15.000,-32.500
3.392,4.000,-11.500,15.000,-32.500
3.393,4.500,-11.500,14.500,-32.500
3.394,4.500,-11.500,14.500,-32.500
3.395,4.500,-12.000,14.500,-32.500
3.396,4.000,-12.000,14.000,-32.500
3.397,4.000,-12.500,14.000,-33.000
3.398,3.500,-12.500,13.500,-33.000
3.399,3.500,-13.000,13.000,-33.500
3.400,3.500,-13.000,13.000,-33.500
3.401,3.500,-13.000,12.500,-33.500
3.402,3.500,-13.000,12.500,-33.000
3.403,4.000,-13.000,13.000,-33.000
3.404,4.000,-12.500,13.000,-33.000
3.405,4.000,-12.500,13.500,-33.000
3.406,4.500,-12.500,13.500,-32.500
3.407,4.500,-12.500,13.500,-32.500
3.408,4.500,-12.000,14.000,-32.000
3.409,4.000,-12.000,14.000,-32.000
3.410,4.000,-12.000,14.000,-31.500
3.411,4.000,-12.000,14.000,-31.500
3.412,4.500,-12.000,14.000,-31.500
3.413,4.500,-12.000,14.000,-31.000
3.414,4.500,-12.000,14.000,-31.000
3.415,5.000,-12.000,13.500,-31.000
3.416,5.000,-12.000,13.500,-31.500
3.417,4.500,-12.000,13.000,-31.500
3.418,4.500,-12.500,13.000,-31.500
3.419,4.000,-13.000,12.500,-32.000
3.420,4.000,-13.000,12.500,-32.000
3.421,3.500,-13.500,12.000,-32.500
3.422,3.500,-13.500,12.000,-32.000
3.423,3.500,-13.000,12.000,-32.000
3.424,4.000,-13.000,12.500,-32.000
3.425,4.000,-12.500,12.500,-31.500
3.426,4.500,-12.500,13.000,-31.500
3.427,5.000,-11.500,13.500,-31.000
3.428,5.000,-11.000,13.500,-31.000
3.429,5.500,-10.500,14.000,-30.500
3.430,6.000,-10.000,14.000,-30.500
3.431,6.000,-10.000,14.000,-30.000
3.432,6.500,-9.500,14.500,-30.000
3.433,6.500,-9.500,14.500,-30.000
3.434,6.500,-9.500,14.500,-30.000
3.435,6.500,-9.500,14.500,-30.000
3.436,6.000,-9.500,14.500,-30.000
3.437,6.000,-9.500,14.500,-30.500
3.438,5.500,-10.000,14.000,-30.500
3.439,5.500,-10.500,13.500,-31.000
3.440,5.000,-10.500,13.500,-31.000
3.441,5.000,-11.000,13.500,-31.500
3.442,5.000,-11.000,13.500,-31.500
3.443,5.000,-11.000,13.500,-31.500
3.444,5.000,-11.000,13.500,-31.500
3.445,5.000,-11.000,13.500,-31.500
3.446,5.000,-11.000,14.000,-31.500
3.447,5.000,-10.500,14.000,-31.500
3.448,5.500,-10.500,14.000,-31.500
3.449,5.500,-10.500,13.500,-31.500
3.450,5.500,-10.500,13.500,-32.000
3.451,5.500,-10.500,13.500,-32.000
3.452,5.500,-10.500,13.500,-31.500
3.453,6.000,-10.000,14.000,-31.500
3.454,6.000,-10.000,14.000,-31.500
3.455,6.000,-10.000,14.000,-31.500
3.456,6.000,-10.500,14.000,-31.000
3.457,6.000,-10.500,14.000,-31.000
3.458,6.000,-11.000,14.000,-31.000
3.459,6.000,-11.000,13.500,-31.000
3.460,6.000,-11.000,13.500,-31.000
3.461,5.500,-11.500,13.500,-31.000
3.462,5.500,-11.500,13.500,-31.000
3.463,5.500,-11.500,13.500,-31.500
3.464,5.500,-11.500,13.500,-31.500
3.465,5.500,-11.500,13.500,-31.500
3.466,6.000,-11.000,13.500,-32.000
3.467,6.000,-11.000,13.500,-32.000
3.468,6.500,-11.000,14.000,-32.000
3.469,6.500,-11.000,14.000,-32.000
3.470,6.500,-11.000,14.500,-32.000
3.471,7.000,-10.500,14.500,-32.000
3.472,7.000,-10.500,15.000,-31.500
3.473,7.000,-10.500,15.000,-31.500
3.474,6.500,-10.500,15.000,-31.500
3.475,6.500,-10.500,15.000,-31.500
3.476,6.000,-10.500,14.500,-32.000
3.477,6.000,-11.000,14.500,-32.500
3.478,5.500,-11.500,14.000,-32.500
3.479,5.500,-11.500,13.500,-33.000
3.480,5.500,-11.500,13.500,-33.000
3.481,5.500,-11.500,13.500,-33.000
3.482,5.500,-11.500,13.500,-33.000
3.483,6.000,-11.500,14.000,-33.000
3.484,6.000,-11.500,14.000,-33.000
3.485,6.000,-11.500,14.000,-33.000
3.486,6.000,-12.000,14.000,-33.000
3.487,6.000,-12.000,14.000,-33.000
3.488,6.500,-12.000,14.000,-33.000
3.489,6.500,-12.000,14.000,-32.500
3.490,6.500,-12.000,14.000,-32.500
3.491,6.500,-12.000,14.000,-32.500
3.492,6.000,-12.000,14.000,-32.500
3.493,6.000,-12.000,14.000,-32.500
3.494,5.500,-12.000,14.000,-32.500
3.495,5.500,-12.000,14.000,-33.000
3.496,5.000,-12.500,13.500,-33.000
3.497,5.000,-12.500,13.000,-33.500
3.498,4.500,-12.500,13.000,-34.000
3.499,4.500,-12.500,12.500,-34.000
3.500,4.500,-12.500,12.500,-34.000
3.501,4.500,-12.500,12.500,-34.000
3.502,4.500,-12.500,12.500,-34.000
3.503,4.500,-12.500,12.500,-34.000
3.504,4.500,-13.000,12.500,-33.500
3.505,4.500,-13.000,12.500,-33.500
3.506,4.500,-13.000,13.000,-33.000
3.507,5.000,-12.500,13.000,-32.500
3.508,5.000,-12.500,13.000,-32.500
3.509,5.500,-12.000,13.500,-32.500
3.510,5.500,-12.000,13.500,-32.500
3.511,6.000,-11.500,14.000,-32.500
3.512,6.000,-11.500,14.000,-32.500
3.513,6.000,-11.500,14.000,-32.500
3.514,6.000,-11.500,14.000,-32.500
3.515,5.500,-12.000,13.500,-32.500
3.516,5.000,-12.500,13.500,-32.500
3.517,5.000,-13.000,13.000,-33.000
3.518,4.500,-13.000,12.500,-33.000
3.519,4.500,-13.500,12.500,-33.500
