'Elapsed time','AECG1','AECG2','AECG3','AECG4'
'seconds','uV','uV','uV','uV'
0.000,214.500,300.000,349.500,262.500
0.001,214.000,300.000,349.500,261.500
0.002,214.000,299.500,349.500,261.000
0.003,213.500,299.500,349.000,261.000
0.004,213.500,299.000,349.500,260.500
0.005,214.000,299.000,349.500,260.500
0.006,214.000,299.000,350.000,260.000
0.007,214.500,299.500,350.000,259.500
0.008,214.500,299.500,350.000,259.500
0.009,214.500,300.000,350.000,259.000
0.010,214.500,300.000,350.000,258.500
0.011,214.500,300.000,350.000,258.500
0.012,214.500,300.000,350.000,258.000
0.013,214.500,300.000,350.000,258.000
0.014,214.500,300.500,350.000,257.500
0.015,214.500,300.500,350.500,257.500
0.016,215.000,300.500,350.500,257.500
0.017,215.000,300.500,350.500,257.500
0.018,215.000,300.500,350.500,257.000
0.019,215.000,300.000,350.000,256.500
0.020,214.500,299.500,350.000,256.000
0.021,214.500,299.000,349.500,255.500
0.022,214.000,298.500,349.000,255.000
0.023,214.000,298.500,349.000,255.000
0.024,214.000,298.500,349.000,254.500
0.025,214.500,299.000,349.500,254.500
0.026,215.000,299.500,349.500,254.000
0.027,215.500,300.000,350.000,253.500
0.028,215.500,300.500,350.000,253.500
0.029,216.000,301.000,350.500,253.000
0.030,215.500,301.000,350.500,253.000
0.031,215.500,301.500,351.000,253.000
0.032,215.500,301.500,351.000,253.000
0.033,215.500,301.500,351.000,252.500
0.034,215.000,301.000,350.500,252.000
0.035,214.000,300.500,350.000,251.500
0.036,213.000,299.000,348.500,250.000
0.037,211.500,297.500,347.000,248.500
0.038,209.500,295.000,344.500,246.000
0.039,207.000,292.500,342.000,244.000
0.040,205.000,290.000,339.500,241.500
0.041,203.000,288.000,337.500,239.500
0.042,201.000,286.000,335.500,237.500
0.043,199.500,284.500,334.000,236.000
0.044,198.500,284.000,333.000,235.000
0.045,198.000,283.500,333.000,235.000
0.046,198.000,284.000,333.500,235.000
0.047,199.000,285.500,335.000,236.000
0.048,200.500,287.500,337.000,237.000
0.049,202.500,290.000,339.000,238.500
0.050,205.500,293.000,342.000,240.500
0.051,208.500,296.500,345.000,242.500
0.052,211.500,299.500,348.000,245.000
0.053,214.000,302.500,350.500,247.000
0.054,216.000,304.000,352.500,248.500
0.055,217.000,305.500,354.000,249.500
0.056,217.500,306.000,354.500,249.500
0.057,217.500,306.000,354.500,249.000
0.058,217.000,305.500,354.000,248.000
0.059,216.000,304.500,352.500,247.000
0.060,214.500,303.000,351.000,245.500
0.061,213.000,301.500,349.000,244.000
0.062,212.000,300.000,347.500,242.500
0.063,211.000,298.500,346.500,241.000
0.064,210.000,297.500,345.500,240.000
0.065,209.500,297.000,345.000,239.500
0.066,209.000,296.500,344.500,239.000
0.067,208.500,296.000,344.500,239.000
0.068,208.500,296.000,344.500,239.000
0.069,208.500,296.000,344.500,239.500
0.070,208.500,296.000,344.500,239.500
0.071,208.500,296.500,345.000,239.500
0.072,209.000,297.000,345.500,239.500
0.073,209.000,297.000,346.000,240.000
0.074,209.000,297.500,346.000,240.000
0.075,209.000,297.500,346.000,240.000
0.076,209.000,297.500,346.000,239.500
0.077,209.000,297.500,345.500,239.500
0.078,208.500,297.000,345.000,239.000
0.079,208.500,296.500,344.500,238.500
0.080,208.000,296.500,344.000,238.500
0.081,208.000,296.000,343.500,238.000
0.082,207.500,295.500,343.000,237.000
0.083,207.500,295.000,342.500,236.500
0.084,207.000,295.000,342.000,236.000
0.085,207.000,294.500,342.000,235.500
0.086,206.500,294.000,341.500,235.500
0.087,206.000,294.000,341.500,235.000
0.088,206.000,294.000,341.000,235.000
0.089,206.000,294.000,341.000,235.000
0.090,205.500,294.000,341.000,235.000
0.091,205.500,294.000,341.000,234.500
0.092,205.500,294.500,341.500,234.500
0.093,206.000,295.000,341.500,235.000
0.094,206.000,295.500,342.000,235.000
0.095,206.000,295.500,342.500,235.000
0.096,206.000,296.000,342.500,235.000
0.097,205.500,296.000,342.000,235.000
0.098,205.500,295.500,342.000,235.000
0.099,205.000,295.500,341.000,234.500
0.100,205.000,295.000,340.500,234.000
0.101,205.000,294.500,340.000,233.500
0.102,205.000,294.000,340.000,233.000
0.103,205.000,294.000,340.000,233.000
0.104,205.000,294.000,340.000,232.500
0.105,205.000,294.000,339.500,232.000
0.106,205.000,294.000,339.500,232.000
0.107,205.000,294.500,339.500,231.500
0.108,205.000,294.500,339.500,231.500
0.109,205.000,294.500,339.500,231.500
0.110,205.000,295.000,339.500,231.500
0.111,205.500,295.000,339.500,231.000
0.112,205.500,295.000,339.000,231.000
0.113,206.000,295.000,339.000,231.000
0.114,206.000,295.000,339.000,231.000
0.115,206.000,295.000,339.000,231.000
0.116,206.000,295.000,339.000,231.000
0.117,206.000,295.500,339.000,231.000
0.118,206.000,295.500,339.000,231.000
0.119,205.500,295.000,339.000,230.500
0.120,205.500,295.000,338.500,230.500
0.121,205.000,294.500,338.500,230.000
0.122,205.000,294.000,338.500,229.500
0.123,204.500,294.000,338.000,229.000
0.124,204.000,293.500,338.000,228.500
0.125,203.500,293.000,337.500,228.000
0.126,203.500,293.000,337.500,227.500
0.127,203.000,293.000,337.500,227.500
0.128,203.000,293.000,337.500,227.000
0.129,203.000,293.000,337.500,227.000
0.130,203.000,293.000,337.500,227.500
0.131,203.000,293.000,337.000,227.500
0.132,203.000,293.000,337.000,227.500
0.133,203.000,293.000,337.500,227.500
0.134,203.000,293.000,337.000,227.500
0.135,203.000,293.000,337.000,227.500
0.136,202.500,293.000,337.000,227.500
0.137,202.500,293.000,337.000,227.500
0.138,202.500,293.000,336.500,227.500
0.139,202.000,292.500,336.500,227.000
0.140,202.000,292.000,336.000,226.500
0.141,202.000,292.000,335.500,226.500
0.142,202.000,291.500,335.000,226.000
0.143,202.000,291.500,335.000,225.500
0.144,202.000,291.000,334.500,225.000
0.145,202.000,291.000,334.500,225.000
0.146,202.000,291.500,334.500,224.500
0.147,202.000,291.500,334.500,224.500
0.148,202.000,291.500,334.500,224.500
0.149,202.500,291.500,334.500,224.000
0.150,202.500,291.500,334.500,224.000
0.151,202.500,291.500,334.500,224.500
0.152,202.500,291.500,335.000,224.500
0.153,202.500,292.000,335.000,224.500
0.154,202.500,292.000,335.000,224.500
0.155,202.500,292.000,335.000,224.500
0.156,202.500,291.500,335.000,224.500
0.157,202.500,291.500,335.000,224.000
0.158,202.000,291.000,335.000,224.000
0.159,202.000,290.500,334.500,223.500
0.160,201.500,290.000,334.000,222.500
0.161,200.500,289.000,333.500,221.500
0.162,200.000,288.500,332.500,220.500
0.163,199.500,288.000,331.500,219.500
0.164,199.500,287.500,330.500,218.000
0.165,199.000,286.500,329.500,217.000
0.166,198.500,286.000,328.500,215.500
0.167,198.000,285.000,327.500,214.500
0.168,197.500,284.000,326.500,213.500
0.169,196.500,283.000,325.000,212.500
0.170,195.500,281.500,324.000,211.000
0.171,194.500,280.500,322.500,209.500
0.172,193.000,279.000,321.500,208.500
0.173,192.000,278.000,320.000,207.500
0.174,191.000,277.000,319.000,206.000
0.175,189.500,275.500,317.500,205.000
0.176,188.000,274.500,316.500,204.000
0.177,186.500,273.000,315.500,203.000
0.178,185.000,272.000,314.500,202.000
0.179,183.500,270.500,313.500,201.500
0.180,182.000,270.000,313.000,201.000
0.181,181.000,269.000,312.500,201.000
0.182,180.500,268.500,312.500,201.500
0.183,179.500,268.500,312.500,202.000
0.184,179.000,268.500,313.000,203.000
0.185,178.500,268.500,313.500,204.500
0.186,178.000,269.000,315.000,206.000
0.187,178.000,269.500,316.000,208.000
0.188,178.000,270.500,317.500,209.500
0.189,178.000,271.500,318.500,211.000
0.190,177.500,272.000,319.500,212.000
0.191,177.500,272.000,320.000,213.000
0.192,177.000,272.000,320.000,214.000
0.193,176.500,271.500,320.000,214.500
0.194,176.000,271.000,320.000,214.500
0.195,176.000,271.000,320.000,214.500
0.196,176.500,271.500,320.500,214.500
0.197,177.500,272.500,321.000,214.500
0.198,179.000,274.000,322.000,214.500
0.199,181.000,275.500,323.500,214.500
0.200,183.500,277.500,324.500,215.000
0.201,185.500,279.500,326.000,215.000
0.202,188.000,281.000,327.000,215.000
0.203,190.500,283.000,328.000,215.000
0.204,193.000,285.000,330.000,215.000
0.205,196.500,287.500,332.000,215.500
0.206,200.000,290.500,334.500,216.500
0.207,204.000,294.000,337.000,217.500
0.208,207.000,297.000,339.500,218.500
0.209,210.000,299.500,341.500,219.500
0.210,212.000,301.500,343.500,220.500
0.211,214.000,303.500,345.000,221.500
0.212,215.500,305.000,346.500,223.000
0.213,216.000,306.500,348.000,223.500
0.214,216.500,307.000,348.500,224.500
0.215,216.500,307.000,348.500,224.500
0.216,216.000,307.000,348.000,223.500
0.217,215.500,306.000,347.000,222.500
0.218,214.000,305.000,346.000,221.000
0.219,212.500,303.500,344.500,219.000
0.220,211.000,302.000,343.000,217.500
0.221,209.500,300.000,341.000,215.500
0.222,208.000,298.500,339.000,213.000
0.223,206.000,296.500,337.000,211.000
0.224,205.000,295.000,335.000,209.500
0.225,203.500,294.000,334.000,208.000
0.226,202.500,293.000,332.500,207.000
0.227,202.000,292.000,332.000,206.500
0.228,201.500,291.500,331.000,205.500
0.229,201.000,291.500,330.500,205.000
0.230,200.500,291.500,330.500,205.000
0.231,200.500,291.500,330.500,204.500
0.232,200.500,292.000,330.500,204.500
0.233,200.500,292.000,330.500,204.500
0.234,201.000,292.000,331.000,204.500
0.235,201.000,292.000,331.000,204.500
0.236,201.500,292.000,331.000,204.500
0.237,201.500,292.000,331.000,204.000
0.238,201.500,292.000,331.000,204.000
0.239,201.500,292.000,331.000,203.500
0.240,201.500,292.000,330.500,203.000
0.241,201.500,292.000,330.500,202.500
0.242,201.000,292.000,330.000,202.000
0.243,200.500,292.000,330.000,201.500
0.244,200.500,291.500,329.500,201.000
0.245,200.500,291.500,329.500,200.000
0.246,200.500,291.000,329.500,200.000
0.247,200.500,291.000,329.500,199.500
0.248,200.500,291.000,329.500,199.000
0.249,200.500,291.000,330.000,199.000
0.250,200.500,291.000,330.500,199.000
0.251,200.500,291.000,330.500,199.000
0.252,200.500,291.500,330.500,199.000
0.253,201.000,291.500,331.000,199.000
0.254,201.000,292.000,331.000,199.000
0.255,201.000,292.000,331.000,199.000
0.256,201.000,292.000,331.000,199.000
0.257,201.000,291.500,331.000,198.500
0.258,201.000,291.500,331.000,198.000
0.259,200.500,291.000,330.500,197.500
0.260,200.500,291.000,330.500,197.000
0.261,200.000,290.500,330.000,196.500
0.262,200.000,290.500,330.000,196.000
0.263,199.500,290.500,330.000,195.500
0.264,199.500,290.500,330.000,195.500
0.265,199.500,290.500,329.500,195.000
0.266,199.500,290.500,329.500,195.000
0.267,199.500,291.000,329.000,195.000
0.268,200.000,291.500,329.500,195.000
0.269,200.500,291.500,329.500,195.000
0.270,200.500,292.000,330.000,195.000
0.271,200.500,292.000,330.000,195.000
0.272,200.500,292.000,330.000,194.500
0.273,200.500,292.000,330.000,194.500
0.274,200.500,291.500,330.000,194.000
0.275,200.000,291.000,330.000,193.500
0.276,199.500,290.500,329.500,193.000
0.277,199.000,290.000,329.500,192.500
0.278,198.500,289.500,329.000,192.000
0.279,197.500,289.000,328.500,191.000
0.280,197.000,288.500,328.000,190.500
0.281,196.500,288.000,328.000,189.500
0.282,196.500,287.500,327.500,189.000
0.283,196.000,287.500,327.500,188.500
0.284,196.000,287.000,327.000,188.000
0.285,196.000,287.000,326.500,187.500
0.286,196.000,287.000,326.500,187.500
0.287,195.500,286.500,326.000,187.000
0.288,195.500,287.000,326.000,187.000
0.289,195.500,287.000,326.500,186.500
0.290,195.500,287.000,326.500,186.500
0.291,195.500,287.500,327.000,186.000
0.292,195.500,287.500,327.000,186.000
0.293,195.500,287.500,327.000,186.000
0.294,195.000,287.500,327.000,185.500
0.295,195.000,287.500,326.500,185.000
0.296,194.500,287.000,326.500,184.500
0.297,194.500,286.500,326.000,184.000
0.298,194.000,286.000,325.500,183.000
0.299,193.500,286.000,325.000,182.500
0.300,193.500,285.500,325.000,181.500
0.301,193.000,285.500,324.500,181.000
0.302,192.500,285.000,324.000,180.500
0.303,192.500,285.000,324.000,180.000
0.304,192.000,285.000,324.000,179.500
0.305,192.000,285.000,324.000,179.500
0.306,192.000,284.500,324.000,179.000
0.307,192.000,284.500,324.000,179.000
0.308,192.000,284.000,324.000,179.000
0.309,191.500,284.000,323.500,178.500
0.310,191.500,284.500,323.500,178.500
0.311,191.500,284.500,323.500,178.500
0.312,191.500,285.000,323.500,178.500
0.313,191.500,285.500,323.500,178.500
0.314,191.000,285.500,323.500,178.000
0.315,191.000,285.500,323.500,178.000
0.316,190.500,285.000,323.000,177.500
0.317,190.000,284.500,323.000,177.000
0.318,190.000,284.500,322.500,176.500
0.319,189.500,284.000,322.000,176.000
0.320,189.500,284.000,322.000,175.500
0.321,189.000,284.000,321.500,175.000
0.322,189.000,283.500,321.000,174.500
0.323,188.500,283.000,320.500,173.500
0.324,188.500,283.000,320.000,173.000
0.325,189.000,282.500,320.000,172.500
0.326,189.000,282.500,320.000,172.500
0.327,189.000,282.500,320.000,172.000
0.328,189.000,283.000,320.000,172.000
0.329,189.500,283.000,320.000,172.000
0.330,189.500,283.000,320.500,172.000
0.331,189.500,283.500,321.000,172.500
0.332,190.000,284.000,321.500,172.500
0.333,190.000,284.500,322.000,172.500
0.334,190.500,285.000,322.000,173.000
0.335,190.500,285.000,322.500,173.000
0.336,190.500,285.500,323.000,173.000
0.337,190.500,285.500,323.500,173.000
0.338,190.500,285.500,323.500,173.000
0.339,190.500,285.500,323.500,172.500
0.340,190.000,285.000,323.000,172.500
0.341,190.000,285.000,323.000,172.000
0.342,190.000,285.000,322.500,171.500
0.343,190.000,285.000,322.000,171.000
0.344,190.000,285.000,322.000,170.500
0.345,190.500,285.000,322.000,170.500
0.346,191.000,285.500,322.500,170.500
0.347,191.500,286.000,323.000,171.000
0.348,192.500,286.500,323.500,171.000
0.349,193.000,287.000,324.000,171.500
0.350,193.000,287.500,324.000,171.500
0.351,193.500,288.000,324.500,171.500
0.352,193.500,288.500,324.500,172.000
0.353,193.500,288.500,325.000,172.000
0.354,193.500,289.000,325.000,172.500
0.355,193.500,288.500,325.000,172.500
0.356,193.000,288.500,325.000,172.500
0.357,193.000,288.000,325.000,172.500
0.358,193.000,288.000,325.000,172.000
0.359,193.000,287.500,324.500,171.500
0.360,192.500,287.500,324.500,171.000
0.361,192.500,287.500,324.000,170.500
0.362,192.000,287.500,324.000,170.000
0.363,192.000,287.500,324.000,170.000
0.364,192.000,287.500,324.000,169.500
0.365,192.000,287.000,324.000,169.500
0.366,192.000,287.500,324.000,169.500
0.367,192.500,287.500,324.500,169.500
0.368,192.500,287.500,324.500,169.500
0.369,193.000,288.000,324.500,169.500
0.370,193.000,288.500,325.000,169.500
0.371,193.500,288.500,325.000,169.500
0.372,194.000,289.000,325.500,169.500
0.373,194.000,289.000,325.500,169.500
0.374,194.000,289.000,325.500,169.500
0.375,194.000,289.500,326.000,169.500
0.376,194.000,289.500,326.000,169.000
0.377,194.000,289.500,326.000,169.000
0.378,194.000,289.500,326.500,169.000
0.379,194.000,289.500,326.500,168.500
0.380,193.500,289.500,326.500,168.500
0.381,193.500,289.500,326.500,168.000
0.382,193.500,289.500,326.500,167.500
0.383,194.000,289.500,326.500,167.500
0.384,194.000,290.000,326.500,167.500
0.385,194.500,290.000,326.500,167.500
0.386,194.500,290.000,327.000,167.500
0.387,194.500,290.000,327.000,167.500
0.388,194.500,290.500,327.000,167.500
0.389,195.000,290.500,327.500,167.500
0.390,195.500,291.000,328.000,167.500
0.391,195.500,291.000,328.000,167.000
0.392,195.500,291.000,328.500,167.000
0.393,196.000,291.000,328.500,167.500
0.394,196.000,291.500,329.000,167.500
0.395,196.000,291.500,329.500,168.000
0.396,196.000,292.000,330.000,168.000
0.397,196.000,292.000,330.000,167.500
0.398,196.000,292.500,330.500,167.500
0.399,196.500,292.500,331.000,167.000
0.400,196.500,292.500,331.000,167.000
0.401,196.500,292.500,331.000,167.000
0.402,196.500,292.500,331.000,167.000
0.403,197.000,292.500,330.500,166.500
0.404,197.000,292.500,330.500,166.500
0.405,197.000,292.500,329.500,166.500
0.406,197.000,292.000,329.000,166.000
0.407,197.000,292.000,328.000,165.500
0.408,196.000,291.500,326.500,164.500
0.409,195.000,290.500,325.000,163.500
0.410,194.000,289.500,323.000,162.500
0.411,192.500,288.000,321.000,161.000
0.412,190.500,286.000,319.000,159.500
0.413,189.000,284.000,316.500,158.000
0.414,187.500,282.500,315.000,157.000
0.415,186.500,281.000,313.500,156.000
0.416,186.000,280.000,312.500,155.500
0.417,185.500,280.000,312.000,155.000
0.418,186.000,280.000,312.000,155.000
0.419,186.500,280.500,312.000,155.500
0.420,188.000,282.000,313.000,156.500
0.421,189.500,284.000,315.000,158.000
0.422,192.000,287.000,317.000,159.500
0.423,195.000,290.000,320.000,161.500
0.424,198.000,293.000,323.000,163.000
0.425,201.000,296.000,325.500,165.000
0.426,203.000,298.500,327.500,166.500
0.427,204.500,300.000,328.500,167.500
0.428,206.000,301.500,329.000,168.000
0.429,206.000,302.000,329.500,168.000
0.430,206.000,301.500,328.500,167.500
0.431,205.500,300.500,327.500,167.000
0.432,204.500,299.500,326.500,166.000
0.433,203.500,298.500,325.000,165.000
0.434,202.500,297.000,323.500,164.500
0.435,201.500,296.000,322.500,163.500
0.436,201.000,295.500,321.500,163.000
0.437,200.000,294.500,321.000,162.500
0.438,199.500,294.000,320.500,162.000
0.439,199.500,293.000,320.000,162.000
0.440,199.000,292.500,319.500,161.500
0.441,199.000,292.500,318.500,161.000
0.442,198.500,292.000,318.000,160.500
0.443,198.500,291.500,317.500,159.500
0.444,198.500,291.000,317.000,159.000
0.445,198.500,291.000,316.500,158.500
0.446,198.500,291.000,316.500,158.500
0.447,198.500,291.000,316.500,158.000
0.448,198.500,291.000,316.500,158.000
0.449,198.500,291.000,316.500,157.500
0.450,198.500,291.000,316.000,157.500
0.451,199.000,291.000,316.000,157.000
0.452,199.000,291.000,316.000,157.000
0.453,199.000,291.000,315.500,156.500
0.454,199.000,291.000,315.000,156.500
0.455,198.500,291.000,315.000,156.000
0.456,198.000,290.500,314.000,155.500
0.457,197.500,290.000,313.500,155.000
0.458,197.000,289.500,312.500,154.000
0.459,196.500,288.500,311.500,153.500
0.460,196.000,288.000,310.500,152.500
0.461,195.500,287.500,310.000,152.000
0.462,195.500,287.000,309.000,151.000
0.463,195.000,286.500,309.000,150.500
0.464,195.000,286.500,308.500,150.000
0.465,195.500,286.500,308.500,149.500
0.466,195.500,286.500,308.500,149.500
0.467,195.500,286.500,308.000,149.500
0.468,195.500,286.500,308.500,149.500
0.469,195.500,287.000,308.500,150.000
0.470,195.500,287.000,308.500,150.000
0.471,195.500,287.000,308.500,149.500
0.472,196.000,287.500,308.500,149.500
0.473,196.000,287.500,308.500,149.500
0.474,196.000,287.500,308.500,149.000
0.475,196.000,287.500,308.500,148.500
0.476,196.000,287.000,308.000,148.000
0.477,196.000,287.000,307.500,147.500
0.478,195.500,286.500,307.000,146.500
0.479,195.500,286.000,306.500,145.500
0.480,195.000,286.000,306.000,145.000
0.481,195.000,285.500,305.500,144.000
0.482,194.500,285.000,305.000,143.000
0.483,194.000,284.500,304.000,142.500
0.484,194.000,284.000,303.500,142.000
0.485,193.500,284.000,303.500,141.000
0.486,193.500,284.000,303.000,140.500
0.487,193.500,283.500,303.000,140.500
0.488,193.500,283.500,303.500,140.000
0.489,194.000,283.500,303.500,140.000
0.490,194.000,283.500,304.000,140.000
0.491,194.500,283.500,304.000,140.000
0.492,195.000,283.500,304.000,140.000
0.493,195.500,284.000,304.000,140.000
0.494,195.500,284.000,304.000,140.000
0.495,196.000,284.000,304.500,140.000
0.496,196.000,284.500,304.500,140.000
0.497,196.000,284.500,304.500,140.000
0.498,196.000,284.500,304.500,140.000
0.499,196.000,284.500,304.500,140.000
0.500,196.000,284.500,304.000,139.500
0.501,195.500,284.000,303.500,139.000
0.502,195.500,284.000,303.500,138.500
0.503,195.500,284.000,303.000,138.000
0.504,195.500,284.000,303.000,137.500
0.505,196.000,284.000,303.000,137.000
0.506,196.000,284.000,303.000,137.000
0.507,196.000,284.000,303.000,137.000
0.508,196.000,284.000,303.500,137.000
0.509,196.000,284.500,303.500,137.000
0.510,196.500,284.500,304.000,137.500
0.511,196.500,284.500,304.000,138.000
0.512,197.000,284.500,304.500,138.000
0.513,197.000,285.000,304.500,138.000
0.514,197.500,285.000,304.500,138.000
0.515,197.500,285.000,304.500,138.000
0.516,197.500,285.000,304.000,137.500
0.517,198.000,285.500,304.000,137.500
0.518,198.000,285.500,304.000,137.000
0.519,198.000,285.000,303.500,136.500
0.520,198.000,285.000,303.000,136.000
0.521,197.500,284.500,302.500,135.500
0.522,197.500,284.500,302.000,135.000
0.523,197.000,284.000,301.500,135.000
0.524,197.000,284.000,301.500,134.500
0.525,197.500,284.000,301.000,134.500
0.526,197.500,283.500,301.500,134.000
0.527,197.500,283.500,301.500,134.000
0.528,198.000,283.500,301.500,134.000
0.529,198.000,283.500,301.500,134.000
0.530,198.000,284.000,301.500,134.000
0.531,198.000,284.000,302.000,134.000
0.532,198.500,284.500,302.000,134.000
0.533,198.500,285.000,302.500,134.000
0.534,198.500,285.500,302.500,133.500
0.535,198.500,285.500,302.500,133.500
0.536,198.500,285.500,302.500,133.500
0.537,198.500,285.500,302.500,133.500
0.538,198.500,285.500,302.000,133.000
0.539,198.500,285.000,302.000,132.500
0.540,198.000,285.000,301.500,132.000
0.541,198.000,284.500,301.000,131.500
0.542,198.000,284.500,301.000,131.000
0.543,197.500,284.000,300.500,130.500
0.544,197.500,284.000,300.500,130.000
0.545,197.500,284.000,300.500,130.000
0.546,197.500,283.500,300.500,129.500
0.547,197.500,283.500,300.500,129.500
0.548,198.000,283.500,300.500,129.500
0.549,198.000,284.000,300.500,129.500
0.550,198.500,284.000,301.000,129.500
0.551,199.000,284.500,301.000,129.500
0.552,199.000,285.000,301.500,129.500
0.553,199.500,285.500,301.500,130.000
0.554,199.500,285.500,301.500,130.000
0.555,199.000,285.000,301.500,129.500
0.556,198.500,284.500,301.000,129.500
0.557,198.000,284.000,300.500,128.500
0.558,197.500,283.500,300.000,128.000
0.559,197.000,283.000,299.500,127.000
0.560,197.000,283.000,299.000,126.500
0.561,197.000,282.500,298.500,126.000
0.562,197.000,282.000,298.500,125.500
0.563,197.000,282.000,298.000,125.000
0.564,197.000,282.000,298.000,124.500
0.565,197.000,282.000,298.000,124.000
0.566,197.500,282.500,298.000,124.000
0.567,198.000,282.500,298.000,124.000
0.568,198.000,282.500,298.000,124.000
0.569,198.500,283.000,298.000,124.000
0.570,198.500,283.000,298.000,124.000
0.571,198.500,283.000,298.000,124.000
0.572,198.500,283.000,298.000,124.500
0.573,198.500,282.500,298.500,124.500
0.574,198.500,282.500,298.500,124.500
0.575,198.500,282.500,299.000,124.500
0.576,198.500,282.500,299.000,124.500
0.577,198.000,282.000,299.000,124.000
0.578,198.000,281.500,298.500,123.500
0.579,197.500,281.000,298.500,123.000
0.580,197.500,280.500,298.000,122.000
0.581,197.000,280.000,297.000,121.500
0.582,196.500,279.500,296.500,120.500
0.583,196.500,279.000,296.000,120.000
0.584,196.000,279.000,295.500,119.500
0.585,196.000,278.500,295.000,118.500
0.586,195.500,278.500,295.000,118.500
0.587,195.500,278.000,295.000,118.000
0.588,195.500,278.500,295.000,118.000
0.589,195.500,278.500,295.000,118.000
0.590,195.500,278.500,295.000,118.000
0.591,195.500,278.500,295.000,118.000
0.592,195.500,278.500,295.000,118.500
0.593,195.500,279.000,295.500,118.500
0.594,195.500,279.000,295.500,118.500
0.595,195.500,279.000,296.000,118.000
0.596,195.000,279.000,296.000,118.000
0.597,195.000,279.000,296.000,117.500
0.598,195.000,279.000,296.000,117.000
0.599,195.000,279.000,296.000,116.500
0.600,195.000,278.500,295.500,116.000
0.601,195.000,278.500,295.000,115.500
0.602,194.500,278.500,295.000,115.000
0.603,194.500,278.000,294.500,114.500
0.604,194.000,278.000,294.000,113.500
0.605,194.000,278.000,293.500,113.000
0.606,194.000,278.000,293.500,112.500
0.607,194.000,278.500,293.500,112.500
0.608,194.000,278.500,293.500,112.500
0.609,194.000,279.000,293.500,112.500
0.610,194.000,279.000,293.500,112.500
0.611,194.500,279.000,294.000,112.500
0.612,194.500,279.500,294.000,112.500
0.613,195.000,279.500,294.500,112.500
0.614,195.000,280.000,294.500,112.500
0.615,195.000,280.000,294.500,112.000
0.616,195.000,280.000,294.500,112.000
0.617,195.000,280.000,294.500,111.500
0.618,195.000,280.000,294.500,111.500
0.619,195.000,279.500,294.500,111.000
0.620,194.500,279.500,294.000,110.500
0.621,194.000,279.000,294.000,109.500
0.622,193.500,278.500,294.000,109.000
0.623,193.000,278.000,293.500,108.000
0.624,192.500,278.000,293.500,107.500
0.625,192.000,277.500,293.000,107.000
0.626,192.000,277.500,293.000,107.000
0.627,191.500,277.500,293.000,107.000
0.628,191.500,277.500,293.000,107.000
0.629,191.500,277.500,293.500,107.000
0.630,192.000,278.000,294.000,107.500
0.631,192.000,278.000,294.000,107.500
0.632,192.000,278.500,294.000,107.000
0.633,192.000,279.000,294.500,107.000
0.634,192.000,279.000,294.500,106.500
0.635,192.000,279.000,295.000,106.500
0.636,192.000,279.000,295.000,106.000
0.637,192.000,279.000,295.000,106.000
0.638,191.500,279.000,295.000,105.500
0.639,191.500,279.000,294.500,104.500
0.640,191.000,279.000,294.500,104.000
0.641,191.000,278.500,294.000,103.500
0.642,191.000,278.500,293.500,102.500
0.643,190.500,278.500,293.500,102.000
0.644,190.000,278.000,293.000,101.500
0.645,190.000,278.000,293.000,101.000
0.646,189.500,278.500,293.000,100.500
0.647,189.500,278.500,293.000,100.500
0.648,189.500,278.500,293.000,100.500
0.649,190.000,279.000,293.500,100.500
0.650,190.000,279.000,293.500,100.500
0.651,190.000,279.000,294.000,100.500
0.652,190.000,279.000,294.000,100.500
0.653,189.500,279.000,294.000,100.000
0.654,189.500,279.000,294.000,99.500
0.655,189.000,278.500,294.000,99.000
0.656,188.500,278.500,293.500,98.500
0.657,188.500,278.000,293.500,98.000
0.658,188.000,278.000,293.000,97.500
0.659,187.500,278.000,293.000,96.500
0.660,187.000,277.500,292.500,96.000
0.661,186.500,277.500,292.500,95.000
0.662,186.000,277.500,292.000,94.500
0.663,186.000,277.500,292.000,93.500
0.664,185.500,277.500,292.000,93.000
0.665,185.500,277.500,291.500,92.000
0.666,185.500,277.500,291.500,91.500
0.667,185.500,277.500,291.000,91.000
0.668,185.500,277.500,291.000,90.500
0.669,186.000,277.500,291.000,90.000
0.670,186.000,277.500,291.000,90.000
0.671,186.000,277.500,291.500,89.500
0.672,185.500,277.500,292.000,89.500
0.673,185.500,277.500,292.000,89.000
0.674,185.000,277.500,292.000,89.000
0.675,185.000,277.500,292.500,88.500
0.676,185.000,277.000,292.000,88.000
0.677,185.000,277.000,292.000,87.500
0.678,185.000,277.000,291.500,87.000
0.679,185.000,276.500,291.500,86.500
0.680,185.000,276.500,291.500,86.000
0.681,185.000,276.000,291.000,85.500
0.682,185.000,275.500,291.000,85.000
0.683,184.500,275.500,290.500,84.000
0.684,184.500,275.000,290.000,83.500
0.685,184.000,275.000,290.000,83.000
0.686,184.000,275.500,290.000,82.000
0.687,184.000,275.500,290.000,81.500
0.688,184.000,276.000,290.000,81.000
0.689,183.500,276.000,290.000,81.000
0.690,183.500,276.000,290.000,80.500
0.691,183.500,276.000,290.000,80.000
0.692,183.500,276.000,290.500,79.500
0.693,183.500,276.000,290.500,79.500
0.694,183.500,276.000,290.500,79.000
0.695,183.500,276.000,290.500,78.500
0.696,183.500,276.000,290.500,78.000
0.697,183.500,276.000,290.500,77.500
0.698,183.500,275.500,290.000,77.000
0.699,183.000,275.500,289.500,76.500
0.700,183.000,275.000,289.500,75.500
0.701,182.500,274.500,289.000,74.500
0.702,182.000,274.500,288.500,73.500
0.703,182.000,274.000,288.500,73.000
0.704,182.000,274.000,288.500,72.000
0.705,182.000,274.000,289.000,71.500
0.706,182.500,274.000,289.000,70.500
0.707,182.500,274.000,289.000,70.000
0.708,182.000,274.000,289.000,69.500
0.709,182.000,274.500,289.000,69.000
0.710,182.000,274.500,289.000,68.000
0.711,182.000,274.500,289.000,67.500
0.712,182.000,275.000,289.500,67.000
0.713,182.000,275.000,289.500,66.500
0.714,182.500,275.000,289.500,66.000
0.715,182.500,275.500,289.500,65.500
0.716,182.500,275.500,289.500,65.000
0.717,182.500,275.500,289.500,64.000
0.718,182.500,275.500,289.500,63.500
0.719,182.000,275.500,289.500,62.500
0.720,182.000,275.000,289.500,62.000
0.721,181.500,275.000,289.500,61.000
0.722,181.000,275.000,289.500,60.500
0.723,180.500,274.500,289.500,59.500
0.724,180.500,274.500,289.000,58.500
0.725,180.000,274.000,289.000,58.000
0.726,180.000,273.500,289.000,57.000
0.727,180.000,273.500,289.000,56.500
0.728,180.000,273.500,289.000,55.500
0.729,180.000,273.500,289.000,55.000
0.730,180.500,273.500,289.000,54.000
0.731,180.500,273.500,289.500,53.500
0.732,181.000,273.500,290.000,53.000
0.733,181.000,273.500,290.000,52.500
0.734,181.500,273.500,290.500,52.000
0.735,181.500,273.500,290.500,51.500
0.736,181.500,273.500,291.000,51.000
0.737,181.500,273.500,291.000,50.500
0.738,181.000,273.500,291.000,50.000
0.739,181.000,273.500,291.000,49.000
0.740,180.500,273.000,290.500,48.500
0.741,180.000,272.500,290.500,47.500
0.742,180.000,272.500,290.500,46.500
0.743,180.000,272.500,290.500,46.000
0.744,179.500,272.500,290.500,45.000
0.745,179.500,272.500,290.500,44.500
0.746,179.500,272.500,290.500,43.500
0.747,179.500,273.000,290.500,43.000
0.748,180.000,273.000,291.000,42.500
0.749,180.000,273.000,291.000,42.000
0.750,180.500,273.500,291.500,41.500
0.751,180.500,273.500,291.500,41.000
0.752,180.500,274.000,292.000,40.500
0.753,180.500,274.000,292.500,40.000
0.754,180.500,274.000,292.500,39.500
0.755,180.500,274.000,292.500,39.000
0.756,180.500,274.000,292.500,38.500
0.757,180.000,274.000,292.500,37.500
0.758,180.000,273.500,292.500,36.500
0.759,179.500,273.000,292.000,35.500
0.760,179.000,272.500,292.000,34.500
0.761,179.000,272.500,291.500,33.500
0.762,179.000,272.000,291.500,33.000
0.763,179.500,272.000,291.500,32.000
0.764,179.500,272.500,291.500,31.500
0.765,180.000,272.500,292.000,30.500
0.766,180.000,273.000,292.500,30.000
0.767,180.500,273.000,292.500,29.000
0.768,180.500,273.500,293.000,28.500
0.769,180.500,273.500,293.000,28.000
0.770,180.500,273.500,292.500,27.500
0.771,180.500,273.500,292.500,26.500
0.772,180.500,274.000,292.500,26.000
0.773,180.000,274.000,292.500,25.500
0.774,180.000,273.500,292.000,24.500
0.775,179.500,273.500,291.500,24.000
0.776,178.500,272.500,291.000,23.000
0.777,177.500,271.500,290.000,21.500
0.778,176.000,269.500,289.000,20.000
0.779,174.000,267.500,287.000,17.500
0.780,172.000,265.000,284.500,15.000
0.781,169.500,262.000,282.500,13.000
0.782,167.500,260.000,280.000,10.500
0.783,165.500,258.000,278.500,8.500
0.784,164.000,256.500,277.000,7.000
0.785,163.500,256.000,276.500,6.000
0.786,163.500,256.000,276.500,5.000
0.787,164.000,257.000,277.500,5.000
0.788,165.500,258.500,279.000,5.500
0.789,167.500,260.500,281.000,6.500
0.790,170.000,263.500,283.500,8.000
0.791,173.000,266.500,286.500,10.000
0.792,175.500,269.500,289.500,12.000
0.793,178.500,272.500,292.000,13.500
0.794,180.500,275.000,294.500,14.500
0.795,182.500,277.000,296.000,15.000
0.796,183.500,278.000,296.500,15.000
0.797,183.500,278.500,296.500,14.500
0.798,183.500,278.500,296.000,13.500
0.799,182.500,277.500,295.000,12.000
0.800,181.000,276.000,293.500,10.500
0.801,179.500,274.000,291.500,8.500
0.802,178.000,272.500,290.000,7.000
0.803,177.000,271.000,288.500,5.500
0.804,176.000,270.000,287.500,4.500
0.805,175.500,269.500,286.500,3.500
0.806,175.000,269.000,286.500,2.500
0.807,174.500,269.000,286.500,1.500
0.808,174.500,269.000,286.500,1.000
0.809,174.000,269.000,286.500,0.500
0.810,174.000,269.500,286.500,0.500
0.811,174.000,269.500,286.500,0.000
0.812,174.000,269.500,286.500,-0.500
0.813,173.500,269.500,286.500,-0.500
0.814,173.500,269.000,286.500,-1.000
0.815,173.000,269.000,286.500,-1.000
0.816,173.000,268.500,286.500,-1.500
0.817,172.500,268.500,286.500,-2.000
0.818,172.500,268.000,286.500,-2.500
0.819,172.500,268.000,286.500,-3.000
0.820,172.000,268.000,286.500,-3.500
0.821,172.000,268.000,286.000,-4.000
0.822,171.500,268.000,286.000,-4.500
0.823,171.500,268.000,286.000,-5.000
0.824,171.000,268.000,286.000,-5.500
0.825,171.000,268.000,286.000,-6.000
0.826,171.500,268.000,286.000,-6.500
0.827,171.500,268.000,286.000,-7.000
0.828,172.000,268.500,286.000,-7.000
0.829,172.000,268.500,286.000,-7.500
0.830,172.500,268.500,286.000,-7.500
0.831,172.500,268.500,286.000,-8.000
0.832,172.500,268.500,286.000,-8.000
0.833,172.500,268.000,286.000,-8.500
0.834,172.000,268.000,286.000,-9.000
0.835,172.000,268.000,286.000,-9.000
0.836,172.000,268.000,286.000,-9.500
0.837,172.000,268.000,286.000,-10.000
0.838,171.500,268.000,286.000,-10.500
0.839,171.000,267.500,285.500,-11.500
0.840,170.500,267.000,285.000,-12.000
0.841,170.000,266.500,284.000,-13.000
0.842,169.500,266.000,283.500,-13.500
0.843,169.500,266.000,283.000,-14.000
0.844,169.000,265.500,283.000,-15.000
0.845,168.500,265.500,282.500,-15.500
0.846,168.500,265.500,282.500,-16.500
0.847,168.500,265.000,282.500,-17.000
0.848,168.500,265.000,282.000,-18.000
0.849,168.500,264.500,282.000,-18.500
0.850,168.500,264.500,281.500,-19.000
0.851,168.000,264.000,281.000,-19.500
0.852,167.500,263.500,280.500,-20.500
0.853,166.500,263.000,279.500,-21.500
0.854,166.000,262.000,278.500,-22.500
0.855,164.500,260.500,277.000,-24.000
0.856,163.500,259.000,275.500,-25.500
0.857,162.000,257.500,273.500,-27.500
0.858,160.500,256.000,272.000,-29.000
0.859,159.000,254.000,270.000,-31.000
0.860,157.000,252.500,268.000,-32.500
0.861,155.500,250.500,266.500,-34.500
0.862,154.000,249.000,265.000,-36.000
0.863,152.000,247.000,263.500,-37.500
0.864,150.500,245.500,262.500,-39.000
0.865,149.500,244.000,261.000,-40.000
0.866,148.000,243.000,260.500,-41.000
0.867,147.000,242.500,259.500,-41.000
0.868,146.000,242.500,259.500,-40.500
0.869,145.500,242.000,259.500,-40.000
0.870,145.000,242.000,260.000,-39.000
0.871,145.000,242.500,261.000,-37.500
0.872,144.500,242.500,262.000,-36.000
0.873,144.500,243.000,263.000,-34.500
0.874,144.000,244.000,264.000,-32.500
0.875,143.500,244.000,265.000,-30.500
0.876,143.500,244.500,266.000,-29.000
0.877,143.000,244.500,266.500,-28.000
0.878,142.500,244.000,267.000,-27.500
0.879,141.500,244.000,267.000,-27.500
0.880,141.000,243.500,266.500,-28.000
0.881,140.000,243.000,266.000,-28.500
0.882,140.000,242.500,265.500,-29.000
0.883,139.500,242.500,265.500,-29.000
0.884,140.000,242.500,265.500,-29.000
0.885,141.000,243.500,266.500,-29.000
0.886,142.500,245.000,267.500,-28.000
0.887,145.000,247.000,269.000,-27.500
0.888,147.500,249.000,271.000,-26.500
0.889,150.000,251.500,273.000,-26.000
0.890,153.000,254.500,275.500,-25.000
0.891,156.500,257.500,277.500,-24.000
0.892,160.000,261.000,280.500,-23.000
0.893,164.500,265.000,283.500,-21.500
0.894,169.000,269.000,287.000,-20.000
0.895,173.000,272.500,289.500,-19.000
0.896,176.000,275.000,292.000,-18.000
0.897,178.500,277.000,293.500,-17.500
0.898,180.000,278.500,295.000,-17.000
0.899,181.000,279.500,296.000,-16.500
0.900,181.500,280.000,296.000,-16.500
0.901,181.500,279.500,296.000,-17.000
0.902,181.000,279.000,295.000,-18.000
0.903,180.000,278.000,294.000,-19.500
0.904,178.500,276.000,292.500,-21.500
0.905,177.000,274.000,290.500,-23.500
0.906,175.000,272.000,288.500,-25.500
0.907,173.000,270.000,286.500,-27.000
0.908,171.500,268.000,284.500,-29.000
0.909,169.500,266.500,283.000,-30.500
0.910,168.000,265.000,281.500,-32.000
0.911,167.000,264.000,280.500,-33.500
0.912,166.000,263.000,280.000,-34.500
0.913,165.000,262.000,279.500,-35.500
0.914,164.000,261.500,278.500,-36.000
0.915,163.500,261.000,278.000,-37.000
0.916,162.500,260.000,277.500,-37.500
0.917,162.000,259.500,277.000,-38.000
0.918,161.000,258.500,276.000,-38.500
0.919,160.500,258.000,275.500,-39.500
0.920,160.000,257.000,275.500,-40.000
0.921,159.500,256.500,275.000,-41.000
0.922,158.500,256.000,274.500,-41.500
0.923,158.500,255.500,274.000,-42.500
0.924,158.000,255.000,273.500,-43.000
0.925,158.000,254.500,273.000,-43.500
0.926,158.000,254.500,272.500,-44.000
0.927,158.000,254.000,272.500,-44.000
0.928,158.500,254.000,272.500,-44.000
0.929,158.500,254.500,272.500,-44.000
0.930,158.500,254.500,272.500,-43.500
0.931,159.000,255.000,273.000,-43.000
0.932,158.500,255.000,273.000,-43.000
0.933,158.500,255.000,273.500,-42.500
0.934,158.500,255.000,273.500,-42.500
0.935,158.500,255.000,273.500,-42.500
0.936,158.500,255.000,273.500,-43.000
0.937,158.000,254.500,273.500,-43.000
0.938,158.000,254.500,273.500,-43.000
0.939,158.000,254.500,273.000,-43.500
0.940,158.000,254.500,272.500,-44.000
0.941,157.500,254.000,272.500,-44.000
0.942,157.500,254.000,272.000,-44.500
0.943,157.500,253.500,271.500,-45.000
0.944,157.000,253.500,271.500,-45.500
0.945,157.000,253.500,271.500,-45.500
0.946,157.000,253.000,271.500,-46.000
0.947,157.000,253.000,271.500,-46.000
0.948,157.000,253.000,271.500,-45.500
0.949,157.000,253.000,271.500,-45.500
0.950,157.000,253.500,272.000,-45.000
0.951,157.000,253.500,272.000,-45.000
0.952,157.000,254.000,272.500,-44.500
0.953,157.000,254.000,272.500,-44.500
0.954,156.500,254.000,272.500,-44.500
0.955,156.500,254.000,272.500,-44.500
0.956,156.500,254.000,272.500,-45.000
0.957,156.000,254.000,272.500,-45.000
0.958,155.500,254.000,272.000,-45.000
0.959,155.500,254.000,272.000,-45.500
0.960,155.000,253.500,272.000,-45.500
0.961,155.000,253.500,272.000,-45.500
0.962,155.000,253.000,271.500,-46.000
0.963,155.000,252.500,271.500,-46.000
0.964,155.000,252.000,271.500,-46.500
0.965,154.500,252.000,271.000,-47.000
0.966,154.500,251.500,271.000,-47.500
0.967,154.500,251.500,270.500,-48.000
0.968,154.500,251.500,270.500,-48.000
0.969,154.500,251.500,270.500,-48.500
0.970,154.500,251.500,270.500,-48.500
0.971,154.500,251.500,270.500,-49.000
0.972,154.500,251.500,270.500,-49.000
0.973,154.000,251.500,270.500,-49.000
0.974,154.000,252.000,270.500,-48.500
0.975,154.000,252.000,270.500,-48.500
0.976,154.000,252.000,270.500,-48.500
0.977,153.500,251.500,270.500,-49.000
0.978,153.500,251.000,270.000,-49.000
0.979,153.000,250.500,270.000,-49.500
0.980,152.500,250.000,269.500,-50.000
0.981,152.000,249.000,269.000,-51.000
0.982,151.500,248.500,268.500,-51.500
0.983,151.500,248.500,268.500,-52.000
0.984,151.500,248.000,268.000,-52.500
0.985,151.000,248.000,268.000,-52.500
0.986,151.000,247.500,268.000,-52.500
0.987,151.000,247.500,268.000,-52.500
0.988,151.000,247.500,268.500,-53.000
0.989,151.000,247.500,268.500,-53.000
0.990,151.000,247.500,268.500,-52.500
0.991,151.000,247.500,269.000,-52.500
0.992,151.000,247.500,269.500,-52.500
0.993,151.500,247.500,269.500,-52.000
0.994,151.500,247.500,269.500,-52.000
0.995,151.500,247.500,270.000,-52.000
0.996,151.500,247.500,270.000,-52.000
0.997,151.500,247.000,270.500,-52.000
0.998,151.000,247.000,270.500,-52.000
0.999,151.000,247.000,270.500,-52.000
1.000,151.000,246.500,270.000,-52.000
1.001,150.500,246.500,270.000,-52.500
1.002,150.000,246.000,269.500,-53.000
1.003,150.000,246.000,269.500,-53.000
1.004,149.500,245.500,269.000,-53.500
1.005,149.500,245.500,269.000,-53.500
1.006,149.500,245.500,269.000,-53.500
1.007,149.500,245.500,269.000,-53.500
1.008,149.500,245.500,269.000,-53.500
1.009,149.500,246.000,269.000,-53.500
1.010,149.500,246.000,269.000,-53.500
1.011,149.500,246.000,269.500,-53.500
1.012,149.500,245.500,269.500,-54.000
1.013,149.500,245.500,269.500,-53.500
1.014,149.500,246.000,270.000,-53.500
1.015,149.500,246.000,270.500,-53.500
1.016,149.500,246.000,270.500,-53.000
1.017,149.000,246.000,270.500,-53.500
1.018,149.000,245.500,270.500,-53.500
1.019,148.500,245.000,270.000,-54.000
1.020,148.000,244.500,270.000,-54.500
1.021,147.500,244.000,269.500,-54.500
1.022,147.000,243.500,269.000,-55.000
1.023,147.000,242.500,269.000,-55.000
1.024,146.500,242.000,268.500,-55.000
1.025,146.500,242.000,268.500,-55.000
1.026,146.500,242.000,268.500,-55.000
1.027,146.500,242.000,268.500,-55.000
1.028,146.500,242.000,269.000,-55.000
1.029,146.500,242.500,269.000,-55.000
1.030,146.500,242.500,269.000,-55.000
1.031,146.500,242.500,269.500,-54.500
1.032,146.500,242.500,269.500,-54.500
1.033,146.500,242.500,269.500,-54.500
1.034,146.000,242.500,269.500,-54.000
1.035,146.000,242.500,269.500,-54.500
1.036,145.500,242.500,269.500,-54.500
1.037,145.500,242.000,269.000,-54.500
1.038,145.000,241.500,269.000,-55.000
1.039,144.500,241.000,268.500,-55.000
1.040,144.500,241.000,268.000,-55.500
1.041,144.500,240.500,267.500,-55.500
1.042,144.000,240.500,267.000,-55.500
1.043,144.000,240.500,267.000,-55.500
1.044,144.000,240.500,267.000,-55.500
1.045,144.000,240.500,267.000,-55.000
1.046,144.000,240.500,267.000,-54.500
1.047,144.000,241.000,267.500,-54.500
1.048,143.500,241.000,267.500,-54.000
1.049,143.500,241.500,268.000,-53.500
1.050,143.500,241.500,268.000,-53.000
1.051,143.500,241.500,268.000,-53.000
1.052,143.500,241.500,268.500,-52.500
1.053,143.500,241.500,268.500,-52.000
1.054,143.500,242.000,268.500,-52.000
1.055,143.500,242.000,268.500,-51.500
1.056,143.500,242.000,268.500,-51.500
1.057,143.000,241.500,268.500,-51.500
1.058,142.500,241.000,268.000,-51.500
1.059,142.000,240.500,267.500,-52.000
1.060,142.000,240.000,267.000,-52.000
1.061,141.500,240.000,267.000,-52.000
1.062,141.500,239.500,266.500,-52.000
1.063,141.500,239.500,266.500,-52.000
1.064,141.500,239.500,266.500,-52.000
1.065,141.500,239.500,266.500,-52.000
1.066,141.500,239.500,267.000,-52.000
1.067,141.500,239.500,267.000,-52.000
1.068,141.500,239.500,267.000,-52.000
1.069,141.500,239.500,267.000,-52.000
1.070,141.500,240.000,267.000,-51.500
1.071,141.500,240.000,267.500,-51.000
1.072,142.000,240.500,268.000,-50.500
1.073,142.000,240.500,268.500,-50.000
1.074,142.000,241.000,269.000,-49.500
1.075,142.000,241.000,269.500,-49.000
1.076,142.000,241.000,269.500,-49.000
1.077,141.500,241.000,269.500,-49.000
1.078,141.000,241.500,269.500,-48.500
1.079,141.000,241.500,269.500,-48.500
1.080,140.500,241.500,269.000,-48.500
1.081,140.500,241.000,269.000,-49.000
1.082,140.000,241.000,269.000,-49.000
1.083,140.000,240.500,268.500,-49.000
1.084,139.500,240.000,268.500,-49.000
1.085,139.500,239.500,268.500,-49.000
1.086,139.500,239.500,268.500,-49.000
1.087,139.500,239.500,268.500,-49.000
1.088,139.500,239.500,269.000,-48.500
1.089,140.000,240.000,269.500,-48.500
1.090,140.000,240.000,269.500,-48.000
1.091,140.000,240.000,270.000,-48.000
1.092,140.000,240.500,270.000,-47.500
1.093,140.500,240.500,270.000,-47.500
1.094,140.500,240.500,270.000,-47.500
1.095,140.500,240.500,270.000,-47.500
1.096,140.500,241.000,270.000,-47.500
1.097,140.500,241.000,270.500,-47.500
1.098,140.500,240.500,270.500,-47.500
1.099,140.500,240.500,270.000,-47.500
1.100,140.000,240.500,270.000,-47.500
1.101,140.000,240.000,270.000,-47.000
1.102,139.500,240.000,270.000,-47.500
1.103,139.500,239.500,270.000,-47.500
1.104,139.500,239.000,270.000,-47.500
1.105,139.500,239.000,270.000,-47.500
1.106,139.500,238.500,270.000,-47.500
1.107,139.500,238.000,270.000,-47.000
1.108,140.000,238.000,270.000,-47.000
1.109,140.000,238.500,270.000,-46.500
1.110,140.500,238.500,270.500,-46.000
1.111,140.500,238.500,270.500,-45.500
1.112,140.500,239.000,270.500,-44.500
1.113,140.500,239.000,271.000,-44.000
1.114,140.500,239.500,271.500,-43.500
1.115,140.500,239.500,271.500,-43.500
1.116,140.000,239.500,271.500,-43.000
1.117,140.000,239.000,271.500,-43.000
1.118,139.500,239.000,271.000,-43.000
1.119,139.500,238.500,270.500,-43.000
1.120,139.500,238.500,270.500,-43.000
1.121,139.500,238.000,269.500,-43.000
1.122,139.500,238.000,269.000,-43.000
1.123,139.500,237.500,268.500,-43.000
1.124,139.500,237.000,268.500,-43.000
1.125,139.000,236.500,268.000,-43.000
1.126,139.000,236.500,268.000,-43.000
1.127,139.000,236.000,267.500,-43.000
1.128,139.000,236.000,267.500,-43.000
1.129,139.000,236.000,267.500,-42.500
1.130,139.000,236.500,268.000,-42.500
1.131,139.000,236.500,268.000,-42.000
1.132,139.500,237.000,268.500,-41.500
1.133,139.500,237.500,268.500,-41.500
1.134,140.000,237.500,268.500,-41.000
1.135,140.500,238.000,269.000,-41.000
1.136,140.500,238.000,269.000,-40.500
1.137,141.000,238.000,269.000,-40.500
1.138,140.500,237.500,268.500,-40.500
1.139,140.500,237.000,268.000,-41.000
1.140,139.500,236.000,267.000,-41.500
1.141,139.000,235.500,266.000,-42.000
1.142,138.000,234.500,265.000,-42.500
1.143,137.500,233.500,264.000,-43.000
1.144,136.500,232.500,263.000,-43.500
1.145,135.500,231.500,262.000,-44.000
1.146,134.000,230.000,260.500,-45.000
1.147,132.000,228.000,259.000,-46.000
1.148,130.000,226.000,257.000,-47.500
1.149,128.000,224.000,255.500,-49.000
1.150,126.500,222.000,254.000,-50.000
1.151,126.000,220.500,252.500,-50.500
1.152,125.500,220.000,252.000,-51.000
1.153,125.500,220.000,252.000,-50.500
1.154,126.500,220.500,252.500,-50.000
1.155,127.500,221.500,253.500,-49.500
1.156,129.000,223.000,255.000,-48.000
1.157,130.500,225.500,257.000,-47.000
1.158,133.000,227.500,259.000,-45.000
1.159,135.500,230.000,261.500,-43.000
1.160,137.500,232.500,263.500,-41.000
1.161,140.000,234.500,266.000,-39.500
1.162,141.500,236.500,267.500,-38.000
1.163,142.500,237.500,268.500,-37.000
1.164,142.500,238.000,269.000,-36.500
1.165,142.500,238.000,268.500,-37.000
1.166,142.000,237.500,268.000,-37.500
1.167,141.500,236.000,266.500,-38.500
1.168,140.500,235.000,265.000,-39.000
1.169,139.500,234.000,263.500,-39.500
1.170,138.500,233.000,262.500,-39.500
1.171,138.000,232.000,262.000,-39.500
1.172,137.500,231.500,261.500,-39.500
1.173,137.500,231.500,261.500,-39.000
1.174,137.500,231.500,261.500,-39.000
1.175,137.500,231.500,261.500,-38.500
1.176,137.500,231.000,261.500,-38.500
1.177,137.500,231.000,261.000,-38.000
1.178,137.000,231.000,261.000,-38.000
1.179,137.000,230.500,260.500,-38.000
1.180,136.500,230.000,260.500,-38.000
1.181,136.500,230.000,260.000,-38.500
1.182,136.500,229.500,260.000,-38.500
1.183,136.500,229.500,260.000,-38.500
1.184,136.500,230.000,260.500,-38.500
1.185,137.000,230.000,261.000,-38.000
1.186,137.500,230.500,261.500,-37.500
1.187,137.500,230.500,262.000,-37.500
1.188,138.000,231.000,262.500,-37.000
1.189,138.000,231.000,263.000,-36.000
1.190,138.500,231.500,264.000,-35.500
1.191,138.500,232.000,264.500,-34.500
1.192,139.000,232.500,265.000,-33.500
1.193,139.500,232.500,266.000,-33.000
1.194,140.000,233.000,266.500,-32.500
1.195,140.000,233.000,266.500,-32.000
1.196,140.000,233.000,267.000,-32.000
1.197,140.000,232.500,267.000,-31.500
1.198,139.500,232.500,266.500,-31.000
1.199,139.000,232.000,266.500,-31.000
1.200,138.500,231.500,266.000,-31.000
1.201,138.000,231.000,266.000,-31.000
1.202,138.000,230.500,265.500,-31.000
1.203,137.500,230.500,265.500,-31.000
1.204,137.500,230.500,265.000,-30.500
1.205,137.500,230.500,265.000,-30.500
1.206,137.500,230.500,265.500,-30.500
1.207,138.000,230.500,265.500,-30.500
1.208,138.000,230.500,266.000,-30.000
1.209,138.500,231.000,266.000,-29.500
1.210,138.500,231.000,266.500,-29.000
1.211,139.000,231.000,267.000,-28.500
1.212,139.000,231.500,267.500,-28.000
1.213,139.000,231.500,267.500,-27.500
1.214,139.500,231.500,268.000,-27.000
1.215,139.500,231.500,268.500,-26.500
1.216,139.500,231.500,268.500,-26.000
1.217,139.000,231.500,268.500,-25.500
1.218,139.000,231.500,268.500,-25.500
1.219,138.500,231.000,268.500,-25.500
1.220,138.500,230.500,268.000,-25.500
1.221,138.000,230.500,268.000,-25.500
1.222,138.000,230.500,268.000,-25.500
1.223,137.500,230.000,268.000,-25.500
1.224,137.500,230.000,267.500,-25.500
1.225,137.500,229.500,267.500,-25.000
1.226,137.500,229.500,267.500,-24.500
1.227,138.000,229.500,267.500,-24.000
1.228,138.000,230.000,268.000,-23.500
1.229,138.000,230.000,268.000,-23.000
1.230,138.000,230.000,268.500,-23.000
1.231,138.500,230.000,268.500,-22.500
1.232,138.500,230.000,269.000,-22.000
1.233,138.500,230.500,269.000,-21.500
1.234,138.500,230.500,269.500,-21.000
1.235,138.500,230.500,269.500,-20.500
1.236,138.500,230.500,269.500,-20.000
1.237,138.500,230.000,269.000,-19.500
1.238,138.500,229.500,269.000,-19.500
1.239,138.500,229.000,268.500,-19.500
1.240,138.000,229.000,268.000,-19.500
1.241,138.000,229.000,268.000,-19.500
1.242,138.000,229.000,268.000,-19.000
1.243,138.000,229.000,268.000,-19.000
1.244,138.000,229.000,268.000,-19.000
1.245,138.000,229.500,268.000,-18.500
1.246,138.000,229.500,268.000,-18.500
1.247,138.000,229.500,268.000,-18.000
1.248,138.500,230.000,268.500,-18.000
1.249,139.000,230.000,268.500,-17.500
1.250,139.000,230.500,269.000,-17.000
1.251,139.000,230.500,269.000,-16.500
1.252,139.500,230.500,269.500,-16.000
1.253,139.000,230.000,269.500,-16.000
1.254,139.000,230.000,269.500,-15.500
1.255,139.000,229.500,269.500,-15.000
1.256,139.000,229.500,270.000,-14.500
1.257,139.000,230.000,270.000,-14.500
1.258,138.500,230.000,270.000,-14.000
1.259,138.000,230.000,270.000,-14.000
1.260,137.500,229.500,269.500,-14.000
1.261,137.500,229.500,269.500,-14.000
1.262,137.000,229.000,269.000,-14.000
1.263,137.000,228.500,268.500,-14.000
1.264,137.000,228.000,268.500,-14.500
1.265,136.500,228.000,268.500,-14.500
1.266,136.500,228.000,268.500,-14.500
1.267,136.500,228.000,268.500,-14.500
1.268,137.000,228.500,269.000,-13.500
1.269,137.500,229.000,269.500,-13.000
1.270,138.000,229.000,269.500,-12.000
1.271,138.000,229.500,270.000,-11.500
1.272,138.000,229.500,270.500,-10.500
1.273,138.500,230.000,270.500,-10.000
1.274,138.500,230.000,270.500,-9.500
1.275,138.500,230.000,270.500,-9.000
1.276,138.500,230.000,270.000,-9.000
1.277,138.500,229.500,270.000,-9.000
1.278,138.500,229.000,270.000,-9.000
1.279,138.500,229.000,270.000,-9.000
1.280,138.500,228.500,270.000,-9.000
1.281,138.000,228.500,269.500,-9.000
1.282,138.000,228.000,269.500,-8.500
1.283,138.000,228.000,269.500,-8.500
1.284,137.500,228.000,269.500,-8.000
1.285,137.500,227.500,269.500,-8.000
1.286,137.500,227.500,269.500,-7.500
1.287,137.500,228.000,269.500,-7.500
1.288,137.500,228.000,270.000,-7.500
1.289,137.500,228.000,270.000,-7.000
1.290,137.500,228.000,270.000,-7.000
1.291,137.500,228.000,270.000,-6.500
1.292,137.500,228.000,270.000,-6.000
1.293,138.000,228.000,270.500,-5.500
1.294,138.000,228.500,270.500,-5.000
1.295,138.000,228.500,270.500,-4.500
1.296,137.500,228.000,270.500,-4.000
1.297,137.500,228.000,270.000,-4.000
1.298,137.000,227.500,270.000,-4.000
1.299,137.000,227.500,270.000,-4.000
1.300,137.000,227.000,269.500,-4.000
1.301,137.000,227.000,269.500,-4.000
1.302,137.000,226.500,269.500,-4.000
1.303,137.000,226.500,269.500,-3.500
1.304,137.500,226.500,269.500,-3.500
1.305,137.500,226.500,269.500,-3.000
1.306,137.500,226.500,270.000,-2.500
1.307,137.500,226.500,270.500,-1.500
1.308,137.000,227.000,270.500,-1.000
1.309,137.000,227.500,271.000,-0.500
1.310,137.000,227.500,271.500,0.000
1.311,137.000,228.000,271.500,0.500
1.312,137.000,228.000,271.500,1.000
1.313,137.500,228.000,272.000,1.500
1.314,137.500,228.000,272.000,2.000
1.315,137.500,228.000,272.000,2.000
1.316,137.500,228.000,272.000,2.000
1.317,137.000,228.000,272.000,2.000
1.318,137.000,228.000,271.500,2.000
1.319,137.000,227.500,271.000,2.000
1.320,137.000,227.500,271.000,2.000
1.321,137.000,227.500,270.500,2.000
1.322,137.000,227.500,270.000,2.000
1.323,137.000,227.500,270.000,2.500
1.324,137.000,227.500,269.500,2.500
1.325,137.000,227.500,269.500,2.500
1.326,137.000,227.500,269.500,3.000
1.327,137.000,227.500,269.500,3.000
1.328,137.500,228.000,270.000,3.500
1.329,138.000,228.500,270.500,3.500
1.330,138.000,228.500,271.000,4.000
1.331,138.000,229.000,271.500,4.500
1.332,138.000,229.500,271.500,5.500
1.333,138.000,229.500,272.000,6.000
1.334,138.000,229.500,272.000,6.500
1.335,138.000,229.500,272.500,7.000
1.336,138.000,230.000,272.500,7.500
1.337,138.500,230.000,272.500,8.000
1.338,138.500,230.000,272.500,8.000
1.339,138.500,229.500,272.500,8.000
1.340,138.500,229.500,272.500,8.000
1.341,138.500,229.000,272.000,8.500
1.342,138.500,229.000,272.000,8.500
1.343,138.500,228.500,272.000,8.000
1.344,138.500,228.500,271.500,8.500
1.345,138.500,228.000,271.500,8.500
1.346,138.000,228.000,272.000,8.500
1.347,138.000,228.000,272.000,9.000
1.348,138.500,228.500,272.000,9.500
1.349,138.500,228.500,272.500,10.000
1.350,138.500,228.500,273.000,10.000
1.351,139.000,228.500,273.000,10.500
1.352,139.000,229.000,273.500,11.000
1.353,139.000,229.500,273.500,11.500
1.354,139.500,230.000,274.000,12.000
1.355,139.500,230.000,274.000,12.500
1.356,139.500,230.000,274.000,12.500
1.357,139.500,230.000,274.000,12.500
1.358,139.500,230.000,274.000,12.500
1.359,139.500,229.500,273.500,12.500
1.360,139.500,229.500,273.000,12.500
1.361,139.500,229.000,273.000,12.500
1.362,139.500,229.000,273.000,12.500
1.363,139.500,228.500,272.500,12.500
1.364,139.500,228.500,272.500,13.000
1.365,139.500,228.500,272.000,13.000
1.366,139.500,228.500,272.000,13.000
1.367,140.000,228.500,272.500,13.000
1.368,140.000,229.000,272.500,13.500
1.369,140.500,229.500,273.000,13.500
1.370,140.500,230.000,273.000,14.000
1.371,140.500,230.000,273.500,14.500
1.372,140.500,230.500,274.000,15.000
1.373,141.000,231.000,274.000,15.500
1.374,141.000,231.000,274.500,16.000
1.375,141.000,231.000,274.500,16.500
1.376,141.000,231.000,274.500,17.000
1.377,141.000,231.000,274.500,17.500
1.378,140.500,230.500,274.500,17.500
1.379,140.000,230.500,274.500,17.500
1.380,140.000,230.000,274.000,17.000
1.381,139.500,230.000,274.000,17.000
1.382,139.500,230.000,274.000,17.000
1.383,139.500,229.500,273.500,17.000
1.384,139.000,229.500,273.500,17.000
1.385,139.500,229.500,273.500,17.500
1.386,139.500,229.500,274.000,18.000
1.387,140.000,229.500,274.000,18.500
1.388,140.000,229.500,274.500,19.000
1.389,140.500,230.000,274.500,19.500
1.390,140.500,230.000,275.000,20.000
1.391,141.000,230.500,275.500,20.500
1.392,141.000,231.000,276.000,21.500
1.393,141.000,231.500,277.000,22.500
1.394,141.500,231.500,277.500,23.000
1.395,141.500,231.500,277.500,23.500
1.396,141.500,231.500,277.500,23.500
1.397,141.500,231.000,277.000,23.500
1.398,141.500,231.000,276.500,23.000
1.399,141.500,231.000,276.500,23.000
1.400,141.500,231.000,276.500,23.000
1.401,141.500,231.000,276.500,23.500
1.402,141.500,231.000,276.500,23.500
1.403,141.500,231.000,276.500,24.000
1.404,141.500,231.000,276.500,24.000
1.405,141.500,231.000,276.500,24.500
1.406,141.500,231.000,276.500,25.000
1.407,141.500,231.500,276.500,25.500
1.408,142.000,232.000,277.000,26.000
1.409,142.500,232.500,277.500,26.500
1.410,142.500,233.000,278.000,27.000
1.411,143.000,233.500,278.000,27.500
1.412,143.000,233.500,278.500,28.000
1.413,143.000,234.000,278.500,28.500
1.414,143.000,234.000,278.500,29.000
1.415,143.000,234.000,279.000,29.500
1.416,143.000,234.000,279.000,30.000
1.417,143.000,234.000,279.000,30.000
1.418,143.000,234.500,279.000,30.000
1.419,143.000,234.500,279.000,30.000
1.420,143.000,234.500,279.000,30.000
1.421,143.000,234.500,279.000,30.000
1.422,142.500,234.500,279.000,30.000
1.423,142.500,234.000,278.500,30.000
1.424,142.500,234.000,278.500,30.500
1.425,142.000,233.500,278.500,31.000
1.426,142.500,233.500,278.500,31.500
1.427,142.500,233.500,279.000,32.000
1.428,143.000,234.000,279.000,32.500
1.429,143.500,234.500,280.000,33.000
1.430,143.500,235.000,280.500,33.500
1.431,144.000,235.000,281.000,33.500
1.432,144.000,235.500,281.000,34.000
1.433,144.500,236.000,281.500,34.500
1.434,144.500,236.500,281.500,35.000
1.435,144.000,236.500,281.500,35.000
1.436,144.000,236.500,281.000,35.500
1.437,144.000,236.500,281.000,35.000
1.438,143.500,236.000,281.000,35.000
1.439,143.500,236.000,280.500,35.000
1.440,143.500,235.500,280.500,34.500
1.441,143.500,235.500,280.000,34.500
1.442,144.000,235.500,280.000,34.500
1.443,144.000,235.000,280.000,34.500
1.444,144.000,235.000,280.000,34.500
1.445,144.500,235.000,280.000,34.500
1.446,144.500,235.500,280.000,35.000
1.447,145.000,236.000,280.500,35.000
1.448,145.000,236.000,280.500,35.500
1.449,145.500,236.500,280.500,36.000
1.450,146.000,237.000,281.000,36.500
1.451,146.500,237.500,281.500,37.500
1.452,146.500,237.500,282.000,38.000
1.453,146.500,238.000,282.000,38.500
1.454,146.500,238.000,282.000,39.000
1.455,146.500,238.000,281.500,39.500
1.456,146.000,237.500,281.500,40.000
1.457,146.000,237.500,281.500,40.000
1.458,146.000,237.000,281.500,40.500
1.459,146.000,237.000,281.500,40.500
1.460,145.500,237.000,281.500,40.500
1.461,145.500,237.000,281.500,40.500
1.462,145.500,237.000,281.000,41.000
1.463,145.500,237.000,281.000,40.500
1.464,145.500,236.500,280.500,40.500
1.465,145.500,236.500,280.500,40.500
1.466,145.500,236.000,280.000,40.500
1.467,145.500,235.500,280.000,40.500
1.468,145.500,235.500,280.500,40.500
1.469,145.500,235.500,280.500,41.000
1.470,145.500,235.500,280.500,41.000
1.471,145.500,235.500,280.500,41.500
1.472,145.500,236.000,280.500,42.000
1.473,145.500,236.000,280.500,42.500
1.474,145.500,236.000,280.500,43.000
1.475,145.500,236.500,281.000,43.500
1.476,145.500,236.500,281.000,44.000
1.477,145.500,236.000,281.500,44.000
1.478,145.500,236.000,281.500,44.500
1.479,145.000,236.000,281.500,44.500
1.480,145.000,235.500,281.500,44.500
1.481,144.500,235.500,281.000,44.500
1.482,144.000,235.000,280.500,44.000
1.483,144.000,235.000,280.000,44.000
1.484,143.500,234.500,279.500,44.000
1.485,143.000,234.000,279.000,44.000
1.486,143.000,234.000,279.000,44.500
1.487,143.500,234.000,279.000,45.000
1.488,143.500,234.000,279.500,45.500
1.489,144.000,234.000,279.500,46.000
1.490,144.000,234.500,280.000,47.000
1.491,144.500,235.000,280.500,47.500
1.492,145.000,235.000,281.000,48.000
1.493,145.500,235.500,281.500,49.000
1.494,145.500,236.000,281.500,49.500
1.495,146.000,236.000,282.000,50.000
1.496,146.000,236.000,281.500,50.500
1.497,146.000,236.000,281.500,50.500
1.498,146.000,236.000,281.500,50.500
1.499,146.000,236.000,281.500,51.000
1.500,146.000,236.000,281.500,51.000
1.501,146.500,236.000,282.000,51.500
1.502,147.000,236.000,282.500,52.000
1.503,147.500,236.500,282.500,52.500
1.504,148.000,236.500,283.000,52.500
1.505,148.000,236.500,283.000,53.000
1.506,148.000,236.500,283.000,53.000
1.507,148.000,236.000,283.000,53.500
1.508,148.000,236.000,282.500,53.500
1.509,147.500,235.500,282.000,53.500
1.510,146.500,234.500,281.500,53.000
1.511,145.500,233.500,280.500,53.000
1.512,144.500,232.000,279.000,52.000
1.513,142.500,230.500,277.500,51.500
1.514,140.500,228.500,276.000,50.500
1.515,139.000,226.500,274.000,49.500
1.516,137.500,224.500,272.500,48.500
1.517,136.000,223.000,271.000,47.500
1.518,135.000,222.000,270.000,46.500
1.519,134.500,221.000,269.000,45.500
1.520,134.500,221.000,268.500,45.000
1.521,134.500,221.000,268.500,44.500
1.522,135.000,221.000,268.500,44.500
1.523,136.000,221.500,269.000,44.500
1.524,137.000,222.500,270.000,45.000
1.525,138.000,223.500,271.000,45.500
1.526,139.000,224.500,272.000,46.000
1.527,140.000,225.500,272.500,46.500
1.528,140.500,226.000,272.500,47.000
1.529,140.500,226.000,272.500,47.000
1.530,140.000,225.500,272.000,47.000
1.531,139.000,224.500,271.000,47.000
1.532,137.000,223.000,269.500,46.500
1.533,134.500,221.000,268.000,46.000
1.534,132.000,219.000,266.000,45.000
1.535,129.500,217.000,264.500,45.000
1.536,127.000,215.000,263.000,44.500
1.537,125.000,213.500,262.500,45.000
1.538,123.500,212.500,262.000,46.000
1.539,122.500,211.500,262.000,47.500
1.540,121.500,211.500,262.500,49.500
1.541,121.000,211.500,263.500,51.500
1.542,120.500,212.000,264.000,53.500
1.543,120.500,212.000,265.000,55.500
1.544,120.500,212.500,266.000,57.500
1.545,120.000,213.000,266.500,59.500
1.546,120.500,213.500,268.000,61.000
1.547,120.500,214.000,269.000,62.500
1.548,121.500,215.000,270.500,64.500
1.549,122.000,216.000,272.000,66.000
1.550,123.000,217.500,273.500,68.000
1.551,124.500,219.000,275.500,70.500
1.552,126.500,221.500,278.000,73.000
1.553,129.500,224.000,281.000,75.500
1.554,133.000,227.500,284.000,78.000
1.555,136.500,230.500,287.000,80.000
1.556,139.500,234.000,289.500,81.500
1.557,143.000,236.500,292.000,82.500
1.558,146.500,239.500,294.000,83.500
1.559,150.000,242.500,296.500,84.500
1.560,153.500,245.500,299.000,85.500
1.561,157.500,249.000,302.000,86.500
1.562,161.500,252.500,304.500,88.000
1.563,165.000,255.000,306.500,89.000
1.564,167.500,257.000,307.500,89.000
1.565,169.500,258.000,308.000,89.000
1.566,170.000,258.500,308.000,89.000
1.567,170.000,258.000,307.000,88.500
1.568,169.000,257.500,306.000,87.500
1.569,168.000,256.000,304.500,86.500
1.570,166.500,254.500,303.000,85.000
1.571,165.000,253.000,301.500,84.000
1.572,163.000,250.500,299.500,82.500
1.573,161.000,248.500,297.500,80.500
1.574,158.500,246.500,295.500,79.000
1.575,156.500,244.500,293.500,77.500
1.576,155.000,242.500,291.500,76.000
1.577,153.500,241.000,290.000,74.500
1.578,152.000,239.500,288.500,73.000
1.579,151.000,238.000,287.500,72.000
1.580,149.500,237.000,286.000,71.000
1.581,149.000,236.000,285.000,70.500
1.582,148.000,235.000,284.000,69.500
1.583,147.000,234.000,283.000,69.000
1.584,146.500,233.500,282.500,68.500
1.585,146.000,233.000,282.000,68.000
1.586,145.500,232.500,281.500,68.000
1.587,145.500,232.500,281.500,68.000
1.588,145.500,232.500,281.500,68.000
1.589,145.500,232.500,282.000,68.500
1.590,146.000,233.000,282.500,69.000
1.591,146.000,233.500,283.000,69.000
1.592,146.500,233.500,283.000,69.500
1.593,146.500,234.000,283.500,70.000
1.594,146.500,234.000,283.500,70.000
1.595,146.500,233.500,283.000,70.500
1.596,146.500,233.500,282.500,70.500
1.597,146.500,233.000,282.000,70.000
1.598,146.500,232.500,281.500,70.000
1.599,146.000,232.000,281.000,70.000
1.600,146.000,232.000,281.000,70.000
1.601,146.000,232.000,280.500,70.000
1.602,145.500,231.500,280.500,70.000
1.603,145.500,231.500,280.000,70.000
1.604,145.500,231.500,279.500,70.000
1.605,145.000,231.000,279.500,70.000
1.606,145.000,231.000,279.500,70.000
1.607,145.000,231.000,280.000,70.500
1.608,145.500,231.500,280.000,70.500
1.609,145.500,231.500,280.500,71.000
1.610,145.500,231.500,280.500,71.000
1.611,146.000,231.500,280.500,71.500
1.612,146.000,231.500,280.500,71.500
1.613,146.000,231.000,280.500,71.500
1.614,146.000,231.000,280.500,71.500
1.615,146.000,231.000,280.500,71.500
1.616,146.000,231.000,280.500,72.000
1.617,145.500,230.500,280.500,72.000
1.618,145.500,230.500,280.500,72.000
1.619,146.000,230.500,280.500,72.000
1.620,146.000,230.500,280.000,72.000
1.621,146.000,230.500,280.000,72.000
1.622,145.500,230.500,280.000,72.500
1.623,145.500,230.000,280.500,72.500
1.624,145.500,230.000,280.500,72.500
1.625,145.500,230.000,280.500,72.500
1.626,146.000,230.500,280.500,72.500
1.627,146.000,230.500,280.500,73.000
1.628,146.500,231.000,280.500,73.500
1.629,146.500,231.000,281.000,73.500
1.630,147.000,231.500,281.000,73.500
1.631,147.000,231.500,281.000,74.000
1.632,147.000,231.500,281.000,74.500
1.633,147.000,231.500,281.000,75.000
1.634,147.000,231.500,281.000,75.500
1.635,146.500,231.500,281.000,76.000
1.636,146.500,231.500,281.000,76.000
1.637,146.500,231.500,280.500,76.000
1.638,146.500,231.000,280.500,76.000
1.639,146.500,230.500,280.000,76.000
1.640,146.000,230.500,280.000,76.000
1.641,146.000,230.000,279.500,76.000
1.642,146.000,230.000,279.500,76.500
1.643,146.000,229.500,279.500,76.500
1.644,146.000,229.500,279.500,76.500
1.645,146.000,229.500,280.000,77.000
1.646,146.000,229.500,280.000,77.000
1.647,146.000,229.500,280.500,77.500
1.648,146.500,229.500,281.000,78.000
1.649,147.000,230.000,281.500,79.000
1.650,147.000,230.000,282.000,79.500
1.651,147.500,230.500,282.500,80.000
1.652,148.000,230.500,283.000,80.500
1.653,148.500,231.000,283.000,80.500
1.654,148.500,231.000,283.000,81.000
1.655,148.500,231.000,282.500,81.000
1.656,148.500,230.500,282.000,81.000
1.657,148.000,230.500,281.000,80.500
1.658,148.000,230.000,280.500,80.500
1.659,147.500,229.500,280.500,80.000
1.660,147.500,229.500,280.000,79.500
1.661,147.000,229.000,280.000,79.500
1.662,147.000,229.000,280.500,79.500
1.663,147.000,229.000,280.500,79.500
1.664,147.000,229.000,280.500,79.500
1.665,147.000,228.500,280.500,80.000
1.666,147.000,228.500,280.000,80.000
1.667,146.500,228.500,280.000,80.500
1.668,146.500,229.000,280.500,80.500
1.669,147.000,229.000,280.500,81.000
1.670,147.000,229.500,280.500,81.500
1.671,147.000,230.000,281.000,82.000
1.672,147.000,230.000,281.000,82.000
1.673,147.500,230.500,281.500,82.500
1.674,147.500,230.500,281.500,83.000
1.675,147.500,230.500,282.000,83.000
1.676,148.000,231.000,282.000,83.500
1.677,147.500,231.000,282.500,84.000
1.678,147.500,231.000,282.500,84.500
1.679,147.500,231.000,282.500,84.500
1.680,147.500,231.000,282.500,84.500
1.681,147.000,230.500,282.000,84.500
1.682,147.000,230.500,282.000,84.000
1.683,147.000,230.000,281.500,83.500
1.684,147.000,230.000,281.500,83.000
1.685,147.000,229.500,281.000,83.000
1.686,147.000,229.500,281.500,83.000
1.687,147.500,229.500,281.500,83.000
1.688,147.500,229.500,281.500,83.000
1.689,147.500,230.000,282.000,83.500
1.690,148.000,230.000,282.000,84.000
1.691,148.000,230.500,282.500,84.500
1.692,148.500,230.500,282.500,85.500
1.693,148.500,231.000,283.000,86.000
1.694,148.500,231.500,283.000,86.500
1.695,148.500,231.500,283.500,87.000
1.696,149.000,231.500,283.500,87.500
1.697,149.000,231.500,283.500,87.500
1.698,149.000,231.500,283.000,87.500
1.699,148.500,231.000,283.000,87.500
1.700,148.500,230.500,283.000,87.500
1.701,148.000,230.500,282.500,87.000
1.702,148.000,230.000,282.000,87.000
1.703,148.000,230.000,282.000,87.000
1.704,148.000,229.500,281.500,87.000
1.705,148.000,229.500,281.500,86.500
1.706,148.000,229.500,281.500,87.000
1.707,148.000,229.500,281.500,87.000
1.708,148.000,229.500,281.500,87.500
1.709,148.500,229.500,281.500,87.500
1.710,148.500,230.000,282.000,88.000
1.711,149.000,230.500,282.500,88.500
1.712,149.000,230.500,282.500,89.000
1.713,149.000,231.000,283.000,89.500
1.714,149.000,231.000,283.000,90.000
1.715,149.000,230.500,283.000,90.000
1.716,148.500,230.500,283.000,90.000
1.717,148.500,230.000,282.500,90.000
1.718,148.000,230.000,282.000,90.500
1.719,148.000,230.000,282.000,90.500
1.720,148.000,230.000,282.000,90.500
1.721,148.000,230.000,282.000,90.500
1.722,148.000,230.000,281.500,91.000
1.723,148.000,230.000,281.500,91.000
1.724,148.000,230.000,281.500,91.500
1.725,147.500,230.000,281.500,91.500
1.726,147.500,230.000,281.500,92.000
1.727,147.500,230.000,281.500,92.500
1.728,147.500,230.000,281.500,93.000
1.729,147.500,230.000,281.500,93.000
1.730,147.500,230.000,281.500,93.500
1.731,147.500,230.000,281.500,93.500
1.732,147.500,230.000,282.000,94.000
1.733,147.000,230.000,282.000,94.000
1.734,147.000,230.000,282.000,94.500
1.735,147.000,230.500,282.000,95.000
1.736,147.500,230.500,282.500,95.500
1.737,147.500,230.500,282.000,95.500
1.738,147.500,230.500,282.000,96.000
1.739,147.000,230.000,282.000,96.000
1.740,147.000,230.000,281.500,96.000
1.741,146.500,229.500,281.000,96.500
1.742,146.000,229.500,281.000,96.000
1.743,146.000,229.000,280.500,96.000
1.744,145.500,229.000,280.500,96.000
1.745,145.500,229.000,280.500,96.000
1.746,146.000,229.500,280.500,96.500
1.747,146.000,229.500,281.000,97.000
1.748,146.500,230.000,281.500,97.500
1.749,146.500,230.500,282.000,98.000
1.750,146.500,230.500,282.000,98.500
1.751,146.500,231.000,282.000,99.000
1.752,146.500,231.000,282.500,99.500
1.753,146.500,231.500,283.000,100.000
1.754,147.000,231.500,283.500,101.000
1.755,147.000,231.500,284.000,101.500
1.756,147.000,231.000,284.000,102.000
1.757,147.000,231.000,284.000,102.500
1.758,147.000,230.500,283.500,102.500
1.759,147.000,230.500,283.500,102.500
1.760,146.500,230.000,283.500,102.000
1.761,146.500,229.500,283.000,102.000
1.762,146.500,229.500,283.000,101.500
1.763,146.000,229.000,283.000,101.500
1.764,146.000,229.000,282.500,101.500
1.765,146.000,229.000,282.500,102.000
1.766,146.000,229.000,282.500,102.000
1.767,146.500,229.500,283.000,103.000
1.768,146.500,229.500,283.500,103.500
1.769,147.000,230.000,284.000,104.000
1.770,147.500,230.000,284.000,105.000
1.771,147.500,230.000,284.000,105.500
1.772,147.500,230.000,284.500,106.000
1.773,147.500,230.500,284.500,107.000
1.774,147.500,230.500,284.500,107.500
1.775,147.500,230.500,284.500,107.500
1.776,147.000,230.000,284.500,107.500
1.777,147.000,230.000,284.500,107.500
1.778,146.500,229.500,284.000,107.500
1.779,146.500,229.000,283.500,107.500
1.780,146.000,229.000,283.000,107.000
1.781,146.000,228.500,283.000,107.000
1.782,145.500,228.000,282.500,107.000
1.783,145.500,228.000,282.500,107.000
1.784,145.500,228.000,282.500,107.000
1.785,145.500,227.500,282.000,107.000
1.786,145.500,227.500,282.000,107.000
1.787,145.500,227.500,282.000,107.500
1.788,145.500,227.500,282.000,108.000
1.789,145.500,228.000,282.000,108.500
1.790,145.500,228.000,282.000,109.000
1.791,145.500,228.000,282.500,109.000
1.792,145.500,228.000,282.500,109.500
1.793,145.500,228.000,282.000,110.000
1.794,145.500,228.000,282.000,110.000
1.795,145.500,228.000,282.000,110.000
1.796,145.500,228.000,282.000,110.500
1.797,145.500,227.500,282.000,110.500
1.798,145.000,227.500,282.000,110.500
1.799,144.500,227.500,282.000,110.500
1.800,144.500,227.000,281.500,110.000
1.801,144.000,226.500,281.000,110.000
1.802,144.000,226.000,280.500,110.000
1.803,144.000,226.000,280.500,109.500
1.804,144.500,225.500,280.000,110.000
1.805,144.500,225.500,280.000,110.000
1.806,144.500,225.500,280.500,110.500
1.807,144.500,225.500,280.500,110.500
1.808,145.000,226.000,280.500,111.000
1.809,145.000,226.500,281.000,111.500
1.810,145.000,227.000,281.000,112.000
1.811,145.500,227.000,281.000,112.000
1.812,145.500,227.000,281.000,112.500
1.813,145.500,227.500,281.000,112.500
1.814,145.500,227.500,281.000,113.000
1.815,146.000,227.500,281.000,113.000
1.816,146.000,227.500,281.000,113.000
1.817,146.000,227.000,281.000,112.500
1.818,146.000,226.500,281.000,112.500
1.819,145.500,226.500,280.500,112.500
1.820,145.500,226.500,280.500,112.500
1.821,145.500,226.500,280.500,112.500
1.822,145.500,226.500,280.500,112.000
1.823,145.500,226.500,280.500,112.000
1.824,145.500,226.500,280.000,112.000
1.825,145.500,226.000,279.500,111.000
1.826,145.500,226.000,279.000,111.000
1.827,145.500,226.500,278.500,110.500
1.828,146.000,227.000,279.000,110.500
1.829,146.500,227.500,279.000,111.000
1.830,146.500,228.000,280.000,111.500
1.831,147.000,228.500,280.000,112.000
1.832,147.500,228.500,280.500,112.500
1.833,148.000,229.000,281.000,112.500
1.834,148.000,229.500,281.500,113.000
1.835,148.500,229.500,282.000,113.500
1.836,148.500,229.500,282.000,113.500
1.837,148.500,229.500,282.000,113.500
1.838,148.000,229.000,282.000,113.000
1.839,147.500,229.000,282.000,113.000
1.840,147.000,228.500,281.500,112.500
1.841,147.000,228.500,281.500,113.000
1.842,146.500,228.000,281.500,113.000
1.843,146.500,228.000,281.500,113.000
1.844,146.500,228.000,281.500,113.000
1.845,146.500,228.000,281.500,113.000
1.846,147.000,228.000,281.500,113.000
1.847,147.500,228.500,281.500,113.500
1.848,148.000,229.000,281.500,113.500
1.849,148.500,229.000,282.000,114.000
1.850,149.000,229.500,282.500,114.500
1.851,149.500,230.000,283.000,115.000
1.852,150.000,230.500,283.500,116.000
1.853,150.500,231.000,284.000,116.500
1.854,151.000,231.000,284.000,117.000
1.855,151.000,231.000,284.500,117.000
1.856,151.000,231.000,284.500,117.500
1.857,150.500,231.000,284.500,117.500
1.858,150.500,231.000,284.500,117.500
1.859,150.000,230.500,284.500,117.000
1.860,150.000,230.000,284.500,117.000
1.861,150.000,230.000,284.500,117.000
1.862,150.000,230.000,284.500,117.500
1.863,150.000,230.500,284.500,117.500
1.864,150.500,230.500,284.500,118.000
1.865,151.000,231.000,284.500,118.000
1.866,151.500,231.500,285.000,118.500
1.867,152.500,232.500,285.500,119.000
1.868,153.000,233.500,286.000,119.500
1.869,153.500,234.000,287.000,120.000
1.870,154.000,234.500,287.500,121.000
1.871,154.000,234.500,288.000,121.500
1.872,154.000,235.000,288.500,122.000
1.873,154.000,234.500,288.500,122.500
1.874,154.000,234.500,288.000,122.500
1.875,153.500,234.000,288.000,122.500
1.876,152.500,233.500,287.000,122.000
1.877,151.500,232.000,286.000,121.000
1.878,150.000,230.500,284.500,120.000
1.879,148.000,228.500,282.500,118.500
1.880,145.500,226.000,280.500,117.000
1.881,143.500,224.000,278.500,116.000
1.882,141.500,222.500,277.000,114.500
1.883,140.000,221.000,276.000,114.000
1.884,139.500,220.500,275.500,113.000
1.885,139.000,220.500,275.500,113.000
1.886,140.000,221.000,276.000,113.500
1.887,141.000,222.000,277.000,114.000
1.888,142.500,224.000,278.500,115.500
1.889,144.500,226.500,280.500,117.500
1.890,147.000,229.000,283.000,119.500
1.891,150.000,232.500,286.000,122.000
1.892,152.500,235.500,288.500,124.000
1.893,155.000,238.000,291.000,126.000
1.894,157.000,240.000,293.000,128.000
1.895,158.000,241.500,294.500,129.000
1.896,159.000,242.000,295.000,130.000
1.897,159.000,242.000,295.000,130.500
1.898,158.000,241.000,294.000,130.500
1.899,157.500,240.000,293.000,130.000
1.900,156.000,238.500,291.500,129.500
1.901,155.000,237.500,290.500,128.500
1.902,154.000,236.000,289.000,128.500
1.903,153.500,235.500,288.000,128.000
1.904,153.000,234.500,287.000,127.500
1.905,152.500,234.000,286.500,127.500
1.906,152.000,233.500,286.000,127.000
1.907,152.000,233.000,286.000,127.000
1.908,152.000,233.000,286.000,127.000
1.909,152.500,233.000,286.500,127.000
1.910,152.500,233.000,287.000,127.500
1.911,152.500,233.500,287.000,128.000
1.912,153.000,233.500,287.500,128.000
1.913,153.000,234.000,287.500,128.500
1.914,153.000,234.000,287.500,129.000
1.915,152.500,234.000,287.000,129.000
1.916,152.500,234.000,286.500,129.000
1.917,152.000,234.000,286.000,129.000
1.918,151.500,233.500,286.000,129.000
1.919,151.000,233.500,285.500,128.500
1.920,151.000,233.000,285.500,128.500
1.921,150.500,232.500,285.000,128.000
1.922,150.500,232.500,285.000,128.000
1.923,150.000,232.000,284.500,128.000
1.924,150.000,231.500,284.500,128.000
1.925,149.500,231.500,284.500,128.000
1.926,149.500,231.500,284.500,128.000
1.927,149.500,231.500,284.500,128.000
1.928,149.500,231.500,284.500,128.500
1.929,149.500,231.500,284.500,128.500
1.930,149.500,232.000,284.500,128.500
1.931,149.500,232.000,284.500,129.000
1.932,150.000,232.000,284.500,129.000
1.933,150.000,232.500,284.500,129.500
1.934,150.000,232.500,285.000,130.000
1.935,150.000,232.500,285.500,130.500
1.936,150.000,232.000,285.500,130.500
1.937,150.000,232.000,285.500,130.500
1.938,150.000,231.000,285.000,130.000
1.939,149.500,230.500,284.000,129.500
1.940,149.000,230.000,283.500,129.000
1.941,148.500,229.500,283.000,129.000
1.942,148.000,229.500,282.500,128.500
1.943,147.500,229.000,282.500,128.500
1.944,147.500,228.500,282.500,128.500
1.945,147.500,228.500,282.000,128.500
1.946,147.500,228.500,282.000,128.500
1.947,147.500,228.500,282.000,128.500
1.948,147.500,229.000,282.000,129.000
1.949,147.500,229.000,282.000,129.500
1.950,148.000,229.000,282.000,129.500
1.951,148.000,229.000,282.500,130.000
1.952,148.000,229.000,283.000,130.500
1.953,148.500,229.500,283.000,131.000
1.954,148.500,229.500,283.500,131.500
1.955,148.500,229.500,283.500,132.000
1.956,148.500,229.500,283.500,132.000
1.957,148.500,229.500,283.500,132.000
1.958,148.500,229.000,283.500,132.000
1.959,148.000,229.000,283.000,132.000
1.960,148.000,228.500,283.000,132.000
1.961,147.500,228.000,282.500,131.500
1.962,147.000,227.500,282.500,131.000
1.963,147.000,227.000,282.000,131.000
1.964,147.000,227.000,282.000,131.000
1.965,147.000,227.000,281.500,131.000
1.966,147.000,227.000,282.000,131.500
1.967,147.000,227.000,282.000,131.500
1.968,147.000,227.000,282.000,132.000
1.969,147.000,227.500,282.000,132.500
1.970,147.000,227.500,282.000,132.500
1.971,146.500,228.000,282.000,133.000
1.972,146.500,228.000,282.500,133.500
1.973,147.000,228.500,282.500,134.000
1.974,147.000,228.500,283.000,134.500
1.975,147.000,228.500,283.000,135.000
1.976,147.000,228.500,283.000,135.000
1.977,147.000,228.000,282.500,135.500
1.978,147.000,228.000,282.000,135.000
1.979,147.000,227.500,282.000,135.000
1.980,146.500,227.500,282.000,135.000
1.981,146.500,227.000,281.500,135.000
1.982,146.500,227.000,281.500,134.500
1.983,146.000,227.000,281.000,134.500
1.984,146.000,226.500,281.000,134.000
1.985,146.000,226.500,280.500,134.000
1.986,146.000,226.500,280.500,134.000
1.987,146.000,226.500,280.000,134.500
1.988,146.000,226.500,280.000,134.500
1.989,146.000,226.500,280.000,134.500
1.990,146.000,226.500,280.000,135.000
1.991,146.000,227.000,280.500,135.500
1.992,146.500,227.500,280.500,136.000
1.993,146.500,228.000,281.000,136.500
1.994,147.000,228.000,281.500,137.000
1.995,147.000,228.500,282.000,137.500
1.996,147.000,228.500,282.000,137.500
1.997,146.500,228.500,282.000,138.000
1.998,146.500,228.500,282.000,137.500
1.999,146.000,228.000,282.000,137.500
2.000,146.000,228.000,281.500,137.500
2.001,146.000,227.500,281.500,137.000
2.002,146.000,227.500,281.000,137.000
2.003,146.000,227.000,281.000,136.500
2.004,145.500,226.500,280.500,136.500
2.005,145.500,226.500,280.500,136.500
2.006,145.000,226.000,280.500,136.500
2.007,145.000,226.000,280.000,137.000
2.008,145.000,226.000,280.500,137.000
2.009,145.500,226.000,280.500,137.000
2.010,145.500,226.500,281.000,137.500
2.011,146.000,226.500,281.500,138.000
2.012,146.500,227.000,282.000,138.500
2.013,146.500,227.500,282.500,139.000
2.014,146.500,228.000,282.500,139.500
2.015,146.500,228.000,282.500,139.500
2.016,146.500,228.500,282.000,139.500
2.017,146.500,228.500,282.000,139.500
2.018,146.500,228.500,281.500,139.500
2.019,146.500,228.000,281.000,139.500
2.020,146.500,228.000,281.000,139.500
2.021,146.000,227.500,281.000,139.000
2.022,146.000,227.500,280.500,139.000
2.023,146.000,227.000,280.500,139.000
2.024,146.000,227.000,280.500,139.000
2.025,146.000,227.000,280.500,139.000
2.026,146.000,227.000,280.500,139.000
2.027,146.000,227.000,280.500,139.500
2.028,146.000,227.000,280.500,139.500
2.029,146.000,227.500,281.000,140.000
2.030,146.000,227.500,281.000,140.000
2.031,146.500,228.000,281.500,140.500
2.032,146.500,228.500,281.500,141.000
2.033,146.500,228.500,282.000,141.000
2.034,147.000,229.000,282.500,141.500
2.035,147.000,229.000,282.500,141.500
2.036,146.500,229.000,283.000,141.500
2.037,146.500,229.000,283.000,141.500
2.038,146.000,228.500,282.500,141.000
2.039,145.500,228.500,282.000,140.500
2.040,145.500,228.000,281.500,140.500
2.041,145.000,227.500,281.000,140.000
2.042,145.000,227.500,280.500,139.500
2.043,145.000,227.000,280.000,139.000
2.044,144.500,227.000,279.500,138.500
2.045,144.500,227.000,279.500,138.500
2.046,144.000,227.000,279.500,138.500
2.047,144.000,227.000,279.500,138.500
2.048,144.000,227.000,279.500,139.000
2.049,144.500,227.000,279.500,139.000
2.050,144.500,227.000,279.500,139.500
2.051,144.500,227.000,279.500,139.500
2.052,144.500,227.500,279.500,139.500
2.053,144.500,227.500,280.000,139.500
2.054,144.000,227.000,280.000,139.500
2.055,144.000,227.000,280.000,140.000
2.056,144.000,227.000,280.000,140.000
2.057,144.000,226.500,280.000,140.500
2.058,144.000,226.500,280.000,141.000
2.059,144.500,226.500,280.500,141.000
2.060,144.000,226.000,280.500,141.500
2.061,144.000,225.500,280.000,141.500
2.062,143.500,225.000,279.500,141.000
2.063,143.500,225.000,279.500,141.000
2.064,143.000,224.500,279.000,141.000
2.065,143.000,224.500,279.000,141.000
2.066,143.000,224.500,278.500,141.000
2.067,143.500,225.000,278.500,141.000
2.068,143.500,225.000,279.000,141.000
2.069,144.000,225.500,279.000,141.500
2.070,144.000,225.500,279.500,141.500
2.071,144.000,226.000,279.500,142.000
2.072,144.500,226.000,280.000,142.500
2.073,145.000,226.500,280.500,143.000
2.074,145.000,227.000,281.000,143.500
2.075,145.500,227.000,281.000,144.000
2.076,145.500,227.500,281.500,144.000
2.077,145.500,227.500,281.500,144.500
2.078,145.000,227.000,281.000,144.000
2.079,145.000,227.000,281.000,144.000
2.080,144.500,226.500,280.500,143.500
2.081,144.500,226.000,280.500,143.000
2.082,144.000,226.000,280.500,143.000
2.083,144.000,225.500,280.000,142.500
2.084,144.000,225.500,280.000,142.500
2.085,144.000,225.500,280.000,142.500
2.086,144.000,226.000,280.000,143.000
2.087,144.500,226.000,280.000,143.000
2.088,144.500,226.500,280.000,143.500
2.089,144.500,226.500,280.500,144.000
2.090,145.000,227.000,280.500,144.500
2.091,145.000,227.500,281.000,145.000
2.092,145.000,227.500,281.500,145.500
2.093,145.000,228.000,282.000,146.000
2.094,145.500,228.000,282.500,146.500
2.095,146.000,228.500,283.000,147.000
2.096,146.000,228.500,283.000,147.500
2.097,146.000,228.500,283.000,147.500
2.098,146.000,228.000,283.000,147.000
2.099,145.500,228.000,282.500,147.000
2.100,145.500,228.000,282.500,146.500
2.101,145.000,228.000,282.500,146.500
2.102,145.000,228.000,282.500,146.000
2.103,145.000,227.500,282.000,146.000
2.104,145.000,227.500,281.500,145.500
2.105,145.000,227.500,281.000,145.500
2.106,144.500,227.000,281.000,145.000
2.107,144.500,227.000,280.500,145.000
2.108,144.500,227.000,280.500,145.000
2.109,144.500,227.000,280.500,145.500
2.110,144.500,227.500,280.500,146.000
2.111,144.500,227.500,280.500,146.000
2.112,144.500,227.500,280.500,146.500
2.113,144.500,227.500,281.000,146.500
2.114,144.500,228.000,281.000,147.000
2.115,144.500,228.000,281.000,147.000
2.116,144.500,228.000,281.000,147.000
2.117,144.500,228.000,280.500,147.000
2.118,144.500,227.500,280.500,147.000
2.119,144.000,227.500,280.500,147.000
2.120,144.000,227.500,280.000,147.000
2.121,144.000,227.000,280.000,146.500
2.122,144.000,227.000,279.500,146.000
2.123,144.000,226.500,279.000,145.500
2.124,143.500,226.000,278.500,145.500
2.125,143.500,226.000,278.000,145.000
2.126,143.500,226.000,278.000,145.000
2.127,143.500,226.500,278.000,145.500
2.128,144.000,226.500,278.000,145.500
2.129,144.000,227.000,278.500,146.000
2.130,144.000,227.000,278.500,146.500
2.131,144.500,227.500,279.000,146.500
2.132,144.500,227.500,279.000,147.000
2.133,144.500,227.500,279.000,147.500
2.134,144.500,227.500,279.000,147.500
2.135,144.500,227.000,279.000,147.500
2.136,144.500,227.000,278.500,147.500
2.137,144.500,227.000,278.500,147.500
2.138,144.500,227.000,278.500,147.000
2.139,144.000,226.500,278.000,147.000
2.140,144.000,226.500,278.000,146.500
2.141,144.000,226.500,278.000,146.500
2.142,143.500,226.000,277.500,146.500
2.143,143.500,226.000,277.500,146.000
2.144,143.000,225.500,277.000,146.000
2.145,143.000,225.500,277.000,146.000
2.146,143.000,225.500,277.000,146.000
2.147,143.000,225.500,277.000,146.000
2.148,143.000,225.500,277.500,146.500
2.149,143.000,226.000,277.500,146.500
2.150,143.000,226.000,278.000,147.000
2.151,143.000,226.000,278.000,147.000
2.152,142.500,226.500,278.000,147.500
2.153,142.500,226.500,278.000,147.500
2.154,142.500,226.000,278.000,147.500
2.155,142.500,226.000,277.500,147.500
2.156,142.500,225.500,277.000,147.500
2.157,142.000,225.000,276.500,147.500
2.158,142.000,224.500,276.000,147.500
2.159,141.500,224.000,276.000,147.500
2.160,141.500,223.500,275.500,147.000
2.161,141.500,223.500,275.500,147.000
2.162,141.500,223.000,275.500,147.000
2.163,141.500,223.000,275.000,146.500
2.164,141.000,223.000,275.000,146.500
2.165,141.000,222.500,275.000,146.000
2.166,141.000,222.500,275.000,146.000
2.167,141.000,223.000,275.000,146.500
2.168,141.000,223.000,275.000,146.500
2.169,141.500,223.500,275.500,147.000
2.170,141.500,224.000,276.000,147.000
2.171,141.500,224.000,276.500,147.500
2.172,141.500,224.500,277.000,148.000
2.173,141.500,224.500,277.500,148.000
2.174,141.500,224.500,277.500,148.500
2.175,141.500,224.500,278.000,148.500
2.176,141.000,224.500,277.500,148.500
2.177,141.000,224.000,277.500,148.500
2.178,140.500,223.500,277.500,148.000
2.179,140.000,223.500,277.000,147.500
2.180,139.500,223.000,276.500,147.500
2.181,139.500,222.500,276.000,147.000
2.182,139.500,222.000,275.500,146.500
2.183,139.500,222.000,275.500,146.000
2.184,139.500,221.500,275.000,146.000
2.185,139.000,221.500,274.500,145.500
2.186,139.000,221.000,274.500,145.000
2.187,139.000,221.000,274.000,145.000
2.188,139.000,220.500,274.000,144.500
2.189,138.500,220.500,274.000,144.000
2.190,138.500,220.000,273.500,143.500
2.191,138.000,219.500,273.000,143.000
2.192,137.500,219.000,272.000,142.500
2.193,137.000,218.000,271.000,141.000
2.194,136.000,217.000,270.000,140.000
2.195,135.000,215.500,269.000,139.000
2.196,134.000,214.500,267.500,138.000
2.197,132.500,213.000,266.500,137.000
2.198,130.500,211.500,265.000,136.000
2.199,129.000,210.000,263.500,134.500
2.200,127.500,208.500,262.000,133.500
2.201,125.500,206.500,260.500,132.500
2.202,124.000,205.000,259.500,131.500
2.203,122.000,204.000,258.500,130.500
2.204,121.000,202.500,257.500,130.000
2.205,119.500,201.500,257.000,130.500
2.206,118.500,201.000,257.000,131.000
2.207,117.500,201.000,257.000,132.000
2.208,117.000,201.000,258.000,133.500
2.209,117.000,201.500,259.000,135.500
2.210,117.000,202.000,260.500,138.000
2.211,117.000,203.000,261.500,140.000
2.212,117.000,203.000,263.000,142.500
2.213,117.000,203.500,264.000,144.500
2.214,117.000,204.000,265.000,146.500
2.215,117.000,205.000,266.000,148.500
2.216,117.000,205.500,267.000,150.500
2.217,117.500,206.500,268.500,152.000
2.218,118.000,207.500,269.500,154.000
2.219,118.500,208.000,270.500,155.500
2.220,119.500,209.500,272.000,157.000
2.221,120.500,210.500,273.500,159.000
2.222,122.500,212.500,275.500,161.000
2.223,125.000,215.000,278.000,163.000
2.224,128.000,218.000,281.500,165.500
2.225,132.000,221.500,284.500,168.000
2.226,136.000,225.000,288.000,170.000
2.227,139.500,228.000,291.000,171.500
2.228,143.500,231.500,293.500,173.000
2.229,147.000,235.000,296.000,174.500
2.230,151.500,239.000,299.000,176.500
2.231,156.000,243.000,302.500,178.000
2.232,160.500,247.000,305.500,180.000
2.233,164.000,250.500,307.500,181.000
2.234,167.000,252.500,309.500,182.000
2.235,168.500,253.500,310.000,181.500
2.236,168.500,253.500,309.500,181.000
2.237,168.000,252.500,308.000,179.500
2.238,166.500,250.500,306.500,178.000
2.239,164.500,248.500,304.000,176.000
2.240,162.500,246.000,301.500,174.000
2.241,159.500,243.000,298.500,171.500
2.242,157.000,240.000,295.500,169.000
2.243,154.000,236.500,292.000,166.000
2.244,150.500,233.000,288.500,163.000
2.245,147.000,228.500,284.500,160.000
2.246,143.000,224.500,280.500,156.500
2.247,139.500,221.000,277.000,154.000
2.248,136.500,217.500,274.000,151.500
2.249,134.500,215.500,271.500,149.500
2.250,133.000,213.500,270.000,148.000
2.251,132.000,213.000,269.000,147.500
2.252,131.500,212.500,269.000,147.000
2.253,132.000,213.000,269.000,147.500
2.254,133.000,214.000,270.000,148.000
2.255,134.000,215.500,271.500,149.000
2.256,136.000,217.500,273.000,150.500
2.257,138.000,219.500,275.500,152.500
2.258,140.500,222.000,278.500,154.500
2.259,142.500,224.500,280.500,156.500
2.260,144.500,226.500,282.500,158.000
2.261,146.000,228.000,284.000,159.000
2.262,147.000,229.000,284.500,159.500
2.263,147.000,229.500,285.000,159.500
2.264,147.000,229.000,284.500,159.500
2.265,146.500,228.000,284.000,159.000
2.266,145.500,226.500,283.000,158.000
2.267,144.000,225.500,281.500,157.500
2.268,143.000,224.000,280.500,156.500
2.269,142.500,223.500,280.000,156.000
2.270,141.500,223.000,279.500,155.500
2.271,141.500,222.500,279.000,155.500
2.272,141.000,222.000,279.000,155.500
2.273,141.000,222.000,279.000,156.000
2.274,141.000,222.000,279.000,156.500
2.275,141.000,222.500,279.000,157.000
2.276,141.000,222.500,279.000,157.000
2.277,141.000,222.500,279.000,157.500
2.278,141.000,222.500,278.500,157.500
2.279,140.500,222.500,278.000,157.000
2.280,140.500,222.000,278.000,157.000
2.281,140.500,221.500,277.500,156.500
2.282,140.500,221.500,277.000,156.500
2.283,141.000,221.000,277.000,156.500
2.284,141.500,221.000,276.500,156.500
2.285,142.000,220.500,276.500,156.500
2.286,142.000,221.000,276.500,156.500
2.287,142.000,221.000,277.000,157.000
2.288,142.000,221.000,277.000,157.000
2.289,142.500,221.500,277.500,157.500
2.290,142.500,221.500,277.500,158.000
2.291,143.000,222.000,278.000,158.000
2.292,143.500,222.000,278.000,158.500
2.293,144.000,222.500,278.500,159.000
2.294,144.000,222.500,278.500,159.500
2.295,144.000,222.500,278.500,159.500
2.296,143.500,222.500,279.000,159.500
2.297,143.500,222.500,279.000,159.500
2.298,143.000,222.500,278.500,159.500
2.299,142.500,222.000,278.500,159.500
2.300,142.000,222.000,278.000,159.000
2.301,141.500,221.500,278.000,159.000
2.302,141.500,221.000,277.500,159.000
2.303,141.000,221.000,277.500,158.500
2.304,141.000,220.500,277.000,158.500
2.305,141.000,220.500,277.000,158.500
2.306,141.000,221.000,277.000,158.500
2.307,141.500,221.000,277.500,158.500
2.308,141.500,221.500,278.000,159.000
2.309,142.000,222.000,278.500,159.500
2.310,142.000,222.500,279.000,160.000
2.311,142.000,223.000,279.000,160.500
2.312,142.500,223.000,279.500,160.500
2.313,142.500,223.000,279.500,161.000
2.314,142.500,223.000,280.000,161.000
2.315,142.500,223.000,280.000,161.500
2.316,142.500,223.000,280.000,161.500
2.317,142.000,223.000,279.500,162.000
2.318,142.000,223.000,279.500,161.500
2.319,141.500,222.500,279.000,161.500
2.320,141.500,222.500,278.500,161.500
2.321,141.000,222.000,278.500,161.500
2.322,141.000,222.000,278.500,161.000
2.323,141.000,221.500,278.500,161.000
2.324,141.000,221.500,278.000,161.000
2.325,141.000,221.500,278.000,160.500
2.326,141.000,221.500,278.000,160.500
2.327,141.000,221.500,278.500,160.500
2.328,141.000,221.500,278.500,160.500
2.329,141.000,221.500,278.500,161.000
2.330,141.000,221.500,278.500,161.500
2.331,141.000,221.500,278.500,162.000
2.332,141.000,221.500,278.500,162.500
2.333,141.000,221.500,278.500,163.000
2.334,141.000,222.000,278.500,163.000
2.335,141.500,222.000,278.500,163.500
2.336,141.500,222.500,279.000,164.000
2.337,141.500,222.500,279.000,164.000
2.338,141.500,222.500,279.000,164.000
2.339,141.500,222.500,279.000,163.500
2.340,141.500,222.000,279.000,163.500
2.341,141.500,222.000,278.500,163.500
2.342,141.000,221.500,278.000,163.500
2.343,141.000,221.500,278.000,163.500
2.344,140.500,221.000,277.500,163.500
2.345,140.500,221.000,277.500,163.500
2.346,140.500,221.000,277.500,163.500
2.347,141.000,221.000,277.500,163.500
2.348,141.000,221.000,277.500,164.000
2.349,141.000,221.500,278.000,164.000
2.350,141.000,221.500,278.000,164.500
2.351,141.000,221.500,278.000,165.000
2.352,141.000,221.500,278.000,165.000
2.353,140.500,221.500,278.000,165.500
2.354,140.500,221.500,278.000,165.500
2.355,140.500,221.500,278.000,165.500
2.356,140.500,221.500,278.000,165.500
2.357,140.500,221.000,278.000,165.500
2.358,140.000,221.000,277.500,165.500
2.359,140.000,221.000,277.000,165.500
2.360,140.000,220.500,276.500,165.500
2.361,140.000,220.500,276.000,165.500
2.362,139.500,220.000,276.000,165.500
2.363,139.500,220.000,276.000,165.500
2.364,139.500,220.500,276.000,165.500
2.365,139.500,220.500,276.000,165.500
2.366,139.500,220.500,276.000,165.500
2.367,139.500,220.500,276.000,166.000
2.368,139.500,220.500,276.000,166.500
2.369,139.500,221.000,276.500,167.000
2.370,140.000,221.000,277.000,167.500
2.371,140.000,221.500,277.000,168.500
2.372,140.500,221.500,277.500,169.000
2.373,140.500,221.500,278.000,169.500
2.374,140.500,222.000,278.000,170.000
2.375,140.500,222.000,278.500,170.000
2.376,140.500,222.000,278.500,170.500
2.377,140.500,222.000,279.000,171.000
2.378,140.500,222.000,279.000,171.500
2.379,140.500,222.000,279.000,171.500
2.380,140.000,222.000,278.500,171.500
2.381,139.500,222.000,278.500,171.000
2.382,139.500,222.000,278.500,171.000
2.383,139.000,222.000,278.500,171.000
2.384,139.000,221.500,278.000,171.000
2.385,139.000,221.500,278.000,170.500
2.386,139.000,221.500,278.000,170.500
2.387,139.000,222.000,277.500,170.500
2.388,139.000,222.000,277.500,170.500
2.389,139.000,221.500,277.500,171.000
2.390,138.500,221.500,277.500,171.500
2.391,138.500,221.000,277.500,171.500
2.392,138.500,221.000,278.000,172.000
2.393,138.500,221.000,278.000,172.500
2.394,138.500,221.000,278.500,173.000
2.395,138.500,221.000,279.000,173.500
2.396,138.500,221.500,279.000,173.500
2.397,138.000,221.500,279.000,173.500
2.398,137.500,221.500,278.500,174.000
2.399,137.500,221.500,278.500,174.000
2.400,137.000,221.000,278.500,174.500
2.401,137.000,221.000,278.000,174.500
2.402,136.500,221.000,278.000,174.500
2.403,136.500,221.000,278.000,174.500
2.404,136.500,221.000,278.000,174.500
2.405,136.500,221.000,277.500,174.500
2.406,136.500,221.000,278.000,174.000
2.407,136.500,221.000,278.000,174.500
2.408,136.500,221.000,278.000,174.500
2.409,137.000,221.000,278.500,175.000
2.410,137.500,221.500,279.000,175.500
2.411,138.000,221.500,279.500,176.000
2.412,138.000,222.000,280.000,176.500
2.413,138.000,222.500,280.500,177.000
2.414,138.500,222.500,280.500,177.500
2.415,138.500,222.500,280.500,177.500
2.416,138.000,222.500,280.500,178.000
2.417,138.000,222.000,280.000,178.000
2.418,138.000,222.000,280.000,178.000
2.419,137.500,222.000,279.500,178.000
2.420,137.500,222.000,279.000,177.500
2.421,137.500,221.500,279.000,177.500
2.422,137.000,221.500,278.500,177.000
2.423,137.000,221.000,278.000,177.000
2.424,136.500,221.000,278.000,177.000
2.425,136.500,220.500,278.000,177.000
2.426,136.500,220.500,278.000,177.000
2.427,136.500,220.000,278.000,177.000
2.428,136.500,220.000,278.000,177.500
2.429,136.000,220.500,278.000,178.000
2.430,136.500,220.500,278.500,178.500
2.431,136.500,220.500,279.000,179.000
2.432,136.500,221.000,279.000,179.500
2.433,136.500,221.000,279.500,180.000
2.434,136.500,221.000,279.500,180.500
2.435,136.000,221.500,280.000,180.500
2.436,136.000,221.500,280.000,181.000
2.437,136.000,221.500,280.000,181.000
2.438,136.000,221.500,280.000,181.500
2.439,136.000,221.500,280.000,181.500
2.440,136.000,221.000,280.000,181.500
2.441,136.000,221.000,280.000,181.500
2.442,135.500,220.500,279.500,181.500
2.443,135.500,220.500,279.500,181.500
2.444,135.500,220.500,279.500,181.500
2.445,135.500,220.500,280.000,181.500
2.446,136.000,220.500,280.500,182.000
2.447,136.000,221.000,280.500,182.000
2.448,136.000,221.000,281.000,182.500
2.449,136.000,221.000,281.000,183.000
2.450,136.500,221.000,281.500,183.000
2.451,136.500,221.500,281.500,183.500
2.452,136.500,221.500,281.500,184.000
2.453,136.500,221.500,282.000,184.000
2.454,136.000,221.500,282.000,184.500
2.455,136.000,221.500,281.500,184.500
2.456,136.000,221.000,281.000,184.000
2.457,135.500,220.500,280.500,184.000
2.458,135.500,220.500,280.000,183.500
2.459,135.000,220.000,279.500,183.500
2.460,135.000,219.500,279.000,183.000
2.461,135.000,219.500,279.000,182.500
2.462,134.500,219.500,278.500,182.500
2.463,134.500,219.000,278.500,182.000
2.464,134.500,218.500,278.000,182.000
2.465,134.000,218.500,277.500,182.000
2.466,134.000,218.000,277.500,182.000
2.467,133.500,218.000,277.500,182.000
2.468,134.000,218.500,277.500,182.000
2.469,134.000,218.500,278.000,182.500
2.470,134.000,218.500,278.500,182.500
2.471,134.500,219.000,278.500,182.500
2.472,134.500,219.000,279.000,183.000
2.473,134.500,219.000,279.000,183.000
2.474,134.500,219.000,279.500,183.500
2.475,134.500,219.000,279.500,183.500
2.476,135.000,219.000,279.000,183.500
2.477,135.000,219.000,279.000,183.500
2.478,135.000,219.000,279.000,183.500
2.479,135.000,219.000,278.500,183.000
2.480,134.500,218.500,278.500,183.000
2.481,134.500,218.000,278.000,183.000
2.482,135.000,218.000,278.000,183.000
2.483,135.000,217.500,278.000,183.000
2.484,135.000,217.500,277.500,182.500
2.485,135.000,217.500,277.500,182.000
2.486,135.000,217.500,277.500,182.000
2.487,135.000,217.500,277.000,182.000
2.488,135.000,217.500,277.500,182.000
2.489,135.000,217.500,277.500,182.500
2.490,135.500,218.000,277.500,182.500
2.491,136.000,218.500,278.000,183.000
2.492,136.000,218.500,278.500,183.500
2.493,136.000,219.000,279.000,184.000
2.494,136.500,219.500,279.000,184.000
2.495,136.500,219.500,279.500,184.500
2.496,136.500,220.000,279.500,184.500
2.497,136.500,220.000,279.500,184.500
2.498,136.500,219.500,279.500,184.500
2.499,136.000,219.500,279.500,184.000
2.500,136.000,219.000,279.500,184.000
2.501,136.000,219.000,279.500,184.000
2.502,136.500,219.000,279.500,184.000
2.503,136.500,219.000,279.500,184.000
2.504,136.500,219.500,279.500,184.000
2.505,137.000,219.500,279.500,184.000
2.506,137.000,219.500,279.500,184.000
2.507,137.000,219.500,279.500,184.000
2.508,137.500,220.000,280.000,184.500
2.509,137.500,220.000,280.500,184.500
2.510,138.000,220.500,281.000,185.000
2.511,138.500,220.500,281.000,185.500
2.512,139.000,221.000,281.500,185.500
2.513,139.000,221.000,281.000,186.000
2.514,139.000,221.000,281.500,186.000
2.515,139.500,221.000,281.500,186.500
2.516,139.500,221.500,282.000,187.000
2.517,139.500,221.500,282.000,187.000
2.518,139.500,221.500,282.500,187.000
2.519,139.000,221.500,282.500,187.000
2.520,139.500,221.000,282.500,187.000
2.521,139.500,221.000,282.000,187.000
2.522,139.500,221.000,282.000,187.000
2.523,139.500,221.000,282.000,187.000
2.524,139.500,221.000,282.000,187.000
2.525,139.500,221.000,282.000,186.500
2.526,139.500,220.500,282.000,186.500
2.527,140.000,220.500,282.000,187.000
2.528,140.000,220.500,282.500,187.000
2.529,140.500,221.000,282.500,188.000
2.530,140.500,221.000,283.000,188.500
2.531,141.000,221.500,283.500,189.000
2.532,141.500,222.000,284.000,190.000
2.533,142.000,223.000,284.500,190.500
2.534,142.000,223.000,285.000,191.000
2.535,142.500,223.500,285.500,191.500
2.536,142.500,223.500,285.500,192.000
2.537,142.500,223.500,285.500,192.000
2.538,142.500,223.500,285.500,192.000
2.539,142.000,223.500,285.000,192.500
2.540,142.000,223.000,285.000,192.500
2.541,142.000,223.000,285.000,192.500
2.542,142.000,223.000,285.000,192.500
2.543,142.000,223.000,285.000,192.500
2.544,142.000,223.000,285.000,192.500
2.545,142.000,223.000,285.000,192.500
2.546,142.500,223.000,285.000,192.500
2.547,142.500,223.000,285.000,192.500
2.548,143.000,223.500,285.000,193.000
2.549,143.500,223.500,285.500,193.500
2.550,143.500,224.000,286.000,194.000
2.551,144.000,224.500,286.000,194.000
2.552,144.500,224.500,286.500,194.500
2.553,144.500,225.000,287.000,195.000
2.554,144.500,225.000,287.000,195.000
2.555,144.500,224.500,287.000,195.500
2.556,144.500,224.500,287.000,195.500
2.557,144.500,224.500,286.500,195.500
2.558,144.500,224.000,286.500,195.500
2.559,144.500,224.000,286.000,195.500
2.560,144.500,224.000,286.000,195.500
2.561,144.500,224.000,285.500,195.500
2.562,144.500,224.000,285.500,195.500
2.563,144.500,223.500,285.500,195.500
2.564,144.500,223.500,285.500,195.500
2.565,145.000,223.500,285.500,195.500
2.566,145.000,223.500,286.000,195.500
2.567,145.000,224.000,286.000,195.500
2.568,145.500,224.000,286.000,195.500
2.569,145.500,224.000,286.500,196.000
2.570,146.000,224.500,287.000,196.500
2.571,146.000,224.500,287.000,197.000
2.572,146.500,225.000,287.500,197.500
2.573,147.000,225.000,288.000,198.000
2.574,147.000,225.500,288.500,198.500
2.575,147.500,226.000,288.500,199.000
2.576,147.500,226.000,289.000,199.000
2.577,147.000,226.000,289.000,199.000
2.578,147.000,226.000,289.500,199.000
2.579,147.000,226.000,289.000,199.000
2.580,146.500,225.500,289.000,199.000
2.581,146.000,225.500,288.500,199.000
2.582,146.000,225.000,288.000,198.500
2.583,146.000,224.500,287.500,198.500
2.584,146.000,224.500,287.000,198.500
2.585,146.000,224.500,287.000,198.500
2.586,146.000,224.500,287.500,199.000
2.587,146.000,224.500,287.500,199.000
2.588,146.000,225.000,287.500,199.500
2.589,146.500,225.000,287.500,200.000
2.590,146.500,225.000,288.000,200.000
2.591,146.500,225.000,288.000,200.500
2.592,146.500,225.000,288.000,200.500
2.593,146.500,225.000,288.000,201.000
2.594,147.000,225.000,288.000,201.000
2.595,147.000,225.000,288.000,201.500
2.596,147.000,225.000,288.000,202.000
2.597,147.000,225.000,288.000,202.500
2.598,147.000,225.500,288.000,202.500
2.599,147.000,225.500,288.500,203.000
2.600,147.000,225.500,289.000,203.000
2.601,147.500,225.500,289.000,203.500
2.602,147.500,225.500,289.500,203.500
2.603,147.500,225.500,289.500,204.000
2.604,148.000,225.500,289.500,204.000
2.605,148.000,225.500,289.000,203.500
2.606,148.500,225.500,289.000,203.500
2.607,148.500,225.500,288.500,203.500
2.608,148.500,225.500,288.500,203.000
2.609,148.000,224.500,287.500,202.500
2.610,147.500,223.500,287.000,202.000
2.611,146.000,222.000,285.500,201.000
2.612,144.500,220.500,284.000,200.500
2.613,142.500,218.500,282.500,199.500
2.614,140.500,216.000,281.000,198.500
2.615,138.500,214.000,279.500,197.500
2.616,137.000,212.000,278.000,196.500
2.617,135.500,210.500,276.500,195.500
2.618,134.000,209.500,275.500,195.000
2.619,133.500,209.000,275.000,194.500
2.620,134.000,209.000,275.000,194.500
2.621,134.500,209.500,275.500,195.000
2.622,135.500,211.000,276.500,196.000
2.623,137.500,212.500,278.000,197.000
2.624,139.500,215.000,280.000,198.500
2.625,142.000,217.500,282.500,200.500
2.626,144.500,220.500,285.000,202.500
2.627,146.500,223.000,287.000,204.500
2.628,148.500,225.500,288.500,206.000
2.629,149.500,227.000,290.000,207.000
2.630,150.000,228.000,290.500,208.000
2.631,150.000,228.000,291.000,208.000
2.632,149.500,227.500,290.500,208.000
2.633,149.000,226.500,289.500,207.500
2.634,147.500,225.500,288.500,207.000
2.635,146.500,224.000,287.500,206.500
2.636,145.000,223.000,287.000,206.000
2.637,144.000,222.000,286.000,205.500
2.638,143.000,221.000,285.000,205.000
2.639,142.500,220.000,284.500,204.500
2.640,142.000,219.500,283.500,204.500
2.641,141.500,219.000,283.500,204.500
2.642,141.500,219.000,283.000,204.500
2.643,141.500,218.500,283.000,204.500
2.644,141.500,218.500,283.000,205.000
2.645,141.000,218.500,283.000,205.000
2.646,141.000,218.500,283.000,204.500
2.647,141.000,218.500,283.000,204.500
2.648,141.500,218.500,283.000,205.000
2.649,141.500,219.000,283.000,205.000
2.650,141.500,219.000,283.000,205.500
2.651,141.500,219.000,283.000,205.500
2.652,141.500,219.000,283.000,206.000
2.653,141.500,219.000,283.500,206.000
2.654,142.000,219.000,283.500,206.500
2.655,142.000,219.000,283.500,207.000
2.656,142.000,219.000,283.500,207.500
2.657,142.000,219.000,283.500,207.500
2.658,141.500,219.000,283.500,207.500
2.659,141.000,218.500,283.000,207.000
2.660,141.000,218.000,282.500,207.000
2.661,140.500,218.000,282.000,206.500
2.662,140.500,217.500,282.000,206.500
2.663,140.500,217.000,281.500,206.500
2.664,140.500,217.000,281.500,206.500
2.665,140.500,217.000,281.500,207.000
2.666,141.000,217.000,281.500,207.000
2.667,141.000,217.000,282.000,207.500
2.668,141.000,217.500,282.000,207.500
2.669,141.500,217.500,282.500,207.500
2.670,141.500,218.000,282.500,207.500
2.671,142.000,218.000,282.500,208.000
2.672,142.000,218.000,283.000,208.500
2.673,142.000,218.000,283.000,209.000
2.674,142.000,218.000,283.000,209.000
2.675,142.000,218.500,283.000,209.500
2.676,142.000,218.500,283.000,210.000
2.677,141.500,218.500,283.000,210.500
2.678,141.500,218.000,283.000,210.500
2.679,141.000,217.500,283.000,210.500
2.680,140.500,217.500,282.500,210.000
2.681,140.500,217.000,282.500,210.000
2.682,140.000,216.500,282.000,209.500
2.683,140.000,216.000,281.500,209.000
2.684,139.500,215.500,281.500,209.000
2.685,139.500,215.000,281.000,208.500
2.686,139.500,215.000,281.000,208.500
2.687,139.500,215.000,280.500,208.500
2.688,139.500,214.500,280.500,208.500
2.689,139.500,214.500,280.000,208.500
2.690,139.500,214.500,280.500,209.000
2.691,139.500,214.500,280.500,209.000
2.692,139.500,214.500,280.500,209.000
2.693,139.500,215.000,280.500,209.000
2.694,139.500,215.000,281.000,209.500
2.695,140.000,215.000,281.000,210.000
2.696,140.500,215.000,280.500,210.500
2.697,140.500,215.000,280.500,210.500
2.698,140.500,214.500,280.500,210.500
2.699,140.000,214.000,280.000,210.500
2.700,140.000,213.500,279.500,210.000
2.701,139.500,213.500,279.500,210.000
2.702,139.500,213.000,279.500,210.000
2.703,139.500,213.000,279.000,209.500
2.704,139.500,213.000,279.000,209.500
2.705,139.500,213.000,279.000,209.500
2.706,139.500,213.000,279.500,209.500
2.707,139.500,213.000,279.500,209.500
2.708,140.000,213.500,279.500,210.000
2.709,140.000,213.500,280.000,210.500
2.710,140.000,213.500,280.000,210.500
2.711,140.500,213.500,280.000,211.000
2.712,140.500,213.500,280.000,211.000
2.713,140.500,213.500,279.500,211.000
2.714,140.500,213.500,280.000,211.500
2.715,140.500,213.500,280.000,211.500
2.716,140.500,213.500,280.000,212.000
2.717,140.500,213.500,280.000,212.000
2.718,140.500,213.500,280.000,212.000
2.719,140.500,213.000,280.000,212.000
2.720,140.000,212.500,280.000,212.000
2.721,140.000,212.500,279.500,211.500
2.722,140.000,212.000,279.500,211.500
2.723,139.500,211.500,279.000,211.000
2.724,139.500,211.500,279.000,211.000
2.725,139.500,211.500,279.000,211.500
2.726,140.000,212.000,279.000,211.500
2.727,140.000,212.000,279.000,212.000
2.728,140.000,212.500,279.500,212.500
2.729,140.000,212.500,279.500,212.500
2.730,140.500,213.000,279.500,213.000
2.731,140.500,213.000,280.000,213.500
2.732,141.000,213.000,280.000,213.500
2.733,141.000,213.000,280.500,214.000
2.734,141.000,213.000,280.500,214.000
2.735,141.000,213.500,280.500,214.500
2.736,140.500,213.500,280.500,214.500
2.737,140.500,213.000,280.500,214.500
2.738,140.500,213.000,280.000,214.500
2.739,140.000,212.500,279.500,214.500
2.740,140.000,212.500,279.500,214.500
2.741,139.500,212.000,279.000,214.500
2.742,139.500,212.000,278.500,214.500
2.743,139.500,211.500,278.500,214.000
2.744,139.000,211.500,278.500,214.000
2.745,139.000,211.500,278.500,214.000
2.746,139.000,211.500,278.500,214.000
2.747,139.000,211.500,279.000,214.000
2.748,139.500,211.500,279.000,214.000
2.749,139.500,211.500,279.000,214.000
2.750,140.000,212.000,279.500,214.000
2.751,140.000,212.000,279.500,214.000
2.752,140.500,212.500,280.000,214.500
2.753,140.500,212.500,280.000,215.000
2.754,140.500,213.000,280.500,215.000
2.755,140.500,213.000,280.500,215.500
2.756,140.500,213.500,280.500,215.500
2.757,140.500,213.000,280.500,216.000
2.758,140.000,213.000,280.500,216.000
2.759,140.000,213.000,280.500,216.000
2.760,140.000,212.500,280.000,215.500
2.761,139.500,212.000,279.500,215.000
2.762,139.000,211.500,279.000,215.000
2.763,139.000,211.000,279.000,214.500
2.764,138.500,211.000,278.500,214.500
2.765,138.500,211.000,278.500,214.000
2.766,139.000,211.000,279.000,214.500
2.767,139.500,211.500,279.000,215.000
2.768,140.000,212.000,279.500,215.500
2.769,140.000,212.500,280.500,216.000
2.770,140.500,213.000,281.000,217.000
2.771,140.500,213.000,281.500,217.500
2.772,140.500,213.500,282.000,218.000
2.773,140.500,213.500,282.000,219.000
2.774,140.500,214.000,282.000,219.500
2.775,140.500,214.000,282.500,219.500
2.776,140.500,214.000,282.500,220.000
2.777,140.000,214.000,282.500,220.000
2.778,140.000,214.000,282.500,220.500
2.779,140.000,214.000,283.000,220.500
2.780,140.000,214.000,283.000,220.500
2.781,140.500,214.000,282.500,220.500
2.782,140.500,214.000,282.500,220.500
2.783,141.000,214.000,282.000,220.000
2.784,141.000,214.000,282.000,220.000
2.785,141.000,214.000,282.000,220.000
2.786,141.000,214.000,282.000,220.000
2.787,141.000,214.000,282.500,220.500
2.788,141.000,214.500,282.500,220.500
2.789,141.500,214.500,283.000,221.000
2.790,142.000,215.000,283.500,221.500
2.791,142.000,215.500,284.000,222.000
2.792,142.500,216.000,284.500,222.500
2.793,142.500,216.000,284.500,223.000
2.794,143.000,216.500,285.000,223.500
2.795,143.000,216.500,285.000,223.500
2.796,143.000,216.500,285.000,224.000
2.797,143.000,216.000,285.000,224.000
2.798,143.000,216.000,284.500,224.000
2.799,142.500,215.500,284.000,223.500
2.800,142.500,215.000,284.000,223.000
2.801,142.000,214.500,283.500,222.500
2.802,142.000,214.500,283.000,222.000
2.803,141.500,214.000,282.500,222.000
2.804,141.500,214.000,282.500,221.500
2.805,141.000,213.500,282.500,221.000
2.806,141.000,213.500,282.500,221.000
2.807,141.000,213.000,282.500,221.000
2.808,141.000,213.000,282.500,221.500
2.809,141.500,213.000,282.500,221.500
2.810,141.500,213.500,282.500,221.500
2.811,142.000,213.500,282.500,221.500
2.812,142.000,214.000,282.500,222.000
2.813,142.500,214.000,282.500,222.000
2.814,142.500,214.000,282.500,222.000
2.815,142.500,214.500,282.500,222.000
2.816,142.500,214.500,282.500,222.000
2.817,142.500,214.500,282.500,222.000
2.818,142.500,214.500,282.500,222.000
2.819,142.500,214.000,282.500,222.000
2.820,142.000,214.000,282.500,222.000
2.821,142.000,214.000,282.000,222.000
2.822,142.000,214.000,282.000,222.000
2.823,141.500,213.500,282.000,222.000
2.824,141.500,213.500,282.000,222.000
2.825,141.500,213.500,282.000,222.500
2.826,141.500,213.500,282.500,223.000
2.827,142.000,213.500,282.500,223.500
2.828,142.000,214.000,283.000,223.500
2.829,142.500,214.000,283.000,224.000
2.830,143.000,214.500,283.500,224.500
2.831,143.000,214.500,283.500,224.500
2.832,143.000,215.000,284.000,225.000
2.833,143.000,215.000,284.000,225.000
2.834,143.000,215.000,284.000,225.000
2.835,143.000,214.500,283.500,225.000
2.836,142.500,214.500,283.500,225.000
2.837,142.500,214.500,283.500,225.000
2.838,142.500,214.000,283.000,225.000
2.839,142.500,214.000,283.000,225.000
2.840,142.500,214.000,283.000,225.000
2.841,142.500,214.000,282.500,224.500
2.842,142.500,214.000,282.500,224.500
2.843,142.500,214.000,282.500,224.500
2.844,142.000,213.500,282.500,225.000
2.845,142.000,213.500,282.500,225.000
2.846,142.000,213.500,282.500,225.000
2.847,142.000,214.000,283.000,225.500
2.848,142.500,214.000,283.000,225.500
2.849,142.500,214.000,283.000,225.500
2.850,142.500,214.500,283.000,225.500
2.851,142.500,214.500,283.500,226.000
2.852,143.000,215.000,284.000,226.500
2.853,143.000,215.000,284.000,227.000
2.854,143.500,215.000,284.500,227.500
2.855,143.500,215.000,285.000,228.000
2.856,143.500,215.500,285.000,228.000
2.857,144.000,215.500,285.000,228.500
2.858,144.000,215.500,285.000,228.500
2.859,144.000,215.000,285.000,228.500
2.860,144.000,215.000,285.000,228.500
2.861,143.500,214.500,284.500,228.500
2.862,143.500,214.500,284.000,228.500
2.863,143.500,214.500,284.000,228.000
2.864,143.500,214.000,283.500,228.000
2.865,143.500,214.000,283.500,228.000
2.866,143.500,214.500,284.000,228.500
2.867,144.000,214.500,284.000,229.000
2.868,144.000,215.000,284.500,229.500
2.869,144.000,215.000,285.000,230.000
2.870,144.500,215.500,285.500,230.500
2.871,145.000,216.000,286.000,231.000
2.872,145.000,216.000,286.000,231.500
2.873,145.000,216.500,286.500,232.000
2.874,145.500,216.500,286.500,232.000
2.875,145.000,216.500,286.000,232.000
2.876,145.000,216.000,286.000,232.000
2.877,145.000,216.000,285.500,232.000
2.878,144.500,215.500,285.000,231.500
2.879,144.000,215.000,284.500,231.000
2.880,143.500,214.000,284.000,230.000
2.881,143.000,213.000,283.000,229.000
2.882,142.000,212.500,282.000,228.000
2.883,141.500,211.000,281.000,226.500
2.884,140.500,210.000,279.500,225.500
2.885,139.000,209.000,278.000,224.000
2.886,138.000,208.000,276.500,223.000
2.887,137.000,207.000,275.500,222.000
2.888,136.000,206.000,274.500,221.500
2.889,135.000,205.000,273.000,221.000
2.890,134.000,204.000,272.000,220.000
2.891,133.000,202.500,271.000,219.500
2.892,131.500,201.500,270.000,219.000
2.893,130.500,200.000,269.000,219.000
2.894,129.000,199.000,268.500,219.000
2.895,127.500,198.500,268.000,219.000
2.896,126.500,197.500,267.500,219.500
2.897,125.500,197.000,267.500,220.500
2.898,125.000,196.500,267.500,221.500
2.899,124.500,196.500,268.000,223.000
2.900,124.000,197.000,268.500,224.500
2.901,124.000,197.000,269.500,226.000
2.902,123.500,197.500,270.000,228.000
2.903,123.500,198.000,271.000,230.000
2.904,123.500,198.500,272.000,231.500
2.905,123.500,199.000,273.000,233.500
2.906,124.000,199.500,274.000,235.000
2.907,124.500,200.000,275.000,237.000
2.908,125.000,201.000,276.000,238.500
2.909,125.500,202.000,277.500,240.000
2.910,126.500,203.000,279.000,241.500
2.911,127.500,204.500,280.500,243.500
2.912,129.000,206.000,282.500,245.500
2.913,130.500,208.500,285.000,247.500
2.914,133.000,211.500,288.000,250.000
2.915,136.000,214.500,291.000,252.500
2.916,139.000,218.000,294.500,255.000
2.917,142.500,221.500,297.500,257.000
2.918,146.000,224.500,300.000,259.000
2.919,149.500,227.000,302.500,260.000
2.920,152.500,230.000,304.500,261.000
2.921,156.000,233.000,307.000,262.000
2.922,160.000,236.000,309.500,262.500
2.923,164.000,239.500,312.000,263.500
2.924,167.500,242.000,314.000,264.500
2.925,170.000,244.000,315.500,265.000
2.926,171.500,245.500,316.000,265.000
2.927,172.000,246.000,316.000,264.500
2.928,172.000,245.500,315.500,263.500
2.929,171.000,245.000,314.500,263.000
2.930,170.000,243.500,313.000,262.000
2.931,168.500,242.000,311.500,260.500
2.932,167.000,240.000,309.500,259.500
2.933,165.000,238.000,308.000,258.000
2.934,163.000,236.000,306.000,256.000
2.935,161.000,234.000,304.500,254.500
2.936,159.500,232.000,302.500,253.000
2.937,157.500,230.500,301.500,251.500
2.938,156.000,229.500,300.000,250.000
2.939,154.500,228.000,298.500,248.500
2.940,153.500,226.500,297.000,247.500
2.941,152.500,225.500,296.000,246.500
2.942,151.500,224.000,294.500,245.500
2.943,151.000,222.500,293.000,245.000
2.944,150.500,221.500,292.000,244.500
2.945,150.000,221.000,291.500,244.000
2.946,150.000,221.000,291.000,243.500
2.947,150.000,221.000,291.000,243.500
2.948,150.000,221.500,291.500,243.500
2.949,150.500,222.000,292.000,244.000
2.950,150.500,222.500,292.500,244.500
2.951,151.000,223.000,293.000,245.000
2.952,151.000,223.500,293.500,245.000
2.953,151.000,224.000,293.500,245.500
2.954,151.000,224.000,293.500,245.500
2.955,151.000,224.000,293.500,245.500
2.956,151.000,224.000,293.500,245.500
2.957,151.000,224.000,293.000,246.000
2.958,150.500,224.000,293.000,246.000
2.959,150.500,223.500,293.000,246.000
2.960,150.000,223.500,292.500,246.000
2.961,150.000,223.000,292.500,245.500
2.962,150.000,223.000,292.500,245.500
2.963,150.000,223.500,292.500,245.500
2.964,150.000,223.500,292.500,245.500
2.965,150.500,223.500,293.000,245.000
2.966,150.500,223.500,293.000,245.000
2.967,151.000,224.000,293.000,245.000
2.968,151.500,224.000,293.000,245.000
2.969,152.000,224.500,293.500,245.000
2.970,152.500,225.000,293.500,245.000
2.971,153.000,225.500,294.000,245.500
2.972,153.500,226.000,294.000,246.000
2.973,153.500,226.500,294.000,246.000
2.974,153.000,226.500,294.000,246.000
2.975,153.000,226.500,294.000,246.000
2.976,152.500,226.000,293.500,246.000
2.977,151.500,225.000,293.000,245.500
2.978,150.500,223.500,291.500,245.000
2.979,149.000,221.500,289.500,244.000
2.980,147.500,219.000,287.500,242.500
2.981,145.500,216.500,285.000,240.500
2.982,143.500,214.500,283.000,239.000
2.983,142.000,212.500,281.500,238.000
2.984,141.000,211.500,280.000,237.000
2.985,141.000,211.000,280.000,237.000
2.986,141.000,211.500,280.000,237.000
2.987,142.000,212.000,281.000,238.000
2.988,143.000,213.500,282.500,239.000
2.989,144.500,215.000,284.000,240.500
2.990,146.500,217.500,286.000,242.000
2.991,148.500,220.000,288.500,244.000
2.992,151.000,222.500,291.500,246.500
2.993,153.500,225.500,293.500,248.500
2.994,155.500,227.500,295.500,250.000
2.995,157.000,229.000,297.000,251.500
2.996,158.000,230.000,298.000,252.000
2.997,158.000,230.500,298.500,252.500
2.998,158.000,230.500,298.500,252.500
2.999,157.500,229.500,297.500,252.000
3.000,156.500,228.000,296.000,251.000
3.001,155.000,226.500,294.500,249.500
3.002,154.000,225.000,292.500,248.000
3.003,153.000,224.000,291.500,247.000
3.004,152.000,223.000,290.500,246.000
3.005,151.500,222.500,290.000,245.500
3.006,151.000,222.000,289.500,245.500
3.007,151.000,222.000,289.500,245.500
3.008,151.000,222.000,290.000,246.000
3.009,151.000,222.500,290.500,246.000
3.010,151.500,222.500,291.000,246.500
3.011,151.500,223.000,291.000,247.000
3.012,152.000,223.000,291.500,247.500
3.013,152.000,223.000,291.500,248.000
3.014,152.000,223.500,292.000,248.500
3.015,152.500,223.500,292.000,248.500
3.016,152.500,224.000,292.000,249.000
3.017,152.000,223.500,291.500,249.000
3.018,152.000,223.500,291.500,248.500
3.019,151.500,223.000,291.000,248.500
3.020,151.000,223.000,291.000,248.500
3.021,151.000,222.500,291.000,248.000
3.022,150.500,222.500,291.000,248.000
3.023,150.500,222.500,291.000,248.000
3.024,150.500,222.500,291.000,248.000
3.025,150.500,222.500,291.000,248.000
3.026,150.500,222.500,291.000,247.500
3.027,150.500,222.500,291.000,247.500
3.028,150.000,222.500,291.000,247.500
3.029,150.000,222.500,291.000,247.500
3.030,150.500,223.000,291.500,248.000
3.031,150.500,223.000,291.500,248.000
3.032,150.500,223.500,292.000,248.500
3.033,150.500,224.000,292.000,248.500
3.034,151.000,224.000,292.500,249.000
3.035,151.000,224.000,292.500,249.000
3.036,151.000,224.000,292.500,249.000
3.037,151.000,223.500,292.500,249.000
3.038,151.000,223.500,292.500,248.500
3.039,151.000,223.500,292.000,248.500
3.040,151.000,223.000,292.000,248.500
3.041,150.500,223.000,292.000,248.000
3.042,150.500,223.000,292.000,248.000
3.043,150.500,223.000,292.000,248.000
3.044,150.000,222.500,291.500,247.500
3.045,150.000,222.500,291.500,247.500
3.046,150.000,222.500,291.500,247.000
3.047,150.000,222.500,291.500,247.000
3.048,150.000,223.000,291.500,247.500
3.049,150.000,223.500,291.500,247.500
3.050,150.500,224.000,291.500,248.000
3.051,150.500,224.500,292.000,248.500
3.052,150.500,225.000,292.500,249.000
3.053,151.000,225.500,293.000,249.500
3.054,150.500,225.500,293.000,249.500
3.055,150.500,225.500,293.000,250.000
3.056,150.500,225.000,293.000,250.000
3.057,150.000,225.000,293.000,250.000
3.058,149.500,224.500,293.000,250.000
3.059,149.500,224.000,292.500,250.000
3.060,149.000,224.000,292.500,250.000
3.061,149.000,224.000,292.500,249.500
3.062,149.000,224.000,292.000,250.000
3.063,149.000,224.000,292.000,250.000
3.064,149.000,224.000,291.500,250.000
3.065,149.000,223.500,291.500,250.000
3.066,149.000,223.500,291.500,250.000
3.067,149.500,223.500,291.000,250.500
3.068,149.500,223.500,291.000,250.500
3.069,149.500,223.500,291.500,250.500
3.070,149.500,223.500,291.500,250.500
3.071,150.000,223.500,292.000,251.000
3.072,150.500,224.000,292.500,251.000
3.073,150.500,224.500,292.500,251.500
3.074,151.000,224.500,293.000,251.500
3.075,151.000,224.500,293.000,251.500
3.076,151.000,224.500,293.000,251.500
3.077,151.000,224.500,292.500,251.000
3.078,151.000,224.500,292.500,251.000
3.079,150.500,224.500,292.000,251.000
3.080,150.500,224.000,292.000,251.000
3.081,150.500,224.500,292.000,251.000
3.082,150.500,224.500,292.000,251.000
3.083,151.000,224.500,292.500,251.000
3.084,150.500,224.500,292.500,251.000
3.085,150.500,224.500,293.000,250.500
3.086,150.500,224.500,293.000,250.500
3.087,151.000,225.000,293.500,250.500
3.088,151.000,225.000,293.500,250.500
3.089,151.500,225.000,293.500,251.000
3.090,152.000,225.500,293.500,251.000
3.091,152.500,225.500,293.500,251.000
3.092,153.000,225.500,293.500,251.000
3.093,153.000,226.000,293.500,251.000
3.094,153.500,226.000,294.000,251.000
3.095,153.500,226.500,294.000,251.000
3.096,153.500,226.500,294.000,251.000
3.097,153.000,226.500,294.000,251.000
3.098,153.000,226.500,294.000,251.000
3.099,153.000,227.000,294.500,251.000
3.100,153.000,227.000,294.500,251.000
3.101,153.000,227.000,294.500,251.000
3.102,153.500,227.000,294.500,251.000
3.103,153.500,226.500,294.000,250.500
3.104,153.500,226.500,294.000,250.500
3.105,153.500,226.500,294.500,250.500
3.106,153.500,226.500,294.500,250.500
3.107,153.500,226.500,295.000,250.500
3.108,153.500,226.500,295.000,250.500
3.109,154.000,227.000,295.500,250.500
3.110,154.500,227.500,296.000,251.000
3.111,154.500,228.000,296.500,251.500
3.112,154.500,228.500,297.000,252.000
3.113,154.500,228.500,297.000,252.500
3.114,154.500,229.000,297.000,252.500
3.115,154.500,229.500,297.000,252.500
3.116,154.500,229.500,297.000,252.500
3.117,154.500,229.500,297.000,252.500
3.118,154.500,229.500,297.000,252.500
3.119,154.000,229.000,297.000,252.000
3.120,153.500,228.500,296.500,252.000
3.121,153.000,228.000,296.500,251.500
3.122,152.500,227.500,296.000,251.000
3.123,152.500,227.500,296.000,251.000
3.124,152.000,227.500,296.000,251.000
3.125,152.000,227.500,296.000,251.000
3.126,152.000,227.500,296.000,251.000
3.127,152.000,228.000,296.000,250.500
3.128,152.000,228.000,296.000,250.500
3.129,152.000,228.500,296.500,250.500
3.130,152.500,228.500,296.500,250.500
3.131,152.500,229.000,297.000,251.000
3.132,152.500,229.000,297.000,251.000
3.133,152.500,229.000,297.000,251.000
3.134,152.500,229.000,297.000,251.500
3.135,152.500,228.500,297.000,251.500
3.136,152.500,228.500,297.000,251.500
3.137,152.500,228.500,296.500,251.500
3.138,152.500,228.000,296.500,251.500
3.139,152.500,228.000,296.500,251.000
3.140,152.500,227.500,296.000,251.000
3.141,152.500,227.500,296.000,251.000
3.142,152.000,227.000,296.000,250.500
3.143,152.000,227.000,295.500,250.000
3.144,152.000,227.000,295.500,250.000
3.145,152.000,227.000,295.500,249.500
3.146,152.500,227.000,295.500,249.500
3.147,152.500,227.500,295.500,249.000
3.148,153.000,227.500,295.500,249.000
3.149,153.000,227.500,295.500,249.000
3.150,153.500,228.000,296.000,249.000
3.151,153.500,228.000,296.000,249.000
3.152,153.500,228.000,296.000,249.000
3.153,153.500,228.000,296.500,249.000
3.154,153.500,228.500,296.500,248.500
3.155,153.500,228.500,296.500,248.500
3.156,153.000,228.500,296.500,248.500
3.157,153.000,228.000,296.500,248.000
3.158,152.500,228.000,296.000,248.000
3.159,152.500,227.500,295.500,247.500
3.160,152.500,227.500,295.000,247.000
3.161,152.500,227.000,294.000,246.000
3.162,152.500,227.000,293.500,245.500
3.163,153.000,226.500,293.000,245.000
3.164,153.000,226.500,292.500,244.500
3.165,153.000,226.500,292.500,244.000
3.166,153.000,226.500,292.500,243.500
3.167,153.000,226.500,292.500,243.500
3.168,153.000,226.500,292.500,243.500
3.169,153.500,226.500,292.500,243.500
3.170,153.500,226.500,293.000,244.000
3.171,154.000,226.500,293.000,244.000
3.172,154.000,226.500,293.000,244.000
3.173,154.000,226.500,293.000,244.000
