'Elapsed time','AECG1','AECG2','AECG3','AECG4'
'seconds','uV','uV','uV','uV'
0.000,-14.500,2.000,3.000,-25.000
0.001,-14.500,2.000,3.000,-25.000
0.002,-14.500,2.000,2.500,-25.000
0.003,-14.500,1.500,3.000,-25.500
0.004,-15.000,1.500,4.000,-25.500
0.005,-15.000,1.000,5.500,-25.500
0.006,-15.500,1.000,7.500,-25.000
0.007,-15.500,0.500,9.000,-25.000
0.008,-15.500,0.500,10.000,-25.000
0.009,-15.500,0.000,11.000,-25.000
0.010,-15.500,0.000,11.500,-25.000
0.011,-15.500,0.500,11.000,-25.000
0.012,-15.500,0.500,10.000,-24.500
0.013,-15.000,1.000,8.500,-24.000
0.014,-15.000,1.500,7.500,-24.000
0.015,-14.500,2.000,7.000,-23.500
0.016,-14.500,2.000,6.000,-23.500
0.017,-14.000,2.500,4.500,-23.500
0.018,-13.500,2.500,2.500,-23.000
0.019,-13.000,3.000,0.500,-23.000
0.020,-13.000,4.000,-1.000,-23.000
0.021,-12.500,4.500,-2.000,-22.500
0.022,-12.000,4.500,-2.500,-22.500
0.023,-12.000,4.500,-2.500,-22.500
0.024,-12.000,4.500,-1.500,-23.000
0.025,-12.500,4.000,0.500,-23.000
0.026,-13.000,3.500,2.500,-23.500
0.027,-13.000,3.000,4.000,-24.000
0.028,-13.500,2.500,5.000,-24.000
0.029,-13.500,2.000,4.500,-24.500
0.030,-14.000,1.000,4.000,-25.000
0.031,-14.500,0.500,3.000,-26.000
0.032,-15.000,0.000,2.000,-26.500
0.033,-15.500,-0.500,1.000,-27.000
0.034,-16.000,-1.000,0.500,-27.500
0.035,-16.500,-1.500,0.000,-28.500
0.036,-17.000,-2.000,0.500,-29.000
0.037,-17.500,-2.500,1.500,-30.000
0.038,-18.000,-3.000,2.500,-30.500
0.039,-18.500,-3.000,3.000,-31.000
0.040,-18.500,-3.500,3.500,-31.000
0.041,-18.500,-3.500,3.500,-31.000
0.042,-18.500,-3.500,2.500,-31.000
0.043,-18.500,-3.500,0.500,-31.000
0.044,-18.500,-3.000,-2.500,-30.500
0.045,-18.500,-3.000,-5.000,-30.000
0.046,-18.500,-3.000,-6.500,-29.500
0.047,-18.000,-2.500,-6.500,-29.000
0.048,-17.500,-2.500,-5.000,-28.000
0.049,-17.000,-2.000,-2.500,-27.000
0.050,-16.500,-1.000,0.000,-26.000
0.051,-16.000,-0.500,2.000,-25.000
0.052,-15.500,0.000,4.000,-24.000
0.053,-15.000,0.500,5.000,-23.500
0.054,-14.500,1.000,5.000,-23.000
0.055,-14.000,1.000,5.000,-23.000
0.056,-14.000,1.500,5.000,-23.000
0.057,-13.500,2.000,5.000,-23.500
0.058,-13.500,2.000,5.000,-23.500
0.059,-13.500,2.500,5.000,-23.000
0.060,-13.500,3.000,4.500,-23.000
0.061,-13.500,3.000,4.500,-23.000
0.062,-13.500,3.000,4.000,-23.000
0.063,-14.000,2.500,4.000,-23.000
0.064,-14.000,2.500,4.000,-23.000
0.065,-14.000,2.500,3.500,-23.500
0.066,-14.500,2.000,2.500,-23.500
0.067,-14.500,2.000,2.000,-23.500
0.068,-14.500,2.000,2.000,-23.500
0.069,-14.500,2.000,1.500,-23.500
0.070,-14.500,2.000,1.000,-23.500
0.071,-14.500,2.000,0.500,-23.500
0.072,-14.000,2.500,1.000,-23.000
0.073,-14.000,2.500,1.000,-23.000
0.074,-14.000,2.500,1.000,-22.500
0.075,-13.500,3.000,0.500,-22.500
0.076,-13.000,3.500,-0.500,-22.500
0.077,-13.000,4.000,-1.500,-22.500
0.078,-12.500,4.000,-1.000,-22.500
0.079,-12.500,4.500,1.000,-22.500
0.080,-12.000,4.500,3.000,-22.500
0.081,-12.000,4.500,4.500,-22.500
0.082,-12.000,4.500,6.000,-22.500
0.083,-12.500,4.000,7.000,-22.500
0.084,-13.000,4.000,8.000,-22.500
0.085,-13.000,3.500,8.500,-22.500
0.086,-13.500,3.000,8.500,-23.000
0.087,-14.000,2.500,8.000,-23.000
0.088,-14.000,2.000,7.500,-23.000
0.089,-14.000,1.500,6.500,-23.000
0.090,-14.000,1.500,5.000,-23.000
0.091,-14.000,1.500,4.000,-22.500
0.092,-14.000,1.500,3.000,-22.500
0.093,-13.500,2.000,3.500,-22.500
0.094,-13.500,2.000,5.000,-22.500
0.095,-13.000,2.000,7.000,-22.500
0.096,-13.000,2.500,10.000,-22.500
0.097,-12.500,2.500,13.500,-22.500
0.098,-12.000,3.000,16.000,-22.500
0.099,-12.000,3.500,18.000,-22.500
0.100,-12.000,3.500,18.500,-23.000
0.101,-12.000,3.500,17.500,-23.000
0.102,-11.500,3.500,16.000,-23.000
0.103,-11.500,3.500,14.000,-23.500
0.104,-11.500,3.000,12.500,-23.500
0.105,-11.500,3.000,11.000,-23.500
0.106,-12.000,2.500,10.000,-23.500
0.107,-12.000,2.000,10.000,-23.500
0.108,-12.000,1.500,11.500,-23.000
0.109,-12.000,1.500,14.000,-22.500
0.110,-12.000,1.500,16.000,-22.500
0.111,-12.000,1.500,17.500,-22.500
0.112,-11.500,1.500,16.500,-22.000
0.113,-11.500,2.000,14.500,-22.000
0.114,-11.000,2.000,12.000,-22.000
0.115,-10.500,2.500,9.500,-22.000
0.116,-10.500,2.500,8.500,-22.000
0.117,-10.000,3.000,8.000,-22.000
0.118,-9.500,3.500,8.000,-22.000
0.119,-9.500,3.500,8.000,-22.000
0.120,-9.500,3.500,7.500,-22.000
0.121,-9.500,3.500,7.500,-22.000
0.122,-9.500,4.000,7.000,-22.500
0.123,-10.000,4.000,7.000,-22.500
0.124,-10.000,3.500,7.500,-22.500
0.125,-10.500,3.500,8.000,-23.000
0.126,-11.000,3.000,8.000,-23.000
0.127,-11.000,3.000,8.000,-23.000
0.128,-11.500,2.500,7.500,-23.000
0.129,-11.500,2.500,7.000,-23.500
0.130,-11.500,2.000,7.000,-23.500
0.131,-11.500,2.000,7.000,-23.500
0.132,-11.500,2.000,7.500,-23.500
0.133,-11.500,2.000,9.000,-23.500
0.134,-11.000,2.000,10.500,-23.000
0.135,-11.000,2.500,11.500,-23.000
0.136,-11.000,2.500,11.500,-23.000
0.137,-10.500,3.000,9.500,-23.000
0.138,-10.500,3.000,7.000,-23.000
0.139,-10.500,3.000,4.500,-23.000
0.140,-10.500,3.500,2.500,-23.500
0.141,-10.500,3.000,2.000,-23.500
0.142,-10.500,3.000,2.000,-24.000
0.143,-11.000,3.000,2.500,-24.000
0.144,-11.000,3.000,3.500,-24.500
0.145,-11.500,2.500,5.000,-24.500
0.146,-12.000,2.000,6.000,-24.500
0.147,-12.000,1.500,7.000,-25.000
0.148,-12.500,1.500,6.000,-25.000
0.149,-12.500,1.000,5.000,-25.000
0.150,-13.000,1.000,4.500,-25.500
0.151,-13.000,1.000,4.000,-25.500
0.152,-13.000,1.000,4.000,-25.500
0.153,-12.500,1.500,3.500,-25.500
0.154,-12.500,1.500,3.000,-25.500
0.155,-12.000,1.500,1.500,-26.000
0.156,-11.500,2.000,0.000,-26.000
0.157,-11.500,2.000,-1.500,-26.500
0.158,-11.500,2.000,-2.500,-27.000
0.159,-11.500,1.500,-3.500,-28.000
0.160,-12.000,1.000,-4.000,-29.000
0.161,-12.000,0.500,-4.000,-30.000
0.162,-13.000,0.000,-4.000,-31.000
0.163,-13.500,-1.000,-3.500,-32.000
0.164,-15.000,-2.500,-3.000,-33.000
0.165,-16.000,-3.500,-1.500,-34.500
0.166,-17.500,-5.000,1.500,-36.000
0.167,-18.500,-6.500,4.000,-37.500
0.168,-20.000,-8.000,5.000,-39.000
0.169,-21.000,-9.500,5.000,-39.500
0.170,-22.000,-10.000,4.500,-40.000
0.171,-23.000,-11.000,4.000,-40.000
0.172,-24.000,-11.500,3.500,-39.500
0.173,-25.000,-12.000,3.500,-39.000
0.174,-26.000,-12.500,4.000,-38.500
0.175,-27.000,-13.000,4.000,-38.000
0.176,-28.000,-13.500,3.500,-37.000
0.177,-29.000,-13.500,2.500,-35.500
0.178,-29.500,-14.000,1.500,-33.500
0.179,-30.500,-14.000,0.500,-31.000
0.180,-32.000,-14.500,0.500,-28.000
0.181,-33.000,-14.500,0.500,-25.000
0.182,-34.000,-14.500,0.500,-21.500
0.183,-35.000,-14.500,-1.000,-18.000
0.184,-36.500,-14.500,-2.500,-15.000
0.185,-37.500,-14.500,-3.500,-12.000
0.186,-38.500,-14.500,-4.000,-9.500
0.187,-39.000,-14.500,-3.500,-7.000
0.188,-40.000,-15.000,-2.000,-5.000
0.189,-40.000,-15.000,-0.500,-3.000
0.190,-40.000,-14.500,0.500,-1.000
0.191,-39.000,-14.000,1.500,0.500
0.192,-37.500,-12.500,2.500,2.000
0.193,-35.500,-11.000,3.500,3.000
0.194,-33.000,-9.000,4.500,4.000
0.195,-30.000,-6.500,5.000,4.000
0.196,-27.000,-4.000,5.000,4.500
0.197,-23.500,-1.500,6.000,4.000
0.198,-20.000,1.500,6.500,4.000
0.199,-16.000,4.000,7.500,3.000
0.200,-12.500,6.500,8.500,2.000
0.201,-9.500,8.500,8.500,1.000
0.202,-6.000,10.500,7.500,-0.500
0.203,-3.500,12.000,6.000,-2.000
0.204,-1.000,13.500,4.000,-3.000
0.205,1.500,15.000,2.500,-4.000
0.206,2.500,15.500,1.000,-5.000
0.207,3.000,15.000,0.500,-6.500
0.208,2.500,14.000,1.000,-8.000
0.209,1.000,12.500,1.000,-10.500
0.210,-1.000,10.500,0.000,-12.500
0.211,-3.000,9.000,-1.500,-15.000
0.212,-4.500,7.500,-3.500,-17.000
0.213,-5.500,6.000,-4.500,-18.500
0.214,-6.500,5.500,-5.500,-20.000
0.215,-7.000,4.500,-6.000,-21.000
0.216,-8.000,4.000,-7.500,-22.000
0.217,-8.500,3.000,-8.500,-23.000
0.218,-9.000,2.500,-10.000,-24.000
0.219,-9.000,2.500,-10.500,-24.500
0.220,-9.500,2.500,-10.500,-25.000
0.221,-9.500,2.000,-10.000,-25.500
0.222,-9.500,2.000,-8.000,-25.500
0.223,-9.500,2.000,-6.000,-26.000
0.224,-9.500,2.000,-4.000,-26.000
0.225,-9.500,1.500,-4.000,-26.500
0.226,-10.000,1.000,-5.000,-26.500
0.227,-10.000,1.000,-6.500,-26.500
0.228,-10.000,0.500,-7.500,-26.500
0.229,-10.500,0.000,-7.500,-26.500
0.230,-10.500,-0.500,-7.500,-26.500
0.231,-10.500,-0.500,-7.000,-27.000
0.232,-10.000,-0.500,-6.000,-27.000
0.233,-10.000,0.000,-4.000,-27.000
0.234,-9.500,0.500,-2.000,-26.500
0.235,-9.500,1.000,1.000,-26.500
0.236,-9.000,1.000,3.500,-26.000
0.237,-9.000,1.500,5.500,-26.000
0.238,-8.500,1.500,6.500,-26.000
0.239,-8.500,2.000,6.500,-26.000
0.240,-8.500,2.000,6.000,-26.000
0.241,-8.000,2.000,5.000,-26.000
0.242,-8.000,2.000,4.500,-26.500
0.243,-8.500,1.500,5.000,-26.500
0.244,-8.500,1.500,6.000,-27.000
0.245,-9.000,1.000,7.000,-27.500
0.246,-9.500,1.000,8.000,-27.500
0.247,-10.000,0.500,7.500,-28.000
0.248,-10.000,0.500,6.000,-28.000
0.249,-10.000,0.500,4.500,-28.000
0.250,-10.000,0.500,3.500,-28.000
0.251,-10.000,0.500,3.000,-28.000
0.252,-10.000,1.000,3.000,-28.000
0.253,-10.000,1.000,2.500,-28.000
0.254,-9.500,1.500,2.000,-28.000
0.255,-9.500,1.500,2.000,-28.000
0.256,-9.000,2.000,2.000,-27.500
0.257,-9.000,2.500,2.000,-27.500
0.258,-8.500,2.500,2.000,-27.000
0.259,-8.500,3.000,2.500,-27.000
0.260,-8.000,3.000,3.000,-26.500
0.261,-8.000,3.500,4.500,-26.500
0.262,-8.000,3.500,5.500,-26.500
0.263,-8.000,3.500,6.500,-26.500
0.264,-8.500,3.000,7.000,-26.500
0.265,-9.000,3.000,7.000,-26.500
0.266,-9.500,2.500,7.500,-27.000
0.267,-10.000,2.000,8.000,-27.000
0.268,-10.500,1.000,8.500,-27.000
0.269,-11.000,0.500,8.500,-27.000
0.270,-11.000,0.500,7.500,-27.000
0.271,-11.000,0.000,6.500,-27.500
0.272,-11.000,0.000,6.000,-27.500
0.273,-10.500,0.000,5.500,-27.500
0.274,-10.000,0.000,5.000,-28.000
0.275,-10.000,0.500,4.000,-28.000
0.276,-9.500,0.500,2.500,-28.000
0.277,-9.500,1.000,2.500,-28.000
0.278,-9.500,1.500,3.500,-28.000
0.279,-9.500,1.500,5.500,-28.000
0.280,-9.500,2.000,7.000,-28.000
0.281,-9.500,2.000,7.500,-28.000
0.282,-9.500,2.000,7.500,-28.000
0.283,-10.000,2.000,7.500,-28.000
0.284,-10.000,2.000,7.500,-28.000
0.285,-10.500,1.500,7.000,-28.500
0.286,-10.500,1.000,5.500,-28.500
0.287,-11.000,0.500,3.500,-28.500
0.288,-11.000,0.000,2.500,-29.000
0.289,-11.000,-0.500,2.000,-29.000
0.290,-11.000,-0.500,1.500,-29.000
0.291,-11.000,-0.500,1.000,-29.000
0.292,-10.500,-0.500,-0.500,-29.000
0.293,-10.000,0.000,-1.500,-29.000
0.294,-9.500,0.500,-3.000,-28.500
0.295,-9.000,1.000,-4.000,-28.500
0.296,-9.000,1.500,-4.500,-28.000
0.297,-9.000,2.000,-4.500,-28.000
0.298,-8.500,2.500,-4.000,-28.000
0.299,-8.500,2.500,-3.500,-28.000
0.300,-8.500,3.000,-2.500,-27.500
0.301,-8.000,3.500,-2.500,-27.500
0.302,-8.000,3.500,-2.500,-27.500
0.303,-7.500,3.500,-3.000,-27.000
0.304,-7.500,3.500,-3.500,-27.000
0.305,-8.000,3.500,-4.000,-27.000
0.306,-8.000,3.500,-5.500,-27.000
0.307,-8.500,3.000,-7.000,-27.000
0.308,-8.500,2.500,-8.000,-27.500
0.309,-9.000,2.000,-8.000,-27.500
0.310,-9.000,1.500,-6.500,-27.500
0.311,-9.000,1.000,-3.500,-27.500
0.312,-9.000,1.000,-0.500,-27.500
0.313,-8.500,1.000,2.500,-27.500
0.314,-8.000,1.000,4.500,-27.500
0.315,-8.000,1.500,5.000,-27.500
0.316,-7.500,2.000,4.500,-27.500
0.317,-7.500,2.000,3.000,-27.500
0.318,-7.500,2.500,1.500,-27.000
0.319,-7.500,3.000,0.000,-26.500
0.320,-7.000,3.000,-1.000,-26.500
0.321,-7.000,3.000,-1.000,-26.000
0.322,-7.500,3.500,-1.500,-26.000
0.323,-7.500,3.000,-2.000,-26.000
0.324,-7.500,3.000,-2.500,-26.000
0.325,-8.000,2.500,-2.500,-26.000
0.326,-8.000,2.000,-3.000,-26.000
0.327,-8.000,1.500,-4.000,-26.000
0.328,-8.500,1.500,-4.500,-26.500
0.329,-8.500,1.000,-3.500,-26.500
0.330,-8.500,1.000,-2.000,-26.500
0.331,-8.500,1.000,0.000,-27.000
0.332,-8.500,1.000,1.500,-27.000
0.333,-8.000,1.000,2.000,-27.000
0.334,-8.000,1.500,1.500,-26.500
0.335,-7.500,2.000,0.500,-26.500
0.336,-7.500,2.500,-1.500,-26.000
0.337,-7.000,3.000,-3.000,-26.000
0.338,-7.000,3.500,-4.500,-26.000
0.339,-7.000,3.500,-4.500,-26.000
0.340,-6.500,4.000,-4.000,-26.000
0.341,-6.500,4.000,-3.000,-26.500
0.342,-6.500,4.000,-2.500,-26.500
0.343,-6.500,4.000,-2.000,-27.000
0.344,-7.000,4.000,0.000,-27.000
0.345,-7.000,3.500,3.500,-27.000
0.346,-7.500,3.000,7.500,-27.000
0.347,-8.000,2.500,11.500,-27.000
0.348,-8.000,2.000,15.500,-27.000
0.349,-8.500,2.000,18.000,-26.500
0.350,-8.500,1.500,19.000,-26.500
0.351,-8.500,1.500,18.000,-26.500
0.352,-8.500,1.500,15.000,-26.500
0.353,-8.000,2.000,10.500,-26.500
0.354,-8.000,2.000,6.000,-26.500
0.355,-8.000,2.000,2.000,-26.000
0.356,-8.000,2.500,-0.500,-26.000
0.357,-8.000,3.000,-2.000,-26.000
0.358,-7.500,3.500,-1.500,-26.000
0.359,-7.500,3.500,0.000,-25.500
0.360,-7.500,4.000,2.000,-25.500
0.361,-7.500,4.000,2.500,-25.500
0.362,-7.500,4.000,3.000,-25.500
0.363,-8.000,3.500,3.500,-25.500
0.364,-8.000,3.500,4.500,-26.000
0.365,-8.500,3.000,5.500,-26.000
0.366,-8.500,2.500,6.500,-26.000
0.367,-9.000,2.000,7.500,-26.500
0.368,-9.500,1.500,9.500,-26.500
0.369,-9.500,1.500,12.500,-26.500
0.370,-10.000,1.500,15.000,-26.500
0.371,-10.000,1.500,18.000,-26.000
0.372,-10.000,1.500,20.500,-26.000
0.373,-10.000,1.500,22.500,-25.500
0.374,-10.000,1.500,23.000,-25.500
0.375,-10.000,2.000,23.000,-25.500
0.376,-10.000,2.000,22.500,-26.000
0.377,-10.000,2.000,21.500,-26.500
0.378,-10.000,2.000,20.000,-26.500
0.379,-10.000,2.000,18.000,-26.500
0.380,-9.500,2.000,16.000,-26.500
0.381,-9.500,2.500,14.500,-26.500
0.382,-9.500,2.000,13.000,-26.500
0.383,-10.000,2.000,11.500,-27.000
0.384,-10.000,2.000,10.000,-27.000
0.385,-10.000,1.500,8.500,-27.000
0.386,-10.500,1.500,7.000,-27.000
0.387,-10.500,1.000,5.000,-26.500
0.388,-11.000,1.000,3.500,-26.500
0.389,-11.500,0.500,3.500,-26.500
0.390,-11.500,0.000,3.500,-26.500
0.391,-12.000,-0.500,3.500,-26.500
0.392,-12.000,-0.500,3.500,-26.500
0.393,-12.000,-0.500,3.000,-26.500
0.394,-11.500,-0.500,2.000,-26.500
0.395,-11.000,0.000,1.500,-26.000
0.396,-11.000,0.500,2.000,-26.000
0.397,-10.500,1.000,3.500,-26.000
0.398,-10.500,1.000,5.000,-26.000
0.399,-10.500,1.500,6.000,-25.500
0.400,-10.500,1.500,6.000,-25.500
0.401,-10.500,1.500,6.500,-25.500
0.402,-11.000,1.000,7.000,-26.000
0.403,-11.000,0.500,8.500,-26.000
0.404,-11.500,0.000,10.500,-26.500
0.405,-12.000,-0.500,12.500,-26.500
0.406,-12.000,-1.000,14.500,-26.500
0.407,-12.500,-1.500,15.500,-26.500
0.408,-13.000,-2.000,15.500,-26.000
0.409,-13.500,-2.500,14.500,-26.000
0.410,-13.500,-2.500,12.500,-25.500
0.411,-14.000,-2.500,10.500,-25.500
0.412,-14.000,-2.500,9.000,-25.000
0.413,-13.500,-2.500,7.500,-25.000
0.414,-13.500,-2.500,6.500,-25.000
0.415,-13.500,-2.500,6.000,-25.000
0.416,-13.500,-2.000,6.000,-25.000
0.417,-13.500,-2.000,7.000,-25.000
0.418,-13.500,-1.500,8.000,-25.000
0.419,-13.500,-1.500,9.500,-25.500
0.420,-13.500,-1.000,9.500,-25.500
0.421,-13.000,-1.000,9.000,-26.000
0.422,-13.000,-1.000,8.000,-26.500
0.423,-13.500,-1.000,7.000,-27.000
0.424,-13.500,-1.000,7.000,-27.500
0.425,-14.000,-1.500,6.500,-27.500
0.426,-14.000,-1.500,5.500,-28.000
0.427,-14.500,-2.000,4.500,-28.500
0.428,-14.500,-3.000,4.000,-29.000
0.429,-15.000,-3.000,4.000,-29.000
0.430,-15.000,-3.500,4.000,-29.500
0.431,-15.000,-3.500,4.000,-30.000
0.432,-14.500,-3.500,4.000,-30.000
0.433,-14.500,-3.500,5.000,-30.500
0.434,-14.500,-3.000,5.500,-30.500
0.435,-14.000,-3.000,6.500,-30.500
0.436,-14.000,-2.500,8.000,-30.500
0.437,-13.500,-2.000,9.000,-30.500
0.438,-13.000,-1.500,9.500,-31.000
0.439,-12.500,-1.500,9.000,-31.000
0.440,-12.500,-1.000,8.500,-31.000
0.441,-12.000,-0.500,8.000,-31.500
0.442,-12.000,-0.500,8.500,-31.500
0.443,-12.500,-1.000,9.000,-31.500
0.444,-12.500,-1.000,8.500,-32.000
0.445,-13.000,-1.500,7.500,-32.000
0.446,-13.000,-2.000,7.000,-32.500
0.447,-13.000,-2.000,7.500,-32.500
0.448,-13.000,-2.500,10.000,-33.000
0.449,-13.000,-2.500,13.500,-33.000
0.450,-13.000,-2.500,16.500,-33.000
0.451,-12.500,-2.500,18.000,-33.000
0.452,-12.000,-2.000,17.500,-33.000
0.453,-11.000,-1.500,16.000,-32.500
0.454,-10.500,-0.500,13.500,-32.500
0.455,-10.000,0.000,11.000,-32.500
0.456,-9.000,1.000,9.000,-32.500
0.457,-8.500,1.500,8.500,-32.500
0.458,-8.000,2.000,9.000,-32.500
0.459,-8.000,2.500,9.500,-32.500
0.460,-8.000,2.500,9.500,-32.500
0.461,-8.000,2.500,8.500,-33.000
0.462,-8.000,2.500,8.000,-33.500
0.463,-8.500,2.000,8.500,-34.000
0.464,-9.000,1.500,9.500,-34.500
0.465,-9.500,0.500,10.000,-35.500
0.466,-10.500,-0.500,10.000,-36.000
0.467,-11.500,-1.500,8.500,-37.000
0.468,-12.500,-2.500,7.500,-38.000
0.469,-13.500,-3.500,6.500,-39.000
0.470,-14.000,-4.500,5.000,-40.000
0.471,-14.500,-5.500,2.500,-40.500
0.472,-15.000,-5.500,0.000,-41.000
0.473,-15.000,-6.000,-2.500,-41.500
0.474,-15.000,-6.000,-3.500,-41.500
0.475,-14.500,-5.500,-2.500,-41.000
0.476,-14.000,-4.500,0.000,-40.500
0.477,-13.000,-3.500,3.000,-40.000
0.478,-12.000,-2.500,5.000,-39.000
0.479,-11.000,-1.000,5.000,-38.000
0.480,-9.500,0.000,3.000,-37.000
0.481,-8.500,1.000,1.000,-36.000
0.482,-8.000,2.000,0.000,-35.000
0.483,-7.500,3.000,1.000,-34.000
0.484,-7.000,3.500,3.000,-34.000
0.485,-6.500,3.500,5.000,-33.500
0.486,-7.000,3.000,6.000,-34.000
0.487,-7.000,2.000,7.000,-34.000
0.488,-7.500,1.500,8.000,-34.500
0.489,-7.500,1.000,9.000,-35.000
0.490,-8.000,0.500,9.500,-35.000
0.491,-8.000,0.500,9.500,-35.000
0.492,-8.000,0.500,9.500,-35.000
0.493,-8.000,0.500,9.000,-35.000
0.494,-7.500,0.500,9.000,-35.000
0.495,-7.500,0.500,10.500,-35.000
0.496,-7.500,0.500,12.000,-35.000
0.497,-7.000,1.000,13.500,-35.000
0.498,-7.000,1.000,14.000,-35.000
0.499,-6.500,1.000,14.500,-35.000
0.500,-6.500,1.500,14.000,-34.500
0.501,-6.500,1.500,13.500,-34.500
0.502,-6.000,1.500,13.000,-34.500
0.503,-6.500,1.500,12.500,-35.000
0.504,-6.500,1.500,12.000,-35.000
0.505,-7.000,1.000,11.000,-35.000
0.506,-7.000,0.500,9.000,-35.500
0.507,-7.500,0.000,6.000,-35.500
0.508,-8.000,-0.500,2.000,-35.500
0.509,-8.000,-1.000,-1.000,-35.500
0.510,-8.000,-1.000,-2.000,-35.500
0.511,-8.000,-1.000,-2.000,-36.000
0.512,-8.000,-1.000,-2.000,-36.000
0.513,-8.000,-1.000,-2.000,-36.000
0.514,-8.000,-0.500,-2.000,-36.000
0.515,-8.000,-0.500,-1.500,-36.000
0.516,-7.500,-0.500,-0.500,-36.000
0.517,-7.500,0.000,1.000,-36.000
0.518,-7.500,0.500,1.000,-36.000
0.519,-7.500,1.000,1.000,-36.000
0.520,-7.000,1.000,1.000,-36.000
0.521,-7.000,1.500,1.500,-36.500
0.522,-7.000,1.500,3.500,-36.500
0.523,-7.500,1.500,5.000,-37.000
0.524,-8.000,1.500,6.000,-37.500
0.525,-8.500,1.000,5.500,-37.500
0.526,-9.000,0.500,4.000,-38.000
0.527,-9.500,0.500,1.500,-38.000
0.528,-9.500,-0.500,-1.000,-38.500
0.529,-10.000,-0.500,-3.000,-38.500
0.530,-10.000,-1.000,-5.000,-39.000
0.531,-10.000,-1.500,-6.000,-39.000
0.532,-10.000,-1.500,-6.000,-39.000
0.533,-10.000,-1.500,-5.500,-39.000
0.534,-10.000,-1.500,-3.500,-39.000
0.535,-10.000,-1.000,-2.000,-38.500
0.536,-9.500,-0.500,-1.000,-38.000
0.537,-9.500,-0.500,-0.500,-38.000
0.538,-9.000,0.000,-1.000,-38.000
0.539,-8.500,0.500,-0.500,-37.500
0.540,-8.500,0.500,-0.500,-37.500
0.541,-8.500,0.500,0.000,-37.500
0.542,-8.500,0.500,1.000,-38.000
0.543,-8.500,0.500,1.500,-38.000
0.544,-9.000,0.000,2.000,-38.000
0.545,-9.000,-0.500,2.000,-38.000
0.546,-9.500,-1.000,2.000,-38.000
0.547,-10.000,-1.500,2.500,-38.000
0.548,-10.500,-1.500,2.500,-38.000
0.549,-10.500,-2.000,2.000,-38.000
0.550,-11.000,-2.000,1.000,-38.000
0.551,-11.000,-2.000,0.000,-38.000
0.552,-11.000,-1.500,-0.500,-38.000
0.553,-11.000,-1.500,-1.500,-38.000
0.554,-10.500,-1.000,-2.000,-38.000
0.555,-10.500,-0.500,-2.500,-37.500
0.556,-10.000,-0.500,-3.000,-37.500
0.557,-9.500,0.500,-4.000,-37.500
0.558,-9.500,1.000,-5.500,-37.500
0.559,-9.000,1.500,-7.000,-37.500
0.560,-8.500,2.000,-8.500,-37.500
0.561,-8.000,2.000,-9.500,-37.500
0.562,-8.000,2.000,-10.000,-37.500
0.563,-8.500,1.500,-9.500,-37.500
0.564,-8.500,1.000,-9.000,-38.000
0.565,-9.000,0.500,-8.000,-38.500
0.566,-9.500,0.000,-7.500,-38.500
0.567,-10.000,-0.500,-6.000,-38.500
0.568,-10.500,-1.000,-4.000,-38.500
0.569,-10.500,-1.000,-2.000,-38.500
0.570,-11.000,-1.500,-0.500,-38.500
0.571,-11.000,-1.000,0.000,-38.500
0.572,-10.500,-1.000,-1.500,-38.000
0.573,-10.500,-0.500,-4.000,-38.000
0.574,-10.500,-0.500,-7.500,-37.500
0.575,-10.000,-0.500,-11.000,-37.500
0.576,-10.000,0.000,-14.500,-37.000
0.577,-9.500,0.500,-16.500,-37.000
0.578,-9.500,0.500,-17.500,-37.000
0.579,-9.500,0.500,-16.500,-37.000
0.580,-9.500,1.000,-14.500,-36.500
0.581,-9.500,1.000,-11.000,-37.000
0.582,-9.500,1.000,-7.000,-37.000
0.583,-10.000,1.000,-4.500,-37.000
0.584,-10.000,0.500,-3.500,-37.500
0.585,-10.500,0.000,-3.500,-37.500
0.586,-10.500,-0.500,-4.500,-37.500
0.587,-11.000,-1.000,-6.000,-37.500
0.588,-11.500,-1.500,-7.500,-37.500
0.589,-11.500,-2.000,-8.000,-37.500
0.590,-12.000,-2.000,-7.000,-37.500
0.591,-12.000,-2.500,-5.500,-37.500
0.592,-11.500,-2.500,-4.500,-37.500
0.593,-11.500,-2.000,-4.500,-38.000
0.594,-11.000,-1.500,-5.000,-38.000
0.595,-11.000,-1.500,-6.000,-38.000
0.596,-10.500,-1.000,-6.500,-38.000
0.597,-10.000,-0.500,-6.500,-38.000
0.598,-10.000,0.000,-6.500,-38.000
0.599,-10.000,0.500,-6.000,-37.500
0.600,-9.500,1.000,-5.500,-37.500
0.601,-9.500,1.000,-5.500,-37.500
0.602,-9.500,1.000,-6.000,-37.000
0.603,-9.500,1.000,-6.500,-37.000
0.604,-10.000,1.000,-7.000,-37.000
0.605,-10.000,0.500,-7.000,-37.000
0.606,-10.500,0.000,-7.000,-37.000
0.607,-10.500,-0.500,-7.000,-37.000
0.608,-11.000,-0.500,-7.500,-37.000
0.609,-11.000,-1.000,-8.000,-37.000
0.610,-11.500,-1.000,-8.500,-37.000
0.611,-11.500,-1.000,-8.500,-37.000
0.612,-11.500,-1.000,-9.500,-36.500
0.613,-11.000,-1.000,-10.500,-36.500
0.614,-10.500,-0.500,-10.500,-36.500
0.615,-10.000,0.000,-10.000,-36.000
0.616,-9.500,0.500,-8.000,-36.000
0.617,-9.500,0.500,-5.500,-36.000
0.618,-9.000,1.000,-4.000,-36.000
0.619,-9.000,1.000,-3.500,-35.500
0.620,-8.500,1.500,-5.000,-35.500
0.621,-8.500,1.500,-7.000,-35.500
0.622,-9.000,1.500,-8.500,-35.500
0.623,-9.000,1.500,-9.000,-36.000
0.624,-9.500,1.000,-8.500,-36.000
0.625,-10.000,0.500,-7.500,-36.500
0.626,-10.500,0.000,-7.500,-37.000
0.627,-11.000,-1.000,-8.000,-37.000
0.628,-11.500,-1.000,-8.000,-37.000
0.629,-11.500,-1.500,-7.500,-37.000
0.630,-11.500,-1.500,-5.500,-37.000
0.631,-11.000,-2.000,-4.500,-37.000
0.632,-11.000,-2.000,-4.000,-37.000
0.633,-11.000,-2.000,-4.500,-37.500
0.634,-10.500,-2.000,-6.000,-37.500
0.635,-10.500,-1.500,-8.000,-37.500
0.636,-10.500,-1.500,-10.000,-37.500
0.637,-10.500,-1.000,-12.000,-37.500
0.638,-10.500,-1.000,-12.500,-37.500
0.639,-10.000,-1.000,-12.000,-37.500
0.640,-10.000,-1.000,-11.500,-37.500
0.641,-10.000,-1.000,-11.500,-38.000
0.642,-10.000,-1.000,-11.000,-38.000
0.643,-10.000,-1.000,-10.000,-38.000
0.644,-10.500,-1.000,-9.000,-38.000
0.645,-10.500,-1.500,-8.000,-38.000
0.646,-11.000,-1.500,-7.500,-38.000
0.647,-11.500,-2.000,-7.500,-38.500
0.648,-11.500,-2.500,-7.000,-38.500
0.649,-12.000,-3.000,-6.500,-39.000
0.650,-12.000,-3.000,-5.000,-39.500
0.651,-12.000,-3.500,-4.000,-39.500
0.652,-12.000,-3.500,-4.000,-39.500
0.653,-11.500,-3.500,-4.000,-39.000
0.654,-11.500,-3.500,-4.000,-39.000
0.655,-11.000,-3.000,-4.000,-39.000
0.656,-11.000,-3.000,-4.000,-39.000
0.657,-10.500,-2.500,-4.500,-39.000
0.658,-10.500,-2.000,-5.500,-38.500
0.659,-10.500,-2.000,-7.500,-38.500
0.660,-10.000,-1.500,-8.500,-38.500
0.661,-10.000,-1.000,-9.500,-38.500
0.662,-10.000,-1.000,-9.500,-38.500
0.663,-10.000,-1.000,-9.500,-39.000
0.664,-10.000,-1.500,-9.000,-39.500
0.665,-10.000,-1.500,-7.500,-39.500
0.666,-10.500,-2.000,-6.000,-40.000
0.667,-10.500,-2.500,-5.500,-40.000
0.668,-10.500,-2.500,-5.500,-40.000
0.669,-10.500,-2.500,-6.500,-39.500
0.670,-10.500,-2.500,-7.500,-39.500
0.671,-10.500,-2.500,-9.000,-39.500
0.672,-10.000,-2.500,-10.500,-39.000
0.673,-10.000,-2.000,-11.500,-39.000
0.674,-9.500,-1.500,-11.500,-39.000
0.675,-9.500,-1.000,-11.000,-38.500
0.676,-9.000,-0.500,-9.500,-38.500
0.677,-8.500,0.500,-8.000,-38.000
0.678,-8.500,1.000,-6.000,-38.000
0.679,-8.500,1.000,-4.000,-37.500
0.680,-8.500,1.000,-2.500,-37.500
0.681,-8.500,1.000,-2.000,-38.000
0.682,-8.500,1.000,-2.500,-38.000
0.683,-9.000,0.500,-3.000,-38.000
0.684,-9.000,0.500,-4.000,-38.500
0.685,-9.500,0.000,-4.500,-38.500
0.686,-10.000,-0.500,-4.500,-38.500
0.687,-10.500,-1.000,-5.000,-38.500
0.688,-11.000,-1.500,-5.000,-39.000
0.689,-11.000,-1.500,-5.500,-39.000
0.690,-11.500,-2.000,-6.500,-39.000
0.691,-11.500,-2.000,-7.000,-38.500
0.692,-11.000,-2.000,-8.000,-38.500
0.693,-11.000,-2.000,-9.500,-38.500
0.694,-11.000,-2.000,-11.000,-38.500
0.695,-10.500,-1.500,-12.000,-38.000
0.696,-10.500,-1.000,-13.500,-38.000
0.697,-10.000,-1.000,-14.500,-38.000
0.698,-10.000,-0.500,-14.500,-38.000
0.699,-9.500,-0.500,-13.500,-38.000
0.700,-10.000,-0.500,-12.000,-37.500
0.701,-10.000,0.000,-10.000,-37.500
0.702,-10.500,0.000,-8.500,-37.500
0.703,-10.500,0.000,-8.500,-38.000
0.704,-11.000,-0.500,-9.000,-38.000
0.705,-11.000,-0.500,-10.000,-38.000
0.706,-11.000,-1.000,-10.500,-38.500
0.707,-11.000,-1.500,-10.500,-38.500
0.708,-11.000,-2.000,-10.500,-38.500
0.709,-10.500,-2.000,-10.000,-38.500
0.710,-10.500,-2.500,-9.500,-38.000
0.711,-10.000,-2.500,-8.000,-38.000
0.712,-10.000,-2.000,-7.000,-37.500
0.713,-9.500,-1.500,-7.000,-37.000
0.714,-9.000,-1.000,-7.500,-37.000
0.715,-8.500,-0.500,-8.000,-36.500
0.716,-8.000,0.500,-8.000,-36.000
0.717,-8.000,1.000,-8.000,-36.000
0.718,-8.000,1.500,-8.500,-36.000
0.719,-7.500,2.000,-9.000,-36.000
0.720,-7.500,2.000,-10.000,-36.000
0.721,-7.500,2.000,-11.000,-36.000
0.722,-8.000,2.000,-10.500,-35.500
0.723,-8.000,1.500,-9.000,-35.500
0.724,-8.000,1.500,-7.500,-35.500
0.725,-8.500,1.000,-6.000,-35.500
0.726,-9.000,0.500,-6.000,-36.000
0.727,-9.500,-0.500,-7.500,-36.000
0.728,-10.000,-0.500,-8.500,-36.000
0.729,-10.000,-1.000,-9.500,-36.000
0.730,-10.000,-1.000,-10.000,-36.000
0.731,-10.000,-1.500,-9.500,-36.500
0.732,-10.000,-1.500,-9.000,-36.500
0.733,-9.500,-1.000,-8.000,-36.500
0.734,-9.500,-1.000,-7.500,-36.500
0.735,-9.000,-0.500,-7.500,-36.500
0.736,-9.000,0.000,-7.000,-36.500
0.737,-8.500,0.500,-5.500,-36.500
0.738,-8.000,0.500,-4.500,-36.500
0.739,-7.500,1.000,-3.500,-36.500
0.740,-7.000,1.000,-3.500,-37.000
0.741,-7.000,1.000,-3.500,-37.000
0.742,-7.000,1.000,-3.000,-37.000
0.743,-7.500,0.500,-2.500,-37.000
0.744,-7.500,0.500,-1.500,-37.500
0.745,-8.000,0.500,-0.500,-37.500
0.746,-8.000,0.000,1.000,-38.000
0.747,-8.500,-0.500,1.000,-38.000
0.748,-8.500,-0.500,0.500,-38.000
0.749,-8.500,-1.000,-1.500,-38.000
0.750,-8.500,-1.000,-4.000,-37.500
0.751,-8.500,-1.000,-6.500,-37.500
0.752,-8.500,-1.000,-7.500,-37.500
0.753,-8.000,-1.000,-8.000,-37.500
0.754,-8.000,-1.000,-8.500,-37.500
0.755,-8.000,-0.500,-9.500,-37.000
0.756,-7.500,0.000,-10.500,-37.000
0.757,-7.000,0.500,-11.000,-37.000
0.758,-7.000,1.000,-11.000,-36.500
0.759,-6.500,1.500,-10.500,-36.500
0.760,-6.500,2.000,-10.500,-36.000
0.761,-6.500,2.000,-11.000,-36.000
0.762,-6.500,2.000,-11.500,-36.000
0.763,-6.500,1.500,-12.000,-36.500
0.764,-7.000,1.500,-12.000,-36.500
0.765,-7.500,1.000,-11.500,-36.500
0.766,-7.500,0.500,-11.000,-36.500
0.767,-8.000,0.000,-11.000,-36.500
0.768,-8.500,0.000,-11.500,-36.500
0.769,-8.500,-0.500,-12.000,-37.000
0.770,-8.500,-0.500,-13.000,-37.000
0.771,-8.000,-0.500,-14.500,-37.000
0.772,-8.000,-0.500,-15.000,-37.500
0.773,-7.500,0.000,-14.500,-37.500
0.774,-7.500,0.000,-13.000,-37.500
0.775,-7.000,0.500,-12.000,-37.500
0.776,-7.000,0.500,-11.500,-37.500
0.777,-7.000,0.500,-11.000,-37.500
0.778,-6.500,0.500,-10.500,-37.500
0.779,-6.500,1.000,-9.500,-37.500
0.780,-6.500,1.000,-8.000,-37.500
0.781,-6.500,1.500,-6.500,-37.500
0.782,-6.500,1.500,-6.000,-37.500
0.783,-6.500,1.500,-6.500,-37.500
0.784,-6.500,1.000,-8.000,-38.000
0.785,-6.500,1.000,-10.500,-38.000
0.786,-7.000,0.500,-12.500,-38.500
0.787,-7.500,-0.500,-14.000,-38.500
0.788,-8.000,-1.000,-14.000,-38.000
0.789,-8.000,-2.000,-13.000,-38.000
0.790,-8.500,-2.000,-10.500,-38.000
0.791,-8.500,-2.500,-6.500,-37.500
0.792,-8.500,-2.500,-1.500,-37.500
0.793,-8.500,-2.500,2.500,-37.500
0.794,-8.500,-2.500,4.500,-37.500
0.795,-8.000,-2.500,5.500,-37.500
0.796,-8.000,-2.000,5.000,-37.500
0.797,-7.500,-1.500,4.000,-37.500
0.798,-7.500,-1.500,2.500,-37.500
0.799,-7.500,-1.500,0.500,-38.000
0.800,-8.000,-1.500,-2.000,-39.000
0.801,-8.000,-1.500,-4.000,-39.500
0.802,-8.500,-2.000,-6.000,-40.500
0.803,-9.500,-2.500,-8.000,-42.000
0.804,-10.500,-3.500,-9.500,-43.000
0.805,-11.500,-5.000,-11.000,-44.500
0.806,-13.000,-6.500,-12.000,-45.500
0.807,-14.500,-8.000,-13.000,-47.000
0.808,-16.000,-9.000,-13.500,-48.500
0.809,-17.500,-10.500,-13.000,-49.500
0.810,-18.500,-12.000,-12.500,-50.000
0.811,-20.000,-13.000,-10.500,-50.500
0.812,-21.000,-13.500,-8.500,-50.500
0.813,-21.500,-14.500,-7.500,-50.500
0.814,-22.500,-15.000,-7.500,-50.000
0.815,-23.500,-15.000,-8.000,-49.500
0.816,-25.000,-15.500,-9.500,-48.500
0.817,-26.000,-15.500,-11.500,-47.500
0.818,-27.000,-16.000,-13.000,-46.000
0.819,-28.000,-16.000,-13.500,-43.500
0.820,-29.000,-16.500,-14.000,-41.000
0.821,-30.000,-16.500,-14.000,-38.000
0.822,-31.500,-16.500,-13.500,-34.500
0.823,-32.500,-16.500,-12.500,-31.000
0.824,-33.500,-16.500,-11.000,-27.500
0.825,-34.500,-16.000,-10.000,-24.500
0.826,-35.000,-16.000,-9.000,-21.500
0.827,-36.000,-16.000,-9.500,-19.000
0.828,-36.500,-16.000,-11.000,-16.500
0.829,-37.000,-16.000,-12.500,-15.000
0.830,-37.000,-15.500,-12.500,-13.000
0.831,-37.000,-15.000,-11.000,-11.500
0.832,-36.000,-14.500,-8.000,-10.000
0.833,-34.500,-13.500,-5.000,-9.000
0.834,-32.500,-12.000,-3.000,-8.500
0.835,-30.000,-10.000,-2.500,-8.000
0.836,-27.000,-7.500,-2.500,-7.500
0.837,-23.000,-5.000,-3.000,-7.000
0.838,-19.500,-2.000,-3.500,-7.000
0.839,-15.500,1.000,-4.000,-7.500
0.840,-12.000,3.500,-5.000,-8.000
0.841,-8.500,6.000,-5.500,-9.500
0.842,-5.500,8.500,-5.000,-10.500
0.843,-2.500,10.500,-3.500,-12.000
0.844,0.500,12.500,-2.500,-13.000
0.845,2.500,14.000,-3.000,-13.500
0.846,4.000,15.000,-3.500,-14.500
0.847,5.000,14.500,-3.000,-16.000
0.848,4.500,14.000,-1.000,-17.500
0.849,3.500,12.000,2.000,-19.500
0.850,2.000,10.000,4.000,-22.000
0.851,0.500,8.000,5.000,-24.000
0.852,-1.500,6.500,4.500,-26.000
0.853,-3.000,5.000,3.500,-28.000
0.854,-4.000,3.500,2.000,-29.500
0.855,-5.000,3.000,1.500,-30.500
0.856,-5.500,2.000,1.500,-32.000
0.857,-6.000,1.500,2.000,-33.000
0.858,-6.500,1.000,1.500,-34.000
0.859,-7.000,0.500,1.000,-34.500
0.860,-7.500,0.500,0.500,-35.000
0.861,-8.000,0.000,0.000,-35.500
0.862,-8.000,-0.500,0.500,-36.000
0.863,-8.500,-1.000,1.500,-36.000
0.864,-8.500,-1.000,3.000,-36.500
0.865,-9.000,-1.500,5.000,-36.500
0.866,-9.000,-1.500,6.500,-36.500
0.867,-9.500,-2.000,7.000,-37.000
0.868,-9.500,-2.500,6.500,-37.500
0.869,-10.000,-3.000,5.500,-37.500
0.870,-10.000,-3.500,3.500,-38.000
0.871,-10.000,-3.500,2.500,-38.500
0.872,-10.000,-3.500,2.000,-38.500
0.873,-10.000,-3.500,2.500,-38.500
0.874,-9.500,-3.000,2.500,-38.500
0.875,-9.000,-2.500,2.000,-38.500
0.876,-9.000,-2.000,1.000,-38.500
0.877,-9.000,-1.500,0.000,-38.500
0.878,-8.500,-1.000,-1.500,-38.000
0.879,-8.500,-1.000,-3.500,-38.000
0.880,-8.500,-0.500,-5.000,-38.000
0.881,-8.500,-0.500,-5.000,-38.000
0.882,-8.500,0.000,-3.500,-38.000
0.883,-8.500,-0.500,-1.500,-38.500
0.884,-9.000,-0.500,0.500,-38.500
0.885,-9.000,-1.000,0.500,-39.000
0.886,-9.000,-1.500,-0.500,-39.500
0.887,-9.500,-2.000,-1.500,-39.500
0.888,-9.500,-2.500,-2.000,-40.000
0.889,-9.500,-3.000,-1.500,-40.000
0.890,-10.000,-3.500,0.000,-40.000
0.891,-10.000,-4.000,2.000,-40.000
0.892,-10.000,-4.000,3.000,-40.000
0.893,-10.000,-4.000,3.500,-40.000
0.894,-9.500,-4.000,3.500,-39.500
0.895,-9.500,-3.500,4.000,-40.000
0.896,-9.000,-3.000,5.000,-40.000
0.897,-8.500,-2.500,5.500,-40.000
0.898,-8.000,-2.000,5.000,-40.000
0.899,-8.000,-1.500,4.500,-40.000
0.900,-7.500,-1.000,4.000,-39.500
0.901,-7.500,-0.500,3.500,-39.000
0.902,-7.000,0.000,2.500,-39.000
0.903,-7.000,0.500,2.000,-38.500
0.904,-7.000,0.500,2.500,-38.500
0.905,-7.500,-0.500,4.000,-38.500
0.906,-8.000,-1.000,6.000,-39.000
0.907,-8.500,-2.000,6.500,-39.000
0.908,-9.000,-2.500,6.000,-39.000
0.909,-10.000,-3.500,5.000,-39.500
0.910,-10.000,-4.000,5.000,-39.500
0.911,-10.500,-4.500,6.000,-40.000
0.912,-11.000,-4.500,6.500,-40.000
0.913,-11.500,-5.000,7.500,-40.500
0.914,-12.000,-5.500,8.500,-41.000
0.915,-12.500,-6.000,8.500,-41.500
0.916,-13.000,-6.500,8.500,-42.500
0.917,-13.500,-7.500,8.500,-43.000
0.918,-14.000,-8.000,9.500,-44.000
0.919,-15.000,-8.000,10.500,-44.500
0.920,-15.000,-8.500,11.500,-45.000
0.921,-15.500,-8.500,11.500,-45.500
0.922,-15.500,-8.500,11.000,-45.500
0.923,-15.500,-8.500,9.500,-45.500
0.924,-15.500,-8.500,7.500,-45.500
0.925,-15.000,-8.000,5.500,-45.000
0.926,-14.500,-7.500,5.000,-44.500
0.927,-14.000,-7.000,4.500,-43.500
0.928,-14.000,-7.000,3.000,-43.000
0.929,-13.500,-6.500,1.500,-41.500
0.930,-13.000,-5.500,-1.000,-40.500
0.931,-12.500,-5.000,-3.000,-39.500
0.932,-11.500,-4.000,-5.500,-38.500
0.933,-10.500,-3.500,-7.500,-38.000
0.934,-10.000,-2.500,-8.000,-37.500
0.935,-9.000,-2.000,-8.000,-37.500
0.936,-9.000,-1.500,-7.000,-37.500
0.937,-8.500,-1.500,-6.500,-37.500
0.938,-8.500,-1.000,-7.000,-38.000
0.939,-8.500,-1.000,-8.500,-38.000
0.940,-8.500,-1.000,-10.500,-38.000
0.941,-8.500,-1.000,-12.000,-38.000
0.942,-8.500,-1.000,-11.500,-38.000
0.943,-9.000,-1.000,-9.000,-38.000
0.944,-9.000,-1.000,-5.500,-38.000
0.945,-9.500,-1.000,-3.000,-38.500
0.946,-9.500,-1.500,-1.500,-38.500
0.947,-10.000,-2.000,-2.000,-38.500
0.948,-10.500,-3.000,-2.000,-39.000
0.949,-10.500,-3.500,-1.000,-39.000
0.950,-11.000,-3.500,2.500,-39.000
0.951,-11.000,-3.500,6.000,-38.500
0.952,-10.500,-3.500,8.000,-38.000
0.953,-10.500,-3.000,8.500,-38.000
0.954,-10.000,-3.000,6.500,-37.500
0.955,-10.000,-2.500,4.000,-37.500
0.956,-10.000,-2.000,1.500,-37.500
0.957,-10.000,-2.000,1.000,-37.500
0.958,-9.500,-1.500,1.000,-37.000
0.959,-9.500,-1.500,2.000,-37.000
0.960,-9.500,-1.500,2.500,-37.000
0.961,-9.500,-1.000,3.000,-37.000
0.962,-10.000,-1.000,4.000,-37.000
0.963,-10.000,-1.000,5.000,-37.000
0.964,-10.000,-1.000,5.000,-37.000
0.965,-10.500,-1.000,4.000,-37.000
0.966,-10.500,-1.500,3.000,-37.000
0.967,-11.000,-1.500,2.000,-37.000
0.968,-11.000,-2.000,1.500,-37.000
0.969,-11.000,-2.500,1.500,-37.000
0.970,-11.000,-2.500,1.000,-36.500
0.971,-10.500,-2.500,0.500,-36.500
0.972,-10.500,-2.500,-0.500,-36.000
0.973,-10.500,-2.500,-1.000,-36.000
0.974,-10.000,-2.000,0.000,-36.000
0.975,-10.000,-2.000,1.500,-36.000
0.976,-10.500,-2.000,4.000,-35.500
0.977,-10.500,-2.000,7.000,-35.500
0.978,-10.500,-1.500,9.500,-35.500
0.979,-10.500,-1.500,9.500,-35.500
0.980,-10.500,-1.000,8.000,-36.000
0.981,-10.500,-1.000,5.000,-36.000
0.982,-10.500,-1.000,3.000,-36.500
0.983,-10.500,-1.000,2.000,-36.500
0.984,-10.500,-1.500,1.000,-37.000
0.985,-11.000,-2.000,0.500,-37.500
0.986,-11.500,-2.500,0.500,-38.000
0.987,-12.000,-2.500,1.500,-38.000
0.988,-12.500,-3.000,3.500,-38.500
0.989,-13.000,-3.500,6.000,-38.500
0.990,-13.000,-3.500,9.000,-38.500
0.991,-13.000,-4.000,10.500,-38.000
0.992,-13.000,-4.000,11.500,-38.000
0.993,-13.000,-4.000,12.000,-38.000
0.994,-13.000,-4.000,12.500,-38.000
0.995,-13.000,-4.000,13.000,-37.500
0.996,-13.000,-3.500,13.500,-37.500
0.997,-13.000,-3.500,12.500,-37.000
0.998,-12.500,-3.000,11.500,-37.000
0.999,-12.500,-3.000,10.500,-36.500
1.000,-12.500,-2.500,8.500,-36.500
1.001,-13.000,-2.500,5.500,-36.500
1.002,-13.000,-2.500,1.000,-37.000
1.003,-13.500,-2.500,-3.500,-37.000
1.004,-13.500,-3.000,-7.000,-37.500
1.005,-14.000,-3.000,-9.000,-38.000
1.006,-14.500,-3.500,-9.000,-38.000
1.007,-14.500,-3.500,-8.500,-38.000
1.008,-14.500,-4.000,-8.000,-38.000
1.009,-14.500,-4.500,-7.000,-38.000
1.010,-14.500,-4.500,-6.500,-38.000
1.011,-15.000,-5.000,-6.500,-38.500
1.012,-15.000,-5.500,-6.500,-38.500
1.013,-15.000,-5.500,-6.000,-38.500
1.014,-15.000,-5.500,-4.000,-38.500
1.015,-15.000,-5.000,-1.000,-38.000
1.016,-15.000,-4.500,2.500,-38.000
1.017,-14.500,-4.000,5.000,-38.000
1.018,-14.500,-3.500,6.500,-38.000
1.019,-14.500,-3.500,7.000,-38.000
1.020,-14.500,-3.500,6.000,-37.500
1.021,-14.500,-3.500,5.000,-38.000
1.022,-14.500,-3.500,3.000,-38.000
1.023,-15.000,-3.500,0.500,-38.000
1.024,-15.000,-4.000,-2.000,-38.000
1.025,-16.000,-4.500,-3.500,-38.000
1.026,-16.500,-5.000,-4.500,-38.000
1.027,-17.000,-6.000,-4.000,-37.500
1.028,-17.500,-6.500,-3.500,-37.500
1.029,-18.000,-7.000,-2.500,-37.500
1.030,-18.500,-7.500,-2.500,-37.500
1.031,-18.500,-8.000,-3.000,-37.500
1.032,-19.000,-8.000,-4.000,-37.500
1.033,-18.500,-8.000,-5.500,-37.500
1.034,-18.500,-7.500,-7.000,-37.500
1.035,-18.000,-7.000,-8.500,-37.500
1.036,-17.500,-7.000,-9.000,-37.500
1.037,-17.500,-6.500,-9.000,-37.000
1.038,-17.000,-6.500,-8.500,-36.500
1.039,-17.000,-6.000,-8.000,-36.500
1.040,-17.500,-6.000,-8.000,-36.000
1.041,-17.500,-6.000,-7.500,-36.000
1.042,-17.500,-6.000,-7.500,-35.500
1.043,-18.000,-6.500,-7.000,-36.000
1.044,-18.500,-6.500,-5.500,-36.000
1.045,-19.000,-7.000,-4.000,-36.000
1.046,-19.500,-7.500,-3.000,-36.500
1.047,-20.000,-8.000,-3.000,-36.500
1.048,-20.500,-8.500,-4.000,-36.500
1.049,-20.500,-9.000,-5.500,-36.000
1.050,-21.000,-9.000,-7.000,-36.000
1.051,-21.000,-9.000,-8.000,-36.000
1.052,-21.000,-9.500,-9.000,-36.000
1.053,-21.000,-9.000,-9.500,-36.000
1.054,-20.500,-9.000,-10.000,-36.000
1.055,-20.500,-8.500,-10.000,-36.000
1.056,-20.000,-8.000,-10.000,-35.500
1.057,-20.000,-7.500,-10.000,-35.500
1.058,-19.500,-7.500,-9.500,-35.500
1.059,-19.500,-7.000,-9.500,-35.500
1.060,-19.500,-7.000,-10.000,-35.500
1.061,-19.500,-7.000,-10.500,-36.000
1.062,-19.500,-7.000,-10.500,-36.000
1.063,-20.000,-7.000,-9.000,-36.000
1.064,-20.000,-7.000,-7.000,-36.000
1.065,-20.500,-7.500,-5.500,-36.000
1.066,-21.000,-8.000,-4.000,-36.000
1.067,-21.500,-8.500,-3.000,-36.500
1.068,-22.000,-9.000,-3.000,-36.500
1.069,-22.500,-9.500,-3.000,-36.500
1.070,-22.500,-10.000,-3.500,-37.000
1.071,-22.500,-10.500,-3.500,-37.000
1.072,-22.500,-10.500,-4.000,-37.500
1.073,-22.500,-10.500,-4.000,-38.000
1.074,-22.500,-10.500,-4.000,-39.000
1.075,-22.500,-10.000,-4.500,-39.500
1.076,-22.500,-10.000,-4.500,-39.500
1.077,-22.000,-9.500,-4.000,-39.500
1.078,-22.000,-9.000,-2.500,-39.500
1.079,-21.500,-9.000,-0.500,-39.500
1.080,-21.500,-9.000,1.000,-40.000
1.081,-21.500,-9.000,1.000,-40.000
1.082,-21.000,-9.000,0.500,-40.500
1.083,-21.000,-9.000,-1.500,-41.000
1.084,-21.500,-9.000,-3.500,-41.500
1.085,-21.500,-9.500,-5.500,-41.500
1.086,-22.000,-9.500,-7.000,-42.000
1.087,-22.500,-10.000,-7.500,-42.000
1.088,-22.500,-10.500,-7.000,-42.000
1.089,-22.500,-10.500,-6.500,-42.000
1.090,-22.500,-10.500,-6.000,-42.000
1.091,-22.500,-10.500,-5.000,-42.000
1.092,-22.000,-10.000,-4.000,-42.000
1.093,-22.000,-10.000,-3.000,-42.000
1.094,-21.500,-9.500,-1.000,-42.500
1.095,-21.000,-9.000,1.500,-42.500
1.096,-20.500,-8.500,3.500,-42.500
1.097,-20.000,-8.000,4.500,-42.000
1.098,-19.500,-8.000,4.500,-42.000
1.099,-19.000,-7.500,3.500,-42.000
1.100,-19.000,-7.000,1.500,-42.000
1.101,-19.000,-6.500,-0.500,-42.000
1.102,-18.500,-6.500,-2.500,-42.000
1.103,-18.500,-6.000,-5.000,-42.500
1.104,-18.500,-6.000,-7.000,-42.500
1.105,-18.500,-6.000,-8.500,-43.000
1.106,-18.500,-6.000,-9.500,-43.000
1.107,-18.500,-6.500,-10.000,-43.000
1.108,-18.500,-6.500,-10.500,-43.000
1.109,-18.500,-6.500,-10.000,-43.000
1.110,-18.000,-7.000,-9.000,-43.000
1.111,-18.000,-7.000,-7.000,-43.000
1.112,-18.000,-7.000,-4.500,-43.000
1.113,-18.000,-7.000,-1.500,-43.500
1.114,-18.000,-6.500,1.000,-43.500
1.115,-17.500,-6.500,2.000,-44.000
1.116,-17.000,-6.000,1.500,-44.000
1.117,-16.500,-6.000,0.500,-44.000
1.118,-16.500,-5.500,-1.500,-44.000
1.119,-16.000,-5.000,-3.000,-43.500
1.120,-16.000,-5.000,-4.000,-43.500
1.121,-16.000,-4.500,-4.500,-43.500
1.122,-15.500,-5.000,-4.500,-43.500
1.123,-16.000,-5.000,-3.500,-43.500
1.124,-16.000,-5.000,-2.500,-43.500
1.125,-16.500,-5.500,-2.000,-43.500
1.126,-16.500,-6.000,-2.500,-44.000
1.127,-17.000,-6.000,-3.000,-44.000
1.128,-17.000,-6.500,-3.500,-44.000
1.129,-17.000,-6.500,-2.500,-44.000
1.130,-17.500,-6.500,-1.500,-44.000
1.131,-17.500,-6.500,-0.500,-43.500
1.132,-17.500,-6.500,0.000,-43.000
1.133,-18.000,-6.500,-0.500,-43.000
1.134,-17.500,-6.500,-0.500,-43.000
1.135,-17.500,-6.500,-1.000,-43.000
1.136,-17.000,-6.000,-1.000,-42.500
1.137,-17.000,-5.500,-1.000,-42.500
1.138,-16.500,-5.500,-0.500,-42.500
1.139,-16.000,-5.000,0.000,-42.500
1.140,-15.500,-4.500,0.500,-42.500
1.141,-15.500,-4.000,1.500,-42.500
1.142,-15.500,-4.000,2.000,-42.000
1.143,-15.500,-4.500,2.500,-42.500
1.144,-15.500,-4.500,2.500,-42.500
1.145,-16.000,-5.000,2.500,-42.500
1.146,-16.000,-5.000,2.000,-43.000
1.147,-16.500,-5.500,2.500,-43.000
1.148,-16.500,-5.500,4.000,-43.500
1.149,-17.000,-6.000,7.000,-43.500
1.150,-17.000,-6.000,10.000,-43.500
1.151,-17.000,-6.000,12.000,-43.500
1.152,-17.000,-6.000,11.500,-43.500
1.153,-17.000,-6.000,10.500,-43.000
1.154,-16.500,-6.000,9.000,-43.000
1.155,-16.000,-5.500,7.500,-42.500
1.156,-16.000,-5.000,6.000,-42.500
1.157,-16.000,-5.000,3.500,-42.500
1.158,-15.500,-4.500,1.500,-42.000
1.159,-15.500,-4.500,-0.500,-42.000
1.160,-15.500,-4.000,-1.500,-42.000
1.161,-16.000,-4.500,-3.000,-42.000
1.162,-16.500,-4.500,-4.000,-42.500
1.163,-17.000,-5.000,-5.000,-42.500
1.164,-17.500,-5.500,-4.500,-43.000
1.165,-18.000,-5.500,-3.000,-43.500
1.166,-18.500,-6.500,-2.000,-44.000
1.167,-19.000,-7.000,-1.500,-44.500
1.168,-19.500,-7.500,-2.000,-45.000
1.169,-20.000,-8.000,-3.500,-45.000
1.170,-20.000,-8.500,-5.000,-45.000
1.171,-19.500,-8.500,-6.500,-45.000
1.172,-19.500,-9.000,-7.500,-44.500
1.173,-19.000,-9.000,-9.000,-44.500
1.174,-19.000,-8.500,-10.000,-44.500
1.175,-18.500,-8.500,-10.000,-44.000
1.176,-18.500,-8.000,-9.500,-44.000
1.177,-18.000,-7.500,-8.000,-43.500
1.178,-18.000,-7.000,-6.500,-43.500
1.179,-17.500,-7.000,-5.000,-43.500
1.180,-17.000,-6.500,-3.500,-43.000
1.181,-17.000,-6.500,-2.500,-43.000
1.182,-17.000,-6.500,-2.000,-43.000
1.183,-17.000,-6.500,-2.000,-43.000
1.184,-17.000,-6.500,-3.000,-43.500
1.185,-17.500,-7.000,-3.500,-44.000
1.186,-18.000,-7.500,-5.000,-44.000
1.187,-18.500,-8.000,-5.500,-44.500
1.188,-19.000,-9.000,-5.500,-44.500
1.189,-19.500,-9.000,-5.000,-45.000
1.190,-19.500,-9.000,-5.000,-44.500
1.191,-19.500,-9.500,-5.500,-44.500
1.192,-19.500,-9.000,-7.000,-44.500
1.193,-19.500,-9.000,-9.000,-44.500
1.194,-19.000,-9.000,-11.000,-44.500
1.195,-19.000,-8.500,-13.000,-44.500
1.196,-18.500,-8.500,-14.000,-44.500
1.197,-18.500,-8.000,-13.500,-44.500
1.198,-18.000,-7.500,-12.500,-44.500
1.199,-18.000,-7.000,-11.000,-44.500
1.200,-17.500,-7.000,-9.500,-44.500
1.201,-17.000,-6.500,-8.000,-44.500
1.202,-17.000,-6.500,-6.500,-44.500
1.203,-16.500,-6.500,-5.500,-44.500
1.204,-17.000,-6.500,-5.500,-44.500
1.205,-17.000,-6.500,-6.500,-44.500
1.206,-17.000,-6.500,-7.500,-44.500
1.207,-17.500,-7.000,-8.000,-44.500
1.208,-18.000,-7.000,-8.500,-44.500
1.209,-18.500,-7.500,-9.000,-44.500
1.210,-18.500,-7.500,-10.000,-44.500
1.211,-18.500,-7.000,-11.000,-44.000
1.212,-18.500,-7.000,-11.500,-44.000
1.213,-18.500,-6.500,-13.000,-43.500
1.214,-18.500,-6.500,-14.500,-43.500
1.215,-18.500,-6.000,-15.500,-43.500
1.216,-18.000,-6.000,-15.000,-43.500
1.217,-18.000,-6.000,-14.000,-43.500
1.218,-17.500,-5.500,-12.500,-43.500
1.219,-17.500,-5.000,-11.500,-43.500
1.220,-17.000,-5.000,-11.000,-43.500
1.221,-17.000,-4.500,-10.500,-43.500
1.222,-17.500,-4.500,-10.500,-43.500
1.223,-17.500,-4.500,-10.500,-43.500
1.224,-18.000,-5.000,-11.500,-43.500
1.225,-18.500,-5.000,-13.500,-44.000
1.226,-19.000,-5.500,-15.500,-44.000
1.227,-19.000,-6.000,-17.000,-44.500
1.228,-19.000,-6.500,-16.500,-45.000
1.229,-19.500,-6.500,-15.000,-45.000
1.230,-19.500,-7.000,-13.000,-45.000
1.231,-19.500,-7.000,-11.000,-45.000
1.232,-19.500,-7.000,-9.500,-45.000
1.233,-19.500,-7.000,-9.000,-45.000
1.234,-19.500,-6.500,-9.000,-45.000
1.235,-20.000,-6.500,-10.500,-45.000
1.236,-20.000,-6.000,-12.500,-45.000
1.237,-20.000,-6.000,-14.500,-45.000
1.238,-19.500,-5.500,-15.500,-45.000
1.239,-19.500,-5.500,-16.000,-45.000
1.240,-19.500,-5.500,-16.500,-45.000
1.241,-19.500,-5.500,-17.000,-45.000
1.242,-19.500,-5.500,-18.000,-45.000
1.243,-20.000,-5.500,-19.000,-45.500
1.244,-20.000,-6.000,-19.000,-45.500
1.245,-20.000,-6.500,-18.000,-46.000
1.246,-20.500,-7.000,-16.500,-46.500
1.247,-20.500,-7.500,-14.500,-46.500
1.248,-21.000,-8.000,-13.500,-47.000
1.249,-21.500,-8.500,-12.500,-47.000
1.250,-21.500,-9.000,-12.500,-47.000
1.251,-22.000,-9.000,-11.500,-47.500
1.252,-22.000,-9.000,-10.500,-47.500
1.253,-21.500,-8.500,-9.000,-47.500
1.254,-21.500,-8.500,-6.500,-47.000
1.255,-21.000,-8.000,-4.000,-47.000
1.256,-20.500,-7.500,-1.500,-46.500
1.257,-20.500,-7.500,0.500,-46.500
1.258,-20.000,-7.000,2.000,-46.500
1.259,-20.000,-7.000,2.500,-46.500
1.260,-20.500,-7.000,1.500,-46.500
1.261,-20.500,-6.500,-0.500,-46.500
1.262,-20.500,-6.500,-3.000,-47.000
1.263,-20.500,-6.500,-4.500,-47.000
1.264,-21.000,-6.500,-5.500,-47.500
1.265,-21.000,-7.000,-5.500,-47.500
1.266,-21.500,-7.500,-6.000,-48.000
1.267,-22.000,-7.500,-6.500,-48.500
1.268,-22.500,-8.000,-6.000,-48.500
1.269,-23.500,-8.500,-5.000,-48.500
1.270,-24.000,-9.000,-3.500,-48.500
1.271,-24.000,-9.500,-3.500,-48.500
1.272,-24.500,-9.500,-4.500,-48.500
1.273,-24.500,-9.500,-6.500,-48.500
1.274,-24.500,-9.500,-8.500,-48.500
1.275,-24.000,-9.000,-10.000,-48.500
1.276,-24.000,-9.000,-11.000,-48.500
1.277,-24.000,-8.500,-11.500,-49.000
1.278,-23.500,-8.500,-11.500,-49.000
1.279,-23.000,-8.000,-11.000,-49.000
1.280,-23.000,-8.000,-10.500,-49.000
1.281,-23.000,-7.500,-10.500,-49.000
1.282,-23.000,-7.500,-10.500,-49.000
1.283,-23.000,-7.500,-11.000,-49.000
1.284,-23.500,-8.000,-10.500,-48.500
1.285,-24.000,-8.500,-9.000,-48.500
1.286,-24.500,-9.000,-7.000,-48.500
1.287,-25.000,-9.500,-5.000,-48.500
1.288,-25.000,-10.000,-3.500,-48.500
1.289,-25.500,-10.500,-3.000,-49.000
1.290,-25.500,-10.500,-2.000,-49.000
1.291,-25.500,-11.000,-0.500,-49.000
1.292,-25.500,-11.000,2.000,-49.000
1.293,-25.500,-10.500,4.500,-49.000
1.294,-25.000,-10.500,6.000,-48.500
1.295,-25.000,-10.000,6.500,-48.500
1.296,-24.500,-9.500,7.500,-48.500
1.297,-24.500,-9.000,9.500,-48.500
1.298,-24.000,-8.500,11.500,-48.000
1.299,-23.500,-8.000,13.000,-48.000
1.300,-23.500,-7.500,13.000,-48.000
1.301,-23.000,-7.500,12.000,-48.500
1.302,-23.000,-7.500,10.500,-48.500
1.303,-23.500,-7.500,9.500,-48.500
1.304,-23.500,-8.000,10.000,-49.000
1.305,-24.000,-8.500,11.000,-49.000
1.306,-24.500,-9.000,12.000,-49.000
1.307,-25.500,-9.500,12.500,-49.000
1.308,-25.500,-10.000,12.000,-49.000
1.309,-26.000,-10.500,11.000,-49.000
1.310,-26.000,-11.000,9.000,-49.000
1.311,-26.000,-11.500,7.000,-49.000
1.312,-26.000,-11.500,6.000,-49.000
1.313,-26.000,-11.500,5.500,-49.000
1.314,-26.000,-11.500,5.000,-49.500
1.315,-26.000,-11.500,4.500,-49.500
1.316,-26.000,-11.500,4.000,-50.000
1.317,-26.000,-11.000,5.000,-50.500
1.318,-25.500,-11.000,6.500,-50.500
1.319,-25.500,-11.000,8.500,-50.500
1.320,-26.000,-11.000,9.000,-50.500
1.321,-26.000,-11.000,8.000,-50.500
1.322,-26.500,-11.000,6.500,-50.000
1.323,-26.500,-11.000,4.500,-50.000
1.324,-27.000,-11.500,3.000,-50.000
1.325,-27.000,-12.000,2.000,-50.500
1.326,-27.000,-12.500,1.000,-50.500
1.327,-27.500,-13.000,1.000,-51.000
1.328,-28.000,-13.500,1.000,-51.000
1.329,-28.000,-14.000,2.000,-51.000
1.330,-28.500,-14.000,2.500,-51.000
1.331,-28.500,-14.000,3.000,-51.000
1.332,-28.500,-13.500,4.000,-51.000
1.333,-28.000,-13.500,4.500,-51.500
1.334,-28.000,-13.500,5.000,-51.500
1.335,-28.000,-13.000,4.500,-51.500
1.336,-28.000,-13.000,2.500,-51.000
1.337,-28.000,-12.500,0.500,-51.000
1.338,-28.000,-12.000,-1.500,-51.000
1.339,-28.000,-12.000,-2.500,-50.500
1.340,-28.000,-12.000,-2.500,-50.500
1.341,-28.500,-12.000,-1.500,-50.500
1.342,-28.500,-12.000,0.500,-50.500
1.343,-28.500,-12.000,3.000,-50.500
1.344,-29.000,-12.500,5.000,-51.000
1.345,-29.500,-13.000,6.500,-51.000
1.346,-30.000,-13.500,7.500,-51.500
1.347,-30.500,-14.500,7.500,-51.500
1.348,-31.000,-15.000,6.500,-51.500
1.349,-31.500,-15.500,5.000,-51.500
1.350,-31.500,-15.500,3.500,-51.500
1.351,-31.500,-16.000,3.000,-51.500
1.352,-31.500,-16.000,2.500,-51.500
1.353,-31.500,-16.000,2.500,-51.000
1.354,-31.500,-16.000,2.000,-51.000
1.355,-31.000,-15.500,1.500,-51.000
1.356,-30.500,-15.000,0.500,-51.000
1.357,-30.000,-14.500,-0.500,-51.000
1.358,-30.000,-14.000,-2.000,-51.000
1.359,-29.500,-14.000,-3.000,-51.000
1.360,-29.500,-14.000,-3.500,-51.000
1.361,-29.500,-14.000,-3.000,-51.000
1.362,-30.000,-14.500,-1.500,-51.500
1.363,-30.500,-15.000,0.500,-52.000
1.364,-31.500,-16.000,1.000,-52.500
1.365,-32.500,-17.000,1.000,-53.000
1.366,-33.500,-18.000,1.000,-54.000
1.367,-34.500,-19.500,1.000,-55.000
1.368,-35.500,-20.500,2.000,-56.500
1.369,-36.500,-21.500,3.000,-57.500
1.370,-37.500,-22.500,4.000,-58.000
1.371,-38.500,-23.500,5.000,-58.500
1.372,-39.000,-23.500,4.500,-59.000
1.373,-39.000,-23.500,3.500,-59.000
1.374,-39.000,-23.500,2.000,-58.500
1.375,-39.000,-23.000,1.000,-58.500
1.376,-38.000,-22.000,1.000,-57.500
1.377,-37.500,-21.500,1.000,-57.000
1.378,-36.500,-20.500,0.500,-56.000
1.379,-35.500,-19.500,-1.000,-55.500
1.380,-34.500,-18.500,-3.000,-54.500
1.381,-33.500,-17.500,-5.000,-53.500
1.382,-32.500,-16.500,-6.000,-52.500
1.383,-32.000,-15.500,-6.000,-52.000
1.384,-31.500,-15.500,-5.500,-51.500
1.385,-31.500,-15.500,-4.500,-52.000
1.386,-32.000,-15.500,-3.500,-52.000
1.387,-32.000,-16.000,-3.000,-52.500
1.388,-32.500,-17.000,-3.000,-52.500
1.389,-32.500,-17.500,-3.500,-53.000
1.390,-33.000,-17.500,-3.500,-53.000
1.391,-33.000,-18.000,-3.500,-53.000
1.392,-33.000,-18.500,-3.000,-53.000
1.393,-33.000,-18.500,-1.500,-53.000
1.394,-33.000,-18.500,-0.500,-53.000
1.395,-32.500,-18.500,1.000,-53.000
1.396,-32.500,-18.000,1.500,-53.000
1.397,-32.000,-17.500,2.000,-52.500
1.398,-31.500,-17.000,1.500,-52.500
1.399,-31.000,-16.500,0.000,-52.500
1.400,-31.000,-16.000,-2.000,-52.000
1.401,-31.000,-16.000,-3.500,-52.000
1.402,-31.000,-16.000,-4.500,-52.500
1.403,-31.500,-16.500,-5.000,-52.500
1.404,-32.000,-17.000,-5.000,-53.000
1.405,-32.000,-17.000,-5.000,-53.500
1.406,-32.500,-17.500,-5.000,-53.500
1.407,-33.000,-18.500,-5.000,-54.000
1.408,-33.500,-18.500,-4.500,-54.000
1.409,-33.500,-19.000,-4.000,-54.000
1.410,-34.000,-19.500,-3.500,-54.000
1.411,-34.000,-19.500,-3.500,-54.000
1.412,-34.000,-19.500,-3.000,-54.000
1.413,-33.500,-19.500,-2.500,-53.500
1.414,-33.500,-19.500,-1.500,-53.500
1.415,-33.000,-19.000,-0.500,-53.000
1.416,-32.500,-19.000,0.500,-53.000
1.417,-32.500,-18.500,0.500,-53.000
1.418,-32.000,-18.000,0.500,-52.500
1.419,-32.000,-18.000,0.500,-52.500
1.420,-31.500,-17.500,0.500,-52.000
1.421,-32.000,-17.500,0.500,-52.000
1.422,-32.000,-17.000,0.000,-51.500
1.423,-32.000,-17.000,-0.500,-51.500
1.424,-32.500,-17.500,-1.500,-51.500
1.425,-32.500,-17.500,-2.500,-51.500
1.426,-33.000,-18.000,-4.000,-52.000
1.427,-33.000,-18.500,-5.000,-52.000
1.428,-33.500,-19.000,-5.500,-52.000
1.429,-33.500,-19.500,-5.000,-52.000
1.430,-33.500,-19.500,-4.500,-52.000
1.431,-33.500,-19.500,-3.000,-52.000
1.432,-33.500,-19.500,-1.500,-52.000
1.433,-33.500,-19.000,-0.500,-52.000
1.434,-33.000,-19.000,-1.000,-52.000
1.435,-33.000,-19.000,-2.500,-52.000
1.436,-32.500,-19.000,-4.500,-52.000
1.437,-32.500,-18.500,-5.500,-52.500
1.438,-32.000,-18.500,-6.000,-52.500
1.439,-32.000,-18.000,-6.000,-52.500
1.440,-32.000,-18.000,-6.000,-52.500
1.441,-32.500,-18.000,-6.000,-52.500
1.442,-32.500,-18.000,-6.000,-52.500
1.443,-32.500,-18.500,-6.000,-53.000
1.444,-33.000,-19.000,-6.500,-53.500
1.445,-33.500,-19.500,-6.500,-54.000
1.446,-34.000,-20.500,-6.500,-54.500
1.447,-34.500,-21.000,-6.500,-55.500
1.448,-35.000,-22.000,-7.000,-56.000
1.449,-35.500,-23.000,-7.500,-57.000
1.450,-35.500,-24.000,-8.000,-58.000
1.451,-36.500,-24.500,-8.000,-59.000
1.452,-37.000,-25.500,-7.000,-60.500
1.453,-38.000,-26.000,-6.500,-61.500
1.454,-38.500,-26.500,-7.000,-63.000
1.455,-39.500,-27.500,-9.000,-64.000
1.456,-40.500,-28.000,-11.000,-65.000
1.457,-41.000,-28.500,-11.500,-65.500
1.458,-42.000,-29.000,-10.000,-66.000
1.459,-43.000,-29.500,-7.500,-66.500
1.460,-44.000,-30.500,-5.000,-67.000
1.461,-45.000,-31.500,-3.500,-67.000
1.462,-46.500,-32.500,-4.000,-67.000
1.463,-48.000,-33.500,-5.500,-66.500
1.464,-49.500,-34.500,-8.500,-66.000
1.465,-51.000,-35.500,-10.500,-65.000
1.466,-52.500,-36.500,-11.500,-63.500
1.467,-54.000,-37.500,-11.000,-61.500
1.468,-56.000,-38.000,-8.500,-59.000
1.469,-57.500,-38.500,-6.000,-55.500
1.470,-59.000,-39.000,-4.500,-52.000
1.471,-60.000,-39.000,-5.500,-48.000
1.472,-61.000,-38.500,-7.000,-44.500
1.473,-61.500,-38.500,-8.000,-41.000
1.474,-62.000,-38.000,-8.000,-37.500
1.475,-62.500,-37.500,-6.500,-35.000
1.476,-62.500,-37.000,-4.500,-32.500
1.477,-63.000,-36.500,-3.000,-30.500
1.478,-62.500,-35.500,-1.500,-28.500
1.479,-62.500,-35.000,0.000,-27.000
1.480,-61.500,-34.000,2.000,-25.500
1.481,-60.500,-32.500,3.000,-24.500
1.482,-59.000,-31.000,4.000,-23.500
1.483,-57.000,-29.500,4.000,-23.000
1.484,-54.500,-27.500,3.000,-23.000
1.485,-52.000,-26.000,1.000,-22.500
1.486,-49.000,-24.000,-0.500,-22.500
1.487,-46.000,-22.000,-2.000,-23.000
1.488,-42.500,-19.500,-3.500,-24.000
1.489,-39.000,-17.500,-5.000,-25.000
1.490,-35.500,-15.000,-7.000,-26.000
1.491,-32.000,-13.000,-8.500,-27.000
1.492,-28.500,-10.500,-9.500,-28.000
1.493,-25.500,-8.500,-10.500,-28.500
1.494,-23.000,-6.500,-11.000,-29.500
1.495,-21.500,-5.500,-11.000,-30.500
1.496,-21.000,-5.500,-11.000,-32.500
1.497,-21.000,-6.000,-10.000,-34.500
1.498,-22.000,-7.500,-9.000,-36.500
1.499,-23.500,-8.500,-7.500,-38.500
1.500,-25.000,-10.000,-6.000,-40.500
1.501,-27.000,-11.500,-4.500,-42.500
1.502,-28.000,-12.500,-3.000,-44.500
1.503,-29.500,-14.000,-1.500,-46.000
1.504,-31.000,-15.000,-1.000,-47.000
1.505,-32.500,-16.500,-2.500,-48.500
1.506,-33.500,-17.500,-4.500,-49.500
1.507,-34.500,-18.500,-6.500,-50.500
1.508,-35.500,-19.500,-7.500,-51.000
1.509,-36.000,-20.000,-8.000,-51.500
1.510,-36.000,-20.500,-7.500,-51.500
1.511,-36.000,-21.000,-6.000,-52.000
1.512,-36.000,-21.000,-3.500,-52.500
1.513,-36.000,-21.000,-1.500,-52.500
1.514,-36.000,-21.000,-1.500,-52.500
1.515,-35.500,-21.000,-3.000,-52.500
1.516,-35.500,-20.500,-5.000,-52.500
1.517,-35.500,-20.500,-6.500,-53.000
1.518,-35.500,-20.500,-6.500,-53.000
1.519,-35.500,-20.500,-6.500,-53.000
1.520,-36.000,-20.500,-6.500,-53.000
1.521,-36.000,-20.000,-7.000,-53.000
1.522,-36.000,-20.000,-7.500,-53.500
1.523,-36.000,-20.000,-8.500,-54.000
1.524,-36.500,-20.000,-8.000,-54.000
1.525,-36.500,-20.000,-7.000,-54.500
1.526,-37.000,-20.500,-5.500,-54.500
1.527,-37.500,-21.000,-4.000,-54.500
1.528,-38.000,-21.500,-4.000,-54.500
1.529,-38.000,-22.000,-4.500,-54.500
1.530,-38.500,-22.500,-5.000,-54.500
1.531,-38.500,-23.000,-5.500,-54.500
1.532,-38.000,-23.000,-5.500,-54.500
1.533,-38.000,-23.000,-5.500,-54.000
1.534,-38.000,-22.500,-5.500,-54.000
1.535,-37.500,-22.500,-6.500,-54.000
1.536,-37.500,-22.000,-8.500,-53.500
1.537,-37.000,-21.500,-9.500,-53.500
1.538,-36.500,-21.000,-9.000,-53.500
1.539,-36.000,-20.500,-8.000,-53.500
1.540,-36.000,-20.000,-7.000,-53.500
1.541,-35.500,-20.000,-7.500,-53.500
1.542,-35.500,-19.500,-8.500,-53.500
1.543,-35.500,-19.500,-10.500,-53.500
1.544,-35.500,-20.000,-12.000,-53.500
1.545,-35.500,-20.000,-13.000,-53.500
1.546,-36.000,-20.500,-13.000,-53.500
1.547,-36.000,-21.500,-12.000,-53.000
1.548,-36.500,-22.000,-10.000,-53.000
1.549,-37.000,-22.500,-7.000,-53.500
1.550,-37.000,-23.000,-4.500,-53.500
1.551,-37.000,-23.000,-2.000,-53.500
1.552,-37.000,-23.000,-0.500,-53.000
1.553,-37.000,-23.000,-0.500,-53.000
1.554,-36.500,-22.500,-2.000,-53.000
1.555,-36.500,-22.000,-3.000,-52.500
1.556,-36.000,-21.500,-3.500,-52.500
1.557,-36.000,-21.000,-3.000,-52.500
1.558,-35.500,-21.000,-3.000,-52.000
1.559,-35.000,-20.500,-3.500,-52.000
1.560,-35.000,-20.500,-3.000,-52.000
1.561,-35.000,-20.500,-1.500,-52.000
1.562,-35.000,-20.500,0.500,-52.000
1.563,-35.000,-20.500,2.000,-52.500
1.564,-35.500,-20.500,3.000,-52.500
1.565,-36.000,-21.000,3.500,-52.500
1.566,-36.500,-21.500,3.000,-52.500
1.567,-37.000,-22.000,2.000,-53.000
1.568,-37.500,-22.500,1.000,-52.500
1.569,-38.000,-23.000,0.000,-52.500
1.570,-38.000,-23.500,-0.500,-52.500
1.571,-38.000,-23.500,-1.000,-52.500
1.572,-38.000,-23.500,-1.000,-52.000
1.573,-37.500,-23.500,-1.000,-52.000
1.574,-37.000,-23.000,-1.000,-51.500
1.575,-36.500,-22.500,-1.000,-51.500
1.576,-36.000,-22.000,-2.000,-51.500
1.577,-35.500,-21.500,-2.500,-51.000
1.578,-35.500,-21.000,-2.500,-51.000
1.579,-35.500,-21.000,-2.000,-51.000
1.580,-35.500,-20.500,-0.500,-51.000
1.581,-35.500,-20.500,1.500,-51.000
1.582,-35.500,-20.500,2.500,-51.000
1.583,-36.000,-20.500,3.000,-51.000
1.584,-36.500,-21.000,2.500,-51.000
1.585,-37.000,-21.000,2.000,-51.000
1.586,-37.500,-21.500,1.500,-51.000
1.587,-38.000,-22.000,0.500,-51.000
1.588,-38.500,-22.500,-1.000,-51.500
1.589,-39.000,-22.500,-2.500,-51.500
1.590,-39.000,-23.000,-3.500,-51.000
1.591,-39.000,-23.000,-3.500,-51.000
1.592,-39.000,-23.500,-3.500,-51.000
1.593,-39.000,-23.500,-2.500,-50.500
1.594,-38.500,-23.500,-1.500,-50.500
1.595,-38.500,-23.500,-1.000,-51.000
1.596,-38.000,-23.500,-1.000,-51.000
1.597,-38.000,-23.000,-1.500,-51.000
1.598,-37.500,-23.000,-2.500,-51.000
1.599,-37.500,-22.500,-3.500,-51.000
1.600,-37.000,-22.000,-3.500,-51.000
1.601,-37.000,-21.500,-2.000,-51.000
1.602,-37.000,-21.500,-1.000,-51.000
1.603,-37.000,-21.500,-1.000,-51.000
1.604,-37.000,-21.500,-3.000,-51.000
1.605,-37.500,-21.500,-5.500,-50.500
1.606,-38.000,-21.500,-8.000,-50.500
1.607,-38.500,-22.000,-10.000,-51.000
1.608,-38.500,-22.500,-11.000,-51.000
1.609,-39.000,-23.000,-11.500,-51.000
1.610,-39.000,-23.500,-11.000,-51.000
1.611,-39.000,-23.500,-10.500,-51.000
1.612,-39.000,-23.500,-11.000,-51.000
1.613,-39.000,-24.000,-12.000,-51.000
1.614,-39.000,-24.000,-12.500,-51.000
1.615,-38.500,-24.000,-12.000,-51.000
1.616,-38.000,-23.500,-10.500,-51.000
1.617,-37.500,-23.500,-9.000,-51.000
1.618,-37.500,-23.000,-8.500,-51.000
1.619,-37.500,-23.000,-9.500,-50.500
1.620,-37.000,-22.500,-11.000,-50.500
1.621,-37.500,-22.500,-12.500,-50.500
1.622,-37.500,-22.500,-14.000,-50.500
1.623,-38.000,-23.000,-14.500,-50.500
1.624,-38.000,-23.000,-15.000,-51.000
1.625,-38.500,-23.500,-14.500,-51.000
1.626,-39.000,-24.000,-12.500,-51.000
1.627,-39.000,-24.500,-10.500,-51.000
1.628,-39.500,-25.000,-8.000,-51.000
1.629,-40.000,-25.500,-5.500,-51.000
1.630,-40.500,-25.500,-3.500,-51.000
1.631,-40.500,-26.000,-3.000,-51.000
1.632,-40.500,-26.000,-3.500,-51.000
1.633,-40.500,-26.000,-5.000,-51.000
1.634,-40.500,-25.500,-6.500,-50.500
1.635,-40.500,-25.500,-8.500,-50.500
1.636,-40.000,-25.500,-10.000,-50.500
1.637,-40.000,-25.000,-11.000,-50.500
1.638,-40.000,-25.000,-11.500,-50.500
1.639,-40.000,-24.500,-11.500,-51.000
1.640,-40.000,-24.500,-10.500,-51.000
1.641,-40.000,-24.500,-9.500,-51.000
1.642,-40.000,-24.000,-8.500,-50.500
1.643,-40.000,-24.500,-7.000,-50.500
1.644,-40.000,-24.500,-4.500,-50.500
1.645,-40.000,-24.500,-2.500,-50.500
1.646,-40.500,-25.000,-0.500,-50.500
1.647,-40.500,-25.500,0.000,-50.500
1.648,-41.000,-26.000,-1.000,-51.000
1.649,-41.000,-26.000,-2.500,-51.000
1.650,-41.500,-26.500,-4.000,-51.000
1.651,-41.500,-27.000,-4.500,-51.000
1.652,-41.500,-27.500,-4.000,-51.000
1.653,-41.500,-27.500,-4.000,-50.500
1.654,-41.500,-27.500,-4.500,-50.500
1.655,-41.500,-27.500,-6.000,-50.500
1.656,-41.500,-27.000,-7.500,-50.500
1.657,-41.500,-27.000,-8.000,-50.500
1.658,-41.500,-26.500,-7.500,-50.500
1.659,-41.500,-26.500,-6.500,-50.500
1.660,-41.500,-26.000,-5.500,-50.500
1.661,-41.500,-26.000,-5.000,-50.500
1.662,-42.000,-26.000,-5.000,-50.500
1.663,-42.500,-26.500,-4.500,-51.000
1.664,-43.000,-26.500,-4.000,-51.000
1.665,-43.500,-27.000,-3.500,-51.000
1.666,-44.000,-27.000,-3.500,-51.000
1.667,-44.500,-27.500,-4.000,-50.500
1.668,-44.500,-28.000,-5.000,-50.500
1.669,-44.500,-28.500,-6.000,-50.500
1.670,-44.500,-28.500,-7.000,-50.000
1.671,-45.000,-29.000,-7.000,-50.000
1.672,-45.000,-29.000,-6.000,-50.000
1.673,-45.000,-29.000,-4.000,-50.000
1.674,-45.000,-29.000,-1.500,-50.000
1.675,-44.500,-29.000,-0.500,-50.000
1.676,-44.500,-29.000,-1.000,-50.000
1.677,-44.000,-28.500,-3.000,-50.000
1.678,-44.000,-28.500,-5.000,-50.000
1.679,-44.500,-28.000,-6.500,-50.000
1.680,-44.500,-28.000,-7.500,-49.500
1.681,-44.500,-27.500,-7.500,-49.500
1.682,-45.000,-27.500,-7.000,-49.000
1.683,-45.000,-28.000,-6.500,-49.000
1.684,-45.500,-28.000,-6.000,-49.000
1.685,-45.500,-28.000,-6.000,-49.000
1.686,-46.000,-28.000,-6.500,-49.000
1.687,-46.000,-28.500,-7.000,-49.000
1.688,-46.500,-28.500,-7.000,-49.000
1.689,-46.500,-29.000,-7.500,-49.000
1.690,-46.500,-29.500,-8.000,-49.000
1.691,-46.500,-30.000,-9.500,-48.500
1.692,-46.500,-30.000,-11.000,-48.000
1.693,-46.500,-29.500,-12.000,-47.500
1.694,-46.500,-29.000,-11.000,-47.500
1.695,-46.500,-29.000,-8.500,-47.000
1.696,-46.500,-28.500,-5.500,-47.000
1.697,-46.500,-28.000,-3.000,-46.500
1.698,-46.500,-28.000,-1.500,-46.500
1.699,-47.000,-28.500,-1.000,-46.500
1.700,-47.000,-28.500,-0.500,-46.500
1.701,-47.000,-29.000,0.500,-47.000
1.702,-47.500,-29.000,2.000,-47.000
1.703,-48.000,-29.500,3.000,-47.500
1.704,-48.000,-30.000,4.000,-47.500
1.705,-48.500,-30.500,6.000,-48.000
1.706,-48.500,-31.000,8.500,-48.000
1.707,-49.000,-31.500,10.500,-48.000
1.708,-49.000,-32.000,11.500,-48.500
1.709,-49.500,-32.500,11.500,-48.500
1.710,-49.500,-33.000,10.000,-48.500
1.711,-50.000,-33.500,8.500,-48.500
1.712,-50.500,-34.000,7.500,-48.500
1.713,-51.000,-34.500,7.000,-49.000
1.714,-51.000,-34.500,7.500,-49.000
1.715,-50.500,-34.000,8.000,-49.000
1.716,-50.500,-33.500,8.000,-49.500
1.717,-50.500,-33.500,7.000,-49.500
1.718,-50.000,-33.000,5.000,-49.500
1.719,-49.500,-33.000,3.000,-49.500
1.720,-49.000,-32.500,1.000,-49.500
1.721,-49.000,-33.000,0.000,-49.500
1.722,-48.500,-33.000,0.000,-49.500
1.723,-48.500,-33.000,1.000,-50.000
1.724,-49.000,-33.000,2.500,-50.000
1.725,-49.000,-33.000,3.500,-50.000
1.726,-49.500,-33.500,5.000,-50.000
1.727,-49.500,-34.000,5.500,-50.000
1.728,-50.000,-34.500,5.500,-50.000
1.729,-50.000,-34.500,5.000,-50.000
1.730,-50.000,-34.500,4.500,-50.000
1.731,-49.500,-34.500,4.500,-50.000
1.732,-49.500,-34.000,5.500,-50.000
1.733,-49.000,-33.500,6.500,-50.000
1.734,-48.500,-33.000,7.500,-50.000
1.735,-48.000,-32.500,8.000,-50.500
1.736,-47.500,-32.000,8.000,-50.500
1.737,-47.500,-31.500,7.500,-50.500
1.738,-47.000,-31.000,7.000,-50.500
1.739,-46.500,-31.000,5.500,-50.000
1.740,-46.000,-30.500,4.500,-50.000
1.741,-46.000,-30.500,4.500,-50.000
1.742,-45.500,-30.000,5.500,-50.500
1.743,-45.500,-30.000,5.500,-50.500
1.744,-45.000,-30.000,5.000,-50.500
1.745,-45.500,-30.000,3.000,-51.000
1.746,-45.500,-30.500,1.000,-51.000
1.747,-46.000,-30.500,-0.500,-51.000
1.748,-46.500,-31.000,-0.500,-51.000
1.749,-46.500,-31.500,1.000,-51.500
1.750,-47.000,-31.500,2.500,-51.500
1.751,-46.500,-32.000,4.000,-51.500
1.752,-46.500,-31.500,4.500,-51.500
1.753,-46.000,-31.500,3.500,-51.500
1.754,-45.500,-31.000,2.000,-51.500
1.755,-45.000,-30.500,0.500,-51.000
1.756,-45.000,-30.000,-1.500,-51.000
1.757,-44.500,-29.000,-3.000,-50.500
1.758,-44.000,-28.500,-5.500,-50.500
1.759,-43.500,-28.000,-8.500,-50.000
1.760,-43.500,-27.500,-11.000,-50.000
1.761,-43.000,-27.500,-12.500,-50.000
1.762,-43.000,-27.500,-12.500,-50.000
1.763,-42.500,-27.000,-12.500,-50.000
1.764,-42.500,-27.500,-12.000,-50.500
1.765,-42.500,-27.500,-11.500,-50.500
1.766,-42.500,-27.500,-10.000,-50.500
1.767,-43.000,-28.000,-7.500,-50.500
1.768,-43.500,-28.500,-4.000,-50.500
1.769,-43.500,-29.000,-1.000,-50.500
1.770,-44.000,-29.500,1.500,-50.500
1.771,-44.000,-30.000,2.500,-50.500
1.772,-44.000,-30.000,1.500,-50.000
1.773,-44.000,-30.000,-0.500,-50.000
1.774,-43.500,-29.500,-3.000,-50.000
1.775,-43.500,-29.000,-4.500,-50.000
1.776,-43.000,-29.000,-5.500,-50.000
1.777,-43.000,-28.500,-6.000,-50.000
1.778,-42.500,-28.500,-6.000,-50.000
1.779,-42.500,-28.500,-6.000,-50.000
1.780,-42.500,-28.500,-7.000,-50.000
1.781,-42.500,-28.500,-8.500,-50.000
1.782,-42.500,-28.500,-10.500,-50.000
1.783,-43.000,-28.500,-11.500,-50.000
1.784,-43.000,-29.000,-12.500,-50.500
1.785,-43.500,-29.500,-12.500,-50.500
1.786,-43.500,-29.500,-12.500,-50.500
1.787,-43.500,-30.000,-12.500,-50.500
1.788,-43.500,-30.000,-12.000,-50.500
1.789,-43.500,-30.000,-10.500,-50.000
1.790,-43.500,-30.000,-9.000,-49.500
1.791,-43.000,-30.000,-6.500,-49.000
1.792,-43.000,-29.500,-4.500,-48.500
1.793,-42.500,-29.000,-2.000,-48.000
1.794,-42.000,-28.500,-0.500,-47.500
1.795,-41.500,-28.000,0.500,-47.000
1.796,-41.000,-27.500,0.500,-47.000
1.797,-41.000,-27.000,-1.000,-47.000
1.798,-41.000,-27.000,-2.500,-47.000
1.799,-41.000,-26.500,-3.500,-47.000
1.800,-41.000,-26.500,-4.000,-47.000
1.801,-41.000,-26.500,-4.500,-47.500
1.802,-41.500,-27.000,-5.000,-48.000
1.803,-42.500,-28.000,-6.500,-48.500
1.804,-43.500,-29.000,-8.500,-49.500
1.805,-44.500,-30.000,-11.000,-50.500
1.806,-45.500,-31.500,-12.500,-51.500
1.807,-46.500,-33.000,-13.000,-52.500
1.808,-48.000,-34.000,-13.500,-53.500
1.809,-48.500,-35.000,-14.000,-54.000
1.810,-49.500,-36.000,-15.000,-54.500
1.811,-49.500,-36.500,-15.500,-54.500
1.812,-50.000,-37.000,-15.000,-54.500
1.813,-49.500,-37.000,-14.000,-54.500
1.814,-49.000,-36.500,-12.000,-54.000
1.815,-48.000,-35.500,-9.500,-53.500
1.816,-47.000,-34.000,-7.000,-52.500
1.817,-46.000,-33.000,-4.500,-51.500
1.818,-45.000,-31.500,-2.500,-50.500
1.819,-44.000,-30.500,-2.500,-49.000
1.820,-43.500,-29.500,-3.500,-48.000
1.821,-42.500,-28.500,-5.000,-47.000
1.822,-42.000,-28.000,-5.000,-46.500
1.823,-42.000,-27.500,-5.000,-46.000
1.824,-42.000,-28.000,-4.000,-46.000
1.825,-42.500,-28.500,-3.000,-46.000
1.826,-42.500,-29.000,-2.000,-46.000
1.827,-43.000,-29.500,-1.000,-46.000
1.828,-43.500,-29.500,0.500,-46.500
1.829,-43.500,-30.000,2.500,-46.500
1.830,-43.500,-30.000,4.000,-46.500
1.831,-43.500,-30.000,5.000,-46.000
1.832,-43.500,-30.000,4.500,-46.000
1.833,-43.500,-30.000,2.500,-45.500
1.834,-43.500,-30.000,0.500,-45.500
1.835,-43.500,-30.000,-1.000,-45.500
1.836,-43.500,-30.000,-1.500,-45.500
1.837,-43.000,-29.500,-1.500,-45.500
1.838,-43.000,-29.500,-2.000,-45.500
1.839,-43.000,-29.000,-3.500,-45.500
1.840,-42.500,-28.500,-5.000,-45.500
1.841,-42.500,-28.500,-7.500,-45.500
1.842,-43.000,-28.500,-9.500,-46.000
1.843,-43.000,-28.500,-11.500,-46.000
1.844,-43.000,-28.500,-12.500,-46.500
1.845,-43.500,-29.000,-13.000,-46.500
1.846,-44.000,-29.500,-13.000,-46.500
1.847,-44.000,-30.000,-12.500,-46.500
1.848,-44.500,-30.500,-11.000,-46.500
1.849,-44.500,-30.500,-9.500,-46.500
1.850,-44.500,-31.000,-7.500,-46.500
1.851,-44.500,-31.000,-5.000,-46.500
1.852,-44.500,-31.000,-2.000,-46.500
1.853,-44.500,-31.000,0.500,-46.000
1.854,-44.000,-30.500,2.500,-46.000
1.855,-44.000,-30.500,2.500,-45.500
1.856,-43.500,-30.000,2.500,-45.500
1.857,-43.500,-30.000,3.000,-45.000
1.858,-43.000,-29.500,4.000,-44.500
1.859,-42.500,-29.000,5.000,-44.000
1.860,-42.500,-29.000,5.500,-44.000
1.861,-42.000,-29.000,5.500,-43.500
1.862,-42.000,-29.000,5.000,-44.000
1.863,-42.000,-29.000,4.500,-44.000
1.864,-42.500,-29.000,4.000,-44.000
1.865,-42.500,-29.500,4.000,-44.500
1.866,-43.000,-29.500,4.500,-45.000
1.867,-43.500,-30.000,6.000,-45.000
1.868,-44.000,-30.500,7.500,-45.000
1.869,-44.500,-31.000,8.000,-45.500
1.870,-44.500,-31.000,8.500,-45.500
1.871,-45.000,-31.500,7.500,-45.000
1.872,-44.500,-31.500,5.500,-45.000
1.873,-44.000,-31.000,3.000,-45.000
1.874,-43.500,-31.000,0.500,-45.000
1.875,-43.000,-30.500,-1.000,-45.000
1.876,-43.000,-30.000,-2.000,-45.500
1.877,-42.500,-29.500,-2.500,-45.500
1.878,-42.000,-29.000,-3.500,-45.500
1.879,-42.000,-28.500,-5.000,-45.500
1.880,-42.000,-28.500,-7.000,-45.500
1.881,-42.000,-28.000,-10.000,-45.500
1.882,-42.000,-28.000,-12.500,-45.500
1.883,-42.000,-28.000,-14.500,-45.500
1.884,-42.000,-28.000,-15.000,-45.500
1.885,-42.000,-28.000,-14.500,-46.000
1.886,-42.500,-28.500,-12.500,-46.000
1.887,-43.000,-29.000,-10.000,-46.000
1.888,-43.500,-30.000,-7.500,-46.000
1.889,-43.500,-30.500,-5.500,-45.500
1.890,-44.000,-31.000,-5.000,-45.500
1.891,-43.500,-31.500,-5.000,-45.500
1.892,-43.500,-31.500,-5.000,-45.500
1.893,-43.500,-31.500,-5.000,-45.000
1.894,-43.000,-31.000,-4.500,-45.000
1.895,-43.000,-31.000,-4.000,-45.000
1.896,-43.000,-31.000,-2.500,-45.000
1.897,-42.500,-30.500,-1.500,-45.000
1.898,-42.500,-30.500,-2.000,-45.000
1.899,-42.500,-30.000,-3.000,-45.000
1.900,-42.500,-30.000,-4.000,-45.000
1.901,-42.500,-30.000,-5.000,-45.000
1.902,-42.500,-30.000,-5.000,-45.000
1.903,-43.000,-30.000,-4.000,-45.000
1.904,-43.000,-30.500,-2.500,-45.000
1.905,-43.500,-30.500,-0.500,-45.500
1.906,-44.000,-31.000,1.500,-45.500
1.907,-44.500,-31.000,3.000,-46.000
1.908,-44.500,-31.500,3.500,-46.000
1.909,-44.500,-31.500,3.500,-46.000
1.910,-44.500,-31.500,2.500,-45.500
1.911,-44.000,-31.500,1.500,-45.500
1.912,-44.000,-31.500,0.500,-45.500
1.913,-44.000,-31.500,0.500,-45.500
1.914,-43.500,-31.000,0.500,-45.500
1.915,-43.000,-31.000,1.000,-45.000
1.916,-43.000,-30.500,1.500,-45.000
1.917,-42.500,-30.500,1.000,-45.000
1.918,-42.500,-30.000,-1.000,-45.000
1.919,-42.000,-29.500,-3.500,-45.000
1.920,-42.000,-29.000,-6.500,-44.500
1.921,-42.000,-29.000,-8.000,-44.500
1.922,-42.000,-29.000,-9.000,-44.500
1.923,-42.000,-28.500,-9.000,-44.500
1.924,-42.000,-28.500,-9.000,-44.500
1.925,-42.000,-29.000,-8.500,-44.500
1.926,-42.500,-29.000,-7.500,-44.500
1.927,-42.500,-30.000,-6.000,-45.000
1.928,-43.000,-30.500,-4.500,-45.000
1.929,-43.500,-31.000,-3.000,-45.000
1.930,-44.000,-31.500,-2.000,-45.000
1.931,-44.000,-32.000,-1.500,-45.000
1.932,-43.500,-32.000,-2.500,-45.000
1.933,-43.500,-31.500,-4.000,-45.000
1.934,-43.000,-31.500,-4.500,-44.500
1.935,-43.000,-31.000,-4.000,-44.500
1.936,-43.000,-31.000,-3.500,-44.500
1.937,-43.000,-30.500,-3.000,-44.500
1.938,-42.500,-30.500,-4.000,-44.500
1.939,-42.500,-30.500,-5.500,-44.000
1.940,-42.000,-30.000,-7.500,-44.000
1.941,-42.000,-30.000,-9.000,-44.000
1.942,-42.000,-30.000,-9.000,-44.000
1.943,-42.000,-30.000,-8.500,-44.000
1.944,-42.000,-30.000,-6.500,-44.000
1.945,-42.500,-30.500,-5.000,-44.000
1.946,-43.000,-31.000,-3.500,-44.000
1.947,-43.000,-31.500,-3.000,-44.000
1.948,-43.500,-32.000,-2.500,-44.000
1.949,-44.000,-32.500,-2.500,-44.500
1.950,-44.000,-33.000,-2.500,-44.500
1.951,-44.500,-33.000,-2.500,-44.500
1.952,-44.500,-33.500,-2.500,-45.000
1.953,-44.500,-33.500,-3.000,-45.000
1.954,-44.500,-33.000,-4.500,-45.000
1.955,-44.000,-32.500,-5.500,-45.000
1.956,-44.000,-32.000,-5.500,-45.000
1.957,-44.000,-31.500,-5.000,-45.000
1.958,-43.500,-31.000,-4.000,-44.500
1.959,-43.500,-30.500,-3.500,-44.500
1.960,-43.000,-30.500,-4.500,-44.500
1.961,-43.000,-30.500,-6.000,-44.500
1.962,-43.000,-30.500,-7.500,-44.500
1.963,-43.500,-30.500,-8.500,-45.000
1.964,-43.500,-31.000,-9.500,-45.000
1.965,-44.000,-31.500,-10.500,-45.500
1.966,-44.000,-32.000,-10.000,-46.000
1.967,-44.500,-32.500,-9.000,-46.000
1.968,-44.500,-32.500,-7.500,-46.000
1.969,-44.500,-33.000,-7.500,-46.000
1.970,-44.500,-33.000,-8.000,-46.000
1.971,-44.500,-33.500,-9.500,-46.000
1.972,-44.500,-33.000,-9.500,-46.000
1.973,-44.500,-33.000,-8.500,-45.500
1.974,-44.500,-32.500,-7.000,-45.500
1.975,-44.000,-32.000,-5.000,-45.500
1.976,-44.000,-32.000,-3.500,-45.500
1.977,-44.000,-31.500,-2.500,-45.500
1.978,-44.000,-31.500,-1.000,-45.500
1.979,-44.000,-31.500,0.000,-45.500
1.980,-44.000,-31.500,1.000,-46.000
1.981,-44.000,-31.500,2.000,-46.000
1.982,-44.500,-31.500,3.500,-46.000
1.983,-44.500,-32.000,5.500,-46.000
1.984,-45.000,-32.000,6.500,-46.500
1.985,-45.000,-32.500,6.500,-46.500
1.986,-45.500,-32.500,4.500,-46.500
1.987,-45.500,-32.500,1.000,-46.500
1.988,-45.500,-32.500,-2.000,-46.500
1.989,-45.500,-32.500,-3.500,-46.000
1.990,-45.500,-32.500,-4.500,-46.000
1.991,-45.000,-32.500,-4.000,-46.000
1.992,-45.000,-32.500,-2.500,-46.000
1.993,-44.500,-32.500,-0.500,-45.500
1.994,-44.000,-32.000,2.000,-45.500
1.995,-43.500,-32.000,4.000,-45.000
1.996,-43.000,-31.500,5.500,-45.000
1.997,-43.000,-31.500,7.000,-45.000
1.998,-43.000,-31.000,7.500,-45.000
1.999,-43.000,-31.000,7.000,-45.000
2.000,-43.000,-30.500,5.000,-45.000
2.001,-43.000,-30.000,2.000,-45.000
2.002,-43.000,-30.000,-2.000,-44.500
2.003,-43.000,-30.000,-5.000,-44.500
2.004,-43.000,-30.000,-7.500,-45.000
2.005,-43.500,-30.500,-9.000,-45.000
2.006,-44.000,-31.000,-10.000,-45.000
2.007,-44.000,-31.000,-9.000,-45.000
2.008,-44.500,-31.500,-7.000,-45.000
2.009,-44.500,-32.000,-4.500,-45.000
2.010,-44.500,-32.000,-2.000,-45.000
2.011,-44.500,-32.000,1.000,-45.000
2.012,-44.000,-32.000,4.000,-45.000
2.013,-43.500,-31.500,7.000,-45.000
2.014,-43.500,-31.500,9.000,-44.500
2.015,-43.000,-31.000,9.000,-44.500
2.016,-42.500,-31.000,7.500,-44.500
2.017,-42.000,-30.500,5.500,-44.500
2.018,-41.500,-30.000,3.500,-44.500
2.019,-41.500,-29.500,2.500,-44.500
2.020,-41.000,-29.000,1.500,-45.000
2.021,-41.000,-29.000,0.000,-45.000
2.022,-41.000,-29.000,-1.000,-45.000
2.023,-41.000,-29.000,-1.500,-45.500
2.024,-41.500,-29.500,-1.500,-45.500
2.025,-41.500,-30.000,-0.500,-45.500
2.026,-42.000,-30.000,1.500,-45.500
2.027,-42.500,-30.500,3.500,-45.500
2.028,-43.000,-31.000,5.000,-45.500
2.029,-43.500,-31.000,6.000,-45.500
2.030,-43.500,-31.500,6.500,-45.500
2.031,-43.500,-31.500,8.000,-45.500
2.032,-43.000,-32.000,9.000,-45.500
2.033,-43.000,-32.000,10.500,-45.500
2.034,-42.500,-31.500,11.500,-45.500
2.035,-42.500,-31.500,11.500,-45.500
2.036,-42.000,-31.000,11.500,-45.000
2.037,-42.000,-31.000,10.000,-45.000
2.038,-41.500,-30.500,8.000,-45.000
2.039,-41.500,-30.500,5.500,-45.000
2.040,-41.500,-30.000,3.500,-45.000
2.041,-41.000,-29.500,2.500,-45.500
2.042,-40.500,-29.500,2.500,-45.500
2.043,-40.500,-29.000,2.500,-45.500
2.044,-40.500,-29.000,1.000,-46.000
2.045,-40.500,-29.000,-0.500,-46.000
2.046,-41.000,-29.000,-1.500,-46.000
2.047,-41.500,-29.500,-2.000,-46.500
2.048,-42.000,-30.000,-2.000,-46.500
2.049,-42.000,-30.500,-2.000,-46.500
2.050,-42.000,-30.500,-2.000,-46.500
2.051,-42.000,-30.500,-1.500,-46.500
2.052,-42.000,-30.500,-1.000,-46.000
2.053,-42.000,-30.000,-1.000,-46.000
2.054,-42.000,-30.000,-1.500,-46.000
2.055,-42.000,-29.500,-2.500,-45.500
2.056,-41.500,-29.000,-3.500,-45.500
2.057,-41.000,-28.500,-4.500,-45.500
2.058,-40.500,-28.000,-5.000,-45.000
2.059,-40.000,-27.500,-5.000,-45.000
2.060,-40.000,-27.500,-4.000,-44.500
2.061,-40.000,-27.500,-2.000,-44.000
2.062,-40.000,-27.500,-0.500,-44.000
2.063,-40.000,-27.500,0.500,-44.000
2.064,-40.000,-28.000,-0.500,-44.000
2.065,-40.500,-28.500,-1.500,-44.000
2.066,-40.500,-29.000,-2.000,-44.500
2.067,-41.000,-29.500,-1.500,-44.500
2.068,-41.500,-30.000,-1.000,-45.000
2.069,-42.000,-30.000,0.500,-45.500
2.070,-42.000,-30.500,1.500,-45.500
2.071,-42.000,-30.500,2.000,-45.500
2.072,-42.000,-30.000,2.500,-45.000
2.073,-42.000,-30.000,3.000,-45.000
2.074,-42.000,-29.500,3.500,-44.500
2.075,-41.500,-29.500,3.500,-44.500
2.076,-41.500,-29.500,4.000,-44.500
2.077,-41.500,-29.000,4.500,-44.500
2.078,-42.000,-29.000,5.000,-45.000
2.079,-42.000,-29.000,5.500,-45.500
2.080,-42.000,-29.000,6.000,-46.500
2.081,-42.000,-29.500,6.500,-48.000
2.082,-42.500,-30.000,6.500,-49.500
2.083,-43.500,-31.000,6.000,-51.000
2.084,-44.500,-32.000,6.000,-52.500
2.085,-45.500,-33.000,6.000,-54.000
2.086,-47.000,-34.500,6.500,-55.500
2.087,-48.500,-35.500,5.500,-56.500
2.088,-50.000,-36.500,3.500,-57.500
2.089,-51.500,-38.000,1.000,-58.000
2.090,-53.000,-39.500,-1.000,-58.500
2.091,-54.500,-41.000,-2.500,-58.500
2.092,-55.500,-42.000,-4.000,-58.500
2.093,-57.000,-43.000,-4.000,-58.000
2.094,-58.000,-44.000,-3.500,-57.500
2.095,-59.500,-44.500,-2.500,-57.000
2.096,-61.000,-44.500,-1.500,-56.000
2.097,-62.000,-45.000,-1.000,-54.000
2.098,-63.000,-44.500,-0.500,-51.500
2.099,-64.000,-44.500,-0.500,-48.500
2.100,-65.000,-44.500,0.500,-45.000
2.101,-66.000,-44.000,1.500,-41.000
2.102,-67.000,-44.000,2.500,-37.000
2.103,-68.000,-43.500,3.000,-33.500
2.104,-69.000,-43.000,2.500,-29.500
2.105,-70.000,-43.000,1.500,-26.500
2.106,-70.500,-42.500,-0.500,-23.500
2.107,-71.000,-42.500,-2.500,-21.000
2.108,-71.500,-42.500,-3.500,-18.500
2.109,-71.000,-42.000,-3.000,-16.500
2.110,-70.500,-41.500,-2.000,-15.000
2.111,-69.000,-40.500,-1.000,-13.000
2.112,-67.500,-39.500,0.500,-11.500
2.113,-65.500,-37.500,1.500,-10.500
2.114,-62.500,-35.500,3.000,-10.000
2.115,-59.500,-33.000,3.500,-9.500
2.116,-56.000,-30.500,3.000,-9.000
2.117,-52.500,-27.500,1.000,-9.000
2.118,-49.000,-25.000,-2.500,-9.500
2.119,-45.000,-22.500,-5.500,-10.500
2.120,-41.000,-20.000,-7.000,-12.000
2.121,-37.000,-18.000,-7.500,-13.000
2.122,-34.000,-15.500,-7.000,-14.500
2.123,-30.500,-13.500,-6.500,-15.500
2.124,-28.000,-12.000,-5.500,-16.500
2.125,-26.500,-11.000,-3.500,-17.500
2.126,-26.000,-11.000,-1.000,-19.000
2.127,-26.500,-11.500,2.000,-21.000
2.128,-28.000,-13.500,4.500,-23.500
2.129,-30.000,-15.500,6.000,-26.000
2.130,-32.000,-18.000,6.500,-28.500
2.131,-33.500,-20.000,6.000,-31.000
2.132,-35.000,-21.000,5.000,-32.500
2.133,-36.000,-22.500,4.000,-34.000
2.134,-37.000,-23.000,3.000,-35.500
2.135,-38.000,-24.000,2.500,-36.500
2.136,-38.500,-24.500,2.000,-38.000
2.137,-39.000,-25.500,2.000,-39.000
2.138,-39.500,-26.000,2.500,-39.500
2.139,-39.500,-26.000,3.000,-40.000
2.140,-39.500,-26.000,4.500,-40.000
2.141,-39.500,-26.000,5.500,-40.000
2.142,-39.000,-25.500,7.000,-40.000
2.143,-39.500,-25.500,8.500,-40.500
2.144,-39.500,-26.000,9.000,-40.500
2.145,-40.000,-26.000,9.000,-40.500
2.146,-40.500,-26.500,8.500,-40.500
2.147,-40.500,-27.000,8.000,-41.000
2.148,-41.000,-27.500,8.500,-41.000
2.149,-41.000,-27.500,8.500,-41.500
2.150,-40.500,-28.000,8.500,-41.500
2.151,-40.500,-28.000,8.000,-41.500
2.152,-40.000,-28.000,8.000,-41.500
2.153,-39.500,-28.000,8.000,-42.000
2.154,-39.500,-28.000,9.500,-42.000
2.155,-39.500,-28.000,10.500,-42.000
2.156,-39.000,-27.500,11.000,-42.000
2.157,-39.000,-27.500,11.000,-42.000
2.158,-38.500,-27.000,11.500,-42.000
2.159,-38.500,-27.000,12.500,-42.000
2.160,-38.000,-26.500,13.500,-42.000
2.161,-38.000,-26.500,14.500,-42.000
2.162,-38.000,-26.500,15.500,-42.000
2.163,-38.500,-26.500,16.500,-42.000
2.164,-38.500,-27.000,16.500,-42.000
2.165,-39.000,-27.000,15.000,-42.500
2.166,-39.500,-27.500,12.500,-42.500
2.167,-39.500,-28.000,9.500,-42.500
2.168,-40.000,-28.500,7.000,-43.000
2.169,-40.500,-29.000,6.000,-43.000
2.170,-41.000,-29.000,6.000,-43.500
2.171,-41.000,-29.000,5.500,-43.500
2.172,-40.500,-29.000,4.500,-43.500
2.173,-40.500,-28.500,3.500,-43.500
2.174,-40.000,-28.000,3.000,-43.000
2.175,-39.500,-28.000,2.500,-43.000
2.176,-39.500,-27.500,2.000,-43.000
2.177,-39.000,-27.000,1.000,-43.000
2.178,-38.500,-26.500,0.500,-42.500
2.179,-38.500,-26.000,0.500,-42.500
2.180,-38.500,-25.500,1.000,-42.500
2.181,-38.500,-25.500,1.500,-42.000
2.182,-38.500,-25.000,1.500,-42.000
2.183,-38.500,-25.000,0.500,-42.000
2.184,-38.500,-25.500,-0.500,-42.500
2.185,-38.500,-25.500,-1.500,-42.500
2.186,-39.000,-25.500,-2.000,-42.500
2.187,-39.500,-26.000,-2.000,-42.500
2.188,-39.500,-26.000,-1.500,-42.500
2.189,-40.000,-26.500,-0.500,-42.500
2.190,-40.000,-27.000,1.500,-43.000
2.191,-40.000,-27.500,3.500,-43.000
2.192,-40.000,-27.500,4.500,-43.000
2.193,-40.000,-27.500,5.500,-43.000
2.194,-39.500,-27.500,6.000,-43.000
2.195,-39.500,-27.500,7.000,-43.000
2.196,-39.000,-27.000,8.000,-43.000
2.197,-39.000,-27.000,8.500,-43.000
2.198,-39.000,-27.000,8.500,-43.000
2.199,-39.000,-26.500,7.500,-43.000
2.200,-39.000,-26.500,6.500,-43.000
2.201,-39.000,-26.500,6.000,-43.000
2.202,-39.500,-26.500,6.500,-43.000
2.203,-39.500,-26.500,7.500,-43.000
2.204,-40.000,-27.000,8.000,-43.500
2.205,-40.000,-27.000,8.500,-43.500
2.206,-40.500,-27.500,8.500,-43.500
2.207,-41.000,-28.000,7.500,-43.500
2.208,-41.500,-28.500,6.000,-44.000
2.209,-41.500,-29.000,5.000,-44.000
2.210,-41.500,-29.000,4.500,-44.000
2.211,-41.500,-29.500,4.500,-44.000
2.212,-41.500,-29.000,5.000,-44.000
2.213,-41.500,-29.000,5.500,-44.000
2.214,-41.500,-28.500,6.000,-44.000
2.215,-41.000,-28.000,6.500,-44.000
2.216,-41.000,-27.500,6.500,-44.000
2.217,-41.000,-27.500,6.000,-44.000
2.218,-40.500,-27.000,5.500,-44.000
2.219,-40.500,-27.000,5.500,-44.000
2.220,-40.500,-27.000,6.000,-44.000
2.221,-40.500,-27.000,7.000,-44.000
2.222,-40.500,-27.000,7.500,-43.500
2.223,-40.500,-27.000,7.500,-43.500
2.224,-41.000,-27.000,7.500,-43.500
2.225,-41.000,-27.000,8.000,-44.000
2.226,-41.500,-27.500,9.000,-44.000
2.227,-42.000,-28.000,10.500,-44.500
2.228,-42.500,-28.500,12.000,-44.500
2.229,-43.000,-29.000,12.500,-44.500
2.230,-43.000,-29.500,13.000,-44.500
2.231,-43.000,-29.500,13.000,-44.500
2.232,-43.000,-29.500,12.500,-44.500
2.233,-43.000,-29.500,11.500,-44.000
2.234,-42.500,-29.500,10.500,-43.500
2.235,-42.000,-29.500,9.500,-43.000
2.236,-41.500,-29.000,9.000,-43.000
2.237,-41.000,-28.500,8.000,-43.000
2.238,-40.500,-28.000,7.500,-43.000
2.239,-40.000,-27.500,8.000,-43.000
2.240,-40.000,-27.000,9.500,-43.000
2.241,-40.000,-27.000,10.500,-43.000
2.242,-40.000,-27.000,11.000,-43.500
2.243,-40.500,-27.000,11.000,-43.500
2.244,-41.500,-27.500,10.500,-44.000
2.245,-42.000,-28.500,10.500,-44.500
2.246,-43.000,-29.500,10.500,-45.000
2.247,-44.000,-30.500,10.500,-45.500
2.248,-45.000,-32.000,11.000,-46.500
2.249,-46.000,-33.500,11.000,-47.500
2.250,-47.000,-35.000,10.500,-48.500
2.251,-48.000,-36.000,9.500,-49.000
2.252,-49.000,-37.000,8.500,-50.000
2.253,-49.500,-37.500,7.500,-50.500
2.254,-50.000,-38.000,7.500,-51.000
2.255,-50.000,-38.000,7.500,-51.000
2.256,-49.500,-37.500,8.000,-51.000
2.257,-49.000,-37.000,8.500,-50.500
2.258,-48.500,-36.000,9.000,-49.500
2.259,-47.500,-35.000,9.000,-49.000
2.260,-47.000,-34.000,8.500,-48.000
2.261,-46.500,-33.000,8.000,-47.000
2.262,-45.500,-32.000,8.500,-46.500
2.263,-45.500,-31.500,9.000,-45.500
2.264,-45.000,-30.500,8.500,-45.000
2.265,-44.500,-30.000,8.000,-44.500
2.266,-44.500,-30.000,7.000,-44.000
2.267,-44.500,-30.000,6.500,-43.500
2.268,-45.000,-30.500,6.000,-43.500
2.269,-45.000,-31.000,4.500,-43.500
2.270,-45.500,-31.500,3.000,-43.500
2.271,-45.500,-31.500,2.000,-43.500
2.272,-45.500,-31.500,0.500,-43.500
2.273,-45.500,-31.500,-1.000,-43.500
2.274,-45.000,-31.000,-1.500,-43.500
2.275,-45.000,-31.000,-1.500,-43.500
2.276,-45.000,-31.000,-1.000,-43.500
2.277,-44.500,-31.000,-0.500,-43.500
2.278,-44.500,-30.500,-2.000,-43.500
2.279,-44.500,-30.000,-4.500,-43.000
2.280,-44.500,-30.000,-6.000,-43.000
2.281,-44.500,-29.500,-5.500,-43.000
2.282,-44.500,-29.500,-4.500,-42.500
2.283,-44.500,-29.500,-3.000,-42.500
2.284,-45.000,-29.500,-1.500,-43.000
2.285,-45.500,-30.000,0.500,-43.000
2.286,-45.500,-30.500,2.000,-43.000
2.287,-46.000,-31.000,3.500,-43.500
2.288,-46.500,-31.500,4.500,-43.500
2.289,-46.500,-32.500,4.500,-43.500
2.290,-47.000,-33.000,3.500,-43.000
2.291,-47.000,-33.500,2.500,-43.000
2.292,-47.500,-33.500,2.500,-43.000
2.293,-47.500,-33.500,3.000,-42.500
2.294,-47.000,-33.500,3.000,-42.500
2.295,-47.000,-33.000,2.500,-42.500
2.296,-47.000,-32.500,1.000,-42.000
2.297,-46.500,-32.000,-1.000,-42.000
2.298,-46.500,-32.000,-3.000,-42.000
2.299,-46.500,-31.500,-5.500,-42.000
2.300,-46.500,-31.500,-8.000,-42.000
2.301,-46.500,-31.500,-10.500,-42.000
2.302,-46.500,-31.500,-12.000,-42.500
2.303,-47.000,-31.500,-12.500,-42.500
2.304,-47.000,-32.000,-11.500,-42.500
2.305,-47.500,-32.500,-9.500,-42.500
2.306,-48.000,-33.000,-7.500,-42.500
2.307,-48.500,-33.500,-6.000,-42.500
2.308,-48.500,-34.000,-4.500,-42.500
2.309,-49.000,-34.500,-3.500,-42.500
2.310,-49.000,-34.500,-2.500,-42.000
2.311,-49.000,-34.500,-2.500,-42.000
2.312,-49.000,-34.500,-2.500,-42.000
2.313,-49.500,-34.500,-3.000,-41.500
2.314,-49.500,-34.500,-2.500,-41.500
2.315,-49.500,-34.000,-1.500,-41.000
2.316,-49.500,-34.000,0.000,-41.000
2.317,-49.000,-33.500,1.000,-41.000
2.318,-49.000,-33.000,1.500,-40.500
2.319,-49.000,-32.500,0.500,-40.500
2.320,-49.000,-32.500,-1.000,-40.500
2.321,-49.500,-32.500,-2.500,-40.500
2.322,-49.500,-32.500,-4.500,-40.500
2.323,-49.500,-32.500,-5.500,-41.000
2.324,-50.000,-33.000,-5.000,-41.000
2.325,-50.500,-33.000,-4.500,-41.000
2.326,-50.500,-33.500,-3.500,-41.000
2.327,-51.000,-34.000,-3.000,-41.000
2.328,-51.500,-34.500,-2.500,-41.000
2.329,-52.000,-35.500,-3.000,-41.000
2.330,-52.500,-36.000,-3.500,-41.000
2.331,-52.500,-36.500,-3.500,-41.000
2.332,-53.000,-37.000,-3.500,-41.000
2.333,-53.000,-37.000,-3.000,-41.000
2.334,-53.000,-37.000,-2.500,-40.500
2.335,-52.500,-36.500,-2.000,-40.500
2.336,-52.500,-36.500,-1.500,-40.000
2.337,-52.500,-36.000,-1.000,-40.000
2.338,-52.500,-36.000,-0.500,-39.500
2.339,-52.000,-35.500,0.000,-39.500
2.340,-52.000,-35.500,-0.500,-39.500
2.341,-52.000,-35.000,-1.000,-39.500
2.342,-52.000,-35.000,-1.500,-39.500
2.343,-52.000,-35.000,-2.000,-40.000
2.344,-52.500,-35.500,-2.000,-40.000
2.345,-53.000,-36.000,-1.500,-40.500
2.346,-53.500,-36.500,-1.500,-41.000
2.347,-54.000,-37.000,-1.000,-41.500
2.348,-54.000,-37.500,-1.500,-41.500
2.349,-54.500,-38.000,-2.500,-42.000
2.350,-54.500,-38.000,-4.000,-42.000
2.351,-54.500,-38.000,-6.000,-42.500
2.352,-54.500,-38.000,-8.000,-42.500
2.353,-54.000,-38.000,-8.500,-42.500
2.354,-54.000,-37.500,-8.000,-43.000
2.355,-53.500,-37.500,-8.000,-43.000
2.356,-53.000,-37.000,-8.000,-43.000
2.357,-52.500,-36.500,-8.500,-43.000
2.358,-52.000,-36.000,-9.000,-43.000
2.359,-52.000,-35.500,-10.000,-43.000
2.360,-51.500,-35.500,-11.000,-43.000
2.361,-51.000,-35.000,-11.000,-43.000
2.362,-51.000,-34.500,-10.000,-43.000
2.363,-50.500,-34.500,-7.500,-43.000
2.364,-50.500,-34.500,-4.000,-43.500
2.365,-50.500,-34.500,-1.000,-44.000
2.366,-50.500,-35.000,1.000,-44.500
2.367,-51.000,-35.000,1.500,-45.000
2.368,-51.000,-35.500,1.500,-45.500
2.369,-51.000,-36.000,1.000,-45.500
2.370,-51.000,-36.000,0.000,-46.000
2.371,-51.000,-36.500,-1.000,-46.000
2.372,-50.500,-36.500,-2.500,-46.000
2.373,-50.500,-36.000,-3.500,-46.500
2.374,-50.000,-36.000,-4.000,-46.500
2.375,-49.500,-35.500,-3.500,-46.500
2.376,-49.500,-35.000,-2.000,-46.500
2.377,-49.000,-35.000,0.000,-46.500
2.378,-48.500,-34.500,2.500,-46.500
2.379,-48.500,-34.000,5.000,-46.500
2.380,-48.000,-34.000,7.500,-46.000
2.381,-47.500,-33.500,9.000,-46.000
2.382,-47.000,-33.500,9.500,-46.000
2.383,-47.000,-33.500,9.500,-46.000
2.384,-47.000,-33.500,8.500,-46.000
2.385,-47.500,-33.500,7.500,-46.500
2.386,-47.500,-33.500,6.000,-46.500
2.387,-47.500,-33.500,4.000,-47.000
2.388,-48.000,-34.000,2.000,-47.000
2.389,-48.000,-34.500,0.500,-47.000
2.390,-48.000,-34.500,-2.000,-47.000
2.391,-48.000,-35.000,-5.000,-47.000
2.392,-48.000,-35.000,-7.000,-47.500
2.393,-47.500,-34.500,-8.000,-47.500
2.394,-47.000,-34.500,-7.000,-47.500
2.395,-46.500,-34.000,-4.500,-47.000
2.396,-46.000,-33.500,-0.500,-47.000
2.397,-46.000,-33.500,3.500,-47.000
2.398,-46.000,-33.000,6.000,-47.000
2.399,-45.500,-32.500,7.500,-47.000
2.400,-45.500,-32.500,8.000,-46.500
2.401,-45.000,-32.000,8.000,-46.500
2.402,-45.000,-31.500,7.000,-46.500
2.403,-45.000,-31.500,5.000,-47.000
2.404,-45.500,-31.500,3.000,-47.000
2.405,-45.500,-31.500,2.000,-47.000
2.406,-45.500,-32.000,1.500,-46.500
2.407,-46.000,-32.000,2.000,-46.500
2.408,-46.000,-32.500,2.000,-46.500
2.409,-46.000,-32.500,1.500,-46.000
2.410,-46.000,-33.000,-0.500,-46.000
2.411,-46.000,-33.000,-3.500,-46.000
2.412,-46.000,-33.000,-5.500,-46.000
2.413,-45.500,-33.000,-6.500,-46.000
2.414,-45.500,-33.000,-5.000,-46.000
2.415,-45.000,-32.500,-3.000,-46.000
2.416,-45.000,-32.500,0.000,-46.000
2.417,-44.500,-32.000,2.500,-46.000
2.418,-44.500,-32.000,4.500,-46.000
2.419,-44.000,-31.500,6.500,-46.000
2.420,-44.000,-31.500,8.000,-46.000
2.421,-44.500,-31.500,9.000,-46.000
2.422,-44.500,-31.500,10.000,-46.000
2.423,-45.000,-32.000,10.000,-46.000
2.424,-45.500,-32.500,10.500,-46.500
2.425,-46.000,-33.000,10.500,-47.000
2.426,-46.500,-33.500,9.500,-47.000
2.427,-47.000,-34.000,7.500,-47.000
2.428,-47.000,-34.000,6.000,-47.000
2.429,-47.500,-34.500,5.000,-47.000
2.430,-47.500,-34.500,5.500,-47.000
2.431,-47.500,-35.000,7.500,-47.000
2.432,-47.000,-35.000,9.500,-47.000
2.433,-47.000,-35.000,10.500,-47.000
2.434,-46.500,-34.500,10.500,-47.000
2.435,-46.500,-34.000,9.000,-47.000
2.436,-46.000,-33.500,6.500,-46.500
2.437,-46.000,-33.500,4.000,-46.500
2.438,-46.000,-33.000,2.000,-46.500
2.439,-45.500,-33.000,1.500,-46.500
2.440,-45.500,-33.000,2.000,-46.500
2.441,-45.500,-33.000,3.500,-46.500
2.442,-46.000,-33.000,6.000,-47.000
2.443,-46.000,-33.000,8.500,-47.000
2.444,-46.000,-33.000,11.000,-47.000
2.445,-46.500,-33.500,12.500,-47.000
2.446,-47.000,-33.500,13.000,-47.000
2.447,-47.000,-34.000,13.000,-47.000
2.448,-47.500,-34.500,13.000,-47.000
2.449,-47.500,-35.000,12.500,-47.500
2.450,-47.500,-35.000,12.500,-47.500
2.451,-47.500,-35.500,12.500,-47.500
2.452,-47.500,-35.500,13.000,-47.500
2.453,-47.500,-35.500,13.500,-47.000
2.454,-48.000,-35.000,13.000,-47.000
2.455,-48.000,-35.000,12.000,-47.000
2.456,-47.500,-34.500,10.000,-47.000
2.457,-47.500,-34.000,8.500,-47.000
2.458,-47.500,-33.500,7.000,-47.000
2.459,-47.000,-33.000,5.500,-47.000
2.460,-47.000,-33.000,5.000,-46.500
2.461,-47.000,-33.000,5.000,-46.500
2.462,-47.000,-33.000,4.500,-47.000
2.463,-47.000,-33.000,4.500,-47.000
2.464,-47.000,-33.000,5.000,-47.500
2.465,-47.000,-33.500,5.000,-48.000
2.466,-47.000,-33.500,5.500,-48.000
2.467,-47.000,-34.000,5.000,-48.000
2.468,-47.500,-34.000,4.000,-48.500
2.469,-47.500,-34.500,3.000,-48.500
2.470,-48.000,-35.000,1.500,-48.500
2.471,-48.000,-35.500,0.500,-48.500
2.472,-48.000,-35.500,-0.500,-48.500
2.473,-48.000,-35.500,-0.500,-48.000
2.474,-47.500,-35.000,-0.500,-48.000
2.475,-47.500,-35.000,0.000,-47.500
2.476,-47.000,-34.500,-0.500,-47.500
2.477,-47.000,-34.500,-1.500,-47.500
2.478,-47.000,-34.000,-2.000,-47.500
2.479,-46.500,-34.000,-2.000,-47.500
2.480,-46.500,-33.500,-1.500,-47.000
2.481,-46.500,-33.500,0.000,-47.000
2.482,-46.500,-33.000,1.500,-47.000
2.483,-47.000,-33.000,4.000,-47.000
2.484,-47.000,-33.500,6.000,-47.500
2.485,-47.000,-33.500,8.000,-47.500
2.486,-47.500,-34.000,9.500,-47.500
2.487,-47.500,-34.500,10.000,-47.500
2.488,-47.500,-34.500,10.000,-47.500
2.489,-47.500,-34.500,9.500,-47.500
2.490,-47.500,-34.500,9.000,-47.500
2.491,-47.500,-34.500,8.000,-47.500
2.492,-47.500,-34.500,7.000,-47.500
2.493,-47.000,-34.500,6.000,-47.500
2.494,-47.000,-34.000,6.000,-47.000
2.495,-47.000,-34.000,6.500,-47.000
2.496,-46.500,-34.000,6.500,-46.500
2.497,-46.500,-33.500,6.500,-46.500
2.498,-46.000,-33.500,5.000,-46.500
2.499,-45.500,-33.500,3.500,-47.000
2.500,-45.000,-33.500,2.000,-47.000
2.501,-45.000,-33.500,1.000,-47.000
2.502,-45.000,-34.000,1.000,-47.500
2.503,-45.000,-34.000,1.000,-47.500
2.504,-45.500,-34.000,1.500,-48.000
2.505,-45.500,-34.500,1.000,-48.000
2.506,-46.000,-34.500,0.000,-48.000
2.507,-46.500,-35.000,-1.500,-48.000
2.508,-46.500,-35.500,-2.500,-48.000
2.509,-46.500,-35.500,-3.000,-48.000
2.510,-47.000,-36.000,-3.000,-48.000
2.511,-46.500,-36.000,-2.500,-48.000
2.512,-46.500,-35.500,-2.000,-48.000
2.513,-46.500,-35.500,-0.500,-48.000
2.514,-46.000,-35.500,2.000,-48.000
2.515,-46.000,-35.000,4.000,-48.000
2.516,-45.500,-35.000,5.000,-48.000
2.517,-45.500,-35.000,5.000,-48.000
2.518,-45.500,-34.500,4.500,-48.500
2.519,-45.000,-34.500,4.500,-48.500
2.520,-45.000,-34.000,5.000,-48.500
2.521,-45.000,-34.000,5.500,-48.500
2.522,-45.000,-33.500,6.000,-48.500
2.523,-44.500,-33.500,5.500,-48.500
2.524,-44.500,-33.500,5.000,-48.500
2.525,-45.000,-33.500,4.000,-48.500
2.526,-45.000,-33.500,3.500,-49.000
2.527,-45.000,-34.000,2.500,-49.000
2.528,-45.500,-35.000,2.000,-49.000
2.529,-45.500,-35.500,2.000,-48.500
2.530,-45.500,-35.500,2.500,-48.500
2.531,-45.500,-36.000,4.000,-48.500
2.532,-45.500,-36.000,6.000,-48.000
2.533,-45.000,-35.500,7.000,-48.000
2.534,-45.000,-35.500,8.000,-48.000
2.535,-45.000,-35.500,8.000,-48.500
2.536,-44.500,-35.000,6.500,-48.500
2.537,-44.500,-35.000,4.500,-48.500
2.538,-44.500,-34.500,1.500,-48.500
2.539,-44.000,-34.500,-0.500,-48.500
2.540,-44.000,-34.000,-1.000,-48.500
2.541,-44.000,-34.000,-0.500,-49.000
2.542,-44.000,-34.000,0.000,-49.000
2.543,-44.000,-34.000,0.500,-49.000
2.544,-44.000,-34.000,0.000,-49.000
2.545,-44.500,-34.500,-0.500,-49.000
2.546,-45.000,-34.500,0.000,-49.500
2.547,-45.000,-35.000,0.500,-49.500
2.548,-45.500,-35.500,1.000,-49.500
2.549,-45.500,-35.500,1.500,-49.500
2.550,-46.000,-35.500,1.500,-49.500
2.551,-46.000,-35.500,0.500,-49.500
2.552,-45.500,-35.000,-1.000,-49.500
2.553,-45.500,-35.000,-2.500,-49.500
2.554,-45.000,-34.500,-3.500,-49.000
2.555,-45.000,-34.500,-4.000,-49.000
2.556,-44.500,-34.000,-4.500,-49.000
2.557,-44.500,-33.500,-5.500,-49.000
2.558,-44.000,-33.000,-6.500,-49.000
2.559,-43.500,-32.500,-8.000,-49.000
2.560,-43.500,-32.500,-9.000,-49.500
2.561,-43.500,-32.500,-9.000,-49.500
2.562,-43.000,-33.000,-9.000,-50.000
2.563,-43.000,-33.000,-8.000,-50.000
2.564,-43.500,-33.000,-6.500,-49.500
2.565,-43.500,-33.000,-5.500,-49.500
2.566,-44.000,-33.000,-5.500,-49.500
2.567,-44.000,-33.000,-5.500,-49.000
2.568,-44.500,-33.500,-6.000,-49.000
2.569,-44.500,-34.000,-6.500,-49.000
2.570,-45.000,-34.500,-7.000,-49.000
2.571,-45.000,-35.000,-7.000,-49.000
2.572,-45.000,-35.500,-7.000,-49.000
2.573,-45.000,-35.500,-6.000,-49.500
2.574,-44.500,-35.500,-5.500,-49.500
2.575,-44.500,-35.000,-5.500,-49.500
2.576,-44.000,-35.000,-5.500,-49.500
2.577,-44.000,-34.500,-4.500,-49.500
2.578,-44.000,-34.000,-3.500,-49.500
2.579,-44.000,-33.500,-2.500,-49.500
2.580,-43.500,-33.000,-2.500,-49.000
2.581,-43.500,-32.500,-2.500,-49.500
2.582,-44.000,-32.500,-2.500,-49.500
2.583,-44.000,-32.500,-1.500,-49.500
2.584,-44.500,-33.000,-1.000,-50.000
2.585,-44.500,-33.000,-1.000,-50.500
2.586,-45.000,-33.500,-1.500,-51.000
2.587,-45.500,-34.000,-2.500,-51.000
2.588,-46.000,-34.500,-4.000,-51.000
2.589,-46.000,-35.000,-5.000,-51.000
2.590,-46.500,-35.500,-6.000,-51.000
2.591,-46.500,-36.000,-7.000,-50.500
2.592,-46.500,-36.000,-8.000,-50.500
2.593,-46.500,-36.000,-9.000,-51.000
2.594,-46.000,-36.000,-10.000,-51.000
2.595,-46.000,-35.500,-10.000,-51.000
2.596,-46.000,-35.000,-9.500,-51.000
2.597,-46.000,-35.000,-8.000,-51.500
2.598,-46.000,-34.500,-6.000,-51.500
2.599,-46.000,-34.500,-3.000,-52.000
2.600,-46.000,-34.500,-0.500,-52.000
2.601,-46.000,-34.500,0.500,-52.000
2.602,-46.000,-35.000,0.500,-52.000
2.603,-46.000,-35.000,-1.000,-52.000
2.604,-46.000,-35.500,-1.000,-52.000
2.605,-46.500,-36.000,-1.000,-52.500
2.606,-47.000,-36.000,0.000,-52.500
2.607,-47.000,-37.000,0.500,-52.500
2.608,-47.500,-37.500,0.500,-53.000
2.609,-48.000,-38.000,1.000,-53.000
2.610,-48.000,-38.000,1.500,-53.000
2.611,-48.500,-38.500,1.500,-53.000
2.612,-48.000,-38.000,2.000,-53.000
2.613,-48.000,-38.000,2.500,-52.500
2.614,-47.500,-37.500,2.500,-52.500
2.615,-47.000,-37.000,3.000,-52.000
2.616,-46.500,-36.000,2.500,-52.000
2.617,-46.000,-35.500,1.500,-51.500
2.618,-45.500,-35.000,0.000,-51.500
2.619,-45.000,-34.500,-1.500,-51.000
2.620,-45.000,-34.000,-2.000,-51.000
2.621,-44.500,-34.000,-2.500,-51.000
2.622,-44.500,-33.500,-2.500,-51.000
2.623,-44.000,-33.500,-3.500,-50.500
2.624,-43.500,-33.000,-4.500,-50.500
2.625,-43.500,-33.000,-5.500,-50.500
2.626,-43.500,-33.000,-5.500,-50.000
2.627,-43.500,-33.500,-4.500,-50.000
2.628,-44.000,-33.500,-3.000,-50.000
2.629,-44.000,-34.000,-1.000,-50.000
2.630,-44.500,-34.000,0.500,-50.000
2.631,-44.500,-34.500,2.000,-50.000
2.632,-44.500,-34.500,3.500,-50.000
2.633,-44.500,-34.500,4.500,-50.000
2.634,-44.500,-34.000,5.000,-50.000
2.635,-44.500,-34.000,4.500,-50.500
2.636,-44.500,-33.500,4.500,-50.500
2.637,-44.000,-33.000,5.000,-50.000
2.638,-44.000,-32.500,6.500,-50.000
2.639,-43.500,-32.000,8.500,-49.500
2.640,-43.000,-31.500,9.000,-49.500
2.641,-43.000,-31.500,8.000,-49.500
2.642,-43.000,-31.000,6.000,-49.500
2.643,-43.000,-31.000,3.000,-49.500
2.644,-42.500,-31.000,0.500,-50.000
2.645,-43.000,-31.000,-1.000,-50.000
2.646,-43.000,-31.500,-1.000,-50.500
2.647,-43.500,-32.500,0.000,-51.000
2.648,-44.000,-33.000,2.000,-51.500
2.649,-44.000,-34.000,4.000,-52.000
2.650,-44.500,-34.500,5.500,-52.000
2.651,-44.500,-35.000,6.500,-52.000
2.652,-44.500,-35.000,8.000,-52.000
2.653,-44.000,-35.000,9.500,-51.500
2.654,-44.000,-34.500,9.500,-51.500
2.655,-43.500,-34.000,9.000,-51.500
2.656,-43.500,-34.000,9.000,-52.000
2.657,-43.500,-33.500,9.000,-52.000
2.658,-43.000,-33.000,8.500,-52.000
2.659,-43.000,-32.500,7.500,-51.500
2.660,-43.000,-32.500,7.000,-51.500
2.661,-43.000,-32.500,6.500,-51.500
2.662,-43.000,-32.500,6.000,-51.500
2.663,-43.000,-32.500,5.000,-51.500
2.664,-43.000,-32.500,3.500,-52.000
2.665,-43.500,-33.000,3.000,-52.000
2.666,-44.000,-33.000,3.000,-52.500
2.667,-44.500,-33.500,3.500,-52.500
2.668,-44.500,-34.000,4.000,-52.500
2.669,-45.000,-34.000,4.500,-52.000
2.670,-45.000,-34.000,4.500,-52.000
2.671,-45.000,-34.000,4.500,-52.000
2.672,-45.000,-34.000,4.500,-52.000
2.673,-45.000,-34.000,3.500,-51.500
2.674,-44.500,-34.000,2.000,-51.500
2.675,-44.000,-33.500,0.000,-51.500
2.676,-44.000,-33.000,-0.500,-51.000
2.677,-43.500,-32.500,0.500,-51.000
2.678,-43.000,-32.500,3.000,-51.000
2.679,-42.500,-32.000,5.500,-50.500
2.680,-42.000,-31.500,7.500,-50.500
2.681,-41.500,-31.000,7.500,-50.000
2.682,-41.000,-30.500,6.500,-50.000
2.683,-40.500,-30.500,5.000,-50.000
2.684,-40.500,-30.000,3.500,-50.000
2.685,-40.500,-30.000,3.000,-49.500
2.686,-40.500,-30.500,3.500,-49.500
2.687,-41.000,-30.500,4.500,-49.500
2.688,-41.500,-31.000,5.500,-50.000
2.689,-41.500,-31.500,5.500,-50.000
2.690,-42.000,-32.000,5.500,-50.000
2.691,-42.500,-32.500,5.500,-50.000
2.692,-42.500,-32.500,6.500,-50.500
2.693,-43.000,-33.000,7.500,-51.000
2.694,-43.500,-33.500,8.500,-52.000
2.695,-44.000,-34.000,8.500,-53.000
2.696,-44.500,-35.000,8.500,-54.000
2.697,-45.000,-35.500,8.500,-55.000
2.698,-45.000,-35.500,8.000,-56.000
2.699,-45.500,-36.000,8.500,-57.000
2.700,-46.000,-36.500,9.500,-57.500
2.701,-46.500,-37.000,11.000,-58.000
2.702,-47.000,-37.000,12.500,-58.000
2.703,-47.500,-37.500,13.500,-58.000
2.704,-47.500,-37.500,13.500,-58.000
2.705,-48.000,-38.000,12.500,-58.000
2.706,-48.000,-38.000,10.000,-58.500
2.707,-48.000,-38.000,7.000,-58.500
2.708,-48.000,-38.500,4.000,-59.000
2.709,-47.500,-38.500,3.000,-59.000
2.710,-47.500,-38.500,3.000,-59.000
2.711,-47.000,-38.500,4.000,-59.500
2.712,-47.000,-38.000,4.000,-59.500
2.713,-47.500,-38.500,4.000,-60.000
2.714,-47.500,-38.500,3.000,-61.000
2.715,-48.000,-39.000,2.500,-61.500
2.716,-49.000,-40.000,2.500,-62.500
2.717,-49.500,-40.500,2.500,-63.000
2.718,-50.500,-41.500,3.000,-63.500
2.719,-51.500,-42.000,3.000,-64.000
2.720,-52.500,-42.500,4.000,-64.000
2.721,-54.000,-43.000,5.000,-64.000
2.722,-55.000,-44.000,6.500,-63.500
2.723,-56.500,-44.500,7.000,-63.000
2.724,-58.000,-45.500,6.000,-62.000
2.725,-60.000,-46.000,5.000,-61.000
2.726,-61.500,-47.000,3.500,-59.000
2.727,-63.000,-47.500,2.000,-56.500
2.728,-65.000,-48.000,0.500,-54.000
2.729,-66.500,-48.500,0.000,-51.000
2.730,-67.500,-48.500,0.500,-47.500
2.731,-68.500,-48.500,2.000,-43.500
2.732,-69.500,-48.000,4.500,-40.000
2.733,-70.000,-47.500,7.000,-36.500
2.734,-70.500,-47.000,8.500,-33.000
2.735,-70.500,-46.000,9.000,-30.000
2.736,-70.500,-45.500,8.500,-27.500
2.737,-70.000,-44.500,8.000,-25.000
2.738,-69.500,-43.500,7.000,-22.500
2.739,-68.500,-42.000,6.000,-20.500
2.740,-67.000,-40.500,4.500,-19.000
2.741,-65.500,-39.000,2.000,-18.000
2.742,-63.500,-37.000,1.000,-17.000
2.743,-60.500,-35.500,1.500,-16.500
2.744,-57.500,-33.500,4.000,-16.000
2.745,-54.500,-31.500,7.500,-16.000
2.746,-51.000,-29.500,11.000,-16.000
2.747,-48.000,-27.500,13.000,-16.500
2.748,-44.500,-25.500,12.500,-17.500
2.749,-41.500,-23.500,11.000,-19.000
2.750,-38.500,-22.000,9.500,-20.000
2.751,-35.500,-20.500,9.000,-21.000
2.752,-32.500,-18.500,10.000,-22.000
2.753,-30.000,-17.000,11.500,-23.000
2.754,-28.500,-16.000,12.500,-24.000
2.755,-27.500,-15.500,13.500,-25.500
2.756,-27.500,-15.500,13.500,-27.000
2.757,-28.500,-16.500,13.500,-29.500
2.758,-30.000,-18.000,13.500,-32.000
2.759,-31.500,-19.500,14.000,-34.500
2.760,-33.500,-21.000,14.000,-37.000
2.761,-34.500,-22.500,13.500,-38.500
2.762,-36.000,-23.500,12.500,-40.000
2.763,-36.500,-24.500,10.500,-41.500
2.764,-37.500,-25.500,9.000,-43.000
2.765,-38.500,-26.500,8.000,-44.000
2.766,-39.500,-27.500,7.000,-45.500
2.767,-40.500,-28.500,5.500,-46.500
2.768,-41.500,-29.500,4.000,-47.000
2.769,-42.000,-30.000,3.000,-47.500
2.770,-42.000,-30.500,2.000,-47.500
2.771,-42.000,-31.000,1.000,-47.500
2.772,-42.000,-31.000,0.500,-47.500
2.773,-41.500,-31.000,0.500,-48.000
2.774,-41.000,-31.000,1.500,-48.000
2.775,-40.500,-31.000,4.000,-48.000
2.776,-40.500,-30.500,7.000,-47.500
2.777,-40.000,-30.000,9.500,-47.500
2.778,-40.000,-30.000,10.000,-47.500
2.779,-39.500,-29.500,9.500,-47.500
2.780,-39.500,-29.000,7.500,-48.000
2.781,-39.000,-29.000,5.500,-48.000
2.782,-39.000,-28.500,4.500,-48.500
2.783,-39.000,-28.500,4.000,-49.000
2.784,-39.500,-28.500,3.500,-49.000
2.785,-39.500,-29.000,3.000,-49.500
2.786,-40.000,-29.000,2.500,-49.500
2.787,-40.500,-29.500,2.500,-50.000
2.788,-40.500,-30.000,2.500,-50.000
2.789,-40.500,-30.500,3.000,-50.000
2.790,-40.500,-31.000,3.500,-50.000
2.791,-40.500,-31.500,4.000,-50.000
2.792,-40.500,-31.500,4.000,-50.000
2.793,-40.500,-31.500,4.500,-50.000
2.794,-40.500,-31.500,5.500,-49.500
2.795,-40.500,-31.000,7.000,-49.500
2.796,-40.500,-31.000,7.500,-49.500
2.797,-40.500,-30.500,7.500,-49.500
2.798,-40.500,-30.000,6.500,-49.500
2.799,-40.000,-30.000,4.500,-49.500
2.800,-39.500,-29.500,2.500,-49.500
2.801,-39.500,-29.000,1.000,-49.500
2.802,-39.500,-29.000,-0.500,-50.000
2.803,-39.500,-29.000,-0.500,-50.000
2.804,-40.000,-29.500,0.500,-50.000
2.805,-40.000,-29.500,1.500,-50.000
2.806,-40.500,-29.500,3.000,-50.000
2.807,-41.000,-29.500,4.000,-50.000
2.808,-41.000,-30.000,5.000,-50.000
2.809,-41.000,-30.000,5.000,-50.500
2.810,-41.500,-30.500,4.500,-50.500
2.811,-41.500,-30.500,4.000,-50.500
2.812,-41.500,-31.000,3.500,-51.000
2.813,-41.500,-31.000,4.000,-51.000
2.814,-41.000,-31.000,5.500,-51.000
2.815,-41.000,-30.500,6.500,-51.500
2.816,-40.500,-30.000,7.500,-51.500
2.817,-40.000,-29.500,8.500,-51.500
2.818,-39.500,-29.000,9.000,-51.000
2.819,-39.500,-29.000,9.000,-51.000
2.820,-39.000,-28.500,8.500,-51.000
2.821,-39.000,-28.500,8.000,-50.500
2.822,-39.000,-28.500,6.000,-50.500
2.823,-39.500,-28.500,4.500,-50.500
2.824,-39.500,-28.500,3.000,-50.500
2.825,-40.000,-29.000,2.000,-50.500
2.826,-40.500,-29.500,2.000,-50.500
2.827,-40.500,-29.500,2.500,-50.500
2.828,-40.500,-30.000,3.500,-50.500
2.829,-41.000,-30.500,5.500,-50.500
2.830,-41.000,-31.000,6.500,-50.500
2.831,-41.000,-31.000,6.000,-50.500
2.832,-41.000,-31.500,4.000,-50.500
2.833,-41.000,-31.500,1.500,-50.500
2.834,-40.500,-31.500,-1.000,-50.500
2.835,-40.500,-31.500,-2.500,-50.500
2.836,-40.000,-31.000,-2.500,-50.500
2.837,-39.500,-30.500,-3.000,-50.500
2.838,-39.500,-30.000,-4.000,-50.500
2.839,-39.500,-30.000,-4.500,-50.500
2.840,-39.500,-29.500,-4.500,-50.500
2.841,-39.500,-29.500,-3.500,-51.000
2.842,-39.500,-29.500,-2.000,-51.000
2.843,-40.000,-29.500,-1.000,-51.000
2.844,-40.000,-30.000,0.000,-51.000
2.845,-40.000,-30.000,0.000,-51.000
2.846,-40.000,-30.500,0.000,-51.500
2.847,-40.500,-30.500,-1.000,-52.000
2.848,-40.500,-31.000,-2.000,-52.000
2.849,-41.000,-31.500,-2.000,-52.500
2.850,-41.000,-32.000,-2.000,-52.500
2.851,-41.000,-32.000,-1.500,-52.000
2.852,-41.000,-32.000,-1.500,-51.500
2.853,-40.500,-31.500,-2.000,-51.000
2.854,-40.000,-31.500,-2.000,-51.000
2.855,-40.000,-31.000,-1.500,-50.500
2.856,-39.500,-30.500,-1.500,-50.500
2.857,-39.500,-30.000,-2.000,-50.500
2.858,-39.500,-30.000,-3.000,-50.000
2.859,-39.500,-29.500,-4.500,-50.000
2.860,-39.500,-29.000,-5.500,-50.000
2.861,-39.500,-29.000,-7.000,-50.000
2.862,-39.500,-28.500,-7.000,-50.000
2.863,-40.000,-28.500,-7.500,-50.000
2.864,-40.000,-28.500,-7.000,-50.500
2.865,-40.500,-29.000,-6.000,-50.500
2.866,-40.500,-29.500,-4.500,-51.000
2.867,-41.000,-30.000,-2.500,-51.000
2.868,-41.000,-30.500,-0.500,-51.000
2.869,-41.500,-31.000,1.500,-51.000
2.870,-41.500,-31.500,2.500,-51.000
2.871,-41.500,-31.500,3.000,-51.000
2.872,-41.500,-31.500,2.500,-51.000
2.873,-41.500,-31.500,0.500,-51.000
2.874,-41.000,-31.500,-2.000,-51.000
2.875,-41.000,-31.000,-5.500,-51.000
2.876,-40.500,-30.500,-7.500,-51.000
2.877,-40.500,-30.000,-7.500,-50.500
2.878,-40.500,-29.500,-6.000,-50.500
2.879,-40.500,-29.500,-3.500,-50.500
2.880,-40.500,-29.000,-1.500,-50.000
2.881,-40.500,-29.000,0.000,-50.000
2.882,-40.500,-29.000,1.000,-49.500
2.883,-41.000,-29.000,0.500,-49.500
2.884,-41.000,-29.500,-0.500,-50.000
2.885,-41.500,-29.500,-1.500,-50.000
2.886,-42.000,-30.000,-2.500,-50.000
2.887,-42.500,-30.500,-3.000,-50.000
2.888,-42.500,-31.000,-3.500,-50.000
2.889,-43.000,-31.000,-3.000,-50.000
2.890,-43.000,-31.500,-2.000,-50.000
2.891,-43.000,-31.500,-1.000,-50.000
2.892,-43.000,-32.000,-0.500,-50.000
2.893,-43.000,-32.000,0.500,-50.000
2.894,-43.000,-32.000,1.500,-50.000
2.895,-42.500,-31.500,1.500,-50.000
2.896,-42.500,-31.000,1.000,-49.500
2.897,-42.000,-31.000,-0.500,-49.500
2.898,-42.000,-30.500,-2.500,-49.500
2.899,-41.500,-30.500,-4.500,-49.500
2.900,-41.500,-30.000,-6.500,-49.000
2.901,-41.000,-30.000,-7.000,-49.000
2.902,-41.000,-30.000,-6.500,-48.500
2.903,-41.000,-29.500,-5.000,-48.500
2.904,-41.000,-29.500,-3.000,-48.500
2.905,-41.500,-30.000,-1.000,-48.500
2.906,-41.500,-30.000,-0.500,-48.500
2.907,-42.000,-30.500,-0.500,-48.500
2.908,-42.500,-31.000,-1.000,-49.000
2.909,-43.000,-31.500,-1.000,-49.000
2.910,-43.500,-32.000,-2.000,-49.000
2.911,-43.500,-32.000,-3.000,-49.000
2.912,-43.000,-32.000,-4.000,-49.000
2.913,-43.000,-32.000,-5.000,-48.500
2.914,-42.500,-32.000,-6.000,-48.500
2.915,-42.000,-31.500,-6.000,-48.500
2.916,-42.000,-31.500,-5.500,-48.500
2.917,-42.000,-31.500,-4.000,-48.500
2.918,-42.000,-31.000,-2.000,-48.500
2.919,-42.000,-31.000,0.000,-48.000
2.920,-42.000,-31.000,1.000,-48.000
2.921,-42.000,-30.500,1.500,-48.000
2.922,-42.000,-30.500,2.000,-48.000
2.923,-42.500,-31.000,3.000,-48.000
2.924,-42.500,-31.000,4.000,-48.000
2.925,-43.000,-31.500,4.000,-48.000
2.926,-43.500,-32.000,4.000,-48.000
2.927,-44.000,-32.500,2.500,-48.500
2.928,-44.500,-33.000,2.000,-48.500
2.929,-45.000,-33.500,2.000,-48.500
2.930,-45.000,-34.000,3.000,-48.500
2.931,-45.000,-34.500,4.000,-48.500
2.932,-45.000,-35.000,4.500,-48.500
2.933,-45.000,-35.000,4.500,-48.500
2.934,-45.000,-34.500,5.000,-48.500
2.935,-45.000,-34.500,5.500,-48.500
2.936,-45.000,-34.000,7.000,-48.500
2.937,-44.500,-34.000,8.000,-48.500
2.938,-44.500,-33.500,8.500,-48.500
2.939,-44.500,-33.500,9.000,-48.500
2.940,-44.500,-33.500,8.500,-48.500
2.941,-45.000,-33.500,8.000,-48.500
2.942,-45.000,-34.000,7.500,-48.500
2.943,-45.500,-34.000,6.500,-48.500
2.944,-45.500,-34.000,5.000,-48.500
2.945,-46.000,-34.500,3.500,-49.000
2.946,-46.500,-34.500,2.500,-49.000
2.947,-46.500,-35.000,2.000,-49.500
2.948,-47.000,-35.500,2.500,-49.500
2.949,-47.500,-36.000,3.000,-49.500
2.950,-48.000,-36.500,3.500,-49.000
2.951,-48.000,-36.500,4.000,-49.000
2.952,-48.000,-37.000,4.500,-48.500
2.953,-47.500,-37.000,5.500,-48.500
2.954,-47.500,-37.000,6.500,-48.500
2.955,-47.500,-36.500,8.000,-48.500
2.956,-47.500,-36.500,9.500,-49.000
2.957,-48.000,-36.500,10.000,-49.000
2.958,-48.000,-36.500,9.500,-49.500
2.959,-48.500,-36.500,8.000,-49.500
2.960,-48.500,-37.000,6.000,-49.500
2.961,-48.500,-37.000,4.000,-49.500
2.962,-48.500,-37.000,2.500,-50.000
2.963,-49.000,-37.500,2.000,-50.500
2.964,-49.000,-37.500,2.000,-50.500
2.965,-49.500,-37.500,2.000,-50.500
2.966,-50.000,-38.000,3.000,-50.500
2.967,-50.500,-38.500,4.000,-51.000
2.968,-51.000,-39.500,4.500,-51.000
2.969,-51.500,-40.000,4.000,-51.000
2.970,-51.500,-40.500,3.500,-51.500
2.971,-51.500,-40.500,3.000,-51.500
2.972,-52.000,-40.500,2.000,-52.000
2.973,-51.500,-40.500,0.500,-52.000
2.974,-51.500,-40.000,-1.500,-52.000
2.975,-51.500,-40.000,-2.500,-52.000
2.976,-51.500,-39.500,-3.000,-52.000
2.977,-51.500,-39.500,-4.000,-52.000
2.978,-51.500,-39.000,-5.500,-52.000
2.979,-51.000,-38.500,-7.000,-52.500
2.980,-50.500,-38.000,-7.000,-52.500
2.981,-50.500,-37.500,-6.000,-52.500
2.982,-50.000,-37.500,-4.000,-53.000
2.983,-50.000,-37.500,-2.000,-53.000
2.984,-50.500,-38.000,0.000,-53.500
2.985,-50.500,-38.500,1.500,-54.000
2.986,-51.000,-38.500,2.000,-54.500
2.987,-51.500,-39.000,3.000,-55.500
2.988,-52.000,-39.500,3.500,-56.000
2.989,-52.500,-40.000,4.500,-56.000
2.990,-52.500,-40.000,5.000,-56.500
2.991,-52.500,-40.000,4.500,-56.500
2.992,-52.500,-40.000,3.500,-56.500
2.993,-52.000,-40.000,2.000,-56.500
2.994,-51.500,-40.000,1.000,-56.500
2.995,-51.000,-39.500,1.000,-56.500
2.996,-50.500,-39.500,2.000,-56.500
2.997,-50.000,-39.000,3.000,-57.000
2.998,-49.500,-38.500,4.000,-56.500
2.999,-49.000,-38.000,4.500,-56.500
3.000,-48.500,-37.500,5.000,-56.500
3.001,-48.500,-37.000,5.500,-56.500
3.002,-48.000,-36.500,5.500,-56.500
3.003,-48.000,-36.000,5.000,-56.500
3.004,-48.000,-36.000,5.500,-56.500
3.005,-48.000,-36.000,6.000,-56.500
3.006,-48.500,-36.500,6.000,-57.000
3.007,-48.500,-36.500,4.500,-57.000
3.008,-48.500,-36.500,2.500,-57.000
3.009,-48.500,-37.000,1.000,-57.000
3.010,-48.500,-37.000,0.000,-57.000
3.011,-48.500,-37.000,0.500,-57.000
3.012,-48.000,-37.000,2.500,-57.000
3.013,-47.500,-37.000,5.000,-57.000
3.014,-47.500,-37.000,7.500,-57.000
3.015,-47.000,-36.500,9.500,-57.000
3.016,-46.500,-36.500,11.000,-56.500
3.017,-46.500,-36.000,12.000,-56.500
3.018,-46.000,-35.500,11.500,-56.500
3.019,-45.500,-35.500,10.000,-56.500
3.020,-45.500,-35.000,7.500,-56.500
3.021,-45.000,-34.500,5.000,-56.500
3.022,-44.500,-34.500,4.000,-56.500
3.023,-44.500,-34.500,3.500,-56.500
3.024,-45.000,-35.000,3.000,-57.000
3.025,-45.000,-35.500,3.000,-57.000
3.026,-45.500,-36.500,3.500,-57.000
3.027,-46.000,-37.000,3.500,-57.500
3.028,-46.500,-37.500,3.000,-57.500
3.029,-46.500,-38.500,2.500,-57.500
3.030,-46.500,-39.000,2.000,-57.500
3.031,-46.500,-39.000,1.500,-57.500
3.032,-46.500,-39.500,0.500,-57.500
3.033,-46.500,-39.000,-1.000,-57.500
3.034,-46.500,-39.000,-3.000,-57.000
3.035,-46.000,-39.000,-5.500,-57.000
3.036,-46.000,-38.500,-7.000,-57.000
3.037,-46.000,-38.500,-7.500,-57.000
3.038,-45.500,-38.000,-7.000,-57.000
3.039,-45.000,-38.000,-6.000,-57.000
3.040,-44.500,-37.500,-4.500,-57.000
3.041,-44.500,-37.000,-3.500,-57.000
3.042,-44.000,-37.000,-2.500,-57.000
3.043,-44.500,-37.000,-2.000,-57.000
3.044,-44.500,-37.000,-2.000,-57.000
3.045,-44.500,-37.500,-1.500,-57.500
3.046,-45.000,-38.000,-0.500,-57.500
3.047,-45.500,-38.000,0.000,-57.500
3.048,-46.000,-38.500,0.000,-58.000
3.049,-46.000,-39.000,-2.000,-58.000
3.050,-46.500,-39.000,-4.500,-58.500
3.051,-47.000,-39.000,-7.500,-58.500
3.052,-47.000,-39.000,-8.500,-58.500
3.053,-47.000,-39.000,-8.500,-58.000
3.054,-46.500,-38.500,-6.500,-58.000
3.055,-46.500,-38.500,-4.500,-58.000
3.056,-46.000,-38.000,-3.000,-57.500
3.057,-45.500,-37.500,-3.000,-57.500
3.058,-45.500,-37.000,-4.000,-57.500
3.059,-45.000,-37.000,-5.500,-57.000
3.060,-45.000,-36.500,-6.000,-57.000
3.061,-44.500,-36.000,-6.000,-57.000
3.062,-45.000,-36.000,-5.000,-57.500
3.063,-45.000,-36.500,-3.500,-57.500
3.064,-45.500,-36.500,-2.500,-58.000
3.065,-45.500,-37.000,-2.500,-58.000
3.066,-45.500,-37.500,-3.000,-58.000
3.067,-45.500,-37.500,-3.000,-58.000
3.068,-46.000,-38.000,-2.500,-58.000
3.069,-46.000,-38.000,-2.500,-58.000
3.070,-46.000,-38.500,-2.000,-58.000
3.071,-46.500,-38.500,-1.000,-58.000
3.072,-46.500,-39.000,0.500,-58.000
3.073,-46.000,-39.000,2.000,-58.000
3.074,-46.000,-38.500,4.000,-57.500
3.075,-45.500,-38.500,5.000,-57.500
3.076,-45.000,-38.000,5.000,-57.500
3.077,-45.000,-37.500,3.500,-57.500
3.078,-44.500,-37.000,2.000,-57.500
3.079,-44.500,-36.500,0.000,-57.500
3.080,-45.000,-36.500,-1.500,-57.500
3.081,-45.000,-36.500,-3.500,-57.500
3.082,-45.000,-36.500,-4.500,-58.000
3.083,-45.500,-36.500,-5.000,-58.000
3.084,-45.500,-36.500,-5.500,-58.000
3.085,-46.000,-37.000,-5.500,-58.500
3.086,-46.000,-37.500,-5.500,-58.500
3.087,-46.000,-38.000,-5.500,-58.500
3.088,-46.500,-38.500,-5.000,-58.500
3.089,-46.500,-39.000,-5.000,-59.000
3.090,-47.000,-39.000,-5.500,-59.000
3.091,-47.000,-39.500,-5.500,-59.000
3.092,-47.000,-39.500,-4.500,-59.000
3.093,-47.000,-39.500,-3.500,-59.000
3.094,-47.000,-39.000,-3.000,-58.500
3.095,-46.500,-38.500,-4.000,-58.500
3.096,-46.500,-38.500,-5.500,-58.500
3.097,-46.000,-38.000,-7.500,-58.500
3.098,-46.000,-37.500,-9.500,-58.500
3.099,-46.000,-37.500,-10.500,-58.500
3.100,-46.000,-37.500,-10.500,-58.500
3.101,-46.000,-37.000,-9.500,-58.500
3.102,-46.000,-37.000,-7.500,-58.500
3.103,-46.000,-37.500,-5.500,-58.500
3.104,-46.000,-37.500,-3.000,-58.500
3.105,-46.000,-38.000,-1.500,-59.000
3.106,-46.500,-38.500,0.500,-59.000
3.107,-47.000,-39.000,2.000,-59.500
3.108,-47.500,-39.500,4.000,-59.500
3.109,-47.500,-40.000,6.000,-60.000
3.110,-47.500,-40.500,6.500,-60.000
3.111,-48.000,-41.000,6.500,-60.500
3.112,-48.000,-41.500,5.500,-60.000
3.113,-48.500,-41.500,4.500,-60.000
3.114,-48.500,-41.500,4.000,-60.000
3.115,-48.000,-41.000,3.500,-60.000
3.116,-48.000,-41.000,3.000,-59.500
3.117,-47.500,-41.000,2.000,-59.500
3.118,-47.500,-40.500,0.500,-60.000
3.119,-47.500,-40.000,-1.000,-59.500
3.120,-47.000,-40.000,-1.500,-59.500
3.121,-47.000,-39.500,-0.500,-60.000
3.122,-46.500,-39.000,1.500,-60.000
3.123,-46.000,-39.000,4.500,-60.000
3.124,-46.000,-38.500,6.500,-60.500
3.125,-46.000,-38.500,7.000,-60.500
3.126,-46.000,-38.500,6.000,-61.000
3.127,-46.500,-38.500,4.000,-61.000
3.128,-47.000,-39.000,2.500,-61.000
3.129,-47.000,-39.500,1.000,-61.000
3.130,-47.500,-40.000,-0.500,-61.000
3.131,-47.500,-40.500,-1.500,-61.500
3.132,-47.500,-40.500,-1.500,-61.500
3.133,-47.500,-41.000,-1.500,-61.500
3.134,-48.000,-41.500,-1.500,-62.000
3.135,-48.500,-41.500,-2.000,-62.500
3.136,-49.000,-42.000,-1.500,-63.000
3.137,-49.500,-42.500,0.000,-63.500
3.138,-50.000,-43.500,1.500,-64.500
3.139,-51.000,-44.000,2.000,-65.500
3.140,-51.500,-44.500,1.000,-66.000
3.141,-52.000,-45.000,0.000,-66.500
3.142,-53.000,-45.500,-1.000,-67.500
3.143,-53.500,-46.000,-1.000,-68.000
3.144,-54.000,-46.500,-0.500,-68.500
3.145,-54.500,-46.500,2.000,-68.500
3.146,-54.500,-47.000,5.000,-68.500
3.147,-54.500,-47.000,8.500,-68.500
3.148,-54.000,-47.000,10.500,-68.000
3.149,-53.500,-46.500,10.500,-67.500
3.150,-53.000,-46.500,9.500,-66.500
3.151,-52.500,-46.000,8.500,-65.500
3.152,-52.000,-45.500,9.000,-64.500
3.153,-51.000,-44.500,9.500,-63.500
3.154,-50.000,-43.500,10.500,-62.500
3.155,-49.500,-42.000,10.500,-62.000
3.156,-48.500,-41.500,10.000,-61.500
3.157,-48.500,-41.000,9.500,-61.500
3.158,-48.000,-40.500,9.000,-61.500
3.159,-48.000,-40.000,9.000,-61.500
3.160,-47.500,-40.000,9.500,-61.500
3.161,-47.500,-39.500,9.500,-62.000
3.162,-47.500,-39.500,9.000,-61.500
3.163,-47.500,-39.500,8.500,-61.500
3.164,-47.500,-39.500,7.500,-61.500
3.165,-48.000,-40.000,6.500,-61.500
3.166,-48.000,-40.000,6.000,-61.500
3.167,-48.500,-40.500,6.000,-61.500
3.168,-48.500,-41.000,7.000,-61.500
3.169,-49.000,-41.000,9.000,-62.000
3.170,-49.000,-41.500,10.500,-62.000
3.171,-49.000,-41.500,11.000,-62.000
3.172,-49.000,-41.500,11.000,-62.000
3.173,-49.000,-41.500,9.500,-62.000
3.174,-49.000,-41.500,7.000,-62.000
3.175,-49.000,-41.000,4.000,-61.500
3.176,-49.000,-40.500,0.000,-61.500
3.177,-48.500,-39.500,-4.000,-61.500
3.178,-48.000,-39.000,-6.500,-62.000
3.179,-48.000,-39.000,-7.000,-62.000
3.180,-48.000,-38.500,-6.500,-62.500
3.181,-48.000,-38.500,-5.500,-63.000
3.182,-48.000,-39.000,-4.500,-63.000
3.183,-48.000,-39.000,-3.500,-63.000
3.184,-48.000,-39.000,-3.500,-63.500
3.185,-48.000,-39.500,-3.000,-63.500
3.186,-48.500,-40.000,-3.000,-64.000
3.187,-48.500,-40.000,-3.000,-64.000
3.188,-49.000,-40.500,-3.500,-64.000
3.189,-49.000,-40.500,-5.000,-64.000
3.190,-49.000,-41.000,-7.000,-64.500
3.191,-48.500,-40.500,-8.500,-64.000
3.192,-48.500,-40.500,-9.500,-64.000
3.193,-48.500,-40.000,-9.500,-64.000
3.194,-48.000,-40.000,-9.000,-64.000
3.195,-48.000,-40.000,-9.000,-64.000
3.196,-48.500,-39.500,-9.000,-64.000
3.197,-48.500,-39.500,-7.500,-64.000
3.198,-48.500,-39.500,-5.500,-64.000
3.199,-48.500,-39.500,-3.000,-64.000
3.200,-48.500,-39.500,-1.000,-64.000
3.201,-48.500,-39.500,-0.500,-64.000
3.202,-48.500,-39.500,-1.000,-64.000
3.203,-48.500,-39.500,-3.000,-64.500
3.204,-48.500,-40.000,-5.000,-64.500
3.205,-49.000,-40.000,-7.000,-64.500
3.206,-49.500,-40.500,-8.500,-65.000
3.207,-50.000,-41.000,-8.500,-65.000
3.208,-50.000,-41.500,-8.500,-64.500
3.209,-50.500,-42.000,-8.000,-64.500
3.210,-50.500,-42.000,-7.500,-64.000
3.211,-50.500,-42.500,-7.000,-64.000
3.212,-50.500,-42.500,-6.000,-64.500
3.213,-50.500,-42.500,-5.000,-64.500
3.214,-50.500,-42.500,-3.000,-64.500
3.215,-50.500,-42.000,-1.500,-64.500
3.216,-50.500,-42.000,-1.000,-64.500
3.217,-50.000,-41.500,-2.000,-64.500
3.218,-50.000,-41.000,-3.500,-64.000
3.219,-49.500,-41.000,-6.000,-64.000
3.220,-49.500,-40.500,-9.000,-64.000
3.221,-49.500,-40.500,-10.500,-64.000
3.222,-49.000,-40.000,-11.000,-64.500
3.223,-49.000,-40.000,-10.000,-64.500
3.224,-49.500,-39.500,-9.000,-64.500
3.225,-49.500,-40.000,-8.500,-65.000
3.226,-50.000,-40.000,-8.500,-65.000
3.227,-50.500,-41.000,-9.000,-65.000
3.228,-51.000,-41.500,-8.500,-65.000
3.229,-51.500,-42.000,-7.500,-65.000
3.230,-52.000,-42.500,-6.000,-65.000
3.231,-52.000,-42.500,-4.500,-65.500
3.232,-52.000,-42.500,-2.500,-65.500
3.233,-52.500,-42.500,-0.500,-65.500
3.234,-52.000,-42.000,2.000,-65.500
3.235,-52.000,-42.000,5.000,-65.500
3.236,-52.000,-41.500,6.500,-65.500
3.237,-51.500,-41.000,6.500,-66.000
3.238,-51.500,-40.500,5.500,-66.000
3.239,-51.500,-40.500,4.500,-65.500
3.240,-51.000,-40.000,4.000,-65.500
3.241,-51.000,-40.000,4.000,-65.500
3.242,-51.000,-40.000,4.000,-65.500
3.243,-51.000,-40.500,4.500,-65.500
3.244,-51.500,-40.500,6.000,-65.500
3.245,-51.500,-41.000,8.000,-66.000
3.246,-52.000,-41.500,10.000,-66.000
3.247,-52.500,-42.000,12.000,-66.000
3.248,-53.000,-42.500,13.500,-66.000
3.249,-53.500,-42.500,13.500,-66.000
3.250,-54.000,-43.000,12.500,-65.500
3.251,-54.000,-43.000,11.000,-65.500
3.252,-54.000,-43.500,9.000,-65.500
3.253,-53.500,-43.000,7.500,-65.500
3.254,-53.000,-43.000,6.000,-65.500
3.255,-52.500,-42.500,5.500,-65.000
3.256,-52.000,-42.500,6.500,-65.000
3.257,-51.500,-42.000,8.000,-65.000
3.258,-51.500,-42.000,9.000,-65.000
3.259,-51.000,-41.500,9.000,-65.000
3.260,-51.000,-41.000,7.500,-64.500
3.261,-51.000,-41.000,5.500,-64.500
3.262,-51.000,-40.500,3.500,-64.500
3.263,-51.000,-40.500,1.500,-64.500
3.264,-51.000,-40.500,1.500,-64.500
3.265,-51.500,-40.500,4.000,-65.000
3.266,-52.000,-41.000,7.500,-65.500
3.267,-52.000,-41.500,11.500,-65.500
3.268,-52.500,-42.500,14.500,-66.000
3.269,-53.000,-43.000,15.500,-66.500
3.270,-53.500,-43.500,15.500,-66.500
3.271,-53.500,-43.500,14.500,-66.500
3.272,-54.000,-43.500,13.000,-66.500
3.273,-54.000,-43.500,12.000,-66.000
3.274,-54.000,-43.000,11.000,-66.000
3.275,-53.500,-43.000,10.000,-66.000
3.276,-53.500,-42.500,8.500,-66.000
3.277,-53.000,-42.500,6.500,-66.000
3.278,-53.000,-42.000,4.000,-66.000
3.279,-52.500,-41.500,1.000,-66.000
3.280,-52.500,-41.000,-1.500,-66.000
3.281,-52.000,-41.000,-3.000,-66.000
3.282,-52.000,-41.000,-4.000,-66.500
3.283,-51.500,-40.500,-3.500,-66.500
3.284,-51.500,-41.000,-2.500,-66.500
3.285,-52.000,-41.000,-0.500,-66.500
3.286,-52.000,-41.500,2.000,-66.500
3.287,-52.000,-42.000,4.000,-66.500
3.288,-52.500,-42.000,6.000,-66.500
3.289,-52.500,-42.500,7.500,-66.500
3.290,-53.000,-43.000,8.000,-66.500
3.291,-53.000,-43.000,8.000,-66.500
3.292,-53.500,-43.000,7.000,-66.000
3.293,-53.000,-43.000,6.500,-66.000
3.294,-53.000,-43.000,6.000,-66.000
3.295,-53.000,-43.000,5.000,-66.000
3.296,-53.000,-42.500,4.000,-66.000
3.297,-53.000,-42.000,2.500,-66.500
3.298,-53.000,-41.500,1.000,-66.500
3.299,-52.500,-41.500,-1.500,-66.500
3.300,-52.000,-41.000,-3.000,-66.500
3.301,-52.000,-41.000,-4.000,-66.500
3.302,-51.500,-41.000,-4.000,-66.500
3.303,-51.500,-41.500,-3.500,-66.500
3.304,-52.000,-41.500,-2.500,-67.000
3.305,-52.000,-41.500,-2.000,-67.000
3.306,-52.500,-42.000,-2.000,-67.000
3.307,-52.500,-42.000,-2.500,-67.000
3.308,-53.000,-42.500,-2.500,-67.000
3.309,-53.000,-42.500,-3.000,-67.000
3.310,-53.500,-43.000,-3.000,-67.000
3.311,-53.500,-43.000,-4.000,-67.000
3.312,-53.500,-43.000,-5.000,-67.000
3.313,-53.500,-43.000,-6.500,-67.000
3.314,-53.000,-42.500,-7.500,-67.000
3.315,-53.000,-42.500,-7.500,-67.000
3.316,-53.000,-42.000,-6.500,-67.000
3.317,-52.500,-42.000,-5.000,-67.000
3.318,-52.500,-41.500,-3.500,-67.000
3.319,-52.500,-41.500,-2.000,-66.500
3.320,-52.000,-41.000,0.500,-66.500
3.321,-52.000,-41.000,3.000,-66.500
3.322,-52.000,-40.500,5.500,-66.500
3.323,-52.000,-40.500,6.500,-67.000
3.324,-52.500,-40.500,7.000,-67.000
3.325,-52.500,-41.000,7.000,-67.000
3.326,-53.000,-41.000,7.000,-67.500
3.327,-53.500,-41.500,7.000,-67.500
3.328,-53.500,-42.000,7.500,-68.000
3.329,-53.500,-42.500,8.000,-68.000
3.330,-54.000,-43.000,9.500,-68.000
3.331,-54.000,-43.000,10.500,-68.000
3.332,-54.000,-43.000,11.500,-67.500
