'Elapsed time','AECG1','AECG2','AECG3','AECG4'
'seconds','uV','uV','uV','uV'
0.000,-2.500,3.000,-0.500,2.500
0.001,-22.500,23.500,-6.000,18.500
0.002,-27.000,25.500,-8.500,19.500
0.003,-31.000,24.500,-12.500,17.000
0.004,-35.000,21.000,-17.500,12.500
0.005,-39.000,16.000,-23.000,7.000
0.006,-43.000,11.000,-28.500,1.000
0.007,-46.500,7.000,-33.500,-4.000
0.008,-49.000,4.000,-37.000,-7.500
0.009,-50.000,2.000,-39.000,-9.500
0.010,-50.500,1.500,-39.500,-10.000
0.011,-49.500,2.000,-39.000,-9.500
0.012,-48.500,3.000,-38.000,-8.500
0.013,-47.500,4.500,-36.500,-7.000
0.014,-46.000,6.000,-35.000,-5.500
0.015,-45.000,7.500,-33.000,-3.500
0.016,-43.500,9.000,-30.500,-1.000
0.017,-42.500,11.000,-28.000,2.000
0.018,-41.000,13.000,-25.000,5.000
0.019,-39.500,15.500,-22.000,8.000
0.020,-38.500,17.000,-20.000,10.500
0.021,-38.500,17.000,-19.500,11.000
0.022,-39.500,16.000,-20.500,10.000
0.023,-42.000,13.000,-23.500,6.500
0.024,-45.000,9.000,-28.000,2.000
0.025,-49.000,4.500,-34.000,-4.000
0.026,-52.500,-0.500,-39.500,-10.000
0.027,-55.500,-4.500,-44.000,-14.500
0.028,-57.500,-7.000,-47.000,-17.500
0.029,-58.500,-8.000,-48.500,-19.000
0.030,-58.500,-8.500,-49.000,-19.500
0.031,-58.000,-8.000,-48.500,-19.000
0.032,-57.000,-7.000,-47.500,-18.500
0.033,-56.000,-6.000,-46.000,-17.000
0.034,-54.500,-4.500,-44.500,-15.000
0.035,-53.000,-2.500,-42.000,-13.000
0.036,-51.000,-0.500,-39.000,-10.000
0.037,-49.000,2.500,-35.500,-6.000
0.038,-47.000,5.000,-32.000,-2.000
0.039,-45.000,8.000,-28.500,1.500
0.040,-44.000,10.000,-26.000,4.500
0.041,-43.500,10.500,-25.000,5.500
0.042,-45.000,9.500,-26.000,4.500
0.043,-47.500,7.000,-29.000,1.500
0.044,-50.500,3.000,-33.000,-3.000
0.045,-54.000,-1.000,-37.500,-8.000
0.046,-57.000,-5.000,-42.000,-12.500
0.047,-59.000,-8.000,-46.000,-16.500
0.048,-60.000,-10.000,-48.000,-18.500
0.049,-60.500,-11.000,-49.000,-19.500
0.050,-60.500,-10.500,-49.000,-19.500
0.051,-60.000,-10.000,-48.500,-19.000
0.052,-59.000,-9.500,-47.500,-18.000
0.053,-58.000,-8.500,-46.500,-16.500
0.054,-57.000,-7.000,-45.000,-15.000
0.055,-56.000,-6.000,-43.000,-13.500
0.056,-55.000,-4.000,-41.000,-11.000
0.057,-53.000,-2.000,-38.500,-8.500
0.058,-51.500,0.500,-35.500,-5.000
0.059,-50.000,2.500,-33.000,-2.500
0.060,-49.500,3.500,-31.500,-1.000
0.061,-50.000,3.000,-31.500,-1.000
0.062,-52.000,1.000,-33.500,-2.500
0.063,-55.000,-2.500,-37.000,-6.000
0.064,-58.500,-7.000,-41.500,-11.000
0.065,-62.500,-12.000,-47.000,-17.000
0.066,-66.500,-17.000,-52.500,-22.500
0.067,-70.000,-21.500,-57.000,-27.000
0.068,-72.000,-24.000,-60.000,-30.000
0.069,-73.000,-25.500,-61.500,-31.500
0.070,-73.500,-26.000,-62.000,-31.500
0.071,-73.000,-25.500,-61.500,-31.000
0.072,-72.500,-25.000,-61.000,-29.500
0.073,-72.000,-24.000,-59.500,-28.000
0.074,-71.000,-23.000,-58.000,-26.000
0.075,-70.000,-21.000,-56.000,-23.500
0.076,-68.500,-19.000,-53.500,-20.000
0.077,-66.500,-16.500,-49.500,-16.000
0.078,-64.500,-13.000,-45.500,-11.000
0.079,-62.000,-10.000,-41.500,-5.500
0.080,-60.500,-7.000,-37.500,-1.000
0.081,-59.500,-5.500,-35.000,2.000
0.082,-59.500,-5.000,-34.500,3.500
0.083,-60.000,-6.000,-35.000,3.000
0.084,-61.500,-7.500,-37.000,1.500
0.085,-63.000,-9.500,-39.500,-0.500
0.086,-63.500,-10.500,-41.000,-2.000
0.087,-62.500,-10.500,-41.000,-2.000
0.088,-60.500,-9.000,-40.000,0.000
0.089,-57.500,-6.500,-37.000,3.000
0.090,-54.500,-3.500,-34.000,6.500
0.091,-51.500,-0.500,-30.500,10.000
0.092,-48.500,2.000,-27.500,13.000
0.093,-46.500,4.500,-24.500,16.000
0.094,-44.000,7.500,-21.500,19.000
0.095,-41.500,10.500,-18.000,22.500
0.096,-38.500,14.000,-14.000,26.000
0.097,-34.500,18.000,-10.000,30.000
0.098,-30.500,22.500,-5.000,34.500
0.099,-26.500,27.000,-0.500,38.500
0.100,-23.000,31.000,3.000,40.500
0.101,-21.000,33.000,5.000,41.500
0.102,-20.000,33.500,4.500,40.000
0.103,-20.500,32.500,2.500,36.500
0.104,-22.000,29.500,-1.500,31.500
0.105,-24.500,25.500,-6.500,25.000
0.106,-27.500,21.000,-12.000,18.500
0.107,-30.500,17.000,-17.000,12.500
0.108,-33.000,14.000,-20.500,8.000
0.109,-34.500,12.000,-23.000,5.000
0.110,-35.000,11.000,-24.500,3.500
0.111,-35.000,10.500,-25.000,3.000
0.112,-34.500,11.000,-24.500,3.500
0.113,-33.500,12.000,-23.500,5.000
0.114,-32.500,13.500,-21.500,6.500
0.115,-31.000,15.500,-19.500,9.000
0.116,-29.000,18.000,-17.000,12.000
0.117,-27.000,20.500,-13.500,15.500
0.118,-25.000,23.000,-10.000,19.500
0.119,-22.500,26.000,-6.500,23.500
0.120,-21.500,27.500,-4.000,26.000
0.121,-21.500,28.000,-3.500,27.000
0.122,-23.000,26.500,-5.000,25.500
0.123,-26.000,23.000,-8.500,21.500
0.124,-30.500,18.500,-14.000,16.000
0.125,-35.000,13.000,-20.000,9.500
0.126,-40.000,7.500,-26.500,3.500
0.127,-43.500,3.000,-31.500,-2.000
0.128,-46.000,-0.500,-35.500,-6.000
0.129,-47.500,-2.500,-37.500,-8.500
0.130,-48.500,-3.500,-38.500,-9.500
0.131,-48.500,-3.500,-39.000,-10.000
0.132,-48.000,-3.000,-38.500,-9.500
0.133,-47.000,-2.000,-37.000,-8.500
0.134,-46.000,-0.500,-35.500,-7.000
0.135,-44.500,1.500,-34.000,-4.500
0.136,-42.500,3.500,-31.500,-2.000
0.137,-41.000,6.000,-28.500,1.500
0.138,-38.500,8.500,-25.000,5.500
0.139,-36.500,11.500,-21.500,9.000
0.140,-35.000,13.000,-19.000,12.000
0.141,-34.500,13.500,-17.500,13.000
0.142,-35.500,12.500,-18.500,12.500
0.143,-37.500,10.000,-21.000,9.500
0.144,-41.000,6.500,-25.000,5.500
0.145,-44.500,2.500,-30.000,0.000
0.146,-48.000,-2.000,-35.000,-5.500
0.147,-51.000,-5.500,-39.500,-9.500
0.148,-52.500,-7.500,-42.000,-12.500
0.149,-53.000,-8.500,-43.500,-13.500
0.150,-52.500,-8.500,-44.000,-14.000
0.151,-51.500,-8.000,-43.000,-13.000
0.152,-50.500,-6.500,-42.000,-12.000
0.153,-49.000,-5.000,-40.000,-10.000
0.154,-48.000,-3.000,-38.500,-8.000
0.155,-46.500,-1.500,-36.500,-6.000
0.156,-45.000,1.000,-34.000,-3.500
0.157,-43.000,3.000,-31.000,-0.500
0.158,-41.500,5.500,-28.000,3.000
0.159,-39.500,7.500,-25.000,6.000
0.160,-39.000,8.500,-23.000,8.000
0.161,-39.000,8.500,-22.500,8.500
0.162,-40.500,7.000,-24.000,6.500
0.163,-43.500,4.500,-27.000,3.500
0.164,-46.500,0.500,-31.500,-1.500
0.165,-50.500,-4.500,-37.000,-7.000
0.166,-54.000,-9.000,-42.500,-12.000
0.167,-57.000,-12.500,-46.500,-16.500
0.168,-59.000,-15.500,-49.500,-19.500
0.169,-60.000,-16.500,-51.000,-21.500
0.170,-60.000,-17.000,-51.500,-22.000
0.171,-59.500,-16.500,-51.000,-21.000
0.172,-58.000,-15.000,-49.500,-20.000
0.173,-56.000,-13.000,-47.500,-17.500
0.174,-54.000,-10.500,-44.500,-14.500
0.175,-51.000,-7.500,-41.500,-11.500
0.176,-48.000,-4.000,-37.500,-7.500
0.177,-45.000,0.000,-33.000,-3.000
0.178,-41.500,4.000,-28.500,2.500
0.179,-38.500,8.000,-24.000,7.000
0.180,-36.500,10.500,-20.500,10.500
0.181,-35.500,12.000,-18.500,12.500
0.182,-35.500,11.500,-19.000,12.000
0.183,-37.000,9.500,-20.500,10.000
0.184,-39.500,6.500,-24.000,6.500
0.185,-42.500,3.000,-28.500,1.500
0.186,-45.000,-1.000,-33.000,-3.000
0.187,-47.500,-4.500,-37.000,-7.000
0.188,-49.000,-6.500,-39.500,-10.000
0.189,-49.000,-7.500,-40.500,-11.000
0.190,-48.500,-7.000,-40.500,-11.000
0.191,-47.500,-6.000,-39.500,-10.000
0.192,-46.000,-4.500,-38.000,-8.000
0.193,-44.000,-2.500,-35.500,-6.000
0.194,-42.000,0.000,-33.000,-3.000
0.195,-39.500,2.500,-30.000,0.500
0.196,-37.000,6.000,-26.500,4.000
0.197,-34.000,9.500,-22.500,8.500
0.198,-31.000,13.000,-18.000,13.000
0.199,-28.500,16.500,-14.000,17.500
0.200,-26.500,19.000,-11.000,20.500
0.201,-26.000,20.500,-9.500,22.500
0.202,-26.500,20.000,-9.500,21.500
0.203,-28.000,18.000,-12.000,19.500
0.204,-30.500,15.000,-15.500,15.500
0.205,-33.000,11.000,-19.500,11.000
0.206,-36.000,7.000,-24.500,6.000
0.207,-38.000,4.000,-28.000,2.500
0.208,-39.500,2.500,-30.500,0.000
0.209,-40.000,1.500,-32.000,-1.000
0.210,-39.500,1.500,-32.000,-1.000
0.211,-38.500,2.500,-31.000,0.500
0.212,-37.000,4.500,-29.000,2.500
0.213,-34.500,7.000,-26.500,5.000
0.214,-32.000,9.500,-23.000,8.500
0.215,-29.000,13.000,-19.500,12.500
0.216,-25.500,16.500,-15.000,17.000
0.217,-22.500,20.500,-10.500,21.500
0.218,-19.500,24.000,-6.500,26.000
0.219,-17.500,27.000,-2.500,30.000
0.220,-16.000,29.000,0.500,33.000
0.221,-16.000,29.500,1.000,34.000
0.222,-17.000,28.000,0.000,32.500
0.223,-19.500,25.500,-3.500,29.500
0.224,-23.000,21.500,-8.000,25.000
0.225,-26.500,17.000,-13.000,19.500
0.226,-30.000,12.500,-18.000,14.500
0.227,-32.500,9.000,-22.000,10.500
0.228,-34.000,6.500,-25.000,7.500
0.229,-35.000,5.500,-26.500,6.000
0.230,-35.000,5.000,-27.000,5.000
0.231,-34.500,5.000,-27.000,5.500
0.232,-34.000,5.500,-26.000,6.000
0.233,-33.000,6.500,-25.000,7.500
0.234,-32.000,8.000,-23.000,9.500
0.235,-30.000,10.500,-20.500,12.000
0.236,-28.000,13.500,-17.000,15.500
0.237,-25.500,16.500,-13.000,19.500
0.238,-22.500,20.500,-8.500,24.500
0.239,-19.500,24.000,-4.500,29.000
0.240,-17.500,27.000,-1.000,32.500
0.241,-16.500,28.000,0.500,34.000
0.242,-17.500,27.500,-0.500,33.000
0.243,-19.500,25.000,-3.000,30.000
0.244,-22.500,21.500,-7.000,26.000
0.245,-25.500,17.500,-12.000,21.000
0.246,-29.000,13.500,-16.500,16.000
0.247,-31.000,10.500,-20.000,12.500
0.248,-32.500,8.500,-22.500,10.000
0.249,-33.000,8.000,-23.500,8.500
0.250,-32.500,8.500,-23.500,8.500
0.251,-32.000,9.000,-23.000,9.000
0.252,-30.500,10.000,-21.500,10.500
0.253,-29.000,11.500,-20.000,12.000
0.254,-27.500,13.000,-18.000,14.000
0.255,-25.500,15.000,-15.000,17.000
0.256,-23.000,17.500,-11.500,20.500
0.257,-20.000,21.000,-7.500,24.500
0.258,-16.500,25.000,-2.500,29.500
0.259,-13.500,29.000,2.500,34.500
0.260,-11.000,32.000,6.000,38.500
0.261,-10.000,34.000,8.500,40.500
0.262,-10.500,33.500,8.500,40.500
0.263,-12.000,31.500,6.500,38.000
0.264,-14.500,28.500,3.000,34.500
0.265,-18.000,24.500,-1.500,30.000
0.266,-20.500,20.500,-6.000,26.000
0.267,-23.000,17.500,-9.500,22.000
0.268,-24.000,16.000,-12.000,20.000
0.269,-24.500,15.000,-13.000,19.000
0.270,-24.000,15.000,-13.000,18.500
0.271,-23.000,15.500,-12.500,19.000
0.272,-22.000,16.500,-11.500,20.500
0.273,-21.000,17.500,-10.000,21.500
0.274,-19.500,19.000,-8.500,23.500
0.275,-18.000,20.500,-6.500,25.500
0.276,-16.500,22.500,-4.500,27.500
0.277,-14.500,25.000,-2.000,30.500
0.278,-13.000,27.000,1.000,33.000
0.279,-11.500,29.000,3.000,35.000
0.280,-11.000,30.000,4.500,36.000
0.281,-11.500,29.500,4.500,36.000
0.282,-12.500,28.500,3.500,34.500
0.283,-14.500,26.000,1.000,32.000
0.284,-17.500,23.000,-2.500,28.500
0.285,-20.500,19.500,-6.500,24.000
0.286,-23.500,15.500,-10.500,20.000
0.287,-26.000,12.500,-14.000,16.500
0.288,-27.500,11.000,-16.000,14.500
0.289,-27.500,10.500,-16.500,14.500
0.290,-27.000,11.000,-16.000,15.500
0.291,-25.500,12.000,-14.500,17.500
0.292,-24.000,14.000,-12.500,19.500
0.293,-22.500,16.000,-10.500,22.500
0.294,-20.500,18.500,-7.500,25.500
0.295,-18.500,21.000,-4.500,29.000
0.296,-15.500,24.000,-1.000,32.500
0.297,-13.000,27.500,3.500,37.000
0.298,-10.000,31.000,8.000,41.500
0.299,-7.000,34.500,12.500,46.000
0.300,-5.000,37.000,15.500,49.000
0.301,-4.500,38.500,17.500,50.500
0.302,-5.000,38.000,17.000,50.500
0.303,-6.500,36.000,15.000,48.000
0.304,-9.000,33.000,11.500,44.000
0.305,-12.000,29.000,7.500,39.500
0.306,-14.500,25.500,3.000,35.000
0.307,-16.500,23.000,-1.000,31.000
0.308,-17.500,21.500,-3.000,29.000
0.309,-17.500,21.000,-3.500,28.000
0.310,-16.500,21.500,-3.500,28.500
0.311,-15.500,22.500,-2.500,29.500
0.312,-14.500,24.000,-1.500,30.500
0.313,-13.000,25.500,0.500,32.500
0.314,-11.500,27.500,3.000,35.000
0.315,-9.500,29.500,5.500,37.500
0.316,-7.500,32.500,8.500,41.000
0.317,-4.500,35.500,12.500,45.000
0.318,-2.000,39.000,16.500,49.500
0.319,0.500,42.000,20.500,53.500
0.320,2.000,44.500,23.500,56.500
0.321,2.500,45.500,25.000,58.500
0.322,2.000,45.000,25.000,58.000
0.323,0.500,43.000,22.500,55.500
0.324,-2.500,39.500,19.000,51.500
0.325,-5.500,35.500,14.000,46.500
0.326,-8.500,32.000,9.500,42.000
0.327,-10.500,29.000,6.000,38.500
0.328,-12.000,27.000,3.000,35.500
0.329,-12.500,26.000,2.000,34.500
0.330,-12.000,26.000,2.000,34.000
0.331,-10.500,26.500,3.000,35.000
0.332,-9.000,28.500,4.500,37.000
0.333,-7.000,30.500,6.500,39.000
0.334,-4.000,33.500,9.500,42.000
0.335,-1.500,36.500,13.000,45.500
0.336,2.000,40.000,17.000,49.500
0.337,5.500,44.500,22.000,54.500
0.338,9.500,49.000,27.000,60.000
0.339,13.000,53.500,32.000,65.500
0.340,16.000,57.000,36.500,70.000
0.341,17.500,59.000,38.500,72.000
0.342,17.500,59.000,39.000,72.000
0.343,16.000,57.500,37.000,70.000
0.344,13.500,54.500,33.500,66.000
0.345,10.500,51.000,29.500,61.500
0.346,7.500,47.500,25.000,57.000
0.347,6.000,44.500,22.000,53.500
0.348,5.000,43.500,20.000,51.500
0.349,5.500,43.500,19.500,51.500
0.350,6.500,44.000,20.000,52.000
0.351,8.000,45.500,21.000,53.500
0.352,10.000,47.000,23.000,55.500
0.353,12.000,49.000,25.000,58.000
0.354,14.500,51.500,28.000,61.000
0.355,17.500,54.500,32.000,64.000
0.356,20.500,58.000,36.000,68.000
0.357,24.000,62.500,40.500,72.500
0.358,27.500,66.500,45.500,77.500
0.359,30.500,70.500,50.000,82.000
0.360,33.000,73.500,54.000,86.000
0.361,34.000,75.000,55.500,87.500
0.362,33.500,74.500,55.500,87.000
0.363,32.000,72.500,53.000,84.500
0.364,29.000,69.000,49.000,80.000
0.365,25.500,65.000,44.000,74.500
0.366,22.500,60.500,39.000,69.000
0.367,19.500,57.500,34.500,65.000
0.368,18.500,55.000,32.000,62.000
0.369,18.000,54.500,31.000,61.000
0.370,18.500,54.500,31.000,61.000
0.371,20.000,55.500,32.000,62.000
0.372,21.500,57.000,33.500,64.000
0.373,23.000,59.000,35.500,66.000
0.374,25.000,60.500,38.000,68.500
0.375,26.500,62.500,40.500,71.000
0.376,29.000,65.500,44.000,74.500
0.377,31.500,69.000,48.000,79.000
0.378,34.500,72.500,52.000,83.500
0.379,37.000,76.000,56.500,87.500
0.380,38.500,78.000,59.000,90.500
0.381,38.500,78.500,60.000,91.500
0.382,37.500,77.500,58.500,90.000
0.383,35.000,74.500,55.500,87.000
0.384,31.500,71.000,51.000,82.500
0.385,28.000,66.500,46.000,77.500
0.386,25.000,62.500,41.000,72.000
0.387,22.500,59.000,36.500,67.500
0.388,20.500,56.500,33.500,64.500
0.389,20.000,55.500,32.000,63.000
0.390,20.000,55.500,32.000,62.500
0.391,21.000,56.000,32.500,63.500
0.392,22.000,57.500,34.000,65.000
0.393,24.000,59.500,36.000,67.000
0.394,26.000,61.500,38.500,69.500
0.395,28.000,64.000,41.500,72.500
0.396,31.000,67.000,45.000,76.500
0.397,34.000,70.500,49.000,80.500
0.398,37.000,74.000,53.000,85.000
0.399,39.500,77.000,57.000,89.000
0.400,41.000,79.500,60.000,92.000
0.401,41.500,80.000,61.500,93.000
0.402,41.000,79.000,60.500,92.000
0.403,38.500,76.500,58.000,89.000
0.404,35.500,73.000,53.500,84.500
0.405,32.000,68.500,48.500,79.500
0.406,28.500,64.000,43.000,74.000
0.407,25.500,60.000,39.000,69.000
0.408,23.500,57.000,35.500,65.500
0.409,22.000,55.000,33.500,63.000
0.410,21.500,54.000,32.500,62.000
0.411,21.000,53.500,32.000,62.000
0.412,21.500,54.000,32.500,62.500
0.413,22.000,54.500,33.000,63.500
0.414,23.000,55.500,34.500,65.000
0.415,24.000,57.500,36.500,67.500
0.416,26.000,59.500,39.000,70.500
0.417,28.000,62.500,42.500,74.000
0.418,31.000,66.000,46.500,78.500
0.419,33.500,69.500,50.500,82.500
0.420,35.500,72.500,54.000,86.000
0.421,36.500,73.500,55.500,87.500
0.422,36.000,73.500,55.000,87.000
0.423,34.000,71.500,53.000,84.500
0.424,31.500,68.000,49.000,80.500
0.425,28.000,64.000,44.500,75.500
0.426,24.500,60.000,39.500,70.500
0.427,22.000,56.500,35.500,66.500
0.428,20.500,54.500,33.000,63.500
0.429,19.500,53.000,31.000,62.000
0.430,19.500,53.000,30.500,61.500
0.431,20.000,53.000,31.000,62.000
0.432,21.000,54.000,32.000,63.000
0.433,22.500,55.500,33.500,64.500
0.434,24.500,57.500,35.500,67.000
0.435,26.500,59.500,38.500,69.500
0.436,29.000,62.500,41.500,73.000
0.437,32.000,66.000,46.000,77.000
0.438,35.500,70.000,50.500,82.000
0.439,38.000,73.500,54.500,86.000
0.440,40.500,76.000,58.000,89.500
0.441,41.000,77.000,59.500,91.500
0.442,41.000,76.500,59.500,91.000
0.443,39.500,75.000,57.500,89.000
0.444,37.000,72.000,54.000,85.500
0.445,34.000,68.500,49.500,81.000
0.446,31.000,64.500,45.000,76.000
0.447,28.500,61.000,41.000,72.000
0.448,27.000,58.500,38.000,69.000
0.449,26.000,57.500,36.000,67.500
0.450,25.500,57.000,35.500,66.500
0.451,26.000,57.000,35.500,66.500
0.452,26.000,57.500,35.500,67.000
0.453,26.500,58.000,36.500,67.500
0.454,27.500,59.500,37.500,69.000
0.455,29.000,61.000,40.000,71.500
0.456,31.000,63.500,43.000,74.000
0.457,33.000,66.500,46.500,78.000
0.458,36.000,70.000,50.500,82.000
0.459,38.500,73.000,54.500,86.000
0.460,40.000,75.500,58.000,89.000
0.461,41.000,76.500,59.500,90.000
0.462,40.500,76.000,59.000,89.500
0.463,38.500,74.000,56.500,87.500
0.464,35.500,70.500,53.000,83.500
0.465,32.500,66.500,48.000,78.500
0.466,29.000,62.000,43.000,73.500
0.467,26.000,58.500,38.500,69.000
0.468,24.500,56.000,35.500,66.000
0.469,23.500,54.500,34.000,64.000
0.470,23.500,54.500,33.500,63.500
0.471,24.000,55.000,33.500,64.000
0.472,24.500,56.000,34.500,65.000
0.473,26.000,57.000,36.000,66.500
0.474,27.500,59.000,38.000,68.500
0.475,29.500,61.000,40.500,71.500
0.476,31.500,64.000,44.000,75.000
0.477,34.500,67.000,47.500,79.000
0.478,37.000,70.500,51.500,83.000
0.479,39.500,73.500,55.500,87.000
0.480,41.000,76.000,58.500,90.000
0.481,41.000,76.500,59.500,91.000
0.482,40.000,75.500,59.000,90.000
0.483,37.500,73.500,56.000,87.000
0.484,34.500,69.500,52.000,82.500
0.485,31.000,65.500,47.000,77.500
0.486,28.000,61.500,42.500,72.500
0.487,25.500,58.500,39.000,69.000
0.488,24.000,56.000,36.000,66.000
0.489,23.500,55.000,35.000,65.000
0.490,23.500,55.000,34.500,64.500
0.491,24.500,56.000,35.000,65.500
0.492,25.500,57.000,36.500,66.500
0.493,26.500,58.500,38.000,68.500
0.494,28.500,60.000,40.000,71.000
0.495,30.000,62.500,43.000,73.500
0.496,32.500,65.000,46.000,77.000
0.497,35.000,68.000,49.000,80.500
0.498,37.500,71.500,53.000,84.500
0.499,39.500,74.500,56.500,88.000
0.500,41.000,76.500,59.500,91.000
0.501,42.000,77.500,60.500,92.000
0.502,41.500,77.000,60.000,92.000
0.503,40.000,75.000,58.000,89.500
0.504,37.500,72.000,54.500,86.000
0.505,34.500,68.000,50.000,81.500
0.506,31.500,64.500,45.500,76.500
0.507,29.000,61.000,42.000,72.500
0.508,27.500,59.000,39.000,70.000
0.509,26.500,58.000,37.500,68.500
0.510,26.500,57.500,37.000,67.500
0.511,27.000,58.000,37.500,68.000
0.512,28.000,59.500,38.500,69.000
0.513,29.500,61.000,40.000,71.000
0.514,31.500,63.500,42.500,73.500
0.515,33.500,66.000,45.500,76.500
0.516,36.000,69.000,48.500,80.000
0.517,39.000,72.500,52.500,84.500
0.518,42.000,76.000,57.000,88.500
0.519,45.000,79.500,61.500,93.000
0.520,47.000,82.000,64.500,96.000
0.521,48.000,83.500,66.000,97.500
0.522,47.500,83.000,66.000,97.000
0.523,46.000,81.000,63.500,94.500
0.524,43.000,78.000,60.000,90.500
0.525,40.000,74.000,55.000,85.000
0.526,36.500,69.500,50.500,80.000
0.527,34.000,66.500,46.000,76.000
0.528,32.500,64.000,43.500,73.000
0.529,31.500,63.000,42.000,72.000
0.530,31.500,63.000,41.500,72.000
0.531,32.500,63.500,41.500,72.500
0.532,33.500,64.500,42.500,74.000
0.533,35.000,66.000,44.500,75.500
0.534,37.000,68.000,46.500,78.000
0.535,39.000,70.500,49.500,80.500
0.536,41.000,73.000,53.000,83.500
0.537,43.000,76.000,56.500,87.500
0.538,45.500,79.500,60.500,91.500
0.539,47.500,82.500,64.000,95.500
0.540,49.000,84.000,66.500,98.000
0.541,49.000,84.500,67.500,99.000
0.542,47.500,83.000,66.000,97.500
0.543,45.000,80.500,63.000,94.500
0.544,41.500,76.000,58.500,89.500
0.545,37.500,71.500,53.000,83.500
0.546,34.000,67.000,47.500,78.000
0.547,31.000,63.000,43.000,73.000
0.548,28.500,60.000,39.500,69.500
0.549,27.500,58.500,37.500,67.500
0.550,27.500,58.000,36.500,66.500
0.551,27.500,57.500,36.500,66.500
0.552,27.500,58.000,36.500,66.500
0.553,28.500,58.500,37.000,67.500
0.554,29.000,59.500,38.500,69.000
0.555,30.000,60.500,40.000,70.500
0.556,31.000,62.000,42.000,72.500
0.557,32.000,64.000,44.500,75.000
0.558,34.000,66.500,47.500,78.500
0.559,35.500,69.000,50.500,81.000
0.560,36.000,70.500,52.500,83.500
0.561,36.000,71.000,53.000,84.000
0.562,34.500,69.500,51.500,82.500
0.563,32.000,67.000,48.500,79.500
0.564,29.000,63.000,44.000,75.000
0.565,25.000,58.500,39.000,69.500
0.566,22.000,54.500,34.000,64.500
0.567,19.000,51.000,30.000,60.500
0.568,17.500,48.500,27.500,57.500
0.569,17.000,47.500,26.000,56.500
0.570,17.000,47.500,25.500,56.000
0.571,18.000,48.500,26.500,57.000
0.572,19.000,49.500,27.500,58.500
0.573,20.500,51.000,29.000,60.000
0.574,22.500,53.000,31.000,62.000
0.575,24.000,55.000,33.500,64.500
0.576,26.000,57.000,36.000,67.000
0.577,28.000,59.500,39.500,70.500
0.578,30.500,62.500,43.000,74.000
0.579,32.500,65.500,47.000,77.500
0.580,34.000,67.500,49.500,80.500
0.581,34.500,68.500,51.000,81.500
0.582,33.500,68.000,50.000,81.000
0.583,31.500,65.500,47.500,78.000
0.584,28.500,62.000,43.500,74.000
0.585,25.000,57.500,38.500,68.500
0.586,21.500,53.000,33.500,63.000
0.587,19.000,49.000,29.000,58.500
0.588,17.000,46.500,26.000,55.500
0.589,16.000,45.500,24.000,54.000
0.590,16.000,45.500,24.000,54.000
0.591,17.000,46.000,24.500,54.500
0.592,18.000,47.000,25.500,55.500
0.593,19.500,48.500,27.500,57.500
0.594,20.500,50.000,29.500,59.500
0.595,22.000,52.000,31.500,61.500
0.596,24.000,54.000,34.000,64.500
0.597,25.500,56.500,37.000,67.500
0.598,27.000,58.500,40.000,70.500
0.599,28.000,60.500,42.500,73.500
0.600,28.500,62.000,44.500,75.500
0.601,28.000,61.500,44.500,75.500
0.602,26.000,60.000,43.000,74.000
0.603,23.000,56.500,39.500,70.500
0.604,19.000,52.000,35.000,65.500
0.605,15.000,47.000,29.500,59.500
0.606,11.000,42.500,24.000,53.500
0.607,7.500,38.000,19.000,48.500
0.608,5.500,35.500,15.500,45.500
0.609,4.500,33.500,13.500,43.500
0.610,4.000,33.000,12.500,42.500
0.611,4.000,33.000,12.500,42.500
0.612,4.500,34.000,13.000,43.500
0.613,5.500,35.000,14.500,45.000
0.614,7.000,37.000,16.500,46.500
0.615,9.000,39.000,19.000,49.500
0.616,11.000,41.500,21.500,52.500
0.617,13.500,44.500,25.000,56.000
0.618,16.000,48.000,29.000,60.500
0.619,18.000,51.000,33.000,64.500
0.620,20.000,53.000,36.000,67.500
0.621,20.000,53.500,37.500,68.500
0.622,19.500,52.000,36.500,67.500
0.623,17.500,49.500,34.000,65.000
0.624,14.500,46.000,30.000,60.500
0.625,11.000,41.500,24.500,55.000
0.626,7.000,37.000,19.000,49.000
0.627,4.000,32.500,14.000,43.500
0.628,1.000,29.500,9.500,39.000
0.629,-1.000,27.000,6.500,35.500
0.630,-3.000,24.500,3.500,32.500
0.631,-4.500,22.500,1.500,30.000
0.632,-6.000,21.000,-0.500,28.000
0.633,-7.000,19.500,-2.000,26.500
0.634,-7.000,19.500,-2.000,26.500
0.635,-7.000,20.000,-1.000,27.500
0.636,-6.000,21.500,1.000,29.500
0.637,-4.500,23.500,4.000,32.500
0.638,-2.500,26.000,7.500,37.000
0.639,-0.500,29.000,11.000,41.000
0.640,0.500,30.500,14.000,44.000
0.641,0.500,31.000,15.000,45.500
0.642,-0.500,30.500,14.500,45.000
0.643,-3.000,28.000,12.500,43.000
0.644,-6.000,25.000,9.000,39.500
0.645,-9.000,21.500,4.500,35.000
0.646,-12.000,18.000,0.500,31.000
0.647,-14.500,15.000,-3.500,27.000
0.648,-15.500,13.000,-5.500,24.500
0.649,-16.000,12.500,-7.000,23.500
0.650,-16.000,12.000,-7.000,23.500
0.651,-15.000,12.500,-7.000,23.500
0.652,-14.000,13.500,-6.000,24.500
0.653,-13.000,14.500,-5.000,25.500
0.654,-11.500,15.500,-3.500,27.000
0.655,-10.000,17.500,-1.500,29.500
0.656,-8.500,19.500,1.500,32.000
0.657,-6.000,22.500,5.000,35.500
0.658,-3.500,25.500,9.000,39.500
0.659,-1.500,28.500,13.000,43.000
0.660,0.000,30.500,15.500,45.500
0.661,0.500,31.500,17.000,46.500
0.662,-0.500,31.000,16.500,46.000
0.663,-2.500,28.500,14.000,43.000
0.664,-5.500,25.000,9.500,39.000
0.665,-9.500,20.500,4.500,33.500
0.666,-13.000,15.500,-0.500,28.000
0.667,-16.000,11.500,-5.500,23.000
0.668,-18.500,8.500,-9.000,19.500
0.669,-20.000,6.500,-11.500,17.000
0.670,-21.000,5.500,-12.500,15.500
0.671,-21.000,5.500,-13.000,14.500
0.672,-21.000,5.500,-13.000,15.000
0.673,-20.500,6.000,-12.000,16.000
0.674,-19.500,7.000,-11.000,17.500
0.675,-18.500,9.000,-9.000,19.500
0.676,-16.500,11.500,-6.000,22.500
0.677,-14.500,14.000,-3.000,26.000
0.678,-12.500,17.000,0.500,29.500
0.679,-11.000,19.500,3.500,32.500
0.680,-9.500,21.000,6.000,35.000
0.681,-9.500,21.500,7.000,36.000
0.682,-10.500,20.000,6.000,35.000
0.683,-13.000,17.500,3.500,32.000
0.684,-16.000,14.000,-0.500,27.500
0.685,-20.000,9.000,-6.000,22.000
0.686,-24.000,4.000,-11.500,16.500
0.687,-27.000,-0.500,-16.500,11.500
0.688,-29.500,-3.500,-20.000,8.000
0.689,-30.500,-5.000,-22.500,5.500
0.690,-31.000,-5.500,-23.500,4.500
0.691,-31.000,-5.500,-23.000,5.000
0.692,-30.000,-4.500,-22.000,6.000
0.693,-28.500,-3.000,-20.500,8.000
0.694,-26.500,-1.000,-18.000,10.500
0.695,-24.500,1.500,-15.500,13.500
0.696,-22.000,4.500,-12.000,17.000
0.697,-19.500,7.500,-8.500,20.500
0.698,-17.500,10.500,-5.000,24.500
0.699,-15.000,13.000,-1.500,28.000
0.700,-13.500,15.000,1.500,30.500
0.701,-13.500,15.500,2.500,31.500
0.702,-14.500,14.500,1.500,31.000
0.703,-17.000,12.000,-1.000,28.000
0.704,-20.500,8.500,-5.500,23.500
0.705,-24.500,4.000,-10.500,18.000
0.706,-28.000,-1.000,-16.000,13.000
0.707,-31.000,-5.000,-20.500,8.500
0.708,-33.000,-7.500,-23.500,5.000
0.709,-34.500,-9.500,-25.500,2.500
0.710,-35.000,-10.000,-26.000,1.500
0.711,-34.500,-10.000,-26.000,1.500
0.712,-34.000,-10.000,-25.500,2.000
0.713,-33.000,-9.000,-24.500,3.000
0.714,-32.000,-8.000,-23.000,4.500
0.715,-30.500,-6.000,-21.000,7.000
0.716,-29.000,-4.000,-18.500,10.000
0.717,-26.500,-1.000,-15.000,13.500
0.718,-24.000,2.500,-11.000,18.000
0.719,-21.500,6.500,-7.000,22.000
0.720,-19.000,9.000,-3.500,25.500
0.721,-18.000,11.000,-1.500,27.500
0.722,-18.000,11.000,-1.500,27.500
0.723,-19.500,9.500,-3.000,25.500
0.724,-21.500,7.000,-6.000,22.500
0.725,-24.000,3.500,-10.000,18.000
0.726,-26.500,0.500,-14.000,14.000
0.727,-28.000,-2.500,-17.500,10.500
0.728,-29.000,-4.500,-19.500,8.500
0.729,-29.000,-5.000,-20.500,7.500
0.730,-28.500,-4.500,-20.500,7.500
0.731,-27.500,-4.000,-19.500,8.500
0.732,-26.500,-2.500,-18.000,10.000
0.733,-25.000,-1.000,-16.500,11.500
0.734,-23.500,1.000,-14.500,13.500
0.735,-21.500,3.000,-12.000,16.000
0.736,-19.500,5.000,-9.500,19.000
0.737,-17.500,8.000,-6.000,22.000
0.738,-15.000,11.000,-2.500,26.000
0.739,-12.500,14.000,1.500,30.000
0.740,-11.500,16.000,4.500,33.000
0.741,-11.000,17.000,6.000,34.500
0.742,-11.500,16.500,5.500,34.000
0.743,-13.500,14.500,3.000,31.500
0.744,-16.000,11.000,-1.000,27.500
0.745,-19.500,6.500,-6.000,22.500
0.746,-23.000,2.500,-11.000,17.500
0.747,-25.500,-1.000,-15.000,13.000
0.748,-27.000,-3.000,-18.000,10.500
0.749,-27.500,-4.000,-19.000,9.000
0.750,-27.000,-3.500,-19.500,9.000
0.751,-25.500,-2.500,-18.500,10.000
0.752,-24.000,-1.000,-17.000,11.500
0.753,-22.000,1.500,-14.500,14.000
0.754,-19.500,4.000,-12.000,17.000
0.755,-17.000,6.500,-9.000,20.000
0.756,-14.500,9.000,-5.500,23.500
0.757,-12.000,12.000,-1.500,27.500
0.758,-9.500,15.500,2.500,31.500
0.759,-7.500,18.500,6.500,35.500
0.760,-6.000,20.500,9.000,38.500
0.761,-5.500,21.500,10.500,40.500
0.762,-6.000,21.000,10.500,40.000
0.763,-7.500,19.500,8.500,38.500
0.764,-9.500,17.000,5.500,35.000
0.765,-12.000,13.500,1.000,30.500
0.766,-14.500,9.500,-3.500,26.000
0.767,-16.500,6.500,-7.000,22.500
0.768,-17.500,4.500,-9.000,20.000
0.769,-17.500,4.000,-10.000,19.500
0.770,-17.000,4.000,-10.000,19.500
0.771,-15.500,5.000,-9.000,20.500
0.772,-14.000,6.500,-7.500,22.000
0.773,-13.000,8.000,-5.500,23.500
0.774,-11.500,9.500,-3.500,25.500
0.775,-10.000,11.500,-1.500,28.000
0.776,-8.500,13.500,1.000,30.500
0.777,-6.500,16.000,4.500,34.000
0.778,-4.500,19.000,8.000,38.000
0.779,-2.500,22.000,11.500,41.500
0.780,-1.000,24.500,14.500,45.000
0.781,-0.500,25.000,16.000,46.000
0.782,-1.000,24.500,15.000,45.500
0.783,-3.500,22.000,12.500,43.000
0.784,-6.500,18.500,8.500,38.500
0.785,-10.000,14.000,3.500,33.500
0.786,-13.500,10.000,-1.500,28.500
0.787,-16.000,7.000,-5.000,24.500
0.788,-17.000,5.000,-7.500,22.000
0.789,-17.000,4.500,-8.000,21.000
0.790,-16.000,5.500,-7.500,21.500
0.791,-14.000,7.000,-6.000,23.000
0.792,-12.000,9.000,-4.000,24.500
0.793,-9.500,11.500,-1.500,27.000
0.794,-7.000,14.000,2.000,30.000
0.795,-4.500,17.000,5.000,33.500
0.796,-2.000,20.500,8.500,37.500
0.797,1.000,23.500,12.500,41.500
0.798,4.000,27.000,16.500,46.000
0.799,6.500,30.000,21.000,50.500
0.800,8.500,32.500,24.000,53.500
0.801,9.000,34.000,25.500,55.500
0.802,8.500,33.500,25.500,55.000
0.803,7.000,31.500,23.500,52.500
0.804,4.500,28.500,20.000,49.000
0.805,1.500,25.000,15.500,44.000
0.806,-1.500,21.000,11.000,39.500
0.807,-4.000,18.000,7.500,35.500
0.808,-5.000,16.500,5.000,33.000
0.809,-5.500,15.500,4.000,32.000
0.810,-5.000,16.000,3.500,31.500
0.811,-4.000,16.500,4.000,32.000
0.812,-3.500,17.000,5.000,33.000
0.813,-2.000,18.000,6.000,34.000
0.814,-1.000,19.000,7.500,35.000
0.815,0.500,20.500,9.500,37.000
0.816,2.000,22.500,11.500,39.500
0.817,4.000,25.500,14.500,42.500
0.818,6.000,28.500,18.000,46.500
0.819,8.000,31.000,21.500,50.000
0.820,9.500,33.000,24.500,52.500
0.821,9.500,34.000,25.500,53.500
0.822,8.500,33.000,25.000,52.500
0.823,6.500,30.500,22.500,49.500
0.824,4.000,27.000,18.500,45.500
0.825,1.000,23.000,13.500,40.500
0.826,-2.000,19.500,9.000,35.500
0.827,-4.500,16.500,5.000,31.500
0.828,-5.500,15.000,3.000,29.000
0.829,-5.500,14.500,2.000,28.000
0.830,-5.000,15.000,2.000,28.000
0.831,-4.000,16.000,3.000,29.000
0.832,-3.000,17.000,4.500,30.500
0.833,-1.000,19.000,6.500,32.500
0.834,1.000,21.000,9.000,35.000
0.835,3.000,23.500,11.500,38.000
0.836,5.000,26.000,15.000,41.500
0.837,7.500,29.500,18.500,45.500
0.838,10.000,32.500,22.500,50.000
0.839,12.500,36.000,26.500,54.000
0.840,14.500,38.500,29.500,57.500
0.841,15.500,40.000,31.500,59.000
0.842,15.500,40.000,31.500,59.000
0.843,14.000,38.500,29.500,57.000
0.844,11.500,35.500,26.000,53.500
0.845,8.500,32.000,22.000,49.000
0.846,6.000,28.500,17.500,44.000
0.847,3.500,25.500,14.000,40.500
0.848,2.500,23.500,11.500,37.500
0.849,2.000,22.500,10.000,36.500
0.850,2.500,22.500,10.000,36.000
0.851,3.500,23.000,10.500,36.500
0.852,4.500,24.000,11.500,37.500
0.853,6.000,25.000,13.000,39.500
0.854,7.500,27.000,15.000,41.500
0.855,9.000,28.500,17.000,44.000
0.856,10.500,31.000,19.500,46.500
0.857,12.500,33.500,23.000,50.000
0.858,15.000,36.500,26.500,53.500
0.859,16.500,39.500,29.500,57.000
0.860,17.500,41.500,32.000,60.000
0.861,17.500,42.000,33.000,61.000
0.862,16.500,41.000,32.500,60.500
0.863,14.500,38.500,30.000,57.500
0.864,11.500,35.000,25.500,53.500
0.865,8.000,30.500,20.500,48.000
0.866,4.500,26.000,15.500,43.000
0.867,2.000,22.500,11.000,38.000
0.868,-0.500,19.500,7.500,34.500
0.869,-2.000,17.500,5.500,32.500
0.870,-3.000,16.000,4.000,31.000
0.871,-3.500,15.500,3.500,30.000
0.872,-3.000,15.500,3.500,30.000
0.873,-3.000,16.000,4.000,30.500
0.874,-2.000,17.000,5.000,32.000
0.875,-1.000,18.500,6.500,34.000
0.876,0.500,20.000,9.000,36.500
0.877,2.000,22.500,12.000,40.000
0.878,4.000,25.000,15.000,43.500
0.879,6.000,27.500,18.500,47.000
0.880,7.000,29.500,20.500,50.000
0.881,7.000,29.500,21.500,50.500
0.882,6.000,28.500,20.500,49.500
0.883,3.500,26.000,17.500,46.500
0.884,0.000,22.000,13.500,42.000
0.885,-4.000,17.000,8.000,36.500
0.886,-8.000,12.000,2.500,30.500
0.887,-11.500,7.500,-3.000,25.500
0.888,-14.500,4.000,-7.000,21.500
0.889,-16.500,1.500,-9.500,19.500
0.890,-17.500,0.000,-11.000,18.000
0.891,-18.000,-1.000,-11.500,18.000
0.892,-18.000,-1.000,-11.500,19.000
0.893,-17.500,-0.500,-10.500,20.500
0.894,-16.500,1.000,-9.000,22.500
0.895,-15.500,2.500,-6.500,25.500
0.896,-14.000,5.000,-3.500,29.000
0.897,-11.500,8.000,0.500,33.500
0.898,-9.000,11.500,5.000,38.500
0.899,-6.500,15.500,10.000,44.000
0.900,-4.000,18.500,14.000,48.500
0.901,-2.500,21.000,17.000,52.000
0.902,-2.000,21.500,19.000,54.000
0.903,-3.000,21.500,19.000,54.000
0.904,-4.000,20.000,17.500,53.000
0.905,-5.000,18.500,16.000,51.500
0.906,-6.000,17.500,14.500,50.000
0.907,-5.500,17.000,13.500,49.500
0.908,-4.500,18.000,14.500,50.000
0.909,-2.500,19.500,16.000,52.000
0.910,-0.500,22.000,18.500,54.500
0.911,1.500,24.000,20.500,57.000
0.912,3.000,25.500,22.000,59.500
0.913,4.500,27.500,24.000,61.500
0.914,6.000,29.500,26.000,64.000
0.915,8.000,31.500,28.500,66.500
0.916,11.000,34.500,32.000,70.000
0.917,14.000,38.500,36.000,73.500
0.918,18.000,42.000,40.000,77.000
0.919,21.000,46.000,44.000,80.500
0.920,24.000,49.000,47.000,82.000
0.921,25.500,50.500,48.500,82.000
0.922,25.000,50.000,47.500,80.000
0.923,23.500,47.500,44.000,75.000
0.924,20.000,43.000,39.000,68.500
0.925,16.000,37.500,32.000,60.500
0.926,11.000,31.000,24.500,52.000
0.927,6.000,25.000,17.000,44.000
0.928,1.500,19.500,11.000,37.000
0.929,-2.000,15.000,5.500,31.500
0.930,-5.500,11.500,1.000,27.000
0.931,-8.500,8.000,-2.500,23.500
0.932,-10.500,6.000,-5.000,21.000
0.933,-12.500,4.000,-6.500,19.500
0.934,-13.500,3.000,-7.500,19.000
0.935,-14.500,2.500,-7.500,19.000
0.936,-14.500,3.000,-7.000,19.500
0.937,-14.500,4.000,-5.500,21.500
0.938,-14.000,5.000,-3.500,24.000
0.939,-13.000,6.500,-1.000,26.500
0.940,-12.500,7.500,0.500,28.500
0.941,-13.000,7.500,1.000,28.500
0.942,-15.000,6.000,-0.500,27.000
0.943,-17.500,3.000,-3.500,24.000
0.944,-21.000,-1.500,-8.000,19.500
0.945,-25.000,-6.000,-13.000,14.500
0.946,-28.500,-10.500,-18.000,9.000
0.947,-31.500,-14.000,-22.500,5.000
0.948,-33.000,-16.000,-25.000,2.000
0.949,-33.500,-17.000,-26.500,1.000
0.950,-33.000,-17.000,-26.500,1.000
0.951,-31.500,-16.000,-25.500,2.000
0.952,-30.500,-14.500,-24.000,3.500
0.953,-28.500,-12.500,-22.000,5.500
0.954,-26.500,-10.000,-19.500,8.000
0.955,-24.000,-7.500,-17.000,10.500
0.956,-21.500,-4.500,-13.500,14.500
0.957,-18.000,-1.000,-9.500,19.000
0.958,-15.000,3.500,-4.500,24.000
0.959,-11.500,7.500,0.000,29.000
0.960,-9.000,11.000,4.000,32.500
0.961,-8.000,12.500,6.000,34.500
0.962,-8.000,12.500,6.000,34.500
0.963,-9.500,10.500,4.000,32.500
0.964,-12.000,7.000,0.500,28.500
0.965,-15.500,2.500,-4.500,23.000
0.966,-18.500,-2.000,-9.500,18.000
0.967,-21.000,-5.500,-13.500,14.000
0.968,-22.500,-7.500,-16.500,11.000
0.969,-23.000,-8.000,-17.500,10.000
0.970,-22.000,-7.500,-17.500,10.500
0.971,-21.000,-6.000,-16.500,11.500
0.972,-19.500,-4.500,-15.000,13.500
0.973,-17.500,-3.000,-13.000,15.500
0.974,-16.000,-1.500,-11.000,17.000
0.975,-14.500,0.500,-9.000,19.500
0.976,-13.000,2.500,-6.500,22.000
0.977,-11.000,5.000,-3.500,25.000
0.978,-9.000,7.500,0.000,28.000
0.979,-7.000,10.000,3.000,31.000
0.980,-6.000,11.500,5.000,33.000
0.981,-6.000,11.000,5.000,33.000
0.982,-8.000,9.000,3.000,30.500
0.983,-11.500,5.000,-1.000,26.000
0.984,-16.000,0.000,-7.000,19.500
0.985,-20.500,-6.000,-13.500,12.500
0.986,-25.000,-11.500,-20.000,5.500
0.987,-29.000,-16.000,-25.000,0.000
0.988,-31.000,-19.000,-28.500,-3.500
0.989,-31.500,-20.500,-30.000,-5.000
0.990,-31.500,-20.500,-30.000,-4.500
0.991,-31.000,-19.500,-29.000,-3.500
0.992,-30.000,-18.000,-27.500,-1.500
0.993,-28.500,-16.000,-25.500,1.500
0.994,-26.500,-14.000,-22.500,4.500
0.995,-24.500,-11.000,-19.500,8.000
0.996,-21.500,-8.000,-16.000,12.500
0.997,-18.500,-4.500,-11.500,17.000
0.998,-15.500,-0.500,-6.500,22.500
0.999,-12.000,4.000,-1.500,27.500
1.000,-9.500,7.500,3.000,32.000
1.001,-8.000,9.500,5.500,34.000
1.002,-7.500,10.000,5.500,34.500
1.003,-9.000,8.500,4.000,32.000
1.004,-12.000,5.000,0.000,28.000
1.005,-15.000,1.000,-5.000,23.000
1.006,-18.500,-3.500,-10.000,17.500
1.007,-21.500,-7.000,-14.500,13.500
1.008,-23.000,-9.000,-17.500,10.500
1.009,-23.500,-10.000,-19.000,8.500
1.010,-23.500,-9.500,-19.500,8.000
1.011,-22.000,-9.000,-19.000,8.500
1.012,-20.500,-7.500,-17.500,9.500
1.013,-18.500,-5.500,-15.500,11.500
1.014,-16.500,-3.500,-13.500,14.000
1.015,-14.500,-1.500,-11.000,17.000
1.016,-12.500,1.500,-7.500,20.000
1.017,-10.000,4.500,-4.000,23.500
1.018,-7.500,7.500,0.000,27.500
1.019,-5.500,10.500,3.500,31.000
1.020,-4.000,13.000,6.500,34.000
1.021,-3.500,14.000,8.000,35.500
1.022,-4.000,14.000,8.000,35.500
1.023,-5.500,12.000,6.000,33.500
1.024,-8.000,9.000,2.500,30.000
1.025,-11.000,5.000,-2.000,25.000
1.026,-14.000,1.000,-6.500,20.500
1.027,-16.500,-2.000,-10.500,16.500
1.028,-17.500,-4.000,-13.000,13.500
1.029,-18.000,-5.000,-14.500,12.500
1.030,-18.000,-5.000,-14.500,12.000
1.031,-17.000,-4.500,-14.000,13.000
1.032,-16.000,-3.500,-13.000,14.500
1.033,-14.000,-2.000,-11.500,16.500
1.034,-12.500,0.000,-9.500,18.500
1.035,-11.000,2.000,-7.000,21.000
1.036,-9.000,4.500,-4.000,24.000
1.037,-6.500,8.000,-0.500,28.000
1.038,-4.000,11.500,4.000,32.500
1.039,-1.500,14.500,8.000,37.000
1.040,0.500,17.500,11.000,40.500
1.041,1.500,18.500,12.500,42.000
1.042,0.500,18.000,12.000,41.000
1.043,-1.500,15.500,9.500,38.500
1.044,-5.000,12.000,5.000,34.000
1.045,-8.500,7.500,0.000,28.500
1.046,-12.000,3.000,-5.500,23.000
1.047,-15.500,-1.000,-10.000,18.000
1.048,-17.500,-4.000,-13.000,14.500
1.049,-19.000,-5.500,-15.000,12.500
1.050,-19.500,-6.500,-15.500,12.000
1.051,-19.000,-6.500,-15.500,12.000
1.052,-18.500,-5.500,-15.000,12.500
1.053,-17.500,-4.500,-14.000,14.000
1.054,-16.000,-3.500,-12.500,15.500
1.055,-15.000,-1.500,-11.000,17.500
1.056,-13.000,0.500,-8.500,20.000
1.057,-11.500,3.000,-5.500,23.000
1.058,-9.000,6.000,-2.000,27.000
1.059,-7.000,9.000,1.500,30.500
1.060,-5.500,11.500,4.500,33.500
1.061,-5.000,12.000,5.500,35.000
1.062,-6.000,11.500,5.000,34.000
1.063,-8.500,9.000,2.500,31.500
1.064,-11.500,5.000,-1.500,27.500
1.065,-14.500,1.000,-6.500,22.500
1.066,-18.000,-3.500,-11.500,17.500
1.067,-20.500,-7.000,-16.000,13.000
1.068,-22.500,-9.500,-19.000,10.500
1.069,-23.500,-11.000,-21.000,8.500
1.070,-23.500,-11.500,-22.000,8.000
1.071,-23.500,-11.500,-21.500,8.500
1.072,-22.500,-11.000,-20.500,9.500
1.073,-21.500,-9.500,-19.000,11.000
1.074,-20.000,-8.000,-17.500,13.000
1.075,-18.000,-5.500,-15.000,15.500
1.076,-16.000,-3.000,-12.000,19.000
1.077,-13.500,0.500,-8.000,23.000
1.078,-11.000,4.000,-4.000,27.000
1.079,-8.500,7.000,-0.500,30.500
1.080,-7.000,9.000,2.500,33.500
1.081,-7.000,10.000,3.500,34.500
1.082,-8.000,9.000,3.000,33.500
1.083,-10.000,7.000,0.500,31.000
1.084,-12.500,4.000,-3.500,27.000
1.085,-16.000,0.000,-8.000,22.500
1.086,-19.000,-4.000,-12.500,17.500
1.087,-21.000,-7.000,-16.500,14.000
1.088,-22.500,-9.000,-19.500,11.000
1.089,-23.500,-10.500,-21.000,9.000
1.090,-23.500,-11.000,-21.500,8.500
1.091,-23.000,-10.500,-21.500,8.500
1.092,-22.500,-10.000,-21.000,9.000
1.093,-21.500,-9.000,-19.500,10.000
1.094,-20.500,-7.500,-18.000,12.000
1.095,-19.000,-5.500,-15.500,14.000
1.096,-17.000,-3.000,-13.000,17.000
1.097,-15.000,-0.500,-9.500,20.000
1.098,-13.000,2.000,-6.500,23.500
1.099,-11.000,4.500,-3.500,27.000
1.100,-10.500,6.000,-1.500,29.000
1.101,-10.500,6.000,-1.000,30.000
1.102,-12.000,4.500,-2.000,29.000
1.103,-14.500,2.000,-4.500,26.000
1.104,-17.500,-2.000,-9.000,22.000
1.105,-21.000,-6.000,-13.500,17.000
1.106,-24.000,-10.000,-18.000,12.000
1.107,-26.000,-12.500,-21.500,8.000
1.108,-27.500,-14.500,-24.000,5.500
1.109,-27.500,-15.000,-25.000,4.500
1.110,-27.000,-14.500,-24.500,4.000
1.111,-26.500,-14.000,-24.000,4.500
1.112,-25.500,-13.000,-23.000,6.000
1.113,-24.000,-12.000,-21.500,7.500
1.114,-22.500,-10.500,-19.500,9.500
1.115,-21.000,-8.500,-17.500,12.000
1.116,-19.000,-6.000,-14.500,15.500
1.117,-16.500,-3.000,-11.000,19.500
1.118,-14.000,1.000,-6.500,23.500
1.119,-11.500,4.500,-2.500,28.000
1.120,-9.500,7.500,1.000,31.500
1.121,-8.500,8.500,3.000,33.500
1.122,-9.000,8.500,3.000,33.500
1.123,-10.500,6.500,1.500,31.000
1.124,-13.000,3.500,-2.500,27.500
1.125,-16.000,-0.500,-7.000,22.500
1.126,-19.000,-4.500,-11.500,17.500
1.127,-22.000,-8.000,-16.000,13.000
1.128,-24.000,-10.500,-19.000,10.000
1.129,-25.500,-12.500,-21.500,8.000
1.130,-26.000,-13.500,-23.000,6.500
1.131,-26.500,-14.000,-23.500,6.000
1.132,-26.500,-14.000,-23.500,6.500
1.133,-26.000,-13.500,-23.000,7.000
1.134,-25.500,-12.500,-21.500,8.500
1.135,-24.000,-11.500,-19.500,10.500
1.136,-22.000,-9.000,-17.000,13.500
1.137,-19.500,-6.500,-13.500,17.500
1.138,-17.000,-3.000,-9.000,22.000
1.139,-14.000,0.500,-5.000,26.000
1.140,-12.000,3.500,-2.000,29.500
1.141,-11.000,5.000,0.000,31.500
1.142,-11.500,5.000,0.000,31.500
1.143,-13.000,3.500,-2.000,29.500
1.144,-15.500,0.500,-5.500,25.500
1.145,-19.000,-3.500,-10.500,21.000
1.146,-22.000,-7.500,-15.000,16.000
1.147,-24.500,-10.500,-19.000,12.000
1.148,-26.000,-12.500,-21.500,9.500
1.149,-26.500,-13.500,-23.000,8.000
1.150,-26.500,-13.500,-23.500,7.500
1.151,-26.000,-13.000,-22.500,8.000
1.152,-25.000,-12.000,-21.500,9.000
1.153,-23.500,-10.500,-20.000,10.500
1.154,-22.000,-9.000,-18.000,12.500
1.155,-21.000,-7.500,-16.000,14.500
1.156,-19.500,-5.000,-13.500,17.500
1.157,-17.500,-2.500,-10.500,20.500
1.158,-15.500,0.500,-7.500,24.500
1.159,-13.000,3.500,-4.000,28.000
1.160,-11.500,5.500,-1.000,31.000
1.161,-11.000,6.500,0.500,32.500
1.162,-12.000,6.000,-0.500,31.500
1.163,-14.000,3.500,-3.000,29.000
1.164,-17.500,-0.500,-7.000,24.500
1.165,-21.000,-4.500,-12.500,19.000
1.166,-24.500,-9.000,-17.500,13.500
1.167,-28.000,-13.000,-22.500,9.000
1.168,-30.000,-16.000,-26.000,5.000
1.169,-31.500,-17.500,-28.500,3.000
1.170,-32.500,-18.500,-29.500,1.500
1.171,-32.500,-19.000,-30.000,0.500
1.172,-32.500,-19.000,-30.000,0.500
1.173,-32.000,-18.500,-29.500,1.500
1.174,-31.000,-17.500,-28.000,2.500
1.175,-29.500,-16.000,-26.500,4.500
1.176,-28.000,-14.000,-24.500,7.000
1.177,-26.000,-11.500,-21.500,10.500
1.178,-23.500,-8.500,-18.000,14.000
1.179,-21.500,-5.500,-14.500,18.000
1.180,-19.500,-3.000,-11.500,21.000
1.181,-19.000,-1.500,-10.000,23.000
1.182,-19.000,-1.500,-10.000,22.500
1.183,-20.500,-3.000,-11.500,20.500
1.184,-23.000,-6.000,-14.500,17.000
1.185,-25.500,-9.500,-19.000,12.500
1.186,-28.000,-13.500,-23.000,8.000
1.187,-30.500,-16.500,-27.000,4.000
1.188,-32.000,-19.000,-29.500,1.000
1.189,-32.500,-20.000,-31.000,-0.500
1.190,-32.500,-20.500,-31.500,-1.000
1.191,-32.500,-20.500,-31.500,-1.000
1.192,-32.000,-20.000,-31.500,-1.000
1.193,-32.000,-20.000,-31.000,0.000
1.194,-31.500,-19.500,-30.500,1.000
1.195,-31.000,-18.500,-29.500,2.000
1.196,-30.000,-17.500,-27.500,4.000
1.197,-28.500,-16.000,-25.500,6.500
1.198,-27.000,-13.500,-22.500,9.500
1.199,-25.000,-11.500,-19.500,12.500
1.200,-24.000,-10.000,-17.500,14.500
1.201,-24.000,-9.500,-16.500,15.500
1.202,-25.500,-10.500,-17.500,14.000
1.203,-28.000,-13.000,-20.000,11.500
1.204,-31.000,-17.000,-24.500,7.000
1.205,-35.000,-21.500,-29.500,1.500
1.206,-38.500,-26.000,-35.000,-4.000
1.207,-41.500,-30.000,-39.500,-9.000
1.208,-43.500,-33.000,-43.000,-12.500
1.209,-44.500,-34.500,-45.000,-14.500
1.210,-44.500,-35.000,-46.000,-15.000
1.211,-44.000,-34.500,-45.500,-15.000
1.212,-43.000,-33.500,-44.500,-14.000
1.213,-41.500,-32.000,-43.500,-12.500
1.214,-40.000,-30.500,-41.500,-10.500
1.215,-38.000,-28.500,-39.500,-8.000
1.216,-36.500,-26.500,-36.500,-5.500
1.217,-34.500,-23.500,-33.500,-2.000
1.218,-32.500,-20.500,-29.500,2.000
1.219,-30.000,-17.500,-25.500,6.000
1.220,-28.500,-15.000,-22.000,9.000
1.221,-27.500,-13.500,-20.500,11.000
1.222,-28.000,-13.500,-20.500,10.500
1.223,-29.500,-15.500,-22.500,8.500
1.224,-32.000,-19.000,-26.500,4.500
1.225,-35.500,-23.000,-31.000,-0.500
1.226,-39.000,-27.000,-36.000,-6.000
1.227,-42.000,-30.500,-40.000,-10.500
1.228,-44.000,-33.000,-43.500,-13.500
1.229,-45.000,-34.500,-45.500,-15.500
1.230,-45.500,-35.500,-46.500,-16.500
1.231,-46.000,-36.000,-47.000,-17.000
1.232,-45.500,-36.000,-47.000,-17.000
1.233,-45.000,-35.000,-46.000,-16.500
1.234,-44.000,-34.000,-45.000,-15.000
1.235,-42.500,-32.000,-42.500,-13.000
1.236,-40.000,-29.500,-39.500,-9.500
1.237,-37.500,-26.000,-36.000,-5.500
1.238,-34.500,-22.500,-31.500,-1.000
1.239,-31.500,-19.000,-27.000,3.500
1.240,-29.000,-16.000,-23.500,7.500
1.241,-27.500,-14.000,-21.000,10.000
1.242,-27.500,-13.500,-20.000,10.500
1.243,-28.000,-14.500,-21.500,9.500
1.244,-29.500,-16.500,-24.000,7.000
1.245,-32.000,-19.500,-27.500,3.000
1.246,-34.000,-22.500,-31.500,-1.000
1.247,-35.500,-25.000,-35.000,-4.500
1.248,-37.000,-27.000,-37.500,-7.000
1.249,-37.500,-28.000,-39.000,-8.500
1.250,-37.500,-29.000,-40.000,-9.500
1.251,-38.000,-29.000,-40.000,-9.500
1.252,-38.000,-29.000,-40.000,-9.500
1.253,-38.000,-29.000,-39.500,-9.000
1.254,-37.000,-28.000,-38.000,-8.000
1.255,-36.000,-26.500,-36.500,-6.000
1.256,-34.500,-24.500,-34.000,-3.500
1.257,-32.000,-21.500,-31.000,0.000
1.258,-29.500,-18.500,-27.500,4.000
1.259,-27.500,-15.500,-24.000,8.000
1.260,-26.000,-13.500,-21.000,11.000
1.261,-25.500,-12.500,-19.500,12.000
1.262,-26.500,-13.500,-20.000,12.000
1.263,-28.500,-15.500,-22.500,9.500
1.264,-31.500,-19.000,-26.000,5.500
1.265,-35.500,-23.000,-31.000,0.500
1.266,-39.000,-27.500,-36.000,-5.000
1.267,-41.500,-31.000,-40.500,-9.500
1.268,-43.500,-33.500,-44.000,-13.000
1.269,-44.500,-35.000,-46.000,-15.000
1.270,-45.000,-35.500,-47.000,-16.500
1.271,-45.000,-36.000,-47.000,-16.500
1.272,-44.500,-35.500,-46.500,-16.000
1.273,-43.500,-34.000,-45.000,-14.500
1.274,-42.000,-32.500,-43.500,-12.500
1.275,-40.500,-30.500,-41.000,-10.000
1.276,-38.000,-28.000,-38.000,-6.500
1.277,-35.500,-25.000,-34.500,-2.500
1.278,-33.000,-21.500,-30.500,2.000
1.279,-30.500,-18.500,-26.500,6.500
1.280,-29.000,-16.000,-23.500,9.500
1.281,-28.500,-15.000,-22.500,10.500
1.282,-29.000,-15.500,-22.500,10.000
1.283,-31.000,-18.000,-25.000,7.500
1.284,-33.500,-21.500,-29.000,3.500
1.285,-37.000,-25.500,-34.000,-2.000
1.286,-41.000,-30.000,-39.000,-7.500
1.287,-44.000,-34.000,-43.500,-12.500
1.288,-46.000,-37.000,-47.000,-16.000
1.289,-47.000,-38.500,-49.000,-18.000
1.290,-47.500,-39.500,-50.000,-19.000
1.291,-47.500,-39.500,-50.000,-19.000
1.292,-46.500,-38.500,-49.500,-18.000
1.293,-45.000,-37.500,-48.000,-16.000
1.294,-43.500,-35.500,-46.000,-14.000
1.295,-42.000,-33.500,-43.500,-11.500
1.296,-40.000,-31.000,-40.500,-8.500
1.297,-37.500,-28.000,-37.000,-4.500
1.298,-35.000,-24.000,-33.000,-0.500
1.299,-32.500,-21.000,-29.000,3.500
1.300,-31.000,-18.500,-26.500,6.500
1.301,-30.500,-17.500,-25.000,8.000
1.302,-31.500,-18.500,-25.500,7.000
1.303,-33.500,-21.000,-28.500,4.000
1.304,-37.000,-25.000,-32.500,-0.500
1.305,-41.000,-30.000,-38.000,-6.500
1.306,-45.000,-34.500,-43.500,-12.000
1.307,-48.000,-39.000,-48.500,-17.000
1.308,-50.000,-41.500,-51.500,-20.500
1.309,-51.000,-43.000,-53.500,-22.000
1.310,-51.500,-43.500,-54.000,-23.000
1.311,-51.500,-44.000,-54.500,-23.000
1.312,-51.500,-43.500,-54.000,-22.500
1.313,-50.500,-42.500,-53.000,-21.000
1.314,-49.500,-41.000,-51.500,-19.500
1.315,-48.000,-39.500,-49.500,-17.000
1.316,-46.000,-37.500,-47.000,-14.500
1.317,-44.000,-35.000,-44.000,-11.000
1.318,-41.500,-32.000,-40.500,-7.000
1.319,-39.500,-29.500,-37.500,-3.500
1.320,-38.000,-27.500,-35.000,-0.500
1.321,-38.000,-27.000,-33.500,0.500
1.322,-39.000,-28.000,-34.500,-0.500
1.323,-41.000,-30.500,-37.000,-3.000
1.324,-44.000,-34.000,-41.000,-7.500
1.325,-47.500,-38.500,-45.500,-12.500
1.326,-51.500,-43.500,-51.000,-18.000
1.327,-54.000,-47.000,-55.500,-22.500
1.328,-56.000,-49.500,-58.500,-26.000
1.329,-56.500,-51.000,-60.000,-28.000
1.330,-56.000,-51.000,-60.500,-28.500
1.331,-55.500,-50.500,-60.500,-28.500
1.332,-54.500,-50.000,-60.000,-28.000
1.333,-54.000,-49.500,-59.000,-27.500
1.334,-53.000,-48.500,-58.000,-26.500
1.335,-51.500,-47.000,-57.000,-25.000
1.336,-50.500,-45.500,-55.000,-23.500
1.337,-48.500,-43.500,-52.500,-20.500
1.338,-46.000,-41.000,-49.000,-17.000
1.339,-44.000,-38.000,-45.500,-13.500
1.340,-42.000,-35.500,-42.000,-10.000
1.341,-41.000,-33.500,-39.500,-7.500
1.342,-40.500,-33.000,-38.500,-6.500
1.343,-41.000,-34.000,-39.000,-7.500
1.344,-43.000,-36.000,-41.500,-9.500
1.345,-45.500,-39.500,-45.500,-13.500
1.346,-48.500,-43.000,-49.500,-17.000
1.347,-50.500,-45.500,-53.000,-20.500
1.348,-52.000,-47.500,-55.000,-22.500
1.349,-52.000,-47.500,-55.500,-23.000
1.350,-51.500,-47.000,-55.500,-22.000
1.351,-50.500,-45.500,-54.000,-20.500
1.352,-49.000,-43.500,-52.500,-19.000
1.353,-47.000,-41.500,-50.000,-16.500
1.354,-45.000,-39.500,-48.000,-14.500
1.355,-43.000,-37.000,-45.000,-12.000
1.356,-41.000,-34.500,-42.000,-9.000
1.357,-38.500,-32.000,-39.000,-6.000
1.358,-36.500,-29.000,-35.000,-2.500
1.359,-34.500,-26.500,-32.000,1.000
1.360,-33.500,-24.500,-29.500,3.000
1.361,-33.500,-24.500,-29.000,3.500
1.362,-35.000,-25.500,-30.500,2.000
1.363,-38.000,-28.500,-34.000,-1.500
1.364,-41.500,-33.000,-39.000,-6.500
1.365,-45.500,-37.500,-44.500,-12.000
1.366,-49.500,-42.500,-50.000,-18.000
1.367,-52.500,-46.500,-55.000,-23.000
1.368,-55.000,-49.500,-58.500,-27.000
1.369,-56.500,-51.500,-60.500,-29.500
1.370,-57.000,-52.500,-62.000,-30.500
1.371,-57.500,-53.000,-62.500,-31.000
1.372,-57.500,-52.500,-62.000,-31.000
1.373,-56.500,-52.000,-61.000,-30.000
1.374,-55.500,-50.500,-59.500,-28.000
1.375,-54.000,-48.500,-57.000,-25.500
1.376,-52.000,-45.500,-54.000,-22.500
1.377,-49.000,-42.000,-50.000,-18.500
1.378,-45.500,-38.000,-45.500,-13.500
1.379,-43.000,-34.000,-41.000,-9.000
1.380,-40.500,-31.000,-37.500,-5.500
1.381,-40.000,-30.000,-36.000,-4.000
1.382,-40.500,-30.500,-36.500,-4.500
1.383,-43.000,-33.000,-39.000,-7.500
1.384,-46.000,-37.000,-43.500,-12.000
1.385,-50.000,-41.500,-49.000,-18.000
1.386,-54.000,-46.500,-54.500,-24.000
1.387,-57.500,-51.000,-59.500,-29.000
1.388,-60.000,-54.000,-62.500,-32.500
1.389,-61.000,-55.500,-64.500,-34.500
1.390,-61.000,-55.500,-65.000,-35.000
1.391,-60.000,-55.000,-64.500,-34.500
1.392,-58.500,-53.500,-63.000,-33.000
1.393,-56.500,-52.000,-61.000,-31.000
1.394,-54.500,-49.500,-58.500,-28.500
1.395,-52.000,-47.000,-56.000,-26.000
1.396,-50.000,-44.500,-53.000,-23.000
1.397,-48.000,-41.500,-49.500,-19.000
1.398,-45.500,-38.000,-45.500,-15.000
1.399,-43.500,-35.500,-42.000,-11.000
1.400,-42.500,-33.000,-39.500,-8.500
1.401,-42.000,-32.500,-38.000,-7.000
1.402,-43.000,-33.000,-39.000,-7.500
1.403,-45.000,-35.000,-41.500,-10.000
1.404,-48.000,-38.500,-45.500,-14.500
1.405,-51.500,-42.500,-50.500,-19.500
1.406,-55.000,-46.500,-56.000,-25.000
1.407,-58.000,-50.000,-60.000,-29.500
1.408,-59.500,-52.500,-63.500,-32.500
1.409,-60.500,-53.500,-65.000,-34.500
1.410,-60.500,-54.000,-65.500,-34.500
1.411,-60.000,-53.500,-65.000,-34.000
1.412,-58.500,-52.000,-64.000,-32.500
1.413,-57.500,-50.500,-62.000,-31.000
1.414,-55.500,-48.500,-60.000,-28.500
1.415,-53.000,-45.500,-57.000,-26.000
1.416,-50.500,-42.500,-53.500,-22.500
1.417,-47.500,-39.000,-49.000,-18.500
1.418,-44.500,-35.000,-44.500,-13.500
1.419,-41.500,-31.000,-40.000,-9.000
1.420,-39.000,-27.500,-36.500,-5.000
1.421,-38.000,-25.500,-34.000,-2.500
1.422,-38.000,-25.500,-34.000,-2.500
1.423,-39.500,-27.000,-35.500,-4.000
1.424,-42.000,-30.000,-39.000,-8.000
1.425,-45.500,-34.000,-43.500,-12.500
1.426,-49.000,-38.500,-48.500,-18.000
1.427,-52.500,-42.500,-53.000,-23.000
1.428,-54.500,-45.000,-56.500,-26.500
1.429,-56.000,-47.000,-58.500,-28.500
1.430,-56.000,-47.500,-59.500,-29.500
1.431,-56.000,-47.500,-60.000,-30.000
1.432,-55.500,-47.500,-59.500,-29.500
1.433,-55.000,-47.000,-59.000,-29.000
1.434,-54.500,-45.500,-58.000,-27.500
1.435,-53.000,-44.000,-56.000,-25.500
1.436,-51.000,-41.500,-53.000,-22.500
1.437,-48.500,-38.500,-49.000,-19.000
1.438,-45.500,-35.000,-45.000,-14.500
1.439,-42.500,-31.000,-40.500,-10.000
1.440,-40.500,-28.000,-37.000,-6.000
1.441,-39.000,-26.500,-34.500,-4.000
1.442,-38.500,-26.000,-34.500,-3.500
1.443,-40.000,-27.500,-36.500,-5.500
1.444,-42.500,-30.500,-39.500,-9.000
1.445,-45.000,-34.000,-44.000,-13.000
1.446,-47.500,-37.500,-48.000,-17.500
1.447,-49.500,-40.500,-51.500,-21.500
1.448,-51.000,-42.000,-54.000,-24.000
1.449,-51.000,-43.000,-55.500,-25.000
1.450,-50.500,-42.500,-55.000,-25.000
1.451,-49.500,-41.500,-54.000,-24.000
1.452,-47.500,-40.000,-52.500,-22.000
1.453,-45.500,-37.500,-50.000,-20.000
1.454,-43.000,-35.000,-47.500,-17.000
1.455,-40.500,-32.000,-44.000,-13.500
1.456,-37.000,-28.500,-40.000,-9.000
1.457,-33.500,-24.500,-35.500,-4.000
1.458,-30.000,-20.000,-30.000,1.500
1.459,-26.000,-15.500,-25.000,7.000
1.460,-23.000,-12.000,-20.500,11.500
1.461,-21.500,-9.500,-18.000,14.000
1.462,-21.000,-9.000,-17.000,15.000
1.463,-21.500,-10.000,-18.500,13.500
1.464,-23.500,-12.500,-21.500,10.000
1.465,-26.500,-16.000,-26.000,6.000
1.466,-29.000,-19.500,-30.500,1.000
1.467,-31.500,-23.000,-34.000,-3.000
1.468,-33.000,-25.000,-37.000,-6.000
1.469,-33.500,-25.500,-38.000,-7.000
1.470,-33.000,-25.500,-38.000,-7.000
1.471,-32.000,-25.000,-37.500,-6.500
1.472,-30.500,-24.000,-36.000,-5.000
1.473,-29.000,-22.500,-34.000,-3.000
1.474,-27.500,-20.500,-32.000,-0.500
1.475,-25.500,-18.000,-29.500,2.500
1.476,-23.000,-15.000,-26.500,5.500
1.477,-20.000,-12.000,-22.500,9.500
1.478,-17.000,-8.000,-18.000,14.000
1.479,-14.500,-4.500,-14.000,18.000
1.480,-12.000,-2.000,-10.500,21.500
1.481,-11.000,-0.500,-9.000,23.500
1.482,-11.500,-1.000,-8.500,23.500
1.483,-13.000,-2.500,-10.500,22.000
1.484,-15.000,-5.500,-13.500,19.000
1.485,-17.500,-9.000,-17.500,15.000
1.486,-20.000,-12.500,-22.000,10.500
1.487,-22.000,-15.000,-25.500,7.000
1.488,-23.000,-16.500,-27.500,4.500
1.489,-23.000,-17.000,-28.500,3.500
1.490,-22.000,-16.500,-28.500,4.000
1.491,-21.000,-15.500,-27.500,5.000
1.492,-19.500,-13.500,-26.000,6.500
1.493,-17.500,-11.500,-23.500,9.000
1.494,-15.000,-9.000,-21.000,11.500
1.495,-12.500,-6.500,-17.500,15.000
1.496,-9.500,-3.000,-14.000,19.000
1.497,-6.500,1.000,-9.500,23.500
1.498,-2.500,5.000,-4.500,28.500
1.499,1.000,9.000,0.500,33.500
1.500,3.500,12.000,4.500,37.000
1.501,5.000,14.000,6.500,39.500
1.502,4.500,13.500,6.500,39.500
1.503,3.000,12.000,5.000,37.500
1.504,0.500,9.000,1.500,33.500
1.505,-3.000,5.000,-3.500,29.000
1.506,-6.000,1.000,-8.000,24.500
1.507,-8.500,-2.500,-12.500,20.000
1.508,-10.500,-5.000,-16.000,16.500
1.509,-11.500,-6.500,-18.000,14.500
1.510,-11.500,-7.000,-18.500,14.000
1.511,-11.000,-6.500,-18.000,14.500
1.512,-10.000,-5.000,-17.000,16.000
1.513,-8.000,-3.000,-15.000,18.000
1.514,-6.000,-1.000,-12.000,21.000
1.515,-3.500,2.000,-9.000,24.000
1.516,-0.500,5.000,-5.500,27.500
1.517,2.500,8.500,-2.000,32.000
1.518,5.000,12.000,2.500,36.500
1.519,8.000,15.000,6.500,40.500
1.520,10.000,17.500,10.000,44.000
1.521,10.500,18.500,11.500,45.500
1.522,10.000,18.000,11.000,45.000
1.523,8.500,16.000,9.000,42.500
1.524,5.500,13.000,5.000,39.000
1.525,2.500,9.000,0.500,34.000
1.526,-1.000,4.500,-4.500,29.000
1.527,-4.000,0.500,-9.000,24.000
1.528,-6.000,-2.000,-12.000,21.000
1.529,-7.000,-3.500,-14.000,19.000
1.530,-7.000,-3.500,-14.500,18.500
1.531,-6.000,-3.000,-14.000,19.000
1.532,-5.000,-1.500,-12.500,20.000
1.533,-3.500,0.000,-11.000,22.000
1.534,-2.000,2.000,-8.500,24.000
1.535,0.000,4.500,-6.500,26.500
1.536,2.500,7.000,-3.000,30.000
1.537,5.000,10.000,0.500,33.500
1.538,7.500,13.000,4.500,37.500
1.539,10.000,16.000,8.500,41.500
1.540,12.000,18.000,11.500,45.000
1.541,13.000,19.500,13.000,46.500
1.542,12.500,19.000,12.500,46.500
1.543,11.000,17.500,11.000,45.000
1.544,9.000,15.000,7.500,42.000
1.545,6.500,11.500,3.500,38.000
1.546,4.000,8.000,-1.000,34.000
1.547,1.500,4.500,-5.000,30.000
1.548,0.000,2.500,-7.500,27.000
1.549,-0.500,1.000,-9.500,25.500
1.550,-0.500,1.000,-9.500,25.000
1.551,0.000,1.000,-9.500,25.500
1.552,1.000,2.000,-8.500,26.000
1.553,2.000,3.000,-7.500,27.500
1.554,3.000,4.500,-5.500,29.000
1.555,4.500,6.000,-3.500,31.000
1.556,6.500,8.500,-1.000,34.000
1.557,8.500,11.000,2.500,37.500
1.558,11.500,14.500,6.500,41.500
1.559,14.000,18.000,11.000,46.000
1.560,16.500,20.500,14.500,50.000
1.561,17.500,22.000,16.500,52.000
1.562,17.500,22.000,16.500,52.000
1.563,16.000,20.000,14.500,50.000
1.564,13.500,17.500,11.500,46.500
1.565,10.500,13.500,7.000,42.000
1.566,7.500,10.000,2.500,37.000
1.567,5.500,7.000,-2.000,33.000
1.568,4.000,4.500,-4.500,30.000
1.569,3.000,3.500,-6.000,28.500
1.570,3.000,3.000,-7.000,28.000
1.571,3.500,3.500,-6.500,28.000
1.572,4.500,4.000,-6.000,29.000
1.573,6.000,5.000,-4.500,30.000
1.574,7.500,7.000,-2.500,32.000
1.575,9.500,9.000,0.500,35.000
1.576,11.500,11.500,3.500,38.000
1.577,14.000,15.000,7.000,41.500
1.578,16.500,18.000,10.500,45.500
1.579,19.000,21.000,14.500,49.500
1.580,20.500,23.500,17.500,52.500
1.581,20.500,24.500,19.000,54.000
1.582,19.500,23.500,18.000,53.000
1.583,17.000,21.000,15.500,50.500
1.584,14.000,17.000,11.000,46.000
1.585,10.000,12.500,6.000,40.500
1.586,6.500,8.000,0.500,35.000
1.587,3.500,4.500,-4.000,30.500
1.588,2.000,1.500,-7.500,27.000
1.589,1.000,0.500,-9.000,25.000
1.590,1.000,0.000,-9.500,24.000
1.591,1.500,0.500,-9.500,24.000
1.592,2.000,0.500,-9.000,25.000
1.593,3.000,1.500,-8.000,26.000
1.594,4.000,2.500,-7.000,27.500
1.595,5.000,4.000,-5.000,29.500
1.596,6.500,5.500,-2.500,31.500
1.597,8.500,8.000,0.500,35.000
1.598,10.500,11.000,4.500,38.500
1.599,13.000,14.000,8.000,42.500
1.600,15.000,16.500,11.000,45.500
1.601,15.500,17.500,12.500,47.500
1.602,15.500,17.500,12.500,47.000
1.603,13.500,15.500,10.000,45.000
1.604,10.500,12.000,6.500,41.000
1.605,7.500,8.000,1.500,36.000
1.606,4.500,4.000,-3.500,31.000
1.607,2.000,1.000,-7.500,27.000
1.608,0.500,-1.500,-10.500,24.000
1.609,0.000,-2.500,-12.000,22.500
1.610,0.000,-3.000,-12.500,22.500
1.611,0.500,-3.000,-12.000,22.500
1.612,1.000,-2.500,-11.500,23.000
1.613,1.500,-2.000,-11.000,23.500
1.614,2.000,-1.500,-10.000,24.500
1.615,3.000,-0.500,-9.000,26.000
1.616,4.000,1.000,-7.000,28.000
1.617,5.000,3.000,-5.000,30.500
1.618,6.500,5.000,-2.000,33.500
1.619,8.000,7.500,1.000,37.000
1.620,9.000,9.000,3.500,39.500
1.621,9.000,10.000,5.000,41.000
1.622,8.000,9.000,4.500,40.000
1.623,6.000,7.000,2.000,37.500
1.624,3.000,3.000,-2.000,33.000
1.625,-0.500,-1.000,-7.000,28.000
1.626,-4.000,-5.500,-12.000,23.000
1.627,-6.500,-8.500,-16.000,18.500
1.628,-8.000,-11.000,-19.000,15.500
1.629,-8.500,-12.000,-20.500,14.500
1.630,-8.000,-12.000,-21.000,14.000
1.631,-7.500,-11.500,-20.500,14.500
1.632,-6.500,-10.500,-19.500,15.500
1.633,-5.500,-9.000,-18.000,17.000
1.634,-4.000,-7.500,-16.000,19.000
1.635,-2.000,-5.500,-13.500,21.000
1.636,-0.500,-3.000,-11.000,24.000
1.637,1.500,-1.000,-8.000,27.000
1.638,3.500,2.000,-4.500,30.500
1.639,5.500,4.500,-1.500,34.000
1.640,6.500,6.000,1.500,36.500
1.641,6.500,6.500,2.500,37.500
1.642,5.000,5.000,1.500,36.500
1.643,3.000,2.500,-1.000,34.000
1.644,-0.500,-1.500,-5.500,30.000
1.645,-4.000,-5.500,-10.500,24.500
1.646,-7.500,-10.000,-15.500,19.500
1.647,-10.000,-13.500,-20.000,15.000
1.648,-12.000,-16.000,-23.500,11.500
1.649,-13.000,-17.000,-25.500,9.500
1.650,-13.000,-17.500,-26.000,8.500
1.651,-13.000,-17.500,-26.000,8.500
1.652,-12.000,-16.500,-25.500,9.500
1.653,-10.500,-15.000,-24.000,11.000
1.654,-9.000,-13.500,-22.000,13.000
1.655,-7.000,-11.000,-19.500,15.500
1.656,-4.500,-8.500,-16.500,18.500
1.657,-2.000,-5.500,-13.000,22.500
1.658,0.500,-2.000,-8.500,26.500
1.659,3.500,1.500,-4.500,31.000
1.660,5.500,4.000,-1.000,34.500
1.661,6.500,5.500,1.000,36.500
1.662,6.500,5.500,1.000,36.500
1.663,5.000,4.000,-1.000,34.500
1.664,2.500,1.500,-4.000,31.000
1.665,0.000,-2.500,-8.500,26.500
1.666,-3.000,-6.000,-13.000,22.000
1.667,-5.000,-9.000,-17.000,18.000
1.668,-6.500,-11.500,-19.500,15.000
1.669,-7.000,-12.500,-21.000,13.500
1.670,-6.500,-13.000,-21.500,13.000
1.671,-5.500,-12.500,-20.500,14.000
1.672,-4.500,-11.000,-19.500,15.500
1.673,-3.000,-9.500,-17.500,17.000
1.674,-1.000,-7.500,-15.500,19.500
1.675,1.500,-5.000,-12.500,22.500
1.676,4.000,-2.000,-9.000,26.000
1.677,6.500,1.500,-5.500,30.000
1.678,9.000,4.500,-1.500,34.500
1.679,11.500,7.500,3.000,38.500
1.680,13.000,10.000,5.500,41.500
1.681,13.500,11.000,7.000,42.500
1.682,12.500,10.500,6.500,42.000
1.683,10.500,8.000,4.000,39.000
1.684,7.500,4.500,-0.500,34.000
1.685,3.500,-0.500,-6.500,28.000
1.686,-0.500,-6.000,-12.500,22.000
1.687,-4.000,-10.500,-18.500,16.000
1.688,-7.000,-14.500,-23.000,11.000
1.689,-8.500,-17.000,-25.500,7.500
1.690,-9.000,-18.500,-27.000,6.000
1.691,-8.500,-18.500,-27.000,5.500
1.692,-7.500,-17.500,-26.000,6.500
1.693,-5.500,-15.500,-23.500,9.000
1.694,-2.500,-12.500,-20.000,12.500
1.695,1.000,-8.500,-16.000,17.000
1.696,4.000,-5.000,-12.000,21.500
1.697,7.500,-1.000,-7.000,26.500
1.698,11.000,3.500,-2.000,32.000
1.699,14.000,7.500,3.000,37.000
1.700,16.000,10.500,7.000,41.500
1.701,17.500,12.500,9.500,44.000
1.702,17.500,13.000,10.000,45.000
1.703,16.500,12.000,8.500,44.000
1.704,14.500,9.500,5.500,41.500
1.705,11.500,6.000,1.500,37.500
1.706,9.000,3.000,-3.000,33.000
1.707,6.500,0.000,-7.000,29.000
1.708,5.000,-2.500,-9.500,26.500
1.709,4.500,-3.500,-11.500,24.500
1.710,5.000,-4.000,-12.000,24.000
1.711,5.500,-3.500,-11.500,24.500
1.712,6.500,-2.500,-10.500,25.500
1.713,8.000,-1.000,-9.000,27.000
1.714,10.000,1.000,-7.000,28.500
1.715,12.000,3.500,-4.500,31.500
1.716,14.500,6.500,-1.000,34.500
1.717,17.500,9.500,3.000,38.500
1.718,20.500,13.500,7.500,43.000
1.719,23.500,16.500,11.500,47.000
1.720,25.500,19.000,14.500,50.000
1.721,26.000,20.000,16.000,51.500
1.722,25.000,19.500,16.000,50.500
1.723,23.000,17.500,13.500,48.000
1.724,20.000,14.000,9.500,44.000
1.725,16.500,10.000,4.500,39.000
1.726,13.000,5.500,-0.500,34.000
1.727,10.500,2.000,-5.000,29.500
1.728,8.500,-1.000,-8.500,26.000
1.729,7.000,-2.500,-11.000,24.000
1.730,6.500,-3.500,-12.000,23.000
1.731,6.000,-4.000,-12.000,23.000
1.732,6.500,-3.500,-11.500,23.500
1.733,7.000,-2.500,-10.500,25.000
1.734,8.000,-1.500,-9.000,27.000
1.735,9.500,0.500,-7.000,29.500
1.736,11.500,2.500,-4.000,32.500
1.737,13.000,5.000,-1.000,36.500
1.738,15.500,8.000,3.000,40.500
1.739,17.000,10.500,6.500,44.500
1.740,18.500,12.500,9.500,48.000
1.741,19.000,13.500,11.500,50.500
1.742,18.500,13.500,11.500,51.000
1.743,17.000,11.500,10.000,49.500
1.744,14.500,9.000,7.000,47.000
1.745,12.000,5.500,3.500,43.500
1.746,9.000,2.000,0.000,40.000
1.747,7.000,-0.500,-3.000,37.500
1.748,6.000,-1.500,-4.500,36.500
1.749,7.000,-1.000,-4.000,37.000
1.750,9.500,1.500,-1.500,40.000
1.751,13.000,5.500,2.000,44.000
1.752,17.000,9.500,6.500,49.000
1.753,21.500,14.000,11.500,54.500
1.754,25.500,18.500,16.000,59.500
1.755,29.500,22.500,21.000,64.500
1.756,33.000,27.000,26.000,69.500
1.757,36.500,31.000,31.000,74.500
1.758,40.000,35.500,36.000,79.500
1.759,43.500,39.500,40.500,84.000
1.760,46.000,43.000,44.500,88.000
1.761,48.000,45.500,47.000,89.500
1.762,49.000,46.000,47.500,89.500
1.763,48.500,45.500,46.500,87.500
1.764,47.500,43.500,43.500,83.500
1.765,46.000,40.500,39.500,78.500
1.766,44.000,37.000,35.000,72.500
1.767,42.000,34.000,30.000,67.000
1.768,40.500,31.500,26.000,62.000
1.769,39.000,29.500,23.000,58.000
1.770,38.000,27.500,20.000,55.000
1.771,36.500,25.500,18.000,52.000
1.772,35.500,24.000,16.000,49.500
1.773,34.500,22.500,14.000,47.500
1.774,33.500,21.500,13.000,46.000
1.775,33.000,21.000,12.500,45.000
1.776,32.000,20.500,12.500,45.000
1.777,31.500,21.000,13.000,46.000
1.778,31.500,21.500,14.000,47.500
1.779,31.500,22.000,15.500,49.000
1.780,31.000,22.500,16.500,50.000
1.781,29.500,22.000,16.500,50.000
1.782,27.000,19.500,14.500,48.000
1.783,23.000,15.500,10.000,43.500
1.784,18.000,10.000,4.000,38.000
1.785,12.500,3.500,-3.000,31.000
1.786,7.000,-3.000,-10.500,23.500
1.787,2.500,-8.500,-17.000,17.500
1.788,-1.000,-12.500,-21.500,12.500
1.789,-3.000,-15.000,-24.500,9.500
1.790,-4.000,-16.500,-26.000,8.000
1.791,-4.000,-17.000,-26.000,7.500
1.792,-4.000,-17.000,-26.000,7.500
1.793,-3.000,-16.000,-25.000,8.500
1.794,-2.000,-14.500,-23.500,10.000
1.795,0.000,-12.500,-21.000,12.500
1.796,2.500,-10.000,-18.000,16.000
1.797,5.000,-7.000,-14.500,20.000
1.798,8.000,-3.000,-10.000,24.500
1.799,11.000,0.500,-6.000,29.000
1.800,13.000,3.500,-2.500,32.500
1.801,14.500,5.500,0.000,34.500
1.802,14.500,6.000,0.500,35.000
1.803,13.500,4.500,-1.000,33.000
1.804,11.000,2.000,-4.500,29.500
1.805,8.500,-2.000,-8.500,25.000
1.806,6.000,-5.500,-13.000,20.000
1.807,4.000,-9.000,-17.000,16.000
1.808,3.000,-11.000,-19.500,13.500
1.809,2.500,-12.000,-21.000,12.000
1.810,3.000,-12.000,-21.000,12.000
1.811,4.000,-11.000,-20.500,13.000
1.812,5.000,-10.000,-19.500,14.000
1.813,6.000,-8.500,-18.000,15.500
1.814,7.500,-7.000,-16.500,17.500
1.815,9.000,-5.500,-14.500,19.500
1.816,10.500,-3.500,-12.500,22.000
1.817,12.000,-1.500,-9.500,25.000
1.818,13.500,1.000,-6.500,28.500
1.819,15.500,3.500,-3.500,32.000
1.820,16.500,5.500,-0.500,34.500
1.821,16.500,6.500,1.000,36.000
1.822,15.500,5.500,0.500,35.000
1.823,13.000,2.500,-2.500,32.000
1.824,9.000,-1.500,-7.000,27.500
1.825,4.500,-7.000,-13.000,21.500
1.826,0.500,-12.000,-19.000,15.500
1.827,-3.000,-16.500,-24.000,10.000
1.828,-5.500,-20.000,-27.500,6.500
1.829,-6.500,-21.500,-30.000,4.000
1.830,-7.000,-22.500,-31.000,3.000
1.831,-6.500,-22.500,-31.000,3.000
1.832,-6.500,-22.000,-30.500,3.500
1.833,-5.500,-21.000,-30.000,4.500
1.834,-5.000,-20.000,-29.000,5.500
1.835,-4.000,-19.000,-27.500,7.500
1.836,-2.500,-17.000,-25.500,9.500
1.837,-1.000,-15.000,-22.500,12.500
1.838,1.500,-12.000,-19.500,16.000
1.839,3.500,-9.500,-16.000,19.500
1.840,5.000,-7.000,-12.500,22.500
1.841,6.000,-5.500,-11.000,24.500
1.842,5.500,-6.000,-10.500,24.500
1.843,4.000,-7.500,-12.500,23.000
1.844,1.500,-10.500,-15.500,19.500
1.845,-1.500,-14.500,-20.500,14.500
1.846,-5.000,-19.000,-25.500,9.500
1.847,-8.000,-22.500,-30.000,4.500
1.848,-10.000,-25.500,-33.500,1.000
1.849,-11.000,-26.500,-35.500,-1.000
1.850,-11.500,-27.000,-36.000,-2.000
1.851,-10.500,-26.500,-35.500,-1.500
1.852,-9.500,-25.500,-34.500,-0.500
1.853,-8.000,-24.000,-33.000,1.000
1.854,-6.500,-22.000,-31.000,3.000
1.855,-4.500,-20.000,-29.000,5.500
1.856,-2.500,-17.500,-26.000,8.500
1.857,0.000,-15.000,-23.000,12.000
1.858,2.500,-12.000,-19.000,16.000
1.859,5.000,-9.000,-15.000,20.500
1.860,7.000,-6.500,-12.500,23.500
1.861,7.500,-5.000,-11.000,25.000
1.862,6.500,-5.500,-11.500,24.500
1.863,4.500,-8.000,-13.500,22.000
1.864,1.000,-11.500,-18.000,17.500
1.865,-3.000,-16.000,-23.000,12.000
1.866,-7.000,-21.000,-28.500,6.000
1.867,-10.000,-25.000,-33.000,1.000
1.868,-12.500,-28.000,-36.500,-3.000
1.869,-13.500,-29.500,-38.500,-5.000
1.870,-14.000,-30.000,-39.000,-5.500
1.871,-13.000,-29.500,-39.000,-5.500
1.872,-12.000,-28.500,-38.000,-4.500
1.873,-10.000,-27.000,-36.000,-2.500
1.874,-8.000,-25.000,-34.000,0.000
1.875,-6.000,-22.500,-31.500,3.000
1.876,-3.500,-20.000,-28.500,6.000
1.877,-1.500,-17.000,-25.000,9.500
1.878,1.500,-13.500,-21.000,13.500
1.879,4.000,-10.000,-17.000,17.500
1.880,6.000,-7.500,-13.500,21.000
1.881,7.000,-6.000,-11.500,23.000
1.882,6.500,-6.500,-11.500,23.000
1.883,5.000,-8.000,-13.500,21.000
1.884,2.500,-11.000,-17.000,17.500
1.885,-0.500,-15.000,-21.500,12.500
1.886,-3.500,-19.000,-26.500,7.500
1.887,-6.500,-22.500,-31.000,3.000
1.888,-8.000,-24.500,-34.000,0.000
1.889,-8.500,-26.000,-35.500,-2.000
1.890,-8.500,-26.000,-36.000,-2.500
1.891,-8.000,-25.500,-36.000,-2.000
1.892,-7.000,-24.500,-35.000,-1.000
1.893,-6.000,-23.000,-33.500,0.500
1.894,-4.000,-21.000,-31.000,3.000
1.895,-2.000,-18.500,-28.500,6.000
1.896,0.500,-15.500,-25.000,9.500
1.897,3.500,-12.000,-21.000,14.000
1.898,7.000,-8.000,-16.500,18.500
1.899,10.000,-4.000,-11.500,23.500
1.900,13.000,-0.500,-7.500,27.500
1.901,14.500,2.000,-5.000,30.500
1.902,15.000,2.500,-4.000,31.000
1.903,14.500,1.500,-5.000,30.000
1.904,12.500,-0.500,-8.000,27.500
1.905,10.000,-4.000,-12.000,23.000
1.906,7.000,-7.500,-16.500,18.500
1.907,4.500,-10.500,-20.500,14.500
1.908,3.000,-12.500,-23.000,11.500
1.909,3.000,-13.500,-24.500,10.000
1.910,3.500,-13.000,-24.500,10.000
1.911,4.500,-12.000,-24.000,11.000
1.912,6.000,-10.500,-22.000,12.500
1.913,8.000,-8.500,-20.000,14.500
1.914,10.500,-6.000,-17.000,17.000
1.915,13.000,-3.500,-14.000,20.500
1.916,15.500,-0.500,-11.000,24.000
1.917,18.500,3.000,-7.000,27.500
1.918,21.000,6.000,-3.500,31.500
1.919,23.000,9.000,-0.500,35.000
1.920,24.000,11.000,2.000,37.500
1.921,24.000,11.500,3.000,38.500
1.922,23.000,11.000,2.500,37.500
1.923,20.500,8.500,0.000,35.000
1.924,17.500,5.000,-4.000,31.000
1.925,14.000,1.000,-9.000,25.500
1.926,10.500,-4.000,-14.000,20.500
1.927,7.500,-7.500,-18.500,16.000
1.928,5.500,-10.500,-21.500,12.500
1.929,4.500,-12.500,-24.000,10.500
1.930,4.000,-13.000,-25.000,9.500
1.931,4.000,-13.500,-25.500,9.000
1.932,4.500,-13.000,-25.000,9.000
1.933,5.500,-12.000,-24.000,10.000
1.934,7.000,-10.500,-22.500,12.000
1.935,9.000,-8.000,-20.000,14.500
1.936,11.000,-5.500,-16.500,18.000
1.937,13.500,-2.000,-12.500,22.500
1.938,16.500,2.000,-8.000,27.000
1.939,19.500,5.500,-3.500,32.000
1.940,22.000,9.000,0.500,36.000
1.941,23.500,11.000,3.000,38.500
1.942,23.500,11.000,3.500,39.000
1.943,22.500,9.500,2.000,37.000
1.944,20.000,7.000,-1.500,33.500
1.945,17.000,3.000,-6.000,29.000
1.946,14.500,-1.000,-10.500,24.000
1.947,12.000,-4.500,-15.000,19.500
1.948,10.500,-6.500,-18.000,16.500
1.949,10.000,-8.000,-19.500,15.000
1.950,10.000,-8.000,-20.000,14.500
1.951,10.000,-8.000,-20.000,14.500
1.952,10.500,-7.500,-19.500,15.000
1.953,11.000,-7.000,-19.000,15.500
1.954,12.000,-6.500,-17.500,17.000
1.955,13.000,-5.500,-16.000,19.000
1.956,14.000,-3.500,-14.000,21.000
1.957,15.500,-1.500,-11.500,24.000
1.958,17.000,1.000,-8.000,27.500
1.959,19.000,3.500,-4.500,31.000
1.960,20.000,6.000,-2.000,33.500
1.961,20.500,6.500,-0.500,35.000
1.962,19.500,6.000,-1.000,34.500
1.963,18.000,4.000,-3.000,32.000
1.964,15.000,1.000,-6.500,28.000
1.965,12.000,-3.500,-11.500,23.000
1.966,8.000,-8.500,-16.500,17.500
1.967,5.000,-12.500,-21.500,12.500
1.968,2.500,-16.000,-25.500,8.500
1.969,0.500,-18.500,-28.500,6.000
1.970,-0.500,-19.500,-30.000,4.000
1.971,-1.000,-20.000,-30.500,3.500
1.972,-0.500,-20.000,-30.500,4.000
1.973,0.500,-19.500,-29.500,5.000
1.974,1.000,-18.500,-28.500,6.500
1.975,2.500,-17.000,-26.500,8.500
1.976,4.000,-15.500,-24.500,10.500
1.977,5.500,-13.000,-21.500,13.500
1.978,7.500,-10.500,-18.000,17.500
1.979,9.500,-7.500,-14.500,21.000
1.980,11.000,-5.500,-12.000,24.000
1.981,11.000,-4.500,-10.500,25.500
1.982,10.500,-5.000,-10.500,25.000
1.983,8.000,-7.500,-13.000,22.500
1.984,5.000,-11.000,-17.000,18.000
1.985,1.500,-15.500,-22.500,12.500
1.986,-2.500,-20.500,-28.000,6.500
1.987,-6.000,-25.000,-33.000,1.000
1.988,-9.000,-28.500,-37.000,-3.000
1.989,-10.000,-30.000,-39.500,-5.000
1.990,-10.500,-30.500,-40.500,-6.000
1.991,-10.000,-30.500,-40.500,-5.500
1.992,-9.000,-29.500,-39.500,-4.500
1.993,-7.500,-28.000,-38.500,-3.000
1.994,-6.000,-26.500,-36.500,-1.500
1.995,-4.500,-24.500,-34.500,1.500
1.996,-2.500,-22.500,-31.500,4.000
1.997,0.000,-19.500,-28.000,8.000
1.998,2.500,-16.500,-24.500,12.000
1.999,4.500,-13.500,-20.000,16.000
2.000,6.500,-10.500,-17.000,19.500
2.001,7.000,-9.500,-15.000,21.500
2.002,6.500,-9.500,-15.000,21.500
2.003,4.500,-12.000,-17.000,19.000
2.004,1.500,-15.000,-21.000,15.000
2.005,-2.000,-19.500,-26.000,9.500
2.006,-5.500,-23.500,-31.000,4.000
2.007,-8.500,-27.500,-35.500,-1.000
2.008,-10.500,-30.000,-39.000,-4.500
2.009,-11.500,-31.500,-41.000,-7.000
2.010,-12.000,-32.000,-42.000,-7.500
2.011,-11.500,-32.000,-41.500,-7.500
2.012,-10.500,-31.000,-40.500,-6.500
2.013,-9.000,-29.500,-39.000,-5.000
2.014,-8.000,-28.000,-37.500,-3.000
2.015,-6.500,-26.500,-35.500,-1.000
2.016,-5.000,-24.500,-33.000,1.500
2.017,-3.500,-22.500,-30.500,4.500
2.018,-1.500,-20.000,-27.000,8.000
2.019,0.500,-17.500,-24.000,11.500
2.020,2.000,-15.500,-22.000,14.000
2.021,2.000,-15.000,-21.000,15.000
2.022,0.500,-16.000,-22.000,14.000
2.023,-2.000,-18.500,-25.000,11.000
2.024,-5.500,-22.500,-29.000,6.500
2.025,-9.000,-26.500,-34.500,1.000
2.026,-12.500,-31.000,-39.500,-4.500
2.027,-15.000,-34.000,-44.000,-9.000
2.028,-16.500,-36.500,-47.500,-12.000
2.029,-17.500,-37.000,-49.000,-14.000
2.030,-17.500,-37.500,-49.500,-14.500
2.031,-16.500,-37.000,-49.000,-14.000
2.032,-16.000,-36.000,-48.500,-13.000
2.033,-15.000,-35.000,-47.000,-12.000
2.034,-14.000,-33.500,-45.500,-11.000
2.035,-12.500,-32.000,-44.000,-9.000
2.036,-11.000,-30.000,-42.000,-7.000
2.037,-9.500,-28.000,-39.500,-4.500
2.038,-7.500,-25.500,-36.500,-1.500
2.039,-6.000,-23.500,-33.500,1.500
2.040,-4.500,-22.000,-31.500,3.500
2.041,-4.500,-21.500,-31.000,4.000
2.042,-5.500,-22.000,-32.000,2.500
2.043,-7.500,-24.500,-34.500,-0.500
2.044,-10.000,-27.500,-38.500,-5.000
2.045,-13.000,-31.000,-43.000,-9.500
2.046,-15.500,-34.500,-47.000,-13.500
2.047,-17.500,-37.500,-50.500,-16.500
2.048,-18.500,-39.000,-53.000,-18.500
2.049,-18.500,-39.000,-53.500,-19.000
2.050,-18.000,-38.500,-53.000,-18.000
2.051,-17.000,-37.500,-52.000,-16.500
2.052,-15.500,-35.500,-50.000,-14.500
2.053,-13.500,-33.500,-47.500,-12.000
2.054,-11.500,-31.000,-44.500,-9.000
2.055,-9.000,-28.000,-41.500,-5.500
2.056,-6.000,-24.500,-37.500,-1.500
2.057,-3.000,-21.000,-33.500,3.000
2.058,0.000,-17.000,-29.000,7.500
2.059,3.000,-13.500,-25.000,12.000
2.060,5.500,-10.500,-21.500,15.500
2.061,6.500,-9.000,-19.500,17.500
2.062,6.000,-9.500,-19.500,17.000
2.063,4.500,-11.000,-21.500,14.500
2.064,1.500,-14.500,-25.000,10.500
2.065,-1.500,-18.500,-29.500,5.000
2.066,-5.000,-22.500,-35.000,-0.500
2.067,-8.000,-26.500,-39.500,-5.500
2.068,-10.000,-29.000,-43.000,-9.000
2.069,-11.000,-31.000,-45.000,-11.500
2.070,-11.500,-31.500,-46.000,-12.500
2.071,-11.000,-31.500,-46.000,-13.000
2.072,-10.000,-30.500,-45.500,-12.000
2.073,-9.000,-29.500,-44.500,-11.000
2.074,-7.500,-27.500,-42.500,-8.500
2.075,-5.500,-25.500,-40.000,-6.000
2.076,-3.500,-23.000,-37.000,-3.000
2.077,-1.000,-20.000,-33.000,1.500
2.078,2.000,-16.000,-29.000,6.000
2.079,5.000,-12.500,-24.500,10.000
2.080,7.500,-9.500,-21.000,14.000
2.081,8.500,-7.500,-18.500,16.000
2.082,9.000,-7.500,-18.500,16.500
2.083,8.000,-9.000,-20.000,14.500
2.084,5.500,-12.000,-23.500,11.000
2.085,2.500,-16.000,-28.000,6.000
2.086,-1.500,-21.000,-33.500,0.500
2.087,-5.000,-25.000,-38.000,-4.500
2.088,-7.500,-28.500,-42.000,-9.000
2.089,-9.500,-30.500,-45.000,-12.000
2.090,-10.500,-32.000,-46.500,-14.000
2.091,-11.000,-32.500,-47.000,-14.500
2.092,-11.000,-32.500,-47.000,-14.500
2.093,-10.500,-31.500,-46.500,-14.000
2.094,-9.500,-30.500,-45.000,-13.000
2.095,-8.000,-29.000,-43.500,-11.000
2.096,-7.000,-27.500,-41.500,-9.000
2.097,-5.500,-25.000,-38.500,-6.000
2.098,-3.500,-22.500,-35.500,-3.000
2.099,-2.000,-20.000,-32.500,0.500
2.100,-0.500,-18.000,-29.500,3.500
2.101,0.500,-16.500,-28.000,5.000
2.102,0.500,-17.000,-28.000,5.000
2.103,-1.500,-18.500,-29.500,3.000
2.104,-4.000,-21.500,-33.000,-1.000
2.105,-7.000,-25.000,-37.000,-5.000
2.106,-10.000,-28.000,-41.500,-9.500
2.107,-12.000,-31.000,-45.000,-13.000
2.108,-13.000,-32.500,-47.500,-15.500
2.109,-13.000,-33.000,-48.000,-16.000
2.110,-12.000,-32.500,-48.000,-16.000
2.111,-10.500,-31.500,-47.000,-14.500
2.112,-9.000,-30.000,-45.000,-13.000
2.113,-7.500,-28.000,-43.000,-10.500
2.114,-5.500,-25.500,-41.000,-8.500
2.115,-3.000,-23.000,-38.000,-5.500
2.116,0.000,-19.500,-34.500,-2.000
2.117,3.500,-16.000,-30.500,2.500
2.118,7.000,-11.500,-25.500,7.000
2.119,10.500,-7.500,-20.500,12.500
2.120,14.000,-3.500,-15.500,17.000
2.121,16.000,-1.000,-12.500,20.000
2.122,17.000,0.000,-11.500,21.000
2.123,16.000,-1.000,-13.000,19.500
2.124,14.000,-4.000,-16.000,16.500
2.125,11.000,-7.500,-20.500,12.000
2.126,8.000,-11.500,-25.500,6.500
2.127,5.500,-14.500,-29.500,2.500
2.128,4.000,-17.000,-32.500,-1.000
2.129,3.500,-18.000,-34.500,-2.500
2.130,4.000,-18.000,-35.000,-3.000
2.131,4.500,-17.500,-34.500,-2.500
2.132,5.500,-16.500,-33.500,-1.500
2.133,7.000,-15.000,-31.500,0.500
2.134,8.500,-13.500,-29.500,2.500
2.135,10.500,-11.000,-27.000,5.500
2.136,13.000,-8.500,-23.500,9.000
2.137,15.500,-5.500,-20.000,13.000
2.138,18.500,-2.000,-15.500,17.500
2.139,21.500,2.000,-11.500,22.000
2.140,23.500,5.000,-8.000,26.000
2.141,25.000,7.000,-5.500,28.500
2.142,25.000,7.000,-5.000,28.500
2.143,24.000,5.500,-6.500,27.000
2.144,21.500,3.000,-9.500,23.500
2.145,18.000,-1.000,-14.000,18.500
2.146,15.000,-5.000,-19.000,13.000
2.147,11.500,-9.000,-23.500,8.500
2.148,9.500,-12.000,-27.000,4.500
2.149,7.500,-14.000,-29.500,1.500
2.150,6.500,-15.000,-31.500,0.000
2.151,6.500,-15.000,-32.000,-0.500
2.152,6.500,-15.000,-31.500,0.000
2.153,7.500,-14.000,-30.500,1.000
2.154,9.000,-12.500,-29.000,3.000
2.155,10.500,-10.500,-27.000,5.500
2.156,12.500,-8.000,-24.000,8.500
2.157,15.000,-5.000,-21.000,11.500
2.158,17.000,-2.000,-17.500,15.500
2.159,19.000,1.000,-14.000,19.000
2.160,20.500,3.500,-11.500,21.500
2.161,20.500,4.000,-10.000,22.500
2.162,19.500,3.500,-11.000,21.500
2.163,17.500,1.000,-13.500,19.000
2.164,14.500,-3.000,-17.500,14.500
2.165,10.500,-7.500,-23.000,9.000
2.166,6.500,-12.500,-28.500,3.000
2.167,3.000,-17.000,-34.000,-2.500
2.168,0.000,-21.000,-38.500,-7.000
2.169,-2.000,-23.500,-41.500,-10.000
2.170,-3.000,-24.500,-43.500,-12.000
2.171,-4.000,-25.500,-44.000,-12.500
2.172,-4.000,-25.500,-44.500,-13.000
2.173,-4.000,-25.000,-44.000,-12.500
2.174,-3.000,-24.500,-43.000,-12.000
2.175,-2.000,-23.000,-41.500,-10.000
2.176,-0.500,-21.000,-39.000,-8.000
2.177,1.500,-19.000,-36.000,-5.000
2.178,3.500,-16.000,-32.500,-1.500
2.179,5.000,-14.000,-29.500,2.000
2.180,6.000,-12.500,-27.500,4.500
2.181,5.500,-12.000,-26.500,5.000
2.182,4.000,-13.500,-28.000,3.500
2.183,1.000,-17.000,-31.500,0.000
2.184,-3.000,-21.000,-36.500,-5.000
2.185,-7.500,-26.500,-42.000,-11.000
2.186,-11.500,-31.500,-48.000,-17.500
2.187,-15.500,-36.500,-53.500,-23.000
2.188,-18.500,-40.000,-57.500,-27.500
2.189,-20.000,-42.000,-60.500,-30.500
2.190,-21.000,-43.000,-61.500,-31.500
2.191,-21.000,-43.500,-62.000,-32.000
2.192,-20.500,-43.000,-61.500,-31.500
2.193,-19.500,-42.000,-60.500,-30.000
2.194,-18.000,-40.500,-59.000,-28.500
2.195,-16.500,-38.000,-56.500,-26.000
2.196,-14.000,-35.500,-53.500,-23.000
2.197,-12.000,-32.500,-50.000,-19.500
2.198,-9.500,-29.500,-46.000,-15.500
2.199,-7.000,-26.500,-42.500,-12.000
2.200,-5.500,-24.000,-39.000,-9.000
2.201,-5.000,-22.500,-37.000,-7.000
2.202,-5.500,-23.000,-37.000,-7.000
2.203,-7.000,-24.500,-38.500,-9.000
2.204,-9.000,-27.500,-42.000,-12.000
2.205,-12.000,-31.000,-46.500,-16.500
2.206,-15.000,-34.500,-51.000,-21.000
2.207,-17.500,-38.000,-55.000,-25.500
2.208,-19.000,-40.000,-58.000,-28.500
2.209,-20.000,-41.500,-60.000,-30.500
2.210,-20.000,-42.000,-60.500,-31.000
2.211,-19.000,-41.000,-60.000,-30.500
2.212,-18.000,-40.000,-58.500,-29.500
2.213,-16.500,-38.500,-57.000,-27.500
2.214,-15.000,-36.500,-55.000,-25.000
2.215,-13.000,-34.000,-52.000,-22.500
2.216,-10.500,-31.000,-49.000,-19.000
2.217,-8.000,-28.000,-45.000,-15.500
2.218,-5.000,-24.000,-41.000,-11.000
2.219,-2.000,-20.500,-36.500,-6.500
2.220,0.500,-17.500,-32.500,-2.500
2.221,2.500,-15.500,-30.000,0.500
2.222,2.500,-15.000,-29.500,1.000
2.223,1.500,-16.000,-30.500,-0.500
2.224,-0.500,-18.500,-33.500,-4.000
2.225,-3.500,-22.000,-38.000,-8.000
2.226,-6.000,-25.500,-42.500,-13.000
2.227,-8.500,-29.000,-46.500,-17.000
2.228,-10.000,-31.000,-49.000,-20.000
2.229,-10.500,-32.000,-50.500,-21.500
2.230,-10.000,-32.500,-51.000,-22.000
2.231,-9.000,-31.500,-50.500,-21.500
2.232,-8.000,-30.000,-49.000,-20.500
2.233,-6.000,-28.000,-47.000,-18.500
2.234,-4.000,-25.500,-44.500,-15.500
2.235,-2.000,-23.000,-41.500,-12.500
2.236,1.000,-20.000,-38.500,-9.000
2.237,3.500,-16.500,-34.500,-5.000
2.238,6.500,-12.500,-30.500,-0.500
2.239,9.500,-8.500,-26.000,4.000
2.240,12.000,-5.500,-22.500,8.000
2.241,13.500,-3.500,-20.000,10.000
2.242,13.500,-3.000,-19.500,10.500
2.243,12.500,-4.500,-21.000,9.000
2.244,10.500,-6.500,-23.500,6.000
2.245,8.000,-10.000,-27.500,1.500
2.246,5.000,-13.500,-32.000,-3.000
2.247,2.500,-17.000,-36.000,-7.000
2.248,1.000,-19.500,-38.500,-10.000
2.249,0.500,-20.500,-40.000,-11.500
2.250,1.000,-20.500,-40.500,-12.000
2.251,2.000,-19.500,-40.000,-11.500
2.252,3.000,-18.500,-38.500,-10.500
2.253,4.500,-17.000,-37.000,-9.000
2.254,6.000,-15.500,-35.000,-7.000
2.255,7.500,-14.000,-33.000,-5.000
2.256,9.500,-11.500,-30.500,-2.500
2.257,11.500,-9.000,-27.500,1.000
2.258,13.500,-6.500,-24.000,4.500
2.259,15.000,-3.500,-21.000,8.500
2.260,16.500,-1.500,-18.500,11.500
2.261,17.000,-1.000,-17.500,12.500
2.262,16.000,-1.500,-18.000,12.000
2.263,14.000,-4.000,-20.500,9.500
2.264,11.000,-7.500,-24.500,5.000
2.265,7.000,-12.000,-30.000,-0.500
2.266,3.500,-16.500,-35.500,-6.000
2.267,0.500,-20.000,-40.500,-11.000
2.268,-1.500,-22.500,-43.500,-14.000
2.269,-2.000,-24.000,-45.000,-15.500
2.270,-1.500,-24.000,-45.500,-15.500
2.271,-0.500,-23.000,-44.500,-14.500
2.272,1.000,-21.500,-43.000,-13.000
2.273,2.500,-19.500,-41.500,-11.500
2.274,4.000,-17.500,-39.000,-9.000
2.275,6.000,-15.500,-37.000,-7.000
2.276,8.000,-13.000,-34.000,-4.000
2.277,10.000,-10.500,-31.000,-1.000
2.278,12.500,-7.500,-27.500,3.000
2.279,14.500,-4.000,-23.500,6.500
2.280,16.500,-1.000,-20.000,10.000
2.281,17.500,0.500,-18.000,12.000
2.282,17.500,1.000,-18.000,12.500
2.283,16.000,-1.000,-19.500,10.500
2.284,13.000,-4.000,-23.000,6.500
2.285,10.000,-8.500,-28.000,1.500
2.286,6.000,-13.000,-33.000,-4.000
2.287,3.000,-17.000,-38.000,-8.500
2.288,1.000,-19.500,-41.500,-12.000
2.289,0.000,-21.500,-43.500,-14.500
2.290,-0.500,-21.500,-45.000,-15.500
2.291,0.000,-21.500,-45.000,-15.500
2.292,0.500,-20.500,-44.500,-15.000
2.293,1.500,-19.500,-43.500,-14.000
2.294,2.500,-18.000,-42.000,-13.000
2.295,3.500,-16.500,-40.000,-11.000
2.296,5.500,-14.000,-37.500,-8.500
2.297,8.000,-11.500,-34.500,-5.500
2.298,10.500,-8.500,-30.500,-1.500
2.299,12.500,-5.500,-27.000,2.000
2.300,14.000,-3.000,-24.500,5.000
2.301,14.500,-2.000,-23.000,6.500
2.302,13.500,-2.500,-23.000,6.500
2.303,12.000,-4.500,-25.000,4.500
2.304,9.000,-7.500,-28.500,0.500
2.305,5.000,-12.000,-33.500,-4.500
2.306,1.500,-16.500,-38.500,-10.000
2.307,-2.000,-20.500,-43.500,-15.500
2.308,-4.500,-23.000,-47.000,-19.500
2.309,-5.500,-24.500,-49.000,-21.500
2.310,-5.500,-25.000,-49.500,-22.500
2.311,-4.500,-24.000,-49.000,-22.000
2.312,-3.500,-23.000,-48.000,-21.000
2.313,-2.000,-21.500,-46.500,-19.000
2.314,-0.500,-19.500,-44.500,-17.000
2.315,1.500,-17.000,-42.000,-14.500
2.316,4.000,-14.000,-39.000,-11.500
2.317,6.500,-11.000,-35.000,-7.500
2.318,9.500,-7.500,-31.000,-3.500
2.319,12.000,-4.500,-27.000,0.500
2.320,13.500,-2.500,-24.000,3.500
2.321,14.000,-1.500,-23.000,5.000
2.322,13.000,-2.500,-23.500,4.000
2.323,10.500,-5.000,-26.500,1.500
2.324,7.500,-9.000,-30.500,-3.500
2.325,3.000,-14.000,-36.000,-9.000
2.326,-1.000,-19.000,-42.000,-15.000
2.327,-4.500,-23.500,-47.000,-20.500
2.328,-7.000,-27.000,-50.500,-24.000
2.329,-8.500,-28.500,-52.500,-26.500
2.330,-9.000,-29.500,-53.500,-27.000
2.331,-8.500,-29.000,-53.000,-27.000
2.332,-8.000,-28.000,-52.500,-26.000
2.333,-7.000,-27.000,-51.000,-25.000
2.334,-5.500,-25.500,-49.500,-23.000
2.335,-4.000,-24.000,-48.000,-21.000
2.336,-2.500,-22.000,-45.500,-18.500
2.337,-1.000,-19.500,-42.500,-15.000
2.338,1.000,-16.500,-39.500,-11.500
2.339,3.000,-14.000,-36.000,-8.000
2.340,4.000,-12.000,-33.000,-5.000
2.341,4.000,-11.000,-32.000,-4.000
2.342,3.500,-11.500,-32.500,-5.000
2.343,1.000,-14.000,-34.500,-7.500
2.344,-2.000,-17.500,-38.500,-11.500
2.345,-5.500,-22.000,-43.500,-17.000
2.346,-9.500,-26.500,-49.000,-22.000
2.347,-12.500,-30.500,-53.500,-27.000
2.348,-15.000,-33.500,-57.500,-30.500
2.349,-16.500,-35.500,-59.500,-33.000
2.350,-17.000,-36.500,-61.000,-34.500
2.351,-17.000,-37.000,-61.000,-35.000
2.352,-16.500,-36.500,-61.000,-35.000
2.353,-16.000,-36.000,-60.000,-34.500
2.354,-15.000,-35.000,-59.000,-33.500
2.355,-14.000,-34.000,-57.500,-32.000
2.356,-12.500,-32.500,-55.500,-30.000
2.357,-11.000,-30.500,-53.000,-27.000
2.358,-9.000,-28.000,-50.000,-24.000
2.359,-7.000,-25.500,-47.000,-20.500
2.360,-5.500,-23.500,-44.500,-18.000
2.361,-5.000,-22.500,-43.000,-16.500
2.362,-6.000,-23.000,-43.000,-16.500
2.363,-7.500,-24.500,-45.000,-18.500
2.364,-10.000,-27.500,-48.500,-22.000
2.365,-13.000,-31.500,-53.000,-27.000
2.366,-16.500,-35.500,-57.500,-32.000
2.367,-19.000,-39.000,-62.000,-36.500
2.368,-21.500,-41.500,-65.500,-40.000
2.369,-22.500,-43.000,-67.500,-42.500
2.370,-22.500,-43.500,-68.500,-43.000
2.371,-22.000,-43.000,-68.000,-43.000
2.372,-21.000,-42.000,-67.000,-42.000
2.373,-19.500,-40.500,-65.500,-40.000
2.374,-18.000,-38.500,-63.000,-38.000
2.375,-16.000,-36.500,-60.500,-35.500
2.376,-13.500,-33.500,-57.000,-32.000
2.377,-10.500,-30.000,-53.000,-28.000
2.378,-7.500,-26.000,-48.000,-23.000
2.379,-4.500,-22.000,-43.500,-18.000
2.380,-2.000,-19.000,-39.500,-14.000
2.381,-0.500,-17.000,-37.000,-11.500
2.382,-0.500,-16.500,-36.500,-11.000
2.383,-2.000,-18.000,-38.500,-13.000
2.384,-4.500,-21.500,-42.000,-16.500
2.385,-8.500,-25.500,-47.000,-22.000
2.386,-12.500,-30.500,-52.500,-27.500
2.387,-16.000,-35.000,-58.000,-33.500
2.388,-19.000,-38.500,-62.000,-38.000
2.389,-21.000,-41.000,-65.500,-41.500
2.390,-22.000,-42.500,-67.500,-43.500
2.391,-22.000,-43.500,-68.500,-45.000
2.392,-22.000,-43.500,-68.500,-45.000
2.393,-21.500,-43.000,-68.500,-45.000
2.394,-20.500,-41.500,-67.500,-44.000
2.395,-19.500,-40.000,-66.000,-42.500
2.396,-17.500,-38.500,-63.500,-40.500
2.397,-15.500,-35.500,-60.500,-37.000
2.398,-13.000,-32.500,-56.500,-33.000
2.399,-10.500,-29.500,-52.000,-28.500
2.400,-8.500,-27.000,-48.500,-24.500
2.401,-8.000,-25.500,-46.500,-22.000
2.402,-9.000,-25.500,-46.500,-21.500
2.403,-11.500,-27.500,-48.500,-23.000
2.404,-14.500,-30.500,-51.500,-26.000
2.405,-17.500,-34.500,-56.000,-30.500
2.406,-20.500,-38.500,-60.000,-35.000
2.407,-23.000,-41.500,-64.000,-38.500
2.408,-24.500,-43.500,-66.500,-41.500
2.409,-25.000,-44.000,-67.500,-42.500
2.410,-24.500,-44.000,-68.000,-43.000
2.411,-23.500,-43.500,-67.500,-42.500
2.412,-22.000,-42.500,-66.500,-41.500
2.413,-21.000,-41.500,-65.000,-40.000
2.414,-19.000,-39.500,-63.000,-38.500
2.415,-17.000,-37.500,-60.500,-36.000
2.416,-14.500,-34.500,-57.500,-33.000
2.417,-12.000,-31.000,-54.000,-29.500
2.418,-9.000,-27.500,-50.000,-25.000
2.419,-6.500,-24.000,-46.000,-20.500
2.420,-4.000,-21.500,-42.500,-17.000
2.421,-3.000,-20.000,-40.500,-15.000
2.422,-3.500,-20.000,-40.500,-14.500
2.423,-5.000,-21.500,-42.500,-16.500
2.424,-8.000,-25.000,-46.000,-20.500
2.425,-11.500,-29.000,-51.000,-25.500
2.426,-15.500,-34.000,-56.500,-31.000
2.427,-18.500,-38.000,-61.000,-36.500
2.428,-21.000,-41.000,-64.500,-40.500
2.429,-22.500,-43.000,-67.000,-43.000
2.430,-22.500,-43.500,-68.000,-44.000
2.431,-22.500,-43.000,-68.000,-44.000
2.432,-21.500,-42.500,-67.000,-43.000
2.433,-20.000,-41.000,-66.000,-41.000
2.434,-18.500,-39.000,-64.000,-39.000
2.435,-16.500,-37.000,-61.000,-36.000
2.436,-14.000,-34.000,-58.000,-32.500
2.437,-11.000,-30.500,-54.000,-28.500
2.438,-8.000,-27.000,-50.000,-24.000
2.439,-5.000,-23.000,-45.500,-19.500
2.440,-2.500,-20.000,-42.000,-16.000
2.441,-1.500,-18.500,-39.500,-14.000
2.442,-1.500,-18.500,-39.500,-13.500
2.443,-3.000,-20.500,-41.000,-15.000
2.444,-5.500,-23.500,-44.500,-18.500
2.445,-9.000,-27.500,-49.000,-23.500
2.446,-12.500,-32.000,-54.000,-29.000
2.447,-16.000,-36.000,-59.000,-34.000
2.448,-18.500,-39.000,-62.500,-38.000
2.449,-20.000,-41.000,-65.000,-40.500
2.450,-20.500,-42.000,-66.000,-41.500
2.451,-20.500,-42.000,-66.500,-41.500
2.452,-20.500,-41.500,-66.000,-41.000
2.453,-19.500,-40.500,-65.000,-40.000
2.454,-19.000,-39.500,-63.500,-38.500
2.455,-18.000,-38.000,-62.000,-37.000
2.456,-17.000,-36.000,-59.500,-34.500
2.457,-15.500,-34.000,-57.500,-32.000
2.458,-13.500,-32.000,-54.500,-29.000
2.459,-11.500,-29.000,-51.000,-26.000
2.460,-10.000,-27.000,-48.500,-23.000
2.461,-9.000,-26.000,-46.500,-21.500
2.462,-9.500,-26.000,-46.500,-21.500
2.463,-10.500,-27.500,-48.000,-23.000
2.464,-12.500,-30.000,-51.000,-26.000
2.465,-15.000,-33.000,-55.000,-30.500
2.466,-18.000,-36.500,-59.000,-34.500
2.467,-20.000,-39.500,-62.500,-38.500
2.468,-21.000,-41.000,-65.000,-41.000
2.469,-21.500,-42.000,-66.500,-42.500
2.470,-21.000,-42.000,-66.500,-42.500
2.471,-20.500,-41.500,-66.000,-42.500
2.472,-19.500,-41.000,-65.500,-41.500
2.473,-18.500,-40.000,-64.500,-40.500
2.474,-17.500,-38.500,-62.500,-38.500
2.475,-16.000,-36.500,-60.500,-36.500
2.476,-14.000,-34.000,-58.000,-34.000
2.477,-12.000,-31.500,-54.500,-30.500
2.478,-9.500,-28.000,-51.000,-26.500
2.479,-7.000,-25.000,-47.000,-22.500
2.480,-4.500,-22.000,-43.500,-18.500
2.481,-3.000,-20.000,-41.000,-16.500
2.482,-3.000,-19.500,-40.500,-16.000
2.483,-4.000,-21.000,-42.000,-18.000
2.484,-6.500,-24.000,-45.500,-21.500
2.485,-10.000,-28.000,-50.000,-26.500
2.486,-13.500,-32.500,-55.500,-31.500
2.487,-17.000,-36.500,-60.000,-36.000
2.488,-19.000,-39.500,-63.500,-39.500
2.489,-20.000,-41.000,-65.500,-41.500
2.490,-20.000,-41.500,-66.000,-41.500
2.491,-19.000,-41.000,-65.500,-41.000
2.492,-18.000,-39.500,-64.500,-40.000
2.493,-16.000,-37.500,-62.500,-38.000
2.494,-14.000,-35.000,-60.000,-35.500
2.495,-11.500,-32.500,-57.000,-33.000
2.496,-9.000,-29.500,-54.000,-29.500
2.497,-6.500,-26.500,-50.500,-26.000
2.498,-3.500,-23.500,-46.500,-22.000
2.499,-1.500,-20.000,-43.000,-18.000
2.500,0.500,-17.500,-39.500,-15.000
2.501,1.000,-16.000,-37.500,-13.000
2.502,0.500,-16.000,-37.500,-13.000
2.503,-1.500,-17.500,-39.500,-14.500
2.504,-4.000,-20.500,-43.000,-18.500
2.505,-7.500,-24.000,-47.500,-23.000
2.506,-11.000,-28.500,-52.500,-28.500
2.507,-14.000,-32.500,-57.500,-33.500
2.508,-16.500,-35.500,-61.000,-37.500
2.509,-18.000,-37.500,-63.500,-40.000
2.510,-18.500,-39.000,-64.500,-41.000
2.511,-18.500,-39.000,-65.000,-41.500
2.512,-18.000,-39.000,-65.000,-41.500
2.513,-17.500,-39.000,-64.500,-41.000
2.514,-17.000,-38.500,-64.000,-40.000
2.515,-16.000,-37.500,-62.500,-39.000
2.516,-15.000,-36.000,-60.500,-37.000
2.517,-13.500,-33.500,-58.000,-34.500
2.518,-11.500,-31.000,-55.000,-31.000
2.519,-10.000,-28.500,-51.500,-28.000
2.520,-9.000,-27.000,-49.500,-25.500
2.521,-9.000,-26.500,-48.000,-24.500
2.522,-10.000,-27.000,-49.000,-25.500
2.523,-12.500,-29.500,-51.500,-28.000
2.524,-15.500,-33.000,-55.500,-32.500
2.525,-19.500,-37.500,-60.500,-38.000
2.526,-23.000,-42.000,-65.500,-43.500
2.527,-26.500,-46.000,-70.000,-48.000
2.528,-28.500,-49.000,-73.500,-52.000
2.529,-30.000,-51.500,-76.000,-54.000
2.530,-31.000,-52.500,-77.000,-55.500
2.531,-31.500,-53.000,-77.500,-56.000
2.532,-31.500,-53.000,-78.000,-56.000
2.533,-31.500,-52.500,-77.500,-55.500
2.534,-31.000,-52.000,-76.500,-54.500
2.535,-30.000,-51.000,-75.500,-53.500
2.536,-28.500,-49.500,-74.000,-51.500
2.537,-27.500,-48.000,-71.500,-49.000
2.538,-26.000,-46.000,-69.000,-46.500
2.539,-24.500,-44.000,-66.500,-43.500
2.540,-24.000,-42.500,-64.500,-41.500
2.541,-24.500,-42.500,-64.500,-41.000
2.542,-26.500,-44.500,-66.000,-42.500
2.543,-30.000,-48.000,-69.500,-46.500
2.544,-34.000,-52.500,-74.500,-51.500
2.545,-39.500,-58.000,-80.500,-58.500
2.546,-45.000,-64.000,-87.500,-65.500
2.547,-50.000,-70.000,-94.000,-72.000
2.548,-54.500,-75.000,-100.000,-78.000
2.549,-58.000,-79.000,-104.500,-82.500
2.550,-60.500,-82.000,-107.500,-85.500
2.551,-62.000,-84.000,-110.000,-88.000
2.552,-63.500,-86.000,-111.500,-89.500
2.553,-64.500,-87.000,-113.000,-90.500
2.554,-65.500,-88.000,-113.500,-91.000
2.555,-66.000,-88.500,-113.500,-91.000
2.556,-66.500,-88.500,-113.000,-90.000
2.557,-66.000,-87.500,-112.000,-88.500
2.558,-65.000,-86.000,-110.000,-86.500
2.559,-64.500,-84.500,-107.500,-83.500
2.560,-64.000,-83.500,-106.000,-81.500
2.561,-64.500,-83.000,-105.000,-80.500
2.562,-66.500,-84.500,-106.500,-81.500
2.563,-69.500,-87.000,-109.500,-84.000
2.564,-73.500,-91.500,-114.000,-88.500
2.565,-78.500,-96.500,-119.500,-94.000
2.566,-83.000,-102.500,-125.500,-100.000
2.567,-87.500,-107.500,-131.000,-105.500
2.568,-90.500,-112.000,-135.000,-109.500
2.569,-92.500,-114.500,-137.500,-112.000
2.570,-93.500,-115.500,-138.500,-112.500
2.571,-93.500,-115.000,-138.000,-111.500
2.572,-92.500,-114.000,-136.500,-109.500
2.573,-91.500,-112.500,-134.000,-106.500
2.574,-90.000,-110.500,-131.500,-103.500
2.575,-88.000,-107.500,-128.000,-99.500
2.576,-85.000,-104.000,-124.000,-95.000
2.577,-81.500,-99.500,-118.500,-89.000
2.578,-76.500,-94.000,-112.000,-82.000
2.579,-71.500,-88.000,-105.000,-74.500
2.580,-66.500,-82.500,-98.000,-67.500
2.581,-63.000,-78.000,-93.000,-62.000
2.582,-61.000,-75.500,-90.500,-59.000
2.583,-61.000,-75.500,-90.500,-58.500
2.584,-63.000,-77.500,-92.500,-61.000
2.585,-65.500,-81.000,-96.500,-64.500
2.586,-68.500,-84.500,-100.500,-69.000
2.587,-71.000,-87.500,-104.500,-73.000
2.588,-72.000,-89.500,-107.000,-75.500
2.589,-72.000,-90.500,-108.000,-77.500
2.590,-71.000,-90.000,-108.500,-78.500
2.591,-69.000,-88.500,-108.000,-78.500
2.592,-66.500,-86.000,-106.500,-78.500
2.593,-63.500,-83.500,-104.500,-78.000
2.594,-60.000,-80.500,-102.500,-76.500
2.595,-56.500,-77.500,-99.500,-75.000
2.596,-53.500,-74.500,-97.000,-73.500
2.597,-51.000,-72.000,-94.500,-72.000
2.598,-48.500,-69.000,-91.500,-69.500
2.599,-46.500,-66.500,-88.500,-67.500
2.600,-45.500,-65.000,-86.500,-65.500
2.601,-45.500,-64.500,-86.000,-65.000
2.602,-47.000,-66.000,-87.000,-66.500
2.603,-50.000,-69.000,-90.500,-70.000
2.604,-54.500,-74.000,-96.000,-75.500
2.605,-60.000,-80.500,-103.000,-82.500
2.606,-66.000,-87.500,-111.000,-90.000
2.607,-71.500,-93.500,-118.500,-97.500
2.608,-76.000,-99.500,-124.500,-103.500
2.609,-80.000,-104.000,-129.500,-108.500
2.610,-83.000,-107.000,-133.000,-112.000
2.611,-85.000,-109.500,-135.500,-114.500
2.612,-87.000,-111.000,-137.000,-116.000
2.613,-87.500,-112.000,-138.000,-116.500
2.614,-88.000,-112.500,-138.000,-116.500
2.615,-88.500,-112.500,-138.000,-116.500
2.616,-88.000,-112.000,-137.000,-115.500
2.617,-87.500,-111.000,-135.500,-114.000
2.618,-87.000,-109.500,-133.500,-111.500
2.619,-86.500,-108.000,-131.500,-109.000
2.620,-86.000,-107.500,-130.000,-107.500
2.621,-87.000,-107.500,-129.500,-106.500
2.622,-88.500,-109.000,-130.500,-108.000
2.623,-91.000,-112.000,-133.500,-111.000
2.624,-94.500,-116.000,-138.000,-115.500
2.625,-99.000,-121.000,-143.500,-121.000
2.626,-103.000,-126.000,-149.500,-127.000
2.627,-107.000,-130.500,-155.000,-133.000
2.628,-110.000,-134.000,-159.000,-137.000
2.629,-111.500,-136.000,-161.500,-140.000
2.630,-112.500,-137.000,-163.000,-141.500
2.631,-112.500,-137.500,-163.000,-142.000
2.632,-112.000,-137.500,-163.000,-141.500
2.633,-111.500,-137.000,-162.500,-141.500
2.634,-111.000,-136.500,-161.500,-140.500
2.635,-110.500,-135.500,-160.500,-139.500
2.636,-109.500,-134.500,-159.000,-137.500
2.637,-108.500,-132.500,-157.000,-135.000
2.638,-107.000,-130.500,-154.000,-132.000
2.639,-105.500,-128.500,-151.500,-129.000
2.640,-105.000,-127.000,-149.000,-126.500
2.641,-105.000,-126.500,-148.000,-125.500
2.642,-106.000,-127.500,-148.500,-126.500
2.643,-108.000,-130.000,-151.000,-129.000
2.644,-111.000,-133.500,-155.000,-133.000
2.645,-114.500,-137.500,-159.500,-138.000
2.646,-117.500,-142.500,-165.000,-143.500
2.647,-121.000,-146.500,-169.500,-148.500
2.648,-123.000,-149.500,-173.000,-152.500
2.649,-124.000,-151.000,-175.500,-154.500
2.650,-124.500,-152.000,-176.500,-155.500
2.651,-124.000,-151.500,-176.000,-155.500
2.652,-122.500,-151.000,-175.000,-154.000
2.653,-121.500,-149.500,-173.500,-152.500
2.654,-120.000,-148.000,-171.500,-150.500
2.655,-118.000,-146.000,-169.000,-148.000
2.656,-116.000,-143.500,-166.500,-145.000
2.657,-114.000,-140.500,-163.000,-141.500
2.658,-111.000,-137.000,-159.000,-137.000
2.659,-108.500,-133.500,-155.000,-133.000
2.660,-106.000,-130.500,-151.000,-129.000
2.661,-104.500,-128.500,-149.000,-127.000
2.662,-104.500,-128.500,-149.000,-126.500
2.663,-106.000,-130.000,-150.500,-128.500
2.664,-108.500,-133.000,-154.000,-132.000
2.665,-112.000,-137.000,-159.000,-137.000
2.666,-115.500,-141.500,-164.000,-142.500
2.667,-119.000,-145.500,-169.000,-147.500
2.668,-121.000,-149.000,-173.000,-151.500
2.669,-122.500,-151.000,-175.000,-153.500
2.670,-122.500,-151.500,-176.000,-154.500
2.671,-122.500,-151.500,-176.000,-154.500
2.672,-121.500,-151.000,-175.500,-154.000
2.673,-120.500,-149.500,-174.000,-152.500
2.674,-119.000,-148.000,-172.500,-150.500
2.675,-117.500,-146.000,-170.000,-148.000
2.676,-115.500,-144.000,-167.500,-145.500
2.677,-113.500,-141.500,-164.500,-142.000
2.678,-111.000,-138.500,-161.000,-138.000
2.679,-109.000,-135.500,-157.500,-134.000
2.680,-108.000,-134.000,-154.500,-131.000
2.681,-108.000,-133.000,-153.500,-130.000
2.682,-109.000,-134.500,-154.000,-130.500
2.683,-111.000,-137.000,-156.500,-133.500
2.684,-114.000,-140.500,-160.500,-137.500
2.685,-117.500,-144.500,-165.500,-143.000
2.686,-121.000,-148.500,-170.500,-148.000
2.687,-124.000,-152.500,-174.500,-152.500
2.688,-125.500,-155.000,-178.000,-156.000
2.689,-126.500,-156.000,-179.500,-157.500
2.690,-126.000,-155.500,-179.500,-157.500
2.691,-125.000,-154.500,-179.000,-156.500
2.692,-123.000,-152.500,-177.000,-155.000
2.693,-121.500,-150.500,-175.000,-153.000
2.694,-119.000,-148.000,-172.500,-150.000
2.695,-116.500,-145.500,-169.500,-147.000
2.696,-114.000,-142.500,-166.000,-143.500
2.697,-111.000,-139.000,-162.000,-139.000
2.698,-108.000,-135.000,-157.500,-134.500
2.699,-104.500,-131.500,-153.000,-129.500
2.700,-102.000,-128.000,-149.000,-125.500
2.701,-100.500,-126.000,-146.000,-123.000
2.702,-100.000,-125.500,-145.500,-122.000
2.703,-101.000,-126.500,-146.500,-123.500
2.704,-103.000,-128.500,-149.000,-126.000
2.705,-105.500,-131.500,-152.500,-130.000
2.706,-108.500,-135.000,-157.000,-134.500
2.707,-111.000,-138.500,-161.000,-139.000
2.708,-112.500,-140.500,-164.000,-142.000
2.709,-113.000,-142.000,-166.000,-143.500
2.710,-113.000,-142.500,-166.500,-143.500
2.711,-112.000,-142.000,-166.000,-143.000
2.712,-111.000,-141.000,-165.000,-142.000
2.713,-109.500,-139.000,-163.000,-140.000
2.714,-107.500,-137.000,-160.500,-137.500
2.715,-105.000,-134.500,-158.000,-134.500
2.716,-102.500,-131.500,-154.500,-131.500
2.717,-100.000,-128.000,-150.500,-127.500
2.718,-97.000,-124.500,-146.500,-123.000
2.719,-94.500,-121.000,-142.000,-118.500
2.720,-92.000,-118.000,-138.500,-115.000
2.721,-91.000,-116.000,-136.500,-112.500
2.722,-91.500,-116.000,-136.000,-112.500
2.723,-93.000,-117.500,-137.500,-114.000
2.724,-95.500,-120.500,-141.000,-117.500
2.725,-98.500,-124.500,-145.000,-122.000
2.726,-101.500,-128.500,-149.500,-127.000
2.727,-104.000,-132.000,-154.000,-131.500
2.728,-105.500,-134.500,-157.000,-134.500
2.729,-106.000,-135.500,-158.500,-136.000
2.730,-106.000,-135.500,-159.000,-136.500
2.731,-105.000,-135.000,-158.500,-135.500
2.732,-104.000,-133.500,-157.500,-134.500
2.733,-102.500,-132.000,-155.500,-132.500
2.734,-100.500,-130.000,-153.500,-130.500
2.735,-98.500,-128.000,-151.000,-127.500
2.736,-96.000,-125.000,-147.500,-124.500
2.737,-93.000,-122.000,-144.000,-120.500
2.738,-90.000,-118.500,-140.000,-116.000
2.739,-87.000,-115.000,-135.500,-112.000
2.740,-85.000,-112.500,-132.500,-108.500
2.741,-84.500,-111.000,-131.000,-107.000
2.742,-85.000,-111.500,-131.000,-107.500
2.743,-86.500,-113.500,-133.500,-110.000
2.744,-89.500,-117.500,-138.000,-114.500
2.745,-93.000,-122.000,-143.000,-120.500
2.746,-96.500,-126.500,-148.500,-126.500
2.747,-99.000,-130.500,-153.000,-131.500
2.748,-101.000,-133.000,-156.500,-135.000
2.749,-101.500,-134.000,-158.000,-136.500
2.750,-100.500,-134.000,-157.500,-136.500
2.751,-99.000,-132.500,-156.000,-135.000
2.752,-96.500,-130.000,-153.000,-132.000
2.753,-94.000,-127.000,-150.000,-128.500
2.754,-91.000,-123.500,-146.000,-124.000
2.755,-87.500,-119.500,-141.500,-119.000
2.756,-84.000,-115.500,-136.000,-114.000
2.757,-80.000,-110.500,-130.500,-108.000
2.758,-75.500,-105.500,-124.000,-101.500
2.759,-71.500,-100.500,-118.000,-95.000
2.760,-67.500,-96.000,-112.500,-89.500
2.761,-64.500,-92.500,-109.000,-85.500
2.762,-63.500,-90.500,-107.000,-83.500
2.763,-63.000,-91.000,-107.000,-83.500
2.764,-64.500,-92.500,-108.500,-86.000
2.765,-66.500,-95.000,-112.000,-89.500
2.766,-68.500,-98.500,-116.000,-94.000
2.767,-71.000,-101.500,-120.000,-98.000
2.768,-72.500,-104.000,-123.000,-101.500
2.769,-73.000,-105.000,-124.500,-103.000
2.770,-73.000,-105.500,-125.000,-103.500
2.771,-72.000,-105.000,-124.500,-103.000
2.772,-70.500,-104.000,-123.000,-102.000
2.773,-69.000,-102.000,-121.500,-100.000
2.774,-67.000,-100.000,-119.500,-97.500
2.775,-65.000,-98.000,-117.000,-95.000
2.776,-63.000,-95.500,-114.500,-92.500
2.777,-61.000,-93.000,-111.000,-89.500
2.778,-58.500,-89.500,-107.500,-85.500
2.779,-55.500,-86.500,-103.500,-81.000
2.780,-53.000,-83.000,-99.500,-77.000
2.781,-51.500,-81.000,-97.000,-74.000
2.782,-51.000,-80.500,-96.000,-73.000
2.783,-52.000,-82.000,-97.000,-74.000
2.784,-54.000,-84.500,-99.500,-76.500
2.785,-56.500,-87.500,-103.500,-80.500
2.786,-59.000,-91.000,-107.500,-84.500
2.787,-61.000,-94.000,-111.000,-88.500
2.788,-62.500,-96.000,-113.500,-91.000
2.789,-63.000,-97.000,-114.500,-92.500
2.790,-62.500,-96.500,-114.500,-92.000
2.791,-61.000,-95.500,-113.500,-91.000
2.792,-59.500,-93.500,-111.500,-89.000
2.793,-57.000,-91.500,-109.500,-86.500
2.794,-54.500,-89.000,-106.500,-83.500
2.795,-52.000,-86.000,-103.500,-80.000
2.796,-49.000,-82.500,-100.000,-76.500
2.797,-46.000,-79.000,-96.000,-72.500
2.798,-43.000,-75.500,-91.500,-68.000
2.799,-40.000,-71.500,-87.000,-63.000
2.800,-37.500,-68.500,-83.000,-59.000
2.801,-36.500,-66.500,-80.500,-56.500
2.802,-36.500,-66.000,-79.500,-56.000
2.803,-37.500,-67.500,-81.000,-57.500
2.804,-39.500,-70.000,-83.500,-60.000
2.805,-42.000,-73.500,-87.500,-64.500
2.806,-45.000,-77.000,-92.000,-69.000
2.807,-47.000,-80.000,-96.000,-73.000
2.808,-48.500,-82.500,-98.500,-76.000
2.809,-49.000,-83.500,-100.500,-77.500
2.810,-49.000,-84.000,-100.500,-78.000
2.811,-48.000,-83.500,-100.500,-77.500
2.812,-47.000,-82.500,-99.000,-76.500
2.813,-45.500,-81.000,-97.500,-75.000
2.814,-44.000,-79.000,-95.500,-72.500
2.815,-42.000,-77.000,-93.000,-70.000
2.816,-40.000,-74.000,-90.500,-67.000
2.817,-37.500,-71.500,-87.000,-63.000
2.818,-34.500,-68.000,-83.000,-59.000
2.819,-32.000,-64.500,-79.000,-54.500
2.820,-29.500,-61.500,-75.000,-50.000
2.821,-28.000,-59.500,-72.500,-47.500
2.822,-28.000,-59.000,-71.500,-46.500
2.823,-29.000,-60.500,-73.000,-47.500
2.824,-31.500,-62.500,-75.500,-50.500
2.825,-34.000,-66.000,-79.500,-55.000
2.826,-37.000,-70.000,-84.000,-59.500
2.827,-39.500,-73.500,-88.000,-64.000
2.828,-41.000,-76.000,-91.500,-67.500
2.829,-41.500,-77.000,-93.500,-69.000
2.830,-41.500,-77.500,-94.000,-70.000
2.831,-40.500,-77.000,-94.000,-69.500
2.832,-39.500,-76.000,-93.000,-68.000
2.833,-38.000,-74.500,-91.000,-66.000
2.834,-36.500,-73.000,-89.000,-64.000
2.835,-35.000,-71.000,-86.500,-61.500
2.836,-33.000,-68.500,-84.000,-59.000
2.837,-30.500,-66.000,-81.000,-56.000
2.838,-28.500,-63.000,-77.500,-52.000
2.839,-26.000,-60.500,-73.500,-48.500
2.840,-24.500,-58.000,-70.500,-45.500
2.841,-23.500,-57.000,-69.000,-44.000
2.842,-24.000,-57.500,-69.000,-44.500
2.843,-26.000,-59.500,-71.500,-46.500
2.844,-29.000,-63.000,-75.000,-51.000
2.845,-33.000,-67.500,-80.000,-56.000
2.846,-36.500,-71.500,-85.500,-61.500
2.847,-40.000,-75.500,-90.000,-66.500
2.848,-42.000,-78.500,-94.000,-70.000
2.849,-43.500,-80.500,-96.500,-72.500
2.850,-44.000,-81.500,-98.000,-74.000
2.851,-44.000,-82.000,-98.500,-74.500
2.852,-43.000,-81.500,-98.000,-74.000
2.853,-42.000,-80.500,-96.500,-73.000
2.854,-40.000,-79.000,-94.500,-71.000
2.855,-38.500,-77.000,-92.000,-68.500
2.856,-36.000,-74.000,-89.500,-65.500
2.857,-34.000,-71.000,-86.000,-62.000
2.858,-31.500,-68.000,-82.500,-58.000
2.859,-29.000,-65.000,-79.000,-54.000
2.860,-27.500,-62.000,-76.000,-51.000
2.861,-26.500,-61.000,-74.000,-49.000
2.862,-27.000,-61.000,-74.000,-49.000
2.863,-28.500,-63.000,-76.000,-51.000
2.864,-31.000,-66.000,-79.500,-55.000
2.865,-34.000,-70.000,-84.000,-60.000
2.866,-37.500,-74.500,-89.500,-65.000
2.867,-40.500,-78.500,-94.000,-70.000
2.868,-42.500,-81.000,-97.500,-73.500
2.869,-43.000,-82.500,-99.500,-75.500
2.870,-43.000,-83.000,-100.500,-76.500
2.871,-42.500,-82.500,-100.500,-76.500
2.872,-41.500,-82.000,-99.500,-75.500
2.873,-40.500,-80.500,-98.500,-74.500
2.874,-39.500,-79.500,-97.000,-73.000
2.875,-38.500,-78.000,-95.500,-71.500
2.876,-37.500,-76.500,-94.000,-69.500
2.877,-36.000,-74.500,-91.500,-67.000
2.878,-34.500,-72.500,-88.500,-64.000
2.879,-32.500,-70.000,-85.500,-61.000
2.880,-31.000,-67.500,-82.000,-58.000
2.881,-30.000,-66.500,-80.500,-56.000
2.882,-30.500,-66.500,-80.000,-55.500
2.883,-32.000,-68.000,-81.500,-57.500
2.884,-35.000,-71.000,-85.000,-61.500
2.885,-38.000,-75.000,-90.000,-66.500
2.886,-41.500,-79.500,-95.500,-72.000
2.887,-45.000,-84.000,-100.500,-77.000
2.888,-47.500,-87.500,-105.000,-81.000
2.889,-49.500,-90.000,-108.000,-84.000
2.890,-50.500,-91.500,-109.500,-86.000
2.891,-51.500,-93.000,-111.000,-87.500
2.892,-52.000,-93.500,-112.000,-88.500
2.893,-52.000,-94.000,-112.000,-88.500
2.894,-52.000,-93.500,-111.500,-88.000
2.895,-51.000,-92.500,-110.500,-87.000
2.896,-49.500,-90.500,-108.000,-84.500
2.897,-47.000,-87.500,-104.500,-81.000
2.898,-44.000,-84.000,-100.500,-77.000
2.899,-41.000,-80.000,-96.000,-72.000
2.900,-38.500,-77.000,-92.000,-68.500
2.901,-37.000,-75.000,-89.000,-66.000
2.902,-37.000,-74.500,-88.500,-65.500
2.903,-38.000,-76.500,-90.000,-67.000
2.904,-41.000,-79.500,-93.500,-70.500
2.905,-44.500,-84.000,-98.000,-76.000
2.906,-48.500,-89.000,-104.000,-82.000
2.907,-52.500,-93.500,-109.500,-87.500
2.908,-55.500,-97.500,-113.500,-92.500
2.909,-58.000,-100.000,-116.500,-95.500
2.910,-59.500,-102.000,-118.500,-97.500
2.911,-60.000,-103.000,-119.500,-99.000
2.912,-60.500,-103.500,-120.000,-99.000
2.913,-60.000,-103.500,-120.000,-99.000
2.914,-59.500,-103.000,-119.500,-98.000
2.915,-58.500,-101.500,-118.000,-96.500
2.916,-57.000,-100.000,-115.500,-94.000
2.917,-55.000,-97.000,-112.500,-90.500
2.918,-52.500,-94.000,-108.500,-86.500
2.919,-49.500,-90.500,-104.500,-82.000
2.920,-47.500,-87.500,-101.000,-78.500
2.921,-46.000,-86.000,-98.500,-76.000
2.922,-46.500,-85.500,-98.000,-75.500
2.923,-48.000,-87.000,-99.500,-77.500
2.924,-50.500,-90.000,-102.500,-81.000
2.925,-53.500,-93.500,-106.500,-85.500
2.926,-56.500,-97.500,-111.500,-90.500
2.927,-59.000,-100.500,-115.500,-94.500
2.928,-60.500,-103.000,-118.500,-98.000
2.929,-61.000,-103.500,-120.000,-99.500
2.930,-60.500,-103.500,-120.000,-99.500
2.931,-59.000,-102.000,-119.000,-98.000
2.932,-57.000,-100.000,-117.000,-96.000
2.933,-54.500,-97.000,-114.000,-93.000
2.934,-51.500,-94.000,-111.000,-90.000
2.935,-48.500,-91.000,-107.500,-86.500
2.936,-45.500,-87.500,-104.000,-82.500
2.937,-43.000,-84.000,-99.500,-78.500
2.938,-40.000,-80.500,-95.500,-74.000
2.939,-37.000,-77.000,-91.500,-69.500
2.940,-35.000,-74.000,-88.500,-66.500
2.941,-34.500,-73.000,-87.000,-64.500
2.942,-35.000,-73.500,-87.000,-65.000
2.943,-37.000,-75.500,-89.500,-67.500
2.944,-40.000,-78.500,-93.000,-71.000
2.945,-43.500,-83.000,-97.500,-76.500
2.946,-47.500,-87.500,-103.000,-82.000
2.947,-51.000,-92.000,-108.000,-87.500
2.948,-53.500,-95.000,-112.000,-91.500
2.949,-55.000,-96.500,-114.000,-93.500
2.950,-55.000,-97.000,-115.000,-94.500
2.951,-54.500,-97.000,-115.000,-94.500
2.952,-53.500,-96.000,-114.000,-93.500
2.953,-52.500,-95.000,-112.500,-92.000
2.954,-50.500,-93.000,-110.500,-89.500
2.955,-48.500,-91.000,-108.000,-87.000
2.956,-46.500,-88.500,-105.500,-84.000
2.957,-44.000,-85.500,-102.000,-80.500
2.958,-41.000,-82.000,-98.000,-76.000
2.959,-38.000,-78.500,-93.500,-71.000
2.960,-35.500,-75.000,-89.500,-67.000
2.961,-34.000,-73.000,-87.000,-64.500
2.962,-34.000,-72.000,-86.000,-63.500
2.963,-34.500,-73.000,-87.000,-64.500
2.964,-36.500,-75.000,-89.500,-67.500
2.965,-39.000,-78.500,-93.500,-71.500
2.966,-41.500,-81.500,-97.500,-76.000
2.967,-43.500,-85.000,-101.000,-80.000
2.968,-45.000,-87.000,-104.000,-83.000
2.969,-45.000,-87.500,-105.500,-85.000
2.970,-44.500,-87.500,-106.000,-85.000
2.971,-43.500,-86.500,-105.500,-84.500
2.972,-42.000,-85.000,-104.000,-83.000
2.973,-40.500,-83.500,-102.000,-81.000
2.974,-38.500,-81.000,-100.000,-78.500
2.975,-36.000,-79.000,-97.000,-75.500
2.976,-34.000,-76.500,-94.000,-72.000
2.977,-31.500,-73.500,-90.500,-68.500
2.978,-29.000,-70.000,-86.500,-64.500
2.979,-26.500,-66.500,-82.500,-60.000
2.980,-24.500,-64.000,-79.000,-56.500
2.981,-23.500,-62.500,-77.000,-55.000
2.982,-23.500,-62.500,-77.000,-54.500
2.983,-25.000,-64.000,-78.500,-56.500
2.984,-27.500,-66.500,-81.500,-59.500
2.985,-30.500,-70.000,-85.500,-64.000
2.986,-34.000,-74.000,-90.500,-69.000
2.987,-37.000,-78.000,-95.000,-74.000
2.988,-39.000,-80.500,-98.500,-78.000
2.989,-40.000,-82.500,-100.500,-80.000
2.990,-40.000,-82.500,-101.500,-81.000
2.991,-39.000,-82.000,-100.500,-80.500
2.992,-37.500,-80.500,-99.500,-79.000
2.993,-35.500,-79.000,-97.500,-77.500
2.994,-34.000,-77.000,-95.500,-75.000
2.995,-32.000,-75.000,-93.000,-72.500
2.996,-30.000,-73.000,-90.500,-70.000
2.997,-28.000,-70.500,-87.500,-66.500
2.998,-26.000,-67.500,-83.500,-62.500
2.999,-23.500,-64.500,-80.000,-58.500
3.000,-21.500,-61.500,-76.500,-55.000
3.001,-20.000,-59.500,-74.000,-52.500
3.002,-19.500,-59.000,-73.000,-51.500
3.003,-20.500,-59.500,-74.000,-52.500
3.004,-22.500,-62.000,-76.500,-55.000
3.005,-25.000,-65.000,-80.500,-59.000
3.006,-28.000,-68.500,-85.500,-64.000
3.007,-30.000,-72.000,-89.500,-68.000
3.008,-31.500,-74.000,-92.500,-71.000
3.009,-32.000,-75.000,-94.000,-72.500
3.010,-31.500,-75.000,-94.000,-72.500
3.011,-30.500,-74.500,-93.500,-72.000
3.012,-29.000,-73.000,-92.000,-71.000
3.013,-27.500,-71.000,-90.500,-69.000
3.014,-25.500,-69.000,-88.500,-67.000
3.015,-23.500,-66.500,-86.000,-64.500
3.016,-21.000,-64.000,-83.000,-61.000
3.017,-18.500,-61.000,-79.500,-57.500
3.018,-16.000,-57.500,-75.500,-53.500
3.019,-13.000,-54.000,-71.500,-49.500
3.020,-11.000,-51.000,-68.000,-46.000
3.021,-10.000,-49.500,-65.500,-44.000
3.022,-10.000,-49.000,-65.000,-43.500
3.023,-11.000,-50.500,-66.500,-45.000
3.024,-13.500,-53.500,-69.500,-48.500
3.025,-16.500,-57.500,-74.000,-53.000
3.026,-20.000,-61.500,-79.000,-58.500
3.027,-23.000,-65.500,-84.000,-63.000
3.028,-25.500,-68.500,-87.500,-66.500
3.029,-26.500,-70.000,-89.000,-68.500
3.030,-26.000,-70.000,-89.500,-69.000
3.031,-25.000,-69.000,-88.500,-68.000
3.032,-23.500,-67.500,-87.000,-66.000
3.033,-21.500,-65.000,-85.000,-64.000
3.034,-19.500,-62.500,-82.000,-61.000
3.035,-16.500,-59.500,-78.500,-57.500
3.036,-14.000,-56.000,-75.000,-54.000
3.037,-10.500,-52.500,-70.500,-49.500
3.038,-7.500,-48.500,-66.000,-44.500
3.039,-4.000,-44.000,-61.500,-40.000
3.040,-1.500,-41.000,-57.500,-35.500
3.041,0.500,-38.500,-55.000,-32.500
3.042,0.500,-38.000,-54.000,-32.000
3.043,-0.500,-39.000,-55.000,-33.000
3.044,-2.500,-41.500,-58.000,-36.000
3.045,-5.000,-44.500,-62.000,-40.500
3.046,-8.000,-48.500,-66.500,-44.500
3.047,-10.000,-51.000,-70.000,-48.500
3.048,-11.000,-53.000,-72.500,-51.500
3.049,-11.000,-54.000,-74.000,-52.500
3.050,-10.000,-53.500,-74.000,-52.500
3.051,-9.000,-52.500,-73.000,-51.500
3.052,-7.000,-51.000,-71.000,-50.000
3.053,-5.500,-49.000,-69.500,-48.000
3.054,-3.500,-47.000,-67.000,-46.000
3.055,-1.500,-44.500,-64.500,-43.000
3.056,1.000,-42.000,-62.000,-40.000
3.057,3.000,-39.000,-58.500,-36.500
3.058,5.500,-36.000,-55.000,-32.500
3.059,8.000,-32.500,-51.000,-28.000
3.060,10.000,-30.000,-47.500,-24.500
3.061,11.000,-28.500,-45.500,-22.500
3.062,10.500,-28.500,-45.500,-22.500
3.063,9.000,-30.500,-47.000,-24.500
3.064,6.000,-33.500,-50.500,-28.000
3.065,2.500,-37.500,-55.000,-32.500
3.066,-1.000,-42.000,-59.500,-37.500
3.067,-3.500,-45.500,-64.000,-42.000
3.068,-5.500,-48.500,-67.000,-45.000
3.069,-6.500,-50.000,-69.000,-47.000
3.070,-6.500,-50.000,-70.000,-48.000
3.071,-6.500,-50.000,-70.000,-48.000
3.072,-5.500,-49.500,-69.500,-47.500
3.073,-5.000,-48.500,-68.500,-46.500
3.074,-4.000,-47.000,-67.000,-45.500
3.075,-3.000,-45.500,-65.500,-43.500
3.076,-1.500,-44.000,-63.500,-41.500
3.077,0.500,-41.500,-60.500,-38.500
3.078,2.500,-38.500,-57.000,-35.500
3.079,4.500,-36.000,-53.500,-31.500
3.080,6.000,-33.000,-50.500,-28.500
3.081,7.000,-31.500,-48.500,-26.500
3.082,7.000,-31.500,-48.000,-26.000
3.083,5.500,-33.000,-49.500,-27.500
3.084,3.000,-36.000,-52.500,-31.000
3.085,-0.500,-40.000,-57.000,-35.500
3.086,-3.500,-44.000,-61.500,-40.000
3.087,-6.500,-47.500,-66.000,-44.000
3.088,-8.500,-50.000,-69.000,-47.500
3.089,-9.500,-52.000,-71.500,-49.500
3.090,-10.000,-52.500,-72.500,-50.500
3.091,-9.500,-52.500,-72.500,-50.500
3.092,-8.500,-52.000,-71.500,-50.000
3.093,-7.500,-51.000,-71.000,-49.000
3.094,-6.500,-49.500,-69.500,-47.500
3.095,-5.000,-48.500,-68.000,-46.000
3.096,-4.000,-46.500,-66.000,-44.000
3.097,-2.500,-44.500,-64.000,-42.000
3.098,-1.000,-42.500,-61.500,-39.000
3.099,1.000,-40.000,-58.500,-36.500
3.100,2.000,-38.000,-56.000,-34.000
3.101,2.500,-37.000,-55.000,-33.000
3.102,2.000,-37.500,-54.500,-33.000
3.103,1.000,-38.500,-56.000,-34.500
3.104,-1.000,-41.000,-58.500,-37.000
3.105,-3.500,-44.000,-62.500,-40.500
3.106,-6.000,-47.500,-66.500,-44.500
3.107,-8.500,-50.000,-70.000,-48.000
3.108,-9.500,-52.000,-72.000,-50.000
3.109,-9.500,-52.500,-73.000,-50.500
3.110,-9.000,-52.500,-72.500,-50.000
3.111,-8.000,-51.000,-71.500,-49.000
3.112,-6.500,-49.500,-69.500,-47.000
3.113,-5.000,-48.000,-67.500,-44.500
3.114,-3.000,-46.000,-65.500,-42.500
3.115,-1.500,-44.000,-63.000,-40.000
3.116,0.500,-42.000,-60.000,-37.000
3.117,2.500,-39.500,-57.000,-34.000
3.118,5.000,-36.500,-53.500,-30.000
3.119,7.500,-33.500,-49.500,-26.000
3.120,9.500,-31.000,-46.500,-22.500
3.121,10.500,-29.500,-44.500,-21.000
3.122,10.000,-30.000,-45.000,-21.000
3.123,8.000,-32.000,-47.000,-23.500
3.124,5.000,-35.500,-51.000,-27.500
3.125,1.000,-40.000,-56.000,-33.000
3.126,-3.000,-45.000,-61.500,-39.000
3.127,-7.000,-49.500,-66.500,-44.500
3.128,-9.500,-53.000,-70.500,-48.500
3.129,-11.500,-55.000,-73.000,-51.000
3.130,-12.000,-55.500,-74.000,-52.000
3.131,-11.500,-55.000,-74.000,-52.000
3.132,-11.000,-54.500,-73.000,-51.000
3.133,-9.500,-53.000,-71.500,-49.500
3.134,-8.000,-51.500,-69.500,-48.000
3.135,-6.000,-49.500,-67.000,-45.500
3.136,-4.000,-47.000,-64.500,-42.500
3.137,-1.500,-43.500,-61.000,-39.000
3.138,1.500,-40.000,-56.500,-34.500
3.139,5.000,-36.000,-52.500,-30.000
3.140,7.500,-32.500,-48.500,-25.500
3.141,9.500,-30.000,-45.500,-22.500
3.142,10.000,-29.500,-44.500,-21.500
3.143,9.500,-30.500,-45.500,-22.500
3.144,7.500,-33.000,-48.500,-25.000
3.145,4.500,-37.000,-52.500,-29.000
3.146,1.500,-41.000,-57.000,-34.000
3.147,-1.500,-44.500,-61.000,-38.500
3.148,-3.000,-47.000,-64.500,-42.000
3.149,-4.000,-48.500,-66.500,-44.000
3.150,-4.000,-49.000,-67.000,-44.500
3.151,-3.500,-48.000,-67.000,-44.000
3.152,-2.500,-47.000,-66.000,-43.000
3.153,-1.000,-45.500,-64.500,-41.500
3.154,0.500,-43.500,-62.500,-40.000
3.155,2.000,-41.500,-60.500,-37.500
3.156,4.000,-39.500,-57.500,-34.500
3.157,6.000,-37.000,-54.000,-31.500
3.158,8.500,-34.000,-50.500,-27.500
3.159,10.500,-31.000,-47.000,-23.500
3.160,12.500,-29.000,-44.000,-20.000
3.161,13.000,-27.500,-42.000,-18.000
3.162,12.500,-27.500,-42.500,-18.000
3.163,11.000,-29.000,-44.000,-19.500
3.164,8.500,-32.000,-47.500,-23.500
3.165,5.000,-35.500,-52.000,-28.000
3.166,2.000,-39.500,-56.500,-33.500
3.167,-1.000,-43.000,-61.000,-38.000
3.168,-2.500,-45.500,-64.000,-41.000
3.169,-3.000,-47.000,-66.000,-43.000
3.170,-3.000,-47.500,-66.500,-43.500
3.171,-2.500,-47.000,-66.500,-43.500
3.172,-1.000,-46.000,-65.500,-42.500
3.173,0.500,-44.500,-64.000,-41.000
3.174,2.000,-43.000,-62.500,-39.000
3.175,3.500,-41.000,-60.500,-37.000
3.176,5.000,-39.000,-58.000,-34.500
3.177,7.000,-36.500,-54.500,-31.000
3.178,9.500,-33.000,-51.000,-27.000
3.179,11.500,-30.000,-47.000,-23.000
3.180,13.000,-27.500,-44.000,-19.500
3.181,14.000,-26.000,-42.000,-17.500
3.182,14.000,-25.500,-41.500,-17.500
3.183,12.500,-26.500,-43.000,-19.000
3.184,10.000,-29.500,-46.500,-22.000
3.185,7.000,-33.000,-50.500,-26.500
3.186,3.500,-37.000,-55.000,-31.500
3.187,0.500,-41.000,-59.500,-36.000
3.188,-1.500,-43.500,-63.000,-39.500
3.189,-2.500,-45.500,-65.500,-42.000
3.190,-3.000,-46.000,-66.000,-43.000
3.191,-2.500,-46.000,-66.000,-43.000
3.192,-2.000,-45.500,-65.500,-42.500
3.193,-1.000,-44.500,-64.000,-41.000
3.194,0.500,-43.000,-62.500,-39.500
3.195,2.000,-41.000,-60.000,-37.000
3.196,4.000,-38.500,-57.500,-34.000
3.197,6.500,-36.000,-54.500,-31.000
3.198,9.000,-33.000,-51.000,-27.000
3.199,11.500,-29.500,-47.000,-22.500
3.200,13.500,-27.000,-44.000,-19.500
3.201,14.500,-25.500,-42.500,-17.000
3.202,14.500,-25.500,-42.000,-17.000
3.203,13.000,-27.000,-44.000,-19.000
3.204,10.500,-30.000,-47.500,-22.500
3.205,7.000,-34.000,-52.000,-27.500
3.206,3.500,-38.500,-57.000,-33.000
3.207,-0.500,-42.500,-62.000,-38.500
3.208,-3.000,-46.000,-66.000,-42.500
3.209,-4.500,-48.000,-68.500,-45.500
3.210,-5.500,-49.500,-70.000,-47.000
3.211,-5.500,-49.500,-70.500,-48.000
3.212,-5.500,-49.500,-70.500,-47.500
3.213,-5.000,-49.000,-70.000,-47.000
3.214,-4.500,-48.500,-69.500,-46.000
3.215,-4.000,-47.500,-68.000,-44.500
3.216,-3.000,-46.000,-66.000,-42.500
3.217,-1.500,-44.000,-63.500,-39.500
3.218,1.000,-41.000,-60.000,-36.000
3.219,3.500,-38.000,-56.000,-32.000
3.220,5.500,-35.000,-52.500,-28.000
3.221,7.000,-33.000,-50.000,-25.500
3.222,7.000,-32.500,-49.500,-24.500
3.223,6.000,-33.500,-50.500,-26.000
3.224,4.000,-36.500,-53.500,-28.500
3.225,0.500,-40.500,-58.000,-33.000
3.226,-3.000,-44.500,-63.000,-38.500
3.227,-6.500,-49.000,-68.000,-43.500
3.228,-9.000,-52.000,-72.000,-47.500
3.229,-11.000,-54.500,-75.000,-50.500
3.230,-11.500,-55.500,-76.500,-52.000
3.231,-12.000,-56.000,-76.500,-52.500
3.232,-11.500,-55.500,-76.500,-52.000
3.233,-10.500,-54.500,-75.500,-51.500
3.234,-9.500,-53.500,-74.500,-50.000
3.235,-8.500,-52.500,-72.500,-48.500
3.236,-7.000,-50.500,-70.500,-46.000
3.237,-5.500,-48.500,-68.000,-43.500
3.238,-3.500,-46.000,-65.000,-40.000
3.239,-1.500,-43.000,-61.500,-36.500
3.240,0.000,-40.000,-58.000,-33.000
3.241,1.500,-38.500,-56.000,-30.500
3.242,1.500,-38.000,-55.000,-29.500
3.243,0.500,-39.000,-56.500,-31.000
3.244,-2.000,-42.000,-59.000,-34.000
3.245,-5.000,-45.500,-63.500,-38.000
3.246,-7.500,-49.500,-67.500,-43.000
3.247,-10.000,-53.000,-71.500,-47.000
3.248,-12.000,-55.500,-74.500,-50.500
3.249,-13.000,-56.500,-76.500,-52.500
3.250,-13.000,-57.000,-77.000,-53.000
3.251,-12.000,-56.500,-76.500,-52.500
3.252,-11.000,-55.000,-75.500,-51.500
3.253,-9.000,-53.000,-73.500,-49.500
3.254,-7.000,-50.500,-71.000,-47.000
3.255,-4.000,-47.500,-68.000,-44.000
3.256,-1.500,-44.500,-64.500,-40.000
3.257,2.000,-41.000,-61.000,-36.000
3.258,5.000,-37.500,-56.500,-31.500
3.259,7.500,-33.500,-52.500,-26.500
3.260,10.000,-30.500,-48.500,-22.500
3.261,11.500,-28.500,-46.000,-20.000
3.262,12.000,-27.500,-45.000,-19.500
3.263,11.000,-28.500,-46.000,-20.500
3.264,9.000,-31.000,-48.500,-24.000
3.265,5.500,-35.000,-53.000,-29.000
3.266,2.500,-39.000,-58.000,-34.000
3.267,-0.500,-43.000,-62.500,-39.000
3.268,-3.000,-46.000,-66.500,-42.500
3.269,-4.000,-47.500,-69.000,-45.000
3.270,-4.500,-48.500,-70.000,-46.500
3.271,-4.500,-48.000,-70.000,-46.500
3.272,-3.500,-47.000,-69.000,-45.500
3.273,-2.500,-46.000,-67.500,-44.000
3.274,-1.000,-44.500,-65.500,-42.000
3.275,0.500,-42.500,-63.500,-40.000
3.276,2.000,-40.500,-61.000,-37.500
3.277,4.000,-38.000,-58.000,-34.000
3.278,6.500,-35.500,-54.000,-30.500
3.279,8.500,-32.500,-50.500,-26.500
3.280,10.500,-30.000,-47.000,-23.000
3.281,11.500,-28.500,-45.000,-21.000
3.282,11.000,-28.500,-45.000,-21.000
3.283,9.500,-30.000,-47.000,-22.500
3.284,7.000,-33.000,-50.000,-26.000
3.285,3.500,-36.500,-54.500,-30.500
3.286,0.500,-40.500,-59.000,-35.500
3.287,-2.500,-44.000,-63.500,-40.000
3.288,-4.500,-46.500,-66.500,-43.500
3.289,-5.500,-48.000,-68.500,-46.000
3.290,-5.500,-48.500,-69.500,-47.000
3.291,-5.500,-48.500,-69.500,-47.000
3.292,-4.500,-47.500,-68.500,-46.500
3.293,-3.500,-46.500,-67.000,-45.000
3.294,-2.500,-45.000,-65.500,-43.500
3.295,-1.000,-43.500,-64.000,-42.000
3.296,0.500,-41.500,-62.000,-39.500
3.297,2.000,-39.500,-59.500,-37.000
3.298,3.500,-37.000,-56.500,-34.000
3.299,5.500,-34.500,-53.500,-30.500
3.300,7.500,-32.000,-50.500,-27.500
3.301,8.500,-30.500,-48.500,-25.000
3.302,8.500,-30.000,-48.000,-24.500
3.303,7.500,-31.000,-49.000,-26.000
3.304,6.000,-33.000,-51.500,-29.000
3.305,3.000,-36.500,-56.000,-33.000
3.306,0.000,-40.500,-60.500,-38.000
3.307,-2.500,-44.000,-64.500,-42.500
3.308,-4.500,-46.500,-67.500,-46.000
3.309,-5.500,-48.000,-69.500,-48.000
3.310,-5.500,-48.500,-70.500,-48.500
3.311,-5.000,-48.000,-70.000,-48.500
3.312,-4.000,-46.500,-69.000,-47.500
3.313,-2.000,-45.000,-67.500,-45.500
3.314,0.000,-42.500,-65.000,-43.500
3.315,2.000,-40.000,-62.500,-41.000
3.316,4.500,-37.500,-59.000,-37.500
3.317,7.000,-34.000,-55.500,-34.000
3.318,9.500,-30.500,-51.500,-30.500
3.319,12.000,-27.500,-47.500,-26.000
3.320,14.000,-24.500,-44.000,-22.500
3.321,15.500,-23.000,-42.000,-20.000
3.322,15.500,-23.000,-41.000,-19.500
3.323,14.500,-24.000,-42.500,-21.000
3.324,12.500,-26.500,-45.000,-23.500
3.325,9.500,-30.000,-49.000,-28.000
3.326,6.500,-34.000,-54.000,-32.500
3.327,4.000,-37.500,-58.000,-37.000
3.328,2.500,-40.000,-61.500,-40.500
3.329,1.500,-41.000,-63.500,-42.500
3.330,1.500,-41.500,-64.000,-43.000
3.331,2.500,-41.000,-63.500,-42.500
3.332,3.500,-39.500,-62.000,-41.500
3.333,5.000,-38.000,-60.500,-40.000
3.334,6.500,-36.500,-58.500,-38.000
3.335,8.000,-34.500,-56.000,-36.000
