'Elapsed time','AECG1','AECG2','AECG3','AECG4'
'seconds','uV','uV','uV','uV'
0.000,-2.000,-1.000,8.500,-80.500
0.001,-2.500,-1.000,8.000,-80.500
0.002,-3.000,-1.500,7.500,-80.500
0.003,-3.500,-2.000,6.000,-80.500
0.004,-4.500,-2.500,4.500,-80.500
0.005,-5.000,-3.500,3.000,-80.500
0.006,-5.500,-4.000,2.500,-80.500
0.007,-6.500,-4.500,3.000,-80.500
0.008,-6.500,-5.000,3.500,-80.500
0.009,-7.000,-5.000,4.000,-80.000
0.010,-7.000,-5.000,4.500,-80.000
0.011,-6.500,-4.500,5.000,-79.500
0.012,-6.000,-4.000,5.500,-79.500
0.013,-5.500,-3.500,6.500,-79.500
0.014,-5.000,-3.000,7.000,-79.000
0.015,-4.500,-2.000,7.500,-79.000
0.016,-4.000,-1.500,7.500,-78.500
0.017,-3.500,-1.000,8.000,-78.000
0.018,-3.000,-0.500,9.000,-78.000
0.019,-3.000,-0.500,9.000,-78.000
0.020,-3.000,-1.000,8.500,-78.000
0.021,-3.000,-1.000,8.000,-78.000
0.022,-3.000,-1.500,7.500,-78.000
0.023,-3.500,-1.500,8.000,-78.500
0.024,-4.000,-2.000,9.000,-78.500
0.025,-4.000,-2.500,10.500,-78.500
0.026,-4.500,-2.500,11.000,-78.500
0.027,-4.500,-3.000,12.000,-78.500
0.028,-5.000,-3.000,13.500,-78.000
0.029,-5.000,-3.000,14.500,-78.000
0.030,-5.000,-3.000,14.500,-78.000
0.031,-4.500,-3.000,14.000,-78.500
0.032,-4.500,-2.500,13.500,-78.500
0.033,-4.500,-2.000,12.500,-79.000
0.034,-4.000,-2.000,12.000,-79.000
0.035,-4.000,-1.500,11.000,-79.000
0.036,-3.500,-1.500,9.500,-78.500
0.037,-3.500,-1.000,7.500,-78.500
0.038,-3.500,-1.000,6.000,-78.000
0.039,-3.500,-1.000,5.500,-78.500
0.040,-4.000,-1.000,5.500,-78.500
0.041,-4.500,-1.000,5.000,-79.000
0.042,-5.000,-1.500,4.000,-79.500
0.043,-5.500,-2.000,4.000,-79.500
0.044,-5.500,-2.500,4.000,-80.000
0.045,-6.000,-3.000,5.500,-80.000
0.046,-6.000,-3.500,6.500,-80.500
0.047,-6.500,-3.500,7.500,-80.500
0.048,-6.500,-4.000,7.500,-80.500
0.049,-6.500,-4.000,7.000,-80.500
0.050,-6.000,-4.000,6.000,-80.500
0.051,-5.500,-3.500,4.500,-80.500
0.052,-5.500,-3.500,3.500,-80.500
0.053,-5.000,-3.500,3.500,-80.500
0.054,-5.000,-3.000,4.000,-80.500
0.055,-4.500,-2.000,5.000,-80.000
0.056,-4.000,-1.500,6.500,-80.000
0.057,-3.500,-1.000,7.500,-80.000
0.058,-3.000,-1.000,9.000,-80.000
0.059,-3.000,-1.000,11.000,-80.000
0.060,-3.000,-1.000,13.500,-80.000
0.061,-3.000,-1.500,15.500,-80.000
0.062,-3.500,-2.000,17.000,-80.000
0.063,-3.500,-2.000,18.000,-80.000
0.064,-4.000,-2.500,19.000,-80.000
0.065,-4.500,-3.000,19.500,-80.500
0.066,-4.500,-3.500,19.500,-80.500
0.067,-4.500,-4.000,18.500,-80.500
0.068,-4.500,-4.500,17.000,-80.500
0.069,-4.500,-5.000,14.500,-80.000
0.070,-4.500,-4.500,12.000,-80.000
0.071,-4.500,-4.500,10.500,-80.000
0.072,-4.500,-3.500,9.500,-80.000
0.073,-4.000,-3.000,9.000,-80.000
0.074,-4.000,-2.500,9.000,-80.000
0.075,-3.500,-2.500,8.500,-80.500
0.076,-3.500,-2.500,8.500,-80.500
0.077,-3.500,-2.000,8.500,-80.500
0.078,-3.500,-2.000,9.000,-80.500
0.079,-3.500,-2.000,9.500,-80.000
0.080,-3.500,-2.500,9.500,-80.000
0.081,-4.000,-2.500,9.500,-80.000
0.082,-4.500,-3.000,10.000,-80.500
0.083,-5.000,-3.500,10.500,-80.500
0.084,-5.500,-4.000,11.000,-80.500
0.085,-6.000,-4.500,11.000,-80.500
0.086,-6.000,-5.000,10.500,-80.500
0.087,-6.000,-5.500,10.000,-81.000
0.088,-6.000,-5.500,9.500,-81.000
0.089,-6.000,-6.000,9.000,-80.500
0.090,-6.000,-6.000,9.000,-80.500
0.091,-5.500,-5.500,9.000,-80.500
0.092,-5.000,-5.000,9.000,-80.500
0.093,-5.000,-5.000,9.500,-80.500
0.094,-4.500,-4.500,10.000,-80.500
0.095,-4.500,-4.000,10.000,-80.500
0.096,-4.500,-4.000,10.000,-80.500
0.097,-4.500,-4.000,11.000,-80.500
0.098,-4.500,-3.500,12.500,-80.500
0.099,-4.500,-3.500,14.000,-80.500
0.100,-5.000,-3.500,15.500,-81.000
0.101,-5.000,-4.000,16.000,-81.000
0.102,-5.500,-4.000,16.000,-81.500
0.103,-6.000,-4.500,16.000,-81.500
0.104,-6.000,-5.000,16.000,-81.500
0.105,-6.500,-6.000,17.500,-82.000
0.106,-7.000,-7.000,19.000,-82.500
0.107,-7.500,-7.500,20.500,-83.000
0.108,-8.000,-8.000,21.000,-83.500
0.109,-8.000,-9.000,21.000,-84.500
0.110,-8.500,-9.500,20.000,-86.000
0.111,-9.000,-10.000,19.000,-87.500
0.112,-9.500,-10.500,18.000,-89.000
0.113,-10.000,-11.000,17.500,-90.500
0.114,-11.000,-11.500,17.500,-91.500
0.115,-12.000,-12.000,17.500,-93.000
0.116,-13.000,-13.000,17.000,-93.500
0.117,-14.000,-13.500,16.500,-94.000
0.118,-15.000,-14.500,15.000,-94.500
0.119,-16.500,-15.500,13.500,-94.500
0.120,-18.000,-16.500,12.000,-94.500
0.121,-19.500,-17.500,11.500,-94.500
0.122,-21.000,-18.500,12.000,-94.500
0.123,-22.500,-19.500,12.500,-94.000
0.124,-24.500,-20.500,12.000,-93.500
0.125,-26.000,-21.500,10.500,-92.500
0.126,-27.500,-22.000,8.500,-90.500
0.127,-29.000,-23.000,8.000,-88.500
0.128,-30.500,-23.000,9.000,-85.500
0.129,-31.500,-23.500,11.000,-82.500
0.130,-32.500,-23.000,13.000,-79.000
0.131,-33.500,-22.500,14.000,-75.500
0.132,-34.000,-22.000,14.000,-72.000
0.133,-34.500,-21.000,13.000,-69.000
0.134,-35.000,-20.500,12.000,-65.500
0.135,-35.500,-20.000,12.000,-63.000
0.136,-35.500,-19.000,12.500,-60.500
0.137,-35.500,-18.500,13.500,-58.500
0.138,-35.500,-18.000,15.000,-57.000
0.139,-35.500,-17.500,16.000,-55.500
0.140,-35.000,-16.500,16.500,-54.000
0.141,-34.000,-15.500,16.500,-53.000
0.142,-32.500,-14.500,16.000,-52.000
0.143,-30.500,-13.500,15.500,-51.500
0.144,-28.500,-12.000,14.000,-51.000
0.145,-26.000,-10.500,13.500,-51.500
0.146,-23.000,-9.000,13.000,-51.500
0.147,-19.500,-7.000,13.500,-52.500
0.148,-16.500,-5.000,13.500,-53.000
0.149,-13.000,-3.000,13.000,-54.500
0.150,-9.500,-1.000,12.000,-55.500
0.151,-6.000,1.500,11.500,-56.500
0.152,-2.500,3.500,11.500,-57.000
0.153,1.000,6.000,12.500,-57.500
0.154,4.000,7.500,14.000,-58.000
0.155,5.500,9.000,15.500,-58.500
0.156,6.000,9.000,17.500,-59.500
0.157,6.000,8.500,19.500,-61.500
0.158,4.500,7.500,21.000,-63.500
0.159,3.000,5.500,21.500,-66.000
0.160,1.000,4.000,21.500,-68.500
0.161,-0.500,2.500,19.500,-70.500
0.162,-2.500,1.000,16.500,-72.500
0.163,-4.000,-0.500,13.000,-74.000
0.164,-5.500,-1.500,10.000,-75.500
0.165,-7.000,-3.000,9.000,-76.500
0.166,-8.000,-4.000,9.500,-77.500
0.167,-9.000,-5.000,11.000,-78.500
0.168,-10.000,-6.000,13.500,-79.500
0.169,-10.500,-6.500,16.500,-80.000
0.170,-10.500,-6.500,18.000,-80.000
0.171,-10.500,-6.500,18.000,-80.500
0.172,-10.000,-6.500,16.000,-80.500
0.173,-9.500,-6.000,13.000,-80.500
0.174,-9.500,-6.000,10.000,-80.500
0.175,-9.500,-5.500,8.000,-80.500
0.176,-9.000,-5.000,7.000,-80.500
0.177,-9.000,-5.000,7.000,-80.500
0.178,-8.500,-4.500,7.500,-80.000
0.179,-8.500,-4.000,8.500,-80.000
0.180,-8.500,-4.000,10.000,-80.000
0.181,-8.500,-4.000,12.000,-80.500
0.182,-8.500,-4.500,13.500,-80.500
0.183,-9.000,-5.000,13.500,-81.000
0.184,-9.000,-5.500,12.000,-81.000
0.185,-9.500,-6.500,9.500,-81.500
0.186,-10.000,-7.000,6.500,-81.500
0.187,-10.500,-7.500,3.500,-82.000
0.188,-10.500,-8.000,1.500,-82.000
0.189,-10.500,-8.000,1.500,-81.500
0.190,-10.500,-8.000,3.500,-81.500
0.191,-10.500,-8.000,7.000,-81.500
0.192,-10.000,-8.000,10.500,-81.500
0.193,-9.500,-7.500,13.500,-81.500
0.194,-9.500,-7.000,15.000,-81.500
0.195,-9.000,-6.500,14.000,-81.500
0.196,-8.500,-6.000,12.000,-81.500
0.197,-8.000,-5.500,9.500,-81.000
0.198,-8.000,-5.500,7.500,-81.000
0.199,-8.000,-5.000,7.000,-81.000
0.200,-8.000,-5.000,7.000,-81.000
0.201,-8.500,-5.500,7.000,-81.500
0.202,-9.000,-6.000,6.500,-81.500
0.203,-9.000,-6.000,6.000,-82.000
0.204,-9.500,-6.500,6.000,-82.500
0.205,-9.500,-7.000,6.000,-83.000
0.206,-10.000,-7.500,6.000,-83.000
0.207,-10.000,-8.000,6.000,-83.000
0.208,-10.500,-8.500,5.500,-83.500
0.209,-10.500,-8.500,5.500,-83.500
0.210,-10.500,-8.500,6.000,-83.500
0.211,-10.500,-8.000,7.500,-83.000
0.212,-10.500,-8.000,10.000,-83.000
0.213,-10.000,-7.500,12.500,-82.500
0.214,-10.000,-7.500,15.500,-82.500
0.215,-10.000,-7.500,17.500,-82.500
0.216,-10.000,-7.500,18.500,-82.500
0.217,-10.000,-7.500,18.000,-82.500
0.218,-10.500,-7.000,16.500,-83.000
0.219,-10.500,-7.000,15.000,-83.000
0.220,-11.000,-7.000,13.000,-83.000
0.221,-11.000,-7.500,13.000,-83.500
0.222,-11.000,-7.500,14.000,-83.500
0.223,-11.500,-8.000,15.000,-83.500
0.224,-11.500,-8.000,16.500,-84.000
0.225,-12.000,-8.500,17.500,-84.000
0.226,-12.000,-9.000,18.000,-83.500
0.227,-12.500,-9.500,18.000,-83.500
0.228,-12.500,-9.500,16.500,-83.500
0.229,-12.500,-9.500,14.000,-83.000
0.230,-12.500,-9.500,12.000,-83.000
0.231,-12.500,-9.000,11.000,-83.000
0.232,-12.500,-9.000,11.000,-82.500
0.233,-12.500,-8.500,12.000,-82.500
0.234,-12.000,-8.000,12.000,-82.000
0.235,-12.000,-7.500,11.500,-82.000
0.236,-11.500,-7.500,9.500,-82.000
0.237,-11.500,-7.000,7.000,-82.000
0.238,-11.500,-7.000,5.000,-82.000
0.239,-11.500,-6.500,4.000,-82.000
0.240,-11.500,-6.500,4.000,-81.500
0.241,-12.000,-7.000,4.500,-81.500
0.242,-12.000,-7.000,5.000,-82.000
0.243,-12.500,-7.500,5.000,-82.000
0.244,-13.000,-7.500,4.000,-82.000
0.245,-13.500,-8.000,3.000,-82.500
0.246,-13.500,-8.500,2.000,-82.500
0.247,-13.500,-8.500,1.500,-82.500
0.248,-13.500,-9.000,2.000,-82.500
0.249,-13.500,-9.500,3.500,-83.000
0.250,-13.500,-9.500,6.000,-82.500
0.251,-13.500,-9.000,8.500,-82.500
0.252,-13.000,-9.000,9.500,-82.000
0.253,-13.000,-8.500,9.500,-82.000
0.254,-13.000,-8.500,9.000,-82.000
0.255,-13.000,-8.000,8.000,-82.000
0.256,-12.500,-7.500,8.000,-82.000
0.257,-12.500,-7.500,7.500,-82.000
0.258,-12.500,-7.000,8.000,-81.500
0.259,-12.500,-7.000,9.000,-81.500
0.260,-12.500,-7.500,10.000,-82.000
0.261,-13.000,-7.500,10.500,-82.000
0.262,-13.000,-8.000,10.500,-82.500
0.263,-13.500,-8.500,10.500,-82.500
0.264,-13.500,-9.000,10.000,-83.000
0.265,-14.000,-9.500,10.500,-83.000
0.266,-14.000,-10.000,10.500,-83.000
0.267,-14.500,-10.000,10.500,-83.000
0.268,-14.500,-10.500,9.500,-82.500
0.269,-14.500,-10.500,9.500,-82.500
0.270,-14.500,-10.500,10.000,-82.500
0.271,-14.000,-10.500,11.000,-82.500
0.272,-14.000,-10.000,11.500,-82.500
0.273,-14.000,-10.000,11.500,-82.500
0.274,-14.000,-10.000,12.000,-82.000
0.275,-14.000,-9.500,13.000,-82.000
0.276,-14.000,-9.500,15.000,-82.000
0.277,-14.000,-9.000,16.500,-82.000
0.278,-14.000,-8.500,17.500,-82.000
0.279,-14.000,-8.500,18.000,-82.000
0.280,-14.500,-8.500,18.000,-82.500
0.281,-14.500,-9.000,17.500,-82.500
0.282,-15.000,-9.500,16.000,-82.500
0.283,-15.500,-10.000,14.500,-82.500
0.284,-15.500,-10.500,12.500,-82.500
0.285,-15.500,-11.000,10.000,-82.500
0.286,-16.000,-11.500,8.000,-82.500
0.287,-16.000,-12.000,6.500,-82.500
0.288,-16.000,-12.000,6.000,-82.000
0.289,-16.000,-12.000,5.500,-82.000
0.290,-16.000,-12.000,6.000,-82.000
0.291,-16.000,-11.500,6.500,-82.000
0.292,-16.000,-11.500,6.500,-82.000
0.293,-15.500,-11.000,6.500,-82.500
0.294,-15.500,-11.000,5.500,-82.500
0.295,-15.500,-11.000,4.500,-82.500
0.296,-15.500,-10.500,4.500,-82.500
0.297,-15.500,-10.500,4.500,-82.500
0.298,-15.500,-10.500,4.000,-82.500
0.299,-15.500,-10.500,4.000,-82.500
0.300,-15.500,-10.500,4.000,-82.500
0.301,-15.500,-11.000,4.000,-82.500
0.302,-16.000,-11.500,4.500,-82.500
0.303,-16.500,-11.500,5.000,-82.500
0.304,-16.500,-12.000,6.500,-83.000
0.305,-17.000,-13.000,8.000,-83.000
0.306,-17.500,-13.500,9.500,-83.000
0.307,-18.000,-14.000,10.000,-82.500
0.308,-18.000,-14.500,10.000,-82.500
0.309,-18.000,-14.500,10.000,-82.500
0.310,-18.000,-14.000,11.500,-82.500
0.311,-18.000,-14.000,14.500,-82.500
0.312,-17.500,-13.500,17.500,-82.500
0.313,-17.500,-13.000,19.500,-82.000
0.314,-17.500,-13.000,20.500,-82.000
0.315,-17.500,-12.500,20.000,-81.500
0.316,-17.500,-12.500,19.000,-81.500
0.317,-17.500,-12.500,17.500,-82.000
0.318,-17.500,-12.500,17.000,-82.000
0.319,-18.000,-12.500,15.000,-82.500
0.320,-18.000,-12.500,13.000,-82.500
0.321,-18.500,-13.000,10.500,-82.500
0.322,-19.000,-13.500,9.500,-82.500
0.323,-19.500,-13.500,10.500,-83.000
0.324,-19.500,-14.000,13.000,-83.000
0.325,-20.000,-14.500,15.500,-83.000
0.326,-20.000,-14.500,17.500,-82.500
0.327,-20.000,-15.000,18.500,-82.500
0.328,-20.000,-15.000,18.000,-82.000
0.329,-20.000,-15.000,16.500,-81.500
0.330,-20.000,-14.500,15.500,-81.500
0.331,-20.000,-14.500,15.500,-81.000
0.332,-19.500,-14.000,16.500,-81.000
0.333,-19.500,-14.000,16.500,-80.500
0.334,-19.000,-13.500,16.000,-80.500
0.335,-19.000,-13.000,13.500,-80.500
0.336,-19.000,-13.000,10.000,-80.000
0.337,-19.000,-12.500,7.000,-80.000
0.338,-19.000,-12.500,4.500,-79.500
0.339,-19.000,-12.500,4.000,-79.500
0.340,-19.000,-12.500,4.500,-79.500
0.341,-19.000,-12.500,6.000,-79.500
0.342,-19.500,-13.000,8.000,-79.500
0.343,-20.000,-13.500,9.000,-79.500
0.344,-20.000,-14.000,9.500,-79.500
0.345,-20.500,-14.500,9.000,-79.000
0.346,-21.000,-15.000,7.500,-79.000
0.347,-21.000,-15.500,5.000,-79.000
0.348,-21.000,-15.500,4.000,-79.000
0.349,-21.000,-15.500,4.000,-78.500
0.350,-21.000,-15.500,5.500,-78.500
0.351,-21.000,-15.500,7.000,-78.500
0.352,-21.000,-15.500,7.500,-78.000
0.353,-21.000,-15.500,7.500,-78.000
0.354,-21.000,-15.500,7.000,-77.500
0.355,-21.000,-15.500,6.500,-77.500
0.356,-21.000,-15.500,7.000,-77.000
0.357,-21.000,-15.500,8.000,-77.000
0.358,-21.000,-15.000,9.000,-76.500
0.359,-20.500,-14.500,9.500,-76.500
0.360,-20.500,-14.500,9.000,-76.500
0.361,-21.000,-14.500,8.500,-76.500
0.362,-21.000,-15.000,9.000,-76.500
0.363,-21.500,-15.500,10.000,-76.500
0.364,-22.000,-16.000,12.000,-77.000
0.365,-22.500,-16.500,13.000,-77.000
0.366,-23.500,-17.000,14.000,-77.500
0.367,-23.500,-17.500,15.500,-77.500
0.368,-24.000,-17.500,16.500,-77.500
0.369,-24.000,-18.000,16.500,-78.000
0.370,-24.000,-17.500,15.500,-78.000
0.371,-23.500,-17.500,14.500,-78.500
0.372,-23.500,-17.500,14.500,-78.500
0.373,-23.500,-17.500,15.500,-79.000
0.374,-23.500,-17.000,17.000,-79.500
0.375,-23.500,-17.000,17.500,-80.000
0.376,-23.000,-16.500,17.500,-80.500
0.377,-22.500,-16.000,16.000,-80.500
0.378,-22.000,-15.500,14.000,-80.500
0.379,-22.000,-15.500,11.500,-80.500
0.380,-22.000,-15.500,10.000,-81.000
0.381,-21.500,-15.500,9.000,-81.000
0.382,-21.500,-15.500,8.500,-81.000
0.383,-21.500,-16.000,7.500,-81.500
0.384,-21.500,-16.000,6.000,-81.500
0.385,-21.500,-16.500,5.000,-81.500
0.386,-22.000,-17.000,5.000,-82.000
0.387,-22.000,-17.500,5.500,-82.000
0.388,-22.000,-18.000,7.000,-82.500
0.389,-22.000,-18.500,8.500,-83.000
0.390,-22.000,-18.500,10.000,-83.500
0.391,-22.000,-18.500,11.000,-84.000
0.392,-22.500,-18.500,11.500,-84.500
0.393,-22.500,-18.500,11.000,-85.000
0.394,-23.000,-19.000,11.000,-86.000
0.395,-24.000,-19.500,12.000,-86.500
0.396,-24.500,-20.000,13.500,-87.500
0.397,-25.000,-20.500,15.500,-88.000
0.398,-25.500,-21.000,16.000,-89.000
0.399,-25.500,-21.000,15.000,-89.500
0.400,-25.500,-21.000,13.500,-89.500
0.401,-26.000,-21.500,12.500,-89.500
0.402,-26.000,-21.500,12.000,-89.500
0.403,-25.500,-21.000,11.500,-89.500
0.404,-25.000,-20.500,10.500,-89.000
0.405,-24.500,-20.000,9.000,-88.500
0.406,-24.000,-19.500,8.500,-87.500
0.407,-23.000,-18.500,8.500,-87.000
0.408,-22.000,-18.000,8.500,-86.000
0.409,-21.000,-17.000,8.500,-85.500
0.410,-20.000,-16.000,8.500,-84.500
0.411,-19.000,-15.500,8.500,-83.500
0.412,-18.500,-14.500,9.000,-83.500
0.413,-17.500,-14.000,9.000,-83.000
0.414,-17.500,-13.500,9.500,-83.500
0.415,-17.000,-13.500,10.500,-83.500
0.416,-17.000,-13.000,12.500,-83.500
0.417,-16.500,-12.500,14.000,-83.500
0.418,-16.000,-12.500,14.000,-83.500
0.419,-16.000,-12.500,13.500,-83.500
0.420,-16.000,-12.000,12.000,-83.500
0.421,-16.000,-12.000,11.000,-83.500
0.422,-16.000,-12.000,11.000,-83.500
0.423,-16.000,-12.000,12.000,-83.500
0.424,-16.000,-12.500,13.000,-83.500
0.425,-16.500,-12.500,14.000,-83.500
0.426,-16.500,-13.000,14.000,-83.500
0.427,-16.500,-13.500,13.500,-83.500
0.428,-16.500,-13.500,13.000,-83.500
0.429,-16.500,-14.000,13.000,-83.500
0.430,-16.500,-13.500,13.000,-83.500
0.431,-16.000,-13.500,12.500,-83.500
0.432,-16.000,-13.500,12.500,-83.500
0.433,-16.000,-13.000,12.000,-83.000
0.434,-15.500,-12.500,12.500,-83.000
0.435,-15.500,-12.500,13.000,-83.000
0.436,-15.500,-12.000,13.000,-83.000
0.437,-15.000,-11.500,13.000,-83.000
0.438,-15.000,-11.500,13.000,-82.500
0.439,-14.500,-11.500,14.000,-82.500
0.440,-14.500,-11.500,14.500,-82.500
0.441,-15.000,-11.500,15.000,-82.500
0.442,-15.000,-11.500,15.000,-82.500
0.443,-15.500,-12.000,15.500,-82.500
0.444,-15.500,-12.000,16.000,-83.000
0.445,-16.000,-12.000,16.000,-83.000
0.446,-16.000,-12.500,16.000,-83.500
0.447,-16.500,-12.500,15.500,-83.500
0.448,-16.000,-13.000,15.500,-83.000
0.449,-16.000,-13.000,16.500,-83.000
0.450,-15.500,-13.000,17.000,-82.500
0.451,-15.500,-13.000,16.500,-82.500
0.452,-15.000,-13.000,15.000,-82.000
0.453,-15.000,-12.500,13.500,-82.000
0.454,-15.000,-12.500,11.500,-82.500
0.455,-15.000,-12.000,10.500,-82.500
0.456,-15.000,-12.000,10.000,-82.500
0.457,-15.000,-11.500,9.500,-82.500
0.458,-14.500,-11.500,10.000,-82.500
0.459,-15.000,-11.500,10.500,-82.500
0.460,-15.000,-11.500,11.000,-82.500
0.461,-15.000,-12.000,11.000,-83.000
0.462,-15.500,-12.000,11.500,-83.000
0.463,-16.000,-12.500,12.000,-83.500
0.464,-16.000,-12.500,13.000,-83.500
0.465,-17.000,-13.000,13.000,-83.500
0.466,-17.500,-13.000,13.000,-83.500
0.467,-17.500,-13.500,13.500,-83.500
0.468,-18.000,-14.000,14.000,-83.500
0.469,-17.500,-14.000,15.000,-83.500
0.470,-17.500,-14.000,15.000,-83.000
0.471,-17.000,-14.000,14.500,-83.000
0.472,-16.500,-13.500,14.000,-83.000
0.473,-16.000,-13.500,14.500,-83.000
0.474,-15.500,-13.000,15.000,-83.000
0.475,-15.000,-12.500,16.500,-82.500
0.476,-15.000,-12.000,18.000,-82.500
0.477,-15.000,-11.500,18.500,-82.500
0.478,-15.000,-11.500,18.000,-83.000
0.479,-15.000,-11.500,17.500,-83.000
0.480,-15.000,-11.500,17.500,-83.500
0.481,-15.000,-11.500,17.500,-83.500
0.482,-15.000,-11.500,18.000,-83.500
0.483,-15.500,-12.000,18.500,-83.500
0.484,-16.000,-12.500,19.000,-83.000
0.485,-16.000,-12.500,19.000,-83.000
0.486,-16.500,-13.000,18.500,-83.000
0.487,-16.500,-13.000,16.500,-83.000
0.488,-16.500,-12.500,13.500,-82.500
0.489,-16.500,-12.500,11.500,-82.000
0.490,-16.500,-12.000,10.500,-82.000
0.491,-16.500,-11.500,10.500,-82.000
0.492,-16.000,-11.500,10.500,-82.000
0.493,-15.500,-11.000,10.000,-82.000
0.494,-15.500,-11.000,9.500,-82.000
0.495,-15.500,-11.000,9.000,-82.000
0.496,-15.000,-10.500,8.500,-82.000
0.497,-15.000,-10.500,8.500,-82.000
0.498,-15.000,-10.500,8.000,-81.500
0.499,-14.500,-10.500,6.500,-81.000
0.500,-14.500,-10.500,5.000,-81.000
0.501,-15.000,-11.000,3.000,-81.000
0.502,-15.500,-11.500,2.000,-81.500
0.503,-15.500,-12.000,2.000,-82.000
0.504,-15.500,-12.500,2.500,-82.000
0.505,-16.000,-13.000,2.500,-82.500
0.506,-16.000,-13.000,2.500,-83.000
0.507,-16.000,-13.500,2.500,-83.000
0.508,-15.500,-13.500,3.500,-82.500
0.509,-15.500,-13.500,4.000,-82.500
0.510,-15.500,-13.500,5.000,-82.500
0.511,-15.000,-13.000,5.500,-82.500
0.512,-15.000,-13.000,6.500,-82.500
0.513,-15.000,-12.500,7.500,-82.500
0.514,-15.000,-12.500,7.500,-82.500
0.515,-14.500,-12.000,7.500,-82.500
0.516,-14.500,-11.500,7.000,-82.500
0.517,-14.500,-11.000,6.000,-82.000
0.518,-14.000,-10.500,5.500,-82.000
0.519,-14.500,-10.500,5.000,-82.000
0.520,-14.500,-10.500,4.500,-82.000
0.521,-14.500,-10.500,4.500,-82.000
0.522,-15.000,-10.500,4.500,-82.000
0.523,-15.000,-11.000,4.500,-82.500
0.524,-15.500,-11.500,3.500,-82.500
0.525,-16.000,-12.000,3.000,-82.500
0.526,-16.000,-12.500,2.500,-82.500
0.527,-16.500,-13.000,2.000,-82.500
0.528,-16.500,-13.000,1.000,-82.500
0.529,-16.500,-13.000,0.500,-82.500
0.530,-16.500,-13.000,0.000,-82.500
0.531,-16.500,-13.000,0.000,-83.000
0.532,-16.000,-12.500,1.000,-83.000
0.533,-15.500,-12.000,2.500,-83.000
0.534,-15.500,-11.500,4.000,-82.500
0.535,-15.000,-11.000,6.000,-82.500
0.536,-14.500,-10.500,8.000,-82.500
0.537,-14.500,-10.500,9.000,-82.500
0.538,-14.000,-10.500,8.500,-82.500
0.539,-14.000,-10.500,6.500,-82.500
0.540,-14.500,-10.500,4.000,-83.000
0.541,-15.000,-10.500,2.500,-83.000
0.542,-15.500,-11.000,2.000,-83.500
0.543,-16.000,-11.500,3.000,-83.500
0.544,-16.500,-12.000,4.000,-83.500
0.545,-17.000,-12.500,6.000,-83.500
0.546,-17.000,-13.000,8.000,-83.500
0.547,-17.500,-13.500,10.000,-84.000
0.548,-17.500,-13.500,12.000,-84.000
0.549,-17.500,-13.500,13.000,-84.000
0.550,-17.500,-13.500,13.500,-84.000
0.551,-17.500,-13.500,14.000,-84.500
0.552,-17.500,-13.000,14.000,-84.500
0.553,-17.000,-12.500,14.000,-84.500
0.554,-16.500,-12.000,13.500,-85.000
0.555,-16.500,-12.000,12.500,-85.000
0.556,-16.500,-11.500,11.500,-85.000
0.557,-16.500,-11.500,11.000,-85.000
0.558,-16.500,-11.500,10.500,-85.500
0.559,-17.000,-11.500,10.500,-85.500
0.560,-17.500,-12.000,11.000,-85.500
0.561,-17.500,-12.000,12.000,-85.500
0.562,-18.000,-12.500,14.000,-85.500
0.563,-18.000,-12.500,17.000,-85.500
0.564,-18.500,-13.000,19.500,-85.500
0.565,-18.500,-13.500,22.000,-85.500
0.566,-19.000,-14.000,23.000,-85.500
0.567,-19.000,-14.500,23.000,-85.500
0.568,-19.000,-14.500,22.000,-85.500
0.569,-19.000,-15.000,21.000,-85.500
0.570,-18.500,-14.500,20.000,-85.500
0.571,-18.500,-14.500,20.000,-85.000
0.572,-18.000,-14.000,20.500,-85.000
0.573,-18.000,-13.500,21.000,-85.000
0.574,-18.000,-13.000,20.000,-84.500
0.575,-18.000,-12.500,17.500,-84.500
0.576,-17.500,-12.500,14.500,-84.000
0.577,-17.500,-12.000,12.000,-84.000
0.578,-17.000,-12.000,9.500,-84.000
0.579,-17.000,-11.500,7.500,-84.000
0.580,-17.000,-11.500,6.000,-84.000
0.581,-17.500,-11.500,4.500,-84.500
0.582,-17.500,-11.500,5.000,-84.500
0.583,-18.000,-12.000,7.000,-84.500
0.584,-18.500,-12.500,10.000,-84.500
0.585,-19.000,-13.000,12.500,-84.500
0.586,-19.000,-13.500,14.500,-85.000
0.587,-19.000,-13.500,15.500,-85.000
0.588,-19.500,-14.000,15.500,-85.000
0.589,-19.500,-14.000,14.500,-85.000
0.590,-19.500,-14.000,14.000,-85.000
0.591,-19.000,-13.500,14.000,-85.000
0.592,-19.000,-13.500,13.500,-85.000
0.593,-19.000,-13.000,12.500,-84.500
0.594,-19.000,-13.000,11.000,-84.500
0.595,-18.500,-12.500,10.000,-84.500
0.596,-18.000,-12.000,10.000,-84.500
0.597,-18.000,-11.500,10.500,-84.500
0.598,-17.500,-11.500,11.500,-84.500
0.599,-17.500,-11.500,12.000,-84.500
0.600,-17.500,-11.500,12.500,-84.500
0.601,-17.500,-11.500,12.500,-84.500
0.602,-18.000,-11.500,12.000,-84.500
0.603,-18.000,-11.500,11.000,-84.500
0.604,-18.500,-12.000,10.000,-84.500
0.605,-18.500,-12.500,8.000,-84.500
0.606,-19.000,-13.000,7.500,-84.500
0.607,-19.000,-13.000,7.500,-84.500
0.608,-19.000,-13.000,8.000,-84.500
0.609,-18.500,-13.000,8.000,-84.500
0.610,-18.500,-13.000,7.000,-84.500
0.611,-18.500,-13.000,6.000,-85.000
0.612,-18.500,-12.500,4.500,-85.000
0.613,-18.000,-12.000,3.000,-85.000
0.614,-18.000,-12.000,2.000,-85.000
0.615,-18.000,-11.500,2.000,-85.000
0.616,-17.500,-11.000,2.500,-84.500
0.617,-17.500,-11.000,3.000,-84.500
0.618,-17.000,-10.500,4.500,-84.000
0.619,-17.000,-10.500,5.500,-83.500
0.620,-17.000,-10.000,6.000,-83.500
0.621,-17.000,-10.500,6.000,-83.500
0.622,-17.500,-10.500,6.000,-84.000
0.623,-18.000,-11.000,5.500,-84.500
0.624,-18.500,-12.000,5.000,-85.000
0.625,-19.000,-12.500,4.500,-85.000
0.626,-19.500,-13.000,3.000,-85.000
0.627,-19.500,-13.000,1.500,-85.000
0.628,-19.500,-13.000,1.000,-85.000
0.629,-19.500,-13.000,0.500,-85.500
0.630,-19.500,-13.000,1.500,-85.500
0.631,-19.000,-12.500,2.500,-85.500
0.632,-19.000,-12.500,3.000,-85.000
0.633,-19.000,-12.500,2.500,-85.000
0.634,-19.000,-12.000,1.000,-84.500
0.635,-18.500,-12.000,0.000,-84.500
0.636,-18.500,-12.000,-1.000,-84.500
0.637,-18.000,-12.000,-2.000,-84.000
0.638,-18.000,-12.000,-3.000,-84.000
0.639,-18.000,-12.000,-3.500,-84.000
0.640,-18.500,-12.000,-3.500,-84.000
0.641,-18.500,-12.000,-2.500,-84.000
0.642,-19.000,-12.500,-1.500,-84.000
0.643,-19.500,-13.000,-1.000,-84.500
0.644,-19.500,-13.500,-0.500,-84.500
0.645,-20.000,-13.500,-0.500,-85.000
0.646,-20.000,-14.000,-0.500,-85.000
0.647,-20.500,-14.500,0.000,-85.000
0.648,-20.500,-14.500,-0.500,-85.000
0.649,-20.500,-14.500,0.000,-85.000
0.650,-20.500,-15.000,1.000,-84.500
0.651,-21.000,-15.000,2.000,-84.500
0.652,-21.000,-15.000,3.000,-84.000
0.653,-21.000,-14.500,3.500,-84.000
0.654,-20.500,-14.000,3.500,-84.000
0.655,-20.500,-13.500,3.000,-83.500
0.656,-20.000,-13.000,2.500,-83.000
0.657,-20.000,-13.000,2.500,-83.000
0.658,-19.500,-12.500,3.000,-82.500
0.659,-19.500,-12.500,3.000,-82.500
0.660,-19.500,-12.500,2.500,-83.000
0.661,-20.000,-13.000,2.000,-83.500
0.662,-20.000,-13.000,1.000,-83.500
0.663,-20.500,-13.000,0.500,-83.500
0.664,-20.500,-13.500,-0.500,-83.500
0.665,-20.500,-14.000,-0.500,-83.500
0.666,-20.500,-14.000,-1.000,-83.500
0.667,-20.500,-14.500,-0.500,-83.000
0.668,-20.500,-14.500,0.000,-82.500
0.669,-20.000,-14.500,0.500,-82.000
0.670,-20.000,-14.000,1.500,-82.000
0.671,-19.500,-14.000,3.000,-82.000
0.672,-19.000,-13.500,4.500,-82.000
0.673,-18.500,-13.500,6.000,-82.000
0.674,-18.000,-13.000,7.000,-82.000
0.675,-18.000,-12.500,8.000,-82.000
0.676,-17.500,-12.500,8.500,-82.000
0.677,-17.500,-12.000,9.000,-82.000
0.678,-17.500,-12.000,9.500,-82.000
0.679,-17.500,-12.000,10.500,-81.500
0.680,-18.000,-12.000,12.000,-81.500
0.681,-18.500,-12.500,13.500,-81.500
0.682,-19.000,-13.000,15.500,-81.500
0.683,-19.500,-13.500,16.500,-81.500
0.684,-20.000,-14.000,17.000,-81.500
0.685,-20.500,-14.500,15.500,-81.500
0.686,-21.000,-15.000,14.000,-81.500
0.687,-21.000,-15.500,12.000,-81.500
0.688,-21.000,-15.500,11.000,-81.500
0.689,-21.000,-15.500,11.000,-81.500
0.690,-21.000,-15.000,13.000,-81.000
0.691,-20.500,-15.000,15.500,-81.000
0.692,-20.500,-14.500,18.500,-81.000
0.693,-20.500,-14.000,20.500,-80.500
0.694,-20.500,-14.000,21.500,-80.500
0.695,-20.500,-13.500,21.500,-80.500
0.696,-20.000,-13.000,20.500,-80.500
0.697,-20.000,-13.000,19.500,-80.500
0.698,-19.500,-12.500,17.500,-80.500
0.699,-19.000,-12.500,15.500,-80.500
0.700,-19.000,-12.000,14.000,-81.000
0.701,-19.000,-12.500,12.000,-81.000
0.702,-19.000,-12.500,10.000,-81.000
0.703,-19.000,-12.500,8.500,-81.000
0.704,-19.000,-13.000,7.500,-81.000
0.705,-19.000,-13.500,7.000,-81.500
0.706,-19.500,-14.000,6.500,-81.500
0.707,-19.500,-14.500,6.500,-82.000
0.708,-20.000,-14.500,8.000,-82.000
0.709,-20.000,-15.000,10.000,-82.000
0.710,-20.000,-15.000,12.500,-82.000
0.711,-20.000,-14.500,14.500,-82.000
0.712,-19.500,-14.500,16.000,-81.500
0.713,-19.500,-14.000,16.000,-81.500
0.714,-19.000,-14.000,15.500,-81.000
0.715,-18.500,-13.500,13.500,-80.500
0.716,-18.500,-12.500,12.500,-80.000
0.717,-18.500,-12.500,11.500,-79.500
0.718,-18.500,-12.000,11.500,-79.500
0.719,-18.500,-12.000,11.500,-79.500
0.720,-18.500,-12.000,11.500,-79.500
0.721,-19.000,-12.000,12.000,-80.000
0.722,-19.000,-12.500,12.000,-80.000
0.723,-19.000,-12.500,11.000,-80.000
0.724,-19.000,-13.000,8.500,-80.500
0.725,-19.500,-13.500,6.000,-80.500
0.726,-19.500,-14.000,4.500,-80.000
0.727,-19.500,-14.000,4.000,-80.000
0.728,-20.000,-14.000,4.500,-79.500
0.729,-20.000,-14.000,4.500,-79.500
0.730,-20.000,-14.000,5.000,-79.500
0.731,-19.500,-14.000,5.500,-79.000
0.732,-19.500,-14.000,7.000,-79.000
0.733,-19.000,-13.500,9.000,-79.000
0.734,-19.000,-13.500,11.000,-79.000
0.735,-19.000,-13.500,12.000,-79.000
0.736,-19.000,-13.000,11.500,-79.000
0.737,-19.000,-13.000,10.500,-79.500
0.738,-18.500,-13.000,9.500,-79.500
0.739,-18.500,-12.500,9.500,-80.000
0.740,-18.500,-12.500,9.500,-80.000
0.741,-19.000,-12.500,9.500,-80.000
0.742,-19.000,-13.000,9.000,-80.000
0.743,-19.000,-13.000,9.000,-80.000
0.744,-19.500,-13.500,9.500,-80.500
0.745,-20.000,-14.500,11.000,-80.500
0.746,-20.000,-15.000,11.500,-81.000
0.747,-20.500,-15.500,11.000,-81.500
0.748,-20.500,-16.000,9.000,-82.000
0.749,-20.500,-16.000,6.500,-82.000
0.750,-20.500,-16.000,4.000,-82.500
0.751,-20.500,-15.500,3.000,-82.500
0.752,-20.500,-15.500,2.500,-82.500
0.753,-20.500,-15.000,3.500,-82.500
0.754,-20.500,-14.500,4.000,-82.500
0.755,-20.500,-14.000,4.500,-82.500
0.756,-20.500,-14.000,4.000,-82.500
0.757,-20.500,-14.000,2.000,-82.500
0.758,-20.000,-14.000,0.000,-83.000
0.759,-20.000,-14.500,-2.000,-83.500
0.760,-20.000,-15.000,-4.000,-84.000
0.761,-20.500,-15.500,-5.000,-85.000
0.762,-21.000,-16.500,-5.500,-86.000
0.763,-21.500,-17.500,-6.000,-87.500
0.764,-22.500,-18.500,-6.000,-88.500
0.765,-23.500,-19.500,-6.000,-90.000
0.766,-24.500,-21.000,-6.000,-91.000
0.767,-26.000,-22.000,-6.500,-92.500
0.768,-27.000,-23.500,-7.000,-93.500
0.769,-28.000,-24.500,-7.500,-94.000
0.770,-29.000,-25.500,-6.500,-94.500
0.771,-30.000,-26.000,-3.500,-94.500
0.772,-31.000,-26.500,-0.500,-95.000
0.773,-31.500,-26.500,2.500,-94.500
0.774,-32.500,-27.000,4.000,-94.500
0.775,-33.500,-27.000,5.500,-94.000
0.776,-34.500,-27.500,7.500,-93.500
0.777,-36.000,-28.000,9.500,-92.500
0.778,-37.000,-28.500,10.000,-91.000
0.779,-38.500,-29.000,9.500,-89.500
0.780,-39.500,-29.000,7.500,-87.000
0.781,-41.000,-29.500,6.500,-84.500
0.782,-42.500,-29.500,6.500,-81.500
0.783,-43.500,-30.000,7.000,-78.500
0.784,-45.000,-30.000,7.500,-75.000
0.785,-46.500,-30.000,7.000,-72.500
0.786,-47.500,-30.500,6.000,-69.500
0.787,-48.500,-30.500,5.000,-67.000
0.788,-49.000,-30.500,5.000,-64.500
0.789,-49.500,-30.500,6.000,-62.500
0.790,-50.500,-30.500,7.500,-60.500
0.791,-50.500,-30.000,8.000,-59.000
0.792,-50.500,-29.500,8.500,-57.500
0.793,-50.000,-28.500,8.500,-56.500
0.794,-48.500,-27.000,8.500,-55.500
0.795,-47.000,-25.500,8.500,-54.500
0.796,-44.500,-23.500,9.000,-53.500
0.797,-41.500,-21.000,9.500,-53.000
0.798,-38.500,-18.500,10.000,-53.000
0.799,-35.500,-16.500,10.500,-53.000
0.800,-32.000,-14.000,11.000,-54.000
0.801,-28.500,-12.000,10.500,-55.000
0.802,-25.500,-10.000,10.000,-56.000
0.803,-22.500,-8.000,10.000,-57.500
0.804,-19.500,-6.500,11.000,-59.000
0.805,-16.500,-5.000,13.000,-59.500
0.806,-14.000,-3.500,14.500,-60.000
0.807,-12.000,-2.500,15.000,-60.500
0.808,-10.500,-2.000,14.500,-61.000
0.809,-10.000,-2.000,13.500,-62.500
0.810,-10.500,-3.000,13.000,-64.000
0.811,-12.000,-4.500,12.000,-66.000
0.812,-13.500,-6.000,11.500,-68.000
0.813,-15.000,-7.500,10.500,-70.000
0.814,-16.500,-9.000,10.000,-72.000
0.815,-18.000,-10.000,10.000,-73.500
0.816,-19.000,-11.000,9.500,-75.000
0.817,-20.000,-12.000,9.500,-76.500
0.818,-21.000,-12.500,9.000,-77.500
0.819,-22.000,-13.500,9.500,-79.000
0.820,-23.000,-14.500,9.500,-80.000
0.821,-23.500,-15.000,9.500,-81.000
0.822,-24.000,-16.000,9.000,-82.000
0.823,-24.500,-16.500,7.000,-82.500
0.824,-25.000,-17.000,4.000,-83.000
0.825,-25.000,-17.500,0.000,-83.000
0.826,-25.000,-17.500,-3.500,-82.500
0.827,-24.500,-17.000,-6.500,-82.500
0.828,-24.500,-17.000,-8.500,-82.500
0.829,-24.000,-16.500,-9.000,-82.500
0.830,-24.000,-16.500,-9.000,-82.500
0.831,-23.500,-16.500,-7.500,-82.500
0.832,-23.500,-16.000,-5.000,-82.500
0.833,-23.500,-16.000,-2.000,-83.000
0.834,-23.000,-15.500,2.000,-83.000
0.835,-23.000,-15.000,5.000,-83.000
0.836,-23.000,-15.000,7.500,-83.000
0.837,-23.000,-14.500,8.500,-83.000
0.838,-23.000,-15.000,8.500,-83.000
0.839,-23.500,-16.000,8.000,-83.500
0.840,-24.500,-17.000,8.000,-84.500
0.841,-25.500,-18.000,8.500,-85.500
0.842,-27.000,-19.500,8.500,-87.000
0.843,-28.000,-21.000,8.000,-88.500
0.844,-29.500,-22.000,6.500,-90.000
0.845,-31.000,-23.500,5.000,-91.000
0.846,-32.000,-24.500,4.000,-91.500
0.847,-32.500,-25.500,4.500,-92.000
0.848,-33.000,-26.500,6.000,-92.000
0.849,-33.000,-26.500,7.500,-92.000
0.850,-33.000,-26.500,8.000,-91.500
0.851,-32.500,-26.000,6.500,-91.500
0.852,-32.000,-25.500,4.000,-91.000
0.853,-31.500,-24.500,1.500,-90.500
0.854,-30.500,-23.500,0.500,-89.500
0.855,-30.000,-22.500,2.000,-89.000
0.856,-29.000,-21.500,4.500,-88.000
0.857,-28.000,-20.500,7.000,-87.500
0.858,-27.500,-19.500,9.000,-86.500
0.859,-26.500,-19.000,9.000,-86.000
0.860,-26.500,-18.500,8.500,-85.500
0.861,-26.500,-18.500,7.000,-85.000
0.862,-26.500,-18.500,5.500,-85.500
0.863,-27.500,-19.500,4.500,-85.500
0.864,-28.000,-20.000,4.000,-86.000
0.865,-29.000,-20.500,4.000,-86.500
0.866,-29.500,-21.000,4.500,-86.500
0.867,-30.000,-21.500,4.500,-87.000
0.868,-30.000,-22.000,4.000,-87.000
0.869,-30.000,-22.000,2.000,-87.000
0.870,-30.000,-22.000,-0.500,-87.000
0.871,-30.000,-22.000,-2.500,-87.500
0.872,-30.000,-22.000,-3.500,-87.500
0.873,-30.000,-21.500,-4.000,-87.500
0.874,-29.500,-21.000,-5.000,-87.000
0.875,-29.500,-21.000,-5.500,-87.000
0.876,-29.500,-21.000,-6.500,-87.000
0.877,-29.500,-21.000,-6.000,-87.000
0.878,-29.500,-21.000,-5.000,-87.000
0.879,-29.500,-21.000,-4.000,-87.000
0.880,-29.500,-21.000,-3.500,-87.000
0.881,-29.500,-21.000,-4.500,-87.000
0.882,-30.000,-21.500,-5.000,-87.000
0.883,-30.500,-22.000,-5.500,-87.000
0.884,-31.000,-22.500,-5.000,-87.000
0.885,-31.000,-23.000,-4.500,-87.000
0.886,-31.000,-23.000,-4.000,-87.000
0.887,-31.500,-23.500,-4.500,-87.000
0.888,-31.500,-23.500,-4.500,-87.000
0.889,-31.500,-24.000,-3.500,-87.000
0.890,-31.500,-24.000,-2.000,-87.000
0.891,-31.500,-24.000,-0.500,-87.000
0.892,-31.500,-24.000,0.500,-87.000
0.893,-31.500,-23.500,1.500,-87.000
0.894,-31.500,-23.500,3.000,-86.500
0.895,-31.500,-23.000,4.000,-87.000
0.896,-31.500,-23.000,4.500,-87.000
0.897,-31.500,-22.500,4.500,-87.000
0.898,-31.000,-22.500,4.500,-87.000
0.899,-31.000,-22.500,5.500,-87.000
0.900,-31.000,-22.500,7.500,-87.000
0.901,-31.000,-22.500,9.500,-87.500
0.902,-31.000,-23.000,10.500,-88.000
0.903,-31.500,-23.500,10.000,-88.000
0.904,-32.000,-24.000,9.500,-88.500
0.905,-32.500,-25.000,9.000,-89.000
0.906,-32.500,-25.500,8.500,-89.000
0.907,-33.000,-25.500,8.000,-89.000
0.908,-33.000,-26.000,7.000,-89.000
0.909,-33.000,-26.000,6.500,-89.000
0.910,-33.000,-25.500,6.000,-89.000
0.911,-33.000,-25.000,5.500,-88.500
0.912,-32.500,-24.500,6.000,-88.500
0.913,-32.500,-24.000,6.000,-88.500
0.914,-32.000,-23.500,5.500,-88.000
0.915,-31.500,-23.500,4.000,-87.500
0.916,-31.500,-23.000,2.500,-87.500
0.917,-31.500,-22.500,1.500,-87.000
0.918,-31.500,-22.500,1.000,-86.500
0.919,-31.500,-22.500,1.000,-86.500
0.920,-32.000,-22.500,1.500,-86.500
0.921,-32.500,-23.000,2.000,-87.000
0.922,-32.500,-23.500,2.500,-87.500
0.923,-33.000,-24.000,2.000,-88.000
0.924,-33.000,-24.500,0.500,-88.500
0.925,-33.000,-25.000,-2.000,-89.000
0.926,-33.500,-25.500,-4.000,-89.000
0.927,-33.500,-26.000,-5.500,-89.000
0.928,-34.000,-26.500,-5.500,-89.000
0.929,-34.500,-27.000,-4.000,-89.000
0.930,-34.500,-27.000,-2.000,-89.000
0.931,-35.000,-27.000,0.500,-89.000
0.932,-35.000,-27.000,1.500,-89.000
0.933,-35.500,-27.000,2.000,-89.000
0.934,-35.500,-27.000,1.000,-89.000
0.935,-35.000,-26.500,-1.000,-89.000
0.936,-35.000,-26.500,-2.500,-89.000
0.937,-34.500,-26.500,-2.500,-89.000
0.938,-34.000,-26.000,-2.500,-88.500
0.939,-34.000,-26.000,-1.500,-88.500
0.940,-34.000,-26.000,-1.000,-88.500
0.941,-34.500,-26.000,-0.500,-89.000
0.942,-34.500,-26.000,-0.500,-89.000
0.943,-35.000,-26.500,0.000,-89.500
0.944,-35.500,-26.500,0.000,-89.500
0.945,-35.500,-27.000,-0.500,-89.500
0.946,-36.000,-27.500,-1.000,-89.500
0.947,-36.500,-28.000,-1.500,-89.500
0.948,-36.500,-28.000,-1.500,-89.500
0.949,-36.500,-28.500,-1.000,-89.500
0.950,-36.500,-28.500,0.500,-89.500
0.951,-36.500,-29.000,2.000,-89.000
0.952,-36.500,-29.000,3.000,-89.000
0.953,-36.500,-29.000,3.500,-89.000
0.954,-36.500,-29.000,3.500,-89.000
0.955,-36.500,-28.500,4.000,-89.000
0.956,-36.500,-28.500,4.500,-89.000
0.957,-36.500,-28.500,5.500,-89.500
0.958,-36.500,-28.000,6.500,-89.500
0.959,-36.500,-28.000,6.000,-89.000
0.960,-36.500,-28.000,5.000,-89.000
0.961,-36.500,-28.000,3.500,-89.000
0.962,-37.000,-28.000,2.500,-89.000
0.963,-37.000,-28.500,2.500,-89.000
0.964,-37.500,-29.000,4.000,-89.000
0.965,-38.000,-29.500,5.500,-89.000
0.966,-38.500,-29.500,7.000,-89.000
0.967,-38.500,-29.500,8.500,-89.000
0.968,-38.500,-29.500,10.000,-89.000
0.969,-38.000,-30.000,11.500,-89.000
0.970,-38.000,-30.000,12.500,-89.000
0.971,-38.000,-30.000,13.500,-89.000
0.972,-38.000,-30.000,14.000,-89.000
0.973,-38.000,-30.000,15.000,-89.000
0.974,-38.000,-29.500,16.000,-88.500
0.975,-38.000,-29.500,16.500,-88.500
0.976,-37.500,-29.000,16.500,-88.500
0.977,-37.500,-29.000,15.500,-88.500
0.978,-37.500,-29.000,14.000,-88.000
0.979,-37.500,-28.500,11.500,-88.000
0.980,-37.500,-29.000,10.000,-88.500
0.981,-38.000,-29.000,9.500,-88.500
0.982,-38.500,-29.500,10.000,-88.500
0.983,-39.000,-29.500,10.500,-89.000
0.984,-39.000,-30.000,11.000,-89.000
0.985,-39.500,-31.000,12.000,-89.000
0.986,-39.500,-31.500,12.000,-89.000
0.987,-40.000,-32.000,12.000,-89.000
0.988,-40.000,-32.000,11.500,-89.000
0.989,-40.000,-32.500,11.500,-89.000
0.990,-40.500,-32.500,11.000,-89.500
0.991,-40.500,-32.500,11.500,-89.500
0.992,-40.000,-32.500,12.500,-89.500
0.993,-40.000,-32.000,14.500,-89.000
0.994,-40.000,-32.000,16.500,-88.500
0.995,-39.500,-31.500,18.000,-88.500
0.996,-39.500,-31.000,18.000,-88.500
0.997,-39.500,-30.500,17.000,-88.000
0.998,-39.500,-30.500,15.500,-88.000
0.999,-39.500,-30.500,14.000,-88.000
1.000,-39.500,-30.500,14.000,-88.000
1.001,-40.000,-30.500,14.500,-88.000
1.002,-40.500,-31.000,15.500,-88.000
1.003,-41.000,-31.500,17.000,-88.000
1.004,-41.500,-32.000,18.500,-88.500
1.005,-41.500,-32.500,19.500,-88.500
1.006,-42.000,-33.500,18.500,-88.500
1.007,-42.000,-34.000,17.000,-88.500
1.008,-42.000,-34.500,14.000,-88.500
1.009,-42.000,-34.500,11.000,-88.500
1.010,-42.000,-34.500,8.500,-88.000
1.011,-41.500,-34.000,7.500,-88.000
1.012,-41.500,-34.000,8.000,-87.500
1.013,-41.500,-33.500,9.500,-87.500
1.014,-41.500,-33.500,11.500,-87.000
1.015,-41.500,-33.000,13.500,-87.000
1.016,-41.500,-33.000,14.500,-87.000
1.017,-41.000,-33.000,14.000,-87.000
1.018,-41.000,-33.000,13.500,-87.500
1.019,-41.000,-33.000,13.500,-87.500
1.020,-41.500,-33.500,14.000,-87.500
1.021,-41.500,-33.500,15.000,-88.000
1.022,-42.000,-34.000,15.500,-88.500
1.023,-42.500,-35.000,16.000,-88.500
1.024,-43.500,-35.500,15.500,-89.000
1.025,-44.000,-36.500,13.500,-89.000
1.026,-44.000,-36.500,12.000,-89.500
1.027,-44.500,-37.000,10.500,-90.000
1.028,-44.500,-37.000,10.500,-90.000
1.029,-44.500,-37.000,11.000,-90.500
1.030,-44.500,-37.000,11.000,-90.500
1.031,-44.500,-37.000,9.500,-90.500
1.032,-44.000,-36.500,7.500,-91.000
1.033,-44.000,-36.500,5.500,-91.500
1.034,-43.500,-36.000,4.500,-91.500
1.035,-43.000,-36.000,4.500,-92.000
1.036,-43.000,-35.500,5.500,-92.000
1.037,-42.500,-35.000,6.500,-92.000
1.038,-42.500,-35.000,7.000,-92.000
1.039,-42.000,-34.500,7.500,-92.500
1.040,-42.000,-34.500,7.000,-93.000
1.041,-42.000,-34.500,6.500,-93.000
1.042,-42.000,-34.500,6.000,-93.500
1.043,-42.000,-35.000,6.000,-93.500
1.044,-42.000,-35.000,6.500,-94.000
1.045,-42.000,-35.500,7.500,-94.000
1.046,-42.000,-35.500,8.000,-94.500
1.047,-42.000,-35.500,8.000,-94.500
1.048,-42.000,-35.500,8.500,-95.000
1.049,-41.500,-35.500,9.000,-95.000
1.050,-41.500,-35.000,9.000,-95.000
1.051,-41.000,-35.000,9.000,-95.000
1.052,-41.000,-35.000,8.500,-95.000
1.053,-40.500,-34.500,9.500,-95.500
1.054,-40.500,-34.500,11.500,-95.500
1.055,-40.000,-34.000,13.000,-96.000
1.056,-39.500,-34.000,14.000,-96.000
1.057,-39.000,-33.500,13.500,-96.000
1.058,-38.500,-33.000,12.500,-96.000
1.059,-38.000,-33.000,10.500,-96.000
1.060,-38.000,-32.500,8.000,-96.000
1.061,-38.000,-32.500,5.000,-96.000
1.062,-38.000,-33.000,3.000,-96.000
1.063,-38.000,-33.000,2.000,-96.000
1.064,-38.000,-33.000,3.000,-96.000
1.065,-38.500,-33.500,4.500,-96.500
1.066,-39.000,-33.500,7.000,-96.500
1.067,-39.000,-34.000,8.500,-96.500
1.068,-39.000,-34.000,9.500,-96.500
1.069,-38.500,-34.000,9.000,-96.500
1.070,-38.000,-33.500,7.500,-96.000
1.071,-37.500,-33.000,6.000,-95.500
1.072,-37.000,-32.500,5.000,-95.500
1.073,-36.500,-32.500,5.000,-95.500
1.074,-36.500,-32.500,6.000,-95.500
1.075,-36.000,-33.000,7.500,-95.500
1.076,-36.000,-32.500,9.000,-95.500
1.077,-36.000,-32.500,9.500,-95.500
1.078,-35.500,-32.500,8.500,-95.500
1.079,-35.500,-32.000,7.500,-95.500
1.080,-35.500,-32.000,6.500,-95.000
1.081,-35.500,-32.000,5.500,-95.000
1.082,-35.500,-32.500,5.000,-95.000
1.083,-36.000,-32.500,5.000,-95.000
1.084,-36.000,-33.000,5.500,-95.000
1.085,-36.500,-33.500,6.000,-95.500
1.086,-36.500,-34.000,6.500,-95.500
1.087,-37.000,-34.000,7.500,-96.000
1.088,-37.000,-34.500,8.500,-96.000
1.089,-37.000,-34.500,9.000,-96.500
1.090,-37.000,-34.500,9.500,-96.500
1.091,-36.500,-34.500,9.500,-96.500
1.092,-36.500,-34.000,9.500,-96.000
1.093,-36.500,-34.000,10.000,-96.000
1.094,-36.000,-33.500,10.000,-96.000
1.095,-35.500,-33.000,9.500,-96.000
1.096,-35.500,-32.500,7.500,-95.500
1.097,-35.000,-32.000,5.500,-95.000
1.098,-35.000,-32.000,4.500,-95.000
1.099,-35.000,-32.000,4.500,-95.000
1.100,-35.000,-32.500,6.000,-95.000
1.101,-35.000,-32.500,7.500,-95.000
1.102,-35.000,-32.500,8.500,-95.500
1.103,-35.000,-32.500,9.000,-95.500
1.104,-35.500,-33.000,9.500,-96.000
1.105,-36.000,-33.500,10.000,-96.000
1.106,-36.500,-34.000,10.000,-96.000
1.107,-36.500,-34.000,8.500,-96.000
1.108,-37.000,-34.500,6.500,-96.500
1.109,-37.000,-34.500,4.000,-96.500
1.110,-37.000,-34.500,3.000,-96.000
1.111,-37.000,-34.000,2.500,-96.000
1.112,-37.000,-34.000,2.000,-96.000
1.113,-37.000,-34.000,1.500,-96.000
1.114,-37.000,-34.000,1.500,-96.000
1.115,-36.500,-34.000,2.000,-95.500
1.116,-36.500,-34.000,3.000,-95.500
1.117,-36.000,-33.500,4.000,-95.000
1.118,-36.000,-33.000,4.000,-95.000
1.119,-36.000,-33.000,3.500,-95.000
1.120,-36.000,-32.500,3.000,-95.000
1.121,-36.000,-32.500,2.500,-95.500
1.122,-36.500,-33.000,2.000,-96.000
1.123,-37.000,-33.500,2.000,-96.500
1.124,-37.500,-34.000,3.000,-96.500
1.125,-38.000,-34.500,3.500,-96.500
1.126,-38.000,-35.000,3.500,-96.500
1.127,-38.500,-35.000,2.500,-96.500
1.128,-38.500,-35.000,1.500,-96.500
1.129,-38.500,-35.000,0.000,-96.500
1.130,-38.500,-35.000,-1.500,-96.500
1.131,-38.000,-35.000,-2.000,-96.500
1.132,-37.500,-35.000,-2.000,-96.500
1.133,-37.000,-35.000,-1.500,-96.500
1.134,-36.500,-35.000,0.000,-96.000
1.135,-36.500,-34.500,2.000,-96.000
1.136,-36.000,-34.500,4.500,-95.500
1.137,-36.000,-34.000,6.000,-95.000
1.138,-36.000,-34.000,7.000,-94.500
1.139,-35.500,-34.000,7.500,-94.500
1.140,-35.500,-34.000,7.000,-94.500
1.141,-36.000,-34.000,6.500,-94.500
1.142,-36.500,-34.500,5.500,-94.500
1.143,-37.000,-35.000,3.500,-95.000
1.144,-37.500,-35.500,1.500,-95.500
1.145,-38.000,-36.500,-1.000,-96.000
1.146,-38.000,-37.000,-2.000,-96.000
1.147,-38.500,-37.000,-2.500,-96.500
1.148,-38.500,-37.500,-3.000,-96.000
1.149,-39.000,-37.500,-3.500,-96.000
1.150,-38.500,-37.500,-3.500,-96.000
1.151,-38.500,-37.500,-2.000,-96.000
1.152,-38.000,-37.000,1.000,-96.000
1.153,-38.000,-36.500,4.500,-96.000
1.154,-37.500,-36.000,7.000,-96.000
1.155,-37.000,-35.500,8.500,-96.000
1.156,-36.500,-35.000,8.000,-96.000
1.157,-36.000,-35.000,6.500,-95.500
1.158,-36.000,-34.500,5.000,-95.000
1.159,-36.000,-34.000,3.500,-95.000
1.160,-36.000,-34.000,2.500,-95.000
1.161,-36.500,-34.000,1.500,-95.000
1.162,-37.000,-34.500,0.000,-95.000
1.163,-37.000,-35.000,-1.500,-95.500
1.164,-37.000,-35.500,-2.000,-95.500
1.165,-37.500,-36.000,-1.000,-96.000
1.166,-37.500,-37.000,0.500,-96.500
1.167,-38.000,-37.500,2.000,-97.000
1.168,-38.000,-38.000,3.500,-97.000
1.169,-38.000,-38.000,5.000,-97.500
1.170,-37.500,-38.000,7.000,-97.500
1.171,-37.500,-37.500,9.000,-97.500
1.172,-37.000,-37.500,10.500,-97.500
1.173,-37.000,-37.000,10.500,-97.500
1.174,-37.000,-37.000,9.000,-97.500
1.175,-36.500,-36.500,6.500,-97.000
1.176,-36.500,-36.500,4.000,-96.500
1.177,-36.500,-36.000,2.000,-96.500
1.178,-36.500,-35.500,1.500,-96.000
1.179,-36.500,-35.500,1.500,-96.000
1.180,-36.500,-35.500,2.500,-96.000
1.181,-37.000,-35.500,3.000,-96.500
1.182,-37.000,-36.000,3.000,-96.500
1.183,-37.500,-36.500,3.000,-96.500
1.184,-37.500,-37.000,3.500,-96.500
1.185,-37.500,-37.500,5.000,-97.000
1.186,-37.500,-38.000,7.000,-97.000
1.187,-37.500,-38.500,9.000,-97.500
1.188,-37.500,-38.500,10.500,-97.500
1.189,-37.500,-39.000,11.000,-98.000
1.190,-37.500,-39.000,11.500,-98.000
1.191,-37.500,-39.000,12.500,-98.000
1.192,-37.500,-39.000,14.000,-98.000
1.193,-37.000,-38.500,15.000,-98.000
1.194,-37.000,-38.000,15.500,-98.000
1.195,-37.000,-37.500,15.500,-97.500
1.196,-37.000,-37.000,14.500,-97.500
1.197,-36.500,-36.500,13.500,-97.000
1.198,-36.000,-36.000,13.000,-97.000
1.199,-36.000,-35.500,12.500,-97.000
1.200,-36.000,-35.500,13.000,-97.000
1.201,-36.000,-35.500,13.000,-97.000
1.202,-36.000,-36.000,12.000,-97.000
1.203,-36.000,-36.500,10.000,-97.000
1.204,-36.500,-37.000,7.000,-97.500
1.205,-37.000,-37.500,4.500,-97.500
1.206,-37.000,-38.500,2.500,-98.000
1.207,-37.500,-39.000,1.500,-98.000
1.208,-37.500,-39.500,0.500,-98.000
1.209,-37.500,-39.500,0.000,-98.000
1.210,-37.500,-39.500,0.000,-98.000
1.211,-37.000,-39.500,0.500,-98.000
1.212,-37.000,-39.000,1.500,-97.500
1.213,-36.500,-39.000,2.500,-97.500
1.214,-36.500,-38.500,4.000,-97.500
1.215,-36.500,-38.000,6.000,-97.500
1.216,-36.000,-38.000,7.000,-97.000
1.217,-35.500,-37.500,7.000,-97.000
1.218,-35.500,-37.000,5.500,-97.000
1.219,-35.500,-36.500,2.500,-97.000
1.220,-35.000,-36.500,-1.000,-97.000
1.221,-35.500,-36.500,-3.500,-97.000
1.222,-35.500,-36.500,-4.000,-97.000
1.223,-35.500,-37.000,-3.000,-97.000
1.224,-36.000,-37.000,-2.000,-97.000
1.225,-36.000,-37.500,-0.500,-97.000
1.226,-36.000,-38.000,1.500,-97.000
1.227,-36.000,-38.500,3.000,-97.000
1.228,-36.000,-38.500,4.500,-97.000
1.229,-36.000,-38.500,5.500,-97.500
1.230,-36.000,-38.500,5.000,-97.500
1.231,-35.500,-38.500,3.500,-97.500
1.232,-35.000,-38.000,3.000,-97.000
1.233,-34.500,-37.500,3.500,-97.000
1.234,-34.000,-37.000,4.000,-96.500
1.235,-34.000,-36.500,3.500,-96.500
1.236,-33.500,-36.000,2.500,-96.500
1.237,-33.000,-35.500,2.500,-96.500
1.238,-33.000,-35.500,3.000,-96.500
1.239,-33.000,-35.000,4.000,-96.500
1.240,-33.500,-35.000,4.500,-96.500
1.241,-33.500,-35.500,4.500,-96.500
1.242,-34.000,-35.500,4.500,-96.500
1.243,-34.000,-36.000,4.000,-96.500
1.244,-34.500,-36.000,3.000,-96.500
1.245,-34.500,-36.500,2.000,-96.500
1.246,-34.500,-37.000,1.000,-96.500
1.247,-35.000,-37.000,0.500,-96.500
1.248,-35.000,-37.500,0.500,-96.500
1.249,-35.000,-37.500,1.000,-96.500
1.250,-35.000,-37.500,1.000,-96.500
1.251,-35.000,-37.500,-0.500,-96.500
1.252,-35.000,-37.500,-2.000,-96.500
1.253,-35.000,-37.000,-3.500,-96.000
1.254,-34.500,-37.000,-4.000,-96.000
1.255,-34.500,-36.500,-3.500,-96.000
1.256,-34.000,-36.000,-2.500,-95.500
1.257,-34.000,-36.000,-2.000,-95.500
1.258,-34.000,-35.500,-2.500,-95.500
1.259,-34.000,-35.500,-3.500,-96.000
1.260,-34.000,-35.500,-4.000,-96.000
1.261,-34.000,-36.000,-4.000,-96.000
1.262,-34.500,-36.500,-3.000,-96.500
1.263,-35.000,-37.000,-1.500,-96.500
1.264,-35.000,-37.000,0.500,-96.500
1.265,-35.500,-37.500,2.500,-97.000
1.266,-35.500,-38.500,4.500,-97.000
1.267,-36.000,-39.000,6.500,-97.000
1.268,-36.500,-39.500,8.500,-97.500
1.269,-37.000,-39.500,10.500,-97.500
1.270,-37.000,-39.500,11.500,-98.000
1.271,-37.000,-39.500,11.500,-98.000
1.272,-37.000,-39.500,11.500,-98.000
1.273,-36.500,-40.000,11.000,-98.500
1.274,-36.500,-40.000,10.000,-98.500
1.275,-36.000,-39.500,9.000,-98.500
1.276,-36.000,-39.500,9.000,-98.000
1.277,-35.500,-39.000,9.500,-98.000
1.278,-35.500,-38.500,10.000,-97.500
1.279,-35.000,-38.500,10.500,-97.000
1.280,-35.000,-38.500,11.000,-97.000
1.281,-34.500,-38.500,11.500,-97.000
1.282,-35.000,-38.500,12.000,-97.000
1.283,-35.000,-39.000,12.500,-97.000
1.284,-35.500,-40.000,12.500,-97.500
1.285,-36.500,-40.500,12.000,-98.000
1.286,-37.000,-41.000,10.000,-98.500
1.287,-37.500,-42.000,7.000,-99.000
1.288,-38.000,-42.500,3.500,-99.500
1.289,-38.500,-43.000,1.500,-99.500
1.290,-39.000,-43.000,1.500,-100.000
1.291,-39.500,-43.500,2.000,-101.000
1.292,-40.000,-44.000,2.000,-101.500
1.293,-40.500,-44.000,1.500,-102.500
1.294,-40.500,-44.500,1.000,-103.500
1.295,-41.000,-44.500,1.000,-104.000
1.296,-41.500,-44.500,0.500,-104.500
1.297,-41.500,-44.500,-1.000,-105.000
1.298,-42.000,-44.500,-2.500,-105.000
1.299,-42.000,-44.500,-4.000,-105.000
1.300,-42.000,-44.500,-4.000,-105.000
1.301,-42.000,-45.000,-2.000,-105.000
1.302,-42.500,-45.000,0.500,-105.000
1.303,-42.500,-45.000,2.500,-104.500
1.304,-42.500,-45.000,4.500,-104.000
1.305,-42.000,-45.000,6.500,-103.500
1.306,-41.500,-44.500,7.500,-102.500
1.307,-41.000,-44.000,8.000,-101.500
1.308,-40.000,-43.500,7.500,-100.500
1.309,-39.500,-42.500,6.500,-100.000
1.310,-38.500,-42.000,5.000,-99.000
1.311,-38.000,-41.500,3.500,-98.500
1.312,-37.500,-41.000,2.500,-98.000
1.313,-37.500,-40.500,2.500,-98.000
1.314,-37.500,-40.000,2.000,-97.500
1.315,-37.500,-40.000,2.500,-97.500
1.316,-37.500,-40.000,2.500,-97.500
1.317,-37.500,-40.000,3.000,-98.000
1.318,-37.500,-39.500,4.000,-98.000
1.319,-37.500,-39.500,6.000,-98.500
1.320,-37.500,-40.000,8.000,-98.500
1.321,-37.500,-40.000,9.000,-99.000
1.322,-37.500,-40.500,9.500,-99.000
1.323,-38.000,-41.000,9.000,-99.000
1.324,-38.500,-41.500,8.000,-99.000
1.325,-39.000,-42.000,6.500,-99.000
1.326,-39.000,-42.500,6.000,-99.000
1.327,-39.500,-43.000,6.000,-99.000
1.328,-39.500,-43.000,7.000,-99.000
1.329,-39.500,-43.000,8.500,-99.000
1.330,-39.000,-43.000,10.000,-99.000
1.331,-39.000,-42.500,11.000,-99.000
1.332,-39.000,-42.500,11.500,-99.000
1.333,-39.000,-42.000,11.500,-99.000
1.334,-38.500,-41.500,11.000,-99.500
1.335,-38.500,-41.500,11.000,-99.500
1.336,-38.500,-41.500,11.000,-99.500
1.337,-38.500,-41.000,11.000,-100.000
1.338,-38.500,-41.000,11.000,-100.000
1.339,-38.500,-40.500,10.500,-100.000
1.340,-38.500,-40.500,9.000,-100.000
1.341,-38.000,-40.000,6.500,-100.000
1.342,-38.000,-39.500,3.500,-100.000
1.343,-38.000,-39.500,0.500,-100.000
1.344,-38.000,-40.000,-1.500,-100.000
1.345,-38.000,-40.500,-2.000,-100.000
1.346,-38.000,-41.000,-2.000,-100.000
1.347,-38.000,-41.500,-1.500,-100.000
1.348,-38.000,-41.500,-0.500,-100.000
1.349,-38.000,-42.000,0.000,-100.000
1.350,-38.000,-42.000,0.000,-100.000
1.351,-38.000,-42.000,-1.000,-100.000
1.352,-38.000,-42.000,-1.500,-100.000
1.353,-38.000,-42.000,-2.000,-100.000
1.354,-38.000,-41.500,-2.500,-100.000
1.355,-38.000,-41.500,-3.000,-99.500
1.356,-37.500,-41.000,-3.500,-99.500
1.357,-37.500,-41.000,-3.500,-99.500
1.358,-37.500,-40.500,-3.500,-99.000
1.359,-37.500,-40.500,-3.000,-99.500
1.360,-38.000,-40.500,-2.500,-99.500
1.361,-38.500,-40.500,-2.000,-99.500
1.362,-39.000,-41.000,-2.000,-99.500
1.363,-39.500,-41.500,-3.500,-99.500
1.364,-40.000,-42.500,-4.500,-99.500
1.365,-40.500,-43.000,-5.500,-99.500
1.366,-40.500,-43.500,-5.000,-99.000
1.367,-41.000,-44.000,-3.500,-99.000
1.368,-41.000,-44.500,-1.500,-99.000
1.369,-41.000,-44.500,1.000,-99.000
1.370,-41.000,-44.500,3.000,-99.000
1.371,-40.500,-44.500,4.500,-99.000
1.372,-40.500,-44.500,6.000,-99.000
1.373,-40.000,-44.000,7.000,-99.000
1.374,-40.000,-43.500,7.000,-99.000
1.375,-39.500,-43.000,5.500,-99.000
1.376,-39.000,-42.500,4.500,-98.500
1.377,-38.500,-42.000,3.500,-98.500
1.378,-38.500,-42.000,3.000,-98.500
1.379,-38.500,-41.500,2.500,-98.500
1.380,-38.500,-42.000,2.500,-98.500
1.381,-39.000,-42.000,3.000,-99.000
1.382,-39.500,-42.500,3.500,-99.000
1.383,-40.000,-43.000,3.500,-99.500
1.384,-40.000,-43.000,2.500,-99.500
1.385,-40.500,-43.500,2.000,-99.500
1.386,-40.500,-44.000,2.000,-99.500
1.387,-41.000,-44.000,3.500,-99.500
1.388,-41.000,-44.000,5.000,-99.000
1.389,-40.500,-44.000,7.000,-99.000
1.390,-40.500,-43.500,8.500,-98.500
1.391,-40.000,-43.500,10.000,-98.500
1.392,-40.000,-43.000,11.000,-98.000
1.393,-40.000,-43.000,10.500,-98.000
1.394,-40.000,-43.000,9.000,-98.000
1.395,-40.000,-43.000,7.000,-98.000
1.396,-40.000,-43.000,6.000,-98.000
1.397,-40.000,-43.000,5.000,-98.000
1.398,-40.000,-43.500,4.000,-98.000
1.399,-40.500,-43.500,3.000,-98.500
1.400,-40.500,-44.000,2.000,-99.000
1.401,-41.000,-44.500,2.000,-100.000
1.402,-41.500,-45.500,3.000,-101.000
1.403,-42.000,-46.500,4.000,-102.000
1.404,-43.000,-48.000,6.500,-103.500
1.405,-44.000,-49.000,8.500,-105.000
1.406,-45.500,-50.000,10.500,-107.000
1.407,-46.500,-51.500,11.500,-108.500
1.408,-48.000,-53.000,11.000,-109.500
1.409,-49.000,-54.000,10.500,-111.000
1.410,-50.000,-55.000,10.500,-112.000
1.411,-51.000,-56.000,10.000,-112.500
1.412,-51.500,-56.500,10.000,-113.000
1.413,-52.500,-57.000,10.000,-113.000
1.414,-53.000,-57.500,10.000,-112.500
1.415,-54.000,-57.500,10.000,-112.500
1.416,-55.500,-58.500,11.000,-112.000
1.417,-56.500,-59.000,11.500,-111.500
1.418,-58.000,-59.500,11.500,-110.500
1.419,-59.500,-60.000,11.000,-109.500
1.420,-61.500,-61.000,9.500,-107.500
1.421,-63.000,-61.500,8.500,-105.000
1.422,-65.000,-62.000,7.000,-102.000
1.423,-66.500,-62.500,6.000,-98.500
1.424,-68.000,-62.500,4.500,-94.500
1.425,-69.000,-62.500,3.500,-91.000
1.426,-70.000,-62.500,2.500,-87.500
1.427,-71.500,-62.500,1.500,-84.000
1.428,-72.000,-63.000,0.500,-81.000
1.429,-73.000,-63.000,-1.500,-78.500
1.430,-73.500,-62.500,-2.500,-76.500
1.431,-74.000,-62.500,-3.000,-74.500
1.432,-74.000,-62.500,-3.500,-73.500
1.433,-74.000,-62.000,-3.000,-72.500
1.434,-73.000,-61.000,-2.000,-72.000
1.435,-72.000,-60.000,-1.000,-71.000
1.436,-70.000,-58.500,-0.500,-70.500
1.437,-68.000,-56.500,-1.500,-70.000
1.438,-65.000,-54.500,-3.000,-69.000
1.439,-61.500,-52.000,-4.500,-69.000
1.440,-57.500,-49.000,-4.500,-68.500
1.441,-54.000,-46.500,-3.500,-69.000
1.442,-50.000,-44.500,-2.000,-70.000
1.443,-46.500,-42.500,-1.000,-71.500
1.444,-43.000,-40.500,-0.500,-73.000
1.445,-40.000,-39.000,-0.500,-74.000
1.446,-37.000,-37.000,-1.500,-75.000
1.447,-34.000,-35.500,-2.500,-76.000
1.448,-32.000,-34.500,-3.500,-76.500
1.449,-30.500,-34.000,-4.000,-77.500
1.450,-30.000,-34.000,-3.500,-79.000
1.451,-30.000,-35.000,-3.000,-81.000
1.452,-31.500,-36.500,-3.000,-83.000
1.453,-33.000,-38.000,-3.000,-85.500
1.454,-34.500,-39.500,-3.500,-88.000
1.455,-36.000,-41.000,-3.000,-90.000
1.456,-37.500,-42.500,-2.000,-91.500
1.457,-38.500,-43.500,-0.500,-93.000
1.458,-39.500,-44.500,1.000,-94.000
1.459,-40.500,-45.500,1.500,-95.000
1.460,-41.500,-46.000,1.000,-96.000
1.461,-42.000,-47.000,0.500,-97.000
1.462,-43.000,-48.000,0.000,-97.500
1.463,-44.000,-48.500,0.000,-98.000
1.464,-44.500,-49.500,0.000,-98.500
1.465,-45.000,-50.000,-0.500,-98.500
1.466,-45.000,-50.000,-0.500,-99.000
1.467,-45.000,-50.500,0.500,-99.000
1.468,-45.000,-50.500,1.500,-99.500
1.469,-45.000,-50.500,2.500,-99.500
1.470,-45.000,-50.500,3.000,-100.000
1.471,-45.000,-50.500,2.500,-100.500
1.472,-44.500,-50.000,0.500,-100.500
1.473,-44.500,-50.000,-1.500,-100.500
1.474,-44.000,-49.500,-3.000,-100.500
1.475,-44.000,-49.500,-3.000,-100.000
1.476,-43.500,-49.500,-2.500,-100.000
1.477,-43.500,-49.500,-1.500,-99.500
1.478,-43.500,-49.500,-1.000,-99.500
1.479,-43.500,-49.500,-1.000,-100.000
1.480,-43.500,-49.500,-1.500,-100.000
1.481,-44.000,-49.500,-2.500,-100.500
1.482,-44.500,-50.000,-3.000,-101.000
1.483,-44.500,-50.500,-2.500,-101.500
1.484,-45.000,-51.000,-1.500,-102.000
1.485,-45.500,-52.000,-1.000,-102.000
1.486,-46.000,-52.500,-1.500,-102.500
1.487,-46.000,-52.500,-1.500,-102.000
1.488,-46.500,-53.000,-1.500,-102.000
1.489,-46.500,-53.000,-1.000,-101.500
1.490,-46.500,-53.000,0.000,-101.500
1.491,-46.500,-53.000,1.000,-101.500
1.492,-46.500,-53.000,2.000,-101.500
1.493,-46.500,-52.500,1.500,-101.500
1.494,-46.000,-52.500,-0.500,-101.500
1.495,-46.000,-52.000,-2.500,-101.500
1.496,-46.000,-52.000,-4.000,-101.500
1.497,-46.000,-52.000,-5.000,-101.500
1.498,-46.000,-52.000,-4.000,-101.500
1.499,-45.500,-52.000,-2.500,-101.500
1.500,-45.500,-52.500,-0.500,-101.500
1.501,-45.500,-52.500,1.500,-101.500
1.502,-45.500,-53.000,3.000,-101.000
1.503,-45.500,-53.000,3.500,-101.000
1.504,-45.500,-53.500,3.000,-101.000
1.505,-46.000,-53.500,2.500,-101.000
1.506,-46.000,-54.000,1.500,-101.500
1.507,-46.500,-54.500,1.000,-101.500
1.508,-46.500,-54.500,0.000,-101.500
1.509,-46.500,-55.000,-0.500,-102.000
1.510,-46.500,-55.000,-0.500,-102.000
1.511,-46.500,-54.500,0.000,-101.500
1.512,-46.500,-54.500,1.500,-101.500
1.513,-46.500,-54.000,3.500,-101.500
1.514,-46.500,-53.500,6.000,-101.500
1.515,-46.500,-53.000,8.500,-101.500
1.516,-46.500,-53.000,9.500,-102.000
1.517,-46.500,-52.500,10.000,-102.000
1.518,-46.500,-52.500,10.000,-102.000
1.519,-46.000,-52.000,10.000,-102.000
1.520,-46.000,-52.000,9.500,-102.500
1.521,-46.500,-52.500,8.000,-102.500
1.522,-46.500,-53.000,6.500,-103.000
1.523,-47.000,-53.500,5.000,-103.500
1.524,-47.500,-54.000,4.500,-104.000
1.525,-48.000,-55.000,4.000,-104.000
1.526,-48.500,-55.500,3.500,-104.500
1.527,-49.000,-56.000,2.500,-104.500
1.528,-49.500,-56.000,0.500,-104.500
1.529,-49.500,-56.500,-1.000,-104.500
1.530,-49.000,-56.500,-1.500,-104.000
1.531,-49.000,-56.500,0.000,-104.000
1.532,-48.500,-56.000,2.000,-103.500
1.533,-48.500,-55.500,4.000,-103.500
1.534,-48.000,-55.000,5.500,-103.500
1.535,-47.500,-54.500,6.500,-103.000
1.536,-47.000,-54.000,7.000,-103.000
1.537,-47.000,-54.000,6.500,-103.000
1.538,-47.000,-53.500,5.500,-103.000
1.539,-46.500,-53.000,4.000,-103.000
1.540,-47.000,-52.500,3.000,-102.500
1.541,-47.000,-52.500,1.500,-102.500
1.542,-47.500,-53.000,0.500,-103.000
1.543,-47.500,-53.000,0.000,-103.000
1.544,-48.000,-53.500,0.000,-103.000
1.545,-48.500,-54.500,1.000,-103.000
1.546,-49.000,-55.000,2.000,-103.000
1.547,-49.000,-55.500,4.000,-103.500
1.548,-49.500,-56.000,6.000,-103.500
1.549,-49.500,-56.000,8.000,-103.500
1.550,-49.500,-56.000,9.000,-103.000
1.551,-49.000,-56.000,9.000,-103.000
1.552,-49.000,-56.000,9.000,-103.000
1.553,-48.500,-55.500,8.500,-102.500
1.554,-48.000,-55.500,7.000,-102.500
1.555,-48.000,-55.000,6.000,-102.500
1.556,-47.500,-54.500,5.000,-102.000
1.557,-47.500,-54.500,5.000,-102.000
1.558,-47.500,-54.500,5.500,-102.000
1.559,-48.000,-54.000,6.500,-102.000
1.560,-48.000,-54.000,7.000,-102.000
1.561,-48.000,-54.500,6.500,-102.500
1.562,-48.500,-54.500,6.500,-102.500
1.563,-48.500,-55.000,8.000,-102.500
1.564,-49.000,-55.500,10.500,-103.000
1.565,-49.500,-56.000,13.000,-103.000
1.566,-49.500,-56.500,14.000,-103.000
1.567,-50.000,-56.500,14.000,-103.000
1.568,-50.000,-56.500,13.000,-103.000
1.569,-50.000,-56.500,11.500,-103.000
1.570,-50.000,-56.500,10.500,-103.000
1.571,-49.500,-56.000,9.000,-103.000
1.572,-49.500,-56.000,8.000,-103.500
1.573,-49.500,-55.500,6.500,-103.500
1.574,-49.500,-55.500,6.500,-103.500
1.575,-49.500,-55.500,8.000,-103.500
1.576,-50.000,-55.000,10.000,-103.500
1.577,-50.000,-55.000,11.500,-103.500
1.578,-50.000,-55.000,12.500,-103.500
1.579,-50.000,-55.000,14.000,-103.500
1.580,-50.000,-55.000,15.500,-103.500
1.581,-50.000,-55.000,16.500,-103.500
1.582,-50.500,-55.000,16.500,-103.500
1.583,-50.500,-55.500,15.500,-104.000
1.584,-50.500,-55.500,14.000,-104.000
1.585,-50.500,-56.000,12.500,-104.000
1.586,-51.000,-56.000,12.000,-104.000
1.587,-51.000,-56.000,11.000,-103.500
1.588,-51.000,-56.500,9.500,-103.500
1.589,-51.000,-56.500,8.500,-103.500
1.590,-50.500,-56.500,9.500,-103.000
1.591,-50.500,-56.500,11.500,-103.000
1.592,-50.500,-56.500,14.500,-103.000
1.593,-50.500,-56.500,17.000,-103.500
1.594,-50.000,-56.000,18.000,-103.500
1.595,-50.000,-56.000,18.000,-104.000
1.596,-50.000,-56.000,17.500,-104.000
1.597,-50.000,-55.500,16.000,-104.000
1.598,-49.500,-55.500,14.500,-104.000
1.599,-49.500,-55.500,13.500,-104.000
1.600,-49.500,-55.500,13.000,-103.500
1.601,-50.000,-55.500,13.500,-104.000
1.602,-50.000,-55.500,14.000,-104.000
1.603,-50.500,-55.500,14.500,-104.000
1.604,-51.000,-56.000,15.000,-104.500
1.605,-51.500,-56.500,14.500,-105.000
1.606,-52.000,-57.000,14.500,-105.000
1.607,-52.000,-57.000,14.000,-105.500
1.608,-52.000,-57.500,13.500,-105.500
1.609,-52.000,-57.500,12.500,-105.000
1.610,-52.000,-57.500,10.500,-105.000
1.611,-52.000,-57.500,8.000,-105.000
1.612,-51.500,-57.000,5.000,-105.000
1.613,-51.500,-56.500,1.500,-104.500
1.614,-51.500,-56.000,-1.500,-104.500
1.615,-51.000,-56.000,-2.500,-104.500
1.616,-51.000,-55.500,-1.500,-104.500
1.617,-51.000,-55.000,0.500,-104.500
1.618,-51.500,-55.000,2.500,-104.500
1.619,-51.500,-55.000,4.500,-104.500
1.620,-51.500,-55.000,5.500,-104.500
1.621,-52.000,-55.000,6.000,-104.500
1.622,-52.500,-55.500,6.000,-104.500
1.623,-52.500,-55.500,6.000,-104.500
1.624,-53.000,-56.000,7.000,-104.500
1.625,-53.500,-57.000,7.500,-104.500
1.626,-54.000,-57.500,7.500,-104.500
1.627,-54.500,-58.500,7.500,-105.000
1.628,-55.000,-59.000,8.000,-105.000
1.629,-55.000,-59.500,9.000,-104.500
1.630,-55.000,-59.500,9.500,-104.500
1.631,-55.000,-60.000,9.500,-104.000
1.632,-55.000,-60.000,8.500,-103.500
1.633,-55.000,-60.000,7.500,-103.000
1.634,-55.000,-60.000,6.500,-103.000
1.635,-55.000,-60.000,6.000,-103.000
1.636,-55.000,-60.000,6.500,-103.000
1.637,-55.000,-59.500,7.500,-103.000
1.638,-55.000,-59.500,8.000,-103.000
1.639,-55.000,-59.500,7.500,-103.000
1.640,-55.000,-59.500,6.000,-103.000
1.641,-55.500,-59.500,4.500,-103.000
1.642,-55.500,-60.000,3.000,-103.500
1.643,-56.000,-60.500,2.500,-103.500
1.644,-56.500,-61.000,2.500,-103.500
1.645,-57.000,-61.500,2.500,-103.500
1.646,-57.000,-61.500,2.500,-103.500
1.647,-57.500,-62.000,2.500,-103.000
1.648,-57.500,-62.000,2.000,-103.000
1.649,-58.000,-62.000,0.500,-102.500
1.650,-58.500,-62.000,-1.000,-102.500
1.651,-58.500,-62.000,-2.500,-102.500
1.652,-59.000,-62.500,-2.500,-102.500
1.653,-59.000,-62.500,-2.000,-102.500
1.654,-59.000,-62.000,-1.000,-102.500
1.655,-59.000,-61.500,0.000,-102.500
1.656,-59.000,-61.500,0.500,-102.000
1.657,-58.500,-61.000,1.500,-102.000
1.658,-58.000,-61.000,2.500,-102.000
1.659,-58.000,-61.000,3.000,-102.000
1.660,-58.000,-61.000,2.500,-102.000
1.661,-58.500,-61.500,2.000,-102.500
1.662,-58.500,-62.000,2.000,-102.500
1.663,-59.000,-62.500,2.000,-103.000
1.664,-59.500,-63.000,1.500,-103.500
1.665,-60.000,-63.500,0.000,-104.000
1.666,-60.500,-64.000,-1.500,-104.500
1.667,-60.500,-64.500,-3.500,-105.000
1.668,-61.000,-65.000,-5.500,-105.500
1.669,-61.500,-65.500,-7.000,-106.000
1.670,-61.500,-66.000,-7.000,-106.500
1.671,-61.500,-66.000,-6.000,-107.000
1.672,-61.500,-66.000,-4.500,-107.000
1.673,-61.500,-65.500,-3.000,-107.500
1.674,-61.500,-65.500,-2.000,-107.500
1.675,-61.000,-65.000,-1.500,-107.500
1.676,-61.000,-65.000,-1.000,-108.000
1.677,-60.500,-64.500,-0.500,-108.000
1.678,-60.000,-64.000,0.000,-108.000
1.679,-60.000,-64.000,0.500,-108.000
1.680,-59.500,-63.500,1.500,-108.500
1.681,-59.500,-63.500,2.500,-108.500
1.682,-59.500,-63.500,4.000,-109.000
1.683,-60.000,-63.500,5.500,-109.000
1.684,-60.000,-63.000,7.000,-109.500
1.685,-59.500,-63.000,8.500,-109.500
1.686,-59.500,-63.000,9.500,-109.500
1.687,-59.500,-63.500,9.500,-110.000
1.688,-59.000,-63.500,8.500,-110.000
1.689,-59.000,-63.500,6.500,-110.500
1.690,-58.500,-63.500,4.500,-110.500
1.691,-58.000,-63.500,2.000,-110.500
1.692,-57.500,-63.000,-0.500,-111.000
1.693,-57.000,-62.500,-2.000,-111.000
1.694,-57.000,-62.000,-2.500,-111.000
1.695,-56.000,-61.500,-3.500,-110.500
1.696,-55.500,-61.000,-3.500,-110.500
1.697,-55.000,-60.500,-3.500,-110.500
1.698,-54.500,-60.000,-2.500,-110.000
1.699,-54.500,-60.000,-2.000,-110.500
1.700,-54.000,-60.000,-1.500,-110.500
1.701,-54.000,-60.000,-2.500,-110.500
1.702,-54.500,-60.500,-3.500,-110.000
1.703,-54.500,-60.500,-4.500,-110.500
1.704,-54.500,-61.000,-5.500,-110.500
1.705,-55.000,-61.000,-6.500,-110.500
1.706,-55.000,-61.000,-7.500,-110.500
1.707,-55.500,-61.000,-8.000,-111.000
1.708,-55.500,-61.000,-8.000,-111.000
1.709,-55.500,-61.000,-6.500,-111.000
1.710,-55.500,-61.000,-5.000,-111.000
1.711,-55.000,-60.500,-2.500,-111.000
1.712,-55.000,-60.500,-0.500,-111.000
1.713,-54.500,-60.000,2.500,-111.000
1.714,-53.500,-59.500,4.500,-111.000
1.715,-53.000,-59.500,6.500,-111.000
1.716,-53.000,-59.000,7.000,-110.500
1.717,-52.500,-58.500,7.000,-110.500
1.718,-52.500,-58.500,7.000,-110.500
1.719,-52.500,-58.500,6.500,-110.500
1.720,-52.500,-58.500,6.500,-110.500
1.721,-52.500,-58.500,6.500,-110.500
1.722,-53.000,-58.500,6.500,-110.500
1.723,-53.000,-58.500,5.500,-110.500
1.724,-53.000,-59.000,4.000,-111.000
1.725,-53.000,-59.500,2.500,-111.000
1.726,-53.000,-60.000,1.500,-111.500
1.727,-53.000,-60.500,1.000,-111.500
1.728,-53.500,-61.000,0.500,-112.000
1.729,-53.500,-61.000,0.500,-112.000
1.730,-53.500,-61.000,-0.500,-112.000
1.731,-53.000,-61.000,-1.000,-112.000
1.732,-53.000,-61.000,-1.000,-112.000
1.733,-52.500,-60.500,0.500,-112.000
1.734,-52.000,-59.500,1.500,-111.500
1.735,-51.500,-59.000,0.000,-111.000
1.736,-51.000,-58.000,-3.500,-110.500
1.737,-50.500,-57.500,-9.000,-110.000
1.738,-50.500,-56.500,-13.000,-109.500
1.739,-50.000,-56.000,-15.000,-109.500
1.740,-50.000,-56.000,-15.000,-109.500
1.741,-50.000,-56.000,-13.500,-110.000
1.742,-50.000,-56.500,-11.500,-110.000
1.743,-50.500,-57.000,-10.000,-110.500
1.744,-51.500,-58.000,-8.500,-111.000
1.745,-52.500,-59.000,-7.500,-112.000
1.746,-53.000,-60.500,-7.500,-112.500
1.747,-54.000,-61.500,-8.500,-113.500
1.748,-55.000,-62.500,-9.500,-114.000
1.749,-56.000,-63.500,-11.000,-115.000
1.750,-56.500,-64.500,-13.000,-115.500
1.751,-57.000,-65.000,-15.000,-116.000
1.752,-57.500,-65.500,-16.500,-116.500
1.753,-57.500,-65.500,-16.500,-117.000
1.754,-57.500,-65.500,-15.000,-117.000
1.755,-57.500,-65.000,-12.000,-116.500
1.756,-57.000,-64.500,-9.000,-116.000
1.757,-56.500,-63.500,-6.000,-115.500
1.758,-56.000,-62.500,-4.000,-115.000
1.759,-55.500,-62.000,-2.500,-114.500
1.760,-55.000,-61.500,-1.000,-113.500
1.761,-54.500,-61.000,0.500,-113.000
1.762,-54.000,-60.500,1.500,-112.500
1.763,-53.500,-60.000,1.000,-111.500
1.764,-53.500,-60.000,0.500,-111.000
1.765,-53.000,-60.000,0.000,-110.500
1.766,-53.000,-60.000,-1.000,-110.000
1.767,-53.000,-60.000,-2.000,-109.500
1.768,-52.500,-60.500,-3.500,-110.000
1.769,-52.500,-60.500,-4.500,-110.000
1.770,-53.000,-60.500,-4.500,-110.000
1.771,-52.500,-60.500,-3.500,-110.500
1.772,-52.500,-60.500,-2.000,-110.500
1.773,-52.500,-60.500,0.500,-110.500
1.774,-52.500,-60.000,2.500,-111.000
1.775,-52.500,-60.000,3.500,-110.500
1.776,-52.000,-59.500,3.000,-110.500
1.777,-52.000,-59.000,3.000,-110.500
1.778,-52.000,-58.500,2.500,-110.500
1.779,-51.500,-58.000,1.500,-110.000
1.780,-51.500,-57.500,0.000,-110.000
1.781,-51.000,-57.500,-1.500,-110.500
1.782,-51.000,-57.500,-2.000,-110.500
1.783,-51.500,-58.000,-2.000,-111.000
1.784,-52.000,-58.500,-2.000,-111.000
1.785,-52.500,-59.000,-2.500,-111.500
1.786,-53.000,-59.500,-2.500,-111.500
1.787,-53.000,-60.000,-3.500,-111.500
1.788,-53.000,-60.500,-5.000,-111.500
1.789,-53.000,-60.500,-6.500,-111.500
1.790,-53.000,-60.000,-7.000,-111.000
1.791,-52.500,-60.000,-7.000,-111.000
1.792,-52.500,-59.500,-6.500,-111.000
1.793,-52.000,-59.500,-5.500,-111.500
1.794,-52.000,-59.000,-4.500,-111.500
1.795,-52.000,-59.000,-4.500,-111.500
1.796,-51.500,-58.500,-5.000,-111.500
1.797,-51.500,-58.000,-6.000,-111.000
1.798,-51.000,-58.000,-7.000,-111.000
1.799,-51.000,-57.500,-7.000,-111.000
1.800,-51.000,-57.500,-6.000,-110.500
1.801,-51.500,-57.500,-5.000,-111.000
1.802,-51.500,-58.000,-5.000,-111.000
1.803,-52.000,-58.500,-5.000,-111.000
1.804,-52.500,-59.000,-4.000,-111.500
1.805,-52.500,-59.500,-3.000,-112.000
1.806,-53.000,-60.000,-2.000,-112.500
1.807,-53.500,-60.500,-1.500,-113.000
1.808,-53.500,-60.500,-1.500,-113.000
1.809,-53.500,-61.000,-2.000,-113.500
1.810,-54.000,-61.000,-2.000,-113.500
1.811,-54.000,-61.500,-1.500,-113.500
1.812,-54.000,-61.500,-0.500,-113.500
1.813,-54.000,-61.500,0.500,-113.500
1.814,-53.500,-61.000,0.500,-113.500
1.815,-53.500,-60.500,0.000,-113.000
1.816,-53.500,-60.500,-1.000,-113.000
1.817,-53.500,-60.000,-1.500,-112.500
1.818,-53.500,-59.500,-2.000,-112.500
1.819,-53.000,-59.000,-2.000,-112.500
1.820,-53.000,-59.000,-2.000,-112.500
1.821,-53.500,-59.000,-1.500,-112.500
1.822,-53.500,-59.000,-1.500,-113.000
1.823,-53.500,-59.500,-2.500,-113.000
1.824,-54.000,-60.000,-4.000,-113.000
1.825,-54.000,-60.500,-5.500,-113.000
1.826,-54.000,-60.500,-7.500,-112.500
1.827,-54.000,-61.000,-8.500,-112.500
1.828,-53.500,-61.000,-8.500,-112.500
1.829,-53.500,-61.000,-7.000,-112.500
1.830,-53.500,-61.000,-5.000,-112.500
1.831,-53.000,-61.000,-2.500,-112.500
1.832,-53.000,-60.500,-0.500,-113.000
1.833,-52.500,-60.500,1.000,-113.000
1.834,-52.500,-60.000,1.500,-112.500
1.835,-52.000,-59.500,2.000,-112.500
1.836,-52.000,-59.500,2.000,-112.500
1.837,-51.500,-59.000,2.500,-112.000
1.838,-51.500,-59.000,2.000,-112.000
1.839,-51.500,-58.500,1.500,-111.500
1.840,-51.500,-58.500,0.500,-111.500
1.841,-51.500,-58.500,-0.500,-111.500
1.842,-51.500,-58.500,-0.500,-111.500
1.843,-52.000,-59.000,-0.500,-111.500
1.844,-52.000,-59.500,1.000,-111.500
1.845,-52.500,-60.000,2.500,-111.500
1.846,-53.000,-60.500,4.500,-112.000
1.847,-53.000,-61.000,5.500,-112.000
1.848,-53.000,-61.000,6.000,-112.500
1.849,-53.000,-61.000,6.000,-112.500
1.850,-53.000,-61.000,6.000,-112.500
1.851,-53.000,-61.000,6.000,-112.000
1.852,-53.000,-61.000,5.500,-112.000
1.853,-52.500,-60.500,5.000,-111.500
1.854,-52.500,-60.500,4.500,-111.500
1.855,-52.500,-60.000,4.500,-111.000
1.856,-52.000,-59.500,5.000,-111.000
1.857,-52.000,-58.500,6.000,-111.000
1.858,-51.500,-58.000,7.000,-111.000
1.859,-51.500,-57.500,8.000,-111.000
1.860,-51.500,-57.500,7.500,-111.000
1.861,-51.500,-57.000,5.500,-111.000
1.862,-51.500,-57.000,2.000,-111.000
1.863,-51.500,-57.500,-3.000,-111.000
1.864,-51.500,-57.500,-7.000,-111.000
1.865,-52.000,-58.000,-8.500,-111.500
1.866,-52.000,-58.500,-9.000,-111.500
1.867,-52.500,-59.000,-8.000,-111.500
1.868,-52.500,-59.000,-6.500,-111.000
1.869,-52.500,-59.500,-5.500,-111.000
1.870,-52.500,-59.500,-5.500,-110.500
1.871,-52.500,-59.000,-5.500,-110.500
1.872,-52.000,-59.000,-5.500,-110.500
1.873,-52.000,-58.500,-6.500,-110.500
1.874,-51.500,-58.000,-8.500,-110.500
1.875,-51.500,-57.500,-11.000,-110.500
1.876,-51.500,-57.000,-14.000,-110.500
1.877,-51.000,-57.000,-16.500,-110.500
1.878,-51.000,-56.500,-18.000,-110.500
1.879,-50.500,-56.500,-18.000,-110.500
1.880,-51.000,-57.000,-17.000,-110.500
1.881,-51.000,-57.500,-15.000,-111.000
1.882,-51.000,-57.500,-14.000,-111.000
1.883,-51.500,-58.000,-13.000,-111.000
1.884,-51.500,-58.000,-11.500,-111.000
1.885,-52.000,-58.500,-9.000,-111.000
1.886,-52.000,-59.000,-7.000,-111.500
1.887,-52.500,-59.000,-6.000,-111.500
1.888,-52.500,-59.000,-6.000,-111.500
1.889,-52.000,-59.000,-6.500,-111.500
1.890,-51.500,-59.000,-6.000,-111.500
1.891,-51.500,-58.500,-5.500,-111.000
1.892,-51.000,-58.500,-5.500,-111.000
1.893,-51.000,-58.000,-5.500,-110.500
1.894,-51.000,-57.500,-5.500,-110.500
1.895,-50.500,-57.500,-5.000,-110.500
1.896,-50.500,-57.000,-4.000,-110.000
1.897,-50.500,-57.000,-3.500,-110.000
1.898,-50.500,-57.000,-3.500,-110.000
1.899,-50.500,-57.500,-3.500,-110.000
1.900,-50.500,-57.500,-4.500,-110.000
1.901,-51.000,-57.500,-6.000,-110.500
1.902,-51.000,-58.000,-8.500,-110.500
1.903,-51.500,-58.000,-11.000,-111.000
1.904,-51.500,-58.500,-13.000,-111.000
1.905,-52.000,-58.500,-14.500,-111.500
1.906,-52.000,-59.000,-16.500,-111.500
1.907,-52.000,-59.000,-18.000,-111.500
1.908,-52.000,-59.000,-20.000,-111.500
1.909,-51.500,-59.000,-21.000,-111.500
1.910,-51.500,-58.500,-21.500,-111.500
1.911,-51.000,-58.500,-20.500,-111.500
1.912,-51.000,-58.000,-19.500,-111.000
1.913,-51.000,-57.500,-18.500,-111.000
1.914,-50.500,-57.500,-18.000,-110.500
1.915,-50.500,-57.000,-18.500,-110.500
1.916,-50.500,-56.500,-19.500,-110.000
1.917,-50.500,-56.500,-19.000,-110.000
1.918,-50.500,-56.000,-17.000,-110.000
1.919,-50.000,-56.000,-15.000,-110.500
1.920,-50.000,-56.500,-13.000,-110.500
1.921,-50.000,-57.000,-10.500,-111.000
1.922,-50.500,-57.500,-8.500,-111.500
1.923,-50.500,-57.500,-7.000,-111.500
1.924,-50.500,-58.000,-7.000,-111.500
1.925,-51.000,-58.500,-8.000,-111.500
1.926,-51.000,-59.000,-8.500,-111.500
1.927,-51.500,-59.500,-9.000,-111.500
1.928,-51.500,-60.000,-8.500,-111.500
1.929,-51.500,-60.000,-8.000,-111.500
1.930,-52.000,-60.500,-7.500,-111.500
1.931,-52.000,-60.500,-7.000,-111.500
1.932,-52.000,-60.000,-6.000,-111.000
1.933,-51.500,-59.500,-5.000,-110.500
1.934,-51.500,-59.000,-3.000,-110.500
1.935,-51.500,-58.500,-1.500,-110.000
1.936,-51.000,-58.000,0.500,-110.000
1.937,-51.000,-58.000,2.000,-109.500
1.938,-50.500,-57.500,3.000,-109.500
1.939,-50.500,-57.500,3.000,-109.500
1.940,-50.500,-57.000,2.000,-109.500
1.941,-50.000,-57.000,0.500,-109.500
1.942,-50.000,-57.000,-1.000,-109.000
1.943,-50.000,-56.500,-2.500,-109.000
1.944,-50.000,-56.500,-2.500,-109.000
1.945,-50.500,-57.000,-2.000,-109.000
1.946,-50.500,-57.000,-0.500,-109.000
1.947,-51.000,-57.000,1.000,-109.000
1.948,-51.000,-57.500,1.500,-109.500
1.949,-51.000,-57.500,1.000,-109.500
1.950,-51.000,-58.000,0.000,-109.500
1.951,-50.500,-57.500,-1.000,-109.500
1.952,-50.500,-57.500,-1.500,-109.500
1.953,-50.000,-57.000,-2.500,-109.500
1.954,-50.000,-56.500,-3.000,-109.500
1.955,-49.500,-56.500,-4.000,-109.500
1.956,-49.500,-56.000,-4.500,-109.500
1.957,-49.500,-55.500,-5.500,-109.500
1.958,-49.000,-55.500,-6.000,-109.000
1.959,-49.000,-55.000,-6.000,-109.000
1.960,-49.000,-55.000,-5.500,-109.000
1.961,-49.000,-55.000,-5.000,-109.000
1.962,-49.000,-55.000,-4.500,-109.500
1.963,-49.500,-55.000,-5.000,-109.500
1.964,-49.500,-55.500,-6.000,-110.000
1.965,-50.000,-56.000,-6.500,-110.000
1.966,-50.500,-56.500,-6.500,-110.000
1.967,-51.000,-57.000,-5.500,-110.000
1.968,-51.000,-57.000,-5.000,-110.500
1.969,-50.500,-57.500,-5.500,-110.500
1.970,-50.500,-57.500,-6.500,-110.500
1.971,-50.000,-57.500,-7.000,-110.500
1.972,-50.000,-57.500,-6.500,-110.500
1.973,-49.500,-57.500,-6.000,-110.500
1.974,-49.000,-57.000,-5.000,-110.500
1.975,-48.500,-56.500,-3.500,-110.500
1.976,-48.000,-56.000,-2.000,-110.500
1.977,-48.000,-55.500,-0.500,-110.500
1.978,-48.000,-55.500,1.500,-110.500
1.979,-47.500,-55.000,3.500,-110.500
1.980,-47.500,-55.000,4.500,-110.500
1.981,-47.500,-55.000,4.000,-111.000
1.982,-48.000,-55.500,2.000,-111.000
1.983,-48.000,-55.500,-0.500,-111.000
1.984,-48.500,-56.000,-2.000,-111.000
1.985,-48.500,-56.000,-3.000,-111.500
1.986,-48.500,-56.500,-3.000,-111.500
1.987,-49.000,-56.500,-3.000,-111.500
1.988,-49.000,-56.500,-3.000,-112.000
1.989,-49.000,-56.500,-3.000,-112.000
1.990,-48.500,-56.500,-3.000,-112.000
1.991,-48.500,-56.000,-2.500,-112.000
1.992,-48.000,-56.000,-1.000,-112.000
1.993,-48.000,-55.500,1.000,-112.500
1.994,-47.500,-55.000,3.000,-112.500
1.995,-47.500,-55.000,4.000,-112.500
1.996,-47.500,-54.500,3.500,-113.000
1.997,-47.500,-54.500,1.500,-113.000
1.998,-47.000,-54.000,-1.500,-113.000
1.999,-47.000,-54.000,-4.000,-113.000
2.000,-47.000,-53.500,-5.000,-113.000
2.001,-47.000,-54.000,-5.500,-113.000
2.002,-47.000,-54.000,-5.500,-113.000
2.003,-47.000,-54.000,-5.000,-113.000
2.004,-47.500,-54.500,-4.500,-113.500
2.005,-47.500,-55.000,-4.000,-113.500
2.006,-48.000,-55.000,-3.500,-114.000
2.007,-48.000,-55.500,-2.500,-114.000
2.008,-48.500,-56.000,-1.500,-114.000
2.009,-48.500,-56.500,0.500,-114.000
2.010,-48.500,-56.500,1.500,-114.000
2.011,-48.000,-56.500,1.500,-114.000
2.012,-48.000,-56.500,1.000,-114.000
2.013,-48.000,-56.000,1.500,-114.000
2.014,-48.000,-56.000,2.500,-114.000
2.015,-47.500,-55.500,4.500,-114.000
2.016,-47.500,-55.000,6.500,-114.000
2.017,-47.500,-54.500,7.500,-114.000
2.018,-47.000,-54.500,8.500,-114.000
2.019,-47.000,-54.500,8.500,-114.000
2.020,-47.000,-54.500,8.500,-114.000
2.021,-47.500,-54.500,7.500,-114.000
2.022,-48.000,-54.500,6.000,-114.000
2.023,-48.000,-54.500,4.000,-114.000
2.024,-48.500,-54.500,3.000,-114.500
2.025,-48.500,-54.500,1.500,-114.500
2.026,-48.500,-55.000,1.000,-114.500
2.027,-49.000,-55.500,0.000,-114.500
2.028,-49.000,-55.500,-0.500,-114.500
2.029,-49.500,-56.000,-1.000,-115.000
2.030,-49.500,-56.000,-2.000,-115.500
2.031,-49.000,-56.000,-2.500,-115.500
2.032,-49.000,-55.500,-3.000,-116.500
2.033,-48.500,-55.500,-3.000,-117.000
2.034,-48.500,-55.000,-2.500,-117.500
2.035,-48.500,-55.000,-1.000,-118.500
2.036,-48.500,-55.500,0.500,-119.500
2.037,-48.500,-56.000,2.000,-121.000
2.038,-49.000,-56.500,2.000,-122.000
2.039,-49.500,-57.000,1.500,-123.500
2.040,-50.500,-58.000,0.500,-125.000
2.041,-51.500,-59.500,0.000,-126.500
2.042,-53.000,-60.500,0.000,-128.000
2.043,-54.500,-62.000,-0.500,-129.000
2.044,-56.500,-63.500,-2.000,-129.500
2.045,-58.000,-65.000,-3.500,-130.000
2.046,-60.000,-66.000,-4.500,-130.000
2.047,-61.500,-67.500,-5.500,-130.000
2.048,-63.500,-68.500,-6.000,-129.500
2.049,-65.000,-70.000,-6.500,-129.000
2.050,-66.500,-70.500,-6.000,-128.000
2.051,-67.500,-71.500,-4.000,-127.000
2.052,-69.000,-72.000,-1.500,-125.500
2.053,-70.000,-72.500,1.000,-123.500
2.054,-71.500,-72.500,3.000,-120.500
2.055,-72.500,-72.500,4.500,-117.500
2.056,-74.000,-72.000,6.500,-114.000
2.057,-75.000,-71.500,8.500,-110.000
2.058,-75.500,-71.000,9.500,-106.000
2.059,-76.500,-71.000,8.500,-102.500
2.060,-77.000,-70.500,7.000,-99.500
2.061,-78.000,-70.000,7.000,-96.500
2.062,-78.500,-69.500,8.000,-94.000
2.063,-79.500,-69.500,10.500,-92.000
2.064,-80.000,-69.500,12.000,-90.500
2.065,-80.000,-69.500,12.000,-89.000
2.066,-80.000,-69.500,10.500,-87.500
2.067,-79.500,-69.000,9.500,-86.500
2.068,-78.500,-68.000,8.500,-85.500
2.069,-76.500,-67.000,8.000,-85.000
2.070,-74.000,-64.500,7.000,-84.500
2.071,-70.500,-62.500,6.000,-84.000
2.072,-67.000,-59.500,5.000,-84.000
2.073,-63.000,-56.500,4.000,-84.500
2.074,-59.000,-53.500,3.500,-84.500
2.075,-54.500,-50.500,3.000,-85.500
2.076,-50.500,-47.500,2.500,-86.500
2.077,-46.500,-44.500,2.500,-87.500
2.078,-42.500,-42.000,1.500,-88.000
2.079,-38.500,-39.500,1.000,-88.500
2.080,-35.500,-37.500,0.000,-89.000
2.081,-33.500,-36.000,-1.000,-90.000
2.082,-33.000,-36.000,-1.500,-91.500
2.083,-33.000,-36.500,-1.000,-93.000
2.084,-34.500,-38.500,0.500,-95.500
2.085,-36.500,-40.500,1.500,-98.000
2.086,-38.500,-43.000,2.500,-100.500
2.087,-40.500,-45.500,2.000,-103.000
2.088,-42.000,-47.000,0.000,-104.500
2.089,-43.500,-48.500,-1.500,-106.000
2.090,-44.500,-50.000,-1.500,-107.500
2.091,-45.500,-51.000,0.000,-108.500
2.092,-47.000,-51.500,2.000,-109.500
2.093,-48.000,-52.500,3.000,-110.500
2.094,-48.500,-53.000,3.500,-111.500
2.095,-49.000,-53.000,3.500,-112.000
2.096,-49.000,-53.000,3.000,-112.500
2.097,-49.000,-53.000,3.000,-113.000
2.098,-48.500,-53.000,3.000,-113.000
2.099,-48.500,-53.500,2.500,-113.000
2.100,-49.000,-53.500,1.000,-113.500
2.101,-49.000,-53.500,-1.500,-113.500
2.102,-49.000,-53.500,-5.000,-113.500
2.103,-49.000,-54.000,-7.500,-114.000
2.104,-49.000,-54.000,-8.500,-114.000
2.105,-49.000,-54.000,-8.000,-114.000
2.106,-49.000,-54.500,-6.500,-114.000
2.107,-49.000,-55.000,-5.000,-114.000
2.108,-49.000,-55.000,-4.500,-114.000
2.109,-49.000,-55.000,-5.000,-114.000
2.110,-48.500,-54.500,-6.000,-114.000
2.111,-48.500,-54.500,-8.000,-114.000
2.112,-48.500,-54.000,-9.500,-114.000
2.113,-48.000,-53.500,-11.000,-114.000
2.114,-48.000,-53.000,-12.500,-114.000
2.115,-48.000,-52.500,-13.000,-114.000
2.116,-48.000,-52.500,-13.000,-114.500
2.117,-47.500,-52.000,-13.000,-114.500
2.118,-47.500,-52.000,-12.500,-115.000
2.119,-47.500,-52.000,-11.500,-115.000
2.120,-48.000,-52.000,-10.000,-115.000
2.121,-48.000,-52.500,-7.500,-115.000
2.122,-48.500,-53.000,-5.500,-115.500
2.123,-48.500,-53.500,-3.500,-115.500
2.124,-49.000,-54.000,-3.000,-115.500
2.125,-49.500,-54.000,-4.000,-115.500
2.126,-49.500,-54.500,-6.000,-116.000
2.127,-50.000,-55.000,-8.000,-116.000
2.128,-50.000,-55.000,-10.500,-116.000
2.129,-50.000,-55.000,-13.500,-115.500
2.130,-50.000,-55.000,-15.000,-115.500
2.131,-50.000,-55.000,-15.000,-116.000
2.132,-49.500,-55.000,-14.000,-116.000
2.133,-49.500,-55.000,-11.500,-116.500
2.134,-49.000,-55.000,-8.500,-116.500
2.135,-49.000,-54.500,-5.000,-116.500
2.136,-48.500,-54.000,-3.000,-116.500
2.137,-48.500,-53.500,-2.500,-116.000
2.138,-48.500,-53.500,-3.000,-116.000
2.139,-48.000,-53.500,-4.000,-116.000
2.140,-48.000,-53.500,-4.000,-116.000
2.141,-48.000,-53.500,-4.000,-116.000
2.142,-48.000,-53.500,-3.000,-116.000
2.143,-48.500,-54.000,-1.500,-116.000
2.144,-48.500,-54.000,1.000,-116.000
2.145,-49.000,-54.500,3.000,-116.000
2.146,-49.500,-54.500,4.000,-116.000
2.147,-49.500,-54.500,4.000,-115.500
2.148,-49.500,-54.500,3.000,-115.500
2.149,-49.000,-54.500,1.500,-115.000
2.150,-49.000,-54.500,-0.500,-115.000
2.151,-48.500,-54.000,-1.500,-114.500
2.152,-48.500,-53.500,-2.000,-114.500
2.153,-48.500,-53.000,-2.500,-114.500
2.154,-48.000,-53.000,-2.000,-114.500
2.155,-48.000,-52.500,-1.500,-114.500
2.156,-47.500,-52.000,-1.000,-114.500
2.157,-47.500,-51.500,-1.500,-114.500
2.158,-47.000,-51.000,-2.500,-114.500
2.159,-47.000,-50.500,-3.500,-114.500
2.160,-47.000,-50.500,-4.500,-114.500
2.161,-47.000,-50.500,-4.500,-114.500
2.162,-47.000,-51.000,-3.000,-114.500
2.163,-47.500,-51.000,-1.500,-114.500
2.164,-48.000,-52.000,-0.500,-114.500
2.165,-48.500,-52.500,-0.500,-114.500
2.166,-48.500,-53.000,-2.500,-114.000
2.167,-48.500,-53.000,-5.500,-114.000
2.168,-48.500,-53.500,-9.000,-114.000
2.169,-48.500,-54.000,-11.000,-114.000
2.170,-48.500,-54.000,-11.000,-114.500
2.171,-48.500,-54.000,-9.500,-114.500
2.172,-48.500,-54.000,-7.500,-114.000
2.173,-48.000,-53.500,-4.000,-114.000
2.174,-48.000,-53.500,-1.000,-113.500
2.175,-47.500,-53.000,1.000,-113.500
2.176,-47.500,-52.500,1.500,-113.000
2.177,-47.000,-52.000,1.500,-113.000
2.178,-47.000,-52.000,1.500,-113.000
2.179,-46.500,-52.000,2.500,-113.500
2.180,-46.500,-52.000,3.000,-113.500
2.181,-46.500,-52.000,2.000,-113.500
2.182,-47.000,-52.000,0.000,-114.000
2.183,-47.000,-52.500,-2.000,-114.000
2.184,-47.500,-53.000,-3.500,-114.000
2.185,-47.500,-53.500,-4.000,-114.000
2.186,-48.000,-53.500,-4.000,-114.000
2.187,-48.500,-54.000,-4.500,-114.000
2.188,-48.500,-54.000,-4.500,-114.000
2.189,-49.000,-54.500,-4.500,-114.000
2.190,-49.000,-54.500,-4.000,-114.000
2.191,-49.000,-54.000,-2.500,-114.000
2.192,-49.000,-54.000,-1.500,-114.000
2.193,-48.500,-54.000,0.000,-114.000
2.194,-48.000,-53.500,1.000,-114.000
2.195,-48.000,-53.500,3.000,-113.500
2.196,-47.500,-53.000,5.000,-113.000
2.197,-47.000,-52.000,6.500,-112.500
2.198,-46.500,-51.500,7.000,-112.500
2.199,-46.500,-51.000,6.000,-112.500
2.200,-46.500,-51.000,4.000,-112.500
2.201,-46.500,-51.000,1.500,-112.500
2.202,-47.000,-51.000,0.500,-112.500
2.203,-47.500,-51.500,-0.500,-113.000
2.204,-48.000,-52.000,-0.500,-113.500
2.205,-49.000,-52.500,-0.500,-114.000
2.206,-50.000,-54.000,-0.500,-114.500
2.207,-50.500,-55.000,-1.000,-115.500
2.208,-51.500,-56.500,-2.000,-116.500
2.209,-52.500,-57.500,-3.000,-117.000
2.210,-53.000,-58.000,-3.500,-117.500
2.211,-53.500,-58.500,-3.500,-118.500
2.212,-54.000,-59.000,-2.500,-119.000
2.213,-54.500,-59.500,-1.500,-119.000
2.214,-54.500,-59.500,-1.500,-119.500
2.215,-54.500,-59.500,-3.000,-119.500
2.216,-54.500,-59.000,-4.500,-119.000
2.217,-54.500,-58.500,-6.000,-118.500
2.218,-54.000,-58.000,-6.500,-118.000
2.219,-54.000,-57.000,-6.000,-117.500
2.220,-53.500,-56.500,-4.500,-117.000
2.221,-52.500,-56.000,-4.000,-116.000
2.222,-52.000,-55.500,-3.500,-115.500
2.223,-51.500,-55.000,-4.000,-114.500
2.224,-51.000,-55.000,-3.000,-113.500
2.225,-50.500,-54.500,-1.500,-113.000
2.226,-50.000,-54.500,1.500,-112.000
2.227,-49.500,-54.500,4.000,-111.500
2.228,-49.500,-54.500,5.500,-111.500
2.229,-49.500,-54.500,5.500,-111.500
2.230,-50.000,-54.500,5.500,-111.500
2.231,-50.000,-54.500,5.500,-112.000
2.232,-50.000,-54.500,6.500,-112.000
2.233,-50.000,-54.500,7.500,-112.000
2.234,-50.000,-54.000,8.500,-112.000
2.235,-50.000,-54.000,9.500,-112.000
2.236,-50.000,-53.500,10.000,-112.000
2.237,-49.500,-53.500,10.000,-112.000
2.238,-49.500,-53.500,9.000,-112.000
2.239,-49.500,-53.500,8.000,-112.500
2.240,-49.500,-53.500,7.000,-112.500
2.241,-49.500,-53.500,6.500,-113.000
2.242,-50.000,-53.500,5.500,-113.000
2.243,-50.500,-53.500,4.500,-113.000
2.244,-51.000,-54.000,3.000,-112.500
2.245,-51.500,-54.500,1.500,-112.500
2.246,-52.000,-55.000,0.500,-112.500
2.247,-52.000,-55.500,-0.500,-112.500
2.248,-52.500,-56.000,-0.500,-112.500
2.249,-52.500,-56.000,1.000,-112.500
2.250,-52.500,-56.000,2.500,-112.000
2.251,-52.000,-55.500,4.000,-112.000
2.252,-52.000,-55.000,5.500,-111.500
2.253,-52.000,-55.000,6.000,-111.500
2.254,-51.500,-55.000,5.000,-111.000
2.255,-51.500,-54.500,3.500,-111.000
2.256,-51.000,-54.500,1.500,-110.500
2.257,-51.000,-54.500,0.000,-110.500
2.258,-51.000,-54.000,-2.000,-110.500
2.259,-51.000,-54.000,-4.500,-110.000
2.260,-51.500,-54.000,-6.000,-110.000
2.261,-51.500,-54.000,-8.000,-110.000
2.262,-52.000,-54.000,-9.000,-110.000
2.263,-52.500,-54.000,-9.500,-109.500
2.264,-53.000,-54.500,-9.500,-109.500
2.265,-53.500,-55.000,-8.000,-109.500
2.266,-54.000,-55.500,-6.500,-109.500
2.267,-54.500,-56.000,-6.000,-109.500
2.268,-54.500,-56.000,-6.000,-110.000
2.269,-55.000,-56.500,-7.500,-110.000
2.270,-55.000,-56.500,-8.500,-109.500
2.271,-55.000,-56.500,-8.500,-109.500
2.272,-54.500,-56.500,-7.500,-109.000
2.273,-54.500,-56.000,-6.500,-109.000
2.274,-54.500,-55.500,-5.000,-109.000
2.275,-54.500,-55.000,-3.500,-109.000
2.276,-54.500,-55.000,-2.000,-109.000
2.277,-54.500,-54.500,-1.000,-109.000
2.278,-54.500,-54.500,0.500,-109.500
2.279,-54.500,-54.500,1.500,-109.500
2.280,-54.500,-55.000,3.000,-109.500
2.281,-54.500,-55.000,4.000,-109.500
2.282,-55.000,-55.500,5.000,-109.500
2.283,-55.500,-56.000,7.500,-109.500
2.284,-56.000,-56.500,10.000,-110.000
2.285,-56.500,-57.000,12.500,-110.000
2.286,-56.500,-57.500,13.500,-110.000
2.287,-56.500,-57.500,12.500,-110.500
2.288,-57.000,-58.000,10.500,-110.500
2.289,-57.000,-58.500,8.000,-110.500
2.290,-57.000,-58.500,5.500,-110.500
2.291,-57.000,-58.500,3.000,-110.500
2.292,-57.000,-58.000,1.000,-110.500
2.293,-57.000,-58.000,0.000,-110.500
2.294,-57.000,-57.500,0.500,-110.000
2.295,-57.500,-57.000,2.000,-110.000
2.296,-57.500,-57.000,3.500,-110.500
2.297,-57.000,-56.500,4.500,-110.500
2.298,-57.000,-56.500,5.000,-111.000
2.299,-57.000,-56.500,4.000,-111.500
2.300,-57.000,-56.500,2.500,-111.500
2.301,-56.500,-56.500,1.500,-112.000
2.302,-56.500,-56.500,1.500,-112.000
2.303,-56.500,-56.500,2.500,-112.000
2.304,-56.500,-56.500,4.000,-112.500
2.305,-57.000,-57.000,5.000,-113.000
2.306,-57.000,-57.000,5.500,-113.000
2.307,-57.000,-57.500,5.500,-113.000
2.308,-56.500,-57.500,5.500,-113.000
2.309,-56.500,-57.000,5.000,-113.000
2.310,-56.000,-57.000,4.000,-113.000
2.311,-55.500,-56.500,2.500,-113.000
2.312,-55.500,-56.000,0.500,-113.000
2.313,-55.000,-55.500,-2.000,-113.500
2.314,-54.500,-55.000,-4.500,-113.500
2.315,-54.500,-55.000,-5.500,-113.500
2.316,-54.000,-54.500,-6.000,-114.000
2.317,-54.000,-54.000,-5.500,-114.000
2.318,-53.500,-53.500,-5.500,-114.000
2.319,-53.000,-53.500,-5.500,-114.000
2.320,-53.000,-53.000,-5.500,-114.000
2.321,-53.000,-53.000,-4.500,-114.000
2.322,-53.000,-53.000,-4.000,-114.500
2.323,-53.000,-53.500,-4.000,-115.000
2.324,-53.000,-53.500,-3.500,-115.500
2.325,-53.000,-53.500,-3.000,-116.000
2.326,-53.000,-53.500,-3.000,-116.000
2.327,-52.500,-53.500,-3.500,-116.000
2.328,-52.000,-53.500,-4.000,-116.000
2.329,-52.000,-53.500,-3.500,-116.500
2.330,-51.500,-53.000,-2.000,-116.500
2.331,-51.000,-53.000,-1.000,-116.500
2.332,-50.500,-52.000,0.500,-116.500
2.333,-50.000,-51.500,1.500,-116.500
2.334,-50.000,-51.000,2.000,-116.000
2.335,-49.500,-51.000,2.500,-116.000
2.336,-49.500,-50.500,2.000,-116.000
2.337,-49.000,-50.000,1.000,-116.000
2.338,-48.500,-49.500,-0.500,-116.000
2.339,-48.500,-49.500,-1.000,-116.000
2.340,-48.000,-49.000,-1.000,-116.000
2.341,-48.000,-49.000,-2.000,-116.000
2.342,-48.000,-49.000,-3.000,-115.500
2.343,-48.500,-49.000,-4.500,-115.500
2.344,-48.500,-49.000,-6.000,-115.500
2.345,-48.500,-49.500,-6.500,-115.500
2.346,-49.000,-49.500,-6.500,-115.500
2.347,-49.000,-50.000,-5.500,-116.000
2.348,-48.500,-50.000,-4.500,-116.000
2.349,-48.500,-50.500,-3.000,-116.000
2.350,-48.500,-50.500,-1.000,-116.500
2.351,-48.000,-50.000,1.000,-116.500
2.352,-47.500,-49.500,1.500,-116.500
2.353,-47.500,-49.000,1.000,-116.500
2.354,-47.000,-48.000,-0.500,-116.000
2.355,-46.500,-47.500,-2.500,-116.000
2.356,-46.500,-47.000,-5.000,-116.000
2.357,-46.000,-46.500,-6.000,-115.500
2.358,-46.000,-46.000,-5.000,-115.500
2.359,-45.500,-46.000,-2.500,-115.500
2.360,-45.500,-46.000,1.000,-115.000
2.361,-45.500,-46.000,4.000,-115.500
2.362,-45.500,-46.000,6.000,-115.500
2.363,-45.500,-46.000,7.500,-115.500
2.364,-46.000,-46.500,8.000,-115.500
2.365,-46.000,-46.500,8.500,-115.500
2.366,-46.000,-47.000,9.500,-115.500
2.367,-46.500,-47.500,11.000,-115.500
2.368,-46.500,-47.500,13.000,-115.500
2.369,-46.500,-48.000,14.000,-116.000
2.370,-46.500,-48.000,14.000,-116.000
2.371,-46.500,-47.500,13.500,-115.500
2.372,-46.000,-47.500,11.500,-115.500
2.373,-46.000,-47.000,9.500,-115.500
2.374,-45.500,-46.500,7.000,-115.500
2.375,-45.000,-45.500,4.500,-115.500
2.376,-44.500,-45.000,3.000,-115.500
2.377,-44.000,-44.500,2.500,-115.500
2.378,-44.000,-44.500,3.000,-115.500
2.379,-43.500,-44.000,4.500,-115.500
2.380,-43.500,-44.000,6.000,-115.500
2.381,-43.500,-44.000,7.500,-115.500
2.382,-44.000,-44.500,8.000,-115.500
2.383,-44.000,-44.500,7.500,-116.000
2.384,-44.500,-45.000,6.000,-116.000
2.385,-44.500,-45.000,4.000,-116.000
2.386,-45.000,-45.500,2.500,-116.000
2.387,-45.000,-45.500,2.000,-116.000
2.388,-45.000,-46.000,2.000,-116.500
2.389,-45.000,-46.000,3.000,-116.500
2.390,-45.000,-45.500,3.500,-116.500
2.391,-45.000,-45.500,3.500,-116.500
2.392,-45.000,-45.000,3.500,-116.500
2.393,-44.500,-44.500,3.000,-116.500
2.394,-44.500,-44.500,2.500,-116.000
2.395,-44.000,-44.000,1.000,-116.000
2.396,-43.500,-44.000,-0.500,-116.000
2.397,-43.500,-43.500,-2.500,-115.500
2.398,-43.000,-43.000,-3.000,-115.500
2.399,-42.500,-43.000,-2.000,-115.500
2.400,-42.500,-43.000,0.500,-115.500
2.401,-43.000,-43.000,3.000,-115.500
2.402,-43.000,-43.500,5.000,-115.500
2.403,-43.500,-44.000,6.500,-115.500
2.404,-43.500,-44.500,7.500,-115.500
2.405,-44.000,-45.000,7.500,-115.500
2.406,-44.000,-45.500,6.500,-115.500
2.407,-44.500,-46.000,4.500,-115.000
2.408,-44.500,-46.000,3.000,-115.000
2.409,-44.500,-46.500,2.500,-115.000
2.410,-45.000,-46.500,4.000,-115.000
2.411,-45.000,-46.000,6.500,-115.000
2.412,-44.500,-46.000,9.000,-115.000
2.413,-44.500,-45.500,11.000,-115.000
2.414,-44.000,-45.500,12.000,-114.500
2.415,-43.500,-45.000,12.500,-114.500
2.416,-43.500,-44.500,13.000,-114.500
2.417,-43.000,-44.500,13.000,-114.500
2.418,-43.000,-44.000,11.500,-114.500
2.419,-43.000,-44.000,9.500,-114.500
2.420,-43.000,-44.000,7.000,-114.500
2.421,-42.500,-44.000,5.000,-115.000
2.422,-43.000,-44.000,3.000,-114.500
2.423,-43.000,-43.500,1.500,-114.500
2.424,-43.000,-43.500,-0.500,-114.500
2.425,-43.000,-44.000,-2.000,-114.500
2.426,-43.000,-44.000,-2.500,-114.500
2.427,-43.000,-44.500,-2.000,-115.000
2.428,-43.000,-44.500,-1.000,-115.000
2.429,-43.000,-45.000,0.500,-115.000
2.430,-43.000,-44.500,1.000,-115.000
2.431,-43.000,-44.500,0.500,-114.500
2.432,-43.000,-44.500,-0.500,-114.500
2.433,-42.500,-44.000,-1.000,-114.500
2.434,-42.000,-43.500,-1.500,-114.000
2.435,-41.500,-43.000,-1.000,-114.000
2.436,-41.000,-42.500,-0.500,-114.500
2.437,-41.000,-42.000,-0.500,-114.500
2.438,-41.000,-42.000,-1.000,-115.000
2.439,-41.000,-42.500,-2.000,-115.500
2.440,-41.000,-42.500,-4.000,-115.500
2.441,-41.500,-42.500,-6.000,-116.000
2.442,-41.500,-43.000,-7.500,-116.000
2.443,-41.500,-43.000,-8.500,-116.000
2.444,-42.000,-43.000,-8.000,-116.500
2.445,-42.000,-43.500,-6.500,-117.000
2.446,-42.500,-44.000,-3.500,-117.000
2.447,-42.500,-44.500,-0.500,-117.500
2.448,-42.500,-45.000,1.500,-117.500
2.449,-42.500,-45.000,3.000,-117.500
2.450,-42.500,-45.000,4.000,-117.000
2.451,-42.000,-44.500,5.000,-117.000
2.452,-42.000,-44.500,7.000,-117.000
2.453,-41.500,-44.000,9.500,-117.000
2.454,-41.000,-43.500,12.000,-117.000
2.455,-41.000,-43.000,14.000,-117.500
2.456,-40.500,-43.000,15.000,-117.000
2.457,-40.500,-42.500,14.500,-117.000
2.458,-40.500,-42.500,13.500,-117.000
2.459,-40.000,-42.500,12.000,-117.500
2.460,-40.000,-42.500,11.000,-117.500
2.461,-40.000,-42.500,11.000,-117.500
2.462,-40.500,-43.000,11.500,-117.500
2.463,-40.500,-43.000,12.500,-117.500
2.464,-41.000,-43.500,13.000,-117.500
2.465,-41.500,-44.000,13.500,-117.500
2.466,-42.000,-44.500,13.500,-117.500
2.467,-42.000,-45.000,13.000,-118.000
2.468,-42.000,-45.500,12.500,-118.000
2.469,-42.000,-45.500,12.000,-118.000
2.470,-42.000,-45.500,12.000,-118.000
2.471,-42.000,-45.000,11.500,-118.000
2.472,-42.000,-45.000,10.000,-118.000
2.473,-41.500,-44.000,8.000,-118.500
2.474,-41.000,-43.500,5.500,-118.500
2.475,-40.500,-43.000,2.500,-118.500
2.476,-40.500,-42.500,0.500,-118.000
2.477,-40.000,-42.000,-0.500,-118.000
2.478,-40.000,-41.500,0.500,-117.500
2.479,-39.500,-41.000,2.000,-117.500
2.480,-39.500,-41.000,3.500,-117.500
2.481,-39.500,-41.000,4.500,-118.000
2.482,-39.500,-41.000,5.000,-118.000
2.483,-40.000,-41.500,5.000,-118.000
2.484,-40.000,-42.000,4.500,-118.000
2.485,-40.000,-42.000,4.500,-118.000
2.486,-40.500,-42.500,4.500,-118.000
2.487,-40.500,-42.500,4.000,-118.000
2.488,-40.500,-42.500,4.000,-118.000
2.489,-41.000,-42.500,4.500,-118.000
2.490,-41.000,-42.000,5.500,-118.500
2.491,-40.500,-42.000,8.000,-118.500
2.492,-40.500,-42.000,11.000,-119.000
2.493,-40.000,-42.000,13.500,-119.000
2.494,-40.000,-41.500,14.500,-119.000
2.495,-39.500,-41.500,14.500,-119.000
2.496,-39.000,-41.000,14.500,-119.000
2.497,-39.000,-40.500,14.500,-119.000
2.498,-38.500,-40.000,14.500,-119.000
2.499,-38.500,-40.000,13.500,-119.500
2.500,-38.500,-39.500,12.000,-119.500
2.501,-38.500,-39.500,10.500,-119.500
2.502,-38.500,-39.500,9.000,-119.500
2.503,-39.000,-39.500,8.000,-119.500
2.504,-39.000,-39.500,7.000,-119.500
2.505,-39.500,-40.000,6.500,-119.000
2.506,-39.500,-40.000,7.500,-119.000
2.507,-39.500,-40.500,10.000,-119.500
2.508,-39.500,-41.000,12.500,-119.500
2.509,-39.000,-41.500,14.500,-119.500
2.510,-39.000,-41.500,15.000,-119.500
2.511,-38.500,-41.000,13.500,-119.000
2.512,-38.500,-41.000,12.000,-119.000
2.513,-38.000,-40.500,11.500,-119.000
2.514,-37.500,-40.500,12.500,-119.000
2.515,-37.500,-40.000,14.000,-119.000
2.516,-37.000,-39.500,16.000,-119.000
2.517,-37.000,-39.000,17.500,-119.000
2.518,-37.000,-39.000,18.500,-118.500
2.519,-37.000,-38.500,19.000,-118.500
2.520,-37.000,-38.500,19.500,-118.500
2.521,-37.000,-38.000,19.000,-119.000
2.522,-37.000,-38.000,18.000,-119.000
2.523,-37.500,-38.000,17.000,-119.500
2.524,-37.500,-38.000,15.500,-119.500
2.525,-38.000,-38.500,13.000,-120.000
2.526,-38.000,-39.000,10.500,-120.000
2.527,-38.500,-39.000,8.500,-120.000
2.528,-38.500,-39.500,8.000,-120.000
2.529,-38.500,-39.500,8.500,-120.000
2.530,-38.500,-39.500,9.000,-119.500
2.531,-38.000,-39.000,10.000,-119.500
2.532,-38.000,-38.500,9.500,-119.500
2.533,-37.500,-38.000,8.500,-119.500
2.534,-37.000,-37.500,7.500,-120.000
2.535,-37.000,-37.500,7.500,-120.000
2.536,-37.000,-37.000,8.000,-120.500
2.537,-37.000,-37.000,8.500,-121.000
2.538,-37.000,-36.500,9.000,-121.500
2.539,-37.000,-36.500,9.000,-121.500
2.540,-37.000,-36.500,9.000,-121.500
2.541,-37.000,-37.000,9.000,-121.500
2.542,-37.000,-37.000,9.000,-121.500
2.543,-37.500,-37.500,8.000,-122.000
2.544,-37.500,-38.000,7.000,-122.500
2.545,-38.000,-38.500,5.500,-122.500
2.546,-38.000,-38.500,4.500,-123.000
2.547,-38.500,-39.000,3.500,-123.000
2.548,-38.500,-39.000,2.000,-123.000
2.549,-38.500,-39.000,1.000,-123.000
2.550,-38.500,-39.000,0.500,-123.000
2.551,-38.500,-39.000,0.500,-123.000
2.552,-38.500,-38.500,0.500,-122.500
2.553,-38.500,-38.500,0.000,-123.000
2.554,-38.000,-38.000,0.000,-123.000
2.555,-38.000,-38.000,-1.000,-123.000
2.556,-37.500,-37.000,-1.500,-123.000
2.557,-37.000,-36.500,-1.500,-123.000
2.558,-37.000,-36.000,-1.000,-122.500
2.559,-36.500,-35.500,0.000,-122.500
2.560,-36.500,-35.500,0.500,-122.500
2.561,-36.500,-35.500,1.000,-122.000
2.562,-37.000,-36.000,0.500,-122.000
2.563,-37.000,-36.500,0.000,-122.000
2.564,-37.500,-36.500,1.000,-122.000
2.565,-38.000,-37.000,2.500,-122.000
2.566,-38.000,-37.500,4.500,-122.000
2.567,-38.500,-38.000,5.500,-122.000
2.568,-38.500,-38.500,5.000,-122.000
2.569,-38.500,-38.500,4.000,-122.000
2.570,-38.500,-39.000,2.500,-122.000
2.571,-38.500,-38.500,1.000,-121.500
2.572,-38.500,-38.500,-0.500,-121.500
2.573,-38.000,-38.500,-1.000,-121.500
2.574,-38.000,-38.000,-0.500,-121.500
2.575,-37.500,-37.500,0.500,-121.500
2.576,-37.000,-37.000,1.500,-121.500
2.577,-36.500,-36.500,3.000,-121.000
2.578,-36.000,-36.000,4.000,-121.000
2.579,-36.000,-35.500,4.000,-120.500
2.580,-35.500,-35.500,3.500,-120.500
2.581,-35.500,-35.500,3.500,-121.000
2.582,-35.500,-35.500,3.500,-121.000
2.583,-35.500,-35.500,4.000,-121.500
2.584,-36.000,-36.000,4.000,-121.500
2.585,-36.000,-36.500,3.000,-121.500
2.586,-36.500,-37.000,1.000,-122.000
2.587,-37.000,-37.000,-2.000,-122.000
2.588,-37.000,-37.500,-5.000,-122.500
2.589,-37.000,-37.500,-6.500,-122.500
2.590,-36.500,-37.000,-7.000,-122.500
2.591,-36.500,-37.000,-8.000,-122.500
2.592,-36.500,-36.500,-9.500,-122.500
2.593,-36.500,-36.500,-11.500,-122.000
2.594,-36.500,-36.000,-12.500,-121.500
2.595,-36.000,-36.000,-12.000,-121.500
2.596,-36.000,-35.500,-10.000,-121.000
2.597,-36.000,-35.000,-8.000,-120.500
2.598,-35.500,-35.000,-6.500,-120.500
2.599,-35.500,-35.000,-5.500,-120.500
2.600,-35.500,-34.500,-6.000,-120.500
2.601,-35.000,-34.500,-6.000,-121.000
2.602,-35.000,-34.500,-6.000,-121.000
2.603,-35.000,-34.500,-5.000,-121.000
2.604,-35.000,-34.500,-3.000,-121.500
2.605,-35.000,-35.000,-1.500,-121.500
2.606,-35.000,-35.000,0.500,-121.500
2.607,-35.000,-35.500,1.500,-121.500
2.608,-35.500,-35.500,2.000,-121.500
2.609,-35.500,-35.500,3.000,-121.500
2.610,-35.000,-35.500,3.500,-121.500
2.611,-35.000,-35.000,3.500,-121.500
2.612,-34.500,-35.000,3.500,-121.000
2.613,-34.500,-34.500,3.500,-121.000
2.614,-34.000,-34.000,3.500,-121.000
2.615,-33.500,-34.000,3.500,-120.500
2.616,-33.000,-33.500,3.500,-120.500
2.617,-33.000,-33.500,3.500,-120.500
2.618,-33.000,-33.000,2.000,-120.000
2.619,-33.000,-32.500,0.500,-120.000
2.620,-33.000,-32.500,-0.500,-120.000
2.621,-33.000,-32.500,-1.500,-120.500
2.622,-33.000,-32.500,-2.000,-120.500
2.623,-33.000,-32.500,-2.000,-120.500
2.624,-33.500,-33.000,-1.000,-120.500
2.625,-33.500,-33.000,0.500,-120.500
2.626,-34.000,-33.500,2.000,-120.500
2.627,-34.000,-34.000,2.500,-120.500
2.628,-34.500,-34.500,2.500,-120.500
2.629,-34.500,-34.500,2.500,-120.500
2.630,-34.500,-34.500,3.000,-120.500
2.631,-34.000,-34.000,3.500,-120.500
2.632,-34.000,-33.500,4.000,-120.500
2.633,-33.500,-33.000,4.000,-120.500
2.634,-33.000,-32.500,3.500,-120.500
2.635,-33.000,-32.000,2.500,-120.000
2.636,-32.500,-31.500,1.000,-120.000
2.637,-32.000,-31.000,-0.500,-120.000
2.638,-32.000,-30.500,-1.500,-119.500
2.639,-31.500,-30.000,-2.000,-119.500
2.640,-31.500,-29.500,-1.500,-119.000
2.641,-31.500,-29.500,-1.500,-119.000
2.642,-31.500,-29.500,-2.000,-119.000
2.643,-31.500,-29.500,-3.500,-119.000
2.644,-31.500,-30.000,-5.000,-119.500
2.645,-32.000,-30.500,-7.000,-119.500
2.646,-32.000,-31.000,-8.000,-119.500
2.647,-32.000,-31.500,-8.000,-119.000
2.648,-32.500,-31.500,-7.000,-119.000
2.649,-32.500,-32.000,-6.000,-119.000
2.650,-32.500,-32.000,-4.500,-119.000
2.651,-32.000,-32.000,-2.500,-119.000
2.652,-31.500,-31.500,1.000,-118.500
2.653,-31.000,-31.000,6.000,-118.500
2.654,-30.000,-30.500,10.500,-118.000
2.655,-29.500,-30.000,13.000,-117.500
2.656,-29.000,-29.000,13.000,-117.500
2.657,-28.500,-28.500,11.000,-117.000
2.658,-28.000,-28.000,9.500,-117.000
2.659,-28.000,-27.500,9.000,-117.000
2.660,-28.500,-27.500,8.500,-117.000
2.661,-29.000,-27.500,8.500,-117.000
2.662,-29.500,-28.000,8.000,-117.500
2.663,-30.000,-28.500,7.500,-117.500
2.664,-30.500,-29.500,7.500,-118.000
2.665,-31.000,-30.500,7.000,-118.500
2.666,-32.000,-31.500,6.500,-119.000
2.667,-33.000,-32.500,5.500,-120.500
2.668,-34.000,-34.000,5.000,-121.500
2.669,-35.000,-35.500,5.500,-123.000
2.670,-36.000,-36.500,7.000,-125.000
2.671,-36.500,-37.500,9.500,-126.500
2.672,-37.500,-38.500,11.000,-128.000
2.673,-38.000,-39.500,11.500,-129.500
2.674,-39.000,-40.500,10.500,-131.500
2.675,-39.500,-41.000,8.500,-132.500
2.676,-40.000,-41.500,7.000,-134.000
2.677,-41.000,-42.000,6.000,-134.500
2.678,-41.500,-42.500,5.500,-135.000
2.679,-42.500,-42.500,5.000,-135.500
2.680,-43.000,-43.000,4.000,-135.500
2.681,-43.500,-43.500,2.500,-135.000
2.682,-44.500,-43.500,0.000,-134.500
2.683,-45.000,-44.000,-2.500,-134.000
2.684,-45.500,-44.000,-5.000,-133.000
2.685,-46.500,-44.000,-6.500,-131.500
2.686,-47.500,-44.000,-7.500,-129.500
2.687,-48.500,-44.500,-8.000,-127.500
2.688,-50.000,-45.000,-8.500,-125.000
2.689,-51.500,-45.500,-9.500,-122.500
2.690,-53.000,-46.000,-9.000,-119.000
2.691,-54.500,-46.000,-8.000,-115.500
2.692,-55.500,-45.500,-6.500,-112.000
2.693,-56.000,-45.000,-5.000,-108.000
2.694,-57.000,-44.500,-5.000,-105.000
2.695,-57.500,-44.000,-5.500,-101.500
2.696,-58.000,-43.500,-6.500,-98.500
2.697,-58.000,-43.500,-7.500,-95.500
2.698,-58.500,-43.000,-8.000,-93.500
2.699,-58.500,-42.500,-8.000,-91.500
2.700,-58.500,-42.000,-7.000,-89.500
2.701,-58.000,-41.000,-5.000,-88.000
2.702,-57.000,-40.500,-3.500,-87.000
2.703,-56.000,-39.000,-2.000,-86.000
2.704,-54.000,-38.000,-1.000,-85.000
2.705,-51.500,-36.500,-1.500,-84.500
2.706,-49.000,-35.000,-2.500,-84.500
2.707,-46.000,-33.000,-3.500,-85.000
2.708,-42.500,-31.000,-4.000,-85.500
2.709,-39.000,-29.000,-4.500,-86.500
2.710,-35.500,-27.000,-4.000,-88.000
2.711,-32.000,-25.000,-3.000,-89.500
2.712,-28.000,-22.500,-2.000,-91.000
2.713,-24.500,-20.500,-1.000,-91.500
2.714,-21.000,-18.000,-1.000,-92.000
2.715,-18.000,-15.500,-1.000,-92.500
2.716,-15.500,-13.500,0.500,-93.000
2.717,-14.500,-13.000,2.000,-94.000
2.718,-14.500,-13.000,2.500,-95.500
2.719,-15.500,-14.000,2.500,-98.000
2.720,-17.000,-16.000,2.000,-100.500
2.721,-19.000,-18.000,1.000,-103.500
2.722,-21.000,-20.000,0.000,-105.500
2.723,-22.500,-22.000,0.000,-107.500
2.724,-24.000,-23.500,1.000,-109.500
2.725,-25.500,-25.000,2.000,-111.000
2.726,-26.500,-26.000,2.500,-112.500
2.727,-27.000,-27.000,2.500,-113.500
2.728,-28.000,-28.000,2.000,-114.000
2.729,-28.500,-28.500,2.000,-114.500
2.730,-29.000,-29.000,2.500,-114.500
2.731,-29.000,-29.000,4.000,-114.500
2.732,-28.500,-28.500,5.000,-114.500
2.733,-28.500,-28.000,5.500,-114.500
2.734,-28.000,-27.500,5.500,-115.000
2.735,-27.500,-27.000,5.000,-115.000
2.736,-27.000,-26.500,4.500,-115.500
2.737,-27.000,-26.000,3.000,-115.500
2.738,-27.000,-26.000,2.000,-115.500
2.739,-26.500,-25.500,1.500,-115.000
2.740,-26.500,-25.500,1.500,-115.000
2.741,-26.500,-25.500,2.000,-115.000
2.742,-27.000,-25.500,3.000,-115.000
2.743,-27.500,-26.000,3.500,-115.000
2.744,-28.000,-26.500,3.000,-115.000
2.745,-28.000,-27.000,1.500,-115.000
2.746,-28.500,-27.500,0.500,-115.500
2.747,-28.500,-27.500,-0.500,-115.500
2.748,-28.500,-27.500,0.500,-115.500
2.749,-28.000,-28.000,2.500,-115.500
2.750,-28.000,-28.000,5.000,-116.000
2.751,-27.500,-28.000,7.000,-116.000
2.752,-27.500,-28.000,7.500,-116.000
2.753,-27.500,-28.500,6.000,-116.000
2.754,-27.500,-28.000,4.000,-116.000
2.755,-27.500,-28.000,2.500,-116.000
2.756,-27.000,-27.500,1.500,-116.000
2.757,-27.000,-27.000,1.000,-116.000
2.758,-27.000,-26.500,1.500,-115.500
2.759,-27.000,-26.500,1.000,-115.500
2.760,-27.000,-26.500,0.000,-115.500
2.761,-27.000,-26.500,-1.500,-115.500
2.762,-27.000,-26.500,-3.500,-115.500
2.763,-27.000,-27.000,-5.000,-115.500
2.764,-27.500,-27.500,-5.500,-115.500
2.765,-27.500,-27.500,-4.500,-115.500
2.766,-27.500,-28.000,-2.000,-115.500
2.767,-28.000,-28.500,0.000,-115.500
2.768,-28.000,-29.000,1.500,-115.500
2.769,-28.000,-29.000,2.500,-115.500
2.770,-27.500,-29.000,2.500,-115.500
2.771,-27.500,-29.000,2.500,-115.000
2.772,-27.000,-28.000,3.000,-115.000
2.773,-26.500,-27.500,4.000,-114.500
2.774,-26.500,-27.000,4.500,-114.500
2.775,-26.000,-26.500,4.500,-114.500
2.776,-26.000,-26.500,3.500,-114.000
2.777,-25.500,-26.000,2.500,-114.000
2.778,-25.500,-25.500,2.000,-113.500
2.779,-25.000,-25.500,1.500,-113.500
2.780,-25.000,-25.500,1.500,-113.500
2.781,-25.000,-25.500,1.000,-113.500
2.782,-25.000,-25.500,1.000,-113.500
2.783,-25.000,-26.000,1.500,-113.000
2.784,-25.500,-26.000,2.000,-113.000
2.785,-25.500,-26.000,2.000,-113.000
2.786,-25.500,-26.500,2.500,-113.000
2.787,-25.500,-27.000,3.000,-113.500
2.788,-25.500,-27.000,3.000,-113.500
2.789,-25.500,-27.000,3.500,-113.000
2.790,-25.000,-26.500,4.000,-113.000
2.791,-25.000,-26.000,4.500,-112.500
2.792,-24.500,-25.500,4.500,-112.500
2.793,-24.500,-25.000,4.000,-112.500
2.794,-24.500,-24.500,4.000,-112.000
2.795,-24.000,-24.000,4.000,-112.000
2.796,-24.000,-23.000,3.000,-112.000
2.797,-23.500,-22.500,1.000,-111.500
2.798,-23.500,-22.500,-0.500,-111.500
2.799,-23.500,-22.000,-0.500,-111.500
2.800,-23.500,-22.000,0.500,-111.500
2.801,-23.500,-22.500,2.000,-111.500
2.802,-23.500,-22.500,3.500,-112.000
2.803,-23.500,-23.000,5.500,-112.000
2.804,-23.500,-23.500,7.500,-112.000
2.805,-24.000,-23.500,9.000,-111.500
2.806,-24.500,-24.000,9.500,-111.500
2.807,-24.500,-24.500,9.000,-111.500
2.808,-25.000,-24.500,7.500,-111.500
2.809,-25.000,-24.500,5.500,-111.500
2.810,-25.000,-24.500,3.500,-112.000
2.811,-24.500,-24.500,2.500,-112.000
2.812,-24.000,-24.000,3.000,-111.500
2.813,-23.500,-24.000,3.500,-111.500
2.814,-23.000,-24.000,4.500,-111.500
2.815,-23.000,-23.500,5.000,-111.000
2.816,-22.500,-23.500,6.000,-111.000
2.817,-22.500,-23.000,6.500,-111.000
2.818,-22.500,-23.000,6.500,-110.500
2.819,-22.500,-22.500,6.000,-110.500
2.820,-22.500,-22.500,6.500,-110.500
2.821,-22.500,-22.500,6.500,-110.000
2.822,-22.000,-22.500,6.500,-110.000
2.823,-22.000,-22.500,7.000,-110.000
2.824,-22.500,-23.000,7.500,-109.500
2.825,-22.500,-23.000,8.500,-109.500
2.826,-22.500,-23.500,9.500,-109.500
2.827,-22.500,-23.500,10.000,-109.000
2.828,-22.500,-23.500,10.000,-109.000
2.829,-22.500,-23.500,9.500,-109.000
2.830,-22.500,-23.500,8.500,-109.000
2.831,-22.000,-23.500,7.000,-109.000
2.832,-21.500,-23.000,5.500,-109.000
2.833,-21.500,-22.500,4.000,-109.000
2.834,-21.000,-22.000,3.000,-109.000
2.835,-20.500,-21.500,2.500,-108.500
2.836,-20.000,-20.500,2.000,-108.500
2.837,-20.000,-20.000,2.000,-108.000
2.838,-19.500,-20.000,1.500,-108.000
2.839,-19.500,-19.500,1.000,-108.000
2.840,-19.500,-19.500,1.000,-108.000
2.841,-19.500,-19.500,1.000,-108.500
2.842,-19.500,-20.000,2.000,-108.500
2.843,-20.000,-20.000,3.500,-108.000
2.844,-20.000,-20.500,5.500,-108.000
2.845,-20.500,-20.500,7.000,-107.500
2.846,-20.500,-21.000,7.500,-107.000
2.847,-21.000,-21.000,6.500,-106.500
2.848,-21.000,-21.500,5.000,-106.500
2.849,-21.000,-21.500,4.500,-106.000
2.850,-20.500,-21.500,5.000,-106.000
2.851,-20.000,-21.500,5.000,-106.000
2.852,-20.000,-21.000,5.000,-106.000
2.853,-19.500,-21.000,4.500,-106.000
2.854,-19.500,-20.500,5.000,-106.000
2.855,-19.000,-20.000,5.000,-105.500
2.856,-19.000,-19.500,4.500,-105.500
2.857,-18.500,-19.000,4.000,-105.000
2.858,-18.500,-18.500,3.000,-105.000
2.859,-18.500,-18.000,3.000,-104.500
2.860,-18.500,-18.000,4.000,-104.500
2.861,-18.500,-18.000,5.000,-104.500
2.862,-18.500,-18.000,6.000,-105.000
2.863,-18.500,-18.000,7.000,-105.000
2.864,-19.000,-18.500,8.500,-105.000
2.865,-19.000,-18.500,9.000,-105.000
2.866,-19.500,-19.000,9.500,-105.000
2.867,-19.500,-19.500,9.500,-105.000
2.868,-19.500,-19.500,8.500,-105.000
2.869,-19.500,-19.500,8.000,-105.000
2.870,-19.500,-19.500,8.000,-104.500
2.871,-19.500,-19.000,8.500,-104.500
2.872,-19.500,-19.000,8.500,-104.500
2.873,-19.500,-18.500,8.000,-104.500
2.874,-19.500,-18.500,6.500,-104.500
2.875,-19.000,-18.000,5.500,-104.500
2.876,-19.000,-18.000,5.000,-104.000
2.877,-19.000,-18.000,4.500,-104.000
2.878,-19.000,-17.500,4.000,-104.000
2.879,-19.000,-17.500,2.500,-104.000
2.880,-19.000,-17.000,1.500,-103.500
2.881,-19.000,-17.000,0.500,-103.500
2.882,-19.500,-16.500,1.000,-103.500
2.883,-19.500,-17.000,2.000,-103.000
2.884,-20.000,-17.000,3.500,-103.000
2.885,-20.500,-17.500,5.500,-103.000
2.886,-21.000,-18.000,7.500,-103.000
2.887,-21.500,-18.500,9.000,-103.000
2.888,-21.500,-19.000,9.500,-103.000
2.889,-21.500,-19.000,9.500,-103.000
2.890,-21.500,-19.000,9.000,-102.500
2.891,-21.500,-18.500,9.000,-102.000
2.892,-21.000,-18.500,9.000,-102.000
2.893,-20.500,-18.000,8.500,-101.500
2.894,-20.500,-18.000,7.000,-101.500
2.895,-20.000,-17.500,5.000,-101.500
2.896,-20.000,-17.000,3.000,-101.000
2.897,-20.000,-16.500,1.500,-101.000
2.898,-19.500,-16.000,1.500,-101.000
2.899,-19.500,-15.500,2.000,-101.000
2.900,-19.500,-15.500,3.500,-100.500
2.901,-20.000,-16.000,5.500,-100.500
2.902,-20.000,-16.500,7.500,-100.000
2.903,-20.500,-17.000,9.000,-100.000
2.904,-20.500,-17.500,9.500,-100.000
2.905,-21.000,-18.000,10.500,-100.000
2.906,-21.000,-18.000,11.500,-100.000
2.907,-21.500,-18.500,13.000,-100.000
2.908,-21.500,-18.500,14.000,-99.500
2.909,-21.500,-19.000,14.000,-99.000
2.910,-21.500,-19.000,13.500,-98.500
2.911,-21.500,-19.000,12.500,-98.000
2.912,-21.500,-18.500,10.500,-98.000
2.913,-21.500,-18.500,8.500,-98.000
2.914,-21.000,-18.000,7.000,-97.500
2.915,-21.000,-18.000,6.500,-97.500
2.916,-21.000,-17.500,8.000,-97.500
2.917,-21.000,-17.500,10.500,-97.000
2.918,-20.500,-17.000,13.500,-97.000
2.919,-21.000,-17.000,16.000,-96.500
2.920,-21.000,-17.000,17.500,-96.500
2.921,-21.000,-17.000,17.500,-96.500
2.922,-21.500,-17.000,16.000,-96.000
2.923,-21.500,-17.000,14.500,-96.500
2.924,-21.500,-17.500,12.500,-96.500
2.925,-22.000,-17.500,11.500,-96.500
2.926,-22.000,-18.000,11.000,-97.000
2.927,-22.000,-18.500,11.000,-97.000
2.928,-22.000,-19.000,10.500,-97.500
2.929,-22.500,-19.500,9.000,-97.500
2.930,-22.500,-20.000,7.500,-97.500
2.931,-22.000,-20.000,6.000,-97.500
2.932,-21.500,-19.500,4.000,-97.500
2.933,-21.500,-19.000,2.500,-97.500
2.934,-21.000,-18.500,1.500,-97.500
2.935,-20.500,-18.000,1.500,-97.500
2.936,-20.500,-18.000,2.500,-98.000
2.937,-20.000,-17.500,4.000,-98.000
2.938,-20.000,-17.500,5.500,-98.500
2.939,-19.500,-17.500,7.500,-99.000
2.940,-19.500,-17.500,9.500,-99.000
2.941,-19.500,-17.500,10.500,-99.000
2.942,-19.500,-18.000,11.500,-99.500
2.943,-19.500,-18.000,11.500,-100.000
2.944,-20.000,-18.500,11.500,-100.000
2.945,-20.000,-19.000,11.500,-100.500
2.946,-20.500,-19.500,11.500,-100.500
2.947,-20.500,-20.000,11.000,-101.000
2.948,-20.500,-20.000,10.500,-101.500
2.949,-20.000,-20.500,9.500,-102.000
2.950,-19.500,-20.000,8.500,-102.000
2.951,-19.500,-20.000,8.000,-102.000
2.952,-19.000,-19.500,7.500,-102.000
2.953,-18.500,-19.000,8.000,-102.000
2.954,-18.000,-18.500,9.500,-102.500
2.955,-18.000,-18.500,11.000,-102.500
2.956,-17.500,-18.000,12.000,-103.000
2.957,-17.000,-17.500,11.000,-103.000
2.958,-17.000,-17.500,8.500,-103.000
2.959,-16.500,-17.500,6.000,-103.000
2.960,-16.500,-17.000,4.000,-103.000
2.961,-16.000,-17.000,3.000,-102.500
2.962,-16.000,-17.000,2.500,-102.500
2.963,-16.000,-17.000,2.500,-102.500
2.964,-16.000,-17.000,3.000,-102.500
2.965,-16.000,-17.000,3.500,-102.500
2.966,-15.500,-17.000,4.000,-102.500
2.967,-15.500,-17.000,5.000,-102.500
2.968,-15.500,-17.000,6.000,-102.500
2.969,-15.000,-16.500,7.000,-103.000
2.970,-15.000,-16.500,7.500,-102.500
2.971,-15.000,-16.000,8.000,-102.500
2.972,-14.500,-15.500,8.000,-102.500
2.973,-14.500,-15.000,6.500,-102.500
2.974,-14.000,-14.500,5.000,-102.000
2.975,-13.500,-14.000,4.000,-102.000
2.976,-13.000,-14.000,3.000,-102.000
2.977,-12.500,-13.500,2.500,-101.500
2.978,-12.000,-13.000,1.500,-101.500
2.979,-12.000,-13.000,0.500,-101.500
2.980,-11.500,-12.500,-0.500,-101.500
2.981,-11.500,-12.500,-1.000,-101.500
2.982,-11.500,-12.500,-1.000,-101.500
2.983,-12.000,-13.000,0.500,-101.500
2.984,-12.000,-13.500,1.500,-101.500
2.985,-12.500,-13.500,2.000,-101.500
2.986,-12.500,-14.000,2.000,-101.500
2.987,-12.500,-14.000,1.500,-101.500
2.988,-12.000,-14.000,0.500,-101.500
2.989,-12.000,-14.000,1.000,-101.500
2.990,-11.500,-14.000,1.500,-101.000
2.991,-11.500,-14.000,2.000,-101.000
2.992,-11.000,-13.500,2.500,-100.500
2.993,-10.500,-13.000,1.500,-100.500
2.994,-10.500,-12.500,0.000,-100.000
2.995,-10.000,-12.000,-2.000,-100.000
2.996,-9.500,-11.500,-3.500,-99.500
2.997,-9.000,-11.000,-4.500,-99.500
2.998,-9.000,-10.500,-5.000,-99.000
2.999,-8.500,-10.000,-5.000,-99.000
3.000,-8.500,-10.000,-5.000,-99.000
3.001,-9.000,-10.500,-5.000,-99.500
3.002,-9.000,-11.000,-5.500,-99.500
3.003,-9.500,-11.500,-5.500,-100.000
3.004,-9.500,-12.000,-4.000,-100.500
3.005,-10.000,-12.500,-1.500,-100.500
3.006,-10.500,-13.000,1.000,-100.500
3.007,-10.500,-13.500,3.000,-101.000
3.008,-10.500,-13.500,4.000,-101.000
3.009,-10.500,-13.500,5.000,-100.500
3.010,-10.500,-13.500,5.500,-100.500
3.011,-10.000,-13.500,5.500,-100.000
3.012,-10.000,-13.000,5.000,-100.000
3.013,-10.000,-12.500,4.000,-100.000
3.014,-9.500,-12.500,3.000,-99.500
3.015,-9.500,-12.000,2.500,-99.500
3.016,-9.000,-12.000,2.500,-99.500
3.017,-9.000,-11.500,4.500,-99.000
3.018,-8.500,-11.000,7.000,-99.000
3.019,-8.500,-11.000,9.500,-99.000
3.020,-8.500,-11.000,12.000,-99.500
3.021,-9.000,-11.000,12.500,-99.500
3.022,-9.000,-11.000,12.500,-99.500
3.023,-9.000,-11.500,12.000,-99.500
3.024,-9.000,-11.500,11.000,-99.000
3.025,-9.500,-11.500,9.500,-99.000
3.026,-9.500,-12.000,7.500,-99.000
3.027,-10.000,-12.000,5.500,-99.000
3.028,-10.000,-12.500,3.000,-99.000
3.029,-10.000,-12.500,0.500,-99.000
3.030,-10.000,-12.500,-1.000,-99.500
3.031,-9.500,-12.500,-0.500,-99.000
3.032,-9.500,-12.000,1.500,-99.000
3.033,-9.000,-11.500,3.000,-98.500
3.034,-9.000,-11.000,3.000,-98.500
3.035,-9.000,-11.000,2.500,-98.500
3.036,-9.000,-10.500,1.500,-98.500
3.037,-8.500,-10.000,1.000,-98.500
3.038,-8.500,-10.000,1.000,-98.500
3.039,-8.500,-10.000,1.500,-99.000
3.040,-8.500,-10.500,2.500,-99.000
3.041,-8.500,-10.500,2.500,-99.000
3.042,-8.500,-10.500,2.500,-99.000
3.043,-9.000,-11.000,2.000,-99.000
3.044,-9.500,-11.000,1.500,-99.500
3.045,-10.000,-11.500,2.500,-99.500
3.046,-10.500,-12.000,3.500,-99.500
3.047,-10.500,-13.000,5.500,-100.000
3.048,-10.500,-13.000,7.500,-100.000
3.049,-10.500,-13.500,9.500,-99.500
3.050,-10.500,-13.500,11.500,-99.500
3.051,-10.500,-13.500,12.500,-99.500
3.052,-10.500,-13.500,13.000,-99.500
3.053,-10.000,-13.000,13.500,-99.500
3.054,-10.000,-12.500,14.000,-99.000
3.055,-9.500,-12.500,14.000,-99.000
3.056,-9.500,-12.000,13.500,-99.000
3.057,-9.000,-11.500,13.000,-98.500
3.058,-9.000,-11.500,11.500,-98.500
3.059,-8.500,-11.000,11.000,-98.500
3.060,-8.500,-11.000,11.500,-98.500
3.061,-9.000,-11.500,12.500,-98.500
3.062,-9.000,-11.500,13.500,-98.500
3.063,-9.500,-12.000,15.000,-98.500
3.064,-9.500,-12.500,15.500,-98.500
3.065,-10.000,-13.000,16.500,-98.500
3.066,-10.000,-13.000,16.500,-98.500
3.067,-10.000,-13.000,15.500,-98.500
3.068,-10.000,-13.000,14.000,-98.500
3.069,-9.500,-13.000,12.500,-99.000
3.070,-9.500,-12.500,12.500,-99.000
3.071,-9.500,-12.000,14.500,-99.000
3.072,-9.000,-11.500,16.000,-99.000
3.073,-9.000,-10.500,16.500,-99.000
3.074,-8.500,-10.000,16.500,-98.500
3.075,-8.000,-9.500,16.000,-98.500
3.076,-8.000,-9.000,15.500,-98.500
3.077,-8.000,-9.000,15.000,-98.500
3.078,-8.000,-8.500,13.000,-98.500
3.079,-8.000,-8.500,10.500,-98.500
3.080,-8.500,-8.500,8.000,-98.500
3.081,-8.500,-9.000,6.500,-98.500
3.082,-9.000,-9.500,6.500,-98.500
3.083,-9.500,-10.000,7.500,-99.000
3.084,-10.000,-11.000,8.500,-99.000
3.085,-10.500,-11.500,9.500,-99.500
3.086,-11.000,-12.000,10.000,-99.500
3.087,-11.500,-12.000,10.000,-100.000
3.088,-12.000,-12.500,9.500,-100.000
3.089,-12.000,-12.000,9.000,-99.500
3.090,-11.500,-12.000,9.000,-99.500
3.091,-11.500,-12.000,10.000,-99.500
3.092,-11.000,-12.000,11.000,-99.500
3.093,-11.000,-11.500,12.500,-99.500
3.094,-10.500,-11.500,13.500,-100.000
3.095,-10.500,-11.500,14.000,-100.000
3.096,-10.500,-11.000,14.000,-100.000
3.097,-10.500,-11.000,13.500,-100.000
3.098,-10.500,-10.500,11.500,-100.000
3.099,-10.000,-10.500,9.000,-100.000
3.100,-10.500,-10.500,6.000,-99.500
3.101,-10.500,-10.500,3.500,-99.500
3.102,-10.500,-10.500,2.500,-99.500
3.103,-11.000,-11.000,3.000,-99.500
3.104,-11.000,-11.500,6.000,-99.500
3.105,-11.500,-11.500,9.500,-100.000
3.106,-11.500,-12.000,13.000,-100.000
3.107,-12.000,-12.500,14.500,-100.000
3.108,-12.000,-13.000,14.500,-100.500
3.109,-12.000,-13.000,13.500,-100.500
3.110,-11.500,-13.000,13.500,-100.500
3.111,-11.500,-13.000,13.500,-100.500
3.112,-11.500,-12.500,13.500,-100.500
3.113,-11.000,-12.500,13.000,-100.500
3.114,-11.000,-12.000,12.500,-100.000
3.115,-10.500,-11.500,12.500,-100.000
3.116,-10.000,-10.500,13.500,-100.000
3.117,-9.500,-10.000,15.000,-99.500
3.118,-9.000,-10.000,16.500,-99.500
3.119,-9.000,-10.000,16.500,-99.500
3.120,-9.000,-10.000,16.000,-99.500
3.121,-9.500,-10.500,15.000,-99.500
3.122,-9.500,-11.000,14.000,-100.000
3.123,-10.000,-11.500,14.500,-100.500
3.124,-10.500,-12.000,15.500,-100.500
3.125,-11.000,-12.500,16.000,-101.000
3.126,-12.000,-13.500,15.500,-101.500
3.127,-13.000,-14.500,13.500,-102.000
3.128,-14.000,-15.500,11.000,-102.500
3.129,-14.500,-17.000,8.500,-103.500
3.130,-15.500,-18.000,7.500,-104.500
3.131,-16.000,-19.000,8.000,-105.000
3.132,-16.500,-19.500,9.500,-106.000
3.133,-17.000,-20.000,10.500,-106.500
3.134,-17.000,-20.000,10.500,-107.000
3.135,-17.000,-19.500,10.000,-107.000
3.136,-16.500,-19.500,9.000,-107.000
3.137,-16.500,-19.000,7.000,-106.500
3.138,-16.000,-18.000,4.500,-106.500
3.139,-15.500,-17.500,2.000,-106.000
3.140,-15.000,-17.000,0.000,-105.000
3.141,-15.000,-17.000,-0.500,-104.500
3.142,-14.500,-16.500,-0.500,-104.000
3.143,-14.000,-16.500,0.000,-103.000
3.144,-13.500,-16.000,1.000,-102.500
3.145,-13.000,-15.500,2.000,-102.000
3.146,-12.500,-15.500,3.000,-101.000
3.147,-12.500,-15.500,3.000,-101.000
3.148,-12.000,-15.500,2.000,-101.000
3.149,-12.000,-15.500,0.500,-101.000
3.150,-11.500,-16.000,-1.500,-101.000
3.151,-11.500,-16.000,-3.500,-101.000
3.152,-11.500,-16.000,-4.000,-100.500
3.153,-11.500,-15.500,-3.000,-100.500
3.154,-11.500,-15.500,-2.000,-100.500
3.155,-11.000,-15.000,0.500,-100.500
3.156,-11.000,-15.000,2.000,-100.500
3.157,-10.500,-15.000,2.000,-101.000
3.158,-10.500,-14.500,0.000,-101.000
3.159,-10.500,-14.500,-2.500,-101.000
3.160,-10.500,-14.000,-4.500,-101.000
3.161,-10.500,-14.000,-6.000,-101.500
3.162,-11.000,-14.000,-6.000,-101.500
3.163,-11.000,-14.000,-5.500,-101.500
3.164,-11.500,-14.500,-6.000,-101.500
3.165,-12.000,-15.000,-7.000,-101.500
3.166,-12.500,-15.500,-7.500,-101.500
3.167,-13.000,-16.000,-7.500,-102.000
3.168,-13.000,-16.500,-7.000,-102.000
3.169,-13.000,-16.500,-6.000,-102.000
3.170,-12.500,-16.500,-5.000,-102.500
3.171,-12.500,-16.500,-4.000,-102.000
3.172,-12.500,-16.000,-2.500,-102.000
3.173,-12.500,-16.000,-2.000,-102.000
3.174,-12.500,-15.500,-2.500,-102.000
3.175,-12.500,-15.500,-2.500,-102.000
3.176,-12.500,-15.000,-2.500,-102.000
3.177,-12.500,-15.000,-2.500,-102.000
3.178,-12.500,-15.500,-2.000,-102.000
3.179,-13.000,-15.500,-0.500,-102.000
3.180,-13.000,-16.000,2.500,-102.000
3.181,-13.500,-16.000,5.500,-102.500
3.182,-13.500,-16.000,7.500,-102.500
3.183,-14.000,-16.500,9.000,-102.500
3.184,-14.000,-17.000,9.500,-103.000
3.185,-14.500,-17.000,9.500,-103.000
3.186,-14.500,-17.500,9.500,-103.000
3.187,-15.000,-17.500,8.500,-103.000
3.188,-15.000,-18.000,7.500,-103.000
3.189,-14.500,-18.000,6.000,-103.000
3.190,-14.500,-18.500,4.500,-103.000
3.191,-14.500,-18.000,3.000,-103.500
3.192,-14.000,-18.000,1.500,-103.500
3.193,-14.000,-17.500,-0.500,-103.500
3.194,-14.000,-17.000,-1.500,-103.000
3.195,-13.500,-16.500,-3.000,-103.000
3.196,-13.500,-16.000,-4.500,-102.500
3.197,-13.000,-15.500,-5.500,-102.000
3.198,-13.000,-15.000,-5.500,-102.000
3.199,-13.000,-15.000,-5.000,-102.000
3.200,-13.000,-15.000,-4.500,-102.000
3.201,-13.000,-15.000,-4.500,-102.500
3.202,-13.000,-15.500,-4.500,-102.500
3.203,-13.500,-15.500,-5.000,-103.000
3.204,-14.000,-16.000,-5.500,-103.000
3.205,-14.000,-17.000,-6.000,-103.500
3.206,-14.500,-17.500,-5.500,-103.500
3.207,-14.500,-18.000,-4.000,-103.500
3.208,-15.000,-18.500,-2.000,-103.500
3.209,-15.000,-18.500,0.500,-104.000
3.210,-15.000,-19.000,2.000,-104.000
3.211,-15.000,-19.000,2.500,-104.000
3.212,-15.000,-19.000,1.500,-104.000
3.213,-14.500,-18.500,-0.500,-103.500
3.214,-14.500,-18.500,-3.000,-103.500
3.215,-14.000,-18.000,-5.500,-103.500
3.216,-14.000,-17.500,-8.000,-103.000
3.217,-14.000,-17.000,-9.000,-103.000
3.218,-14.000,-17.000,-9.000,-103.000
3.219,-14.000,-17.000,-8.500,-103.000
3.220,-14.000,-17.000,-8.500,-103.500
3.221,-14.000,-17.000,-8.000,-103.500
3.222,-14.000,-17.500,-7.000,-104.000
3.223,-14.500,-18.000,-5.500,-104.000
3.224,-15.000,-18.500,-3.500,-104.500
3.225,-15.500,-19.000,-1.500,-104.500
3.226,-16.000,-19.500,0.500,-104.500
3.227,-16.500,-19.500,1.000,-105.000
3.228,-16.500,-19.500,0.500,-105.000
3.229,-16.500,-19.500,-1.500,-105.000
3.230,-16.500,-19.500,-4.000,-105.000
3.231,-16.500,-19.500,-6.500,-105.000
3.232,-16.500,-19.500,-9.000,-105.000
3.233,-16.500,-19.500,-9.500,-105.000
3.234,-16.000,-19.500,-9.500,-105.000
3.235,-16.000,-19.500,-8.000,-105.000
3.236,-16.000,-19.000,-6.000,-105.000
3.237,-16.000,-19.000,-4.500,-105.000
3.238,-15.500,-18.500,-3.000,-105.000
3.239,-15.500,-18.500,-1.500,-105.000
3.240,-15.500,-18.500,-0.500,-105.000
3.241,-16.000,-18.500,-1.000,-105.000
3.242,-16.000,-18.500,-2.500,-105.000
3.243,-16.000,-19.000,-4.000,-105.000
3.244,-16.500,-19.000,-4.500,-105.000
3.245,-17.000,-20.000,-3.500,-105.000
3.246,-17.500,-20.500,-1.500,-105.000
3.247,-17.500,-21.000,-0.500,-105.000
3.248,-18.000,-21.500,0.000,-105.000
3.249,-18.000,-22.000,0.000,-105.000
3.250,-18.000,-22.000,0.000,-105.000
3.251,-18.000,-22.000,1.000,-105.000
