'Elapsed time','AECG1','AECG2','AECG3','AECG4'
'seconds','uV','uV','uV','uV'
0.000,-24.000,-15.500,-58.000,-59.500
0.001,-24.000,-15.500,-58.000,-59.500
0.002,-24.500,-16.000,-58.500,-59.500
0.003,-25.000,-16.000,-58.500,-60.000
0.004,-25.000,-16.000,-58.500,-60.000
0.005,-25.000,-16.500,-59.000,-60.000
0.006,-25.500,-16.500,-59.000,-60.500
0.007,-25.500,-17.000,-59.000,-61.000
0.008,-26.000,-17.500,-59.500,-61.000
0.009,-26.500,-18.000,-60.000,-61.500
0.010,-27.000,-18.000,-60.500,-62.000
0.011,-27.000,-18.500,-61.000,-62.000
0.012,-27.500,-19.000,-61.500,-62.500
0.013,-27.500,-19.000,-61.500,-62.500
0.014,-28.000,-19.500,-62.000,-63.000
0.015,-28.000,-19.500,-62.500,-63.500
0.016,-28.000,-19.500,-62.500,-64.000
0.017,-28.000,-19.500,-63.000,-64.500
0.018,-28.000,-19.500,-63.000,-64.500
0.019,-28.000,-19.500,-62.500,-64.500
0.020,-28.000,-19.500,-62.500,-64.500
0.021,-28.000,-19.500,-62.500,-64.500
0.022,-28.000,-19.500,-62.500,-65.000
0.023,-28.000,-19.500,-62.500,-64.500
0.024,-28.500,-19.500,-62.500,-64.500
0.025,-28.500,-19.500,-62.500,-64.500
0.026,-28.500,-19.500,-62.500,-65.000
0.027,-29.000,-20.000,-62.500,-65.000
0.028,-29.500,-20.000,-62.500,-65.000
0.029,-29.500,-20.000,-63.000,-65.500
0.030,-30.000,-20.500,-63.500,-65.500
0.031,-30.000,-20.500,-64.000,-66.000
0.032,-30.500,-21.000,-65.000,-66.500
0.033,-30.500,-21.000,-65.000,-67.000
0.034,-31.000,-21.500,-65.500,-67.000
0.035,-31.000,-21.500,-66.000,-67.500
0.036,-31.000,-21.500,-66.000,-67.500
0.037,-31.000,-21.500,-66.000,-67.000
0.038,-31.000,-21.000,-65.500,-67.000
0.039,-30.500,-20.500,-65.500,-67.000
0.040,-30.500,-20.500,-65.000,-66.500
0.041,-30.000,-20.000,-65.000,-66.500
0.042,-30.000,-20.000,-64.500,-66.500
0.043,-30.000,-20.000,-64.500,-66.000
0.044,-30.000,-20.000,-64.000,-66.000
0.045,-30.500,-20.500,-64.000,-66.000
0.046,-30.500,-20.500,-64.500,-66.000
0.047,-31.000,-21.000,-64.500,-66.000
0.048,-31.500,-21.500,-65.500,-66.500
0.049,-32.000,-22.000,-66.000,-67.000
0.050,-32.500,-22.000,-66.000,-67.500
0.051,-33.000,-22.500,-66.500,-67.500
0.052,-33.500,-22.500,-66.500,-68.000
0.053,-34.000,-22.500,-67.000,-68.000
0.054,-34.000,-22.500,-67.500,-68.500
0.055,-34.500,-22.500,-68.000,-69.000
0.056,-34.500,-23.000,-68.000,-69.500
0.057,-35.000,-23.000,-68.500,-69.500
0.058,-35.000,-23.000,-69.000,-69.500
0.059,-35.500,-23.000,-69.000,-69.500
0.060,-35.500,-23.500,-69.000,-69.500
0.061,-35.500,-23.500,-69.000,-69.500
0.062,-35.500,-23.500,-69.000,-69.000
0.063,-35.500,-23.500,-69.000,-69.500
0.064,-35.500,-23.500,-68.500,-69.500
0.065,-36.000,-23.000,-68.500,-69.500
0.066,-36.000,-23.000,-68.500,-69.000
0.067,-36.000,-22.500,-68.500,-69.000
0.068,-36.000,-22.500,-68.500,-69.500
0.069,-36.000,-22.500,-69.000,-69.500
0.070,-36.500,-22.500,-69.000,-69.500
0.071,-36.500,-23.000,-69.500,-69.500
0.072,-37.000,-23.500,-69.500,-70.000
0.073,-37.000,-23.500,-70.000,-70.500
0.074,-37.500,-24.000,-70.500,-70.500
0.075,-37.500,-24.500,-71.000,-71.000
0.076,-38.000,-24.500,-71.500,-71.500
0.077,-38.000,-25.000,-71.500,-72.000
0.078,-38.500,-25.500,-72.000,-72.000
0.079,-38.000,-25.500,-72.000,-72.000
0.080,-38.000,-25.000,-72.000,-72.000
0.081,-38.000,-25.000,-72.000,-71.500
0.082,-38.000,-25.000,-72.000,-71.500
0.083,-38.000,-24.500,-71.500,-71.500
0.084,-38.500,-24.500,-71.500,-71.000
0.085,-38.500,-24.500,-71.500,-71.000
0.086,-38.500,-24.500,-72.000,-71.500
0.087,-39.000,-25.000,-72.000,-72.000
0.088,-39.000,-25.000,-72.000,-72.000
0.089,-39.500,-25.000,-72.500,-72.500
0.090,-39.500,-25.500,-73.000,-72.500
0.091,-40.000,-25.500,-73.500,-72.500
0.092,-40.000,-26.000,-74.000,-72.500
0.093,-40.500,-26.000,-74.000,-73.000
0.094,-40.500,-26.500,-74.500,-73.000
0.095,-40.500,-26.500,-74.500,-73.500
0.096,-40.500,-26.500,-74.500,-73.500
0.097,-40.500,-26.500,-74.500,-74.000
0.098,-40.000,-26.500,-74.500,-74.000
0.099,-40.000,-26.500,-74.500,-74.000
0.100,-40.000,-26.000,-74.500,-73.500
0.101,-39.500,-26.000,-74.000,-73.500
0.102,-39.000,-25.000,-73.500,-73.000
0.103,-38.500,-24.500,-73.000,-72.500
0.104,-38.500,-24.000,-73.000,-72.500
0.105,-38.500,-23.500,-72.500,-72.000
0.106,-38.500,-23.500,-72.500,-72.500
0.107,-39.000,-23.500,-72.500,-72.500
0.108,-39.500,-24.000,-73.000,-73.000
0.109,-40.500,-25.000,-74.000,-73.500
0.110,-41.500,-25.500,-75.000,-74.500
0.111,-42.500,-27.000,-76.000,-75.000
0.112,-43.500,-28.000,-77.000,-76.000
0.113,-45.000,-30.000,-79.000,-77.000
0.114,-47.000,-32.500,-81.000,-78.000
0.115,-49.000,-35.000,-83.500,-79.500
0.116,-51.500,-38.500,-86.500,-81.000
0.117,-54.000,-42.000,-89.000,-83.000
0.118,-56.000,-45.000,-91.500,-84.000
0.119,-57.500,-47.000,-93.500,-85.000
0.120,-59.000,-48.500,-94.500,-85.000
0.121,-59.500,-49.500,-95.000,-85.500
0.122,-59.500,-49.000,-94.500,-85.000
0.123,-59.000,-48.000,-93.500,-84.500
0.124,-57.500,-46.000,-92.000,-83.500
0.125,-56.000,-43.500,-89.500,-82.000
0.126,-53.000,-40.000,-87.000,-80.500
0.127,-50.000,-36.000,-83.500,-78.500
0.128,-46.500,-31.500,-80.000,-76.000
0.129,-43.000,-27.000,-77.000,-74.500
0.130,-40.000,-23.500,-74.000,-72.500
0.131,-38.000,-20.500,-72.000,-71.000
0.132,-36.500,-19.000,-70.500,-70.000
0.133,-35.500,-18.000,-69.500,-69.500
0.134,-35.000,-18.000,-69.500,-70.000
0.135,-35.500,-19.000,-70.000,-70.500
0.136,-36.500,-20.500,-71.000,-71.500
0.137,-37.500,-22.000,-72.000,-72.000
0.138,-39.000,-23.500,-73.500,-73.000
0.139,-40.500,-25.000,-75.000,-73.500
0.140,-42.000,-26.500,-76.000,-74.000
0.141,-43.000,-27.500,-77.000,-74.500
0.142,-43.500,-28.500,-77.500,-75.000
0.143,-44.000,-29.000,-78.000,-75.500
0.144,-44.500,-29.000,-78.000,-75.500
0.145,-45.000,-29.500,-78.000,-75.500
0.146,-45.000,-29.500,-78.000,-75.500
0.147,-45.000,-29.500,-78.000,-75.000
0.148,-45.000,-29.500,-78.000,-75.000
0.149,-45.000,-30.000,-78.500,-75.000
0.150,-45.000,-30.000,-78.500,-75.500
0.151,-45.500,-30.000,-78.500,-76.000
0.152,-45.500,-30.500,-78.500,-76.000
0.153,-45.500,-30.500,-79.000,-76.500
0.154,-45.500,-31.000,-79.000,-76.500
0.155,-45.500,-31.000,-79.000,-76.500
0.156,-45.000,-31.000,-79.500,-76.500
0.157,-45.000,-31.000,-79.500,-76.500
0.158,-45.000,-31.000,-79.500,-76.500
0.159,-45.000,-31.000,-79.500,-76.000
0.160,-45.000,-31.000,-79.500,-75.500
0.161,-45.000,-30.500,-79.000,-75.500
0.162,-45.000,-30.500,-79.000,-75.500
0.163,-45.500,-30.500,-78.500,-75.500
0.164,-45.500,-30.500,-78.500,-75.000
0.165,-45.500,-30.500,-78.500,-75.000
0.166,-46.000,-30.500,-78.500,-75.000
0.167,-46.000,-30.500,-78.500,-74.500
0.168,-46.000,-30.500,-78.500,-74.500
0.169,-46.000,-30.500,-78.500,-74.500
0.170,-46.000,-31.000,-79.000,-74.500
0.171,-46.000,-31.000,-79.000,-74.500
0.172,-46.500,-31.500,-79.000,-75.000
0.173,-46.500,-31.500,-79.000,-75.000
0.174,-46.500,-32.000,-79.000,-75.000
0.175,-46.500,-32.000,-79.000,-75.000
0.176,-46.500,-31.500,-79.000,-75.000
0.177,-46.500,-31.500,-79.000,-75.000
0.178,-46.500,-31.000,-79.000,-74.500
0.179,-46.500,-30.500,-79.000,-74.500
0.180,-46.500,-30.000,-79.000,-74.000
0.181,-46.500,-29.500,-78.500,-74.000
0.182,-46.500,-29.500,-78.500,-74.000
0.183,-46.500,-29.500,-78.500,-73.500
0.184,-46.500,-29.000,-78.000,-73.500
0.185,-46.500,-29.000,-78.500,-73.500
0.186,-46.500,-29.000,-78.500,-73.000
0.187,-46.500,-29.000,-78.500,-73.000
0.188,-46.500,-29.000,-78.500,-73.000
0.189,-46.500,-29.500,-79.000,-73.500
0.190,-47.000,-30.000,-79.000,-73.500
0.191,-47.000,-30.500,-79.500,-73.500
0.192,-47.500,-31.000,-80.000,-73.500
0.193,-47.500,-31.000,-80.500,-74.000
0.194,-47.500,-31.000,-80.500,-74.000
0.195,-47.500,-31.500,-81.000,-74.500
0.196,-47.500,-31.500,-81.000,-74.500
0.197,-47.500,-31.500,-81.000,-74.500
0.198,-47.000,-31.500,-80.500,-75.000
0.199,-47.000,-31.000,-80.500,-74.500
0.200,-47.000,-31.000,-80.500,-74.500
0.201,-46.500,-30.500,-80.500,-74.000
0.202,-46.500,-30.000,-80.000,-74.000
0.203,-46.500,-30.000,-80.000,-74.000
0.204,-46.500,-30.000,-80.000,-74.000
0.205,-46.500,-30.000,-80.000,-74.000
0.206,-47.000,-30.000,-80.000,-74.000
0.207,-47.000,-30.000,-80.500,-74.500
0.208,-47.500,-30.000,-80.500,-75.000
0.209,-47.500,-30.500,-81.000,-75.000
0.210,-48.000,-31.000,-81.500,-75.500
0.211,-48.500,-31.500,-81.500,-76.000
0.212,-48.500,-32.000,-82.000,-76.500
0.213,-48.500,-32.500,-82.500,-77.500
0.214,-49.000,-33.000,-83.000,-78.000
0.215,-49.000,-33.500,-83.500,-78.500
0.216,-49.000,-33.500,-84.000,-79.000
0.217,-49.000,-34.000,-84.000,-79.500
0.218,-49.000,-34.500,-84.000,-79.500
0.219,-49.000,-34.500,-84.500,-79.500
0.220,-49.500,-34.500,-84.500,-79.500
0.221,-49.500,-34.500,-84.500,-79.500
0.222,-49.500,-34.500,-84.500,-79.500
0.223,-49.500,-34.000,-84.500,-79.500
0.224,-50.000,-34.000,-85.000,-79.500
0.225,-50.000,-34.500,-85.000,-79.500
0.226,-50.000,-34.500,-85.000,-79.500
0.227,-50.500,-35.000,-85.500,-79.500
0.228,-50.500,-35.500,-86.000,-80.000
0.229,-51.000,-36.000,-86.500,-80.500
0.230,-51.500,-36.500,-87.000,-81.000
0.231,-51.500,-37.000,-87.500,-82.000
0.232,-51.500,-37.000,-88.000,-82.500
0.233,-51.500,-37.500,-88.000,-83.000
0.234,-51.500,-37.500,-88.500,-83.000
0.235,-51.500,-37.500,-88.500,-83.500
0.236,-51.500,-38.000,-88.500,-83.500
0.237,-51.500,-38.000,-89.000,-83.500
0.238,-51.500,-38.000,-89.000,-83.500
0.239,-51.500,-37.500,-89.000,-83.000
0.240,-51.500,-37.500,-88.500,-83.000
0.241,-51.500,-37.500,-88.500,-83.000
0.242,-51.500,-37.000,-88.000,-83.000
0.243,-51.000,-37.000,-88.000,-83.000
0.244,-51.000,-37.000,-88.000,-83.000
0.245,-51.000,-37.000,-88.000,-83.000
0.246,-51.000,-36.500,-88.000,-82.500
0.247,-51.000,-36.000,-88.000,-82.500
0.248,-51.000,-36.000,-88.000,-82.500
0.249,-50.500,-36.000,-88.000,-82.500
0.250,-50.500,-36.500,-88.000,-82.500
0.251,-50.500,-36.500,-88.000,-82.500
0.252,-50.500,-36.500,-88.000,-82.500
0.253,-51.000,-36.500,-88.000,-83.000
0.254,-51.000,-36.500,-88.000,-83.000
0.255,-50.500,-36.500,-88.000,-83.000
0.256,-50.500,-36.500,-88.000,-83.000
0.257,-50.500,-36.500,-88.000,-83.000
0.258,-50.000,-36.000,-88.000,-83.000
0.259,-50.000,-36.000,-87.500,-83.000
0.260,-49.500,-35.500,-87.500,-83.000
0.261,-49.000,-35.000,-87.000,-82.500
0.262,-49.000,-35.000,-86.500,-82.500
0.263,-48.500,-34.500,-86.000,-82.000
0.264,-48.500,-34.500,-86.000,-82.000
0.265,-48.000,-34.500,-85.500,-81.500
0.266,-48.000,-34.500,-85.500,-81.500
0.267,-48.000,-34.000,-85.000,-81.500
0.268,-48.000,-34.000,-85.000,-81.500
0.269,-48.000,-34.000,-85.000,-82.000
0.270,-48.000,-34.000,-85.500,-82.000
0.271,-47.500,-34.000,-85.500,-82.000
0.272,-47.500,-34.000,-85.500,-82.000
0.273,-47.000,-34.000,-85.500,-82.000
0.274,-47.000,-34.000,-85.500,-82.000
0.275,-47.000,-34.000,-85.500,-81.500
0.276,-47.000,-34.000,-85.500,-81.500
0.277,-46.500,-34.000,-85.500,-81.500
0.278,-46.500,-33.500,-85.000,-81.000
0.279,-46.000,-33.500,-85.000,-81.000
0.280,-45.500,-33.000,-85.000,-80.500
0.281,-45.500,-32.500,-84.500,-80.500
0.282,-45.500,-32.500,-84.500,-80.500
0.283,-45.500,-32.000,-84.000,-80.000
0.284,-45.500,-31.500,-83.500,-80.000
0.285,-45.500,-31.500,-83.500,-80.000
0.286,-45.500,-31.000,-83.500,-79.500
0.287,-45.500,-31.000,-83.500,-79.500
0.288,-46.000,-31.500,-83.500,-80.000
0.289,-46.000,-31.500,-83.500,-80.000
0.290,-46.500,-32.000,-84.000,-80.500
0.291,-46.500,-32.000,-84.000,-80.500
0.292,-46.500,-32.000,-84.500,-81.000
0.293,-46.500,-32.000,-84.500,-81.000
0.294,-46.500,-32.000,-85.000,-81.000
0.295,-46.500,-32.000,-85.000,-81.000
0.296,-46.000,-32.000,-85.000,-81.000
0.297,-46.000,-32.000,-85.000,-81.000
0.298,-46.000,-32.000,-84.500,-80.500
0.299,-45.500,-31.500,-84.500,-80.500
0.300,-45.500,-31.500,-84.500,-80.000
0.301,-45.500,-31.500,-84.000,-79.500
0.302,-45.500,-31.500,-84.000,-79.500
0.303,-45.000,-31.000,-83.500,-79.500
0.304,-45.000,-31.000,-83.000,-79.500
0.305,-45.000,-31.000,-83.000,-79.000
0.306,-45.000,-31.000,-83.000,-79.000
0.307,-45.000,-31.000,-83.000,-79.000
0.308,-45.000,-31.000,-83.000,-79.500
0.309,-45.500,-31.500,-83.500,-79.500
0.310,-45.500,-32.000,-83.500,-80.000
0.311,-45.500,-32.000,-83.500,-80.000
0.312,-45.000,-32.500,-84.000,-80.500
0.313,-45.000,-32.500,-84.000,-80.500
0.314,-45.000,-32.500,-84.000,-80.500
0.315,-44.500,-32.500,-84.500,-80.500
0.316,-44.500,-32.500,-84.000,-80.500
0.317,-44.500,-32.000,-84.000,-80.000
0.318,-44.000,-32.000,-84.000,-80.000
0.319,-44.000,-31.500,-83.500,-79.500
0.320,-44.000,-31.500,-83.500,-79.500
0.321,-44.000,-31.000,-83.000,-79.000
0.322,-44.000,-31.000,-82.500,-78.500
0.323,-43.500,-30.500,-82.000,-78.000
0.324,-43.500,-30.000,-82.000,-78.000
0.325,-43.500,-30.000,-82.000,-77.500
0.326,-43.500,-30.000,-81.500,-77.500
0.327,-44.000,-30.000,-81.500,-77.500
0.328,-44.000,-30.500,-81.500,-77.500
0.329,-44.000,-30.500,-81.500,-77.500
0.330,-44.000,-30.500,-82.000,-77.500
0.331,-44.000,-31.000,-82.000,-78.000
0.332,-44.000,-31.500,-82.500,-78.000
0.333,-44.000,-31.500,-82.500,-78.500
0.334,-44.000,-32.000,-83.000,-78.500
0.335,-43.500,-32.000,-83.000,-79.000
0.336,-43.500,-32.000,-83.000,-79.000
0.337,-43.500,-32.000,-83.000,-79.000
0.338,-43.500,-32.000,-83.000,-79.000
0.339,-43.500,-32.000,-83.000,-79.000
0.340,-43.500,-31.500,-82.500,-78.500
0.341,-43.000,-31.500,-82.000,-78.000
0.342,-43.000,-31.000,-82.000,-78.000
0.343,-42.500,-30.500,-81.500,-78.000
0.344,-42.500,-30.000,-81.500,-77.500
0.345,-42.500,-30.000,-81.500,-77.500
0.346,-42.500,-30.000,-81.500,-77.500
0.347,-42.500,-30.000,-81.500,-77.500
0.348,-42.500,-30.000,-81.500,-78.000
0.349,-43.000,-30.000,-82.000,-78.000
0.350,-43.000,-30.500,-82.000,-78.500
0.351,-43.000,-31.000,-82.500,-79.000
0.352,-43.000,-31.000,-82.500,-79.000
0.353,-43.000,-31.500,-82.500,-79.500
0.354,-43.000,-31.500,-82.500,-79.500
0.355,-43.000,-31.500,-82.500,-79.500
0.356,-43.000,-31.500,-82.500,-79.000
0.357,-43.500,-31.500,-82.500,-79.000
0.358,-43.500,-31.500,-82.500,-79.000
0.359,-43.500,-31.500,-82.500,-78.500
0.360,-43.500,-31.000,-82.500,-78.500
0.361,-43.500,-31.000,-82.500,-78.000
0.362,-43.500,-31.000,-82.500,-78.000
0.363,-43.000,-30.500,-82.000,-78.000
0.364,-43.000,-30.500,-82.000,-78.000
0.365,-43.000,-30.500,-82.000,-78.000
0.366,-43.000,-30.500,-82.000,-78.000
0.367,-43.000,-30.500,-82.000,-78.000
0.368,-43.500,-30.500,-82.000,-78.000
0.369,-43.500,-31.000,-82.000,-78.000
0.370,-43.500,-31.000,-82.000,-78.000
0.371,-44.000,-31.000,-82.000,-78.000
0.372,-44.000,-31.000,-82.500,-78.000
0.373,-44.500,-31.500,-83.000,-78.500
0.374,-44.500,-31.500,-83.500,-79.000
0.375,-45.000,-32.000,-84.000,-79.000
0.376,-45.000,-32.000,-84.000,-79.000
0.377,-44.500,-32.500,-84.000,-79.000
0.378,-44.500,-32.500,-84.000,-79.000
0.379,-44.500,-32.000,-84.000,-79.000
0.380,-44.500,-32.000,-83.500,-79.000
0.381,-44.000,-32.000,-83.500,-79.000
0.382,-44.500,-32.000,-83.500,-79.000
0.383,-44.500,-31.500,-83.000,-79.000
0.384,-44.500,-31.500,-83.000,-78.500
0.385,-44.000,-31.500,-82.500,-78.500
0.386,-44.000,-31.000,-82.500,-78.000
0.387,-44.000,-31.000,-82.500,-78.000
0.388,-44.500,-31.000,-82.500,-78.000
0.389,-44.500,-31.000,-82.500,-78.000
0.390,-44.500,-31.500,-82.500,-78.000
0.391,-45.000,-31.500,-83.000,-78.500
0.392,-45.000,-31.500,-83.000,-78.500
0.393,-45.000,-31.500,-83.000,-79.000
0.394,-45.000,-31.500,-83.000,-79.000
0.395,-45.000,-31.500,-83.000,-79.000
0.396,-44.500,-31.000,-83.000,-79.000
0.397,-44.500,-31.000,-83.000,-78.500
0.398,-44.500,-31.000,-83.000,-78.500
0.399,-44.500,-30.500,-82.500,-78.000
0.400,-44.500,-30.500,-82.000,-78.000
0.401,-44.000,-30.000,-82.000,-78.000
0.402,-44.000,-29.500,-82.000,-77.500
0.403,-43.500,-29.500,-81.500,-77.500
0.404,-43.500,-29.000,-81.500,-77.500
0.405,-43.500,-29.000,-81.500,-77.000
0.406,-43.500,-29.000,-81.500,-77.000
0.407,-43.500,-28.500,-81.000,-77.000
0.408,-43.500,-28.500,-81.000,-77.000
0.409,-44.000,-29.000,-81.500,-77.500
0.410,-44.000,-29.000,-81.500,-77.500
0.411,-44.000,-29.000,-81.500,-78.000
0.412,-44.500,-29.500,-81.500,-78.000
0.413,-44.500,-29.500,-81.500,-78.000
0.414,-44.000,-29.500,-81.500,-78.000
0.415,-44.000,-29.000,-81.500,-78.000
0.416,-44.000,-29.000,-81.500,-78.000
0.417,-44.000,-28.500,-81.500,-78.000
0.418,-43.500,-28.500,-81.500,-78.000
0.419,-43.500,-28.000,-81.000,-78.000
0.420,-43.000,-27.500,-80.500,-77.500
0.421,-43.000,-27.500,-80.000,-77.500
0.422,-43.000,-27.000,-79.500,-77.000
0.423,-42.500,-27.000,-79.500,-76.500
0.424,-42.500,-26.500,-79.000,-76.500
0.425,-42.500,-26.500,-79.000,-76.500
0.426,-42.500,-26.500,-78.500,-76.500
0.427,-42.500,-26.500,-79.000,-76.500
0.428,-43.000,-27.000,-79.000,-77.000
0.429,-43.000,-27.000,-79.500,-77.000
0.430,-43.500,-27.500,-80.000,-77.500
0.431,-44.000,-28.000,-80.500,-78.000
0.432,-44.000,-28.500,-80.500,-78.500
0.433,-44.000,-29.000,-81.000,-78.500
0.434,-44.000,-29.000,-81.000,-79.000
0.435,-44.000,-29.000,-81.000,-79.000
0.436,-44.000,-29.000,-81.000,-79.000
0.437,-44.000,-29.000,-80.500,-79.000
0.438,-43.500,-29.000,-80.500,-79.000
0.439,-43.500,-28.500,-80.500,-78.500
0.440,-43.000,-28.500,-80.000,-78.500
0.441,-43.000,-28.000,-80.000,-78.000
0.442,-42.500,-28.000,-79.500,-77.500
0.443,-42.500,-28.000,-79.500,-77.500
0.444,-42.500,-28.000,-79.000,-77.500
0.445,-42.500,-28.000,-78.500,-77.000
0.446,-42.500,-28.000,-78.500,-77.000
0.447,-43.000,-28.000,-78.500,-77.000
0.448,-43.000,-28.500,-78.500,-77.500
0.449,-43.500,-28.500,-79.000,-77.500
0.450,-44.000,-28.500,-79.500,-78.000
0.451,-44.000,-28.500,-79.500,-78.000
0.452,-44.000,-28.500,-80.000,-78.000
0.453,-43.500,-28.500,-79.500,-77.500
0.454,-43.000,-28.500,-79.500,-77.500
0.455,-43.000,-28.500,-79.000,-77.500
0.456,-42.500,-28.000,-79.000,-77.500
0.457,-42.500,-28.000,-78.500,-77.000
0.458,-42.500,-27.500,-78.000,-77.000
0.459,-42.000,-27.000,-77.500,-77.000
0.460,-42.000,-27.000,-77.000,-76.500
0.461,-42.000,-26.500,-76.500,-76.000
0.462,-42.000,-26.000,-76.000,-75.500
0.463,-42.000,-26.000,-76.000,-75.500
0.464,-42.500,-25.500,-75.500,-75.000
0.465,-42.500,-25.500,-75.500,-74.500
0.466,-43.000,-26.000,-75.500,-74.500
0.467,-43.000,-26.000,-75.500,-74.500
0.468,-43.000,-26.000,-75.500,-74.500
0.469,-43.000,-26.500,-75.000,-74.000
0.470,-43.000,-26.500,-75.000,-74.000
0.471,-42.500,-26.000,-75.000,-73.500
0.472,-42.000,-26.000,-75.000,-73.500
0.473,-41.500,-26.000,-74.500,-73.500
0.474,-41.500,-26.000,-74.500,-73.000
0.475,-41.000,-26.000,-74.500,-73.000
0.476,-40.500,-25.500,-74.000,-72.500
0.477,-40.000,-25.000,-73.500,-72.500
0.478,-39.000,-24.500,-72.500,-72.000
0.479,-38.500,-23.500,-72.000,-71.500
0.480,-37.500,-22.500,-71.000,-71.000
0.481,-36.500,-21.000,-70.000,-70.500
0.482,-36.000,-20.000,-69.000,-70.000
0.483,-35.500,-19.500,-68.500,-69.500
0.484,-35.000,-19.000,-68.000,-69.500
0.485,-35.000,-18.500,-67.500,-69.500
0.486,-35.500,-19.000,-68.000,-69.500
0.487,-36.000,-20.000,-69.000,-70.000
0.488,-37.000,-21.000,-70.000,-71.000
0.489,-39.000,-23.000,-71.500,-72.000
0.490,-40.500,-25.500,-73.500,-73.500
0.491,-43.000,-28.500,-76.500,-75.000
0.492,-46.000,-32.000,-79.500,-77.000
0.493,-48.500,-35.500,-82.500,-78.500
0.494,-51.500,-39.000,-85.500,-80.500
0.495,-53.500,-41.500,-87.500,-82.500
0.496,-55.000,-43.000,-89.500,-83.500
0.497,-55.500,-44.000,-90.000,-84.000
0.498,-55.500,-44.000,-89.500,-83.500
0.499,-54.000,-43.000,-88.500,-83.000
0.500,-52.500,-41.000,-87.000,-82.000
0.501,-50.000,-38.000,-84.500,-80.000
0.502,-47.000,-34.500,-81.500,-78.500
0.503,-44.000,-30.500,-78.000,-76.500
0.504,-40.500,-26.000,-74.000,-74.000
0.505,-36.500,-21.500,-70.000,-71.500
0.506,-33.500,-17.500,-66.500,-70.000
0.507,-31.000,-14.500,-64.000,-68.500
0.508,-29.500,-12.000,-62.000,-67.500
0.509,-28.500,-10.500,-61.000,-67.000
0.510,-28.000,-9.500,-60.500,-67.000
0.511,-28.000,-10.000,-61.000,-67.500
0.512,-29.000,-11.000,-62.500,-68.500
0.513,-30.000,-12.500,-64.000,-69.500
0.514,-31.000,-14.500,-65.500,-70.500
0.515,-32.000,-16.000,-66.500,-71.500
0.516,-33.000,-17.500,-67.500,-72.000
0.517,-33.500,-18.500,-68.500,-72.500
0.518,-34.000,-19.000,-68.500,-72.500
0.519,-34.000,-19.000,-68.500,-72.000
0.520,-34.500,-19.000,-68.500,-71.500
0.521,-34.500,-19.000,-68.000,-71.500
0.522,-34.500,-19.000,-68.000,-71.000
0.523,-34.500,-18.500,-67.500,-71.000
0.524,-34.500,-18.500,-67.000,-70.500
0.525,-34.000,-18.500,-67.000,-70.500
0.526,-34.000,-18.000,-66.500,-70.000
0.527,-34.000,-18.000,-66.500,-70.000
0.528,-34.000,-18.000,-66.500,-70.000
0.529,-34.000,-18.000,-66.500,-70.000
0.530,-34.500,-18.000,-66.500,-70.000
0.531,-34.500,-18.500,-66.500,-70.000
0.532,-35.000,-19.000,-66.500,-70.500
0.533,-35.000,-19.000,-67.000,-70.500
0.534,-35.000,-19.000,-67.000,-70.500
0.535,-34.500,-18.500,-67.000,-70.500
0.536,-34.500,-18.000,-66.500,-70.000
0.537,-34.000,-17.500,-66.000,-70.000
0.538,-33.500,-17.000,-66.000,-69.500
0.539,-33.500,-16.500,-65.500,-69.000
0.540,-33.000,-16.500,-65.000,-68.500
0.541,-33.000,-16.000,-64.500,-68.500
0.542,-33.000,-16.000,-64.000,-68.000
0.543,-32.500,-15.500,-63.500,-67.500
0.544,-32.500,-15.500,-63.000,-67.500
0.545,-32.500,-15.500,-63.000,-67.500
0.546,-32.500,-15.500,-63.000,-67.000
0.547,-32.500,-15.500,-63.500,-67.000
0.548,-33.000,-15.500,-63.500,-67.000
0.549,-33.000,-15.500,-64.000,-67.000
0.550,-33.000,-15.500,-64.000,-67.000
0.551,-33.000,-15.500,-64.000,-67.000
0.552,-33.000,-15.500,-64.500,-67.000
0.553,-33.000,-15.500,-64.500,-67.000
0.554,-33.000,-15.500,-64.500,-67.500
0.555,-32.500,-15.500,-64.500,-67.000
0.556,-32.500,-15.500,-64.500,-67.000
0.557,-32.000,-15.500,-64.000,-67.000
0.558,-32.000,-15.000,-63.500,-66.500
0.559,-31.500,-14.500,-63.000,-66.000
0.560,-31.500,-14.500,-63.000,-66.000
0.561,-31.500,-14.000,-62.500,-66.000
0.562,-31.500,-14.000,-62.500,-66.000
0.563,-31.500,-13.500,-62.500,-66.000
0.564,-31.500,-14.000,-62.500,-66.500
0.565,-32.000,-14.000,-63.000,-66.500
0.566,-32.000,-14.500,-63.000,-67.500
0.567,-32.500,-15.000,-64.000,-68.000
0.568,-33.000,-16.000,-65.000,-69.500
0.569,-34.000,-17.000,-66.000,-70.500
0.570,-35.000,-18.000,-67.500,-72.000
0.571,-36.000,-19.500,-69.000,-73.500
0.572,-37.500,-21.000,-70.500,-75.000
0.573,-39.000,-23.000,-72.000,-76.000
0.574,-40.000,-24.500,-73.500,-77.500
0.575,-41.000,-26.000,-74.500,-78.500
0.576,-42.000,-27.000,-75.500,-79.000
0.577,-43.000,-28.000,-76.500,-80.000
0.578,-44.000,-29.000,-77.000,-80.500
0.579,-45.000,-30.000,-78.000,-81.000
0.580,-46.000,-31.000,-78.000,-81.000
0.581,-47.000,-31.500,-78.500,-81.000
0.582,-48.000,-32.000,-78.500,-80.500
0.583,-49.000,-32.500,-79.000,-79.500
0.584,-49.500,-33.000,-78.500,-78.500
0.585,-50.500,-33.500,-78.500,-77.500
0.586,-51.500,-33.500,-78.000,-76.000
0.587,-52.000,-33.500,-77.500,-74.000
0.588,-52.500,-33.000,-76.500,-72.500
0.589,-53.000,-33.000,-76.000,-70.500
0.590,-53.500,-32.500,-75.000,-69.000
0.591,-53.500,-32.500,-74.500,-67.000
0.592,-54.000,-32.500,-74.000,-65.500
0.593,-54.000,-32.500,-73.500,-64.500
0.594,-53.500,-32.500,-73.500,-63.000
0.595,-53.500,-32.000,-72.500,-62.000
0.596,-53.000,-31.500,-72.000,-61.000
0.597,-52.000,-31.000,-71.000,-60.000
0.598,-51.000,-29.500,-69.500,-58.500
0.599,-49.000,-28.000,-67.500,-57.000
0.600,-46.500,-25.500,-65.000,-55.000
0.601,-43.500,-22.000,-62.000,-53.000
0.602,-39.500,-18.500,-59.000,-51.000
0.603,-36.000,-15.500,-56.000,-49.000
0.604,-32.500,-12.000,-53.000,-47.500
0.605,-29.000,-8.500,-50.500,-46.000
0.606,-25.500,-5.500,-47.500,-45.000
0.607,-22.000,-2.000,-45.000,-43.500
0.608,-18.000,1.500,-42.500,-42.500
0.609,-14.500,4.000,-40.000,-42.000
0.610,-12.000,6.500,-38.500,-41.000
0.611,-10.000,8.500,-37.000,-40.500
0.612,-8.500,9.500,-36.500,-40.000
0.613,-8.000,10.000,-36.000,-40.000
0.614,-7.500,10.000,-36.000,-40.500
0.615,-8.000,9.500,-37.000,-41.500
0.616,-9.000,8.500,-37.500,-42.000
0.617,-10.000,7.500,-38.500,-43.500
0.618,-11.000,6.500,-40.000,-44.500
0.619,-12.500,5.000,-41.500,-46.000
0.620,-14.000,3.000,-43.000,-47.500
0.621,-15.500,1.000,-45.000,-49.000
0.622,-17.500,-0.500,-46.500,-50.500
0.623,-19.000,-2.000,-48.000,-52.000
0.624,-20.000,-3.000,-49.500,-53.000
0.625,-21.000,-4.000,-50.500,-54.000
0.626,-22.500,-5.000,-51.500,-55.000
0.627,-23.000,-6.000,-52.500,-56.000
0.628,-24.000,-7.000,-53.000,-57.000
0.629,-24.500,-8.000,-54.000,-57.500
0.630,-25.000,-9.000,-55.000,-58.500
0.631,-25.500,-9.500,-55.500,-59.000
0.632,-25.500,-10.000,-56.000,-60.000
0.633,-26.000,-10.500,-56.500,-60.500
0.634,-26.000,-11.000,-56.500,-60.500
0.635,-26.000,-11.000,-57.000,-61.000
0.636,-26.000,-10.500,-56.500,-61.000
0.637,-25.500,-10.500,-56.500,-61.000
0.638,-25.500,-10.000,-56.000,-61.000
0.639,-25.000,-9.500,-55.500,-61.000
0.640,-25.000,-9.000,-55.500,-60.500
0.641,-25.000,-9.000,-55.000,-60.500
0.642,-25.000,-9.000,-55.000,-60.000
0.643,-25.000,-9.000,-54.500,-59.500
0.644,-25.000,-9.000,-54.500,-59.000
0.645,-25.000,-9.000,-54.500,-59.000
0.646,-25.000,-9.000,-54.000,-59.000
0.647,-25.000,-9.000,-54.000,-59.000
0.648,-25.500,-9.500,-54.000,-59.500
0.649,-25.500,-9.500,-54.000,-59.500
0.650,-25.500,-9.500,-54.000,-59.500
0.651,-25.500,-9.500,-54.000,-59.500
0.652,-25.500,-9.500,-54.500,-59.500
0.653,-25.500,-9.500,-54.500,-59.500
0.654,-25.500,-9.500,-54.500,-59.500
0.655,-25.000,-9.000,-54.500,-59.500
0.656,-25.000,-9.000,-54.000,-59.000
0.657,-24.500,-8.500,-53.500,-59.000
0.658,-24.000,-8.500,-53.000,-58.500
0.659,-23.500,-8.000,-52.500,-58.000
0.660,-23.500,-7.500,-52.000,-57.500
0.661,-23.000,-7.000,-51.500,-57.000
0.662,-22.500,-6.500,-51.500,-57.000
0.663,-22.500,-6.000,-51.000,-57.000
0.664,-22.500,-6.000,-50.500,-57.000
0.665,-22.500,-5.500,-50.500,-57.000
0.666,-22.500,-5.500,-50.000,-57.000
0.667,-23.000,-5.500,-49.500,-56.500
0.668,-23.000,-5.500,-49.500,-56.500
0.669,-23.000,-5.500,-50.000,-56.500
0.670,-23.500,-6.000,-50.000,-56.500
0.671,-23.500,-5.500,-50.500,-57.000
0.672,-23.000,-5.500,-50.500,-57.000
0.673,-23.000,-5.500,-50.500,-57.000
0.674,-23.000,-5.500,-50.500,-57.000
0.675,-23.000,-5.500,-50.000,-56.500
0.676,-23.000,-5.500,-50.000,-56.500
0.677,-23.000,-5.500,-49.500,-56.000
0.678,-23.000,-5.000,-49.000,-56.000
0.679,-22.500,-5.000,-49.000,-55.500
0.680,-22.500,-4.500,-49.000,-55.500
0.681,-22.000,-4.000,-49.000,-55.500
0.682,-22.000,-4.000,-49.000,-55.500
0.683,-22.000,-3.500,-48.500,-55.500
0.684,-22.000,-3.500,-48.500,-55.500
0.685,-21.500,-3.000,-48.000,-55.500
0.686,-22.000,-3.000,-47.500,-55.500
0.687,-22.000,-3.000,-47.000,-55.500
0.688,-22.000,-3.000,-47.000,-55.000
0.689,-22.500,-3.500,-47.500,-55.500
0.690,-22.500,-3.500,-47.500,-55.500
0.691,-23.000,-4.000,-48.000,-56.000
0.692,-23.000,-4.500,-48.500,-56.000
0.693,-23.000,-4.500,-49.000,-56.000
0.694,-23.500,-5.000,-49.000,-56.000
0.695,-23.500,-5.000,-49.000,-56.000
0.696,-24.000,-5.000,-49.000,-56.000
0.697,-24.000,-5.000,-49.000,-56.000
0.698,-24.000,-5.000,-48.500,-55.500
0.699,-23.500,-5.000,-48.000,-55.000
0.700,-23.500,-4.500,-47.500,-54.500
0.701,-23.500,-4.500,-47.000,-54.000
0.702,-23.500,-4.000,-46.500,-53.500
0.703,-23.000,-3.500,-46.500,-53.000
0.704,-23.000,-3.500,-46.000,-52.500
0.705,-23.000,-3.000,-46.000,-52.500
0.706,-23.000,-3.000,-46.000,-52.000
0.707,-23.000,-3.000,-46.000,-51.500
0.708,-23.000,-3.000,-46.000,-51.500
0.709,-23.000,-3.000,-46.000,-51.500
0.710,-22.500,-3.000,-46.000,-51.000
0.711,-22.500,-3.000,-46.000,-51.000
0.712,-23.000,-2.500,-46.000,-50.500
0.713,-23.000,-2.500,-46.000,-50.000
0.714,-23.000,-2.500,-46.000,-50.000
0.715,-23.000,-2.000,-46.000,-49.000
0.716,-23.000,-2.000,-45.500,-48.500
0.717,-22.500,-1.500,-45.000,-47.500
0.718,-22.000,-1.000,-45.000,-46.500
0.719,-21.500,-1.000,-44.500,-45.500
0.720,-21.000,-0.500,-44.000,-44.500
0.721,-21.000,-0.500,-44.000,-44.000
0.722,-20.500,-0.500,-44.000,-43.500
0.723,-20.500,-0.500,-43.500,-43.000
0.724,-20.500,-0.500,-43.500,-42.500
0.725,-20.500,0.000,-43.000,-41.500
0.726,-20.500,0.000,-43.000,-41.000
0.727,-20.500,0.000,-43.000,-40.000
0.728,-21.000,-0.500,-43.000,-39.500
0.729,-21.000,-0.500,-43.000,-39.000
0.730,-21.000,-0.500,-43.000,-38.500
0.731,-21.000,-0.500,-43.500,-38.500
0.732,-21.000,-0.500,-43.500,-38.000
0.733,-21.000,-0.500,-43.500,-38.000
0.734,-20.500,-0.500,-43.500,-38.000
0.735,-20.500,0.000,-43.500,-37.500
0.736,-20.000,0.500,-43.500,-36.500
0.737,-20.000,1.500,-43.500,-35.000
0.738,-19.500,2.000,-43.000,-33.500
0.739,-19.000,2.000,-42.500,-31.000
0.740,-18.500,2.500,-42.000,-28.500
0.741,-18.000,2.500,-41.500,-25.500
0.742,-18.000,3.000,-41.000,-22.500
0.743,-17.500,3.500,-41.000,-20.000
0.744,-17.500,3.500,-41.000,-17.500
0.745,-17.000,4.000,-41.000,-15.500
0.746,-17.000,4.000,-41.000,-13.500
0.747,-17.000,4.000,-41.000,-12.000
0.748,-17.000,4.000,-41.500,-11.000
0.749,-17.000,4.000,-41.500,-10.000
0.750,-17.000,4.000,-42.000,-10.000
0.751,-17.000,4.500,-42.000,-9.500
0.752,-16.500,4.500,-42.000,-9.500
0.753,-16.000,4.000,-42.000,-10.000
0.754,-15.500,4.000,-42.500,-10.000
0.755,-15.000,4.500,-42.500,-10.500
0.756,-14.500,4.500,-42.500,-11.000
0.757,-14.000,5.000,-42.500,-11.000
0.758,-13.500,5.500,-42.500,-11.500
0.759,-13.000,6.000,-42.500,-11.500
0.760,-13.000,6.500,-42.000,-12.000
0.761,-12.500,7.500,-41.500,-12.000
0.762,-12.000,8.000,-41.000,-12.500
0.763,-12.000,8.500,-40.500,-12.500
0.764,-12.000,9.000,-40.500,-12.500
0.765,-11.500,9.000,-40.000,-12.500
0.766,-11.500,9.000,-40.000,-12.500
0.767,-12.000,9.000,-40.000,-12.500
0.768,-12.000,9.000,-40.000,-13.000
0.769,-12.500,9.000,-40.000,-13.000
0.770,-13.000,9.000,-40.500,-13.000
0.771,-13.500,8.500,-40.500,-13.000
0.772,-13.500,8.000,-41.000,-13.000
0.773,-14.000,8.000,-41.500,-12.500
0.774,-13.500,8.000,-41.500,-12.500
0.775,-13.500,8.000,-41.500,-12.000
0.776,-13.000,8.000,-41.500,-12.000
0.777,-12.500,8.000,-41.000,-11.500
0.778,-12.000,8.500,-41.000,-11.500
0.779,-12.000,8.500,-40.500,-11.500
0.780,-11.500,9.000,-40.500,-11.500
0.781,-11.500,9.000,-40.000,-11.500
0.782,-11.500,9.000,-39.500,-11.500
0.783,-11.500,9.000,-39.500,-11.500
0.784,-11.500,9.500,-39.000,-11.500
0.785,-11.500,9.500,-39.000,-11.500
0.786,-11.500,9.500,-39.000,-12.000
0.787,-11.500,9.500,-38.500,-12.500
0.788,-11.500,9.500,-38.500,-13.000
0.789,-11.500,9.000,-38.500,-13.500
0.790,-12.000,9.000,-39.000,-14.000
0.791,-12.000,8.500,-39.000,-15.000
0.792,-12.000,8.500,-39.500,-15.500
0.793,-12.000,8.500,-39.500,-16.000
0.794,-12.000,8.500,-39.500,-16.500
0.795,-11.500,8.500,-39.500,-17.000
0.796,-11.500,9.000,-39.500,-17.000
0.797,-11.000,9.000,-39.000,-17.000
0.798,-10.500,9.500,-38.500,-17.000
0.799,-10.500,9.500,-38.500,-17.000
0.800,-10.000,10.000,-38.000,-16.500
0.801,-10.000,10.000,-38.000,-16.500
0.802,-9.500,10.500,-37.500,-16.500
0.803,-9.500,11.000,-37.500,-16.500
0.804,-9.500,11.500,-37.500,-17.000
0.805,-9.500,11.500,-37.500,-17.000
0.806,-10.000,11.500,-37.500,-17.500
0.807,-10.000,11.000,-38.000,-17.500
0.808,-10.000,11.000,-38.500,-18.000
0.809,-10.000,10.500,-38.500,-18.000
0.810,-10.000,10.000,-39.000,-18.000
0.811,-10.500,10.000,-39.000,-18.000
0.812,-10.500,10.000,-39.000,-18.500
0.813,-10.500,10.000,-39.500,-18.500
0.814,-10.500,10.000,-39.500,-18.500
0.815,-10.500,10.000,-39.500,-19.000
0.816,-10.000,10.000,-40.000,-19.000
0.817,-10.000,10.000,-40.000,-19.000
0.818,-9.500,10.000,-40.000,-19.500
0.819,-9.500,10.000,-40.000,-19.500
0.820,-9.000,10.000,-40.000,-19.500
0.821,-9.000,10.000,-39.500,-19.500
0.822,-9.000,10.500,-39.500,-19.000
0.823,-9.000,11.000,-39.000,-19.000
0.824,-8.500,11.500,-39.000,-18.500
0.825,-8.500,11.500,-38.500,-18.000
0.826,-8.500,11.500,-38.500,-17.500
0.827,-8.500,12.000,-38.000,-17.000
0.828,-8.500,11.500,-38.000,-17.000
0.829,-9.000,11.500,-38.500,-17.000
0.830,-9.000,11.500,-39.000,-17.000
0.831,-9.500,11.000,-39.500,-17.500
0.832,-9.500,11.000,-40.000,-18.500
0.833,-9.000,10.500,-41.000,-19.500
0.834,-9.000,10.500,-41.500,-20.000
0.835,-8.500,10.500,-41.500,-20.500
0.836,-8.500,11.000,-41.500,-21.000
0.837,-8.500,11.000,-41.500,-21.000
0.838,-8.000,11.000,-41.500,-21.000
0.839,-7.500,11.000,-41.500,-21.000
0.840,-7.500,11.500,-41.000,-21.000
0.841,-7.500,11.500,-41.000,-21.000
0.842,-7.000,12.000,-41.000,-21.000
0.843,-7.000,12.000,-41.000,-20.500
0.844,-7.000,12.500,-41.000,-20.500
0.845,-7.000,12.000,-41.000,-20.000
0.846,-7.000,12.000,-41.000,-19.500
0.847,-7.000,11.500,-41.500,-19.500
0.848,-7.000,11.500,-41.500,-20.000
0.849,-7.000,11.000,-42.000,-20.000
0.850,-7.000,10.500,-42.000,-20.500
0.851,-7.000,10.500,-42.500,-21.000
0.852,-7.000,10.000,-42.500,-21.000
0.853,-6.500,10.000,-43.000,-21.500
0.854,-6.500,10.000,-43.500,-22.000
0.855,-6.000,10.000,-43.500,-22.000
0.856,-6.000,10.500,-43.500,-22.500
0.857,-5.500,11.000,-43.000,-23.000
0.858,-5.500,11.000,-43.000,-23.000
0.859,-5.000,11.500,-42.500,-23.000
0.860,-5.000,11.500,-42.500,-23.000
0.861,-5.000,11.500,-42.500,-23.000
0.862,-5.500,11.000,-43.000,-23.500
0.863,-6.000,10.000,-43.500,-24.000
0.864,-7.000,8.500,-45.000,-25.000
0.865,-8.000,7.000,-46.500,-26.000
0.866,-9.500,5.000,-48.500,-27.500
0.867,-12.000,2.500,-50.500,-29.500
0.868,-14.500,-1.000,-53.500,-31.500
0.869,-17.000,-4.000,-56.500,-33.500
0.870,-19.000,-7.000,-59.000,-35.000
0.871,-21.000,-9.500,-61.000,-36.500
0.872,-22.000,-11.500,-62.500,-37.500
0.873,-22.500,-12.500,-63.000,-38.500
0.874,-22.500,-12.500,-63.500,-38.500
0.875,-21.500,-11.500,-63.000,-38.500
0.876,-20.000,-10.000,-61.500,-37.500
0.877,-18.000,-7.500,-60.000,-36.000
0.878,-15.500,-4.000,-57.500,-34.500
0.879,-12.000,0.500,-54.500,-32.500
0.880,-8.000,5.000,-51.000,-30.500
0.881,-4.000,10.000,-47.000,-28.000
0.882,-1.000,14.000,-43.500,-26.000
0.883,1.500,17.500,-41.000,-24.500
0.884,3.500,20.000,-39.000,-23.000
0.885,5.000,21.500,-37.500,-22.500
0.886,5.000,22.000,-37.500,-22.000
0.887,4.500,21.500,-38.000,-22.500
0.888,3.500,20.000,-39.000,-23.000
0.889,2.000,18.500,-40.500,-24.000
0.890,0.500,16.500,-42.500,-25.000
0.891,-0.500,15.000,-43.500,-25.500
0.892,-1.500,14.000,-45.000,-26.000
0.893,-2.000,13.000,-45.500,-26.000
0.894,-2.000,12.500,-46.000,-26.000
0.895,-2.000,12.000,-46.500,-25.500
0.896,-2.000,12.000,-47.000,-25.000
0.897,-1.500,12.000,-47.000,-25.000
0.898,-1.000,12.000,-46.500,-24.500
0.899,-0.500,12.000,-46.500,-24.000
0.900,-0.500,12.500,-46.000,-23.500
0.901,0.000,13.000,-45.500,-23.000
0.902,0.000,13.500,-45.500,-22.500
0.903,0.500,14.000,-45.000,-22.000
0.904,1.000,14.000,-45.000,-21.500
0.905,1.000,14.500,-44.500,-21.000
0.906,1.500,14.500,-44.500,-20.500
0.907,2.000,14.500,-44.000,-20.000
0.908,2.000,14.500,-44.000,-19.500
0.909,2.000,14.000,-44.500,-19.500
0.910,2.000,13.500,-44.500,-20.000
0.911,2.000,13.500,-45.000,-20.000
0.912,2.000,13.500,-45.000,-20.500
0.913,2.000,13.500,-45.500,-20.500
0.914,2.500,13.500,-45.500,-20.500
0.915,2.500,14.000,-45.500,-21.000
0.916,3.000,14.000,-45.500,-20.500
0.917,3.000,14.500,-45.000,-20.500
0.918,3.500,15.000,-45.000,-20.000
0.919,4.000,15.500,-44.500,-19.500
0.920,4.000,16.000,-44.000,-19.000
0.921,4.500,16.500,-43.500,-19.000
0.922,5.000,17.000,-43.000,-18.500
0.923,5.000,17.000,-43.000,-18.500
0.924,5.500,17.000,-43.000,-18.500
0.925,5.500,17.500,-43.000,-19.000
0.926,5.500,17.500,-43.000,-19.000
0.927,5.000,17.000,-43.000,-19.500
0.928,5.000,17.000,-43.500,-19.500
0.929,4.500,17.000,-43.500,-20.000
0.930,4.500,16.500,-44.000,-20.500
0.931,4.000,16.500,-44.500,-21.000
0.932,4.000,16.000,-44.500,-21.500
0.933,4.000,16.000,-45.000,-22.500
0.934,4.000,16.000,-45.500,-23.500
0.935,4.500,16.000,-45.500,-24.000
0.936,5.000,16.500,-45.500,-24.500
0.937,5.000,16.500,-45.500,-24.500
0.938,5.500,17.000,-45.500,-24.500
0.939,5.500,17.000,-45.000,-24.000
0.940,6.000,17.000,-44.500,-23.500
0.941,6.000,17.500,-44.000,-23.000
0.942,6.500,17.500,-43.500,-23.000
0.943,6.500,18.000,-43.000,-23.000
0.944,7.000,19.000,-43.000,-23.000
0.945,7.500,19.000,-42.500,-23.000
0.946,7.500,19.500,-42.500,-23.000
0.947,7.500,19.500,-42.000,-23.500
0.948,7.500,20.000,-42.000,-23.500
0.949,7.500,20.000,-42.000,-23.500
0.950,7.500,20.000,-41.500,-23.500
0.951,8.000,20.000,-41.500,-23.000
0.952,8.000,20.000,-42.000,-23.000
0.953,8.000,19.500,-42.000,-23.000
0.954,8.000,19.500,-42.500,-23.000
0.955,8.000,19.500,-42.500,-23.000
0.956,8.000,19.000,-43.000,-23.000
0.957,8.000,19.000,-43.000,-23.000
0.958,8.000,19.500,-42.500,-23.000
0.959,8.500,19.500,-42.500,-23.000
0.960,9.000,20.000,-42.000,-23.000
0.961,9.000,20.000,-42.000,-23.000
0.962,9.000,20.000,-42.000,-23.000
0.963,9.000,20.500,-42.000,-23.000
0.964,9.000,20.500,-42.000,-23.000
0.965,9.000,20.500,-42.000,-22.500
0.966,9.000,20.500,-42.000,-22.500
0.967,8.500,20.500,-41.500,-22.000
0.968,8.500,20.500,-41.000,-22.000
0.969,9.000,20.500,-41.000,-21.500
0.970,9.000,20.500,-41.000,-21.500
0.971,9.000,20.500,-41.500,-21.500
0.972,9.000,21.000,-41.500,-22.000
0.973,9.500,21.000,-41.500,-21.500
0.974,9.500,21.500,-41.500,-21.500
0.975,9.500,21.500,-41.500,-21.500
0.976,9.500,21.500,-41.000,-21.000
0.977,9.500,21.500,-41.000,-20.500
0.978,9.500,21.500,-41.000,-20.000
0.979,10.000,21.500,-40.500,-19.500
0.980,10.000,21.500,-40.500,-19.000
0.981,10.500,21.500,-40.000,-18.500
0.982,11.000,21.500,-40.000,-18.000
0.983,11.500,22.000,-39.500,-17.500
0.984,11.500,22.000,-39.500,-17.500
0.985,11.500,22.000,-39.500,-17.000
0.986,12.000,22.000,-39.500,-17.000
0.987,11.500,22.000,-39.500,-17.000
0.988,11.500,22.000,-40.000,-17.000
0.989,11.500,21.500,-40.000,-17.000
0.990,12.000,21.500,-40.500,-16.500
0.991,11.500,21.500,-41.000,-16.500
0.992,11.500,21.000,-41.000,-16.500
0.993,11.500,21.500,-41.500,-16.500
0.994,12.000,21.500,-42.000,-16.500
0.995,12.000,21.500,-42.000,-16.500
0.996,12.000,22.000,-42.000,-17.000
0.997,12.000,22.500,-42.000,-17.000
0.998,12.500,22.500,-41.500,-17.000
0.999,12.500,23.000,-41.500,-16.500
1.000,12.500,23.000,-41.500,-16.000
1.001,13.000,23.000,-41.500,-16.000
1.002,13.000,23.500,-41.000,-15.500
1.003,13.000,23.500,-40.500,-15.000
1.004,13.500,24.000,-40.500,-15.000
1.005,13.500,24.500,-40.500,-15.000
1.006,14.000,24.500,-40.500,-15.500
1.007,14.000,24.500,-41.000,-15.500
1.008,14.000,24.000,-41.500,-15.500
1.009,13.500,24.000,-41.500,-15.000
1.010,13.500,24.000,-41.500,-14.500
1.011,13.500,24.000,-41.500,-14.500
1.012,13.500,23.500,-42.000,-14.000
1.013,13.500,23.500,-42.000,-14.000
1.014,13.000,23.500,-42.500,-14.000
1.015,13.000,23.000,-42.500,-14.000
1.016,13.000,23.000,-42.500,-14.000
1.017,13.000,23.500,-42.500,-14.000
1.018,13.500,23.500,-42.500,-14.000
1.019,13.500,24.000,-42.500,-14.000
1.020,14.000,24.500,-42.500,-14.000
1.021,14.500,25.000,-42.000,-14.000
1.022,14.500,25.000,-41.500,-14.000
1.023,15.000,25.500,-41.000,-13.500
1.024,15.000,25.500,-41.000,-13.000
1.025,15.000,25.000,-41.000,-12.500
1.026,15.000,25.000,-41.000,-12.000
1.027,15.000,25.000,-41.000,-12.000
1.028,15.000,25.000,-41.000,-11.500
1.029,15.000,25.000,-41.000,-11.500
1.030,15.000,25.000,-41.500,-11.500
1.031,15.000,25.000,-41.500,-11.500
1.032,15.500,25.500,-41.500,-11.500
1.033,15.500,25.500,-41.500,-11.000
1.034,15.500,25.500,-41.500,-11.000
1.035,15.500,25.500,-41.500,-11.000
1.036,15.500,25.500,-41.500,-11.000
1.037,15.500,25.500,-41.500,-11.000
1.038,15.500,25.500,-41.500,-11.000
1.039,16.000,25.500,-41.500,-11.000
1.040,16.000,26.000,-41.500,-11.000
1.041,16.500,26.000,-41.500,-10.500
1.042,16.000,26.000,-41.500,-10.500
1.043,16.000,26.000,-42.000,-10.500
1.044,16.000,26.000,-42.000,-10.500
1.045,16.000,25.500,-42.000,-10.500
1.046,16.500,26.000,-42.000,-10.000
1.047,16.500,26.000,-42.000,-10.000
1.048,16.500,26.000,-42.000,-10.000
1.049,16.500,25.500,-42.000,-10.500
1.050,16.500,25.500,-42.000,-10.500
1.051,16.000,25.500,-42.000,-11.000
1.052,16.000,25.000,-42.500,-11.500
1.053,16.000,25.000,-42.500,-11.500
1.054,16.000,25.000,-42.500,-12.000
1.055,16.000,25.000,-43.000,-12.500
1.056,16.000,25.000,-43.500,-13.500
1.057,16.000,24.500,-43.500,-14.000
1.058,16.000,24.500,-44.000,-14.000
1.059,16.000,24.500,-44.000,-14.000
1.060,16.000,24.500,-43.500,-14.000
1.061,16.000,24.500,-43.000,-14.000
1.062,16.000,24.500,-43.000,-14.500
1.063,16.000,25.000,-42.500,-14.500
1.064,16.000,25.000,-42.500,-15.000
1.065,16.000,25.000,-42.500,-15.000
1.066,15.500,25.000,-42.500,-15.500
1.067,15.500,25.000,-42.500,-16.000
1.068,15.500,24.500,-43.000,-16.000
1.069,15.500,24.000,-43.000,-17.000
1.070,15.500,24.000,-43.500,-17.500
1.071,15.000,23.500,-44.500,-18.000
1.072,15.000,23.000,-45.000,-19.000
1.073,14.500,22.500,-45.500,-19.500
1.074,14.500,22.000,-45.500,-20.000
1.075,14.000,22.000,-46.000,-20.500
1.076,14.500,22.000,-46.000,-21.000
1.077,14.500,22.000,-46.000,-21.500
1.078,14.500,22.500,-45.500,-21.500
1.079,14.500,22.500,-45.500,-22.000
1.080,15.000,23.000,-45.000,-22.000
1.081,15.000,23.000,-45.000,-22.000
1.082,15.500,23.000,-44.500,-22.000
1.083,15.500,23.500,-44.500,-22.000
1.084,15.500,23.500,-44.000,-22.000
1.085,15.500,23.500,-44.000,-22.000
1.086,15.000,23.500,-43.500,-22.000
1.087,15.000,23.500,-43.500,-22.000
1.088,14.500,23.500,-43.500,-22.000
1.089,14.500,23.500,-43.500,-22.000
1.090,14.500,24.000,-43.500,-22.000
1.091,14.500,24.000,-43.500,-22.000
1.092,14.500,24.000,-43.500,-21.500
1.093,15.000,24.500,-43.000,-21.500
1.094,15.000,24.500,-43.000,-21.000
1.095,15.000,24.500,-43.000,-21.000
1.096,15.000,24.500,-43.000,-21.000
1.097,15.000,25.000,-43.000,-21.000
1.098,15.500,25.000,-43.000,-21.500
1.099,15.500,25.000,-43.000,-21.500
1.100,16.000,25.000,-43.000,-22.000
1.101,16.000,25.500,-43.000,-22.500
1.102,16.000,25.500,-42.500,-22.500
1.103,16.000,25.500,-42.500,-23.000
1.104,16.000,25.500,-42.500,-23.000
1.105,16.000,25.500,-42.500,-23.000
1.106,16.000,25.500,-42.500,-23.000
1.107,16.000,25.500,-42.500,-23.000
1.108,16.000,25.000,-43.000,-23.000
1.109,16.000,25.000,-43.000,-23.500
1.110,15.500,24.500,-43.000,-23.500
1.111,15.500,24.000,-43.500,-24.000
1.112,15.000,23.500,-43.500,-24.500
1.113,15.000,23.500,-44.000,-25.000
1.114,15.000,23.000,-44.000,-25.000
1.115,14.500,22.500,-44.000,-25.500
1.116,14.500,22.500,-44.500,-25.500
1.117,14.500,22.500,-44.500,-25.500
1.118,14.500,22.500,-44.500,-26.000
1.119,14.500,23.000,-44.000,-26.000
1.120,15.000,23.000,-44.000,-26.500
1.121,15.000,23.500,-43.500,-26.500
1.122,15.500,23.500,-43.500,-27.000
1.123,15.500,24.000,-43.500,-27.000
1.124,16.000,24.000,-43.500,-27.500
1.125,16.000,24.000,-43.500,-27.500
1.126,16.000,24.000,-43.500,-27.500
1.127,16.000,23.500,-43.500,-28.000
1.128,15.500,23.500,-44.000,-28.000
1.129,15.500,23.000,-44.000,-28.500
1.130,15.000,22.500,-45.000,-28.500
1.131,15.000,22.000,-45.500,-29.000
1.132,14.500,21.500,-46.000,-29.000
1.133,14.500,21.500,-46.000,-29.500
1.134,14.500,21.000,-46.500,-29.000
1.135,14.500,21.000,-46.500,-29.000
1.136,14.500,21.000,-46.500,-29.000
1.137,15.000,21.500,-46.500,-28.500
1.138,15.000,22.000,-46.000,-28.500
1.139,15.000,22.000,-45.500,-28.000
1.140,15.500,22.500,-45.500,-27.500
1.141,15.500,23.000,-45.000,-27.000
1.142,16.000,23.500,-45.000,-26.500
1.143,16.000,24.000,-44.500,-26.000
1.144,16.500,24.000,-44.000,-25.500
1.145,16.000,24.000,-44.000,-25.000
1.146,16.000,24.000,-44.000,-24.500
1.147,15.500,23.500,-44.000,-24.500
1.148,15.000,23.500,-44.500,-25.000
1.149,14.500,23.000,-45.000,-25.500
1.150,14.500,22.500,-45.500,-26.000
1.151,14.000,22.500,-46.000,-27.000
1.152,14.000,22.000,-46.500,-28.000
1.153,14.500,22.000,-47.000,-28.500
1.154,14.500,22.000,-47.000,-29.000
1.155,15.000,22.500,-47.000,-29.500
1.156,15.500,22.500,-47.000,-29.500
1.157,15.500,22.500,-47.000,-29.500
1.158,15.500,22.500,-46.500,-29.500
1.159,16.000,23.000,-46.500,-29.500
1.160,16.000,23.500,-46.000,-29.500
1.161,16.500,24.000,-45.500,-29.000
1.162,17.000,25.000,-45.000,-28.500
1.163,17.500,25.500,-44.000,-28.000
1.164,17.500,25.500,-43.500,-27.500
1.165,17.500,26.000,-43.500,-27.000
1.166,17.000,25.500,-43.000,-26.500
1.167,17.000,25.500,-43.000,-27.000
1.168,17.000,25.500,-43.500,-27.000
1.169,17.000,25.500,-43.500,-27.500
1.170,17.000,25.500,-44.000,-28.000
1.171,17.000,25.500,-44.500,-28.500
1.172,17.000,25.500,-44.500,-29.000
1.173,17.000,25.000,-44.500,-29.500
1.174,17.000,25.000,-44.500,-29.500
1.175,17.000,25.000,-44.500,-29.500
1.176,17.500,25.000,-44.500,-29.500
1.177,17.500,25.000,-44.500,-29.000
1.178,18.000,25.500,-44.000,-29.000
1.179,18.000,25.500,-43.000,-28.500
1.180,18.500,26.000,-42.500,-28.000
1.181,18.500,26.500,-42.000,-27.500
1.182,18.500,27.000,-41.500,-27.000
1.183,18.500,27.500,-41.000,-27.000
1.184,18.500,27.500,-40.500,-27.000
1.185,18.500,28.000,-40.500,-27.000
1.186,18.000,28.000,-40.500,-27.500
1.187,17.500,27.500,-41.000,-28.500
1.188,17.000,27.000,-42.000,-29.500
1.189,16.000,26.000,-43.500,-31.000
1.190,15.000,25.000,-44.500,-32.500
1.191,14.000,24.000,-46.500,-34.000
1.192,13.000,22.500,-48.000,-35.000
1.193,11.500,21.000,-49.500,-36.500
1.194,10.500,19.500,-51.000,-37.500
1.195,9.500,18.000,-52.500,-39.000
1.196,8.000,16.500,-54.000,-40.500
1.197,7.000,15.500,-55.000,-42.000
1.198,5.500,14.000,-56.500,-43.000
1.199,4.500,13.000,-57.500,-44.000
1.200,3.000,12.000,-58.500,-44.500
1.201,2.000,10.500,-59.000,-45.000
1.202,1.000,10.000,-60.000,-45.000
1.203,-0.500,9.000,-60.500,-45.500
1.204,-1.500,8.500,-60.500,-45.500
1.205,-2.500,7.500,-60.500,-45.000
1.206,-3.500,7.000,-60.500,-44.000
1.207,-4.500,7.000,-60.000,-43.000
1.208,-5.000,7.000,-59.000,-41.000
1.209,-6.000,7.000,-58.000,-39.000
1.210,-6.500,7.000,-57.000,-37.000
1.211,-7.000,7.000,-56.000,-35.500
1.212,-7.500,7.000,-55.000,-34.000
1.213,-8.000,7.000,-54.500,-32.500
1.214,-8.500,7.000,-54.000,-31.500
1.215,-8.500,7.500,-53.500,-30.500
1.216,-8.500,8.000,-53.000,-29.500
1.217,-8.500,8.500,-52.000,-29.000
1.218,-8.000,9.500,-51.500,-28.500
1.219,-6.500,11.000,-50.000,-27.500
1.220,-4.500,13.000,-48.000,-26.500
1.221,-1.500,16.000,-45.500,-25.000
1.222,2.500,19.500,-42.500,-23.000
1.223,6.500,23.000,-39.000,-21.000
1.224,10.000,27.000,-35.500,-19.000
1.225,14.000,31.000,-32.500,-17.000
1.226,18.000,34.500,-29.000,-15.500
1.227,22.000,38.500,-26.000,-14.000
1.228,26.500,42.500,-22.500,-12.500
1.229,30.500,46.500,-19.500,-11.000
1.230,34.500,50.000,-16.500,-10.000
1.231,37.500,52.500,-14.500,-9.000
1.232,39.500,54.500,-13.000,-8.500
1.233,41.000,55.500,-12.500,-8.500
1.234,41.000,55.500,-13.000,-9.000
1.235,40.500,54.500,-13.500,-10.000
1.236,39.000,53.500,-15.000,-11.000
1.237,37.500,51.500,-17.000,-12.500
1.238,36.000,49.000,-19.000,-14.500
1.239,33.500,46.000,-22.000,-16.500
1.240,31.000,43.000,-25.000,-19.000
1.241,27.500,39.000,-28.500,-22.000
1.242,23.500,34.500,-33.000,-25.000
1.243,19.500,29.500,-37.000,-28.000
1.244,15.000,25.000,-41.500,-31.000
1.245,11.500,21.000,-45.000,-34.000
1.246,8.500,17.500,-48.000,-36.500
1.247,6.500,15.000,-50.000,-38.500
1.248,5.000,13.500,-51.500,-39.500
1.249,4.000,13.000,-52.500,-40.500
1.250,4.500,13.000,-52.500,-40.500
1.251,5.500,14.500,-51.500,-40.500
1.252,7.000,16.500,-49.500,-40.000
1.253,9.500,20.000,-47.000,-39.000
1.254,13.000,24.000,-43.500,-37.500
1.255,16.500,28.000,-40.000,-35.500
1.256,20.000,32.000,-36.500,-33.000
1.257,23.500,36.000,-33.500,-31.000
1.258,26.000,39.000,-31.000,-29.500
1.259,28.000,41.500,-29.500,-28.500
1.260,29.000,43.000,-28.500,-28.000
1.261,29.500,43.500,-28.000,-28.500
1.262,29.500,43.500,-28.000,-28.500
1.263,28.500,42.500,-28.500,-29.000
1.264,27.500,41.500,-29.000,-29.500
1.265,26.500,40.000,-30.000,-29.500
1.266,25.000,38.500,-30.500,-30.000
1.267,24.000,37.000,-31.000,-30.500
1.268,23.000,36.000,-32.000,-30.500
1.269,22.500,35.000,-32.500,-30.500
1.270,21.500,34.000,-33.000,-30.500
1.271,21.500,33.500,-33.500,-30.500
1.272,21.000,33.000,-34.000,-30.500
1.273,20.500,32.000,-35.000,-31.000
1.274,20.500,31.500,-36.000,-31.500
1.275,20.500,31.000,-37.000,-32.000
1.276,20.500,30.500,-37.500,-33.000
1.277,20.500,30.000,-37.500,-33.000
1.278,20.500,30.000,-38.000,-33.000
1.279,20.500,30.500,-37.500,-33.000
1.280,20.500,30.500,-37.500,-33.000
1.281,21.000,30.500,-37.500,-33.000
1.282,21.000,30.500,-37.000,-33.000
1.283,21.000,31.000,-37.000,-33.000
1.284,21.500,31.000,-36.500,-33.000
1.285,21.500,31.500,-36.000,-33.000
1.286,22.000,32.000,-35.500,-33.000
1.287,22.000,32.500,-34.500,-32.500
1.288,22.000,33.000,-34.000,-32.000
1.289,21.500,33.000,-33.500,-31.500
1.290,21.500,33.000,-33.000,-31.000
1.291,21.500,33.000,-32.500,-30.500
1.292,21.500,33.000,-32.000,-30.000
1.293,21.000,33.500,-32.000,-29.500
1.294,21.000,33.000,-32.000,-29.500
1.295,21.000,33.000,-32.500,-29.500
1.296,21.000,33.000,-32.500,-30.000
1.297,20.500,32.500,-33.500,-30.000
1.298,20.500,32.000,-33.500,-30.500
1.299,20.500,32.000,-34.000,-31.000
1.300,21.000,32.000,-34.500,-31.500
1.301,21.000,32.000,-34.500,-32.000
1.302,21.000,32.000,-34.500,-32.000
1.303,21.000,32.500,-34.000,-32.000
1.304,21.000,32.500,-34.000,-32.000
1.305,21.500,33.000,-33.500,-32.500
1.306,21.500,33.500,-33.000,-33.000
1.307,21.500,34.000,-33.000,-33.000
1.308,22.000,34.000,-32.500,-33.500
1.309,21.500,34.000,-32.500,-33.500
1.310,21.500,34.000,-33.000,-33.500
1.311,21.000,34.000,-33.000,-33.500
1.312,21.000,33.500,-33.000,-33.500
1.313,20.500,33.000,-33.000,-34.000
1.314,20.500,33.000,-33.500,-34.000
1.315,20.500,32.500,-33.500,-34.500
1.316,20.500,32.500,-34.000,-35.000
1.317,20.500,32.500,-34.000,-35.000
1.318,21.000,32.500,-34.000,-34.500
1.319,21.000,32.500,-34.000,-34.500
1.320,21.500,33.000,-33.500,-34.000
1.321,21.500,33.000,-33.000,-33.500
1.322,22.000,33.000,-32.500,-33.000
1.323,22.000,33.000,-32.000,-32.500
1.324,21.500,33.500,-31.500,-32.500
1.325,21.000,33.500,-31.500,-32.000
1.326,21.000,33.500,-31.000,-31.500
1.327,20.500,34.000,-30.500,-31.500
1.328,20.500,34.000,-30.500,-31.500
1.329,20.500,33.500,-30.000,-31.500
1.330,20.000,33.500,-30.000,-32.000
1.331,20.000,33.500,-30.000,-32.000
1.332,20.000,33.000,-30.500,-32.500
1.333,20.000,33.000,-31.000,-33.000
1.334,20.000,32.500,-31.500,-33.500
1.335,20.000,32.500,-31.500,-33.500
1.336,20.000,32.500,-32.000,-34.000
1.337,19.500,32.500,-32.000,-34.000
1.338,19.500,32.500,-32.000,-34.500
1.339,20.000,32.500,-32.000,-34.500
1.340,20.000,32.500,-32.000,-34.500
1.341,20.500,32.500,-31.500,-34.000
1.342,20.500,33.000,-31.000,-33.500
1.343,21.000,33.500,-31.000,-33.500
1.344,21.000,34.000,-30.500,-33.500
1.345,21.000,34.000,-30.000,-33.000
1.346,21.000,34.000,-29.500,-33.000
1.347,21.000,34.500,-29.000,-32.500
1.348,21.000,34.000,-28.500,-32.000
1.349,20.500,34.000,-28.500,-32.000
1.350,20.500,34.000,-28.500,-31.500
1.351,20.500,34.000,-28.500,-31.500
1.352,20.500,34.000,-28.500,-31.500
1.353,21.000,34.500,-28.500,-32.000
1.354,21.000,34.500,-28.500,-32.500
1.355,21.000,34.500,-29.000,-33.000
1.356,21.000,34.500,-29.000,-33.000
1.357,21.000,34.500,-29.000,-33.500
1.358,21.000,34.500,-29.500,-33.500
1.359,21.000,34.500,-29.500,-33.500
1.360,21.000,34.500,-29.500,-34.000
1.361,21.000,34.500,-29.500,-34.500
1.362,21.500,34.500,-29.500,-35.000
1.363,21.500,34.500,-30.000,-35.500
1.364,21.500,34.500,-30.000,-36.000
1.365,21.500,34.500,-30.000,-36.500
1.366,21.500,34.500,-30.000,-36.500
1.367,21.000,34.500,-30.000,-36.500
1.368,21.000,34.000,-30.000,-36.000
1.369,20.500,34.000,-29.500,-35.500
1.370,20.500,33.500,-29.500,-35.500
1.371,20.500,33.500,-29.500,-35.000
1.372,20.000,33.000,-29.500,-34.500
1.373,20.000,33.000,-29.500,-34.000
1.374,19.500,32.500,-29.000,-34.000
1.375,19.500,32.500,-29.000,-33.500
1.376,19.000,32.500,-29.000,-33.500
1.377,19.000,32.500,-29.000,-33.500
1.378,19.000,32.500,-28.500,-33.000
1.379,19.000,33.000,-28.500,-33.000
1.380,19.000,33.000,-28.000,-33.000
1.381,19.500,33.500,-27.500,-33.000
1.382,19.500,34.000,-27.500,-33.000
1.383,20.000,35.000,-27.000,-33.500
1.384,20.500,35.500,-26.000,-33.000
1.385,20.500,35.500,-25.500,-33.000
1.386,20.500,35.500,-25.000,-32.500
1.387,20.000,35.500,-24.500,-32.000
1.388,20.000,35.500,-24.500,-32.000
1.389,20.000,35.000,-24.500,-32.500
1.390,20.000,35.000,-25.000,-32.500
1.391,19.500,35.000,-25.000,-33.000
1.392,19.500,35.000,-25.000,-33.000
1.393,19.000,35.000,-25.000,-32.500
1.394,19.000,35.000,-24.500,-31.500
1.395,18.500,35.000,-24.500,-30.500
1.396,18.500,35.000,-24.000,-29.500
1.397,18.500,35.000,-24.000,-28.500
1.398,18.500,35.500,-23.500,-28.000
1.399,18.500,36.000,-22.500,-27.500
1.400,19.000,36.500,-22.000,-27.000
1.401,19.500,37.000,-21.500,-27.000
1.402,19.500,37.500,-21.000,-26.500
1.403,19.500,37.500,-21.000,-26.500
1.404,19.500,37.500,-21.000,-26.500
1.405,19.500,38.000,-21.000,-26.500
1.406,20.000,38.500,-21.000,-26.500
1.407,20.500,39.000,-20.500,-27.000
1.408,21.000,39.500,-20.000,-27.500
1.409,21.500,40.500,-19.500,-28.000
1.410,21.500,41.000,-19.000,-28.000
1.411,21.500,41.000,-18.500,-27.500
1.412,21.500,41.000,-18.000,-27.000
1.413,22.000,41.000,-17.500,-26.500
1.414,22.000,41.500,-17.000,-26.000
1.415,22.500,41.500,-16.500,-25.500
1.416,22.500,41.000,-16.000,-25.500
1.417,22.500,41.000,-16.000,-25.000
1.418,22.500,41.000,-15.500,-24.500
1.419,22.500,41.000,-15.500,-24.000
1.420,22.500,41.000,-15.500,-24.000
1.421,22.500,41.000,-15.500,-23.500
1.422,22.500,41.500,-15.500,-23.000
1.423,22.500,41.500,-15.500,-23.000
1.424,22.500,42.000,-15.000,-22.500
1.425,22.500,42.500,-14.500,-22.000
1.426,23.000,43.000,-14.500,-21.500
1.427,23.000,43.500,-14.000,-21.500
1.428,23.000,44.000,-13.500,-21.000
1.429,23.000,44.000,-13.000,-21.000
1.430,23.000,44.000,-13.000,-21.000
1.431,23.000,44.000,-13.000,-21.500
1.432,23.000,43.500,-13.000,-21.500
1.433,23.000,43.500,-13.500,-21.500
1.434,23.000,43.500,-14.000,-21.500
1.435,23.000,43.500,-14.000,-22.000
1.436,23.000,43.500,-14.500,-22.000
1.437,23.000,43.500,-15.000,-22.500
1.438,23.000,43.500,-15.000,-22.500
1.439,23.500,44.000,-14.500,-22.500
1.440,23.500,44.000,-14.000,-22.500
1.441,24.000,44.500,-13.500,-22.000
1.442,24.000,44.500,-13.000,-21.500
1.443,24.000,45.000,-12.500,-21.000
1.444,24.000,45.000,-12.500,-21.000
1.445,24.000,45.000,-12.500,-20.500
1.446,24.000,45.500,-12.000,-20.000
1.447,24.000,45.500,-12.000,-19.500
1.448,24.000,45.500,-11.500,-19.500
1.449,24.500,46.000,-11.500,-19.500
1.450,24.500,46.000,-11.000,-19.500
1.451,25.000,46.000,-11.000,-19.500
1.452,25.000,46.000,-10.500,-19.000
1.453,25.000,45.500,-11.000,-19.000
1.454,24.500,45.500,-11.000,-18.500
1.455,24.500,45.000,-11.500,-18.500
1.456,24.500,45.000,-11.500,-18.500
1.457,24.500,45.000,-12.000,-18.500
1.458,25.000,45.000,-12.000,-19.000
1.459,25.000,45.000,-11.500,-19.500
1.460,25.500,45.000,-11.500,-20.000
1.461,26.000,45.500,-11.500,-21.000
1.462,26.500,45.500,-11.500,-21.500
1.463,27.000,45.500,-11.500,-21.500
1.464,27.000,45.500,-11.500,-21.500
1.465,27.000,46.000,-11.000,-21.000
1.466,27.000,46.000,-10.500,-21.000
1.467,27.000,46.500,-10.500,-20.500
1.468,27.000,46.500,-10.000,-20.000
1.469,27.000,47.000,-9.500,-20.000
1.470,26.500,47.000,-9.500,-19.500
1.471,26.500,47.000,-9.500,-20.000
1.472,26.500,46.500,-10.000,-20.000
1.473,26.500,46.000,-10.500,-20.500
1.474,26.500,46.000,-11.000,-21.000
1.475,26.500,46.000,-11.500,-21.000
1.476,27.000,46.000,-11.500,-21.500
1.477,27.000,46.000,-11.500,-21.500
1.478,27.500,46.000,-11.000,-21.000
1.479,28.000,46.000,-11.000,-20.500
1.480,28.000,46.500,-10.500,-20.000
1.481,28.000,46.500,-10.000,-20.000
1.482,28.000,47.000,-10.000,-19.500
1.483,28.500,47.000,-10.000,-19.500
1.484,28.500,47.000,-10.000,-19.000
1.485,28.000,47.000,-10.000,-19.000
1.486,28.000,46.500,-10.500,-19.000
1.487,27.500,46.000,-11.000,-19.000
1.488,27.500,45.500,-11.500,-19.000
1.489,27.500,45.000,-11.500,-19.000
1.490,27.000,44.500,-11.500,-19.000
1.491,27.000,44.500,-11.500,-19.000
1.492,27.000,44.500,-11.000,-18.500
1.493,27.500,44.500,-10.500,-18.500
1.494,27.500,44.500,-10.500,-18.500
1.495,27.500,45.000,-10.000,-18.500
1.496,28.000,45.500,-10.000,-19.000
1.497,28.000,45.500,-9.500,-19.500
1.498,28.500,46.000,-9.500,-19.500
1.499,28.500,46.000,-9.500,-19.500
1.500,28.500,46.000,-9.500,-19.000
1.501,28.500,46.000,-9.500,-19.000
1.502,28.500,45.500,-9.500,-19.000
1.503,28.500,45.500,-9.500,-19.000
1.504,28.500,46.000,-9.000,-19.000
1.505,28.500,46.000,-9.000,-19.000
1.506,29.000,46.500,-8.500,-19.000
1.507,29.000,46.500,-8.000,-19.000
1.508,29.500,47.000,-7.500,-19.000
1.509,29.500,47.000,-7.000,-19.000
1.510,30.000,47.000,-7.000,-19.000
1.511,30.000,46.500,-7.000,-19.000
1.512,30.000,46.500,-7.500,-19.500
1.513,29.500,46.000,-7.500,-19.500
1.514,29.500,46.000,-8.000,-19.500
1.515,29.500,46.000,-8.000,-20.000
1.516,29.500,46.000,-8.000,-20.000
1.517,29.500,46.000,-8.000,-20.500
1.518,30.000,46.000,-8.000,-20.500
1.519,30.000,46.500,-7.500,-20.500
1.520,30.500,46.500,-7.500,-20.000
1.521,30.500,46.500,-7.500,-19.500
1.522,30.500,46.500,-7.000,-19.000
1.523,30.500,46.500,-7.000,-18.500
1.524,30.500,46.500,-6.500,-17.500
1.525,30.500,47.000,-6.000,-16.500
1.526,31.000,47.500,-5.500,-15.500
1.527,31.000,48.000,-5.000,-15.000
1.528,31.500,48.000,-4.500,-14.500
1.529,31.500,48.500,-4.500,-14.500
1.530,32.000,48.500,-4.500,-14.500
1.531,32.000,48.500,-4.500,-15.000
1.532,32.000,48.000,-5.000,-15.500
1.533,32.000,48.000,-5.500,-16.000
1.534,32.000,48.000,-5.500,-16.000
1.535,32.000,48.500,-5.500,-16.500
1.536,32.500,49.000,-5.000,-16.000
1.537,33.000,49.500,-4.500,-16.000
1.538,34.000,50.000,-4.000,-15.500
1.539,34.500,51.000,-3.000,-14.500
1.540,35.000,52.000,-1.500,-13.500
1.541,36.000,52.500,-0.500,-12.500
1.542,36.000,53.500,1.000,-11.000
1.543,36.500,54.000,2.000,-10.000
1.544,36.500,54.500,2.500,-8.500
1.545,36.500,54.500,3.000,-8.000
1.546,36.500,54.500,3.500,-7.500
1.547,36.500,54.000,3.000,-7.000
1.548,36.500,53.500,3.000,-7.500
1.549,36.000,53.000,2.500,-7.500
1.550,36.000,52.500,2.000,-8.000
1.551,35.500,52.000,1.000,-8.500
1.552,35.000,51.500,0.500,-9.000
1.553,35.000,51.000,-0.500,-9.000
1.554,35.000,51.000,-1.000,-9.500
1.555,35.000,51.000,-1.000,-9.500
1.556,35.500,51.500,-0.500,-9.000
1.557,36.000,52.000,0.500,-8.500
1.558,36.500,52.500,1.500,-8.500
1.559,37.000,53.000,2.500,-8.000
1.560,37.500,53.000,3.000,-8.000
1.561,37.500,53.000,3.000,-7.000
1.562,37.500,53.500,3.500,-6.000
1.563,38.000,53.500,4.000,-5.000
1.564,38.000,54.000,4.500,-4.500
1.565,38.000,54.500,5.000,-4.500
1.566,38.000,54.500,5.500,-5.000
1.567,38.000,54.500,5.500,-5.000
1.568,38.000,54.500,5.000,-5.500
1.569,38.000,54.000,5.000,-6.000
1.570,37.500,53.500,4.500,-6.500
1.571,37.500,53.000,4.000,-6.500
1.572,37.000,52.500,4.000,-6.500
1.573,37.000,52.500,4.000,-6.500
1.574,37.500,52.500,4.000,-6.000
1.575,37.500,53.000,4.500,-6.000
1.576,38.000,53.500,5.000,-6.500
1.577,38.500,54.000,5.500,-7.500
1.578,39.000,55.000,6.000,-8.000
1.579,40.000,55.500,6.500,-7.500
1.580,40.000,56.000,7.000,-7.000
1.581,40.500,56.500,8.000,-6.500
1.582,41.000,56.500,8.500,-5.500
1.583,41.000,57.000,8.500,-5.500
1.584,41.000,57.000,8.500,-5.000
1.585,41.000,57.000,8.500,-4.500
1.586,41.000,57.000,8.500,-4.000
1.587,41.000,57.000,8.500,-3.500
1.588,41.000,57.000,8.500,-3.000
1.589,41.000,57.000,8.500,-2.000
1.590,41.000,57.500,8.500,-1.500
1.591,41.500,57.500,9.000,-0.500
1.592,41.500,58.000,9.500,0.500
1.593,41.500,58.500,10.000,1.000
1.594,41.500,58.500,10.500,1.500
1.595,41.500,58.500,10.500,2.500
1.596,41.500,58.500,11.000,3.000
1.597,41.500,58.000,11.000,3.500
1.598,41.500,58.000,11.000,4.000
1.599,42.000,58.000,11.000,4.500
1.600,42.500,58.000,11.500,5.000
1.601,43.000,58.500,11.500,5.500
1.602,43.500,59.500,12.000,6.000
1.603,44.000,60.000,13.000,6.000
1.604,44.500,60.500,13.500,7.000
1.605,45.000,61.500,15.000,7.500
1.606,45.500,62.000,16.000,8.500
1.607,46.500,63.000,17.000,9.000
1.608,46.500,63.000,18.000,9.500
1.609,47.000,63.000,18.000,10.000
1.610,46.500,62.500,18.000,10.000
1.611,46.000,61.500,17.000,10.000
1.612,45.000,60.500,16.000,9.500
1.613,43.500,58.500,14.000,8.500
1.614,42.000,56.500,12.000,7.500
1.615,39.500,53.500,9.000,6.000
1.616,36.500,50.000,5.500,4.500
1.617,33.500,46.000,2.500,2.500
1.618,31.000,43.000,-0.500,1.000
1.619,29.000,40.500,-2.500,-0.500
1.620,28.000,39.000,-3.500,-1.000
1.621,28.000,38.500,-3.500,-1.000
1.622,28.500,39.000,-2.500,-0.500
1.623,30.000,41.000,-1.000,0.500
1.624,32.000,43.500,1.500,1.500
1.625,34.500,46.500,4.500,3.500
1.626,37.500,50.000,8.000,6.000
1.627,41.000,54.000,12.000,8.500
1.628,44.500,58.500,16.000,11.500
1.629,48.000,62.500,20.000,14.500
1.630,51.000,66.500,23.500,17.000
1.631,53.500,69.500,26.000,19.000
1.632,55.500,72.000,28.000,20.000
1.633,56.500,73.500,29.000,21.000
1.634,57.000,74.000,29.000,21.000
1.635,57.000,73.500,28.500,20.500
1.636,56.000,72.000,27.500,20.000
1.637,54.500,70.500,26.500,19.500
1.638,53.000,68.500,25.000,19.000
1.639,52.000,67.000,24.000,19.000
1.640,50.500,66.000,23.000,19.000
1.641,50.000,65.000,22.500,19.000
1.642,49.500,64.500,22.500,19.500
1.643,49.000,64.500,22.500,19.500
1.644,48.500,64.500,22.500,19.500
1.645,48.500,64.000,22.500,19.000
1.646,48.500,64.000,22.000,18.500
1.647,49.000,64.000,22.000,18.000
1.648,49.000,64.500,21.500,17.000
1.649,49.500,64.500,21.500,16.500
1.650,49.500,65.000,21.500,16.500
1.651,50.000,65.000,21.500,16.500
1.652,50.000,65.500,22.000,17.000
1.653,50.000,65.500,22.000,17.500
1.654,50.000,65.500,22.500,18.000
1.655,50.500,65.500,22.500,18.500
1.656,50.500,66.000,23.000,19.500
1.657,51.000,66.000,23.500,20.000
1.658,51.000,66.000,24.000,20.500
1.659,51.000,66.000,24.000,21.000
1.660,50.500,66.000,24.000,21.500
1.661,50.500,66.000,24.000,21.500
1.662,50.500,66.000,24.500,21.500
1.663,50.500,66.500,24.500,21.500
1.664,50.500,66.500,24.500,22.000
1.665,50.500,66.500,24.500,22.000
1.666,50.000,66.500,25.000,22.500
1.667,50.000,66.500,25.000,22.500
1.668,50.000,66.500,25.000,23.000
1.669,50.000,66.500,25.500,23.000
1.670,49.500,66.500,25.500,23.500
1.671,49.500,66.500,25.500,23.500
1.672,50.000,66.500,25.500,23.500
1.673,50.000,66.500,25.500,23.500
1.674,50.500,66.500,25.500,23.500
1.675,51.000,66.500,25.500,23.000
1.676,51.000,67.000,25.500,23.000
1.677,51.000,67.000,25.500,23.500
1.678,51.000,67.000,26.000,24.000
1.679,51.000,67.000,26.000,24.500
1.680,51.000,67.000,26.000,25.000
1.681,51.000,67.500,26.500,25.500
1.682,51.500,67.500,27.000,26.000
1.683,51.500,67.500,27.000,26.000
1.684,51.500,67.500,27.500,26.000
1.685,52.000,68.000,28.000,26.000
1.686,52.000,68.500,28.500,26.000
1.687,52.500,69.000,29.000,26.500
1.688,52.500,69.000,29.500,26.500
1.689,52.500,69.000,29.500,27.000
1.690,52.500,68.500,29.500,27.000
1.691,52.000,68.500,29.500,26.500
1.692,52.000,68.000,29.000,26.500
1.693,52.000,68.000,29.000,26.500
1.694,52.000,68.000,29.000,26.500
1.695,52.000,68.000,28.500,26.500
1.696,52.000,68.000,28.500,26.500
1.697,52.000,68.000,28.500,27.000
1.698,52.000,68.500,29.000,27.500
1.699,52.500,69.000,29.500,28.000
1.700,53.000,69.000,30.500,28.500
1.701,53.000,69.500,31.000,29.000
1.702,53.500,69.500,31.500,29.000
1.703,54.000,70.000,32.000,29.500
1.704,54.500,70.500,32.500,30.000
1.705,54.500,70.500,33.000,30.000
1.706,54.500,71.000,33.000,30.000
1.707,54.500,71.000,33.000,30.500
1.708,54.500,70.500,33.000,30.500
1.709,54.000,70.000,32.500,31.000
1.710,53.500,70.000,32.500,31.000
1.711,53.000,69.500,32.000,31.500
1.712,53.000,69.500,32.000,31.500
1.713,53.000,69.500,32.500,32.000
1.714,53.500,69.500,32.500,32.000
1.715,53.500,69.500,33.000,32.500
1.716,54.000,70.000,34.000,33.500
1.717,54.500,70.500,34.500,34.500
1.718,54.500,71.500,35.500,35.000
1.719,55.500,72.500,36.000,34.500
1.720,56.000,73.000,36.500,34.000
1.721,56.500,73.500,36.500,33.000
1.722,56.500,73.500,36.500,32.500
1.723,56.500,73.500,36.500,32.000
1.724,56.500,73.500,36.500,32.000
1.725,56.500,73.500,36.500,32.500
1.726,56.500,73.000,36.500,33.000
1.727,56.500,73.000,37.000,33.500
1.728,56.500,72.500,37.000,34.500
1.729,56.500,72.500,37.500,35.000
1.730,56.500,72.500,37.500,35.500
1.731,56.000,72.500,37.500,36.500
1.732,56.000,72.000,38.000,37.000
1.733,56.000,72.000,38.000,38.000
1.734,56.000,72.000,38.500,38.500
1.735,56.000,72.000,38.500,38.500
1.736,56.000,72.000,39.000,39.000
1.737,56.500,72.500,39.000,39.500
1.738,57.000,72.500,39.500,40.000
1.739,57.500,73.000,40.000,41.000
1.740,57.500,73.500,40.500,42.000
1.741,58.000,74.000,41.500,42.500
1.742,58.000,74.000,42.000,43.000
1.743,58.500,74.500,42.500,43.000
1.744,59.000,75.000,43.000,43.000
1.745,59.000,75.000,43.500,43.000
1.746,59.000,75.500,44.000,43.000
1.747,59.000,75.500,44.500,43.000
1.748,59.000,75.500,44.500,42.500
1.749,59.000,75.500,44.500,42.500
1.750,59.000,75.000,44.500,42.000
1.751,59.000,75.000,44.000,41.500
1.752,59.000,75.000,44.000,41.500
1.753,59.500,75.500,44.000,41.500
1.754,59.500,75.500,44.000,41.500
1.755,59.500,75.500,44.000,42.000
1.756,60.000,76.000,44.500,42.500
1.757,60.000,76.000,45.000,43.000
1.758,60.500,76.500,45.500,43.500
1.759,61.000,77.000,46.000,44.000
1.760,61.500,77.500,46.500,44.000
1.761,61.500,78.000,47.000,44.000
1.762,62.000,78.500,47.500,44.500
1.763,62.000,79.000,48.000,44.500
1.764,62.000,79.500,49.000,45.000
1.765,62.500,80.000,49.500,45.500
1.766,62.500,80.000,50.000,45.500
1.767,62.500,80.500,50.500,46.000
1.768,62.500,80.500,50.500,46.000
1.769,62.000,80.500,50.500,46.000
1.770,62.000,80.500,50.500,45.500
1.771,62.000,80.000,50.000,45.500
1.772,62.000,80.000,50.000,45.500
1.773,62.000,79.500,50.000,45.500
1.774,62.000,79.500,49.500,45.500
1.775,62.000,79.500,50.000,45.500
1.776,62.000,79.500,50.000,45.500
1.777,62.000,80.000,50.000,46.000
1.778,62.500,80.000,50.500,46.000
1.779,62.500,80.500,51.000,46.500
1.780,62.500,80.500,51.000,47.000
1.781,62.000,80.500,51.500,47.000
1.782,62.000,80.500,51.500,47.500
1.783,61.500,80.000,51.500,48.000
1.784,61.500,80.000,52.000,48.500
1.785,61.500,80.000,52.000,49.000
1.786,62.000,80.500,52.500,49.500
1.787,62.500,81.000,53.000,49.500
1.788,63.000,81.000,53.500,49.500
1.789,63.500,81.500,54.000,49.500
1.790,64.000,82.000,54.500,49.000
1.791,64.500,82.000,54.500,49.000
1.792,64.500,82.000,55.000,49.000
1.793,64.500,82.000,55.000,48.500
1.794,64.500,82.000,55.000,48.500
1.795,65.000,82.000,54.500,48.000
1.796,65.000,82.000,54.500,48.000
1.797,64.500,81.500,54.500,48.000
1.798,64.500,81.500,54.500,48.000
1.799,64.500,81.500,54.500,48.000
1.800,65.000,82.000,55.000,48.000
1.801,65.000,82.500,55.500,48.000
1.802,65.500,83.000,56.000,48.000
1.803,66.000,83.000,56.500,48.500
1.804,66.000,83.500,57.000,49.000
1.805,66.000,83.500,57.500,50.000
1.806,66.000,83.000,58.000,50.500
1.807,66.000,83.000,58.500,51.000
1.808,66.000,83.000,58.500,51.000
1.809,66.000,83.000,58.000,50.500
1.810,65.500,82.500,57.500,50.500
1.811,65.000,82.000,57.500,50.000
1.812,64.500,81.500,57.000,50.000
1.813,64.500,81.500,57.000,50.000
1.814,64.500,81.500,57.000,50.500
1.815,64.500,82.000,57.500,51.000
1.816,65.000,82.000,58.000,51.000
1.817,65.000,82.500,58.000,51.000
1.818,65.500,82.500,58.500,51.500
1.819,66.000,82.500,59.000,51.500
1.820,66.000,83.000,59.000,51.500
1.821,66.000,83.000,59.500,51.500
1.822,65.500,83.000,59.500,51.500
1.823,65.500,82.500,59.500,51.500
1.824,65.000,82.500,59.000,50.500
1.825,64.500,82.000,58.500,49.500
1.826,64.000,81.500,58.000,48.500
1.827,63.500,80.500,57.000,47.000
1.828,62.500,80.000,56.000,45.500
1.829,61.500,78.500,54.500,44.500
1.830,60.500,77.000,53.500,43.500
1.831,59.000,75.500,52.000,42.500
1.832,57.500,74.000,50.500,41.500
1.833,56.000,72.000,49.500,40.500
1.834,54.500,70.500,48.000,39.500
1.835,53.500,69.500,47.000,39.000
1.836,52.000,68.500,46.000,38.500
1.837,51.000,67.500,45.500,38.500
1.838,49.500,66.500,45.000,38.500
1.839,48.500,65.500,44.500,39.000
1.840,47.500,64.500,44.500,40.000
1.841,46.000,63.000,44.000,41.000
1.842,44.500,62.500,44.000,43.000
1.843,44.000,62.000,44.500,44.000
1.844,43.500,62.000,45.000,45.000
1.845,43.500,62.500,45.500,45.000
1.846,43.000,63.000,46.500,45.500
1.847,42.500,63.000,47.500,47.000
1.848,42.000,63.000,48.500,49.000
1.849,41.000,63.000,49.000,51.500
1.850,40.500,62.500,49.500,53.500
1.851,39.500,62.500,50.000,55.000
1.852,39.500,62.500,50.500,56.000
1.853,40.000,63.000,51.000,56.500
1.854,40.500,63.500,51.500,57.000
1.855,41.500,64.000,52.500,58.000
1.856,43.000,65.500,54.000,59.500
1.857,45.000,67.500,56.000,61.500
1.858,47.500,70.000,59.000,64.000
1.859,50.500,73.500,62.000,66.500
1.860,54.500,77.000,65.500,68.500
1.861,58.000,80.500,68.500,71.000
1.862,62.000,84.000,72.000,72.500
1.863,65.500,87.500,75.000,74.000
1.864,69.500,91.000,78.000,75.500
1.865,73.500,94.500,81.000,76.500
1.866,77.000,98.000,84.000,78.000
1.867,80.000,100.000,86.000,79.000
1.868,82.000,102.000,87.000,79.500
1.869,83.500,103.000,88.000,79.500
1.870,84.000,103.500,88.000,79.500
1.871,84.500,103.500,87.500,78.500
1.872,84.500,102.500,86.500,77.000
1.873,83.500,101.500,85.500,75.500
1.874,82.500,100.000,84.000,74.000
1.875,81.000,98.500,82.000,72.500
1.876,79.000,96.500,80.500,71.000
1.877,77.000,94.500,78.500,69.500
1.878,75.500,93.000,76.500,68.000
1.879,73.500,91.500,74.500,66.500
1.880,72.000,90.000,73.000,65.000
1.881,70.500,89.000,72.000,64.000
1.882,69.500,88.000,71.000,63.000
1.883,68.500,87.000,70.000,62.000
1.884,67.500,86.000,69.000,61.000
1.885,66.500,85.000,68.000,60.000
1.886,65.500,84.000,67.000,59.500
1.887,65.000,83.500,66.500,59.500
1.888,64.000,82.500,66.000,59.500
1.889,63.500,82.000,65.500,59.500
1.890,63.000,81.500,65.000,59.500
1.891,63.000,81.000,64.500,59.500
1.892,62.500,80.500,64.000,59.500
1.893,62.500,80.000,63.500,59.000
1.894,62.500,79.500,63.000,58.500
1.895,62.500,79.500,63.000,58.000
1.896,62.500,79.500,63.000,58.000
1.897,62.500,79.500,63.000,58.500
1.898,62.500,80.000,63.500,59.000
1.899,63.000,80.000,64.000,59.000
1.900,63.500,80.500,65.000,59.000
1.901,64.000,81.000,65.500,58.500
1.902,64.000,81.500,66.000,58.500
1.903,64.500,82.000,66.500,59.000
1.904,64.500,82.000,67.000,59.500
1.905,64.000,82.000,67.000,60.500
1.906,64.000,82.000,67.000,61.000
1.907,64.000,82.000,67.500,61.500
1.908,64.000,81.500,67.500,61.500
1.909,64.000,81.500,67.500,61.000
1.910,64.000,81.500,67.000,61.000
1.911,64.000,81.500,67.000,60.500
1.912,64.000,81.000,66.500,60.500
1.913,64.000,81.000,66.500,60.500
1.914,63.500,80.500,66.000,60.500
1.915,63.500,80.000,66.000,60.500
1.916,63.000,80.000,66.000,60.500
1.917,63.000,80.000,66.500,61.000
1.918,63.500,80.500,67.000,61.000
1.919,64.000,81.000,67.500,61.500
1.920,64.000,81.500,68.500,62.000
1.921,64.500,82.000,69.000,62.000
1.922,64.500,82.500,69.500,62.500
1.923,64.500,82.500,69.500,62.500
1.924,64.500,82.500,70.000,62.000
1.925,65.000,83.000,70.000,62.000
1.926,65.000,83.000,70.000,62.000
1.927,65.000,83.000,70.000,61.500
1.928,65.000,83.000,70.000,61.500
1.929,65.000,82.500,69.500,61.500
1.930,64.500,82.500,69.500,61.500
1.931,64.500,82.000,69.000,62.000
1.932,64.000,81.500,69.000,62.000
1.933,64.000,81.500,69.500,62.500
1.934,64.500,81.500,69.500,62.500
1.935,65.000,81.500,69.500,62.000
1.936,65.500,82.000,69.500,61.500
1.937,65.500,82.000,69.500,61.000
1.938,65.500,82.000,69.500,61.000
1.939,65.500,81.500,69.500,61.000
1.940,66.000,81.500,69.500,61.500
1.941,66.000,81.000,69.500,61.500
1.942,66.000,81.000,70.000,61.500
1.943,66.000,81.000,70.000,62.000
1.944,66.000,81.000,70.500,62.500
1.945,66.000,81.000,70.500,62.500
1.946,65.500,81.000,70.500,63.000
1.947,65.500,81.000,71.000,63.000
1.948,65.000,81.000,71.000,63.500
1.949,65.000,80.500,71.000,63.500
1.950,64.500,80.500,70.500,63.500
1.951,64.000,80.000,70.500,64.000
1.952,63.500,79.500,70.000,64.000
1.953,63.500,79.000,70.000,64.500
1.954,63.500,78.500,70.000,64.500
1.955,63.500,78.000,70.000,64.500
1.956,64.000,78.500,70.000,64.000
1.957,64.500,78.500,70.500,63.000
1.958,65.000,79.000,70.500,62.500
1.959,65.000,79.500,70.500,61.500
1.960,65.000,79.500,70.500,61.500
1.961,65.000,79.500,70.500,61.500
1.962,65.000,79.500,70.500,61.500
1.963,65.500,79.500,71.000,61.000
1.964,65.500,79.500,71.000,61.000
1.965,65.500,79.500,71.500,60.500
1.966,65.500,79.500,72.000,60.500
1.967,65.500,79.500,72.000,60.500
1.968,65.000,79.500,72.500,60.500
1.969,65.000,79.000,72.500,60.500
1.970,64.500,78.500,72.000,60.500
1.971,64.000,78.500,72.000,60.000
1.972,63.500,78.000,72.000,60.000
1.973,63.500,78.000,72.000,60.500
1.974,64.000,78.000,72.000,60.500
1.975,64.000,78.500,72.500,60.500
1.976,64.500,79.000,73.000,60.500
1.977,65.000,79.500,73.000,60.000
1.978,65.500,80.000,73.000,60.000
1.979,65.500,80.000,73.500,60.500
1.980,65.500,80.000,73.500,61.000
1.981,65.500,80.000,74.000,61.000
1.982,65.500,80.000,74.000,61.000
1.983,65.500,79.500,74.000,60.500
1.984,64.500,79.000,73.500,60.000
1.985,64.000,78.000,73.000,59.000
1.986,62.500,76.500,71.500,58.000
1.987,60.000,74.000,69.500,56.500
1.988,57.500,71.000,67.000,54.500
1.989,55.000,67.500,64.500,53.000
1.990,52.500,64.000,62.000,52.000
1.991,50.000,61.500,60.000,51.000
1.992,48.500,59.000,58.000,50.000
1.993,47.000,58.000,57.000,49.500
1.994,46.500,57.000,56.500,49.500
1.995,46.500,57.000,56.500,49.000
1.996,47.000,58.000,57.000,49.500
1.997,48.500,60.000,59.000,50.000
1.998,50.500,62.500,61.500,51.000
1.999,53.000,66.000,64.500,53.000
2.000,56.500,69.500,68.500,55.000
2.001,59.500,74.000,72.000,57.500
2.002,63.000,78.000,76.000,59.500
2.003,65.500,81.000,79.000,61.500
2.004,67.500,83.500,81.000,62.500
2.005,68.500,85.500,82.000,63.500
2.006,68.500,86.000,82.500,63.500
2.007,68.000,85.500,82.000,63.500
2.008,66.500,84.000,81.000,63.000
2.009,65.000,82.500,79.000,61.500
2.010,63.500,80.500,77.000,59.500
2.011,62.000,78.500,75.000,57.500
2.012,60.500,76.000,73.500,56.500
2.013,59.000,74.500,72.000,55.500
2.014,58.000,73.000,71.000,55.500
2.015,57.500,71.500,70.500,55.500
2.016,56.500,71.000,70.500,56.000
2.017,56.500,70.500,70.500,57.000
2.018,56.500,70.500,70.500,57.500
2.019,56.500,70.500,71.000,58.000
2.020,56.500,71.000,71.000,58.000
2.021,56.500,71.000,71.500,58.000
2.022,56.500,71.500,71.500,58.000
2.023,56.000,71.500,72.000,57.500
2.024,56.000,72.000,72.000,56.500
2.025,56.000,72.000,72.000,56.000
2.026,56.000,72.000,72.000,56.000
2.027,55.500,72.000,72.000,56.000
2.028,55.500,71.500,72.000,56.500
2.029,55.500,71.500,71.500,56.500
2.030,55.500,71.000,71.500,56.000
2.031,55.500,71.000,71.000,55.500
2.032,55.500,70.500,71.000,55.000
2.033,55.500,70.500,71.000,55.000
2.034,55.000,70.000,71.000,54.500
2.035,55.000,70.000,71.000,55.000
2.036,55.000,70.000,71.000,55.000
2.037,55.000,70.500,71.000,55.500
2.038,55.000,70.500,71.500,56.000
2.039,55.500,71.000,72.000,56.500
2.040,55.500,71.500,72.500,57.000
2.041,56.000,72.000,73.000,57.000
2.042,56.500,72.500,73.500,57.500
2.043,56.500,73.000,74.000,57.500
2.044,56.500,73.500,74.500,58.000
2.045,56.500,74.000,75.000,58.000
2.046,56.500,74.000,75.000,58.000
2.047,56.500,74.000,75.500,58.000
2.048,56.000,74.000,75.500,58.000
2.049,55.500,73.500,75.500,58.500
2.050,55.500,73.500,75.500,59.000
2.051,55.500,73.000,75.000,59.000
2.052,55.500,73.000,75.000,59.000
2.053,55.500,73.000,75.000,58.500
2.054,55.000,73.000,74.500,58.000
2.055,55.000,72.500,74.000,57.500
2.056,55.000,72.500,74.000,57.000
2.057,55.000,72.500,73.500,56.500
2.058,55.500,72.500,73.500,56.000
2.059,55.500,73.000,74.000,55.500
2.060,56.000,73.000,74.000,55.500
2.061,56.000,73.500,74.500,56.000
2.062,56.000,73.500,75.000,56.000
2.063,55.500,74.000,75.000,56.500
2.064,55.500,74.000,75.500,57.000
2.065,55.500,74.000,75.500,57.500
2.066,55.000,74.000,75.500,58.000
2.067,55.000,73.500,75.500,58.000
2.068,54.500,73.000,75.500,58.500
2.069,54.000,72.500,75.000,58.500
2.070,53.500,72.000,75.000,59.000
2.071,53.000,71.500,74.500,59.500
2.072,53.000,71.500,74.500,60.500
2.073,53.000,71.500,75.000,60.500
2.074,53.500,72.000,75.000,60.000
2.075,54.000,73.000,75.500,58.500
2.076,54.500,73.500,76.000,57.500
2.077,55.000,74.000,76.000,56.500
2.078,55.000,74.000,76.000,56.500
2.079,55.000,74.000,76.000,57.000
2.080,55.000,74.500,76.500,58.000
2.081,55.500,74.500,77.000,58.500
2.082,55.500,75.000,77.500,59.000
2.083,55.500,75.500,78.000,59.500
2.084,56.000,75.500,78.500,59.500
2.085,56.000,75.500,78.500,59.500
2.086,56.000,75.500,78.500,60.000
2.087,55.500,75.500,78.500,60.000
2.088,55.500,75.000,78.500,59.500
2.089,55.000,75.000,78.000,59.500
2.090,54.500,74.500,77.500,59.000
2.091,54.500,74.000,77.000,58.500
2.092,54.000,74.000,76.500,58.500
2.093,53.500,73.500,76.000,58.500
2.094,53.500,73.500,76.000,58.500
2.095,53.000,73.000,75.500,58.500
2.096,53.000,73.000,75.000,58.500
2.097,52.500,72.500,75.000,59.000
2.098,52.000,72.500,74.500,59.000
2.099,51.500,72.500,74.500,59.000
2.100,51.500,72.500,74.500,59.500
2.101,51.500,72.500,74.500,60.000
2.102,51.000,72.500,75.000,61.000
2.103,51.000,72.500,75.000,61.500
2.104,51.500,72.500,75.500,62.500
2.105,51.500,72.500,75.500,63.000
2.106,51.000,72.500,75.500,63.000
2.107,51.000,72.000,75.500,63.000
2.108,50.500,71.500,75.000,63.000
2.109,50.000,71.500,74.500,63.000
2.110,50.000,71.000,74.500,62.500
2.111,50.000,71.000,74.000,62.000
2.112,50.000,71.000,73.500,60.500
2.113,50.500,70.500,73.000,59.500
2.114,50.500,70.000,72.500,58.000
2.115,50.000,69.500,71.500,57.000
2.116,50.000,69.500,71.000,56.500
2.117,49.500,69.000,70.500,56.500
2.118,49.500,69.000,70.500,56.500
2.119,49.500,69.000,70.500,57.000
2.120,49.500,69.000,70.500,57.500
2.121,49.500,69.000,70.500,57.500
2.122,49.500,68.500,70.500,58.000
2.123,49.500,68.500,70.500,58.000
2.124,49.500,68.500,70.500,58.000
2.125,49.500,68.500,70.500,57.500
2.126,49.500,68.500,70.000,57.000
2.127,49.500,68.500,70.000,56.500
2.128,49.500,68.500,69.500,56.000
2.129,49.500,68.500,69.500,56.000
2.130,49.500,68.000,69.000,55.500
2.131,49.500,68.000,69.000,55.500
2.132,49.500,68.500,69.000,55.500
2.133,50.000,68.500,69.000,56.000
2.134,50.000,68.500,69.000,56.500
2.135,49.500,68.500,69.000,57.000
2.136,49.500,68.500,69.000,57.500
2.137,49.500,69.000,69.000,58.000
2.138,49.500,69.500,69.000,58.500
2.139,49.500,69.500,69.000,59.000
2.140,49.500,70.000,69.500,60.000
2.141,49.500,70.000,70.000,61.000
2.142,50.000,70.000,70.000,61.500
2.143,50.000,70.500,70.500,62.000
2.144,50.000,70.500,70.500,62.000
2.145,50.500,71.000,70.500,61.500
2.146,50.500,71.000,70.500,61.000
2.147,50.500,70.500,70.000,61.000
2.148,50.000,70.000,70.000,61.000
2.149,50.000,70.000,70.000,61.000
2.150,50.000,69.500,70.000,61.000
2.151,50.000,69.500,70.000,61.000
2.152,50.000,69.500,70.000,61.000
2.153,50.000,70.000,70.000,61.000
2.154,50.000,70.000,69.500,61.000
2.155,50.000,70.000,69.500,61.000
2.156,50.500,70.000,69.500,61.000
2.157,50.500,70.000,69.500,61.000
2.158,51.000,70.000,69.500,61.000
2.159,51.500,70.500,69.500,61.000
2.160,51.500,70.500,69.500,61.000
2.161,52.000,70.500,70.000,61.000
2.162,52.000,70.500,70.000,61.500
2.163,52.000,70.500,70.500,61.500
2.164,52.000,70.500,70.500,62.000
2.165,52.000,70.500,71.000,62.500
2.166,52.000,70.500,71.000,63.000
2.167,52.000,70.500,71.000,63.000
2.168,52.000,71.000,71.500,62.500
2.169,52.000,71.000,71.000,62.000
2.170,51.500,71.000,71.000,61.000
2.171,51.500,71.000,70.500,60.500
2.172,51.000,70.500,70.000,60.000
2.173,51.000,70.500,69.500,60.000
2.174,51.000,70.500,69.500,59.500
2.175,51.500,70.500,69.500,59.000
2.176,52.000,71.000,69.500,58.500
2.177,52.000,71.000,69.500,58.500
2.178,52.500,71.000,70.000,58.500
2.179,52.500,71.500,70.500,59.000
2.180,52.500,71.500,71.000,59.500
2.181,52.500,71.500,71.500,60.500
2.182,52.500,72.000,72.000,61.500
2.183,52.000,72.000,72.500,62.000
2.184,52.500,72.000,72.500,61.500
2.185,52.500,72.500,73.000,61.000
2.186,52.500,72.500,73.000,60.000
2.187,52.500,72.500,72.500,59.000
2.188,52.000,72.500,72.500,58.500
2.189,52.000,72.000,72.500,58.000
2.190,51.500,71.500,72.000,58.000
2.191,51.500,71.500,72.000,58.000
2.192,51.000,71.000,72.000,58.000
2.193,50.500,70.500,72.000,58.500
2.194,50.500,70.500,71.500,58.500
2.195,50.000,70.000,71.500,58.500
2.196,50.000,70.000,71.000,58.000
2.197,50.000,70.000,71.000,57.500
2.198,50.000,70.500,71.000,57.500
2.199,50.000,70.500,71.000,57.000
2.200,49.500,70.500,71.000,57.000
2.201,49.500,70.500,71.000,56.500
2.202,49.000,70.500,71.000,56.500
2.203,49.000,70.500,71.000,56.500
2.204,48.500,70.500,71.000,56.500
2.205,48.500,70.500,71.000,56.500
2.206,48.500,70.500,71.500,56.500
2.207,48.500,70.000,71.500,56.500
2.208,48.000,70.000,71.000,56.500
2.209,48.000,69.500,71.000,56.500
2.210,48.000,69.000,70.500,56.500
2.211,48.000,68.500,70.000,56.500
2.212,48.000,68.000,70.000,56.000
2.213,48.000,67.500,69.500,55.500
2.214,47.500,67.000,69.000,55.000
2.215,47.500,67.000,68.500,55.000
2.216,47.000,66.500,68.500,55.000
2.217,46.500,66.500,68.500,55.500
2.218,46.500,66.500,69.000,55.500
2.219,46.500,67.000,69.500,56.000
2.220,46.500,67.000,70.000,56.000
2.221,47.000,67.500,70.000,56.500
2.222,47.000,67.500,70.000,56.500
2.223,47.000,67.500,70.000,56.500
2.224,47.000,67.500,70.000,57.000
2.225,46.500,67.500,70.000,57.000
2.226,46.500,67.000,69.500,57.500
2.227,46.000,67.000,69.500,57.500
2.228,45.500,66.500,69.000,57.500
2.229,45.500,66.500,69.000,58.000
2.230,45.000,66.500,68.500,58.000
2.231,45.000,66.000,68.500,58.500
2.232,45.000,66.000,68.500,58.500
2.233,45.000,66.000,68.500,58.500
2.234,45.000,66.000,68.000,58.500
2.235,45.000,66.000,68.000,58.500
2.236,45.000,66.500,68.000,58.500
2.237,45.000,66.500,68.000,58.500
2.238,45.000,66.500,68.000,58.500
2.239,45.000,66.500,68.000,59.000
2.240,45.000,67.000,68.500,59.000
2.241,45.000,67.000,68.500,59.500
2.242,45.000,67.000,68.500,60.000
2.243,45.000,67.000,69.000,60.500
2.244,45.000,67.000,69.000,61.000
2.245,45.000,66.500,68.500,61.000
2.246,44.500,66.000,68.500,61.000
2.247,44.500,66.000,68.000,61.000
2.248,44.000,65.500,67.500,61.500
2.249,43.500,65.000,67.500,61.500
2.250,43.000,64.500,67.000,62.000
2.251,42.500,64.000,66.500,62.500
2.252,42.500,64.000,66.000,63.000
2.253,42.500,63.500,66.000,63.000
2.254,42.500,64.000,65.500,62.500
2.255,43.000,64.000,65.500,62.000
2.256,43.000,64.000,65.000,61.500
2.257,43.500,64.000,65.000,61.000
2.258,43.500,64.000,64.500,61.000
2.259,43.500,64.000,64.500,61.500
2.260,44.000,64.000,65.000,62.000
2.261,44.000,64.000,65.000,62.000
2.262,44.500,64.000,65.000,62.500
2.263,44.500,64.000,65.000,62.500
2.264,44.000,64.000,64.500,63.000
2.265,44.000,64.000,64.500,63.500
2.266,43.500,63.500,64.500,63.500
2.267,43.500,63.500,64.000,63.500
2.268,43.500,63.500,64.000,63.500
2.269,43.000,63.000,63.500,63.500
2.270,43.000,62.500,63.000,64.000
2.271,42.500,62.000,62.500,64.500
2.272,42.500,61.500,62.500,65.000
2.273,42.500,61.000,62.000,65.500
2.274,42.500,60.500,62.000,66.500
2.275,42.500,60.500,62.000,67.000
2.276,42.500,60.500,62.000,68.000
2.277,42.500,60.500,62.000,68.500
2.278,42.500,60.500,62.500,69.500
2.279,43.000,61.000,62.500,70.000
2.280,43.000,61.500,63.000,70.000
2.281,43.500,62.000,63.000,70.500
2.282,43.500,62.500,63.500,71.000
2.283,44.000,63.000,63.500,71.000
2.284,44.000,63.500,63.500,71.000
2.285,44.500,63.500,64.000,70.500
2.286,45.000,63.500,64.000,70.500
2.287,45.000,63.500,63.500,70.000
2.288,45.000,63.000,63.500,70.500
2.289,45.000,63.000,63.500,70.500
2.290,45.000,62.500,63.000,70.500
2.291,45.000,62.500,63.000,71.000
2.292,44.500,62.500,62.500,71.000
2.293,44.500,62.000,62.000,71.000
2.294,44.500,62.000,61.500,70.500
2.295,44.000,62.000,61.500,71.000
2.296,44.000,61.500,61.000,71.000
2.297,44.000,61.000,61.000,71.000
2.298,44.000,61.000,61.000,71.500
2.299,44.000,61.000,61.000,72.500
2.300,44.000,61.000,61.500,73.000
2.301,44.000,61.500,61.500,73.500
2.302,44.500,61.500,62.000,74.000
2.303,44.500,61.500,62.000,74.000
2.304,44.500,61.500,62.000,74.000
2.305,44.500,61.500,62.000,73.500
2.306,44.500,61.500,62.000,73.500
2.307,44.500,61.500,62.000,73.000
2.308,44.500,61.500,62.000,72.500
2.309,44.500,61.500,62.000,72.000
2.310,44.500,61.500,62.000,71.500
2.311,44.500,61.000,61.500,71.500
2.312,44.500,60.500,61.000,71.500
2.313,44.000,60.500,60.500,71.500
2.314,43.500,60.000,60.000,71.500
2.315,43.500,59.500,59.500,72.000
2.316,43.500,59.000,59.500,72.000
2.317,43.500,58.500,59.500,72.000
2.318,43.500,58.500,59.500,71.500
2.319,44.000,58.500,59.000,71.000
2.320,44.000,58.000,59.000,70.000
2.321,44.000,58.000,59.000,69.500
2.322,43.500,57.500,59.000,69.000
2.323,43.000,57.500,59.000,68.500
2.324,43.000,57.500,59.000,68.000
2.325,42.500,58.000,59.000,67.500
2.326,42.500,58.000,59.000,67.000
2.327,42.000,57.500,58.500,66.000
2.328,41.500,57.000,58.000,65.500
2.329,41.000,56.500,57.500,65.500
2.330,40.500,55.500,57.000,65.500
2.331,40.000,54.500,56.000,65.500
2.332,39.500,54.000,55.500,65.500
2.333,39.000,53.500,55.000,65.000
2.334,39.000,53.000,55.000,64.500
2.335,39.500,53.500,55.000,63.500
2.336,39.500,53.500,54.500,63.000
2.337,39.500,53.500,54.500,62.000
2.338,39.500,53.500,54.500,61.500
2.339,39.000,53.000,54.500,61.500
2.340,38.500,53.000,54.500,61.000
2.341,38.000,52.500,54.500,61.000
2.342,38.000,52.500,54.500,61.000
2.343,37.500,52.000,54.500,60.500
2.344,37.000,52.000,54.500,60.500
2.345,37.000,52.000,54.500,60.500
2.346,36.500,52.000,54.500,60.500
2.347,36.500,52.500,54.500,60.500
2.348,36.500,52.500,55.000,61.000
2.349,36.500,53.000,55.000,60.500
2.350,36.500,53.000,55.000,60.500
2.351,36.500,53.000,55.000,59.500
2.352,36.500,53.000,54.500,58.500
2.353,36.500,52.500,54.000,57.500
2.354,36.000,52.000,53.500,56.500
2.355,35.000,51.000,52.500,56.000
2.356,34.500,49.500,51.500,55.500
2.357,33.000,48.000,50.500,55.000
2.358,31.500,46.500,49.000,54.500
2.359,30.000,44.000,47.000,53.500
2.360,27.500,41.500,45.000,52.500
2.361,25.000,38.500,42.500,51.000
2.362,22.500,35.500,40.000,49.500
2.363,20.000,33.000,38.000,48.500
2.364,18.500,31.000,36.500,48.000
2.365,17.000,30.000,35.500,47.500
2.366,16.500,30.000,35.500,48.000
2.367,17.000,30.500,36.000,48.500
2.368,17.500,32.000,37.500,49.500
2.369,19.000,34.500,39.500,51.000
2.370,21.000,37.500,42.000,52.500
2.371,24.000,41.000,44.500,55.000
2.372,27.000,44.500,48.000,57.500
2.373,30.500,49.000,51.500,60.000
2.374,34.000,52.500,54.500,62.500
2.375,37.000,56.000,57.000,64.000
2.376,38.500,58.500,59.000,65.500
2.377,40.000,60.000,60.500,66.500
2.378,40.000,61.000,61.000,67.500
2.379,39.500,60.500,61.000,68.500
2.380,39.000,60.000,60.500,68.500
2.381,37.500,58.500,59.500,68.000
2.382,36.000,57.500,58.000,66.500
2.383,35.000,56.000,56.500,65.500
2.384,33.500,54.000,55.500,64.000
2.385,32.500,53.000,54.500,63.500
2.386,31.500,51.500,53.500,64.000
2.387,31.000,50.500,53.000,64.500
2.388,30.500,49.500,52.500,65.000
2.389,30.000,49.000,52.000,65.000
2.390,29.500,49.000,51.500,65.000
2.391,29.500,48.500,51.000,64.500
2.392,29.500,48.500,50.000,63.500
2.393,29.500,48.500,49.500,62.500
2.394,29.000,48.000,49.000,61.500
2.395,29.000,48.000,48.500,61.000
2.396,29.000,48.000,48.500,61.000
2.397,29.000,48.000,48.500,61.000
2.398,29.000,48.000,49.000,61.000
2.399,29.000,48.000,49.000,61.000
2.400,29.000,48.000,49.000,61.000
2.401,29.000,48.000,49.000,61.000
2.402,29.000,48.500,49.000,61.000
2.403,29.000,48.500,49.000,61.000
2.404,28.500,48.500,49.500,61.000
2.405,28.500,48.500,49.000,61.000
2.406,28.000,48.000,49.000,61.000
2.407,27.500,48.000,49.000,61.000
2.408,27.000,47.500,48.500,61.000
2.409,26.500,47.000,48.500,61.000
2.410,26.000,46.500,48.000,60.500
2.411,26.000,46.000,48.000,60.000
2.412,26.000,46.000,48.000,59.000
2.413,26.500,46.000,48.000,58.000
2.414,27.000,46.000,48.000,57.000
2.415,27.000,46.500,48.000,56.500
2.416,27.500,46.500,48.000,56.000
2.417,27.500,46.500,48.000,55.500
2.418,28.000,47.000,48.000,55.500
2.419,28.000,47.500,48.000,55.000
2.420,28.000,48.000,48.500,55.000
2.421,28.000,48.000,48.500,54.500
2.422,28.000,48.000,49.000,54.500
2.423,28.000,48.500,49.500,54.500
2.424,28.000,48.500,49.500,54.500
2.425,28.000,48.000,49.500,54.500
2.426,27.500,48.000,49.500,54.000
2.427,27.000,47.500,49.500,53.500
2.428,26.500,47.500,49.000,52.500
2.429,26.500,47.000,49.000,52.000
2.430,26.000,47.000,48.500,51.500
2.431,26.000,46.500,48.500,50.500
2.432,25.500,46.500,48.000,50.000
2.433,25.500,46.500,47.500,49.500
2.434,25.500,46.000,47.500,49.000
2.435,25.500,46.000,47.500,48.000
2.436,25.500,46.000,47.500,47.500
2.437,25.500,46.500,47.500,46.500
2.438,25.500,46.500,47.500,46.000
2.439,25.500,46.500,47.500,45.500
2.440,25.500,46.500,48.000,45.000
2.441,25.500,47.000,48.500,45.000
2.442,25.500,47.000,48.500,45.000
2.443,25.500,47.000,49.000,45.000
2.444,25.500,47.000,49.000,45.000
2.445,25.500,47.000,49.000,45.500
2.446,25.000,46.500,49.000,45.500
2.447,24.500,46.000,49.000,46.000
2.448,24.000,45.500,48.500,46.000
2.449,23.500,45.500,48.500,45.500
2.450,23.500,45.500,48.500,45.000
2.451,23.500,45.500,48.500,44.500
2.452,23.500,45.500,48.000,43.000
2.453,23.500,45.000,48.000,42.000
2.454,23.000,44.500,47.500,41.500
2.455,22.500,44.000,47.000,41.500
2.456,22.500,43.500,47.000,41.500
2.457,22.000,43.000,46.500,41.500
2.458,22.000,43.000,46.500,41.500
2.459,21.500,43.000,46.500,42.000
2.460,21.500,43.000,47.000,42.500
2.461,21.500,43.000,47.000,42.500
2.462,21.000,43.000,47.000,43.000
2.463,20.500,43.000,46.500,43.000
2.464,20.500,43.000,46.500,43.000
2.465,19.500,42.500,46.000,43.000
2.466,19.000,42.000,45.500,42.500
2.467,18.500,41.000,44.500,41.500
2.468,17.500,40.000,43.500,40.500
2.469,16.500,39.000,42.500,39.500
2.470,15.000,37.500,41.000,38.000
2.471,14.000,36.000,39.500,36.500
2.472,12.500,35.000,38.000,35.000
2.473,11.500,33.500,36.500,34.500
2.474,10.500,32.500,35.000,33.500
2.475,9.500,31.000,34.000,33.500
2.476,8.500,30.000,32.500,33.000
2.477,7.000,29.000,31.500,32.500
2.478,6.000,28.000,30.000,32.500
2.479,5.000,27.000,29.500,32.500
2.480,4.000,26.000,29.000,33.000
2.481,3.000,25.500,29.000,34.000
2.482,2.500,25.500,29.000,35.000
2.483,1.500,25.000,29.000,36.000
2.484,1.000,24.500,29.000,37.500
2.485,0.000,24.500,29.000,39.000
2.486,-1.000,24.000,29.500,40.500
2.487,-1.500,24.000,30.000,42.500
2.488,-2.000,24.000,31.000,44.500
2.489,-2.500,24.000,31.500,46.500
2.490,-3.000,24.000,32.000,48.500
2.491,-3.500,24.000,33.000,50.000
2.492,-4.500,24.000,33.500,51.500
2.493,-4.500,24.500,34.000,53.000
2.494,-5.000,24.500,34.500,54.000
2.495,-5.000,24.500,35.000,55.000
2.496,-4.500,25.000,35.000,56.000
2.497,-3.500,25.500,36.000,57.000
2.498,-2.500,27.000,37.000,58.500
2.499,0.000,29.000,38.500,60.000
2.500,2.500,31.500,41.000,61.500
2.501,6.000,34.500,43.500,63.000
2.502,9.000,37.500,46.000,64.000
2.503,12.000,40.500,48.500,65.500
2.504,15.000,43.000,50.500,66.500
2.505,18.000,46.000,52.500,68.000
2.506,21.500,49.000,55.000,69.000
2.507,25.000,52.500,57.000,69.500
2.508,28.500,55.500,59.500,70.500
2.509,31.500,58.000,61.000,71.000
2.510,33.500,60.000,62.500,72.000
2.511,35.000,61.000,63.500,73.000
2.512,35.500,62.000,64.000,74.000
2.513,36.000,62.500,64.000,74.500
2.514,36.000,62.500,64.000,75.500
2.515,36.000,62.500,64.000,75.500
2.516,35.500,62.500,63.500,75.500
2.517,35.000,62.000,63.000,75.000
2.518,34.000,61.000,62.000,74.000
2.519,33.000,60.000,61.000,72.500
2.520,32.000,58.500,59.500,71.500
2.521,30.500,56.500,57.500,70.000
2.522,29.000,55.000,56.000,68.500
2.523,27.500,53.500,54.500,67.500
2.524,27.000,52.000,53.000,66.500
2.525,26.000,51.500,52.000,65.500
2.526,25.000,50.500,51.000,64.500
2.527,24.500,49.500,50.500,63.500
2.528,23.500,48.500,49.500,62.500
2.529,22.500,47.500,48.500,61.500
2.530,22.000,47.000,47.500,60.500
2.531,21.500,46.500,47.000,60.000
2.532,21.000,46.000,46.000,59.500
2.533,20.500,45.500,46.000,59.000
2.534,20.500,45.500,45.500,58.500
2.535,20.500,45.500,45.000,58.000
2.536,21.000,45.500,45.000,58.000
2.537,21.000,45.500,45.000,58.000
2.538,21.500,46.000,45.000,58.000
2.539,21.500,46.000,45.500,58.000
2.540,21.500,46.500,45.500,58.000
2.541,22.000,46.500,45.500,57.500
2.542,22.000,46.500,46.000,57.500
2.543,22.000,46.500,46.000,57.500
2.544,21.500,46.000,45.500,57.500
2.545,21.500,46.000,45.500,57.500
2.546,21.500,46.000,45.500,57.500
2.547,21.500,45.500,45.000,57.000
2.548,21.500,45.500,45.000,57.000
2.549,21.500,45.500,44.500,56.500
2.550,21.000,45.000,44.000,56.000
2.551,21.000,45.000,43.500,55.500
2.552,20.500,44.500,43.000,55.000
2.553,20.500,44.000,43.000,54.500
2.554,20.500,44.000,42.500,54.000
2.555,20.000,44.000,42.000,54.000
2.556,20.000,43.500,42.000,54.000
2.557,20.000,43.500,41.500,54.000
2.558,20.000,43.500,41.500,54.000
2.559,20.000,43.500,41.500,54.000
2.560,20.000,43.500,41.500,54.000
2.561,20.000,43.500,41.500,53.500
2.562,20.000,44.000,41.500,53.000
2.563,20.000,43.500,41.500,53.000
2.564,19.500,43.500,41.500,53.000
2.565,19.500,43.500,41.500,53.000
2.566,19.500,43.500,41.500,53.000
2.567,19.000,43.000,41.000,52.500
2.568,19.000,43.000,41.000,52.500
2.569,18.500,42.000,40.500,52.500
2.570,18.000,41.500,40.000,52.000
2.571,17.500,40.500,39.000,51.500
2.572,17.000,40.000,38.500,51.000
2.573,16.500,39.500,38.000,51.000
2.574,16.500,39.000,37.500,51.000
2.575,16.000,39.000,37.500,50.500
2.576,16.000,38.500,37.000,50.500
2.577,16.500,38.500,37.000,50.000
2.578,16.500,39.000,37.000,49.500
2.579,16.500,39.000,37.000,49.500
2.580,16.500,39.000,37.000,49.000
2.581,16.500,39.500,36.500,48.500
2.582,16.000,39.500,36.500,48.500
2.583,15.500,39.000,36.500,48.000
2.584,15.000,39.000,36.000,48.000
2.585,15.000,38.500,36.000,48.000
2.586,14.500,38.000,35.500,48.000
2.587,14.000,37.500,35.500,48.000
2.588,14.000,37.000,35.000,48.000
2.589,13.500,36.500,34.500,47.500
2.590,13.000,36.500,34.000,47.500
2.591,13.000,36.000,33.000,47.000
2.592,13.000,36.000,32.500,46.500
2.593,13.000,36.000,32.000,45.500
2.594,13.000,35.500,31.500,45.000
2.595,12.500,35.000,31.000,44.500
2.596,12.500,35.000,30.500,44.000
2.597,12.500,34.500,30.000,44.000
2.598,12.500,34.500,30.000,44.500
2.599,12.500,34.500,30.000,45.000
2.600,12.500,35.000,30.000,45.500
2.601,13.000,35.000,30.500,46.000
2.602,13.000,35.000,30.500,46.500
2.603,13.000,35.000,31.000,47.000
2.604,13.000,35.000,31.000,47.000
2.605,13.000,35.000,31.500,47.500
2.606,13.000,35.500,31.500,47.500
2.607,12.500,35.500,31.500,47.500
2.608,12.500,35.500,31.500,47.500
2.609,12.500,35.500,31.000,47.500
2.610,12.500,35.500,31.000,47.500
2.611,12.500,35.500,31.000,47.500
2.612,12.500,35.000,30.500,47.500
2.613,12.500,35.000,30.500,47.500
2.614,12.500,35.000,30.000,47.500
2.615,12.500,35.000,30.000,47.500
2.616,12.500,35.000,29.500,48.000
2.617,12.500,35.000,29.500,48.000
2.618,12.500,35.000,29.500,48.000
2.619,12.500,35.000,29.000,48.000
2.620,12.500,35.000,29.000,48.000
2.621,12.500,35.000,29.000,48.000
2.622,12.500,35.000,28.500,48.000
2.623,12.500,35.000,28.500,48.000
2.624,12.000,35.000,28.500,48.000
2.625,12.000,35.000,28.500,48.000
2.626,12.000,35.000,28.500,48.000
2.627,11.500,34.500,28.500,47.500
2.628,11.500,34.500,28.500,47.000
2.629,11.000,34.000,28.000,46.500
2.630,10.500,33.500,27.000,46.000
2.631,10.000,33.000,26.500,46.000
2.632,9.500,32.500,26.000,45.500
2.633,9.500,32.000,25.500,45.000
2.634,9.000,31.500,25.000,45.000
2.635,9.000,31.500,25.000,45.000
2.636,9.000,31.000,24.500,44.500
2.637,9.000,31.000,24.500,44.500
2.638,9.000,31.000,24.500,44.500
2.639,9.000,31.000,25.000,44.500
2.640,9.000,31.500,25.000,44.500
2.641,9.000,31.500,25.000,45.000
2.642,9.000,32.000,25.000,45.000
2.643,9.000,32.000,25.000,45.000
2.644,8.500,32.000,25.000,45.000
2.645,9.000,32.500,25.000,45.000
2.646,9.000,33.000,25.500,44.500
2.647,9.000,33.500,25.500,44.500
2.648,9.000,33.500,25.500,44.500
2.649,9.000,33.500,25.500,44.500
2.650,9.000,33.500,25.500,44.500
2.651,8.500,33.000,25.500,44.500
2.652,8.500,33.000,25.000,44.500
2.653,8.500,33.000,25.000,44.000
2.654,8.500,32.500,25.000,44.000
2.655,8.500,32.500,24.500,44.000
2.656,8.500,32.000,24.000,43.500
2.657,8.000,32.000,24.000,43.500
2.658,8.000,32.000,24.000,44.000
2.659,8.000,31.500,24.000,44.000
2.660,8.000,31.500,24.500,44.500
2.661,8.000,31.500,24.500,44.500
2.662,8.000,32.000,24.500,44.500
2.663,8.000,32.000,24.500,44.000
2.664,8.000,32.000,24.500,44.000
2.665,8.000,32.000,24.500,43.500
2.666,7.500,32.000,24.500,43.500
2.667,7.500,32.000,24.500,43.500
2.668,7.000,31.500,24.500,44.000
2.669,7.000,31.500,24.000,44.000
2.670,6.500,31.500,24.000,44.000
2.671,6.500,31.000,24.000,44.000
2.672,6.000,31.000,23.500,44.500
2.673,6.000,30.500,23.000,44.500
2.674,6.000,30.000,23.000,44.500
2.675,6.000,30.000,23.000,44.500
2.676,6.000,29.500,23.000,44.500
2.677,6.000,29.500,23.000,45.000
2.678,6.500,29.500,23.000,45.000
2.679,6.500,30.000,23.000,45.500
2.680,6.500,30.000,23.500,46.000
2.681,7.000,30.500,23.500,46.500
2.682,7.000,30.500,24.000,47.000
2.683,7.000,30.500,24.000,47.000
2.684,7.000,30.500,24.000,47.000
2.685,7.000,30.500,24.000,47.500
2.686,6.500,30.000,24.000,47.000
2.687,6.500,29.500,23.500,47.000
2.688,6.000,29.000,23.500,47.000
2.689,6.000,29.000,23.500,47.500
2.690,6.000,29.000,23.000,47.500
2.691,5.500,29.000,23.000,47.500
2.692,5.500,29.000,23.000,47.500
2.693,5.500,29.000,23.000,47.500
2.694,5.500,29.000,23.000,47.500
2.695,5.500,29.000,23.000,47.000
2.696,5.500,29.000,22.500,47.000
2.697,5.500,29.000,22.000,46.500
2.698,5.500,29.000,22.000,46.500
2.699,5.500,29.000,22.000,46.500
2.700,5.000,29.000,22.000,46.000
2.701,5.000,29.000,22.000,46.000
2.702,5.000,29.000,22.000,46.000
2.703,4.500,28.500,22.000,46.000
2.704,4.500,28.500,21.500,46.000
2.705,4.000,28.500,21.500,46.000
2.706,4.000,28.500,21.500,46.500
2.707,4.000,28.000,21.500,46.500
2.708,3.500,28.000,21.000,46.500
2.709,3.500,27.500,20.500,46.000
2.710,3.500,27.000,20.500,45.500
2.711,3.500,27.000,20.000,45.000
2.712,3.000,26.500,19.500,44.500
2.713,3.000,26.500,19.500,44.000
2.714,3.000,26.000,19.000,43.500
2.715,2.500,26.000,19.000,43.000
2.716,2.500,26.000,19.000,43.000
2.717,2.500,26.000,19.000,42.500
2.718,2.500,26.500,19.500,42.500
2.719,3.000,27.000,19.500,42.500
2.720,3.000,27.500,20.000,42.500
2.721,3.500,28.000,20.000,42.500
2.722,4.000,28.500,20.500,42.500
2.723,4.000,29.000,20.500,42.500
2.724,4.000,29.000,20.500,42.500
2.725,3.500,28.500,20.500,42.500
2.726,3.000,28.000,20.500,42.000
2.727,2.500,27.500,19.500,41.500
2.728,2.000,26.000,18.500,40.500
2.729,1.000,25.000,17.500,39.500
2.730,-0.500,23.000,15.500,38.000
2.731,-2.500,20.500,13.500,36.500
2.732,-5.000,17.500,11.000,35.000
2.733,-7.500,14.000,8.000,33.000
2.734,-10.500,11.000,5.000,31.000
2.735,-13.000,8.000,2.500,29.500
2.736,-14.500,5.500,0.500,28.000
2.737,-16.000,4.000,-1.000,27.000
2.738,-16.500,3.000,-1.500,26.500
2.739,-16.000,3.500,-1.000,27.000
2.740,-15.500,4.500,-0.500,27.500
2.741,-14.000,6.500,1.500,28.000
2.742,-12.000,9.000,4.000,29.500
2.743,-10.000,12.000,6.500,31.000
2.744,-7.000,15.500,10.000,32.500
2.745,-4.000,19.500,13.500,34.500
2.746,-1.000,23.500,16.500,36.000
2.747,1.500,27.000,19.000,37.500
2.748,3.500,30.000,21.000,38.500
2.749,5.000,31.500,22.500,38.500
2.750,5.500,32.000,23.000,38.500
2.751,5.000,32.000,22.500,38.000
2.752,4.000,31.000,21.000,37.000
2.753,2.500,29.000,19.500,35.500
2.754,1.000,27.000,17.500,34.000
2.755,-1.000,25.000,15.500,32.500
2.756,-2.000,22.500,13.500,31.000
2.757,-3.500,21.000,12.000,30.000
2.758,-4.000,19.500,10.500,29.000
2.759,-4.500,19.000,10.000,28.500
2.760,-5.000,18.500,9.500,28.000
2.761,-5.500,18.500,9.500,28.000
2.762,-5.500,18.500,9.500,28.000
2.763,-5.500,18.500,9.500,28.000
2.764,-6.000,18.000,9.500,28.000
2.765,-6.000,18.000,9.500,28.000
2.766,-6.000,17.500,9.000,27.500
2.767,-6.500,17.500,8.500,27.000
2.768,-6.500,17.000,8.000,26.500
2.769,-7.000,16.500,7.500,26.500
2.770,-7.500,16.000,7.000,26.000
2.771,-7.500,15.500,6.500,25.500
2.772,-8.000,15.000,6.500,25.500
2.773,-8.000,15.000,6.000,25.000
2.774,-8.500,15.000,5.500,24.500
2.775,-8.500,15.000,5.000,24.000
2.776,-9.000,15.000,5.000,24.000
2.777,-9.000,15.000,5.000,23.500
2.778,-9.000,15.000,4.500,23.500
2.779,-9.000,15.000,4.500,23.500
2.780,-9.000,15.000,4.500,23.500
2.781,-9.000,15.000,5.000,23.500
2.782,-9.000,15.500,5.000,23.500
2.783,-9.000,15.500,5.000,24.000
2.784,-9.000,16.000,5.000,24.000
2.785,-9.000,16.000,5.000,24.000
2.786,-8.500,16.000,5.000,24.000
2.787,-9.000,16.000,5.000,24.000
2.788,-9.000,15.500,5.000,24.000
2.789,-9.000,15.500,4.500,24.500
2.790,-9.000,15.000,4.500,24.000
2.791,-9.500,14.500,4.000,24.000
2.792,-9.500,14.500,3.500,24.000
2.793,-9.500,14.000,3.500,23.500
2.794,-9.500,14.000,3.000,23.500
2.795,-9.500,14.000,3.000,23.000
2.796,-9.500,13.500,2.500,23.000
2.797,-9.500,13.500,2.500,22.500
2.798,-9.500,13.500,2.500,22.500
2.799,-9.500,13.500,2.500,22.500
2.800,-9.500,13.500,2.500,22.500
2.801,-9.500,14.000,2.500,22.500
2.802,-9.000,14.000,2.500,23.000
2.803,-9.000,14.500,3.000,23.000
2.804,-9.500,14.500,3.000,23.500
2.805,-9.500,14.500,3.000,23.500
2.806,-9.500,14.500,3.000,23.500
2.807,-10.000,14.500,3.000,23.500
2.808,-10.000,14.500,3.000,23.500
2.809,-10.000,14.000,3.000,23.500
2.810,-10.000,14.000,2.500,23.000
2.811,-10.000,14.000,2.000,23.000
2.812,-9.500,14.000,2.000,22.500
2.813,-9.500,14.000,2.000,22.500
2.814,-9.500,14.000,1.500,22.000
2.815,-9.000,14.000,1.500,22.000
2.816,-9.000,13.500,1.500,22.000
2.817,-9.000,13.500,1.500,22.000
2.818,-8.500,14.000,1.500,22.000
2.819,-8.500,14.000,2.000,22.000
2.820,-8.500,14.500,2.000,22.000
2.821,-8.000,15.000,2.500,22.500
2.822,-8.000,15.500,3.000,23.000
2.823,-7.500,16.000,3.500,23.000
2.824,-7.500,16.500,4.000,23.500
2.825,-7.500,16.500,4.000,24.000
2.826,-7.000,16.500,4.000,24.000
2.827,-7.500,16.500,4.000,24.000
2.828,-8.000,16.000,4.000,23.500
2.829,-8.000,15.500,3.500,23.500
2.830,-8.500,15.000,3.000,23.000
2.831,-9.000,15.000,2.500,22.500
2.832,-9.500,14.500,2.500,22.000
2.833,-9.500,14.500,2.000,21.500
2.834,-9.500,14.500,2.000,21.000
2.835,-9.500,14.000,2.000,21.000
2.836,-9.500,14.000,2.000,21.000
2.837,-9.500,14.500,2.000,21.000
2.838,-9.500,14.000,1.500,21.000
2.839,-9.500,14.000,1.500,21.000
2.840,-9.500,14.500,1.500,21.000
2.841,-9.500,14.500,1.500,21.000
2.842,-9.500,14.500,1.500,21.500
2.843,-9.500,15.000,1.500,21.500
2.844,-9.500,15.000,2.000,21.500
2.845,-9.500,15.000,2.000,21.500
2.846,-10.000,15.000,2.000,21.500
2.847,-10.000,15.000,2.000,21.500
2.848,-10.500,15.000,2.000,21.000
2.849,-10.500,15.000,2.000,21.000
2.850,-11.000,14.500,1.500,21.000
2.851,-11.000,14.000,1.500,21.000
2.852,-11.500,14.000,1.000,20.500
2.853,-12.000,13.500,0.500,20.500
2.854,-12.000,13.500,0.000,20.500
2.855,-12.000,13.000,-0.500,20.500
2.856,-12.000,13.500,-0.500,20.500
2.857,-12.000,13.500,-0.500,21.000
2.858,-12.000,14.000,-0.500,21.000
2.859,-11.500,14.500,0.000,21.500
2.860,-11.500,15.000,0.500,21.500
2.861,-11.500,15.500,0.500,21.000
2.862,-11.500,15.500,1.000,21.000
2.863,-11.500,16.000,1.000,21.000
2.864,-11.500,16.000,1.000,21.000
2.865,-11.500,16.000,1.000,21.000
2.866,-12.000,15.500,0.500,21.000
2.867,-12.000,15.500,0.500,21.000
2.868,-12.500,15.000,0.000,21.000
2.869,-12.500,15.000,-0.500,20.500
2.870,-12.500,14.500,-0.500,20.500
2.871,-12.500,14.500,-1.000,20.500
2.872,-12.500,14.000,-1.000,20.500
2.873,-12.500,14.000,-1.500,20.000
2.874,-12.500,13.500,-1.500,20.000
2.875,-13.000,13.500,-2.000,19.500
2.876,-13.000,13.500,-2.000,19.500
2.877,-13.000,13.500,-2.000,19.500
2.878,-12.500,13.500,-2.000,19.500
2.879,-12.500,13.500,-1.500,19.500
2.880,-12.500,14.000,-1.500,19.500
2.881,-12.000,14.000,-1.000,19.500
2.882,-12.500,14.500,-1.000,20.000
2.883,-12.500,15.000,-1.000,20.000
2.884,-12.500,15.000,-1.000,20.500
2.885,-13.000,15.500,-0.500,20.500
2.886,-13.000,15.500,-0.500,20.500
2.887,-13.000,15.000,-0.500,20.500
2.888,-12.500,15.000,-0.500,20.500
2.889,-12.500,15.000,-1.000,20.000
2.890,-13.000,14.500,-1.000,20.000
2.891,-13.000,14.000,-1.500,19.500
2.892,-13.000,14.000,-1.500,19.500
2.893,-13.500,13.500,-1.500,19.000
2.894,-13.500,13.500,-2.000,19.000
2.895,-13.500,13.500,-2.000,18.500
2.896,-13.500,13.500,-2.500,18.000
2.897,-13.500,14.000,-2.500,18.000
2.898,-13.000,14.000,-2.500,18.000
2.899,-13.000,14.000,-2.500,18.000
2.900,-12.500,14.500,-2.500,18.500
2.901,-12.500,14.500,-2.000,19.000
2.902,-12.000,15.000,-1.500,19.500
2.903,-12.000,15.000,-1.000,20.000
2.904,-12.000,15.000,-1.000,20.000
2.905,-12.000,15.000,-1.000,20.000
2.906,-12.000,15.000,-1.000,20.000
2.907,-12.500,15.000,-1.000,20.000
2.908,-12.500,15.000,-1.000,20.000
2.909,-12.500,14.500,-1.500,19.500
2.910,-13.000,14.000,-1.500,19.500
2.911,-13.000,14.000,-2.000,19.000
2.912,-13.000,13.500,-2.000,19.000
2.913,-13.500,13.500,-2.500,18.500
2.914,-13.500,13.500,-2.500,18.500
2.915,-13.500,13.500,-3.000,18.500
2.916,-13.500,13.000,-3.000,18.000
2.917,-13.500,13.000,-3.000,18.000
2.918,-13.500,13.500,-3.000,17.500
2.919,-13.000,13.500,-2.500,17.500
2.920,-12.500,14.000,-2.500,17.500
2.921,-12.500,14.000,-2.500,17.500
2.922,-12.500,14.000,-2.500,17.500
2.923,-12.500,14.000,-3.000,17.500
2.924,-12.500,14.000,-3.000,17.000
2.925,-12.500,14.000,-3.000,17.000
2.926,-12.500,14.000,-3.000,17.000
2.927,-12.500,14.000,-3.000,17.000
2.928,-13.000,13.500,-3.000,16.500
2.929,-13.000,13.500,-3.000,16.500
2.930,-13.500,13.500,-3.500,16.500
2.931,-13.500,13.000,-4.000,16.500
2.932,-14.000,12.500,-4.500,16.000
2.933,-14.000,12.000,-4.500,15.500
2.934,-14.000,12.000,-5.000,15.000
2.935,-14.000,12.000,-5.500,14.500
2.936,-13.500,11.500,-5.500,14.000
2.937,-13.500,12.000,-5.500,13.500
2.938,-13.000,12.000,-5.500,13.500
2.939,-12.500,12.500,-5.000,13.500
2.940,-12.500,12.500,-5.000,13.500
2.941,-12.000,13.000,-4.500,13.500
2.942,-12.000,13.000,-4.000,13.500
2.943,-12.000,13.500,-4.000,13.500
2.944,-12.000,14.000,-3.500,14.000
2.945,-12.000,14.000,-3.500,14.000
2.946,-12.500,14.000,-4.000,14.000
2.947,-12.500,13.500,-4.000,13.500
2.948,-12.500,13.000,-4.000,13.000
2.949,-12.500,12.500,-4.500,13.000
2.950,-12.500,12.000,-4.500,12.500
2.951,-12.500,12.000,-5.000,12.500
2.952,-13.000,11.500,-5.500,12.000
2.953,-13.000,11.000,-6.000,11.500
2.954,-13.500,11.000,-6.500,11.000
2.955,-13.500,10.500,-6.500,10.500
2.956,-13.500,10.500,-7.000,10.000
2.957,-13.500,10.500,-7.000,10.000
2.958,-13.500,10.500,-7.000,10.000
2.959,-13.500,11.000,-7.000,10.000
2.960,-13.500,11.000,-7.000,10.000
2.961,-13.500,11.500,-7.000,10.000
2.962,-13.500,11.500,-7.000,10.000
2.963,-13.500,11.500,-7.000,10.000
2.964,-13.500,11.500,-7.000,10.000
2.965,-13.500,11.500,-7.000,10.000
2.966,-14.000,11.500,-7.000,10.000
2.967,-14.000,11.500,-7.000,10.000
2.968,-14.000,11.500,-7.000,9.500
2.969,-14.000,11.500,-7.500,9.500
2.970,-14.500,11.000,-8.000,9.500
2.971,-14.500,10.500,-8.000,9.000
2.972,-14.500,10.500,-8.500,9.000
2.973,-14.500,10.000,-8.500,8.500
2.974,-14.500,10.000,-9.000,8.500
2.975,-14.000,10.000,-9.000,8.500
2.976,-14.000,10.000,-9.000,8.500
2.977,-14.000,10.500,-9.000,8.500
2.978,-14.000,10.500,-9.000,8.500
2.979,-14.000,11.000,-9.000,8.000
2.980,-14.000,11.000,-9.000,8.000
2.981,-14.000,11.000,-9.000,8.000
2.982,-14.000,10.500,-9.000,8.000
2.983,-14.000,10.500,-9.000,8.500
2.984,-14.500,10.500,-8.500,8.500
2.985,-14.500,11.000,-8.500,9.000
2.986,-14.500,11.000,-8.500,9.000
2.987,-14.500,11.000,-8.000,9.000
2.988,-14.500,11.000,-8.000,9.000
2.989,-14.000,11.000,-7.500,9.500
2.990,-14.000,11.000,-7.500,9.500
2.991,-13.500,11.000,-7.000,9.500
2.992,-13.500,11.000,-7.000,10.000
2.993,-13.000,11.000,-7.500,10.000
2.994,-13.500,11.000,-7.500,10.000
2.995,-13.500,10.500,-8.000,10.000
2.996,-13.500,10.500,-8.000,10.500
2.997,-13.500,10.000,-8.000,10.500
2.998,-13.500,10.500,-8.000,10.500
2.999,-13.000,10.500,-7.500,10.500
3.000,-13.000,11.000,-7.000,11.000
3.001,-13.000,11.500,-6.500,11.500
3.002,-13.000,11.500,-6.000,11.500
3.003,-13.000,12.000,-6.000,12.000
3.004,-13.000,12.500,-5.500,12.000
3.005,-12.500,12.500,-5.500,12.500
3.006,-12.500,13.000,-5.500,13.000
3.007,-12.500,13.000,-5.500,13.500
3.008,-12.500,12.500,-5.500,13.500
3.009,-12.500,12.500,-6.000,13.500
3.010,-12.500,12.500,-6.000,13.500
3.011,-13.000,12.500,-6.500,13.000
3.012,-13.000,12.500,-7.000,13.000
3.013,-12.500,12.500,-7.000,13.000
3.014,-12.500,12.500,-7.000,12.500
3.015,-12.500,13.000,-7.500,12.500
3.016,-12.000,13.000,-7.500,12.000
3.017,-12.000,13.000,-7.000,12.500
3.018,-11.500,13.500,-7.000,12.500
3.019,-11.000,13.500,-7.000,12.500
3.020,-11.000,13.500,-7.000,12.500
3.021,-11.000,14.000,-7.000,13.000
3.022,-11.000,14.000,-7.000,13.000
3.023,-11.500,14.000,-7.000,13.000
3.024,-11.500,14.000,-6.500,13.000
3.025,-12.000,14.000,-6.500,13.000
3.026,-12.000,14.000,-6.500,13.000
3.027,-12.000,14.000,-6.500,12.500
3.028,-12.000,14.000,-6.500,12.500
3.029,-12.000,14.000,-6.500,12.000
3.030,-12.000,14.000,-7.000,12.000
3.031,-12.000,14.000,-7.500,11.500
3.032,-11.500,13.500,-7.500,11.500
3.033,-11.500,13.500,-8.000,11.500
3.034,-11.000,13.000,-8.000,11.000
3.035,-11.000,13.000,-8.000,11.000
3.036,-11.000,13.000,-8.000,11.000
3.037,-11.000,13.000,-8.500,11.000
3.038,-10.500,13.000,-8.000,11.000
3.039,-10.500,13.500,-8.000,11.000
3.040,-10.000,14.000,-7.500,11.500
3.041,-9.500,14.500,-7.000,12.000
3.042,-9.500,15.000,-6.500,12.000
3.043,-9.500,15.000,-6.000,12.500
3.044,-9.500,15.000,-6.000,12.500
3.045,-9.500,15.000,-6.000,13.000
3.046,-9.500,14.500,-6.000,13.000
3.047,-9.500,14.500,-6.000,13.500
3.048,-9.500,14.000,-6.000,13.500
3.049,-9.500,14.000,-6.500,13.500
3.050,-9.500,14.000,-6.500,13.500
3.051,-9.500,14.000,-6.500,13.500
3.052,-9.500,13.500,-7.000,13.000
3.053,-9.500,13.500,-7.000,13.000
3.054,-9.500,13.500,-7.000,13.000
3.055,-9.500,13.500,-7.000,13.000
3.056,-9.500,13.500,-7.000,13.500
3.057,-9.500,13.500,-7.000,13.500
3.058,-9.500,14.000,-7.000,14.000
3.059,-9.500,14.000,-6.500,14.500
3.060,-9.500,14.000,-6.500,14.500
3.061,-9.500,14.000,-6.000,15.000
3.062,-9.000,14.500,-6.000,15.000
3.063,-9.000,14.500,-6.000,15.500
3.064,-9.000,14.500,-5.500,16.000
3.065,-8.500,14.500,-5.500,16.500
3.066,-8.500,14.500,-5.000,17.000
3.067,-8.500,14.000,-5.000,17.000
3.068,-8.500,14.000,-5.500,17.000
3.069,-8.000,13.500,-5.500,17.000
3.070,-8.000,13.500,-6.000,16.500
3.071,-8.000,13.000,-6.000,16.500
3.072,-8.000,13.000,-6.500,16.000
3.073,-8.000,13.000,-6.500,16.000
3.074,-8.000,13.000,-6.500,15.500
3.075,-8.000,13.000,-7.000,15.500
3.076,-8.000,13.000,-7.000,15.000
3.077,-8.000,13.000,-7.000,15.000
3.078,-7.500,13.000,-7.000,15.000
3.079,-7.000,13.500,-6.500,15.500
3.080,-7.000,13.500,-6.500,15.500
3.081,-7.000,14.000,-6.500,16.000
3.082,-7.000,14.000,-6.000,16.000
3.083,-6.500,14.000,-6.000,16.500
3.084,-6.500,14.000,-6.000,16.500
3.085,-6.500,14.000,-5.500,16.500
3.086,-6.500,14.000,-5.500,16.500
3.087,-6.500,14.000,-5.500,16.500
3.088,-6.500,14.000,-5.500,16.500
3.089,-7.000,14.000,-5.500,16.500
3.090,-6.500,14.000,-5.500,16.000
3.091,-6.500,14.000,-6.000,16.000
3.092,-6.500,14.000,-6.000,15.500
3.093,-6.500,14.000,-6.000,15.000
3.094,-6.000,14.000,-6.000,14.500
3.095,-6.000,13.500,-6.500,14.000
3.096,-6.000,13.000,-7.500,13.000
3.097,-6.500,12.500,-8.500,12.000
3.098,-7.500,11.000,-9.500,11.000
3.099,-9.000,9.500,-11.000,9.500
3.100,-10.500,8.000,-13.000,7.500
3.101,-12.500,6.000,-15.000,6.000
3.102,-14.500,3.500,-17.000,4.500
3.103,-17.000,1.000,-19.500,3.000
3.104,-19.500,-2.500,-22.000,1.500
3.105,-23.000,-6.500,-25.500,-1.000
3.106,-27.000,-11.000,-29.000,-3.000
3.107,-31.000,-15.500,-32.500,-5.000
3.108,-35.000,-20.000,-36.000,-7.000
3.109,-38.000,-23.500,-38.500,-8.000
3.110,-40.500,-26.000,-40.500,-8.500
3.111,-42.500,-27.500,-41.500,-8.500
3.112,-43.000,-28.500,-41.500,-7.500
3.113,-43.000,-27.500,-41.000,-6.000
3.114,-42.500,-26.000,-38.500,-4.000
3.115,-40.500,-23.500,-36.000,-1.500
3.116,-38.000,-20.000,-32.000,2.000
3.117,-35.500,-16.000,-28.000,5.500
3.118,-32.000,-11.500,-23.500,9.000
3.119,-28.500,-7.000,-19.000,12.500
3.120,-25.500,-3.000,-15.000,16.000
3.121,-23.500,0.500,-11.500,18.500
3.122,-21.500,3.000,-9.000,21.000
3.123,-20.500,5.000,-7.500,22.500
3.124,-20.000,5.500,-6.500,23.500
3.125,-20.000,5.500,-6.500,24.000
3.126,-20.500,5.000,-6.500,24.500
3.127,-20.000,5.000,-7.000,24.500
3.128,-19.500,5.000,-6.500,25.000
3.129,-18.500,5.500,-6.000,25.000
3.130,-16.500,6.500,-5.000,25.500
3.131,-14.500,8.000,-4.000,25.500
3.132,-12.000,10.000,-2.500,26.000
3.133,-9.000,12.000,-1.000,26.500
3.134,-6.000,15.000,1.000,27.000
3.135,-2.000,18.000,3.000,28.000
3.136,2.000,21.000,6.000,29.000
3.137,5.500,24.000,8.500,30.500
3.138,8.000,26.500,10.500,31.500
3.139,10.500,28.500,12.000,32.500
3.140,11.500,29.500,13.000,33.000
3.141,12.500,30.500,13.500,33.000
3.142,12.000,30.500,13.500,33.000
3.143,11.500,30.000,13.000,32.000
3.144,10.500,29.000,12.000,31.000
3.145,9.500,28.000,10.500,30.000
3.146,8.000,26.500,9.000,29.000
3.147,6.000,24.500,7.000,27.500
3.148,4.000,22.500,5.000,25.500
3.149,2.000,20.000,2.500,23.500
3.150,0.000,18.000,0.500,22.000
3.151,-1.500,16.000,-1.500,20.000
3.152,-3.000,14.500,-3.000,18.500
3.153,-4.000,13.000,-4.500,17.000
3.154,-5.000,12.000,-6.000,16.000
3.155,-6.000,11.000,-7.500,14.500
3.156,-6.500,10.000,-8.000,14.000
3.157,-7.500,9.500,-9.000,13.000
3.158,-7.500,9.000,-9.000,12.500
3.159,-8.000,9.000,-9.500,12.500
3.160,-8.000,9.000,-9.500,12.500
3.161,-8.000,9.000,-9.500,12.500
3.162,-8.000,9.000,-9.000,13.000
3.163,-8.000,9.500,-9.000,13.500
3.164,-8.000,10.000,-8.500,14.000
3.165,-8.000,10.000,-8.500,14.000
3.166,-7.500,10.000,-8.500,14.000
3.167,-7.500,10.000,-8.500,14.000
3.168,-7.500,9.500,-9.000,14.000
3.169,-7.000,9.500,-9.000,14.000
3.170,-7.000,9.500,-9.000,13.500
3.171,-7.000,9.500,-9.000,13.500
3.172,-7.000,9.500,-9.000,13.500
3.173,-7.000,9.500,-9.000,13.500
3.174,-7.000,9.000,-9.500,13.000
3.175,-7.000,9.000,-9.500,13.000
3.176,-7.000,9.000,-10.000,12.500
3.177,-7.000,9.000,-10.000,12.500
3.178,-7.000,9.500,-10.000,12.500
3.179,-6.500,9.500,-10.000,13.000
3.180,-6.500,9.500,-9.500,13.500
3.181,-6.000,10.000,-9.500,13.500
3.182,-6.000,10.000,-9.000,14.000
3.183,-5.500,10.000,-8.500,14.000
3.184,-5.500,10.500,-8.500,14.000
3.185,-5.500,10.500,-8.000,14.000
3.186,-5.500,10.500,-8.000,14.000
3.187,-5.500,10.500,-8.000,14.000
3.188,-5.500,10.000,-8.000,13.500
3.189,-5.500,10.500,-8.000,13.500
3.190,-5.500,10.000,-8.500,13.000
3.191,-5.500,10.000,-8.500,13.000
3.192,-5.500,10.000,-9.000,13.000
3.193,-6.000,9.500,-9.500,13.000
3.194,-6.000,9.500,-9.500,12.500
3.195,-6.000,9.500,-10.000,12.500
3.196,-6.000,9.500,-10.000,12.500
3.197,-6.000,10.000,-10.000,12.500
3.198,-6.000,10.000,-9.500,12.500
3.199,-5.500,10.000,-9.500,12.500
3.200,-5.500,10.500,-9.000,13.000
3.201,-5.500,10.500,-9.000,13.000
3.202,-5.500,10.500,-8.500,13.500
3.203,-5.500,10.500,-8.500,13.500
3.204,-5.500,10.500,-8.500,13.500
3.205,-5.500,10.500,-8.000,14.000
3.206,-5.500,10.500,-8.000,14.000
3.207,-5.500,10.500,-8.000,14.000
3.208,-6.000,10.500,-8.500,14.000
3.209,-6.000,10.000,-8.500,13.500
3.210,-6.500,10.000,-9.000,13.000
3.211,-6.500,9.500,-9.000,13.000
3.212,-7.000,9.000,-9.500,12.500
3.213,-7.000,9.000,-10.000,12.500
3.214,-7.000,8.500,-10.000,12.000
3.215,-7.000,8.500,-10.500,11.500
3.216,-7.000,8.000,-10.500,11.500
3.217,-7.500,8.000,-10.500,11.500
3.218,-7.500,8.000,-10.500,11.500
3.219,-7.000,8.000,-10.500,11.500
3.220,-7.000,8.000,-10.000,11.500
3.221,-7.000,8.500,-9.500,11.500
3.222,-7.000,8.500,-9.500,12.000
3.223,-7.000,9.000,-9.000,11.500
3.224,-7.000,9.000,-9.000,11.500
3.225,-7.500,9.000,-9.000,11.500
3.226,-7.500,9.000,-8.500,11.500
3.227,-8.000,8.500,-8.500,11.500
3.228,-8.000,8.500,-9.000,11.500
3.229,-8.500,8.500,-9.000,11.500
3.230,-8.500,8.000,-9.500,11.000
3.231,-9.000,7.500,-9.500,11.000
3.232,-9.000,7.500,-10.000,11.000
3.233,-9.500,7.000,-10.000,10.500
3.234,-9.500,7.000,-10.500,10.500
3.235,-9.000,7.000,-10.500,10.500
3.236,-9.000,7.000,-10.500,10.500
3.237,-9.000,7.000,-10.500,10.500
3.238,-9.000,7.000,-10.500,10.000
3.239,-9.000,7.000,-10.500,10.000
3.240,-9.000,7.500,-10.000,10.500
3.241,-8.500,7.500,-9.500,10.500
3.242,-8.500,8.000,-9.500,10.500
3.243,-8.500,8.000,-9.500,11.000
3.244,-8.500,8.000,-9.000,11.000
3.245,-8.500,8.000,-9.000,11.000
3.246,-9.000,8.000,-9.000,11.500
3.247,-9.000,8.500,-9.000,11.500
3.248,-9.500,8.500,-9.000,11.500
3.249,-9.500,8.500,-9.000,11.500
3.250,-10.000,8.500,-9.500,11.500
3.251,-10.000,8.000,-9.500,11.500
3.252,-10.000,8.000,-9.500,11.500
3.253,-10.000,7.500,-9.500,11.000
3.254,-10.000,7.500,-9.500,11.000
3.255,-9.500,7.000,-9.500,10.500
3.256,-9.500,7.500,-9.500,11.000
3.257,-9.000,7.500,-9.000,11.000
3.258,-8.500,7.500,-8.500,11.500
3.259,-8.000,8.000,-8.000,11.500
3.260,-7.500,8.500,-7.500,12.000
3.261,-7.000,8.500,-7.500,12.000
3.262,-7.000,9.000,-7.000,12.500
3.263,-7.000,9.500,-7.000,12.500
3.264,-6.500,10.000,-6.500,13.000
3.265,-6.500,10.000,-6.500,13.000
3.266,-6.500,10.500,-6.500,13.000
3.267,-6.500,10.500,-6.500,13.000
3.268,-6.500,10.500,-6.000,13.000
3.269,-6.500,10.500,-6.000,13.000
3.270,-6.500,10.500,-6.500,13.000
3.271,-6.500,10.500,-6.500,13.000
3.272,-6.500,10.500,-6.500,13.000
3.273,-6.500,10.500,-7.000,13.000
3.274,-6.500,10.500,-7.000,13.000
3.275,-6.000,11.000,-6.500,13.000
3.276,-6.000,11.000,-6.500,13.000
3.277,-5.500,11.000,-6.000,13.500
3.278,-5.500,11.500,-6.000,13.500
3.279,-5.000,11.500,-5.500,13.500
3.280,-5.000,12.000,-5.000,13.500
3.281,-4.500,12.000,-4.500,13.500
3.282,-4.500,12.500,-4.000,14.000
3.283,-4.500,12.500,-4.000,14.500
3.284,-4.000,13.000,-3.500,14.500
3.285,-4.000,13.000,-3.500,15.000
3.286,-4.000,13.500,-3.000,15.500
3.287,-3.500,13.500,-3.000,15.500
3.288,-3.500,14.000,-3.000,16.000
3.289,-3.500,14.000,-3.000,16.000
3.290,-3.500,14.500,-3.000,16.500
3.291,-3.500,14.500,-2.500,16.500
3.292,-3.500,14.500,-2.500,16.500
3.293,-3.500,14.500,-2.500,16.500
3.294,-3.000,15.000,-2.500,16.500
3.295,-2.500,15.000,-2.500,16.500
3.296,-2.500,15.000,-2.000,17.000
3.297,-2.000,15.500,-2.000,17.000
3.298,-1.500,15.500,-1.500,17.500
3.299,-1.500,15.500,-1.500,17.500
3.300,-1.000,16.000,-1.000,18.000
3.301,-0.500,16.500,-1.000,18.500
3.302,0.000,16.500,-0.500,19.000
3.303,0.000,17.000,0.500,19.500
3.304,0.500,17.500,1.000,20.000
3.305,0.500,17.500,1.000,20.500
3.306,1.000,18.000,1.500,20.500
3.307,1.000,18.000,1.500,20.500
3.308,1.000,18.000,1.500,20.500
3.309,1.000,18.000,1.500,20.500
3.310,0.500,18.000,1.500,20.000
3.311,0.500,17.500,1.000,20.000
3.312,0.000,17.500,1.000,20.000
3.313,0.000,17.000,0.500,20.000
3.314,-0.500,17.000,0.500,20.000
3.315,-0.500,17.000,0.500,20.000
3.316,-0.500,17.500,0.500,20.000
3.317,-0.500,17.500,0.500,20.000
3.318,-0.500,18.000,1.000,20.500
3.319,-0.500,18.500,1.500,21.000
3.320,0.000,18.500,2.000,21.500
3.321,0.500,19.000,2.500,22.000
3.322,0.500,19.000,2.500,22.000
3.323,0.500,19.500,3.000,22.500
3.324,0.000,19.500,3.000,23.000
3.325,0.000,19.500,3.500,23.000
3.326,0.000,20.000,3.500,23.000
3.327,0.000,20.000,4.000,23.500
3.328,0.000,20.000,4.000,23.500
3.329,0.000,20.000,4.000,24.000
3.330,0.000,19.500,4.000,24.000
3.331,-0.500,19.500,4.000,23.500
3.332,-0.500,19.000,3.500,23.500
3.333,-0.500,19.000,3.500,23.000
3.334,-0.500,19.500,4.000,23.000
3.335,0.000,19.500,4.000,23.000
3.336,0.500,20.000,4.500,23.000
3.337,0.500,20.000,4.500,23.500
3.338,1.000,20.500,5.000,24.000
3.339,1.500,21.000,5.500,24.500
3.340,2.000,21.500,6.000,25.000
3.341,2.500,22.000,6.500,25.000
3.342,2.500,22.000,6.500,25.500
3.343,2.500,22.500,6.500,25.500
3.344,2.500,22.500,6.500,25.500
3.345,2.000,22.500,6.500,26.000
3.346,2.000,23.000,7.000,26.000
3.347,2.000,23.000,7.000,26.000
3.348,2.000,22.500,7.000,26.500
3.349,2.000,22.500,6.500,26.500
3.350,2.000,22.500,6.500,26.500
3.351,1.500,22.000,6.500,26.500
3.352,1.500,22.000,6.000,26.500
3.353,1.500,21.500,6.000,26.500
3.354,1.500,21.500,5.500,26.000
3.355,1.000,21.000,5.500,26.000
3.356,1.000,21.000,5.500,26.000
3.357,1.000,21.000,5.000,25.500
3.358,1.000,21.000,5.000,25.500
3.359,0.500,21.000,5.000,25.000
3.360,0.500,21.500,5.000,25.000
3.361,0.500,21.500,5.500,25.000
3.362,0.500,21.500,5.500,25.500
3.363,1.000,22.000,5.500,25.500
3.364,1.000,22.000,6.000,25.500
3.365,1.000,22.000,6.000,25.500
3.366,1.500,22.000,6.000,25.500
3.367,1.000,22.000,6.000,25.000
3.368,1.000,21.500,6.000,25.000
3.369,0.500,21.000,6.000,24.500
3.370,0.500,21.000,5.500,24.000
3.371,0.000,20.500,5.000,23.500
3.372,0.000,20.000,4.500,23.000
3.373,0.000,20.000,4.000,22.500
3.374,0.000,19.500,4.000,22.000
3.375,0.000,19.500,3.500,22.000
3.376,0.000,19.000,3.000,21.500
3.377,0.000,19.000,3.000,21.000
3.378,0.000,19.000,3.000,21.000
3.379,0.000,19.000,3.000,21.000
3.380,0.000,19.500,3.000,21.000
3.381,0.000,19.500,3.500,20.500
3.382,-0.500,19.500,3.500,20.500
3.383,-0.500,19.500,3.500,20.500
3.384,-0.500,20.000,3.500,20.500
3.385,-0.500,19.500,3.500,20.500
3.386,-1.000,19.500,3.500,20.500
3.387,-1.000,19.500,3.500,20.500
3.388,-1.000,19.500,3.500,20.500
3.389,-1.000,19.000,3.500,20.000
3.390,-1.000,19.000,3.000,20.000
3.391,-1.000,19.500,3.000,20.000
3.392,-0.500,19.500,3.000,20.000
3.393,-0.500,20.000,3.000,20.000
3.394,0.000,20.000,3.000,19.500
3.395,0.500,20.500,3.000,19.500
3.396,1.000,20.500,3.000,19.500
3.397,1.500,21.000,3.000,19.500
3.398,1.500,21.000,3.000,19.500
3.399,2.000,21.500,3.500,19.500
3.400,2.000,22.000,3.500,20.000
3.401,2.500,22.000,4.000,20.000
3.402,3.000,22.500,4.500,20.500
3.403,3.000,23.000,5.000,21.000
3.404,3.500,23.500,5.500,21.000
3.405,3.500,23.500,6.000,21.500
3.406,4.000,24.000,6.000,21.500
3.407,4.000,24.000,6.500,21.000
3.408,4.000,24.500,6.500,21.000
3.409,4.000,24.500,6.500,21.000
3.410,4.500,24.500,6.500,21.000
