'Elapsed time','AECG1','AECG2','AECG3','AECG4'
'seconds','uV','uV','uV','uV'
0.000,-0.500,-1.500,5.500,-1.000
0.001,-4.500,-13.500,49.500,-10.500
0.002,-4.500,-16.000,56.500,-12.000
0.003,-5.000,-17.000,60.000,-13.000
0.004,-6.000,-18.000,61.500,-14.000
0.005,-7.500,-18.500,61.500,-14.500
0.006,-9.000,-18.500,61.500,-14.500
0.007,-9.500,-18.500,61.000,-15.000
0.008,-9.000,-18.500,60.500,-15.500
0.009,-7.500,-19.000,60.000,-16.000
0.010,-5.500,-19.500,59.500,-17.000
0.011,-4.000,-20.000,58.500,-17.500
0.012,-2.000,-21.000,58.000,-18.000
0.013,-0.500,-21.500,57.000,-19.000
0.014,1.500,-22.000,57.000,-19.000
0.015,3.000,-22.000,56.500,-19.000
0.016,4.500,-22.000,56.500,-19.000
0.017,5.500,-22.000,57.000,-18.500
0.018,6.500,-22.000,57.500,-18.500
0.019,7.500,-21.500,58.000,-18.000
0.020,8.000,-21.000,58.500,-17.500
0.021,8.500,-21.000,58.500,-17.000
0.022,9.500,-21.000,59.000,-17.000
0.023,10.000,-21.000,58.500,-17.500
0.024,10.000,-21.500,58.500,-17.500
0.025,9.500,-22.000,58.000,-18.000
0.026,8.500,-22.500,57.000,-18.500
0.027,8.500,-23.500,56.500,-19.000
0.028,10.000,-24.000,56.000,-20.000
0.029,12.500,-24.500,55.000,-20.500
0.030,15.500,-24.500,54.500,-21.000
0.031,17.500,-25.000,54.500,-21.500
0.032,18.500,-25.000,54.000,-22.000
0.033,18.000,-25.000,54.000,-22.000
0.034,16.000,-25.000,54.000,-22.000
0.035,14.000,-25.000,54.000,-22.000
0.036,13.000,-25.000,54.000,-22.000
0.037,12.500,-25.000,54.500,-22.000
0.038,12.500,-25.000,54.500,-22.000
0.039,11.500,-25.000,54.500,-22.000
0.040,10.500,-25.000,54.500,-22.000
0.041,10.000,-25.000,55.000,-21.500
0.042,9.500,-25.000,55.000,-21.500
0.043,10.000,-25.000,55.000,-21.500
0.044,10.000,-25.000,55.000,-21.000
0.045,10.500,-25.500,55.000,-21.000
0.046,11.000,-25.500,54.500,-21.000
0.047,10.500,-25.500,54.500,-21.500
0.048,9.500,-26.000,54.500,-21.500
0.049,8.500,-26.000,54.500,-21.500
0.050,8.500,-26.000,54.500,-22.000
0.051,8.500,-26.000,54.000,-22.000
0.052,8.000,-26.000,54.000,-22.500
0.053,7.500,-26.000,54.000,-22.500
0.054,7.500,-26.000,54.000,-22.500
0.055,7.500,-26.000,54.000,-22.500
0.056,7.500,-26.000,53.500,-22.500
0.057,8.000,-26.000,53.500,-22.500
0.058,8.500,-25.500,53.500,-22.000
0.059,9.500,-25.500,54.000,-22.000
0.060,10.000,-25.000,54.500,-21.500
0.061,10.000,-24.500,55.000,-21.000
0.062,10.500,-24.000,55.000,-20.500
0.063,11.000,-24.000,55.500,-20.000
0.064,11.500,-23.500,56.000,-20.000
0.065,11.000,-23.500,56.000,-20.000
0.066,9.500,-23.500,56.000,-20.500
0.067,7.500,-24.000,55.500,-21.000
0.068,5.000,-24.000,55.000,-22.000
0.069,2.500,-24.500,54.500,-22.500
0.070,0.500,-25.000,54.000,-23.000
0.071,-0.500,-25.000,54.000,-23.500
0.072,-0.500,-25.500,53.500,-24.000
0.073,0.000,-25.500,53.500,-24.500
0.074,1.000,-25.500,53.000,-24.500
0.075,3.000,-26.000,53.000,-24.500
0.076,5.000,-26.000,53.000,-24.500
0.077,7.500,-26.000,53.000,-24.000
0.078,9.500,-25.500,53.500,-24.000
0.079,10.500,-25.500,53.500,-24.000
0.080,10.500,-25.000,53.500,-24.000
0.081,10.000,-25.000,53.500,-23.500
0.082,9.000,-24.500,54.000,-23.000
0.083,8.000,-24.500,54.000,-23.000
0.084,7.000,-24.500,54.000,-23.000
0.085,6.000,-25.000,54.000,-23.000
0.086,6.000,-25.000,54.000,-23.500
0.087,5.000,-25.000,53.500,-24.000
0.088,4.500,-25.500,53.000,-24.000
0.089,4.000,-26.000,52.500,-25.000
0.090,4.500,-26.500,52.000,-25.500
0.091,6.000,-27.000,51.500,-26.000
0.092,7.500,-27.500,51.000,-26.500
0.093,8.500,-27.500,50.500,-27.000
0.094,8.000,-28.000,50.000,-27.500
0.095,7.500,-28.000,49.500,-27.500
0.096,6.500,-28.000,49.500,-27.500
0.097,5.500,-28.000,49.500,-27.500
0.098,4.500,-28.000,50.000,-27.000
0.099,2.500,-27.500,50.000,-26.500
0.100,0.500,-27.500,50.500,-26.000
0.101,0.500,-27.000,51.000,-26.000
0.102,2.500,-27.000,51.000,-25.500
0.103,5.500,-27.000,51.500,-25.500
0.104,8.000,-27.000,51.500,-25.000
0.105,9.000,-27.000,52.000,-25.000
0.106,9.000,-27.000,52.000,-25.000
0.107,8.500,-27.000,51.500,-25.000
0.108,9.000,-27.500,51.500,-25.500
0.109,10.000,-27.500,51.000,-26.000
0.110,11.500,-28.000,50.000,-27.000
0.111,12.000,-28.000,49.500,-27.500
0.112,11.500,-28.500,49.500,-28.000
0.113,10.000,-28.500,49.500,-28.500
0.114,9.500,-28.000,49.000,-28.500
0.115,9.500,-28.000,49.500,-28.500
0.116,10.500,-27.500,49.500,-28.000
0.117,11.000,-27.500,50.000,-28.000
0.118,11.500,-27.000,50.500,-27.000
0.119,10.500,-26.500,51.000,-26.500
0.120,8.500,-26.500,51.500,-26.000
0.121,5.500,-26.000,51.500,-25.500
0.122,3.000,-26.000,51.500,-25.500
0.123,1.000,-26.000,52.000,-25.000
0.124,-0.500,-26.000,52.000,-25.000
0.125,-1.500,-26.000,51.500,-25.000
0.126,-2.500,-26.500,51.500,-25.000
0.127,-4.000,-26.500,51.500,-25.000
0.128,-5.000,-27.000,51.500,-25.500
0.129,-5.500,-27.000,51.000,-26.000
0.130,-5.000,-27.500,51.000,-26.500
0.131,-4.500,-27.500,50.500,-27.000
0.132,-3.500,-27.500,50.000,-27.000
0.133,-2.000,-28.000,50.000,-27.500
0.134,-0.500,-28.000,49.500,-27.500
0.135,1.500,-28.000,49.500,-28.000
0.136,2.000,-28.000,49.500,-27.500
0.137,2.500,-28.000,49.500,-27.500
0.138,2.500,-27.500,49.500,-27.500
0.139,3.000,-27.500,50.000,-27.000
0.140,3.500,-27.000,50.000,-26.500
0.141,3.000,-27.000,50.000,-26.500
0.142,2.500,-27.000,50.500,-26.000
0.143,2.000,-27.000,50.500,-26.000
0.144,2.000,-27.000,50.500,-26.500
0.145,3.000,-27.000,50.000,-26.500
0.146,4.500,-27.500,49.500,-27.000
0.147,6.500,-28.000,49.000,-27.500
0.148,8.500,-28.500,48.500,-27.500
0.149,10.000,-29.000,48.000,-28.000
0.150,11.000,-29.500,47.500,-28.500
0.151,11.000,-29.500,47.500,-29.000
0.152,10.000,-29.500,47.000,-29.500
0.153,8.000,-29.000,47.500,-29.000
0.154,7.000,-28.500,48.000,-28.500
0.155,7.000,-28.000,48.500,-28.000
0.156,8.000,-27.500,49.000,-27.500
0.157,8.500,-27.000,49.500,-27.000
0.158,9.000,-26.500,49.500,-26.500
0.159,9.000,-26.500,49.500,-26.000
0.160,8.000,-26.500,49.500,-25.500
0.161,7.000,-26.500,49.500,-25.000
0.162,6.500,-26.500,49.500,-25.000
0.163,7.500,-27.000,49.500,-25.000
0.164,9.000,-27.000,49.500,-25.000
0.165,10.500,-27.500,49.000,-25.000
0.166,10.000,-28.000,49.000,-25.500
0.167,9.500,-28.000,48.500,-25.500
0.168,8.500,-28.500,48.000,-26.000
0.169,9.000,-28.500,47.500,-26.500
0.170,9.000,-28.500,47.500,-26.500
0.171,9.500,-28.500,47.500,-26.500
0.172,9.500,-28.500,48.000,-26.500
0.173,9.000,-28.000,48.000,-26.500
0.174,7.500,-28.000,48.000,-27.000
0.175,5.500,-28.000,48.000,-27.000
0.176,3.000,-28.000,48.000,-27.000
0.177,1.000,-28.000,48.000,-27.500
0.178,-0.500,-28.000,48.000,-27.500
0.179,-1.500,-28.000,48.000,-27.500
0.180,-1.500,-28.000,48.000,-27.500
0.181,-1.000,-28.000,48.000,-27.500
0.182,0.000,-28.500,48.000,-27.500
0.183,2.000,-28.500,47.500,-27.500
0.184,3.500,-29.000,47.500,-27.500
0.185,4.500,-29.000,47.500,-27.500
0.186,3.000,-29.500,47.500,-28.000
0.187,0.000,-29.500,47.500,-28.000
0.188,-3.000,-29.500,47.500,-28.000
0.189,-4.500,-29.500,47.000,-28.500
0.190,-4.500,-29.000,47.000,-28.000
0.191,-3.000,-29.000,47.500,-28.000
0.192,-1.500,-28.500,47.500,-27.500
0.193,0.500,-28.500,48.000,-27.500
0.194,2.000,-28.500,48.000,-27.000
0.195,2.500,-28.500,48.000,-27.000
0.196,2.000,-28.500,48.500,-27.000
0.197,1.500,-28.500,48.500,-26.500
0.198,0.500,-28.500,49.000,-26.000
0.199,-0.500,-28.000,49.000,-25.500
0.200,0.000,-28.000,49.500,-25.000
0.201,1.500,-28.000,49.500,-25.000
0.202,3.500,-28.000,50.000,-25.000
0.203,5.000,-28.000,50.000,-24.500
0.204,6.000,-28.000,50.000,-25.000
0.205,7.000,-28.500,49.500,-25.000
0.206,8.000,-29.000,49.000,-25.000
0.207,9.000,-29.000,48.500,-25.500
0.208,9.500,-29.500,47.500,-26.500
0.209,9.500,-30.000,47.000,-27.000
0.210,9.000,-30.500,46.000,-28.000
0.211,7.000,-31.000,46.000,-28.500
0.212,3.500,-31.000,45.500,-29.500
0.213,-1.000,-31.000,45.500,-30.000
0.214,-4.500,-31.000,45.000,-30.000
0.215,-6.000,-31.500,45.000,-30.500
0.216,-5.000,-31.500,44.500,-30.500
0.217,-4.000,-31.500,44.500,-30.500
0.218,-4.500,-31.000,44.500,-30.500
0.219,-6.000,-31.000,44.500,-30.000
0.220,-8.000,-30.500,44.500,-30.000
0.221,-9.500,-30.500,45.000,-29.500
0.222,-9.000,-30.000,45.500,-29.000
0.223,-8.500,-29.500,46.000,-29.000
0.224,-7.000,-29.500,46.000,-29.000
0.225,-6.000,-29.500,46.000,-29.000
0.226,-4.500,-29.500,46.000,-29.000
0.227,-4.000,-29.500,46.000,-29.500
0.228,-4.500,-30.000,45.500,-30.000
0.229,-5.000,-30.000,45.500,-30.500
0.230,-4.500,-30.500,45.000,-30.500
0.231,-4.000,-30.500,44.500,-31.000
0.232,-1.500,-31.000,44.000,-31.500
0.233,1.500,-31.000,44.000,-31.500
0.234,4.500,-31.000,44.000,-31.500
0.235,6.500,-31.500,43.500,-31.500
0.236,8.000,-31.500,43.500,-31.500
0.237,8.500,-31.000,44.000,-31.000
0.238,7.500,-31.000,44.000,-31.000
0.239,5.500,-30.500,44.500,-30.500
0.240,4.000,-30.000,44.500,-30.000
0.241,3.500,-30.000,45.000,-29.500
0.242,5.000,-29.500,45.500,-29.500
0.243,6.500,-29.500,46.000,-29.500
0.244,7.000,-29.000,46.000,-29.000
0.245,7.000,-29.000,46.500,-29.500
0.246,6.500,-29.500,46.000,-30.000
0.247,6.500,-29.500,46.000,-30.500
0.248,6.500,-30.000,45.500,-30.500
0.249,7.000,-30.000,45.500,-31.000
0.250,7.000,-30.000,45.500,-31.000
0.251,6.000,-30.000,45.500,-30.500
0.252,5.000,-29.500,46.000,-30.500
0.253,3.000,-29.000,46.000,-30.000
0.254,1.000,-28.500,46.500,-29.500
0.255,-1.000,-28.500,47.000,-29.000
0.256,-3.000,-28.000,47.500,-29.000
0.257,-4.500,-27.500,48.000,-28.500
0.258,-5.000,-27.500,48.500,-28.000
0.259,-5.000,-27.500,49.000,-28.000
0.260,-3.500,-27.000,49.000,-27.500
0.261,-1.500,-27.000,49.500,-27.500
0.262,1.000,-27.000,49.500,-27.500
0.263,3.500,-26.500,49.500,-27.000
0.264,6.000,-26.500,50.000,-27.000
0.265,7.000,-26.500,50.000,-27.000
0.266,6.500,-27.000,50.000,-27.500
0.267,5.000,-27.500,50.000,-27.500
0.268,3.500,-28.000,49.000,-28.500
0.269,2.000,-28.000,48.500,-29.000
0.270,0.500,-28.500,48.000,-29.500
0.271,-0.500,-28.500,47.500,-30.000
0.272,-0.500,-29.000,47.000,-30.500
0.273,-0.500,-29.000,46.500,-31.000
0.274,0.500,-29.000,46.500,-31.000
0.275,1.500,-29.000,46.000,-31.500
0.276,2.500,-29.000,46.000,-31.500
0.277,3.500,-29.000,46.500,-31.000
0.278,3.500,-28.500,46.500,-31.000
0.279,2.500,-28.500,46.500,-30.500
0.280,1.000,-28.000,47.000,-30.500
0.281,0.500,-28.000,47.000,-30.000
0.282,0.000,-28.000,47.500,-29.500
0.283,0.000,-27.500,47.500,-29.500
0.284,0.000,-27.500,47.500,-29.500
0.285,0.000,-27.500,47.500,-30.000
0.286,0.500,-28.000,47.500,-30.500
0.287,1.000,-28.000,47.500,-31.000
0.288,1.500,-28.500,47.000,-31.500
0.289,2.500,-29.500,46.500,-32.000
0.290,4.000,-30.000,46.000,-32.500
0.291,5.500,-30.500,46.000,-33.000
0.292,7.000,-30.500,45.500,-33.000
0.293,7.500,-30.500,45.500,-33.500
0.294,8.500,-30.500,45.500,-33.500
0.295,9.000,-30.500,45.500,-33.500
0.296,9.500,-30.500,45.500,-33.500
0.297,10.500,-30.500,45.500,-33.000
0.298,11.500,-30.500,45.500,-33.000
0.299,12.000,-30.500,46.000,-33.000
0.300,11.500,-30.500,46.000,-33.000
0.301,10.500,-30.000,46.000,-32.500
0.302,9.500,-30.000,46.500,-32.500
0.303,10.000,-30.000,46.500,-32.500
0.304,11.500,-30.000,46.500,-32.500
0.305,13.000,-30.000,46.500,-32.500
0.306,14.000,-30.000,46.500,-33.000
0.307,13.000,-30.000,46.000,-33.500
0.308,12.000,-30.500,46.000,-34.000
0.309,11.000,-30.500,45.500,-34.500
0.310,11.500,-31.000,45.000,-34.500
0.311,12.500,-31.500,44.500,-35.000
0.312,13.000,-31.500,44.000,-35.500
0.313,13.500,-31.500,44.000,-35.500
0.314,14.500,-31.000,44.000,-35.500
0.315,15.500,-31.000,44.500,-35.000
0.316,16.500,-30.500,44.500,-34.500
0.317,16.500,-30.500,45.000,-34.000
0.318,16.000,-30.000,45.500,-33.500
0.319,15.000,-30.000,45.500,-33.000
0.320,13.500,-29.500,46.000,-32.500
0.321,12.500,-29.500,46.500,-32.000
0.322,12.000,-29.000,46.500,-32.000
0.323,11.500,-29.000,46.500,-32.000
0.324,12.000,-29.000,46.500,-32.000
0.325,13.000,-29.000,46.000,-32.500
0.326,14.000,-29.500,46.000,-33.000
0.327,15.000,-30.000,45.000,-33.500
0.328,16.000,-30.500,44.500,-34.000
0.329,16.000,-31.000,44.000,-35.000
0.330,16.000,-31.500,43.000,-35.500
0.331,17.000,-32.000,42.500,-36.000
0.332,18.500,-32.500,42.500,-36.500
0.333,19.500,-32.500,42.500,-37.000
0.334,20.500,-32.000,43.000,-37.000
0.335,20.500,-31.500,43.000,-37.000
0.336,19.000,-31.000,43.500,-36.500
0.337,16.500,-30.500,44.500,-36.000
0.338,12.500,-30.000,45.000,-35.500
0.339,8.500,-29.500,45.500,-35.000
0.340,5.500,-29.000,46.000,-34.500
0.341,4.500,-29.000,46.000,-34.000
0.342,5.500,-28.500,46.000,-33.500
0.343,7.500,-28.500,46.000,-33.500
0.344,9.000,-28.500,46.000,-33.500
0.345,10.000,-29.000,45.500,-33.500
0.346,10.500,-29.000,45.500,-33.500
0.347,10.000,-29.500,45.000,-34.000
0.348,9.500,-30.000,44.500,-34.500
0.349,8.000,-30.500,44.000,-35.000
0.350,7.500,-30.500,43.500,-35.500
0.351,7.500,-31.000,43.000,-36.000
0.352,8.500,-31.500,43.000,-36.500
0.353,10.500,-31.500,42.500,-36.500
0.354,12.500,-31.500,43.000,-36.500
0.355,14.000,-31.500,43.000,-36.000
0.356,14.000,-31.000,43.500,-35.500
0.357,13.000,-31.000,44.000,-35.000
0.358,12.500,-30.500,44.000,-34.500
0.359,12.500,-30.000,44.500,-34.500
0.360,13.500,-29.500,45.000,-34.000
0.361,15.000,-29.000,45.500,-33.500
0.362,17.000,-28.500,45.500,-33.500
0.363,18.500,-28.500,46.000,-33.500
0.364,19.500,-28.500,46.000,-33.500
0.365,20.000,-28.500,46.000,-33.500
0.366,19.000,-28.500,46.000,-34.000
0.367,16.500,-28.500,46.000,-34.000
0.368,13.500,-28.500,46.500,-34.000
0.369,11.000,-28.000,46.500,-34.000
0.370,10.500,-28.000,46.500,-34.000
0.371,11.000,-28.000,46.500,-34.000
0.372,13.000,-28.000,46.500,-34.500
0.373,15.500,-28.000,46.000,-34.500
0.374,18.000,-28.500,45.500,-34.500
0.375,18.500,-28.500,45.500,-34.500
0.376,17.500,-28.500,46.000,-34.500
0.377,16.000,-28.500,46.000,-34.500
0.378,15.000,-28.500,46.000,-34.000
0.379,14.500,-28.500,46.500,-34.000
0.380,14.000,-28.500,46.500,-33.500
0.381,13.500,-28.500,46.500,-33.500
0.382,13.500,-28.000,47.000,-33.000
0.383,13.500,-28.000,47.000,-33.000
0.384,13.500,-28.000,47.000,-33.500
0.385,13.000,-28.500,47.000,-33.500
0.386,12.500,-28.500,46.500,-34.000
0.387,12.000,-29.000,46.000,-34.500
0.388,12.000,-29.500,46.000,-35.500
0.389,11.500,-29.500,45.500,-35.500
0.390,10.000,-29.500,45.500,-36.000
0.391,8.500,-29.000,45.500,-36.000
0.392,7.500,-28.500,46.000,-35.500
0.393,6.500,-28.000,46.000,-35.000
0.394,6.500,-27.500,46.500,-34.500
0.395,7.500,-27.000,46.500,-34.000
0.396,8.500,-27.000,47.000,-34.000
0.397,10.000,-27.000,46.500,-33.500
0.398,11.500,-27.500,46.500,-33.500
0.399,12.500,-28.000,46.500,-33.500
0.400,12.500,-28.500,46.000,-33.500
0.401,12.000,-29.000,45.500,-34.000
0.402,10.000,-30.000,45.000,-34.000
0.403,8.000,-30.500,44.500,-34.500
0.404,6.500,-31.000,44.500,-34.500
0.405,6.000,-31.500,44.000,-34.500
0.406,6.500,-31.500,43.500,-35.000
0.407,7.000,-31.500,43.500,-35.000
0.408,7.000,-31.000,44.000,-35.000
0.409,5.500,-30.500,44.500,-35.000
0.410,3.500,-29.500,45.000,-35.000
0.411,1.500,-28.500,46.000,-34.000
0.412,0.000,-27.000,47.500,-33.500
0.413,-1.000,-25.500,48.500,-32.500
0.414,-1.000,-24.500,50.000,-31.500
0.415,-0.500,-23.500,51.000,-31.000
0.416,-0.500,-22.500,51.500,-30.000
0.417,0.000,-22.000,52.000,-29.500
0.418,1.000,-22.000,52.500,-29.000
0.419,1.500,-22.000,52.500,-28.500
0.420,2.000,-22.000,52.500,-28.000
0.421,2.000,-22.000,52.500,-28.000
0.422,1.500,-22.500,52.000,-28.000
0.423,2.000,-23.000,51.500,-28.500
0.424,3.000,-24.000,51.000,-29.000
0.425,5.000,-25.000,50.000,-30.000
0.426,7.000,-26.000,49.000,-31.000
0.427,8.000,-27.000,47.500,-32.500
0.428,7.500,-28.000,46.500,-33.500
0.429,5.500,-28.500,45.500,-34.500
0.430,3.000,-29.000,45.000,-35.500
0.431,1.000,-29.500,45.000,-36.000
0.432,0.000,-29.500,44.500,-36.000
0.433,1.000,-29.500,44.500,-36.000
0.434,2.500,-29.500,44.500,-36.000
0.435,4.500,-29.500,44.500,-35.500
0.436,5.000,-29.000,45.000,-35.500
0.437,4.500,-29.000,45.000,-35.000
0.438,4.000,-28.500,45.500,-34.500
0.439,4.500,-28.500,46.000,-34.000
0.440,6.000,-28.000,46.500,-34.000
0.441,6.500,-28.000,46.500,-33.500
0.442,6.000,-28.000,47.000,-33.000
0.443,4.500,-28.000,47.000,-33.000
0.444,2.000,-28.000,47.500,-33.000
0.445,-1.000,-27.500,47.500,-32.500
0.446,-3.000,-27.000,48.000,-32.500
0.447,-4.500,-27.000,48.500,-32.000
0.448,-3.500,-26.500,48.500,-31.500
0.449,-1.000,-26.500,48.500,-31.500
0.450,3.000,-26.000,48.500,-31.500
0.451,6.000,-26.000,48.500,-31.500
0.452,7.000,-26.000,48.500,-31.500
0.453,6.500,-26.000,48.500,-31.500
0.454,6.000,-26.000,48.500,-31.500
0.455,5.500,-26.000,49.000,-31.000
0.456,6.000,-25.500,49.000,-31.000
0.457,6.000,-25.500,49.500,-30.500
0.458,7.000,-24.500,50.000,-30.000
0.459,8.000,-24.000,50.500,-29.500
0.460,9.500,-23.500,51.000,-29.000
0.461,10.500,-23.000,52.000,-28.500
0.462,10.000,-22.500,52.500,-28.000
0.463,9.000,-22.000,53.000,-27.500
0.464,7.500,-21.500,53.000,-27.500
0.465,6.000,-21.500,53.000,-27.500
0.466,4.000,-22.000,53.000,-28.000
0.467,1.500,-22.500,52.500,-28.500
0.468,0.000,-23.000,52.000,-29.000
0.469,-0.500,-23.500,51.500,-29.500
0.470,-0.500,-23.500,51.000,-30.000
0.471,1.000,-24.000,51.000,-30.500
0.472,3.000,-24.500,50.500,-31.000
0.473,6.000,-25.000,50.000,-32.000
0.474,10.000,-25.500,49.500,-32.000
0.475,14.000,-25.500,49.500,-32.500
0.476,16.500,-25.500,49.500,-32.500
0.477,18.000,-25.500,49.500,-32.500
0.478,18.000,-25.500,50.000,-32.500
0.479,19.000,-25.500,50.500,-32.000
0.480,20.500,-25.000,50.500,-32.000
0.481,23.000,-25.000,50.500,-31.500
0.482,25.500,-24.500,51.000,-31.000
0.483,27.000,-24.500,51.000,-31.000
0.484,27.500,-24.500,51.000,-30.500
0.485,26.500,-24.500,51.500,-30.500
0.486,24.500,-24.500,51.500,-30.500
0.487,22.500,-24.500,52.000,-30.500
0.488,20.500,-24.500,51.500,-30.500
0.489,19.500,-25.000,51.500,-31.000
0.490,19.500,-25.000,51.000,-31.000
0.491,18.500,-25.000,51.000,-31.500
0.492,17.500,-25.000,51.000,-31.500
0.493,15.500,-25.000,51.000,-31.000
0.494,13.500,-24.000,51.500,-30.500
0.495,12.000,-23.500,52.000,-30.000
0.496,11.500,-22.500,52.500,-30.000
0.497,12.000,-22.000,53.000,-29.500
0.498,13.000,-21.500,53.000,-29.000
0.499,13.500,-21.000,53.500,-28.500
0.500,13.500,-21.000,54.500,-28.000
0.501,13.000,-20.500,55.000,-27.500
0.502,11.500,-20.500,55.500,-27.000
0.503,9.000,-20.000,55.500,-27.000
0.504,7.000,-20.000,55.500,-26.500
0.505,5.500,-20.000,55.500,-27.000
0.506,4.500,-20.500,55.000,-27.000
0.507,4.000,-20.500,55.000,-27.500
0.508,4.000,-21.000,54.500,-28.000
0.509,3.500,-21.500,54.000,-28.000
0.510,3.500,-21.500,54.000,-28.500
0.511,2.500,-22.000,53.500,-29.000
0.512,2.000,-22.500,53.000,-29.000
0.513,2.000,-22.500,53.000,-29.000
0.514,3.000,-22.500,53.000,-29.000
0.515,5.000,-22.000,53.000,-29.500
0.516,7.000,-21.500,53.500,-29.000
0.517,8.500,-21.000,53.500,-29.000
0.518,8.500,-20.500,53.500,-28.500
0.519,7.500,-20.500,54.000,-28.000
0.520,6.000,-20.000,54.000,-28.000
0.521,5.500,-20.000,54.000,-27.500
0.522,7.000,-20.000,54.000,-27.500
0.523,8.500,-20.000,54.000,-27.000
0.524,10.500,-20.000,54.500,-27.000
0.525,12.000,-20.000,54.000,-27.000
0.526,14.000,-20.000,54.000,-27.500
0.527,16.000,-20.500,53.500,-28.000
0.528,17.500,-21.000,53.000,-28.500
0.529,19.000,-21.000,52.500,-29.000
0.530,19.500,-21.500,52.000,-29.000
0.531,18.500,-22.000,51.000,-29.500
0.532,17.500,-23.000,50.500,-30.500
0.533,16.500,-23.500,49.500,-31.500
0.534,14.500,-24.500,48.500,-32.500
0.535,12.500,-26.000,47.000,-34.500
0.536,10.000,-27.500,45.000,-36.000
0.537,7.000,-29.000,43.000,-38.000
0.538,5.000,-30.500,41.500,-40.000
0.539,3.000,-32.500,39.500,-42.000
0.540,1.500,-34.500,38.000,-44.000
0.541,-1.000,-36.000,36.500,-45.500
0.542,-3.500,-38.000,35.000,-47.000
0.543,-6.500,-39.500,34.000,-48.000
0.544,-8.500,-41.000,33.000,-49.000
0.545,-8.500,-42.500,32.000,-49.500
0.546,-7.500,-44.000,31.000,-50.000
0.547,-6.000,-45.000,30.500,-50.000
0.548,-4.000,-45.500,30.500,-49.500
0.549,-3.000,-45.500,31.500,-48.000
0.550,-2.000,-44.500,33.000,-45.500
0.551,-0.500,-42.500,36.000,-42.500
0.552,0.500,-40.000,39.500,-38.000
0.553,0.500,-36.000,43.500,-32.500
0.554,0.000,-31.500,49.000,-26.000
0.555,-0.500,-26.500,55.000,-19.000
0.556,0.500,-20.500,62.000,-11.000
0.557,3.500,-14.000,69.500,-2.500
0.558,7.000,-7.000,77.500,6.500
0.559,10.500,-0.500,85.000,15.500
0.560,12.500,5.500,92.000,23.500
0.561,13.500,11.500,98.500,31.000
0.562,13.000,17.000,105.000,38.000
0.563,13.500,22.500,111.000,44.500
0.564,14.500,27.500,116.500,50.500
0.565,15.000,32.500,121.500,56.000
0.566,14.500,37.000,125.500,60.500
0.567,13.000,41.500,129.000,63.000
0.568,11.000,45.000,131.500,64.500
0.569,9.500,48.000,132.500,64.500
0.570,8.500,50.500,133.500,63.500
0.571,8.500,52.500,134.000,61.500
0.572,8.000,53.500,133.500,59.500
0.573,8.500,54.000,132.500,56.500
0.574,8.500,53.500,130.000,53.000
0.575,8.000,51.500,127.000,49.000
0.576,7.000,48.500,123.000,44.000
0.577,6.000,45.000,118.500,39.500
0.578,6.000,40.000,114.000,34.000
0.579,5.500,35.000,109.000,29.000
0.580,5.500,30.000,104.000,23.500
0.581,5.500,25.000,99.000,18.000
0.582,6.000,19.500,94.000,12.500
0.583,7.500,14.500,89.000,7.500
0.584,8.500,9.500,84.000,2.500
0.585,8.500,5.000,79.500,-2.000
0.586,8.000,0.500,74.500,-7.000
0.587,7.000,-4.000,70.500,-11.000
0.588,5.500,-7.500,66.500,-15.000
0.589,4.000,-11.500,63.000,-19.000
0.590,3.500,-14.500,59.500,-22.000
0.591,3.000,-17.000,57.000,-25.000
0.592,2.000,-19.000,55.000,-27.000
0.593,0.500,-20.500,54.000,-28.500
0.594,-2.000,-21.500,53.000,-29.000
0.595,-4.000,-21.500,53.000,-29.500
0.596,-5.000,-22.000,52.500,-30.000
0.597,-4.500,-21.500,53.000,-30.000
0.598,-4.000,-21.500,53.000,-30.000
0.599,-3.000,-21.500,53.000,-30.000
0.600,-3.000,-21.500,52.500,-30.000
0.601,-3.000,-21.500,52.500,-30.000
0.602,-3.000,-21.500,52.500,-30.500
0.603,-1.500,-22.000,52.500,-30.500
0.604,2.000,-22.000,52.000,-31.000
0.605,5.000,-22.500,52.000,-31.000
0.606,7.000,-22.500,51.500,-31.500
0.607,8.000,-23.000,51.000,-32.000
0.608,9.000,-23.500,50.500,-32.500
0.609,9.500,-24.000,49.500,-33.500
0.610,9.500,-25.000,49.000,-34.000
0.611,9.000,-25.000,48.500,-35.000
0.612,8.000,-25.500,47.500,-35.500
0.613,7.500,-25.500,47.500,-35.500
0.614,6.500,-26.000,47.000,-36.000
0.615,6.000,-26.000,47.000,-36.000
0.616,5.000,-26.000,47.000,-36.000
0.617,4.000,-26.000,47.500,-36.000
0.618,3.500,-26.000,47.500,-35.500
0.619,2.500,-25.500,48.000,-35.500
0.620,1.500,-25.500,48.000,-35.000
0.621,1.000,-25.000,48.500,-35.000
0.622,2.000,-25.000,48.500,-34.500
0.623,3.000,-25.000,48.500,-34.500
0.624,4.000,-25.000,49.000,-34.500
0.625,5.000,-25.000,49.000,-35.000
0.626,5.500,-25.000,49.000,-35.000
0.627,5.000,-25.000,48.500,-35.500
0.628,4.000,-25.000,48.500,-35.500
0.629,2.500,-25.000,48.500,-36.000
0.630,1.500,-25.500,48.000,-36.000
0.631,1.500,-25.500,48.000,-36.000
0.632,2.500,-25.500,47.500,-36.500
0.633,4.000,-25.500,47.500,-36.500
0.634,5.500,-25.000,47.000,-36.500
0.635,6.500,-25.000,47.500,-36.500
0.636,6.000,-24.500,47.500,-36.500
0.637,5.500,-24.000,48.000,-36.000
0.638,5.500,-24.000,48.000,-36.000
0.639,6.000,-23.500,48.500,-35.500
0.640,7.000,-23.500,49.000,-35.500
0.641,6.500,-23.000,49.000,-35.000
0.642,5.000,-23.000,49.500,-34.500
0.643,2.000,-23.000,49.500,-34.500
0.644,-1.000,-23.000,49.500,-34.500
0.645,-3.500,-23.500,49.500,-35.000
0.646,-5.000,-24.000,49.000,-35.500
0.647,-5.000,-24.000,48.500,-36.000
0.648,-4.500,-24.500,48.500,-36.500
0.649,-4.000,-25.000,48.000,-37.000
0.650,-3.500,-25.000,47.500,-37.000
0.651,-4.500,-25.500,47.500,-37.500
0.652,-5.500,-25.500,47.000,-37.500
0.653,-6.000,-25.500,47.000,-37.500
0.654,-6.000,-25.500,47.000,-37.500
0.655,-6.000,-25.500,47.000,-37.500
0.656,-5.000,-25.000,47.500,-37.000
0.657,-4.000,-24.500,47.500,-36.500
0.658,-2.000,-24.500,48.000,-36.500
0.659,-1.000,-24.000,48.000,-36.000
0.660,-2.000,-24.000,48.500,-35.500
0.661,-3.500,-23.500,49.000,-35.000
0.662,-5.500,-23.000,49.500,-35.000
0.663,-7.000,-23.000,50.000,-35.000
0.664,-8.000,-22.500,50.000,-35.000
0.665,-8.500,-22.500,50.500,-35.000
0.666,-8.000,-22.500,50.500,-35.000
0.667,-7.500,-22.500,50.500,-35.000
0.668,-7.500,-23.000,50.500,-35.500
0.669,-7.500,-23.500,50.000,-35.500
0.670,-7.000,-24.000,49.500,-36.000
0.671,-5.500,-24.000,49.500,-36.000
0.672,-3.500,-24.500,49.000,-36.500
0.673,-2.000,-25.000,48.500,-37.000
0.674,-1.500,-25.500,48.000,-37.000
0.675,-2.000,-25.500,48.000,-37.000
0.676,-2.500,-25.000,48.500,-37.000
0.677,-3.000,-25.000,48.500,-36.500
0.678,-3.500,-24.500,49.000,-36.000
0.679,-4.500,-24.000,49.000,-35.000
0.680,-6.000,-23.500,49.500,-34.500
0.681,-6.500,-23.500,49.500,-34.000
0.682,-6.500,-24.000,50.000,-34.000
0.683,-5.500,-24.000,50.000,-33.500
0.684,-4.000,-24.000,50.500,-33.500
0.685,-2.500,-24.500,50.500,-33.500
0.686,-0.500,-25.000,50.000,-34.000
0.687,1.000,-25.000,50.000,-34.000
0.688,1.500,-25.500,50.000,-34.500
0.689,1.000,-26.000,49.500,-35.000
0.690,0.000,-26.000,49.500,-35.000
0.691,-1.000,-26.500,49.500,-35.500
0.692,-2.500,-26.500,49.500,-35.500
0.693,-3.000,-26.500,49.500,-36.000
0.694,-2.500,-27.000,49.000,-36.000
0.695,-0.500,-26.500,49.000,-36.000
0.696,1.500,-26.500,49.000,-35.500
0.697,3.000,-26.000,49.500,-35.000
0.698,4.500,-25.500,50.000,-34.500
0.699,6.000,-25.500,50.500,-33.500
0.700,8.000,-25.000,51.000,-33.000
0.701,9.000,-25.000,51.500,-32.000
0.702,8.500,-25.000,52.000,-32.000
0.703,7.500,-25.000,52.500,-31.500
0.704,6.000,-25.500,52.500,-32.000
0.705,4.500,-25.500,52.000,-32.000
0.706,4.000,-26.000,52.000,-32.500
0.707,3.500,-26.500,51.000,-33.000
0.708,2.500,-27.000,50.500,-33.500
0.709,0.500,-27.500,50.000,-34.500
0.710,-2.000,-28.000,49.500,-35.000
0.711,-4.500,-28.500,49.000,-36.000
0.712,-6.000,-28.500,48.500,-36.500
0.713,-7.000,-29.000,48.500,-36.500
0.714,-7.500,-29.000,48.000,-37.000
0.715,-7.500,-29.000,48.000,-36.500
0.716,-7.000,-29.500,48.000,-36.500
0.717,-6.000,-29.500,48.000,-36.000
0.718,-5.000,-29.500,48.500,-35.500
0.719,-4.000,-29.500,49.000,-35.500
0.720,-3.000,-29.500,49.000,-35.000
0.721,-1.500,-29.500,49.500,-34.500
0.722,-0.500,-29.500,49.500,-34.500
0.723,0.000,-29.500,49.500,-34.000
0.724,-0.500,-29.500,49.500,-34.000
0.725,-1.500,-29.500,49.500,-34.000
0.726,-1.500,-29.500,49.000,-34.500
0.727,-1.000,-29.500,49.000,-34.500
0.728,0.000,-29.500,49.000,-34.500
0.729,1.000,-29.000,49.000,-35.000
0.730,2.000,-29.000,49.000,-35.000
0.731,3.500,-29.000,49.000,-35.000
0.732,4.500,-29.000,49.000,-35.000
0.733,4.500,-28.500,49.000,-35.500
0.734,3.000,-28.500,49.000,-35.000
0.735,1.500,-28.500,49.000,-35.000
0.736,1.000,-28.000,49.000,-35.000
0.737,0.500,-28.000,49.000,-34.500
0.738,0.000,-27.500,49.000,-34.000
0.739,-2.000,-27.000,49.000,-33.500
0.740,-4.000,-27.000,49.500,-33.000
0.741,-5.500,-27.000,50.000,-32.500
0.742,-6.000,-27.000,50.000,-32.000
0.743,-6.000,-27.000,50.500,-31.500
0.744,-5.000,-27.000,51.000,-31.500
0.745,-5.000,-27.000,51.500,-31.500
0.746,-5.500,-27.000,51.500,-32.000
0.747,-6.000,-27.000,51.000,-32.500
0.748,-5.500,-27.500,50.500,-33.000
0.749,-4.500,-28.000,50.000,-34.000
0.750,-2.500,-28.000,49.500,-34.500
0.751,-0.500,-28.500,49.000,-34.500
0.752,1.000,-28.500,48.500,-35.000
0.753,2.500,-28.500,48.500,-35.000
0.754,2.500,-28.500,48.500,-35.000
0.755,1.500,-28.000,48.500,-35.000
0.756,0.000,-28.000,48.500,-34.500
0.757,-0.500,-28.000,49.000,-34.500
0.758,1.000,-27.500,49.500,-34.000
0.759,3.500,-27.500,50.000,-33.500
0.760,5.500,-27.000,50.000,-33.000
0.761,7.000,-26.500,50.500,-32.500
0.762,8.000,-26.500,51.000,-32.000
0.763,8.500,-26.000,51.000,-31.500
0.764,9.000,-26.000,51.500,-31.000
0.765,9.000,-26.000,51.500,-31.000
0.766,7.500,-26.500,51.000,-31.000
0.767,6.000,-27.000,51.000,-31.500
0.768,5.000,-27.500,50.500,-32.000
0.769,5.500,-28.000,49.500,-32.500
0.770,6.500,-28.500,49.000,-33.000
0.771,7.500,-28.500,49.000,-33.500
0.772,7.000,-29.000,48.500,-34.000
0.773,6.000,-29.000,48.500,-34.000
0.774,4.000,-28.500,48.500,-34.000
0.775,1.500,-28.500,49.000,-33.500
0.776,-0.500,-27.500,49.500,-33.000
0.777,-2.500,-27.000,50.000,-32.500
0.778,-3.000,-26.500,51.000,-32.000
0.779,-3.000,-25.500,51.500,-31.000
0.780,-2.000,-25.000,52.000,-30.500
0.781,-1.000,-25.000,52.500,-29.500
0.782,0.000,-24.500,53.000,-29.000
0.783,0.500,-24.500,53.000,-29.000
0.784,0.500,-24.500,53.000,-28.500
0.785,0.500,-24.500,53.000,-29.000
0.786,0.000,-25.000,52.500,-29.000
0.787,0.000,-25.000,52.000,-29.500
0.788,0.500,-25.500,52.000,-30.000
0.789,1.000,-26.000,51.500,-30.500
0.790,1.500,-26.000,51.000,-31.000
0.791,1.500,-26.000,51.000,-31.500
0.792,1.000,-26.000,51.000,-32.000
0.793,1.000,-26.000,51.000,-33.000
0.794,1.000,-26.000,50.500,-34.000
0.795,1.500,-26.000,50.500,-34.500
0.796,1.500,-26.000,50.500,-35.500
0.797,1.000,-26.000,50.500,-35.500
0.798,1.000,-25.500,50.500,-35.500
0.799,1.500,-25.500,51.000,-35.000
0.800,2.500,-25.000,51.500,-35.000
0.801,3.500,-25.000,52.000,-34.500
0.802,4.500,-24.500,52.000,-34.500
0.803,5.000,-24.500,52.500,-34.500
0.804,4.500,-24.500,52.500,-34.500
0.805,4.500,-24.500,52.000,-34.500
0.806,4.000,-25.000,52.000,-35.000
0.807,3.500,-25.000,51.500,-35.500
0.808,3.000,-25.500,51.000,-36.000
0.809,2.500,-25.500,50.500,-37.000
0.810,2.000,-26.000,50.000,-37.500
0.811,1.500,-26.000,49.500,-38.000
0.812,1.000,-26.000,49.500,-38.000
0.813,0.000,-26.500,49.000,-38.500
0.814,-1.000,-26.000,49.500,-38.000
0.815,-1.500,-26.000,50.000,-37.500
0.816,-1.500,-25.500,50.500,-37.000
0.817,-1.000,-25.000,51.000,-36.500
0.818,-1.000,-24.000,51.500,-36.000
0.819,-1.000,-23.500,52.500,-35.500
0.820,-1.000,-23.000,52.500,-35.000
0.821,-1.000,-22.500,53.000,-34.500
0.822,-1.500,-22.500,53.000,-34.000
0.823,-2.500,-22.000,53.000,-34.000
0.824,-3.500,-22.000,53.000,-34.000
0.825,-5.500,-22.000,53.000,-34.500
0.826,-7.000,-22.500,52.500,-35.000
0.827,-7.500,-23.000,52.000,-35.500
0.828,-7.000,-24.000,51.000,-36.500
0.829,-6.000,-24.500,50.500,-37.500
0.830,-5.500,-25.500,49.500,-38.500
0.831,-4.500,-26.500,48.000,-39.500
0.832,-4.000,-27.000,47.000,-40.000
0.833,-4.500,-27.500,46.500,-40.500
0.834,-5.500,-27.500,46.000,-41.000
0.835,-6.500,-27.500,45.500,-41.500
0.836,-7.000,-27.500,46.000,-41.500
0.837,-7.500,-26.500,46.000,-41.000
0.838,-7.500,-25.500,47.000,-40.000
0.839,-7.500,-24.000,48.500,-39.000
0.840,-8.000,-22.500,50.000,-37.500
0.841,-8.500,-21.000,51.500,-36.000
0.842,-9.000,-19.500,53.000,-34.500
0.843,-9.500,-18.500,54.500,-33.500
0.844,-9.500,-17.500,55.500,-32.500
0.845,-9.000,-16.500,56.000,-32.000
0.846,-7.500,-15.500,56.500,-31.500
0.847,-5.500,-15.500,56.500,-31.000
0.848,-3.500,-15.500,56.000,-31.000
0.849,-2.500,-15.500,56.000,-31.500
0.850,-2.000,-16.000,55.500,-31.500
0.851,-2.000,-16.500,55.000,-32.500
0.852,-2.500,-17.000,54.000,-33.000
0.853,-2.500,-17.500,53.500,-33.500
0.854,-2.500,-18.000,52.500,-34.500
0.855,-3.000,-18.500,52.000,-35.000
0.856,-3.500,-18.500,51.500,-35.000
0.857,-4.500,-19.000,51.000,-35.000
0.858,-5.500,-19.000,51.000,-35.000
0.859,-6.000,-19.000,51.000,-35.000
0.860,-5.500,-19.000,51.000,-35.000
0.861,-4.500,-19.500,51.500,-35.000
0.862,-2.000,-19.500,51.500,-35.000
0.863,1.000,-19.500,52.000,-34.500
0.864,3.500,-19.500,52.500,-34.500
0.865,5.500,-19.500,52.500,-34.000
0.866,6.500,-19.500,52.500,-34.000
0.867,6.500,-20.000,52.500,-34.000
0.868,6.000,-20.500,52.000,-34.500
0.869,6.000,-20.500,52.000,-35.000
0.870,7.000,-21.000,51.500,-35.000
0.871,7.500,-21.000,51.500,-35.500
0.872,8.000,-20.500,51.500,-35.500
0.873,8.500,-20.500,51.500,-36.000
0.874,8.500,-20.000,52.000,-36.000
0.875,8.500,-20.000,52.000,-35.500
0.876,8.000,-19.500,52.500,-35.000
0.877,6.500,-19.000,53.000,-34.500
0.878,5.000,-19.000,53.000,-34.000
0.879,3.500,-18.500,53.500,-33.500
0.880,2.000,-18.500,54.000,-33.000
0.881,1.000,-18.500,54.500,-32.500
0.882,0.500,-18.000,55.000,-32.000
0.883,0.000,-18.000,55.000,-32.000
0.884,0.500,-18.000,55.000,-32.000
0.885,0.500,-18.000,55.000,-32.000
0.886,0.000,-18.000,54.500,-32.500
0.887,-0.500,-18.000,54.500,-33.000
0.888,-1.000,-18.500,54.000,-33.500
0.889,-0.500,-19.000,53.500,-34.000
0.890,-0.500,-20.000,53.000,-35.000
0.891,-1.000,-20.500,53.000,-35.500
0.892,-1.500,-21.000,52.500,-36.000
0.893,-2.000,-21.000,52.000,-36.000
0.894,-2.000,-21.000,52.000,-36.000
0.895,-2.500,-20.500,52.000,-36.000
0.896,-3.000,-20.500,52.000,-36.000
0.897,-4.000,-20.000,52.500,-35.500
0.898,-5.500,-19.500,52.500,-35.000
0.899,-7.500,-19.000,53.000,-34.500
0.900,-9.500,-19.000,53.000,-34.000
0.901,-10.000,-18.500,53.500,-33.500
0.902,-10.000,-18.500,53.500,-33.000
0.903,-8.500,-18.500,54.000,-32.500
0.904,-6.500,-18.500,54.000,-32.500
0.905,-4.000,-18.000,54.000,-33.000
0.906,-1.000,-18.500,53.500,-33.000
0.907,1.500,-18.500,53.500,-33.500
0.908,3.000,-18.500,53.500,-33.500
0.909,3.500,-19.000,53.000,-34.000
0.910,2.500,-19.000,53.000,-34.000
0.911,1.000,-19.000,53.000,-34.000
0.912,1.000,-19.000,52.500,-34.000
0.913,1.000,-19.000,52.500,-34.000
0.914,2.000,-18.500,52.500,-34.500
0.915,2.000,-18.500,52.500,-34.500
0.916,1.500,-18.000,53.000,-34.000
0.917,0.000,-18.000,53.500,-33.500
0.918,-2.000,-17.500,53.500,-33.000
0.919,-3.000,-17.000,54.000,-32.500
0.920,-3.500,-16.500,54.500,-32.000
0.921,-3.000,-16.500,55.000,-31.500
0.922,-2.500,-16.500,55.500,-31.000
0.923,-1.500,-16.500,55.500,-31.000
0.924,-0.500,-16.500,55.500,-30.500
0.925,0.500,-17.000,55.500,-31.000
0.926,0.500,-17.000,55.500,-31.000
0.927,0.000,-17.500,55.500,-31.500
0.928,-1.000,-18.000,55.000,-32.000
0.929,-1.500,-18.500,55.000,-32.500
0.930,-2.000,-18.500,54.500,-33.000
0.931,-1.500,-19.000,54.500,-33.500
0.932,-0.500,-19.000,54.000,-33.500
0.933,0.000,-19.500,53.500,-34.000
0.934,-0.500,-19.500,53.000,-34.000
0.935,-1.500,-19.000,53.000,-34.000
0.936,-3.000,-18.500,53.500,-34.000
0.937,-4.000,-18.500,54.000,-33.500
0.938,-3.500,-18.000,54.500,-33.000
0.939,-2.500,-17.500,55.000,-32.500
0.940,-1.500,-17.500,55.000,-32.000
0.941,-0.500,-17.000,55.500,-31.500
0.942,0.500,-16.500,56.000,-31.000
0.943,1.500,-16.000,56.000,-30.500
0.944,2.500,-16.000,56.000,-30.500
0.945,4.500,-16.000,56.000,-30.500
0.946,6.000,-16.500,55.500,-31.000
0.947,7.000,-17.000,55.000,-31.500
0.948,7.000,-17.500,54.500,-32.500
0.949,6.500,-18.000,54.000,-33.000
0.950,6.000,-18.500,53.500,-34.000
0.951,6.500,-19.000,53.000,-34.500
0.952,6.500,-19.500,53.000,-35.000
0.953,6.500,-20.000,52.500,-35.000
0.954,6.000,-20.000,52.500,-35.000
0.955,6.000,-20.000,52.500,-35.000
0.956,6.500,-20.000,52.500,-34.500
0.957,6.000,-19.500,52.500,-34.000
0.958,4.500,-19.000,53.000,-33.500
0.959,2.500,-18.500,53.500,-33.000
0.960,1.500,-18.000,54.000,-32.500
0.961,1.500,-18.000,54.500,-32.500
0.962,2.000,-18.000,54.500,-32.000
0.963,2.000,-18.000,54.500,-32.000
0.964,2.500,-18.000,54.500,-32.000
0.965,2.000,-18.500,54.500,-32.000
0.966,2.500,-18.500,54.500,-32.000
0.967,2.500,-18.000,54.500,-32.000
0.968,2.500,-18.000,54.500,-32.500
0.969,2.000,-18.000,54.500,-32.500
0.970,0.500,-18.000,54.500,-33.000
0.971,-1.500,-18.000,54.000,-33.500
0.972,-3.500,-18.500,54.000,-34.000
0.973,-4.500,-18.500,54.000,-34.000
0.974,-4.000,-18.500,54.000,-34.000
0.975,-3.000,-18.500,54.000,-34.000
0.976,-2.500,-18.500,54.000,-33.500
0.977,-2.500,-18.000,54.500,-33.000
0.978,-2.500,-18.000,54.500,-32.500
0.979,-1.500,-18.000,54.500,-32.000
0.980,0.000,-17.500,54.500,-32.000
0.981,1.000,-17.500,55.000,-31.500
0.982,1.500,-17.000,55.000,-31.500
0.983,1.000,-17.000,55.500,-31.500
0.984,0.000,-17.000,55.500,-31.500
0.985,-1.000,-17.000,55.000,-31.500
0.986,-2.000,-17.500,55.000,-31.500
0.987,-2.000,-18.000,54.500,-32.000
0.988,-1.000,-18.500,54.000,-32.500
0.989,0.500,-19.000,54.000,-33.000
0.990,1.500,-19.000,53.500,-33.000
0.991,2.500,-19.500,53.000,-33.500
0.992,3.000,-20.000,53.000,-33.500
0.993,3.500,-20.000,53.000,-33.500
0.994,4.500,-20.000,53.000,-33.500
0.995,5.500,-19.500,53.000,-33.500
0.996,6.000,-19.500,53.000,-33.000
0.997,6.500,-19.000,53.500,-32.500
0.998,6.000,-18.500,54.000,-31.500
0.999,5.000,-17.500,54.500,-31.000
1.000,4.000,-17.500,55.000,-30.500
1.001,3.000,-17.000,55.500,-30.000
1.002,3.500,-17.000,56.000,-29.500
1.003,4.000,-17.000,56.000,-29.500
1.004,5.000,-17.000,56.000,-29.500
1.005,6.000,-17.000,56.000,-30.000
1.006,5.500,-17.000,56.000,-30.500
1.007,4.500,-17.000,55.500,-30.500
1.008,3.000,-17.500,55.500,-31.000
1.009,1.500,-17.500,55.000,-31.000
1.010,1.000,-17.500,55.000,-31.500
1.011,0.500,-17.500,55.000,-32.000
1.012,0.000,-18.000,54.500,-32.500
1.013,-1.500,-18.000,54.500,-32.500
1.014,-3.000,-18.000,54.500,-32.500
1.015,-3.000,-18.000,55.000,-32.500
1.016,-1.500,-17.500,55.000,-32.000
1.017,0.500,-17.000,55.500,-31.500
1.018,2.500,-16.500,56.000,-31.000
1.019,3.500,-16.000,56.000,-30.500
1.020,4.500,-16.000,56.000,-30.500
1.021,5.000,-16.000,56.000,-30.000
1.022,5.000,-16.000,56.500,-29.500
1.023,4.000,-16.000,56.500,-29.500
1.024,2.500,-16.000,56.500,-29.000
1.025,1.000,-16.000,56.500,-29.000
1.026,-0.500,-16.500,56.500,-29.500
1.027,-1.000,-16.500,56.000,-30.000
1.028,-1.500,-17.000,55.500,-30.500
1.029,-2.000,-17.500,55.000,-31.000
1.030,-2.000,-18.000,54.000,-31.500
1.031,-2.000,-18.500,53.500,-32.000
1.032,-1.500,-19.000,53.000,-33.000
1.033,-0.500,-19.500,52.500,-33.500
1.034,-1.000,-19.500,52.500,-33.500
1.035,-2.000,-19.500,52.500,-34.000
1.036,-2.500,-19.500,52.000,-34.000
1.037,-2.500,-19.500,52.500,-33.500
1.038,-2.000,-19.000,52.500,-33.000
1.039,-0.500,-18.500,53.000,-32.500
1.040,1.000,-18.500,53.500,-32.000
1.041,2.500,-18.000,54.000,-31.500
1.042,3.500,-18.000,54.000,-31.500
1.043,4.000,-17.500,54.500,-31.000
1.044,4.000,-17.500,54.500,-30.500
1.045,3.500,-17.500,55.000,-30.500
1.046,3.000,-18.000,55.000,-30.500
1.047,3.000,-18.500,54.500,-30.500
1.048,3.500,-18.500,54.500,-30.500
1.049,5.000,-19.000,54.500,-30.500
1.050,7.500,-19.000,54.000,-30.500
1.051,10.000,-19.000,54.000,-30.500
1.052,10.500,-18.500,54.000,-30.000
1.053,10.000,-18.000,54.500,-30.000
1.054,8.000,-17.000,54.500,-29.500
1.055,6.000,-16.500,55.000,-29.000
1.056,3.000,-15.500,56.000,-28.500
1.057,1.000,-15.000,56.500,-27.500
1.058,0.000,-14.000,57.500,-27.000
1.059,-0.500,-13.500,58.500,-26.500
1.060,-0.500,-12.500,59.500,-25.500
1.061,-1.000,-12.000,60.000,-25.000
1.062,-1.000,-11.500,61.000,-24.000
1.063,-0.500,-11.000,61.000,-23.500
1.064,1.000,-11.000,61.500,-23.500
1.065,3.500,-11.500,61.500,-23.500
1.066,6.000,-11.500,61.000,-24.000
1.067,8.500,-11.500,60.500,-24.500
1.068,10.000,-12.000,60.000,-25.000
1.069,11.500,-12.000,59.500,-25.500
1.070,12.500,-12.500,59.000,-26.000
1.071,13.000,-13.000,59.000,-27.000
1.072,13.000,-13.000,58.500,-27.500
1.073,12.000,-13.500,58.000,-28.000
1.074,11.000,-13.500,58.000,-28.000
1.075,10.500,-13.500,58.000,-28.000
1.076,10.000,-13.000,58.000,-28.000
1.077,10.000,-12.500,58.500,-28.000
1.078,11.000,-12.500,58.500,-28.000
1.079,12.000,-12.000,58.500,-27.500
1.080,12.500,-11.500,59.000,-27.500
1.081,12.500,-11.000,59.500,-27.000
1.082,11.500,-11.000,59.500,-26.500
1.083,10.000,-11.000,60.000,-26.500
1.084,8.000,-10.500,60.500,-26.000
1.085,6.500,-10.500,60.500,-26.000
1.086,6.000,-10.500,61.000,-26.000
1.087,6.000,-11.000,60.500,-26.000
1.088,6.000,-11.000,60.500,-26.000
1.089,5.500,-11.000,60.000,-26.500
1.090,4.500,-11.000,59.500,-26.500
1.091,4.000,-11.500,59.500,-26.500
1.092,4.000,-11.500,59.000,-26.500
1.093,4.000,-11.000,59.000,-26.500
1.094,4.000,-11.000,59.000,-26.500
1.095,4.000,-11.000,59.500,-26.000
1.096,3.500,-10.500,59.500,-26.000
1.097,3.000,-10.000,60.000,-25.500
1.098,2.000,-9.500,60.500,-25.000
1.099,0.000,-9.000,61.000,-24.500
1.100,-2.000,-8.500,61.500,-24.000
1.101,-3.000,-8.500,62.000,-23.500
1.102,-2.000,-8.500,62.000,-23.500
1.103,-1.000,-8.500,62.500,-23.500
1.104,-0.500,-8.500,62.500,-23.000
1.105,-0.500,-8.500,62.500,-23.500
1.106,-1.500,-8.500,62.500,-23.500
1.107,-1.500,-9.000,62.000,-24.000
1.108,0.000,-9.000,61.500,-24.000
1.109,2.000,-9.500,61.000,-24.500
1.110,4.500,-9.500,60.500,-25.000
1.111,6.000,-10.000,60.500,-25.500
1.112,7.500,-10.000,60.000,-25.500
1.113,8.000,-10.500,60.000,-26.000
1.114,7.500,-10.500,60.000,-26.000
1.115,7.000,-10.500,60.500,-26.000
1.116,6.500,-10.500,60.500,-26.000
1.117,7.000,-10.000,60.500,-26.000
1.118,8.000,-10.000,60.500,-26.000
1.119,9.000,-9.500,60.500,-25.500
1.120,10.500,-9.500,61.000,-25.500
1.121,11.500,-9.500,60.500,-25.500
1.122,11.500,-9.000,60.500,-25.500
1.123,10.000,-9.000,60.500,-25.000
1.124,7.500,-9.000,60.500,-25.500
1.125,5.000,-9.500,60.500,-25.500
1.126,4.000,-9.500,60.000,-26.000
1.127,5.000,-10.000,60.000,-26.000
1.128,6.500,-10.000,59.500,-26.500
1.129,7.500,-10.000,59.500,-26.500
1.130,7.000,-10.000,59.500,-27.000
1.131,5.500,-10.500,59.000,-27.000
1.132,3.500,-10.500,59.500,-27.500
1.133,2.500,-10.500,59.000,-27.500
1.134,3.500,-11.000,59.000,-28.000
1.135,4.500,-11.500,58.500,-28.000
1.136,6.000,-12.000,58.000,-29.000
1.137,6.000,-12.500,57.500,-29.500
1.138,6.000,-13.500,57.000,-30.500
1.139,6.000,-14.500,56.000,-32.000
1.140,6.500,-16.000,54.500,-33.500
1.141,6.500,-17.500,53.000,-35.000
1.142,6.500,-19.000,51.000,-37.000
1.143,6.500,-21.000,49.000,-38.500
1.144,7.000,-23.000,47.500,-40.000
1.145,8.000,-24.500,46.000,-41.500
1.146,9.000,-26.500,44.500,-43.000
1.147,10.000,-28.000,43.500,-44.000
1.148,10.500,-29.500,42.000,-45.000
1.149,11.500,-31.000,41.500,-45.000
1.150,12.000,-31.500,41.000,-45.000
1.151,11.000,-31.500,41.500,-43.500
1.152,9.000,-31.000,43.000,-42.000
1.153,7.500,-29.500,45.000,-38.500
1.154,6.500,-27.000,48.000,-34.500
1.155,6.500,-24.000,52.000,-29.000
1.156,7.000,-19.500,57.000,-23.000
1.157,8.000,-14.500,63.000,-16.000
1.158,8.500,-8.500,69.500,-8.000
1.159,9.000,-2.000,77.000,0.500
1.160,8.500,5.000,85.000,9.500
1.161,7.500,11.500,92.500,18.000
1.162,7.000,18.000,99.500,26.500
1.163,7.000,23.500,106.500,34.000
1.164,8.000,29.000,112.500,41.500
1.165,10.500,34.500,119.000,49.000
1.166,12.500,40.000,125.000,55.500
1.167,13.500,45.500,131.000,62.000
1.168,13.500,50.500,136.000,67.000
1.169,14.500,55.500,140.500,70.500
1.170,16.000,59.500,143.000,72.500
1.171,18.500,62.500,145.000,73.000
1.172,21.000,65.000,146.000,72.500
1.173,23.500,67.000,146.000,71.500
1.174,25.500,68.500,146.000,69.500
1.175,27.500,69.000,145.000,66.500
1.176,28.500,69.000,143.000,63.000
1.177,28.000,67.000,140.500,59.000
1.178,26.500,64.500,137.000,54.500
1.179,24.500,61.000,133.000,50.000
1.180,22.000,56.500,128.000,44.500
1.181,19.000,52.000,123.500,39.500
1.182,17.000,47.000,118.000,34.500
1.183,15.500,42.000,113.000,29.000
1.184,14.500,36.500,107.500,24.000
1.185,14.500,31.500,102.500,18.500
1.186,13.500,26.000,97.500,13.000
1.187,12.000,21.000,92.500,8.000
1.188,10.500,16.500,88.000,3.000
1.189,9.000,12.500,84.000,-1.500
1.190,7.500,8.500,80.000,-6.000
1.191,6.000,5.000,76.500,-10.000
1.192,5.000,2.000,73.500,-13.500
1.193,5.000,-1.000,71.000,-16.500
1.194,5.000,-3.000,68.500,-18.500
1.195,5.000,-4.500,67.000,-20.000
1.196,4.500,-5.500,66.000,-21.000
1.197,3.000,-5.500,65.500,-21.500
1.198,1.500,-5.500,65.500,-21.500
1.199,0.500,-5.500,65.500,-21.000
1.200,0.500,-5.500,66.000,-21.000
1.201,0.500,-5.000,66.000,-20.500
1.202,0.000,-5.000,66.000,-20.500
1.203,0.000,-5.500,66.000,-20.500
1.204,1.000,-5.500,65.500,-20.500
1.205,3.000,-6.000,65.500,-21.000
1.206,5.500,-6.500,65.000,-21.500
1.207,8.000,-7.500,64.500,-22.000
1.208,10.000,-8.000,63.500,-23.000
1.209,10.500,-8.500,63.000,-23.500
1.210,11.000,-9.500,62.500,-24.500
1.211,11.000,-10.000,62.000,-25.000
1.212,11.500,-10.500,61.000,-25.500
1.213,11.500,-11.000,61.000,-26.000
1.214,11.500,-11.000,60.500,-26.500
1.215,10.500,-11.500,60.000,-26.500
1.216,9.500,-11.500,60.000,-26.500
1.217,8.500,-11.000,60.000,-26.000
1.218,8.500,-11.000,60.000,-26.000
1.219,8.000,-10.500,60.000,-25.500
1.220,7.500,-10.500,60.000,-25.000
1.221,6.000,-10.500,60.500,-25.000
1.222,5.000,-10.500,60.500,-24.500
1.223,4.500,-10.500,60.500,-24.500
1.224,5.500,-10.500,60.500,-24.500
1.225,6.500,-10.500,60.500,-24.500
1.226,7.000,-10.500,60.500,-25.000
1.227,7.500,-10.500,60.500,-25.000
1.228,8.000,-10.500,60.000,-25.500
1.229,9.500,-10.500,60.000,-25.500
1.230,11.500,-11.000,59.500,-26.000
1.231,13.000,-11.000,59.000,-27.000
1.232,14.000,-11.500,58.500,-27.500
1.233,13.000,-11.000,58.500,-27.500
1.234,11.000,-11.000,58.500,-28.000
1.235,9.000,-10.500,58.500,-28.000
1.236,7.000,-10.000,59.000,-27.500
1.237,6.500,-10.000,59.000,-27.500
1.238,6.500,-9.500,59.500,-27.000
1.239,6.500,-9.500,59.500,-26.500
1.240,6.000,-9.500,60.000,-26.500
1.241,5.000,-9.500,60.500,-26.000
1.242,3.500,-9.500,60.500,-26.000
1.243,2.500,-9.500,61.000,-26.000
1.244,1.500,-9.000,61.000,-26.000
1.245,1.000,-9.000,61.000,-26.000
1.246,0.500,-9.000,61.000,-26.000
1.247,-0.500,-9.500,60.500,-26.000
1.248,-1.500,-9.500,60.500,-26.000
1.249,-2.000,-9.500,60.500,-26.000
1.250,-1.500,-9.000,60.500,-26.000
1.251,0.000,-9.000,60.000,-26.000
1.252,1.000,-9.000,60.000,-26.500
1.253,0.500,-9.000,60.000,-26.500
1.254,-1.000,-9.000,60.000,-26.500
1.255,-1.500,-9.500,59.500,-26.500
1.256,-1.000,-10.000,59.500,-26.500
1.257,1.000,-10.000,59.000,-26.500
1.258,2.500,-11.000,58.000,-27.000
1.259,3.500,-11.500,57.500,-27.000
1.260,4.000,-12.000,57.000,-27.500
1.261,3.500,-12.500,57.000,-28.000
1.262,2.000,-12.500,56.500,-28.000
1.263,1.000,-13.000,56.500,-28.500
1.264,0.500,-13.000,56.500,-28.500
1.265,1.000,-13.000,56.500,-28.500
1.266,2.000,-13.000,56.500,-28.000
1.267,3.000,-12.500,57.000,-28.000
1.268,3.500,-11.500,57.500,-27.500
1.269,3.000,-11.000,58.500,-27.000
1.270,2.500,-10.000,59.000,-26.500
1.271,1.500,-9.000,59.500,-26.000
1.272,1.000,-8.500,60.500,-25.500
1.273,1.000,-7.500,61.000,-25.000
1.274,1.500,-7.000,61.500,-24.500
1.275,1.500,-6.000,62.000,-23.500
1.276,0.500,-5.500,62.500,-23.000
1.277,-1.000,-5.000,63.000,-22.500
1.278,-2.000,-5.000,63.500,-22.500
1.279,-2.500,-4.500,63.500,-22.000
1.280,-2.500,-4.500,63.500,-22.000
1.281,-2.500,-5.000,63.000,-22.500
1.282,-2.500,-5.500,62.500,-22.500
1.283,-2.000,-6.000,62.500,-22.500
1.284,-1.000,-6.000,62.000,-23.000
1.285,-1.000,-6.500,61.500,-23.500
1.286,-3.000,-7.000,61.000,-24.000
1.287,-5.500,-7.500,60.500,-24.500
1.288,-8.000,-8.000,60.000,-24.500
1.289,-10.500,-8.000,59.500,-25.000
1.290,-12.000,-8.500,59.500,-25.500
1.291,-13.000,-8.500,59.000,-26.000
1.292,-13.000,-9.000,59.000,-26.500
1.293,-13.500,-9.000,59.000,-26.500
1.294,-14.000,-9.000,59.000,-26.500
1.295,-14.000,-9.000,59.000,-26.500
1.296,-14.000,-9.000,59.000,-26.000
1.297,-13.500,-9.000,59.000,-25.500
1.298,-13.500,-9.000,59.500,-25.000
1.299,-13.500,-8.500,59.500,-24.500
1.300,-14.000,-8.500,60.000,-24.000
1.301,-14.000,-8.000,60.500,-24.000
1.302,-13.000,-7.500,60.500,-23.500
1.303,-11.500,-7.500,61.000,-23.500
1.304,-9.500,-7.500,61.000,-23.000
1.305,-8.000,-7.500,60.500,-23.500
1.306,-7.500,-7.500,60.500,-23.500
1.307,-8.000,-8.000,60.000,-24.000
1.308,-8.000,-8.500,60.000,-24.500
1.309,-7.500,-8.500,59.500,-25.000
1.310,-7.000,-9.000,59.500,-25.000
1.311,-6.000,-9.000,59.500,-25.000
1.312,-5.000,-9.000,59.000,-25.000
1.313,-3.500,-9.000,59.000,-25.000
1.314,-2.500,-9.000,59.000,-24.500
1.315,-1.000,-8.500,59.500,-24.500
1.316,0.000,-8.000,59.500,-24.000
1.317,0.500,-7.500,60.000,-23.500
1.318,-0.500,-7.000,60.500,-23.000
1.319,-1.500,-6.500,61.000,-22.500
1.320,-2.500,-6.000,61.500,-22.000
1.321,-3.000,-6.000,61.500,-21.500
1.322,-3.000,-5.500,62.000,-21.500
1.323,-2.500,-5.500,62.000,-21.500
1.324,-2.500,-5.500,62.000,-21.500
1.325,-3.000,-6.000,61.500,-22.000
1.326,-3.000,-6.000,61.000,-22.000
1.327,-3.500,-6.500,61.000,-22.000
1.328,-2.500,-6.500,60.500,-22.500
1.329,-0.500,-7.000,60.000,-22.500
1.330,2.000,-7.000,60.000,-23.000
1.331,4.000,-7.500,59.500,-23.500
1.332,5.500,-7.500,59.500,-23.500
1.333,6.000,-7.500,59.000,-24.000
1.334,6.000,-7.500,59.000,-24.000
1.335,5.500,-7.000,59.000,-24.000
1.336,5.500,-7.000,59.000,-23.500
1.337,5.500,-7.000,59.500,-23.500
1.338,5.500,-7.000,59.500,-23.000
1.339,6.000,-7.000,60.000,-23.000
1.340,6.500,-7.000,60.000,-22.500
1.341,6.000,-6.500,60.500,-22.500
1.342,5.500,-6.500,60.500,-22.000
1.343,4.500,-6.000,61.000,-22.000
1.344,4.000,-6.000,61.000,-22.000
1.345,2.500,-6.000,60.500,-22.000
1.346,1.500,-6.500,60.500,-22.000
1.347,0.500,-6.500,60.000,-22.500
1.348,-0.500,-7.000,60.000,-22.500
1.349,0.000,-7.500,59.500,-23.000
1.350,1.000,-7.500,59.500,-23.000
1.351,4.000,-7.500,59.000,-23.500
1.352,7.500,-7.500,59.000,-23.500
1.353,11.000,-7.500,58.500,-24.000
1.354,13.000,-7.000,58.500,-24.000
1.355,12.500,-6.500,58.500,-24.000
1.356,10.000,-6.000,59.000,-23.500
1.357,7.000,-5.500,59.500,-23.000
1.358,4.000,-5.000,60.000,-22.500
1.359,1.500,-4.500,60.500,-21.500
1.360,-1.000,-4.000,61.000,-21.000
1.361,-2.500,-4.000,61.500,-20.500
1.362,-2.500,-3.500,61.500,-20.000
1.363,-2.000,-3.500,62.000,-20.000
1.364,-1.000,-3.500,61.500,-20.000
1.365,0.500,-3.500,61.500,-20.000
1.366,1.500,-4.000,61.500,-20.500
1.367,3.000,-4.000,61.000,-20.500
1.368,5.000,-4.500,60.500,-21.000
1.369,6.000,-4.500,60.500,-21.000
1.370,7.000,-5.000,60.000,-21.500
1.371,7.000,-5.500,60.000,-21.500
1.372,7.000,-5.500,59.500,-21.500
1.373,7.000,-5.500,59.500,-21.500
1.374,7.500,-5.500,59.500,-21.500
1.375,8.500,-5.500,59.500,-21.500
1.376,8.500,-5.000,59.500,-21.000
1.377,8.000,-5.000,60.000,-20.500
1.378,7.000,-4.500,60.500,-20.000
1.379,5.500,-4.500,60.500,-19.500
1.380,4.000,-4.000,61.000,-18.500
1.381,2.500,-3.500,61.500,-18.000
1.382,1.500,-3.500,62.000,-17.500
1.383,1.000,-3.000,62.000,-17.000
1.384,1.000,-3.000,62.500,-17.000
1.385,1.500,-3.500,62.500,-17.000
1.386,1.000,-3.500,62.000,-17.500
1.387,0.500,-3.500,62.000,-17.500
1.388,-0.500,-4.000,61.500,-18.000
1.389,-0.500,-4.500,61.000,-18.500
1.390,1.000,-5.000,60.500,-19.000
1.391,2.500,-5.500,60.000,-19.500
1.392,4.500,-5.500,60.000,-20.000
1.393,6.500,-5.500,60.000,-20.000
1.394,7.500,-5.500,60.000,-20.000
1.395,7.000,-5.500,60.000,-19.500
1.396,6.000,-5.000,60.500,-19.000
1.397,5.500,-4.500,61.000,-18.500
1.398,5.000,-4.000,61.000,-18.500
1.399,4.000,-3.500,61.500,-18.000
1.400,2.000,-3.500,61.500,-17.500
1.401,-0.500,-3.000,62.000,-17.000
1.402,-2.500,-3.000,62.000,-17.000
1.403,-3.000,-2.500,62.500,-16.500
1.404,-3.500,-2.500,62.500,-16.500
1.405,-3.500,-3.000,62.000,-17.000
1.406,-2.000,-3.000,61.500,-17.000
1.407,0.500,-3.500,61.000,-17.500
1.408,4.000,-4.000,60.500,-18.500
1.409,6.500,-4.500,60.500,-19.000
1.410,8.500,-5.000,60.000,-19.500
1.411,9.500,-5.500,59.500,-20.000
1.412,10.000,-5.500,59.000,-20.500
1.413,10.000,-6.000,59.000,-20.500
1.414,10.500,-6.000,59.000,-20.500
1.415,10.500,-6.000,59.000,-20.000
1.416,10.000,-5.500,59.500,-20.000
1.417,9.000,-5.000,59.500,-19.500
1.418,8.500,-4.500,60.000,-19.500
1.419,8.000,-4.500,60.500,-19.000
1.420,8.500,-4.000,60.500,-18.500
1.421,9.500,-4.000,61.000,-18.500
1.422,10.500,-4.000,61.000,-18.500
1.423,11.500,-4.000,61.000,-18.500
1.424,12.500,-4.000,61.000,-18.500
1.425,13.500,-4.000,60.500,-18.500
1.426,14.000,-4.000,60.500,-18.500
1.427,13.500,-4.000,60.500,-19.000
1.428,12.000,-4.000,60.000,-19.000
1.429,11.000,-4.000,60.000,-19.500
1.430,10.000,-4.000,60.000,-20.000
1.431,9.000,-4.000,59.500,-20.500
1.432,7.500,-4.500,59.500,-20.500
1.433,7.000,-4.500,59.500,-21.000
1.434,7.500,-4.000,59.500,-21.000
1.435,9.500,-4.000,59.500,-21.000
1.436,12.000,-3.500,60.000,-21.000
1.437,14.500,-3.500,60.000,-20.500
1.438,15.500,-3.000,60.500,-20.000
1.439,15.500,-3.000,61.000,-19.500
1.440,14.000,-2.500,61.500,-19.000
1.441,11.500,-2.500,61.500,-18.500
1.442,9.500,-2.500,62.000,-18.500
1.443,8.000,-2.500,62.000,-18.500
1.444,6.000,-2.500,62.000,-18.500
1.445,5.000,-2.500,62.000,-19.000
1.446,5.500,-2.500,61.500,-19.500
1.447,8.500,-3.000,61.500,-19.500
1.448,12.500,-3.500,61.000,-20.000
1.449,16.000,-3.500,60.500,-20.500
1.450,18.500,-4.000,60.500,-21.000
1.451,19.500,-4.000,60.500,-21.000
1.452,19.500,-4.500,60.000,-21.500
1.453,18.500,-4.500,60.000,-21.500
1.454,17.000,-4.500,59.500,-21.500
1.455,15.000,-4.000,59.500,-21.000
1.456,12.500,-4.000,60.000,-20.500
1.457,10.000,-4.000,60.000,-20.500
1.458,8.000,-3.500,60.500,-20.000
1.459,7.500,-3.500,60.500,-19.500
1.460,7.500,-3.000,61.000,-19.000
1.461,7.500,-2.500,61.000,-18.500
1.462,7.500,-2.500,61.500,-18.500
1.463,6.500,-2.500,61.500,-18.000
1.464,6.000,-2.500,61.500,-18.000
1.465,6.500,-3.000,61.500,-18.500
1.466,7.500,-3.000,61.500,-18.500
1.467,9.500,-3.000,61.500,-18.500
1.468,10.500,-3.500,61.000,-19.000
1.469,11.000,-3.500,61.000,-19.500
1.470,12.000,-3.500,61.000,-19.500
1.471,13.000,-3.500,60.500,-20.000
1.472,13.000,-3.500,60.500,-20.500
1.473,11.000,-4.000,60.500,-20.500
1.474,8.500,-4.000,60.000,-20.500
1.475,7.000,-4.000,60.000,-20.500
1.476,7.000,-4.000,60.000,-20.500
1.477,8.000,-4.000,60.000,-20.000
1.478,9.500,-3.500,60.000,-19.500
1.479,10.000,-3.000,61.000,-19.000
1.480,8.500,-2.500,61.500,-18.500
1.481,5.500,-2.000,62.000,-18.000
1.482,1.500,-1.500,62.500,-18.000
1.483,-3.000,-1.500,62.500,-17.500
1.484,-6.000,-1.500,62.500,-17.500
1.485,-7.000,-2.000,62.500,-17.500
1.486,-6.500,-2.000,62.000,-18.000
1.487,-4.500,-2.500,61.500,-18.000
1.488,-2.000,-3.000,61.000,-18.000
1.489,-0.500,-3.500,60.500,-18.500
1.490,1.000,-4.000,60.500,-19.000
1.491,1.500,-4.000,60.000,-19.000
1.492,1.500,-4.500,60.000,-19.500
1.493,2.000,-4.500,59.500,-19.500
1.494,2.000,-4.500,59.500,-20.000
1.495,2.500,-4.500,59.500,-20.000
1.496,2.000,-4.500,60.000,-19.500
1.497,1.000,-4.000,60.000,-19.500
1.498,0.500,-3.500,60.500,-19.000
1.499,1.000,-3.500,61.000,-18.500
1.500,2.000,-3.000,61.000,-18.000
1.501,3.500,-3.000,61.500,-17.500
1.502,4.000,-2.500,62.000,-17.000
1.503,4.000,-2.500,62.000,-17.000
1.504,3.500,-2.500,62.000,-17.000
1.505,3.000,-3.000,62.000,-17.500
1.506,3.000,-3.000,62.000,-17.500
1.507,3.500,-3.500,61.500,-18.000
1.508,4.000,-4.000,61.500,-18.500
1.509,4.000,-4.000,61.500,-18.500
1.510,3.500,-4.000,61.000,-19.000
1.511,2.000,-3.500,61.000,-19.000
1.512,0.500,-3.500,61.000,-19.000
1.513,-0.500,-3.500,61.000,-18.500
1.514,-1.000,-3.500,61.000,-18.500
1.515,-0.500,-3.000,61.000,-18.500
1.516,0.000,-3.000,61.000,-18.000
1.517,0.000,-3.000,61.000,-18.000
1.518,-0.500,-2.500,61.000,-17.500
1.519,-1.500,-2.500,61.500,-17.000
1.520,-1.500,-2.000,62.000,-16.500
1.521,-1.000,-1.500,62.500,-16.000
1.522,0.500,-1.000,63.000,-15.500
1.523,1.500,-1.000,63.000,-15.000
1.524,2.000,-0.500,63.500,-14.500
1.525,2.500,-0.500,63.500,-14.500
1.526,2.500,-0.500,63.000,-14.500
1.527,1.500,-1.000,63.000,-15.000
1.528,0.500,-1.000,62.500,-15.500
1.529,-1.000,-1.000,62.500,-16.000
1.530,-2.000,-1.000,62.500,-16.000
1.531,-2.000,-0.500,62.500,-16.500
1.532,-1.000,-0.500,62.500,-16.500
1.533,0.500,-0.500,62.500,-16.500
1.534,1.500,-0.500,62.500,-16.000
1.535,1.000,0.000,62.500,-16.000
1.536,0.500,0.000,62.500,-16.000
1.537,2.000,0.500,63.000,-15.500
1.538,4.500,0.500,63.000,-15.500
1.539,7.500,0.500,63.000,-15.000
1.540,9.500,0.500,63.000,-15.000
1.541,10.500,1.000,63.000,-14.500
1.542,10.000,1.000,63.500,-14.000
1.543,8.500,1.500,63.500,-13.500
1.544,7.500,1.500,63.500,-13.500
1.545,6.500,1.500,63.500,-13.500
1.546,6.500,1.500,63.500,-14.000
1.547,7.000,1.000,63.500,-14.000
1.548,7.500,1.000,63.500,-14.500
1.549,7.500,0.500,63.500,-15.000
1.550,8.000,0.500,63.000,-15.500
1.551,9.000,0.500,62.500,-16.000
1.552,9.500,0.500,62.500,-16.000
1.553,10.000,0.500,62.500,-16.000
1.554,9.500,0.500,62.500,-16.000
1.555,8.000,1.000,62.500,-15.500
1.556,6.000,1.000,63.000,-15.000
1.557,4.500,2.000,63.500,-14.500
1.558,3.500,2.500,64.500,-14.000
1.559,3.000,2.500,65.000,-13.500
1.560,3.000,3.000,66.000,-13.000
1.561,2.500,3.000,66.000,-13.000
1.562,2.000,3.500,66.500,-12.500
1.563,1.500,3.500,66.500,-12.500
1.564,0.000,3.500,66.500,-12.500
1.565,-1.000,3.500,66.500,-12.500
1.566,-2.000,3.500,66.000,-13.000
1.567,-2.000,3.000,65.500,-13.500
1.568,-2.500,2.500,65.000,-14.000
1.569,-3.000,2.500,64.500,-14.000
1.570,-4.000,2.000,64.000,-14.500
1.571,-4.500,1.500,63.500,-14.500
1.572,-3.500,1.500,63.000,-15.000
1.573,-2.000,1.000,63.000,-15.000
1.574,0.000,1.000,63.000,-15.000
1.575,1.500,1.000,63.000,-15.000
1.576,2.000,1.000,63.000,-15.000
1.577,1.500,1.500,63.000,-14.500
1.578,1.000,1.500,63.500,-14.000
1.579,0.000,2.000,63.500,-13.500
1.580,-0.500,2.000,64.000,-13.000
1.581,-1.000,2.500,64.500,-12.500
1.582,-0.500,2.500,64.500,-12.500
1.583,0.000,3.000,64.500,-12.000
1.584,0.000,3.000,64.500,-12.500
1.585,0.500,2.500,64.500,-12.500
1.586,1.500,2.500,64.000,-13.000
1.587,2.500,2.000,63.500,-13.500
1.588,4.000,1.500,63.000,-13.500
1.589,5.000,1.500,62.500,-14.000
1.590,5.500,1.500,62.500,-14.500
1.591,5.500,1.000,62.500,-14.500
1.592,5.000,1.000,62.000,-15.000
1.593,4.500,1.000,62.000,-15.000
1.594,3.500,1.000,62.000,-15.000
1.595,2.000,1.500,62.500,-14.500
1.596,1.000,1.500,62.500,-14.000
1.597,1.000,2.000,63.000,-13.500
1.598,2.000,2.500,63.500,-12.500
1.599,3.000,3.000,64.000,-12.000
1.600,3.500,3.500,64.500,-11.500
1.601,4.000,4.000,65.000,-11.000
1.602,4.000,4.000,65.500,-10.500
1.603,3.500,4.000,66.000,-10.000
1.604,1.500,4.000,66.000,-10.000
1.605,-1.000,4.000,66.000,-9.500
1.606,-3.000,4.000,66.000,-10.000
1.607,-3.500,4.000,66.000,-10.000
1.608,-4.000,3.500,65.500,-10.000
1.609,-5.000,3.500,65.000,-10.500
1.610,-5.500,3.000,65.000,-10.500
1.611,-6.000,3.000,64.500,-11.000
1.612,-5.500,3.000,64.500,-11.000
1.613,-5.000,3.000,64.500,-11.500
1.614,-4.500,3.000,64.000,-11.500
1.615,-4.500,3.000,64.500,-11.500
1.616,-4.500,3.500,64.500,-11.000
1.617,-4.500,4.000,64.500,-10.500
1.618,-4.000,4.500,65.000,-10.000
1.619,-3.000,4.500,65.500,-9.500
1.620,-1.500,5.000,66.000,-9.000
1.621,-0.500,5.500,66.000,-8.500
1.622,0.500,5.500,66.500,-8.500
1.623,1.500,6.000,66.500,-8.000
1.624,2.500,6.000,66.500,-8.000
1.625,3.500,6.000,66.500,-8.000
1.626,4.500,5.500,66.500,-8.000
1.627,4.000,5.500,66.000,-8.500
1.628,3.000,5.000,66.000,-9.000
1.629,1.000,5.000,65.500,-9.500
1.630,-1.000,5.000,65.000,-10.000
1.631,-2.500,4.500,65.000,-10.500
1.632,-3.000,4.500,64.500,-11.000
1.633,-2.500,4.500,64.500,-11.500
1.634,-2.000,4.500,64.000,-11.500
1.635,-1.000,5.000,64.000,-11.500
1.636,0.500,5.000,64.500,-11.000
1.637,2.000,5.500,64.500,-10.500
1.638,3.500,5.500,65.000,-10.000
1.639,4.500,6.000,65.500,-9.500
1.640,4.500,6.000,66.000,-9.000
1.641,4.000,6.500,66.000,-9.000
1.642,3.500,6.500,66.000,-9.000
1.643,2.000,6.500,66.500,-8.500
1.644,1.000,6.500,66.500,-8.500
1.645,-1.500,6.500,66.500,-9.000
1.646,-4.000,6.500,66.000,-9.000
1.647,-6.500,7.000,66.000,-9.000
1.648,-9.000,6.500,66.000,-9.500
1.649,-10.000,6.000,65.500,-10.000
1.650,-10.000,5.500,65.000,-11.000
1.651,-9.000,5.000,65.000,-11.500
1.652,-8.500,4.500,64.500,-12.000
1.653,-8.000,4.500,64.500,-12.500
1.654,-8.000,4.500,64.500,-12.500
1.655,-8.500,4.500,64.000,-12.500
1.656,-8.500,4.500,64.000,-12.500
1.657,-8.500,5.000,64.500,-12.000
1.658,-8.000,5.500,64.500,-11.500
1.659,-8.000,6.000,65.000,-11.000
1.660,-8.500,6.000,65.000,-10.500
1.661,-8.000,6.000,65.500,-10.500
1.662,-7.500,6.500,65.500,-10.000
1.663,-6.500,6.500,65.000,-10.000
1.664,-6.000,6.500,65.000,-10.500
1.665,-6.000,6.500,65.000,-10.500
1.666,-6.500,6.000,64.500,-11.000
1.667,-7.000,5.500,64.000,-11.500
1.668,-7.500,5.000,63.500,-12.000
1.669,-7.500,4.500,63.000,-12.500
1.670,-8.000,4.000,62.500,-13.000
1.671,-9.000,4.000,62.000,-13.000
1.672,-9.000,3.500,62.000,-13.500
1.673,-8.000,3.500,62.000,-13.500
1.674,-6.500,4.000,62.000,-13.000
1.675,-5.000,4.000,62.000,-13.000
1.676,-4.500,4.000,62.000,-12.500
1.677,-5.000,4.500,62.000,-12.500
1.678,-5.500,4.500,62.500,-12.500
1.679,-5.500,4.500,62.500,-12.000
1.680,-5.500,4.500,62.000,-12.000
1.681,-5.000,4.000,62.000,-12.000
1.682,-5.000,3.500,61.500,-12.000
1.683,-4.000,3.000,61.000,-12.500
1.684,-3.500,2.500,60.500,-13.000
1.685,-3.500,1.500,59.500,-14.000
1.686,-3.500,1.000,58.500,-14.500
1.687,-3.000,0.500,58.000,-15.500
1.688,-1.000,-0.500,57.500,-16.000
1.689,2.000,-0.500,57.000,-17.000
1.690,5.000,-1.000,57.000,-17.000
1.691,8.000,-1.000,57.000,-17.500
1.692,9.000,-1.000,57.500,-17.500
1.693,8.500,-0.500,58.000,-16.500
1.694,7.000,1.000,59.500,-15.500
1.695,5.500,2.500,61.000,-14.000
1.696,4.000,4.000,62.500,-12.000
1.697,3.000,6.000,64.000,-10.500
1.698,3.500,7.500,66.000,-8.500
1.699,4.000,9.000,67.500,-7.000
1.700,5.000,10.500,69.500,-5.500
1.701,6.500,12.000,71.000,-4.000
1.702,7.500,13.000,71.500,-3.000
1.703,8.000,13.500,72.000,-2.000
1.704,6.000,13.500,72.000,-2.000
1.705,3.500,13.500,71.500,-2.000
1.706,0.000,13.000,71.000,-2.500
1.707,-2.500,12.500,70.500,-3.000
1.708,-4.000,12.000,70.000,-3.500
1.709,-4.000,11.500,69.500,-4.500
1.710,-3.000,10.500,68.500,-5.500
1.711,-1.000,10.000,68.000,-6.000
1.712,1.000,9.500,67.500,-7.000
1.713,3.000,9.000,67.000,-7.500
1.714,5.000,9.000,66.500,-8.000
1.715,6.000,8.500,66.000,-8.500
1.716,7.500,8.500,66.000,-9.000
1.717,8.500,8.500,65.500,-9.000
1.718,9.500,8.500,65.500,-9.500
1.719,10.500,8.500,65.500,-9.500
1.720,10.500,8.500,66.000,-9.500
1.721,10.000,8.500,66.000,-9.500
1.722,9.000,8.500,66.000,-9.000
1.723,8.500,8.000,66.000,-9.000
1.724,8.500,8.000,66.000,-9.000
1.725,9.000,8.000,66.000,-9.000
1.726,9.500,8.000,65.500,-9.500
1.727,9.500,8.000,65.500,-9.500
1.728,8.500,8.000,65.500,-10.000
1.729,8.000,7.500,65.000,-10.000
1.730,8.000,7.500,65.000,-10.500
1.731,8.000,7.500,64.500,-11.000
1.732,8.500,7.500,64.500,-11.000
1.733,8.500,7.500,64.000,-11.500
1.734,8.500,7.500,64.000,-11.500
1.735,9.000,7.500,64.000,-11.000
1.736,9.500,8.000,64.000,-11.000
1.737,9.500,8.500,64.500,-10.500
1.738,9.500,9.000,65.000,-10.000
1.739,9.000,9.500,65.500,-9.500
1.740,9.000,10.000,66.000,-9.000
1.741,8.500,10.000,66.000,-8.500
1.742,8.000,10.500,66.500,-7.500
1.743,7.500,10.500,66.500,-7.500
1.744,7.000,10.500,66.500,-7.000
1.745,5.500,10.500,66.500,-7.000
1.746,4.000,10.000,66.500,-7.500
1.747,3.000,10.000,66.500,-7.500
1.748,2.000,9.500,66.000,-8.000
1.749,2.500,9.500,65.500,-8.500
1.750,3.500,9.000,65.000,-9.000
1.751,5.500,9.000,64.500,-9.500
1.752,8.000,8.500,64.000,-9.500
1.753,10.000,8.500,64.000,-10.000
1.754,11.000,8.500,64.000,-10.000
1.755,11.500,8.500,64.500,-9.500
1.756,10.500,9.000,65.000,-9.000
1.757,8.500,9.500,65.500,-8.500
1.758,7.000,9.500,65.500,-8.500
1.759,6.000,10.000,66.000,-8.000
1.760,6.000,10.000,66.000,-7.500
1.761,6.500,10.000,66.000,-7.500
1.762,7.000,10.000,66.000,-7.000
1.763,7.000,10.000,66.000,-7.000
1.764,7.000,10.000,66.000,-7.000
1.765,7.000,10.000,66.000,-7.000
1.766,7.000,9.500,65.500,-7.000
1.767,7.000,9.500,65.000,-7.500
1.768,8.000,9.000,65.000,-7.500
1.769,10.000,8.500,64.500,-8.000
1.770,11.500,8.500,64.000,-8.500
1.771,13.000,8.500,64.000,-8.500
1.772,12.500,8.500,64.000,-9.000
1.773,10.500,8.500,64.000,-9.000
1.774,6.500,8.500,64.000,-8.500
1.775,3.500,9.000,64.000,-8.500
1.776,2.000,9.000,64.000,-8.500
1.777,3.000,9.000,64.000,-8.500
1.778,4.000,9.000,64.000,-9.000
1.779,5.000,8.500,63.500,-9.500
1.780,4.500,7.500,62.500,-10.500
1.781,3.500,6.500,61.500,-11.500
1.782,1.500,5.000,60.000,-13.000
1.783,-1.000,3.000,58.000,-15.000
1.784,-3.000,1.000,56.000,-17.000
1.785,-4.000,-1.000,54.000,-19.000
1.786,-4.000,-3.000,51.500,-21.000
1.787,-3.000,-5.500,49.500,-23.000
1.788,-1.500,-7.000,48.000,-25.000
1.789,0.000,-9.000,46.500,-26.000
1.790,0.500,-10.500,45.500,-27.000
1.791,0.500,-11.500,45.000,-27.000
1.792,-0.500,-12.000,45.000,-26.500
1.793,-0.500,-12.500,45.000,-25.500
1.794,1.000,-12.000,46.000,-24.000
1.795,3.000,-11.000,47.500,-21.500
1.796,5.000,-9.500,49.500,-18.000
1.797,5.000,-6.500,53.000,-14.000
1.798,4.000,-3.500,57.000,-8.500
1.799,3.000,1.000,62.500,-2.500
1.800,3.000,5.500,68.000,4.000
1.801,3.500,11.000,74.500,11.500
1.802,4.500,17.000,81.500,19.500
1.803,5.000,23.000,88.500,28.000
1.804,4.500,29.000,95.500,36.000
1.805,4.500,34.500,102.000,43.500
1.806,5.000,40.000,108.000,50.500
1.807,5.500,45.000,114.000,57.000
1.808,5.500,50.000,120.000,63.500
1.809,5.000,55.000,125.500,70.000
1.810,5.000,60.000,131.000,75.500
1.811,5.000,65.000,135.500,80.000
1.812,4.500,69.000,139.000,83.500
1.813,4.000,72.500,141.500,85.000
1.814,2.500,75.000,143.000,85.000
1.815,1.000,77.500,143.500,84.500
1.816,-1.000,79.500,143.500,83.000
1.817,-2.500,80.500,143.500,81.000
1.818,-3.500,81.500,142.500,78.500
1.819,-3.500,81.000,141.000,75.500
1.820,-2.000,80.000,139.000,72.000
1.821,-0.500,77.500,136.000,68.000
1.822,2.000,74.000,132.500,63.500
1.823,4.000,70.000,128.500,59.000
1.824,5.500,66.000,124.000,54.500
1.825,6.000,61.000,119.000,49.500
1.826,6.000,56.000,114.000,44.000
1.827,5.500,51.000,108.500,38.500
1.828,4.500,45.500,103.000,33.000
1.829,2.500,40.000,97.500,27.500
1.830,1.000,35.000,92.500,22.500
1.831,0.500,30.000,88.000,17.500
1.832,1.500,25.500,83.500,13.500
1.833,3.000,22.000,79.500,9.500
1.834,4.500,18.500,76.000,6.000
1.835,4.500,16.000,73.500,3.000
1.836,4.000,14.000,71.000,0.500
1.837,3.500,12.500,69.500,-1.000
1.838,2.500,11.500,68.000,-2.000
1.839,2.000,11.000,67.500,-2.500
1.840,0.500,10.500,67.500,-2.500
1.841,-2.000,10.500,67.000,-2.500
1.842,-3.500,10.000,67.000,-2.500
1.843,-3.000,10.000,67.000,-2.500
1.844,-1.500,9.500,67.000,-3.000
1.845,0.500,9.500,67.000,-3.500
1.846,2.500,9.000,66.500,-4.000
1.847,3.500,8.500,66.000,-4.500
1.848,3.000,8.500,65.500,-5.000
1.849,2.500,8.000,65.000,-6.000
1.850,2.000,8.000,64.500,-6.500
1.851,2.000,8.000,64.500,-7.000
1.852,3.000,7.500,64.000,-7.500
1.853,3.500,7.000,63.500,-8.000
1.854,3.500,7.000,63.000,-8.500
1.855,3.000,6.500,63.000,-8.500
1.856,2.000,6.500,63.000,-8.500
1.857,1.500,6.500,63.000,-8.500
1.858,0.500,6.500,63.000,-8.000
1.859,-1.000,6.500,63.500,-7.500
1.860,-3.000,7.000,63.500,-7.500
1.861,-4.500,7.000,64.000,-7.000
1.862,-5.000,7.000,64.000,-6.500
1.863,-4.500,7.500,64.500,-6.500
1.864,-3.500,7.500,64.500,-6.500
1.865,-2.500,7.000,65.000,-6.500
1.866,-1.500,7.000,64.500,-6.500
1.867,-0.500,6.500,64.500,-7.000
1.868,0.000,6.000,64.000,-7.500
1.869,0.000,5.500,63.500,-8.000
1.870,0.000,5.000,63.000,-9.000
1.871,0.500,4.500,62.500,-9.500
1.872,1.500,4.500,62.000,-9.500
1.873,1.500,4.000,61.500,-10.000
1.874,0.500,4.000,61.500,-10.000
1.875,-0.500,4.000,61.500,-10.000
1.876,-1.000,4.000,61.500,-10.000
1.877,-1.000,4.000,62.000,-9.500
1.878,-0.500,4.500,62.500,-9.500
1.879,-0.500,5.000,63.000,-9.000
1.880,-0.500,5.000,63.000,-8.500
1.881,-1.000,5.000,63.500,-8.000
1.882,-2.000,5.000,64.000,-8.000
1.883,-2.000,5.000,64.000,-7.500
1.884,-1.500,5.000,64.000,-7.500
1.885,-1.500,4.500,64.000,-7.500
1.886,-1.000,4.500,64.000,-8.000
1.887,-1.500,4.000,63.500,-8.000
1.888,-2.500,3.500,63.000,-8.500
1.889,-3.500,3.000,62.500,-9.500
1.890,-4.500,2.500,61.500,-10.000
1.891,-4.500,2.000,61.000,-10.500
1.892,-3.500,2.000,60.500,-10.500
1.893,-1.500,2.000,60.500,-11.000
1.894,0.000,2.500,60.500,-11.000
1.895,1.000,2.500,61.000,-10.500
1.896,0.000,2.500,61.500,-10.500
1.897,-1.500,3.000,61.500,-10.000
1.898,-3.000,3.000,62.000,-9.500
1.899,-3.500,3.500,62.500,-9.000
1.900,-3.000,3.500,63.000,-8.500
1.901,-2.000,4.000,63.000,-8.000
1.902,-1.500,4.000,63.500,-8.000
1.903,-1.500,4.500,64.000,-7.500
1.904,-3.000,5.000,64.000,-7.500
1.905,-4.000,5.000,64.000,-7.500
1.906,-5.000,4.500,63.500,-7.500
1.907,-5.500,4.500,63.000,-8.000
1.908,-4.000,4.000,63.000,-8.000
1.909,-2.000,3.500,62.500,-8.500
1.910,-0.500,3.500,62.500,-9.000
1.911,0.000,3.000,62.500,-9.000
1.912,-0.500,3.000,62.500,-9.500
1.913,-2.000,3.500,62.500,-9.500
1.914,-3.500,3.500,62.500,-9.000
1.915,-4.000,4.000,63.000,-8.500
1.916,-3.500,4.500,63.000,-8.500
1.917,-2.500,5.000,63.500,-8.000
1.918,-2.000,5.000,63.500,-7.500
1.919,-3.000,5.000,64.000,-7.500
1.920,-4.000,5.500,64.000,-7.000
1.921,-5.000,5.500,64.000,-7.000
1.922,-4.500,5.500,64.000,-6.500
1.923,-2.500,5.500,64.500,-6.500
1.924,-1.500,5.500,64.500,-6.500
1.925,-1.500,5.500,64.500,-6.500
1.926,-3.500,5.000,64.000,-6.500
1.927,-5.500,4.500,64.000,-7.000
1.928,-7.000,4.000,63.500,-7.500
1.929,-6.000,4.000,63.000,-8.000
1.930,-3.500,3.500,62.500,-8.500
1.931,-0.500,3.000,62.500,-9.000
1.932,1.000,3.000,62.000,-9.000
1.933,0.500,3.000,62.000,-9.000
1.934,-1.500,3.000,62.000,-9.000
1.935,-3.000,3.000,62.000,-9.000
1.936,-4.000,3.500,62.500,-8.500
1.937,-4.500,4.000,62.500,-8.500
1.938,-5.000,4.000,62.500,-7.500
1.939,-5.500,4.500,63.000,-7.000
1.940,-6.000,4.500,63.000,-6.000
1.941,-6.500,5.000,63.500,-5.500
1.942,-6.500,5.000,63.500,-5.000
1.943,-7.000,5.500,64.000,-5.000
1.944,-7.500,5.500,64.000,-4.500
1.945,-8.500,5.500,64.000,-4.500
1.946,-10.000,5.500,64.500,-5.000
1.947,-11.000,5.500,64.000,-5.500
1.948,-12.000,5.000,64.000,-6.000
1.949,-12.000,5.000,64.000,-6.500
1.950,-11.500,4.500,63.500,-7.000
1.951,-11.000,4.500,63.500,-7.000
1.952,-11.000,4.000,63.000,-7.500
1.953,-11.000,4.000,63.000,-7.500
1.954,-11.000,4.000,63.000,-7.500
1.955,-10.000,4.000,63.000,-7.500
1.956,-9.000,4.000,63.000,-7.000
1.957,-9.000,4.500,63.000,-7.000
1.958,-9.500,5.000,63.500,-6.500
1.959,-11.500,5.000,64.000,-6.000
1.960,-13.000,5.000,64.500,-6.000
1.961,-13.000,5.000,64.500,-5.500
1.962,-11.500,5.000,65.000,-5.500
1.963,-9.000,5.000,65.000,-5.500
1.964,-6.000,5.000,65.000,-5.500
1.965,-4.000,4.500,65.000,-5.500
1.966,-3.500,4.500,64.500,-5.500
1.967,-3.000,4.500,64.500,-6.000
1.968,-3.500,4.500,64.000,-6.500
1.969,-3.500,4.000,63.500,-7.000
1.970,-2.500,4.000,63.500,-7.000
1.971,-1.000,4.000,63.000,-7.500
1.972,0.500,3.500,63.000,-7.500
1.973,1.500,3.500,63.000,-7.500
1.974,1.500,3.500,63.000,-7.500
1.975,1.000,4.000,63.500,-7.000
1.976,0.500,4.000,63.500,-6.500
1.977,0.000,4.000,63.500,-6.000
1.978,-0.500,4.500,64.000,-5.500
1.979,-1.500,5.000,65.000,-5.000
1.980,-2.000,5.500,65.500,-4.000
1.981,-1.000,5.500,66.000,-3.500
1.982,1.500,6.000,66.500,-3.500
1.983,4.000,6.500,67.000,-3.500
1.984,6.000,6.500,67.000,-3.000
1.985,7.000,6.500,67.000,-3.000
1.986,7.000,6.500,67.000,-3.500
1.987,7.000,6.000,66.500,-3.500
1.988,7.500,5.500,66.000,-4.000
1.989,8.500,5.000,65.500,-4.500
1.990,9.500,4.500,65.000,-5.500
1.991,9.500,4.500,64.500,-6.000
1.992,9.500,4.000,64.500,-6.000
1.993,9.500,4.000,64.000,-6.000
1.994,10.000,4.000,64.000,-6.000
1.995,11.000,4.000,64.000,-6.000
1.996,11.000,4.500,64.000,-6.000
1.997,10.000,4.500,64.500,-5.500
1.998,7.500,4.500,65.000,-5.000
1.999,4.500,4.500,65.000,-4.500
2.000,2.500,4.500,65.500,-4.000
2.001,2.000,5.000,66.000,-3.500
2.002,3.000,5.000,66.000,-3.000
2.003,4.500,5.500,66.500,-3.000
2.004,5.000,5.500,67.000,-3.000
2.005,4.500,5.500,67.000,-3.000
2.006,3.500,5.500,67.000,-3.000
2.007,3.000,5.000,66.500,-3.500
2.008,2.500,4.500,66.500,-4.000
2.009,2.000,4.500,66.000,-4.000
2.010,2.000,4.000,66.000,-4.500
2.011,1.500,4.000,66.000,-4.500
2.012,1.000,4.500,66.000,-4.500
2.013,0.000,4.500,66.000,-4.500
2.014,-0.500,5.000,66.000,-4.000
2.015,-1.000,5.000,66.500,-3.500
2.016,-2.000,5.500,66.500,-3.000
2.017,-2.500,5.500,67.000,-2.500
2.018,-2.500,6.000,67.000,-2.000
2.019,-2.500,6.500,67.500,-1.500
2.020,-2.500,7.000,68.000,-0.500
2.021,-3.500,7.000,68.500,0.000
2.022,-4.500,7.500,69.000,0.500
2.023,-6.500,7.500,69.500,1.000
2.024,-8.500,8.000,70.000,1.500
2.025,-10.500,8.000,70.000,1.500
2.026,-11.500,8.000,70.000,1.500
2.027,-11.500,8.000,70.000,1.500
2.028,-11.000,7.500,70.000,1.500
2.029,-10.000,7.500,69.500,1.500
2.030,-10.000,7.000,69.500,1.000
2.031,-10.500,7.000,69.500,1.000
2.032,-12.000,7.000,69.500,1.000
2.033,-12.500,7.000,69.500,1.000
2.034,-12.000,7.500,69.500,1.000
2.035,-10.000,8.000,70.000,1.000
2.036,-7.500,8.000,70.000,1.000
2.037,-4.500,8.500,70.500,1.500
2.038,-1.500,9.000,70.500,2.000
2.039,1.500,9.000,71.000,2.500
2.040,3.000,9.000,71.500,3.000
2.041,3.500,9.000,72.000,3.500
2.042,2.500,9.000,72.000,3.500
2.043,1.000,9.000,72.500,4.000
2.044,-1.000,8.500,72.000,4.000
2.045,-2.500,8.500,72.000,3.500
2.046,-3.000,8.500,71.500,3.500
2.047,-2.000,8.000,71.000,3.000
2.048,-1.000,7.500,71.000,3.000
2.049,-1.000,7.500,70.000,2.000
2.050,-1.500,7.000,69.500,1.500
2.051,-3.000,6.500,69.000,1.000
2.052,-4.000,6.000,68.500,0.500
2.053,-4.500,6.000,68.500,0.000
2.054,-3.500,6.000,68.000,-0.500
2.055,-3.000,6.000,68.000,-0.500
2.056,-2.500,6.000,68.000,-0.500
2.057,-1.500,6.000,68.500,0.000
2.058,-0.500,6.500,69.000,0.000
2.059,1.000,6.500,69.000,0.500
2.060,3.000,6.500,69.000,0.500
2.061,5.000,6.500,69.000,1.000
2.062,6.500,7.000,69.000,1.000
2.063,7.000,7.000,69.000,1.000
2.064,7.500,7.000,69.000,1.000
2.065,7.500,7.500,69.000,1.000
2.066,7.500,7.500,69.000,1.000
2.067,6.000,7.500,69.000,1.000
2.068,3.000,7.500,69.000,1.000
2.069,0.000,7.500,68.500,0.500
2.070,-2.000,7.500,68.500,0.000
2.071,-3.000,7.500,68.000,-0.500
2.072,-2.000,7.500,68.000,-0.500
2.073,-0.500,7.500,67.500,-1.000
2.074,1.000,7.500,67.500,-1.000
2.075,3.000,8.000,67.500,-1.500
2.076,4.000,8.500,68.000,-1.000
2.077,3.500,9.000,68.500,-1.000
2.078,2.000,9.000,68.500,-0.500
2.079,0.500,9.500,68.500,-0.500
2.080,-1.000,9.500,69.000,0.000
2.081,-2.000,9.500,68.500,0.500
2.082,-3.000,9.500,68.500,0.500
2.083,-4.000,9.500,68.500,1.000
2.084,-4.500,9.500,68.000,1.000
2.085,-4.000,9.500,68.000,1.000
2.086,-2.000,9.500,68.000,0.500
2.087,1.000,9.000,67.500,0.000
2.088,4.000,9.000,67.000,-0.500
2.089,5.500,9.000,67.000,-1.000
2.090,6.000,9.000,66.500,-1.000
2.091,5.000,9.000,66.000,-1.500
2.092,4.500,9.000,65.500,-1.500
2.093,4.000,8.500,65.500,-1.500
2.094,4.000,9.000,65.500,-1.500
2.095,3.000,9.000,65.500,-1.500
2.096,2.000,9.500,66.000,-1.000
2.097,1.000,9.500,66.000,-0.500
2.098,1.000,10.000,66.000,0.000
2.099,1.000,10.000,66.500,0.500
2.100,1.500,10.500,67.000,1.000
2.101,2.500,11.000,67.500,2.000
2.102,3.500,11.500,68.000,2.500
2.103,3.500,12.000,68.500,3.500
2.104,3.000,12.500,68.500,4.000
2.105,3.000,12.500,69.000,4.000
2.106,2.500,12.500,68.500,4.000
2.107,2.000,12.500,68.500,3.500
2.108,1.000,12.000,68.000,2.500
2.109,-0.500,12.000,68.000,2.000
2.110,-2.000,12.000,67.500,1.000
2.111,-3.000,11.500,67.000,0.500
2.112,-3.500,10.500,66.500,-0.500
2.113,-3.500,10.000,66.000,-1.000
2.114,-3.500,9.000,65.000,-1.500
2.115,-3.000,8.000,64.500,-2.000
2.116,-3.500,7.500,64.000,-2.000
2.117,-5.000,7.000,63.500,-2.500
2.118,-7.000,6.500,63.000,-2.500
2.119,-9.500,6.500,63.000,-3.000
2.120,-12.000,6.500,63.000,-2.500
2.121,-13.500,7.000,63.000,-2.500
2.122,-13.500,7.500,63.500,-1.500
2.123,-12.500,8.500,64.500,-1.000
2.124,-11.000,10.000,65.500,0.500
2.125,-10.500,11.000,67.000,1.500
2.126,-10.500,12.500,68.000,2.500
2.127,-11.000,13.000,69.000,3.500
2.128,-12.000,14.000,70.000,4.000
2.129,-12.500,14.500,70.500,4.500
2.130,-11.000,15.000,70.500,4.500
2.131,-8.000,15.000,70.500,4.500
2.132,-4.000,15.000,70.500,4.500
2.133,0.000,15.000,70.500,4.500
2.134,2.500,15.000,70.000,4.000
2.135,3.500,15.000,70.000,4.000
2.136,3.500,14.500,69.500,3.500
2.137,2.500,14.500,69.500,3.500
2.138,2.000,14.000,69.500,3.500
2.139,1.500,14.000,69.500,3.500
2.140,1.500,13.000,69.000,3.500
2.141,1.500,12.500,69.000,3.000
2.142,1.500,12.000,68.500,3.000
2.143,1.000,12.000,68.500,3.000
2.144,1.500,11.500,68.000,3.000
2.145,2.500,11.500,68.000,3.000
2.146,4.500,11.000,68.000,2.500
2.147,6.000,10.500,68.000,2.500
2.148,6.500,10.500,67.500,2.000
2.149,7.000,10.000,67.500,1.500
2.150,6.000,10.000,67.500,1.500
2.151,4.500,10.000,67.000,1.000
2.152,2.000,10.000,67.000,1.000
2.153,-1.000,9.500,67.000,0.500
2.154,-4.000,9.500,67.000,0.500
2.155,-7.000,10.000,67.000,0.500
2.156,-9.000,10.000,67.000,1.000
2.157,-9.500,10.000,67.000,1.000
2.158,-8.500,10.000,67.500,1.000
2.159,-7.500,10.000,67.500,1.500
2.160,-7.500,10.500,68.000,1.500
2.161,-8.000,10.500,68.000,2.000
2.162,-8.000,10.500,68.500,2.000
2.163,-7.000,10.500,68.500,2.000
2.164,-5.000,10.500,69.000,2.000
2.165,-3.500,10.500,68.500,2.000
2.166,-3.000,10.500,68.500,1.500
2.167,-2.500,10.500,68.500,1.000
2.168,-2.500,10.500,68.000,0.500
2.169,-1.500,10.000,67.500,0.500
2.170,-0.500,9.500,67.500,-0.500
2.171,1.000,9.500,67.000,-1.000
2.172,3.000,9.000,66.500,-1.500
2.173,5.000,9.000,66.500,-1.500
2.174,6.500,9.000,66.000,-2.000
2.175,8.000,9.000,66.000,-2.000
2.176,8.500,9.000,66.000,-2.000
2.177,8.000,9.000,66.000,-2.000
2.178,7.000,9.000,66.500,-1.500
2.179,6.000,9.500,67.000,-1.000
2.180,5.500,9.500,67.500,-0.500
2.181,5.000,10.000,68.000,0.000
2.182,4.000,10.000,68.000,0.500
2.183,2.500,10.500,68.500,0.500
2.184,1.000,10.500,68.500,0.500
2.185,-1.000,10.500,68.500,0.500
2.186,-2.000,10.000,68.500,0.500
2.187,-2.500,9.500,68.000,-0.500
2.188,-2.500,9.500,67.500,-1.000
2.189,-3.000,9.000,67.000,-1.500
2.190,-3.000,9.000,67.000,-2.000
2.191,-2.500,9.000,66.500,-2.000
2.192,-2.000,9.500,66.500,-2.000
2.193,-1.500,9.500,66.500,-2.000
2.194,-1.000,9.500,66.500,-2.000
2.195,1.000,10.000,67.000,-1.500
2.196,3.000,10.000,67.000,-1.500
2.197,5.000,10.000,67.500,-1.000
2.198,6.000,10.500,68.000,-0.500
2.199,5.500,10.500,68.000,0.500
2.200,4.500,11.000,68.000,0.500
2.201,2.500,10.500,68.000,1.000
2.202,1.000,10.500,67.500,1.000
2.203,-0.500,10.000,67.500,1.000
2.204,-2.500,10.000,67.500,1.000
2.205,-4.500,9.500,67.500,0.500
2.206,-6.000,9.000,67.500,0.000
2.207,-6.500,9.000,67.000,-0.500
2.208,-5.500,8.500,67.000,-1.000
2.209,-3.500,8.500,66.500,-1.500
2.210,-1.500,8.000,66.500,-2.000
2.211,0.000,8.000,66.000,-2.500
2.212,1.000,7.500,65.500,-3.000
2.213,1.500,7.500,65.500,-3.000
2.214,2.000,7.500,65.500,-3.000
2.215,4.000,7.500,65.500,-3.000
2.216,5.500,7.500,66.000,-3.000
2.217,6.000,8.000,66.500,-2.500
2.218,6.000,8.000,67.000,-2.000
2.219,5.500,8.500,67.000,-1.500
2.220,6.000,9.000,67.500,-1.000
2.221,7.500,9.500,68.000,-0.500
2.222,9.500,10.000,68.000,0.000
2.223,11.000,10.500,68.000,0.500
2.224,11.000,10.500,68.000,0.500
2.225,10.000,10.500,68.000,0.500
2.226,8.500,10.000,68.000,0.500
2.227,7.500,10.000,67.500,0.000
2.228,7.000,10.000,67.500,0.000
2.229,7.000,10.000,67.000,-0.500
2.230,7.500,9.500,67.000,-0.500
2.231,8.000,9.500,67.000,-0.500
2.232,8.500,9.500,66.500,-1.000
2.233,9.500,9.500,66.500,-1.000
2.234,11.000,9.500,66.500,-1.500
2.235,12.500,9.500,66.500,-1.500
2.236,13.000,9.500,67.000,-1.500
2.237,12.000,9.500,67.000,-1.000
2.238,10.000,10.000,67.500,-0.500
2.239,8.000,10.500,68.000,0.000
2.240,6.000,11.000,68.500,0.500
2.241,5.500,11.000,68.500,1.000
2.242,5.500,11.000,68.500,1.500
2.243,5.500,11.000,68.500,1.500
2.244,5.500,11.000,68.500,1.500
2.245,4.500,10.500,68.500,1.500
2.246,4.000,10.500,68.500,1.000
2.247,5.000,10.000,68.000,0.500
2.248,7.000,9.500,68.000,0.500
2.249,8.500,9.000,67.500,0.000
2.250,9.000,9.000,67.500,-0.500
2.251,9.000,9.000,67.500,-0.500
2.252,9.500,9.000,67.000,-1.000
2.253,9.000,9.000,67.000,-1.000
2.254,8.000,9.000,66.500,-1.000
2.255,5.500,9.000,66.500,-1.000
2.256,3.500,9.000,66.500,-0.500
2.257,2.000,9.500,67.000,-0.500
2.258,2.000,10.000,67.000,0.500
2.259,3.000,10.500,67.500,1.000
2.260,3.500,10.500,68.000,1.000
2.261,3.500,11.000,68.000,1.500
2.262,3.000,11.000,68.500,1.500
2.263,2.000,11.000,68.500,1.500
2.264,1.000,11.000,68.500,1.500
2.265,0.500,11.000,68.000,1.000
2.266,1.000,11.000,68.000,1.000
2.267,2.000,10.500,68.000,1.000
2.268,2.500,10.500,67.500,0.500
2.269,3.500,10.000,67.500,0.000
2.270,5.000,10.000,67.000,-0.500
2.271,6.500,9.500,66.500,-0.500
2.272,8.000,9.000,66.500,-1.000
2.273,8.500,9.000,66.500,-1.000
2.274,8.000,9.500,66.500,-1.000
2.275,7.000,9.500,66.500,-0.500
2.276,5.500,10.000,67.000,-0.500
2.277,4.000,10.500,67.000,-0.500
2.278,3.500,11.000,67.500,0.000
2.279,3.000,11.000,68.000,0.500
2.280,3.000,11.500,68.500,0.500
2.281,2.000,12.000,69.000,1.000
2.282,1.000,12.000,69.500,1.000
2.283,0.000,12.500,69.500,1.000
2.284,-0.500,12.500,70.000,1.000
2.285,-0.500,12.000,70.000,1.000
2.286,0.000,11.500,69.500,0.500
2.287,0.000,11.000,69.000,0.000
2.288,0.000,11.000,69.000,-0.500
2.289,0.000,10.500,68.500,-1.000
2.290,0.500,10.500,68.000,-1.500
2.291,1.500,10.000,67.500,-2.000
2.292,3.500,9.500,67.000,-2.000
2.293,7.000,9.500,66.500,-2.500
2.294,10.000,9.500,66.500,-2.000
2.295,12.000,9.500,66.500,-2.000
2.296,12.500,10.000,66.500,-1.500
2.297,11.500,10.500,67.000,-1.500
2.298,11.000,10.500,67.000,-1.000
2.299,10.500,11.000,67.500,-0.500
2.300,10.500,11.000,67.500,0.000
2.301,10.500,11.000,67.500,0.000
2.302,10.000,11.000,67.500,0.000
2.303,9.500,11.000,67.500,0.000
2.304,7.500,10.500,67.500,0.000
2.305,5.000,10.500,67.000,-0.500
2.306,3.000,10.000,66.500,-1.000
2.307,2.500,9.500,66.500,-1.000
2.308,4.000,9.500,66.000,-1.500
2.309,5.500,9.500,65.500,-2.000
2.310,6.500,9.000,65.500,-2.500
2.311,7.000,9.000,65.000,-3.000
2.312,7.500,9.000,64.500,-3.500
2.313,8.000,8.500,64.000,-3.500
2.314,9.000,8.000,64.000,-4.000
2.315,9.500,8.000,64.000,-4.000
2.316,9.500,8.000,64.000,-4.000
2.317,8.000,8.500,64.000,-3.500
2.318,6.000,9.000,64.500,-3.500
2.319,4.000,9.000,64.500,-3.000
2.320,2.500,9.000,65.000,-2.500
2.321,2.000,9.000,65.500,-2.500
2.322,2.000,9.000,65.500,-2.000
2.323,3.000,9.000,65.500,-2.000
2.324,3.500,8.500,65.500,-2.000
2.325,4.000,8.500,65.500,-2.500
2.326,4.500,8.500,65.000,-2.500
2.327,4.500,8.500,64.500,-3.000
2.328,4.500,8.000,64.000,-3.500
2.329,4.000,8.000,63.500,-4.000
2.330,3.000,7.500,63.000,-5.000
2.331,2.500,7.000,62.500,-5.500
2.332,3.000,6.500,62.000,-6.000
2.333,4.000,6.000,61.500,-6.500
2.334,4.000,5.500,61.000,-7.000
2.335,3.000,5.000,60.500,-7.000
2.336,1.500,5.000,60.000,-7.000
2.337,1.500,5.000,60.500,-7.000
2.338,3.000,5.000,61.000,-6.000
2.339,6.000,5.500,62.000,-5.000
2.340,10.000,6.500,63.000,-4.000
2.341,13.000,7.000,64.000,-2.500
2.342,15.500,8.000,65.000,-1.500
2.343,17.500,9.000,66.000,0.000
2.344,18.500,9.500,67.000,1.000
2.345,18.500,10.500,67.500,1.500
2.346,17.500,11.000,68.000,2.000
2.347,15.500,11.000,68.500,2.000
2.348,14.000,11.000,68.500,2.000
2.349,12.500,11.000,68.500,2.000
2.350,11.500,11.000,68.500,2.000
2.351,11.000,11.000,68.500,2.000
2.352,11.000,11.000,69.000,2.000
2.353,12.500,11.500,69.000,2.000
2.354,13.500,11.500,69.000,2.000
2.355,14.500,11.500,69.500,2.000
2.356,14.000,11.500,69.500,2.500
2.357,12.500,11.500,69.500,2.500
2.358,11.500,11.500,69.500,3.000
2.359,10.500,12.000,70.000,3.500
2.360,10.000,12.500,70.500,4.000
2.361,10.000,12.500,71.000,4.500
2.362,10.000,13.000,71.000,4.500
2.363,10.000,13.000,71.500,4.500
2.364,11.000,13.000,71.000,4.500
2.365,11.500,13.000,70.500,4.000
2.366,11.500,12.500,70.000,3.500
2.367,10.500,12.000,69.500,3.000
2.368,9.500,11.500,68.500,2.000
2.369,8.500,10.500,67.500,1.000
2.370,7.500,9.500,67.000,0.000
2.371,7.000,9.000,66.500,-0.500
2.372,7.000,9.000,66.000,-1.000
2.373,7.000,9.000,66.000,-1.500
2.374,8.000,9.000,66.000,-1.500
2.375,9.000,9.000,66.500,-1.000
2.376,10.500,9.500,67.000,-0.500
2.377,11.500,10.000,67.500,0.500
2.378,12.500,10.500,68.000,1.000
2.379,13.500,10.500,68.000,1.500
2.380,12.500,11.000,68.500,1.500
2.381,10.500,11.500,69.000,2.000
2.382,8.000,11.500,69.500,2.000
2.383,6.000,11.500,69.500,2.500
2.384,5.500,11.500,69.500,2.500
2.385,6.500,11.500,69.500,2.500
2.386,7.500,11.000,69.500,2.500
2.387,8.000,10.500,69.000,2.000
2.388,7.500,10.000,68.500,2.000
2.389,6.500,10.000,68.500,1.500
2.390,5.500,9.500,68.000,1.500
2.391,4.500,9.000,68.000,1.000
2.392,3.500,9.000,67.500,1.000
2.393,3.000,9.000,67.500,0.500
2.394,4.000,9.000,67.500,0.500
2.395,5.500,9.000,67.500,0.500
2.396,7.500,9.000,67.500,1.000
2.397,9.500,9.500,68.000,1.000
2.398,10.000,10.000,68.000,1.500
2.399,9.500,10.500,68.500,2.500
2.400,9.000,11.000,69.000,2.500
2.401,8.500,11.500,69.000,3.000
2.402,8.500,11.500,69.500,3.500
2.403,8.500,11.500,69.500,3.500
2.404,7.500,12.000,69.500,3.000
2.405,6.500,11.500,69.500,3.000
2.406,6.000,11.500,69.000,2.500
2.407,5.500,11.000,68.500,2.000
2.408,5.000,10.500,68.000,1.500
2.409,4.500,10.500,67.500,1.500
2.410,4.000,10.000,67.500,1.000
2.411,3.500,9.500,67.000,1.000
2.412,1.500,9.500,67.000,1.000
2.413,-0.500,9.500,67.000,1.000
2.414,-2.000,9.000,67.000,1.000
2.415,-3.000,9.000,67.000,1.000
2.416,-4.000,9.500,67.000,1.500
2.417,-4.000,9.500,67.000,1.500
2.418,-3.500,10.000,67.500,1.500
2.419,-2.000,10.000,67.500,2.000
2.420,-1.000,10.000,68.000,2.000
2.421,-0.500,10.000,68.000,2.000
2.422,-0.500,10.000,68.500,2.000
2.423,0.000,9.500,68.000,1.500
2.424,1.000,9.500,68.000,1.500
2.425,2.500,9.500,67.500,1.000
2.426,3.500,9.000,67.000,0.500
2.427,4.000,8.500,66.500,-0.500
2.428,3.500,8.000,65.500,-1.500
2.429,3.000,7.000,64.500,-3.000
2.430,2.500,5.500,63.000,-5.000
2.431,3.000,4.000,61.000,-7.000
2.432,4.000,2.000,58.500,-9.500
2.433,5.000,-0.500,56.000,-12.000
2.434,5.000,-2.500,54.000,-14.000
2.435,5.000,-4.500,52.000,-16.500
2.436,4.000,-6.000,50.000,-18.000
2.437,3.500,-7.500,49.000,-19.000
2.438,3.500,-8.500,48.500,-19.500
2.439,4.000,-9.000,48.000,-19.000
2.440,5.000,-9.500,48.000,-18.500
2.441,6.000,-10.000,48.500,-17.500
2.442,7.500,-9.500,49.000,-16.500
2.443,9.000,-9.500,50.000,-14.500
2.444,10.500,-8.500,51.500,-12.000
2.445,11.000,-7.000,53.500,-9.000
2.446,11.000,-5.500,56.000,-5.500
2.447,10.000,-3.000,59.000,-1.000
2.448,9.500,0.000,63.000,4.000
2.449,9.500,4.000,68.000,10.000
2.450,9.500,8.500,73.500,16.500
2.451,9.000,14.000,79.500,23.500
2.452,8.500,20.000,86.500,30.500
2.453,7.000,26.000,93.500,38.500
2.454,5.000,32.000,100.000,46.000
2.455,2.000,37.500,106.500,53.500
2.456,-1.000,43.000,112.500,60.500
2.457,-4.000,48.500,118.000,68.000
2.458,-5.500,53.500,123.500,75.000
2.459,-5.000,58.500,129.000,81.000
2.460,-2.500,63.500,134.000,86.500
2.461,1.000,68.000,138.000,91.000
2.462,4.500,71.500,141.000,93.500
2.463,7.000,74.000,143.000,94.000
2.464,8.500,75.500,144.000,93.500
2.465,8.500,77.000,144.500,92.000
2.466,7.000,78.500,144.000,89.500
2.467,5.500,79.000,143.000,87.000
2.468,4.000,79.000,141.000,83.500
2.469,3.500,78.000,138.500,79.500
2.470,4.000,75.500,135.500,75.000
2.471,5.500,72.500,131.500,70.500
2.472,7.500,69.000,127.500,66.000
2.473,9.000,64.500,123.000,61.000
2.474,9.000,60.500,118.500,56.500
2.475,8.500,56.000,113.500,51.500
2.476,7.500,51.500,109.000,46.500
2.477,7.000,47.000,104.500,42.000
2.478,7.000,42.500,100.000,37.500
2.479,6.500,38.500,95.500,33.000
2.480,6.500,34.500,91.500,29.000
2.481,6.000,30.500,88.000,25.000
2.482,5.000,26.500,84.500,21.500
2.483,2.000,23.000,81.000,18.000
2.484,-1.500,20.000,78.000,15.000
2.485,-4.500,17.500,75.500,12.000
2.486,-6.500,15.000,73.500,9.500
2.487,-8.000,13.500,71.500,7.000
2.488,-9.000,11.500,70.000,5.500
2.489,-9.000,10.500,69.000,4.000
2.490,-8.500,9.500,68.000,3.000
2.491,-7.500,8.500,67.000,2.500
2.492,-6.000,8.000,66.500,1.500
2.493,-5.000,8.000,66.000,1.000
2.494,-5.000,7.500,65.500,0.500
2.495,-5.000,7.500,65.000,0.000
2.496,-4.500,7.500,64.500,0.000
2.497,-3.500,7.500,64.500,0.000
2.498,-2.500,7.500,64.500,0.500
2.499,-1.000,8.000,65.000,0.500
2.500,0.500,8.000,65.000,1.000
2.501,1.500,8.000,65.000,1.000
2.502,2.000,8.000,65.000,1.000
2.503,1.500,8.000,64.500,1.000
2.504,1.000,7.500,64.500,0.500
2.505,0.000,7.000,64.000,0.500
2.506,-1.000,6.500,63.500,0.000
2.507,-1.500,6.000,62.500,-0.500
2.508,-1.000,5.500,62.000,-1.000
2.509,0.500,5.000,61.500,-1.000
2.510,2.000,4.500,61.000,-2.000
2.511,2.500,4.000,60.500,-2.500
2.512,2.000,4.000,60.500,-3.000
2.513,2.000,4.000,60.000,-3.000
2.514,2.500,4.000,60.500,-3.000
2.515,2.000,4.500,60.500,-3.000
2.516,1.500,5.000,61.000,-2.500
2.517,0.500,5.500,61.000,-2.000
2.518,-1.500,5.500,61.500,-1.500
2.519,-3.000,5.500,61.500,-1.000
2.520,-5.500,6.000,62.000,-1.000
2.521,-8.000,6.000,62.000,-0.500
2.522,-10.500,6.000,62.500,-0.500
2.523,-12.500,6.500,63.000,0.000
2.524,-13.500,7.000,63.500,0.000
2.525,-13.500,7.000,63.500,0.500
2.526,-13.000,7.000,64.000,0.500
2.527,-12.500,7.000,64.000,0.500
2.528,-13.500,7.000,64.000,0.500
2.529,-14.500,6.500,64.000,0.500
2.530,-15.500,6.000,63.500,0.000
2.531,-14.000,6.000,63.500,-0.500
2.532,-10.500,5.500,63.000,-0.500
2.533,-6.500,5.000,62.500,-1.000
2.534,-3.000,5.000,62.500,-1.500
2.535,-1.500,5.000,62.000,-1.500
2.536,-2.000,4.500,62.000,-2.000
2.537,-3.000,4.500,62.000,-2.000
2.538,-5.000,4.500,62.500,-1.500
2.539,-6.500,4.500,62.500,-1.500
2.540,-8.500,4.500,62.500,-1.500
2.541,-11.000,4.500,62.500,-1.000
2.542,-13.500,4.000,62.000,-1.000
2.543,-15.500,3.500,61.500,-1.500
2.544,-15.500,2.500,60.500,-2.000
2.545,-14.500,1.500,59.000,-3.000
2.546,-13.500,0.000,58.000,-3.500
2.547,-12.500,-1.500,57.000,-4.500
2.548,-12.000,-2.500,56.000,-5.500
2.549,-11.500,-2.500,56.000,-6.000
2.550,-11.500,-2.500,56.000,-6.000
2.551,-11.000,-1.500,56.500,-5.500
2.552,-11.000,-1.000,57.000,-5.500
2.553,-10.500,0.500,58.000,-5.000
2.554,-10.500,1.500,58.500,-4.000
2.555,-9.500,2.500,59.500,-3.500
2.556,-8.000,4.000,60.500,-2.500
2.557,-6.000,5.000,62.000,-1.500
2.558,-3.500,6.500,63.000,0.000
2.559,-1.000,7.500,63.500,1.000
2.560,1.500,8.000,64.500,2.000
2.561,2.500,8.000,64.500,2.500
2.562,3.000,8.000,64.500,2.500
2.563,2.500,7.500,64.500,2.000
2.564,1.500,6.500,63.500,1.000
2.565,0.000,5.500,62.500,0.500
2.566,-1.000,4.500,61.500,-0.500
2.567,-2.000,4.000,60.500,-1.500
2.568,-2.500,3.000,60.000,-2.500
2.569,-3.000,2.500,59.500,-3.000
2.570,-3.000,2.000,59.000,-3.500
2.571,-3.500,1.500,58.500,-4.000
2.572,-4.500,1.500,58.500,-4.000
2.573,-5.500,1.000,58.000,-4.500
2.574,-6.000,0.500,58.000,-5.000
2.575,-6.000,0.500,58.000,-5.000
2.576,-6.500,0.500,58.500,-5.000
2.577,-6.500,0.500,58.500,-5.000
2.578,-6.500,0.500,59.000,-4.500
2.579,-6.000,0.500,59.500,-4.000
2.580,-5.500,1.000,60.000,-3.500
2.581,-5.000,1.500,60.500,-3.000
2.582,-3.500,1.500,60.500,-3.000
2.583,-3.000,2.000,60.500,-3.000
2.584,-2.500,1.500,60.500,-3.000
2.585,-3.500,1.500,60.000,-3.000
2.586,-4.500,1.000,60.000,-3.500
2.587,-5.500,0.500,59.500,-4.000
2.588,-6.500,0.000,59.500,-4.500
2.589,-7.500,0.000,59.000,-4.500
2.590,-8.000,-0.500,59.000,-5.000
2.591,-8.500,-0.500,58.500,-5.500
2.592,-9.000,-0.500,58.500,-5.500
2.593,-10.000,0.000,59.000,-5.000
2.594,-10.000,0.000,59.000,-4.500
2.595,-9.500,0.500,59.500,-4.000
2.596,-8.000,1.000,60.000,-3.500
2.597,-7.000,1.500,60.000,-3.000
2.598,-6.000,1.500,60.500,-2.500
2.599,-5.500,2.000,61.000,-2.000
2.600,-4.500,2.000,61.500,-1.500
2.601,-3.500,2.000,61.500,-1.500
2.602,-2.500,1.500,61.000,-1.000
2.603,-1.000,1.000,61.000,-1.500
2.604,0.500,0.500,60.500,-1.500
2.605,1.000,0.000,60.000,-2.000
2.606,0.500,-0.500,59.500,-2.500
2.607,-0.500,-1.000,59.000,-3.500
2.608,-1.000,-1.500,58.000,-4.000
2.609,-1.000,-2.000,57.500,-5.000
2.610,-1.500,-2.500,57.500,-5.500
2.611,-2.500,-3.000,57.000,-6.000
2.612,-3.500,-3.000,57.000,-6.500
2.613,-4.000,-3.000,57.000,-6.500
2.614,-4.500,-3.000,57.000,-6.500
2.615,-4.500,-3.000,57.000,-6.500
2.616,-3.500,-2.500,57.000,-6.500
2.617,-3.000,-2.500,57.500,-6.000
2.618,-2.000,-2.000,58.000,-5.500
2.619,-1.500,-1.500,58.500,-4.500
2.620,-2.000,-1.000,59.500,-4.000
2.621,-3.500,0.000,60.000,-3.000
2.622,-5.000,0.500,60.500,-2.000
2.623,-6.500,1.000,61.000,-1.500
2.624,-7.000,1.000,61.500,-1.000
2.625,-7.000,1.000,61.000,-1.500
2.626,-6.500,0.500,60.500,-2.000
2.627,-5.500,0.000,60.000,-2.500
2.628,-4.000,-0.500,59.500,-3.500
2.629,-1.500,-1.000,59.000,-4.000
2.630,1.000,-1.500,58.500,-5.000
2.631,3.500,-2.000,58.500,-5.500
2.632,5.000,-2.000,58.000,-6.000
2.633,5.000,-2.500,58.000,-6.500
2.634,3.500,-2.500,58.000,-7.000
2.635,2.000,-2.500,57.500,-7.000
2.636,1.000,-2.500,57.500,-6.500
2.637,1.500,-2.500,57.500,-6.500
2.638,2.500,-2.500,58.000,-6.000
2.639,3.500,-2.000,58.000,-6.000
2.640,5.000,-1.500,58.500,-5.500
2.641,6.500,-1.500,59.000,-5.000
2.642,7.000,-1.500,59.000,-5.000
2.643,6.500,-1.500,59.000,-4.500
2.644,5.500,-1.500,58.500,-4.500
2.645,4.500,-2.000,58.500,-4.500
2.646,4.000,-2.500,58.000,-5.000
2.647,4.000,-3.000,57.500,-5.500
2.648,4.500,-3.500,57.000,-5.500
2.649,5.000,-3.500,56.500,-6.000
2.650,5.500,-4.000,56.000,-6.500
2.651,5.000,-4.500,55.500,-7.000
2.652,5.000,-4.500,55.000,-7.500
2.653,5.000,-4.500,54.500,-7.500
2.654,5.000,-4.500,54.500,-7.500
2.655,5.000,-4.500,54.500,-7.500
2.656,4.500,-4.000,55.000,-6.500
2.657,3.500,-3.500,55.500,-6.000
2.658,1.500,-3.000,56.000,-5.500
2.659,-1.000,-3.000,56.000,-4.500
2.660,-3.500,-2.500,56.500,-4.000
2.661,-5.000,-2.500,56.500,-3.500
2.662,-5.500,-2.500,56.500,-3.000
2.663,-4.500,-2.500,57.000,-2.500
2.664,-2.000,-2.500,57.000,-2.000
2.665,0.500,-2.500,57.000,-2.000
2.666,3.000,-2.500,57.000,-2.000
2.667,3.000,-2.500,57.000,-2.000
2.668,1.500,-2.500,57.000,-2.500
2.669,-0.500,-2.500,57.000,-3.000
2.670,-1.000,-3.000,56.500,-3.500
2.671,0.000,-3.000,56.000,-3.500
2.672,0.500,-3.500,56.000,-4.000
2.673,0.000,-3.500,56.000,-4.000
2.674,-1.000,-3.500,56.000,-3.500
2.675,-2.000,-3.500,56.000,-3.000
2.676,-1.500,-3.000,56.500,-2.500
2.677,0.000,-2.500,57.000,-2.000
2.678,1.500,-2.500,57.500,-1.000
2.679,2.000,-2.000,58.000,-1.000
2.680,1.500,-2.000,58.000,-0.500
2.681,0.500,-2.000,58.000,-0.500
2.682,0.000,-2.000,58.000,-0.500
2.683,1.000,-2.000,58.000,-0.500
2.684,2.500,-2.000,58.000,-0.500
2.685,5.000,-2.000,57.500,0.000
2.686,7.500,-2.000,57.500,-0.500
2.687,9.000,-2.000,57.500,-0.500
2.688,9.500,-2.000,57.500,-1.000
2.689,8.500,-2.000,57.000,-1.500
2.690,7.500,-2.500,57.000,-1.500
2.691,6.500,-2.500,57.000,-2.000
2.692,6.500,-2.500,56.500,-2.500
2.693,7.500,-2.500,56.500,-3.000
2.694,8.500,-2.500,56.000,-3.000
2.695,9.500,-2.500,56.000,-3.000
2.696,9.500,-2.500,56.500,-2.500
2.697,8.500,-2.000,56.500,-2.500
2.698,6.000,-2.000,57.000,-2.500
2.699,4.000,-2.000,57.000,-2.000
2.700,2.000,-2.000,57.000,-2.000
2.701,1.000,-1.500,57.500,-2.000
2.702,1.000,-1.500,57.500,-2.000
2.703,0.500,-1.000,57.500,-2.000
2.704,1.000,-1.000,57.500,-2.000
2.705,2.000,-1.000,57.500,-2.000
2.706,4.000,-1.500,57.000,-3.000
2.707,6.500,-2.000,56.500,-3.500
2.708,9.500,-2.500,56.000,-4.000
2.709,12.500,-2.500,56.000,-4.500
2.710,15.000,-2.500,56.000,-4.500
2.711,16.500,-2.500,56.000,-4.500
2.712,16.000,-2.000,56.000,-4.500
2.713,14.500,-2.000,56.000,-5.000
2.714,12.500,-2.000,55.500,-5.000
2.715,10.000,-2.000,55.500,-5.000
2.716,8.500,-1.500,55.500,-5.000
2.717,9.000,-1.000,56.000,-4.500
2.718,10.500,-1.000,56.000,-4.500
2.719,12.000,-0.500,56.500,-4.000
2.720,12.000,0.000,56.500,-4.000
2.721,11.000,0.000,56.500,-4.000
2.722,9.000,0.000,56.500,-4.000
2.723,6.500,0.500,56.500,-3.500
2.724,4.000,0.500,56.500,-3.500
2.725,2.000,0.500,56.500,-3.500
2.726,0.500,0.500,56.500,-4.000
2.727,0.500,0.500,56.000,-4.000
2.728,2.500,0.000,56.000,-4.500
2.729,5.000,-0.500,55.500,-5.000
2.730,8.000,-1.000,55.000,-5.000
2.731,9.500,-1.000,55.000,-5.500
2.732,10.000,-1.500,54.500,-6.000
2.733,8.500,-1.500,54.500,-6.000
2.734,7.000,-1.500,54.000,-6.000
2.735,5.500,-1.500,54.000,-6.500
2.736,4.500,-1.500,54.000,-6.500
2.737,5.000,-1.500,54.000,-6.500
2.738,6.500,-1.000,54.000,-6.000
2.739,7.500,-1.000,54.000,-6.000
2.740,8.000,-0.500,54.500,-5.500
2.741,8.500,-0.500,55.000,-5.000
2.742,9.000,-0.500,55.000,-4.500
2.743,9.500,0.000,55.500,-4.500
2.744,9.000,0.000,55.500,-4.500
2.745,8.500,0.000,55.500,-4.500
2.746,8.000,0.500,56.000,-4.500
2.747,8.500,0.500,56.000,-4.000
2.748,9.500,1.000,56.500,-4.000
2.749,9.500,1.500,56.500,-4.000
2.750,8.500,2.000,56.500,-4.000
2.751,6.500,2.500,56.500,-4.000
2.752,3.500,2.500,56.000,-4.000
2.753,0.500,2.500,56.000,-4.000
2.754,-2.500,2.500,56.000,-4.000
2.755,-4.500,3.000,56.000,-4.000
2.756,-5.000,3.000,56.000,-4.000
2.757,-4.000,3.000,56.000,-3.500
2.758,-2.500,3.000,56.000,-3.000
2.759,-0.500,3.500,56.500,-3.000
2.760,1.000,3.500,57.000,-2.500
2.761,2.500,3.500,57.000,-2.500
2.762,4.000,3.500,57.000,-2.000
2.763,5.000,3.500,57.500,-2.500
2.764,6.000,3.500,57.500,-2.500
2.765,6.500,3.500,57.500,-2.500
2.766,6.500,3.500,57.000,-3.000
2.767,6.000,3.000,56.500,-3.500
2.768,4.500,2.500,56.000,-4.000
2.769,2.500,2.000,55.000,-5.000
2.770,1.500,2.000,54.500,-5.500
2.771,2.000,1.500,54.000,-5.500
2.772,4.500,1.500,54.000,-6.000
2.773,6.500,1.500,54.000,-6.000
2.774,7.500,1.500,54.500,-6.000
2.775,7.500,2.000,55.000,-5.500
2.776,6.500,2.500,55.500,-4.500
2.777,5.500,3.000,56.000,-4.000
2.778,4.000,3.500,56.500,-3.500
2.779,3.500,4.000,56.500,-3.000
2.780,3.500,4.500,57.000,-3.000
2.781,3.500,4.500,57.000,-3.000
2.782,3.000,4.000,57.000,-3.000
2.783,2.500,4.000,57.000,-3.000
2.784,1.000,4.000,57.000,-3.000
2.785,0.000,3.500,57.000,-3.000
2.786,-1.000,3.500,57.000,-3.500
2.787,-1.000,3.500,57.000,-3.500
2.788,-1.000,3.500,56.500,-4.000
2.789,-2.000,3.500,56.500,-4.500
2.790,-2.500,3.500,56.000,-5.000
2.791,-2.500,3.500,56.000,-5.000
2.792,-2.000,3.000,56.000,-5.500
2.793,-1.500,3.000,55.500,-5.500
2.794,-1.500,2.500,55.500,-5.500
2.795,-2.500,2.000,55.500,-5.500
2.796,-4.000,2.000,55.500,-5.500
2.797,-5.000,2.000,55.500,-5.500
2.798,-6.000,1.500,55.500,-5.500
2.799,-5.500,1.500,55.500,-5.000
2.800,-4.500,2.000,56.000,-4.500
2.801,-3.500,2.000,56.000,-4.000
2.802,-2.500,2.500,56.500,-3.500
2.803,-1.500,2.500,57.000,-3.000
2.804,-1.000,3.000,57.500,-2.500
2.805,-1.500,3.000,57.500,-2.500
2.806,-2.000,3.000,57.500,-2.500
2.807,-2.500,2.500,57.500,-3.000
2.808,-2.000,2.500,57.000,-3.500
2.809,-1.500,2.000,57.000,-4.000
2.810,-1.000,1.500,56.500,-4.500
2.811,-0.500,1.000,56.500,-4.500
2.812,0.000,0.500,56.000,-5.000
2.813,1.500,0.000,55.500,-5.000
2.814,3.000,-0.500,55.000,-5.500
2.815,4.000,-0.500,55.000,-5.500
2.816,4.000,-1.000,55.000,-5.500
2.817,3.500,-1.000,55.000,-5.500
2.818,3.500,-1.000,55.000,-5.000
2.819,2.500,-1.000,55.500,-4.500
2.820,0.500,-0.500,55.500,-4.000
2.821,-1.500,0.000,56.000,-3.500
2.822,-2.500,0.500,56.500,-2.500
2.823,-2.500,0.500,56.500,-2.500
2.824,-1.500,1.000,57.000,-2.000
2.825,0.000,1.000,57.000,-2.000
2.826,1.500,1.000,57.000,-2.000
2.827,2.000,0.500,57.000,-2.500
2.828,2.000,0.500,56.500,-2.500
2.829,1.000,0.500,56.500,-3.000
2.830,0.500,0.000,56.500,-3.000
2.831,0.000,-0.500,56.500,-3.000
2.832,-1.500,-0.500,56.500,-3.000
2.833,-3.500,0.000,56.500,-3.000
2.834,-5.500,0.500,56.500,-2.500
2.835,-6.000,1.000,56.500,-2.500
2.836,-5.000,1.500,57.000,-2.000
2.837,-3.500,2.000,57.000,-1.500
2.838,-3.000,2.000,57.500,-1.500
2.839,-3.000,2.500,58.000,-1.000
2.840,-4.000,2.500,58.000,-1.000
2.841,-5.000,2.500,58.000,-1.000
2.842,-6.000,2.500,58.000,-1.500
2.843,-5.500,2.000,57.500,-1.500
2.844,-4.500,2.000,57.500,-1.500
2.845,-2.500,1.500,57.000,-1.500
2.846,-0.500,1.500,56.500,-1.500
2.847,1.500,1.500,56.000,-1.500
2.848,2.000,1.500,56.000,-1.500
2.849,1.500,1.500,55.500,-2.000
2.850,0.500,1.500,55.000,-2.500
2.851,0.000,1.500,55.000,-3.000
2.852,0.500,1.500,54.500,-3.500
2.853,1.000,1.000,54.500,-4.000
2.854,1.000,1.000,54.500,-4.000
2.855,0.500,1.000,54.500,-4.000
2.856,0.000,1.000,54.500,-4.000
2.857,-0.500,1.500,55.000,-3.500
2.858,-0.500,2.000,55.500,-3.000
2.859,0.000,2.500,56.000,-3.000
2.860,0.500,3.000,56.000,-2.500
2.861,1.500,3.000,56.500,-2.000
2.862,2.500,3.500,57.000,-2.000
2.863,3.000,3.500,57.000,-2.000
2.864,3.000,3.500,57.000,-1.500
2.865,2.500,4.000,57.500,-1.500
2.866,2.000,4.000,57.500,-1.000
2.867,2.500,3.500,57.000,-1.000
2.868,2.000,3.500,57.000,-1.500
2.869,2.000,2.500,56.500,-2.000
2.870,2.000,2.000,56.500,-2.500
2.871,3.000,1.500,56.000,-3.000
2.872,4.500,1.000,55.500,-3.500
2.873,6.500,0.500,55.000,-4.000
2.874,8.500,0.500,55.000,-4.500
2.875,9.500,0.500,55.000,-4.500
2.876,8.500,0.500,55.000,-4.500
2.877,6.500,1.000,55.500,-4.500
2.878,4.000,1.500,56.000,-4.000
2.879,1.500,2.000,57.000,-3.000
2.880,-0.500,2.500,57.500,-2.500
2.881,-1.500,3.500,58.500,-2.000
2.882,-2.000,4.000,59.000,-1.500
2.883,-2.000,4.000,59.000,-1.000
2.884,-1.500,4.000,59.000,-1.000
2.885,-1.000,4.000,59.000,-1.000
2.886,-1.000,4.000,59.000,-1.500
2.887,-0.500,3.500,58.500,-2.000
2.888,0.500,3.000,58.000,-2.000
2.889,1.000,2.500,57.500,-2.500
2.890,2.000,2.000,56.500,-3.000
2.891,3.000,1.500,56.000,-3.500
2.892,4.000,1.500,55.500,-4.000
2.893,4.000,1.500,55.500,-4.000
2.894,2.500,1.500,55.500,-4.000
2.895,-0.500,1.500,56.000,-4.000
2.896,-3.000,2.000,56.500,-3.500
2.897,-4.000,2.500,57.000,-3.000
2.898,-4.000,3.000,57.500,-2.500
2.899,-4.000,3.500,58.000,-2.000
2.900,-3.500,4.000,58.500,-1.500
2.901,-3.000,4.000,58.500,-1.500
2.902,-3.000,4.000,58.500,-1.000
2.903,-2.000,3.500,58.500,-1.000
2.904,-1.000,3.500,58.500,-1.500
2.905,1.000,3.000,58.000,-1.500
2.906,2.500,3.000,58.000,-1.500
2.907,4.000,2.500,58.000,-2.000
2.908,4.500,2.500,57.500,-2.000
2.909,5.500,2.500,57.500,-2.500
2.910,6.500,2.000,57.500,-2.500
2.911,8.000,2.500,57.500,-3.000
2.912,9.500,2.500,57.500,-3.000
2.913,11.000,2.500,57.000,-3.000
2.914,12.000,2.500,57.000,-3.000
2.915,13.000,2.500,57.500,-3.000
2.916,13.000,2.500,57.500,-3.000
2.917,13.000,3.000,58.000,-2.500
2.918,12.500,3.000,58.000,-2.000
2.919,11.500,3.500,59.000,-1.500
2.920,10.000,4.000,59.500,-1.000
2.921,8.500,4.500,60.000,-0.500
2.922,8.000,5.000,60.000,-0.500
2.923,8.000,5.000,60.000,-0.500
2.924,8.500,4.500,59.500,-0.500
2.925,9.000,4.500,59.000,-0.500
2.926,8.500,4.000,59.000,-1.000
2.927,8.500,4.000,58.500,-1.500
2.928,9.000,3.500,58.000,-2.000
2.929,10.500,3.500,58.000,-3.000
2.930,13.500,3.000,57.500,-3.500
2.931,16.000,2.500,57.000,-3.500
2.932,17.500,2.500,56.500,-4.000
2.933,17.500,2.000,56.000,-4.500
2.934,16.500,1.500,56.000,-4.500
2.935,14.500,1.500,55.500,-4.500
2.936,13.000,1.500,55.500,-4.500
2.937,11.000,1.500,55.500,-4.500
2.938,10.000,1.000,55.000,-4.000
2.939,8.500,1.000,55.000,-4.000
2.940,7.500,0.500,54.500,-4.500
2.941,6.000,0.000,54.500,-4.500
2.942,4.000,-0.500,54.000,-4.500
2.943,1.500,-0.500,54.000,-4.500
2.944,0.000,-1.000,54.000,-4.500
2.945,0.500,-1.000,53.500,-4.500
2.946,2.000,-1.000,53.500,-4.500
2.947,3.500,-1.000,53.500,-4.500
2.948,4.000,-1.000,53.000,-4.500
2.949,3.500,-1.000,53.000,-5.000
2.950,2.500,-1.500,52.500,-5.000
2.951,2.000,-1.500,52.500,-5.500
2.952,2.000,-1.500,52.500,-6.000
2.953,3.000,-1.500,52.500,-6.000
2.954,4.000,-1.500,52.500,-6.000
2.955,4.500,-1.500,52.500,-6.000
2.956,3.500,-1.500,53.000,-6.000
2.957,1.500,-1.000,53.500,-5.500
2.958,0.500,-0.500,54.000,-4.500
2.959,1.000,0.000,54.500,-4.000
2.960,2.000,0.500,55.000,-3.500
2.961,2.500,1.000,55.500,-2.500
2.962,2.000,1.500,56.000,-2.000
2.963,1.500,1.500,56.500,-1.500
2.964,1.000,2.000,57.000,-1.000
2.965,0.500,2.500,57.500,-0.500
2.966,0.500,3.000,57.500,-0.500
2.967,1.000,3.000,57.500,-1.000
2.968,2.000,3.000,57.000,-1.000
2.969,3.000,2.500,56.500,-2.000
2.970,5.000,1.500,56.000,-2.500
2.971,6.000,0.500,55.000,-3.500
2.972,6.500,-0.500,54.000,-4.000
2.973,5.500,-1.500,53.500,-5.000
2.974,3.500,-2.000,52.500,-5.500
2.975,1.500,-2.500,52.000,-6.000
2.976,0.500,-2.500,52.000,-6.000
2.977,-0.500,-2.000,52.000,-5.500
2.978,-1.500,-1.000,53.000,-4.500
2.979,-2.500,0.500,54.500,-3.500
2.980,-2.500,1.500,55.500,-2.500
2.981,-2.000,2.500,57.000,-1.000
2.982,0.000,3.500,58.000,-0.500
2.983,2.000,4.000,58.500,0.500
2.984,3.000,4.500,59.000,0.500
2.985,3.500,5.000,59.500,0.500
2.986,3.500,5.000,59.500,0.500
2.987,3.000,5.000,59.000,0.000
2.988,1.500,5.000,59.000,0.000
2.989,0.000,4.500,58.500,-0.500
2.990,-1.500,4.500,58.500,-0.500
2.991,-2.000,4.500,58.500,-0.500
2.992,-1.500,4.500,58.500,-1.000
2.993,-1.000,4.500,58.500,-1.000
2.994,0.000,4.500,58.500,-1.500
2.995,1.500,4.000,58.000,-1.500
2.996,2.500,3.500,58.000,-1.500
2.997,3.000,3.500,57.500,-1.500
2.998,2.500,3.500,57.500,-1.500
2.999,2.000,4.000,57.500,-1.000
3.000,0.500,4.500,58.000,-0.500
3.001,-0.500,4.500,58.000,0.000
3.002,-1.000,5.000,58.500,0.500
3.003,-0.500,5.000,58.500,1.000
3.004,1.000,5.000,58.500,1.000
3.005,2.500,4.500,58.500,0.500
3.006,4.000,4.000,57.500,0.000
3.007,5.500,3.500,57.000,-0.500
3.008,6.000,2.500,56.500,-1.500
3.009,7.000,2.000,55.500,-2.000
3.010,7.500,1.500,55.000,-3.000
3.011,7.500,1.000,55.000,-3.500
3.012,7.500,1.000,54.500,-3.500
3.013,7.500,1.000,54.500,-3.000
3.014,7.500,1.000,54.500,-3.000
3.015,8.000,1.500,55.000,-3.000
3.016,9.000,1.500,55.000,-3.000
3.017,10.500,2.000,55.000,-3.000
3.018,12.000,2.500,55.500,-2.500
3.019,13.000,2.500,55.500,-2.000
3.020,14.000,3.000,56.000,-2.000
3.021,14.500,3.000,56.500,-1.500
3.022,15.000,3.000,56.500,-1.500
3.023,15.000,2.500,56.000,-1.500
3.024,14.000,2.000,56.000,-2.000
3.025,12.000,1.500,55.000,-2.500
3.026,10.000,1.000,54.500,-3.000
3.027,9.500,1.000,54.000,-3.500
3.028,10.000,0.500,53.500,-4.000
3.029,10.500,0.000,53.000,-4.500
3.030,10.500,-0.500,52.500,-5.500
3.031,11.000,-1.000,52.000,-6.000
3.032,12.500,-1.500,52.000,-6.000
3.033,14.000,-1.000,52.000,-6.000
3.034,16.000,-1.000,52.000,-6.000
3.035,16.000,-0.500,52.500,-5.500
3.036,13.000,0.500,53.500,-5.000
3.037,7.500,1.000,54.000,-4.000
3.038,1.000,1.500,54.500,-3.500
3.039,-4.500,2.000,54.500,-3.000
3.040,-7.500,1.500,54.500,-3.000
3.041,-8.000,1.000,54.000,-3.000
3.042,-7.000,0.500,53.500,-3.500
3.043,-5.500,-1.000,52.500,-5.000
3.044,-4.000,-3.000,50.500,-6.500
3.045,-3.000,-5.000,48.500,-8.500
3.046,-3.000,-7.500,46.000,-11.500
3.047,-3.000,-10.500,43.000,-14.500
3.048,-3.500,-13.500,40.000,-17.500
3.049,-3.000,-16.000,37.500,-20.000
3.050,-2.000,-18.500,35.000,-22.500
3.051,-1.000,-21.000,33.500,-24.000
3.052,0.000,-22.500,32.000,-25.000
3.053,-0.500,-24.000,31.500,-25.500
3.054,-1.500,-25.000,31.000,-25.000
3.055,-3.000,-25.000,31.500,-24.000
3.056,-3.500,-24.500,32.500,-22.000
3.057,-1.500,-23.500,34.500,-19.500
3.058,1.500,-21.000,37.500,-15.500
3.059,4.000,-18.000,41.500,-10.500
3.060,6.500,-14.500,46.500,-4.500
3.061,8.500,-10.000,52.000,2.000
3.062,10.000,-5.000,58.000,9.000
3.063,11.000,1.000,65.000,16.500
3.064,11.500,7.000,72.000,24.500
3.065,10.500,13.500,79.000,33.000
3.066,9.000,20.000,86.000,41.000
3.067,7.500,25.500,92.500,48.000
3.068,6.000,30.500,98.500,55.000
3.069,5.000,35.000,103.500,61.000
3.070,4.500,39.000,108.500,67.000
3.071,5.000,43.000,113.000,72.000
3.072,5.500,47.000,117.000,76.500
3.073,7.000,50.500,120.500,80.000
3.074,8.000,54.000,123.500,82.500
3.075,7.000,57.500,126.000,84.000
3.076,4.000,60.500,127.500,84.500
3.077,1.000,63.500,129.000,83.500
3.078,-1.000,66.000,130.000,82.500
3.079,-3.000,68.000,130.000,81.000
3.080,-4.000,69.500,130.000,79.500
3.081,-4.000,70.000,129.000,77.000
3.082,-4.000,69.500,127.000,74.000
3.083,-3.500,68.000,124.500,70.500
3.084,-3.500,65.500,121.500,66.500
3.085,-3.000,62.000,117.500,62.000
3.086,-2.500,57.500,113.000,57.000
3.087,-2.000,52.500,108.000,52.000
3.088,-1.000,47.500,103.000,46.500
3.089,-0.500,42.000,97.500,41.000
3.090,0.500,37.000,92.000,35.500
3.091,1.500,31.500,87.000,30.000
3.092,3.000,26.500,82.000,25.000
3.093,4.500,22.000,77.500,20.500
3.094,6.000,18.000,73.500,16.000
3.095,7.000,14.500,70.000,12.500
3.096,7.000,11.500,67.000,9.500
3.097,6.000,9.500,64.500,7.000
3.098,5.000,7.500,62.500,5.000
3.099,3.500,6.000,61.500,3.500
3.100,1.500,4.500,60.500,2.500
3.101,-0.500,3.500,59.500,1.500
3.102,-1.000,3.000,59.000,1.000
3.103,0.500,2.500,58.500,0.500
3.104,2.000,2.000,58.000,0.500
3.105,2.500,1.500,58.000,0.000
3.106,2.000,1.500,57.500,-0.500
3.107,-0.500,1.000,57.500,-0.500
3.108,-2.500,1.000,57.000,-1.000
3.109,-4.500,1.000,56.500,-2.000
3.110,-5.000,0.500,56.000,-2.500
3.111,-4.000,0.500,55.500,-3.000
3.112,-2.500,0.000,55.500,-3.500
3.113,-1.000,0.000,55.000,-3.500
3.114,0.000,0.000,55.000,-3.500
3.115,-0.500,0.500,55.000,-3.500
3.116,-1.500,1.000,55.500,-3.000
3.117,-3.500,1.500,56.000,-2.500
3.118,-5.000,2.000,56.500,-1.500
3.119,-6.000,2.500,57.000,-1.000
3.120,-6.000,3.000,57.000,-1.000
3.121,-5.500,3.000,57.500,-0.500
3.122,-5.000,3.000,57.500,-1.000
3.123,-5.500,2.500,57.000,-1.000
3.124,-7.500,2.000,57.000,-1.500
3.125,-9.500,1.500,56.500,-2.000
3.126,-11.500,1.000,56.000,-2.500
3.127,-12.500,0.500,55.500,-3.000
3.128,-12.500,0.000,55.000,-4.000
3.129,-11.500,-1.000,54.500,-4.500
3.130,-10.000,-1.500,54.000,-4.500
3.131,-8.500,-2.000,53.500,-5.000
3.132,-7.000,-2.000,53.000,-5.500
3.133,-6.000,-2.500,52.500,-5.500
3.134,-5.500,-2.500,52.500,-5.500
3.135,-6.500,-2.500,52.500,-5.000
3.136,-8.000,-2.500,53.000,-5.000
3.137,-9.500,-2.000,53.000,-4.500
3.138,-10.500,-1.500,53.500,-4.000
3.139,-10.500,-1.000,54.000,-4.000
3.140,-9.000,-0.500,54.000,-3.500
3.141,-5.500,-0.500,54.500,-3.500
3.142,-1.500,-0.500,54.500,-3.000
3.143,3.000,-1.000,54.500,-3.000
3.144,5.500,-1.000,54.000,-3.500
3.145,6.000,-1.500,54.000,-3.500
3.146,5.000,-1.500,53.500,-4.000
3.147,3.500,-2.000,53.000,-4.000
3.148,2.000,-2.500,52.500,-4.500
3.149,0.000,-2.500,52.500,-5.000
3.150,-1.500,-2.500,52.500,-5.500
3.151,-2.000,-2.500,52.000,-5.500
3.152,-1.500,-2.500,52.000,-6.000
3.153,0.500,-2.500,52.000,-6.000
3.154,2.000,-2.000,52.500,-6.000
3.155,3.000,-2.000,52.500,-5.500
3.156,4.000,-2.000,52.500,-5.500
3.157,4.000,-1.500,53.000,-5.000
3.158,4.000,-1.000,53.000,-4.500
3.159,3.000,-1.000,53.500,-4.000
3.160,2.000,-1.000,54.000,-3.500
3.161,0.000,-0.500,54.500,-3.000
3.162,-2.000,-0.500,55.000,-2.500
3.163,-2.500,0.000,55.500,-2.000
3.164,-3.000,0.500,56.000,-1.500
3.165,-2.500,0.500,56.000,-1.500
3.166,-2.000,0.500,56.000,-2.000
3.167,-1.500,0.000,55.500,-2.500
3.168,-1.500,-0.500,55.000,-3.000
3.169,-1.500,-1.000,54.000,-4.000
3.170,-2.500,-2.000,53.500,-5.000
3.171,-2.500,-2.500,52.500,-6.000
3.172,-2.500,-3.500,52.000,-7.000
3.173,-2.500,-4.000,51.500,-7.500
3.174,-3.500,-4.500,51.000,-8.000
3.175,-6.000,-4.500,51.000,-8.000
3.176,-7.500,-4.000,51.500,-7.500
3.177,-8.500,-4.000,52.000,-7.000
3.178,-8.000,-3.500,52.500,-6.500
3.179,-6.500,-3.500,53.000,-6.000
3.180,-5.000,-3.000,53.500,-5.500
3.181,-4.500,-3.000,53.500,-5.000
3.182,-4.500,-2.500,54.000,-4.500
3.183,-4.000,-2.500,54.000,-4.000
3.184,-3.500,-2.500,54.500,-4.000
3.185,-2.500,-2.500,54.000,-4.000
3.186,-2.500,-2.500,54.000,-4.000
3.187,-3.000,-3.000,53.500,-4.500
3.188,-4.000,-3.500,53.500,-5.000
3.189,-4.000,-3.500,53.000,-5.500
3.190,-4.500,-4.000,53.000,-5.500
3.191,-5.500,-4.000,52.500,-6.000
3.192,-7.500,-4.000,52.500,-6.000
3.193,-10.000,-4.500,52.000,-6.500
3.194,-12.500,-4.500,52.000,-6.500
3.195,-13.000,-4.500,52.000,-6.500
3.196,-12.500,-4.500,52.500,-6.000
3.197,-10.500,-4.000,52.500,-5.500
3.198,-8.000,-3.500,53.000,-5.000
3.199,-5.500,-3.500,53.500,-4.500
3.200,-4.000,-3.000,54.000,-4.500
3.201,-4.000,-2.500,54.000,-4.500
3.202,-5.000,-2.500,54.000,-4.500
3.203,-5.000,-3.000,54.000,-4.500
3.204,-5.000,-3.000,54.000,-4.500
3.205,-4.500,-3.500,53.500,-5.000
3.206,-3.500,-3.500,53.500,-5.000
3.207,-2.500,-4.000,53.000,-5.500
3.208,-2.000,-4.500,53.000,-5.500
3.209,-1.500,-4.500,52.500,-6.000
3.210,-1.500,-5.000,52.000,-6.500
3.211,-0.500,-5.500,52.000,-6.500
3.212,1.500,-5.500,51.500,-6.500
3.213,4.500,-5.500,51.500,-6.500
3.214,8.000,-6.000,51.000,-7.000
3.215,10.500,-5.500,51.000,-7.000
3.216,11.500,-5.500,51.000,-7.000
3.217,10.000,-5.500,51.500,-6.500
3.218,8.000,-5.500,51.500,-6.500
3.219,6.000,-5.000,52.000,-5.500
3.220,4.500,-5.000,52.500,-5.000
3.221,3.500,-4.500,52.500,-4.500
3.222,2.500,-4.500,53.000,-3.500
3.223,1.500,-4.500,53.500,-3.000
3.224,1.000,-4.500,53.500,-3.000
3.225,1.000,-4.500,54.000,-3.000
3.226,1.000,-4.500,54.000,-3.500
3.227,0.500,-5.000,53.500,-4.000
3.228,-0.500,-5.500,53.500,-4.500
3.229,-1.500,-6.500,53.000,-5.000
3.230,-2.500,-7.000,53.000,-5.500
3.231,-3.500,-7.000,53.000,-5.500
3.232,-3.500,-7.000,53.000,-5.500
3.233,-4.000,-7.000,53.000,-5.500
3.234,-4.000,-6.500,53.000,-5.500
3.235,-4.000,-6.500,53.500,-5.000
3.236,-5.000,-6.500,53.500,-4.500
3.237,-6.500,-6.500,53.500,-4.000
3.238,-8.500,-6.000,54.000,-3.500
3.239,-10.000,-5.500,54.500,-3.000
3.240,-11.000,-5.500,54.500,-2.500
3.241,-11.000,-5.000,55.000,-2.000
3.242,-10.000,-5.000,55.000,-2.000
3.243,-8.000,-5.500,55.000,-2.000
3.244,-6.500,-5.500,55.000,-2.000
3.245,-5.000,-5.500,55.000,-2.000
3.246,-4.000,-5.500,55.000,-2.500
3.247,-2.500,-6.000,54.500,-3.000
3.248,-1.000,-6.500,54.000,-3.500
3.249,0.000,-7.000,53.500,-4.000
3.250,1.000,-7.500,53.000,-4.500
3.251,1.500,-7.500,52.500,-5.000
3.252,2.500,-8.000,52.000,-5.000
3.253,3.500,-8.000,52.000,-5.000
3.254,3.500,-8.000,52.000,-4.500
3.255,3.500,-8.000,52.500,-4.000
3.256,4.000,-7.500,53.000,-3.500
3.257,4.000,-6.500,54.000,-3.000
3.258,3.500,-5.500,54.500,-2.000
3.259,3.500,-5.000,55.500,-1.500
3.260,3.500,-4.000,56.000,-0.500
3.261,4.500,-3.500,56.500,0.000
3.262,5.000,-3.000,57.000,1.000
3.263,5.000,-3.000,57.500,1.500
3.264,4.500,-2.500,58.000,2.000
3.265,4.500,-2.500,58.000,2.000
3.266,4.000,-2.500,58.000,2.000
3.267,3.500,-3.000,57.500,2.000
3.268,2.000,-3.000,57.500,1.500
3.269,1.000,-3.000,57.000,1.000
3.270,1.000,-3.500,56.500,0.500
3.271,2.000,-4.000,55.500,-0.500
3.272,3.500,-4.500,55.000,-1.000
3.273,5.500,-5.000,54.500,-1.500
3.274,6.500,-5.500,54.500,-1.500
3.275,6.500,-5.500,54.500,-1.500
3.276,7.000,-5.000,55.000,-1.000
3.277,7.000,-5.000,55.500,-0.500
3.278,7.000,-4.000,56.000,0.500
3.279,7.000,-4.000,56.500,1.000
3.280,7.500,-3.500,57.000,1.500
3.281,7.500,-3.000,57.500,2.500
3.282,7.000,-3.000,58.000,2.500
3.283,7.000,-3.000,58.000,3.000
3.284,7.000,-3.000,58.500,3.000
3.285,7.500,-3.000,58.000,3.000
3.286,7.500,-3.000,58.000,3.000
3.287,7.000,-3.500,58.000,2.500
3.288,6.500,-3.500,57.500,2.500
3.289,5.500,-3.500,57.500,2.500
3.290,4.500,-3.500,57.000,2.500
3.291,3.500,-3.500,57.000,2.000
3.292,3.500,-4.000,57.000,2.000
3.293,4.000,-4.000,56.500,2.000
3.294,5.500,-4.500,56.500,2.000
3.295,6.000,-4.500,56.500,2.000
3.296,5.500,-4.000,57.000,2.500
3.297,3.500,-3.500,57.500,3.000
3.298,1.000,-3.000,58.000,4.000
3.299,-1.500,-2.000,58.500,4.500
3.300,-3.500,-1.500,59.000,5.500
3.301,-6.500,-1.000,59.500,6.000
3.302,-10.000,-1.000,60.000,6.500
3.303,-14.000,-0.500,60.500,7.000
3.304,-17.000,-0.500,60.500,7.000
3.305,-18.000,-0.500,60.500,6.500
3.306,-18.000,-1.000,60.500,6.500
3.307,-17.500,-1.000,60.000,6.000
3.308,-17.000,-1.500,59.500,5.000
3.309,-16.500,-1.500,59.000,4.500
3.310,-15.000,-2.000,58.500,4.000
3.311,-13.000,-2.500,58.000,3.000
3.312,-10.000,-3.000,57.000,2.500
3.313,-7.500,-3.500,56.500,2.000
3.314,-4.500,-3.500,56.500,2.000
3.315,-2.000,-3.500,56.000,2.000
3.316,1.000,-3.500,56.000,2.000
3.317,2.500,-3.000,56.000,2.000
3.318,3.000,-3.000,56.500,2.500
3.319,3.500,-3.000,56.500,2.500
3.320,4.500,-2.500,56.500,2.500
3.321,6.000,-2.500,56.500,3.000
3.322,7.500,-2.500,57.000,3.500
3.323,8.000,-2.000,57.500,3.500
3.324,8.500,-2.000,57.500,4.000
3.325,8.500,-2.000,57.500,4.000
3.326,8.500,-2.000,57.500,3.500
3.327,7.500,-2.500,57.000,3.000
3.328,6.000,-2.500,56.500,3.000
3.329,3.500,-3.000,56.000,2.500
3.330,0.500,-3.500,56.000,2.000
3.331,-2.500,-3.500,55.500,1.500
3.332,-5.000,-3.500,55.500,1.000
3.333,-6.500,-3.000,55.500,1.000
3.334,-7.500,-2.500,55.500,1.500
3.335,-8.000,-2.000,56.000,1.500
3.336,-8.500,-1.500,56.500,2.000
3.337,-8.000,-1.000,57.000,2.500
3.338,-7.000,0.000,57.500,3.000
3.339,-5.000,0.500,58.500,3.500
3.340,-2.500,1.500,59.500,4.500
3.341,-0.500,2.000,60.000,5.000
3.342,1.000,2.500,61.000,6.000
3.343,0.500,3.000,61.000,6.500
3.344,-0.500,3.000,61.000,6.500
3.345,-2.000,2.500,61.000,6.500
3.346,-3.500,2.500,60.500,6.500
3.347,-4.500,2.000,60.000,6.000
3.348,-4.500,1.500,59.500,5.500
3.349,-4.500,1.000,59.000,5.000
3.350,-4.500,1.000,58.500,4.500
3.351,-5.000,0.500,58.000,4.000
3.352,-5.000,0.500,57.500,4.000
3.353,-5.000,0.500,57.000,3.500
3.354,-5.000,0.000,57.000,3.000
3.355,-4.500,0.000,57.000,3.000
3.356,-3.000,0.000,57.000,2.500
3.357,-1.000,0.500,57.500,3.000
3.358,1.000,0.500,57.500,3.000
3.359,2.000,1.000,58.000,3.500
3.360,2.000,1.000,58.500,4.000
3.361,1.500,1.500,58.500,4.500
3.362,1.500,1.500,59.000,4.500
3.363,1.000,2.000,59.000,5.000
3.364,-0.500,2.000,59.000,5.000
3.365,-2.500,2.000,59.000,5.000
3.366,-4.500,2.000,59.000,4.500
3.367,-5.500,2.000,59.000,4.500
3.368,-6.500,1.500,58.500,4.000
3.369,-6.000,1.500,58.500,3.500
3.370,-5.500,1.500,58.500,3.000
3.371,-4.500,1.000,58.000,3.000
3.372,-2.000,1.500,58.000,2.500
3.373,0.000,1.500,58.000,2.500
3.374,2.000,2.000,58.000,2.500
3.375,3.000,2.000,58.000,3.000
3.376,3.500,2.000,58.500,3.000
3.377,3.500,2.000,58.500,3.500
3.378,4.000,2.500,58.500,4.000
3.379,5.000,2.500,59.000,4.500
3.380,5.500,2.500,59.000,5.000
3.381,6.500,3.000,59.000,5.000
3.382,7.000,3.000,59.500,5.000
3.383,7.500,3.000,59.500,5.000
3.384,8.000,3.500,60.000,5.000
3.385,8.500,3.500,60.500,5.500
3.386,7.500,3.500,60.500,5.500
3.387,6.000,4.000,60.500,5.000
3.388,4.500,4.000,60.500,4.500
3.389,4.000,4.000,60.500,4.000
3.390,5.000,4.000,60.000,3.500
3.391,7.500,3.500,59.500,3.000
3.392,9.500,3.000,59.000,2.000
3.393,11.000,2.500,58.500,1.500
3.394,11.500,2.000,58.000,1.000
3.395,10.500,1.500,58.000,0.500
3.396,9.000,1.000,57.500,0.000
3.397,7.000,1.000,57.000,0.000
3.398,6.500,0.500,57.000,0.000
3.399,7.500,0.500,56.500,0.500
3.400,9.500,0.000,56.500,0.500
3.401,11.000,-0.500,56.000,0.500
3.402,12.000,-1.000,56.000,1.000
3.403,12.000,-0.500,56.500,1.000
3.404,11.500,-0.500,57.000,1.500
3.405,11.000,0.500,57.500,2.000
3.406,10.000,1.500,58.000,3.000
3.407,9.000,2.500,59.000,4.000
3.408,7.500,3.500,60.000,5.000
3.409,6.500,4.500,61.000,6.000
3.410,5.500,5.500,62.000,6.500
3.411,4.500,6.500,62.500,7.000
3.412,3.500,7.000,63.000,7.500
3.413,1.500,7.500,63.000,8.000
3.414,-1.000,7.500,63.500,8.000
3.415,-3.000,7.500,63.500,8.000
3.416,-4.000,7.000,63.500,8.000
3.417,-3.500,7.000,63.500,8.000
3.418,-3.000,7.000,63.500,8.000
3.419,-3.000,7.000,63.500,8.000
3.420,-3.500,6.500,63.000,8.000
3.421,-4.000,6.500,63.000,8.500
3.422,-4.000,6.000,63.000,8.000
3.423,-2.500,5.500,62.500,8.000
3.424,-0.500,5.500,62.000,7.500
3.425,1.500,5.000,61.500,7.000
3.426,2.500,4.500,61.000,6.500
3.427,3.500,3.500,60.500,5.500
3.428,3.500,3.000,60.000,5.000
3.429,4.000,2.500,59.500,4.500
3.430,4.500,2.500,59.000,4.500
3.431,4.500,2.500,59.000,4.000
3.432,3.500,2.500,59.500,4.000
3.433,2.500,2.500,59.500,4.000
3.434,2.000,2.500,59.500,4.000
3.435,2.000,2.500,60.000,4.500
3.436,2.000,2.000,60.000,4.500
3.437,1.000,2.000,60.000,4.500
3.438,-0.500,2.500,60.000,5.000
3.439,-2.000,2.500,60.500,5.500
3.440,-3.500,2.500,61.000,5.500
3.441,-4.000,3.000,61.000,6.000
3.442,-4.000,3.000,61.500,6.500
3.443,-3.500,3.000,61.500,6.500
3.444,-3.000,3.500,62.000,6.500
3.445,-3.000,3.500,62.000,6.500
3.446,-2.500,3.500,62.000,6.500
3.447,-2.000,3.500,62.000,6.500
3.448,-0.500,3.500,62.000,6.000
3.449,1.500,3.500,62.000,6.000
3.450,2.500,3.500,62.000,6.000
3.451,2.500,3.500,62.000,5.500
3.452,2.500,3.500,62.000,5.500
3.453,2.000,3.500,61.500,5.000
3.454,3.000,3.000,61.500,5.000
3.455,5.000,3.000,61.500,5.000
3.456,7.500,3.000,61.500,5.000
3.457,9.500,3.000,61.500,5.000
3.458,11.000,3.000,61.500,5.500
3.459,12.500,3.000,62.000,6.000
3.460,14.500,3.500,62.000,6.500
3.461,16.000,4.000,62.500,7.500
3.462,17.500,4.000,63.000,8.000
3.463,17.500,4.500,63.500,8.500
3.464,17.000,4.500,64.000,9.000
3.465,17.000,5.000,64.000,9.000
3.466,17.000,5.000,64.000,9.000
3.467,17.000,5.000,64.000,9.000
3.468,17.500,4.500,64.000,9.000
3.469,18.000,4.500,64.000,8.500
3.470,18.000,4.500,63.500,8.000
3.471,17.000,4.000,63.500,7.500
3.472,15.500,4.000,63.500,7.500
3.473,14.500,4.500,63.000,7.500
3.474,14.500,4.500,63.000,7.500
3.475,15.500,5.000,63.500,8.000
3.476,17.000,5.000,63.500,8.000
3.477,18.500,5.500,63.500,8.500
3.478,18.500,5.500,64.000,9.000
3.479,18.000,6.000,64.500,9.500
3.480,17.000,6.500,65.000,9.500
3.481,16.000,6.500,65.000,10.000
3.482,16.000,7.000,65.500,10.000
3.483,16.500,7.000,66.000,10.500
3.484,17.000,7.000,66.000,10.500
3.485,17.500,7.000,66.000,10.500
3.486,18.500,7.000,66.000,10.500
3.487,20.000,7.000,66.000,10.500
3.488,21.500,6.500,65.500,10.000
3.489,22.500,6.000,65.000,9.500
3.490,23.000,5.500,65.000,9.000
3.491,23.000,5.000,65.000,8.500
3.492,23.000,5.000,64.500,8.000
3.493,23.000,5.000,64.500,7.500
3.494,22.500,5.000,64.500,7.500
3.495,23.000,5.500,64.500,7.500
3.496,23.000,5.500,65.000,8.000
3.497,23.000,6.000,65.500,8.000
3.498,23.000,6.500,66.000,8.500
3.499,23.000,7.000,66.500,9.000
3.500,23.000,7.500,67.000,9.500
3.501,23.000,7.500,67.000,9.500
3.502,23.500,7.500,67.500,9.500
3.503,24.000,7.500,67.500,9.500
3.504,24.000,7.500,67.500,9.500
3.505,23.500,7.500,67.500,9.500
3.506,22.500,7.000,67.000,9.000
3.507,21.000,7.000,67.000,8.500
3.508,19.500,6.500,67.000,8.000
3.509,18.500,6.000,67.000,8.000
3.510,17.500,6.000,67.000,8.000
3.511,17.500,6.000,67.000,8.000
3.512,17.500,6.000,67.500,8.000
3.513,18.000,6.500,67.500,8.000
3.514,17.500,6.500,68.000,8.000
3.515,17.000,7.000,68.000,8.500
3.516,17.500,7.500,68.000,8.500
3.517,19.500,8.000,68.500,9.000
3.518,23.000,8.000,68.500,9.500
3.519,26.500,8.500,69.000,10.000
3.520,29.500,8.500,69.000,10.500
3.521,29.500,9.000,69.000,11.000
3.522,27.500,9.000,69.000,11.500
3.523,25.500,9.000,69.000,11.500
3.524,23.000,9.000,69.000,11.500
3.525,21.500,8.500,69.000,11.500
3.526,20.000,8.500,68.500,11.000
3.527,18.500,8.500,68.500,10.000
3.528,17.500,8.000,68.000,9.500
3.529,16.500,7.500,67.500,9.000
3.530,16.000,7.000,67.500,8.500
3.531,16.500,7.000,67.000,8.000
3.532,18.000,6.500,66.500,8.000
3.533,20.500,6.500,66.500,8.000
3.534,23.500,6.500,66.000,8.000
3.535,25.500,6.500,66.000,8.000
3.536,26.000,6.500,66.000,8.000
3.537,25.000,7.000,66.000,8.000
3.538,23.500,7.000,66.500,8.000
3.539,22.000,7.500,67.000,8.000
3.540,21.500,8.000,67.000,8.500
3.541,21.500,8.000,67.500,8.500
3.542,20.500,8.000,68.000,9.000
3.543,19.500,8.000,68.000,9.000
3.544,18.000,8.000,67.500,9.000
