'Elapsed time','AECG1','AECG2','AECG3','AECG4'
'seconds','uV','uV','uV','uV'
0.000,-46.000,-6.000,791.500,-10.000
0.001,-46.500,-6.000,791.000,-10.000
0.002,-46.500,-6.000,790.500,-10.000
0.003,-47.000,-6.000,790.000,-10.500
0.004,-47.000,-6.000,790.000,-10.500
0.005,-47.000,-6.500,789.500,-10.500
0.006,-47.000,-6.500,788.500,-11.000
0.007,-47.000,-7.000,788.000,-11.500
0.008,-47.000,-7.000,787.000,-11.500
0.009,-47.000,-7.500,786.500,-12.000
0.010,-46.500,-7.500,786.000,-12.000
0.011,-46.500,-7.500,785.500,-12.500
0.012,-46.500,-8.000,785.500,-12.500
0.013,-46.500,-8.000,785.500,-12.500
0.014,-46.500,-8.000,785.000,-12.500
0.015,-46.500,-7.500,785.500,-12.500
0.016,-46.500,-7.500,785.500,-12.000
0.017,-46.500,-7.000,786.000,-11.000
0.018,-46.500,-6.500,787.000,-10.500
0.019,-47.000,-6.000,787.500,-9.500
0.020,-47.000,-5.500,788.000,-9.000
0.021,-47.500,-5.000,788.500,-8.500
0.022,-47.500,-5.000,788.500,-8.000
0.023,-47.500,-5.000,788.500,-7.500
0.024,-47.500,-5.000,788.000,-7.500
0.025,-47.000,-5.000,787.500,-8.000
0.026,-47.000,-5.000,787.000,-8.000
0.027,-47.000,-5.500,787.000,-8.000
0.028,-47.000,-5.500,787.000,-8.000
0.029,-46.500,-5.500,787.000,-8.500
0.030,-46.500,-5.500,786.500,-8.500
0.031,-46.500,-5.500,786.000,-9.000
0.032,-46.500,-6.000,785.500,-9.000
0.033,-46.500,-6.000,784.500,-9.500
0.034,-46.500,-6.500,784.000,-10.000
0.035,-46.500,-6.500,783.500,-10.500
0.036,-46.500,-6.500,783.000,-10.500
0.037,-46.500,-6.000,783.500,-10.000
0.038,-46.500,-6.000,784.000,-9.000
0.039,-47.000,-5.500,784.500,-8.500
0.040,-47.000,-5.000,784.500,-7.500
0.041,-47.000,-5.000,784.500,-7.500
0.042,-47.000,-5.000,784.000,-7.500
0.043,-47.000,-5.000,783.000,-8.000
0.044,-47.000,-5.000,782.000,-8.500
0.045,-46.500,-5.500,781.000,-9.000
0.046,-46.500,-6.000,780.000,-10.000
0.047,-46.500,-6.500,779.000,-11.000
0.048,-46.500,-7.000,778.000,-11.500
0.049,-46.500,-7.500,777.500,-12.000
0.050,-46.500,-8.000,777.500,-12.000
0.051,-46.500,-8.000,777.000,-12.500
0.052,-46.500,-8.000,777.000,-12.500
0.053,-46.500,-8.000,777.500,-12.000
0.054,-47.000,-8.000,778.000,-11.500
0.055,-47.000,-7.500,778.500,-11.000
0.056,-47.500,-7.000,779.500,-10.000
0.057,-48.000,-7.000,780.000,-9.000
0.058,-48.500,-6.500,781.000,-8.500
0.059,-48.500,-6.000,781.500,-8.000
0.060,-48.500,-5.500,781.500,-7.500
0.061,-48.500,-5.500,781.500,-7.000
0.062,-48.500,-5.500,781.500,-7.000
0.063,-48.500,-5.500,781.500,-7.000
0.064,-49.000,-6.000,781.000,-7.000
0.065,-49.000,-6.500,780.500,-7.500
0.066,-49.000,-7.000,780.000,-8.000
0.067,-48.500,-7.500,779.000,-9.000
0.068,-48.500,-8.000,778.000,-9.500
0.069,-48.500,-8.500,776.500,-10.500
0.070,-48.000,-9.000,775.000,-12.000
0.071,-48.000,-9.500,773.500,-13.000
0.072,-48.000,-10.000,772.000,-14.000
0.073,-48.000,-10.500,771.000,-15.000
0.074,-48.000,-10.500,770.500,-15.000
0.075,-48.500,-10.500,770.500,-15.000
0.076,-48.500,-10.000,771.000,-14.500
0.077,-49.000,-9.500,771.500,-13.500
0.078,-49.000,-9.000,772.000,-13.000
0.079,-49.000,-9.000,772.000,-13.000
0.080,-49.000,-8.500,772.000,-13.000
0.081,-49.000,-8.500,771.500,-12.500
0.082,-49.500,-8.500,772.000,-12.000
0.083,-49.500,-8.500,772.000,-12.000
0.084,-49.500,-8.500,772.000,-11.500
0.085,-49.500,-8.000,772.500,-11.500
0.086,-49.000,-8.500,772.000,-12.000
0.087,-49.000,-8.500,771.500,-12.000
0.088,-49.000,-9.000,771.000,-12.500
0.089,-49.000,-9.000,770.500,-13.000
0.090,-49.000,-9.000,770.000,-13.000
0.091,-49.000,-9.500,770.000,-13.500
0.092,-49.000,-9.500,769.500,-13.500
0.093,-49.000,-9.500,769.000,-13.500
0.094,-49.000,-10.000,768.500,-14.000
0.095,-49.000,-10.000,768.000,-14.000
0.096,-49.500,-10.500,767.500,-14.500
0.097,-50.000,-10.500,767.500,-14.000
0.098,-51.000,-10.500,768.000,-13.500
0.099,-51.500,-10.500,768.500,-12.500
0.100,-52.500,-10.500,769.500,-12.000
0.101,-53.500,-10.500,769.500,-11.500
0.102,-54.000,-10.500,769.500,-11.000
0.103,-54.000,-11.000,769.000,-11.500
0.104,-54.000,-11.500,768.500,-12.000
0.105,-54.000,-12.000,767.000,-12.500
0.106,-54.000,-12.500,766.000,-13.500
0.107,-54.000,-13.000,765.500,-14.000
0.108,-54.000,-13.000,765.000,-14.500
0.109,-53.500,-13.500,764.500,-14.500
0.110,-53.000,-13.500,764.500,-14.500
0.111,-52.500,-13.000,764.500,-15.000
0.112,-51.500,-13.000,764.000,-15.500
0.113,-50.500,-12.500,763.500,-16.000
0.114,-49.500,-12.500,763.000,-16.500
0.115,-49.000,-12.000,762.500,-16.000
0.116,-48.500,-11.000,763.000,-15.500
0.117,-48.500,-10.500,764.000,-15.000
0.118,-48.500,-10.000,764.000,-14.000
0.119,-48.500,-9.500,764.000,-14.000
0.120,-48.500,-9.500,764.000,-14.000
0.121,-48.500,-9.500,763.500,-14.000
0.122,-48.500,-9.500,763.000,-14.000
0.123,-48.500,-9.500,763.000,-14.000
0.124,-49.000,-9.500,763.500,-13.500
0.125,-49.000,-9.000,764.000,-13.000
0.126,-49.000,-9.000,764.000,-12.500
0.127,-49.000,-9.000,764.000,-12.500
0.128,-49.000,-9.500,763.500,-12.500
0.129,-49.000,-10.000,763.000,-13.000
0.130,-49.000,-10.000,762.500,-13.000
0.131,-49.000,-10.500,762.000,-13.500
0.132,-49.500,-11.000,762.000,-13.000
0.133,-49.500,-10.500,762.500,-12.500
0.134,-49.500,-10.500,762.500,-12.000
0.135,-49.500,-10.000,763.000,-11.500
0.136,-49.500,-9.500,763.500,-11.500
0.137,-49.500,-9.000,764.000,-11.000
0.138,-49.500,-9.000,764.000,-11.000
0.139,-50.000,-9.000,764.500,-11.000
0.140,-51.000,-9.000,764.000,-10.500
0.141,-51.500,-9.000,764.000,-10.500
0.142,-51.500,-9.500,763.500,-10.500
0.143,-51.500,-9.500,763.000,-11.000
0.144,-51.500,-10.000,762.000,-11.500
0.145,-51.500,-10.000,760.500,-12.000
0.146,-51.500,-10.500,759.500,-13.000
0.147,-51.500,-11.000,759.000,-13.500
0.148,-51.500,-11.000,759.000,-13.500
0.149,-51.500,-11.500,759.000,-13.500
0.150,-51.500,-11.500,759.000,-13.500
0.151,-51.500,-12.000,758.500,-14.000
0.152,-51.500,-12.500,758.000,-14.500
0.153,-51.500,-12.500,757.000,-15.000
0.154,-51.000,-13.000,755.500,-16.000
0.155,-51.000,-13.500,754.000,-17.000
0.156,-51.000,-14.000,753.000,-17.500
0.157,-51.000,-14.000,752.500,-18.000
0.158,-51.000,-13.500,752.500,-17.500
0.159,-51.500,-13.500,753.500,-17.000
0.160,-51.500,-12.500,754.500,-16.000
0.161,-52.000,-12.000,755.000,-15.000
0.162,-52.500,-12.000,755.500,-14.500
0.163,-52.500,-11.500,755.500,-14.000
0.164,-52.000,-11.500,755.000,-14.500
0.165,-52.000,-11.500,754.500,-15.000
0.166,-51.500,-12.000,753.500,-15.500
0.167,-51.500,-12.500,752.500,-15.500
0.168,-51.500,-12.500,752.000,-15.500
0.169,-51.500,-13.000,752.000,-15.500
0.170,-52.000,-13.500,752.500,-15.500
0.171,-52.000,-13.500,752.500,-15.500
0.172,-52.000,-13.500,752.500,-15.500
0.173,-52.000,-13.500,752.000,-16.000
0.174,-52.000,-14.000,752.000,-16.000
0.175,-52.500,-13.500,751.500,-16.000
0.176,-53.000,-13.500,752.000,-16.000
0.177,-53.500,-13.500,752.500,-15.500
0.178,-54.000,-13.000,753.000,-14.500
0.179,-54.500,-12.500,753.500,-14.000
0.180,-55.000,-12.500,754.500,-13.000
0.181,-55.000,-12.000,755.000,-12.000
0.182,-55.000,-11.500,755.000,-12.000
0.183,-55.000,-11.500,755.000,-12.000
0.184,-54.500,-11.500,754.500,-12.500
0.185,-53.500,-11.500,753.500,-13.000
0.186,-53.000,-11.500,753.500,-13.000
0.187,-52.500,-11.000,753.500,-13.000
0.188,-52.000,-10.500,753.500,-12.500
0.189,-52.000,-10.500,753.500,-12.500
0.190,-52.000,-11.000,753.500,-12.500
0.191,-51.500,-11.000,753.000,-12.500
0.192,-51.500,-11.500,753.000,-12.500
0.193,-51.000,-11.500,752.500,-13.000
0.194,-51.000,-11.500,751.500,-13.500
0.195,-51.000,-11.000,751.500,-13.500
0.196,-51.000,-11.000,751.000,-13.500
0.197,-51.500,-10.500,751.000,-13.500
0.198,-51.500,-10.500,750.000,-14.000
0.199,-51.500,-11.000,749.000,-15.000
0.200,-51.500,-11.000,748.500,-15.000
0.201,-52.000,-11.000,748.500,-15.000
0.202,-52.000,-10.500,749.000,-14.000
0.203,-52.500,-10.500,750.000,-13.000
0.204,-52.000,-10.500,750.500,-13.000
0.205,-52.000,-10.000,750.500,-12.500
0.206,-52.000,-10.000,750.000,-13.000
0.207,-51.500,-10.000,749.500,-13.000
0.208,-51.000,-10.000,749.500,-13.500
0.209,-51.000,-10.000,749.000,-13.500
0.210,-50.500,-10.500,748.500,-13.500
0.211,-50.500,-10.500,748.500,-14.000
0.212,-50.500,-10.500,748.000,-14.000
0.213,-50.500,-10.500,748.500,-14.000
0.214,-50.500,-10.500,748.500,-13.500
0.215,-50.500,-10.500,749.500,-13.000
0.216,-51.000,-10.000,750.000,-12.500
0.217,-51.500,-10.000,750.000,-12.000
0.218,-52.000,-9.500,750.500,-12.000
0.219,-52.000,-9.500,750.000,-12.000
0.220,-52.000,-9.000,750.000,-12.000
0.221,-52.000,-9.000,749.500,-12.500
0.222,-52.000,-9.000,749.500,-12.500
0.223,-52.000,-8.500,749.500,-12.000
0.224,-52.500,-8.500,750.000,-12.000
0.225,-52.500,-8.500,750.000,-12.000
0.226,-52.500,-9.000,749.500,-12.000
0.227,-52.000,-9.000,749.000,-12.500
0.228,-52.000,-9.000,748.500,-13.000
0.229,-51.500,-9.000,748.000,-13.000
0.230,-51.000,-9.000,747.500,-13.500
0.231,-51.000,-9.000,746.500,-14.000
0.232,-51.500,-9.500,746.000,-14.000
0.233,-51.500,-10.000,745.500,-14.500
0.234,-52.000,-10.500,745.000,-14.500
0.235,-52.000,-11.000,744.500,-15.000
0.236,-52.000,-11.000,743.500,-15.000
0.237,-52.000,-11.000,743.000,-15.500
0.238,-52.000,-10.500,742.500,-15.500
0.239,-52.000,-10.500,742.000,-15.500
0.240,-51.500,-10.000,741.500,-15.500
0.241,-51.500,-9.500,742.000,-15.000
0.242,-52.000,-9.500,742.500,-14.500
0.243,-52.000,-9.000,743.000,-14.000
0.244,-52.500,-9.000,743.500,-14.000
0.245,-52.500,-9.000,743.500,-14.000
0.246,-52.000,-9.500,742.500,-14.500
0.247,-52.000,-10.000,741.500,-15.500
0.248,-51.500,-10.500,740.500,-16.000
0.249,-51.000,-11.000,740.000,-16.500
0.250,-51.000,-11.000,740.000,-16.500
0.251,-51.000,-11.000,739.500,-17.000
0.252,-51.000,-11.500,739.500,-17.500
0.253,-51.000,-12.000,739.000,-17.500
0.254,-51.500,-12.000,738.500,-18.000
0.255,-52.000,-12.000,738.500,-17.500
0.256,-52.000,-11.500,738.500,-17.000
0.257,-52.000,-11.000,738.500,-16.500
0.258,-52.000,-11.000,738.500,-16.500
0.259,-51.500,-11.000,738.000,-17.000
0.260,-51.500,-10.500,738.000,-17.000
0.261,-52.000,-10.500,738.500,-16.500
0.262,-52.000,-10.000,739.000,-16.000
0.263,-52.000,-9.500,739.000,-16.000
0.264,-52.000,-9.500,739.000,-16.000
0.265,-52.000,-9.500,738.500,-16.000
0.266,-52.000,-10.000,738.000,-16.500
0.267,-52.500,-10.000,737.500,-17.000
0.268,-52.500,-11.000,737.000,-17.500
0.269,-53.000,-11.500,735.500,-18.500
0.270,-53.000,-13.000,734.000,-19.500
0.271,-53.500,-14.000,732.500,-21.000
0.272,-54.000,-15.000,731.500,-22.000
0.273,-54.500,-15.500,731.000,-22.500
0.274,-55.500,-15.500,731.000,-22.000
0.275,-56.000,-16.000,731.000,-22.000
0.276,-57.000,-16.000,730.500,-22.000
0.277,-57.500,-16.500,730.500,-22.000
0.278,-58.000,-16.000,731.000,-21.500
0.279,-58.500,-16.000,731.500,-20.500
0.280,-59.000,-15.500,732.500,-19.500
0.281,-58.500,-14.500,733.500,-18.000
0.282,-58.500,-14.000,734.500,-17.000
0.283,-58.000,-13.000,735.500,-16.000
0.284,-58.000,-12.500,736.000,-15.000
0.285,-57.500,-12.000,736.000,-14.500
0.286,-57.500,-12.000,736.500,-14.000
0.287,-57.000,-11.500,736.500,-13.500
0.288,-56.500,-11.500,736.500,-13.000
0.289,-56.000,-11.500,736.500,-12.500
0.290,-56.000,-11.500,736.500,-12.000
0.291,-55.500,-12.000,736.500,-12.000
0.292,-55.500,-12.000,736.000,-11.500
0.293,-55.000,-11.500,736.500,-10.500
0.294,-54.500,-11.000,737.000,-9.000
0.295,-54.000,-10.000,737.500,-8.000
0.296,-53.500,-9.000,738.500,-6.000
0.297,-53.000,-7.500,740.500,-4.000
0.298,-52.500,-6.000,743.000,-1.500
0.299,-51.500,-4.000,745.500,1.500
0.300,-50.000,-1.500,748.000,4.500
0.301,-48.500,1.000,751.000,7.500
0.302,-46.500,3.000,753.500,10.500
0.303,-45.000,5.000,755.000,13.000
0.304,-43.000,7.000,756.500,14.500
0.305,-42.000,8.000,757.500,15.500
0.306,-40.500,9.000,757.500,16.500
0.307,-39.000,9.500,758.000,17.000
0.308,-37.500,10.500,758.500,18.000
0.309,-36.500,11.500,760.000,19.000
0.310,-35.000,12.500,761.500,20.500
0.311,-33.500,13.500,762.500,22.000
0.312,-33.000,14.500,763.000,22.500
0.313,-32.000,15.000,763.500,22.000
0.314,-31.000,15.500,763.000,21.500
0.315,-30.500,16.000,762.500,20.500
0.316,-29.500,16.500,761.500,19.000
0.317,-28.500,16.500,761.000,18.500
0.318,-28.000,17.000,761.000,18.000
0.319,-27.500,17.500,761.000,17.500
0.320,-27.000,18.000,761.000,17.500
0.321,-26.000,18.500,760.500,17.000
0.322,-26.000,18.500,760.000,16.000
0.323,-25.500,18.500,759.000,15.000
0.324,-25.500,18.000,758.000,13.500
0.325,-25.500,17.500,756.500,12.500
0.326,-25.500,17.000,755.500,11.000
0.327,-26.000,16.000,754.000,9.500
0.328,-27.000,14.500,752.000,7.500
0.329,-27.500,13.000,750.000,5.500
0.330,-28.500,11.500,748.000,3.500
0.331,-30.000,10.000,746.500,2.000
0.332,-31.000,8.500,744.500,0.500
0.333,-32.000,7.000,743.000,-1.500
0.334,-33.500,5.500,741.000,-3.000
0.335,-34.500,4.500,739.500,-4.000
0.336,-36.000,3.500,738.500,-5.000
0.337,-37.500,3.000,738.000,-5.500
0.338,-39.000,1.500,736.500,-6.500
0.339,-40.000,0.500,735.000,-7.500
0.340,-41.000,-0.500,734.000,-8.500
0.341,-42.000,-1.500,733.000,-9.000
0.342,-43.000,-2.000,732.500,-9.500
0.343,-44.000,-2.500,732.000,-9.500
0.344,-45.500,-3.000,731.500,-9.500
0.345,-46.500,-3.500,731.500,-9.500
0.346,-47.000,-4.000,731.000,-9.500
0.347,-47.500,-5.000,730.000,-10.500
0.348,-48.000,-6.000,728.500,-11.500
0.349,-48.000,-7.000,727.500,-12.000
0.350,-48.500,-7.000,727.500,-12.500
0.351,-48.500,-7.500,727.500,-12.500
0.352,-48.500,-7.500,728.000,-12.500
0.353,-48.500,-7.500,728.000,-12.000
0.354,-49.000,-7.500,728.000,-12.000
0.355,-49.000,-7.500,728.000,-12.000
0.356,-48.500,-7.500,727.500,-12.500
0.357,-48.500,-7.000,727.000,-12.500
0.358,-48.500,-7.000,726.500,-13.000
0.359,-48.500,-7.000,726.000,-13.000
0.360,-48.500,-7.000,726.000,-12.500
0.361,-49.000,-7.000,726.000,-12.500
0.362,-49.500,-7.000,726.000,-12.500
0.363,-49.500,-7.000,725.500,-12.000
0.364,-50.000,-7.000,725.500,-12.000
0.365,-50.000,-7.500,724.500,-12.000
0.366,-50.000,-7.500,724.000,-12.500
0.367,-49.500,-8.000,723.500,-13.000
0.368,-49.500,-8.000,723.000,-13.500
0.369,-48.500,-8.000,722.500,-13.500
0.370,-48.000,-8.000,722.000,-14.000
0.371,-47.500,-8.000,722.000,-14.000
0.372,-47.500,-8.000,722.000,-14.000
0.373,-47.500,-8.500,722.000,-14.000
0.374,-47.500,-8.500,722.000,-14.000
0.375,-47.500,-8.500,722.000,-14.000
0.376,-48.000,-8.000,722.000,-13.500
0.377,-48.000,-7.500,722.000,-13.000
0.378,-48.000,-7.500,722.500,-12.500
0.379,-48.000,-7.000,722.500,-12.500
0.380,-48.000,-7.000,722.500,-12.000
0.381,-48.000,-6.500,722.500,-12.000
0.382,-48.000,-6.500,722.500,-12.000
0.383,-48.000,-6.500,722.500,-12.000
0.384,-48.000,-6.000,723.000,-11.500
0.385,-48.500,-6.000,722.500,-11.500
0.386,-48.500,-6.500,722.500,-11.500
0.387,-48.500,-6.500,721.500,-12.000
0.388,-48.000,-7.000,721.500,-12.000
0.389,-48.000,-7.500,721.000,-12.500
0.390,-48.000,-7.500,721.000,-12.500
0.391,-47.500,-7.500,721.000,-12.500
0.392,-47.500,-7.500,721.000,-12.000
0.393,-47.500,-7.500,721.000,-12.000
0.394,-48.000,-7.500,721.000,-11.500
0.395,-48.000,-7.000,721.000,-11.500
0.396,-48.000,-7.000,721.000,-11.500
0.397,-48.000,-6.500,720.500,-11.500
0.398,-48.500,-6.500,720.500,-11.500
0.399,-48.500,-6.000,720.500,-11.000
0.400,-48.500,-5.500,721.000,-10.500
0.401,-48.500,-5.500,721.500,-10.000
0.402,-48.500,-5.000,722.500,-9.000
0.403,-48.500,-5.000,722.500,-8.500
0.404,-48.500,-5.000,722.500,-8.000
0.405,-48.500,-5.000,722.500,-8.000
0.406,-48.500,-5.000,722.000,-8.500
0.407,-48.500,-5.500,722.000,-8.500
0.408,-48.500,-5.500,721.500,-8.500
0.409,-48.500,-5.500,721.500,-9.000
0.410,-48.000,-6.000,721.500,-9.500
0.411,-48.000,-6.500,721.000,-9.500
0.412,-48.000,-6.500,720.500,-10.000
0.413,-48.000,-7.000,720.000,-10.000
0.414,-48.000,-7.000,720.000,-10.000
0.415,-47.500,-7.000,720.000,-10.000
0.416,-47.500,-6.500,720.500,-9.500
0.417,-47.500,-6.000,720.500,-9.500
0.418,-48.000,-5.500,720.500,-9.000
0.419,-48.000,-5.500,720.500,-9.000
0.420,-48.000,-5.500,720.000,-9.500
0.421,-48.000,-5.500,719.500,-10.000
0.422,-48.000,-6.000,718.000,-11.000
0.423,-47.500,-6.500,716.500,-12.000
0.424,-47.000,-6.500,715.000,-13.000
0.425,-47.000,-6.500,714.500,-14.000
0.426,-47.000,-7.000,714.000,-14.500
0.427,-47.000,-7.500,713.500,-14.500
0.428,-47.000,-7.500,713.000,-15.000
0.429,-47.000,-8.000,713.000,-15.000
0.430,-47.000,-8.000,713.000,-15.000
0.431,-46.500,-8.000,713.000,-15.000
0.432,-46.500,-8.000,713.000,-14.500
0.433,-46.500,-7.500,714.000,-14.000
0.434,-46.500,-7.000,714.500,-13.000
0.435,-47.000,-6.500,715.000,-12.500
0.436,-47.000,-6.500,715.500,-12.000
0.437,-47.500,-6.500,715.500,-11.500
0.438,-48.000,-6.500,715.500,-11.000
0.439,-48.500,-6.500,715.500,-10.500
0.440,-48.500,-6.000,715.500,-10.000
0.441,-48.500,-6.000,715.500,-9.500
0.442,-48.500,-5.500,716.000,-9.000
0.443,-48.500,-5.000,716.500,-8.500
0.444,-48.500,-4.500,716.500,-8.000
0.445,-48.000,-4.000,716.500,-8.000
0.446,-47.500,-4.000,716.000,-8.500
0.447,-47.500,-4.500,715.000,-9.000
0.448,-47.000,-4.500,714.500,-9.500
0.449,-46.500,-5.000,713.500,-10.000
0.450,-46.500,-5.500,713.000,-10.500
0.451,-46.000,-5.500,712.500,-10.500
0.452,-46.000,-6.000,712.000,-11.000
0.453,-46.000,-6.000,711.500,-11.000
0.454,-46.000,-6.000,712.000,-11.000
0.455,-46.000,-5.500,713.000,-10.000
0.456,-46.000,-5.000,714.000,-9.000
0.457,-46.000,-4.000,715.000,-8.000
0.458,-46.000,-3.500,716.500,-7.000
0.459,-46.500,-3.000,717.000,-6.000
0.460,-46.500,-2.500,717.000,-5.500
0.461,-46.500,-2.500,717.000,-5.500
0.462,-47.000,-2.500,716.500,-5.500
0.463,-47.000,-2.500,716.500,-5.500
0.464,-47.000,-2.500,716.000,-5.500
0.465,-47.000,-3.000,716.000,-5.500
0.466,-47.000,-3.000,716.000,-5.500
0.467,-47.000,-3.000,715.500,-5.500
0.468,-46.500,-3.500,714.500,-6.500
0.469,-46.500,-4.000,713.500,-7.500
0.470,-46.000,-4.500,712.000,-8.500
0.471,-46.000,-5.000,710.500,-9.500
0.472,-46.000,-5.000,710.000,-10.000
0.473,-46.000,-5.000,710.000,-9.500
0.474,-45.500,-4.500,710.500,-9.000
0.475,-45.500,-4.000,711.000,-8.500
0.476,-45.000,-3.500,711.000,-8.000
0.477,-45.000,-3.000,711.500,-8.000
0.478,-44.500,-2.500,711.000,-7.500
0.479,-44.500,-2.000,711.000,-7.500
0.480,-44.500,-1.500,711.500,-6.500
0.481,-44.500,-1.000,712.000,-5.500
0.482,-44.500,-0.500,713.000,-4.500
0.483,-44.500,0.000,713.500,-4.000
0.484,-44.000,0.500,713.500,-4.000
0.485,-43.500,0.500,713.500,-4.000
0.486,-43.500,0.500,713.000,-4.000
0.487,-43.000,1.000,712.500,-4.000
0.488,-43.000,0.500,712.000,-4.000
0.489,-42.500,0.500,711.500,-4.500
0.490,-42.500,-0.500,710.500,-5.000
0.491,-43.000,-1.000,710.000,-5.500
0.492,-43.000,-1.000,710.000,-5.500
0.493,-43.000,-1.000,710.000,-5.500
0.494,-43.000,-1.000,710.500,-5.000
0.495,-43.000,-0.500,711.000,-4.000
0.496,-43.000,0.500,711.500,-3.500
0.497,-43.000,1.000,712.000,-2.500
0.498,-43.000,1.500,712.000,-2.000
0.499,-43.000,2.000,712.500,-1.000
0.500,-42.500,3.000,713.500,0.000
0.501,-42.500,3.500,714.500,0.500
0.502,-41.500,4.500,715.000,1.500
0.503,-41.000,5.000,715.000,1.500
0.504,-41.000,5.000,714.500,1.000
0.505,-40.500,5.000,714.500,0.500
0.506,-40.500,5.000,714.000,0.500
0.507,-40.500,5.000,714.500,1.000
0.508,-40.500,5.000,715.000,1.500
0.509,-40.500,5.000,715.000,2.000
0.510,-40.500,5.000,715.000,2.000
0.511,-40.500,5.000,714.500,2.000
0.512,-40.500,4.500,714.000,1.500
0.513,-40.000,4.500,713.500,1.000
0.514,-40.000,4.500,713.000,1.000
0.515,-40.000,4.500,712.500,0.500
0.516,-39.500,4.500,712.500,0.500
0.517,-39.500,5.000,713.000,1.000
0.518,-39.500,6.000,713.500,1.500
0.519,-39.500,6.500,714.000,2.500
0.520,-39.500,6.500,714.000,3.000
0.521,-39.500,7.000,714.500,3.500
0.522,-40.000,7.500,714.500,4.500
0.523,-40.000,7.500,715.000,5.000
0.524,-39.500,8.000,715.000,5.500
0.525,-39.000,8.000,715.000,6.000
0.526,-38.500,8.500,715.500,6.000
0.527,-38.500,8.500,715.500,6.000
0.528,-38.000,9.000,715.500,6.500
0.529,-38.000,9.000,716.000,6.500
0.530,-37.500,9.000,716.000,6.500
0.531,-37.500,9.000,716.000,7.000
0.532,-37.500,9.000,716.000,7.000
0.533,-37.500,9.000,716.500,7.500
0.534,-37.500,9.000,716.500,8.000
0.535,-37.500,9.000,716.500,8.500
0.536,-38.000,9.500,717.000,9.000
0.537,-38.000,10.000,717.000,9.500
0.538,-38.000,10.500,717.000,10.000
0.539,-37.500,11.000,717.000,10.000
0.540,-37.500,11.000,717.000,10.000
0.541,-37.000,11.500,716.500,9.500
0.542,-36.500,11.500,716.000,9.500
0.543,-36.500,11.500,716.000,9.500
0.544,-36.500,11.500,715.500,9.500
0.545,-36.000,11.000,715.000,9.000
0.546,-36.000,11.000,714.500,9.000
0.547,-36.000,11.000,714.500,8.500
0.548,-36.000,11.000,714.000,8.500
0.549,-35.500,11.000,713.500,8.500
0.550,-35.500,10.500,712.500,8.000
0.551,-35.000,10.500,712.000,7.500
0.552,-35.000,10.000,711.500,7.500
0.553,-35.500,9.500,711.500,7.500
0.554,-36.000,9.500,711.000,7.500
0.555,-36.500,9.000,710.500,7.500
0.556,-37.000,9.000,710.500,7.500
0.557,-37.500,9.000,711.000,8.000
0.558,-37.500,9.500,711.500,8.500
0.559,-38.000,9.500,712.000,9.000
0.560,-38.000,10.000,712.500,9.500
0.561,-38.500,10.000,713.000,10.000
0.562,-39.000,10.000,713.000,10.500
0.563,-39.500,10.000,713.000,10.500
0.564,-40.000,9.000,712.500,10.500
0.565,-41.000,8.500,711.500,10.000
0.566,-41.000,7.500,711.000,9.500
0.567,-41.500,7.000,710.000,9.000
0.568,-42.000,6.500,709.000,8.500
0.569,-42.000,6.000,708.500,8.000
0.570,-42.500,5.500,707.500,7.500
0.571,-42.500,5.000,706.500,7.000
0.572,-42.000,4.500,706.000,6.500
0.573,-41.500,4.500,705.000,5.500
0.574,-41.000,5.000,704.500,5.500
0.575,-40.000,5.500,704.500,5.000
0.576,-39.500,6.500,705.000,5.000
0.577,-38.500,7.500,705.500,5.500
0.578,-38.000,8.500,705.500,6.000
0.579,-38.000,9.000,705.500,6.000
0.580,-38.000,9.000,705.000,6.000
0.581,-38.000,9.000,704.500,6.000
0.582,-38.500,9.000,704.000,6.000
0.583,-38.500,8.500,703.500,5.500
0.584,-38.500,8.500,703.000,5.500
0.585,-38.500,8.500,702.500,5.000
0.586,-38.500,8.500,702.000,5.000
0.587,-38.000,8.500,702.000,4.500
0.588,-38.000,8.000,701.500,4.500
0.589,-37.500,8.000,701.500,4.000
0.590,-37.500,8.000,701.000,4.000
0.591,-37.000,8.000,701.000,3.500
0.592,-36.500,8.000,700.500,3.000
0.593,-36.000,7.500,700.000,2.500
0.594,-36.000,7.500,699.500,2.500
0.595,-36.000,8.000,700.000,2.500
0.596,-36.000,8.000,700.000,3.000
0.597,-36.500,8.500,700.500,3.500
0.598,-37.000,8.500,701.000,4.000
0.599,-37.500,8.000,701.000,4.000
0.600,-38.000,8.000,701.000,4.500
0.601,-38.000,8.000,701.500,5.000
0.602,-38.000,8.500,702.000,5.500
0.603,-38.000,8.500,702.000,6.000
0.604,-37.500,9.000,702.500,6.000
0.605,-37.500,9.000,702.500,6.500
0.606,-37.500,9.000,702.500,6.000
0.607,-37.500,8.500,702.000,5.500
0.608,-37.000,8.500,701.500,5.500
0.609,-37.000,8.000,701.000,5.000
0.610,-37.000,8.000,701.000,5.000
0.611,-36.500,8.000,701.000,5.000
0.612,-36.000,8.000,701.000,5.000
0.613,-35.500,8.000,700.500,4.500
0.614,-35.500,8.000,700.000,4.000
0.615,-35.000,7.500,699.500,3.500
0.616,-35.000,7.500,699.000,3.000
0.617,-35.000,7.500,698.500,3.000
0.618,-35.500,8.000,698.500,3.000
0.619,-35.500,8.000,698.500,3.500
0.620,-36.000,8.500,698.500,4.000
0.621,-36.000,8.500,698.500,4.000
0.622,-36.000,8.500,698.000,3.500
0.623,-35.500,8.500,697.500,3.500
0.624,-36.000,8.500,697.000,3.000
0.625,-36.000,8.000,696.500,3.000
0.626,-35.500,7.500,696.500,3.000
0.627,-35.500,7.500,696.000,3.000
0.628,-35.000,7.500,695.500,2.500
0.629,-34.500,7.500,695.000,2.000
0.630,-34.000,7.500,694.500,1.500
0.631,-33.500,7.000,694.000,1.000
0.632,-34.000,7.000,693.500,1.000
0.633,-34.000,6.500,693.000,1.000
0.634,-34.500,6.500,693.500,1.500
0.635,-34.500,6.500,694.000,2.500
0.636,-35.000,7.000,695.500,3.500
0.637,-35.500,8.000,696.500,4.500
0.638,-35.500,8.500,697.500,5.000
0.639,-36.000,9.000,698.000,5.500
0.640,-36.000,9.500,698.500,6.000
0.641,-36.500,10.000,699.000,6.500
0.642,-36.500,10.000,699.000,7.000
0.643,-36.500,10.500,698.500,7.000
0.644,-36.500,10.500,698.500,7.000
0.645,-36.500,10.000,698.000,7.000
0.646,-36.000,9.500,697.500,6.500
0.647,-36.000,9.000,696.500,6.000
0.648,-36.000,8.500,695.500,5.000
0.649,-35.500,8.000,694.500,4.500
0.650,-34.500,8.000,693.500,3.500
0.651,-34.000,7.500,692.500,3.000
0.652,-33.500,7.500,691.500,2.000
0.653,-33.000,7.500,691.000,1.500
0.654,-33.000,7.000,690.000,1.000
0.655,-33.000,7.000,690.000,1.000
0.656,-33.000,7.000,690.000,1.000
0.657,-33.500,7.500,691.000,2.000
0.658,-33.500,8.000,691.500,2.500
0.659,-34.000,8.500,692.500,3.500
0.660,-34.500,9.000,693.000,4.500
0.661,-34.500,9.500,694.000,5.000
0.662,-35.000,10.000,694.500,5.500
0.663,-35.000,10.500,694.500,6.000
0.664,-35.000,10.500,694.500,6.000
0.665,-35.500,10.000,694.000,5.500
0.666,-35.500,9.500,693.000,4.500
0.667,-35.000,9.000,692.500,3.500
0.668,-35.000,8.500,692.000,3.000
0.669,-34.500,8.000,691.500,3.000
0.670,-34.500,8.000,691.000,2.500
0.671,-34.500,8.000,691.000,3.000
0.672,-34.500,8.000,691.000,3.000
0.673,-34.500,8.500,691.500,3.500
0.674,-34.500,8.500,692.000,4.000
0.675,-34.500,9.000,692.500,4.500
0.676,-35.000,9.500,693.000,5.500
0.677,-35.000,10.000,693.500,6.500
0.678,-35.000,10.500,694.500,7.000
0.679,-35.500,10.500,694.500,7.500
0.680,-35.500,11.000,695.000,8.000
0.681,-35.500,11.000,695.000,8.500
0.682,-35.500,11.500,695.000,9.000
0.683,-35.000,11.500,694.500,9.000
0.684,-35.000,11.500,694.000,8.500
0.685,-35.000,11.000,693.500,7.500
0.686,-34.500,11.000,692.500,7.000
0.687,-34.500,10.500,691.500,6.500
0.688,-34.000,10.500,691.000,6.000
0.689,-33.000,10.000,690.500,5.500
0.690,-32.500,10.000,690.000,5.500
0.691,-32.000,10.500,689.500,5.500
0.692,-32.000,10.500,689.000,5.000
0.693,-32.000,10.500,689.000,5.000
0.694,-32.000,10.500,689.500,5.500
0.695,-32.000,11.000,690.500,6.500
0.696,-32.000,11.500,691.000,7.000
0.697,-32.000,12.000,691.500,7.500
0.698,-32.500,12.000,691.500,7.500
0.699,-32.500,12.000,691.500,8.000
0.700,-33.000,12.000,691.500,8.000
0.701,-33.500,12.000,691.500,8.500
0.702,-33.500,12.000,691.500,8.500
0.703,-34.000,11.500,691.000,8.500
0.704,-34.500,11.500,690.500,8.000
0.705,-34.500,11.000,690.000,7.500
0.706,-34.500,10.500,689.000,7.000
0.707,-34.000,10.500,688.500,6.500
0.708,-34.000,10.500,688.500,6.500
0.709,-33.500,11.000,688.500,6.500
0.710,-33.500,11.000,688.500,7.000
0.711,-33.500,11.000,688.000,7.000
0.712,-33.500,11.000,688.000,7.000
0.713,-33.500,11.000,687.500,7.000
0.714,-33.000,11.500,687.500,7.000
0.715,-32.500,11.500,688.000,7.500
0.716,-32.500,12.000,688.000,7.500
0.717,-32.500,12.000,688.000,7.500
0.718,-33.000,12.500,688.000,8.000
0.719,-33.500,12.500,688.500,8.500
0.720,-34.000,12.500,689.500,9.500
0.721,-34.500,13.000,690.000,10.000
0.722,-35.000,13.000,690.500,10.500
0.723,-35.500,13.000,690.500,11.000
0.724,-35.500,13.500,690.500,11.000
0.725,-35.500,13.000,690.000,10.500
0.726,-36.000,12.500,689.500,10.500
0.727,-36.000,12.500,689.500,10.500
0.728,-35.500,12.000,689.000,10.000
0.729,-35.000,12.000,689.000,10.000
0.730,-35.000,12.000,688.500,10.000
0.731,-34.500,11.500,688.000,9.500
0.732,-34.000,11.500,687.500,9.000
0.733,-34.000,11.500,686.500,8.500
0.734,-33.500,11.500,686.000,8.000
0.735,-33.500,11.500,686.000,8.000
0.736,-33.500,11.500,686.000,8.000
0.737,-33.500,11.500,685.500,8.500
0.738,-34.000,11.500,685.500,8.500
0.739,-34.000,11.500,685.000,8.000
0.740,-34.000,11.500,685.000,8.000
0.741,-34.000,12.000,685.000,8.500
0.742,-34.000,12.000,685.500,9.000
0.743,-34.000,12.500,686.000,9.500
0.744,-34.000,13.000,686.000,9.500
0.745,-33.500,12.500,685.500,9.500
0.746,-33.500,12.500,685.000,9.000
0.747,-33.500,12.500,684.500,8.500
0.748,-33.500,12.000,683.500,8.000
0.749,-33.500,11.500,682.500,7.500
0.750,-33.500,11.000,681.500,6.500
0.751,-33.500,10.500,681.000,6.000
0.752,-33.500,10.500,680.500,6.000
0.753,-33.500,10.500,681.000,6.000
0.754,-33.500,10.500,681.500,6.500
0.755,-33.500,11.000,682.000,7.000
0.756,-34.000,11.000,682.500,7.500
0.757,-34.000,11.500,682.500,8.000
0.758,-34.000,11.500,683.000,8.000
0.759,-34.500,12.000,683.000,8.500
0.760,-34.500,12.000,683.000,8.500
0.761,-34.500,12.500,683.000,8.500
0.762,-34.500,13.000,683.500,9.500
0.763,-35.000,13.000,684.500,10.000
0.764,-35.000,13.500,685.000,11.000
0.765,-35.000,13.500,685.000,11.500
0.766,-35.000,13.000,684.500,11.000
0.767,-35.000,12.500,683.500,11.000
0.768,-35.000,12.500,683.000,10.500
0.769,-34.500,12.500,682.500,10.000
0.770,-34.500,12.500,682.500,10.500
0.771,-34.000,12.500,683.000,10.500
0.772,-34.000,12.500,683.000,11.000
0.773,-34.000,12.500,682.500,10.500
0.774,-34.500,12.500,682.000,10.500
0.775,-34.500,12.000,680.500,9.500
0.776,-34.500,11.500,679.500,8.500
0.777,-34.000,11.000,678.500,8.000
0.778,-34.000,11.000,678.000,7.500
0.779,-34.500,11.000,678.000,8.000
0.780,-34.500,11.500,678.500,8.500
0.781,-35.000,12.000,679.000,9.500
0.782,-35.500,12.000,680.000,10.000
0.783,-35.500,12.500,680.500,11.000
0.784,-36.000,13.000,681.500,12.000
0.785,-36.000,13.500,682.000,13.000
0.786,-36.000,13.500,682.500,13.000
0.787,-36.000,13.500,683.000,13.000
0.788,-35.500,13.500,682.500,13.000
0.789,-35.000,13.000,682.500,13.000
0.790,-35.000,13.000,682.000,13.000
0.791,-35.000,13.000,681.500,12.500
0.792,-34.500,12.500,681.000,12.000
0.793,-34.500,12.500,680.500,12.000
0.794,-34.500,12.500,680.000,11.500
0.795,-34.500,12.000,679.500,11.500
0.796,-35.000,12.000,679.500,11.500
0.797,-35.000,12.500,679.500,12.000
0.798,-35.500,12.500,679.500,12.000
0.799,-36.000,12.500,679.500,12.500
0.800,-36.000,12.500,679.500,12.500
0.801,-36.000,12.500,679.500,12.500
0.802,-36.000,13.000,680.000,12.500
0.803,-36.000,13.000,680.500,12.500
0.804,-36.000,13.500,681.000,13.500
0.805,-36.000,14.000,681.500,14.000
0.806,-36.000,14.000,682.000,14.000
0.807,-36.000,14.000,681.500,14.000
0.808,-35.500,13.500,681.000,14.000
0.809,-35.500,13.000,680.500,13.500
0.810,-35.500,12.500,680.000,13.500
0.811,-35.500,12.500,679.500,13.000
0.812,-35.500,12.000,679.000,12.500
0.813,-35.500,12.000,679.000,12.500
0.814,-35.500,12.000,678.500,12.500
0.815,-35.500,12.000,678.500,12.500
0.816,-35.000,12.000,678.500,12.500
0.817,-35.000,12.000,678.000,12.000
0.818,-35.000,12.000,677.000,11.500
0.819,-35.000,12.000,676.500,11.500
0.820,-35.500,12.000,677.000,11.500
0.821,-35.500,12.500,677.500,12.500
0.822,-36.000,13.000,678.000,13.000
0.823,-36.000,13.000,678.500,13.500
0.824,-36.000,13.000,678.000,13.000
0.825,-36.000,12.500,677.500,13.000
0.826,-35.500,12.500,677.000,12.500
0.827,-35.500,12.000,676.500,12.500
0.828,-35.000,11.500,676.000,12.500
0.829,-35.000,11.500,676.000,12.000
0.830,-34.500,11.500,675.500,11.500
0.831,-34.000,11.500,675.000,11.000
0.832,-34.000,11.000,674.000,10.500
0.833,-34.000,11.000,673.500,10.000
0.834,-34.000,11.000,673.500,10.000
0.835,-34.500,11.500,674.000,10.500
0.836,-35.000,11.500,674.500,11.000
0.837,-35.500,12.000,675.000,11.500
0.838,-35.500,12.500,675.500,12.000
0.839,-35.500,12.500,676.000,12.500
0.840,-35.500,13.500,676.500,13.500
0.841,-35.000,14.000,677.000,14.000
0.842,-35.000,14.000,677.000,14.000
0.843,-35.500,14.500,677.000,14.000
0.844,-35.500,14.500,677.000,14.000
0.845,-36.000,14.000,676.500,13.500
0.846,-36.000,13.500,675.500,13.000
0.847,-36.000,13.000,675.000,12.500
0.848,-36.000,12.500,674.000,12.000
0.849,-36.000,12.000,673.500,11.500
0.850,-36.000,12.000,673.000,11.500
0.851,-36.000,11.500,672.500,11.000
0.852,-36.000,12.000,672.500,11.500
0.853,-36.000,12.000,672.500,11.500
0.854,-35.500,12.000,673.000,12.000
0.855,-35.500,12.500,673.000,12.000
0.856,-35.500,12.500,673.000,12.000
0.857,-35.500,13.000,673.000,12.000
0.858,-35.500,13.000,673.000,12.500
0.859,-36.000,13.000,673.000,12.500
0.860,-36.500,13.000,673.500,13.000
0.861,-37.500,13.000,674.000,14.000
0.862,-38.000,13.500,675.000,14.500
0.863,-38.500,14.000,675.500,15.500
0.864,-38.500,14.500,676.000,15.500
0.865,-38.500,14.500,676.500,16.000
0.866,-38.500,14.500,676.500,16.000
0.867,-39.000,14.500,676.500,16.000
0.868,-39.000,14.000,676.000,15.500
0.869,-39.000,13.000,675.000,14.500
0.870,-38.500,12.500,674.000,13.500
0.871,-38.000,12.000,672.500,12.500
0.872,-37.500,11.500,672.000,12.500
0.873,-37.000,11.500,672.000,12.500
0.874,-36.500,11.500,672.000,13.000
0.875,-36.500,12.000,672.500,13.500
0.876,-36.500,12.500,672.500,13.500
0.877,-36.500,12.500,673.000,13.500
0.878,-37.000,13.000,673.000,14.000
0.879,-37.000,13.500,674.000,14.500
0.880,-37.500,14.000,674.500,15.500
0.881,-37.500,14.000,674.500,15.500
0.882,-37.000,14.500,674.500,16.000
0.883,-36.500,15.000,674.500,16.000
0.884,-36.500,15.000,674.500,16.000
0.885,-36.500,15.000,674.000,16.000
0.886,-36.000,15.000,673.500,15.000
0.887,-36.000,14.500,672.500,14.500
0.888,-36.000,14.000,671.500,14.000
0.889,-36.000,13.500,671.000,13.500
0.890,-36.000,13.500,670.500,13.000
0.891,-36.000,13.000,670.500,13.000
0.892,-36.500,12.500,671.000,13.000
0.893,-36.500,12.500,670.500,13.500
0.894,-36.000,12.500,670.500,13.500
0.895,-36.000,12.500,671.000,13.500
0.896,-36.000,13.000,671.000,14.000
0.897,-36.000,13.500,672.000,15.000
0.898,-36.500,14.000,672.500,15.500
0.899,-37.000,14.500,673.000,16.500
0.900,-37.000,15.000,673.500,17.000
0.901,-37.500,15.000,674.000,17.500
0.902,-37.000,15.500,674.000,18.000
0.903,-37.000,16.000,674.000,18.000
0.904,-36.500,16.000,674.000,18.000
0.905,-36.500,16.000,673.500,18.000
0.906,-36.500,16.000,673.000,17.500
0.907,-36.000,15.500,672.000,16.500
0.908,-36.000,15.000,671.000,15.500
0.909,-35.500,15.000,670.500,15.000
0.910,-35.500,15.000,670.500,15.500
0.911,-36.000,15.000,671.000,15.500
0.912,-36.000,15.500,671.500,16.000
0.913,-36.000,15.500,672.000,17.000
0.914,-35.500,16.000,673.000,17.500
0.915,-35.500,16.500,673.500,18.000
0.916,-35.500,17.000,674.000,19.000
0.917,-35.500,17.000,674.500,19.500
0.918,-35.500,17.500,675.000,20.000
0.919,-35.000,18.000,675.500,20.000
0.920,-35.000,18.500,675.500,20.500
0.921,-35.500,18.500,675.500,21.000
0.922,-36.000,18.500,676.000,21.000
0.923,-36.000,18.500,676.000,21.500
0.924,-36.000,18.500,675.500,21.500
0.925,-36.000,18.500,675.000,21.000
0.926,-35.500,18.000,673.500,20.000
0.927,-34.500,18.000,672.000,18.500
0.928,-34.000,17.500,670.500,17.500
0.929,-33.500,17.000,669.500,17.000
0.930,-33.500,17.000,669.000,16.500
0.931,-33.500,16.500,669.000,16.500
0.932,-33.500,16.500,668.500,16.000
0.933,-34.000,16.000,668.000,15.500
0.934,-34.000,15.000,667.000,14.500
0.935,-34.500,14.500,666.000,14.000
0.936,-35.000,14.500,666.000,14.000
0.937,-35.000,15.000,666.500,14.500
0.938,-35.000,15.500,667.500,15.500
0.939,-35.500,16.500,669.000,17.000
0.940,-35.500,17.000,670.000,18.000
0.941,-35.500,17.500,670.500,19.000
0.942,-35.500,17.500,670.500,19.000
0.943,-35.500,17.500,670.500,19.000
0.944,-36.000,17.500,670.000,19.000
0.945,-36.000,17.500,670.000,19.500
0.946,-36.000,17.500,670.000,19.500
0.947,-36.000,17.000,669.500,19.500
0.948,-35.500,16.500,669.000,19.000
0.949,-35.500,16.500,668.500,18.500
0.950,-35.000,16.000,668.000,18.000
0.951,-35.000,16.000,667.000,17.500
0.952,-35.000,16.000,666.500,17.500
0.953,-35.000,16.000,666.000,17.000
0.954,-34.500,16.000,666.000,17.500
0.955,-34.500,16.500,666.500,18.000
0.956,-35.000,16.500,667.000,19.000
0.957,-35.000,17.000,668.500,20.000
0.958,-35.500,17.500,670.000,21.000
0.959,-36.000,18.000,671.000,22.500
0.960,-36.000,18.500,671.500,23.000
0.961,-36.500,19.000,671.500,23.000
0.962,-36.500,19.000,671.000,23.000
0.963,-36.500,18.500,670.000,22.500
0.964,-36.000,18.000,669.000,21.500
0.965,-36.000,17.500,668.000,20.500
0.966,-36.000,17.000,667.000,20.000
0.967,-36.000,16.500,666.500,19.500
0.968,-36.000,16.000,665.500,18.500
0.969,-36.500,15.500,665.000,18.000
0.970,-36.500,15.000,664.500,17.500
0.971,-37.000,14.500,664.000,17.000
0.972,-37.000,14.000,663.500,16.500
0.973,-37.500,14.000,663.000,16.000
0.974,-38.000,13.000,662.000,15.000
0.975,-38.500,12.500,660.500,14.000
0.976,-39.000,11.500,659.000,13.000
0.977,-39.500,10.500,657.500,12.000
0.978,-40.000,10.000,657.000,12.000
0.979,-41.000,10.000,658.000,13.000
0.980,-41.500,11.000,659.500,15.000
0.981,-42.000,12.000,661.500,17.000
0.982,-42.000,13.000,663.500,19.000
0.983,-41.500,14.000,665.000,20.500
0.984,-41.500,14.500,665.500,21.500
0.985,-41.000,15.000,666.000,21.500
0.986,-40.500,14.500,665.500,21.500
0.987,-40.000,14.500,665.000,21.500
0.988,-39.500,14.500,664.500,22.000
0.989,-39.000,15.000,664.500,23.000
0.990,-38.500,15.000,665.000,23.500
0.991,-38.500,15.500,665.500,24.500
0.992,-38.000,16.000,666.500,26.000
0.993,-38.500,17.000,667.500,27.500
0.994,-38.500,17.500,669.000,29.000
0.995,-38.000,18.000,670.000,30.500
0.996,-38.000,19.000,671.000,32.000
0.997,-37.000,20.000,672.000,33.500
0.998,-36.500,21.500,674.000,36.000
0.999,-35.000,24.000,676.500,39.000
1.000,-33.500,26.500,680.000,42.500
1.001,-32.000,29.500,684.000,46.500
1.002,-30.500,32.000,687.500,50.000
1.003,-29.000,34.500,690.500,53.000
1.004,-27.500,36.500,692.500,55.000
1.005,-26.500,37.500,694.000,56.500
1.006,-25.500,38.500,695.000,58.000
1.007,-24.000,39.500,696.000,59.000
1.008,-23.000,40.500,697.000,60.500
1.009,-21.500,41.500,698.000,61.500
1.010,-20.000,42.000,698.500,62.000
1.011,-18.500,42.500,698.000,62.000
1.012,-17.500,42.500,697.500,61.000
1.013,-17.000,42.000,695.500,59.500
1.014,-16.000,41.500,694.000,57.500
1.015,-15.000,41.000,692.000,55.500
1.016,-14.500,41.000,691.000,53.500
1.017,-13.500,41.500,691.000,53.000
1.018,-12.500,42.500,691.500,52.500
1.019,-11.500,43.500,692.000,53.000
1.020,-11.000,44.500,692.000,53.000
1.021,-10.500,45.000,692.000,52.000
1.022,-10.000,45.000,691.000,51.000
1.023,-9.500,44.500,689.500,49.500
1.024,-9.500,44.000,688.000,48.500
1.025,-10.000,43.000,687.000,47.000
1.026,-10.500,42.000,685.500,46.000
1.027,-11.500,41.000,684.500,44.500
1.028,-12.500,39.500,683.000,43.000
1.029,-13.500,38.000,681.000,41.000
1.030,-15.000,36.000,678.500,38.500
1.031,-16.500,34.000,676.500,36.500
1.032,-18.000,32.000,674.500,35.000
1.033,-19.500,30.500,672.500,33.500
1.034,-21.000,28.500,671.000,32.500
1.035,-23.000,27.000,669.500,31.000
1.036,-24.500,25.500,667.500,30.000
1.037,-26.500,24.500,666.000,28.500
1.038,-28.000,23.500,665.000,28.000
1.039,-29.500,22.500,664.000,27.500
1.040,-31.000,22.000,663.500,27.000
1.041,-32.000,21.500,663.000,26.500
1.042,-32.500,21.000,663.000,26.500
1.043,-33.000,21.000,663.000,27.000
1.044,-33.000,21.000,663.500,27.000
1.045,-33.500,21.000,663.500,27.500
1.046,-33.500,21.000,663.500,27.500
1.047,-33.000,21.000,663.000,27.000
1.048,-33.000,20.500,662.000,26.500
1.049,-33.000,20.000,661.000,25.500
1.050,-33.000,19.000,660.000,24.500
1.051,-33.500,18.500,659.000,23.500
1.052,-34.000,18.000,658.500,23.500
1.053,-34.000,17.500,657.500,22.500
1.054,-34.500,17.000,656.000,22.000
1.055,-34.500,16.500,655.500,21.500
1.056,-35.000,16.500,655.000,21.500
1.057,-35.500,16.500,655.500,21.500
1.058,-36.000,17.000,656.000,22.500
1.059,-36.500,17.000,657.000,23.000
1.060,-37.000,17.500,657.500,23.500
1.061,-37.000,18.000,658.000,24.000
1.062,-37.500,18.500,658.500,24.500
1.063,-37.500,19.000,658.500,25.000
1.064,-37.500,19.000,658.500,25.000
1.065,-37.000,19.000,658.000,24.500
1.066,-37.000,18.500,657.000,24.000
1.067,-37.000,18.000,655.500,23.000
1.068,-37.000,17.000,654.500,22.000
1.069,-36.500,16.500,653.000,21.000
1.070,-36.500,16.000,652.500,20.500
1.071,-36.500,15.500,651.500,20.500
1.072,-36.500,15.000,650.500,20.000
1.073,-36.500,15.000,650.000,20.000
1.074,-36.500,15.000,650.500,20.500
1.075,-37.000,15.500,651.500,21.500
1.076,-37.000,16.500,653.000,22.500
1.077,-37.500,17.500,654.500,23.500
1.078,-38.000,18.000,655.500,24.500
1.079,-38.500,18.000,656.500,25.000
1.080,-39.000,18.000,656.500,25.500
1.081,-39.000,18.000,657.000,26.000
1.082,-39.000,18.000,657.000,26.000
1.083,-39.000,18.000,656.500,26.000
1.084,-39.000,18.000,656.500,26.000
1.085,-39.000,18.000,656.500,26.000
1.086,-39.000,17.500,656.000,26.000
1.087,-39.500,16.500,655.500,25.500
1.088,-39.500,16.000,655.000,25.000
1.089,-39.500,15.500,654.500,24.500
1.090,-39.000,15.500,654.000,24.000
1.091,-38.500,15.000,653.000,23.500
1.092,-38.500,15.000,653.000,23.000
1.093,-38.500,15.000,653.000,23.000
1.094,-38.500,15.500,653.000,23.000
1.095,-38.500,15.500,653.500,23.500
1.096,-38.500,16.000,654.000,23.500
1.097,-39.000,16.000,654.000,24.000
1.098,-39.000,16.500,654.500,25.000
1.099,-39.500,17.000,655.000,25.500
1.100,-39.500,17.500,655.500,26.000
1.101,-39.500,17.500,656.000,26.500
1.102,-39.500,17.500,656.000,27.000
1.103,-39.500,17.500,655.500,27.000
1.104,-39.500,17.500,655.000,27.000
1.105,-39.500,17.000,654.000,26.000
1.106,-39.000,16.500,652.000,24.500
1.107,-39.000,15.500,650.000,22.500
1.108,-38.500,14.500,647.500,21.000
1.109,-38.500,13.500,646.000,19.500
1.110,-38.500,13.000,645.000,19.000
1.111,-38.500,13.000,645.000,19.000
1.112,-38.500,13.000,644.500,19.000
1.113,-38.000,13.000,645.000,19.000
1.114,-38.500,13.000,645.000,19.500
1.115,-38.500,13.500,645.500,20.500
1.116,-39.000,14.000,646.500,21.500
1.117,-39.500,14.000,646.500,22.000
1.118,-39.500,14.000,646.000,22.000
1.119,-40.000,14.000,645.500,21.500
1.120,-40.000,14.000,644.500,21.000
1.121,-40.000,14.000,644.500,21.000
1.122,-40.500,14.500,645.000,22.000
1.123,-41.000,15.000,646.000,23.000
1.124,-41.000,15.000,646.500,23.500
1.125,-41.500,15.000,646.000,23.500
1.126,-41.000,14.500,645.000,22.500
1.127,-41.000,14.000,644.500,22.000
1.128,-40.500,14.000,643.500,21.000
1.129,-40.500,13.500,643.000,20.500
1.130,-40.000,13.500,642.500,20.500
1.131,-40.000,13.500,642.500,20.000
1.132,-39.500,13.500,642.500,19.500
1.133,-39.500,13.000,642.000,19.500
1.134,-39.500,13.000,642.000,19.500
1.135,-40.000,13.000,642.000,20.000
1.136,-40.000,13.500,642.500,20.500
1.137,-40.000,14.000,643.000,21.000
1.138,-40.000,14.500,643.000,21.500
1.139,-40.500,14.500,643.500,22.000
1.140,-41.000,14.500,643.500,22.500
1.141,-42.000,14.500,644.000,22.500
1.142,-42.000,14.500,644.000,22.500
1.143,-42.500,14.500,644.000,23.000
1.144,-42.000,14.500,644.000,23.000
1.145,-41.500,15.000,644.500,23.500
1.146,-41.500,15.500,645.000,24.500
1.147,-41.000,15.500,645.000,25.000
1.148,-41.000,16.000,645.500,25.000
1.149,-40.500,15.500,645.500,25.000
1.150,-40.500,15.500,645.000,24.500
1.151,-40.000,15.500,644.500,24.500
1.152,-40.000,15.000,644.500,24.500
1.153,-40.000,15.000,644.000,24.500
1.154,-40.000,14.500,644.000,24.500
1.155,-40.500,14.500,644.000,24.500
1.156,-40.500,15.000,644.500,25.000
1.157,-40.500,15.000,645.000,25.000
1.158,-41.000,15.500,645.000,25.500
1.159,-41.500,15.500,645.000,26.000
1.160,-42.000,16.000,645.000,26.000
1.161,-42.500,16.000,645.000,26.000
1.162,-43.000,16.500,645.000,26.000
1.163,-43.000,16.500,645.000,26.500
1.164,-43.000,17.000,645.000,26.500
1.165,-43.000,16.500,645.000,26.000
1.166,-42.500,16.500,644.500,26.000
1.167,-42.000,16.000,643.500,25.000
1.168,-42.000,15.500,642.500,24.000
1.169,-41.500,15.000,641.000,23.000
1.170,-41.500,14.000,640.000,22.000
1.171,-41.500,13.500,639.000,21.500
1.172,-41.500,13.000,638.000,20.500
1.173,-41.500,13.000,637.500,20.500
1.174,-41.500,12.500,636.500,20.000
1.175,-41.000,12.500,636.000,19.000
1.176,-41.000,12.500,635.000,19.000
1.177,-41.000,12.500,635.000,19.000
1.178,-41.000,13.000,635.000,19.500
1.179,-41.500,13.500,635.500,20.500
1.180,-41.500,14.000,636.500,21.500
1.181,-42.000,14.500,637.500,22.500
1.182,-42.500,15.000,638.500,23.500
1.183,-42.500,15.000,639.000,24.500
1.184,-42.500,15.500,639.500,25.000
1.185,-42.500,15.500,639.500,25.000
1.186,-42.500,15.500,639.000,25.000
1.187,-42.500,15.500,639.000,25.000
1.188,-42.500,15.000,638.500,24.500
1.189,-42.500,15.000,638.000,24.000
1.190,-42.000,14.500,637.000,23.500
1.191,-41.500,14.000,636.500,23.000
1.192,-41.000,14.000,635.500,22.500
1.193,-41.000,14.000,635.000,22.000
1.194,-41.000,13.500,635.000,22.000
1.195,-41.500,13.500,634.500,22.000
1.196,-42.000,13.500,634.500,22.500
1.197,-43.000,13.500,635.000,23.000
1.198,-43.500,14.000,635.500,24.000
1.199,-43.500,14.500,636.500,25.000
1.200,-44.000,15.500,637.500,26.000
1.201,-44.000,16.000,638.500,27.000
1.202,-43.500,16.500,639.000,27.500
1.203,-43.500,17.000,639.000,28.000
1.204,-43.000,17.500,639.000,28.000
1.205,-42.500,17.500,639.000,28.500
1.206,-42.500,17.500,638.500,28.500
1.207,-42.000,17.500,638.500,28.500
1.208,-41.500,18.000,638.500,28.500
1.209,-41.000,18.000,638.500,29.000
1.210,-40.500,18.000,638.500,29.000
1.211,-40.000,18.000,638.500,29.000
1.212,-39.500,18.000,638.500,29.000
1.213,-39.500,18.000,638.500,29.000
1.214,-39.500,18.500,638.500,29.000
1.215,-39.500,18.500,639.000,29.500
1.216,-39.500,19.000,639.500,30.000
1.217,-39.500,19.000,640.000,30.500
1.218,-40.000,19.500,640.000,30.500
1.219,-39.500,19.500,639.500,30.000
1.220,-39.500,19.500,639.000,29.500
1.221,-39.000,19.500,638.500,29.500
1.222,-39.000,19.500,638.500,30.000
1.223,-39.000,20.000,638.500,30.500
1.224,-38.500,20.000,638.500,30.500
1.225,-38.500,20.000,638.500,31.000
1.226,-38.500,20.000,638.000,30.500
1.227,-38.500,19.500,637.500,30.500
1.228,-39.000,19.500,637.500,30.500
1.229,-39.000,19.000,637.500,30.500
1.230,-39.000,19.000,637.500,31.000
1.231,-39.000,19.000,637.500,31.000
1.232,-39.000,19.000,638.000,31.000
1.233,-39.000,19.000,638.500,31.500
1.234,-39.000,19.000,638.500,32.000
1.235,-39.000,19.000,638.500,32.500
1.236,-38.500,19.000,639.000,33.000
1.237,-38.500,19.500,639.000,33.500
1.238,-39.000,20.000,639.500,34.000
1.239,-39.000,20.500,640.000,34.500
1.240,-39.500,21.000,640.000,35.000
1.241,-39.500,21.000,640.500,35.500
1.242,-40.000,21.000,640.500,36.000
1.243,-40.000,21.500,641.000,36.000
1.244,-40.500,21.500,641.500,36.500
1.245,-40.500,21.000,641.500,36.500
1.246,-40.500,21.000,641.000,36.500
1.247,-40.500,20.500,640.500,36.000
1.248,-40.500,20.500,639.500,35.000
1.249,-40.500,20.000,638.500,34.500
1.250,-40.000,19.500,638.000,33.500
1.251,-40.000,19.000,637.000,33.000
1.252,-40.000,19.000,636.500,32.500
1.253,-40.000,18.500,636.500,32.500
1.254,-40.000,18.500,636.500,33.000
1.255,-40.500,18.500,636.500,33.000
1.256,-40.500,19.000,636.500,33.000
1.257,-41.000,19.000,636.500,33.500
1.258,-41.500,19.000,636.000,33.000
1.259,-41.500,19.000,635.500,33.000
1.260,-41.500,19.000,634.500,32.000
1.261,-41.500,19.000,633.500,31.500
1.262,-42.000,18.500,633.000,31.000
1.263,-42.000,18.500,632.500,31.000
1.264,-42.000,18.000,631.500,30.000
1.265,-42.000,17.000,630.500,29.000
1.266,-41.500,17.000,629.500,28.000
1.267,-41.500,16.500,629.000,27.500
1.268,-41.000,16.500,629.000,27.000
1.269,-40.500,16.500,628.500,26.500
1.270,-40.500,16.000,628.000,26.000
1.271,-40.500,15.500,627.500,26.000
1.272,-41.000,15.000,626.500,25.500
1.273,-41.500,15.000,626.500,25.000
1.274,-42.000,14.500,626.000,25.000
1.275,-42.500,14.500,626.000,25.000
1.276,-43.000,14.500,625.500,25.000
1.277,-43.000,14.000,625.000,24.500
1.278,-43.500,14.000,624.500,24.000
1.279,-43.500,14.000,624.500,24.000
1.280,-44.000,14.000,624.500,24.000
1.281,-44.500,14.000,625.000,24.500
1.282,-44.500,14.000,625.000,24.000
1.283,-44.500,14.000,624.500,24.000
1.284,-45.000,14.000,624.500,23.500
1.285,-45.000,14.000,624.000,23.000
1.286,-45.000,14.000,623.500,23.000
1.287,-45.500,13.500,623.000,22.500
1.288,-45.500,13.000,622.500,21.500
1.289,-46.000,12.500,621.500,21.000
1.290,-45.500,12.000,621.000,21.000
1.291,-45.500,12.000,621.000,21.000
1.292,-45.000,12.000,621.000,21.000
1.293,-45.000,12.500,621.000,21.000
1.294,-45.000,12.500,621.500,21.500
1.295,-45.000,12.500,621.500,21.500
1.296,-45.000,12.500,621.500,21.500
1.297,-45.000,12.500,621.500,21.500
1.298,-45.500,12.500,621.000,21.500
1.299,-45.500,12.500,620.500,21.000
1.300,-45.500,12.500,619.500,20.500
1.301,-45.500,12.500,619.000,20.000
1.302,-45.500,12.500,618.500,20.000
1.303,-46.000,12.500,618.000,19.500
1.304,-46.000,12.000,617.500,19.000
1.305,-45.500,12.000,616.500,18.500
1.306,-45.500,11.000,615.000,17.500
1.307,-45.500,10.500,613.500,16.000
1.308,-45.500,9.500,612.000,14.500
1.309,-45.500,8.500,610.500,13.500
1.310,-45.000,8.000,610.000,13.000
1.311,-45.000,8.000,610.000,13.000
1.312,-45.000,8.000,610.500,13.500
1.313,-44.500,8.500,611.000,13.500
1.314,-44.500,8.500,611.000,14.000
1.315,-44.500,8.500,611.000,14.000
1.316,-45.000,9.000,611.000,14.000
1.317,-45.500,9.000,611.500,14.000
1.318,-46.000,9.000,611.500,14.500
1.319,-46.000,9.000,611.500,14.500
1.320,-46.500,9.000,611.500,14.000
1.321,-46.500,9.000,611.000,13.500
1.322,-46.500,9.000,610.000,13.000
1.323,-46.000,8.500,609.500,13.000
1.324,-46.500,8.500,609.500,13.000
1.325,-46.500,8.500,610.000,13.000
1.326,-46.500,8.500,610.000,13.000
1.327,-46.000,8.500,609.500,12.500
1.328,-46.000,8.000,608.500,12.000
1.329,-45.500,8.000,608.000,12.000
1.330,-45.000,8.000,608.000,12.000
1.331,-45.000,8.000,608.000,12.000
1.332,-45.000,8.000,607.000,11.500
1.333,-45.000,7.500,606.500,10.500
1.334,-45.500,7.000,606.000,10.500
1.335,-45.500,7.000,606.000,10.500
1.336,-46.000,7.000,606.500,10.500
1.337,-46.000,7.000,606.500,11.000
1.338,-46.500,7.000,606.500,11.000
1.339,-47.000,7.500,606.500,11.000
1.340,-47.000,7.500,607.000,11.500
1.341,-47.500,7.500,607.000,11.500
1.342,-48.000,7.500,607.000,12.000
1.343,-48.500,7.500,607.000,12.000
1.344,-48.000,7.500,606.500,11.500
1.345,-47.500,7.500,605.500,11.000
1.346,-47.000,7.500,605.000,10.500
1.347,-46.500,7.000,605.000,10.000
1.348,-46.000,6.500,604.500,9.500
1.349,-46.000,6.500,604.000,9.000
1.350,-46.000,6.000,604.000,9.000
1.351,-46.000,6.000,604.000,8.500
1.352,-46.000,5.500,603.500,8.500
1.353,-46.500,5.500,603.500,8.500
1.354,-46.500,5.500,603.000,8.500
1.355,-46.500,5.500,603.500,8.500
1.356,-46.500,6.000,604.000,9.000
1.357,-47.000,6.000,604.500,10.000
1.358,-47.500,6.000,605.000,10.500
1.359,-48.000,6.000,605.500,11.000
1.360,-48.000,6.500,606.000,11.000
1.361,-48.000,6.500,606.000,11.500
1.362,-48.000,7.000,606.500,12.000
1.363,-48.000,7.000,606.500,12.000
1.364,-47.500,7.500,606.500,12.000
1.365,-47.500,7.500,606.000,12.000
1.366,-47.000,7.500,605.000,11.500
1.367,-47.000,7.500,604.500,11.000
1.368,-46.500,7.000,603.500,10.500
1.369,-46.500,6.500,602.500,10.000
1.370,-46.000,6.000,601.500,9.500
1.371,-46.000,5.500,600.500,8.500
1.372,-45.500,5.000,599.500,8.000
1.373,-45.500,4.500,599.000,7.500
1.374,-45.500,4.500,599.000,7.500
1.375,-45.500,5.000,599.000,7.500
1.376,-45.500,5.000,599.000,8.000
1.377,-46.000,5.500,599.500,8.500
1.378,-46.000,5.500,599.500,9.000
1.379,-46.500,5.500,599.500,9.000
1.380,-46.500,6.000,599.500,9.500
1.381,-46.500,6.000,599.500,9.500
1.382,-46.500,6.500,599.500,10.000
1.383,-46.500,7.000,599.500,10.000
1.384,-46.500,7.000,600.000,10.000
1.385,-46.000,7.000,600.000,10.000
1.386,-46.000,7.000,599.500,9.500
1.387,-45.500,7.000,599.000,9.000
1.388,-45.000,6.500,598.000,8.500
1.389,-45.000,6.000,597.500,8.000
1.390,-45.000,6.000,597.000,8.000
1.391,-45.000,5.500,596.500,7.500
1.392,-45.000,5.000,596.500,8.000
1.393,-45.000,5.000,596.000,8.000
1.394,-45.000,5.000,596.000,8.000
1.395,-45.000,5.500,596.500,8.000
1.396,-45.000,6.000,596.500,8.500
1.397,-45.500,6.500,597.500,9.500
1.398,-45.500,7.000,598.000,10.500
1.399,-46.000,7.000,599.000,11.000
1.400,-46.000,7.500,599.500,12.000
1.401,-46.500,8.000,600.000,12.000
1.402,-46.500,8.000,600.000,12.500
1.403,-46.500,8.000,600.000,12.500
1.404,-46.500,8.000,600.000,12.500
1.405,-46.500,7.500,599.500,12.500
1.406,-46.500,7.000,599.000,12.500
1.407,-46.500,6.500,598.000,11.500
1.408,-46.500,6.000,597.500,11.000
1.409,-46.000,5.500,596.500,10.000
1.410,-46.000,5.000,595.000,9.000
1.411,-45.500,4.500,594.000,8.000
1.412,-45.500,4.000,593.000,7.000
1.413,-45.500,4.000,592.500,7.000
1.414,-45.500,4.000,592.500,7.000
1.415,-45.500,4.000,593.000,7.500
1.416,-46.000,4.500,593.500,8.000
1.417,-46.000,4.500,593.500,8.000
1.418,-46.000,4.500,592.500,7.500
1.419,-46.000,4.500,592.000,7.000
1.420,-46.000,4.000,591.500,6.500
1.421,-46.000,4.000,591.000,6.500
1.422,-46.500,4.000,591.000,6.500
1.423,-46.500,4.000,591.000,6.500
1.424,-46.500,4.000,591.000,6.500
1.425,-46.500,3.500,591.000,6.000
1.426,-46.000,3.500,591.000,6.000
1.427,-46.000,3.500,590.500,6.000
1.428,-46.000,3.500,590.500,6.000
1.429,-46.000,3.000,589.500,5.500
1.430,-45.500,3.000,588.500,4.500
1.431,-45.500,2.500,588.000,4.500
1.432,-45.500,2.000,587.500,4.000
1.433,-45.000,2.000,587.500,4.500
1.434,-45.500,2.000,587.500,4.500
1.435,-45.500,2.500,588.000,5.000
1.436,-45.500,2.500,588.500,5.500
1.437,-46.000,3.000,589.000,6.500
1.438,-46.500,3.000,589.500,7.000
1.439,-46.500,3.000,589.000,7.000
1.440,-46.500,3.500,589.500,7.500
1.441,-46.500,4.000,589.500,8.000
1.442,-46.500,4.000,590.000,8.500
1.443,-46.500,4.500,590.000,8.500
1.444,-46.500,4.500,590.000,8.500
1.445,-46.500,4.000,589.000,8.000
1.446,-46.000,3.500,588.000,7.000
1.447,-46.000,3.000,586.500,6.000
1.448,-45.500,2.500,586.000,5.500
1.449,-45.500,2.000,585.500,5.500
1.450,-45.500,2.000,585.000,5.000
1.451,-45.500,1.500,584.500,4.500
1.452,-46.000,1.000,584.500,4.500
1.453,-46.500,1.000,584.500,5.000
1.454,-46.500,1.000,584.500,5.000
1.455,-47.000,1.000,585.000,5.500
1.456,-47.000,1.000,585.500,6.000
1.457,-47.500,1.000,585.500,6.000
1.458,-47.500,1.000,586.000,6.500
1.459,-47.500,1.500,586.000,7.000
1.460,-47.500,2.000,586.500,7.500
1.461,-48.000,2.000,586.000,8.000
1.462,-48.000,2.500,586.000,8.000
1.463,-47.500,2.500,585.500,8.000
1.464,-47.000,2.000,585.000,7.500
1.465,-47.000,2.000,583.500,6.500
1.466,-46.500,1.500,582.000,5.500
1.467,-46.000,0.500,580.500,4.000
1.468,-46.000,0.000,579.500,3.000
1.469,-45.500,-0.500,578.500,2.500
1.470,-45.000,-1.000,577.500,2.000
1.471,-44.500,-1.000,577.000,1.500
1.472,-44.500,-1.000,577.000,1.500
1.473,-44.500,-1.000,576.500,1.500
1.474,-44.500,-1.000,576.500,1.500
1.475,-44.500,-1.000,576.500,1.500
1.476,-45.000,-1.000,577.000,1.500
1.477,-45.000,-1.000,577.000,2.000
1.478,-45.500,-0.500,577.000,2.500
1.479,-45.500,-0.500,577.500,2.500
1.480,-45.000,0.500,577.500,3.000
1.481,-45.000,1.000,578.000,4.000
1.482,-44.500,1.500,578.500,4.500
1.483,-44.500,1.500,578.500,5.000
1.484,-44.500,1.500,578.500,5.000
1.485,-44.500,1.000,578.000,4.500
1.486,-44.500,0.500,577.000,4.500
1.487,-44.500,0.000,576.500,4.000
1.488,-44.500,-0.500,576.000,3.500
1.489,-45.000,-1.000,575.500,3.000
1.490,-45.000,-1.000,574.500,2.500
1.491,-45.000,-1.500,573.500,2.000
1.492,-45.500,-2.500,572.500,1.000
1.493,-46.000,-3.000,571.000,0.500
1.494,-46.000,-4.000,570.500,0.000
1.495,-47.000,-4.500,570.000,0.000
1.496,-47.500,-4.500,570.500,0.500
1.497,-48.000,-4.500,570.500,1.000
1.498,-48.500,-4.500,570.500,1.000
1.499,-49.000,-4.500,570.500,1.000
1.500,-49.500,-4.500,570.000,1.000
1.501,-50.000,-4.500,569.500,0.500
1.502,-50.000,-4.500,569.500,0.500
1.503,-50.000,-4.500,569.000,0.500
1.504,-49.500,-4.500,569.000,0.500
1.505,-49.000,-4.000,569.000,0.500
1.506,-48.000,-3.500,569.500,0.500
1.507,-47.000,-3.000,569.500,1.000
1.508,-46.000,-2.500,569.500,1.000
1.509,-45.500,-2.500,569.500,1.500
1.510,-45.000,-2.000,569.500,2.000
1.511,-45.000,-2.000,569.500,2.000
1.512,-45.000,-2.000,569.000,1.500
1.513,-44.500,-2.500,568.000,1.000
1.514,-44.500,-2.000,568.000,1.000
1.515,-44.500,-2.000,568.000,1.000
1.516,-44.500,-1.500,568.500,2.000
1.517,-44.500,-1.000,569.000,2.500
1.518,-44.500,-0.500,569.500,3.000
1.519,-45.000,-0.500,569.500,3.500
1.520,-45.000,-0.500,569.500,3.500
1.521,-45.500,-0.500,569.500,4.000
1.522,-45.500,-0.500,569.500,4.000
1.523,-45.500,-0.500,569.500,4.000
1.524,-46.000,-1.000,569.000,3.500
1.525,-46.000,-1.000,569.000,3.500
1.526,-45.500,-1.000,569.000,3.500
1.527,-45.500,-1.000,568.500,3.500
1.528,-45.000,-1.000,568.000,3.000
1.529,-44.500,-1.000,567.000,2.000
1.530,-44.000,-1.500,566.000,1.500
1.531,-44.000,-2.000,565.000,0.500
1.532,-44.000,-2.500,564.500,0.000
1.533,-44.000,-2.500,565.000,0.000
1.534,-44.500,-3.000,565.000,0.000
1.535,-45.000,-3.000,565.000,0.000
1.536,-45.500,-3.500,565.500,0.500
1.537,-46.000,-3.500,566.000,1.000
1.538,-46.500,-3.000,566.500,2.000
1.539,-47.000,-2.500,567.000,2.500
1.540,-47.500,-2.000,567.500,3.500
1.541,-47.500,-2.000,567.500,4.000
1.542,-48.000,-1.500,567.500,4.000
1.543,-48.000,-1.500,567.500,4.500
1.544,-48.000,-1.500,567.500,4.000
1.545,-48.000,-2.000,567.000,4.000
1.546,-47.500,-2.000,566.500,3.500
1.547,-47.000,-2.000,565.500,2.500
1.548,-46.500,-2.500,564.000,1.500
1.549,-46.000,-3.500,562.500,0.000
1.550,-45.500,-4.000,561.000,-1.500
1.551,-45.000,-4.500,560.000,-2.000
1.552,-45.000,-4.000,560.000,-2.000
1.553,-45.000,-4.000,560.500,-1.000
1.554,-45.000,-3.000,561.500,0.000
1.555,-45.000,-3.000,562.500,0.500
1.556,-45.000,-2.500,563.000,1.000
1.557,-45.000,-2.500,562.500,1.000
1.558,-45.500,-2.500,562.500,1.000
1.559,-45.500,-3.000,561.500,0.500
1.560,-46.000,-3.000,561.500,0.500
1.561,-46.000,-3.000,561.000,0.500
1.562,-46.500,-3.500,561.000,0.500
1.563,-47.000,-3.500,560.500,0.500
1.564,-47.500,-3.500,560.500,0.500
1.565,-47.500,-4.000,560.500,0.000
1.566,-48.000,-4.000,560.000,0.000
1.567,-48.000,-4.000,560.000,0.000
1.568,-47.500,-4.000,560.000,0.000
1.569,-47.500,-4.000,560.000,0.000
1.570,-47.000,-4.500,559.500,-0.500
1.571,-47.000,-4.500,559.000,-0.500
1.572,-46.500,-4.500,558.500,-0.500
1.573,-46.000,-4.500,558.500,-0.500
1.574,-46.000,-4.500,558.500,-0.500
1.575,-45.500,-4.500,558.000,-0.500
1.576,-45.500,-4.000,558.500,0.000
1.577,-46.000,-3.500,559.500,1.000
1.578,-46.500,-3.000,560.500,2.000
1.579,-46.500,-2.500,561.000,3.000
1.580,-47.000,-2.500,561.500,3.500
1.581,-47.500,-2.500,561.500,3.500
1.582,-47.500,-2.500,561.000,3.000
1.583,-47.500,-3.000,559.500,2.500
1.584,-47.500,-3.500,558.500,1.000
1.585,-47.500,-4.000,557.000,0.000
1.586,-47.500,-4.500,556.500,-0.500
1.587,-47.500,-5.000,556.000,-1.000
1.588,-47.000,-5.000,556.000,-1.000
1.589,-46.500,-5.000,555.500,-0.500
1.590,-45.500,-5.000,555.000,-1.000
1.591,-45.000,-5.000,554.500,-1.500
1.592,-44.500,-5.500,553.500,-2.500
1.593,-44.000,-5.500,553.000,-2.500
1.594,-44.000,-5.500,553.500,-2.500
1.595,-44.500,-5.500,554.000,-2.000
1.596,-44.500,-5.000,555.000,-1.000
1.597,-45.000,-4.000,556.500,0.000
1.598,-45.000,-3.500,557.500,1.000
1.599,-45.500,-3.000,558.000,2.000
1.600,-45.500,-2.500,558.000,2.500
1.601,-45.500,-2.000,558.500,2.500
1.602,-45.500,-2.000,558.500,3.000
1.603,-45.500,-1.500,559.000,3.500
1.604,-45.000,-1.500,559.000,3.500
1.605,-45.000,-1.500,558.500,3.000
1.606,-45.000,-2.000,558.000,2.500
1.607,-45.500,-2.500,557.000,1.500
1.608,-45.500,-3.000,556.000,1.000
1.609,-45.000,-3.500,555.000,0.000
1.610,-44.500,-4.000,554.000,-1.500
1.611,-44.000,-4.500,552.500,-2.500
1.612,-43.500,-5.000,551.000,-4.000
1.613,-43.000,-6.000,550.000,-4.500
1.614,-43.500,-6.000,549.500,-4.500
1.615,-43.500,-6.000,549.500,-4.500
1.616,-43.500,-5.500,550.000,-4.000
1.617,-43.500,-5.500,550.000,-4.000
1.618,-44.000,-5.000,550.500,-3.500
1.619,-44.000,-4.500,551.000,-3.000
1.620,-44.500,-4.500,552.000,-2.000
1.621,-45.000,-4.000,552.500,-1.500
1.622,-45.000,-4.000,552.500,-1.000
1.623,-45.000,-4.000,552.500,-1.000
1.624,-45.000,-4.000,552.000,-1.500
1.625,-44.500,-4.000,551.500,-2.000
1.626,-44.500,-4.500,551.500,-2.000
1.627,-44.000,-4.500,551.500,-2.000
1.628,-44.000,-4.500,551.500,-2.000
1.629,-44.000,-4.500,551.500,-2.000
1.630,-44.000,-5.000,551.500,-2.000
1.631,-44.000,-5.000,551.000,-2.000
1.632,-44.000,-5.500,550.500,-2.500
1.633,-44.500,-5.500,550.000,-3.000
1.634,-45.000,-6.000,549.500,-3.500
1.635,-45.500,-6.500,549.500,-3.500
1.636,-45.500,-6.500,549.500,-3.000
1.637,-46.000,-6.500,549.500,-3.000
1.638,-46.500,-6.500,549.500,-3.000
1.639,-46.500,-6.000,549.500,-2.500
1.640,-46.500,-6.000,549.000,-2.500
1.641,-46.500,-6.000,548.500,-3.000
1.642,-46.500,-6.000,548.000,-3.000
1.643,-46.500,-6.000,547.000,-3.500
1.644,-46.500,-6.000,546.500,-4.500
1.645,-47.000,-6.500,545.500,-5.000
1.646,-47.000,-7.000,545.000,-5.500
1.647,-47.000,-7.000,544.500,-6.000
1.648,-47.000,-7.500,544.500,-6.000
1.649,-47.000,-7.500,544.500,-6.000
1.650,-46.500,-7.500,544.000,-6.000
1.651,-46.500,-8.000,544.000,-6.000
1.652,-46.500,-8.000,544.500,-6.000
1.653,-46.500,-8.000,544.500,-5.500
1.654,-46.500,-8.000,545.000,-5.000
1.655,-47.000,-8.000,545.000,-5.000
1.656,-47.000,-8.500,545.000,-5.000
1.657,-47.500,-8.500,545.000,-5.000
1.658,-47.500,-8.500,544.000,-6.000
1.659,-48.000,-9.000,542.500,-7.000
1.660,-48.500,-9.500,541.000,-8.000
1.661,-48.500,-10.000,540.000,-9.000
1.662,-49.000,-10.500,539.500,-9.500
1.663,-50.000,-11.000,539.000,-10.000
1.664,-50.500,-11.500,538.500,-10.000
1.665,-51.000,-12.500,537.500,-11.000
1.666,-52.000,-13.000,536.500,-12.000
1.667,-52.000,-14.000,535.500,-12.500
1.668,-52.500,-14.500,535.000,-13.500
1.669,-52.500,-15.000,534.000,-14.000
1.670,-52.500,-15.500,533.500,-15.000
1.671,-52.500,-16.000,532.500,-15.500
1.672,-53.000,-16.500,532.500,-15.500
1.673,-53.000,-16.500,532.500,-15.000
1.674,-53.000,-16.500,533.000,-14.500
1.675,-53.000,-16.000,533.500,-13.500
1.676,-53.500,-15.500,534.500,-12.500
1.677,-53.500,-15.500,535.000,-11.500
1.678,-53.500,-15.000,535.500,-11.000
1.679,-54.000,-15.000,536.000,-10.000
1.680,-54.000,-14.500,536.000,-9.500
1.681,-54.000,-14.000,536.500,-8.500
1.682,-54.000,-14.000,536.500,-7.500
1.683,-54.000,-13.000,537.500,-6.500
1.684,-54.000,-12.500,539.000,-4.500
1.685,-54.000,-11.500,540.000,-3.000
1.686,-53.500,-11.000,541.000,-2.000
1.687,-53.000,-11.000,541.000,-1.000
1.688,-52.000,-10.500,541.500,0.000
1.689,-50.500,-9.500,542.000,1.500
1.690,-49.000,-8.500,543.500,3.000
1.691,-47.500,-7.000,545.000,5.500
1.692,-45.500,-5.000,547.500,8.000
1.693,-44.000,-3.000,550.000,11.000
1.694,-42.000,-1.000,552.500,14.000
1.695,-41.000,1.500,554.500,16.500
1.696,-40.000,3.000,556.500,18.500
1.697,-39.000,5.000,559.000,21.000
1.698,-38.000,6.500,561.000,23.000
1.699,-37.500,8.000,563.000,25.000
1.700,-36.500,9.500,564.500,27.000
1.701,-35.500,11.000,566.000,28.500
1.702,-34.500,12.000,567.000,29.500
1.703,-33.500,13.000,567.500,30.000
1.704,-32.500,14.000,567.500,30.000
1.705,-31.500,14.000,566.500,29.500
1.706,-30.500,14.000,566.000,28.000
1.707,-29.500,14.000,565.000,26.500
1.708,-28.500,14.500,564.000,25.000
1.709,-27.500,14.500,563.500,23.500
1.710,-26.000,15.000,563.000,22.500
1.711,-25.500,15.000,562.500,21.500
1.712,-24.500,15.000,561.500,20.500
1.713,-24.000,15.000,561.000,19.500
1.714,-24.000,14.500,560.500,18.000
1.715,-24.000,14.000,559.500,17.000
1.716,-24.000,13.500,558.500,16.000
1.717,-24.500,13.000,558.000,14.500
1.718,-25.500,12.500,556.500,13.500
1.719,-26.500,11.500,555.000,12.000
1.720,-27.500,10.500,553.500,10.000
1.721,-28.500,9.000,551.500,8.000
1.722,-30.000,7.500,549.500,6.500
1.723,-31.000,6.000,547.500,4.500
1.724,-32.500,4.500,546.000,3.000
1.725,-33.500,3.000,544.000,1.500
1.726,-34.500,1.500,542.500,0.000
1.727,-35.500,0.500,540.500,-1.500
1.728,-36.000,-1.000,539.000,-2.500
1.729,-37.000,-2.500,537.500,-4.000
1.730,-38.000,-3.500,536.000,-5.000
1.731,-39.000,-4.500,534.500,-6.500
1.732,-39.500,-6.000,533.000,-8.000
1.733,-40.500,-7.000,531.000,-9.000
1.734,-41.500,-8.000,529.500,-10.500
1.735,-42.500,-9.000,529.000,-10.500
1.736,-43.500,-9.000,529.000,-10.500
1.737,-45.000,-9.500,529.500,-10.000
1.738,-45.500,-9.500,529.500,-9.500
1.739,-46.500,-10.000,529.000,-9.500
1.740,-47.000,-10.000,529.000,-10.000
1.741,-47.500,-10.000,528.500,-9.500
1.742,-48.000,-10.000,528.500,-9.500
1.743,-48.000,-10.000,528.000,-9.500
1.744,-48.000,-10.000,528.000,-9.500
1.745,-48.000,-10.000,527.500,-10.000
1.746,-48.000,-10.500,527.000,-10.500
1.747,-48.000,-11.000,526.500,-11.000
1.748,-48.000,-11.500,525.500,-12.000
1.749,-48.000,-11.500,525.000,-12.500
1.750,-48.000,-12.000,524.500,-12.500
1.751,-48.000,-12.500,524.500,-13.000
1.752,-48.000,-12.500,524.000,-13.500
1.753,-48.000,-13.000,523.000,-14.000
1.754,-48.000,-13.500,522.000,-14.500
1.755,-48.000,-14.000,521.500,-15.000
1.756,-48.500,-14.000,521.500,-15.000
1.757,-48.500,-13.500,522.000,-14.500
1.758,-49.000,-13.000,523.000,-13.500
1.759,-49.500,-12.500,523.500,-12.500
1.760,-50.000,-12.500,524.500,-12.000
1.761,-50.500,-12.000,524.500,-11.000
1.762,-51.500,-11.500,525.000,-10.500
1.763,-52.000,-11.500,525.500,-10.000
1.764,-52.000,-11.500,525.500,-10.000
1.765,-52.000,-11.500,525.000,-10.000
1.766,-51.500,-11.500,524.500,-10.500
1.767,-51.500,-11.500,524.000,-11.000
1.768,-51.000,-12.000,524.000,-11.000
1.769,-50.500,-12.000,523.500,-11.000
1.770,-50.000,-12.000,523.000,-11.500
1.771,-50.000,-12.500,522.500,-11.500
1.772,-50.000,-12.500,521.500,-12.500
1.773,-49.500,-13.000,520.500,-13.000
1.774,-49.500,-13.500,519.500,-14.000
1.775,-49.000,-13.500,518.500,-14.500
1.776,-49.000,-13.500,518.000,-15.000
1.777,-49.000,-13.500,518.000,-15.000
1.778,-49.000,-14.000,517.500,-15.500
1.779,-49.500,-14.000,517.000,-15.500
1.780,-50.000,-14.000,517.500,-15.000
1.781,-50.000,-13.500,518.500,-14.500
1.782,-50.500,-13.000,519.500,-13.500
1.783,-50.500,-12.500,520.000,-12.500
1.784,-51.000,-12.500,520.000,-12.500
1.785,-51.000,-12.500,519.500,-12.500
1.786,-51.000,-13.000,519.000,-13.000
1.787,-51.000,-13.000,518.500,-13.000
1.788,-51.000,-13.000,518.500,-13.000
1.789,-51.000,-13.000,518.000,-13.500
1.790,-50.500,-13.000,518.000,-13.500
1.791,-50.500,-13.000,517.500,-13.500
1.792,-50.000,-13.000,517.500,-13.500
1.793,-49.500,-13.000,517.500,-13.500
1.794,-49.000,-13.000,517.500,-13.500
1.795,-49.000,-12.500,518.000,-13.000
1.796,-49.500,-12.000,518.500,-12.500
1.797,-49.500,-12.000,519.000,-11.500
1.798,-50.000,-12.000,519.000,-11.000
1.799,-50.500,-12.000,519.000,-11.000
1.800,-51.000,-12.500,519.000,-11.000
1.801,-51.500,-12.500,518.500,-11.500
1.802,-51.500,-13.000,517.500,-11.500
1.803,-51.500,-13.000,517.500,-11.500
1.804,-51.500,-13.000,517.000,-12.000
1.805,-51.500,-13.500,516.500,-12.000
1.806,-51.000,-14.000,515.500,-13.000
1.807,-51.000,-14.500,514.000,-14.000
1.808,-50.500,-15.000,513.000,-15.000
1.809,-50.500,-15.500,512.000,-15.500
1.810,-50.500,-16.000,511.000,-16.500
1.811,-50.500,-16.500,510.000,-17.000
1.812,-51.000,-17.000,509.500,-17.000
1.813,-51.000,-17.000,509.500,-17.000
1.814,-51.000,-17.000,510.000,-16.500
1.815,-51.000,-17.000,511.000,-15.500
1.816,-51.000,-16.500,511.500,-15.000
1.817,-51.000,-16.500,512.000,-14.500
1.818,-51.000,-16.000,512.500,-14.000
1.819,-51.000,-15.500,512.500,-13.500
1.820,-51.000,-15.000,512.500,-13.500
1.821,-51.000,-15.000,512.500,-13.000
1.822,-51.000,-14.500,513.000,-12.000
1.823,-51.000,-14.000,513.500,-11.500
1.824,-51.000,-13.500,513.500,-11.000
1.825,-51.000,-13.500,513.500,-11.000
1.826,-51.000,-13.500,513.000,-11.500
1.827,-51.000,-14.000,512.500,-12.000
1.828,-51.000,-14.500,512.000,-12.000
1.829,-51.000,-15.000,511.500,-12.500
1.830,-51.000,-15.500,511.000,-13.000
1.831,-51.000,-16.000,510.500,-13.500
1.832,-50.500,-16.500,509.500,-14.000
1.833,-50.500,-16.500,509.000,-15.000
1.834,-50.000,-17.000,508.000,-15.500
1.835,-50.000,-17.000,507.500,-16.000
1.836,-50.000,-17.000,507.000,-16.000
1.837,-50.000,-17.000,507.000,-16.000
1.838,-50.000,-17.000,507.000,-16.000
1.839,-50.500,-17.000,506.500,-16.000
1.840,-50.500,-17.000,507.000,-15.500
1.841,-51.000,-16.500,507.000,-15.000
1.842,-51.500,-16.500,507.500,-14.500
1.843,-52.000,-16.500,507.500,-14.000
1.844,-52.000,-16.500,507.500,-14.000
1.845,-52.000,-16.500,507.000,-14.000
1.846,-52.000,-17.000,506.500,-14.000
1.847,-52.000,-17.000,506.000,-14.500
1.848,-52.000,-17.500,505.500,-14.500
1.849,-52.000,-18.000,505.000,-15.000
1.850,-51.500,-18.500,504.500,-15.500
1.851,-51.500,-18.500,504.500,-16.000
1.852,-51.000,-19.000,504.500,-15.500
1.853,-51.500,-19.000,504.500,-15.500
1.854,-51.500,-18.500,505.000,-15.000
1.855,-52.000,-18.500,505.500,-14.500
1.856,-52.000,-18.000,506.000,-14.000
1.857,-52.500,-17.500,506.500,-13.500
1.858,-52.000,-17.000,507.000,-13.000
1.859,-52.000,-17.000,507.000,-13.000
1.860,-52.000,-16.500,507.000,-13.000
1.861,-52.000,-16.500,507.000,-13.000
1.862,-52.500,-16.500,506.500,-13.000
1.863,-52.500,-16.500,505.500,-13.500
1.864,-52.000,-17.000,504.000,-14.500
1.865,-52.000,-17.500,503.000,-15.000
1.866,-52.000,-18.000,502.500,-15.500
1.867,-51.500,-18.000,502.000,-16.000
1.868,-51.500,-18.500,501.500,-16.500
1.869,-51.500,-19.000,501.000,-16.500
1.870,-51.000,-19.000,500.500,-17.000
1.871,-51.000,-19.500,500.000,-17.000
1.872,-51.000,-19.500,499.500,-17.000
1.873,-51.000,-19.500,500.000,-17.000
1.874,-51.000,-19.500,500.500,-16.500
1.875,-51.000,-19.000,501.500,-15.500
1.876,-51.000,-18.500,502.000,-14.500
1.877,-51.000,-18.000,502.500,-14.000
1.878,-51.000,-17.000,503.500,-13.000
1.879,-51.500,-16.500,504.000,-12.000
1.880,-51.500,-16.000,505.000,-11.000
1.881,-52.000,-15.500,506.000,-10.000
1.882,-52.000,-15.000,506.500,-9.000
1.883,-52.500,-14.500,507.000,-8.500
1.884,-52.500,-14.500,507.000,-8.000
1.885,-52.500,-14.500,507.000,-8.500
1.886,-52.500,-14.500,506.500,-8.500
1.887,-52.500,-15.000,506.000,-9.000
1.888,-52.000,-15.000,505.500,-9.500
1.889,-51.500,-15.500,505.000,-10.000
1.890,-51.000,-16.000,504.000,-11.000
1.891,-50.500,-16.000,502.500,-11.500
1.892,-50.500,-16.500,501.500,-12.000
1.893,-50.000,-17.000,501.000,-12.500
1.894,-50.000,-16.500,500.500,-12.500
1.895,-50.000,-16.500,500.500,-12.500
1.896,-49.500,-16.000,501.000,-12.000
1.897,-49.500,-16.000,501.000,-11.500
1.898,-49.000,-15.500,501.500,-11.000
1.899,-49.000,-15.000,502.000,-10.500
1.900,-49.500,-14.500,502.500,-9.500
1.901,-49.500,-14.500,503.000,-8.500
1.902,-50.000,-14.000,503.500,-8.000
1.903,-50.000,-14.000,503.500,-7.500
1.904,-50.000,-13.500,503.500,-7.500
1.905,-50.000,-13.500,503.000,-7.500
1.906,-50.000,-13.500,503.000,-7.500
1.907,-49.500,-13.500,502.000,-8.000
1.908,-49.000,-13.500,501.500,-8.500
1.909,-48.500,-14.000,501.000,-9.000
1.910,-48.500,-14.000,500.500,-9.000
1.911,-48.000,-14.000,500.500,-9.000
1.912,-47.500,-14.000,500.500,-9.000
1.913,-47.000,-13.500,501.000,-8.500
1.914,-46.500,-13.000,502.000,-7.500
1.915,-46.500,-12.500,503.000,-7.000
1.916,-46.500,-12.000,503.500,-6.000
1.917,-46.500,-11.500,504.500,-5.500
1.918,-47.000,-11.500,504.500,-5.500
1.919,-47.500,-11.500,504.500,-5.000
1.920,-48.000,-11.500,505.000,-4.500
1.921,-48.500,-11.500,505.500,-4.000
1.922,-48.500,-11.000,506.000,-3.000
1.923,-48.500,-10.500,506.500,-2.500
1.924,-48.000,-10.000,506.500,-2.000
1.925,-48.000,-9.500,506.500,-2.000
1.926,-47.500,-9.500,506.000,-2.000
1.927,-47.000,-9.500,505.500,-2.000
1.928,-47.000,-9.500,505.000,-2.500
1.929,-46.500,-10.000,504.500,-2.500
1.930,-46.500,-10.000,504.000,-2.500
1.931,-46.000,-10.500,503.500,-3.000
1.932,-45.500,-10.500,503.000,-3.000
1.933,-45.500,-10.500,502.500,-3.000
1.934,-45.000,-10.500,501.500,-3.500
1.935,-45.000,-10.500,501.000,-4.000
1.936,-45.000,-10.500,500.500,-4.000
1.937,-45.000,-10.500,500.500,-4.000
1.938,-45.000,-10.000,500.500,-3.500
1.939,-45.000,-10.000,500.500,-3.000
1.940,-45.000,-9.500,501.000,-2.500
1.941,-45.000,-9.000,501.500,-2.000
1.942,-45.000,-8.500,502.000,-1.500
1.943,-45.000,-8.000,502.500,-1.000
1.944,-45.500,-8.000,502.500,-1.000
1.945,-45.500,-8.500,502.000,-1.500
1.946,-45.500,-9.000,501.000,-2.000
1.947,-45.500,-9.500,500.500,-2.500
1.948,-45.000,-10.000,499.500,-3.000
1.949,-45.000,-10.500,499.000,-3.500
1.950,-45.000,-11.000,498.500,-4.000
1.951,-45.000,-11.500,497.500,-4.500
1.952,-45.000,-12.000,496.500,-5.000
1.953,-45.500,-12.500,495.500,-6.000
1.954,-46.000,-13.500,494.000,-6.500
1.955,-46.500,-14.000,493.500,-7.000
1.956,-47.500,-14.500,493.000,-7.000
1.957,-48.000,-15.000,492.500,-7.500
1.958,-48.500,-15.000,492.000,-7.500
1.959,-49.000,-15.000,492.000,-7.500
1.960,-49.000,-15.500,492.000,-7.500
1.961,-49.500,-15.500,491.500,-7.500
1.962,-50.000,-15.500,491.500,-8.000
1.963,-50.000,-15.500,491.000,-8.000
1.964,-49.500,-15.500,491.000,-8.500
1.965,-49.000,-15.000,491.000,-8.500
1.966,-48.500,-14.500,491.500,-8.000
1.967,-47.500,-14.000,491.500,-7.500
1.968,-47.000,-13.500,492.000,-7.500
1.969,-46.500,-13.500,492.000,-7.500
1.970,-46.000,-13.000,491.500,-8.000
1.971,-45.500,-13.000,491.500,-8.500
1.972,-45.500,-13.000,491.500,-8.500
1.973,-46.000,-13.500,491.500,-8.500
1.974,-46.000,-13.500,491.000,-8.500
1.975,-46.500,-13.500,491.000,-8.500
1.976,-46.500,-14.000,490.500,-9.000
1.977,-47.000,-14.000,490.500,-9.000
1.978,-47.500,-13.500,490.500,-9.000
1.979,-48.000,-13.500,490.500,-9.000
1.980,-48.000,-13.500,490.500,-9.000
1.981,-48.500,-13.500,490.500,-9.000
1.982,-49.000,-13.500,490.500,-9.000
1.983,-49.500,-13.500,491.000,-8.500
1.984,-50.000,-13.500,491.000,-8.500
1.985,-50.000,-14.000,490.500,-8.500
1.986,-50.000,-14.500,490.000,-9.000
1.987,-50.000,-15.000,489.000,-10.000
1.988,-49.500,-15.000,487.500,-11.000
1.989,-49.000,-15.500,486.500,-12.000
1.990,-48.500,-16.000,485.500,-13.000
1.991,-48.500,-16.000,485.000,-13.500
1.992,-48.000,-16.000,484.000,-14.000
1.993,-48.000,-16.000,483.500,-14.000
1.994,-48.000,-16.500,483.500,-14.500
1.995,-48.000,-16.500,483.000,-14.500
1.996,-48.500,-16.500,483.000,-14.500
1.997,-48.500,-16.500,483.000,-14.500
1.998,-48.500,-16.500,483.000,-14.000
1.999,-48.500,-16.000,483.000,-13.500
2.000,-48.500,-16.000,483.000,-13.500
2.001,-48.500,-15.500,483.000,-13.500
2.002,-48.500,-15.500,483.000,-13.500
2.003,-49.000,-15.500,482.500,-13.500
2.004,-49.000,-15.500,482.500,-13.500
2.005,-49.000,-15.500,482.500,-14.000
2.006,-49.000,-15.500,482.500,-14.000
2.007,-48.500,-15.500,482.500,-13.500
2.008,-48.500,-15.500,483.000,-13.500
2.009,-48.500,-15.500,483.000,-13.000
2.010,-48.500,-15.500,483.000,-12.500
2.011,-48.000,-15.500,483.000,-12.500
2.012,-48.000,-16.000,483.000,-12.500
2.013,-48.000,-16.000,482.500,-12.500
2.014,-48.000,-16.000,482.500,-12.500
2.015,-48.000,-16.000,483.000,-12.500
2.016,-48.500,-16.000,483.000,-12.000
2.017,-48.500,-16.000,483.000,-12.000
2.018,-49.000,-16.000,483.000,-12.000
2.019,-49.500,-16.000,482.500,-12.000
2.020,-49.500,-16.000,482.000,-12.000
2.021,-49.500,-16.500,481.000,-12.500
2.022,-49.500,-16.500,480.000,-13.000
2.023,-50.000,-16.500,479.500,-13.500
2.024,-50.000,-16.500,479.500,-13.500
2.025,-50.000,-16.500,479.000,-13.500
2.026,-50.000,-17.000,478.500,-13.500
2.027,-50.000,-17.000,478.000,-14.500
2.028,-49.500,-17.500,477.000,-15.000
2.029,-49.000,-18.000,476.500,-15.000
2.030,-48.500,-18.000,476.500,-15.500
2.031,-48.500,-18.500,475.500,-16.000
2.032,-48.000,-19.000,475.000,-16.500
2.033,-48.000,-19.000,475.000,-17.000
2.034,-47.500,-19.000,475.000,-17.000
2.035,-47.500,-18.500,475.000,-17.000
2.036,-47.500,-18.500,475.000,-16.500
2.037,-47.500,-18.000,475.500,-16.500
2.038,-47.500,-18.000,475.500,-16.000
2.039,-47.500,-17.500,476.000,-15.500
2.040,-48.000,-17.000,476.500,-14.500
2.041,-48.000,-17.000,477.000,-14.000
2.042,-48.500,-16.500,477.000,-13.500
2.043,-48.500,-16.500,477.000,-13.500
2.044,-48.000,-16.000,477.500,-13.000
2.045,-48.000,-15.500,477.500,-12.500
2.046,-47.500,-15.500,478.000,-12.000
2.047,-47.500,-15.000,478.000,-12.000
2.048,-47.000,-15.000,477.500,-12.000
2.049,-47.000,-15.500,477.500,-12.000
2.050,-46.500,-16.000,477.000,-12.500
2.051,-46.500,-16.500,476.500,-12.500
2.052,-46.500,-17.000,476.000,-13.000
2.053,-47.000,-17.000,476.000,-13.500
2.054,-47.000,-17.500,476.000,-14.000
2.055,-47.000,-17.500,475.500,-14.000
2.056,-47.500,-17.500,475.500,-14.000
2.057,-47.500,-17.500,474.500,-14.500
2.058,-48.000,-18.000,473.500,-15.000
2.059,-48.000,-18.000,472.500,-15.500
2.060,-48.000,-18.500,471.500,-16.000
2.061,-48.000,-18.500,471.000,-16.500
2.062,-47.500,-18.000,470.500,-16.500
2.063,-47.500,-18.000,470.500,-16.000
2.064,-47.500,-17.500,471.000,-15.500
2.065,-47.500,-17.500,470.500,-16.000
2.066,-47.500,-18.000,470.000,-16.000
2.067,-47.500,-18.500,469.500,-16.500
2.068,-47.500,-19.500,468.500,-17.000
2.069,-47.500,-20.000,468.000,-17.500
2.070,-47.500,-20.000,467.000,-18.000
2.071,-47.000,-20.500,466.500,-18.500
2.072,-47.000,-20.500,466.000,-18.500
2.073,-46.500,-20.500,465.500,-19.000
2.074,-46.500,-21.000,465.000,-19.500
2.075,-46.500,-20.500,465.000,-19.000
2.076,-47.000,-20.500,465.500,-19.000
2.077,-47.500,-20.500,465.500,-18.500
2.078,-48.000,-20.000,465.500,-18.000
2.079,-48.500,-20.000,465.500,-18.000
2.080,-49.000,-19.500,466.000,-17.500
2.081,-49.000,-19.500,465.500,-17.500
2.082,-49.000,-19.500,466.000,-17.500
2.083,-49.000,-19.000,466.000,-17.000
2.084,-48.500,-19.000,466.500,-16.500
2.085,-48.500,-19.000,467.000,-16.000
2.086,-48.500,-19.500,466.500,-16.500
2.087,-48.500,-19.500,466.000,-17.000
2.088,-48.000,-20.000,465.000,-17.500
2.089,-48.500,-20.000,464.500,-17.500
2.090,-48.500,-20.000,464.000,-18.000
2.091,-48.500,-20.500,464.000,-17.500
2.092,-48.000,-20.500,464.500,-17.000
2.093,-48.000,-20.500,465.000,-16.500
2.094,-48.000,-20.000,465.500,-16.000
2.095,-48.000,-20.000,465.500,-15.500
2.096,-48.000,-19.500,466.000,-15.500
2.097,-48.000,-19.000,465.500,-15.500
2.098,-48.000,-19.000,465.000,-16.000
2.099,-48.500,-19.500,464.000,-16.000
2.100,-48.500,-19.500,463.500,-16.500
2.101,-49.000,-19.500,463.000,-17.000
2.102,-49.000,-20.000,463.000,-17.000
2.103,-49.000,-20.000,462.500,-17.500
2.104,-49.000,-20.000,462.000,-17.500
2.105,-49.000,-20.000,462.000,-17.500
2.106,-48.500,-20.000,462.000,-17.500
2.107,-48.500,-20.000,462.000,-17.500
2.108,-48.000,-20.500,461.500,-18.000
2.109,-48.000,-21.000,461.000,-18.500
2.110,-47.500,-21.000,460.500,-19.000
2.111,-47.500,-21.500,459.500,-19.500
2.112,-47.500,-21.500,459.000,-20.000
2.113,-47.500,-22.000,459.000,-20.000
2.114,-47.500,-21.500,459.500,-19.500
2.115,-48.000,-21.500,459.500,-19.000
2.116,-48.500,-21.500,460.000,-18.500
2.117,-48.500,-21.000,460.000,-18.000
2.118,-49.000,-21.000,460.000,-17.500
2.119,-49.000,-21.000,460.000,-17.500
2.120,-49.000,-20.500,460.000,-17.000
2.121,-49.000,-20.500,460.000,-17.000
2.122,-48.500,-20.000,460.000,-16.500
2.123,-48.500,-20.000,460.000,-16.500
2.124,-48.500,-20.000,460.000,-17.000
2.125,-48.500,-20.000,459.500,-17.000
2.126,-48.500,-20.500,459.000,-17.500
2.127,-48.500,-21.000,458.500,-18.000
2.128,-48.500,-21.500,458.000,-18.500
2.129,-48.500,-22.000,457.500,-19.000
2.130,-48.000,-22.000,457.000,-19.000
2.131,-48.000,-22.000,457.000,-19.000
2.132,-47.500,-22.000,457.000,-19.000
2.133,-47.000,-22.000,457.000,-18.500
2.134,-46.500,-22.000,457.000,-18.500
2.135,-46.000,-21.500,457.500,-18.000
2.136,-46.000,-21.000,457.500,-17.500
2.137,-46.000,-21.000,457.500,-17.000
2.138,-46.000,-20.500,458.000,-17.000
2.139,-46.000,-20.000,458.000,-16.500
2.140,-46.000,-19.500,458.500,-16.000
2.141,-46.000,-19.500,459.000,-15.500
2.142,-46.500,-19.000,459.000,-15.500
2.143,-46.500,-19.000,459.000,-15.000
2.144,-47.000,-19.000,459.000,-15.000
2.145,-47.000,-19.000,459.500,-15.000
2.146,-47.500,-19.500,459.000,-15.500
2.147,-47.500,-19.500,459.000,-15.500
2.148,-47.500,-20.000,458.500,-16.000
2.149,-47.500,-20.000,458.000,-16.500
2.150,-47.500,-20.500,457.500,-17.000
2.151,-47.500,-21.000,456.500,-17.500
2.152,-47.000,-21.000,456.000,-18.000
2.153,-47.000,-21.000,455.500,-18.000
2.154,-47.500,-21.500,455.500,-18.500
2.155,-47.500,-21.500,455.500,-18.000
2.156,-48.000,-21.000,455.500,-18.000
2.157,-48.000,-21.000,456.000,-17.500
2.158,-48.000,-20.500,456.500,-17.000
2.159,-48.000,-20.000,456.500,-16.500
2.160,-48.000,-19.500,457.000,-16.000
2.161,-47.500,-19.000,457.000,-16.000
2.162,-47.500,-19.000,457.500,-15.500
2.163,-47.500,-19.000,458.500,-15.000
2.164,-47.500,-19.000,458.500,-15.000
2.165,-48.000,-19.000,458.000,-15.000
2.166,-47.500,-19.500,457.500,-15.500
2.167,-47.500,-19.500,456.500,-16.000
2.168,-47.500,-20.000,456.000,-16.000
2.169,-47.500,-20.500,455.500,-16.500
2.170,-47.000,-20.500,455.000,-17.000
2.171,-47.000,-21.000,454.500,-17.000
2.172,-46.500,-21.000,454.000,-17.500
2.173,-46.500,-21.500,453.500,-18.000
2.174,-46.500,-22.000,452.500,-18.500
2.175,-46.500,-22.000,451.500,-19.000
2.176,-46.500,-22.000,451.500,-19.500
2.177,-46.500,-22.000,451.000,-19.500
2.178,-47.000,-22.000,451.000,-19.500
2.179,-47.000,-22.500,450.500,-19.500
2.180,-47.500,-22.500,450.000,-19.500
2.181,-47.500,-22.500,450.000,-19.000
2.182,-48.000,-22.500,450.000,-18.500
2.183,-48.000,-22.000,450.500,-18.000
2.184,-48.500,-22.000,451.000,-17.500
2.185,-48.500,-22.500,451.000,-17.500
2.186,-48.500,-22.500,450.000,-17.500
2.187,-48.000,-23.000,449.500,-18.000
2.188,-47.500,-24.000,448.000,-19.000
2.189,-47.000,-24.000,447.000,-20.000
2.190,-47.000,-24.500,446.500,-20.500
2.191,-46.500,-24.000,446.500,-20.500
2.192,-46.500,-24.000,446.500,-20.000
2.193,-46.500,-24.500,446.500,-20.500
2.194,-47.000,-24.500,446.000,-20.500
2.195,-47.000,-24.500,445.500,-21.000
2.196,-47.500,-24.500,446.000,-20.500
2.197,-47.500,-24.000,447.000,-19.500
2.198,-47.500,-23.000,447.500,-18.500
2.199,-48.000,-23.000,448.500,-18.000
2.200,-48.500,-23.000,448.500,-17.500
2.201,-49.000,-23.000,448.500,-17.000
2.202,-49.000,-23.000,448.000,-17.500
2.203,-49.500,-23.000,447.500,-17.500
2.204,-49.000,-23.000,447.500,-17.500
2.205,-49.000,-23.500,447.000,-18.000
2.206,-48.000,-23.500,446.000,-18.500
2.207,-47.500,-23.500,445.500,-19.500
2.208,-47.500,-24.000,444.500,-20.000
2.209,-47.000,-24.000,444.000,-20.500
2.210,-47.000,-24.500,443.500,-20.500
2.211,-47.000,-24.500,443.500,-20.500
2.212,-47.500,-25.000,443.500,-20.500
2.213,-47.500,-25.000,443.000,-20.500
2.214,-47.500,-25.000,443.000,-20.500
2.215,-47.500,-25.000,443.000,-20.500
2.216,-47.000,-24.500,443.000,-20.000
2.217,-47.000,-24.000,443.000,-20.000
2.218,-47.000,-24.000,443.000,-19.500
2.219,-47.500,-23.500,443.500,-19.000
2.220,-47.500,-23.000,444.000,-18.500
2.221,-48.000,-22.500,445.000,-17.500
2.222,-48.000,-22.000,445.500,-16.500
2.223,-48.000,-22.000,446.000,-16.000
2.224,-48.000,-22.000,445.500,-16.000
2.225,-48.000,-22.000,445.000,-16.500
2.226,-48.000,-22.500,445.000,-17.000
2.227,-48.000,-22.500,444.500,-17.000
2.228,-48.000,-23.000,444.000,-17.500
2.229,-48.000,-23.500,443.500,-17.500
2.230,-48.000,-24.000,443.000,-17.500
2.231,-48.000,-24.500,443.000,-17.500
2.232,-48.000,-24.500,443.000,-17.500
2.233,-48.000,-24.000,443.000,-17.000
2.234,-47.500,-24.000,443.000,-17.000
2.235,-47.500,-23.500,443.500,-17.000
2.236,-47.500,-23.500,443.000,-17.000
2.237,-47.500,-23.500,443.000,-17.000
2.238,-47.500,-23.500,442.500,-17.500
2.239,-47.500,-23.000,442.500,-17.500
2.240,-47.500,-23.000,442.500,-17.500
2.241,-47.500,-22.500,442.500,-17.500
2.242,-48.000,-22.500,442.500,-17.000
2.243,-48.000,-22.000,442.500,-17.000
2.244,-48.000,-22.500,442.000,-17.500
2.245,-47.500,-22.500,441.000,-18.000
2.246,-47.500,-23.000,440.000,-19.000
2.247,-47.000,-24.000,439.500,-19.500
2.248,-47.000,-24.500,439.000,-20.000
2.249,-47.000,-24.500,439.000,-20.000
2.250,-47.000,-24.500,439.000,-20.000
2.251,-47.000,-24.500,439.000,-19.500
2.252,-47.000,-24.500,439.500,-19.000
2.253,-47.000,-24.000,440.000,-18.500
2.254,-47.000,-24.000,440.500,-17.500
2.255,-47.000,-23.500,441.000,-17.000
2.256,-47.000,-23.500,441.500,-16.500
2.257,-47.000,-23.000,442.000,-16.500
2.258,-47.000,-22.500,442.500,-16.000
2.259,-47.000,-22.000,442.500,-16.000
2.260,-47.500,-22.000,443.000,-15.500
2.261,-48.000,-22.000,443.000,-15.500
2.262,-48.500,-22.000,443.000,-15.000
2.263,-49.000,-22.000,443.000,-15.500
2.264,-49.000,-22.500,442.000,-16.000
2.265,-49.000,-23.500,441.000,-16.500
2.266,-49.000,-24.000,439.500,-18.000
2.267,-48.500,-24.500,438.500,-19.000
2.268,-48.000,-24.500,437.500,-19.500
2.269,-47.500,-24.500,437.500,-19.500
2.270,-47.500,-24.500,437.500,-19.000
2.271,-47.500,-24.500,437.500,-19.000
2.272,-47.500,-24.500,437.500,-18.500
2.273,-47.500,-24.500,437.500,-18.500
2.274,-47.500,-25.000,437.500,-18.500
2.275,-47.500,-25.000,438.000,-18.000
2.276,-47.500,-24.500,438.000,-17.500
2.277,-47.500,-24.500,438.500,-17.000
2.278,-47.500,-24.500,439.000,-16.500
2.279,-48.000,-24.000,439.000,-16.000
2.280,-48.000,-24.000,439.000,-16.000
2.281,-48.000,-23.500,439.500,-15.500
2.282,-48.000,-23.500,439.000,-15.500
2.283,-48.000,-23.500,438.500,-15.500
2.284,-47.500,-23.500,438.000,-16.500
2.285,-47.000,-24.000,436.500,-17.500
2.286,-47.000,-24.500,435.500,-18.500
2.287,-46.500,-25.000,434.000,-19.000
2.288,-46.500,-25.500,433.500,-19.500
2.289,-46.500,-25.500,433.000,-20.000
2.290,-46.500,-26.000,432.000,-20.500
2.291,-46.000,-26.500,431.000,-21.000
2.292,-46.000,-26.500,430.000,-22.000
2.293,-45.500,-27.000,429.000,-22.500
2.294,-45.500,-27.000,429.000,-22.500
2.295,-45.500,-26.500,429.000,-22.500
2.296,-45.500,-26.000,429.500,-21.500
2.297,-45.500,-25.500,430.500,-21.000
2.298,-45.500,-25.000,431.000,-20.500
2.299,-45.500,-24.500,431.500,-20.000
2.300,-45.000,-24.000,431.500,-19.500
2.301,-45.500,-24.000,432.500,-19.000
2.302,-46.000,-23.500,433.000,-18.000
2.303,-46.500,-23.000,434.000,-17.000
2.304,-46.500,-23.000,434.000,-16.500
2.305,-46.500,-23.000,434.000,-16.500
2.306,-46.500,-23.000,433.500,-17.000
2.307,-46.000,-23.500,433.000,-17.500
2.308,-46.000,-23.500,432.500,-18.000
2.309,-46.000,-24.000,432.500,-18.000
2.310,-46.000,-24.000,432.000,-18.500
2.311,-45.500,-24.500,431.500,-18.500
2.312,-45.500,-24.500,431.500,-19.000
2.313,-45.000,-25.000,431.000,-19.500
2.314,-45.000,-25.000,430.000,-20.000
2.315,-45.000,-25.000,429.000,-20.000
2.316,-45.000,-25.000,429.000,-20.500
2.317,-45.000,-25.000,429.000,-20.000
2.318,-45.500,-24.500,429.500,-19.500
2.319,-45.500,-24.000,430.500,-19.000
2.320,-45.000,-23.500,431.000,-18.000
2.321,-45.000,-23.000,431.500,-17.500
2.322,-45.000,-22.500,431.500,-17.000
2.323,-44.500,-22.000,431.500,-16.500
2.324,-44.500,-22.000,431.500,-16.500
2.325,-44.000,-22.000,431.000,-17.000
2.326,-43.500,-22.000,430.500,-17.500
2.327,-43.000,-22.000,430.000,-18.000
2.328,-43.000,-22.000,430.500,-17.500
2.329,-42.500,-22.000,430.500,-17.500
2.330,-42.500,-22.000,431.000,-17.000
2.331,-42.500,-22.000,431.000,-16.500
2.332,-43.000,-22.000,431.500,-16.500
2.333,-43.000,-22.000,431.500,-16.000
2.334,-43.000,-22.000,431.500,-16.000
2.335,-43.000,-22.000,431.000,-16.000
2.336,-43.500,-22.000,430.500,-16.000
2.337,-43.500,-22.500,430.000,-16.500
2.338,-43.500,-22.500,429.000,-17.000
2.339,-44.000,-22.500,428.500,-17.500
2.340,-44.000,-23.000,428.000,-17.500
2.341,-44.000,-22.500,428.000,-17.500
2.342,-44.500,-22.500,428.000,-17.000
2.343,-44.500,-22.000,428.500,-16.500
2.344,-44.000,-22.000,429.000,-16.500
2.345,-44.000,-22.000,428.500,-17.000
2.346,-44.000,-22.500,427.500,-18.000
2.347,-43.500,-23.000,427.000,-18.500
2.348,-43.500,-23.000,426.500,-18.500
2.349,-43.000,-23.500,426.500,-18.500
2.350,-42.500,-23.500,426.500,-18.500
2.351,-42.500,-23.000,426.500,-18.000
2.352,-42.000,-23.000,427.000,-17.500
2.353,-42.000,-22.500,427.000,-17.000
2.354,-42.000,-22.000,427.500,-17.000
2.355,-42.000,-22.000,427.500,-17.000
2.356,-42.000,-22.500,427.000,-17.000
2.357,-42.000,-22.500,426.500,-17.500
2.358,-42.000,-22.500,426.000,-18.000
2.359,-42.500,-22.500,426.000,-18.000
2.360,-42.500,-22.500,426.000,-17.500
2.361,-42.500,-22.500,425.500,-17.500
2.362,-42.500,-22.500,425.500,-17.500
2.363,-42.500,-22.500,425.000,-17.500
2.364,-42.500,-23.000,425.000,-18.000
2.365,-42.500,-23.000,424.500,-18.000
2.366,-42.000,-23.000,424.500,-18.000
2.367,-42.000,-23.000,424.500,-18.000
2.368,-42.000,-23.000,424.500,-17.500
2.369,-42.000,-23.000,425.000,-17.500
2.370,-42.000,-23.000,425.500,-17.000
2.371,-42.500,-23.500,425.500,-17.000
2.372,-42.500,-24.000,425.000,-17.000
2.373,-42.000,-24.000,425.000,-17.000
2.374,-41.500,-23.500,424.500,-17.500
2.375,-41.500,-23.500,424.500,-17.500
2.376,-41.000,-23.500,424.000,-18.000
2.377,-41.000,-23.500,423.500,-18.000
2.378,-41.500,-23.500,423.500,-18.000
2.379,-41.500,-23.500,423.500,-18.000
2.380,-42.000,-23.000,423.500,-17.500
2.381,-42.500,-23.000,423.500,-17.500
2.382,-42.500,-23.000,423.500,-17.000
2.383,-42.500,-23.000,423.000,-17.000
2.384,-42.500,-23.500,423.000,-17.000
2.385,-43.000,-23.500,422.500,-17.000
2.386,-43.000,-24.000,422.000,-17.500
2.387,-43.000,-24.500,421.000,-18.500
2.388,-43.000,-25.500,419.500,-20.000
2.389,-43.000,-26.500,417.500,-21.500
2.390,-43.500,-27.000,416.500,-22.500
2.391,-44.000,-28.000,416.000,-23.000
2.392,-44.500,-28.500,415.500,-23.500
2.393,-45.000,-29.000,415.000,-24.000
2.394,-46.000,-29.500,414.500,-24.500
2.395,-46.500,-30.000,414.000,-25.000
2.396,-46.500,-30.000,414.000,-25.000
2.397,-47.000,-30.000,413.500,-25.000
2.398,-47.000,-30.000,413.500,-24.500
2.399,-47.000,-29.500,414.500,-23.500
2.400,-47.000,-28.500,416.000,-21.500
2.401,-47.000,-27.000,418.000,-19.500
2.402,-47.000,-26.000,419.500,-18.000
2.403,-46.500,-25.500,420.500,-16.500
2.404,-46.500,-25.000,420.500,-16.000
2.405,-46.000,-25.000,420.000,-15.500
2.406,-45.500,-25.500,419.500,-15.500
2.407,-45.000,-25.500,419.000,-15.500
2.408,-45.000,-25.500,418.500,-15.000
2.409,-44.500,-25.500,419.000,-14.000
2.410,-44.000,-25.000,420.000,-13.000
2.411,-43.500,-24.500,421.000,-11.500
2.412,-43.500,-23.500,422.000,-10.000
2.413,-43.000,-23.000,423.000,-8.500
2.414,-42.500,-22.500,423.500,-7.500
2.415,-42.000,-21.500,424.500,-6.000
2.416,-41.500,-20.500,426.000,-4.000
2.417,-40.500,-19.500,427.500,-2.000
2.418,-40.000,-18.000,430.000,1.000
2.419,-39.000,-16.000,432.500,4.000
2.420,-38.000,-14.000,436.000,7.500
2.421,-37.000,-11.500,438.500,11.000
2.422,-35.500,-10.000,441.000,13.500
2.423,-34.500,-8.000,443.000,15.500
2.424,-33.000,-6.500,444.500,17.500
2.425,-31.500,-5.000,446.000,19.000
2.426,-30.000,-3.500,447.000,20.500
2.427,-28.000,-1.500,448.500,22.500
2.428,-26.000,0.500,450.500,24.000
2.429,-24.500,2.000,451.500,25.000
2.430,-22.500,3.000,452.000,25.000
2.431,-21.000,4.000,452.000,24.500
2.432,-20.000,4.500,451.000,23.500
2.433,-19.000,5.000,450.500,21.500
2.434,-18.000,5.000,449.500,20.000
2.435,-17.000,5.500,449.000,19.000
2.436,-16.500,5.500,448.500,18.500
2.437,-15.500,6.000,448.500,18.000
2.438,-15.500,6.500,448.500,18.000
2.439,-15.000,7.000,448.500,17.500
2.440,-14.500,7.500,448.500,17.000
2.441,-14.500,7.000,447.500,16.000
2.442,-14.500,7.000,446.500,14.500
2.443,-14.500,6.000,445.000,13.000
2.444,-15.000,5.000,443.500,11.000
2.445,-15.500,4.000,441.500,9.000
2.446,-15.500,3.000,439.500,7.000
2.447,-16.000,1.500,437.500,5.000
2.448,-16.000,0.500,435.000,3.000
2.449,-16.500,-1.000,433.000,1.500
2.450,-17.000,-2.500,431.500,0.000
2.451,-17.500,-4.000,429.500,-1.500
2.452,-18.500,-5.000,428.000,-2.500
2.453,-19.500,-6.500,426.000,-4.000
2.454,-21.000,-8.000,424.500,-5.000
2.455,-22.500,-9.500,423.000,-6.000
2.456,-24.000,-10.500,422.000,-7.000
2.457,-25.500,-11.500,421.000,-7.500
2.458,-26.500,-12.000,420.500,-8.000
2.459,-28.000,-12.500,420.000,-8.500
2.460,-29.000,-13.000,419.500,-9.000
2.461,-29.500,-13.500,419.000,-9.000
2.462,-30.000,-14.000,418.500,-9.500
2.463,-31.000,-14.500,418.000,-9.500
2.464,-31.500,-15.000,417.500,-9.500
2.465,-32.000,-15.500,417.500,-10.000
2.466,-32.500,-16.000,417.000,-10.000
2.467,-32.500,-16.500,416.000,-10.500
2.468,-32.500,-17.000,415.500,-11.500
2.469,-32.500,-17.500,414.500,-12.000
2.470,-32.500,-18.000,414.000,-13.000
2.471,-32.500,-18.000,413.500,-13.500
2.472,-32.500,-18.500,413.500,-13.500
2.473,-33.000,-18.500,413.000,-14.000
2.474,-33.000,-18.500,412.500,-14.000
2.475,-33.000,-19.000,412.500,-14.000
2.476,-33.500,-19.000,412.000,-14.000
2.477,-33.500,-19.000,412.000,-14.000
2.478,-34.000,-19.000,412.000,-14.000
2.479,-34.000,-18.500,412.000,-13.500
2.480,-34.500,-18.500,412.000,-13.000
2.481,-34.500,-18.000,412.000,-13.000
2.482,-34.500,-18.000,411.500,-13.000
2.483,-34.500,-18.000,411.000,-13.500
2.484,-34.500,-18.000,411.500,-13.000
2.485,-34.500,-18.000,411.500,-12.500
2.486,-34.500,-17.500,412.000,-12.000
2.487,-34.500,-17.500,412.000,-12.000
2.488,-34.000,-18.000,412.000,-12.000
2.489,-34.000,-18.000,411.500,-12.500
2.490,-34.000,-18.500,411.000,-13.000
2.491,-34.000,-19.000,410.500,-13.500
2.492,-34.000,-19.500,409.500,-14.500
2.493,-34.000,-20.000,409.000,-15.000
2.494,-33.500,-19.500,409.000,-15.000
2.495,-33.500,-19.000,409.500,-14.000
2.496,-33.500,-18.500,410.500,-13.000
2.497,-33.500,-17.500,412.000,-11.500
2.498,-33.500,-16.500,413.500,-10.000
2.499,-33.500,-16.000,414.500,-9.000
2.500,-33.500,-15.500,415.000,-8.000
2.501,-33.500,-15.500,415.000,-8.000
2.502,-33.500,-15.500,414.500,-8.000
2.503,-33.500,-15.500,413.500,-8.500
2.504,-33.000,-15.500,413.000,-9.000
2.505,-33.000,-16.000,412.000,-9.500
2.506,-32.500,-16.000,412.000,-9.500
2.507,-32.500,-16.000,411.500,-10.000
2.508,-32.500,-16.000,411.500,-10.000
2.509,-32.500,-16.500,411.500,-10.000
2.510,-32.500,-16.500,411.000,-10.500
2.511,-32.500,-17.000,410.500,-11.500
2.512,-32.000,-17.500,409.000,-12.000
2.513,-32.000,-18.000,408.000,-13.000
2.514,-32.000,-18.000,408.000,-13.000
2.515,-32.000,-18.000,408.000,-13.000
2.516,-32.000,-18.000,408.500,-12.500
2.517,-32.500,-18.000,409.000,-12.000
2.518,-32.500,-17.500,409.500,-11.000
2.519,-33.000,-17.000,410.000,-10.500
2.520,-33.000,-17.000,410.500,-9.500
2.521,-33.000,-16.500,410.500,-9.500
2.522,-33.000,-16.500,410.500,-9.500
2.523,-33.000,-16.500,410.000,-9.500
2.524,-32.500,-16.500,409.500,-10.000
2.525,-32.500,-16.500,409.000,-10.000
2.526,-32.000,-17.000,408.500,-10.500
2.527,-32.000,-17.000,408.000,-11.000
2.528,-31.500,-17.000,408.000,-11.000
2.529,-31.500,-17.000,407.500,-11.500
2.530,-31.000,-17.500,407.000,-11.500
2.531,-30.500,-17.500,407.000,-11.500
2.532,-30.000,-17.500,407.000,-11.500
2.533,-29.500,-17.500,407.000,-11.000
2.534,-29.500,-17.000,407.000,-11.000
2.535,-29.500,-17.000,407.500,-10.500
2.536,-30.000,-16.500,408.000,-9.500
2.537,-30.500,-16.000,409.000,-8.500
2.538,-31.000,-16.000,409.500,-8.000
2.539,-31.500,-15.500,410.000,-7.500
2.540,-31.500,-15.000,410.500,-6.500
2.541,-32.000,-14.500,411.000,-6.000
2.542,-32.000,-14.000,411.500,-5.500
2.543,-32.000,-14.000,411.500,-5.000
2.544,-32.000,-14.000,412.000,-5.000
2.545,-32.000,-14.000,411.500,-5.500
2.546,-31.500,-14.500,411.500,-5.500
2.547,-31.500,-14.500,411.000,-6.000
2.548,-31.500,-15.000,410.500,-6.000
2.549,-31.500,-15.500,410.000,-6.500
2.550,-31.500,-15.500,409.500,-7.000
2.551,-31.500,-16.000,408.500,-7.500
2.552,-31.000,-16.500,407.000,-8.500
2.553,-31.000,-17.000,406.000,-9.500
2.554,-30.500,-17.500,404.500,-10.500
2.555,-30.500,-18.000,404.000,-11.000
2.556,-30.500,-18.000,404.000,-11.500
2.557,-31.000,-17.500,404.000,-11.000
2.558,-31.000,-17.500,404.000,-11.000
2.559,-31.000,-17.500,404.000,-11.000
2.560,-31.000,-17.000,404.000,-10.500
2.561,-31.000,-16.500,404.500,-10.000
2.562,-31.000,-16.000,405.000,-9.500
2.563,-30.500,-15.500,405.500,-9.000
2.564,-30.000,-15.000,405.500,-9.000
2.565,-29.500,-15.000,405.500,-9.000
2.566,-29.000,-15.500,404.500,-9.500
2.567,-29.000,-15.500,404.500,-9.500
2.568,-29.000,-15.500,404.500,-9.500
2.569,-29.000,-15.500,405.000,-9.000
2.570,-29.000,-15.500,405.000,-8.500
2.571,-28.500,-15.500,405.500,-8.000
2.572,-28.500,-15.500,405.000,-8.000
2.573,-28.500,-15.500,405.000,-8.000
2.574,-28.500,-15.000,405.000,-8.000
2.575,-28.500,-14.500,405.000,-7.500
2.576,-28.500,-14.500,405.000,-7.500
2.577,-28.500,-14.000,405.500,-7.000
2.578,-28.500,-13.500,405.500,-7.000
2.579,-29.000,-13.500,406.000,-6.500
2.580,-29.000,-13.000,407.000,-5.500
2.581,-29.500,-12.500,407.500,-5.000
2.582,-29.500,-12.000,408.000,-4.500
2.583,-29.500,-11.500,408.500,-3.500
2.584,-29.500,-11.500,409.000,-3.000
2.585,-29.000,-11.000,409.000,-2.500
2.586,-29.000,-11.000,409.000,-3.000
2.587,-28.500,-11.500,408.000,-3.500
2.588,-28.500,-12.000,407.000,-4.000
2.589,-28.000,-12.000,406.000,-5.000
2.590,-27.500,-12.500,405.500,-5.500
2.591,-27.000,-12.500,405.000,-5.500
2.592,-27.000,-12.500,405.000,-5.500
2.593,-26.500,-12.500,405.000,-5.500
2.594,-26.000,-12.500,404.500,-5.500
2.595,-26.000,-12.500,404.500,-5.500
2.596,-25.500,-12.500,404.000,-5.500
2.597,-25.500,-12.500,404.000,-5.500
2.598,-26.000,-12.500,404.500,-5.000
2.599,-26.500,-12.000,405.500,-4.500
2.600,-26.500,-11.000,406.500,-3.000
2.601,-27.000,-10.500,407.500,-2.000
2.602,-27.000,-10.000,408.500,-1.000
2.603,-27.000,-9.500,408.500,-0.500
2.604,-27.000,-9.000,409.000,0.000
2.605,-27.000,-8.500,409.500,0.500
2.606,-26.500,-8.500,410.000,1.000
2.607,-26.500,-8.000,410.000,1.500
2.608,-26.000,-8.000,410.000,1.500
2.609,-26.000,-8.500,409.500,1.000
2.610,-25.500,-8.500,409.000,0.500
2.611,-25.000,-9.000,409.000,0.500
2.612,-24.500,-9.000,408.500,0.500
2.613,-24.000,-8.500,408.500,1.000
2.614,-23.500,-8.000,409.000,1.000
2.615,-23.500,-7.500,409.500,1.500
2.616,-23.000,-7.000,409.500,2.000
2.617,-23.000,-7.000,410.000,2.500
2.618,-22.500,-6.500,410.000,2.500
2.619,-22.500,-6.000,410.000,3.000
2.620,-22.500,-5.500,410.500,4.000
2.621,-23.000,-5.000,411.500,4.500
2.622,-23.000,-4.500,412.000,5.500
2.623,-23.500,-4.500,412.500,6.000
2.624,-23.500,-4.500,412.500,6.000
2.625,-23.500,-4.500,412.500,6.000
2.626,-23.500,-4.500,412.000,6.000
2.627,-23.500,-5.000,411.000,6.000
2.628,-23.500,-5.000,410.500,5.500
2.629,-23.000,-5.500,410.000,5.500
2.630,-22.500,-5.500,410.000,5.500
2.631,-21.500,-5.500,410.000,5.500
2.632,-21.000,-5.500,409.500,5.500
2.633,-20.500,-5.000,409.500,5.500
2.634,-20.000,-5.000,409.000,5.000
2.635,-19.500,-5.000,408.500,4.500
2.636,-19.000,-4.500,408.000,4.000
2.637,-18.500,-4.500,408.000,4.500
2.638,-18.000,-4.000,408.000,4.500
2.639,-17.500,-3.500,408.500,5.000
2.640,-17.500,-3.000,408.500,5.500
2.641,-17.500,-3.000,409.500,6.500
2.642,-17.500,-2.500,410.000,7.500
2.643,-17.500,-2.000,411.000,8.500
2.644,-17.500,-1.000,412.000,9.500
2.645,-17.000,-1.000,412.500,10.000
2.646,-16.500,-0.500,412.500,10.000
2.647,-16.000,-1.000,412.000,10.000
2.648,-16.000,-1.000,411.500,9.500
2.649,-15.500,-1.500,411.000,9.500
2.650,-15.500,-1.500,411.000,9.500
2.651,-15.000,-1.500,411.000,9.500
2.652,-15.000,-1.500,411.000,9.500
2.653,-14.500,-1.000,411.000,9.000
2.654,-14.000,-1.000,411.000,9.000
2.655,-14.000,-1.000,411.000,9.000
2.656,-14.000,-1.000,410.500,9.000
2.657,-14.500,-1.000,410.500,9.000
2.658,-15.000,-1.000,410.500,9.500
2.659,-15.500,-1.000,411.000,10.000
2.660,-15.500,-0.500,412.000,11.500
2.661,-15.500,0.000,413.000,12.500
2.662,-15.500,1.000,414.000,14.000
2.663,-15.500,1.500,415.000,15.000
2.664,-15.500,2.000,416.000,16.000
2.665,-15.500,2.000,416.500,16.500
2.666,-15.500,2.000,416.500,17.000
2.667,-15.000,2.000,416.500,16.500
2.668,-14.500,2.000,416.500,16.500
2.669,-14.500,2.000,416.000,16.000
2.670,-14.000,2.000,415.500,16.000
2.671,-13.500,2.000,415.500,16.000
2.672,-13.500,2.000,415.500,16.000
2.673,-13.000,2.000,415.000,16.000
2.674,-13.000,2.000,415.000,16.000
2.675,-13.500,2.000,415.000,16.500
2.676,-13.500,2.000,415.000,16.500
2.677,-14.000,2.500,415.500,17.000
2.678,-14.000,2.500,415.500,17.000
2.679,-14.000,3.000,416.000,17.500
2.680,-14.000,3.000,416.000,18.000
2.681,-14.500,3.000,416.000,18.000
2.682,-14.000,3.000,415.500,17.500
2.683,-14.000,2.500,414.500,17.000
2.684,-14.000,2.000,414.000,16.500
2.685,-14.000,2.000,413.500,16.000
2.686,-14.000,1.500,412.500,15.500
2.687,-14.000,1.500,412.000,15.000
2.688,-14.000,1.000,412.000,15.000
2.689,-14.000,1.000,411.500,15.000
2.690,-14.000,1.000,411.500,15.000
2.691,-14.000,0.500,411.500,15.000
2.692,-14.000,0.500,411.000,14.500
2.693,-14.500,0.000,410.500,14.000
2.694,-14.500,-0.500,409.500,13.500
2.695,-14.500,-0.500,409.000,13.000
2.696,-14.500,-0.500,408.500,12.500
2.697,-15.000,-0.500,408.500,12.500
2.698,-15.000,-0.500,408.500,12.500
2.699,-15.000,-0.500,408.000,12.500
2.700,-14.500,0.000,408.000,12.000
2.701,-14.500,0.000,408.000,12.000
2.702,-14.500,0.500,408.000,12.000
2.703,-14.500,0.500,408.500,12.500
2.704,-14.500,0.500,408.000,12.000
2.705,-14.000,0.000,407.500,11.500
2.706,-14.000,-0.500,407.000,11.000
2.707,-13.500,-1.000,406.000,10.500
2.708,-13.500,-1.500,405.500,10.000
2.709,-13.500,-2.000,405.000,9.500
2.710,-13.000,-2.000,404.000,8.500
2.711,-13.000,-2.500,403.500,8.000
2.712,-13.000,-2.500,403.000,7.500
2.713,-13.000,-3.000,402.500,7.500
2.714,-13.000,-3.000,402.000,7.500
2.715,-13.000,-2.500,402.000,7.500
2.716,-13.000,-2.500,402.500,8.000
2.717,-13.000,-2.000,402.500,8.500
2.718,-12.500,-1.500,403.000,8.500
2.719,-12.500,-1.000,403.500,9.000
2.720,-12.000,-1.000,403.500,9.500
2.721,-12.000,-0.500,403.500,9.500
2.722,-12.000,0.000,403.500,9.500
2.723,-11.500,0.500,404.000,9.500
2.724,-11.500,1.000,404.000,10.000
2.725,-11.500,1.000,404.500,10.000
2.726,-11.500,1.000,404.500,10.000
2.727,-11.500,0.000,404.000,9.500
2.728,-12.000,-0.500,403.500,9.500
2.729,-12.000,-1.000,403.000,9.000
2.730,-12.000,-1.500,402.500,9.000
2.731,-12.000,-1.500,402.500,9.000
2.732,-12.000,-1.500,402.000,9.000
2.733,-12.000,-2.000,401.500,8.500
2.734,-12.000,-2.000,401.000,8.500
2.735,-12.500,-2.000,401.000,8.000
2.736,-12.500,-2.000,401.500,8.500
2.737,-12.500,-1.500,402.000,9.000
2.738,-12.500,-1.000,402.500,9.500
2.739,-12.500,-0.500,402.500,10.000
2.740,-12.500,-0.500,402.500,10.000
2.741,-12.000,-0.500,402.000,9.500
2.742,-12.000,-0.500,401.500,9.000
2.743,-11.500,-0.500,401.000,8.500
2.744,-11.500,-1.000,400.000,8.000
2.745,-11.500,-1.000,399.500,8.000
2.746,-11.000,-1.000,399.500,8.000
2.747,-10.500,-1.500,399.000,8.000
2.748,-10.000,-1.500,398.500,7.500
2.749,-9.000,-1.000,398.500,7.000
2.750,-8.500,-1.000,398.000,7.000
2.751,-8.000,-1.000,398.000,7.000
2.752,-8.000,-1.000,398.000,7.000
2.753,-8.000,-1.000,397.500,6.500
2.754,-8.500,-1.500,397.500,6.500
2.755,-9.000,-2.000,397.000,6.500
2.756,-9.500,-2.000,397.000,6.500
2.757,-10.000,-2.000,397.000,7.000
2.758,-10.500,-2.000,397.000,7.000
2.759,-11.000,-2.000,397.500,7.500
2.760,-11.500,-2.000,397.500,8.000
2.761,-11.500,-2.000,398.000,8.500
2.762,-11.500,-1.500,398.000,8.500
2.763,-11.000,-1.000,398.500,9.000
2.764,-10.500,-0.500,398.500,9.500
2.765,-10.000,0.000,398.500,9.500
2.766,-9.500,0.500,398.500,9.500
2.767,-9.000,1.000,398.500,9.500
2.768,-8.500,0.500,398.000,9.500
2.769,-8.500,0.500,397.500,8.500
2.770,-8.000,0.000,396.500,8.000
2.771,-7.500,0.000,396.000,8.000
2.772,-7.500,0.000,396.000,7.500
2.773,-7.500,0.000,396.500,8.000
2.774,-7.500,0.500,397.000,8.500
2.775,-7.500,1.000,398.000,9.000
2.776,-8.000,1.500,398.500,9.500
2.777,-8.000,1.500,399.500,10.500
2.778,-8.000,2.000,400.000,11.500
2.779,-8.000,2.500,401.000,12.500
2.780,-8.000,3.000,401.500,13.000
2.781,-7.500,3.500,402.000,13.500
2.782,-7.500,3.500,402.500,14.000
2.783,-7.500,4.000,402.500,14.000
2.784,-7.000,4.000,402.000,13.500
2.785,-7.000,3.500,401.000,13.000
2.786,-6.500,3.000,400.000,12.500
2.787,-6.000,2.500,398.000,11.000
2.788,-5.500,2.000,396.500,10.000
2.789,-5.000,1.500,395.500,9.500
2.790,-5.000,1.500,395.500,9.000
2.791,-4.500,1.500,395.500,9.000
2.792,-4.000,1.500,395.500,8.500
2.793,-4.000,1.500,395.000,8.500
2.794,-3.500,1.500,395.000,8.500
2.795,-3.500,1.500,395.000,9.000
2.796,-3.500,2.000,395.000,9.000
2.797,-4.000,2.000,395.500,9.500
2.798,-4.000,2.500,395.500,10.000
2.799,-4.000,2.500,396.000,10.500
2.800,-4.000,3.000,396.000,11.000
2.801,-4.000,3.000,397.000,12.000
2.802,-4.000,3.500,397.500,13.000
2.803,-4.000,4.000,398.000,13.500
2.804,-4.000,4.500,398.000,14.000
2.805,-3.500,4.500,398.000,14.000
2.806,-3.500,4.500,398.000,14.000
2.807,-3.000,4.500,398.000,14.000
2.808,-3.000,4.500,398.000,14.000
2.809,-2.500,4.500,397.500,13.500
2.810,-2.500,4.000,397.500,13.500
2.811,-2.500,4.000,397.000,13.000
2.812,-2.500,3.500,397.000,13.000
2.813,-2.500,3.500,397.000,13.500
2.814,-2.500,3.500,397.500,14.000
2.815,-2.500,4.000,398.000,14.500
2.816,-3.000,4.000,398.500,15.000
2.817,-3.000,4.000,398.500,15.000
2.818,-3.000,4.000,398.500,15.500
2.819,-3.000,4.500,398.500,15.000
2.820,-2.500,4.500,398.000,15.000
2.821,-2.500,5.000,398.000,15.500
2.822,-2.000,5.500,398.000,16.000
2.823,-2.000,6.000,398.500,16.500
2.824,-1.500,7.000,399.000,17.000
2.825,-1.500,7.500,399.500,17.500
2.826,-1.000,7.500,399.500,17.500
2.827,-0.500,7.500,399.000,17.000
2.828,-0.500,7.000,398.000,16.500
2.829,0.000,6.500,397.000,16.000
2.830,0.000,6.000,396.000,15.500
2.831,0.000,5.500,395.500,15.000
2.832,0.000,5.000,395.000,15.000
2.833,0.000,5.000,394.500,15.000
2.834,0.000,5.000,394.500,15.000
2.835,0.000,5.000,395.000,15.000
2.836,0.000,5.000,395.000,15.500
2.837,0.000,5.500,395.500,15.500
2.838,0.000,6.000,396.000,16.000
2.839,0.000,6.500,396.000,16.500
2.840,-0.500,7.000,397.000,17.500
2.841,-0.500,7.500,397.000,18.000
2.842,-1.000,7.500,397.500,18.500
2.843,-1.000,8.000,397.500,18.500
2.844,-1.000,8.000,397.500,19.000
2.845,-0.500,8.000,397.500,19.000
2.846,-0.500,8.000,397.500,19.500
2.847,0.000,7.500,397.500,19.500
2.848,0.000,7.500,397.000,19.000
2.849,0.500,7.000,396.500,18.500
2.850,0.500,6.500,395.500,18.000
2.851,1.000,6.500,395.000,18.000
2.852,1.000,6.500,395.000,17.500
2.853,1.500,6.500,395.000,18.000
2.854,1.500,7.000,395.000,18.500
2.855,1.500,7.500,396.000,19.000
2.856,1.500,8.000,396.500,20.000
2.857,1.500,8.500,397.500,21.000
2.858,1.500,8.500,398.000,21.500
2.859,1.500,9.000,398.500,22.500
2.860,1.500,9.500,399.000,23.000
2.861,1.500,10.000,399.000,23.000
2.862,1.500,10.500,399.500,23.500
2.863,1.500,10.500,399.500,23.500
2.864,1.500,11.000,399.000,23.000
2.865,2.000,10.500,398.500,22.500
2.866,2.500,10.500,397.500,21.500
2.867,3.000,10.000,396.000,21.000
2.868,3.000,9.500,395.000,20.000
2.869,3.500,9.000,393.500,19.000
2.870,3.500,8.000,392.500,18.500
2.871,3.000,7.500,391.500,17.500
2.872,3.000,6.500,390.500,17.000
2.873,2.500,6.000,390.000,16.500
2.874,2.000,5.500,389.500,16.500
2.875,1.000,5.000,389.000,16.500
2.876,0.500,5.000,389.000,16.500
2.877,0.000,5.000,389.000,16.500
2.878,-0.500,5.000,389.500,17.000
2.879,-1.000,5.500,390.000,17.500
2.880,-1.000,5.500,390.000,17.500
2.881,-1.000,6.000,390.500,18.500
2.882,-1.000,7.000,391.000,19.000
2.883,0.000,8.000,392.000,20.000
2.884,1.000,8.500,392.500,20.500
2.885,2.000,9.500,392.500,20.500
2.886,3.000,10.000,392.500,20.500
2.887,3.500,10.000,392.500,20.500
2.888,4.000,10.500,392.500,20.500
2.889,4.500,10.500,392.500,20.500
2.890,5.000,10.500,392.500,20.500
2.891,5.500,10.500,392.500,20.500
2.892,6.000,10.000,392.500,20.000
2.893,6.000,10.000,392.500,20.000
2.894,6.000,10.500,393.000,20.500
2.895,6.000,10.500,393.000,21.000
2.896,5.500,10.500,393.500,21.000
2.897,5.500,11.000,393.500,21.500
2.898,5.500,11.000,393.500,22.000
2.899,5.500,11.500,393.500,22.000
2.900,5.500,11.500,393.500,22.500
2.901,5.500,12.000,393.000,22.500
2.902,5.000,12.000,392.500,22.500
2.903,5.000,12.000,392.500,22.500
2.904,4.500,12.000,392.000,22.000
2.905,4.500,12.000,392.000,22.000
2.906,4.500,12.000,391.500,22.000
2.907,4.500,11.500,391.500,21.500
2.908,4.500,11.000,391.000,21.000
2.909,4.500,10.500,389.500,20.000
2.910,4.500,9.500,388.500,19.500
2.911,4.500,9.500,388.000,19.000
2.912,4.500,9.500,387.500,19.500
2.913,5.000,9.500,388.000,20.000
2.914,5.000,10.000,389.000,21.000
2.915,5.500,11.000,390.500,22.000
2.916,5.500,12.000,392.000,23.000
2.917,6.000,12.500,393.000,24.500
2.918,6.000,13.000,393.500,25.500
2.919,6.000,13.500,394.500,26.500
2.920,6.000,14.000,395.000,27.000
2.921,5.500,14.500,395.000,27.500
2.922,5.500,15.000,395.500,28.000
2.923,5.500,15.000,395.500,28.500
2.924,5.500,15.000,395.500,28.500
2.925,5.500,14.500,394.500,28.000
2.926,5.500,14.500,393.500,27.000
2.927,6.000,14.000,392.500,26.000
2.928,6.500,13.500,392.000,25.000
2.929,6.500,13.500,391.500,25.000
2.930,7.000,13.500,392.000,25.000
2.931,7.000,13.500,392.000,25.500
2.932,7.500,14.000,392.500,26.000
2.933,7.500,13.500,392.500,26.500
2.934,7.500,14.000,393.000,26.500
2.935,7.500,14.000,393.000,27.000
2.936,7.000,14.000,393.000,27.500
2.937,7.000,14.500,393.500,28.000
2.938,7.000,14.500,393.500,28.500
2.939,6.500,14.500,393.500,29.000
2.940,6.500,14.500,393.500,29.000
2.941,6.500,14.500,393.000,29.500
2.942,6.500,14.500,392.500,29.500
2.943,6.500,14.500,391.500,29.000
2.944,7.000,14.500,390.500,28.000
2.945,7.000,14.000,389.500,27.500
2.946,7.000,13.500,388.000,26.000
2.947,7.500,13.000,387.000,25.000
2.948,7.500,12.500,386.000,24.500
2.949,7.500,12.500,385.500,24.000
2.950,8.000,12.500,385.500,24.000
2.951,8.000,12.500,385.500,24.500
2.952,8.000,12.500,386.000,24.500
2.953,8.500,12.500,386.000,25.000
2.954,8.500,12.500,385.500,25.000
2.955,9.000,12.500,385.500,25.000
2.956,9.000,12.500,385.500,25.000
2.957,9.000,12.500,385.000,24.500
2.958,8.500,13.000,385.000,24.500
2.959,8.500,13.000,385.000,25.000
2.960,8.500,13.500,385.000,25.000
2.961,8.500,13.500,384.500,25.000
2.962,8.500,14.000,384.500,25.500
2.963,8.000,14.000,385.000,25.500
2.964,8.000,13.500,385.000,25.500
2.965,7.500,13.500,385.000,25.000
2.966,7.500,13.000,384.500,24.500
2.967,7.500,12.500,383.500,24.000
2.968,7.500,12.000,382.500,23.000
2.969,7.500,11.500,382.000,22.500
2.970,8.000,11.500,381.500,22.500
2.971,7.500,11.000,381.500,22.500
2.972,7.500,10.500,381.500,22.500
2.973,7.000,10.000,381.000,22.500
2.974,7.000,10.000,381.000,22.500
2.975,6.500,9.500,380.500,22.500
2.976,6.500,10.000,381.000,22.500
2.977,6.000,10.000,382.000,23.500
2.978,5.500,11.000,383.000,24.500
2.979,5.000,11.500,383.500,25.000
2.980,4.500,11.500,384.000,25.500
2.981,4.500,12.000,384.500,26.000
2.982,4.000,12.000,384.500,26.500
2.983,4.000,12.000,384.500,26.500
2.984,3.500,12.000,384.500,26.500
2.985,3.500,12.000,384.500,26.500
2.986,4.000,11.500,383.500,26.000
2.987,4.000,11.000,383.000,25.500
2.988,4.000,10.500,382.000,24.500
2.989,4.000,10.000,381.000,24.000
2.990,3.500,9.500,380.000,23.500
2.991,3.500,9.000,379.500,23.000
2.992,3.000,8.500,379.000,23.000
2.993,3.000,8.500,378.500,22.500
2.994,3.500,8.500,378.000,22.000
2.995,3.500,8.500,377.000,21.500
2.996,3.500,8.500,377.000,21.500
2.997,3.500,8.500,377.000,22.000
2.998,3.500,9.000,377.500,22.500
2.999,3.000,9.500,378.000,23.000
3.000,3.000,9.500,378.000,23.000
3.001,3.000,9.500,378.000,22.500
3.002,3.000,10.000,378.000,22.500
3.003,3.500,10.000,378.000,22.500
3.004,3.500,10.000,378.000,23.000
3.005,3.500,10.000,377.500,22.500
3.006,3.500,10.000,376.500,22.000
3.007,4.000,9.500,375.500,21.500
3.008,4.000,9.000,374.500,21.000
3.009,4.000,8.500,374.500,20.500
3.010,4.000,8.000,374.000,20.500
3.011,3.500,8.000,374.000,20.500
3.012,3.500,7.500,374.000,20.000
3.013,3.500,7.500,373.500,20.000
3.014,3.500,7.500,373.500,20.000
3.015,4.000,8.000,373.500,20.500
3.016,4.500,8.500,374.000,21.000
3.017,4.500,9.000,375.000,22.000
3.018,4.500,9.500,376.000,23.000
3.019,4.500,10.000,377.000,23.500
3.020,4.500,10.000,377.500,24.000
3.021,4.500,10.500,377.500,24.000
3.022,5.000,10.500,377.500,24.000
3.023,5.000,11.000,377.500,24.000
3.024,5.000,11.000,377.500,24.500
3.025,5.000,11.000,377.500,24.500
3.026,5.500,11.000,377.000,24.500
3.027,5.500,10.500,377.000,24.500
3.028,5.500,10.500,377.000,24.500
3.029,5.500,10.500,377.000,24.500
3.030,5.500,10.500,376.500,24.500
3.031,5.500,10.500,376.500,24.500
3.032,6.000,10.500,376.500,24.500
3.033,6.500,10.500,376.000,25.000
3.034,6.500,10.500,376.000,25.000
3.035,7.000,10.500,376.000,25.000
3.036,6.500,10.500,376.000,25.000
3.037,6.500,10.500,376.000,25.000
3.038,6.000,10.500,375.500,25.000
3.039,6.000,10.500,375.500,25.000
3.040,6.000,10.500,375.500,25.500
3.041,5.500,10.500,375.500,25.500
3.042,5.500,11.000,375.500,25.500
3.043,5.500,11.000,375.500,25.500
3.044,6.000,11.000,375.500,25.500
3.045,6.000,11.000,375.000,25.000
3.046,6.000,11.000,374.500,25.000
3.047,6.500,10.500,374.000,24.000
3.048,7.000,10.000,373.000,23.500
3.049,7.000,9.500,371.500,22.000
3.050,7.500,8.500,369.500,20.500
3.051,7.500,7.500,368.000,19.500
3.052,7.500,7.000,367.500,19.500
3.053,7.500,7.000,367.500,19.500
3.054,7.500,7.500,367.500,20.000
3.055,7.500,7.500,368.000,20.500
3.056,7.500,8.000,368.500,20.500
3.057,7.500,8.000,368.500,21.000
3.058,7.000,8.000,369.000,21.000
3.059,7.000,8.500,369.000,21.000
3.060,7.000,8.500,369.000,21.000
3.061,6.500,8.500,368.500,20.500
3.062,6.500,8.500,367.500,20.000
3.063,6.500,8.000,367.000,19.500
3.064,6.500,8.000,367.000,20.000
3.065,6.000,8.000,367.500,20.500
3.066,6.000,8.000,368.000,20.500
3.067,6.000,8.000,368.000,21.000
3.068,6.500,7.500,367.500,20.500
3.069,6.500,7.000,366.500,20.000
3.070,6.500,6.500,366.000,19.500
3.071,7.000,6.000,365.500,19.500
3.072,7.000,6.000,365.500,19.500
3.073,7.500,6.000,365.500,19.500
3.074,7.500,6.500,366.000,20.000
3.075,8.000,6.500,365.500,20.000
3.076,7.500,6.500,365.500,20.000
3.077,7.500,6.500,365.500,20.000
3.078,7.500,7.000,366.000,20.500
3.079,7.500,7.500,366.500,21.500
3.080,7.000,8.000,367.000,22.000
3.081,7.000,8.500,367.500,22.500
3.082,7.000,8.500,368.000,23.000
3.083,7.000,9.000,368.500,23.500
3.084,7.000,9.000,368.500,23.500
3.085,7.000,8.500,368.000,23.500
3.086,7.000,8.000,367.500,23.000
3.087,7.500,8.000,366.500,22.000
3.088,7.500,7.500,365.500,21.000
3.089,7.500,7.000,364.500,20.500
3.090,7.500,6.500,364.000,20.000
3.091,7.500,6.000,363.000,19.500
3.092,7.000,5.500,362.500,19.000
3.093,6.500,5.000,362.500,18.500
3.094,6.000,4.500,362.000,18.000
3.095,5.000,3.500,361.500,17.500
3.096,4.500,3.000,361.500,17.000
3.097,3.500,2.500,360.500,16.500
3.098,2.500,1.500,360.000,16.000
3.099,2.000,1.000,359.000,16.000
3.100,1.500,1.000,359.000,16.000
3.101,1.000,1.000,359.000,16.500
3.102,0.500,1.000,359.500,17.500
3.103,0.500,1.000,360.000,18.000
3.104,0.500,1.500,360.000,18.500
3.105,1.000,2.000,360.000,19.000
3.106,1.000,2.000,360.000,19.500
3.107,2.000,2.000,360.000,19.500
3.108,2.500,2.000,359.500,19.500
3.109,3.000,2.000,359.500,20.000
3.110,3.000,2.000,360.000,21.500
3.111,3.000,2.500,361.500,23.000
3.112,3.000,3.000,363.000,24.500
3.113,3.000,4.000,364.500,26.500
3.114,3.000,4.500,366.000,28.000
3.115,3.000,5.000,367.000,29.500
3.116,2.500,5.500,368.500,30.500
3.117,2.500,6.000,369.500,32.000
3.118,2.500,7.000,371.000,34.000
3.119,3.000,8.500,372.500,36.500
3.120,4.500,10.500,375.000,39.500
3.121,6.000,12.500,377.500,42.500
3.122,8.000,14.500,380.000,45.500
3.123,9.500,16.500,383.000,48.000
3.124,11.500,18.500,385.000,50.500
3.125,13.000,20.000,387.000,52.000
3.126,14.500,21.500,388.000,53.500
3.127,16.000,22.000,388.000,54.000
3.128,17.500,23.000,388.000,54.500
3.129,18.500,23.500,388.000,55.000
3.130,19.500,24.000,388.500,56.000
3.131,20.500,25.000,389.500,57.000
3.132,21.500,26.000,390.000,58.000
3.133,22.500,27.000,390.500,58.500
3.134,23.500,27.500,391.000,59.000
3.135,24.500,28.000,391.000,58.500
3.136,25.000,28.500,390.500,57.500
3.137,25.500,28.500,389.500,56.000
3.138,26.500,29.000,389.000,55.000
3.139,27.000,29.500,388.000,54.000
3.140,28.000,29.500,387.500,53.000
3.141,28.500,29.500,386.500,52.000
3.142,29.500,29.500,386.000,51.000
3.143,29.500,29.500,385.500,50.500
3.144,30.000,30.000,385.000,49.500
3.145,30.000,30.000,384.000,48.500
3.146,30.000,29.500,383.000,47.500
3.147,30.000,29.000,381.500,45.500
3.148,30.000,28.000,379.500,43.500
3.149,30.000,27.000,377.500,41.500
3.150,29.500,25.500,375.500,39.500
3.151,28.500,23.500,373.500,37.500
3.152,27.500,22.000,371.500,35.500
3.153,26.500,20.500,370.000,34.000
3.154,25.500,19.000,369.000,33.000
3.155,24.000,18.000,368.000,32.000
3.156,22.500,17.000,367.500,31.500
3.157,21.000,16.000,366.500,30.500
3.158,19.500,15.000,365.500,30.000
3.159,18.000,14.000,364.500,29.000
3.160,16.500,13.000,364.000,28.500
3.161,15.000,12.500,363.000,28.000
3.162,14.000,11.500,362.500,28.000
3.163,13.000,11.000,362.000,27.500
3.164,12.000,10.000,361.500,27.000
3.165,11.000,9.500,360.500,26.500
3.166,10.000,9.000,360.000,25.500
3.167,9.000,8.000,359.000,25.000
3.168,8.500,7.500,358.500,25.000
3.169,8.500,7.000,358.000,24.500
3.170,8.000,6.500,357.500,24.500
3.171,8.000,5.500,357.000,24.000
3.172,7.500,5.000,356.500,23.000
3.173,7.500,4.500,355.500,22.500
3.174,7.000,4.500,355.000,22.500
3.175,6.500,4.000,354.500,22.000
3.176,6.000,4.000,354.500,22.500
3.177,6.000,4.500,354.000,22.500
3.178,5.500,4.500,354.000,22.500
3.179,5.000,4.000,353.500,22.500
3.180,5.000,4.000,353.000,22.000
3.181,5.000,3.500,352.000,21.500
3.182,5.000,3.500,351.500,21.500
3.183,5.000,3.500,351.000,21.000
3.184,5.000,3.500,351.000,21.000
3.185,5.500,3.500,350.500,21.000
3.186,5.500,3.500,350.500,21.000
3.187,6.000,3.000,350.000,20.500
3.188,6.500,2.500,349.500,20.000
3.189,6.500,2.000,348.500,19.500
3.190,6.500,1.500,347.500,18.500
3.191,6.500,1.500,347.000,18.500
3.192,6.500,1.500,347.000,18.500
3.193,6.500,1.000,347.000,18.000
3.194,6.000,1.000,346.500,18.000
3.195,6.000,1.500,347.000,18.500
3.196,6.000,1.500,347.000,18.500
3.197,5.500,1.500,347.000,19.000
3.198,5.500,2.000,347.500,19.500
3.199,5.000,2.500,347.500,20.000
3.200,5.000,2.500,347.500,20.500
3.201,5.000,3.000,347.500,21.000
3.202,4.500,3.000,347.500,21.000
3.203,4.500,2.500,347.500,21.000
3.204,4.500,2.500,347.500,21.000
3.205,4.500,2.000,347.000,20.500
3.206,4.500,1.500,346.000,19.500
3.207,4.500,1.000,345.000,18.500
3.208,4.500,0.500,344.000,17.500
3.209,5.000,0.000,343.000,16.500
3.210,5.000,-0.500,342.500,16.500
3.211,5.000,-0.500,342.500,16.500
3.212,5.000,-0.500,342.500,17.000
3.213,4.500,0.000,343.500,18.000
3.214,4.500,0.000,344.000,18.500
3.215,4.500,0.500,344.000,19.000
3.216,4.500,0.500,344.000,19.000
3.217,4.500,0.500,343.500,19.000
3.218,4.500,0.500,343.000,18.500
3.219,4.500,1.000,342.500,18.500
3.220,4.500,1.000,343.000,19.000
3.221,4.000,1.000,343.000,19.500
3.222,3.500,1.500,343.500,20.000
3.223,3.500,1.500,344.000,20.500
3.224,3.500,1.000,344.000,20.000
3.225,3.500,0.500,343.500,19.500
3.226,3.500,0.000,342.500,18.500
3.227,3.500,-1.000,341.500,17.500
3.228,3.500,-1.000,340.500,17.000
3.229,4.000,-1.000,340.000,17.000
3.230,4.500,-1.000,340.000,16.500
3.231,4.500,-1.000,339.500,16.500
3.232,5.000,-1.500,339.000,16.500
3.233,4.500,-1.500,339.500,16.500
3.234,4.500,-1.500,339.500,17.000
3.235,4.000,-1.500,340.000,17.500
3.236,3.500,-1.000,340.000,18.000
3.237,3.500,-1.000,340.500,19.000
3.238,3.000,-0.500,341.000,19.500
3.239,3.000,0.000,342.000,20.500
3.240,3.000,0.500,343.000,21.500
3.241,3.000,1.000,343.500,22.000
3.242,2.500,1.500,344.000,22.500
3.243,2.500,1.500,344.000,22.500
3.244,2.000,1.500,343.500,22.000
3.245,2.000,1.000,342.500,21.500
3.246,2.000,0.500,341.000,20.500
3.247,2.500,-0.500,339.500,19.500
3.248,2.500,-1.000,338.500,19.000
3.249,3.000,-1.500,337.500,18.500
3.250,3.000,-1.500,337.000,18.000
3.251,3.000,-1.500,337.000,18.000
3.252,3.500,-2.000,337.000,18.000
3.253,3.500,-2.000,336.500,17.500
3.254,3.500,-2.500,335.500,17.000
3.255,3.500,-3.000,335.000,16.500
3.256,3.500,-3.000,334.500,16.000
3.257,3.000,-2.500,335.000,16.500
3.258,2.500,-2.000,336.000,17.500
3.259,2.000,-1.500,337.000,19.000
3.260,2.000,-0.500,338.500,20.500
3.261,1.500,0.000,340.000,22.000
3.262,1.000,1.000,341.000,23.000
3.263,1.000,1.500,341.500,23.500
3.264,1.000,1.500,341.500,23.500
3.265,1.000,1.500,341.000,23.500
3.266,1.000,1.500,340.500,23.000
3.267,1.500,1.000,340.000,23.000
3.268,1.500,1.000,339.500,22.500
3.269,2.000,0.500,339.000,22.000
3.270,2.000,0.500,338.000,21.500
3.271,2.500,0.000,337.500,20.500
3.272,3.000,0.000,336.500,20.000
3.273,3.500,-0.500,336.000,19.000
3.274,4.000,-0.500,335.000,18.500
3.275,4.500,-1.000,335.000,18.000
3.276,4.500,-1.000,334.500,18.000
3.277,4.500,-1.000,334.500,18.500
3.278,4.500,-1.000,334.500,18.500
3.279,4.000,-0.500,334.500,19.000
3.280,3.500,0.000,335.000,19.500
3.281,3.000,0.000,335.500,20.500
3.282,3.000,0.500,336.500,21.000
3.283,3.000,1.000,336.500,21.500
3.284,3.000,1.000,336.500,21.500
3.285,3.000,1.000,336.000,21.500
3.286,3.500,1.000,335.500,20.500
3.287,3.500,0.500,334.500,20.000
3.288,4.000,0.500,334.000,20.000
3.289,4.000,0.000,333.500,19.500
3.290,4.000,0.000,333.500,19.500
3.291,4.000,-0.500,333.000,19.500
3.292,4.000,-0.500,333.000,19.500
3.293,4.000,0.000,333.000,19.500
3.294,4.000,0.000,333.000,19.500
3.295,4.000,0.000,333.000,19.500
3.296,4.000,0.000,333.000,19.500
3.297,4.000,0.500,333.000,19.500
3.298,4.000,1.000,333.500,20.500
3.299,4.000,1.500,334.000,21.000
3.300,4.000,1.500,334.500,21.500
3.301,3.500,1.500,334.500,22.000
3.302,3.500,1.500,335.000,22.500
3.303,3.000,1.500,335.000,22.500
3.304,3.000,1.500,335.000,22.500
3.305,2.500,1.500,334.500,22.500
3.306,2.500,1.000,333.500,22.000
3.307,3.000,0.500,332.500,21.000
3.308,3.000,0.500,332.000,20.500
3.309,3.500,0.000,331.000,20.000
3.310,4.000,0.000,330.500,20.000
3.311,4.500,-0.500,330.000,19.500
3.312,4.500,-0.500,330.000,19.500
3.313,4.500,-1.000,330.500,20.000
3.314,4.500,-0.500,331.000,20.500
3.315,4.000,-0.500,332.000,21.000
3.316,4.000,0.500,333.000,22.000
3.317,4.000,1.000,334.000,23.000
3.318,3.500,1.500,334.500,24.000
3.319,3.500,2.000,335.000,25.000
3.320,3.500,2.000,335.000,25.000
3.321,4.000,2.000,335.000,25.500
3.322,4.000,2.500,334.500,25.000
3.323,4.000,2.500,334.500,25.000
3.324,4.000,2.500,334.500,25.500
3.325,3.500,2.500,335.000,26.000
3.326,3.500,2.500,335.000,26.000
3.327,3.500,2.000,334.500,25.500
3.328,3.500,1.500,333.500,25.000
3.329,3.500,0.500,333.000,24.500
3.330,3.500,-0.500,332.000,24.000
3.331,3.000,-1.500,331.000,23.500
3.332,2.000,-2.000,330.000,23.000
3.333,1.500,-3.000,329.500,23.000
3.334,1.000,-3.000,330.000,23.500
3.335,0.500,-3.000,330.000,24.000
3.336,0.000,-3.000,330.500,24.500
3.337,0.500,-2.500,331.500,25.000
3.338,0.500,-1.500,332.000,26.000
3.339,1.000,-0.500,333.000,27.000
3.340,2.000,1.000,334.000,28.000
3.341,2.500,2.000,334.500,28.500
