'Elapsed time','AECG1','AECG2','AECG3','AECG4'
'seconds','uV','uV','uV','uV'
0.000,-53.000,-34.000,-89.000,-79.000
0.001,-52.500,-33.000,-87.000,-76.500
0.002,-52.500,-31.500,-84.500,-74.000
0.003,-52.000,-30.500,-83.000,-71.500
0.004,-52.000,-29.500,-81.000,-69.500
0.005,-51.500,-28.500,-80.000,-68.000
0.006,-52.000,-28.000,-79.500,-67.000
0.007,-52.000,-28.000,-79.500,-67.000
0.008,-52.500,-28.500,-80.500,-68.000
0.009,-52.500,-29.000,-82.000,-69.500
0.010,-53.000,-30.000,-83.500,-72.000
0.011,-53.000,-31.000,-86.000,-75.000
0.012,-53.500,-32.500,-88.000,-77.500
0.013,-53.500,-33.500,-90.000,-80.500
0.014,-53.500,-35.000,-92.000,-83.000
0.015,-54.000,-36.000,-93.500,-84.500
0.016,-54.000,-37.000,-94.000,-85.500
0.017,-54.000,-37.000,-94.500,-85.500
0.018,-54.000,-36.500,-93.500,-84.500
0.019,-53.500,-35.500,-92.000,-82.500
0.020,-53.000,-34.000,-90.000,-80.500
0.021,-52.500,-33.000,-87.500,-77.500
0.022,-52.000,-31.500,-85.500,-75.000
0.023,-51.500,-30.500,-83.500,-73.000
0.024,-51.500,-29.000,-81.000,-70.500
0.025,-51.000,-28.000,-79.500,-68.500
0.026,-50.500,-27.000,-78.500,-67.000
0.027,-50.500,-27.000,-78.000,-66.500
0.028,-51.500,-27.500,-78.500,-67.500
0.029,-52.500,-28.500,-80.500,-69.500
0.030,-53.500,-30.500,-83.000,-72.000
0.031,-54.500,-32.000,-85.500,-75.000
0.032,-55.000,-33.500,-87.500,-77.500
0.033,-55.500,-34.500,-89.500,-80.000
0.034,-55.000,-35.500,-91.000,-82.000
0.035,-55.000,-36.500,-92.500,-83.500
0.036,-55.000,-37.000,-93.500,-84.500
0.037,-55.000,-37.500,-93.500,-85.000
0.038,-55.000,-37.500,-93.000,-84.500
0.039,-55.000,-37.500,-92.000,-83.000
0.040,-54.500,-36.000,-90.000,-80.500
0.041,-53.500,-34.500,-87.000,-77.500
0.042,-53.000,-32.500,-84.500,-74.000
0.043,-52.000,-31.000,-82.000,-71.000
0.044,-51.500,-29.000,-79.500,-68.500
0.045,-51.000,-27.500,-78.000,-66.500
0.046,-50.500,-26.500,-77.000,-65.500
0.047,-50.000,-26.000,-77.000,-65.000
0.048,-50.500,-26.500,-78.000,-66.000
0.049,-51.000,-27.000,-79.500,-67.500
0.050,-51.000,-28.000,-81.000,-69.000
0.051,-51.000,-29.000,-83.000,-71.000
0.052,-50.500,-29.000,-84.500,-73.000
0.053,-49.500,-29.500,-85.500,-74.500
0.054,-48.500,-29.000,-86.000,-76.000
0.055,-47.000,-28.500,-86.000,-76.000
0.056,-45.500,-27.500,-85.000,-75.500
0.057,-43.500,-26.500,-83.500,-74.000
0.058,-42.500,-25.000,-81.500,-72.000
0.059,-41.000,-23.500,-79.000,-69.000
0.060,-40.000,-21.500,-76.500,-65.500
0.061,-39.000,-19.500,-73.500,-62.500
0.062,-38.500,-18.000,-71.000,-59.500
0.063,-38.500,-17.000,-69.500,-57.000
0.064,-38.000,-15.500,-67.500,-55.000
0.065,-37.500,-14.500,-66.000,-53.000
0.066,-36.500,-14.000,-65.000,-52.000
0.067,-36.500,-14.000,-65.000,-52.000
0.068,-37.500,-15.000,-66.500,-53.000
0.069,-39.000,-16.500,-68.500,-55.500
0.070,-40.500,-18.500,-72.000,-59.000
0.071,-42.000,-20.500,-74.500,-62.000
0.072,-42.000,-21.500,-76.500,-64.500
0.073,-41.000,-21.500,-77.000,-65.500
0.074,-39.000,-20.500,-77.000,-66.000
0.075,-37.000,-19.500,-76.000,-65.500
0.076,-35.500,-18.500,-75.000,-64.500
0.077,-34.000,-17.000,-73.500,-63.000
0.078,-32.500,-15.500,-71.500,-61.000
0.079,-31.500,-14.000,-69.000,-58.000
0.080,-30.500,-12.000,-66.000,-54.500
0.081,-29.500,-10.500,-63.500,-51.000
0.082,-28.500,-9.000,-61.000,-48.500
0.083,-28.500,-8.500,-59.500,-46.500
0.084,-28.000,-7.500,-58.500,-45.000
0.085,-27.500,-7.000,-57.500,-43.500
0.086,-26.500,-6.000,-56.500,-42.000
0.087,-26.000,-5.000,-56.000,-41.500
0.088,-26.500,-5.000,-56.500,-42.000
0.089,-26.500,-6.000,-57.500,-43.000
0.090,-27.000,-6.500,-58.500,-44.500
0.091,-26.500,-6.500,-59.000,-45.500
0.092,-25.500,-6.500,-59.500,-46.000
0.093,-25.000,-6.000,-60.000,-47.000
0.094,-23.500,-5.500,-59.500,-47.000
0.095,-21.500,-4.500,-58.500,-46.500
0.096,-19.000,-2.500,-56.500,-45.000
0.097,-15.500,0.500,-53.000,-42.000
0.098,-12.500,4.000,-49.500,-38.000
0.099,-9.500,7.500,-45.000,-33.500
0.100,-7.500,10.000,-41.500,-29.000
0.101,-6.000,12.500,-38.000,-25.000
0.102,-4.500,14.500,-35.000,-21.500
0.103,-3.500,17.000,-32.000,-17.500
0.104,-1.500,19.500,-29.000,-14.500
0.105,1.000,22.500,-26.000,-11.500
0.106,2.500,24.500,-24.000,-9.000
0.107,4.500,26.500,-22.500,-8.000
0.108,5.500,27.500,-22.500,-7.500
0.109,6.500,28.000,-22.500,-7.000
0.110,8.500,29.000,-22.000,-7.000
0.111,10.500,30.000,-21.500,-6.000
0.112,13.500,32.000,-20.000,-5.000
0.113,16.500,34.500,-18.500,-4.000
0.114,19.500,36.500,-17.000,-2.500
0.115,22.000,38.500,-15.000,-1.000
0.116,25.000,41.000,-12.500,1.000
0.117,28.500,43.500,-9.500,4.000
0.118,31.500,46.500,-5.500,8.000
0.119,34.500,49.500,-1.000,12.500
0.120,37.500,53.000,3.500,18.000
0.121,40.000,56.500,8.500,23.500
0.122,42.500,60.000,13.000,28.500
0.123,44.000,63.000,16.500,33.000
0.124,45.500,65.500,20.000,36.500
0.125,47.000,68.000,22.500,39.500
0.126,48.500,70.000,24.500,42.000
0.127,50.500,72.000,26.000,43.500
0.128,52.000,73.500,27.500,45.000
0.129,53.500,75.500,28.000,45.500
0.130,55.500,77.000,29.000,46.000
0.131,58.000,78.500,30.000,46.000
0.132,60.500,80.500,31.000,47.000
0.133,63.000,82.500,32.500,47.500
0.134,66.000,84.500,34.500,49.000
0.135,69.000,86.500,36.500,50.000
0.136,72.000,89.000,38.500,52.000
0.137,74.500,91.000,41.500,54.500
0.138,77.500,94.000,44.500,58.000
0.139,80.000,97.000,48.000,62.000
0.140,82.500,99.500,51.500,66.500
0.141,84.500,102.000,55.000,70.500
0.142,87.000,105.000,58.500,74.500
0.143,89.500,107.500,62.000,78.500
0.144,92.000,110.500,65.500,82.500
0.145,94.500,113.500,69.000,86.000
0.146,96.500,116.000,71.500,88.500
0.147,98.000,118.000,73.000,90.500
0.148,99.000,119.000,74.500,91.500
0.149,100.000,120.000,75.000,92.000
0.150,100.000,120.000,74.500,91.500
0.151,100.000,119.500,73.000,90.000
0.152,100.000,118.500,72.000,88.500
0.153,100.500,118.000,70.500,86.500
0.154,101.000,117.500,69.500,85.000
0.155,101.500,117.500,69.000,84.000
0.156,101.500,117.500,69.000,83.500
0.157,101.500,117.500,69.500,84.000
0.158,101.000,117.000,70.000,84.000
0.159,100.500,117.000,70.500,85.000
0.160,100.000,117.000,71.000,86.000
0.161,99.500,117.000,72.000,87.500
0.162,98.500,117.000,73.000,88.500
0.163,97.000,116.000,73.000,89.000
0.164,95.000,115.000,72.000,88.500
0.165,92.500,113.000,70.500,87.500
0.166,89.000,110.000,68.000,85.000
0.167,85.000,106.000,64.000,81.000
0.168,80.000,101.000,59.000,76.000
0.169,75.500,96.000,53.500,70.000
0.170,71.500,91.500,47.500,64.500
0.171,68.000,87.500,42.500,59.000
0.172,65.000,84.000,38.000,54.000
0.173,62.500,81.000,34.000,49.000
0.174,60.000,77.500,30.000,44.000
0.175,57.500,74.000,26.500,39.500
0.176,54.500,70.000,22.500,35.500
0.177,51.500,66.500,19.000,32.000
0.178,48.000,63.000,15.500,28.500
0.179,44.500,60.000,13.000,26.000
0.180,41.500,56.500,10.500,24.500
0.181,38.000,54.000,8.000,22.500
0.182,34.000,50.500,6.000,21.000
0.183,29.500,47.000,3.000,18.500
0.184,25.500,43.000,0.000,16.000
0.185,21.500,39.500,-3.500,13.000
0.186,17.000,35.500,-7.000,9.500
0.187,13.500,31.500,-11.000,5.500
0.188,9.000,27.500,-15.500,1.500
0.189,5.000,23.000,-20.500,-3.500
0.190,1.500,18.500,-25.500,-9.000
0.191,-2.500,14.500,-30.500,-15.000
0.192,-5.500,11.000,-35.000,-20.000
0.193,-8.000,7.500,-39.500,-25.000
0.194,-10.500,4.000,-43.000,-29.500
0.195,-12.500,1.500,-46.000,-33.000
0.196,-14.500,-1.500,-48.500,-36.500
0.197,-16.500,-4.000,-51.000,-38.500
0.198,-18.500,-6.000,-53.000,-40.500
0.199,-21.000,-8.000,-54.500,-41.000
0.200,-23.500,-10.000,-55.500,-41.500
0.201,-26.000,-11.500,-56.000,-41.000
0.202,-28.000,-12.500,-56.000,-40.500
0.203,-30.000,-14.000,-56.500,-40.000
0.204,-32.500,-15.500,-57.000,-40.500
0.205,-35.000,-17.000,-58.500,-41.500
0.206,-37.500,-19.000,-60.500,-43.000
0.207,-40.000,-21.500,-63.000,-45.500
0.208,-42.500,-24.000,-66.500,-48.000
0.209,-45.000,-27.000,-69.500,-51.500
0.210,-47.500,-29.500,-73.000,-55.000
0.211,-50.000,-32.000,-76.000,-58.500
0.212,-51.000,-33.500,-78.500,-61.500
0.213,-51.000,-34.500,-80.000,-64.000
0.214,-50.500,-35.000,-81.000,-65.500
0.215,-49.500,-35.500,-82.000,-67.000
0.216,-49.500,-36.000,-82.500,-68.000
0.217,-49.500,-37.000,-83.000,-69.000
0.218,-50.500,-38.000,-84.000,-69.000
0.219,-51.500,-39.000,-84.000,-69.000
0.220,-53.000,-39.500,-84.000,-68.000
0.221,-54.000,-40.000,-83.500,-67.000
0.222,-54.500,-40.000,-82.500,-65.000
0.223,-55.500,-40.000,-82.000,-63.500
0.224,-56.000,-40.000,-81.000,-62.500
0.225,-57.000,-40.500,-81.000,-62.500
0.226,-58.000,-41.000,-81.500,-63.000
0.227,-59.500,-42.000,-82.500,-64.000
0.228,-61.000,-43.000,-84.000,-66.000
0.229,-61.500,-44.000,-85.500,-67.500
0.230,-62.000,-45.000,-87.000,-69.500
0.231,-62.000,-45.000,-88.000,-71.500
0.232,-61.500,-45.500,-89.500,-73.000
0.233,-61.000,-46.000,-90.500,-74.500
0.234,-61.000,-46.500,-91.500,-76.000
0.235,-61.000,-47.500,-92.500,-77.000
0.236,-61.000,-48.500,-93.000,-77.500
0.237,-60.500,-48.500,-92.500,-77.000
0.238,-59.500,-47.500,-91.500,-75.500
0.239,-58.000,-45.500,-89.000,-73.000
0.240,-56.500,-44.000,-86.500,-69.500
0.241,-56.000,-42.500,-84.000,-66.500
0.242,-56.000,-41.500,-82.500,-64.000
0.243,-57.000,-41.500,-81.500,-62.500
0.244,-57.500,-41.500,-81.000,-61.500
0.245,-58.500,-41.500,-81.000,-61.000
0.246,-59.500,-42.000,-81.500,-61.500
0.247,-61.000,-42.500,-82.000,-62.500
0.248,-62.000,-43.500,-83.500,-63.500
0.249,-62.500,-44.000,-84.500,-65.000
0.250,-62.500,-44.500,-86.000,-67.000
0.251,-62.500,-45.500,-87.500,-69.000
0.252,-62.500,-46.500,-89.000,-72.000
0.253,-62.500,-47.500,-91.000,-74.500
0.254,-62.500,-48.500,-92.500,-76.500
0.255,-62.500,-49.500,-93.500,-78.500
0.256,-62.000,-50.000,-94.000,-79.500
0.257,-61.500,-49.500,-93.500,-79.000
0.258,-60.500,-49.000,-92.500,-77.500
0.259,-60.000,-47.500,-90.500,-75.000
0.260,-59.500,-46.500,-88.000,-72.500
0.261,-59.500,-45.000,-86.000,-69.500
0.262,-60.000,-44.500,-84.500,-67.500
0.263,-60.500,-44.000,-83.500,-66.000
0.264,-61.000,-44.500,-83.500,-65.000
0.265,-62.000,-45.000,-83.500,-65.500
0.266,-63.000,-46.500,-85.000,-66.500
0.267,-64.000,-48.000,-86.500,-68.000
0.268,-65.000,-49.500,-89.000,-70.000
0.269,-66.000,-51.000,-91.000,-72.500
0.270,-66.500,-52.000,-93.000,-75.000
0.271,-67.000,-53.500,-95.500,-78.000
0.272,-67.500,-55.000,-97.500,-81.000
0.273,-68.000,-56.000,-99.500,-83.500
0.274,-67.500,-56.500,-100.500,-84.500
0.275,-66.500,-56.000,-100.500,-85.000
0.276,-65.500,-55.500,-100.000,-84.500
0.277,-65.000,-55.500,-99.500,-83.500
0.278,-64.500,-55.000,-98.000,-82.500
0.279,-64.000,-54.000,-96.500,-80.000
0.280,-63.500,-52.500,-94.000,-77.000
0.281,-62.500,-50.500,-91.000,-73.500
0.282,-62.000,-48.500,-88.500,-70.500
0.283,-61.500,-47.000,-86.000,-67.500
0.284,-61.500,-46.000,-84.000,-65.000
0.285,-61.500,-45.000,-82.500,-63.000
0.286,-61.000,-44.000,-81.500,-62.000
0.287,-61.000,-43.500,-81.000,-61.500
0.288,-61.500,-44.500,-81.500,-62.000
0.289,-63.000,-46.000,-83.500,-64.500
0.290,-64.500,-48.500,-86.500,-67.500
0.291,-66.500,-51.500,-90.000,-71.500
0.292,-68.500,-54.500,-93.000,-75.500
0.293,-69.500,-56.500,-96.000,-79.000
0.294,-70.000,-58.000,-97.500,-81.500
0.295,-70.000,-58.500,-98.500,-83.000
0.296,-69.500,-59.000,-99.500,-84.000
0.297,-69.500,-59.000,-99.500,-84.000
0.298,-68.500,-58.500,-98.500,-83.500
0.299,-68.000,-57.500,-97.000,-81.500
0.300,-67.000,-56.000,-95.000,-79.500
0.301,-66.500,-55.000,-92.500,-76.500
0.302,-66.500,-54.000,-91.000,-74.000
0.303,-67.000,-53.500,-89.500,-72.000
0.304,-67.500,-53.000,-89.000,-71.000
0.305,-68.000,-53.000,-88.500,-70.000
0.306,-68.500,-53.000,-88.500,-70.000
0.307,-69.000,-53.500,-89.500,-70.500
0.308,-69.500,-54.000,-90.500,-71.500
0.309,-69.500,-55.000,-91.500,-72.500
0.310,-69.500,-55.500,-93.000,-74.500
0.311,-70.000,-57.000,-94.500,-77.000
0.312,-70.500,-58.500,-97.000,-80.000
0.313,-71.000,-60.000,-99.500,-82.500
0.314,-71.000,-61.500,-101.000,-85.000
0.315,-71.000,-62.500,-102.500,-86.500
0.316,-71.000,-63.000,-103.000,-87.500
0.317,-71.000,-63.500,-103.000,-87.500
0.318,-71.000,-63.000,-102.000,-86.500
0.319,-70.500,-62.000,-100.000,-84.000
0.320,-69.500,-60.000,-97.500,-81.000
0.321,-68.500,-58.000,-94.000,-77.000
0.322,-67.000,-55.500,-91.000,-73.500
0.323,-66.000,-53.500,-88.000,-70.000
0.324,-65.500,-52.000,-86.500,-68.000
0.325,-65.500,-52.000,-86.000,-67.000
0.326,-66.500,-52.500,-86.500,-67.500
0.327,-67.000,-53.000,-88.000,-68.500
0.328,-68.000,-54.000,-89.500,-70.000
0.329,-68.000,-54.500,-90.500,-71.500
0.330,-67.000,-54.500,-91.500,-72.500
0.331,-66.000,-54.000,-92.000,-73.500
0.332,-65.000,-54.000,-93.000,-75.000
0.333,-64.500,-54.500,-94.000,-77.000
0.334,-64.500,-55.500,-95.000,-79.000
0.335,-65.000,-56.500,-96.000,-80.500
0.336,-65.500,-57.000,-96.500,-81.000
0.337,-66.000,-57.500,-96.000,-81.000
0.338,-66.000,-57.500,-95.000,-80.000
0.339,-66.000,-57.000,-93.500,-78.500
0.340,-66.000,-56.500,-92.000,-76.000
0.341,-67.000,-56.000,-90.500,-74.000
0.342,-68.000,-56.500,-89.000,-72.000
0.343,-69.500,-57.000,-88.500,-70.500
0.344,-71.000,-57.500,-88.000,-69.000
0.345,-72.000,-58.000,-88.500,-68.500
0.346,-73.000,-59.000,-89.000,-69.000
0.347,-75.000,-60.000,-91.000,-70.000
0.348,-76.500,-62.000,-93.500,-72.500
0.349,-78.500,-64.500,-97.000,-76.500
0.350,-80.500,-67.500,-101.500,-81.500
0.351,-82.500,-71.000,-105.500,-86.500
0.352,-82.500,-73.000,-109.500,-91.000
0.353,-81.500,-74.000,-112.000,-94.500
0.354,-79.500,-74.000,-113.000,-97.000
0.355,-77.000,-73.500,-113.500,-98.500
0.356,-75.000,-72.500,-113.000,-98.500
0.357,-72.500,-71.500,-112.000,-98.000
0.358,-71.000,-70.000,-110.000,-96.500
0.359,-69.500,-68.500,-107.500,-93.500
0.360,-68.500,-66.000,-104.000,-90.000
0.361,-67.000,-63.500,-99.500,-85.000
0.362,-65.500,-60.500,-95.500,-80.500
0.363,-64.500,-58.000,-91.000,-75.500
0.364,-63.500,-55.500,-88.000,-72.000
0.365,-63.500,-54.500,-86.000,-69.500
0.366,-64.000,-54.500,-85.000,-68.500
0.367,-66.000,-55.500,-86.500,-70.000
0.368,-69.000,-58.000,-89.000,-72.500
0.369,-71.500,-61.000,-92.500,-76.000
0.370,-73.500,-63.500,-95.500,-79.000
0.371,-74.000,-65.000,-98.000,-81.500
0.372,-73.500,-65.500,-99.000,-83.000
0.373,-72.000,-65.000,-99.000,-83.500
0.374,-71.000,-64.500,-99.000,-84.500
0.375,-69.500,-64.000,-98.500,-85.000
0.376,-69.000,-64.000,-98.500,-85.500
0.377,-68.000,-63.500,-97.500,-85.000
0.378,-67.000,-62.500,-96.500,-84.000
0.379,-66.000,-61.500,-94.500,-82.000
0.380,-65.000,-60.500,-92.500,-79.500
0.381,-65.000,-59.500,-90.500,-77.000
0.382,-65.000,-58.500,-88.500,-75.000
0.383,-65.500,-58.000,-87.500,-73.000
0.384,-65.500,-57.500,-87.000,-71.500
0.385,-65.500,-57.500,-86.500,-71.000
0.386,-66.000,-58.000,-86.500,-71.500
0.387,-66.500,-59.000,-87.500,-72.500
0.388,-67.500,-60.500,-89.000,-74.000
0.389,-68.500,-61.500,-91.000,-76.000
0.390,-69.000,-63.000,-93.000,-78.500
0.391,-69.500,-64.000,-94.500,-81.000
0.392,-70.000,-64.500,-96.500,-83.000
0.393,-70.000,-65.000,-97.500,-85.000
0.394,-69.500,-65.000,-98.500,-86.000
0.395,-69.000,-65.000,-98.500,-86.500
0.396,-67.500,-64.000,-97.500,-85.500
0.397,-66.000,-63.000,-96.000,-84.000
0.398,-65.000,-62.000,-94.000,-82.000
0.399,-65.500,-62.000,-93.000,-80.500
0.400,-66.000,-62.000,-92.000,-79.000
0.401,-67.000,-62.000,-91.000,-77.500
0.402,-67.500,-62.000,-90.500,-76.000
0.403,-68.000,-62.000,-90.000,-74.500
0.404,-67.500,-61.000,-89.000,-73.500
0.405,-67.000,-60.500,-88.500,-72.000
0.406,-67.000,-59.500,-88.000,-71.500
0.407,-66.500,-59.500,-88.000,-71.500
0.408,-66.500,-59.500,-89.000,-72.500
0.409,-66.500,-60.000,-90.000,-74.000
0.410,-67.000,-61.000,-91.500,-76.000
0.411,-67.500,-62.000,-93.000,-78.000
0.412,-68.000,-63.000,-95.000,-80.000
0.413,-68.500,-64.500,-97.000,-82.500
0.414,-68.500,-65.500,-98.000,-84.500
0.415,-68.500,-66.500,-99.000,-86.000
0.416,-68.500,-67.000,-99.500,-86.500
0.417,-68.000,-67.000,-99.000,-86.500
0.418,-67.500,-66.500,-98.000,-85.500
0.419,-67.000,-66.000,-96.000,-83.500
0.420,-66.500,-64.500,-93.500,-81.000
0.421,-66.000,-63.000,-91.000,-78.000
0.422,-65.000,-61.500,-88.500,-74.500
0.423,-64.500,-59.500,-86.000,-72.000
0.424,-64.500,-58.500,-84.500,-70.000
0.425,-64.500,-58.500,-83.500,-68.500
0.426,-65.500,-59.000,-84.000,-69.000
0.427,-67.000,-60.000,-85.500,-70.000
0.428,-68.000,-61.500,-87.500,-72.000
0.429,-69.000,-63.000,-89.000,-74.500
0.430,-70.000,-64.500,-91.500,-77.000
0.431,-70.500,-66.000,-93.500,-79.500
0.432,-70.500,-67.500,-95.500,-82.000
0.433,-71.000,-68.500,-97.000,-84.000
0.434,-70.500,-69.000,-98.000,-85.500
0.435,-70.000,-69.000,-98.000,-86.000
0.436,-68.500,-68.500,-97.500,-85.500
0.437,-67.000,-67.000,-95.500,-84.000
0.438,-65.500,-66.000,-94.000,-82.000
0.439,-65.000,-65.000,-92.000,-80.000
0.440,-65.500,-64.500,-91.000,-78.500
0.441,-66.500,-65.000,-90.000,-77.000
0.442,-68.000,-66.000,-90.000,-76.500
0.443,-69.500,-66.500,-90.000,-75.500
0.444,-70.500,-67.000,-90.000,-75.000
0.445,-71.500,-67.000,-90.000,-75.000
0.446,-72.000,-67.000,-90.000,-75.000
0.447,-72.500,-67.500,-90.500,-75.500
0.448,-73.000,-68.000,-92.000,-77.000
0.449,-74.000,-69.000,-93.500,-79.000
0.450,-75.500,-71.000,-96.000,-82.000
0.451,-77.000,-72.500,-98.500,-84.500
0.452,-77.500,-74.000,-100.500,-87.000
0.453,-77.500,-74.500,-102.000,-89.000
0.454,-76.500,-75.000,-102.500,-90.000
0.455,-75.000,-74.000,-102.000,-90.000
0.456,-72.500,-72.500,-100.500,-88.500
0.457,-70.000,-70.500,-98.000,-86.000
0.458,-68.000,-68.000,-95.500,-83.500
0.459,-66.500,-66.500,-93.000,-80.500
0.460,-66.500,-65.500,-91.000,-78.000
0.461,-66.000,-64.500,-89.000,-75.000
0.462,-66.000,-63.000,-86.500,-72.500
0.463,-66.000,-62.000,-84.500,-70.000
0.464,-66.500,-61.500,-83.500,-68.500
0.465,-67.500,-62.000,-83.500,-68.500
0.466,-68.500,-63.000,-84.500,-69.000
0.467,-70.000,-64.000,-86.000,-70.500
0.468,-71.000,-65.500,-88.000,-72.500
0.469,-71.500,-66.500,-89.500,-74.000
0.470,-70.500,-66.000,-90.500,-75.500
0.471,-68.500,-65.500,-90.500,-75.500
0.472,-66.000,-64.000,-90.000,-75.500
0.473,-63.500,-62.500,-89.500,-75.500
0.474,-61.500,-61.500,-88.500,-75.500
0.475,-59.500,-60.500,-88.000,-75.500
0.476,-58.000,-60.000,-87.000,-75.000
0.477,-57.000,-59.000,-85.500,-73.500
0.478,-55.500,-57.500,-83.500,-71.500
0.479,-54.000,-55.500,-80.500,-68.500
0.480,-52.000,-53.500,-77.500,-64.500
0.481,-50.500,-51.000,-74.000,-60.000
0.482,-49.000,-48.500,-70.500,-56.000
0.483,-47.500,-46.000,-67.500,-52.500
0.484,-46.500,-44.500,-65.000,-49.500
0.485,-45.500,-43.000,-63.500,-47.500
0.486,-45.000,-42.000,-62.000,-46.000
0.487,-44.500,-41.500,-62.000,-46.000
0.488,-44.500,-41.500,-62.500,-46.500
0.489,-44.500,-42.000,-63.000,-47.500
0.490,-45.000,-42.500,-64.500,-49.500
0.491,-45.000,-43.000,-66.000,-51.500
0.492,-45.000,-44.000,-68.000,-53.500
0.493,-45.000,-44.500,-69.000,-55.500
0.494,-44.000,-45.000,-70.000,-57.000
0.495,-43.000,-45.000,-70.000,-58.000
0.496,-42.000,-44.500,-69.500,-58.000
0.497,-40.500,-43.500,-68.500,-57.000
0.498,-39.500,-42.500,-66.500,-55.000
0.499,-39.000,-41.500,-64.500,-52.000
0.500,-38.000,-40.000,-61.500,-48.500
0.501,-37.500,-38.500,-58.500,-45.000
0.502,-37.000,-37.000,-56.000,-41.500
0.503,-36.500,-35.500,-53.500,-38.500
0.504,-36.000,-34.000,-51.500,-35.500
0.505,-35.500,-33.000,-49.500,-33.500
0.506,-35.000,-32.000,-48.500,-32.500
0.507,-34.500,-31.000,-48.000,-31.500
0.508,-33.500,-30.000,-47.500,-31.000
0.509,-32.500,-29.500,-47.500,-31.500
0.510,-31.500,-29.000,-48.000,-32.000
0.511,-30.000,-29.000,-48.500,-33.000
0.512,-29.000,-28.500,-49.000,-34.000
0.513,-28.000,-29.000,-50.000,-36.000
0.514,-28.000,-30.000,-52.000,-38.000
0.515,-28.000,-31.000,-53.500,-40.000
0.516,-29.000,-32.500,-55.000,-41.500
0.517,-29.500,-33.500,-56.000,-42.000
0.518,-29.500,-34.000,-56.000,-41.500
0.519,-29.000,-33.000,-54.500,-39.000
0.520,-28.000,-31.500,-51.500,-36.000
0.521,-26.500,-29.500,-48.500,-32.500
0.522,-25.500,-27.500,-45.500,-29.000
0.523,-25.500,-26.500,-43.500,-26.000
0.524,-25.500,-25.500,-42.000,-24.500
0.525,-26.500,-25.500,-42.000,-24.000
0.526,-27.500,-26.500,-42.500,-24.500
0.527,-28.500,-28.000,-44.000,-26.000
0.528,-29.500,-29.000,-45.500,-28.000
0.529,-30.500,-31.000,-48.000,-31.000
0.530,-31.500,-32.500,-50.500,-34.000
0.531,-32.500,-34.500,-53.000,-37.500
0.532,-33.000,-35.500,-55.500,-40.000
0.533,-33.000,-36.500,-57.000,-42.500
0.534,-33.000,-37.000,-58.000,-44.500
0.535,-33.000,-37.500,-58.500,-45.500
0.536,-33.500,-38.500,-59.000,-46.500
0.537,-34.000,-39.000,-59.500,-46.500
0.538,-35.000,-40.000,-59.000,-46.500
0.539,-36.000,-40.000,-58.500,-45.500
0.540,-36.500,-40.000,-57.500,-44.000
0.541,-37.000,-39.000,-56.000,-41.500
0.542,-37.000,-38.500,-54.500,-39.000
0.543,-37.000,-37.500,-53.000,-37.000
0.544,-37.500,-37.000,-52.000,-35.500
0.545,-38.500,-37.500,-52.000,-35.500
0.546,-40.000,-39.000,-53.500,-36.500
0.547,-42.000,-41.000,-55.500,-39.000
0.548,-44.500,-43.500,-59.000,-42.000
0.549,-46.500,-46.000,-62.000,-45.500
0.550,-48.500,-48.500,-65.000,-49.000
0.551,-50.000,-51.000,-68.000,-52.500
0.552,-51.500,-53.000,-71.000,-56.000
0.553,-52.500,-55.000,-73.500,-59.000
0.554,-53.000,-56.500,-75.000,-61.500
0.555,-53.500,-58.000,-76.500,-63.500
0.556,-54.000,-58.500,-77.000,-64.000
0.557,-54.000,-58.500,-76.500,-64.000
0.558,-53.500,-58.500,-75.500,-63.000
0.559,-53.500,-58.500,-74.500,-61.500
0.560,-54.000,-58.000,-73.500,-60.000
0.561,-55.000,-58.000,-72.500,-58.500
0.562,-55.500,-58.000,-72.000,-57.000
0.563,-56.500,-58.500,-71.500,-56.500
0.564,-58.000,-59.500,-72.500,-56.500
0.565,-60.500,-61.500,-74.000,-58.000
0.566,-63.000,-64.000,-77.000,-60.500
0.567,-65.500,-67.000,-80.000,-63.500
0.568,-68.000,-70.000,-83.500,-67.000
0.569,-70.000,-72.500,-86.500,-70.500
0.570,-71.500,-74.500,-89.500,-73.500
0.571,-72.000,-76.500,-91.500,-76.000
0.572,-72.000,-77.500,-93.500,-78.000
0.573,-72.000,-78.000,-94.500,-80.000
0.574,-71.500,-78.500,-95.500,-82.000
0.575,-71.000,-78.500,-96.000,-83.000
0.576,-70.000,-78.500,-96.000,-83.500
0.577,-69.500,-78.500,-96.000,-83.000
0.578,-69.500,-78.500,-95.500,-82.500
0.579,-69.500,-78.000,-94.500,-81.000
0.580,-70.000,-78.000,-93.500,-79.500
0.581,-70.000,-77.000,-92.000,-76.500
0.582,-70.000,-76.500,-90.500,-74.000
0.583,-70.000,-75.500,-88.500,-71.000
0.584,-70.000,-74.500,-87.000,-69.000
0.585,-70.500,-74.500,-86.500,-68.000
0.586,-71.000,-74.500,-86.500,-68.000
0.587,-71.500,-74.500,-87.000,-69.000
0.588,-72.000,-75.000,-88.000,-70.000
0.589,-72.500,-76.000,-89.500,-71.500
0.590,-73.000,-76.500,-91.500,-73.500
0.591,-73.000,-77.500,-93.000,-75.500
0.592,-73.000,-78.000,-94.500,-77.500
0.593,-72.500,-78.500,-96.000,-79.000
0.594,-72.000,-79.500,-97.500,-81.000
0.595,-72.000,-80.000,-98.000,-82.500
0.596,-71.500,-80.500,-98.500,-82.500
0.597,-71.000,-80.500,-98.000,-82.500
0.598,-70.500,-80.000,-96.500,-81.000
0.599,-69.500,-79.000,-94.500,-79.000
0.600,-69.500,-78.000,-92.500,-76.000
0.601,-69.500,-77.000,-90.500,-74.000
0.602,-70.500,-77.000,-89.500,-72.000
0.603,-71.500,-77.000,-88.500,-70.500
0.604,-72.000,-76.500,-87.500,-69.000
0.605,-72.500,-76.000,-86.500,-68.000
0.606,-73.500,-76.000,-86.000,-68.000
0.607,-74.000,-76.500,-86.500,-68.500
0.608,-75.500,-77.500,-88.000,-70.000
0.609,-76.500,-79.000,-90.000,-72.500
0.610,-77.500,-80.500,-92.500,-75.000
0.611,-78.000,-82.000,-95.000,-78.000
0.612,-78.500,-83.000,-97.000,-80.500
0.613,-79.000,-84.500,-99.000,-83.000
0.614,-79.500,-85.500,-100.500,-85.500
0.615,-79.000,-86.000,-101.000,-86.500
0.616,-78.000,-86.000,-101.000,-86.500
0.617,-76.500,-85.000,-99.500,-85.000
0.618,-75.000,-84.000,-98.000,-83.000
0.619,-73.500,-82.000,-95.500,-80.500
0.620,-71.500,-80.500,-92.500,-77.000
0.621,-70.500,-78.500,-90.000,-73.500
0.622,-69.500,-77.000,-87.500,-70.500
0.623,-69.000,-76.000,-85.500,-68.000
0.624,-69.500,-75.000,-84.000,-66.000
0.625,-70.000,-75.000,-83.000,-65.500
0.626,-71.000,-75.000,-83.000,-65.500
0.627,-72.000,-75.500,-83.500,-66.000
0.628,-72.500,-76.000,-84.000,-67.000
0.629,-73.500,-76.500,-85.000,-68.500
0.630,-74.000,-78.000,-87.000,-71.000
0.631,-75.000,-80.000,-90.000,-74.500
0.632,-76.000,-82.000,-93.000,-78.000
0.633,-77.500,-84.500,-96.000,-82.000
0.634,-79.000,-87.500,-99.000,-85.500
0.635,-81.000,-90.500,-102.500,-89.000
0.636,-83.500,-94.000,-105.500,-92.500
0.637,-85.500,-97.000,-108.000,-95.000
0.638,-87.500,-99.000,-109.000,-96.000
0.639,-88.500,-99.500,-108.500,-95.500
0.640,-88.500,-98.000,-106.500,-92.500
0.641,-86.000,-95.000,-102.000,-88.000
0.642,-81.500,-89.500,-95.500,-80.500
0.643,-73.500,-81.000,-86.000,-71.000
0.644,-63.000,-70.000,-74.000,-58.500
0.645,-50.000,-56.500,-60.500,-44.500
0.646,-35.000,-41.500,-45.500,-29.500
0.647,-19.000,-25.500,-29.500,-13.500
0.648,-2.500,-9.000,-14.000,2.500
0.649,14.000,7.500,1.500,17.500
0.650,31.000,23.500,16.500,32.500
0.651,48.000,40.000,32.000,48.500
0.652,67.000,58.500,49.500,65.500
0.653,87.500,78.500,69.000,85.000
0.654,109.500,100.000,90.500,106.000
0.655,133.000,123.000,113.500,129.000
0.656,157.500,147.500,139.000,154.000
0.657,183.000,173.000,165.500,181.000
0.658,208.000,198.500,192.000,208.000
0.659,232.500,224.000,219.000,235.500
0.660,256.000,248.500,245.000,262.500
0.661,279.500,273.500,271.000,289.500
0.662,304.500,299.500,298.500,318.000
0.663,331.000,327.000,327.000,347.000
0.664,358.500,356.000,356.500,377.000
0.665,386.000,384.000,385.000,406.000
0.666,412.000,410.500,412.000,433.500
0.667,435.000,434.000,436.000,457.500
0.668,452.000,451.500,453.500,475.500
0.669,459.500,459.500,461.500,483.000
0.670,454.000,454.000,455.500,476.500
0.671,432.500,432.000,433.000,453.000
0.672,396.500,395.000,395.500,414.500
0.673,350.500,348.000,347.500,365.500
0.674,300.500,296.500,294.500,312.000
0.675,250.000,244.000,241.500,258.000
0.676,200.500,193.000,190.000,205.500
0.677,153.500,144.500,140.500,155.500
0.678,108.500,98.500,94.500,109.000
0.679,66.500,56.000,52.500,66.500
0.680,28.500,18.000,14.500,29.000
0.681,-5.500,-15.500,-18.500,-3.500
0.682,-34.000,-44.000,-46.000,-31.000
0.683,-57.500,-67.500,-69.000,-54.000
0.684,-76.500,-86.000,-87.000,-72.000
0.685,-91.000,-100.500,-101.000,-85.500
0.686,-101.500,-111.500,-111.500,-96.500
0.687,-110.000,-120.000,-120.500,-105.500
0.688,-117.000,-127.000,-127.500,-113.000
0.689,-122.000,-133.000,-134.000,-119.500
0.690,-126.000,-137.500,-139.500,-125.500
0.691,-128.000,-141.000,-144.000,-130.000
0.692,-129.000,-142.500,-146.500,-133.000
0.693,-129.000,-143.000,-147.500,-134.500
0.694,-127.500,-142.000,-147.000,-134.500
0.695,-125.000,-140.000,-145.500,-133.000
0.696,-121.500,-137.000,-142.000,-130.000
0.697,-117.000,-132.500,-137.500,-125.500
0.698,-112.000,-128.000,-132.000,-120.000
0.699,-107.000,-122.500,-126.000,-113.500
0.700,-102.500,-118.000,-120.500,-107.500
0.701,-99.500,-114.000,-115.500,-101.500
0.702,-96.500,-110.500,-111.000,-96.500
0.703,-94.500,-107.000,-107.000,-92.000
0.704,-92.500,-104.000,-103.500,-88.000
0.705,-90.000,-101.000,-100.500,-84.500
0.706,-87.500,-98.500,-98.000,-82.000
0.707,-86.000,-97.000,-96.500,-80.000
0.708,-85.000,-96.000,-96.000,-80.000
0.709,-85.000,-96.000,-96.500,-81.000
0.710,-85.000,-96.500,-98.000,-83.000
0.711,-85.000,-97.500,-100.000,-85.000
0.712,-84.500,-98.000,-101.500,-87.000
0.713,-84.000,-98.500,-103.000,-88.500
0.714,-83.500,-99.000,-104.000,-90.000
0.715,-82.500,-99.500,-104.500,-91.000
0.716,-82.000,-99.500,-103.500,-91.000
0.717,-80.500,-98.500,-102.000,-89.500
0.718,-78.500,-96.500,-99.000,-86.500
0.719,-76.500,-94.000,-95.500,-83.000
0.720,-74.500,-92.000,-92.000,-79.000
0.721,-73.500,-90.000,-89.000,-76.000
0.722,-72.500,-88.500,-87.000,-73.000
0.723,-72.000,-87.000,-85.000,-70.500
0.724,-72.000,-86.000,-83.500,-68.500
0.725,-71.500,-85.500,-82.500,-67.500
0.726,-72.000,-85.500,-82.500,-68.000
0.727,-72.500,-86.000,-83.500,-69.000
0.728,-73.000,-87.000,-85.000,-70.500
0.729,-74.000,-88.000,-86.500,-73.000
0.730,-74.500,-89.000,-88.500,-75.500
0.731,-75.000,-90.000,-91.000,-78.000
0.732,-75.500,-91.500,-93.000,-81.000
0.733,-76.500,-93.500,-95.500,-84.000
0.734,-77.500,-95.500,-98.000,-86.500
0.735,-78.500,-97.000,-99.000,-88.500
0.736,-79.000,-97.500,-99.500,-89.500
0.737,-78.500,-97.500,-98.500,-89.000
0.738,-77.500,-96.500,-97.000,-87.500
0.739,-76.000,-95.000,-94.500,-84.500
0.740,-74.500,-93.000,-91.500,-81.000
0.741,-73.500,-91.000,-88.500,-77.500
0.742,-72.500,-89.000,-86.500,-74.000
0.743,-72.000,-88.000,-84.500,-70.500
0.744,-71.500,-86.500,-82.500,-68.000
0.745,-71.000,-85.000,-80.500,-65.500
0.746,-71.000,-84.000,-79.500,-64.500
0.747,-71.000,-84.000,-79.000,-64.000
0.748,-71.500,-84.500,-79.500,-65.000
0.749,-73.000,-86.000,-81.000,-67.000
0.750,-74.500,-88.000,-83.500,-70.000
0.751,-75.500,-90.000,-86.500,-73.000
0.752,-76.500,-91.500,-89.000,-76.500
0.753,-77.000,-93.000,-91.000,-79.000
0.754,-77.000,-93.500,-93.000,-81.000
0.755,-76.500,-94.000,-93.500,-82.000
0.756,-75.500,-93.500,-94.000,-82.500
0.757,-74.000,-93.500,-94.000,-82.000
0.758,-73.000,-93.500,-93.500,-82.000
0.759,-72.500,-93.000,-93.500,-81.500
0.760,-71.500,-92.500,-93.000,-80.500
0.761,-71.000,-92.000,-92.000,-79.000
0.762,-70.000,-91.000,-90.500,-77.500
0.763,-70.000,-90.000,-89.000,-75.500
0.764,-69.500,-89.500,-87.000,-74.000
0.765,-69.500,-88.500,-86.000,-72.500
0.766,-69.500,-88.000,-85.000,-72.000
0.767,-70.000,-87.500,-84.500,-71.500
0.768,-70.500,-87.500,-84.500,-72.000
0.769,-70.500,-87.500,-85.000,-72.500
0.770,-70.500,-87.500,-85.000,-73.000
0.771,-70.000,-87.500,-85.500,-74.000
0.772,-69.000,-87.500,-86.000,-75.000
0.773,-68.500,-87.500,-86.500,-75.500
0.774,-67.500,-87.500,-86.500,-76.000
0.775,-66.500,-87.000,-86.000,-76.000
0.776,-65.500,-86.500,-85.500,-75.500
0.777,-65.000,-86.500,-84.500,-75.000
0.778,-64.500,-86.000,-84.000,-74.500
0.779,-64.000,-85.500,-82.500,-73.000
0.780,-64.000,-85.000,-81.000,-70.500
0.781,-63.500,-84.000,-78.500,-68.000
0.782,-63.500,-83.000,-77.000,-66.000
0.783,-63.500,-82.500,-75.500,-64.000
0.784,-64.000,-82.500,-74.500,-62.500
0.785,-65.000,-83.000,-74.500,-62.500
0.786,-66.500,-84.000,-75.500,-63.000
0.787,-68.000,-86.000,-77.000,-64.000
0.788,-70.000,-88.000,-79.000,-66.500
0.789,-72.000,-90.000,-82.000,-69.500
0.790,-74.000,-92.000,-84.500,-72.500
0.791,-74.500,-93.500,-87.000,-75.000
0.792,-74.500,-94.500,-88.500,-77.500
0.793,-74.000,-94.500,-90.000,-79.500
0.794,-72.500,-94.500,-90.500,-80.000
0.795,-70.500,-93.000,-89.500,-79.500
0.796,-68.000,-90.500,-87.000,-77.500
0.797,-65.000,-88.000,-83.500,-74.500
0.798,-62.000,-85.000,-79.500,-71.000
0.799,-60.000,-82.000,-76.000,-67.000
0.800,-58.000,-80.000,-73.000,-63.500
0.801,-56.500,-78.000,-70.000,-59.500
0.802,-55.500,-76.000,-68.000,-56.500
0.803,-55.000,-74.500,-65.500,-53.500
0.804,-54.500,-73.500,-64.000,-51.000
0.805,-54.500,-73.500,-63.500,-50.000
0.806,-55.000,-73.500,-64.000,-50.500
0.807,-56.000,-74.500,-65.000,-51.500
0.808,-57.000,-75.500,-66.000,-53.000
0.809,-57.000,-76.000,-67.500,-55.000
0.810,-57.000,-76.500,-68.500,-57.000
0.811,-57.000,-77.000,-70.000,-59.000
0.812,-56.500,-77.500,-71.500,-61.000
0.813,-56.000,-78.000,-73.000,-63.000
0.814,-55.000,-79.000,-74.500,-64.500
0.815,-54.500,-79.500,-75.000,-65.500
0.816,-53.500,-79.000,-75.000,-65.000
0.817,-52.500,-78.500,-74.000,-63.500
0.818,-51.500,-77.000,-72.000,-61.000
0.819,-50.500,-75.500,-69.500,-58.000
0.820,-49.500,-73.500,-66.500,-54.500
0.821,-49.500,-72.500,-64.500,-51.500
0.822,-50.000,-71.500,-63.000,-49.500
0.823,-50.500,-71.500,-62.500,-48.500
0.824,-52.000,-72.000,-62.000,-48.000
0.825,-52.500,-72.000,-62.500,-48.000
0.826,-52.500,-72.500,-62.500,-47.500
0.827,-52.500,-72.500,-62.500,-47.500
0.828,-52.500,-73.000,-63.500,-48.500
0.829,-52.000,-73.500,-64.500,-50.000
0.830,-52.000,-74.000,-66.000,-51.500
0.831,-51.500,-74.500,-67.000,-53.500
0.832,-50.500,-74.500,-67.500,-55.000
0.833,-49.000,-73.500,-67.500,-56.000
0.834,-47.000,-72.500,-66.500,-56.000
0.835,-45.000,-71.000,-65.500,-55.000
0.836,-43.000,-69.500,-63.500,-53.000
0.837,-41.500,-68.000,-61.500,-51.000
0.838,-39.500,-66.000,-58.500,-47.500
0.839,-38.000,-63.500,-55.500,-44.000
0.840,-36.000,-61.000,-52.000,-40.000
0.841,-35.000,-59.000,-49.000,-36.000
0.842,-34.000,-57.500,-46.500,-32.500
0.843,-33.500,-56.000,-44.500,-30.000
0.844,-32.500,-54.500,-42.500,-27.500
0.845,-31.500,-53.000,-41.000,-25.500
0.846,-31.000,-52.000,-40.000,-24.500
0.847,-30.000,-51.000,-39.500,-24.000
0.848,-29.500,-50.500,-39.500,-24.000
0.849,-29.000,-50.500,-39.500,-25.000
0.850,-28.000,-50.000,-39.500,-25.500
0.851,-26.500,-49.000,-39.500,-26.500
0.852,-25.000,-48.000,-39.500,-26.500
0.853,-22.500,-46.500,-39.000,-27.000
0.854,-20.500,-45.500,-38.000,-27.000
0.855,-19.000,-44.500,-37.000,-26.500
0.856,-17.500,-43.500,-36.000,-25.500
0.857,-15.500,-42.500,-34.000,-23.500
0.858,-14.000,-41.000,-31.500,-21.000
0.859,-12.500,-39.000,-28.500,-17.500
0.860,-11.000,-37.000,-25.000,-14.000
0.861,-10.000,-35.000,-22.000,-10.000
0.862,-8.500,-32.500,-18.500,-6.500
0.863,-7.000,-30.000,-15.000,-2.500
0.864,-5.000,-27.500,-12.000,1.500
0.865,-2.500,-24.500,-9.500,5.000
0.866,0.000,-22.500,-7.000,7.500
0.867,2.000,-20.500,-5.500,9.500
0.868,4.000,-19.000,-4.500,10.500
0.869,5.500,-18.500,-4.500,10.500
0.870,7.000,-17.500,-4.000,10.500
0.871,9.000,-15.500,-3.000,11.000
0.872,12.500,-13.000,-1.500,12.500
0.873,16.500,-10.000,1.500,15.000
0.874,21.500,-6.000,5.000,18.000
0.875,26.500,-1.500,9.500,22.000
0.876,31.500,3.000,14.000,26.500
0.877,36.000,8.000,19.500,31.500
0.878,40.500,12.500,24.500,37.000
0.879,44.500,17.000,30.000,42.500
0.880,48.000,21.000,35.000,48.000
0.881,51.000,25.000,39.500,53.500
0.882,54.000,29.000,44.000,58.500
0.883,56.500,32.000,47.500,63.000
0.884,58.500,34.500,50.500,66.500
0.885,59.500,36.000,52.500,69.000
0.886,60.500,37.500,54.000,71.000
0.887,61.500,38.000,55.000,72.000
0.888,62.000,39.000,55.500,72.000
0.889,63.500,39.500,55.500,71.500
0.890,64.500,40.500,55.500,71.000
0.891,66.500,41.500,55.500,70.500
0.892,68.500,42.500,56.000,70.500
0.893,70.000,43.500,56.500,70.000
0.894,72.000,45.000,57.500,70.500
0.895,74.000,46.500,59.000,71.000
0.896,76.500,48.500,61.500,73.000
0.897,80.000,51.500,65.000,76.000
0.898,83.500,55.000,69.000,80.000
0.899,87.500,59.000,74.000,85.500
0.900,91.000,63.500,79.500,91.500
0.901,94.000,67.500,85.000,97.000
0.902,96.500,71.000,89.500,102.500
0.903,98.500,74.000,93.000,106.500
0.904,100.500,76.500,96.000,110.000
0.905,102.000,78.000,98.000,112.500
0.906,102.500,79.000,99.000,113.500
0.907,103.000,79.000,99.000,114.000
0.908,102.500,78.500,98.000,113.000
0.909,102.500,78.000,97.000,111.500
0.910,102.000,77.000,95.500,110.000
0.911,102.000,76.500,94.500,108.000
0.912,102.500,76.000,93.000,106.000
0.913,103.000,75.500,92.000,104.000
0.914,103.500,75.500,91.000,102.500
0.915,104.000,75.000,90.500,101.000
0.916,104.000,74.500,89.500,100.000
0.917,103.500,73.500,89.000,99.500
0.918,102.500,72.000,88.500,98.500
0.919,101.000,70.500,87.500,98.500
0.920,98.500,69.000,86.500,98.000
0.921,96.000,67.000,85.500,98.000
0.922,93.000,65.000,84.000,97.500
0.923,90.000,62.500,82.500,96.500
0.924,86.500,60.000,80.000,94.500
0.925,82.500,56.500,77.000,91.500
0.926,78.000,52.000,73.000,87.000
0.927,73.000,47.000,68.000,82.000
0.928,67.500,41.000,61.500,75.000
0.929,62.000,34.500,55.000,68.000
0.930,56.500,28.500,47.500,60.000
0.931,52.000,22.500,40.500,52.000
0.932,48.000,17.500,34.000,45.000
0.933,44.000,12.500,28.000,38.000
0.934,40.000,8.000,22.500,32.000
0.935,36.000,3.000,18.000,27.000
0.936,32.500,-1.500,13.500,22.500
0.937,28.500,-5.500,10.000,19.000
0.938,25.500,-8.500,7.500,17.000
0.939,23.000,-11.000,6.500,15.500
0.940,20.500,-13.000,5.500,15.500
0.941,18.000,-14.500,5.000,15.500
0.942,15.500,-16.000,4.500,15.500
0.943,12.500,-18.000,3.500,15.000
0.944,9.500,-20.000,2.000,13.500
0.945,6.500,-22.500,-0.500,11.500
0.946,3.000,-26.000,-4.000,8.500
0.947,-1.000,-29.500,-8.000,4.500
0.948,-4.500,-33.000,-12.500,0.500
0.949,-7.500,-37.000,-17.000,-4.500
0.950,-10.500,-41.500,-22.000,-10.000
0.951,-13.500,-45.000,-27.000,-15.000
0.952,-16.000,-48.500,-31.500,-19.500
0.953,-18.000,-51.500,-35.000,-23.500
0.954,-19.500,-53.500,-37.500,-27.000
0.955,-21.000,-55.500,-39.500,-29.500
0.956,-22.000,-57.500,-41.500,-31.500
0.957,-23.000,-58.500,-42.500,-32.500
0.958,-23.500,-59.000,-42.500,-32.500
0.959,-23.500,-59.000,-42.000,-31.000
0.960,-24.500,-59.500,-41.500,-30.000
0.961,-26.500,-60.500,-41.000,-29.000
0.962,-29.000,-62.000,-41.500,-29.000
0.963,-31.500,-63.500,-42.000,-29.000
0.964,-33.500,-65.500,-43.500,-30.000
0.965,-36.000,-67.500,-45.000,-31.500
0.966,-38.500,-69.500,-47.500,-34.000
0.967,-40.500,-72.000,-50.000,-36.500
0.968,-42.500,-74.500,-52.500,-39.500
0.969,-44.500,-77.000,-56.000,-42.500
0.970,-46.500,-79.500,-59.000,-46.500
0.971,-48.500,-82.500,-62.500,-50.000
0.972,-50.000,-84.500,-65.500,-53.500
0.973,-50.500,-86.500,-68.000,-56.000
0.974,-51.000,-87.500,-69.500,-58.000
0.975,-51.000,-88.000,-70.500,-59.500
0.976,-50.500,-88.500,-71.000,-60.000
0.977,-50.500,-88.500,-71.000,-60.000
0.978,-50.500,-88.500,-70.500,-59.000
0.979,-50.500,-88.000,-69.000,-57.500
0.980,-50.000,-87.000,-67.500,-55.500
0.981,-49.500,-86.000,-65.500,-53.000
0.982,-49.500,-85.000,-64.000,-50.500
0.983,-49.000,-84.000,-62.000,-48.000
0.984,-49.000,-83.500,-61.000,-46.500
0.985,-49.500,-83.500,-61.000,-46.000
0.986,-50.500,-84.000,-61.500,-46.500
0.987,-51.500,-85.000,-63.000,-48.000
0.988,-53.000,-86.500,-65.000,-50.000
0.989,-54.500,-87.500,-67.000,-52.000
0.990,-54.500,-88.500,-68.500,-54.000
0.991,-54.500,-89.000,-69.000,-55.500
0.992,-53.500,-89.500,-70.000,-56.500
0.993,-52.500,-89.500,-70.500,-58.000
0.994,-52.000,-89.500,-71.000,-59.000
0.995,-51.000,-89.500,-71.500,-60.000
0.996,-50.500,-89.500,-71.500,-60.500
0.997,-50.000,-89.000,-70.500,-59.500
0.998,-49.000,-88.500,-69.500,-58.000
0.999,-48.500,-87.000,-67.500,-55.500
1.000,-47.500,-86.000,-65.000,-53.000
1.001,-47.500,-85.000,-63.500,-50.500
1.002,-48.000,-84.500,-62.000,-48.500
1.003,-49.000,-85.000,-61.500,-48.000
1.004,-50.500,-86.000,-62.000,-48.000
1.005,-52.000,-87.500,-63.000,-49.000
1.006,-54.000,-88.500,-64.000,-50.000
1.007,-55.000,-89.500,-65.000,-51.000
1.008,-56.000,-90.500,-66.500,-52.500
1.009,-56.500,-91.000,-67.500,-54.000
1.010,-56.000,-91.500,-69.000,-55.500
1.011,-55.500,-91.500,-70.000,-57.000
1.012,-54.500,-91.500,-71.000,-58.500
1.013,-54.500,-92.000,-72.000,-60.000
1.014,-54.000,-92.500,-73.500,-61.500
1.015,-54.000,-93.500,-74.500,-62.500
1.016,-54.000,-93.500,-75.000,-63.000
1.017,-53.500,-93.500,-74.500,-62.000
1.018,-52.500,-93.000,-73.000,-60.500
1.019,-51.500,-92.000,-71.000,-58.000
1.020,-51.000,-91.000,-69.000,-56.000
1.021,-50.500,-90.000,-66.500,-53.000
1.022,-50.000,-89.000,-64.500,-50.500
1.023,-49.500,-87.500,-62.500,-48.000
1.024,-49.500,-86.500,-61.000,-46.000
1.025,-49.000,-86.000,-60.000,-45.000
1.026,-49.000,-85.500,-60.000,-45.000
1.027,-49.500,-86.000,-61.000,-45.500
1.028,-50.000,-87.000,-62.500,-47.500
1.029,-50.500,-88.500,-64.500,-49.500
1.030,-51.000,-90.000,-67.000,-52.500
1.031,-51.500,-91.500,-69.500,-56.000
1.032,-52.000,-93.500,-72.500,-59.000
1.033,-52.500,-95.000,-74.500,-62.000
1.034,-53.000,-96.000,-76.000,-64.000
1.035,-53.000,-97.000,-77.000,-65.000
1.036,-53.000,-97.500,-77.000,-65.000
1.037,-52.500,-97.500,-76.500,-64.000
1.038,-52.000,-97.000,-75.000,-62.500
1.039,-52.000,-96.500,-73.500,-60.500
1.040,-51.500,-95.500,-71.500,-58.000
1.041,-51.500,-94.500,-69.500,-55.000
1.042,-51.500,-93.000,-67.500,-52.500
1.043,-51.500,-92.000,-66.000,-50.500
1.044,-51.500,-91.500,-65.000,-49.000
1.045,-51.500,-91.000,-64.000,-48.000
1.046,-52.000,-91.500,-64.000,-48.000
1.047,-53.000,-92.000,-65.000,-49.500
1.048,-54.500,-94.000,-67.500,-52.000
1.049,-57.000,-96.500,-70.500,-56.000
1.050,-59.500,-99.500,-74.500,-60.000
1.051,-61.500,-102.500,-78.000,-64.000
1.052,-62.500,-104.500,-81.000,-67.500
1.053,-63.000,-106.000,-83.000,-70.500
1.054,-63.500,-107.000,-84.500,-72.000
1.055,-63.000,-107.500,-85.000,-73.000
1.056,-62.000,-107.000,-84.000,-72.500
1.057,-61.000,-106.000,-83.000,-71.500
1.058,-59.500,-104.500,-81.000,-69.500
1.059,-58.000,-103.000,-78.500,-66.500
1.060,-56.500,-101.000,-76.000,-63.500
1.061,-55.500,-99.500,-73.500,-60.500
1.062,-55.000,-98.000,-71.500,-58.000
1.063,-54.500,-97.000,-69.500,-56.000
1.064,-55.000,-96.500,-68.500,-54.500
1.065,-55.500,-96.500,-68.000,-53.500
1.066,-56.000,-96.500,-68.000,-53.500
1.067,-57.000,-97.500,-69.000,-54.000
1.068,-58.000,-98.500,-70.000,-55.500
1.069,-59.000,-100.000,-72.000,-57.500
1.070,-60.000,-101.500,-74.000,-60.000
1.071,-60.500,-103.000,-76.500,-63.000
1.072,-61.000,-104.500,-79.000,-66.500
1.073,-61.500,-106.000,-81.000,-69.500
1.074,-62.000,-108.000,-83.000,-72.000
1.075,-62.500,-109.000,-84.500,-73.500
1.076,-62.500,-109.500,-85.000,-74.500
1.077,-62.000,-110.000,-84.500,-74.500
1.078,-61.500,-109.500,-83.500,-73.000
1.079,-61.000,-109.000,-81.500,-71.500
1.080,-61.500,-108.500,-80.000,-69.500
1.081,-62.000,-108.000,-79.000,-67.500
1.082,-62.500,-107.500,-77.500,-65.500
1.083,-62.500,-106.500,-76.000,-63.500
1.084,-62.000,-105.000,-74.500,-61.500
1.085,-61.000,-104.000,-73.000,-60.000
1.086,-60.000,-103.500,-72.500,-59.000
1.087,-59.500,-103.500,-72.500,-59.500
1.088,-59.500,-103.500,-73.000,-60.000
1.089,-59.000,-103.500,-74.000,-61.000
1.090,-58.000,-103.000,-74.500,-62.500
1.091,-57.000,-102.500,-75.000,-63.500
1.092,-55.500,-101.500,-75.000,-64.500
1.093,-54.000,-101.000,-75.000,-65.000
1.094,-52.000,-100.000,-74.500,-65.000
1.095,-50.500,-99.000,-73.500,-64.500
1.096,-48.500,-97.500,-72.500,-63.000
1.097,-46.500,-96.000,-70.500,-61.000
1.098,-45.000,-94.500,-68.000,-58.500
1.099,-44.000,-93.000,-65.500,-55.000
1.100,-43.000,-91.500,-62.500,-51.500
1.101,-42.500,-90.500,-60.000,-48.000
1.102,-42.500,-89.500,-58.000,-45.000
1.103,-42.500,-88.500,-56.500,-43.000
1.104,-43.000,-88.500,-56.000,-42.000
1.105,-44.000,-88.500,-56.000,-41.500
1.106,-44.500,-89.000,-56.500,-42.500
1.107,-45.500,-89.500,-57.500,-43.500
1.108,-46.000,-90.500,-59.000,-45.000
1.109,-46.500,-92.000,-61.000,-47.500
1.110,-46.500,-92.500,-62.500,-49.500
1.111,-46.000,-93.000,-63.500,-51.500
1.112,-45.000,-93.000,-64.500,-53.000
1.113,-43.500,-93.000,-65.000,-54.000
1.114,-42.000,-92.500,-64.500,-54.500
1.115,-40.500,-91.500,-63.500,-53.500
1.116,-38.000,-89.500,-61.500,-51.500
1.117,-36.000,-87.500,-59.000,-49.000
1.118,-33.500,-85.500,-56.000,-45.500
1.119,-31.500,-83.000,-53.000,-42.000
1.120,-30.000,-81.000,-50.000,-38.000
1.121,-29.000,-79.500,-47.500,-35.000
1.122,-28.500,-78.500,-45.500,-32.500
1.123,-28.500,-78.000,-44.500,-30.500
1.124,-29.000,-78.000,-43.500,-29.500
1.125,-29.500,-78.000,-43.500,-29.000
1.126,-31.000,-78.500,-44.500,-30.000
1.127,-33.000,-80.500,-46.500,-32.000
1.128,-35.000,-82.500,-49.000,-35.500
1.129,-37.000,-85.000,-52.500,-39.000
1.130,-39.000,-87.000,-55.000,-42.000
1.131,-39.500,-88.500,-57.000,-44.500
1.132,-39.500,-89.000,-58.500,-46.000
1.133,-38.500,-89.000,-59.000,-47.000
1.134,-37.000,-89.000,-59.500,-48.000
1.135,-36.000,-88.500,-59.000,-48.000
1.136,-34.500,-88.000,-58.500,-48.000
1.137,-33.500,-87.500,-57.500,-47.500
1.138,-33.500,-87.500,-56.500,-46.500
1.139,-34.500,-87.500,-56.000,-45.500
1.140,-36.000,-88.500,-55.500,-44.500
1.141,-37.500,-89.000,-55.000,-43.500
1.142,-39.000,-89.500,-55.000,-42.500
1.143,-40.000,-90.000,-54.500,-42.000
1.144,-41.000,-90.500,-54.500,-41.000
1.145,-41.500,-91.000,-55.000,-41.000
1.146,-42.500,-91.500,-56.000,-41.500
1.147,-43.000,-92.500,-57.000,-42.500
1.148,-43.500,-93.000,-58.000,-44.000
1.149,-44.000,-93.500,-59.000,-45.500
1.150,-44.000,-94.000,-60.000,-47.000
1.151,-44.000,-94.500,-61.000,-48.500
1.152,-43.500,-94.500,-61.500,-50.000
1.153,-43.000,-95.000,-62.000,-51.000
1.154,-42.500,-95.000,-62.500,-51.500
1.155,-42.000,-94.500,-61.500,-51.000
1.156,-40.500,-93.500,-60.500,-50.000
1.157,-39.500,-92.500,-58.500,-48.000
1.158,-38.500,-91.000,-56.500,-46.000
1.159,-38.000,-91.000,-55.500,-44.000
1.160,-38.500,-91.000,-55.000,-43.000
1.161,-39.500,-92.000,-55.000,-42.500
1.162,-41.000,-93.000,-56.000,-42.500
1.163,-42.000,-94.500,-57.500,-43.000
1.164,-43.000,-96.000,-59.500,-44.500
1.165,-44.500,-97.500,-61.500,-46.500
1.166,-45.000,-99.500,-64.000,-49.500
1.167,-45.500,-100.500,-66.000,-52.000
1.168,-45.500,-101.000,-68.000,-54.500
1.169,-45.000,-101.000,-69.000,-56.000
1.170,-44.000,-100.500,-69.500,-57.500
1.171,-43.000,-100.000,-70.000,-59.000
1.172,-42.500,-99.500,-70.000,-59.500
1.173,-42.000,-99.000,-70.000,-60.000
1.174,-41.500,-99.000,-69.500,-60.000
1.175,-41.500,-98.500,-68.500,-59.000
1.176,-41.000,-98.000,-67.000,-58.000
1.177,-41.000,-97.000,-65.000,-56.000
1.178,-40.500,-96.500,-63.000,-53.500
1.179,-40.000,-95.500,-61.000,-50.500
1.180,-39.500,-94.500,-58.500,-47.000
1.181,-39.000,-93.000,-56.000,-44.000
1.182,-38.000,-91.500,-53.500,-41.000
1.183,-37.500,-90.000,-51.500,-38.500
1.184,-37.500,-89.000,-50.000,-36.500
1.185,-37.500,-88.500,-49.500,-36.000
1.186,-38.000,-88.500,-49.500,-36.000
1.187,-38.500,-89.000,-51.000,-37.500
1.188,-40.000,-90.500,-52.500,-39.500
1.189,-41.000,-92.000,-55.000,-42.500
1.190,-42.000,-93.500,-57.500,-45.500
1.191,-43.000,-95.000,-60.000,-49.000
1.192,-43.000,-96.500,-61.500,-51.500
1.193,-42.500,-97.000,-62.000,-53.000
1.194,-41.500,-96.500,-62.000,-53.500
1.195,-40.000,-96.500,-61.500,-53.500
1.196,-39.000,-95.500,-61.000,-53.000
1.197,-38.000,-95.000,-59.500,-52.000
1.198,-37.000,-94.000,-58.000,-50.000
1.199,-35.500,-92.500,-55.500,-47.500
1.200,-34.500,-90.500,-53.000,-44.000
1.201,-33.500,-89.000,-50.000,-40.500
1.202,-33.000,-87.500,-48.000,-38.000
1.203,-32.500,-86.000,-46.000,-36.000
1.204,-33.000,-85.500,-45.000,-34.500
1.205,-33.500,-85.500,-45.000,-34.500
1.206,-34.000,-86.000,-46.000,-35.000
1.207,-35.000,-87.000,-47.000,-36.500
1.208,-36.500,-88.000,-48.500,-38.500
1.209,-37.000,-89.500,-50.000,-40.500
1.210,-37.500,-90.500,-52.000,-43.000
1.211,-38.000,-92.000,-54.000,-45.500
1.212,-38.000,-93.000,-56.000,-48.000
1.213,-38.000,-94.000,-58.000,-50.000
1.214,-37.500,-95.000,-59.500,-51.000
1.215,-37.500,-95.500,-60.500,-52.000
1.216,-37.000,-95.500,-60.500,-52.000
1.217,-37.000,-95.500,-60.000,-51.000
1.218,-36.500,-95.000,-58.500,-49.500
1.219,-36.500,-94.500,-57.500,-47.500
1.220,-37.000,-94.000,-56.000,-45.500
1.221,-37.000,-93.500,-54.500,-44.000
1.222,-38.000,-93.500,-54.000,-42.500
1.223,-39.000,-94.000,-54.000,-42.000
1.224,-41.000,-95.000,-55.000,-42.500
1.225,-44.000,-97.500,-57.000,-44.000
1.226,-47.500,-100.500,-60.000,-47.000
1.227,-51.000,-104.000,-64.000,-51.000
1.228,-53.500,-107.000,-67.500,-54.500
1.229,-54.500,-108.500,-70.000,-57.500
1.230,-52.500,-107.500,-70.500,-58.500
1.231,-48.000,-104.000,-68.000,-56.500
1.232,-40.000,-97.000,-62.000,-51.500
1.233,-29.000,-86.500,-52.000,-42.500
1.234,-14.500,-73.000,-39.000,-29.500
1.235,2.000,-57.000,-22.000,-13.500
1.236,21.000,-38.500,-3.000,5.500
1.237,41.000,-18.500,17.500,26.500
1.238,61.000,2.000,39.000,48.000
1.239,81.000,22.500,60.000,70.000
1.240,100.500,43.000,82.000,92.500
1.241,121.000,64.500,104.500,115.500
1.242,143.000,87.000,128.000,140.500
1.243,166.000,111.500,153.500,166.500
1.244,191.000,137.500,179.500,193.500
1.245,216.500,164.000,207.000,221.500
1.246,242.500,190.500,234.000,249.000
1.247,267.500,216.500,260.000,275.500
1.248,291.000,240.500,284.500,300.000
1.249,313.500,263.500,307.000,323.000
1.250,336.500,286.000,329.500,345.500
1.251,360.500,310.000,353.000,369.000
1.252,386.500,336.000,379.000,394.500
1.253,415.000,364.000,406.500,421.500
1.254,444.000,392.500,435.500,450.500
1.255,473.000,421.000,464.000,479.000
1.256,498.500,446.500,490.500,505.000
1.257,518.000,466.000,510.500,525.500
1.258,526.000,474.000,519.500,534.500
1.259,518.000,466.500,513.000,528.500
1.260,492.500,441.500,489.000,505.000
1.261,451.500,401.000,449.500,465.500
1.262,400.500,350.500,399.500,416.000
1.263,345.000,295.500,344.500,361.500
1.264,289.000,240.000,289.000,306.000
1.265,235.500,186.000,235.000,251.500
1.266,184.500,135.000,183.500,199.000
1.267,137.500,87.000,135.000,149.500
1.268,95.000,43.500,90.000,104.000
1.269,57.500,4.500,50.000,63.000
1.270,25.500,-29.000,15.500,27.500
1.271,-1.500,-57.000,-14.500,-3.000
1.272,-23.000,-80.000,-38.500,-28.000
1.273,-40.000,-98.500,-57.500,-47.500
1.274,-52.500,-112.000,-71.500,-62.000
1.275,-61.500,-122.000,-82.000,-73.000
1.276,-68.000,-129.500,-89.500,-81.000
1.277,-73.000,-135.000,-95.000,-86.000
1.278,-76.500,-139.000,-98.000,-89.500
1.279,-78.500,-141.000,-99.500,-90.500
1.280,-78.500,-140.500,-98.500,-89.000
1.281,-77.500,-139.000,-96.000,-85.500
1.282,-76.000,-136.000,-92.500,-81.500
1.283,-73.500,-133.000,-89.000,-77.000
1.284,-71.500,-130.000,-85.500,-73.000
1.285,-70.000,-127.500,-83.000,-69.500
1.286,-68.500,-125.500,-81.000,-67.500
1.287,-66.500,-124.000,-79.500,-66.000
1.288,-65.000,-122.000,-78.000,-64.500
1.289,-62.500,-120.000,-76.500,-64.000
1.290,-60.000,-118.000,-75.500,-63.500
1.291,-57.500,-116.500,-74.500,-63.000
1.292,-55.000,-114.500,-73.500,-62.000
1.293,-51.500,-112.500,-72.000,-61.000
1.294,-48.000,-110.500,-70.500,-60.000
1.295,-45.000,-108.000,-68.500,-58.000
1.296,-41.500,-106.000,-66.000,-56.000
1.297,-39.000,-103.500,-63.000,-53.000
1.298,-37.000,-101.000,-60.000,-49.500
1.299,-35.000,-98.500,-56.500,-46.000
1.300,-33.500,-96.500,-53.000,-42.000
1.301,-32.000,-94.000,-49.500,-38.000
1.302,-31.000,-92.000,-46.500,-35.000
1.303,-30.500,-90.500,-44.500,-32.500
1.304,-30.000,-89.500,-43.000,-30.500
1.305,-30.000,-88.500,-42.000,-30.000
1.306,-30.000,-88.500,-42.000,-29.500
1.307,-30.500,-89.000,-42.500,-30.500
1.308,-31.000,-89.500,-43.500,-32.000
1.309,-32.000,-91.000,-45.500,-34.000
1.310,-33.500,-93.000,-47.500,-36.500
1.311,-34.000,-94.500,-50.000,-39.500
1.312,-34.500,-95.500,-51.500,-42.000
1.313,-34.000,-96.500,-53.000,-44.000
1.314,-34.000,-97.000,-54.000,-45.500
1.315,-33.500,-97.500,-55.000,-46.000
1.316,-33.500,-98.000,-55.000,-46.500
1.317,-33.500,-98.000,-54.000,-46.000
1.318,-33.500,-97.500,-53.000,-44.500
1.319,-33.000,-96.500,-51.000,-42.500
1.320,-33.000,-96.000,-49.500,-40.000
1.321,-33.000,-95.500,-48.000,-38.000
1.322,-33.500,-95.000,-47.000,-36.500
1.323,-34.000,-95.500,-46.500,-35.500
1.324,-35.000,-96.000,-46.500,-35.000
1.325,-36.000,-96.500,-47.000,-35.500
1.326,-37.500,-97.500,-47.500,-36.000
1.327,-38.500,-98.500,-49.000,-37.000
1.328,-40.000,-99.500,-50.500,-39.000
1.329,-41.000,-101.000,-52.500,-41.500
1.330,-41.500,-102.000,-54.500,-44.000
1.331,-41.500,-103.000,-56.500,-46.500
1.332,-40.500,-103.000,-58.000,-48.500
1.333,-40.000,-103.000,-58.500,-50.000
1.334,-39.000,-103.000,-59.000,-50.500
1.335,-38.500,-103.000,-59.500,-50.500
1.336,-37.500,-102.500,-58.500,-50.000
1.337,-37.000,-102.000,-57.500,-48.500
1.338,-36.500,-101.500,-56.000,-47.000
1.339,-36.000,-101.000,-54.500,-44.500
1.340,-36.000,-100.000,-53.000,-42.500
1.341,-36.000,-99.500,-51.500,-40.000
1.342,-36.000,-98.500,-49.500,-38.000
1.343,-36.000,-97.500,-48.000,-36.000
1.344,-36.000,-97.000,-47.000,-34.500
1.345,-36.000,-96.500,-46.500,-34.000
1.346,-36.500,-97.000,-47.000,-34.000
1.347,-37.000,-97.500,-48.000,-35.000
1.348,-38.000,-99.000,-50.000,-36.500
1.349,-39.000,-100.500,-52.000,-39.000
1.350,-39.500,-102.000,-54.500,-42.000
1.351,-40.000,-103.500,-57.000,-45.000
1.352,-40.000,-104.000,-58.500,-47.000
1.353,-39.000,-104.000,-59.000,-48.500
1.354,-37.500,-103.500,-59.000,-49.000
1.355,-36.500,-103.000,-58.000,-48.500
1.356,-35.500,-102.500,-57.500,-48.000
1.357,-34.500,-102.000,-56.500,-46.500
1.358,-33.500,-101.000,-55.000,-44.500
1.359,-33.000,-100.000,-53.000,-42.000
1.360,-32.500,-99.000,-51.000,-39.000
1.361,-32.500,-98.000,-48.500,-36.000
1.362,-32.500,-97.000,-46.500,-33.500
1.363,-32.500,-96.000,-45.000,-31.000
1.364,-33.000,-95.500,-44.000,-29.500
1.365,-33.000,-95.500,-43.000,-28.500
1.366,-33.500,-95.500,-43.500,-29.000
1.367,-34.500,-96.000,-44.000,-30.000
1.368,-35.500,-97.000,-46.000,-32.000
1.369,-36.500,-98.500,-48.000,-34.500
1.370,-37.000,-100.000,-50.000,-37.500
1.371,-37.500,-101.500,-52.500,-40.500
1.372,-37.000,-102.500,-54.000,-43.000
1.373,-36.000,-103.000,-55.500,-45.500
1.374,-35.000,-103.500,-56.500,-47.000
1.375,-34.000,-103.500,-56.500,-48.000
1.376,-33.000,-103.000,-56.000,-47.500
1.377,-31.500,-102.000,-54.000,-45.500
1.378,-30.000,-100.500,-51.500,-43.000
1.379,-29.000,-98.500,-48.500,-40.000
1.380,-28.000,-97.000,-45.500,-36.500
1.381,-27.500,-95.500,-43.000,-33.000
1.382,-27.000,-94.000,-40.000,-29.500
1.383,-26.500,-92.500,-38.000,-26.500
1.384,-26.000,-91.500,-36.500,-24.000
1.385,-26.000,-91.000,-36.000,-23.000
1.386,-26.000,-91.000,-36.000,-23.000
1.387,-26.500,-91.500,-37.000,-24.000
1.388,-27.000,-92.500,-38.500,-25.500
1.389,-27.500,-93.500,-40.000,-27.500
1.390,-28.000,-95.000,-42.000,-30.000
1.391,-29.000,-96.500,-44.000,-33.000
1.392,-29.500,-98.000,-46.000,-35.500
1.393,-29.500,-98.500,-47.500,-37.500
1.394,-29.000,-99.000,-48.000,-38.500
1.395,-27.500,-98.500,-47.500,-38.500
1.396,-26.000,-97.000,-46.500,-37.500
1.397,-24.500,-96.000,-44.500,-35.500
1.398,-23.000,-94.500,-42.500,-33.000
1.399,-22.000,-93.000,-40.500,-30.500
1.400,-21.000,-91.500,-37.500,-27.000
1.401,-20.000,-89.500,-35.000,-24.000
1.402,-19.500,-87.500,-32.000,-21.000
1.403,-19.000,-86.000,-30.000,-18.500
1.404,-19.500,-85.500,-29.000,-17.000
1.405,-20.500,-85.500,-29.000,-17.000
1.406,-21.500,-86.000,-29.500,-17.500
1.407,-22.000,-87.000,-30.000,-18.500
1.408,-22.000,-87.500,-31.000,-20.000
1.409,-22.500,-88.500,-32.000,-21.500
1.410,-22.500,-89.500,-34.000,-24.000
1.411,-23.000,-91.000,-36.000,-27.000
1.412,-23.500,-92.000,-38.000,-29.500
1.413,-23.000,-92.500,-39.500,-31.500
1.414,-22.000,-92.500,-40.000,-32.500
1.415,-21.000,-92.000,-39.500,-32.500
1.416,-20.000,-91.500,-38.500,-32.000
1.417,-19.000,-90.500,-37.000,-30.000
1.418,-18.000,-89.500,-35.000,-27.500
1.419,-17.000,-87.500,-32.000,-24.500
1.420,-15.500,-85.500,-29.000,-21.000
1.421,-14.500,-83.500,-26.000,-17.500
1.422,-14.000,-82.000,-23.500,-15.000
1.423,-13.500,-81.000,-21.500,-12.500
1.424,-13.500,-80.000,-20.000,-11.500
1.425,-13.500,-80.000,-19.500,-10.500
1.426,-13.000,-79.500,-19.500,-10.500
1.427,-13.000,-79.500,-19.500,-11.000
1.428,-13.000,-80.000,-20.000,-12.000
1.429,-12.500,-80.000,-21.500,-13.500
1.430,-12.500,-80.000,-22.500,-15.000
1.431,-11.500,-80.000,-23.000,-16.000
1.432,-10.000,-79.500,-23.000,-16.500
1.433,-7.500,-78.000,-22.000,-16.000
1.434,-5.000,-76.000,-20.500,-14.500
1.435,-3.000,-74.000,-18.500,-13.000
1.436,-1.000,-72.000,-16.000,-11.000
1.437,1.000,-70.000,-14.000,-8.500
1.438,2.500,-68.500,-11.500,-5.500
1.439,4.000,-66.500,-9.000,-2.500
1.440,5.500,-64.500,-6.500,1.000
1.441,7.000,-62.500,-3.500,4.500
1.442,9.000,-60.000,0.000,8.500
1.443,10.500,-58.000,3.000,11.500
1.444,12.500,-55.500,5.500,14.500
1.445,14.000,-53.500,7.500,16.500
1.446,15.000,-52.500,9.500,18.000
1.447,16.500,-51.000,10.500,19.000
1.448,17.500,-50.000,11.500,19.500
1.449,19.500,-48.500,12.000,20.000
1.450,21.500,-47.000,12.500,20.000
1.451,23.500,-45.500,13.000,20.500
1.452,26.000,-44.500,13.500,20.500
1.453,28.000,-43.500,14.000,20.500
1.454,30.000,-42.500,15.000,21.000
1.455,32.500,-41.000,16.500,22.000
1.456,35.000,-39.000,19.000,24.500
1.457,37.500,-36.500,22.000,27.500
1.458,40.500,-33.500,25.500,31.500
1.459,43.500,-30.500,30.000,36.000
1.460,46.500,-27.000,34.000,41.000
1.461,49.000,-23.500,38.500,46.500
1.462,52.000,-20.000,42.500,51.500
1.463,54.500,-16.500,46.500,56.000
1.464,57.000,-13.000,50.500,60.000
1.465,59.500,-10.000,53.500,63.500
1.466,61.500,-8.000,55.500,66.000
1.467,62.500,-6.000,57.000,67.500
1.468,63.500,-5.000,57.500,68.000
1.469,64.500,-4.500,57.500,67.500
1.470,65.500,-4.000,57.500,67.500
1.471,67.500,-3.000,58.000,67.500
1.472,70.500,-1.000,59.500,68.000
1.473,73.500,1.500,61.500,69.500
1.474,77.000,4.500,64.500,71.500
1.475,81.000,7.500,67.500,74.000
1.476,84.500,11.000,71.500,77.500
1.477,88.000,14.500,75.500,82.000
1.478,91.500,18.000,79.500,86.500
1.479,94.000,21.500,84.000,91.000
1.480,96.500,24.500,88.000,96.000
1.481,98.500,28.000,92.500,100.500
1.482,101.000,31.500,96.500,105.500
1.483,104.000,35.000,101.000,110.000
1.484,107.000,38.500,105.000,114.500
1.485,109.500,41.500,108.000,117.500
1.486,111.500,43.000,110.000,119.500
1.487,113.000,44.000,110.500,119.500
1.488,114.500,44.500,110.000,119.500
1.489,115.500,45.000,109.500,118.500
1.490,116.500,45.500,108.500,117.000
1.491,117.500,45.500,108.000,116.000
1.492,118.500,45.500,107.500,114.500
1.493,119.000,45.000,106.500,112.500
1.494,119.000,44.500,105.500,111.000
1.495,119.500,44.000,105.000,110.000
1.496,120.000,43.500,105.500,110.000
1.497,120.500,44.000,106.000,110.500
1.498,120.500,44.000,107.000,112.000
1.499,120.500,44.000,108.000,113.500
1.500,119.000,43.500,109.000,115.000
1.501,117.000,42.500,109.000,116.000
1.502,114.000,40.500,108.000,115.500
1.503,110.000,38.000,106.500,114.500
1.504,106.500,35.000,104.000,112.500
1.505,102.500,32.000,101.000,109.500
1.506,98.500,28.500,97.000,106.000
1.507,94.000,24.000,93.000,101.500
1.508,90.000,20.000,88.000,96.500
1.509,86.000,15.500,82.500,90.500
1.510,82.000,11.000,77.500,84.500
1.511,78.500,6.500,72.000,78.500
1.512,75.500,3.000,67.500,73.000
1.513,73.500,0.000,63.500,68.500
1.514,72.000,-2.500,60.000,64.500
1.515,70.500,-5.500,57.000,61.000
1.516,69.000,-8.000,54.500,58.000
1.517,66.500,-11.000,52.000,55.500
1.518,63.500,-14.000,49.500,53.500
1.519,60.000,-17.000,47.500,51.500
1.520,56.000,-20.500,45.000,50.000
1.521,52.000,-24.000,43.000,48.500
1.522,47.500,-27.000,40.500,46.500
1.523,43.500,-30.500,37.500,44.500
1.524,39.500,-34.000,34.500,41.500
1.525,35.000,-38.000,31.000,38.500
1.526,30.500,-42.000,27.000,34.500
1.527,26.500,-46.000,22.500,30.000
1.528,22.500,-50.500,18.000,25.000
1.529,19.000,-54.500,13.000,20.000
1.530,15.500,-58.500,8.000,14.500
1.531,12.500,-62.500,3.000,9.000
1.532,10.000,-66.500,-1.500,4.000
1.533,8.000,-69.500,-5.500,-1.000
1.534,6.500,-72.500,-8.500,-4.500
1.535,5.000,-74.500,-11.000,-7.500
1.536,3.500,-76.500,-12.500,-9.500
1.537,1.500,-78.000,-13.500,-10.500
1.538,0.000,-79.500,-14.000,-10.500
1.539,-2.000,-80.500,-14.000,-10.000
1.540,-3.500,-81.000,-14.000,-9.500
1.541,-5.000,-82.000,-14.000,-8.500
1.542,-6.500,-82.500,-13.500,-7.500
1.543,-7.500,-82.500,-13.500,-7.000
1.544,-8.000,-82.500,-13.000,-6.000
1.545,-8.000,-82.500,-12.500,-6.000
1.546,-8.500,-82.500,-13.000,-6.500
1.547,-9.500,-83.500,-14.500,-8.000
1.548,-10.500,-85.500,-17.500,-11.000
1.549,-12.000,-88.000,-21.000,-15.000
1.550,-14.000,-91.000,-25.000,-19.500
1.551,-15.500,-94.000,-29.000,-24.000
1.552,-17.000,-96.500,-32.500,-27.500
1.553,-18.500,-98.500,-35.000,-30.500
1.554,-19.000,-100.000,-36.500,-33.000
1.555,-20.000,-101.500,-37.500,-34.000
1.556,-21.000,-102.000,-38.000,-34.500
1.557,-22.000,-103.000,-38.000,-34.000
1.558,-23.500,-104.000,-38.000,-33.000
1.559,-25.000,-104.500,-37.000,-31.500
1.560,-26.500,-105.000,-36.500,-30.000
1.561,-28.000,-105.000,-35.500,-28.000
1.562,-29.500,-105.000,-34.500,-26.500
1.563,-30.500,-105.000,-34.000,-25.500
1.564,-31.500,-105.500,-34.000,-25.000
1.565,-32.500,-106.000,-34.500,-25.500
1.566,-34.000,-107.000,-36.000,-27.000
1.567,-35.000,-109.000,-38.500,-29.500
1.568,-36.000,-110.500,-41.500,-32.500
1.569,-36.500,-112.500,-45.000,-35.500
1.570,-36.500,-113.500,-48.000,-39.000
1.571,-36.000,-115.000,-50.500,-42.000
1.572,-35.000,-116.000,-53.000,-45.000
1.573,-34.000,-116.500,-55.000,-47.500
1.574,-32.500,-116.500,-55.500,-48.500
1.575,-31.000,-115.500,-54.500,-48.500
1.576,-29.500,-114.000,-52.500,-47.000
1.577,-28.000,-112.000,-50.000,-44.500
1.578,-27.000,-110.500,-47.500,-41.500
1.579,-26.500,-108.500,-44.500,-38.500
1.580,-26.500,-107.500,-42.500,-35.500
1.581,-27.500,-107.000,-40.500,-33.000
1.582,-28.500,-107.000,-39.500,-31.000
1.583,-30.000,-107.000,-39.000,-30.000
1.584,-30.500,-107.000,-38.000,-29.000
1.585,-31.000,-106.500,-37.500,-28.500
1.586,-30.500,-106.000,-36.500,-27.500
1.587,-30.000,-105.000,-36.000,-27.000
1.588,-29.500,-104.500,-36.000,-27.000
1.589,-30.000,-105.000,-37.500,-28.500
1.590,-30.500,-106.000,-39.000,-30.500
1.591,-31.000,-107.000,-41.000,-33.000
1.592,-31.000,-108.000,-42.500,-35.000
1.593,-31.500,-108.500,-44.000,-37.000
1.594,-32.000,-109.500,-45.000,-38.500
1.595,-32.500,-111.000,-46.500,-40.000
1.596,-33.000,-112.000,-47.000,-41.000
1.597,-33.000,-112.500,-47.500,-41.000
1.598,-33.000,-113.000,-47.000,-40.500
1.599,-33.000,-112.500,-46.500,-39.000
1.600,-33.000,-112.500,-45.500,-37.000
1.601,-33.500,-112.000,-44.500,-35.000
1.602,-34.500,-112.000,-43.500,-33.500
1.603,-35.000,-112.000,-42.500,-32.500
1.604,-35.500,-112.500,-42.500,-32.000
1.605,-36.000,-113.000,-42.500,-32.000
1.606,-36.500,-113.500,-43.000,-32.500
1.607,-37.000,-114.500,-44.000,-33.500
1.608,-37.500,-115.500,-45.500,-35.500
1.609,-38.500,-116.500,-47.500,-37.500
1.610,-39.000,-118.000,-50.000,-40.000
1.611,-39.500,-119.000,-52.500,-42.500
1.612,-39.500,-120.000,-54.000,-44.500
1.613,-39.000,-120.000,-55.000,-46.000
1.614,-38.500,-119.500,-55.000,-46.500
1.615,-37.500,-119.000,-54.500,-46.000
1.616,-36.500,-118.500,-54.000,-45.500
1.617,-36.000,-118.500,-53.000,-45.000
1.618,-35.500,-118.000,-52.000,-43.500
1.619,-35.000,-117.500,-50.500,-41.000
1.620,-34.500,-116.500,-49.000,-39.000
1.621,-34.500,-116.000,-47.500,-36.500
1.622,-34.000,-115.000,-46.000,-34.000
1.623,-34.000,-114.500,-44.500,-32.500
1.624,-34.000,-113.500,-43.500,-31.500
1.625,-34.500,-113.500,-43.000,-31.000
1.626,-35.500,-113.500,-43.500,-31.000
1.627,-36.500,-114.500,-44.500,-32.500
1.628,-38.000,-116.000,-46.500,-35.000
1.629,-40.000,-118.000,-49.000,-38.000
1.630,-41.500,-120.000,-52.000,-41.000
1.631,-42.000,-121.500,-54.500,-44.000
1.632,-42.500,-123.000,-56.500,-46.000
1.633,-42.000,-123.500,-57.500,-48.000
1.634,-41.500,-124.000,-58.500,-48.500
1.635,-41.000,-124.000,-58.500,-49.000
1.636,-40.500,-124.500,-58.500,-49.000
1.637,-40.000,-124.000,-58.000,-48.000
1.638,-39.500,-123.000,-56.500,-46.500
1.639,-38.500,-121.500,-54.500,-43.500
1.640,-37.000,-119.000,-51.500,-39.500
1.641,-35.500,-116.500,-48.500,-35.500
1.642,-34.000,-114.500,-45.500,-32.000
1.643,-33.500,-113.000,-43.500,-30.000
1.644,-33.500,-112.500,-42.500,-29.000
1.645,-34.500,-113.000,-42.500,-29.000
1.646,-35.000,-113.000,-43.000,-29.500
1.647,-35.500,-113.500,-44.000,-30.500
1.648,-36.000,-114.500,-45.000,-32.000
1.649,-36.500,-115.500,-47.000,-33.500
1.650,-36.500,-116.500,-49.000,-36.000
1.651,-37.000,-118.000,-51.500,-38.500
1.652,-37.000,-119.000,-53.000,-41.000
1.653,-36.500,-119.500,-54.500,-43.000
1.654,-36.000,-120.000,-55.500,-44.000
1.655,-35.000,-120.000,-55.500,-44.500
1.656,-34.500,-119.500,-55.000,-44.500
1.657,-34.000,-119.500,-54.500,-44.000
1.658,-33.500,-119.500,-53.500,-43.000
1.659,-33.500,-118.500,-52.000,-41.500
1.660,-33.500,-118.000,-50.000,-39.000
1.661,-34.500,-117.500,-48.500,-37.000
1.662,-35.500,-117.500,-47.500,-35.500
1.663,-37.000,-117.500,-47.000,-34.500
1.664,-38.000,-117.500,-46.500,-33.500
1.665,-39.000,-118.000,-46.500,-33.000
1.666,-40.000,-119.000,-47.500,-34.000
1.667,-41.000,-120.500,-49.500,-35.500
1.668,-42.000,-121.500,-51.500,-37.500
1.669,-42.000,-122.500,-53.000,-39.500
1.670,-41.500,-123.000,-54.500,-42.000
1.671,-40.500,-123.500,-56.000,-43.500
1.672,-39.000,-123.000,-56.500,-45.000
1.673,-38.000,-123.000,-57.500,-46.500
1.674,-37.500,-123.000,-58.000,-47.500
1.675,-37.500,-123.500,-58.500,-48.000
1.676,-37.500,-123.500,-58.000,-48.000
1.677,-37.000,-123.500,-57.000,-47.000
1.678,-36.000,-122.500,-55.500,-45.000
1.679,-35.000,-121.000,-53.000,-42.000
1.680,-33.500,-119.000,-50.000,-39.000
1.681,-32.000,-117.000,-47.000,-35.500
1.682,-32.000,-116.000,-45.500,-33.000
1.683,-32.500,-116.000,-45.000,-32.500
1.684,-34.500,-117.000,-45.000,-32.500
1.685,-36.000,-118.000,-46.000,-33.000
1.686,-36.500,-118.500,-46.000,-33.000
1.687,-37.000,-118.500,-46.500,-33.000
1.688,-36.500,-118.000,-47.000,-33.500
1.689,-36.000,-118.000,-47.500,-34.500
1.690,-35.500,-118.500,-49.000,-36.500
1.691,-35.500,-119.000,-51.000,-39.000
1.692,-35.500,-120.000,-53.000,-41.500
1.693,-35.500,-121.000,-54.500,-43.500
1.694,-35.000,-121.500,-55.500,-45.000
1.695,-34.500,-122.000,-56.000,-45.500
1.696,-34.000,-122.000,-55.500,-45.000
1.697,-33.500,-121.500,-54.500,-44.000
1.698,-32.500,-120.500,-52.500,-41.500
1.699,-32.000,-119.500,-50.500,-39.000
1.700,-32.000,-118.500,-48.000,-36.500
1.701,-31.500,-117.500,-46.000,-34.000
1.702,-31.500,-116.500,-44.000,-31.500
1.703,-31.500,-115.500,-43.000,-29.500
1.704,-32.000,-115.000,-42.000,-28.500
1.705,-32.000,-115.000,-42.000,-28.000
1.706,-33.000,-115.500,-43.000,-28.500
1.707,-33.500,-115.500,-44.000,-29.500
1.708,-34.000,-116.500,-45.000,-31.000
1.709,-34.000,-117.000,-47.000,-33.000
1.710,-34.000,-117.500,-48.500,-35.000
1.711,-33.000,-118.000,-50.000,-37.000
1.712,-32.000,-118.000,-51.000,-38.500
1.713,-30.500,-117.500,-51.500,-40.000
1.714,-30.000,-117.500,-52.000,-41.000
1.715,-29.500,-117.500,-52.000,-41.500
1.716,-29.000,-117.500,-51.500,-41.000
1.717,-29.000,-118.000,-51.000,-40.000
1.718,-29.500,-118.000,-50.000,-38.500
1.719,-30.000,-118.000,-49.000,-37.000
1.720,-31.000,-118.500,-48.000,-35.500
1.721,-32.000,-119.000,-47.500,-34.500
1.722,-33.000,-119.500,-47.500,-33.500
1.723,-33.000,-119.000,-47.000,-32.500
1.724,-33.000,-118.500,-46.000,-31.000
1.725,-32.500,-117.500,-45.000,-30.000
1.726,-32.500,-116.500,-45.000,-29.500
1.727,-32.500,-116.500,-45.000,-30.500
1.728,-33.000,-117.500,-46.500,-31.500
1.729,-33.500,-118.500,-48.500,-34.000
1.730,-34.500,-120.000,-50.500,-37.000
1.731,-35.500,-121.500,-53.000,-39.500
1.732,-35.500,-122.500,-54.500,-42.000
1.733,-35.500,-123.000,-55.500,-44.000
1.734,-35.000,-123.500,-56.500,-45.000
1.735,-35.000,-123.500,-56.500,-46.000
1.736,-34.500,-123.500,-56.500,-45.500
1.737,-33.500,-123.000,-55.500,-44.000
1.738,-32.500,-122.000,-53.500,-42.000
1.739,-31.500,-120.500,-51.000,-38.500
1.740,-30.000,-118.500,-48.000,-35.500
1.741,-29.000,-117.000,-45.500,-32.000
1.742,-28.500,-115.000,-43.500,-30.000
1.743,-28.500,-114.500,-42.500,-28.500
1.744,-29.000,-114.500,-42.500,-28.000
1.745,-30.500,-115.500,-43.500,-28.500
1.746,-32.000,-116.500,-44.500,-29.500
1.747,-33.000,-117.500,-46.000,-30.500
1.748,-33.500,-118.000,-47.000,-31.500
1.749,-33.000,-118.000,-47.500,-32.000
1.750,-32.500,-118.000,-48.500,-33.000
1.751,-32.000,-118.500,-50.000,-35.000
1.752,-31.500,-119.000,-51.500,-37.000
1.753,-31.500,-120.000,-53.000,-38.500
1.754,-31.000,-120.500,-54.000,-40.000
1.755,-30.500,-120.500,-54.000,-40.500
1.756,-30.000,-120.000,-53.500,-40.000
1.757,-29.000,-119.000,-52.000,-38.500
1.758,-28.000,-117.500,-50.000,-36.000
1.759,-27.000,-116.000,-47.500,-33.000
1.760,-26.500,-114.500,-45.000,-30.000
1.761,-26.000,-113.500,-42.500,-27.500
1.762,-26.500,-112.500,-41.000,-25.500
1.763,-27.000,-112.500,-40.500,-24.500
1.764,-27.500,-112.500,-40.000,-24.000
1.765,-28.000,-112.500,-40.500,-24.500
1.766,-29.000,-113.000,-41.000,-25.000
1.767,-29.500,-114.000,-42.500,-26.500
1.768,-30.500,-115.000,-44.000,-28.000
1.769,-31.000,-116.000,-46.000,-31.000
1.770,-32.000,-118.000,-48.500,-34.000
1.771,-33.000,-119.500,-51.500,-37.500
1.772,-33.500,-121.500,-54.500,-41.000
1.773,-34.500,-123.000,-56.500,-43.500
1.774,-34.500,-124.000,-58.000,-45.000
1.775,-34.500,-125.000,-58.500,-46.000
1.776,-34.500,-125.000,-58.500,-46.000
1.777,-34.000,-124.500,-58.000,-45.500
1.778,-33.000,-123.500,-56.500,-43.500
1.779,-32.000,-122.000,-54.500,-41.000
1.780,-30.500,-120.500,-52.000,-38.000
1.781,-29.500,-119.000,-49.500,-35.500
1.782,-29.000,-117.500,-47.500,-32.500
1.783,-28.500,-116.500,-46.000,-30.500
1.784,-28.000,-115.500,-44.500,-28.500
1.785,-27.500,-115.000,-44.000,-27.500
1.786,-27.500,-115.000,-44.000,-28.000
1.787,-28.000,-115.500,-45.000,-29.000
1.788,-29.000,-117.000,-47.000,-31.500
1.789,-30.000,-118.500,-49.500,-34.000
1.790,-31.000,-120.000,-51.500,-36.500
1.791,-31.000,-121.000,-53.500,-38.500
1.792,-31.500,-122.000,-54.500,-40.500
1.793,-31.500,-123.000,-55.500,-42.000
1.794,-31.500,-123.000,-56.500,-42.500
1.795,-31.500,-123.500,-56.500,-43.000
1.796,-31.000,-123.500,-56.000,-42.500
1.797,-31.000,-123.500,-55.000,-41.500
1.798,-30.500,-122.500,-53.500,-39.500
1.799,-30.000,-121.500,-51.500,-37.000
1.800,-29.500,-120.500,-49.500,-34.000
1.801,-29.500,-119.500,-47.500,-31.500
1.802,-30.000,-118.500,-46.000,-29.000
1.803,-31.000,-118.500,-45.000,-28.000
1.804,-32.000,-119.000,-45.000,-27.000
1.805,-33.000,-119.500,-45.000,-27.500
1.806,-33.500,-120.000,-45.500,-27.500
1.807,-33.500,-120.000,-46.500,-28.500
1.808,-34.000,-120.500,-47.500,-30.500
1.809,-34.500,-121.500,-49.500,-33.000
1.810,-35.000,-122.500,-52.000,-36.000
1.811,-35.500,-124.000,-54.500,-39.000
1.812,-35.000,-124.500,-56.500,-41.500
1.813,-34.500,-125.000,-58.000,-43.500
1.814,-34.500,-125.500,-58.500,-44.500
1.815,-34.500,-126.000,-59.000,-45.500
1.816,-34.500,-126.500,-59.000,-45.500
1.817,-34.500,-126.500,-58.000,-44.500
1.818,-34.500,-126.000,-56.500,-43.000
1.819,-34.000,-125.000,-54.500,-40.500
1.820,-33.500,-124.000,-52.500,-38.000
1.821,-33.000,-123.000,-50.500,-35.000
1.822,-33.000,-121.500,-49.000,-33.000
1.823,-32.500,-120.500,-48.000,-31.000
1.824,-32.500,-120.000,-46.500,-29.500
1.825,-32.500,-119.500,-46.000,-28.500
1.826,-33.500,-119.500,-46.500,-29.000
1.827,-34.500,-120.500,-47.500,-30.000
1.828,-35.500,-122.000,-49.500,-32.500
1.829,-36.000,-123.500,-51.500,-35.000
1.830,-36.500,-124.500,-53.500,-37.500
1.831,-36.000,-125.000,-55.000,-39.500
1.832,-35.500,-125.500,-56.000,-41.500
1.833,-34.500,-125.500,-56.500,-43.000
1.834,-34.000,-126.000,-57.000,-44.000
1.835,-33.000,-126.000,-57.000,-44.500
1.836,-32.000,-125.500,-56.000,-44.000
1.837,-30.500,-124.500,-54.500,-42.500
1.838,-29.000,-122.500,-52.000,-40.000
1.839,-28.000,-120.500,-49.500,-36.500
1.840,-27.500,-119.000,-47.500,-33.500
1.841,-27.500,-118.000,-45.500,-31.000
1.842,-27.500,-117.000,-44.000,-29.000
1.843,-28.000,-116.500,-43.000,-27.500
1.844,-28.500,-116.500,-42.500,-26.500
1.845,-29.000,-116.500,-42.500,-26.500
1.846,-29.500,-117.500,-43.500,-27.500
1.847,-30.500,-118.500,-45.500,-29.000
1.848,-32.000,-120.500,-48.000,-31.500
1.849,-33.500,-122.000,-50.500,-34.000
1.850,-34.500,-124.000,-53.000,-37.000
1.851,-35.500,-125.000,-55.000,-39.500
1.852,-35.500,-126.000,-56.500,-42.000
1.853,-35.000,-126.000,-57.500,-43.500
1.854,-35.000,-126.500,-58.000,-45.000
1.855,-34.500,-127.000,-58.500,-45.500
1.856,-34.000,-127.000,-58.000,-45.000
1.857,-33.000,-126.500,-56.500,-43.500
1.858,-32.000,-125.500,-54.500,-41.500
1.859,-31.500,-124.000,-52.500,-38.500
1.860,-30.000,-122.500,-50.000,-35.000
1.861,-29.000,-120.500,-47.500,-32.000
1.862,-27.500,-118.500,-45.000,-28.500
1.863,-26.500,-117.000,-42.500,-25.500
1.864,-25.500,-115.500,-40.500,-23.000
1.865,-24.500,-114.500,-39.500,-22.000
1.866,-24.500,-114.000,-39.000,-21.500
1.867,-25.000,-114.500,-40.000,-22.500
1.868,-25.500,-115.500,-41.500,-24.500
1.869,-26.000,-116.500,-43.500,-27.000
1.870,-26.000,-117.500,-45.500,-30.000
1.871,-26.500,-118.500,-47.000,-32.500
1.872,-26.000,-119.500,-48.500,-34.500
1.873,-26.000,-120.000,-49.500,-36.500
1.874,-26.000,-120.500,-50.500,-38.500
1.875,-26.000,-121.500,-51.500,-39.500
1.876,-26.000,-121.500,-51.500,-39.500
1.877,-25.500,-121.500,-51.000,-39.000
1.878,-25.000,-121.000,-49.500,-37.000
1.879,-24.500,-120.000,-47.500,-34.500
1.880,-24.000,-119.000,-45.500,-32.000
1.881,-24.000,-118.000,-44.000,-29.500
1.882,-24.500,-117.500,-42.500,-27.500
1.883,-25.000,-117.500,-42.000,-26.500
1.884,-26.500,-118.000,-42.500,-26.500
1.885,-28.500,-119.000,-43.500,-27.000
1.886,-30.000,-121.000,-45.000,-28.500
1.887,-31.500,-122.500,-46.500,-30.500
1.888,-32.500,-123.500,-48.500,-32.500
1.889,-33.000,-124.500,-50.500,-35.000
1.890,-33.000,-125.500,-52.500,-37.000
1.891,-32.000,-126.000,-54.000,-39.000
1.892,-31.000,-125.500,-54.500,-40.500
1.893,-29.500,-125.000,-54.500,-41.000
1.894,-28.500,-124.500,-54.000,-41.000
1.895,-27.500,-124.500,-54.000,-41.000
1.896,-27.500,-124.500,-53.500,-40.500
1.897,-27.000,-124.000,-53.000,-40.000
1.898,-26.500,-123.500,-51.500,-38.500
1.899,-26.500,-123.000,-50.000,-36.500
1.900,-26.500,-122.500,-48.500,-34.500
1.901,-27.000,-121.500,-46.500,-32.000
1.902,-27.000,-121.000,-45.000,-30.000
1.903,-27.000,-120.000,-43.500,-28.000
1.904,-27.000,-119.000,-42.500,-26.500
1.905,-26.500,-118.500,-41.500,-25.500
1.906,-26.500,-118.500,-41.500,-25.500
1.907,-27.000,-119.500,-43.000,-26.500
1.908,-28.000,-121.000,-45.000,-29.000
1.909,-29.000,-122.500,-48.000,-32.000
1.910,-30.000,-124.500,-50.500,-35.000
1.911,-30.000,-126.000,-53.000,-37.500
1.912,-30.000,-126.500,-54.500,-40.000
1.913,-29.500,-127.000,-55.500,-41.500
1.914,-28.500,-127.000,-56.000,-42.500
1.915,-27.500,-127.000,-55.500,-43.000
1.916,-26.500,-126.500,-55.000,-42.000
1.917,-25.000,-125.500,-53.000,-40.500
1.918,-24.000,-124.000,-51.000,-38.500
1.919,-23.500,-123.000,-49.000,-36.000
1.920,-23.500,-122.000,-47.000,-33.000
1.921,-23.500,-121.000,-45.000,-30.500
1.922,-24.000,-120.000,-43.500,-28.000
1.923,-24.000,-119.000,-42.000,-25.500
1.924,-23.500,-118.000,-40.000,-24.000
1.925,-23.000,-117.000,-39.500,-22.500
1.926,-23.000,-116.500,-39.000,-22.500
1.927,-23.000,-117.000,-40.000,-23.500
1.928,-23.500,-118.000,-41.500,-25.500
1.929,-24.000,-119.000,-43.500,-28.000
1.930,-24.500,-120.500,-46.000,-30.500
1.931,-25.000,-121.500,-48.000,-33.500
1.932,-25.000,-123.000,-50.000,-36.500
1.933,-25.000,-124.000,-52.000,-39.000
1.934,-25.000,-124.500,-53.000,-40.500
1.935,-24.500,-125.000,-53.500,-41.000
1.936,-24.000,-124.500,-52.500,-40.500
1.937,-23.000,-123.500,-51.500,-39.000
1.938,-22.500,-122.500,-49.500,-37.000
1.939,-22.000,-121.500,-48.000,-34.500
1.940,-22.000,-121.000,-46.000,-32.500
1.941,-22.500,-120.500,-45.000,-30.500
1.942,-23.000,-120.500,-44.500,-29.500
1.943,-24.000,-121.000,-44.500,-29.000
1.944,-25.000,-121.500,-45.000,-29.500
1.945,-26.500,-122.500,-46.000,-30.000
1.946,-27.500,-123.500,-47.000,-31.000
1.947,-28.500,-124.000,-48.000,-32.500
1.948,-29.000,-125.000,-49.500,-34.000
1.949,-29.000,-125.500,-50.500,-35.500
1.950,-29.000,-125.500,-51.500,-37.000
1.951,-28.000,-125.500,-52.000,-38.000
1.952,-27.000,-125.000,-52.500,-39.000
1.953,-26.000,-124.500,-52.500,-40.000
1.954,-25.500,-124.000,-52.500,-40.500
1.955,-24.500,-124.000,-52.000,-40.000
1.956,-23.500,-123.500,-51.000,-39.500
1.957,-23.000,-122.500,-49.000,-37.500
1.958,-22.000,-121.000,-47.000,-35.000
1.959,-21.000,-119.500,-44.000,-32.000
1.960,-21.000,-118.500,-41.500,-28.500
1.961,-21.000,-117.500,-39.500,-25.500
1.962,-21.500,-117.000,-38.000,-24.000
1.963,-22.000,-117.000,-37.500,-23.000
1.964,-23.000,-117.000,-37.000,-22.500
1.965,-24.000,-117.000,-37.500,-23.000
1.966,-24.500,-118.000,-38.500,-24.000
1.967,-25.500,-119.000,-40.000,-25.500
1.968,-26.000,-120.000,-42.000,-27.500
1.969,-26.500,-121.500,-44.500,-30.000
1.970,-27.000,-123.000,-47.000,-32.500
1.971,-28.000,-125.000,-49.500,-35.500
1.972,-28.500,-127.000,-52.500,-38.500
1.973,-29.000,-128.500,-55.000,-41.000
1.974,-28.500,-130.000,-57.000,-43.000
1.975,-28.500,-131.000,-58.500,-45.000
1.976,-28.000,-132.000,-59.500,-46.000
1.977,-28.000,-132.000,-59.500,-46.500
1.978,-27.000,-131.500,-58.500,-45.500
1.979,-26.000,-130.500,-57.000,-43.500
1.980,-24.500,-128.500,-54.500,-40.500
1.981,-23.000,-126.500,-51.000,-37.000
1.982,-22.000,-124.000,-48.000,-33.500
1.983,-21.000,-122.000,-45.500,-30.500
1.984,-21.000,-121.000,-43.500,-29.000
1.985,-21.500,-120.500,-43.000,-28.000
1.986,-23.000,-121.500,-43.500,-29.000
1.987,-24.500,-123.000,-45.000,-31.000
1.988,-26.500,-125.000,-47.500,-33.000
1.989,-28.000,-126.500,-50.000,-36.000
1.990,-29.000,-128.000,-52.500,-38.000
1.991,-29.500,-129.000,-54.500,-40.000
1.992,-29.000,-129.000,-55.500,-41.000
1.993,-28.000,-129.000,-55.500,-41.500
1.994,-26.500,-128.000,-54.500,-41.500
1.995,-25.000,-127.000,-53.500,-40.500
1.996,-24.000,-126.000,-52.500,-39.500
1.997,-23.500,-125.500,-51.000,-38.000
1.998,-23.000,-125.000,-49.500,-36.000
1.999,-23.000,-124.000,-48.000,-34.000
2.000,-23.500,-123.500,-46.500,-32.500
2.001,-24.000,-123.500,-45.000,-30.500
2.002,-24.500,-123.000,-44.000,-29.000
2.003,-24.500,-122.500,-42.500,-28.000
2.004,-25.000,-122.500,-42.000,-27.000
2.005,-25.000,-122.500,-42.000,-27.000
2.006,-25.500,-122.500,-42.500,-28.000
2.007,-25.500,-123.000,-43.500,-29.000
2.008,-25.500,-123.500,-44.500,-30.500
2.009,-25.500,-124.000,-46.000,-32.000
2.010,-24.500,-124.000,-47.000,-34.000
2.011,-23.000,-124.000,-48.000,-35.000
2.012,-21.500,-123.500,-48.500,-36.500
2.013,-20.000,-123.000,-48.500,-37.500
2.014,-18.500,-122.500,-48.500,-37.500
2.015,-17.500,-121.500,-47.500,-37.000
2.016,-16.000,-120.500,-46.000,-35.500
2.017,-15.000,-119.000,-44.000,-33.500
2.018,-13.500,-117.500,-41.500,-30.500
2.019,-12.500,-116.000,-38.500,-27.000
2.020,-11.500,-114.500,-35.500,-23.000
2.021,-11.500,-113.000,-33.500,-20.000
2.022,-11.500,-112.500,-32.000,-18.000
2.023,-12.000,-112.500,-31.500,-16.500
2.024,-12.500,-112.000,-31.000,-15.000
2.025,-12.500,-111.500,-30.500,-14.500
2.026,-12.500,-111.500,-30.500,-14.500
2.027,-12.500,-111.500,-30.500,-15.000
2.028,-12.500,-112.000,-31.500,-16.000
2.029,-12.500,-112.500,-33.000,-18.000
2.030,-12.500,-113.500,-35.000,-20.000
2.031,-12.500,-114.000,-36.000,-22.000
2.032,-12.000,-114.000,-37.000,-23.500
2.033,-10.500,-113.500,-37.500,-24.500
2.034,-9.000,-112.500,-37.000,-24.500
2.035,-7.500,-112.000,-36.000,-24.000
2.036,-5.500,-110.500,-34.500,-23.000
2.037,-4.000,-109.000,-32.500,-20.500
2.038,-2.000,-107.000,-29.500,-17.000
2.039,0.000,-104.500,-27.000,-13.500
2.040,1.500,-102.500,-24.000,-10.000
2.041,2.500,-100.500,-21.500,-6.500
2.042,3.000,-98.500,-19.000,-3.000
2.043,4.000,-97.000,-17.000,-0.500
2.044,5.000,-95.000,-14.500,2.500
2.045,6.000,-93.500,-13.000,4.500
2.046,6.500,-93.000,-12.000,5.500
2.047,6.000,-93.000,-12.500,5.000
2.048,5.000,-94.500,-14.500,3.000
2.049,4.000,-95.500,-16.000,0.500
2.050,4.000,-96.500,-18.000,-2.000
2.051,4.000,-97.500,-19.500,-4.000
2.052,5.000,-97.500,-20.500,-5.500
2.053,6.000,-97.000,-21.000,-6.500
2.054,7.500,-96.500,-20.500,-6.000
2.055,9.500,-95.000,-19.500,-5.000
2.056,12.000,-93.500,-17.500,-3.000
2.057,14.000,-91.000,-15.000,0.000
2.058,16.000,-89.000,-12.500,3.000
2.059,17.000,-87.500,-10.000,5.500
2.060,17.500,-86.000,-8.000,8.000
2.061,17.500,-85.000,-6.500,10.500
2.062,17.500,-84.500,-5.000,12.000
2.063,16.500,-84.500,-4.000,13.000
2.064,16.000,-84.500,-3.500,13.500
2.065,15.500,-85.000,-4.000,13.500
2.066,14.500,-86.000,-5.000,12.000
2.067,13.500,-87.000,-7.000,10.000
2.068,12.500,-89.000,-9.500,7.500
2.069,11.000,-91.000,-12.500,4.000
2.070,9.500,-93.500,-15.500,0.000
2.071,7.500,-96.000,-19.000,-4.000
2.072,6.000,-98.500,-21.500,-7.500
2.073,5.000,-100.500,-24.000,-10.000
2.074,4.500,-102.000,-25.500,-12.000
2.075,4.000,-103.000,-26.000,-13.000
2.076,4.000,-103.500,-26.000,-13.000
2.077,4.500,-103.000,-25.500,-12.000
2.078,4.500,-102.500,-24.000,-10.000
2.079,5.000,-101.000,-22.000,-8.000
2.080,5.000,-99.500,-20.000,-5.000
2.081,5.500,-98.500,-18.000,-2.500
2.082,5.500,-97.500,-16.000,-0.500
2.083,5.000,-97.000,-15.000,1.000
2.084,4.000,-97.500,-15.000,1.000
2.085,2.500,-98.500,-16.500,0.000
2.086,0.500,-100.500,-18.500,-2.000
2.087,-1.500,-103.000,-21.500,-5.000
2.088,-3.500,-105.000,-24.000,-8.000
2.089,-5.000,-107.000,-27.000,-11.000
2.090,-6.000,-108.500,-29.000,-13.500
2.091,-6.500,-110.000,-31.000,-16.000
2.092,-6.000,-110.500,-32.500,-17.500
2.093,-5.000,-110.500,-33.000,-18.500
2.094,-3.500,-110.000,-33.000,-19.000
2.095,-2.500,-109.500,-32.500,-19.000
2.096,-1.500,-109.000,-32.000,-18.500
2.097,-1.000,-108.500,-31.000,-18.000
2.098,-1.000,-108.000,-30.000,-17.000
2.099,-1.000,-108.000,-29.000,-15.500
2.100,-1.000,-107.500,-27.500,-14.000
2.101,-2.000,-107.000,-26.000,-12.500
2.102,-2.500,-106.500,-25.000,-11.000
2.103,-3.500,-106.500,-24.500,-10.500
2.104,-4.000,-106.500,-24.000,-10.000
2.105,-5.000,-107.000,-24.500,-10.500
2.106,-6.000,-107.500,-25.500,-11.000
2.107,-7.500,-109.000,-27.000,-12.500
2.108,-9.500,-110.500,-29.500,-15.000
2.109,-11.000,-113.000,-32.000,-18.000
2.110,-12.500,-115.000,-35.000,-21.500
2.111,-13.500,-117.000,-38.000,-25.000
2.112,-14.500,-119.000,-41.000,-28.500
2.113,-15.500,-121.000,-43.500,-31.500
2.114,-16.500,-122.500,-45.500,-34.000
2.115,-17.000,-124.000,-47.000,-36.000
2.116,-17.500,-124.500,-47.000,-36.500
2.117,-18.000,-125.000,-47.000,-36.000
2.118,-18.500,-125.000,-46.500,-35.500
2.119,-19.500,-125.000,-46.000,-34.500
2.120,-20.000,-125.000,-45.000,-32.500
2.121,-21.000,-125.000,-44.000,-31.000
2.122,-21.500,-124.500,-42.500,-29.500
2.123,-22.000,-124.000,-41.500,-28.500
2.124,-22.500,-124.000,-41.000,-27.500
2.125,-23.000,-124.000,-41.000,-27.500
2.126,-23.500,-124.000,-41.500,-28.000
2.127,-24.000,-125.000,-43.000,-29.000
2.128,-24.500,-126.000,-44.500,-31.000
2.129,-25.000,-127.500,-46.500,-33.000
2.130,-25.000,-128.500,-48.500,-35.000
2.131,-25.000,-129.000,-50.000,-37.500
2.132,-25.000,-130.000,-51.000,-39.500
2.133,-24.500,-130.000,-52.000,-41.000
2.134,-24.000,-130.500,-52.500,-42.000
2.135,-23.000,-130.500,-52.500,-42.500
2.136,-22.000,-129.500,-51.500,-42.000
2.137,-21.000,-129.000,-50.000,-40.500
2.138,-20.000,-127.500,-47.500,-38.000
2.139,-18.500,-126.000,-45.000,-35.000
2.140,-18.000,-124.000,-43.000,-32.000
2.141,-17.500,-123.000,-41.000,-29.500
2.142,-18.000,-122.000,-39.500,-27.500
2.143,-18.500,-122.000,-38.500,-26.000
2.144,-19.500,-122.000,-38.000,-25.000
2.145,-19.500,-122.000,-37.500,-24.500
2.146,-19.500,-121.500,-37.000,-24.000
2.147,-19.500,-121.000,-37.000,-24.000
2.148,-19.000,-121.000,-38.000,-25.000
2.149,-19.000,-121.500,-39.000,-27.000
2.150,-18.500,-122.000,-41.000,-29.000
2.151,-18.500,-122.500,-43.000,-31.500
2.152,-18.000,-123.000,-44.500,-33.500
2.153,-17.000,-123.500,-45.500,-35.000
2.154,-16.500,-124.000,-46.000,-36.000
2.155,-15.500,-124.000,-46.000,-36.500
2.156,-15.500,-124.500,-46.000,-36.000
2.157,-15.500,-124.500,-46.000,-35.000
2.158,-15.500,-124.500,-45.000,-34.000
2.159,-16.000,-124.500,-44.000,-32.000
2.160,-16.000,-124.000,-42.000,-29.500
2.161,-16.500,-123.000,-40.500,-27.500
2.162,-16.500,-122.000,-39.000,-25.500
2.163,-17.000,-122.000,-38.000,-24.500
2.164,-17.500,-121.500,-37.500,-24.000
2.165,-18.000,-122.000,-38.000,-24.500
2.166,-18.500,-123.000,-39.000,-25.500
2.167,-19.500,-124.000,-41.000,-27.000
2.168,-20.000,-125.000,-43.000,-28.500
2.169,-21.000,-126.500,-45.000,-31.000
2.170,-22.000,-127.500,-47.500,-33.500
2.171,-22.500,-129.000,-49.500,-36.000
2.172,-23.500,-131.000,-52.000,-39.000
2.173,-25.000,-132.500,-54.000,-42.000
2.174,-26.000,-134.500,-56.000,-44.500
2.175,-27.500,-136.500,-57.500,-46.500
2.176,-28.500,-138.000,-59.000,-48.000
2.177,-30.000,-139.500,-60.500,-49.000
2.178,-31.000,-140.500,-61.000,-49.500
2.179,-31.500,-140.500,-60.500,-48.500
2.180,-31.500,-139.500,-59.000,-46.000
2.181,-30.000,-136.500,-55.500,-42.000
2.182,-25.500,-131.500,-49.500,-35.500
2.183,-19.000,-123.500,-41.500,-27.000
2.184,-9.500,-113.500,-30.500,-16.000
2.185,3.000,-100.500,-17.500,-3.000
2.186,18.000,-85.500,-2.000,12.500
2.187,35.000,-69.000,14.500,29.000
2.188,53.000,-51.500,31.500,46.000
2.189,71.000,-34.000,48.000,62.000
2.190,88.000,-18.000,63.000,77.000
2.191,105.000,-1.500,78.500,92.000
2.192,123.500,16.500,95.000,108.500
2.193,142.500,35.000,113.500,127.000
2.194,163.000,55.000,133.500,147.000
2.195,184.000,76.000,155.000,168.500
2.196,205.500,98.000,178.000,191.500
2.197,228.500,121.000,202.000,216.000
2.198,251.500,144.500,226.500,241.500
2.199,273.500,168.000,251.000,267.000
2.200,295.500,191.000,275.000,292.000
2.201,317.500,214.500,299.500,317.500
2.202,341.500,239.500,325.500,344.000
2.203,367.500,267.000,353.500,372.500
2.204,395.500,296.000,383.000,403.000
2.205,424.500,325.500,413.500,433.500
2.206,452.500,354.500,442.500,462.500
2.207,478.000,380.500,468.000,488.500
2.208,498.000,401.000,488.000,509.000
2.209,509.000,412.500,499.500,520.000
2.210,508.500,411.500,498.000,518.500
2.211,493.500,396.500,482.500,502.000
2.212,465.500,367.500,452.500,471.500
2.213,427.000,328.000,413.000,431.000
2.214,383.500,283.500,368.500,385.000
2.215,339.000,237.500,322.500,338.000
2.216,294.000,192.000,276.500,291.000
2.217,249.500,146.500,231.500,245.500
2.218,205.000,102.000,187.000,200.500
2.219,161.500,58.000,144.000,157.500
2.220,120.500,17.500,104.000,117.000
2.221,83.500,-19.000,68.000,81.500
2.222,52.000,-50.500,37.000,50.500
2.223,25.500,-77.000,11.000,25.000
2.224,4.000,-98.000,-10.500,3.500
2.225,-13.000,-115.000,-28.000,-14.000
2.226,-27.500,-129.500,-42.500,-28.500
2.227,-39.500,-141.000,-55.500,-41.000
2.228,-49.500,-151.500,-66.500,-53.000
2.229,-57.500,-160.000,-76.500,-63.000
2.230,-63.000,-167.000,-84.500,-71.500
2.231,-67.000,-172.000,-90.500,-78.500
2.232,-69.000,-175.500,-94.500,-83.500
2.233,-70.000,-177.500,-97.000,-87.000
2.234,-69.500,-177.500,-98.000,-89.000
2.235,-68.000,-176.500,-97.000,-88.500
2.236,-65.500,-174.500,-95.000,-86.500
2.237,-62.500,-171.500,-91.500,-83.000
2.238,-59.500,-168.000,-87.000,-78.500
2.239,-56.000,-164.000,-82.000,-73.000
2.240,-53.000,-159.500,-77.000,-67.000
2.241,-49.500,-155.500,-71.500,-61.000
2.242,-46.000,-151.000,-66.500,-55.500
2.243,-43.000,-147.000,-62.000,-50.500
2.244,-40.000,-143.000,-58.000,-46.000
2.245,-37.000,-139.500,-54.500,-43.000
2.246,-35.000,-137.000,-52.500,-40.500
2.247,-33.500,-135.500,-51.000,-39.000
2.248,-32.000,-134.000,-50.500,-39.000
2.249,-31.000,-133.500,-50.500,-39.000
2.250,-29.500,-132.500,-50.500,-40.000
2.251,-28.500,-132.000,-51.000,-41.000
2.252,-27.000,-131.500,-51.500,-42.500
2.253,-26.500,-131.500,-52.000,-43.500
2.254,-25.500,-131.500,-52.000,-44.000
2.255,-24.500,-131.000,-52.000,-44.000
2.256,-23.500,-130.500,-51.000,-43.500
2.257,-23.000,-130.000,-50.000,-42.000
2.258,-22.000,-129.000,-48.500,-39.500
2.259,-21.000,-127.500,-46.500,-37.000
2.260,-20.500,-126.500,-44.500,-34.500
2.261,-20.000,-125.000,-42.500,-32.000
2.262,-19.500,-124.000,-41.000,-30.000
2.263,-19.000,-123.000,-40.000,-28.000
2.264,-19.000,-122.500,-39.000,-26.500
2.265,-19.000,-122.000,-38.500,-26.000
2.266,-19.500,-122.000,-38.500,-26.000
2.267,-19.500,-122.500,-39.000,-26.500
2.268,-20.000,-123.000,-40.500,-28.000
2.269,-20.500,-124.000,-42.000,-30.000
2.270,-20.500,-125.000,-44.000,-32.500
2.271,-21.000,-126.500,-46.000,-35.000
2.272,-21.000,-127.000,-48.000,-37.000
2.273,-20.500,-127.500,-49.000,-39.000
2.274,-20.000,-127.500,-49.500,-40.000
2.275,-19.000,-127.000,-49.000,-40.000
2.276,-17.500,-126.000,-47.500,-39.000
2.277,-16.000,-124.500,-46.000,-37.500
2.278,-14.500,-123.000,-44.500,-35.500
2.279,-14.000,-122.000,-42.500,-33.000
2.280,-13.500,-121.000,-41.000,-31.000
2.281,-14.000,-120.500,-39.500,-29.000
2.282,-14.500,-120.000,-38.500,-27.500
2.283,-15.500,-120.500,-38.500,-27.000
2.284,-17.000,-121.000,-39.000,-27.000
2.285,-18.000,-121.500,-39.500,-28.000
2.286,-19.000,-122.000,-40.500,-28.500
2.287,-19.500,-122.500,-41.000,-29.000
2.288,-19.000,-122.000,-41.000,-29.500
2.289,-18.000,-121.500,-41.500,-30.000
2.290,-16.500,-121.000,-42.000,-31.000
2.291,-15.000,-120.500,-42.500,-31.500
2.292,-14.000,-120.000,-43.000,-33.000
2.293,-13.000,-120.000,-43.500,-34.000
2.294,-12.500,-120.500,-44.000,-35.000
2.295,-12.000,-120.500,-44.000,-35.500
2.296,-11.500,-121.000,-44.000,-35.500
2.297,-11.000,-120.500,-43.000,-34.500
2.298,-11.000,-120.500,-42.000,-33.000
2.299,-11.000,-120.500,-41.000,-31.500
2.300,-11.500,-120.000,-40.500,-30.500
2.301,-12.500,-120.500,-40.000,-29.000
2.302,-13.000,-120.500,-39.500,-27.500
2.303,-13.500,-120.000,-39.000,-26.500
2.304,-13.500,-119.500,-38.000,-25.000
2.305,-13.500,-118.500,-37.500,-24.000
2.306,-13.000,-118.000,-37.000,-24.000
2.307,-13.000,-118.000,-37.000,-24.500
2.308,-13.500,-118.500,-38.500,-26.000
2.309,-13.500,-119.000,-40.000,-28.000
2.310,-13.500,-119.500,-41.500,-30.000
2.311,-13.500,-120.000,-42.500,-31.500
2.312,-12.500,-120.000,-43.000,-32.500
2.313,-11.500,-119.500,-43.000,-33.000
2.314,-10.500,-118.500,-42.000,-32.500
2.315,-10.000,-118.500,-41.500,-32.000
2.316,-10.000,-118.500,-41.500,-31.500
2.317,-10.000,-119.000,-41.000,-31.000
2.318,-9.500,-118.500,-40.500,-30.000
2.319,-9.000,-118.000,-38.500,-28.000
2.320,-8.000,-116.500,-36.500,-25.500
2.321,-7.500,-115.000,-34.500,-22.500
2.322,-7.000,-114.000,-33.000,-20.500
2.323,-7.000,-113.000,-32.500,-19.500
2.324,-7.000,-113.000,-32.000,-19.000
2.325,-7.000,-113.000,-32.500,-19.000
2.326,-7.500,-113.500,-33.000,-19.500
2.327,-8.000,-114.000,-34.000,-21.000
2.328,-9.000,-115.000,-35.500,-22.500
2.329,-9.500,-116.000,-37.000,-24.000
2.330,-10.000,-117.000,-38.500,-26.000
2.331,-10.000,-117.500,-40.000,-28.000
2.332,-10.000,-118.000,-41.000,-30.000
2.333,-9.500,-118.500,-42.000,-31.500
2.334,-9.000,-118.500,-42.500,-33.000
2.335,-9.000,-118.500,-42.500,-33.500
2.336,-8.500,-119.000,-42.000,-33.000
2.337,-8.500,-118.500,-41.000,-32.000
2.338,-8.000,-118.000,-40.000,-30.000
2.339,-8.000,-117.000,-38.500,-27.500
2.340,-8.000,-116.000,-36.500,-24.500
2.341,-7.500,-115.000,-34.500,-21.500
2.342,-6.500,-113.500,-32.000,-18.500
2.343,-5.000,-111.500,-29.500,-15.500
2.344,-3.500,-109.500,-27.500,-13.000
2.345,-2.500,-108.000,-26.000,-11.500
2.346,-2.000,-107.500,-25.500,-11.000
2.347,-2.500,-107.500,-26.500,-12.000
2.348,-3.000,-108.500,-28.000,-14.000
2.349,-4.000,-110.000,-30.500,-16.500
2.350,-4.500,-111.500,-32.500,-19.500
2.351,-4.500,-112.500,-34.000,-22.000
2.352,-4.500,-113.500,-36.000,-24.500
2.353,-4.000,-114.000,-37.000,-26.000
2.354,-3.000,-114.000,-37.000,-27.000
2.355,-1.500,-113.500,-36.500,-26.500
2.356,0.000,-112.500,-35.000,-25.500
2.357,1.000,-111.000,-33.000,-23.500
2.358,2.500,-109.500,-30.500,-20.500
2.359,3.500,-108.000,-28.000,-17.500
2.360,4.000,-106.500,-25.000,-14.000
2.361,4.500,-105.000,-23.000,-11.000
2.362,5.500,-103.500,-20.500,-8.000
2.363,6.000,-101.500,-18.500,-5.500
2.364,6.500,-100.000,-17.000,-4.000
2.365,7.000,-99.000,-16.000,-2.500
2.366,7.000,-98.500,-15.500,-2.000
2.367,7.000,-98.000,-15.500,-2.000
2.368,6.500,-98.000,-16.000,-3.000
2.369,6.500,-98.500,-17.500,-4.000
2.370,6.500,-99.000,-19.000,-6.000
2.371,6.500,-100.000,-20.500,-8.000
2.372,6.500,-101.000,-22.000,-10.000
2.373,7.000,-101.500,-23.500,-12.000
2.374,7.000,-102.500,-24.500,-13.000
2.375,7.500,-102.500,-25.000,-13.500
2.376,8.000,-103.000,-25.000,-13.500
2.377,8.500,-103.000,-24.500,-13.000
2.378,8.500,-103.500,-24.500,-12.000
2.379,8.500,-103.500,-23.500,-11.000
2.380,8.500,-103.500,-23.000,-9.500
2.381,9.000,-103.000,-22.000,-8.000
2.382,10.000,-101.500,-20.500,-6.000
2.383,11.500,-99.500,-18.500,-3.500
2.384,13.500,-97.000,-15.500,-1.000
2.385,15.500,-94.500,-13.000,1.500
2.386,17.000,-92.500,-11.000,3.500
2.387,19.000,-90.500,-9.500,5.000
2.388,20.000,-89.000,-8.500,5.500
2.389,21.500,-88.000,-8.000,5.000
2.390,22.500,-87.000,-8.000,5.000
2.391,23.500,-86.500,-7.500,4.500
2.392,25.000,-85.500,-7.000,4.000
2.393,26.500,-84.500,-6.000,4.500
2.394,28.500,-83.500,-4.500,5.500
2.395,30.500,-82.000,-2.500,7.000
2.396,33.000,-80.000,0.000,9.500
2.397,35.000,-77.500,2.500,13.000
2.398,37.500,-75.500,5.500,16.500
2.399,40.000,-72.500,9.000,20.500
2.400,42.000,-69.500,13.000,25.000
2.401,44.500,-66.500,17.000,29.000
2.402,47.000,-63.000,20.500,33.500
2.403,49.000,-60.000,24.000,37.000
2.404,51.000,-57.500,27.000,40.000
2.405,53.000,-55.000,29.500,42.000
2.406,55.000,-53.000,31.000,44.000
2.407,57.000,-51.000,33.000,45.500
2.408,59.500,-49.000,34.000,46.500
2.409,61.500,-47.500,35.000,47.000
2.410,63.000,-46.500,35.000,47.000
2.411,65.000,-45.000,35.500,46.500
2.412,67.500,-44.000,36.000,46.500
2.413,70.500,-42.000,37.500,47.000
2.414,74.000,-39.500,39.500,49.500
2.415,77.500,-36.500,43.000,52.500
2.416,81.500,-33.000,47.000,56.500
2.417,84.500,-29.500,51.000,61.000
2.418,88.000,-26.500,55.000,65.000
2.419,91.000,-23.000,59.500,69.500
2.420,93.500,-19.500,63.500,74.000
2.421,96.000,-16.000,67.500,78.000
2.422,98.500,-13.000,71.500,82.000
2.423,100.500,-10.000,75.000,85.500
2.424,102.000,-8.000,78.000,88.500
2.425,103.500,-6.000,80.500,90.500
2.426,105.000,-4.500,81.500,91.500
2.427,106.000,-3.500,82.500,92.000
2.428,107.500,-3.000,82.500,91.500
2.429,109.000,-1.500,83.000,91.500
2.430,111.500,0.000,84.000,91.500
2.431,114.500,2.500,86.000,92.500
2.432,118.000,5.500,88.500,94.000
2.433,121.000,8.000,91.000,96.000
2.434,124.500,11.000,93.500,98.000
2.435,127.500,13.500,96.000,100.500
2.436,130.000,16.000,99.500,103.500
2.437,132.500,19.000,103.000,107.500
2.438,135.000,22.000,107.000,112.000
2.439,138.000,25.500,111.500,116.500
2.440,140.000,29.000,115.500,121.500
2.441,143.000,32.000,119.500,126.000
2.442,145.500,35.500,123.500,130.500
2.443,148.500,39.000,127.000,134.500
2.444,151.500,42.000,130.500,138.000
2.445,153.500,44.500,132.500,141.000
2.446,155.500,46.000,133.500,142.000
2.447,156.500,46.500,134.000,142.500
2.448,157.500,47.000,133.500,142.000
2.449,158.000,47.000,133.000,141.000
2.450,159.000,47.000,132.500,140.000
2.451,159.500,47.000,131.500,138.500
2.452,160.500,47.500,131.000,137.500
2.453,161.500,48.000,131.000,137.000
2.454,162.500,48.500,131.000,136.500
2.455,163.500,49.000,132.000,137.000
2.456,164.500,49.500,133.000,138.500
2.457,165.000,50.500,135.000,140.000
2.458,165.500,51.500,136.500,142.500
2.459,165.500,52.000,138.000,144.500
2.460,165.000,52.000,139.000,146.000
2.461,164.000,52.000,139.500,147.000
2.462,162.500,51.000,139.000,147.500
2.463,161.000,49.500,138.500,147.000
2.464,158.500,47.500,136.500,145.000
2.465,155.500,44.500,133.500,142.000
2.466,151.500,40.000,128.500,137.500
2.467,147.000,35.000,123.000,131.500
2.468,142.000,30.000,116.500,125.000
2.469,137.500,24.500,110.500,118.500
2.470,133.000,19.500,104.500,112.000
2.471,129.000,14.500,98.500,106.000
2.472,125.500,10.500,93.500,100.500
2.473,122.000,6.500,89.000,96.000
2.474,119.000,3.000,85.000,91.500
2.475,116.000,-0.500,82.000,88.000
2.476,113.000,-3.500,79.500,85.000
2.477,109.500,-6.500,77.500,82.500
2.478,106.000,-9.500,75.500,80.500
2.479,103.000,-12.500,73.500,79.000
2.480,99.500,-15.000,71.500,78.000
2.481,96.500,-18.000,69.500,76.500
2.482,93.000,-21.000,67.000,74.000
2.483,89.000,-24.000,63.500,71.500
2.484,85.000,-28.000,59.500,68.000
2.485,80.500,-32.000,55.000,64.000
2.486,76.000,-36.500,50.500,59.500
2.487,72.000,-40.500,46.000,54.500
2.488,68.500,-44.500,41.000,49.500
2.489,65.000,-48.500,36.000,44.000
2.490,62.000,-52.500,31.000,38.500
2.491,58.500,-57.000,25.500,33.000
2.492,55.500,-61.000,20.500,27.500
2.493,53.000,-65.000,16.500,23.000
2.494,50.500,-68.000,13.000,19.000
2.495,49.000,-70.500,10.500,16.500
2.496,47.500,-72.500,9.000,15.000
2.497,46.000,-73.500,8.000,14.500
2.498,44.000,-75.000,7.500,14.000
2.499,42.500,-76.500,7.000,14.500
2.500,40.500,-77.500,6.500,15.000
2.501,39.000,-78.000,6.500,16.000
2.502,38.000,-78.500,6.500,17.000
2.503,37.000,-79.000,6.500,17.500
2.504,36.000,-80.000,6.000,16.500
2.505,34.000,-81.500,4.000,15.000
2.506,31.500,-84.500,1.000,12.000
2.507,28.500,-87.500,-2.500,8.500
2.508,26.500,-90.500,-6.500,4.500
2.509,24.000,-93.500,-10.000,0.500
2.510,22.500,-96.000,-13.500,-3.000
2.511,21.000,-98.000,-16.000,-6.500
2.512,20.000,-100.000,-18.500,-9.500
2.513,19.000,-101.500,-21.000,-12.000
2.514,18.500,-103.000,-23.000,-14.000
2.515,18.000,-104.500,-24.500,-15.500
2.516,17.000,-106.000,-25.500,-16.500
2.517,16.000,-107.000,-26.000,-16.500
2.518,14.000,-108.000,-26.500,-16.500
2.519,12.000,-109.500,-26.500,-16.500
2.520,10.000,-110.500,-26.500,-16.000
2.521,8.000,-111.000,-26.500,-15.500
2.522,7.500,-110.500,-25.500,-14.000
2.523,8.000,-109.500,-24.000,-12.000
2.524,9.500,-108.000,-22.000,-10.000
2.525,11.000,-106.000,-20.500,-8.000
2.526,12.500,-104.500,-19.000,-6.500
2.527,13.000,-104.500,-19.500,-6.500
2.528,12.500,-105.500,-20.500,-8.000
2.529,11.500,-107.000,-23.000,-10.500
2.530,10.500,-108.500,-25.500,-13.500
2.531,10.000,-110.000,-27.500,-16.500
2.532,10.000,-110.500,-29.000,-18.500
2.533,10.000,-111.500,-30.000,-20.500
2.534,9.500,-112.500,-31.000,-22.500
2.535,9.500,-113.500,-32.000,-23.500
2.536,9.500,-113.500,-32.000,-23.500
2.537,9.500,-114.000,-31.500,-23.000
2.538,9.500,-113.500,-31.000,-22.000
2.539,9.500,-113.500,-30.000,-20.500
2.540,9.500,-113.000,-28.500,-18.500
2.541,9.000,-112.500,-27.500,-16.500
2.542,9.000,-112.000,-26.500,-15.000
2.543,8.000,-112.500,-26.000,-14.000
2.544,7.000,-113.000,-26.500,-14.000
2.545,5.500,-113.500,-27.000,-14.500
2.546,4.000,-114.500,-28.500,-15.500
2.547,3.000,-115.500,-30.000,-17.500
2.548,2.000,-117.000,-32.000,-19.500
2.549,2.000,-117.500,-33.500,-21.500
2.550,2.500,-117.500,-34.500,-23.000
2.551,3.500,-117.500,-35.500,-24.500
2.552,4.500,-117.000,-36.000,-25.000
2.553,6.000,-117.000,-36.500,-26.000
2.554,6.500,-117.000,-36.500,-26.500
2.555,6.500,-117.000,-36.500,-27.000
2.556,6.500,-117.500,-36.500,-27.000
2.557,6.000,-118.000,-36.000,-26.500
2.558,5.500,-118.000,-35.000,-25.000
2.559,5.500,-117.500,-33.500,-23.000
2.560,5.500,-117.000,-31.500,-20.500
2.561,5.500,-116.000,-30.000,-18.500
2.562,5.500,-115.500,-29.000,-16.500
2.563,5.500,-115.000,-27.500,-15.000
2.564,6.000,-114.000,-26.500,-13.500
2.565,6.500,-113.000,-25.500,-13.000
2.566,7.000,-112.500,-25.000,-12.500
2.567,7.500,-112.500,-25.000,-12.500
2.568,7.500,-112.500,-25.500,-14.000
2.569,8.000,-113.000,-27.000,-16.000
2.570,8.000,-114.000,-29.000,-18.000
2.571,7.500,-115.000,-31.500,-21.000
2.572,7.000,-117.000,-34.000,-23.500
2.573,6.500,-118.500,-36.000,-26.000
2.574,5.500,-120.000,-37.500,-27.500
2.575,5.000,-121.500,-38.500,-28.500
2.576,5.000,-122.000,-38.500,-28.500
2.577,5.000,-122.000,-37.500,-27.500
2.578,5.000,-121.500,-36.000,-26.000
2.579,5.000,-121.000,-34.500,-24.000
2.580,4.500,-120.500,-33.000,-22.000
2.581,4.500,-120.000,-32.000,-20.000
2.582,4.500,-119.500,-30.500,-18.500
2.583,4.500,-118.500,-29.500,-16.500
2.584,5.000,-117.500,-28.000,-15.000
2.585,5.000,-117.000,-27.500,-14.000
2.586,5.000,-117.000,-27.500,-14.000
2.587,4.500,-117.500,-28.500,-15.000
2.588,3.500,-119.000,-30.500,-17.000
2.589,2.500,-120.500,-33.000,-19.500
2.590,1.500,-121.500,-35.500,-22.000
2.591,1.000,-123.000,-37.500,-24.500
2.592,1.000,-124.000,-39.500,-27.000
2.593,1.500,-124.500,-40.500,-28.500
2.594,2.000,-124.500,-41.000,-29.000
2.595,3.000,-124.000,-40.500,-29.000
2.596,3.500,-124.000,-40.000,-28.500
2.597,4.500,-123.500,-39.000,-27.500
2.598,4.500,-122.500,-37.500,-25.500
2.599,5.000,-121.500,-35.500,-23.000
2.600,5.500,-120.000,-33.500,-20.500
2.601,6.000,-118.500,-31.000,-17.500
2.602,7.000,-117.000,-28.500,-14.500
2.603,8.500,-115.500,-26.000,-11.500
2.604,8.500,-114.500,-25.000,-10.500
2.605,8.000,-115.000,-25.000,-10.500
2.606,6.000,-116.500,-27.000,-12.500
2.607,4.000,-118.500,-29.000,-14.500
2.608,3.500,-119.500,-31.000,-16.500
2.609,3.500,-120.000,-32.500,-18.000
2.610,4.500,-120.000,-33.500,-19.500
2.611,5.000,-120.000,-35.000,-20.500
2.612,6.000,-120.500,-36.000,-22.500
2.613,6.000,-121.000,-37.500,-24.000
2.614,6.500,-121.500,-38.000,-25.000
2.615,6.500,-121.500,-38.000,-25.500
2.616,7.000,-121.500,-37.000,-25.000
2.617,7.500,-121.000,-35.500,-23.500
2.618,8.500,-120.500,-33.500,-21.000
2.619,9.000,-119.000,-31.000,-18.500
2.620,9.500,-118.000,-29.000,-16.000
2.621,9.500,-117.000,-27.500,-13.500
2.622,9.500,-116.000,-26.000,-11.500
2.623,9.500,-115.000,-24.500,-10.000
2.624,9.500,-114.500,-24.000,-9.000
2.625,9.000,-114.500,-24.000,-8.500
2.626,9.000,-115.000,-24.500,-9.000
2.627,8.500,-116.000,-25.500,-10.500
2.628,8.500,-117.000,-27.500,-12.500
2.629,8.500,-118.000,-29.000,-14.500
2.630,9.000,-118.500,-30.500,-16.500
2.631,9.500,-118.500,-32.000,-18.500
2.632,10.000,-119.000,-33.500,-20.000
2.633,10.000,-119.500,-34.500,-21.500
2.634,10.000,-120.000,-35.000,-22.500
2.635,10.000,-120.500,-35.000,-22.500
2.636,10.500,-120.000,-34.500,-21.500
2.637,11.000,-119.500,-33.000,-20.000
2.638,11.500,-118.500,-31.500,-17.500
2.639,12.500,-117.500,-29.000,-14.500
2.640,13.000,-116.000,-26.500,-12.000
2.641,13.000,-115.000,-24.500,-9.500
2.642,13.500,-114.000,-23.500,-7.500
2.643,13.000,-113.500,-22.500,-6.500
2.644,12.500,-114.000,-23.000,-6.500
2.645,11.500,-114.500,-24.000,-7.000
2.646,10.500,-115.500,-25.500,-8.500
2.647,9.500,-117.000,-27.000,-10.000
2.648,9.000,-118.500,-29.000,-12.500
2.649,8.000,-119.500,-31.500,-15.000
2.650,7.500,-121.000,-33.000,-17.000
2.651,7.000,-122.000,-34.500,-19.500
2.652,7.000,-123.000,-36.000,-21.000
2.653,7.000,-123.500,-36.500,-22.500
2.654,7.500,-123.500,-37.000,-23.500
2.655,7.500,-124.000,-37.500,-23.500
2.656,7.500,-124.000,-37.000,-23.000
2.657,7.000,-124.000,-36.500,-22.000
2.658,6.500,-124.000,-35.500,-20.500
2.659,6.500,-123.500,-34.500,-18.500
2.660,6.500,-123.000,-33.000,-16.500
2.661,7.000,-121.500,-31.000,-14.000
2.662,8.000,-120.000,-29.000,-11.500
2.663,9.000,-118.500,-27.000,-9.000
2.664,9.500,-117.500,-25.500,-7.500
2.665,10.000,-117.000,-25.500,-7.500
2.666,10.000,-117.000,-26.000,-8.000
2.667,10.500,-117.500,-26.500,-9.000
2.668,10.500,-118.000,-28.000,-10.500
2.669,10.500,-119.000,-30.000,-12.500
2.670,10.500,-119.500,-31.500,-14.500
2.671,10.500,-120.000,-33.000,-16.500
2.672,10.500,-121.000,-34.500,-18.500
2.673,10.000,-121.500,-35.500,-20.500
2.674,10.000,-122.500,-36.500,-21.500
2.675,9.500,-123.000,-36.500,-22.000
2.676,9.500,-123.000,-36.000,-21.000
2.677,10.000,-122.500,-34.500,-19.500
2.678,10.500,-122.000,-32.500,-17.500
2.679,11.000,-120.500,-30.000,-15.000
2.680,11.500,-119.500,-28.000,-12.000
2.681,12.000,-117.500,-25.500,-9.000
2.682,13.000,-116.000,-23.000,-6.000
2.683,14.000,-114.000,-20.500,-3.500
2.684,15.000,-112.000,-18.500,-1.500
2.685,16.000,-111.000,-18.000,-1.000
2.686,15.500,-111.500,-18.500,-1.500
2.687,14.000,-113.000,-20.500,-3.500
2.688,12.500,-115.000,-23.500,-6.500
2.689,10.500,-117.500,-26.500,-10.000
2.690,9.500,-119.500,-29.500,-13.000
2.691,9.000,-121.000,-32.000,-16.000
2.692,8.000,-123.000,-34.000,-18.500
2.693,7.500,-124.500,-36.000,-21.000
2.694,7.000,-126.000,-37.500,-22.500
2.695,7.000,-126.000,-37.500,-23.000
2.696,8.500,-125.000,-36.500,-21.500
2.697,10.500,-123.500,-34.000,-19.000
2.698,12.000,-121.000,-31.000,-16.000
2.699,13.500,-119.500,-28.500,-12.500
2.700,14.000,-118.000,-26.000,-10.000
2.701,14.500,-117.500,-24.000,-7.500
2.702,14.500,-116.500,-22.500,-5.000
2.703,14.500,-116.000,-21.500,-3.500
2.704,14.500,-116.000,-21.000,-3.000
2.705,14.000,-116.500,-21.000,-3.500
2.706,13.500,-117.000,-22.500,-4.500
2.707,12.500,-118.000,-24.000,-6.000
2.708,12.000,-119.000,-25.500,-8.500
2.709,11.000,-120.500,-27.500,-10.500
2.710,10.500,-122.000,-30.000,-13.000
2.711,9.500,-123.500,-32.000,-15.500
2.712,9.500,-124.500,-33.500,-18.000
2.713,9.000,-125.500,-34.500,-19.500
2.714,9.000,-126.000,-35.500,-20.500
2.715,9.000,-126.000,-35.000,-20.500
2.716,10.000,-125.000,-34.000,-19.500
2.717,11.000,-124.000,-32.000,-17.000
2.718,11.500,-123.000,-30.000,-14.500
2.719,12.000,-121.500,-27.500,-12.000
2.720,12.000,-121.000,-26.000,-10.000
2.721,12.000,-120.500,-25.000,-8.000
2.722,12.500,-120.000,-23.500,-6.000
2.723,13.000,-119.500,-23.000,-5.000
2.724,13.000,-119.500,-22.500,-4.000
2.725,12.500,-120.000,-23.000,-4.500
2.726,11.500,-121.000,-24.000,-6.000
2.727,10.000,-122.000,-26.000,-8.000
2.728,9.500,-123.000,-27.500,-10.000
2.729,9.000,-124.000,-29.500,-12.500
2.730,9.000,-124.500,-31.000,-14.500
2.731,9.000,-125.500,-33.000,-17.000
2.732,9.000,-126.500,-34.500,-19.000
2.733,9.000,-127.500,-35.500,-20.500
2.734,9.500,-128.000,-36.000,-21.000
2.735,10.000,-128.000,-36.000,-21.000
2.736,11.000,-127.500,-35.500,-20.000
2.737,12.000,-127.000,-34.000,-18.500
2.738,12.500,-126.000,-32.500,-16.000
2.739,13.500,-124.500,-30.500,-13.000
2.740,14.500,-123.000,-28.000,-10.000
2.741,15.500,-121.500,-25.500,-7.000
2.742,15.500,-120.500,-24.000,-4.500
2.743,15.500,-120.000,-23.000,-3.500
2.744,14.500,-120.000,-23.000,-3.500
2.745,14.000,-120.500,-23.500,-4.000
2.746,13.500,-121.000,-24.000,-5.000
2.747,13.000,-122.000,-25.000,-6.000
2.748,12.500,-123.000,-27.000,-8.000
2.749,12.000,-124.000,-29.000,-10.000
2.750,11.500,-125.500,-31.000,-12.500
2.751,11.500,-126.500,-33.000,-14.500
2.752,12.000,-127.000,-34.000,-16.500
2.753,12.500,-127.500,-35.000,-17.500
2.754,13.500,-127.500,-34.500,-17.500
2.755,14.500,-126.500,-34.000,-17.000
2.756,16.000,-125.500,-32.500,-15.500
2.757,17.000,-124.500,-30.500,-13.500
2.758,18.000,-123.500,-29.000,-11.500
2.759,17.500,-122.500,-27.000,-9.500
2.760,17.000,-122.500,-26.000,-8.000
2.761,16.000,-123.000,-25.500,-7.000
2.762,15.000,-122.500,-24.500,-5.500
2.763,15.000,-122.000,-24.000,-4.000
2.764,15.500,-121.500,-23.500,-3.000
2.765,15.500,-121.000,-23.000,-2.500
2.766,16.000,-120.500,-23.000,-2.500
2.767,15.500,-121.000,-24.000,-3.500
2.768,15.000,-121.500,-25.000,-5.000
2.769,14.500,-122.000,-26.500,-6.500
2.770,14.000,-123.000,-28.000,-8.500
2.771,13.500,-124.000,-29.000,-10.500
2.772,13.500,-125.000,-30.000,-12.000
2.773,14.000,-125.000,-30.500,-13.000
2.774,14.500,-125.500,-30.500,-14.000
2.775,15.500,-125.500,-31.000,-14.000
2.776,15.500,-125.500,-31.000,-14.000
2.777,15.500,-126.000,-31.000,-14.000
2.778,15.000,-126.500,-31.000,-13.500
2.779,14.000,-127.500,-31.500,-12.500
2.780,12.500,-129.000,-32.000,-12.500
2.781,11.000,-130.000,-32.000,-12.000
2.782,10.000,-131.000,-32.000,-11.000
2.783,9.500,-131.500,-32.000,-10.500
2.784,9.500,-131.500,-32.000,-10.000
2.785,9.500,-131.000,-32.000,-10.000
2.786,9.500,-131.000,-32.500,-11.000
2.787,9.500,-131.500,-33.000,-12.000
2.788,9.500,-131.500,-33.500,-13.500
2.789,9.500,-131.500,-34.500,-15.500
2.790,9.500,-132.000,-35.500,-17.500
2.791,9.500,-132.500,-36.000,-19.500
2.792,9.500,-132.500,-36.500,-20.500
2.793,10.000,-132.000,-36.500,-21.000
2.794,11.000,-131.500,-35.500,-20.500
2.795,12.500,-130.000,-33.500,-19.500
2.796,13.500,-129.000,-31.500,-17.500
2.797,14.500,-128.000,-29.500,-15.000
2.798,14.500,-127.000,-28.000,-13.000
2.799,14.500,-126.500,-26.500,-11.000
2.800,14.500,-126.000,-24.500,-8.500
2.801,15.000,-125.000,-23.000,-6.500
2.802,15.000,-124.000,-21.500,-4.000
2.803,15.500,-123.500,-20.000,-2.500
2.804,15.500,-123.000,-19.500,-2.000
2.805,15.500,-123.000,-19.500,-2.000
2.806,15.500,-123.500,-20.000,-2.500
2.807,15.500,-124.000,-21.000,-3.500
2.808,16.000,-124.500,-22.000,-4.500
2.809,16.000,-125.000,-24.000,-6.000
2.810,16.000,-126.000,-26.000,-8.000
2.811,16.000,-126.500,-28.000,-10.500
2.812,16.500,-127.000,-29.000,-12.000
2.813,17.500,-127.000,-29.500,-13.000
2.814,18.500,-126.500,-29.000,-13.000
2.815,20.000,-125.500,-27.500,-12.000
2.816,21.500,-124.500,-25.500,-10.000
2.817,23.500,-122.500,-23.000,-8.000
2.818,25.000,-120.500,-20.000,-4.500
2.819,27.000,-118.000,-16.500,-1.000
2.820,29.000,-115.000,-12.500,3.500
2.821,31.000,-112.500,-9.000,7.500
2.822,32.000,-110.500,-6.500,10.500
2.823,32.500,-109.500,-5.000,12.500
2.824,32.000,-109.500,-4.500,13.500
2.825,31.000,-109.500,-5.000,13.000
2.826,30.000,-110.500,-5.500,12.000
2.827,29.500,-111.000,-7.000,11.000
2.828,29.500,-111.000,-7.500,10.000
2.829,30.500,-110.500,-8.000,9.500
2.830,32.500,-109.500,-8.000,9.500
2.831,34.500,-108.000,-7.500,9.500
2.832,36.000,-107.500,-8.000,9.000
2.833,37.000,-107.500,-8.500,8.000
2.834,38.000,-107.500,-8.500,7.500
2.835,39.500,-107.000,-8.500,8.000
2.836,41.000,-105.500,-6.500,9.500
2.837,43.000,-103.500,-4.000,12.500
2.838,45.000,-101.000,-0.500,16.500
2.839,47.000,-98.500,3.500,20.500
2.840,48.500,-96.000,6.500,24.500
2.841,49.000,-94.500,9.000,27.000
2.842,48.500,-94.000,10.000,28.500
2.843,48.000,-94.000,10.000,29.000
2.844,48.000,-94.000,10.500,29.500
2.845,48.000,-94.000,10.500,30.000
2.846,48.500,-94.000,10.500,30.000
2.847,49.000,-93.500,10.000,29.500
2.848,49.500,-94.000,9.000,28.500
2.849,49.500,-94.500,8.000,27.000
2.850,49.500,-95.000,6.500,25.000
2.851,50.000,-95.500,5.000,23.500
2.852,51.000,-95.500,4.500,22.500
2.853,52.500,-95.000,5.000,22.000
2.854,54.500,-94.000,6.000,23.000
2.855,57.000,-92.000,7.500,25.000
2.856,59.500,-90.000,10.000,27.000
2.857,60.500,-88.500,12.000,29.500
2.858,61.000,-87.500,14.000,32.000
2.859,60.500,-87.000,15.500,34.500
2.860,60.000,-86.500,17.000,36.500
2.861,59.000,-86.500,18.500,38.000
2.862,58.500,-86.500,19.500,39.500
2.863,58.000,-86.500,20.000,40.500
2.864,57.500,-86.500,20.500,41.000
2.865,57.000,-87.000,20.000,41.000
2.866,56.000,-87.500,19.000,40.000
2.867,54.000,-89.000,16.500,38.000
2.868,52.000,-92.000,13.000,34.500
2.869,49.000,-95.000,8.500,30.500
2.870,46.500,-99.000,4.000,26.000
2.871,44.000,-101.500,0.500,22.000
2.872,43.000,-103.500,-2.500,19.500
2.873,42.500,-105.000,-4.000,17.500
2.874,43.000,-105.000,-4.000,17.000
2.875,44.000,-104.500,-3.500,17.000
2.876,45.500,-104.000,-2.500,18.500
2.877,46.500,-103.000,-1.500,19.500
2.878,47.000,-102.500,0.000,21.000
2.879,47.000,-102.000,1.000,22.500
2.880,46.500,-102.000,2.000,24.000
2.881,45.500,-102.000,3.000,25.000
2.882,44.000,-102.500,3.000,26.000
2.883,42.500,-103.500,3.000,26.000
2.884,40.500,-104.500,2.000,25.500
2.885,39.000,-106.000,0.500,24.500
2.886,37.000,-108.000,-2.000,22.000
2.887,35.000,-110.500,-4.500,19.500
2.888,33.000,-112.500,-7.500,16.000
2.889,31.000,-115.000,-11.000,12.000
2.890,29.500,-117.500,-14.000,8.000
2.891,29.000,-119.000,-17.000,4.500
2.892,28.000,-121.000,-19.500,1.500
2.893,27.500,-122.500,-21.500,-1.000
2.894,27.000,-123.500,-22.500,-2.500
2.895,27.000,-124.000,-22.500,-3.000
2.896,27.000,-124.500,-22.500,-2.500
2.897,26.500,-125.000,-22.000,-2.000
2.898,26.000,-125.000,-21.500,-0.500
2.899,26.000,-124.500,-20.500,1.500
2.900,25.500,-124.000,-19.000,3.500
2.901,25.500,-123.000,-17.500,5.500
2.902,25.000,-122.500,-16.000,7.500
2.903,24.500,-122.000,-15.000,9.000
2.904,24.000,-122.000,-15.000,9.500
2.905,23.500,-122.500,-15.500,9.000
2.906,22.000,-123.500,-17.000,7.500
2.907,20.500,-125.500,-19.500,5.000
2.908,18.500,-128.500,-23.000,1.500
2.909,16.500,-131.500,-26.500,-3.000
2.910,14.500,-134.000,-30.500,-7.000
2.911,13.000,-136.000,-33.500,-10.000
2.912,12.000,-137.500,-36.000,-13.000
2.913,11.000,-139.000,-37.500,-15.000
2.914,10.000,-140.500,-38.500,-16.500
2.915,10.000,-141.000,-39.000,-17.000
2.916,10.500,-140.500,-38.000,-16.500
2.917,11.000,-140.500,-37.000,-15.500
2.918,10.500,-140.000,-36.000,-14.500
2.919,10.000,-140.000,-35.000,-13.000
2.920,9.500,-140.000,-34.500,-11.500
2.921,9.000,-140.000,-33.500,-10.500
2.922,8.500,-140.000,-32.500,-9.500
2.923,8.000,-140.500,-32.500,-9.000
2.924,7.000,-140.500,-32.500,-9.000
2.925,7.000,-141.000,-33.000,-10.000
2.926,6.500,-141.500,-34.000,-11.000
2.927,7.000,-141.500,-35.000,-12.000
2.928,7.500,-141.500,-36.000,-13.000
2.929,7.500,-142.000,-37.000,-14.000
2.930,8.000,-142.000,-38.000,-15.000
2.931,8.500,-142.500,-39.000,-16.500
2.932,9.000,-143.000,-40.000,-18.000
2.933,9.500,-143.500,-40.000,-18.500
2.934,9.500,-143.500,-40.500,-19.500
2.935,9.500,-144.000,-40.500,-19.500
2.936,9.500,-144.500,-40.000,-19.500
2.937,9.500,-144.500,-39.500,-18.500
2.938,10.000,-144.000,-38.000,-17.000
2.939,10.000,-143.000,-36.000,-15.000
2.940,10.500,-142.000,-34.000,-12.500
2.941,11.000,-141.000,-32.500,-10.000
2.942,11.000,-140.000,-30.500,-8.000
2.943,11.500,-139.000,-29.500,-6.000
2.944,11.000,-138.500,-28.500,-5.500
2.945,10.500,-139.000,-29.500,-5.500
2.946,9.500,-140.000,-30.500,-7.000
2.947,8.000,-141.500,-32.500,-9.000
2.948,7.500,-142.500,-34.500,-11.000
2.949,7.000,-143.000,-36.500,-12.500
2.950,7.000,-144.000,-38.000,-14.500
2.951,7.500,-144.500,-39.500,-16.500
2.952,7.500,-145.000,-41.000,-18.500
2.953,8.500,-145.500,-41.500,-19.500
2.954,9.500,-145.000,-42.000,-19.500
2.955,10.500,-145.000,-41.500,-19.000
2.956,11.000,-144.500,-40.500,-18.000
2.957,11.500,-144.000,-39.500,-16.500
2.958,12.000,-143.500,-38.000,-14.500
2.959,12.000,-142.500,-36.000,-12.500
2.960,12.500,-141.000,-34.000,-10.000
2.961,12.500,-140.000,-32.000,-7.500
2.962,12.500,-139.000,-31.000,-5.500
2.963,12.500,-138.500,-30.000,-4.500
2.964,12.500,-138.500,-29.500,-3.500
2.965,12.000,-139.000,-30.000,-3.500
2.966,11.500,-139.500,-30.500,-4.000
2.967,11.000,-140.000,-31.500,-5.500
2.968,10.500,-141.000,-33.500,-7.000
2.969,9.500,-142.000,-35.500,-9.500
2.970,9.000,-143.000,-37.500,-12.000
2.971,8.500,-144.500,-39.500,-14.500
2.972,8.000,-145.500,-41.500,-17.000
2.973,7.500,-146.500,-43.000,-19.500
2.974,7.000,-148.500,-45.000,-22.000
2.975,6.000,-150.000,-47.000,-24.000
2.976,5.000,-152.000,-48.500,-25.500
2.977,4.000,-153.500,-49.000,-26.500
2.978,2.500,-154.500,-49.500,-26.000
2.979,2.000,-155.000,-49.000,-25.000
2.980,1.000,-154.500,-48.000,-23.000
2.981,0.500,-154.000,-46.500,-21.000
2.982,0.000,-153.500,-45.000,-19.000
2.983,1.000,-152.000,-43.000,-16.500
2.984,3.500,-148.500,-39.500,-13.000
2.985,9.500,-142.500,-33.000,-7.000
2.986,18.000,-133.500,-24.500,2.000
2.987,30.500,-121.500,-12.500,13.500
2.988,45.500,-106.500,2.500,28.000
2.989,63.500,-89.000,19.000,44.000
2.990,82.000,-71.000,36.000,61.500
2.991,100.500,-53.500,53.000,78.000
2.992,118.000,-36.500,69.000,94.000
2.993,134.500,-20.500,84.500,110.000
2.994,151.500,-3.500,101.500,126.500
2.995,169.500,14.500,120.000,145.000
2.996,189.500,34.500,140.500,166.000
2.997,210.500,56.000,163.000,189.000
2.998,232.000,78.500,187.000,213.500
2.999,254.500,102.500,211.500,239.500
3.000,277.000,126.000,236.500,265.000
3.001,298.500,149.000,260.000,290.000
3.002,320.000,171.500,283.500,314.000
3.003,341.500,194.000,306.500,338.000
3.004,364.000,217.000,330.500,362.000
3.005,389.000,242.000,356.000,387.500
3.006,415.000,268.500,382.500,414.000
3.007,442.000,295.500,409.000,441.000
3.008,468.000,321.500,434.500,467.000
3.009,492.000,345.000,458.000,490.500
3.010,511.000,364.000,476.500,509.000
3.011,522.000,374.500,486.500,519.000
3.012,521.000,373.000,484.000,516.500
3.013,506.500,357.500,468.500,500.500
3.014,480.000,330.500,441.000,472.500
3.015,445.000,295.000,406.000,436.500
3.016,406.500,255.500,367.000,397.000
3.017,366.500,215.000,327.000,356.500
3.018,326.000,174.000,287.000,316.000
3.019,285.500,133.000,246.500,275.500
3.020,245.000,92.500,206.500,235.500
3.021,206.000,53.500,167.500,196.500
3.022,168.500,16.500,130.000,159.500
3.023,134.000,-18.000,96.000,125.000
3.024,102.500,-49.500,65.000,94.000
3.025,75.500,-76.500,37.000,66.500
3.026,52.500,-99.500,14.000,43.000
3.027,34.500,-118.000,-6.000,23.500
3.028,19.500,-133.500,-22.000,6.500
3.029,7.500,-146.500,-36.000,-8.000
3.030,-3.000,-157.500,-48.000,-20.500
3.031,-11.500,-167.000,-58.500,-31.500
3.032,-18.500,-175.000,-67.000,-40.500
3.033,-24.000,-181.500,-73.500,-48.000
3.034,-28.000,-186.000,-78.000,-52.500
3.035,-29.500,-188.000,-80.000,-54.500
3.036,-28.500,-187.500,-79.500,-53.500
3.037,-26.000,-185.000,-77.000,-50.500
3.038,-23.000,-181.500,-73.000,-46.000
3.039,-19.500,-178.000,-69.000,-41.500
3.040,-17.000,-174.500,-65.000,-37.000
3.041,-14.500,-171.500,-61.000,-32.500
3.042,-12.000,-168.000,-57.500,-28.500
3.043,-9.000,-164.500,-53.500,-24.500
3.044,-6.500,-161.500,-50.000,-21.000
3.045,-3.500,-158.500,-47.000,-17.500
3.046,-1.000,-155.500,-44.000,-14.500
3.047,2.000,-153.000,-42.000,-12.500
3.048,4.000,-151.500,-41.000,-11.500
3.049,5.500,-150.500,-41.000,-11.500
3.050,6.500,-150.000,-41.500,-12.500
3.051,7.500,-150.000,-42.500,-13.500
3.052,8.000,-150.000,-43.500,-15.500
3.053,8.500,-150.500,-44.500,-16.500
3.054,9.000,-150.500,-44.500,-17.000
3.055,9.500,-150.500,-43.500,-16.500
3.056,10.500,-150.000,-42.500,-15.500
3.057,10.500,-149.000,-41.000,-14.000
3.058,11.000,-148.000,-39.000,-11.500
3.059,11.500,-147.000,-36.500,-9.000
3.060,12.000,-145.500,-34.000,-6.000
3.061,12.000,-144.500,-32.000,-3.500
3.062,12.000,-143.500,-30.000,-1.000
3.063,11.500,-143.000,-29.000,0.500
3.064,11.500,-143.000,-28.500,1.500
3.065,11.000,-143.500,-29.000,1.500
3.066,10.500,-144.000,-30.000,0.500
3.067,10.000,-144.500,-31.500,-1.500
3.068,10.000,-145.500,-33.500,-3.500
3.069,9.500,-147.000,-35.500,-6.000
3.070,8.500,-148.500,-37.500,-9.000
3.071,8.000,-149.500,-39.500,-11.500
3.072,7.500,-151.000,-41.500,-14.000
3.073,7.000,-151.500,-42.500,-15.500
3.074,7.500,-152.000,-43.000,-16.500
3.075,8.500,-152.000,-42.500,-16.500
3.076,10.000,-151.000,-41.000,-15.000
3.077,11.500,-149.000,-39.000,-12.500
3.078,13.500,-147.000,-36.000,-9.000
3.079,15.000,-144.500,-32.500,-5.000
3.080,16.500,-142.000,-29.000,-0.500
3.081,17.500,-140.000,-26.000,3.000
3.082,18.000,-138.500,-23.500,6.000
3.083,17.500,-137.500,-22.500,7.500
3.084,16.500,-138.000,-22.000,7.500
3.085,15.500,-138.500,-23.000,7.000
3.086,14.000,-140.000,-24.500,5.000
3.087,13.000,-141.500,-26.500,3.000
3.088,12.500,-143.000,-28.500,0.500
3.089,12.000,-144.000,-31.000,-2.500
3.090,11.500,-145.500,-33.000,-5.000
3.091,11.500,-146.500,-35.000,-7.000
3.092,12.000,-147.000,-36.000,-9.000
3.093,12.500,-147.000,-36.000,-9.500
3.094,13.500,-146.500,-35.500,-9.500
3.095,14.500,-146.000,-34.500,-9.000
3.096,15.500,-145.000,-33.000,-8.000
3.097,16.500,-144.000,-31.500,-6.500
3.098,17.000,-143.000,-29.500,-4.500
3.099,17.000,-142.500,-28.000,-2.000
3.100,17.000,-141.500,-26.500,0.000
3.101,17.500,-141.000,-25.500,2.000
3.102,17.500,-140.000,-24.000,3.500
3.103,18.000,-139.500,-23.000,5.000
3.104,18.500,-138.500,-22.500,6.000
3.105,18.000,-138.500,-22.500,6.000
3.106,18.000,-139.000,-23.000,5.500
3.107,17.500,-139.500,-23.500,4.500
3.108,17.500,-140.000,-24.500,3.500
3.109,18.500,-140.000,-25.500,2.500
3.110,19.500,-139.500,-26.500,1.500
3.111,20.500,-139.500,-27.000,0.500
3.112,21.500,-139.500,-28.000,-1.000
3.113,22.000,-139.500,-28.500,-2.000
3.114,22.500,-139.500,-28.500,-2.500
3.115,23.500,-139.000,-27.500,-2.500
3.116,25.000,-138.000,-26.000,-1.000
3.117,26.000,-136.500,-24.000,1.000
3.118,26.500,-135.500,-22.000,3.000
3.119,26.500,-135.000,-20.000,5.500
3.120,26.000,-134.000,-17.500,8.500
3.121,26.000,-133.500,-15.500,11.000
3.122,26.000,-132.500,-14.000,14.000
3.123,26.000,-131.500,-12.500,16.000
3.124,26.000,-131.500,-12.000,16.500
3.125,25.000,-132.000,-12.500,16.000
3.126,24.000,-133.500,-14.500,14.000
3.127,22.500,-135.000,-17.000,11.500
3.128,22.500,-136.500,-19.000,9.000
3.129,23.000,-137.000,-20.000,7.500
3.130,24.000,-137.000,-21.000,6.000
3.131,25.500,-136.500,-21.500,5.000
3.132,27.000,-136.000,-21.500,4.500
3.133,29.000,-135.000,-21.500,4.000
3.134,30.000,-134.500,-21.000,4.500
3.135,31.000,-134.000,-19.500,5.000
3.136,32.000,-133.500,-18.500,6.500
3.137,32.500,-132.500,-16.500,8.500
3.138,33.000,-132.000,-15.000,10.500
3.139,33.000,-131.000,-13.500,13.000
3.140,32.500,-130.500,-12.000,15.000
3.141,32.000,-130.000,-10.500,17.000
3.142,32.000,-129.500,-9.500,18.500
3.143,31.500,-129.000,-8.500,20.000
3.144,31.500,-128.500,-8.000,21.000
3.145,32.000,-127.500,-7.500,22.000
3.146,32.000,-127.500,-7.500,21.500
3.147,32.000,-128.000,-8.500,20.500
3.148,31.500,-128.500,-10.500,18.000
3.149,30.500,-130.000,-13.000,15.500
3.150,30.000,-132.000,-15.500,12.500
3.151,29.000,-133.500,-18.000,9.500
3.152,28.500,-135.000,-20.000,7.000
3.153,29.000,-136.000,-21.000,5.500
3.154,30.000,-135.500,-20.500,5.000
3.155,31.500,-134.500,-19.500,6.000
3.156,33.500,-133.000,-17.500,8.000
3.157,35.000,-131.500,-15.000,10.000
3.158,36.500,-129.500,-12.500,13.000
3.159,37.500,-128.000,-9.500,16.500
3.160,38.000,-126.000,-7.000,20.000
3.161,39.000,-124.000,-4.000,23.000
3.162,40.000,-122.000,-1.500,26.000
3.163,40.500,-120.500,0.500,28.500
3.164,41.500,-119.500,2.000,30.000
3.165,41.500,-118.500,2.500,31.000
3.166,42.000,-118.500,2.500,30.500
3.167,41.500,-119.000,1.500,29.500
3.168,41.000,-120.000,-0.500,27.500
3.169,40.500,-121.500,-3.000,25.000
3.170,40.000,-122.500,-5.000,22.500
3.171,40.000,-123.000,-6.000,21.000
3.172,41.000,-122.500,-6.500,20.000
3.173,43.000,-121.500,-6.000,20.500
3.174,46.000,-119.500,-3.500,22.000
3.175,48.500,-117.500,-1.000,24.500
3.176,50.000,-116.000,1.000,26.500
3.177,51.000,-115.000,3.000,28.500
3.178,51.500,-114.000,4.500,30.500
3.179,52.000,-112.500,6.000,33.000
3.180,52.500,-111.000,8.000,36.000
3.181,53.000,-110.000,9.500,38.500
3.182,53.000,-109.500,10.500,40.500
3.183,53.000,-109.500,11.000,41.500
3.184,52.500,-110.000,10.500,42.000
3.185,51.500,-111.000,9.000,41.000
3.186,51.000,-112.500,8.000,40.000
3.187,51.500,-113.000,7.000,39.000
3.188,52.500,-112.500,6.500,37.500
3.189,53.500,-112.000,6.500,37.000
3.190,55.500,-111.000,6.500,36.500
3.191,57.500,-110.000,7.000,36.000
3.192,59.000,-109.000,7.500,36.000
3.193,61.000,-107.500,9.000,36.500
3.194,63.500,-105.500,11.000,38.000
3.195,65.500,-103.000,14.000,40.500
3.196,68.000,-100.500,17.000,44.000
