'Elapsed time','AECG1','AECG2','AECG3','AECG4'
'seconds','uV','uV','uV','uV'
0.000,-10.000,-21.000,-16.000,-6.000
0.001,-25.000,-53.500,-40.500,-16.000
0.002,-38.500,-82.500,-62.000,-25.500
0.003,-42.500,-92.000,-68.500,-28.500
0.004,-40.500,-88.000,-65.500,-27.500
0.005,-39.000,-85.000,-62.500,-27.000
0.006,-40.000,-87.500,-64.500,-28.000
0.007,-40.000,-88.500,-65.500,-28.500
0.008,-39.500,-87.000,-64.500,-28.500
0.009,-39.000,-86.000,-63.500,-28.000
0.010,-39.500,-86.500,-64.500,-28.500
0.011,-40.000,-86.500,-65.000,-28.000
0.012,-40.500,-85.500,-64.000,-27.500
0.013,-40.500,-84.000,-63.000,-27.000
0.014,-41.000,-84.000,-63.000,-26.500
0.015,-41.000,-83.500,-62.500,-26.000
0.016,-41.000,-83.000,-62.000,-26.000
0.017,-41.000,-82.500,-62.000,-25.500
0.018,-41.500,-82.500,-62.000,-26.000
0.019,-41.000,-82.500,-62.500,-26.500
0.020,-41.000,-83.000,-63.000,-27.000
0.021,-41.000,-83.000,-63.500,-27.500
0.022,-41.000,-83.500,-64.000,-28.000
0.023,-40.500,-84.000,-64.500,-28.000
0.024,-40.500,-85.000,-65.000,-28.500
0.025,-40.500,-85.500,-65.000,-29.000
0.026,-40.500,-86.500,-65.500,-29.000
0.027,-40.500,-86.500,-65.000,-29.000
0.028,-40.500,-87.500,-65.500,-29.500
0.029,-40.000,-87.500,-65.000,-29.000
0.030,-40.500,-88.000,-65.500,-29.000
0.031,-40.500,-87.500,-65.000,-28.500
0.032,-40.500,-87.500,-65.000,-28.000
0.033,-40.000,-86.500,-64.500,-27.500
0.034,-40.000,-86.000,-64.500,-27.000
0.035,-40.000,-85.000,-64.000,-26.500
0.036,-40.000,-84.500,-64.000,-26.000
0.037,-40.000,-84.000,-63.500,-25.500
0.038,-40.500,-83.500,-64.000,-25.500
0.039,-40.500,-83.500,-64.000,-25.500
0.040,-40.500,-84.000,-64.500,-25.500
0.041,-40.000,-84.000,-64.500,-26.000
0.042,-40.000,-85.000,-65.500,-26.500
0.043,-39.500,-86.000,-65.500,-27.000
0.044,-39.500,-87.000,-66.000,-27.500
0.045,-39.500,-87.500,-66.000,-27.500
0.046,-39.500,-88.000,-66.000,-28.000
0.047,-39.500,-87.500,-65.500,-28.000
0.048,-40.000,-87.500,-65.500,-28.000
0.049,-40.500,-87.000,-65.000,-27.500
0.050,-40.500,-86.500,-65.500,-27.500
0.051,-40.500,-85.500,-65.000,-27.000
0.052,-40.500,-85.000,-65.000,-26.500
0.053,-40.500,-84.000,-65.000,-25.500
0.054,-40.500,-83.500,-65.000,-25.000
0.055,-40.500,-82.500,-64.500,-24.000
0.056,-40.500,-82.500,-64.500,-24.000
0.057,-40.500,-82.000,-64.000,-24.000
0.058,-41.000,-82.000,-64.000,-24.000
0.059,-41.000,-81.500,-63.500,-24.000
0.060,-41.500,-81.500,-63.000,-25.000
0.061,-41.000,-81.500,-62.500,-25.500
0.062,-41.000,-82.000,-62.500,-26.000
0.063,-41.000,-82.500,-62.000,-26.000
0.064,-41.000,-82.500,-62.000,-26.000
0.065,-40.500,-82.500,-62.000,-26.000
0.066,-40.500,-82.500,-62.000,-26.000
0.067,-40.500,-82.000,-61.500,-26.000
0.068,-41.000,-81.500,-62.000,-26.000
0.069,-41.000,-81.000,-61.500,-25.500
0.070,-41.500,-81.000,-62.000,-25.500
0.071,-41.500,-81.000,-61.500,-25.000
0.072,-41.500,-81.000,-62.000,-25.000
0.073,-41.500,-81.000,-61.500,-24.500
0.074,-41.500,-81.000,-61.500,-24.500
0.075,-41.500,-81.000,-61.500,-24.000
0.076,-41.500,-81.000,-61.500,-24.000
0.077,-41.500,-81.000,-61.000,-23.500
0.078,-41.500,-81.500,-61.000,-23.500
0.079,-41.500,-81.500,-61.000,-23.500
0.080,-42.000,-82.000,-61.500,-24.000
0.081,-42.000,-82.500,-62.000,-24.000
0.082,-42.000,-83.500,-63.000,-24.500
0.083,-41.500,-83.500,-63.500,-25.000
0.084,-41.500,-84.500,-64.500,-25.500
0.085,-41.000,-84.500,-65.000,-25.500
0.086,-41.500,-85.000,-66.000,-26.000
0.087,-41.000,-85.000,-66.000,-26.000
0.088,-41.500,-85.000,-66.500,-26.500
0.089,-41.000,-85.000,-66.000,-26.000
0.090,-41.500,-85.000,-66.500,-26.500
0.091,-41.000,-84.500,-66.000,-26.000
0.092,-41.500,-84.000,-66.000,-26.000
0.093,-41.500,-83.500,-66.000,-25.500
0.094,-41.500,-83.500,-66.000,-25.500
0.095,-41.500,-83.000,-66.500,-25.000
0.096,-42.000,-83.000,-67.000,-25.000
0.097,-42.000,-83.000,-67.000,-25.000
0.098,-42.500,-83.000,-67.500,-25.000
0.099,-42.500,-83.000,-67.500,-25.000
0.100,-43.000,-83.500,-68.000,-25.500
0.101,-42.500,-84.000,-68.000,-26.000
0.102,-42.500,-84.500,-68.500,-27.000
0.103,-42.000,-84.500,-68.500,-27.500
0.104,-42.000,-85.000,-69.500,-28.500
0.105,-41.500,-85.000,-69.500,-28.500
0.106,-41.500,-85.500,-70.500,-29.000
0.107,-41.500,-85.000,-70.500,-29.000
0.108,-41.500,-85.000,-71.000,-29.500
0.109,-41.500,-84.500,-71.000,-29.000
0.110,-41.500,-84.000,-71.000,-29.000
0.111,-41.500,-83.000,-70.500,-28.500
0.112,-42.000,-82.500,-70.000,-28.500
0.113,-41.500,-81.000,-69.500,-28.000
0.114,-42.000,-80.000,-69.000,-27.500
0.115,-41.500,-78.500,-68.500,-27.000
0.116,-42.000,-77.500,-68.500,-27.000
0.117,-41.500,-76.500,-68.000,-27.000
0.118,-42.000,-76.500,-68.000,-27.000
0.119,-41.500,-76.500,-67.500,-27.000
0.120,-42.000,-77.500,-67.500,-27.000
0.121,-41.500,-78.000,-67.500,-27.500
0.122,-41.500,-79.000,-67.500,-27.500
0.123,-41.500,-80.000,-67.500,-27.500
0.124,-41.500,-81.000,-67.500,-27.500
0.125,-41.500,-81.500,-67.500,-27.500
0.126,-41.500,-82.000,-67.500,-27.500
0.127,-41.000,-82.000,-67.000,-27.500
0.128,-41.500,-82.000,-67.000,-27.500
0.129,-41.500,-81.500,-66.500,-27.000
0.130,-42.000,-81.500,-66.500,-27.500
0.131,-42.000,-81.000,-66.500,-27.500
0.132,-42.000,-81.000,-66.500,-27.500
0.133,-42.000,-80.000,-66.000,-27.000
0.134,-42.000,-79.500,-65.500,-27.000
0.135,-42.000,-78.500,-65.000,-26.500
0.136,-42.000,-78.000,-65.000,-26.000
0.137,-41.500,-77.000,-64.500,-25.500
0.138,-42.000,-77.000,-65.000,-25.500
0.139,-41.500,-77.000,-65.000,-25.000
0.140,-42.000,-77.500,-65.500,-25.500
0.141,-42.000,-77.500,-65.500,-25.500
0.142,-42.000,-78.500,-66.500,-26.000
0.143,-42.000,-79.000,-67.000,-26.000
0.144,-42.500,-80.000,-67.500,-27.000
0.145,-42.500,-80.500,-67.500,-27.000
0.146,-43.000,-81.000,-67.500,-27.500
0.147,-42.500,-81.500,-67.500,-27.500
0.148,-43.000,-81.500,-67.500,-27.500
0.149,-43.000,-81.000,-67.500,-27.500
0.150,-43.000,-81.000,-67.000,-27.500
0.151,-43.000,-80.000,-66.500,-27.000
0.152,-43.500,-79.500,-66.000,-27.000
0.153,-43.500,-78.000,-65.500,-26.500
0.154,-43.500,-77.500,-65.000,-26.500
0.155,-43.000,-76.000,-64.500,-26.000
0.156,-43.000,-75.500,-64.000,-26.000
0.157,-42.500,-75.000,-63.500,-25.500
0.158,-43.000,-74.500,-64.000,-25.500
0.159,-43.000,-74.000,-64.000,-25.000
0.160,-43.000,-74.500,-64.000,-25.000
0.161,-43.000,-74.500,-64.000,-25.000
0.162,-43.500,-75.000,-64.500,-25.500
0.163,-43.500,-75.000,-64.500,-25.500
0.164,-43.500,-76.000,-65.000,-25.500
0.165,-43.500,-76.000,-65.000,-25.500
0.166,-43.500,-77.000,-65.000,-25.500
0.167,-43.000,-77.000,-64.500,-24.500
0.168,-43.000,-77.000,-64.000,-24.000
0.169,-43.000,-77.000,-63.000,-22.000
0.170,-43.000,-76.500,-62.000,-20.500
0.171,-42.500,-75.500,-60.500,-18.000
0.172,-43.000,-75.000,-59.500,-15.500
0.173,-43.000,-74.000,-58.000,-13.000
0.174,-43.000,-74.000,-57.500,-11.000
0.175,-43.000,-73.000,-57.000,-9.000
0.176,-43.500,-73.000,-57.000,-7.500
0.177,-43.500,-73.000,-57.000,-5.500
0.178,-44.000,-73.500,-57.500,-4.500
0.179,-44.500,-74.000,-58.000,-3.000
0.180,-45.000,-75.500,-59.500,-2.000
0.181,-45.000,-76.000,-60.000,-1.000
0.182,-45.500,-77.500,-61.500,-0.500
0.183,-46.000,-78.500,-63.000,0.000
0.184,-46.500,-80.000,-65.000,-0.500
0.185,-47.000,-81.500,-67.000,-1.000
0.186,-48.000,-83.000,-69.500,-2.500
0.187,-49.000,-84.500,-72.000,-3.500
0.188,-50.000,-86.500,-75.000,-5.500
0.189,-50.500,-88.000,-78.000,-7.500
0.190,-51.500,-90.500,-82.000,-10.500
0.191,-52.000,-92.000,-86.000,-14.000
0.192,-53.000,-94.500,-90.500,-18.500
0.193,-54.000,-96.000,-95.000,-24.000
0.194,-55.000,-98.500,-100.000,-30.500
0.195,-55.500,-100.500,-105.500,-37.500
0.196,-56.000,-102.500,-111.500,-45.500
0.197,-56.000,-104.500,-117.500,-53.500
0.198,-56.500,-107.000,-123.500,-62.000
0.199,-57.000,-109.000,-129.500,-70.500
0.200,-57.000,-111.500,-135.500,-78.500
0.201,-57.000,-113.500,-140.500,-85.500
0.202,-57.500,-116.000,-145.000,-92.000
0.203,-57.000,-117.000,-147.500,-97.000
0.204,-57.000,-118.000,-149.500,-100.500
0.205,-56.500,-117.500,-149.000,-102.500
0.206,-56.000,-116.000,-147.500,-103.000
0.207,-55.000,-114.000,-144.500,-102.500
0.208,-54.500,-111.500,-140.500,-101.000
0.209,-53.500,-108.500,-135.500,-99.000
0.210,-52.500,-105.500,-130.500,-96.500
0.211,-51.500,-101.500,-125.500,-93.500
0.212,-51.000,-98.500,-120.500,-90.500
0.213,-50.000,-94.500,-115.000,-87.000
0.214,-49.000,-91.500,-110.500,-83.500
0.215,-48.000,-88.500,-106.000,-79.500
0.216,-47.500,-85.500,-101.500,-76.000
0.217,-46.500,-83.000,-97.500,-72.500
0.218,-46.000,-81.500,-94.000,-70.000
0.219,-45.500,-80.500,-91.000,-67.500
0.220,-45.000,-80.000,-88.500,-65.500
0.221,-44.000,-79.000,-86.000,-63.000
0.222,-44.000,-79.000,-84.000,-61.500
0.223,-43.500,-78.500,-82.000,-59.500
0.224,-43.000,-78.500,-81.000,-57.500
0.225,-42.500,-78.000,-79.000,-55.500
0.226,-42.500,-77.500,-78.000,-53.500
0.227,-42.000,-77.000,-76.500,-51.000
0.228,-42.500,-76.500,-75.000,-49.000
0.229,-42.500,-76.000,-73.500,-47.000
0.230,-42.500,-75.000,-72.000,-45.000
0.231,-42.500,-74.000,-70.500,-43.000
0.232,-43.000,-73.500,-69.500,-41.000
0.233,-43.000,-72.500,-68.000,-39.000
0.234,-43.000,-72.000,-67.000,-37.000
0.235,-43.000,-71.500,-65.500,-35.000
0.236,-43.000,-71.000,-65.000,-33.500
0.237,-42.500,-70.500,-64.000,-32.000
0.238,-43.000,-71.000,-63.500,-31.000
0.239,-42.500,-71.000,-63.000,-30.500
0.240,-42.500,-71.500,-63.000,-30.000
0.241,-42.500,-72.000,-63.000,-29.500
0.242,-43.000,-73.500,-64.000,-29.500
0.243,-43.000,-74.000,-64.500,-29.000
0.244,-43.000,-75.000,-65.000,-29.000
0.245,-42.500,-76.000,-65.500,-29.000
0.246,-43.000,-76.500,-66.000,-29.000
0.247,-43.000,-76.500,-66.000,-28.500
0.248,-43.000,-77.000,-66.500,-28.500
0.249,-43.000,-76.500,-66.000,-28.000
0.250,-43.500,-76.000,-66.000,-27.500
0.251,-43.500,-75.000,-65.500,-27.000
0.252,-44.000,-74.500,-65.000,-26.500
0.253,-44.000,-73.500,-64.500,-26.000
0.254,-44.500,-73.000,-64.000,-26.000
0.255,-44.500,-72.000,-63.500,-25.500
0.256,-44.500,-71.500,-63.000,-25.500
0.257,-44.500,-70.500,-62.500,-25.000
0.258,-45.000,-70.500,-63.000,-25.000
0.259,-44.500,-70.000,-62.500,-24.500
0.260,-45.000,-70.000,-63.000,-25.000
0.261,-44.500,-70.000,-63.000,-25.000
0.262,-45.000,-70.500,-63.500,-25.500
0.263,-44.500,-71.000,-63.500,-25.500
0.264,-44.500,-72.000,-64.000,-26.500
0.265,-44.500,-72.500,-64.000,-26.500
0.266,-44.500,-73.000,-64.000,-27.000
0.267,-44.500,-73.000,-64.000,-26.500
0.268,-44.500,-73.000,-64.000,-27.000
0.269,-44.000,-73.000,-63.500,-26.500
0.270,-44.000,-72.500,-63.500,-26.500
0.271,-44.000,-71.500,-62.500,-25.500
0.272,-44.500,-71.000,-62.500,-25.000
0.273,-44.500,-69.500,-61.500,-24.500
0.274,-45.000,-69.000,-61.500,-24.000
0.275,-45.000,-68.000,-60.500,-23.500
0.276,-45.000,-67.500,-60.500,-23.500
0.277,-45.000,-67.000,-60.000,-23.000
0.278,-45.000,-67.500,-60.000,-23.000
0.279,-44.500,-68.000,-59.500,-22.500
0.280,-44.500,-69.000,-59.500,-22.500
0.281,-44.500,-69.500,-59.500,-22.500
0.282,-44.500,-70.500,-60.000,-23.000
0.283,-44.500,-71.000,-60.000,-23.000
0.284,-45.000,-72.000,-60.500,-23.500
0.285,-45.000,-72.500,-61.000,-23.500
0.286,-45.500,-73.500,-61.500,-24.500
0.287,-46.000,-73.500,-61.500,-24.500
0.288,-46.500,-74.000,-62.000,-25.500
0.289,-46.500,-74.000,-62.000,-25.500
0.290,-46.500,-74.000,-62.000,-26.000
0.291,-46.500,-73.000,-62.000,-26.000
0.292,-46.500,-72.500,-62.500,-26.000
0.293,-46.000,-71.500,-62.500,-26.000
0.294,-46.000,-71.000,-62.500,-26.000
0.295,-45.500,-70.500,-62.000,-25.500
0.296,-46.000,-70.000,-62.000,-25.500
0.297,-45.500,-69.500,-62.000,-25.000
0.298,-46.000,-69.500,-62.500,-25.000
0.299,-46.000,-69.500,-62.500,-25.000
0.300,-46.000,-70.500,-63.000,-25.500
0.301,-46.000,-71.000,-63.000,-25.500
0.302,-46.000,-72.500,-63.000,-26.000
0.303,-45.500,-73.500,-63.000,-26.000
0.304,-45.500,-74.500,-63.000,-26.500
0.305,-45.500,-75.500,-63.000,-26.500
0.306,-45.500,-76.000,-63.500,-27.000
0.307,-45.500,-76.500,-63.500,-27.000
0.308,-45.500,-76.500,-63.500,-27.000
0.309,-45.500,-76.500,-63.500,-27.000
0.310,-45.500,-76.000,-63.500,-27.000
0.311,-45.000,-75.500,-63.000,-26.500
0.312,-45.500,-74.500,-63.000,-26.500
0.313,-45.000,-73.500,-62.500,-26.500
0.314,-45.500,-72.500,-62.500,-26.000
0.315,-45.000,-71.500,-62.000,-25.500
0.316,-45.500,-71.000,-62.000,-25.500
0.317,-45.500,-70.000,-62.000,-25.000
0.318,-45.500,-70.000,-62.000,-25.000
0.319,-45.500,-69.500,-61.500,-24.500
0.320,-45.500,-70.000,-62.000,-25.000
0.321,-45.500,-70.000,-62.000,-25.500
0.322,-45.500,-71.000,-62.000,-26.500
0.323,-45.500,-71.500,-62.000,-27.000
0.324,-46.000,-72.000,-62.500,-27.500
0.325,-45.500,-72.500,-62.000,-27.500
0.326,-46.000,-73.000,-62.000,-28.000
0.327,-45.500,-73.000,-62.000,-28.500
0.328,-45.500,-73.000,-62.000,-29.000
0.329,-45.000,-73.000,-61.500,-29.000
0.330,-45.000,-72.500,-62.000,-29.500
0.331,-45.000,-72.000,-62.000,-29.000
0.332,-45.000,-71.500,-62.500,-29.000
0.333,-45.000,-70.500,-62.000,-29.000
0.334,-45.000,-70.000,-62.000,-28.500
0.335,-45.000,-69.500,-61.500,-28.000
0.336,-45.500,-69.000,-61.500,-27.500
0.337,-45.500,-68.500,-61.500,-27.000
0.338,-45.500,-69.000,-61.500,-27.000
0.339,-45.500,-69.000,-61.500,-27.000
0.340,-45.500,-69.500,-62.000,-27.000
0.341,-45.000,-70.000,-62.500,-27.000
0.342,-45.500,-71.000,-63.000,-28.000
0.343,-45.500,-72.000,-63.500,-28.500
0.344,-45.500,-73.000,-64.000,-29.500
0.345,-45.500,-73.500,-64.000,-30.000
0.346,-45.500,-74.500,-64.000,-31.000
0.347,-45.500,-74.500,-64.000,-31.500
0.348,-45.500,-75.000,-64.000,-32.000
0.349,-45.500,-75.000,-63.500,-32.000
0.350,-45.500,-75.000,-64.000,-32.000
0.351,-45.500,-74.500,-63.500,-31.500
0.352,-45.500,-74.000,-64.000,-31.000
0.353,-45.500,-72.500,-63.500,-30.500
0.354,-46.000,-72.000,-63.500,-30.000
0.355,-46.000,-70.500,-63.000,-29.500
0.356,-46.000,-70.000,-63.000,-29.000
0.357,-46.000,-69.000,-63.000,-28.500
0.358,-46.500,-69.000,-63.500,-28.500
0.359,-46.500,-68.500,-63.500,-28.500
0.360,-46.500,-69.000,-64.500,-28.500
0.361,-46.000,-69.500,-65.000,-29.000
0.362,-46.000,-70.500,-66.000,-29.500
0.363,-46.000,-70.500,-67.000,-29.500
0.364,-46.500,-71.500,-67.500,-30.500
0.365,-46.500,-71.500,-68.000,-30.500
0.366,-46.500,-72.500,-68.500,-31.000
0.367,-46.500,-72.500,-68.500,-31.000
0.368,-46.500,-73.000,-68.500,-31.500
0.369,-46.500,-72.500,-68.000,-31.000
0.370,-46.500,-73.000,-68.000,-31.500
0.371,-46.500,-72.500,-68.000,-31.000
0.372,-46.500,-72.500,-67.500,-31.000
0.373,-46.500,-71.500,-67.000,-30.500
0.374,-47.000,-71.500,-66.500,-30.000
0.375,-47.000,-70.500,-66.000,-29.500
0.376,-47.500,-70.500,-66.500,-30.000
0.377,-47.500,-70.500,-66.500,-30.000
0.378,-48.000,-71.000,-67.000,-30.500
0.379,-48.000,-71.000,-67.500,-31.000
0.380,-48.500,-72.000,-68.500,-31.500
0.381,-48.500,-73.000,-69.000,-32.500
0.382,-48.500,-74.000,-70.000,-33.000
0.383,-48.500,-74.500,-70.500,-33.500
0.384,-48.500,-75.500,-71.500,-34.000
0.385,-48.000,-76.000,-71.500,-34.500
0.386,-48.000,-77.000,-72.000,-35.000
0.387,-48.000,-77.000,-72.000,-35.500
0.388,-48.500,-77.000,-72.500,-35.500
0.389,-48.500,-76.500,-72.500,-35.500
0.390,-48.500,-76.500,-73.000,-35.500
0.391,-48.500,-76.000,-73.000,-35.000
0.392,-49.000,-75.500,-73.000,-35.000
0.393,-49.000,-75.000,-73.000,-34.500
0.394,-49.500,-74.500,-73.000,-34.500
0.395,-49.000,-73.500,-72.500,-34.000
0.396,-49.500,-73.000,-72.500,-34.500
0.397,-49.000,-72.500,-72.500,-34.000
0.398,-49.000,-72.500,-73.000,-34.500
0.399,-48.500,-72.500,-73.500,-34.500
0.400,-48.500,-73.500,-74.000,-35.000
0.401,-48.500,-74.000,-74.500,-35.500
0.402,-48.500,-75.000,-75.500,-36.000
0.403,-48.000,-75.500,-76.000,-36.500
0.404,-48.500,-77.000,-77.000,-37.500
0.405,-48.500,-77.500,-77.500,-38.000
0.406,-49.000,-78.500,-78.000,-38.500
0.407,-49.000,-78.500,-78.500,-38.500
0.408,-49.500,-79.000,-79.500,-39.000
0.409,-49.500,-79.000,-79.500,-39.000
0.410,-50.000,-79.000,-80.000,-39.500
0.411,-50.000,-78.000,-80.000,-39.000
0.412,-50.000,-77.500,-80.000,-39.000
0.413,-50.000,-76.500,-79.500,-39.000
0.414,-50.500,-76.500,-79.500,-38.500
0.415,-50.500,-75.500,-79.000,-38.000
0.416,-51.000,-75.500,-79.500,-38.000
0.417,-51.000,-75.500,-79.000,-37.500
0.418,-51.500,-75.500,-79.500,-37.500
0.419,-51.000,-76.000,-80.000,-37.000
0.420,-51.000,-76.500,-80.500,-37.000
0.421,-51.000,-76.500,-80.500,-37.500
0.422,-51.000,-77.000,-80.500,-38.000
0.423,-50.500,-77.500,-80.500,-38.000
0.424,-51.000,-78.000,-80.500,-38.500
0.425,-51.000,-78.000,-80.500,-39.000
0.426,-51.000,-78.500,-80.500,-39.500
0.427,-51.000,-78.500,-80.000,-39.000
0.428,-51.500,-79.000,-80.500,-39.000
0.429,-51.000,-78.500,-80.000,-38.500
0.430,-51.500,-78.500,-79.500,-38.500
0.431,-51.000,-78.000,-79.000,-37.500
0.432,-51.500,-77.000,-78.500,-37.000
0.433,-51.000,-76.000,-77.500,-36.000
0.434,-51.000,-75.000,-76.500,-35.500
0.435,-50.500,-74.000,-75.500,-35.000
0.436,-50.500,-73.500,-75.000,-34.000
0.437,-50.500,-72.500,-74.000,-33.000
0.438,-50.500,-72.000,-73.500,-32.500
0.439,-50.500,-72.000,-73.000,-31.500
0.440,-50.500,-72.500,-73.000,-31.000
0.441,-50.000,-72.500,-72.500,-30.500
0.442,-50.000,-73.500,-72.500,-30.000
0.443,-49.500,-73.500,-72.000,-29.500
0.444,-49.500,-74.000,-71.500,-29.500
0.445,-49.500,-74.500,-71.000,-29.000
0.446,-50.000,-74.500,-70.000,-28.500
0.447,-50.000,-74.000,-69.000,-28.000
0.448,-50.500,-74.000,-68.500,-27.500
0.449,-50.000,-73.000,-68.000,-27.000
0.450,-50.500,-72.500,-68.000,-27.000
0.451,-50.000,-71.500,-67.500,-26.500
0.452,-50.500,-71.000,-67.500,-26.000
0.453,-50.000,-70.000,-67.000,-25.500
0.454,-50.500,-69.000,-67.000,-25.000
0.455,-50.000,-68.000,-66.000,-24.000
0.456,-50.500,-67.500,-65.500,-23.500
0.457,-50.000,-66.500,-64.500,-23.000
0.458,-50.000,-66.000,-64.000,-22.500
0.459,-50.000,-66.000,-64.000,-22.000
0.460,-50.000,-66.000,-64.000,-22.000
0.461,-49.500,-66.000,-63.500,-21.500
0.462,-49.500,-67.000,-63.500,-21.500
0.463,-49.000,-67.000,-63.500,-21.500
0.464,-49.000,-68.000,-63.500,-21.500
0.465,-49.000,-68.000,-63.000,-21.000
0.466,-49.000,-68.500,-62.500,-21.000
0.467,-49.000,-68.500,-62.000,-20.500
0.468,-49.500,-68.500,-62.000,-20.500
0.469,-49.500,-68.500,-61.500,-20.000
0.470,-49.500,-68.000,-61.000,-20.000
0.471,-49.500,-67.500,-60.000,-19.500
0.472,-50.000,-67.500,-59.500,-19.500
0.473,-49.500,-66.500,-58.500,-19.000
0.474,-50.000,-66.000,-58.500,-19.000
0.475,-49.500,-65.000,-58.000,-18.500
0.476,-50.000,-64.500,-57.500,-18.500
0.477,-50.000,-63.500,-57.000,-18.500
0.478,-50.000,-63.000,-57.000,-18.500
0.479,-50.000,-62.500,-57.000,-18.500
0.480,-50.000,-62.500,-57.500,-19.000
0.481,-49.500,-62.000,-57.500,-19.500
0.482,-49.000,-63.000,-58.000,-20.000
0.483,-48.500,-63.500,-58.000,-20.000
0.484,-48.500,-64.000,-58.500,-20.500
0.485,-48.000,-64.500,-59.000,-20.500
0.486,-48.000,-65.000,-59.500,-21.000
0.487,-48.000,-65.500,-59.500,-21.500
0.488,-48.000,-66.000,-60.000,-22.000
0.489,-48.000,-65.500,-60.000,-22.000
0.490,-48.500,-65.500,-60.500,-22.500
0.491,-48.500,-65.000,-60.000,-22.500
0.492,-49.000,-65.000,-60.000,-22.500
0.493,-49.000,-64.000,-59.500,-22.000
0.494,-49.000,-63.000,-59.500,-21.500
0.495,-49.000,-62.000,-59.000,-21.000
0.496,-49.500,-61.000,-59.000,-20.500
0.497,-49.500,-60.500,-58.500,-20.000
0.498,-49.500,-60.000,-59.000,-20.000
0.499,-49.500,-60.000,-59.000,-19.500
0.500,-50.000,-60.500,-59.000,-20.000
0.501,-50.000,-61.000,-59.500,-20.000
0.502,-50.000,-62.000,-60.000,-21.000
0.503,-49.500,-62.500,-60.500,-22.000
0.504,-49.500,-63.500,-61.000,-23.000
0.505,-49.500,-63.500,-61.000,-24.000
0.506,-49.500,-64.000,-61.000,-24.500
0.507,-49.000,-64.000,-61.000,-25.000
0.508,-49.500,-64.500,-61.000,-25.000
0.509,-49.500,-64.000,-60.500,-25.000
0.510,-49.500,-63.500,-60.500,-25.000
0.511,-49.500,-62.500,-60.000,-24.500
0.512,-49.500,-62.000,-59.500,-24.000
0.513,-49.500,-61.500,-58.500,-23.500
0.514,-50.000,-61.000,-58.000,-23.500
0.515,-50.000,-60.000,-57.500,-23.000
0.516,-50.500,-59.500,-57.500,-23.000
0.517,-50.500,-59.000,-57.500,-23.000
0.518,-51.000,-59.000,-58.000,-23.000
0.519,-50.500,-59.000,-58.000,-23.000
0.520,-51.000,-59.500,-58.500,-23.500
0.521,-50.500,-59.500,-58.500,-23.500
0.522,-50.500,-60.500,-59.000,-24.000
0.523,-50.500,-61.000,-59.000,-24.500
0.524,-50.500,-61.500,-59.500,-25.000
0.525,-50.000,-62.000,-59.500,-25.000
0.526,-50.000,-62.500,-60.000,-25.500
0.527,-50.000,-63.000,-60.000,-25.500
0.528,-50.000,-63.000,-60.500,-25.500
0.529,-50.000,-63.000,-60.000,-25.000
0.530,-50.500,-63.000,-60.000,-25.000
0.531,-50.500,-62.500,-59.500,-24.500
0.532,-51.000,-62.000,-59.500,-24.500
0.533,-51.000,-61.000,-59.000,-24.000
0.534,-51.500,-60.000,-59.000,-24.000
0.535,-51.500,-59.000,-59.000,-23.500
0.536,-51.500,-58.500,-59.000,-23.500
0.537,-51.500,-57.500,-58.500,-23.000
0.538,-52.000,-58.000,-58.500,-22.500
0.539,-52.000,-58.000,-58.500,-22.000
0.540,-52.000,-59.000,-59.000,-22.500
0.541,-52.000,-60.000,-59.000,-22.500
0.542,-52.000,-61.500,-59.500,-23.000
0.543,-51.500,-62.500,-60.000,-23.500
0.544,-51.500,-63.500,-61.000,-24.000
0.545,-51.500,-64.000,-61.000,-24.500
0.546,-51.500,-64.500,-61.500,-25.000
0.547,-51.000,-64.500,-61.500,-25.500
0.548,-51.500,-64.500,-62.000,-25.500
0.549,-51.000,-64.000,-61.500,-25.500
0.550,-51.500,-63.500,-61.000,-25.500
0.551,-51.000,-62.500,-60.500,-25.000
0.552,-51.500,-62.000,-60.000,-25.000
0.553,-51.000,-60.500,-59.500,-24.500
0.554,-51.500,-60.000,-59.000,-24.500
0.555,-51.000,-59.000,-58.500,-24.000
0.556,-51.500,-58.000,-58.500,-24.000
0.557,-51.000,-57.500,-58.500,-24.000
0.558,-51.500,-57.500,-58.500,-23.500
0.559,-51.000,-57.500,-58.500,-23.000
0.560,-51.500,-58.000,-59.500,-23.000
0.561,-51.000,-58.000,-60.000,-23.000
0.562,-51.500,-59.000,-60.500,-23.000
0.563,-51.000,-59.500,-61.000,-23.000
0.564,-51.000,-60.500,-61.500,-23.500
0.565,-51.000,-61.000,-61.500,-24.000
0.566,-51.000,-61.500,-62.000,-24.500
0.567,-50.500,-62.000,-61.500,-24.500
0.568,-51.000,-62.000,-61.500,-24.500
0.569,-50.500,-62.000,-61.000,-24.500
0.570,-50.500,-61.500,-61.000,-24.500
0.571,-50.500,-61.000,-60.500,-24.000
0.572,-50.500,-60.500,-60.500,-24.000
0.573,-50.000,-59.500,-60.000,-23.500
0.574,-50.500,-59.000,-60.000,-23.500
0.575,-51.000,-58.000,-60.000,-23.500
0.576,-51.500,-58.000,-60.000,-23.500
0.577,-51.500,-57.000,-60.000,-23.000
0.578,-51.500,-57.000,-59.500,-22.500
0.579,-51.500,-56.500,-59.000,-22.000
0.580,-51.500,-57.000,-58.500,-22.000
0.581,-51.000,-57.000,-58.000,-21.500
0.582,-51.000,-57.000,-58.000,-21.500
0.583,-50.500,-57.500,-57.500,-21.000
0.584,-50.500,-58.000,-57.500,-21.000
0.585,-50.500,-58.500,-57.500,-21.000
0.586,-51.000,-58.500,-57.500,-21.000
0.587,-51.000,-58.500,-57.500,-20.500
0.588,-51.500,-58.500,-57.500,-20.500
0.589,-51.500,-58.000,-57.500,-20.000
0.590,-52.000,-58.000,-57.500,-19.500
0.591,-52.000,-57.500,-57.500,-19.500
0.592,-52.500,-57.500,-57.500,-19.500
0.593,-52.500,-56.500,-57.500,-19.500
0.594,-53.000,-56.500,-58.000,-19.500
0.595,-53.000,-56.000,-58.000,-20.000
0.596,-53.000,-55.500,-58.500,-20.500
0.597,-53.000,-55.500,-59.000,-21.000
0.598,-53.500,-55.500,-59.500,-22.000
0.599,-53.000,-56.000,-60.000,-22.500
0.600,-53.500,-57.000,-61.500,-23.500
0.601,-53.500,-57.500,-62.000,-24.000
0.602,-53.500,-59.000,-63.500,-24.500
0.603,-53.500,-60.000,-64.500,-25.500
0.604,-53.500,-61.000,-65.500,-26.500
0.605,-53.500,-62.000,-66.500,-27.000
0.606,-54.000,-62.500,-67.000,-27.500
0.607,-54.000,-62.500,-67.000,-27.000
0.608,-54.000,-63.000,-67.500,-27.000
0.609,-54.000,-62.500,-67.000,-26.500
0.610,-54.000,-62.000,-66.000,-26.000
0.611,-53.500,-61.000,-65.000,-25.500
0.612,-53.500,-60.000,-64.000,-24.500
0.613,-53.500,-58.500,-62.500,-23.500
0.614,-53.500,-57.500,-61.500,-23.000
0.615,-53.000,-56.000,-60.500,-22.000
0.616,-53.500,-55.500,-60.000,-21.500
0.617,-53.000,-55.000,-59.500,-21.000
0.618,-53.500,-55.500,-59.500,-20.500
0.619,-53.000,-55.500,-59.500,-20.500
0.620,-53.500,-55.500,-60.000,-20.500
0.621,-53.000,-56.000,-60.500,-20.500
0.622,-53.000,-56.500,-61.000,-21.000
0.623,-53.000,-56.500,-61.500,-21.500
0.624,-53.000,-57.000,-62.000,-21.500
0.625,-53.000,-57.500,-62.500,-21.500
0.626,-53.000,-58.000,-63.000,-22.000
0.627,-53.000,-58.000,-62.500,-22.000
0.628,-53.500,-58.500,-63.000,-22.000
0.629,-53.500,-58.000,-62.500,-22.000
0.630,-54.000,-58.000,-63.000,-22.500
0.631,-54.000,-57.000,-62.500,-22.000
0.632,-54.000,-56.500,-62.000,-22.000
0.633,-54.000,-55.000,-61.000,-21.500
0.634,-54.500,-54.500,-60.500,-21.000
0.635,-54.500,-53.000,-59.500,-20.000
0.636,-54.500,-52.500,-59.500,-19.500
0.637,-54.500,-52.000,-59.000,-19.000
0.638,-55.000,-52.000,-59.000,-19.000
0.639,-54.500,-52.000,-58.500,-19.000
0.640,-55.000,-52.500,-59.000,-19.500
0.641,-54.500,-53.000,-59.000,-19.500
0.642,-54.500,-54.000,-59.500,-20.000
0.643,-54.500,-54.500,-59.500,-20.000
0.644,-54.500,-55.000,-60.000,-20.500
0.645,-54.000,-55.500,-60.000,-20.500
0.646,-54.500,-56.000,-60.500,-21.000
0.647,-54.000,-56.000,-60.500,-21.000
0.648,-54.500,-56.000,-60.500,-21.500
0.649,-54.500,-55.500,-60.500,-21.500
0.650,-54.500,-55.500,-60.500,-21.500
0.651,-54.500,-54.500,-60.500,-21.000
0.652,-54.500,-54.000,-60.000,-21.000
0.653,-54.500,-53.000,-59.500,-20.500
0.654,-54.500,-52.500,-59.500,-20.000
0.655,-54.000,-52.000,-59.000,-19.000
0.656,-54.500,-51.500,-59.000,-19.000
0.657,-54.500,-51.000,-58.500,-18.500
0.658,-55.000,-51.000,-59.000,-18.500
0.659,-55.000,-51.500,-59.000,-18.000
0.660,-55.000,-52.000,-59.500,-18.500
0.661,-55.000,-52.000,-60.000,-19.000
0.662,-55.000,-52.500,-60.000,-19.500
0.663,-55.000,-53.000,-60.000,-20.000
0.664,-55.500,-53.500,-60.500,-20.500
0.665,-55.500,-53.500,-60.500,-20.500
0.666,-56.000,-54.500,-60.500,-21.000
0.667,-56.000,-54.500,-60.500,-21.000
0.668,-56.000,-55.000,-61.000,-21.500
0.669,-56.000,-54.500,-60.500,-21.500
0.670,-56.000,-54.500,-61.000,-21.500
0.671,-56.000,-54.000,-60.500,-21.000
0.672,-56.000,-53.500,-60.500,-21.000
0.673,-56.000,-52.500,-59.500,-20.500
0.674,-56.000,-52.000,-59.000,-20.000
0.675,-56.000,-51.000,-58.000,-19.500
0.676,-56.500,-50.000,-58.000,-19.000
0.677,-56.500,-49.500,-57.500,-18.000
0.678,-57.000,-49.500,-57.500,-18.000
0.679,-56.500,-49.500,-57.000,-17.500
0.680,-57.000,-49.500,-57.500,-17.500
0.681,-56.500,-49.500,-57.500,-17.500
0.682,-56.500,-50.000,-58.000,-18.000
0.683,-56.500,-50.500,-58.500,-18.000
0.684,-56.500,-51.000,-58.500,-18.500
0.685,-56.500,-51.000,-58.500,-19.000
0.686,-57.000,-51.500,-58.500,-19.000
0.687,-57.000,-51.500,-58.500,-19.000
0.688,-57.000,-52.000,-58.500,-19.500
0.689,-57.000,-51.500,-58.500,-19.000
0.690,-57.500,-51.500,-58.500,-19.000
0.691,-57.500,-51.000,-58.500,-19.000
0.692,-57.500,-50.500,-58.500,-19.000
0.693,-57.500,-49.500,-58.000,-18.500
0.694,-58.000,-48.500,-58.000,-18.500
0.695,-57.500,-47.500,-57.500,-18.000
0.696,-58.000,-47.000,-58.000,-18.000
0.697,-57.500,-46.500,-58.000,-18.000
0.698,-58.000,-46.000,-58.000,-18.000
0.699,-57.500,-46.000,-58.000,-17.500
0.700,-58.000,-46.500,-58.500,-18.000
0.701,-58.000,-46.500,-59.000,-18.000
0.702,-58.000,-47.500,-59.500,-18.500
0.703,-58.000,-48.000,-59.500,-18.500
0.704,-58.000,-48.500,-60.000,-19.000
0.705,-58.000,-49.000,-59.500,-19.000
0.706,-58.000,-49.500,-59.500,-19.500
0.707,-58.000,-50.000,-59.000,-19.000
0.708,-58.000,-50.000,-58.500,-19.000
0.709,-58.000,-49.500,-58.000,-18.500
0.710,-58.500,-49.500,-58.000,-18.000
0.711,-59.000,-48.500,-57.500,-17.500
0.712,-59.000,-48.000,-57.000,-17.500
0.713,-59.000,-46.500,-56.500,-17.000
0.714,-59.000,-46.000,-56.500,-17.000
0.715,-59.000,-44.500,-56.500,-16.500
0.716,-59.000,-44.000,-56.500,-16.000
0.717,-59.000,-43.500,-56.000,-15.500
0.718,-59.000,-43.000,-56.000,-15.500
0.719,-59.000,-42.500,-56.000,-15.000
0.720,-59.500,-43.000,-56.500,-14.500
0.721,-59.500,-43.000,-56.500,-14.500
0.722,-60.000,-43.500,-57.000,-14.500
0.723,-60.000,-44.500,-57.000,-15.000
0.724,-60.000,-45.500,-57.500,-15.500
0.725,-60.000,-46.000,-57.500,-16.000
0.726,-60.500,-47.000,-58.000,-16.500
0.727,-60.500,-47.500,-58.000,-17.000
0.728,-60.500,-48.500,-58.500,-18.000
0.729,-60.500,-48.000,-58.000,-18.000
0.730,-61.000,-48.000,-58.500,-18.000
0.731,-61.000,-47.000,-58.000,-18.000
0.732,-61.500,-46.000,-58.000,-17.500
0.733,-61.500,-45.000,-57.500,-17.000
0.734,-62.000,-44.500,-57.500,-17.000
0.735,-62.000,-43.500,-57.500,-16.500
0.736,-62.000,-43.000,-58.000,-16.500
0.737,-62.000,-42.500,-58.000,-16.500
0.738,-62.500,-42.500,-58.000,-16.500
0.739,-63.000,-42.500,-58.000,-16.500
0.740,-63.500,-43.500,-58.500,-17.000
0.741,-63.500,-44.000,-58.500,-17.000
0.742,-64.000,-45.000,-59.000,-17.500
0.743,-63.500,-45.500,-59.000,-17.500
0.744,-64.000,-46.000,-59.500,-18.000
0.745,-63.500,-46.500,-59.000,-18.000
0.746,-63.500,-46.500,-59.500,-18.000
0.747,-63.500,-46.500,-59.000,-17.500
0.748,-63.500,-46.500,-59.000,-18.000
0.749,-63.000,-46.000,-58.500,-18.000
0.750,-63.500,-46.000,-58.500,-18.000
0.751,-63.000,-45.500,-58.000,-17.500
0.752,-63.500,-45.000,-58.000,-17.500
0.753,-63.000,-44.500,-57.500,-17.000
0.754,-63.500,-44.000,-57.500,-17.000
0.755,-63.000,-43.000,-57.500,-16.500
0.756,-63.000,-42.500,-57.500,-16.500
0.757,-62.500,-42.000,-57.000,-16.000
0.758,-62.500,-41.500,-57.000,-16.000
0.759,-62.500,-41.500,-57.000,-16.000
0.760,-63.000,-41.500,-57.500,-16.000
0.761,-62.500,-41.500,-57.500,-16.000
0.762,-63.000,-42.000,-58.000,-16.500
0.763,-62.500,-42.000,-58.000,-16.500
0.764,-63.000,-43.000,-58.500,-17.000
0.765,-63.000,-43.000,-59.000,-17.000
0.766,-63.500,-43.500,-59.000,-17.000
0.767,-63.500,-43.500,-59.000,-16.500
0.768,-63.500,-43.500,-58.500,-16.500
0.769,-63.500,-43.000,-58.000,-16.000
0.770,-64.000,-43.000,-58.000,-16.000
0.771,-63.500,-42.000,-57.500,-16.000
0.772,-64.000,-42.000,-57.000,-16.000
0.773,-64.000,-41.500,-56.500,-15.500
0.774,-64.000,-41.000,-56.500,-15.500
0.775,-64.000,-40.500,-56.500,-15.000
0.776,-64.500,-40.500,-56.500,-14.500
0.777,-64.000,-40.500,-56.000,-14.000
0.778,-64.500,-40.500,-56.000,-14.000
0.779,-64.000,-40.500,-56.000,-13.500
0.780,-64.000,-41.000,-56.500,-13.500
0.781,-63.500,-41.000,-57.000,-13.500
0.782,-63.500,-41.500,-57.500,-14.000
0.783,-63.500,-42.000,-57.500,-14.500
0.784,-63.500,-42.000,-58.500,-15.000
0.785,-63.500,-42.000,-58.500,-15.000
0.786,-64.000,-42.500,-58.500,-15.000
0.787,-64.000,-42.500,-58.500,-15.000
0.788,-64.000,-42.500,-58.500,-15.000
0.789,-64.000,-42.000,-58.500,-14.500
0.790,-64.000,-42.000,-58.000,-14.500
0.791,-64.000,-41.500,-57.500,-14.000
0.792,-64.000,-41.500,-57.000,-14.000
0.793,-64.000,-40.500,-56.000,-13.500
0.794,-64.500,-40.000,-56.000,-13.500
0.795,-65.000,-39.500,-55.000,-13.000
0.796,-65.500,-39.000,-55.000,-13.500
0.797,-65.500,-38.500,-55.000,-13.500
0.798,-66.000,-38.500,-55.500,-13.500
0.799,-66.000,-38.500,-55.500,-14.000
0.800,-66.500,-39.000,-56.500,-14.500
0.801,-66.000,-39.000,-57.000,-15.000
0.802,-66.500,-40.000,-58.000,-15.500
0.803,-66.000,-40.500,-58.500,-15.500
0.804,-66.500,-41.500,-59.500,-16.000
0.805,-66.000,-42.000,-59.500,-16.500
0.806,-66.500,-42.500,-60.500,-17.000
0.807,-66.000,-42.500,-60.500,-16.500
0.808,-66.500,-42.500,-60.500,-16.500
0.809,-66.000,-42.500,-60.500,-16.000
0.810,-66.000,-42.000,-60.000,-15.500
0.811,-66.000,-41.500,-59.500,-15.000
0.812,-66.500,-41.000,-59.500,-14.500
0.813,-66.500,-40.000,-59.000,-14.000
0.814,-67.000,-39.500,-58.500,-14.500
0.815,-67.000,-38.500,-58.000,-14.500
0.816,-67.500,-38.000,-57.500,-14.500
0.817,-67.500,-37.500,-57.000,-14.500
0.818,-68.000,-37.000,-57.000,-15.000
0.819,-67.500,-37.000,-57.000,-15.000
0.820,-68.000,-37.500,-57.000,-15.500
0.821,-67.500,-38.000,-57.000,-16.000
0.822,-68.000,-39.000,-57.500,-17.000
0.823,-67.500,-39.500,-57.500,-17.500
0.824,-67.500,-40.000,-58.000,-18.000
0.825,-67.500,-40.500,-58.000,-18.000
0.826,-67.500,-41.000,-58.500,-18.500
0.827,-67.000,-41.000,-59.000,-19.000
0.828,-67.000,-41.500,-59.500,-19.000
0.829,-67.000,-41.000,-60.000,-19.000
0.830,-67.000,-41.000,-60.500,-19.500
0.831,-67.000,-40.500,-60.500,-19.000
0.832,-67.500,-40.000,-61.000,-19.000
0.833,-67.500,-39.000,-60.500,-18.000
0.834,-68.000,-38.000,-60.500,-18.000
0.835,-67.500,-37.000,-59.500,-17.000
0.836,-68.000,-36.500,-59.500,-17.000
0.837,-67.500,-35.500,-59.000,-16.000
0.838,-68.000,-35.000,-58.500,-16.000
0.839,-67.500,-34.500,-58.000,-15.500
0.840,-67.500,-34.500,-58.500,-15.500
0.841,-67.500,-34.500,-58.500,-15.500
0.842,-67.500,-35.000,-58.500,-16.000
0.843,-67.000,-35.000,-58.500,-16.500
0.844,-67.500,-36.000,-58.500,-17.000
0.845,-67.500,-36.500,-58.500,-17.000
0.846,-67.500,-37.000,-58.500,-17.500
0.847,-67.500,-37.000,-58.000,-17.500
0.848,-67.500,-37.000,-57.500,-17.500
0.849,-67.000,-37.000,-57.000,-17.000
0.850,-67.000,-37.000,-57.000,-17.000
0.851,-67.000,-36.500,-57.000,-17.000
0.852,-67.500,-36.000,-57.000,-17.000
0.853,-67.500,-35.500,-56.500,-16.500
0.854,-68.000,-34.500,-57.000,-17.000
0.855,-68.000,-33.500,-57.000,-16.500
0.856,-68.500,-33.000,-57.000,-16.500
0.857,-69.000,-32.000,-57.000,-16.000
0.858,-69.000,-32.000,-57.500,-16.000
0.859,-69.000,-32.000,-57.500,-16.000
0.860,-69.500,-32.500,-58.000,-16.000
0.861,-69.500,-32.500,-58.000,-15.500
0.862,-69.500,-33.500,-58.000,-16.000
0.863,-69.500,-34.000,-58.000,-16.000
0.864,-69.500,-34.500,-58.000,-16.000
0.865,-69.500,-35.000,-58.000,-16.500
0.866,-70.000,-36.000,-58.500,-17.000
0.867,-69.500,-36.000,-58.000,-17.000
0.868,-69.500,-36.000,-58.500,-17.500
0.869,-69.500,-35.500,-58.000,-17.500
0.870,-69.500,-35.000,-58.500,-17.500
0.871,-69.000,-34.000,-58.000,-17.500
0.872,-69.000,-33.000,-58.000,-17.000
0.873,-69.000,-31.500,-57.500,-16.500
0.874,-69.500,-31.000,-57.000,-16.000
0.875,-69.000,-30.000,-56.500,-15.000
0.876,-69.500,-29.000,-57.000,-15.000
0.877,-69.000,-28.500,-57.000,-14.500
0.878,-69.500,-28.500,-57.500,-14.500
0.879,-69.000,-28.500,-57.500,-14.500
0.880,-69.000,-29.000,-58.500,-14.500
0.881,-69.000,-29.500,-58.500,-14.500
0.882,-69.000,-30.500,-59.000,-14.500
0.883,-69.000,-30.500,-58.500,-14.000
0.884,-69.000,-31.000,-58.000,-13.500
0.885,-68.500,-31.000,-57.000,-12.500
0.886,-69.000,-31.000,-56.000,-11.000
0.887,-69.000,-31.000,-54.500,-9.000
0.888,-69.500,-30.500,-53.500,-7.000
0.889,-69.500,-30.000,-52.000,-4.500
0.890,-69.500,-29.500,-51.500,-2.500
0.891,-69.500,-29.000,-50.500,0.000
0.892,-69.500,-29.000,-50.500,2.500
0.893,-69.500,-28.500,-50.500,4.000
0.894,-70.000,-28.500,-51.000,6.000
0.895,-70.000,-28.000,-51.500,7.500
0.896,-70.500,-28.500,-52.500,8.500
0.897,-70.500,-29.000,-53.000,9.500
0.898,-71.500,-30.000,-54.500,10.000
0.899,-71.500,-31.000,-56.000,10.500
0.900,-72.500,-33.000,-58.000,10.500
0.901,-72.500,-35.000,-60.000,10.000
0.902,-73.500,-37.500,-62.500,9.000
0.903,-74.000,-40.000,-65.500,7.500
0.904,-75.000,-43.000,-68.500,5.500
0.905,-75.500,-45.500,-71.500,3.500
0.906,-76.500,-48.000,-75.000,1.000
0.907,-77.500,-50.000,-78.000,-1.500
0.908,-78.500,-52.000,-82.000,-4.500
0.909,-79.000,-53.500,-85.500,-7.500
0.910,-80.000,-55.500,-89.500,-11.500
0.911,-80.500,-57.000,-93.500,-16.000
0.912,-81.000,-59.000,-98.000,-21.500
0.913,-81.500,-60.000,-102.500,-27.500
0.914,-82.000,-61.500,-107.500,-35.000
0.915,-82.000,-62.500,-112.500,-42.000
0.916,-82.500,-63.500,-117.500,-50.000
0.917,-82.500,-64.500,-122.500,-57.500
0.918,-83.000,-66.000,-127.500,-65.000
0.919,-83.000,-67.000,-132.000,-71.000
0.920,-83.000,-68.000,-135.500,-76.500
0.921,-83.000,-68.500,-137.500,-80.000
0.922,-83.000,-69.000,-138.000,-83.000
0.923,-82.500,-69.000,-137.000,-84.000
0.924,-82.000,-68.000,-135.500,-84.500
0.925,-81.000,-66.500,-132.000,-84.000
0.926,-80.000,-64.500,-128.500,-83.000
0.927,-79.000,-62.000,-124.000,-81.500
0.928,-78.500,-59.500,-119.500,-80.000
0.929,-77.500,-56.500,-114.500,-77.500
0.930,-77.000,-54.000,-110.000,-75.500
0.931,-76.000,-50.500,-105.000,-72.500
0.932,-75.500,-48.000,-100.500,-70.000
0.933,-74.500,-45.000,-96.000,-66.500
0.934,-74.500,-42.000,-92.500,-64.000
0.935,-73.500,-39.500,-89.000,-61.000
0.936,-73.000,-37.000,-86.000,-58.500
0.937,-72.500,-35.000,-83.500,-56.000
0.938,-72.000,-34.000,-81.000,-54.000
0.939,-71.000,-32.500,-78.500,-51.500
0.940,-70.500,-32.000,-77.000,-50.000
0.941,-70.000,-31.500,-75.000,-47.500
0.942,-69.500,-31.500,-73.500,-46.000
0.943,-69.000,-31.500,-71.500,-44.000
0.944,-69.000,-31.500,-70.500,-42.500
0.945,-69.000,-31.500,-69.500,-41.000
0.946,-69.000,-32.000,-69.000,-39.500
0.947,-69.000,-32.000,-68.500,-38.000
0.948,-69.500,-32.500,-68.000,-37.000
0.949,-69.500,-32.000,-67.000,-35.000
0.950,-69.500,-32.000,-66.500,-33.500
0.951,-69.500,-31.000,-65.500,-31.500
0.952,-70.000,-30.500,-65.000,-30.000
0.953,-70.000,-29.500,-64.500,-28.000
0.954,-70.500,-29.000,-64.000,-26.000
0.955,-70.500,-28.500,-63.000,-24.000
0.956,-71.000,-28.000,-62.500,-22.500
0.957,-71.000,-27.500,-62.000,-21.000
0.958,-71.000,-27.500,-62.500,-20.500
0.959,-71.000,-27.000,-62.000,-19.000
0.960,-72.000,-27.500,-62.500,-18.500
0.961,-72.000,-28.000,-62.500,-17.500
0.962,-72.500,-28.500,-63.000,-17.000
0.963,-72.500,-29.000,-63.000,-16.500
0.964,-73.000,-30.000,-63.500,-16.500
0.965,-73.000,-31.000,-63.500,-16.500
0.966,-73.500,-32.000,-64.000,-17.000
0.967,-73.000,-32.500,-63.500,-17.000
0.968,-73.500,-33.000,-64.000,-17.500
0.969,-73.500,-33.500,-63.500,-17.000
0.970,-74.000,-33.500,-63.500,-17.500
0.971,-74.000,-32.500,-63.000,-17.500
0.972,-74.000,-32.000,-63.000,-17.500
0.973,-74.000,-31.000,-62.500,-17.000
0.974,-74.000,-30.000,-62.500,-16.500
0.975,-73.500,-29.000,-62.000,-16.000
0.976,-73.500,-28.500,-62.000,-15.500
0.977,-73.500,-27.500,-61.500,-15.000
0.978,-73.500,-27.500,-61.500,-14.500
0.979,-73.500,-27.500,-61.500,-14.000
0.980,-73.500,-27.500,-61.500,-13.500
0.981,-73.500,-27.500,-61.000,-13.000
0.982,-73.500,-28.000,-61.500,-13.000
0.983,-73.500,-28.000,-61.000,-12.500
0.984,-73.500,-28.500,-61.000,-12.000
0.985,-73.500,-28.500,-60.500,-11.500
0.986,-73.500,-29.000,-60.500,-11.500
0.987,-73.500,-29.000,-60.000,-11.000
0.988,-74.000,-29.000,-60.000,-11.000
0.989,-73.500,-29.000,-60.000,-11.000
0.990,-74.000,-29.000,-60.000,-11.000
0.991,-73.500,-29.000,-59.500,-10.500
0.992,-73.500,-29.000,-59.500,-11.000
0.993,-73.500,-28.500,-59.500,-11.000
0.994,-74.000,-29.000,-60.000,-11.000
0.995,-74.000,-29.500,-60.500,-11.500
0.996,-74.500,-30.000,-61.000,-12.000
0.997,-75.000,-30.000,-62.000,-12.500
0.998,-75.500,-31.000,-63.000,-13.000
0.999,-75.500,-31.500,-63.500,-13.500
1.000,-76.000,-32.000,-65.000,-14.500
1.001,-76.000,-32.500,-66.000,-15.500
1.002,-76.500,-33.500,-67.000,-16.500
1.003,-76.500,-33.500,-68.000,-17.000
1.004,-76.500,-34.500,-69.000,-18.000
1.005,-76.000,-34.500,-69.000,-18.500
1.006,-76.000,-35.000,-69.500,-19.500
1.007,-75.500,-35.000,-69.000,-19.500
1.008,-75.500,-34.500,-69.000,-19.500
1.009,-75.000,-34.000,-68.000,-18.500
1.010,-75.500,-33.000,-67.500,-18.000
1.011,-75.500,-32.000,-66.500,-17.500
1.012,-75.500,-31.000,-66.000,-16.500
1.013,-75.500,-29.500,-65.000,-15.500
1.014,-75.500,-28.500,-64.500,-15.000
1.015,-75.500,-27.500,-64.000,-14.000
1.016,-75.500,-26.500,-63.500,-14.000
1.017,-75.500,-25.500,-63.000,-13.500
1.018,-75.500,-25.000,-63.500,-13.000
1.019,-75.500,-24.500,-63.500,-13.000
1.020,-76.000,-25.000,-64.000,-13.000
1.021,-75.500,-25.000,-64.000,-13.000
1.022,-76.000,-26.000,-65.000,-13.000
1.023,-75.500,-26.500,-65.000,-13.000
1.024,-75.500,-27.500,-65.500,-13.500
1.025,-75.500,-28.000,-65.500,-14.000
1.026,-75.500,-28.500,-65.500,-14.500
1.027,-75.000,-28.500,-65.500,-14.500
1.028,-75.500,-29.000,-65.500,-15.000
1.029,-75.000,-28.500,-65.500,-15.500
1.030,-75.500,-28.500,-65.500,-15.500
1.031,-75.500,-28.000,-65.000,-15.500
1.032,-76.000,-27.500,-65.000,-16.000
1.033,-76.000,-26.500,-64.500,-15.500
1.034,-76.500,-26.500,-64.500,-15.500
1.035,-76.500,-26.000,-64.000,-15.500
1.036,-77.000,-25.500,-64.000,-15.000
1.037,-77.000,-25.000,-64.000,-14.500
1.038,-77.000,-25.000,-64.500,-14.500
1.039,-76.500,-24.500,-64.500,-14.500
1.040,-76.500,-25.000,-65.500,-15.000
1.041,-76.000,-25.000,-66.500,-15.000
1.042,-76.500,-26.000,-67.500,-15.500
1.043,-76.000,-26.500,-68.000,-15.500
1.044,-76.500,-27.500,-68.500,-16.000
1.045,-76.000,-28.000,-68.500,-16.500
1.046,-76.500,-29.000,-68.500,-17.000
1.047,-76.000,-29.000,-68.000,-17.000
1.048,-76.000,-29.500,-67.500,-17.000
1.049,-75.500,-29.500,-67.000,-17.000
1.050,-76.000,-29.500,-67.000,-17.000
1.051,-76.000,-29.000,-66.500,-16.500
1.052,-76.000,-28.500,-66.500,-16.000
1.053,-76.000,-27.500,-66.000,-15.500
1.054,-76.500,-26.500,-66.000,-15.500
1.055,-76.000,-25.500,-65.500,-15.500
1.056,-76.000,-25.000,-65.500,-15.500
1.057,-75.500,-24.500,-65.000,-15.000
1.058,-75.500,-24.500,-65.000,-15.000
1.059,-75.500,-24.000,-65.000,-14.500
1.060,-75.500,-24.500,-66.000,-14.500
1.061,-75.500,-24.500,-66.500,-14.500
1.062,-75.500,-25.500,-67.500,-15.500
1.063,-75.500,-26.000,-68.500,-16.000
1.064,-76.000,-26.500,-70.000,-17.000
1.065,-76.000,-27.000,-70.500,-17.500
1.066,-76.000,-28.000,-71.500,-18.000
1.067,-76.000,-28.500,-71.500,-18.500
1.068,-76.000,-29.000,-72.000,-18.500
1.069,-75.500,-29.000,-72.000,-18.500
1.070,-75.500,-29.000,-72.000,-18.500
1.071,-75.500,-28.500,-71.500,-18.000
1.072,-76.000,-28.500,-71.000,-18.000
1.073,-76.000,-27.500,-70.000,-17.500
1.074,-76.000,-27.000,-69.500,-17.000
1.075,-76.000,-26.000,-69.000,-16.500
1.076,-76.000,-25.500,-69.000,-16.500
1.077,-76.000,-25.000,-69.000,-16.500
1.078,-76.000,-25.000,-69.500,-16.500
1.079,-76.000,-25.000,-69.500,-16.500
1.080,-76.000,-26.000,-70.500,-17.000
1.081,-76.000,-26.500,-71.000,-17.500
1.082,-76.500,-27.500,-72.000,-18.500
1.083,-76.500,-28.000,-72.500,-19.000
1.084,-77.000,-28.500,-73.000,-20.000
1.085,-76.500,-29.000,-73.500,-20.500
1.086,-77.000,-30.000,-74.000,-21.000
1.087,-76.500,-30.000,-74.500,-21.500
1.088,-77.000,-30.500,-75.000,-22.000
1.089,-77.000,-30.000,-75.000,-22.000
1.090,-77.500,-30.000,-75.000,-22.500
1.091,-77.000,-29.500,-74.500,-22.500
1.092,-77.500,-29.000,-74.500,-22.500
1.093,-77.000,-28.500,-74.500,-22.500
1.094,-77.500,-28.000,-74.500,-22.500
1.095,-77.000,-27.500,-74.500,-22.500
1.096,-77.500,-27.000,-75.500,-23.000
1.097,-77.000,-26.500,-75.500,-23.000
1.098,-77.500,-27.000,-76.500,-23.500
1.099,-77.000,-27.000,-76.500,-23.500
1.100,-77.000,-27.500,-77.500,-24.000
1.101,-76.500,-28.000,-78.000,-24.000
1.102,-76.500,-29.000,-79.000,-25.000
1.103,-76.500,-29.500,-79.500,-25.500
1.104,-76.500,-30.500,-80.500,-26.500
1.105,-76.500,-31.000,-81.000,-27.000
1.106,-77.000,-32.000,-81.500,-27.500
1.107,-77.000,-32.000,-81.500,-28.000
1.108,-77.500,-32.000,-82.000,-28.500
1.109,-77.500,-32.000,-82.000,-28.500
1.110,-78.000,-32.000,-82.500,-29.000
1.111,-78.000,-31.500,-82.000,-29.000
1.112,-79.000,-31.000,-82.000,-29.000
1.113,-79.000,-30.500,-82.000,-28.500
1.114,-79.500,-30.000,-82.000,-28.500
1.115,-79.000,-29.500,-81.500,-28.000
1.116,-79.000,-29.500,-81.500,-28.000
1.117,-78.500,-29.000,-81.500,-28.000
1.118,-78.500,-29.000,-82.000,-28.000
1.119,-78.000,-29.000,-82.500,-28.000
1.120,-78.500,-29.500,-83.000,-28.500
1.121,-78.500,-30.000,-83.500,-29.000
1.122,-78.500,-30.500,-84.500,-29.500
1.123,-78.500,-31.500,-85.000,-29.500
1.124,-79.000,-32.500,-86.000,-30.500
1.125,-79.000,-33.000,-86.000,-31.000
1.126,-79.500,-33.500,-86.500,-31.500
1.127,-79.500,-34.000,-87.000,-31.500
1.128,-80.000,-34.000,-87.500,-32.000
1.129,-80.000,-34.000,-87.500,-32.000
1.130,-80.000,-34.000,-88.000,-32.000
1.131,-80.000,-33.500,-88.000,-31.500
1.132,-80.000,-33.000,-88.000,-31.500
1.133,-80.000,-32.500,-87.500,-31.000
1.134,-80.500,-32.000,-87.500,-31.500
1.135,-80.500,-31.500,-87.500,-31.000
1.136,-80.500,-31.000,-88.500,-31.500
1.137,-80.500,-30.000,-89.000,-31.500
1.138,-81.000,-30.000,-89.500,-31.500
1.139,-80.500,-30.000,-90.000,-31.500
1.140,-81.000,-30.500,-91.000,-32.000
1.141,-80.500,-31.000,-91.000,-32.000
1.142,-81.000,-32.000,-91.500,-32.500
1.143,-81.000,-32.500,-91.000,-32.000
1.144,-81.500,-33.500,-91.000,-32.500
1.145,-81.500,-34.000,-90.500,-32.500
1.146,-81.500,-34.500,-90.000,-32.500
1.147,-81.500,-34.500,-89.500,-32.000
1.148,-81.500,-34.500,-89.000,-31.500
1.149,-81.000,-34.500,-88.500,-31.000
1.150,-80.500,-34.000,-88.000,-30.500
1.151,-80.000,-33.500,-87.500,-29.500
1.152,-80.500,-32.500,-87.500,-29.000
1.153,-80.500,-31.500,-86.500,-27.500
1.154,-80.500,-30.000,-86.000,-27.000
1.155,-80.500,-29.000,-85.000,-25.500
1.156,-81.000,-28.000,-85.000,-25.000
1.157,-80.500,-27.000,-84.000,-23.500
1.158,-81.000,-26.500,-84.000,-23.000
1.159,-80.500,-26.500,-84.000,-22.000
1.160,-80.500,-27.000,-84.000,-21.500
1.161,-80.000,-27.000,-84.000,-21.000
1.162,-80.000,-28.000,-84.000,-20.500
1.163,-79.500,-29.000,-83.500,-20.000
1.164,-80.000,-29.500,-83.000,-20.000
1.165,-80.000,-30.000,-82.500,-19.500
1.166,-80.000,-30.500,-82.000,-19.000
1.167,-80.000,-30.500,-81.000,-18.000
1.168,-80.500,-30.500,-80.500,-18.000
1.169,-80.000,-30.000,-79.500,-17.000
1.170,-80.000,-29.500,-79.500,-16.500
1.171,-80.000,-28.000,-78.500,-16.000
1.172,-80.000,-27.500,-78.000,-15.500
1.173,-80.000,-26.000,-77.000,-14.500
1.174,-80.000,-25.500,-76.500,-14.000
1.175,-80.000,-24.000,-75.500,-13.000
1.176,-80.000,-23.500,-75.000,-12.500
1.177,-79.500,-23.000,-74.500,-12.000
1.178,-79.500,-23.000,-74.500,-11.500
1.179,-79.000,-22.500,-74.000,-11.000
1.180,-79.000,-23.000,-74.000,-11.500
1.181,-79.000,-23.000,-74.000,-11.500
1.182,-79.000,-24.000,-74.000,-12.000
1.183,-78.500,-24.500,-73.500,-12.500
1.184,-78.500,-25.000,-73.500,-13.000
1.185,-78.500,-25.500,-73.500,-13.000
1.186,-78.500,-26.000,-73.500,-13.500
1.187,-78.000,-26.000,-73.000,-14.000
1.188,-78.000,-26.000,-73.500,-14.500
1.189,-78.000,-26.000,-73.000,-14.500
1.190,-78.000,-25.500,-72.500,-14.500
1.191,-77.500,-24.500,-72.000,-14.500
1.192,-78.000,-24.000,-71.500,-14.500
1.193,-77.500,-22.500,-70.500,-14.000
1.194,-77.500,-21.500,-70.000,-13.500
1.195,-77.500,-20.500,-69.000,-13.000
1.196,-77.500,-19.500,-69.000,-13.000
1.197,-77.000,-19.000,-69.000,-13.000
1.198,-77.500,-19.000,-69.500,-13.000
1.199,-77.500,-19.000,-69.500,-13.500
1.200,-78.000,-19.500,-70.500,-14.000
1.201,-78.000,-20.500,-71.500,-14.000
1.202,-78.500,-22.000,-72.500,-15.000
1.203,-78.500,-23.500,-73.000,-15.500
1.204,-78.500,-25.000,-73.500,-16.000
1.205,-78.000,-26.000,-73.500,-16.000
1.206,-78.000,-27.000,-74.000,-16.000
1.207,-77.500,-27.500,-73.500,-16.000
1.208,-77.500,-27.500,-73.500,-16.000
1.209,-77.000,-27.000,-73.500,-16.000
1.210,-77.000,-26.500,-73.500,-16.000
1.211,-77.000,-25.500,-73.500,-15.500
1.212,-77.000,-24.500,-74.000,-16.000
1.213,-77.000,-23.000,-74.000,-16.000
1.214,-77.500,-22.500,-74.500,-16.500
1.215,-77.500,-21.500,-74.500,-16.500
1.216,-78.000,-20.500,-74.500,-16.500
1.217,-78.000,-20.000,-74.000,-16.500
1.218,-78.000,-19.500,-73.500,-16.500
1.219,-77.500,-19.500,-73.000,-16.500
1.220,-77.000,-19.500,-73.500,-17.000
1.221,-76.500,-19.500,-73.500,-17.500
1.222,-77.000,-20.000,-74.000,-18.000
1.223,-77.000,-20.500,-74.500,-18.000
1.224,-77.500,-21.000,-75.000,-18.500
1.225,-77.500,-21.500,-75.000,-19.000
1.226,-77.500,-22.000,-75.000,-19.500
1.227,-77.500,-22.500,-74.500,-19.500
1.228,-77.500,-22.500,-74.500,-19.500
1.229,-77.500,-22.500,-74.000,-19.000
1.230,-77.500,-22.000,-73.500,-19.000
1.231,-77.000,-21.500,-73.000,-18.500
1.232,-77.000,-21.000,-73.000,-18.500
1.233,-77.000,-20.500,-72.500,-18.000
1.234,-77.000,-19.500,-72.000,-17.500
1.235,-77.000,-18.500,-71.500,-17.000
1.236,-77.000,-18.500,-71.000,-17.000
1.237,-77.000,-18.000,-70.500,-16.500
1.238,-77.500,-18.000,-70.500,-16.500
1.239,-77.000,-17.500,-70.000,-16.500
1.240,-77.500,-18.000,-70.500,-17.000
1.241,-77.000,-18.000,-70.500,-17.000
1.242,-77.500,-18.500,-71.000,-17.000
1.243,-77.500,-19.000,-71.500,-17.000
1.244,-77.500,-19.500,-72.000,-17.500
1.245,-77.500,-20.000,-72.500,-17.500
1.246,-78.000,-20.500,-73.000,-18.000
1.247,-77.500,-20.500,-73.000,-17.500
1.248,-78.000,-20.500,-73.500,-18.000
1.249,-77.500,-20.500,-73.000,-17.500
1.250,-77.500,-20.500,-73.000,-18.000
1.251,-77.000,-20.000,-72.500,-17.500
1.252,-77.000,-19.500,-72.500,-17.500
1.253,-77.000,-18.500,-72.500,-17.000
1.254,-77.500,-18.000,-72.500,-17.000
1.255,-77.500,-17.000,-72.000,-17.000
1.256,-78.000,-16.500,-72.500,-17.000
1.257,-78.000,-16.000,-72.500,-17.000
1.258,-78.500,-16.000,-73.000,-17.500
1.259,-78.000,-16.000,-73.000,-17.500
1.260,-78.500,-16.000,-73.500,-18.000
1.261,-78.000,-16.500,-74.000,-18.000
1.262,-78.000,-17.000,-74.500,-18.500
1.263,-77.500,-17.500,-74.500,-18.500
1.264,-77.500,-18.500,-74.500,-18.500
1.265,-77.000,-19.000,-74.500,-18.500
1.266,-77.500,-19.500,-74.500,-19.000
1.267,-77.000,-19.500,-74.000,-19.500
1.268,-77.000,-19.500,-74.000,-19.500
1.269,-76.500,-19.500,-73.500,-19.500
1.270,-76.500,-19.000,-73.500,-19.500
1.271,-76.500,-18.500,-73.000,-19.000
1.272,-76.500,-18.000,-73.000,-19.000
1.273,-76.500,-17.000,-72.500,-18.500
1.274,-77.000,-16.500,-72.500,-18.000
1.275,-77.500,-15.500,-72.000,-17.500
1.276,-77.500,-15.000,-72.000,-17.500
1.277,-77.500,-14.500,-72.000,-17.500
1.278,-77.500,-14.000,-72.000,-17.500
1.279,-77.000,-13.500,-72.000,-17.500
1.280,-77.000,-14.000,-72.500,-17.500
1.281,-76.500,-14.000,-72.500,-17.500
1.282,-77.000,-14.500,-73.000,-18.000
1.283,-77.000,-15.000,-73.000,-18.000
1.284,-77.500,-16.000,-74.000,-18.500
1.285,-77.500,-16.500,-74.000,-18.500
1.286,-77.500,-17.500,-74.500,-19.000
1.287,-77.500,-18.000,-74.000,-19.000
1.288,-77.500,-18.500,-74.500,-19.500
1.289,-77.000,-18.500,-74.000,-19.500
1.290,-77.000,-18.500,-74.000,-19.500
1.291,-76.500,-18.000,-73.500,-19.000
1.292,-76.500,-18.000,-73.500,-18.500
1.293,-76.500,-17.000,-73.000,-18.000
1.294,-76.500,-16.500,-73.000,-18.000
1.295,-76.000,-15.500,-72.500,-17.500
1.296,-76.500,-15.500,-73.000,-17.000
1.297,-76.500,-15.000,-73.000,-16.500
1.298,-77.000,-15.000,-73.000,-16.500
1.299,-77.000,-14.500,-73.000,-16.000
1.300,-77.500,-15.000,-73.000,-16.000
1.301,-77.500,-15.500,-73.000,-16.000
1.302,-78.000,-16.500,-73.500,-16.500
1.303,-78.000,-17.500,-74.000,-16.500
1.304,-78.500,-18.500,-74.500,-17.000
1.305,-78.000,-19.500,-75.000,-17.500
1.306,-78.500,-20.000,-75.500,-18.000
1.307,-78.000,-20.500,-76.000,-18.000
1.308,-78.500,-20.500,-76.500,-18.500
1.309,-78.000,-20.500,-76.500,-18.500
1.310,-78.000,-20.500,-76.500,-18.500
1.311,-78.000,-19.500,-76.500,-18.500
1.312,-78.500,-19.000,-76.500,-18.500
1.313,-78.000,-18.000,-76.000,-18.000
1.314,-78.500,-17.500,-75.500,-18.000
1.315,-78.000,-16.500,-75.000,-17.000
1.316,-78.500,-16.000,-75.000,-16.500
1.317,-78.000,-15.000,-74.500,-16.000
1.318,-78.000,-15.000,-74.500,-15.500
1.319,-77.500,-14.500,-74.500,-15.500
1.320,-77.500,-14.500,-74.500,-15.500
1.321,-77.500,-15.000,-74.500,-15.000
1.322,-77.500,-15.500,-74.500,-15.500
1.323,-77.000,-16.000,-74.500,-15.500
1.324,-77.000,-17.000,-74.500,-16.000
1.325,-77.000,-17.500,-74.500,-16.500
1.326,-77.000,-18.500,-75.000,-17.000
1.327,-77.000,-18.500,-75.000,-17.500
1.328,-77.500,-19.000,-75.500,-18.500
1.329,-77.500,-18.500,-75.500,-18.500
1.330,-78.000,-18.500,-76.000,-19.000
1.331,-77.500,-18.000,-76.000,-18.500
1.332,-78.000,-17.500,-76.000,-18.500
1.333,-77.500,-16.500,-75.500,-18.500
1.334,-77.500,-16.000,-75.500,-18.000
1.335,-77.500,-15.000,-75.000,-17.500
1.336,-77.500,-14.500,-75.000,-17.500
1.337,-77.500,-14.000,-74.500,-17.500
1.338,-78.000,-13.500,-74.500,-17.500
1.339,-77.500,-13.000,-74.500,-17.500
1.340,-78.000,-13.000,-74.500,-18.000
1.341,-77.500,-13.000,-74.500,-18.000
1.342,-78.000,-14.000,-75.000,-18.500
1.343,-77.500,-14.500,-75.500,-18.500
1.344,-78.000,-15.500,-76.000,-19.000
1.345,-78.000,-16.000,-76.500,-19.000
1.346,-78.000,-17.000,-77.000,-19.500
1.347,-78.000,-17.000,-77.000,-19.000
1.348,-78.500,-17.500,-77.500,-19.000
1.349,-78.000,-17.000,-77.000,-18.500
1.350,-78.500,-17.000,-76.500,-18.500
1.351,-78.000,-16.500,-75.500,-18.000
1.352,-78.500,-16.000,-75.000,-18.000
1.353,-78.500,-15.500,-74.500,-18.000
1.354,-79.000,-14.500,-74.000,-18.000
1.355,-79.000,-13.500,-73.500,-17.500
1.356,-79.000,-13.000,-73.500,-17.500
1.357,-78.500,-12.500,-73.500,-17.000
1.358,-78.500,-12.500,-74.000,-17.000
1.359,-78.500,-12.000,-74.000,-17.000
1.360,-78.500,-12.500,-74.500,-17.500
1.361,-78.500,-12.500,-75.000,-17.500
1.362,-79.000,-13.500,-75.500,-18.000
1.363,-79.000,-14.000,-75.500,-18.000
1.364,-79.000,-14.500,-75.500,-19.000
1.365,-79.000,-14.500,-75.500,-19.000
1.366,-79.000,-15.000,-75.500,-19.500
1.367,-79.000,-15.500,-75.500,-19.500
1.368,-79.000,-15.500,-75.500,-19.500
1.369,-78.500,-15.500,-75.000,-19.000
1.370,-79.000,-15.000,-75.000,-19.000
1.371,-78.500,-14.500,-74.500,-19.000
1.372,-78.500,-14.000,-74.500,-19.000
1.373,-78.500,-13.500,-74.000,-18.500
1.374,-78.500,-12.500,-74.000,-18.500
1.375,-78.000,-11.500,-73.500,-18.000
1.376,-78.500,-11.000,-73.000,-18.000
1.377,-78.000,-10.500,-72.500,-17.500
1.378,-78.000,-10.500,-72.500,-17.500
1.379,-77.500,-10.000,-72.000,-17.000
1.380,-77.500,-10.500,-72.000,-17.000
1.381,-77.500,-10.500,-71.500,-16.500
1.382,-77.500,-11.500,-71.500,-16.500
1.383,-77.000,-12.000,-71.500,-16.000
1.384,-77.500,-12.500,-71.500,-16.000
1.385,-77.500,-12.500,-71.500,-15.500
1.386,-77.500,-13.000,-71.000,-16.000
1.387,-77.500,-13.500,-70.500,-15.500
1.388,-78.000,-13.500,-70.500,-15.500
1.389,-78.000,-13.500,-70.000,-15.500
1.390,-78.500,-14.000,-70.000,-15.500
1.391,-78.500,-14.000,-70.500,-15.500
1.392,-79.000,-14.000,-71.000,-16.000
1.393,-79.000,-14.000,-72.000,-16.500
1.394,-79.500,-14.000,-73.000,-17.000
1.395,-79.500,-14.000,-73.500,-17.500
1.396,-79.500,-14.500,-74.500,-18.500
1.397,-79.500,-15.000,-75.500,-19.000
1.398,-80.000,-16.000,-76.500,-19.500
1.399,-80.000,-16.500,-77.000,-20.000
1.400,-80.000,-17.500,-77.500,-21.000
1.401,-80.000,-18.000,-78.000,-21.500
1.402,-80.500,-19.500,-79.000,-22.000
1.403,-80.000,-20.000,-79.000,-22.500
1.404,-80.000,-20.500,-79.500,-23.000
1.405,-79.500,-21.000,-79.500,-23.500
1.406,-79.500,-21.000,-80.000,-24.000
1.407,-79.000,-21.000,-79.500,-24.000
1.408,-79.000,-20.500,-79.000,-24.000
1.409,-78.500,-20.000,-78.000,-24.000
1.410,-78.500,-19.000,-77.000,-23.500
1.411,-78.500,-18.000,-75.500,-23.000
1.412,-78.500,-17.000,-74.500,-22.000
1.413,-78.000,-15.000,-73.500,-21.000
1.414,-78.000,-13.500,-73.000,-20.500
1.415,-78.000,-12.000,-72.500,-20.000
1.416,-78.000,-11.000,-72.500,-19.500
1.417,-78.000,-10.000,-72.000,-19.500
1.418,-78.500,-10.000,-72.500,-19.500
1.419,-78.500,-9.500,-72.500,-19.500
1.420,-78.500,-10.000,-73.500,-20.000
1.421,-78.500,-10.500,-73.500,-20.000
1.422,-78.500,-11.500,-74.500,-20.500
1.423,-78.500,-12.000,-74.500,-20.000
1.424,-78.500,-13.000,-75.000,-20.000
1.425,-78.500,-13.500,-74.500,-20.000
1.426,-78.500,-14.000,-75.000,-20.000
1.427,-78.500,-14.500,-74.500,-20.000
1.428,-78.500,-14.500,-74.500,-20.000
1.429,-78.000,-14.500,-74.000,-20.000
1.430,-78.500,-14.500,-74.000,-20.000
1.431,-78.000,-14.000,-73.500,-19.500
1.432,-78.500,-13.500,-73.500,-19.000
1.433,-78.000,-12.500,-73.000,-18.500
1.434,-78.500,-12.000,-72.500,-18.000
1.435,-78.000,-11.500,-72.000,-17.500
1.436,-78.500,-11.000,-72.000,-17.500
1.437,-78.000,-10.500,-72.000,-17.500
1.438,-78.000,-10.500,-72.500,-17.500
1.439,-78.000,-10.500,-72.500,-17.500
1.440,-78.500,-10.500,-73.000,-18.000
1.441,-78.500,-11.000,-73.000,-18.000
1.442,-78.500,-11.500,-73.500,-18.500
1.443,-78.500,-12.500,-73.500,-18.500
1.444,-78.500,-13.500,-73.500,-19.000
1.445,-78.000,-14.000,-73.500,-19.000
1.446,-78.500,-14.500,-73.500,-19.000
1.447,-78.000,-15.000,-73.000,-19.500
1.448,-78.000,-15.500,-73.500,-20.000
1.449,-78.000,-15.500,-73.000,-20.000
1.450,-78.000,-15.000,-73.500,-20.500
1.451,-78.000,-14.500,-73.000,-20.500
1.452,-78.500,-14.000,-73.000,-20.500
1.453,-78.500,-13.500,-73.000,-20.500
1.454,-78.500,-13.000,-73.000,-20.000
1.455,-78.500,-12.000,-72.500,-20.000
1.456,-79.000,-12.000,-73.000,-20.000
1.457,-79.500,-11.500,-73.000,-19.500
1.458,-79.500,-11.500,-73.000,-19.500
1.459,-79.500,-11.000,-73.000,-19.500
1.460,-79.500,-11.000,-73.500,-19.500
1.461,-79.500,-11.000,-73.000,-19.500
1.462,-80.000,-12.000,-73.500,-19.000
1.463,-79.500,-12.500,-73.500,-19.000
1.464,-80.000,-13.000,-74.000,-19.000
1.465,-79.500,-13.500,-74.000,-19.000
1.466,-80.000,-14.500,-74.000,-19.000
1.467,-79.500,-14.500,-74.000,-19.000
1.468,-79.000,-15.000,-74.000,-19.000
1.469,-78.500,-14.500,-73.500,-18.500
1.470,-79.000,-14.000,-73.000,-18.500
1.471,-79.000,-13.500,-72.500,-18.000
1.472,-79.000,-12.500,-72.000,-17.500
1.473,-79.000,-11.500,-71.500,-17.000
1.474,-79.500,-11.000,-71.000,-17.000
1.475,-79.000,-10.000,-70.500,-16.500
1.476,-79.500,-9.500,-70.500,-16.000
1.477,-79.000,-9.500,-70.000,-15.500
1.478,-79.500,-9.500,-70.500,-15.500
1.479,-79.000,-9.500,-70.500,-15.500
1.480,-79.000,-10.500,-70.500,-15.500
1.481,-78.500,-11.000,-70.500,-15.000
1.482,-78.500,-12.000,-70.500,-15.000
1.483,-78.500,-13.000,-70.500,-15.000
1.484,-78.500,-14.000,-71.000,-15.500
1.485,-78.000,-14.500,-71.000,-15.500
1.486,-78.500,-15.500,-71.500,-16.000
1.487,-78.500,-15.500,-71.500,-16.000
1.488,-78.500,-16.000,-71.500,-16.000
1.489,-78.500,-15.500,-71.500,-15.500
1.490,-78.500,-15.500,-71.500,-16.000
1.491,-78.500,-15.000,-71.500,-15.500
1.492,-78.500,-15.000,-71.500,-15.500
1.493,-78.000,-14.000,-71.000,-15.000
1.494,-78.500,-13.500,-71.500,-15.000
1.495,-78.500,-12.500,-71.000,-15.000
1.496,-79.000,-12.000,-71.500,-15.000
1.497,-79.000,-11.500,-71.500,-14.500
1.498,-79.000,-11.000,-71.500,-14.500
1.499,-79.000,-10.500,-71.500,-14.000
1.500,-79.000,-11.000,-72.000,-14.000
1.501,-78.500,-11.000,-72.000,-14.000
1.502,-79.000,-11.500,-72.500,-14.000
1.503,-79.000,-12.000,-72.500,-14.000
1.504,-79.500,-12.500,-73.000,-14.000
1.505,-79.500,-13.000,-73.000,-14.500
1.506,-80.000,-13.500,-73.500,-15.000
1.507,-80.000,-13.500,-73.500,-15.500
1.508,-80.000,-14.000,-74.000,-16.500
1.509,-80.000,-14.500,-74.500,-16.500
1.510,-80.000,-15.000,-75.000,-17.000
1.511,-80.000,-15.000,-75.000,-17.000
1.512,-80.500,-15.500,-75.500,-17.500
1.513,-80.000,-15.000,-75.500,-17.500
1.514,-80.500,-15.000,-76.000,-18.000
1.515,-80.000,-14.500,-75.500,-17.500
1.516,-80.500,-14.000,-75.500,-18.000
1.517,-80.000,-13.000,-75.500,-18.000
1.518,-80.500,-13.000,-75.500,-18.000
1.519,-80.000,-12.500,-75.000,-18.000
1.520,-80.000,-13.000,-75.500,-18.500
1.521,-80.000,-13.500,-75.500,-19.000
1.522,-80.000,-14.500,-76.000,-19.500
1.523,-79.500,-15.000,-76.000,-20.000
1.524,-80.000,-16.000,-76.000,-20.000
1.525,-79.500,-16.000,-76.000,-20.000
1.526,-79.500,-16.500,-76.000,-20.500
1.527,-79.500,-16.500,-75.500,-20.500
1.528,-79.500,-16.500,-75.500,-20.500
1.529,-79.500,-16.500,-75.000,-20.000
1.530,-79.500,-16.000,-74.500,-20.000
1.531,-79.500,-15.500,-74.000,-19.500
1.532,-79.500,-15.000,-73.500,-19.000
1.533,-79.500,-14.500,-73.000,-18.500
1.534,-79.500,-14.000,-72.500,-18.000
1.535,-79.000,-13.500,-71.500,-17.500
1.536,-79.000,-13.000,-71.500,-17.000
1.537,-78.500,-13.000,-71.000,-16.500
1.538,-79.000,-13.000,-71.000,-16.500
1.539,-78.500,-13.500,-71.000,-16.500
1.540,-79.000,-14.000,-71.500,-17.000
1.541,-79.000,-15.000,-72.000,-17.000
1.542,-79.500,-16.000,-73.000,-18.000
1.543,-79.500,-16.500,-73.000,-18.500
1.544,-79.500,-17.500,-74.000,-19.000
1.545,-79.500,-17.500,-74.000,-19.500
1.546,-79.500,-18.000,-74.500,-20.000
1.547,-79.000,-18.000,-74.000,-20.000
1.548,-79.000,-18.000,-74.000,-20.500
1.549,-78.500,-17.500,-73.500,-20.500
1.550,-78.500,-17.000,-73.500,-20.500
1.551,-78.000,-16.000,-73.000,-20.500
1.552,-78.000,-15.000,-73.000,-20.500
1.553,-77.500,-14.000,-72.500,-20.000
1.554,-78.000,-13.500,-72.500,-19.500
1.555,-78.000,-12.500,-72.000,-19.000
1.556,-78.000,-12.000,-72.000,-18.500
1.557,-78.000,-11.500,-71.500,-18.000
1.558,-78.500,-11.500,-71.500,-18.000
1.559,-78.000,-11.500,-71.500,-17.500
1.560,-78.500,-12.000,-72.000,-17.500
1.561,-78.500,-12.500,-72.000,-17.500
1.562,-78.500,-13.000,-72.500,-18.000
1.563,-78.500,-13.500,-73.000,-18.000
1.564,-78.500,-14.500,-73.500,-18.500
1.565,-78.500,-15.000,-74.000,-19.000
1.566,-78.500,-15.500,-74.000,-19.500
1.567,-78.000,-15.500,-74.000,-19.500
1.568,-78.000,-16.000,-73.500,-19.500
1.569,-78.000,-15.500,-73.000,-19.500
1.570,-78.000,-15.500,-72.500,-19.500
1.571,-77.500,-14.500,-72.000,-19.500
1.572,-77.500,-14.000,-71.500,-19.000
1.573,-77.500,-13.000,-70.500,-18.500
1.574,-78.000,-12.500,-70.000,-18.000
1.575,-78.000,-12.000,-69.500,-17.500
1.576,-78.500,-12.000,-69.500,-17.000
1.577,-78.000,-11.500,-68.500,-16.000
1.578,-78.500,-11.500,-68.500,-15.500
1.579,-78.000,-11.500,-67.500,-14.500
1.580,-78.000,-11.500,-67.000,-13.500
1.581,-77.500,-11.500,-66.000,-12.000
1.582,-77.500,-11.500,-65.000,-10.500
1.583,-76.500,-11.500,-63.500,-8.500
1.584,-76.500,-12.000,-63.000,-7.000
1.585,-76.500,-12.000,-62.000,-5.000
1.586,-76.500,-13.000,-61.500,-3.500
1.587,-76.500,-13.500,-61.000,-2.000
1.588,-77.000,-14.000,-61.500,-0.500
1.589,-77.000,-14.000,-62.000,1.000
1.590,-77.500,-14.500,-63.000,2.000
1.591,-78.000,-14.500,-63.500,3.000
1.592,-78.500,-14.500,-65.000,4.500
1.593,-79.000,-14.500,-65.500,5.500
1.594,-80.000,-15.000,-67.000,7.000
1.595,-80.500,-15.500,-68.000,7.500
1.596,-81.500,-16.500,-69.500,8.000
1.597,-81.500,-17.000,-71.000,8.000
1.598,-82.500,-18.500,-73.500,8.000
1.599,-83.000,-20.500,-76.000,7.000
1.600,-84.000,-22.500,-79.500,5.500
1.601,-84.500,-25.000,-83.000,3.500
1.602,-85.500,-28.000,-87.000,1.000
1.603,-85.500,-31.000,-90.500,-2.000
1.604,-86.500,-34.500,-95.000,-5.500
1.605,-86.500,-37.500,-99.500,-10.000
1.606,-87.000,-41.000,-104.500,-15.000
1.607,-87.500,-43.500,-109.000,-21.000
1.608,-88.000,-46.000,-114.500,-28.000
1.609,-88.000,-47.500,-120.000,-35.500
1.610,-88.500,-49.000,-125.500,-43.500
1.611,-89.000,-50.000,-130.500,-51.000
1.612,-89.500,-51.000,-135.500,-59.500
1.613,-89.500,-51.000,-139.500,-66.500
1.614,-90.000,-51.500,-143.500,-73.500
1.615,-90.000,-51.000,-145.500,-78.500
1.616,-90.500,-50.500,-147.000,-82.500
1.617,-90.000,-49.000,-147.000,-85.000
1.618,-89.500,-47.500,-145.500,-86.000
1.619,-88.500,-45.500,-143.000,-86.000
1.620,-88.000,-44.000,-139.500,-85.500
1.621,-86.500,-42.000,-135.500,-84.000
1.622,-85.500,-40.000,-131.500,-82.500
1.623,-84.000,-38.500,-127.000,-80.500
1.624,-83.000,-37.000,-123.000,-79.000
1.625,-81.500,-35.000,-119.000,-76.500
1.626,-81.000,-33.500,-115.000,-74.000
1.627,-80.000,-31.000,-111.000,-71.000
1.628,-79.500,-29.000,-107.000,-68.000
1.629,-78.500,-26.500,-103.000,-65.000
1.630,-78.000,-24.500,-99.500,-62.500
1.631,-77.500,-22.000,-96.000,-60.000
1.632,-77.000,-20.000,-93.500,-57.500
1.633,-76.500,-18.000,-90.500,-55.500
1.634,-76.500,-16.000,-88.000,-53.500
1.635,-76.000,-14.000,-85.500,-51.000
1.636,-76.000,-12.500,-83.500,-49.000
1.637,-76.000,-11.000,-81.000,-47.000
1.638,-76.000,-10.000,-79.500,-45.000
1.639,-75.500,-9.500,-77.500,-42.500
1.640,-76.000,-9.500,-76.000,-41.000
1.641,-75.500,-9.500,-74.500,-38.500
1.642,-75.500,-10.000,-74.000,-36.500
1.643,-75.500,-10.500,-73.000,-34.500
1.644,-76.000,-11.500,-72.500,-33.000
1.645,-76.000,-12.000,-71.500,-31.500
1.646,-76.000,-13.000,-71.500,-30.000
1.647,-76.000,-13.000,-71.500,-29.000
1.648,-76.000,-13.500,-71.500,-28.000
1.649,-75.500,-13.500,-71.000,-26.500
1.650,-75.500,-13.000,-71.000,-25.500
1.651,-75.500,-12.500,-70.500,-24.000
1.652,-75.500,-12.000,-70.500,-23.000
1.653,-75.500,-11.000,-70.000,-21.500
1.654,-75.500,-10.500,-69.500,-20.000
1.655,-75.500,-9.500,-69.000,-18.500
1.656,-76.000,-9.500,-69.000,-17.500
1.657,-76.000,-9.000,-69.000,-16.500
1.658,-76.000,-9.000,-69.000,-16.500
1.659,-76.000,-9.000,-69.000,-16.000
1.660,-76.500,-10.000,-69.500,-16.000
1.661,-76.000,-10.500,-70.000,-15.500
1.662,-76.500,-11.500,-70.500,-16.000
1.663,-76.000,-12.000,-70.500,-15.500
1.664,-76.500,-13.000,-71.500,-16.000
1.665,-76.000,-14.000,-71.500,-15.500
1.666,-76.000,-14.500,-72.000,-16.000
1.667,-76.000,-14.500,-72.000,-16.000
1.668,-76.000,-14.500,-72.500,-16.000
1.669,-75.500,-14.500,-72.500,-16.500
1.670,-75.500,-14.500,-72.500,-16.500
1.671,-75.500,-14.000,-72.000,-16.500
1.672,-75.500,-14.000,-72.000,-16.000
1.673,-75.500,-13.000,-71.000,-15.500
1.674,-75.500,-13.000,-71.000,-14.500
1.675,-75.000,-12.000,-70.000,-14.000
1.676,-75.500,-12.000,-70.000,-13.500
1.677,-75.500,-11.500,-69.500,-12.500
1.678,-75.500,-11.500,-69.500,-12.500
1.679,-75.500,-11.500,-69.000,-12.000
1.680,-75.500,-12.000,-69.500,-12.000
1.681,-75.500,-12.500,-70.000,-12.000
1.682,-75.500,-13.000,-70.500,-12.000
1.683,-75.500,-13.500,-71.000,-12.000
1.684,-75.500,-14.500,-71.500,-12.500
1.685,-75.500,-15.500,-71.500,-13.000
1.686,-76.000,-16.500,-72.000,-13.500
1.687,-76.000,-17.000,-72.000,-13.500
1.688,-76.000,-17.500,-72.000,-14.000
1.689,-76.000,-18.000,-71.000,-14.000
1.690,-76.000,-18.000,-71.000,-14.500
1.691,-76.000,-17.500,-70.000,-14.500
1.692,-76.000,-17.000,-70.000,-14.500
1.693,-76.000,-16.500,-70.000,-14.000
1.694,-76.000,-16.000,-70.000,-14.000
1.695,-75.500,-15.500,-69.500,-13.500
1.696,-75.500,-15.500,-70.000,-13.500
1.697,-75.500,-15.000,-70.000,-13.500
1.698,-75.500,-15.500,-70.000,-13.500
1.699,-75.500,-15.500,-70.000,-13.500
1.700,-76.000,-15.500,-70.500,-14.000
1.701,-76.000,-15.500,-71.000,-14.500
1.702,-76.000,-16.500,-71.500,-15.000
1.703,-76.000,-17.000,-71.500,-15.500
1.704,-76.000,-18.000,-72.000,-15.500
1.705,-75.500,-18.500,-71.500,-15.500
1.706,-75.500,-19.000,-72.000,-16.000
1.707,-75.500,-19.000,-71.500,-15.500
1.708,-76.000,-19.500,-71.500,-16.000
1.709,-76.000,-19.500,-71.000,-16.000
1.710,-76.000,-19.500,-71.000,-16.000
1.711,-76.000,-19.500,-70.500,-15.500
1.712,-76.500,-19.000,-70.500,-15.500
1.713,-76.500,-18.500,-70.000,-15.000
1.714,-76.500,-18.000,-69.500,-15.000
1.715,-76.500,-17.000,-69.000,-14.500
1.716,-76.500,-16.500,-69.000,-14.000
1.717,-76.500,-16.000,-69.000,-13.500
1.718,-76.500,-16.000,-69.500,-14.000
1.719,-76.000,-16.000,-69.500,-14.000
1.720,-76.500,-16.500,-70.000,-14.000
1.721,-76.000,-17.000,-70.500,-14.000
1.722,-76.500,-17.500,-71.000,-14.500
1.723,-76.500,-18.000,-71.000,-15.000
1.724,-76.500,-19.000,-71.500,-15.500
1.725,-76.500,-20.000,-71.500,-16.000
1.726,-76.500,-21.000,-71.500,-16.500
1.727,-76.000,-21.500,-71.000,-16.500
1.728,-76.000,-22.000,-71.000,-17.000
1.729,-76.000,-22.000,-70.500,-17.000
1.730,-76.500,-22.000,-70.500,-17.000
1.731,-76.500,-21.000,-70.500,-17.000
1.732,-76.500,-20.500,-70.500,-17.000
1.733,-76.500,-19.500,-70.000,-16.500
1.734,-76.500,-19.000,-70.000,-16.000
1.735,-76.000,-18.000,-69.500,-15.500
1.736,-76.000,-17.500,-69.000,-15.500
1.737,-75.500,-17.000,-69.000,-15.000
1.738,-75.500,-17.000,-69.000,-15.000
1.739,-75.500,-17.000,-69.000,-15.000
1.740,-75.500,-18.000,-69.500,-15.500
1.741,-75.000,-18.500,-70.000,-15.500
1.742,-75.500,-19.500,-70.500,-16.000
1.743,-75.500,-20.000,-70.500,-16.500
1.744,-76.000,-21.000,-71.000,-17.000
1.745,-76.000,-21.500,-71.000,-17.500
1.746,-76.000,-22.000,-71.500,-18.000
1.747,-75.500,-22.000,-71.500,-18.500
1.748,-75.500,-22.500,-71.500,-18.500
1.749,-75.500,-22.000,-71.000,-18.500
1.750,-75.500,-22.000,-71.000,-19.000
1.751,-75.500,-21.500,-70.500,-18.500
1.752,-75.500,-21.000,-70.000,-18.500
1.753,-75.500,-20.500,-69.500,-18.500
1.754,-75.500,-20.000,-69.500,-18.000
1.755,-75.500,-19.500,-69.000,-17.500
1.756,-76.000,-19.000,-68.500,-17.500
1.757,-76.000,-18.500,-68.000,-17.000
1.758,-76.000,-18.000,-68.500,-16.500
1.759,-76.000,-18.000,-68.500,-16.000
1.760,-76.000,-18.000,-69.000,-16.500
1.761,-76.000,-18.000,-69.000,-16.500
1.762,-76.000,-18.500,-70.000,-17.000
1.763,-76.000,-19.500,-70.500,-17.500
1.764,-76.000,-20.500,-71.500,-18.000
1.765,-75.500,-21.000,-72.000,-18.000
1.766,-75.500,-22.000,-72.500,-18.500
1.767,-75.500,-22.500,-72.500,-19.000
1.768,-75.500,-23.000,-73.000,-19.500
1.769,-75.500,-23.500,-73.000,-19.500
1.770,-75.500,-23.500,-73.000,-20.000
1.771,-75.500,-23.500,-72.500,-20.000
1.772,-76.000,-23.000,-72.500,-20.000
1.773,-76.000,-22.500,-72.000,-19.500
1.774,-76.000,-21.500,-72.000,-19.000
1.775,-76.000,-20.500,-71.500,-18.500
1.776,-76.000,-19.500,-71.500,-18.000
1.777,-75.500,-19.000,-71.500,-17.500
1.778,-75.500,-18.500,-71.500,-17.000
1.779,-75.000,-18.500,-71.500,-16.500
1.780,-75.000,-19.000,-71.500,-16.500
1.781,-75.000,-19.000,-71.500,-16.000
1.782,-75.500,-20.000,-71.500,-16.000
1.783,-75.500,-20.000,-71.000,-15.500
1.784,-75.500,-21.000,-71.000,-15.000
1.785,-75.500,-21.000,-70.500,-15.000
1.786,-75.500,-22.000,-70.500,-15.000
1.787,-75.500,-22.000,-70.500,-15.000
1.788,-75.500,-22.500,-70.500,-15.000
1.789,-75.500,-23.000,-70.000,-15.000
1.790,-76.000,-23.500,-70.500,-15.500
1.791,-76.000,-23.500,-70.500,-15.500
1.792,-76.500,-23.500,-71.500,-16.000
1.793,-76.500,-23.500,-72.500,-16.500
1.794,-77.000,-24.000,-73.500,-17.500
1.795,-77.000,-24.500,-74.500,-18.000
1.796,-77.500,-25.000,-76.000,-19.500
1.797,-77.500,-25.000,-77.500,-20.500
1.798,-78.000,-26.000,-79.000,-22.000
1.799,-78.000,-27.000,-80.000,-23.500
1.800,-78.500,-28.500,-81.000,-24.500
1.801,-78.000,-29.500,-82.000,-25.500
1.802,-78.500,-30.500,-83.500,-27.000
1.803,-78.000,-31.500,-84.000,-27.500
1.804,-78.000,-32.500,-85.000,-28.500
1.805,-77.500,-33.000,-85.000,-29.000
1.806,-77.500,-33.500,-86.000,-29.500
1.807,-77.000,-33.500,-86.000,-29.500
1.808,-77.000,-33.500,-86.000,-29.500
1.809,-76.500,-33.000,-86.000,-29.000
1.810,-76.500,-33.000,-86.000,-29.500
1.811,-76.500,-32.000,-85.500,-29.000
1.812,-76.500,-31.500,-85.000,-29.000
1.813,-76.500,-30.500,-84.500,-28.500
1.814,-76.500,-29.500,-84.000,-28.000
1.815,-76.500,-28.500,-83.500,-27.000
1.816,-76.500,-28.000,-83.500,-26.500
1.817,-76.000,-27.500,-83.000,-26.000
1.818,-76.500,-27.500,-83.000,-26.000
1.819,-76.500,-28.000,-82.500,-25.500
1.820,-76.500,-28.500,-83.000,-25.500
1.821,-76.500,-29.500,-83.000,-25.500
1.822,-76.500,-30.500,-83.500,-26.000
1.823,-76.500,-31.500,-84.000,-26.500
1.824,-76.500,-32.500,-84.500,-27.000
1.825,-76.000,-33.000,-84.500,-27.000
1.826,-76.500,-33.500,-84.500,-27.500
1.827,-76.500,-34.000,-84.500,-27.500
1.828,-76.500,-34.500,-85.000,-28.000
1.829,-76.500,-34.500,-84.500,-28.000
1.830,-77.000,-34.500,-85.000,-28.500
1.831,-76.500,-34.500,-85.000,-28.500
1.832,-77.000,-34.500,-85.000,-28.500
1.833,-77.000,-34.000,-85.000,-28.000
1.834,-77.000,-33.500,-85.000,-28.000
1.835,-77.000,-33.000,-84.500,-27.500
1.836,-77.000,-33.500,-84.000,-27.500
1.837,-76.500,-33.500,-83.500,-27.500
1.838,-76.500,-33.500,-84.000,-27.500
1.839,-76.500,-33.500,-83.500,-27.000
1.840,-76.500,-34.000,-83.500,-27.000
1.841,-76.000,-34.500,-83.000,-26.500
1.842,-76.000,-35.000,-83.000,-26.000
1.843,-76.000,-35.500,-82.500,-25.500
1.844,-76.000,-36.000,-82.500,-25.500
1.845,-75.500,-36.500,-82.000,-25.500
1.846,-76.000,-37.500,-81.500,-25.500
1.847,-75.500,-38.000,-81.000,-25.000
1.848,-76.000,-38.500,-80.500,-25.000
1.849,-75.500,-38.000,-80.000,-24.000
1.850,-76.000,-38.000,-79.500,-23.500
1.851,-75.500,-37.000,-78.500,-22.500
1.852,-75.500,-36.000,-78.000,-22.000
1.853,-75.000,-35.000,-77.500,-21.000
1.854,-75.000,-34.000,-77.000,-20.000
1.855,-74.500,-32.500,-76.500,-19.000
1.856,-74.500,-32.000,-76.000,-18.500
1.857,-74.000,-30.500,-75.000,-18.000
1.858,-74.000,-30.000,-74.500,-17.500
1.859,-73.500,-29.500,-74.000,-16.500
1.860,-73.500,-30.000,-73.500,-16.500
1.861,-73.500,-30.000,-73.000,-16.000
1.862,-73.500,-30.500,-72.500,-16.000
1.863,-73.500,-31.000,-72.000,-15.500
1.864,-73.500,-32.000,-72.000,-15.500
1.865,-73.500,-32.500,-71.500,-15.000
1.866,-73.500,-33.000,-71.500,-14.500
1.867,-73.500,-33.000,-70.500,-14.000
1.868,-73.500,-33.000,-70.000,-13.500
1.869,-73.000,-33.000,-69.000,-13.000
1.870,-73.000,-32.500,-68.500,-12.500
1.871,-73.000,-32.000,-68.000,-12.000
1.872,-73.000,-31.000,-67.500,-11.500
1.873,-72.500,-30.000,-66.500,-11.000
1.874,-73.000,-28.500,-66.000,-10.500
1.875,-73.000,-27.500,-65.000,-10.000
1.876,-73.000,-26.500,-65.000,-10.000
1.877,-73.000,-26.000,-64.000,-9.500
1.878,-73.500,-25.500,-64.000,-9.500
1.879,-73.000,-25.500,-63.500,-9.000
1.880,-73.000,-25.500,-63.500,-9.500
1.881,-73.000,-26.000,-63.500,-9.500
1.882,-73.000,-27.000,-64.000,-10.500
1.883,-72.500,-27.500,-64.000,-11.000
1.884,-72.500,-28.500,-64.000,-11.500
1.885,-72.500,-29.500,-64.000,-12.000
1.886,-72.500,-30.000,-64.000,-12.500
1.887,-72.000,-30.500,-63.500,-12.500
1.888,-72.000,-30.500,-63.500,-12.500
1.889,-71.500,-30.000,-63.000,-12.000
1.890,-71.500,-29.500,-63.000,-12.000
1.891,-71.500,-28.500,-62.500,-11.500
1.892,-71.500,-28.000,-62.000,-11.500
1.893,-71.500,-27.500,-61.500,-11.000
1.894,-72.000,-27.000,-61.500,-11.000
1.895,-72.000,-26.000,-61.000,-10.000
1.896,-72.000,-26.000,-61.000,-10.000
1.897,-72.000,-25.500,-61.000,-9.500
1.898,-72.000,-25.500,-61.000,-9.500
1.899,-71.000,-25.500,-61.000,-9.500
1.900,-71.000,-25.500,-61.500,-9.500
1.901,-70.500,-25.500,-61.500,-9.500
1.902,-70.500,-26.500,-61.500,-10.000
1.903,-70.500,-27.000,-61.500,-10.000
1.904,-70.500,-27.500,-61.500,-10.000
1.905,-70.500,-27.500,-61.500,-10.000
1.906,-70.500,-28.000,-61.500,-10.500
1.907,-70.500,-28.000,-61.000,-11.000
1.908,-70.500,-28.000,-61.000,-11.000
1.909,-70.500,-28.000,-61.000,-11.000
1.910,-70.500,-27.500,-61.000,-11.500
1.911,-70.500,-27.000,-60.500,-11.500
1.912,-71.000,-26.500,-60.000,-11.500
1.913,-70.500,-25.500,-59.500,-11.000
1.914,-71.000,-25.000,-59.000,-11.000
1.915,-70.500,-24.500,-58.000,-10.500
1.916,-70.500,-24.000,-58.000,-10.500
1.917,-70.500,-23.000,-58.000,-10.000
1.918,-70.500,-23.000,-58.000,-10.000
1.919,-70.500,-23.000,-57.500,-10.000
1.920,-71.000,-23.500,-58.000,-10.500
1.921,-71.000,-24.000,-58.500,-10.500
1.922,-71.500,-25.000,-59.000,-10.500
1.923,-72.000,-25.500,-59.500,-10.500
1.924,-72.500,-26.500,-60.000,-11.000
1.925,-72.000,-27.000,-60.000,-11.000
1.926,-72.500,-28.000,-60.500,-11.000
1.927,-72.000,-28.000,-60.500,-11.500
1.928,-72.500,-28.500,-60.500,-12.000
1.929,-72.000,-28.500,-60.000,-12.000
1.930,-72.000,-28.500,-60.000,-12.000
1.931,-72.000,-28.000,-59.500,-12.000
1.932,-72.000,-28.000,-59.000,-12.000
1.933,-71.500,-27.000,-58.500,-11.500
1.934,-71.500,-26.500,-58.500,-11.000
1.935,-71.500,-26.000,-58.500,-10.500
1.936,-71.500,-25.500,-58.500,-10.500
1.937,-71.500,-24.500,-58.000,-10.000
1.938,-71.500,-24.500,-58.500,-10.000
1.939,-71.000,-24.000,-59.000,-10.000
1.940,-71.000,-24.000,-59.500,-10.500
1.941,-70.500,-24.000,-59.500,-10.500
1.942,-70.500,-25.000,-59.500,-11.000
1.943,-70.500,-25.500,-59.000,-11.500
1.944,-70.500,-27.000,-59.500,-12.000
1.945,-70.500,-28.000,-59.000,-12.000
1.946,-71.000,-29.000,-59.500,-12.500
1.947,-71.000,-29.500,-59.500,-12.500
1.948,-71.000,-30.000,-59.500,-13.000
1.949,-71.000,-30.000,-59.500,-12.500
1.950,-71.000,-30.000,-59.000,-12.500
1.951,-71.000,-29.500,-58.500,-12.000
1.952,-71.000,-29.000,-58.000,-11.500
1.953,-70.500,-28.000,-57.000,-11.000
1.954,-71.000,-27.000,-56.500,-10.500
1.955,-70.500,-26.000,-56.000,-10.000
1.956,-71.000,-25.500,-56.000,-9.500
1.957,-70.500,-25.000,-55.500,-9.000
1.958,-70.500,-25.000,-56.000,-9.000
1.959,-70.500,-24.500,-56.000,-9.000
1.960,-70.500,-25.000,-56.500,-9.000
1.961,-70.000,-25.500,-57.000,-9.000
1.962,-70.500,-26.500,-57.500,-9.500
1.963,-70.000,-27.000,-57.500,-10.000
1.964,-70.500,-27.500,-58.000,-10.000
1.965,-70.000,-28.000,-58.000,-10.000
1.966,-70.000,-29.000,-58.500,-10.500
1.967,-69.500,-29.000,-58.500,-11.000
1.968,-70.000,-29.000,-58.500,-11.500
1.969,-69.500,-29.000,-58.500,-12.000
1.970,-70.000,-29.000,-58.500,-12.000
1.971,-69.500,-29.000,-58.500,-12.000
1.972,-69.500,-28.500,-58.500,-12.000
1.973,-69.000,-28.000,-58.000,-11.500
1.974,-69.500,-28.000,-58.000,-11.500
1.975,-69.000,-27.500,-57.500,-10.500
1.976,-69.500,-27.000,-58.000,-10.500
1.977,-69.000,-26.500,-57.500,-10.000
1.978,-69.500,-26.500,-58.000,-9.500
1.979,-69.000,-26.000,-58.000,-9.000
1.980,-69.000,-26.500,-58.500,-9.000
1.981,-69.000,-27.000,-58.500,-9.000
1.982,-69.000,-28.000,-59.000,-9.500
1.983,-69.000,-29.000,-59.000,-9.500
1.984,-69.500,-30.000,-59.000,-10.000
1.985,-69.500,-30.500,-59.000,-10.000
1.986,-69.500,-31.000,-59.000,-10.500
1.987,-69.500,-31.500,-59.000,-10.500
1.988,-70.000,-31.500,-59.000,-10.500
1.989,-70.000,-31.500,-59.000,-10.500
1.990,-70.000,-31.000,-58.500,-10.500
1.991,-70.000,-30.500,-58.000,-10.000
1.992,-70.500,-30.000,-58.000,-10.000
1.993,-70.500,-29.500,-57.000,-9.500
1.994,-71.000,-29.000,-57.000,-9.500
1.995,-71.000,-28.000,-56.500,-9.000
1.996,-71.000,-27.000,-56.000,-8.500
1.997,-71.000,-26.000,-55.500,-8.000
1.998,-71.000,-25.500,-55.500,-8.000
1.999,-70.500,-25.000,-54.500,-8.000
2.000,-70.000,-25.000,-54.500,-8.000
2.001,-69.500,-25.500,-54.000,-8.000
2.002,-70.000,-26.000,-54.000,-8.000
2.003,-70.000,-26.500,-54.000,-8.000
2.004,-70.000,-27.500,-54.000,-8.500
2.005,-70.000,-28.000,-54.000,-8.000
2.006,-70.500,-29.000,-54.500,-8.500
2.007,-70.500,-29.500,-54.000,-8.500
2.008,-71.000,-30.000,-54.500,-8.500
2.009,-71.000,-30.000,-54.000,-8.500
2.010,-71.000,-30.000,-54.000,-9.000
2.011,-71.000,-30.000,-54.000,-8.500
2.012,-71.500,-29.500,-54.000,-8.500
2.013,-71.000,-29.000,-53.500,-8.000
2.014,-71.500,-28.500,-53.500,-8.000
2.015,-71.000,-28.000,-53.500,-7.500
2.016,-71.000,-27.500,-53.500,-7.500
2.017,-70.500,-27.000,-53.000,-7.000
2.018,-70.500,-27.000,-53.500,-7.000
2.019,-70.500,-27.000,-53.500,-6.500
2.020,-70.500,-28.000,-54.000,-6.500
2.021,-70.500,-28.500,-54.000,-6.500
2.022,-70.500,-29.500,-54.500,-6.500
2.023,-70.500,-30.000,-55.000,-6.500
2.024,-71.000,-31.000,-56.000,-7.000
2.025,-71.000,-31.500,-56.000,-7.000
2.026,-71.000,-32.500,-57.000,-7.500
2.027,-71.000,-32.500,-57.000,-7.500
2.028,-71.000,-33.000,-57.500,-8.000
2.029,-70.500,-32.500,-57.500,-8.000
2.030,-70.500,-32.500,-57.500,-8.000
2.031,-70.500,-32.000,-56.500,-7.500
2.032,-70.500,-31.500,-56.500,-7.500
2.033,-70.500,-30.500,-55.500,-7.000
2.034,-71.000,-29.500,-55.000,-6.500
2.035,-71.000,-28.000,-54.500,-5.500
2.036,-71.000,-27.500,-54.000,-5.500
2.037,-71.000,-26.500,-53.500,-5.000
2.038,-71.500,-26.000,-53.000,-4.500
2.039,-71.000,-25.500,-52.500,-4.500
2.040,-71.500,-26.000,-53.000,-5.000
2.041,-71.000,-27.000,-53.000,-5.000
2.042,-71.000,-28.000,-53.500,-5.500
2.043,-71.000,-29.500,-53.500,-6.000
2.044,-71.000,-31.000,-54.000,-6.500
2.045,-70.500,-32.000,-54.000,-6.500
2.046,-71.000,-32.500,-54.000,-7.000
2.047,-71.000,-33.000,-53.500,-6.500
2.048,-71.000,-33.500,-53.500,-6.500
2.049,-71.000,-33.000,-53.000,-6.000
2.050,-71.000,-33.000,-53.000,-6.000
2.051,-70.500,-32.500,-52.000,-5.500
2.052,-70.500,-32.500,-52.000,-5.500
2.053,-70.500,-32.000,-51.000,-5.000
2.054,-70.500,-31.500,-51.000,-4.500
2.055,-70.500,-30.500,-50.000,-4.000
2.056,-71.000,-29.500,-50.000,-4.000
2.057,-71.000,-28.500,-49.500,-3.500
2.058,-71.000,-28.000,-49.500,-3.500
2.059,-71.000,-27.500,-49.000,-3.500
2.060,-71.000,-28.000,-49.500,-4.000
2.061,-71.000,-28.500,-50.000,-4.000
2.062,-71.500,-29.500,-50.500,-4.500
2.063,-71.000,-30.000,-50.500,-4.500
2.064,-71.000,-31.500,-51.000,-5.000
2.065,-70.500,-32.000,-51.000,-5.500
2.066,-70.500,-33.000,-51.500,-5.500
2.067,-70.000,-33.500,-51.000,-5.500
2.068,-70.000,-34.000,-51.500,-6.000
2.069,-70.000,-33.500,-51.500,-5.500
2.070,-70.000,-33.500,-51.500,-5.500
2.071,-69.500,-33.000,-51.500,-5.500
2.072,-70.000,-32.500,-51.000,-5.000
2.073,-70.000,-31.500,-50.500,-4.500
2.074,-70.500,-31.000,-50.500,-4.500
2.075,-70.500,-30.500,-50.000,-4.500
2.076,-71.000,-30.000,-50.000,-4.500
2.077,-71.000,-29.500,-50.000,-4.500
2.078,-71.000,-29.500,-50.000,-4.500
2.079,-71.000,-29.000,-50.000,-4.500
2.080,-71.000,-29.500,-50.000,-5.000
2.081,-70.500,-29.500,-50.000,-5.000
2.082,-70.500,-30.000,-50.000,-5.000
2.083,-70.000,-30.500,-49.500,-5.000
2.084,-70.000,-31.500,-49.500,-5.500
2.085,-69.500,-32.000,-49.000,-5.500
2.086,-69.500,-33.000,-49.000,-6.000
2.087,-69.000,-34.000,-48.500,-6.500
2.088,-69.500,-34.500,-48.500,-7.000
2.089,-69.500,-35.000,-48.000,-7.000
2.090,-69.500,-35.000,-48.000,-7.000
2.091,-69.500,-34.500,-48.000,-6.500
2.092,-70.000,-34.000,-48.000,-6.500
2.093,-70.000,-33.000,-48.000,-5.500
2.094,-70.500,-32.500,-48.000,-5.500
2.095,-70.500,-31.500,-48.000,-5.000
2.096,-70.500,-30.500,-48.500,-4.500
2.097,-70.500,-30.000,-48.000,-4.000
2.098,-70.500,-30.000,-48.500,-4.000
2.099,-70.500,-29.500,-48.500,-4.000
2.100,-70.500,-30.000,-49.000,-4.500
2.101,-70.500,-30.500,-49.000,-4.500
2.102,-70.500,-32.000,-49.500,-5.000
2.103,-70.000,-32.500,-50.000,-5.500
2.104,-70.000,-34.000,-50.500,-6.000
2.105,-70.000,-35.000,-51.000,-6.500
2.106,-70.000,-36.000,-51.000,-6.500
2.107,-70.000,-36.500,-51.000,-7.000
2.108,-70.000,-36.500,-51.000,-7.000
2.109,-70.000,-36.500,-51.000,-7.000
2.110,-70.000,-36.500,-51.000,-7.000
2.111,-69.500,-35.500,-50.500,-7.000
2.112,-69.500,-35.000,-50.500,-7.000
2.113,-69.500,-34.000,-50.000,-6.500
2.114,-69.500,-33.500,-50.000,-6.500
2.115,-69.500,-33.000,-49.500,-6.000
2.116,-70.000,-32.500,-49.500,-5.500
2.117,-70.000,-32.000,-49.000,-5.000
2.118,-70.500,-31.500,-49.500,-5.000
2.119,-70.000,-31.500,-49.500,-5.000
2.120,-70.500,-31.500,-50.000,-5.000
2.121,-70.000,-31.500,-50.000,-5.000
2.122,-70.000,-32.000,-50.000,-5.000
2.123,-69.500,-32.500,-49.500,-5.500
2.124,-69.500,-33.500,-49.500,-5.500
2.125,-69.500,-34.500,-49.500,-5.500
2.126,-69.500,-35.500,-49.500,-6.000
2.127,-69.500,-36.000,-49.000,-6.000
2.128,-69.500,-36.500,-49.000,-6.000
2.129,-69.500,-36.500,-49.000,-6.000
2.130,-70.000,-37.000,-49.000,-6.000
2.131,-70.000,-36.500,-49.000,-5.500
2.132,-70.500,-36.000,-49.000,-5.500
2.133,-70.500,-35.000,-48.500,-5.000
2.134,-70.500,-34.500,-49.000,-5.000
2.135,-70.500,-33.500,-49.000,-4.500
2.136,-70.500,-32.500,-49.000,-4.500
2.137,-70.000,-32.000,-48.500,-4.000
2.138,-70.000,-31.500,-48.500,-4.000
2.139,-70.000,-31.500,-48.500,-4.000
2.140,-70.000,-32.000,-49.000,-4.500
2.141,-69.500,-32.500,-49.000,-4.500
2.142,-69.500,-33.500,-49.500,-5.000
2.143,-69.500,-34.500,-49.500,-5.000
2.144,-69.500,-35.500,-49.500,-5.500
2.145,-69.500,-36.500,-49.500,-5.500
2.146,-69.500,-37.000,-50.000,-6.000
2.147,-69.500,-36.500,-49.500,-6.000
2.148,-69.500,-36.500,-49.500,-6.000
2.149,-69.500,-36.000,-49.000,-5.500
2.150,-69.500,-36.000,-49.000,-5.500
2.151,-69.500,-35.500,-48.000,-5.500
2.152,-69.500,-35.000,-47.500,-5.000
2.153,-69.500,-34.500,-46.500,-4.500
2.154,-69.500,-34.000,-46.500,-4.500
2.155,-69.000,-33.500,-46.000,-4.000
2.156,-69.500,-33.000,-46.000,-4.000
2.157,-69.000,-32.500,-45.500,-3.500
2.158,-69.500,-32.500,-46.000,-4.000
2.159,-69.000,-32.000,-46.000,-4.000
2.160,-69.000,-32.500,-46.500,-4.000
2.161,-69.000,-32.500,-46.500,-4.500
2.162,-69.000,-33.500,-46.500,-5.000
2.163,-69.000,-34.000,-46.500,-5.000
2.164,-69.000,-35.000,-47.000,-5.500
2.165,-69.000,-35.500,-47.000,-6.000
2.166,-69.000,-37.000,-47.500,-6.500
2.167,-69.000,-37.500,-47.500,-6.500
2.168,-69.000,-38.000,-48.000,-7.000
2.169,-69.000,-37.500,-48.000,-7.000
2.170,-69.500,-37.500,-48.000,-7.000
2.171,-69.500,-36.500,-48.000,-6.500
2.172,-69.500,-35.500,-48.000,-6.000
2.173,-69.000,-34.500,-47.500,-5.500
2.174,-69.000,-33.500,-47.500,-4.500
2.175,-69.000,-32.500,-47.000,-3.500
2.176,-69.500,-32.500,-47.000,-3.000
2.177,-69.000,-32.000,-46.500,-2.500
2.178,-69.500,-32.000,-46.500,-2.000
2.179,-69.000,-32.000,-46.000,-1.500
2.180,-69.500,-32.500,-46.000,-1.000
2.181,-69.500,-32.500,-45.500,-1.000
2.182,-69.500,-32.500,-45.500,-1.000
2.183,-69.500,-33.000,-45.500,-0.500
2.184,-69.500,-33.500,-45.500,-0.500
2.185,-69.500,-33.500,-45.000,-0.500
2.186,-69.500,-34.000,-45.000,0.000
2.187,-69.500,-34.500,-44.000,0.500
2.188,-69.500,-35.000,-43.500,1.000
2.189,-69.000,-35.000,-42.500,1.000
2.190,-69.500,-35.000,-42.500,1.500
2.191,-69.500,-35.000,-42.000,2.000
2.192,-69.500,-35.000,-42.000,2.000
2.193,-70.000,-35.000,-41.500,2.000
2.194,-70.500,-35.000,-42.000,2.000
2.195,-70.500,-34.500,-42.500,1.500
2.196,-71.000,-35.000,-43.500,1.000
2.197,-70.500,-35.000,-44.000,0.500
2.198,-71.000,-35.500,-44.500,-0.500
2.199,-70.500,-36.000,-45.000,-1.000
2.200,-70.500,-37.000,-46.000,-2.000
2.201,-70.500,-37.500,-46.500,-2.500
2.202,-70.500,-38.500,-47.000,-3.500
2.203,-70.500,-39.500,-47.000,-4.000
2.204,-71.000,-40.000,-47.500,-4.500
2.205,-70.500,-40.500,-47.000,-5.000
2.206,-70.500,-41.000,-47.000,-5.000
2.207,-70.500,-41.000,-46.500,-4.500
2.208,-70.500,-41.000,-46.000,-4.000
2.209,-70.000,-40.500,-45.000,-3.500
2.210,-70.000,-40.000,-44.500,-2.500
2.211,-69.500,-39.500,-43.500,-1.500
2.212,-69.500,-38.500,-43.500,-1.000
2.213,-69.000,-37.500,-43.000,-0.500
2.214,-69.000,-36.500,-43.000,0.500
2.215,-69.000,-35.500,-42.500,1.500
2.216,-69.000,-34.500,-43.000,2.000
2.217,-68.500,-33.500,-42.500,2.500
2.218,-69.000,-33.000,-42.500,3.000
2.219,-68.500,-32.500,-42.500,3.000
2.220,-68.500,-33.000,-43.000,3.000
2.221,-68.000,-33.500,-43.000,2.500
2.222,-68.500,-34.500,-43.500,2.000
2.223,-68.500,-35.500,-43.500,1.500
2.224,-68.500,-37.000,-43.500,0.500
2.225,-68.500,-37.500,-43.500,0.000
2.226,-69.000,-38.500,-44.000,-1.000
2.227,-68.500,-39.000,-44.000,-1.000
2.228,-69.000,-39.500,-44.000,-1.500
2.229,-68.500,-39.500,-44.000,-1.500
2.230,-69.000,-39.500,-43.500,-2.000
2.231,-68.500,-39.500,-43.000,-1.500
2.232,-68.500,-39.000,-42.500,-1.500
2.233,-68.500,-38.500,-42.000,-1.500
2.234,-68.500,-38.000,-42.500,-1.000
2.235,-68.500,-37.000,-42.000,-1.000
2.236,-68.500,-37.000,-42.500,-0.500
2.237,-68.500,-36.500,-42.500,0.000
2.238,-69.000,-36.000,-42.500,0.000
2.239,-68.500,-36.000,-42.500,0.000
2.240,-69.000,-36.000,-43.000,0.500
2.241,-68.500,-36.500,-43.000,0.000
2.242,-69.000,-37.500,-43.500,-0.500
2.243,-68.500,-38.000,-44.000,-1.000
2.244,-68.500,-39.000,-44.500,-1.500
2.245,-68.500,-40.000,-45.000,-2.000
2.246,-68.500,-41.000,-45.500,-3.000
2.247,-68.000,-41.000,-45.500,-3.500
2.248,-68.000,-41.500,-46.000,-4.000
2.249,-68.000,-41.500,-46.000,-4.000
2.250,-68.000,-41.500,-46.500,-4.500
2.251,-68.000,-41.000,-46.000,-4.000
2.252,-68.500,-40.500,-46.000,-4.000
2.253,-68.500,-39.500,-45.500,-3.500
2.254,-69.000,-38.500,-45.500,-3.000
2.255,-69.000,-37.500,-44.500,-2.500
2.256,-69.000,-36.500,-44.000,-2.000
2.257,-69.000,-35.500,-43.500,-1.500
2.258,-69.000,-35.000,-43.500,-1.000
2.259,-68.500,-34.500,-43.000,0.000
2.260,-68.500,-34.500,-43.000,0.500
2.261,-68.500,-34.000,-42.500,0.500
2.262,-68.500,-34.000,-43.000,0.500
2.263,-68.000,-34.000,-43.000,0.500
2.264,-68.500,-35.000,-43.000,0.500
2.265,-68.500,-35.500,-42.500,0.000
2.266,-69.000,-36.500,-42.500,-0.500
2.267,-69.000,-37.000,-42.000,-1.000
2.268,-69.000,-37.500,-42.000,-1.500
2.269,-68.500,-37.500,-42.000,-2.000
2.270,-68.500,-38.000,-41.500,-2.000
2.271,-68.000,-38.000,-41.000,-2.000
2.272,-68.000,-38.000,-41.000,-2.000
2.273,-67.500,-38.000,-40.500,-1.000
2.274,-68.000,-38.500,-40.500,-0.500
2.275,-67.500,-38.500,-40.000,0.000
2.276,-68.000,-38.500,-40.000,0.500
2.277,-67.500,-38.000,-39.500,1.000
2.278,-68.000,-38.000,-39.500,1.500
2.279,-67.500,-37.500,-39.500,1.500
2.280,-68.000,-37.500,-39.500,1.500
2.281,-67.500,-37.500,-39.500,1.000
2.282,-68.000,-38.000,-40.000,1.000
2.283,-67.500,-38.500,-40.500,0.000
2.284,-67.500,-39.500,-41.000,-0.500
2.285,-67.500,-40.000,-41.500,-0.500
2.286,-67.500,-40.500,-42.000,-1.000
2.287,-67.000,-40.500,-42.000,-1.000
2.288,-67.500,-41.000,-42.500,-1.000
2.289,-67.500,-40.500,-42.000,-1.000
2.290,-67.500,-40.500,-42.000,-1.000
2.291,-67.500,-40.000,-41.500,-1.000
2.292,-68.000,-40.000,-41.500,-1.000
2.293,-67.500,-39.000,-40.500,-0.500
2.294,-68.000,-38.500,-40.000,-0.500
2.295,-67.500,-37.500,-39.500,0.500
2.296,-67.500,-36.500,-39.000,1.000
2.297,-67.500,-36.000,-38.000,1.000
2.298,-67.500,-36.000,-38.000,1.500
2.299,-67.500,-36.500,-37.500,1.500
2.300,-67.500,-37.500,-38.000,1.500
2.301,-67.500,-38.500,-38.000,1.500
2.302,-67.500,-39.500,-38.500,1.000
2.303,-67.000,-40.500,-38.500,0.500
2.304,-66.500,-41.500,-39.000,0.500
2.305,-66.000,-42.000,-39.000,0.500
2.306,-66.500,-42.500,-39.000,1.000
2.307,-66.000,-42.000,-38.000,2.000
2.308,-66.500,-42.000,-37.500,3.500
2.309,-66.500,-41.500,-36.000,5.500
2.310,-66.500,-41.000,-34.500,7.500
2.311,-66.500,-40.000,-33.000,9.500
2.312,-67.000,-39.500,-32.000,11.500
2.313,-67.000,-38.500,-30.500,14.000
2.314,-67.500,-38.000,-30.000,16.500
2.315,-67.500,-37.500,-29.500,18.500
2.316,-67.500,-37.500,-29.500,20.500
2.317,-67.500,-37.500,-29.500,22.500
2.318,-68.000,-38.000,-30.000,24.000
2.319,-68.000,-38.500,-30.500,25.000
2.320,-68.500,-40.000,-32.000,26.000
2.321,-68.500,-41.500,-33.000,26.000
2.322,-69.000,-44.000,-34.500,26.000
2.323,-69.500,-46.000,-36.500,25.500
2.324,-70.000,-48.000,-38.500,25.000
2.325,-70.000,-50.000,-41.000,24.000
2.326,-70.500,-52.500,-43.500,23.000
2.327,-71.000,-54.000,-46.500,21.500
2.328,-71.500,-56.000,-50.000,20.000
2.329,-72.000,-57.500,-53.000,18.000
2.330,-73.000,-59.500,-56.500,16.000
2.331,-73.500,-61.000,-60.000,13.000
2.332,-74.500,-62.500,-64.000,10.000
2.333,-75.000,-64.000,-67.500,6.000
2.334,-76.000,-65.500,-72.000,1.000
2.335,-77.000,-66.500,-76.000,-4.500
2.336,-77.500,-68.000,-81.000,-11.000
2.337,-78.000,-70.000,-86.000,-18.500
2.338,-78.000,-72.000,-91.500,-26.500
2.339,-78.000,-73.500,-97.000,-34.500
2.340,-78.500,-75.500,-102.500,-43.000
2.341,-78.000,-77.500,-108.000,-51.000
2.342,-78.500,-79.500,-113.000,-59.000
2.343,-78.500,-81.000,-117.000,-65.000
2.344,-78.500,-82.500,-119.500,-70.500
2.345,-78.500,-82.500,-120.500,-74.000
2.346,-78.500,-83.000,-120.000,-76.000
2.347,-78.000,-82.000,-117.500,-76.000
2.348,-77.500,-80.500,-114.000,-75.500
2.349,-76.500,-78.000,-109.500,-73.500
2.350,-76.000,-76.000,-105.000,-71.500
2.351,-75.000,-73.000,-99.500,-69.000
2.352,-74.500,-70.000,-95.000,-66.000
2.353,-73.500,-66.500,-90.000,-62.500
2.354,-72.500,-63.500,-85.000,-59.000
2.355,-71.500,-60.500,-80.000,-55.000
2.356,-71.000,-57.500,-75.000,-51.500
2.357,-70.000,-54.500,-70.500,-47.500
2.358,-69.500,-52.500,-66.500,-44.500
2.359,-68.500,-50.500,-62.500,-41.500
2.360,-68.000,-50.000,-60.000,-39.500
2.361,-67.500,-49.500,-58.000,-37.000
2.362,-67.500,-49.500,-56.500,-35.500
2.363,-67.000,-49.500,-54.500,-33.500
2.364,-66.500,-50.000,-53.500,-32.000
2.365,-66.000,-50.000,-51.500,-30.500
2.366,-66.000,-50.000,-50.500,-28.500
2.367,-65.500,-49.500,-48.500,-26.500
2.368,-65.500,-49.000,-47.500,-25.000
2.369,-65.000,-48.500,-46.000,-22.500
2.370,-65.000,-48.000,-44.500,-21.000
2.371,-64.500,-47.000,-43.000,-18.500
2.372,-64.500,-46.500,-42.000,-16.500
2.373,-64.500,-45.500,-41.000,-13.500
2.374,-65.000,-44.500,-40.000,-11.500
2.375,-65.000,-43.500,-39.000,-9.000
2.376,-65.500,-43.000,-39.000,-7.500
2.377,-65.500,-42.000,-38.500,-5.500
2.378,-66.000,-41.500,-38.500,-4.000
2.379,-66.000,-41.000,-38.000,-3.000
2.380,-66.500,-41.000,-38.000,-2.000
2.381,-66.500,-40.500,-38.000,-1.500
2.382,-66.500,-41.000,-38.000,-1.500
2.383,-66.500,-41.500,-38.000,-1.000
2.384,-66.500,-42.500,-38.000,-1.000
2.385,-66.500,-43.500,-37.500,-0.500
2.386,-67.000,-45.000,-38.000,-1.000
2.387,-67.000,-46.000,-38.000,-1.000
2.388,-67.500,-47.000,-38.000,-1.000
2.389,-67.000,-47.500,-38.000,-0.500
2.390,-67.500,-48.000,-37.500,-0.500
2.391,-67.000,-48.000,-37.000,0.000
2.392,-67.000,-48.000,-37.000,0.000
2.393,-67.000,-47.000,-36.500,0.000
2.394,-67.000,-47.000,-36.000,0.500
2.395,-66.500,-46.000,-35.500,1.000
2.396,-67.000,-46.000,-35.000,1.500
2.397,-67.000,-46.000,-34.500,1.500
2.398,-67.500,-46.000,-34.500,2.000
2.399,-67.000,-45.500,-34.000,2.000
2.400,-67.000,-46.000,-34.000,2.000
2.401,-66.500,-46.500,-34.500,2.000
2.402,-66.500,-47.500,-35.000,2.000
2.403,-66.000,-48.000,-35.000,1.500
2.404,-66.000,-48.500,-36.000,1.500
2.405,-66.000,-49.000,-36.500,1.000
2.406,-66.000,-49.500,-37.000,1.000
2.407,-66.000,-49.500,-37.000,0.500
2.408,-66.500,-49.500,-37.000,0.500
2.409,-66.500,-49.000,-36.500,0.500
2.410,-67.000,-49.000,-36.000,1.000
2.411,-67.000,-48.000,-35.000,1.500
2.412,-67.000,-48.000,-34.500,2.500
2.413,-67.000,-47.000,-33.500,3.000
2.414,-67.000,-47.000,-33.500,3.500
2.415,-67.000,-46.000,-33.000,4.000
2.416,-67.000,-46.000,-32.500,4.500
2.417,-67.000,-45.500,-32.500,4.500
2.418,-67.000,-45.500,-32.500,4.500
2.419,-67.000,-45.000,-32.500,4.000
2.420,-67.000,-45.000,-33.000,4.000
2.421,-66.500,-45.000,-33.000,4.000
2.422,-66.500,-46.000,-33.500,3.500
2.423,-66.000,-46.500,-33.500,3.000
2.424,-66.000,-47.000,-33.500,3.000
2.425,-66.000,-47.500,-33.000,3.000
2.426,-66.000,-48.500,-33.000,3.000
2.427,-65.500,-48.500,-33.000,2.500
2.428,-66.000,-49.000,-33.000,3.000
2.429,-66.000,-49.000,-32.500,2.500
2.430,-66.000,-49.000,-33.000,3.000
2.431,-66.000,-48.500,-32.500,3.000
2.432,-66.000,-48.000,-32.500,3.000
2.433,-66.000,-47.500,-32.500,3.000
2.434,-66.000,-47.000,-32.500,3.000
2.435,-65.500,-46.000,-32.500,3.500
2.436,-66.000,-46.000,-32.500,4.000
2.437,-66.000,-45.500,-32.500,4.500
2.438,-66.000,-45.500,-33.000,4.500
2.439,-66.000,-45.500,-33.500,4.500
2.440,-66.000,-45.500,-34.000,5.000
2.441,-65.500,-45.500,-34.000,4.500
2.442,-65.000,-46.000,-35.000,4.500
2.443,-64.500,-46.000,-35.000,4.000
2.444,-64.500,-46.500,-35.500,4.000
2.445,-64.500,-46.500,-35.500,3.500
2.446,-64.500,-47.000,-36.000,3.500
2.447,-64.500,-47.000,-35.500,3.500
2.448,-65.000,-47.500,-35.500,3.500
2.449,-65.000,-47.500,-35.000,3.500
2.450,-65.500,-48.000,-35.000,3.500
2.451,-65.500,-48.000,-35.000,3.500
2.452,-65.500,-48.000,-35.000,4.000
2.453,-65.500,-48.000,-34.500,4.500
2.454,-66.000,-47.500,-34.500,5.000
2.455,-66.000,-47.000,-34.000,5.000
2.456,-66.500,-46.000,-34.000,5.000
2.457,-66.500,-45.000,-34.000,5.000
2.458,-67.000,-45.000,-34.000,5.000
2.459,-67.000,-44.500,-34.000,4.500
2.460,-67.000,-45.000,-34.000,4.500
2.461,-66.500,-45.500,-34.000,4.000
2.462,-66.500,-46.500,-34.500,4.000
2.463,-66.000,-47.500,-34.500,3.500
2.464,-65.500,-48.500,-34.500,3.500
2.465,-65.000,-49.500,-34.500,3.500
2.466,-65.500,-50.000,-34.000,3.500
2.467,-65.000,-50.500,-34.000,3.500
2.468,-65.500,-51.000,-34.000,4.000
2.469,-65.500,-51.000,-33.500,4.000
2.470,-65.500,-51.000,-33.500,4.000
2.471,-65.500,-50.500,-33.000,4.500
2.472,-65.500,-50.000,-33.000,4.500
2.473,-65.500,-49.500,-32.500,4.500
2.474,-65.500,-48.500,-32.000,5.000
2.475,-65.500,-47.500,-31.500,5.000
2.476,-65.500,-46.500,-31.000,5.000
2.477,-65.500,-45.500,-30.500,5.000
2.478,-65.500,-45.000,-30.500,5.000
2.479,-65.500,-45.000,-30.000,4.500
2.480,-65.500,-45.500,-30.500,4.500
2.481,-65.000,-46.500,-30.500,4.000
2.482,-65.000,-47.500,-31.000,4.000
2.483,-64.500,-48.500,-31.500,3.500
2.484,-64.500,-50.000,-31.500,4.000
2.485,-64.500,-50.500,-31.500,4.000
2.486,-65.000,-51.500,-32.000,4.000
2.487,-65.000,-51.500,-32.000,3.500
2.488,-65.000,-51.500,-32.000,4.000
2.489,-65.000,-51.000,-31.500,4.000
2.490,-65.000,-50.500,-32.000,4.000
2.491,-65.000,-50.000,-32.000,3.500
2.492,-65.000,-49.500,-32.000,4.000
2.493,-65.000,-48.500,-32.000,4.000
2.494,-65.500,-48.000,-32.500,4.000
2.495,-65.500,-47.500,-32.500,3.500
2.496,-65.500,-47.500,-33.000,3.500
2.497,-65.500,-47.000,-33.000,3.500
2.498,-65.500,-47.000,-33.500,3.000
2.499,-65.000,-47.500,-34.000,2.500
2.500,-65.000,-48.000,-34.500,2.500
2.501,-65.000,-49.000,-35.000,2.000
2.502,-65.000,-50.000,-35.500,2.000
2.503,-64.500,-51.000,-36.000,1.500
2.504,-65.000,-52.500,-37.000,1.500
2.505,-65.000,-53.000,-37.500,0.500
2.506,-65.500,-54.000,-38.000,0.500
2.507,-65.500,-54.500,-38.000,0.000
2.508,-65.500,-55.000,-38.500,-0.500
2.509,-65.500,-55.000,-38.500,-1.000
2.510,-65.500,-54.500,-38.500,-1.500
2.511,-65.000,-54.000,-38.500,-1.500
2.512,-65.000,-53.500,-38.500,-1.500
2.513,-65.000,-52.500,-38.000,-1.000
2.514,-65.000,-52.000,-38.000,-1.000
2.515,-65.000,-51.000,-38.000,-0.500
2.516,-65.000,-51.000,-38.000,0.500
2.517,-65.000,-51.000,-38.000,0.500
2.518,-65.000,-51.500,-38.500,0.500
2.519,-64.500,-52.000,-38.500,0.000
2.520,-64.500,-53.500,-39.500,-0.500
2.521,-64.000,-54.500,-40.000,-1.000
2.522,-64.500,-55.500,-40.500,-2.000
2.523,-64.500,-56.500,-41.000,-2.500
2.524,-64.500,-57.500,-42.000,-3.000
2.525,-64.500,-57.500,-42.500,-3.500
2.526,-65.000,-58.500,-43.500,-4.000
2.527,-65.000,-58.500,-44.000,-4.000
2.528,-65.500,-59.000,-44.500,-4.000
2.529,-65.500,-58.500,-44.500,-3.500
2.530,-65.500,-58.500,-44.500,-3.500
2.531,-65.500,-58.000,-44.500,-3.500
2.532,-65.500,-58.000,-44.500,-3.000
2.533,-65.500,-57.000,-44.000,-2.500
2.534,-66.000,-56.500,-44.000,-2.500
2.535,-66.000,-55.500,-44.000,-2.000
2.536,-66.500,-55.000,-44.000,-2.000
2.537,-66.500,-54.500,-44.000,-1.500
2.538,-67.000,-54.500,-45.000,-2.000
2.539,-66.500,-54.500,-45.500,-2.000
2.540,-66.500,-55.000,-46.000,-2.500
2.541,-66.000,-55.500,-46.500,-2.500
2.542,-66.000,-56.500,-47.500,-3.000
2.543,-66.000,-57.000,-48.000,-3.000
2.544,-66.000,-58.000,-48.500,-4.000
2.545,-66.000,-58.500,-48.500,-4.500
2.546,-66.500,-59.500,-48.500,-5.000
2.547,-66.500,-60.000,-48.500,-5.000
2.548,-67.000,-61.000,-48.500,-5.500
2.549,-66.500,-61.000,-48.000,-5.500
2.550,-67.000,-61.500,-48.000,-5.500
2.551,-67.000,-61.500,-48.000,-5.000
2.552,-67.000,-61.500,-48.000,-5.000
2.553,-67.000,-61.000,-48.000,-4.500
2.554,-67.500,-60.500,-48.000,-4.500
2.555,-67.500,-60.000,-48.000,-4.000
2.556,-67.500,-59.500,-47.500,-4.000
2.557,-67.000,-59.000,-47.000,-4.000
2.558,-67.000,-59.500,-46.500,-4.500
2.559,-66.500,-59.500,-46.000,-4.500
2.560,-66.500,-60.000,-46.000,-5.000
2.561,-66.500,-60.500,-45.500,-5.000
2.562,-66.500,-61.500,-46.000,-5.500
2.563,-66.000,-62.000,-46.500,-5.500
2.564,-66.000,-63.500,-47.500,-6.000
2.565,-66.000,-64.500,-48.000,-6.000
2.566,-66.000,-65.500,-49.000,-6.500
2.567,-66.000,-66.000,-49.500,-6.500
2.568,-66.000,-66.500,-50.500,-7.000
2.569,-66.000,-66.500,-50.500,-7.000
2.570,-66.000,-66.500,-50.500,-7.000
2.571,-66.000,-65.500,-50.000,-6.500
2.572,-66.000,-65.000,-49.500,-6.000
2.573,-66.000,-63.500,-48.500,-5.500
2.574,-66.000,-62.500,-48.000,-4.500
2.575,-66.000,-61.000,-47.000,-3.500
2.576,-66.000,-60.000,-46.500,-3.000
2.577,-66.000,-58.500,-45.000,-2.000
2.578,-66.000,-58.000,-44.500,-1.000
2.579,-65.500,-57.500,-43.000,0.000
2.580,-65.500,-57.500,-42.000,1.000
2.581,-65.500,-57.500,-41.000,1.500
2.582,-65.500,-57.500,-40.000,3.000
2.583,-65.000,-57.500,-39.000,4.000
2.584,-65.500,-57.500,-38.000,5.000
2.585,-65.000,-57.500,-37.000,5.500
2.586,-65.500,-58.000,-36.000,6.500
2.587,-65.000,-58.000,-34.500,7.500
2.588,-65.000,-58.500,-33.500,8.000
2.589,-65.000,-58.500,-32.500,8.500
2.590,-65.000,-58.500,-32.000,9.000
2.591,-65.000,-58.500,-31.500,9.000
2.592,-65.000,-58.000,-31.500,9.500
2.593,-64.500,-57.500,-31.000,9.000
2.594,-65.000,-57.500,-31.500,9.000
2.595,-64.500,-57.000,-32.000,8.500
2.596,-65.000,-57.000,-32.500,8.500
2.597,-65.000,-56.500,-33.000,8.000
2.598,-65.500,-56.500,-33.000,7.500
2.599,-65.500,-56.500,-33.000,7.000
2.600,-66.000,-56.500,-33.500,6.500
2.601,-66.000,-56.000,-33.500,6.000
2.602,-66.000,-56.500,-33.500,6.000
2.603,-66.000,-57.000,-33.500,5.500
2.604,-66.000,-57.500,-34.000,5.000
2.605,-65.500,-57.500,-33.500,5.000
2.606,-66.000,-57.500,-33.500,5.000
2.607,-65.500,-57.500,-33.000,5.000
2.608,-65.500,-57.000,-32.500,5.000
2.609,-65.500,-56.500,-31.500,5.500
2.610,-65.500,-56.000,-30.500,6.500
2.611,-65.000,-55.000,-29.500,7.000
2.612,-65.000,-54.000,-28.500,8.000
2.613,-64.000,-52.500,-27.500,9.000
2.614,-64.000,-52.000,-26.500,10.000
2.615,-63.500,-51.000,-25.000,11.000
2.616,-63.500,-50.500,-24.500,11.500
2.617,-63.500,-49.500,-24.000,12.000
2.618,-63.500,-49.000,-24.000,12.500
2.619,-63.500,-49.000,-23.500,12.500
2.620,-63.500,-49.000,-24.000,12.500
2.621,-63.500,-49.500,-24.500,12.500
2.622,-63.500,-50.000,-25.000,12.500
2.623,-63.000,-50.500,-25.000,12.000
2.624,-63.000,-52.000,-25.000,12.000
2.625,-62.500,-52.500,-25.000,11.500
2.626,-62.500,-53.500,-25.000,11.000
2.627,-62.500,-54.000,-24.500,10.500
2.628,-62.500,-54.000,-25.000,10.500
2.629,-62.500,-53.500,-24.500,10.500
2.630,-62.500,-53.500,-24.500,10.500
2.631,-62.500,-52.500,-24.000,10.500
2.632,-63.000,-52.000,-24.000,10.500
2.633,-63.000,-51.000,-23.000,10.500
2.634,-63.000,-50.500,-22.500,11.000
2.635,-63.000,-49.500,-21.500,11.500
2.636,-63.500,-49.000,-21.000,12.000
2.637,-63.500,-48.500,-20.000,12.000
2.638,-63.500,-48.500,-20.000,12.500
2.639,-63.000,-48.500,-19.500,12.500
2.640,-63.000,-49.000,-19.500,12.500
2.641,-62.500,-49.500,-19.500,12.000
2.642,-62.500,-50.500,-20.000,12.000
2.643,-62.000,-51.000,-20.000,11.500
2.644,-62.000,-52.000,-20.500,11.000
2.645,-62.000,-52.500,-21.000,10.000
2.646,-62.000,-53.500,-21.500,10.000
2.647,-62.000,-53.500,-21.500,9.500
2.648,-62.000,-54.000,-22.000,9.500
2.649,-62.000,-53.500,-22.000,9.500
2.650,-62.000,-54.000,-22.000,10.000
2.651,-62.000,-53.500,-22.000,10.000
2.652,-62.000,-53.500,-22.000,11.000
2.653,-61.500,-52.500,-21.500,11.000
2.654,-61.500,-52.000,-21.000,11.500
2.655,-61.500,-51.000,-20.500,12.000
2.656,-61.500,-50.500,-20.500,12.500
2.657,-61.000,-49.500,-20.500,12.500
2.658,-61.500,-49.000,-20.500,13.000
2.659,-61.500,-48.500,-20.000,13.500
2.660,-62.000,-48.500,-20.500,13.500
2.661,-62.000,-48.500,-20.500,13.500
2.662,-62.000,-49.500,-20.500,13.500
2.663,-62.000,-50.000,-20.000,13.500
2.664,-62.000,-50.500,-20.000,13.500
2.665,-61.500,-51.000,-20.000,13.000
2.666,-61.500,-51.500,-20.000,13.000
2.667,-61.500,-52.000,-19.500,13.000
2.668,-61.500,-52.000,-19.500,12.500
2.669,-61.000,-52.000,-19.500,12.000
2.670,-61.000,-52.000,-19.500,12.000
2.671,-61.000,-52.000,-19.000,12.000
2.672,-61.000,-51.500,-19.000,12.000
2.673,-61.000,-51.000,-18.000,12.000
2.674,-61.000,-50.500,-17.500,12.500
2.675,-61.000,-49.500,-17.000,12.500
2.676,-61.500,-49.500,-17.000,13.000
2.677,-62.000,-49.000,-16.500,13.000
2.678,-62.000,-49.000,-17.000,13.000
2.679,-62.000,-49.000,-17.000,13.000
2.680,-62.000,-49.500,-17.500,13.000
2.681,-62.000,-50.000,-17.500,12.500
2.682,-62.000,-51.000,-17.500,12.500
2.683,-61.500,-51.500,-18.000,12.500
2.684,-61.000,-52.500,-18.500,12.500
2.685,-60.500,-53.500,-18.500,12.000
2.686,-60.500,-54.000,-19.500,12.000
2.687,-60.000,-54.000,-19.500,11.500
2.688,-60.000,-54.500,-20.000,11.000
2.689,-60.000,-54.000,-20.000,11.000
2.690,-60.000,-54.000,-20.500,11.000
2.691,-60.000,-53.000,-20.500,11.500
2.692,-60.500,-52.500,-20.500,12.000
2.693,-60.500,-52.000,-20.000,12.000
2.694,-61.000,-51.500,-20.000,13.000
2.695,-61.000,-51.000,-19.500,13.000
2.696,-61.000,-51.000,-19.500,13.500
2.697,-61.000,-51.000,-19.500,13.500
2.698,-61.000,-51.500,-19.500,14.000
2.699,-60.500,-52.000,-19.500,13.500
2.700,-60.500,-52.500,-20.000,13.500
2.701,-60.000,-53.000,-20.000,13.500
2.702,-60.000,-54.000,-20.000,13.500
2.703,-59.500,-54.000,-20.000,13.500
2.704,-59.500,-54.500,-20.000,13.500
2.705,-59.000,-54.500,-19.500,13.000
2.706,-59.000,-55.000,-19.500,12.500
2.707,-59.000,-54.500,-19.500,12.000
2.708,-59.000,-54.500,-19.500,12.000
2.709,-59.000,-54.000,-19.000,11.500
2.710,-59.500,-54.000,-19.000,11.500
2.711,-59.500,-53.000,-18.500,11.500
2.712,-59.500,-52.500,-18.500,12.000
2.713,-59.500,-51.500,-17.500,12.000
2.714,-59.500,-51.000,-17.000,12.500
2.715,-59.500,-50.500,-16.000,12.500
2.716,-59.500,-50.000,-15.500,13.500
2.717,-59.000,-49.000,-15.000,13.500
2.718,-59.500,-49.000,-15.000,14.000
2.719,-59.000,-48.500,-15.000,14.000
2.720,-59.500,-49.000,-15.500,14.500
2.721,-59.000,-49.000,-16.000,14.500
2.722,-59.500,-49.000,-17.000,14.500
2.723,-59.000,-49.500,-18.000,14.000
2.724,-59.500,-50.000,-18.500,14.000
2.725,-59.000,-50.500,-19.000,14.000
2.726,-59.500,-51.000,-19.500,14.000
2.727,-59.000,-51.000,-19.500,13.500
2.728,-59.000,-51.500,-19.500,14.000
2.729,-58.500,-51.500,-19.000,14.000
2.730,-58.500,-51.500,-19.000,14.500
2.731,-58.500,-51.000,-18.500,15.000
2.732,-59.000,-50.500,-18.500,15.500
2.733,-58.500,-49.500,-17.500,16.000
2.734,-59.000,-49.000,-17.000,17.000
2.735,-58.500,-48.500,-16.500,17.000
2.736,-59.000,-48.500,-16.000,17.500
2.737,-58.500,-48.000,-15.500,17.500
2.738,-59.000,-48.500,-15.500,17.500
2.739,-58.500,-49.000,-15.500,17.000
2.740,-59.000,-50.000,-16.000,17.000
2.741,-58.500,-50.500,-16.000,16.500
2.742,-58.500,-51.000,-16.500,16.500
2.743,-58.500,-51.500,-16.500,16.000
2.744,-58.500,-52.000,-17.000,15.500
2.745,-58.500,-52.500,-17.000,15.000
2.746,-58.500,-53.000,-17.500,15.000
2.747,-58.500,-53.500,-17.500,15.000
2.748,-59.000,-53.500,-17.500,15.000
2.749,-59.000,-53.500,-17.500,15.000
2.750,-59.500,-53.500,-17.500,15.000
2.751,-59.000,-53.000,-17.000,15.000
2.752,-59.500,-53.000,-16.500,15.500
2.753,-59.500,-52.000,-16.000,15.500
2.754,-59.500,-51.500,-15.500,16.000
2.755,-59.500,-51.000,-15.000,16.500
2.756,-59.500,-50.500,-14.500,17.000
2.757,-59.500,-49.500,-14.000,17.000
2.758,-59.500,-49.500,-14.000,17.500
2.759,-59.000,-49.500,-13.500,18.000
2.760,-59.500,-49.500,-13.500,18.000
2.761,-59.500,-49.500,-13.000,18.000
2.762,-59.500,-50.500,-13.500,18.000
2.763,-59.500,-51.000,-14.000,18.000
2.764,-59.500,-51.500,-14.500,17.500
2.765,-59.000,-52.000,-14.500,17.000
2.766,-59.000,-52.500,-15.000,16.500
2.767,-58.500,-53.000,-15.000,15.500
2.768,-58.500,-53.500,-15.500,15.000
2.769,-58.500,-54.000,-15.500,14.500
2.770,-58.500,-54.000,-15.500,14.500
2.771,-58.000,-54.000,-15.000,14.500
2.772,-58.500,-53.500,-15.500,15.000
2.773,-58.500,-53.000,-15.000,15.000
2.774,-59.000,-52.500,-15.000,15.500
2.775,-59.000,-51.500,-14.000,15.500
2.776,-59.000,-51.000,-14.000,16.000
2.777,-59.000,-50.000,-13.500,16.500
2.778,-59.000,-50.000,-13.000,16.500
2.779,-58.500,-49.500,-13.000,16.500
2.780,-58.500,-50.000,-13.000,16.500
2.781,-58.500,-50.500,-13.000,16.000
2.782,-58.500,-51.500,-13.000,16.000
2.783,-58.500,-52.000,-13.000,15.000
2.784,-59.000,-53.000,-13.500,15.000
2.785,-59.000,-53.500,-13.500,14.500
2.786,-59.000,-54.500,-13.500,14.000
2.787,-59.000,-54.500,-13.000,14.000
2.788,-59.000,-55.000,-13.500,14.000
2.789,-58.500,-55.000,-13.000,14.000
2.790,-58.500,-55.000,-13.000,14.500
2.791,-58.000,-55.000,-12.500,14.500
2.792,-58.500,-54.500,-12.500,15.000
2.793,-58.500,-54.000,-12.500,15.000
2.794,-58.500,-54.000,-12.000,15.500
2.795,-58.500,-54.000,-11.500,15.500
2.796,-58.500,-54.000,-11.500,16.500
2.797,-58.500,-53.500,-11.000,16.500
2.798,-58.500,-53.000,-11.500,17.000
2.799,-58.000,-52.500,-11.500,16.500
2.800,-58.500,-52.500,-12.000,16.500
2.801,-58.500,-52.000,-12.500,16.000
2.802,-58.500,-52.500,-13.000,15.500
2.803,-58.500,-52.500,-13.500,15.000
2.804,-58.500,-53.500,-14.000,14.500
2.805,-58.000,-54.000,-14.000,14.000
2.806,-58.000,-54.500,-14.500,14.000
2.807,-58.000,-54.500,-14.000,13.500
2.808,-58.000,-55.000,-14.000,13.500
2.809,-57.500,-55.000,-13.500,13.500
2.810,-58.000,-55.500,-13.500,14.000
2.811,-58.000,-55.000,-13.000,14.500
2.812,-58.000,-55.500,-12.500,14.500
2.813,-58.000,-55.000,-12.000,15.000
2.814,-58.000,-54.500,-11.500,15.500
2.815,-57.500,-53.500,-11.000,15.500
2.816,-57.000,-53.000,-11.000,16.000
2.817,-56.500,-51.500,-11.000,16.500
2.818,-57.000,-50.500,-11.000,17.000
2.819,-56.500,-50.000,-11.500,17.000
2.820,-57.000,-50.000,-12.000,17.500
2.821,-57.000,-50.000,-12.500,17.000
2.822,-57.000,-51.000,-13.000,17.000
2.823,-57.000,-51.500,-13.000,16.500
2.824,-57.500,-52.500,-13.500,16.500
2.825,-57.000,-53.500,-14.000,16.000
2.826,-57.000,-54.000,-14.500,15.500
2.827,-57.000,-54.000,-14.500,15.000
2.828,-57.000,-54.000,-14.500,15.000
2.829,-57.000,-53.500,-14.000,15.000
2.830,-57.000,-53.000,-13.500,15.000
2.831,-57.000,-52.000,-12.500,15.000
2.832,-57.000,-51.500,-12.000,15.500
2.833,-57.000,-50.500,-11.500,15.500
2.834,-57.500,-50.000,-11.000,16.000
2.835,-57.500,-49.500,-10.500,16.000
2.836,-57.500,-49.000,-10.000,16.500
2.837,-57.500,-48.000,-9.500,16.500
2.838,-57.500,-48.000,-9.500,16.500
2.839,-57.500,-47.500,-9.500,16.500
2.840,-57.500,-48.000,-10.000,16.500
2.841,-57.500,-48.500,-10.000,16.500
2.842,-57.500,-49.500,-11.000,16.500
2.843,-57.500,-50.000,-12.000,16.500
2.844,-57.500,-51.500,-12.500,16.500
2.845,-57.500,-52.500,-13.000,16.500
2.846,-58.000,-53.500,-13.500,16.500
2.847,-57.500,-54.500,-13.500,16.500
2.848,-58.000,-55.000,-13.500,16.000
2.849,-57.500,-55.000,-13.000,16.000
2.850,-57.500,-55.000,-13.000,16.000
2.851,-57.500,-54.500,-13.000,16.000
2.852,-57.500,-54.000,-13.000,16.000
2.853,-57.000,-53.000,-13.000,16.000
2.854,-57.500,-52.000,-12.500,16.500
2.855,-57.500,-50.500,-12.000,16.500
2.856,-58.000,-50.000,-12.000,17.000
2.857,-58.000,-49.000,-12.000,17.000
2.858,-58.000,-48.500,-12.000,17.500
2.859,-58.000,-48.500,-12.000,17.500
2.860,-58.000,-49.000,-12.000,18.000
2.861,-58.000,-49.500,-12.000,17.500
2.862,-58.000,-50.500,-12.500,17.500
2.863,-57.500,-51.500,-13.000,17.000
2.864,-57.500,-53.000,-13.500,17.000
2.865,-57.000,-54.000,-13.500,16.500
2.866,-57.000,-55.000,-14.000,16.000
2.867,-56.500,-55.500,-14.000,16.000
2.868,-56.500,-55.500,-14.000,16.000
2.869,-56.000,-55.000,-13.500,16.000
2.870,-56.000,-55.000,-13.000,16.000
2.871,-56.000,-54.500,-12.500,16.000
2.872,-56.000,-54.500,-12.500,16.500
2.873,-56.000,-53.500,-12.000,16.500
2.874,-56.000,-53.000,-11.500,17.000
2.875,-56.000,-52.000,-11.000,17.000
2.876,-56.500,-51.000,-11.000,17.500
2.877,-56.500,-50.500,-10.500,17.000
2.878,-56.500,-50.000,-10.500,17.000
2.879,-56.500,-50.000,-10.000,16.500
2.880,-56.500,-50.000,-10.500,16.500
2.881,-56.000,-50.500,-10.500,16.500
2.882,-56.000,-51.500,-11.000,16.500
2.883,-56.000,-52.000,-11.000,16.500
2.884,-56.500,-53.000,-11.500,17.000
2.885,-56.500,-53.500,-11.500,17.000
2.886,-57.000,-54.500,-12.000,17.000
2.887,-57.000,-55.000,-11.500,17.000
2.888,-57.000,-55.500,-11.500,17.000
2.889,-57.000,-55.500,-11.500,17.000
2.890,-57.000,-55.500,-11.000,16.500
2.891,-57.000,-55.500,-10.500,16.000
2.892,-57.000,-55.000,-10.500,16.000
2.893,-57.000,-54.000,-10.000,16.000
2.894,-57.000,-53.500,-10.000,16.000
2.895,-57.000,-53.000,-9.500,16.500
2.896,-57.000,-52.500,-9.500,17.000
2.897,-57.000,-51.500,-9.500,17.000
2.898,-57.000,-51.500,-10.000,17.500
2.899,-57.000,-51.500,-10.000,17.500
2.900,-56.500,-52.500,-11.000,17.500
2.901,-56.000,-53.000,-11.500,17.000
2.902,-56.000,-54.500,-12.000,16.500
2.903,-56.000,-55.500,-12.000,16.000
2.904,-56.000,-56.500,-13.000,15.500
2.905,-56.000,-57.500,-13.500,15.000
2.906,-56.500,-58.000,-14.000,15.000
2.907,-56.500,-58.500,-14.000,14.500
2.908,-57.000,-59.000,-14.000,14.500
2.909,-57.000,-58.500,-14.000,14.500
2.910,-57.000,-58.500,-14.000,15.000
2.911,-57.000,-58.000,-13.500,15.000
2.912,-57.000,-57.500,-13.000,15.500
2.913,-57.000,-56.500,-12.500,15.500
2.914,-57.000,-56.000,-12.000,16.000
2.915,-57.000,-55.500,-11.500,16.500
2.916,-57.000,-55.000,-11.500,17.000
2.917,-56.500,-54.500,-11.000,17.500
2.918,-56.500,-54.500,-11.000,18.500
2.919,-56.500,-54.000,-10.500,18.500
2.920,-56.500,-54.500,-11.000,19.000
2.921,-56.500,-54.500,-11.000,19.000
2.922,-56.500,-55.000,-11.000,19.000
2.923,-56.000,-55.000,-11.000,18.500
2.924,-56.000,-56.000,-11.500,18.000
2.925,-56.000,-56.000,-11.500,17.000
2.926,-56.000,-56.500,-11.500,17.000
2.927,-56.000,-56.500,-11.000,16.500
2.928,-56.000,-57.000,-10.500,16.500
2.929,-56.000,-56.500,-9.500,16.500
2.930,-56.000,-56.500,-9.000,17.500
2.931,-55.500,-56.000,-8.500,18.000
2.932,-55.500,-55.500,-8.000,19.000
2.933,-55.500,-55.000,-7.000,19.500
2.934,-55.500,-54.500,-6.500,20.000
2.935,-55.000,-54.000,-6.000,20.500
2.936,-55.000,-54.000,-6.000,21.000
2.937,-55.000,-54.000,-6.000,20.500
2.938,-55.500,-54.000,-6.000,20.500
2.939,-55.000,-54.500,-6.000,20.000
2.940,-55.500,-55.000,-7.000,20.000
2.941,-55.000,-55.000,-7.500,19.500
2.942,-55.500,-56.000,-8.000,19.000
2.943,-55.000,-56.000,-8.500,18.000
2.944,-55.000,-56.500,-9.000,18.000
2.945,-54.500,-57.000,-9.500,17.500
2.946,-54.500,-57.500,-9.500,17.000
2.947,-54.500,-57.500,-9.500,16.500
2.948,-54.500,-58.000,-9.500,16.500
2.949,-54.000,-57.500,-9.000,16.500
2.950,-54.500,-57.500,-9.500,16.500
2.951,-54.500,-56.500,-9.500,16.500
2.952,-54.500,-56.000,-9.500,17.000
2.953,-54.500,-54.500,-9.000,17.500
2.954,-55.000,-54.000,-9.000,18.000
2.955,-54.500,-53.000,-8.500,18.500
2.956,-54.500,-52.500,-8.500,19.000
2.957,-54.500,-52.000,-8.500,19.000
2.958,-54.500,-52.500,-9.000,19.500
2.959,-54.500,-52.500,-9.000,19.000
2.960,-54.500,-54.000,-10.000,19.000
2.961,-54.000,-55.000,-10.500,18.500
2.962,-53.500,-56.500,-11.500,18.000
2.963,-53.000,-57.500,-12.500,17.500
2.964,-53.000,-58.500,-13.000,16.500
2.965,-52.500,-59.500,-13.500,16.000
2.966,-53.000,-60.000,-14.000,15.500
2.967,-53.000,-60.000,-14.000,15.000
2.968,-53.000,-60.500,-14.500,14.500
2.969,-53.000,-60.000,-14.000,14.500
2.970,-53.500,-59.500,-14.000,14.500
2.971,-53.000,-58.500,-13.500,15.000
2.972,-53.500,-58.000,-13.500,15.500
2.973,-53.000,-57.000,-13.000,15.500
2.974,-53.000,-56.500,-13.000,16.500
2.975,-53.000,-56.000,-12.500,17.000
2.976,-53.000,-55.500,-13.000,17.500
2.977,-52.500,-55.000,-12.500,17.500
2.978,-53.000,-55.000,-13.000,17.500
2.979,-52.500,-54.500,-13.000,17.500
2.980,-53.000,-55.000,-13.000,17.000
2.981,-53.000,-55.500,-13.500,16.500
2.982,-53.500,-56.000,-13.500,16.500
2.983,-53.500,-56.500,-13.500,16.000
2.984,-53.500,-57.500,-13.500,16.500
2.985,-53.000,-58.000,-13.000,16.500
2.986,-53.000,-58.500,-13.000,16.500
2.987,-53.000,-58.500,-12.000,17.000
2.988,-53.000,-58.500,-11.500,17.500
2.989,-53.000,-58.500,-10.500,18.000
2.990,-53.000,-58.000,-9.500,18.500
2.991,-52.500,-57.500,-8.500,19.000
2.992,-52.500,-57.000,-8.000,19.000
2.993,-52.500,-56.000,-7.000,19.000
2.994,-52.500,-55.000,-6.500,19.500
2.995,-52.000,-54.000,-5.500,19.500
2.996,-52.500,-53.500,-5.500,19.500
2.997,-52.000,-53.000,-5.500,19.000
2.998,-52.500,-53.500,-6.000,19.000
2.999,-52.500,-53.500,-6.500,18.000
3.000,-52.500,-54.500,-7.500,17.500
3.001,-52.500,-55.000,-8.500,16.000
3.002,-53.000,-56.500,-10.000,15.500
3.003,-53.500,-57.500,-11.500,14.000
3.004,-54.000,-59.000,-13.000,13.500
3.005,-54.000,-60.000,-14.000,12.500
3.006,-54.000,-61.000,-14.500,11.500
3.007,-54.000,-61.500,-15.000,11.000
3.008,-54.000,-62.000,-15.000,10.500
3.009,-53.500,-61.500,-14.500,10.000
3.010,-53.500,-61.500,-14.000,10.000
3.011,-53.500,-61.000,-13.000,10.500
3.012,-53.500,-60.500,-12.500,11.000
3.013,-53.000,-59.500,-12.000,11.500
3.014,-53.000,-58.500,-11.500,12.500
3.015,-53.000,-57.500,-10.500,13.000
3.016,-53.000,-57.000,-10.000,13.500
3.017,-52.500,-56.000,-9.000,14.000
3.018,-53.000,-55.500,-8.500,14.000
3.019,-52.500,-55.000,-8.000,14.000
3.020,-52.500,-55.500,-8.000,14.500
3.021,-52.000,-55.500,-8.000,14.500
3.022,-52.000,-56.000,-8.000,14.500
3.023,-52.000,-56.500,-8.500,14.500
3.024,-52.000,-57.500,-8.500,14.500
3.025,-52.000,-58.000,-8.500,14.000
3.026,-52.000,-58.500,-9.000,14.000
3.027,-52.000,-58.500,-9.000,13.500
3.028,-52.000,-59.000,-9.000,13.500
3.029,-52.000,-58.500,-9.000,13.500
3.030,-52.000,-58.500,-9.000,13.500
3.031,-51.500,-57.500,-9.000,13.500
3.032,-52.000,-57.000,-8.500,14.000
3.033,-52.000,-56.000,-8.000,14.000
3.034,-52.000,-55.500,-7.500,14.500
3.035,-51.500,-54.500,-6.500,15.000
3.036,-51.500,-54.000,-6.000,16.000
3.037,-51.500,-53.000,-5.000,16.500
3.038,-51.500,-52.500,-4.500,17.000
3.039,-51.500,-52.000,-4.000,17.500
3.040,-51.000,-52.000,-4.000,18.000
3.041,-50.500,-52.000,-3.500,18.000
3.042,-50.500,-52.500,-3.500,18.500
3.043,-50.500,-52.500,-3.500,19.000
3.044,-50.500,-53.500,-3.500,20.000
3.045,-50.000,-53.500,-3.000,21.000
3.046,-50.000,-54.000,-2.500,22.500
3.047,-50.000,-54.500,-2.000,24.000
3.048,-50.000,-55.000,-1.500,26.000
3.049,-49.500,-55.000,-0.500,28.000
3.050,-50.000,-55.000,-0.500,30.000
3.051,-50.000,-55.000,0.000,32.000
3.052,-50.500,-55.000,0.000,33.500
3.053,-50.500,-55.000,0.000,35.000
3.054,-51.000,-55.500,-0.500,36.000
3.055,-51.500,-56.000,-1.000,37.000
3.056,-52.000,-56.500,-2.000,38.000
3.057,-52.500,-56.500,-3.000,38.500
3.058,-53.000,-57.500,-4.500,39.000
3.059,-53.000,-58.500,-6.000,39.000
3.060,-53.500,-60.500,-8.000,39.000
3.061,-54.000,-62.000,-10.000,38.000
3.062,-55.000,-64.000,-12.500,37.000
3.063,-55.000,-66.500,-15.500,35.500
3.064,-56.000,-69.000,-19.000,34.000
3.065,-56.000,-71.500,-22.000,31.500
3.066,-57.000,-74.500,-26.000,29.500
3.067,-57.500,-76.500,-30.000,26.500
3.068,-58.500,-79.000,-34.000,23.000
3.069,-59.000,-81.000,-38.000,19.000
3.070,-60.000,-83.500,-42.500,14.000
3.071,-60.000,-85.000,-46.500,8.500
3.072,-61.000,-86.500,-51.000,2.500
3.073,-61.000,-87.500,-55.500,-4.500
3.074,-61.500,-89.000,-60.500,-12.000
3.075,-62.000,-89.500,-65.000,-19.500
3.076,-62.000,-90.500,-70.500,-27.000
3.077,-62.000,-91.500,-75.500,-34.000
3.078,-62.000,-92.000,-80.000,-40.500
3.079,-62.000,-92.500,-83.000,-46.000
3.080,-62.000,-93.000,-85.500,-50.500
3.081,-61.500,-92.500,-86.000,-53.500
3.082,-61.500,-92.500,-85.500,-55.000
3.083,-60.500,-91.500,-83.500,-55.500
3.084,-60.000,-90.500,-80.500,-55.500
3.085,-59.000,-89.000,-76.500,-54.000
3.086,-58.000,-87.500,-72.500,-52.500
3.087,-56.500,-85.500,-68.000,-50.500
3.088,-56.000,-83.500,-63.500,-48.500
3.089,-55.000,-81.000,-59.000,-46.000
3.090,-54.000,-79.000,-54.500,-43.000
3.091,-53.000,-76.000,-49.500,-40.000
3.092,-52.500,-73.500,-45.000,-37.000
3.093,-51.500,-71.000,-40.500,-33.500
3.094,-51.000,-68.500,-36.500,-30.500
3.095,-50.500,-66.000,-32.500,-27.500
3.096,-50.000,-64.500,-29.500,-25.500
3.097,-49.000,-62.500,-26.500,-23.000
3.098,-49.000,-61.500,-24.000,-21.000
3.099,-48.500,-60.000,-21.500,-18.500
3.100,-48.000,-59.500,-19.500,-16.500
3.101,-47.500,-58.500,-17.500,-14.500
3.102,-47.500,-58.500,-16.000,-12.500
3.103,-47.500,-58.000,-14.500,-10.500
3.104,-47.500,-58.000,-13.000,-9.000
3.105,-47.000,-57.500,-12.000,-7.500
3.106,-47.500,-58.000,-11.000,-6.500
3.107,-47.000,-57.500,-10.000,-4.500
3.108,-47.000,-58.000,-9.000,-3.000
3.109,-47.000,-57.500,-8.000,-1.000
3.110,-47.000,-57.500,-7.500,1.000
3.111,-47.000,-57.000,-6.000,3.000
3.112,-47.500,-56.500,-5.000,5.000
3.113,-47.500,-55.500,-4.000,7.000
3.114,-48.000,-55.000,-3.000,8.500
3.115,-48.000,-54.500,-2.000,10.000
3.116,-48.500,-54.500,-1.500,11.500
3.117,-48.000,-54.000,-1.500,12.000
3.118,-48.500,-54.000,-1.500,12.500
3.119,-48.000,-54.000,-2.000,13.000
3.120,-48.000,-55.000,-2.500,13.500
3.121,-47.500,-55.500,-2.500,13.500
3.122,-47.500,-56.000,-3.000,13.500
3.123,-47.500,-56.500,-3.000,13.000
3.124,-47.500,-57.500,-3.000,13.000
3.125,-47.000,-58.000,-3.000,13.000
3.126,-47.500,-58.500,-3.500,13.000
3.127,-47.000,-58.500,-3.500,13.000
3.128,-47.500,-58.500,-3.500,13.000
3.129,-47.500,-58.000,-3.000,13.500
3.130,-47.500,-58.000,-3.000,13.500
3.131,-47.500,-57.000,-2.500,13.500
3.132,-48.000,-56.500,-2.000,14.000
3.133,-48.000,-55.500,-1.500,14.500
3.134,-48.000,-55.000,-1.500,15.000
3.135,-48.000,-54.500,-1.000,15.000
3.136,-48.000,-54.000,-1.000,15.500
3.137,-47.500,-53.500,-1.000,16.000
3.138,-47.000,-53.500,-1.000,16.000
3.139,-46.500,-53.500,-0.500,16.000
3.140,-46.500,-54.000,-0.500,16.500
3.141,-46.500,-54.000,-0.500,16.000
3.142,-46.500,-54.500,-1.000,16.000
3.143,-46.500,-55.000,-1.000,16.000
3.144,-47.000,-56.000,-1.500,15.500
3.145,-46.500,-57.000,-2.000,15.000
3.146,-46.500,-57.500,-2.500,15.000
3.147,-46.000,-58.000,-2.500,14.500
3.148,-46.000,-58.500,-2.500,14.500
3.149,-46.000,-58.500,-2.500,15.000
3.150,-46.000,-58.500,-2.000,15.500
3.151,-46.000,-57.500,-1.500,16.000
3.152,-46.000,-57.000,-1.000,16.500
3.153,-46.000,-56.000,-0.500,17.000
3.154,-46.500,-55.500,-0.500,18.000
3.155,-46.000,-54.500,0.000,18.000
3.156,-46.500,-53.500,0.500,18.500
3.157,-46.500,-53.000,0.500,19.000
3.158,-46.500,-52.500,1.000,19.000
3.159,-46.500,-52.500,1.000,19.000
3.160,-46.500,-53.000,1.000,19.000
3.161,-46.500,-53.500,0.500,19.000
3.162,-46.500,-54.500,0.500,18.500
3.163,-46.500,-55.000,0.000,17.500
3.164,-46.500,-56.500,-0.500,17.000
3.165,-46.000,-57.000,-0.500,16.000
3.166,-46.000,-58.000,-1.000,16.000
3.167,-46.000,-58.000,-1.500,15.500
3.168,-46.000,-58.500,-1.500,15.000
3.169,-45.500,-58.500,-1.500,15.000
3.170,-46.000,-58.500,-1.500,15.000
3.171,-46.000,-58.000,-1.000,15.000
3.172,-46.500,-57.500,-1.000,15.000
3.173,-46.500,-57.000,-0.500,15.000
3.174,-46.500,-56.500,0.000,15.500
3.175,-46.500,-56.000,0.500,15.500
3.176,-46.500,-55.500,1.000,16.500
3.177,-46.000,-54.500,1.000,16.500
3.178,-46.000,-54.500,1.000,17.000
3.179,-45.500,-54.000,0.500,17.000
3.180,-45.500,-54.500,0.500,17.000
3.181,-45.000,-54.500,0.500,17.000
3.182,-45.000,-55.000,0.000,16.500
3.183,-45.000,-55.500,-0.500,16.000
3.184,-45.000,-56.500,-0.500,16.000
3.185,-45.000,-57.500,-0.500,15.500
3.186,-45.000,-58.500,-1.000,15.500
3.187,-44.500,-59.000,-1.500,15.000
3.188,-44.500,-60.000,-2.000,14.500
3.189,-44.500,-60.500,-2.000,14.500
3.190,-44.500,-61.000,-2.000,14.500
3.191,-44.500,-60.500,-2.000,14.500
3.192,-44.500,-60.000,-2.000,15.000
3.193,-44.000,-59.000,-1.500,15.500
3.194,-44.500,-58.000,-1.000,16.000
3.195,-44.500,-57.000,-0.500,16.000
3.196,-44.500,-56.000,0.000,16.500
