'Elapsed time','AECG1','AECG2','AECG3','AECG4'
'seconds','uV','uV','uV','uV'
0.000,130.500,123.500,128.500,169.000
0.001,1149.500,1083.000,1125.500,1484.500
0.002,1323.000,1245.500,1295.000,1708.000
0.003,1411.500,1327.500,1381.000,1821.000
0.004,1447.500,1360.500,1416.000,1867.500
0.005,1459.000,1370.500,1427.000,1882.000
0.006,1460.500,1372.000,1429.000,1884.500
0.007,1459.500,1372.000,1429.000,1884.000
0.008,1459.000,1373.000,1429.500,1884.000
0.009,1459.000,1374.500,1430.000,1885.000
0.010,1459.500,1376.500,1431.500,1886.000
0.011,1460.000,1379.000,1433.000,1887.500
0.012,1460.000,1381.500,1435.000,1889.000
0.013,1460.000,1383.500,1437.000,1890.500
0.014,1460.000,1385.000,1439.000,1891.500
0.015,1459.000,1386.000,1440.500,1892.000
0.016,1458.500,1385.500,1441.000,1891.500
0.017,1458.000,1384.000,1440.500,1890.000
0.018,1457.500,1382.500,1439.500,1888.500
0.019,1458.000,1381.000,1438.500,1886.500
0.020,1459.500,1380.000,1438.000,1885.000
0.021,1461.500,1380.000,1438.000,1884.500
0.022,1464.000,1380.500,1438.500,1885.000
0.023,1466.500,1382.000,1440.000,1886.500
0.024,1469.500,1384.000,1441.500,1888.500
0.025,1471.500,1385.500,1442.500,1891.000
0.026,1473.500,1387.000,1444.000,1894.000
0.027,1475.000,1388.000,1444.500,1896.000
0.028,1476.500,1389.500,1445.500,1898.500
0.029,1478.000,1391.000,1446.500,1900.500
0.030,1479.000,1392.500,1448.000,1903.000
0.031,1479.500,1395.000,1450.500,1905.500
0.032,1480.000,1397.000,1453.500,1908.000
0.033,1479.500,1399.000,1456.000,1910.000
0.034,1479.000,1400.500,1458.000,1911.000
0.035,1478.000,1401.000,1459.000,1911.500
0.036,1477.500,1401.000,1458.500,1910.500
0.037,1477.000,1400.500,1457.500,1909.500
0.038,1477.000,1399.000,1456.000,1907.500
0.039,1477.500,1398.000,1454.500,1905.500
0.040,1479.000,1397.000,1453.000,1904.000
0.041,1481.000,1396.500,1451.500,1903.000
0.042,1483.000,1396.500,1451.000,1903.000
0.043,1485.500,1397.000,1451.000,1903.500
0.044,1488.000,1398.000,1451.500,1905.000
0.045,1490.000,1399.000,1452.000,1906.500
0.046,1491.500,1400.000,1452.500,1908.000
0.047,1492.500,1401.000,1453.500,1909.500
0.048,1493.000,1401.500,1454.500,1911.000
0.049,1493.500,1402.000,1455.500,1911.500
0.050,1493.000,1402.500,1456.500,1912.500
0.051,1492.500,1403.000,1457.500,1913.000
0.052,1491.500,1403.000,1459.000,1913.500
0.053,1490.500,1403.500,1460.500,1914.000
0.054,1489.500,1403.500,1461.500,1914.000
0.055,1489.000,1404.000,1462.500,1914.000
0.056,1488.500,1403.500,1463.000,1913.000
0.057,1488.500,1403.000,1462.500,1911.500
0.058,1489.000,1402.000,1461.500,1910.000
0.059,1489.500,1401.000,1460.000,1908.500
0.060,1491.000,1400.000,1458.500,1907.000
0.061,1492.500,1399.000,1457.500,1906.000
0.062,1494.000,1399.000,1457.000,1906.000
0.063,1495.500,1399.000,1457.000,1906.500
0.064,1497.000,1400.000,1458.500,1908.000
0.065,1499.000,1402.000,1460.000,1910.500
0.066,1501.500,1404.500,1463.000,1914.000
0.067,1503.500,1407.500,1466.500,1918.500
0.068,1506.000,1411.000,1471.000,1923.500
0.069,1508.500,1415.000,1476.000,1929.500
0.070,1510.500,1419.500,1481.500,1936.000
0.071,1512.500,1424.500,1488.000,1942.500
0.072,1514.000,1428.500,1494.000,1949.500
0.073,1515.500,1432.500,1499.500,1956.500
0.074,1516.500,1436.000,1505.000,1962.500
0.075,1517.500,1438.500,1509.000,1968.500
0.076,1518.500,1441.000,1512.500,1973.500
0.077,1520.500,1443.500,1515.500,1977.500
0.078,1523.500,1445.500,1517.500,1981.000
0.079,1526.500,1447.500,1519.500,1983.500
0.080,1529.500,1449.000,1520.500,1985.000
0.081,1531.500,1450.000,1521.000,1986.000
0.082,1533.000,1450.000,1520.500,1986.000
0.083,1533.000,1449.500,1520.000,1985.500
0.084,1532.500,1448.500,1519.000,1984.000
0.085,1532.000,1447.000,1517.500,1982.500
0.086,1531.000,1445.500,1516.000,1981.000
0.087,1530.000,1444.000,1515.000,1979.500
0.088,1529.500,1443.000,1514.000,1978.000
0.089,1529.500,1442.500,1513.000,1977.500
0.090,1530.000,1442.500,1513.000,1977.000
0.091,1530.500,1443.000,1512.500,1976.500
0.092,1531.000,1443.500,1512.500,1976.000
0.093,1531.500,1444.000,1512.500,1974.500
0.094,1531.500,1444.500,1512.000,1973.000
0.095,1532.000,1444.500,1511.000,1970.500
0.096,1532.500,1444.500,1510.000,1968.000
0.097,1533.500,1444.000,1508.500,1965.000
0.098,1535.500,1443.500,1506.500,1962.000
0.099,1538.000,1443.500,1505.000,1959.500
0.100,1541.000,1443.500,1504.000,1958.000
0.101,1544.000,1444.000,1503.500,1957.500
0.102,1546.500,1445.000,1503.500,1957.500
0.103,1548.500,1446.000,1504.500,1958.500
0.104,1550.500,1447.000,1505.000,1959.000
0.105,1551.500,1448.000,1506.000,1960.000
0.106,1552.500,1448.500,1507.000,1961.000
0.107,1553.000,1449.500,1508.000,1962.000
0.108,1554.000,1450.000,1509.000,1963.500
0.109,1554.000,1451.000,1510.500,1965.000
0.110,1554.500,1452.500,1512.500,1967.500
0.111,1555.000,1454.000,1514.500,1970.000
0.112,1555.000,1455.500,1517.500,1972.500
0.113,1555.000,1456.500,1520.000,1975.000
0.114,1554.500,1457.500,1521.500,1976.500
0.115,1554.000,1457.500,1522.500,1977.000
0.116,1553.500,1457.000,1522.500,1976.000
0.117,1553.500,1456.500,1521.500,1974.500
0.118,1554.500,1456.500,1520.000,1972.000
0.119,1556.000,1456.500,1518.500,1970.500
0.120,1558.500,1457.500,1518.000,1969.000
0.121,1562.000,1459.000,1518.500,1969.000
0.122,1565.500,1461.500,1520.000,1970.000
0.123,1569.000,1464.500,1522.500,1972.500
0.124,1572.500,1467.500,1525.500,1975.500
0.125,1576.000,1471.500,1529.500,1979.500
0.126,1580.000,1475.000,1533.500,1983.500
0.127,1583.500,1479.000,1537.500,1987.500
0.128,1586.500,1482.500,1541.000,1991.500
0.129,1589.500,1486.000,1545.000,1995.500
0.130,1592.000,1489.000,1549.000,1999.500
0.131,1594.500,1493.000,1553.500,2004.000
0.132,1596.500,1497.000,1558.000,2008.000
0.133,1598.500,1501.000,1562.500,2012.500
0.134,1600.500,1504.500,1566.500,2016.500
0.135,1602.000,1507.500,1570.000,2020.000
0.136,1604.500,1510.000,1572.500,2023.000
0.137,1606.500,1511.500,1574.000,2025.000
0.138,1609.500,1512.500,1575.000,2026.500
0.139,1612.500,1513.500,1575.000,2027.000
0.140,1615.500,1514.500,1575.500,2027.500
0.141,1619.500,1516.000,1576.000,2028.000
0.142,1623.000,1518.500,1577.500,2029.000
0.143,1626.500,1521.500,1580.000,2031.500
0.144,1630.500,1524.500,1583.000,2034.500
0.145,1634.500,1528.000,1586.500,2038.500
0.146,1638.000,1531.500,1590.500,2043.000
0.147,1642.000,1535.000,1594.500,2048.000
0.148,1645.000,1538.500,1598.000,2052.500
0.149,1648.500,1542.500,1602.000,2056.500
0.150,1651.000,1546.000,1605.500,2060.000
0.151,1654.000,1550.000,1609.000,2063.500
0.152,1656.500,1554.000,1612.500,2067.500
0.153,1658.500,1557.500,1616.500,2071.000
0.154,1661.000,1561.500,1621.000,2074.500
0.155,1663.500,1565.000,1625.000,2077.500
0.156,1666.500,1567.500,1628.500,2080.000
0.157,1669.500,1570.000,1631.500,2081.500
0.158,1673.000,1571.500,1634.000,2083.000
0.159,1676.500,1573.000,1636.000,2084.000
0.160,1680.500,1575.000,1638.000,2085.000
0.161,1685.000,1576.500,1640.000,2087.000
0.162,1689.000,1578.500,1642.500,2089.000
0.163,1693.500,1581.500,1645.000,2092.000
0.164,1698.000,1584.500,1648.000,2095.000
0.165,1702.000,1588.000,1651.500,2098.500
0.166,1706.500,1592.000,1655.500,2103.000
0.167,1710.500,1596.000,1660.000,2107.500
0.168,1714.000,1600.500,1664.000,2112.500
0.169,1717.500,1604.500,1669.000,2117.500
0.170,1720.500,1609.000,1673.500,2122.500
0.171,1723.000,1613.000,1678.000,2128.000
0.172,1725.000,1617.000,1683.000,2133.000
0.173,1727.000,1621.000,1687.500,2138.000
0.174,1729.500,1624.500,1692.000,2142.500
0.175,1731.500,1628.000,1696.000,2146.000
0.176,1734.000,1630.500,1699.000,2148.500
0.177,1736.500,1633.000,1701.000,2150.500
0.178,1739.500,1634.500,1702.000,2151.500
0.179,1742.500,1635.000,1702.000,2152.000
0.180,1745.500,1635.500,1702.000,2152.000
0.181,1748.500,1636.000,1701.500,2152.500
0.182,1751.500,1636.500,1701.500,2153.000
0.183,1754.500,1638.000,1702.000,2154.000
0.184,1757.500,1639.500,1703.000,2156.000
0.185,1760.500,1641.500,1705.000,2158.500
0.186,1763.000,1644.000,1707.000,2161.000
0.187,1766.000,1646.500,1709.500,2164.000
0.188,1768.500,1649.500,1712.000,2167.000
0.189,1770.500,1652.000,1714.500,2170.000
0.190,1772.500,1655.000,1717.000,2173.000
0.191,1774.000,1658.000,1720.000,2176.000
0.192,1775.000,1660.500,1723.500,2179.500
0.193,1776.000,1662.500,1727.000,2183.000
0.194,1776.000,1665.000,1730.500,2186.000
0.195,1776.000,1666.500,1733.000,2188.000
0.196,1776.500,1667.500,1735.500,2189.000
0.197,1777.500,1668.500,1736.500,2189.000
0.198,1779.500,1669.000,1737.000,2189.000
0.199,1781.500,1669.000,1737.000,2189.000
0.200,1784.000,1669.000,1736.500,2188.500
0.201,1786.500,1669.000,1735.500,2188.000
0.202,1789.000,1669.500,1735.000,2188.000
0.203,1791.000,1670.500,1735.000,2188.500
0.204,1793.000,1671.500,1735.500,2190.000
0.205,1795.000,1673.500,1736.500,2191.500
0.206,1797.000,1675.000,1738.000,2193.000
0.207,1798.500,1677.500,1740.000,2195.000
0.208,1800.000,1679.500,1742.500,2197.000
0.209,1801.500,1682.000,1745.500,2199.500
0.210,1802.500,1684.500,1748.500,2202.000
0.211,1803.000,1686.500,1751.500,2204.500
0.212,1803.500,1689.000,1755.000,2207.500
0.213,1803.500,1691.500,1758.500,2210.000
0.214,1804.000,1693.500,1761.000,2212.500
0.215,1804.000,1695.000,1763.000,2214.000
0.216,1804.500,1696.000,1764.500,2215.000
0.217,1804.500,1696.500,1765.000,2215.500
0.218,1805.500,1696.000,1764.000,2215.000
0.219,1806.500,1695.000,1762.500,2214.000
0.220,1808.000,1694.000,1761.000,2213.000
0.221,1809.500,1693.000,1759.500,2212.000
0.222,1811.500,1692.500,1758.500,2211.500
0.223,1813.000,1693.000,1758.000,2212.000
0.224,1814.500,1694.000,1758.500,2213.000
0.225,1816.000,1695.000,1759.500,2214.000
0.226,1817.000,1696.000,1760.000,2215.000
0.227,1818.000,1697.000,1761.000,2215.500
0.228,1818.500,1698.000,1762.000,2216.000
0.229,1819.000,1699.000,1763.500,2217.000
0.230,1819.500,1700.500,1765.000,2218.000
0.231,1819.500,1702.000,1767.000,2220.000
0.232,1819.500,1703.500,1769.500,2222.000
0.233,1819.000,1704.500,1772.000,2224.500
0.234,1818.500,1705.500,1774.000,2226.500
0.235,1818.000,1706.000,1775.500,2227.500
0.236,1817.500,1705.500,1775.500,2227.000
0.237,1817.000,1704.000,1774.000,2226.000
0.238,1816.500,1701.500,1772.000,2224.000
0.239,1816.500,1699.000,1769.000,2221.500
0.240,1817.000,1696.500,1766.000,2219.000
0.241,1818.000,1695.000,1763.500,2218.000
0.242,1820.000,1694.500,1762.500,2218.000
0.243,1822.000,1695.500,1762.500,2219.000
0.244,1824.000,1697.000,1763.000,2220.500
0.245,1826.000,1699.000,1764.000,2221.500
0.246,1827.500,1701.500,1765.000,2222.500
0.247,1828.500,1703.000,1766.000,2222.500
0.248,1828.500,1705.000,1767.500,2222.500
0.249,1828.500,1706.000,1769.000,2222.500
0.250,1828.000,1707.500,1770.500,2222.500
0.251,1827.500,1708.500,1772.500,2222.500
0.252,1826.500,1710.000,1774.500,2223.000
0.253,1825.500,1710.500,1776.000,2224.000
0.254,1824.500,1710.500,1777.000,2225.000
0.255,1823.500,1710.500,1777.000,2226.000
0.256,1823.000,1710.000,1777.000,2226.500
0.257,1823.500,1710.000,1776.000,2227.000
0.258,1824.500,1709.500,1775.000,2227.000
0.259,1826.000,1709.500,1774.000,2226.500
0.260,1828.000,1709.000,1772.500,2226.000
0.261,1830.000,1708.500,1772.000,2226.000
0.262,1832.500,1708.500,1771.500,2226.500
0.263,1834.000,1709.000,1771.500,2227.000
0.264,1835.500,1709.000,1772.000,2227.500
0.265,1836.000,1708.500,1771.500,2227.500
0.266,1836.000,1708.000,1771.500,2227.500
0.267,1835.000,1707.500,1771.500,2227.000
0.268,1833.500,1706.500,1771.500,2227.000
0.269,1832.500,1706.500,1771.500,2227.500
0.270,1831.000,1706.500,1772.500,2228.500
0.271,1830.000,1707.000,1774.000,2230.000
0.272,1829.000,1707.500,1776.000,2232.000
0.273,1827.500,1708.000,1777.500,2233.500
0.274,1826.500,1708.000,1778.500,2234.500
0.275,1825.000,1708.000,1778.500,2235.000
0.276,1824.000,1707.000,1778.000,2234.500
0.277,1824.000,1706.000,1776.500,2233.000
0.278,1824.000,1704.500,1774.000,2231.000
0.279,1824.000,1703.000,1771.500,2228.500
0.280,1825.000,1701.000,1768.500,2226.000
0.281,1825.500,1699.500,1766.500,2223.500
0.282,1826.500,1698.500,1765.000,2222.000
0.283,1828.000,1698.500,1764.500,2221.000
0.284,1829.000,1698.500,1764.000,2220.500
0.285,1830.000,1699.000,1764.000,2220.500
0.286,1830.500,1699.500,1764.000,2220.500
0.287,1831.000,1700.000,1764.500,2221.000
0.288,1831.500,1700.500,1765.000,2221.500
0.289,1831.500,1701.500,1766.000,2222.500
0.290,1832.000,1703.000,1767.500,2224.000
0.291,1832.000,1704.500,1769.500,2226.000
0.292,1832.000,1706.000,1772.000,2228.000
0.293,1831.500,1707.000,1774.000,2230.500
0.294,1830.500,1708.000,1776.500,2233.000
0.295,1830.000,1709.000,1778.000,2235.000
0.296,1829.500,1709.500,1779.500,2237.000
0.297,1829.500,1709.500,1780.000,2238.500
0.298,1830.000,1709.000,1780.000,2239.000
0.299,1831.500,1708.500,1779.500,2239.000
0.300,1833.000,1708.500,1779.000,2238.500
0.301,1835.000,1708.500,1779.000,2238.000
0.302,1837.500,1709.500,1779.500,2237.500
0.303,1839.500,1710.500,1780.000,2237.000
0.304,1841.000,1711.500,1780.500,2236.500
0.305,1842.000,1711.500,1780.500,2236.000
0.306,1841.500,1711.000,1779.500,2235.000
0.307,1839.500,1709.000,1777.500,2233.500
0.308,1836.500,1705.500,1774.000,2230.500
0.309,1832.500,1701.500,1770.000,2227.500
0.310,1828.500,1697.000,1766.000,2224.500
0.311,1824.500,1693.500,1762.500,2222.000
0.312,1821.000,1691.000,1760.500,2220.500
0.313,1819.000,1689.500,1760.000,2219.500
0.314,1817.000,1689.000,1759.000,2218.500
0.315,1815.500,1688.000,1758.500,2217.000
0.316,1814.500,1687.000,1756.500,2215.000
0.317,1814.000,1685.000,1754.500,2212.500
0.318,1813.500,1683.500,1751.500,2210.000
0.319,1814.000,1682.000,1749.000,2207.000
0.320,1815.000,1681.000,1747.000,2205.000
0.321,1817.000,1681.000,1746.000,2204.000
0.322,1819.500,1682.500,1746.000,2203.500
0.323,1822.500,1684.500,1748.000,2205.000
0.324,1826.500,1687.500,1750.500,2207.500
0.325,1830.000,1690.500,1754.500,2210.500
0.326,1832.500,1693.500,1758.000,2213.000
0.327,1834.000,1695.500,1761.000,2215.500
0.328,1834.500,1696.500,1763.000,2217.500
0.329,1834.000,1697.000,1764.500,2218.500
0.330,1833.000,1697.500,1765.500,2219.500
0.331,1832.000,1697.500,1766.500,2221.000
0.332,1830.500,1698.000,1767.500,2222.000
0.333,1829.500,1698.000,1769.000,2223.000
0.334,1828.000,1698.000,1769.500,2224.000
0.335,1826.500,1698.000,1769.500,2223.500
0.336,1825.000,1697.000,1768.500,2222.500
0.337,1824.000,1695.500,1766.500,2220.000
0.338,1823.000,1693.000,1764.000,2217.000
0.339,1823.000,1690.500,1760.500,2213.500
0.340,1823.000,1688.000,1757.500,2210.000
0.341,1824.000,1686.000,1755.000,2207.500
0.342,1825.000,1685.500,1753.500,2205.500
0.343,1826.500,1685.000,1753.000,2205.000
0.344,1827.500,1685.500,1753.000,2205.000
0.345,1828.500,1685.500,1753.500,2205.500
0.346,1829.000,1686.000,1753.500,2206.000
0.347,1829.500,1686.000,1753.500,2206.500
0.348,1829.000,1685.500,1753.000,2207.000
0.349,1828.500,1685.500,1752.500,2207.500
0.350,1828.000,1685.500,1752.000,2208.000
0.351,1827.000,1685.500,1752.000,2208.500
0.352,1826.000,1686.000,1753.000,2209.000
0.353,1824.500,1686.500,1754.000,2209.500
0.354,1823.000,1686.500,1755.000,2210.000
0.355,1821.500,1686.500,1756.000,2210.000
0.356,1820.000,1685.500,1757.000,2209.000
0.357,1819.500,1684.500,1757.000,2208.000
0.358,1819.500,1683.500,1757.000,2206.000
0.359,1820.000,1682.000,1755.500,2203.500
0.360,1821.000,1681.000,1754.000,2201.000
0.361,1822.000,1679.500,1752.000,2199.000
0.362,1823.000,1678.500,1750.500,2197.000
0.363,1823.500,1678.000,1749.000,2196.000
0.364,1824.000,1678.000,1748.500,2195.000
0.365,1824.500,1677.500,1748.500,2195.000
0.366,1824.500,1678.000,1748.500,2195.500
0.367,1825.000,1678.000,1749.500,2196.500
0.368,1825.500,1678.500,1750.000,2197.500
0.369,1825.500,1679.500,1751.500,2199.000
0.370,1826.000,1680.500,1753.000,2200.500
0.371,1826.000,1682.000,1754.500,2202.000
0.372,1825.500,1683.000,1756.500,2204.000
0.373,1824.500,1684.000,1758.000,2205.500
0.374,1823.500,1684.000,1758.500,2206.500
0.375,1822.500,1684.000,1758.500,2206.500
0.376,1821.500,1683.000,1758.000,2205.500
0.377,1820.500,1681.500,1756.000,2204.000
0.378,1820.000,1679.500,1753.500,2201.500
0.379,1820.000,1677.500,1750.500,2198.500
0.380,1820.500,1676.000,1748.000,2196.000
0.381,1821.000,1674.500,1745.500,2194.000
0.382,1822.000,1673.500,1744.000,2192.500
0.383,1822.000,1672.500,1743.000,2191.000
0.384,1822.500,1672.000,1742.500,2190.500
0.385,1822.000,1671.500,1742.000,2189.500
0.386,1822.000,1670.500,1741.500,2189.000
0.387,1821.500,1670.500,1741.500,2188.500
0.388,1821.000,1670.000,1742.000,2188.500
0.389,1821.000,1670.500,1742.500,2189.000
0.390,1820.500,1671.000,1744.000,2190.000
0.391,1820.500,1672.000,1745.000,2191.500
0.392,1820.000,1673.000,1746.500,2192.500
0.393,1819.000,1673.500,1748.000,2194.000
0.394,1817.500,1673.500,1748.500,2195.000
0.395,1816.500,1673.000,1748.500,2195.000
0.396,1815.000,1671.500,1747.000,2194.500
0.397,1814.000,1670.000,1745.000,2193.000
0.398,1813.500,1668.000,1742.500,2191.000
0.399,1813.500,1666.000,1740.000,2188.500
0.400,1814.000,1664.000,1737.500,2186.000
0.401,1814.500,1663.000,1736.000,2184.500
0.402,1815.500,1662.500,1735.000,2183.000
0.403,1816.500,1662.500,1735.000,2182.500
0.404,1817.000,1662.500,1735.500,2182.500
0.405,1817.500,1662.500,1735.500,2183.000
0.406,1817.500,1661.500,1735.000,2183.000
0.407,1816.500,1660.000,1734.000,2182.500
0.408,1815.500,1657.500,1733.000,2182.500
0.409,1814.000,1656.000,1732.000,2183.000
0.410,1812.500,1655.000,1731.500,2183.000
0.411,1811.500,1655.000,1732.500,2184.000
0.412,1810.500,1656.000,1734.000,2185.500
0.413,1809.500,1658.000,1736.000,2187.000
0.414,1808.500,1660.000,1738.000,2188.000
0.415,1808.000,1661.500,1739.500,2188.500
0.416,1807.500,1662.500,1740.000,2189.000
0.417,1807.500,1663.000,1739.500,2188.000
0.418,1808.000,1663.000,1738.000,2187.000
0.419,1809.000,1662.000,1735.500,2185.500
0.420,1809.500,1660.500,1732.000,2183.000
0.421,1810.000,1658.000,1728.500,2179.500
0.422,1809.500,1656.000,1724.500,2176.000
0.423,1809.000,1653.500,1721.000,2172.000
0.424,1807.500,1651.000,1718.000,2167.500
0.425,1806.500,1649.500,1716.000,2164.000
0.426,1805.500,1648.000,1715.000,2161.000
0.427,1805.000,1647.500,1715.000,2160.000
0.428,1804.000,1647.500,1716.000,2160.500
0.429,1803.500,1648.000,1718.000,2162.000
0.430,1803.000,1648.500,1720.500,2163.500
0.431,1802.500,1649.500,1723.000,2166.000
0.432,1802.500,1650.500,1726.000,2168.000
0.433,1802.000,1652.000,1729.000,2171.000
0.434,1801.500,1653.000,1731.500,2173.000
0.435,1801.000,1653.500,1733.000,2174.500
0.436,1801.000,1653.000,1733.000,2174.500
0.437,1800.000,1652.000,1732.000,2173.000
0.438,1799.500,1649.500,1729.500,2170.500
0.439,1799.000,1646.500,1726.000,2167.500
0.440,1799.000,1644.000,1722.500,2164.000
0.441,1798.500,1641.500,1719.000,2161.500
0.442,1798.500,1639.500,1717.000,2159.000
0.443,1798.500,1638.500,1715.500,2158.000
0.444,1799.000,1638.000,1715.000,2157.500
0.445,1799.000,1638.000,1715.000,2158.000
0.446,1799.500,1638.500,1715.500,2159.000
0.447,1799.500,1639.000,1716.500,2160.000
0.448,1800.000,1640.000,1718.000,2161.500
0.449,1800.500,1641.000,1719.000,2162.500
0.450,1800.500,1642.000,1720.500,2163.500
0.451,1799.500,1642.500,1721.500,2163.500
0.452,1798.500,1643.000,1722.000,2163.500
0.453,1796.500,1643.000,1722.500,2163.000
0.454,1794.500,1642.500,1722.500,2163.000
0.455,1792.500,1642.000,1722.000,2162.000
0.456,1791.000,1641.000,1721.500,2161.500
0.457,1790.500,1639.500,1720.000,2160.500
0.458,1790.500,1638.000,1718.500,2159.000
0.459,1791.000,1636.500,1716.000,2157.500
0.460,1792.000,1635.000,1714.000,2155.500
0.461,1793.000,1634.000,1712.000,2154.000
0.462,1794.000,1633.000,1710.500,2153.500
0.463,1795.000,1632.500,1709.500,2153.500
0.464,1796.000,1632.500,1709.500,2153.500
0.465,1797.000,1632.500,1709.500,2154.000
0.466,1797.000,1632.500,1709.500,2154.500
0.467,1796.500,1633.000,1710.000,2154.500
0.468,1796.000,1633.000,1710.000,2155.000
0.469,1795.000,1633.000,1711.000,2155.000
0.470,1794.000,1633.000,1712.000,2155.500
0.471,1793.000,1633.500,1713.000,2156.500
0.472,1792.000,1634.000,1714.500,2157.500
0.473,1790.500,1634.500,1716.000,2159.000
0.474,1789.000,1634.500,1716.500,2159.500
0.475,1787.500,1634.500,1716.500,2159.000
0.476,1786.500,1633.500,1715.000,2158.000
0.477,1785.500,1631.500,1713.000,2155.500
0.478,1785.000,1629.500,1710.500,2153.000
0.479,1785.000,1627.500,1707.500,2149.500
0.480,1785.000,1625.500,1704.500,2146.500
0.481,1786.000,1623.500,1702.000,2144.000
0.482,1787.000,1622.500,1700.500,2142.000
0.483,1787.500,1622.000,1699.000,2141.000
0.484,1788.000,1621.500,1698.500,2140.500
0.485,1788.000,1620.500,1698.500,2140.500
0.486,1787.500,1620.000,1698.500,2141.000
0.487,1787.000,1619.000,1698.500,2141.500
0.488,1786.500,1619.000,1699.500,2142.000
0.489,1786.000,1619.500,1700.500,2143.000
0.490,1786.000,1620.000,1701.500,2144.000
0.491,1785.500,1620.500,1703.000,2145.000
0.492,1784.500,1621.500,1704.000,2146.500
0.493,1783.500,1622.000,1705.500,2147.500
0.494,1782.000,1622.000,1706.500,2148.500
0.495,1781.000,1622.000,1706.500,2148.500
0.496,1780.000,1621.000,1706.000,2147.500
0.497,1779.000,1620.000,1704.500,2146.500
0.498,1779.000,1618.500,1702.500,2144.500
0.499,1779.500,1616.500,1700.500,2142.000
0.500,1780.000,1615.000,1698.000,2140.000
0.501,1781.000,1614.000,1696.000,2138.000
0.502,1782.000,1613.000,1694.500,2136.500
0.503,1783.000,1612.500,1694.000,2136.000
0.504,1783.500,1612.000,1693.000,2135.500
0.505,1783.500,1611.500,1692.500,2135.500
0.506,1783.000,1611.000,1692.000,2135.500
0.507,1783.000,1610.500,1691.500,2135.000
0.508,1782.500,1610.500,1691.000,2135.000
0.509,1781.500,1610.000,1691.000,2135.000
0.510,1781.000,1610.500,1691.000,2135.000
0.511,1780.000,1610.500,1691.500,2135.000
0.512,1779.000,1610.500,1692.500,2135.500
0.513,1777.000,1611.000,1693.500,2135.500
0.514,1775.500,1611.000,1695.000,2136.000
0.515,1774.500,1611.000,1695.500,2135.500
0.516,1773.000,1610.500,1695.000,2135.000
0.517,1772.500,1609.500,1693.500,2133.000
0.518,1772.000,1608.000,1691.000,2131.000
0.519,1772.000,1605.500,1687.500,2128.500
0.520,1772.000,1603.000,1683.500,2126.000
0.521,1772.500,1601.000,1680.500,2124.500
0.522,1773.500,1600.000,1678.500,2123.500
0.523,1774.500,1599.000,1678.000,2123.000
0.524,1775.500,1599.000,1678.000,2123.000
0.525,1776.000,1599.000,1678.500,2123.000
0.526,1776.000,1599.000,1679.000,2123.500
0.527,1775.500,1599.000,1680.000,2123.000
0.528,1775.000,1599.000,1680.500,2123.000
0.529,1774.500,1598.500,1681.500,2122.500
0.530,1774.000,1599.000,1683.000,2123.000
0.531,1773.000,1599.500,1684.500,2124.000
0.532,1772.500,1600.000,1686.500,2125.000
0.533,1771.000,1601.000,1688.000,2127.000
0.534,1770.000,1601.500,1689.500,2128.000
0.535,1769.000,1602.000,1690.000,2128.500
0.536,1768.500,1601.500,1689.500,2128.000
0.537,1768.000,1600.000,1687.500,2126.000
0.538,1767.500,1597.500,1684.500,2123.000
0.539,1767.000,1595.000,1680.500,2120.000
0.540,1767.000,1592.500,1677.000,2117.000
0.541,1767.500,1590.500,1673.500,2114.500
0.542,1768.000,1588.500,1671.000,2113.000
0.543,1768.500,1587.500,1669.500,2112.000
0.544,1768.500,1586.500,1669.000,2112.000
0.545,1769.000,1585.500,1668.500,2112.000
0.546,1769.500,1584.500,1668.500,2112.000
0.547,1769.500,1583.500,1669.000,2112.500
0.548,1769.500,1583.500,1670.000,2113.500
0.549,1769.500,1584.500,1671.500,2115.000
0.550,1769.500,1586.000,1673.500,2117.000
0.551,1769.000,1588.000,1675.500,2119.500
0.552,1768.500,1590.500,1678.500,2122.000
0.553,1767.500,1593.000,1681.000,2124.500
0.554,1767.000,1595.500,1683.000,2126.000
0.555,1766.000,1596.500,1684.500,2127.000
0.556,1765.500,1597.000,1684.500,2126.000
0.557,1764.500,1596.000,1683.500,2124.000
0.558,1764.000,1594.500,1680.500,2120.500
0.559,1763.500,1591.500,1677.000,2116.000
0.560,1763.500,1589.000,1673.500,2112.000
0.561,1763.500,1586.500,1670.000,2109.000
0.562,1763.500,1584.000,1667.500,2106.500
0.563,1764.000,1583.000,1666.000,2105.000
0.564,1764.500,1582.500,1665.000,2104.500
0.565,1765.500,1582.500,1665.000,2104.500
0.566,1767.000,1583.000,1665.000,2104.500
0.567,1767.500,1583.500,1665.500,2105.000
0.568,1768.000,1584.000,1665.500,2105.500
0.569,1768.500,1584.500,1666.000,2106.000
0.570,1768.500,1585.000,1667.000,2107.000
0.571,1769.000,1586.000,1668.500,2108.500
0.572,1769.000,1588.000,1671.500,2110.500
0.573,1769.500,1590.000,1674.500,2113.500
0.574,1769.500,1592.000,1678.000,2116.000
0.575,1769.500,1594.000,1680.500,2118.500
0.576,1770.000,1594.500,1682.000,2119.500
0.577,1770.000,1594.500,1682.000,2119.500
0.578,1770.000,1593.500,1681.000,2118.000
0.579,1769.500,1591.000,1678.000,2115.000
0.580,1769.000,1588.000,1674.500,2111.000
0.581,1768.000,1585.000,1671.000,2107.000
0.582,1766.500,1581.500,1667.000,2103.000
0.583,1765.500,1579.000,1664.500,2099.500
0.584,1764.500,1577.000,1662.500,2097.000
0.585,1763.500,1576.000,1661.500,2095.500
0.586,1763.500,1576.000,1661.000,2095.000
0.587,1763.500,1576.000,1661.500,2095.500
0.588,1763.500,1577.000,1662.500,2097.500
0.589,1764.000,1578.500,1664.000,2099.500
0.590,1764.000,1579.500,1665.500,2102.000
0.591,1763.500,1580.500,1667.000,2104.000
0.592,1762.500,1581.500,1668.000,2105.500
0.593,1761.500,1581.500,1669.000,2106.000
0.594,1759.500,1581.000,1669.000,2106.000
0.595,1758.000,1580.000,1668.500,2105.000
0.596,1756.500,1579.000,1667.500,2104.000
0.597,1755.500,1578.000,1665.500,2102.000
0.598,1755.000,1576.000,1662.500,2099.500
0.599,1755.000,1573.500,1659.500,2096.500
0.600,1755.500,1571.500,1656.500,2094.000
0.601,1756.000,1570.000,1654.500,2092.500
0.602,1756.500,1569.500,1653.500,2092.000
0.603,1757.500,1569.000,1653.000,2092.000
0.604,1758.000,1569.500,1653.000,2092.500
0.605,1758.500,1569.500,1653.500,2093.000
0.606,1758.500,1570.500,1653.500,2093.500
0.607,1759.000,1571.000,1654.500,2094.000
0.608,1759.000,1571.500,1655.500,2095.000
0.609,1759.000,1572.500,1656.500,2095.500
0.610,1759.000,1573.000,1657.500,2096.000
0.611,1758.000,1573.500,1658.000,2097.000
0.612,1757.000,1573.500,1658.500,2097.500
0.613,1755.000,1573.500,1659.000,2097.500
0.614,1753.000,1573.000,1658.500,2097.500
0.615,1751.000,1572.000,1657.500,2096.000
0.616,1749.000,1570.000,1655.500,2094.000
0.617,1747.500,1567.500,1652.500,2091.000
0.618,1747.000,1565.000,1649.500,2087.500
0.619,1746.500,1562.500,1646.000,2084.000
0.620,1746.000,1559.500,1642.500,2080.500
0.621,1746.500,1557.500,1640.000,2078.000
0.622,1746.500,1556.000,1638.500,2077.000
0.623,1747.000,1555.000,1638.000,2076.500
0.624,1747.500,1555.000,1638.000,2077.500
0.625,1748.000,1556.000,1639.000,2079.000
0.626,1748.500,1557.000,1640.000,2081.500
0.627,1749.500,1558.500,1642.000,2084.000
0.628,1750.500,1560.500,1644.500,2087.000
0.629,1751.500,1563.000,1647.500,2090.000
0.630,1752.500,1565.500,1651.000,2094.000
0.631,1753.500,1569.000,1655.000,2098.500
0.632,1754.000,1572.500,1660.000,2103.500
0.633,1754.500,1576.000,1665.500,2109.500
0.634,1754.500,1579.000,1670.000,2115.500
0.635,1755.000,1581.000,1673.500,2120.000
0.636,1755.000,1582.500,1676.000,2123.000
0.637,1756.000,1583.500,1677.500,2125.000
0.638,1757.500,1584.000,1678.500,2126.500
0.639,1759.000,1585.000,1679.500,2128.000
0.640,1761.000,1585.500,1680.500,2130.000
0.641,1763.000,1586.500,1681.500,2132.000
0.642,1764.500,1587.000,1682.500,2133.500
0.643,1765.000,1587.500,1683.500,2135.000
0.644,1765.500,1587.500,1684.000,2136.000
0.645,1765.000,1587.000,1684.000,2136.000
0.646,1764.000,1586.000,1683.000,2135.000
0.647,1762.500,1585.000,1682.000,2133.500
0.648,1761.500,1584.000,1680.500,2132.000
0.649,1760.000,1582.500,1679.500,2130.500
0.650,1759.000,1582.000,1678.500,2129.500
0.651,1758.000,1581.000,1678.000,2128.500
0.652,1757.500,1581.500,1678.000,2128.500
0.653,1759.000,1583.500,1680.000,2129.500
0.654,1762.500,1587.500,1683.500,2131.500
0.655,1768.000,1593.000,1688.000,2134.500
0.656,1775.500,1599.500,1693.000,2137.500
0.657,1784.000,1606.000,1698.000,2140.500
0.658,1793.000,1612.000,1702.000,2143.000
0.659,1801.500,1617.500,1705.500,2145.000
0.660,1809.000,1622.500,1708.000,2147.000
0.661,1816.500,1627.000,1710.500,2149.500
0.662,1823.500,1631.500,1713.500,2152.500
0.663,1830.000,1636.000,1716.000,2156.500
0.664,1835.500,1640.000,1719.500,2160.000
0.665,1840.000,1643.500,1723.000,2163.500
0.666,1843.500,1646.000,1726.500,2166.500
0.667,1846.500,1648.500,1730.000,2170.000
0.668,1849.000,1651.000,1734.000,2173.000
0.669,1851.500,1654.500,1738.500,2177.000
0.670,1853.500,1658.000,1743.500,2181.500
0.671,1855.000,1662.500,1749.500,2186.000
0.672,1857.000,1667.000,1755.000,2191.000
0.673,1858.500,1672.000,1760.000,2195.500
0.674,1860.000,1676.000,1764.500,2199.500
0.675,1861.500,1680.000,1768.000,2203.000
0.676,1863.500,1683.000,1770.000,2205.500
0.677,1865.500,1685.000,1771.000,2207.000
0.678,1868.000,1686.000,1771.000,2207.500
0.679,1870.500,1686.500,1770.500,2207.000
0.680,1873.500,1686.500,1769.500,2206.500
0.681,1877.000,1687.500,1769.500,2206.500
0.682,1880.500,1688.500,1770.500,2206.500
0.683,1884.000,1690.000,1772.000,2207.000
0.684,1887.000,1692.000,1774.000,2208.500
0.685,1889.500,1694.000,1776.500,2210.000
0.686,1892.000,1696.500,1779.000,2212.000
0.687,1894.000,1699.500,1782.500,2214.500
0.688,1896.500,1702.000,1785.500,2217.500
0.689,1899.000,1705.000,1789.000,2221.500
0.690,1901.000,1708.500,1792.500,2226.500
0.691,1903.000,1711.500,1796.000,2231.000
0.692,1904.000,1714.000,1799.000,2235.500
0.693,1904.500,1716.000,1801.000,2239.000
0.694,1905.000,1717.500,1803.000,2241.500
0.695,1904.500,1718.500,1804.000,2242.000
0.696,1904.500,1719.000,1804.000,2241.500
0.697,1904.500,1718.500,1803.500,2240.000
0.698,1905.000,1717.500,1802.500,2238.000
0.699,1905.500,1716.500,1800.500,2235.500
0.700,1906.500,1715.000,1799.000,2233.000
0.701,1908.000,1714.500,1798.500,2232.000
0.702,1910.000,1715.000,1799.000,2232.000
0.703,1912.500,1716.500,1800.500,2234.000
0.704,1915.000,1718.500,1802.500,2236.500
0.705,1918.000,1720.500,1805.000,2239.500
0.706,1920.500,1723.000,1808.000,2241.500
0.707,1923.000,1725.000,1810.000,2243.500
0.708,1924.500,1726.500,1812.000,2244.500
0.709,1925.500,1728.000,1814.000,2246.000
0.710,1926.500,1730.000,1816.000,2247.000
0.711,1927.000,1731.500,1818.500,2249.000
0.712,1927.000,1733.500,1820.500,2251.500
0.713,1927.000,1735.000,1823.000,2254.500
0.714,1927.000,1736.000,1824.500,2257.000
0.715,1926.500,1737.000,1825.500,2258.500
0.716,1926.500,1737.000,1825.500,2259.500
0.717,1927.000,1737.000,1824.500,2259.500
0.718,1927.500,1736.500,1823.500,2258.500
0.719,1928.500,1735.500,1821.500,2257.000
0.720,1929.500,1735.000,1820.000,2255.000
0.721,1931.500,1735.000,1819.000,2254.000
0.722,1933.500,1735.500,1819.000,2253.000
0.723,1936.000,1736.500,1820.000,2253.000
0.724,1938.000,1738.000,1821.000,2253.500
0.725,1939.500,1739.500,1822.500,2254.000
0.726,1941.000,1741.000,1824.000,2255.000
0.727,1942.000,1742.000,1825.500,2256.500
0.728,1942.000,1743.000,1827.000,2258.500
0.729,1942.500,1744.000,1828.500,2260.500
0.730,1942.500,1745.000,1830.500,2263.000
0.731,1942.500,1746.500,1832.500,2265.500
0.732,1942.500,1748.500,1835.500,2268.500
0.733,1943.000,1750.500,1838.500,2271.000
0.734,1944.000,1753.500,1842.000,2274.000
0.735,1945.000,1756.000,1845.000,2276.500
0.736,1947.000,1758.500,1847.500,2279.000
0.737,1948.500,1760.000,1848.500,2280.000
0.738,1950.000,1760.000,1848.500,2279.500
0.739,1950.500,1759.000,1846.500,2277.500
0.740,1951.000,1756.500,1843.500,2274.000
0.741,1950.000,1753.000,1839.000,2270.000
0.742,1948.000,1748.500,1833.500,2265.500
0.743,1945.500,1743.500,1828.500,2261.500
0.744,1943.000,1739.500,1823.500,2258.000
0.745,1941.500,1736.500,1820.500,2255.500
0.746,1941.000,1735.000,1819.000,2254.000
0.747,1941.500,1735.000,1819.000,2254.000
0.748,1943.000,1736.500,1820.000,2255.000
0.749,1944.000,1738.000,1821.500,2257.000
0.750,1945.500,1740.000,1824.000,2259.500
0.751,1946.500,1742.500,1826.500,2262.500
0.752,1946.500,1744.500,1829.500,2265.500
0.753,1946.500,1746.500,1832.000,2269.000
0.754,1946.000,1748.000,1834.000,2271.500
0.755,1945.500,1749.000,1836.000,2273.000
0.756,1946.000,1750.500,1837.000,2273.500
0.757,1948.000,1752.500,1838.500,2273.500
0.758,1951.500,1755.000,1840.500,2273.000
0.759,1955.000,1757.500,1842.000,2272.500
0.760,1958.500,1759.000,1843.000,2272.000
0.761,1961.000,1759.500,1843.500,2271.500
0.762,1963.000,1760.000,1844.000,2272.000
0.763,1965.000,1761.000,1845.000,2273.000
0.764,1966.500,1762.000,1846.500,2275.000
0.765,1968.500,1763.500,1848.500,2277.000
0.766,1970.000,1765.000,1850.000,2279.000
0.767,1971.500,1766.500,1852.000,2281.000
0.768,1972.500,1768.000,1853.500,2282.500
0.769,1973.500,1770.000,1855.000,2284.500
0.770,1974.500,1772.000,1857.000,2286.500
0.771,1975.000,1774.000,1859.000,2288.500
0.772,1975.000,1776.000,1862.000,2291.000
0.773,1975.000,1778.000,1864.500,2293.500
0.774,1975.000,1780.000,1867.000,2296.000
0.775,1974.500,1781.500,1869.000,2297.500
0.776,1975.000,1782.000,1869.500,2298.500
0.777,1975.500,1782.000,1869.500,2298.000
0.778,1976.500,1782.000,1868.500,2297.500
0.779,1978.000,1781.500,1867.000,2296.500
0.780,1980.000,1781.000,1866.000,2296.500
0.781,1982.500,1781.500,1865.500,2296.500
0.782,1985.000,1782.500,1866.000,2297.500
0.783,1988.000,1784.000,1867.000,2299.000
0.784,1990.500,1786.000,1868.500,2300.500
0.785,1993.500,1788.500,1870.000,2302.500
0.786,1996.000,1790.500,1871.500,2304.000
0.787,1998.000,1792.000,1872.500,2305.500
0.788,1999.500,1793.500,1873.000,2307.000
0.789,2000.500,1795.000,1874.500,2309.000
0.790,2001.500,1797.000,1876.000,2311.000
0.791,2002.500,1799.000,1879.000,2313.500
0.792,2003.000,1801.500,1882.500,2316.500
0.793,2004.000,1804.500,1886.500,2320.000
0.794,2005.000,1807.000,1891.000,2323.500
0.795,2006.000,1809.500,1895.000,2326.500
0.796,2007.000,1811.000,1898.000,2329.000
0.797,2008.500,1812.000,1900.000,2330.000
0.798,2010.000,1813.000,1901.000,2330.500
0.799,2012.500,1813.500,1901.500,2330.500
0.800,2015.500,1814.500,1902.000,2330.500
0.801,2019.000,1815.000,1902.000,2331.000
0.802,2022.500,1816.500,1903.000,2331.500
0.803,2026.000,1818.000,1904.000,2333.500
0.804,2029.000,1819.500,1906.000,2335.500
0.805,2031.500,1821.000,1907.500,2338.000
0.806,2034.000,1822.500,1909.500,2340.500
0.807,2036.000,1824.500,1912.000,2343.000
0.808,2037.500,1827.000,1914.500,2345.500
0.809,2039.500,1829.500,1916.500,2348.500
0.810,2041.000,1832.500,1919.500,2352.000
0.811,2042.500,1836.000,1922.500,2355.000
0.812,2044.000,1840.500,1926.500,2358.500
0.813,2045.500,1845.000,1930.500,2362.000
0.814,2047.000,1849.500,1934.000,2365.000
0.815,2049.000,1853.000,1937.000,2368.000
0.816,2051.500,1856.000,1939.000,2369.500
0.817,2054.000,1858.000,1941.000,2371.000
0.818,2057.000,1859.500,1942.000,2371.500
0.819,2060.500,1861.000,1943.000,2372.000
0.820,2064.500,1862.000,1943.500,2372.500
0.821,2068.500,1863.500,1945.000,2373.500
0.822,2072.500,1865.500,1947.000,2375.000
0.823,2076.500,1868.000,1950.000,2378.000
0.824,2080.500,1871.000,1953.500,2381.500
0.825,2084.000,1874.000,1957.000,2385.000
0.826,2087.000,1877.000,1960.500,2389.000
0.827,2089.500,1880.000,1963.500,2392.500
0.828,2091.500,1882.500,1966.500,2396.000
0.829,2093.500,1885.000,1969.000,2399.000
0.830,2095.500,1888.500,1972.500,2403.000
0.831,2097.500,1892.000,1976.500,2407.000
0.832,2099.000,1895.500,1980.500,2411.000
0.833,2101.000,1899.000,1985.000,2415.500
0.834,2102.000,1902.000,1989.000,2420.000
0.835,2103.500,1904.500,1992.500,2423.500
0.836,2104.500,1906.500,1994.500,2425.500
0.837,2106.500,1908.000,1996.000,2427.000
0.838,2108.500,1909.500,1997.000,2427.000
0.839,2111.500,1910.500,1997.500,2427.000
0.840,2114.500,1911.500,1998.000,2427.000
0.841,2118.000,1913.000,1998.500,2427.500
0.842,2121.500,1915.000,2000.000,2428.500
0.843,2125.000,1917.000,2002.000,2430.500
0.844,2128.500,1919.500,2004.500,2432.500
0.845,2131.500,1922.500,2007.000,2435.500
0.846,2134.500,1925.500,2010.000,2438.000
0.847,2137.500,1928.500,2013.500,2441.500
0.848,2140.000,1932.000,2016.500,2444.500
0.849,2142.500,1935.000,2019.500,2447.500
0.850,2144.500,1938.000,2023.000,2450.000
0.851,2146.000,1941.000,2026.000,2453.000
0.852,2147.000,1944.000,2029.500,2456.000
0.853,2148.000,1946.500,2032.500,2458.500
0.854,2148.500,1949.000,2035.000,2461.000
0.855,2149.000,1950.500,2037.000,2463.000
0.856,2149.500,1952.000,2038.500,2464.500
0.857,2151.000,1953.000,2039.000,2465.500
0.858,2152.500,1953.500,2039.000,2465.500
0.859,2155.000,1954.500,2038.500,2465.500
0.860,2158.000,1955.000,2038.500,2466.000
0.861,2160.500,1956.000,2039.000,2466.500
0.862,2163.500,1957.000,2039.500,2468.500
0.863,2166.000,1958.500,2041.000,2471.000
0.864,2168.500,1960.000,2043.000,2474.000
0.865,2171.000,1962.000,2044.500,2477.000
0.866,2173.500,1963.500,2046.000,2479.500
0.867,2175.500,1965.500,2048.000,2481.500
0.868,2177.500,1967.500,2050.000,2483.500
0.869,2179.500,1970.000,2052.500,2485.000
0.870,2181.000,1972.500,2055.000,2487.000
0.871,2182.000,1975.000,2058.000,2489.000
0.872,2182.500,1977.500,2061.000,2491.500
0.873,2182.500,1979.500,2064.000,2494.000
0.874,2182.500,1981.500,2066.500,2496.000
0.875,2182.500,1982.500,2068.500,2497.500
0.876,2183.000,1983.500,2070.000,2498.500
0.877,2184.000,1984.000,2070.000,2498.500
0.878,2186.000,1984.500,2070.000,2498.500
0.879,2188.000,1984.500,2069.500,2497.500
0.880,2190.000,1985.000,2069.000,2496.500
0.881,2192.000,1985.000,2068.500,2495.500
0.882,2194.500,1986.000,2068.000,2495.000
0.883,2196.500,1987.000,2068.500,2495.000
0.884,2199.000,1988.000,2069.000,2496.000
0.885,2201.000,1989.500,2070.500,2497.500
0.886,2202.500,1991.500,2072.000,2499.500
0.887,2204.500,1993.500,2074.500,2501.500
0.888,2206.000,1996.000,2076.500,2504.000
0.889,2207.500,1998.500,2079.500,2506.500
0.890,2209.000,2001.000,2082.000,2509.000
0.891,2210.000,2003.500,2085.000,2512.000
0.892,2211.000,2006.500,2088.000,2514.500
0.893,2212.000,2008.500,2091.000,2517.000
0.894,2212.000,2010.500,2093.000,2518.500
0.895,2212.500,2011.500,2094.500,2519.000
0.896,2212.500,2011.500,2094.000,2518.500
0.897,2212.500,2010.500,2093.000,2518.000
0.898,2213.000,2009.500,2091.500,2516.500
0.899,2214.000,2008.000,2089.500,2515.500
0.900,2216.000,2007.500,2088.000,2514.500
0.901,2218.000,2007.500,2087.500,2514.500
0.902,2220.500,2008.500,2088.000,2515.000
0.903,2223.000,2009.500,2089.000,2516.000
0.904,2225.000,2011.000,2090.500,2517.500
0.905,2227.500,2013.000,2092.000,2519.000
0.906,2229.500,2015.000,2093.500,2520.500
0.907,2231.000,2017.000,2095.500,2522.000
0.908,2233.000,2018.500,2097.000,2523.500
0.909,2234.000,2020.500,2099.000,2525.500
0.910,2235.500,2022.500,2101.500,2527.500
0.911,2236.500,2025.000,2104.000,2530.500
0.912,2237.000,2027.000,2106.500,2533.000
0.913,2237.000,2029.000,2108.500,2535.500
0.914,2236.000,2030.000,2110.500,2537.000
0.915,2235.000,2030.500,2111.500,2537.500
0.916,2234.000,2030.500,2111.500,2537.500
0.917,2234.000,2029.500,2111.000,2536.500
0.918,2234.500,2029.000,2110.000,2535.000
0.919,2236.000,2028.500,2109.000,2533.500
0.920,2237.500,2028.500,2108.500,2531.500
0.921,2240.000,2028.500,2108.000,2530.500
0.922,2242.000,2029.000,2108.000,2529.500
0.923,2244.000,2030.000,2108.000,2529.000
0.924,2246.000,2031.000,2109.000,2529.500
0.925,2247.500,2032.000,2110.000,2530.500
0.926,2249.000,2033.500,2110.500,2532.000
0.927,2250.000,2035.000,2111.500,2534.000
0.928,2251.000,2036.000,2112.000,2535.500
0.929,2251.500,2037.000,2112.500,2537.000
0.930,2251.500,2038.000,2113.500,2539.000
0.931,2251.500,2039.000,2114.500,2540.500
0.932,2251.000,2040.000,2116.000,2542.500
0.933,2250.000,2041.000,2117.500,2544.500
0.934,2249.000,2041.500,2119.000,2545.500
0.935,2248.500,2041.500,2120.000,2546.500
0.936,2247.500,2041.000,2120.000,2546.000
0.937,2247.000,2040.500,2119.500,2545.000
0.938,2247.500,2039.500,2118.500,2543.500
0.939,2248.500,2038.500,2117.500,2541.500
0.940,2250.000,2038.000,2116.000,2540.000
0.941,2251.500,2037.500,2115.500,2539.000
0.942,2253.500,2038.000,2115.500,2538.500
0.943,2255.500,2038.500,2115.500,2538.500
0.944,2257.500,2038.500,2116.000,2538.500
0.945,2258.500,2039.000,2116.500,2539.000
0.946,2259.000,2038.500,2116.500,2539.500
0.947,2259.000,2037.500,2117.000,2540.000
0.948,2259.000,2037.500,2117.500,2541.000
0.949,2258.500,2038.000,2119.000,2542.500
0.950,2258.500,2039.000,2121.000,2544.000
0.951,2258.500,2041.500,2123.500,2546.500
0.952,2258.000,2044.000,2126.500,2549.000
0.953,2257.500,2047.000,2129.500,2551.000
0.954,2257.000,2049.000,2132.000,2552.500
0.955,2256.500,2051.000,2133.500,2553.000
0.956,2256.500,2052.000,2134.000,2552.500
0.957,2256.500,2052.500,2133.500,2551.500
0.958,2257.000,2052.000,2132.000,2549.500
0.959,2257.500,2050.500,2130.000,2547.000
0.960,2258.500,2049.500,2127.500,2544.500
0.961,2260.000,2048.000,2125.500,2543.000
0.962,2261.000,2047.000,2123.500,2541.500
0.963,2262.000,2046.000,2122.500,2540.500
0.964,2263.000,2046.000,2121.500,2540.000
0.965,2264.000,2046.000,2121.500,2540.500
0.966,2264.500,2046.500,2121.500,2541.000
0.967,2265.000,2047.000,2122.500,2541.500
0.968,2265.500,2048.000,2123.000,2542.500
0.969,2265.500,2048.500,2124.000,2543.500
0.970,2265.500,2049.500,2125.500,2545.500
0.971,2265.000,2050.500,2127.000,2547.500
0.972,2265.000,2052.000,2129.000,2549.500
0.973,2264.000,2053.000,2131.000,2552.000
0.974,2263.000,2053.500,2132.000,2553.500
0.975,2261.500,2053.000,2132.500,2554.000
0.976,2260.000,2052.000,2132.000,2553.500
0.977,2258.500,2050.500,2130.500,2552.000
0.978,2257.500,2049.000,2128.500,2550.000
0.979,2257.500,2047.000,2126.500,2548.000
0.980,2258.500,2046.000,2124.000,2546.000
0.981,2259.500,2045.000,2122.000,2545.000
0.982,2261.500,2045.500,2121.500,2544.500
0.983,2264.000,2046.500,2121.500,2545.000
0.984,2266.000,2047.500,2122.000,2545.500
0.985,2267.500,2049.000,2123.000,2545.500
0.986,2268.000,2049.500,2123.500,2545.500
0.987,2268.000,2049.500,2124.000,2545.000
0.988,2267.000,2049.000,2124.000,2544.500
0.989,2266.000,2048.500,2123.500,2544.500
0.990,2265.000,2048.500,2124.000,2544.500
0.991,2264.500,2049.000,2125.500,2545.500
0.992,2264.000,2050.000,2127.500,2547.000
0.993,2263.500,2051.500,2130.000,2549.000
0.994,2263.000,2053.000,2131.500,2550.500
0.995,2262.000,2053.500,2132.500,2551.500
0.996,2261.000,2053.000,2132.000,2550.500
0.997,2260.500,2052.000,2130.500,2549.000
0.998,2260.000,2050.500,2128.000,2546.500
0.999,2260.500,2048.500,2125.500,2544.000
1.000,2261.000,2047.000,2123.000,2541.500
1.001,2262.000,2045.500,2121.000,2539.500
1.002,2263.500,2044.500,2119.500,2538.500
1.003,2264.500,2044.000,2118.500,2538.000
1.004,2265.500,2044.000,2118.500,2538.500
1.005,2266.500,2044.500,2118.500,2539.000
1.006,2267.500,2045.000,2119.000,2540.000
1.007,2268.000,2045.500,2120.000,2541.000
1.008,2269.000,2046.500,2120.500,2542.500
1.009,2269.000,2047.000,2121.000,2544.000
1.010,2269.000,2048.000,2121.000,2545.500
1.011,2268.500,2048.500,2121.000,2546.500
1.012,2267.500,2049.000,2120.500,2547.500
1.013,2266.500,2049.500,2120.500,2548.000
1.014,2264.500,2049.500,2120.500,2547.500
1.015,2263.000,2048.500,2120.000,2546.000
1.016,2261.500,2047.500,2119.000,2543.500
1.017,2260.500,2046.000,2118.000,2541.000
1.018,2260.000,2044.500,2117.000,2538.000
1.019,2260.500,2043.000,2116.000,2535.500
1.020,2261.000,2041.500,2115.500,2534.000
1.021,2262.000,2041.000,2115.500,2533.000
1.022,2263.000,2041.000,2115.500,2533.000
1.023,2263.500,2041.000,2116.000,2533.000
1.024,2264.500,2041.500,2116.000,2533.000
1.025,2265.000,2042.000,2116.500,2533.000
1.026,2265.500,2042.500,2116.500,2533.000
1.027,2266.000,2043.000,2116.500,2533.000
1.028,2266.500,2044.000,2117.500,2534.000
1.029,2267.000,2045.000,2118.500,2535.500
1.030,2267.500,2046.500,2120.000,2537.500
1.031,2268.000,2048.000,2122.000,2539.500
1.032,2267.500,2049.500,2124.000,2542.000
1.033,2266.500,2050.500,2126.000,2544.000
1.034,2265.000,2051.000,2127.000,2545.000
1.035,2263.000,2050.500,2127.000,2545.000
1.036,2261.000,2049.500,2126.000,2544.500
1.037,2260.000,2048.000,2124.500,2542.500
1.038,2260.000,2047.000,2123.000,2540.500
1.039,2260.500,2045.500,2121.000,2538.000
1.040,2261.000,2044.500,2119.000,2535.500
1.041,2262.500,2044.000,2117.500,2533.500
1.042,2264.000,2043.500,2116.000,2532.000
1.043,2265.000,2043.500,2115.000,2531.500
1.044,2266.000,2044.000,2115.000,2531.500
1.045,2267.000,2044.500,2115.000,2532.000
1.046,2267.500,2045.000,2115.500,2533.000
1.047,2267.500,2046.000,2115.500,2534.000
1.048,2267.500,2046.000,2115.500,2534.500
1.049,2267.500,2046.500,2116.000,2534.500
1.050,2267.000,2047.000,2116.000,2535.000
1.051,2266.500,2047.500,2117.000,2535.500
1.052,2265.500,2048.000,2118.000,2536.500
1.053,2264.000,2048.000,2118.500,2537.500
1.054,2262.000,2047.500,2119.000,2538.500
1.055,2260.000,2046.500,2118.500,2538.500
1.056,2258.500,2045.000,2117.500,2537.500
1.057,2257.500,2043.500,2116.000,2536.500
1.058,2257.000,2042.000,2114.000,2534.500
1.059,2257.000,2040.000,2112.000,2532.500
1.060,2257.500,2038.500,2110.000,2530.000
1.061,2258.000,2037.000,2108.000,2528.000
1.062,2259.000,2036.500,2106.500,2526.500
1.063,2260.000,2036.000,2106.000,2525.500
1.064,2261.000,2036.500,2105.500,2525.000
1.065,2262.000,2037.500,2106.000,2525.500
1.066,2263.500,2039.000,2107.500,2526.500
1.067,2264.000,2040.500,2109.000,2527.500
1.068,2265.000,2042.000,2111.000,2529.000
1.069,2265.500,2043.500,2113.000,2530.500
1.070,2265.500,2044.500,2115.000,2532.500
1.071,2265.000,2046.000,2117.500,2535.000
1.072,2264.000,2047.500,2120.000,2537.000
1.073,2263.500,2049.000,2123.000,2539.500
1.074,2262.500,2050.000,2125.000,2541.500
1.075,2261.500,2050.500,2126.000,2542.500
1.076,2260.500,2050.000,2126.000,2542.500
1.077,2260.000,2048.500,2124.000,2541.000
1.078,2259.500,2046.000,2121.000,2539.000
1.079,2259.000,2043.000,2117.500,2536.000
1.080,2259.500,2039.500,2114.000,2533.500
1.081,2259.500,2036.500,2111.000,2531.500
1.082,2259.500,2034.000,2108.500,2530.000
1.083,2260.000,2032.500,2107.000,2529.500
1.084,2260.500,2032.000,2105.500,2529.000
1.085,2261.000,2032.000,2104.500,2528.500
1.086,2261.000,2032.500,2103.500,2528.500
1.087,2261.500,2033.500,2103.000,2528.500
1.088,2261.500,2034.500,2103.000,2528.000
1.089,2262.000,2036.000,2104.000,2527.500
1.090,2262.000,2038.000,2105.500,2527.500
1.091,2262.000,2040.000,2107.500,2527.500
1.092,2262.000,2042.000,2110.000,2528.500
1.093,2262.000,2044.000,2112.500,2529.500
1.094,2261.000,2045.500,2115.000,2531.000
1.095,2260.500,2046.000,2116.500,2532.000
1.096,2260.500,2046.500,2117.000,2532.000
1.097,2260.500,2046.000,2117.000,2532.000
1.098,2261.000,2045.000,2116.000,2531.500
1.099,2262.000,2044.000,2114.500,2530.500
1.100,2263.500,2043.500,2113.000,2529.000
1.101,2264.500,2042.500,2111.000,2528.000
1.102,2265.500,2041.500,2109.500,2526.500
1.103,2265.500,2040.500,2108.500,2524.500
1.104,2265.500,2039.500,2107.500,2523.000
1.105,2265.000,2039.000,2106.000,2521.000
1.106,2264.500,2038.000,2105.500,2519.000
1.107,2264.000,2037.500,2104.500,2517.500
1.108,2263.000,2037.000,2104.500,2516.500
1.109,2262.500,2037.000,2104.500,2516.500
1.110,2262.000,2037.000,2105.500,2517.500
1.111,2261.500,2038.000,2107.000,2519.000
1.112,2260.500,2038.500,2108.500,2520.500
1.113,2259.500,2039.500,2110.000,2522.500
1.114,2258.000,2040.000,2111.000,2523.500
1.115,2257.000,2040.500,2111.500,2524.000
1.116,2255.500,2040.000,2111.000,2523.000
1.117,2254.500,2039.000,2109.500,2520.500
1.118,2254.000,2037.500,2107.000,2517.500
1.119,2253.500,2035.500,2104.000,2514.500
1.120,2254.000,2033.500,2101.000,2511.000
1.121,2254.500,2031.500,2098.000,2508.500
1.122,2255.000,2030.500,2096.000,2506.500
1.123,2256.000,2029.500,2094.500,2505.500
1.124,2256.500,2029.000,2093.000,2505.000
1.125,2257.000,2029.000,2092.500,2505.500
1.126,2257.500,2029.000,2092.500,2506.500
1.127,2257.500,2029.500,2093.000,2508.500
1.128,2258.000,2030.000,2093.500,2510.000
1.129,2257.500,2030.500,2094.000,2511.500
1.130,2257.000,2031.000,2094.500,2512.500
1.131,2256.000,2031.500,2095.500,2513.000
1.132,2254.500,2032.000,2096.500,2514.000
1.133,2253.000,2032.500,2098.000,2514.500
1.134,2251.500,2032.500,2099.000,2515.500
1.135,2250.500,2033.000,2100.000,2516.000
1.136,2250.000,2033.000,2100.500,2516.000
1.137,2250.000,2033.000,2100.000,2515.500
1.138,2250.000,2032.000,2099.000,2514.000
1.139,2250.500,2031.000,2097.000,2511.500
1.140,2250.500,2029.500,2094.500,2509.500
1.141,2251.000,2028.000,2092.500,2507.000
1.142,2251.500,2027.000,2090.500,2505.000
1.143,2252.000,2025.500,2088.500,2503.000
1.144,2251.500,2024.500,2087.000,2501.500
1.145,2251.500,2024.000,2085.500,2500.500
1.146,2251.000,2023.500,2085.000,2500.000
1.147,2251.000,2023.500,2085.500,2500.000
1.148,2251.000,2024.000,2086.000,2500.500
1.149,2251.000,2025.000,2087.500,2501.500
1.150,2250.500,2026.000,2089.000,2503.000
1.151,2250.000,2027.500,2091.000,2505.000
1.152,2249.000,2028.000,2092.500,2506.500
1.153,2247.500,2028.500,2093.500,2508.000
1.154,2246.000,2028.500,2094.000,2508.500
1.155,2244.500,2028.000,2093.500,2508.000
1.156,2243.000,2027.000,2091.500,2506.500
1.157,2242.000,2025.000,2088.000,2504.500
1.158,2241.500,2023.000,2084.000,2501.500
1.159,2241.500,2020.500,2080.500,2498.500
1.160,2242.000,2018.500,2077.000,2496.000
1.161,2242.500,2017.500,2075.000,2494.000
1.162,2243.500,2017.000,2074.500,2493.500
1.163,2244.000,2017.000,2075.000,2493.500
1.164,2245.000,2018.000,2077.000,2494.000
1.165,2245.500,2019.500,2079.000,2495.000
1.166,2246.500,2021.500,2082.000,2496.000
1.167,2247.000,2023.000,2084.500,2496.500
1.168,2247.000,2024.000,2086.000,2496.500
1.169,2246.500,2024.000,2087.000,2496.000
1.170,2245.000,2023.000,2086.000,2494.000
1.171,2242.000,2020.500,2083.500,2492.000
1.172,2237.500,2017.000,2079.500,2488.500
1.173,2232.500,2012.500,2074.500,2484.500
1.174,2227.000,2007.000,2069.000,2480.000
1.175,2221.500,2001.000,2062.500,2475.000
1.176,2216.500,1995.500,2056.000,2470.000
1.177,2213.000,1990.500,2050.000,2465.500
1.178,2211.000,1986.000,2044.500,2460.500
1.179,2210.000,1982.000,2039.000,2456.500
1.180,2209.500,1979.000,2035.000,2452.500
1.181,2210.000,1977.500,2032.000,2450.500
1.182,2211.000,1977.000,2031.500,2450.500
1.183,2212.500,1978.500,2032.500,2452.500
1.184,2214.500,1981.000,2035.500,2456.000
1.185,2217.500,1984.500,2040.000,2461.000
1.186,2220.500,1989.500,2045.500,2467.000
1.187,2224.000,1995.000,2052.500,2474.000
1.188,2228.500,2001.500,2060.000,2482.000
1.189,2233.000,2008.500,2068.000,2490.500
1.190,2236.500,2015.500,2076.500,2499.000
1.191,2239.500,2022.000,2084.000,2507.500
1.192,2241.000,2027.000,2091.000,2515.000
1.193,2241.000,2031.000,2096.000,2521.500
1.194,2240.500,2033.000,2100.000,2526.500
1.195,2239.500,2034.500,2103.000,2530.500
1.196,2238.500,2035.000,2104.000,2532.500
1.197,2237.500,2034.500,2104.000,2533.000
1.198,2236.500,2033.000,2102.500,2531.500
1.199,2235.000,2030.500,2099.500,2529.000
1.200,2233.500,2027.000,2095.500,2525.500
1.201,2231.500,2023.500,2091.000,2521.500
1.202,2230.000,2020.500,2086.500,2517.500
1.203,2228.500,2017.500,2082.000,2513.500
1.204,2227.000,2014.500,2078.500,2510.000
1.205,2225.500,2012.500,2075.500,2506.500
1.206,2224.500,2010.500,2073.000,2503.000
1.207,2224.500,2009.500,2071.500,2500.500
1.208,2224.500,2009.000,2070.500,2498.000
1.209,2225.000,2009.000,2070.500,2496.000
1.210,2225.500,2010.000,2070.500,2494.000
1.211,2226.500,2010.500,2071.000,2492.000
1.212,2226.500,2011.500,2071.000,2489.500
1.213,2226.000,2011.500,2071.000,2486.500
1.214,2225.500,2011.500,2070.000,2483.000
1.215,2224.000,2011.000,2068.000,2480.500
1.216,2223.000,2010.000,2066.000,2477.500
1.217,2222.000,2008.500,2064.000,2475.500
1.218,2222.000,2007.000,2061.000,2473.000
1.219,2221.500,2005.000,2058.500,2470.500
1.220,2221.500,2002.500,2055.000,2467.500
1.221,2221.500,2000.500,2052.500,2465.000
1.222,2221.500,1998.500,2049.500,2463.000
1.223,2221.000,1997.000,2047.500,2460.500
1.224,2220.000,1995.500,2045.500,2458.500
1.225,2219.000,1994.000,2044.000,2456.500
1.226,2218.000,1993.000,2042.500,2454.500
1.227,2216.500,1992.000,2041.000,2453.500
1.228,2215.000,1991.500,2040.500,2453.000
1.229,2214.000,1991.500,2040.000,2453.000
1.230,2213.000,1991.000,2039.500,2453.500
1.231,2211.500,1991.000,2039.500,2455.000
1.232,2210.000,1990.500,2039.000,2456.000
1.233,2208.000,1990.000,2039.000,2456.500
1.234,2205.000,1988.000,2038.000,2456.000
1.235,2202.500,1985.500,2036.500,2455.000
1.236,2200.000,1982.500,2034.500,2452.500
1.237,2197.500,1980.000,2031.500,2450.000
1.238,2196.500,1977.500,2029.000,2447.000
1.239,2195.500,1975.500,2026.000,2444.000
1.240,2195.000,1974.500,2023.500,2441.000
1.241,2195.000,1973.500,2021.000,2438.500
1.242,2195.500,1973.500,2020.000,2436.000
1.243,2196.000,1974.500,2019.500,2434.500
1.244,2196.500,1975.500,2020.000,2433.500
1.245,2197.000,1977.000,2021.500,2433.500
1.246,2198.000,1978.500,2022.500,2433.500
1.247,2198.500,1979.500,2024.000,2433.500
1.248,2199.000,1980.500,2025.500,2434.000
1.249,2199.500,1982.000,2027.000,2434.500
1.250,2199.500,1983.000,2029.000,2436.000
1.251,2199.000,1983.500,2030.500,2437.000
1.252,2198.000,1984.000,2031.500,2438.000
1.253,2196.000,1984.000,2032.000,2439.000
1.254,2193.500,1983.000,2032.000,2439.000
1.255,2191.500,1981.500,2030.500,2438.500
1.256,2189.500,1979.500,2029.000,2436.500
1.257,2188.500,1977.500,2026.500,2434.500
1.258,2188.000,1975.500,2024.000,2432.000
1.259,2188.000,1973.500,2021.500,2429.500
1.260,2188.500,1972.000,2018.500,2427.500
1.261,2189.000,1971.000,2016.000,2425.500
1.262,2190.000,1970.000,2014.500,2424.500
1.263,2190.500,1969.000,2013.000,2424.000
1.264,2191.000,1968.500,2011.500,2423.000
1.265,2191.000,1967.500,2010.500,2422.500
1.266,2190.500,1966.500,2009.000,2422.000
1.267,2189.500,1966.000,2008.500,2422.000
1.268,2189.000,1965.500,2008.000,2422.000
1.269,2188.000,1965.500,2008.500,2422.500
1.270,2187.000,1966.000,2009.500,2423.500
1.271,2186.000,1966.500,2010.500,2424.500
1.272,2184.500,1967.000,2011.500,2425.500
1.273,2183.000,1968.000,2012.500,2426.500
1.274,2181.500,1968.000,2013.000,2426.500
1.275,2180.000,1968.000,2013.000,2425.500
1.276,2178.500,1967.000,2012.500,2424.000
1.277,2177.500,1966.000,2011.000,2421.500
1.278,2177.000,1964.000,2008.500,2418.500
1.279,2176.000,1961.500,2005.500,2415.000
1.280,2176.000,1959.500,2002.000,2411.500
1.281,2176.000,1957.500,1999.500,2408.500
1.282,2176.500,1956.000,1997.500,2406.500
1.283,2177.000,1955.000,1997.000,2405.500
1.284,2177.500,1954.500,1996.500,2405.000
1.285,2177.500,1954.500,1996.500,2405.000
1.286,2177.500,1954.000,1997.000,2405.500
1.287,2177.000,1954.000,1997.000,2406.000
1.288,2176.500,1953.500,1996.500,2406.500
1.289,2175.500,1953.000,1996.500,2407.000
1.290,2174.500,1953.000,1997.000,2407.500
1.291,2174.000,1953.500,1998.000,2409.000
1.292,2173.000,1954.000,1999.000,2410.500
1.293,2171.500,1954.500,2000.000,2412.000
1.294,2169.500,1954.500,2001.000,2413.000
1.295,2168.000,1954.500,2001.000,2413.000
1.296,2166.500,1954.000,2000.500,2412.000
1.297,2165.500,1953.000,1999.000,2409.000
1.298,2164.500,1951.000,1996.000,2404.500
1.299,2163.500,1948.500,1992.500,2399.000
1.300,2163.000,1946.000,1989.000,2394.500
1.301,2163.000,1944.000,1985.500,2390.500
1.302,2163.500,1942.500,1982.000,2388.500
1.303,2164.500,1941.500,1979.500,2387.500
1.304,2165.500,1940.500,1977.500,2387.500
1.305,2166.000,1940.500,1975.500,2388.000
1.306,2167.000,1940.000,1974.500,2389.000
1.307,2167.000,1940.000,1974.000,2389.500
1.308,2167.000,1940.500,1974.000,2390.000
1.309,2166.000,1940.000,1974.000,2389.500
1.310,2164.000,1939.500,1974.500,2389.000
1.311,2161.500,1939.000,1975.000,2388.000
1.312,2158.500,1938.000,1975.500,2387.000
1.313,2155.500,1937.500,1977.000,2386.500
1.314,2153.000,1937.000,1978.000,2386.000
1.315,2150.500,1936.500,1978.500,2385.500
1.316,2148.500,1935.500,1978.000,2384.000
1.317,2147.500,1934.000,1976.500,2382.000
1.318,2147.000,1932.500,1974.500,2379.500
1.319,2147.000,1930.500,1971.500,2376.500
1.320,2147.500,1929.000,1968.500,2374.000
1.321,2148.500,1928.000,1966.000,2372.000
1.322,2149.500,1927.000,1964.000,2370.500
1.323,2150.000,1926.500,1962.500,2369.500
1.324,2150.000,1926.000,1961.500,2368.500
1.325,2150.500,1925.500,1961.000,2368.000
1.326,2150.000,1925.000,1960.000,2367.500
1.327,2149.500,1924.500,1959.000,2367.500
1.328,2148.500,1924.000,1958.500,2367.500
1.329,2147.500,1923.500,1958.000,2368.000
1.330,2146.500,1923.500,1958.500,2369.000
1.331,2145.500,1924.000,1959.000,2370.500
1.332,2144.500,1925.000,1960.500,2372.500
1.333,2143.500,1925.500,1962.500,2374.000
1.334,2142.000,1926.000,1964.000,2375.500
1.335,2140.500,1926.000,1964.500,2376.000
1.336,2139.500,1925.500,1965.000,2375.500
1.337,2139.000,1924.500,1964.000,2374.500
1.338,2138.500,1922.500,1962.000,2373.000
1.339,2138.500,1920.000,1959.000,2370.500
1.340,2139.000,1918.000,1956.000,2368.000
1.341,2139.000,1916.000,1953.500,2365.000
1.342,2139.500,1914.500,1951.500,2363.000
1.343,2140.000,1913.500,1950.000,2361.000
1.344,2140.000,1913.000,1949.000,2360.000
1.345,2140.000,1913.000,1948.500,2359.000
1.346,2139.500,1912.500,1947.500,2358.000
1.347,2139.500,1912.500,1946.000,2357.000
1.348,2138.500,1912.000,1945.000,2356.500
1.349,2138.000,1912.000,1944.500,2356.500
1.350,2137.000,1912.500,1945.000,2357.000
1.351,2136.500,1913.500,1946.500,2358.500
1.352,2135.500,1914.500,1948.500,2360.500
1.353,2134.500,1915.500,1951.000,2363.000
1.354,2133.000,1916.000,1953.000,2365.000
1.355,2131.500,1916.000,1954.500,2366.500
1.356,2130.000,1914.500,1954.500,2366.000
1.357,2128.500,1913.000,1953.000,2364.500
1.358,2127.000,1910.500,1950.500,2361.000
1.359,2126.500,1908.000,1947.500,2356.500
1.360,2126.500,1905.000,1943.000,2351.500
1.361,2126.500,1902.500,1939.500,2347.000
1.362,2126.500,1900.500,1936.000,2343.500
1.363,2127.000,1899.000,1933.500,2341.500
1.364,2127.000,1897.500,1931.500,2340.500
1.365,2126.500,1896.000,1930.000,2340.000
1.366,2125.500,1894.000,1928.500,2340.000
1.367,2125.000,1892.500,1927.500,2340.000
1.368,2124.000,1892.000,1927.000,2340.000
1.369,2123.000,1892.000,1927.500,2340.500
1.370,2122.000,1892.500,1928.000,2340.500
1.371,2121.000,1893.500,1929.500,2341.000
1.372,2119.500,1895.000,1931.000,2342.000
1.373,2118.000,1896.500,1933.000,2343.000
1.374,2117.000,1898.000,1935.000,2344.000
1.375,2115.500,1899.500,1937.000,2344.500
1.376,2115.000,1900.500,1937.500,2344.000
1.377,2115.000,1900.500,1937.500,2343.500
1.378,2115.000,1900.000,1936.500,2341.500
1.379,2115.500,1898.500,1934.000,2339.500
1.380,2115.500,1896.500,1931.500,2337.000
1.381,2116.000,1894.500,1929.000,2334.500
1.382,2116.000,1893.000,1927.000,2332.500
1.383,2116.500,1892.000,1925.500,2331.500
1.384,2117.000,1892.000,1925.000,2331.000
1.385,2117.500,1892.000,1925.000,2330.500
1.386,2118.000,1892.000,1925.000,2330.500
1.387,2118.000,1892.500,1924.500,2331.000
1.388,2118.000,1892.500,1924.500,2331.000
1.389,2117.000,1892.500,1925.000,2331.500
1.390,2116.000,1893.000,1925.500,2332.500
1.391,2114.000,1893.500,1926.000,2333.000
1.392,2112.500,1893.500,1927.000,2334.000
1.393,2110.000,1893.500,1928.000,2335.000
1.394,2108.000,1893.500,1928.500,2335.500
1.395,2106.000,1892.500,1928.000,2335.500
1.396,2104.500,1891.500,1927.000,2334.000
1.397,2103.500,1890.000,1925.000,2332.500
1.398,2103.000,1888.000,1922.500,2330.000
1.399,2102.500,1886.000,1920.000,2327.500
1.400,2102.500,1884.500,1917.000,2324.500
1.401,2102.500,1883.000,1915.000,2322.000
1.402,2103.000,1882.000,1913.500,2320.500
1.403,2104.000,1881.500,1912.500,2319.500
1.404,2105.000,1881.500,1911.500,2319.500
1.405,2105.500,1881.000,1910.500,2319.000
1.406,2105.500,1880.500,1909.500,2318.500
1.407,2105.000,1879.500,1908.500,2318.000
1.408,2104.000,1878.500,1907.000,2317.000
1.409,2102.000,1877.000,1905.500,2315.500
1.410,2100.500,1876.500,1905.000,2315.000
1.411,2099.000,1876.000,1905.000,2315.000
1.412,2097.500,1876.000,1906.000,2315.500
1.413,2095.500,1876.500,1907.500,2315.500
1.414,2094.000,1877.000,1909.000,2316.000
1.415,2093.000,1877.000,1909.500,2315.500
1.416,2091.500,1876.500,1909.500,2314.500
1.417,2090.500,1875.500,1908.000,2313.000
1.418,2090.000,1874.000,1905.500,2310.500
1.419,2089.000,1871.500,1902.000,2308.000
1.420,2088.500,1869.000,1898.000,2304.500
1.421,2088.000,1866.000,1894.000,2302.000
1.422,2087.500,1864.000,1891.000,2300.500
1.423,2087.500,1862.500,1888.500,2299.500
1.424,2087.500,1862.000,1887.500,2299.500
1.425,2088.000,1861.500,1886.500,2299.000
1.426,2088.500,1861.500,1886.500,2298.500
1.427,2088.500,1861.500,1886.000,2298.000
1.428,2088.000,1861.500,1886.000,2297.000
1.429,2087.500,1861.000,1886.000,2296.500
1.430,2087.000,1861.500,1887.000,2296.500
1.431,2086.500,1862.000,1888.000,2296.500
1.432,2085.500,1862.500,1890.000,2297.500
1.433,2084.500,1863.500,1891.500,2298.500
1.434,2083.500,1864.000,1893.000,2299.000
1.435,2082.000,1864.000,1893.000,2298.500
1.436,2080.000,1862.500,1892.000,2296.500
1.437,2078.500,1860.500,1889.500,2293.000
1.438,2077.000,1857.500,1886.000,2288.000
1.439,2076.000,1854.500,1882.000,2283.500
1.440,2076.000,1852.000,1878.500,2279.000
1.441,2076.000,1850.500,1875.000,2276.000
1.442,2076.500,1849.000,1873.000,2274.000
1.443,2076.500,1848.000,1871.500,2273.500
1.444,2076.500,1847.500,1870.500,2273.000
1.445,2076.500,1847.500,1869.500,2273.000
1.446,2076.000,1847.500,1869.000,2273.000
1.447,2076.000,1847.500,1868.500,2273.000
1.448,2075.000,1847.500,1868.500,2273.000
1.449,2074.500,1847.500,1868.500,2273.500
1.450,2073.500,1847.000,1868.500,2273.500
1.451,2072.500,1847.000,1869.000,2274.000
1.452,2070.500,1847.000,1869.500,2274.500
1.453,2069.000,1847.000,1870.000,2275.500
1.454,2067.000,1847.000,1871.000,2276.000
1.455,2065.000,1846.500,1870.500,2276.000
1.456,2063.000,1845.500,1870.000,2275.000
1.457,2062.000,1843.500,1868.500,2273.000
1.458,2061.500,1841.500,1866.000,2270.500
1.459,2061.000,1839.000,1863.000,2267.500
1.460,2061.500,1836.500,1859.500,2264.000
1.461,2063.000,1834.500,1856.500,2260.500
1.462,2064.000,1833.000,1854.000,2258.000
1.463,2065.500,1832.000,1851.500,2256.000
1.464,2066.500,1831.500,1850.000,2255.000
1.465,2067.500,1831.000,1848.000,2254.000
1.466,2068.500,1831.000,1847.000,2254.000
1.467,2069.000,1831.000,1846.500,2254.500
1.468,2069.500,1831.500,1846.500,2255.000
1.469,2069.500,1832.000,1847.500,2255.500
1.470,2069.500,1833.000,1848.500,2256.000
1.471,2069.500,1834.000,1850.000,2257.000
1.472,2068.500,1835.000,1852.000,2258.000
1.473,2067.000,1835.500,1854.000,2259.000
1.474,2065.500,1835.500,1855.500,2259.500
1.475,2063.000,1835.000,1856.500,2259.000
1.476,2060.500,1834.000,1856.000,2258.000
1.477,2058.500,1832.500,1854.000,2256.500
1.478,2056.500,1830.000,1851.500,2254.000
1.479,2055.000,1827.500,1847.500,2251.000
1.480,2054.000,1824.500,1843.500,2247.500
1.481,2053.500,1822.000,1839.500,2244.500
1.482,2053.000,1819.500,1836.500,2241.500
1.483,2052.500,1818.000,1834.500,2239.500
1.484,2052.000,1817.000,1833.500,2238.500
1.485,2052.000,1816.500,1832.500,2237.500
1.486,2051.500,1816.000,1832.500,2237.000
1.487,2051.000,1816.000,1833.000,2237.500
1.488,2050.500,1816.000,1833.500,2238.000
1.489,2050.000,1816.000,1835.000,2239.000
1.490,2049.000,1816.500,1836.000,2240.000
1.491,2048.500,1817.000,1837.500,2241.500
1.492,2047.000,1817.500,1838.500,2242.500
1.493,2045.500,1818.500,1839.500,2243.500
1.494,2044.000,1818.500,1840.000,2243.500
1.495,2042.500,1818.000,1839.500,2243.000
1.496,2040.500,1817.000,1838.500,2241.500
1.497,2039.000,1815.500,1836.000,2239.000
1.498,2038.000,1813.000,1833.000,2236.000
1.499,2037.000,1810.500,1830.000,2232.500
1.500,2037.000,1808.000,1826.500,2229.500
1.501,2037.000,1805.500,1823.500,2227.000
1.502,2037.000,1804.000,1821.000,2225.000
1.503,2037.000,1802.500,1819.500,2223.000
1.504,2037.000,1801.500,1817.500,2222.000
1.505,2037.000,1801.000,1816.500,2221.000
1.506,2037.000,1800.500,1815.500,2220.500
1.507,2036.000,1800.000,1814.500,2220.500
1.508,2035.500,1799.500,1813.500,2220.000
1.509,2034.000,1799.000,1813.000,2220.000
1.510,2033.000,1798.500,1813.000,2220.000
1.511,2031.500,1798.000,1813.000,2220.000
1.512,2030.000,1797.500,1813.000,2220.000
1.513,2028.000,1797.000,1813.500,2220.500
1.514,2025.500,1796.500,1813.500,2220.500
1.515,2023.000,1795.000,1813.000,2219.500
1.516,2021.000,1793.500,1812.000,2218.500
1.517,2019.500,1792.000,1810.500,2216.500
1.518,2019.000,1790.500,1808.000,2214.500
1.519,2019.500,1789.000,1806.000,2212.000
1.520,2020.000,1788.000,1804.000,2210.000
1.521,2021.500,1787.500,1802.500,2209.000
1.522,2023.500,1787.000,1802.000,2208.500
1.523,2024.500,1787.500,1802.000,2208.500
1.524,2026.000,1787.500,1802.500,2209.000
1.525,2026.500,1788.000,1803.500,2209.000
1.526,2027.000,1788.500,1804.000,2209.500
1.527,2026.500,1789.000,1804.500,2209.000
1.528,2025.500,1788.500,1804.500,2208.000
1.529,2024.000,1788.000,1804.500,2207.000
1.530,2021.500,1787.000,1804.000,2206.000
1.531,2019.500,1786.500,1804.500,2205.500
1.532,2017.000,1786.000,1805.000,2206.000
1.533,2015.000,1785.500,1805.500,2206.500
1.534,2012.500,1784.500,1806.000,2206.500
1.535,2010.500,1782.500,1805.000,2206.000
1.536,2008.500,1780.000,1803.500,2204.500
1.537,2007.000,1777.500,1801.000,2202.500
1.538,2006.000,1775.000,1798.500,2199.500
1.539,2005.500,1773.000,1795.500,2197.000
1.540,2006.000,1771.500,1793.000,2195.000
1.541,2006.500,1771.000,1790.500,2193.000
1.542,2007.000,1770.500,1789.000,2191.500
1.543,2007.500,1771.000,1788.000,2190.000
1.544,2008.000,1771.000,1787.500,2189.500
1.545,2008.000,1771.500,1787.000,2188.500
1.546,2007.500,1772.000,1786.500,2188.000
1.547,2007.500,1772.500,1786.500,2187.500
1.548,2007.000,1773.000,1786.500,2187.000
1.549,2006.500,1773.000,1786.500,2186.500
1.550,2005.500,1773.000,1787.000,2186.500
1.551,2004.500,1773.500,1787.500,2187.000
1.552,2003.000,1773.500,1788.500,2188.000
1.553,2001.000,1773.500,1789.500,2189.000
1.554,1999.500,1773.500,1790.000,2190.000
1.555,1998.000,1773.000,1790.500,2190.000
1.556,1997.000,1772.500,1790.500,2189.500
1.557,1996.500,1771.500,1789.500,2188.500
1.558,1997.000,1770.500,1788.500,2187.000
1.559,1997.000,1769.000,1786.000,2185.000
1.560,1997.500,1767.000,1783.000,2183.000
1.561,1998.000,1764.500,1780.000,2180.500
1.562,1998.000,1762.500,1777.000,2178.500
1.563,1998.000,1760.000,1774.500,2176.500
1.564,1997.500,1758.000,1772.000,2175.000
1.565,1997.000,1756.500,1770.500,2174.000
1.566,1996.500,1755.500,1769.000,2173.000
1.567,1996.000,1755.000,1768.500,2172.500
1.568,1995.500,1754.500,1768.000,2172.500
1.569,1994.500,1754.500,1768.500,2172.500
1.570,1993.500,1754.500,1769.000,2173.000
1.571,1992.000,1754.500,1769.500,2173.500
1.572,1990.500,1754.500,1770.500,2174.500
1.573,1988.000,1754.500,1772.000,2175.500
1.574,1986.000,1754.500,1773.000,2177.000
1.575,1984.500,1754.000,1773.500,2177.500
1.576,1983.500,1753.500,1773.000,2178.000
1.577,1983.000,1752.000,1772.000,2177.500
1.578,1982.500,1750.500,1770.000,2175.500
1.579,1983.000,1749.000,1767.500,2173.000
1.580,1983.500,1747.000,1764.000,2169.000
1.581,1983.500,1745.000,1760.500,2164.500
1.582,1983.500,1742.500,1757.000,2160.500
1.583,1983.000,1741.000,1754.500,2156.500
1.584,1982.000,1739.000,1752.500,2153.500
1.585,1981.000,1737.500,1751.000,2152.000
1.586,1980.000,1736.500,1750.500,2151.000
1.587,1979.500,1736.500,1750.000,2151.500
1.588,1979.500,1736.500,1750.000,2152.500
1.589,1979.000,1737.000,1750.500,2154.000
1.590,1979.000,1738.000,1751.500,2156.000
1.591,1978.500,1739.000,1753.000,2158.000
1.592,1978.000,1740.000,1754.500,2159.500
1.593,1977.000,1741.000,1756.500,2161.000
1.594,1976.000,1741.500,1758.500,2162.000
1.595,1975.000,1742.000,1760.000,2162.000
1.596,1974.000,1742.500,1760.500,2161.500
1.597,1974.000,1742.500,1761.500,2160.500
1.598,1974.000,1742.000,1761.500,2159.000
1.599,1974.500,1741.000,1760.500,2157.500
1.600,1974.500,1739.500,1758.000,2156.000
1.601,1973.500,1736.500,1755.000,2153.500
1.602,1972.000,1732.500,1750.500,2150.500
1.603,1969.000,1727.500,1745.000,2147.000
1.604,1966.000,1722.500,1739.000,2143.000
1.605,1962.500,1717.000,1733.000,2138.500
1.606,1959.500,1712.500,1728.000,2135.000
1.607,1957.500,1709.500,1724.000,2132.000
1.608,1955.500,1707.500,1722.000,2130.500
1.609,1954.500,1707.000,1721.000,2129.500
1.610,1953.000,1707.000,1721.000,2129.500
1.611,1952.000,1707.000,1721.500,2130.000
1.612,1951.000,1708.000,1723.000,2130.500
1.613,1949.500,1708.500,1724.500,2131.500
1.614,1948.000,1709.000,1725.500,2132.000
1.615,1946.500,1709.000,1726.000,2131.500
1.616,1945.500,1708.500,1726.000,2131.500
1.617,1945.500,1708.500,1725.000,2130.500
1.618,1946.500,1709.500,1725.000,2130.000
1.619,1949.000,1710.500,1725.000,2130.000
1.620,1952.000,1712.000,1725.500,2130.000
1.621,1954.000,1713.500,1725.500,2130.000
1.622,1955.500,1714.000,1725.500,2130.000
1.623,1955.500,1713.500,1724.500,2129.000
1.624,1955.000,1712.500,1723.500,2128.500
1.625,1954.000,1711.000,1722.500,2127.500
1.626,1953.000,1710.000,1721.500,2127.000
1.627,1952.000,1709.500,1721.000,2126.500
1.628,1951.000,1709.000,1721.000,2126.500
1.629,1950.500,1709.000,1721.500,2126.500
1.630,1949.500,1709.000,1722.000,2127.000
1.631,1948.000,1709.000,1723.000,2128.000
1.632,1946.500,1709.500,1724.000,2129.000
1.633,1944.500,1709.500,1725.500,2130.000
1.634,1942.500,1709.500,1726.000,2130.500
1.635,1941.000,1709.500,1726.000,2130.500
1.636,1939.500,1708.500,1725.500,2129.000
1.637,1938.000,1707.000,1723.500,2126.500
1.638,1937.000,1705.000,1720.500,2123.500
1.639,1936.000,1702.500,1717.000,2119.500
1.640,1935.500,1700.000,1713.000,2115.500
1.641,1935.500,1697.500,1710.000,2112.500
1.642,1936.000,1696.000,1707.500,2110.500
1.643,1936.000,1694.500,1706.000,2109.500
1.644,1936.000,1694.000,1705.000,2109.000
1.645,1936.000,1693.500,1704.000,2109.000
1.646,1936.000,1693.000,1703.500,2109.500
1.647,1935.500,1693.000,1703.000,2109.500
1.648,1935.000,1693.000,1703.000,2110.000
1.649,1934.500,1692.500,1703.000,2110.500
1.650,1934.000,1692.500,1703.000,2111.000
1.651,1933.000,1693.000,1703.500,2112.000
1.652,1931.500,1693.000,1704.500,2112.500
1.653,1929.500,1693.000,1705.000,2113.000
1.654,1927.500,1692.500,1705.000,2112.000
1.655,1925.000,1691.500,1704.000,2109.500
1.656,1922.500,1689.000,1702.000,2106.500
1.657,1920.500,1686.500,1699.500,2102.500
1.658,1919.000,1683.500,1696.000,2098.500
1.659,1918.500,1680.000,1692.500,2094.500
1.660,1918.000,1676.500,1689.500,2091.000
1.661,1918.500,1674.000,1686.500,2089.000
1.662,1919.000,1672.500,1684.500,2087.500
1.663,1920.000,1671.500,1683.500,2087.000
1.664,1920.500,1671.500,1682.500,2086.500
1.665,1920.500,1671.500,1681.500,2086.500
1.666,1920.500,1672.000,1681.000,2087.000
1.667,1920.500,1672.500,1681.000,2087.000
1.668,1920.500,1673.500,1681.500,2088.000
1.669,1920.500,1675.000,1682.500,2088.500
1.670,1921.000,1676.500,1684.500,2089.500
1.671,1920.500,1678.000,1686.000,2090.500
1.672,1920.000,1679.500,1688.000,2091.500
1.673,1918.500,1680.500,1689.000,2092.500
1.674,1917.000,1680.000,1689.500,2092.500
1.675,1914.500,1679.000,1688.500,2092.000
1.676,1912.500,1677.500,1686.500,2090.000
1.677,1910.500,1675.000,1684.000,2087.000
1.678,1909.000,1673.000,1681.500,2083.500
1.679,1908.500,1670.500,1679.000,2080.000
1.680,1908.500,1668.500,1676.500,2077.000
1.681,1909.500,1667.000,1675.500,2075.000
1.682,1910.500,1666.500,1675.000,2074.000
1.683,1912.000,1666.500,1675.500,2074.000
1.684,1913.500,1667.500,1676.500,2074.500
1.685,1914.500,1668.000,1678.000,2075.500
1.686,1915.500,1669.000,1679.000,2077.000
1.687,1915.500,1669.500,1680.000,2078.000
1.688,1915.000,1669.500,1680.000,2079.000
1.689,1914.000,1669.500,1680.500,2080.000
1.690,1912.000,1668.500,1680.000,2080.000
1.691,1909.500,1668.000,1679.500,2079.500
1.692,1907.000,1667.000,1679.000,2079.000
1.693,1904.000,1666.000,1678.500,2078.500
1.694,1901.000,1664.500,1677.500,2078.000
1.695,1898.500,1663.500,1676.500,2077.000
1.696,1896.000,1662.000,1675.000,2076.000
1.697,1894.500,1660.000,1673.000,2074.000
1.698,1893.500,1658.000,1670.500,2072.000
1.699,1893.000,1655.500,1667.500,2069.000
1.700,1892.500,1653.000,1664.000,2065.000
1.701,1892.500,1651.000,1660.500,2061.000
1.702,1892.000,1649.000,1657.500,2057.000
1.703,1891.500,1647.500,1655.000,2054.000
1.704,1891.500,1646.000,1652.500,2052.000
1.705,1890.500,1645.500,1651.000,2050.500
1.706,1890.000,1644.500,1650.000,2049.500
1.707,1889.000,1644.000,1649.000,2049.000
1.708,1887.500,1643.000,1648.500,2048.500
1.709,1886.000,1642.000,1648.000,2048.000
1.710,1884.000,1641.500,1647.500,2047.500
1.711,1882.000,1641.000,1647.500,2047.500
1.712,1880.000,1640.500,1647.500,2048.000
1.713,1878.000,1640.500,1648.500,2048.500
1.714,1876.000,1640.500,1649.000,2049.500
1.715,1874.000,1640.000,1650.000,2050.000
1.716,1872.500,1639.000,1649.500,2050.500
1.717,1872.000,1638.000,1649.000,2049.500
1.718,1871.500,1636.500,1647.000,2048.500
1.719,1871.500,1634.500,1644.500,2046.500
1.720,1872.000,1632.500,1642.000,2044.000
1.721,1872.500,1630.000,1638.500,2041.500
1.722,1872.500,1628.000,1636.000,2038.500
1.723,1872.500,1626.000,1633.500,2035.500
1.724,1871.500,1624.500,1631.000,2032.500
1.725,1870.500,1622.500,1629.000,2029.000
1.726,1869.000,1621.000,1627.000,2026.000
1.727,1868.000,1619.500,1625.500,2023.500
1.728,1866.500,1618.500,1624.500,2022.500
1.729,1865.500,1617.500,1624.000,2022.000
1.730,1864.000,1617.500,1623.500,2022.500
1.731,1863.000,1617.500,1624.000,2023.500
1.732,1861.000,1618.000,1624.500,2024.500
1.733,1859.000,1618.000,1625.500,2026.000
1.734,1857.000,1618.000,1626.000,2027.000
1.735,1855.000,1618.000,1626.500,2027.500
1.736,1853.500,1617.500,1626.500,2028.500
1.737,1853.000,1617.000,1626.000,2029.000
1.738,1852.500,1616.500,1626.000,2029.000
1.739,1853.000,1616.000,1626.000,2030.000
1.740,1853.500,1616.500,1627.000,2031.000
1.741,1855.000,1617.500,1628.500,2033.000
1.742,1857.000,1619.000,1630.500,2036.000
1.743,1858.500,1621.000,1633.500,2039.500
1.744,1860.500,1623.500,1636.500,2043.500
1.745,1862.500,1625.500,1640.000,2048.000
1.746,1864.000,1628.000,1643.500,2053.000
1.747,1865.500,1630.500,1647.500,2058.500
1.748,1866.500,1633.000,1651.500,2064.000
1.749,1867.500,1635.500,1655.000,2069.000
1.750,1867.500,1637.500,1658.000,2073.500
1.751,1866.000,1638.500,1660.000,2076.500
1.752,1864.000,1638.500,1661.000,2078.000
1.753,1860.500,1637.000,1660.500,2078.000
1.754,1856.500,1634.500,1658.500,2076.500
1.755,1852.000,1631.000,1655.500,2073.500
1.756,1848.000,1626.500,1651.000,2068.500
1.757,1845.000,1622.500,1646.500,2063.000
1.758,1842.500,1618.500,1641.000,2056.500
1.759,1842.000,1614.500,1636.000,2049.500
1.760,1842.000,1611.000,1630.500,2042.500
1.761,1842.500,1608.000,1625.500,2036.000
1.762,1843.500,1605.500,1621.000,2030.500
1.763,1844.500,1604.000,1617.500,2025.000
1.764,1845.500,1602.500,1614.000,2020.500
1.765,1846.500,1602.000,1611.500,2016.000
1.766,1847.000,1601.000,1609.500,2012.500
1.767,1847.500,1600.500,1607.500,2009.500
1.768,1847.000,1599.500,1606.500,2007.500
1.769,1846.500,1599.000,1605.500,2006.000
1.770,1846.000,1598.500,1605.000,2005.500
1.771,1845.000,1598.500,1605.500,2005.500
1.772,1843.500,1598.500,1606.000,2006.000
1.773,1841.500,1598.500,1607.000,2006.500
1.774,1839.000,1598.500,1607.000,2006.500
1.775,1836.500,1597.500,1606.000,2005.500
1.776,1834.500,1595.500,1603.500,2003.000
1.777,1832.500,1593.000,1600.500,2000.000
1.778,1831.000,1590.000,1596.500,1996.000
1.779,1830.000,1587.000,1592.000,1992.000
1.780,1829.500,1584.000,1588.500,1988.000
1.781,1829.500,1582.000,1585.500,1985.000
1.782,1830.000,1581.000,1584.000,1983.000
1.783,1830.500,1580.000,1583.500,1982.000
1.784,1830.500,1580.000,1583.000,1981.500
1.785,1831.000,1580.000,1583.000,1981.500
1.786,1830.500,1580.000,1583.000,1981.500
1.787,1830.000,1579.500,1583.500,1981.000
1.788,1829.000,1579.000,1583.500,1981.000
1.789,1827.500,1579.000,1583.500,1980.500
1.790,1826.000,1578.500,1584.000,1980.500
1.791,1824.500,1578.500,1584.500,1981.000
1.792,1823.000,1578.500,1584.500,1981.500
1.793,1821.500,1578.500,1585.000,1981.500
1.794,1819.500,1578.000,1585.000,1982.000
1.795,1817.500,1577.500,1584.000,1981.000
1.796,1815.500,1576.000,1583.000,1980.000
1.797,1814.000,1574.000,1580.500,1978.500
1.798,1813.000,1572.000,1578.000,1976.500
1.799,1812.000,1569.500,1575.000,1974.000
1.800,1812.000,1567.000,1571.500,1971.000
1.801,1812.000,1564.500,1568.500,1968.500
1.802,1812.500,1562.000,1566.000,1966.500
1.803,1813.000,1560.500,1564.500,1965.000
1.804,1813.000,1558.500,1562.500,1964.000
1.805,1812.500,1556.500,1561.500,1963.500
1.806,1812.000,1554.500,1560.000,1963.500
1.807,1812.000,1553.500,1559.500,1963.500
1.808,1811.500,1553.500,1559.500,1963.500
1.809,1811.000,1554.000,1560.000,1963.500
1.810,1810.500,1555.500,1561.000,1963.500
1.811,1810.000,1557.000,1563.000,1964.000
1.812,1809.000,1559.000,1565.000,1965.000
1.813,1808.000,1561.000,1567.500,1966.000
1.814,1806.500,1562.000,1569.500,1966.500
1.815,1805.000,1562.500,1570.500,1966.500
1.816,1803.500,1562.500,1571.000,1966.000
1.817,1803.000,1561.500,1570.000,1965.000
1.818,1802.500,1560.000,1568.000,1962.500
1.819,1802.000,1558.000,1566.000,1960.000
1.820,1802.000,1556.500,1563.000,1957.000
1.821,1802.500,1554.500,1560.500,1954.500
1.822,1802.500,1553.000,1558.000,1952.500
1.823,1803.000,1552.000,1556.500,1950.500
1.824,1803.500,1551.000,1555.000,1950.000
1.825,1804.000,1551.000,1554.000,1949.500
1.826,1804.000,1551.000,1554.000,1949.500
1.827,1803.500,1551.000,1553.500,1949.500
1.828,1803.000,1550.500,1553.500,1949.500
1.829,1802.500,1550.500,1553.500,1949.500
1.830,1801.000,1550.000,1553.500,1949.500
1.831,1800.000,1550.000,1553.500,1950.000
1.832,1798.500,1550.000,1554.500,1951.000
1.833,1797.000,1550.500,1555.500,1952.000
1.834,1795.000,1550.000,1555.500,1953.000
1.835,1793.000,1549.500,1554.500,1953.000
1.836,1791.000,1547.500,1552.500,1952.000
1.837,1789.000,1545.000,1549.500,1950.000
1.838,1787.500,1542.000,1545.500,1946.500
1.839,1787.000,1539.000,1541.500,1942.500
1.840,1786.500,1536.500,1538.000,1938.500
1.841,1787.000,1534.500,1536.000,1935.500
1.842,1787.500,1533.500,1534.500,1933.500
1.843,1788.500,1533.500,1535.000,1932.500
1.844,1789.500,1534.000,1536.000,1932.000
1.845,1789.500,1534.500,1537.500,1932.000
1.846,1789.500,1535.000,1539.000,1932.000
1.847,1789.500,1535.500,1540.500,1931.500
1.848,1788.500,1535.500,1541.000,1930.500
1.849,1788.000,1535.500,1541.500,1930.500
1.850,1787.000,1535.500,1542.000,1931.000
1.851,1786.500,1535.500,1542.500,1932.500
1.852,1785.000,1536.000,1543.500,1934.500
1.853,1783.500,1536.000,1544.500,1936.000
1.854,1781.500,1536.000,1545.000,1937.500
1.855,1779.500,1535.500,1545.000,1937.500
1.856,1778.000,1534.500,1544.000,1936.500
1.857,1776.500,1532.500,1542.000,1935.000
1.858,1775.500,1530.500,1539.000,1932.000
1.859,1775.000,1528.000,1536.000,1928.500
1.860,1775.000,1526.000,1532.500,1925.000
1.861,1775.500,1524.000,1529.500,1921.500
1.862,1776.500,1523.000,1527.500,1919.000
1.863,1777.500,1522.500,1526.500,1918.000
1.864,1779.000,1523.000,1526.000,1917.500
1.865,1780.000,1523.500,1526.000,1918.500
1.866,1780.500,1523.500,1526.500,1919.500
1.867,1780.000,1523.500,1527.000,1921.000
1.868,1779.500,1523.500,1528.000,1922.500
1.869,1778.500,1523.500,1528.500,1924.000
1.870,1777.500,1523.500,1529.500,1924.500
1.871,1775.500,1523.000,1530.000,1925.000
1.872,1772.500,1522.500,1530.000,1925.000
1.873,1769.500,1521.500,1530.000,1925.000
1.874,1766.000,1520.500,1529.500,1924.500
1.875,1763.500,1519.000,1528.500,1923.000
1.876,1761.000,1517.500,1527.000,1921.500
1.877,1759.500,1516.000,1525.000,1920.000
1.878,1759.000,1514.000,1522.500,1917.500
1.879,1758.500,1512.000,1520.000,1915.500
1.880,1758.500,1510.000,1517.000,1913.000
1.881,1759.000,1507.500,1514.000,1910.500
1.882,1759.000,1506.000,1512.000,1908.500
1.883,1759.500,1504.500,1510.000,1906.500
1.884,1760.000,1504.000,1509.000,1905.000
1.885,1760.500,1503.500,1508.500,1904.000
1.886,1760.500,1504.000,1508.000,1903.000
1.887,1760.500,1504.000,1507.500,1902.000
1.888,1760.500,1504.000,1507.500,1901.000
1.889,1759.500,1504.000,1507.500,1901.000
1.890,1758.500,1504.000,1508.000,1901.500
1.891,1757.500,1504.500,1508.500,1902.500
1.892,1756.500,1505.000,1509.500,1903.500
1.893,1755.000,1505.500,1510.500,1904.500
1.894,1753.000,1505.000,1511.000,1904.500
1.895,1751.500,1504.500,1511.000,1904.500
1.896,1750.000,1503.500,1510.000,1903.500
1.897,1749.000,1502.000,1509.000,1902.000
1.898,1748.500,1500.500,1507.000,1900.000
1.899,1749.000,1499.000,1505.000,1898.000
1.900,1749.500,1497.500,1503.500,1896.000
1.901,1750.500,1496.500,1501.500,1894.500
1.902,1751.000,1496.000,1500.000,1893.500
1.903,1751.500,1495.500,1499.000,1893.000
1.904,1751.500,1494.500,1497.500,1892.000
1.905,1751.000,1493.500,1496.000,1891.000
1.906,1750.500,1492.500,1494.500,1890.000
1.907,1749.500,1491.000,1493.000,1888.500
1.908,1748.500,1490.000,1492.000,1887.500
1.909,1747.500,1489.500,1491.500,1887.000
1.910,1746.500,1489.000,1492.000,1887.500
1.911,1745.500,1489.000,1492.500,1888.500
1.912,1744.500,1489.500,1493.500,1889.500
1.913,1743.500,1490.000,1495.000,1890.500
1.914,1742.000,1490.000,1496.000,1891.000
1.915,1740.500,1489.500,1496.000,1890.000
1.916,1739.000,1488.500,1495.000,1888.000
1.917,1737.500,1487.000,1493.000,1885.500
1.918,1737.000,1485.500,1491.000,1883.000
1.919,1736.500,1483.000,1488.500,1880.000
1.920,1737.000,1481.500,1486.000,1877.000
1.921,1737.500,1480.000,1484.000,1875.000
1.922,1738.500,1479.000,1483.000,1874.000
1.923,1739.500,1478.500,1482.000,1873.500
1.924,1740.000,1478.500,1482.000,1873.500
1.925,1740.500,1479.000,1482.000,1874.000
1.926,1741.000,1479.000,1482.000,1874.500
1.927,1740.500,1479.500,1482.500,1875.500
1.928,1739.500,1480.000,1483.000,1876.000
1.929,1738.500,1480.000,1483.000,1877.000
1.930,1737.500,1481.000,1484.000,1878.000
1.931,1736.000,1481.500,1484.500,1879.000
1.932,1734.500,1481.500,1485.000,1880.000
1.933,1732.000,1481.500,1485.000,1881.000
1.934,1729.500,1481.000,1485.000,1881.000
1.935,1727.000,1480.000,1484.000,1880.000
1.936,1725.500,1479.000,1483.000,1879.000
1.937,1724.000,1477.500,1481.500,1877.000
1.938,1723.500,1475.500,1479.000,1874.500
1.939,1723.000,1473.000,1476.000,1872.000
1.940,1723.000,1470.500,1473.000,1868.500
1.941,1723.500,1468.500,1470.000,1866.000
1.942,1724.000,1466.500,1468.000,1863.500
1.943,1724.500,1465.000,1466.500,1861.500
1.944,1725.000,1464.000,1465.500,1860.500
1.945,1725.000,1463.000,1465.000,1859.500
1.946,1725.000,1463.000,1464.500,1859.000
1.947,1725.000,1463.000,1464.500,1859.000
1.948,1725.000,1463.500,1465.000,1860.000
1.949,1725.000,1464.000,1466.000,1860.500
1.950,1725.000,1465.000,1467.500,1862.000
1.951,1724.500,1466.500,1469.000,1863.000
1.952,1723.500,1467.500,1471.000,1864.500
1.953,1722.500,1468.000,1473.000,1866.000
1.954,1721.000,1468.500,1474.500,1867.000
1.955,1719.500,1468.500,1475.000,1867.000
1.956,1718.000,1467.500,1474.500,1866.500
1.957,1717.500,1466.500,1473.500,1864.500
1.958,1717.500,1465.000,1472.000,1862.500
1.959,1717.500,1463.500,1469.500,1860.000
1.960,1718.000,1462.000,1467.000,1857.500
1.961,1718.500,1460.500,1464.500,1855.500
1.962,1719.000,1459.000,1462.000,1854.000
1.963,1719.000,1458.000,1460.500,1853.000
1.964,1719.000,1457.500,1458.500,1852.500
1.965,1719.000,1457.000,1457.000,1851.500
1.966,1718.500,1456.500,1455.500,1850.000
1.967,1718.000,1456.000,1454.500,1849.000
1.968,1717.000,1455.500,1453.500,1848.000
1.969,1716.000,1454.500,1453.000,1847.500
1.970,1714.500,1453.500,1452.500,1847.500
1.971,1713.000,1452.500,1453.000,1848.000
1.972,1711.000,1451.500,1453.000,1848.500
1.973,1708.500,1450.000,1453.500,1849.000
1.974,1706.000,1448.500,1453.500,1849.000
1.975,1703.500,1446.500,1452.500,1848.000
1.976,1701.500,1445.000,1451.000,1846.500
1.977,1700.000,1443.000,1449.000,1844.000
1.978,1699.000,1442.000,1447.000,1841.000
1.979,1698.500,1441.000,1444.500,1838.000
1.980,1698.500,1440.500,1442.500,1835.000
1.981,1699.000,1440.500,1441.000,1833.000
1.982,1700.000,1441.000,1440.500,1831.500
1.983,1701.000,1441.500,1440.000,1830.500
1.984,1702.000,1442.000,1439.500,1829.500
1.985,1702.500,1442.000,1439.000,1829.000
1.986,1702.500,1441.500,1438.500,1828.500
1.987,1702.000,1441.000,1438.000,1828.500
1.988,1701.000,1440.500,1437.500,1828.000
1.989,1700.000,1440.000,1437.500,1828.000
1.990,1699.500,1440.000,1438.000,1828.500
1.991,1699.000,1440.500,1439.000,1829.500
1.992,1698.000,1441.500,1440.500,1831.000
1.993,1697.500,1442.500,1442.000,1832.000
1.994,1696.500,1443.000,1442.500,1832.500
1.995,1695.000,1443.000,1442.000,1831.500
1.996,1693.500,1441.500,1440.500,1830.000
1.997,1692.000,1439.500,1437.500,1827.000
1.998,1690.500,1436.500,1434.000,1823.500
1.999,1689.500,1433.500,1430.000,1820.000
2.000,1689.000,1431.000,1426.000,1816.500
2.001,1689.000,1429.000,1423.000,1814.500
2.002,1690.500,1428.000,1421.000,1813.000
2.003,1692.000,1428.000,1420.000,1812.500
2.004,1693.500,1428.500,1420.000,1813.000
2.005,1694.500,1429.500,1420.000,1813.500
2.006,1695.500,1430.000,1421.000,1814.500
2.007,1695.500,1430.500,1422.000,1815.500
2.008,1695.500,1430.500,1423.000,1816.000
2.009,1694.500,1430.500,1423.500,1816.000
2.010,1692.500,1430.500,1424.000,1815.500
2.011,1690.000,1430.000,1424.500,1814.500
2.012,1687.500,1430.000,1425.000,1814.000
2.013,1685.000,1429.500,1425.500,1814.000
2.014,1682.500,1429.500,1426.000,1813.500
2.015,1681.000,1429.000,1425.500,1813.000
2.016,1679.500,1428.000,1424.500,1812.000
2.017,1678.500,1426.500,1422.500,1810.000
2.018,1678.000,1424.500,1420.500,1808.000
2.019,1678.000,1422.500,1417.500,1805.500
2.020,1678.500,1420.500,1414.500,1803.000
2.021,1679.000,1418.500,1412.000,1801.000
2.022,1680.000,1417.500,1410.500,1800.000
2.023,1681.000,1417.500,1410.000,1800.000
2.024,1682.000,1418.500,1410.500,1800.500
2.025,1683.000,1419.500,1411.500,1801.500
2.026,1684.000,1420.500,1412.500,1802.000
2.027,1685.000,1421.500,1414.000,1802.500
2.028,1686.000,1423.000,1415.500,1803.500
2.029,1686.500,1424.500,1416.500,1805.000
2.030,1686.500,1425.500,1416.500,1806.000
2.031,1685.000,1425.000,1415.500,1806.500
2.032,1682.000,1423.000,1412.500,1805.500
2.033,1677.500,1419.500,1408.000,1803.500
2.034,1672.000,1414.500,1402.000,1800.000
2.035,1666.000,1409.000,1395.500,1795.000
2.036,1661.000,1403.000,1388.500,1789.500
2.037,1656.500,1397.000,1382.500,1783.500
2.038,1653.500,1392.500,1377.500,1777.500
2.039,1651.500,1388.500,1373.000,1772.000
2.040,1651.000,1385.500,1369.500,1767.000
2.041,1651.500,1383.500,1367.500,1763.000
2.042,1652.500,1383.000,1367.000,1760.500
2.043,1653.500,1383.500,1368.000,1759.500
2.044,1655.000,1385.000,1369.500,1759.500
2.045,1656.500,1386.500,1371.500,1761.000
2.046,1658.000,1389.000,1374.000,1763.500
2.047,1660.000,1391.500,1377.000,1766.500
2.048,1662.500,1395.000,1380.500,1770.000
2.049,1665.000,1398.500,1384.500,1774.000
2.050,1667.500,1402.500,1388.500,1778.000
2.051,1669.000,1406.000,1392.500,1782.000
2.052,1669.000,1408.500,1396.000,1785.500
2.053,1668.000,1410.000,1398.500,1788.000
2.054,1666.000,1410.000,1399.500,1789.500
2.055,1664.000,1409.500,1399.500,1790.000
2.056,1662.500,1408.500,1398.500,1790.000
2.057,1661.000,1407.000,1397.000,1788.500
2.058,1660.500,1405.000,1394.000,1786.000
2.059,1660.000,1402.500,1391.000,1783.000
2.060,1660.000,1400.500,1388.000,1780.500
2.061,1660.500,1398.500,1385.000,1777.500
2.062,1660.500,1397.000,1382.500,1775.000
2.063,1660.500,1395.500,1380.500,1773.000
2.064,1660.000,1394.500,1378.500,1771.500
2.065,1659.000,1393.000,1377.000,1770.000
2.066,1658.000,1392.000,1376.000,1769.000
2.067,1657.500,1391.500,1375.500,1768.500
2.068,1657.000,1391.500,1375.000,1768.000
2.069,1656.500,1392.000,1375.500,1768.500
2.070,1656.000,1392.500,1376.500,1769.000
2.071,1655.500,1393.500,1377.500,1770.000
2.072,1654.500,1394.000,1379.000,1771.500
2.073,1653.000,1395.000,1380.500,1773.000
2.074,1651.000,1395.000,1381.500,1774.000
2.075,1649.500,1395.000,1381.500,1774.000
2.076,1647.500,1394.000,1380.500,1773.000
2.077,1646.500,1392.000,1378.500,1771.000
2.078,1645.500,1390.000,1375.500,1768.500
2.079,1645.000,1387.500,1372.000,1765.500
2.080,1645.000,1384.500,1368.000,1763.000
2.081,1645.000,1382.500,1364.500,1760.500
2.082,1645.500,1380.500,1362.500,1759.000
2.083,1645.500,1379.500,1361.000,1758.500
2.084,1646.500,1379.500,1360.500,1758.000
2.085,1647.000,1380.000,1360.500,1758.000
2.086,1647.500,1380.500,1360.500,1758.000
2.087,1647.000,1380.500,1360.500,1757.500
2.088,1646.500,1380.500,1360.500,1756.500
2.089,1645.000,1380.500,1360.000,1755.500
2.090,1643.500,1380.000,1359.500,1754.500
2.091,1642.000,1379.500,1359.500,1753.500
2.092,1640.500,1379.500,1360.000,1753.000
2.093,1638.500,1379.500,1360.500,1753.000
2.094,1636.500,1379.000,1361.000,1753.500
2.095,1634.500,1378.500,1361.000,1753.500
2.096,1632.500,1377.000,1359.500,1753.000
2.097,1631.000,1375.500,1357.500,1751.500
2.098,1630.000,1373.000,1354.500,1749.500
2.099,1629.500,1371.000,1351.500,1747.000
2.100,1629.500,1368.500,1347.500,1744.000
2.101,1630.500,1366.500,1344.000,1741.000
2.102,1631.000,1364.500,1341.000,1738.500
2.103,1632.000,1363.500,1338.500,1736.500
2.104,1632.500,1362.500,1337.500,1735.500
2.105,1633.000,1362.500,1336.500,1734.500
2.106,1633.500,1363.000,1336.500,1734.000
2.107,1633.500,1363.000,1337.000,1734.000
2.108,1633.500,1363.500,1337.500,1734.000
2.109,1633.000,1363.500,1338.000,1734.500
2.110,1632.500,1364.000,1339.000,1735.000
2.111,1631.500,1364.500,1341.000,1736.500
2.112,1630.500,1365.500,1342.500,1738.500
2.113,1629.000,1366.500,1344.500,1740.500
2.114,1627.500,1367.000,1346.000,1742.500
2.115,1626.000,1367.500,1346.500,1743.500
2.116,1624.500,1367.000,1346.000,1743.000
2.117,1623.500,1366.000,1344.500,1741.500
2.118,1623.000,1364.000,1342.000,1739.000
2.119,1622.500,1362.000,1339.000,1736.000
2.120,1623.000,1360.500,1336.000,1732.500
2.121,1623.500,1359.000,1333.000,1729.500
2.122,1624.000,1358.000,1331.000,1727.500
2.123,1625.000,1357.500,1330.000,1726.500
2.124,1625.500,1357.500,1329.500,1726.500
2.125,1626.000,1358.000,1330.000,1727.000
2.126,1626.500,1358.500,1330.000,1727.500
2.127,1626.500,1359.000,1330.500,1728.000
2.128,1626.000,1359.000,1330.500,1728.500
2.129,1625.000,1358.000,1330.000,1728.500
2.130,1623.500,1356.500,1329.500,1728.500
2.131,1621.500,1355.000,1329.000,1728.500
2.132,1619.500,1353.000,1328.500,1729.000
2.133,1617.500,1352.000,1328.500,1729.000
2.134,1615.500,1351.500,1328.500,1729.000
2.135,1613.500,1351.500,1327.500,1728.500
2.136,1612.000,1351.000,1326.500,1727.500
2.137,1610.500,1350.500,1324.500,1726.000
2.138,1609.500,1349.500,1321.500,1724.000
2.139,1609.000,1348.500,1318.500,1721.000
2.140,1609.000,1347.500,1315.500,1718.000
2.141,1609.000,1346.500,1313.000,1715.500
2.142,1610.000,1346.000,1311.000,1713.000
2.143,1611.000,1346.000,1309.500,1712.000
2.144,1611.500,1346.500,1309.000,1711.500
2.145,1612.500,1346.500,1309.000,1712.000
2.146,1613.500,1347.000,1309.500,1713.000
2.147,1614.000,1348.000,1310.500,1715.000
2.148,1615.000,1348.500,1311.500,1716.500
2.149,1615.500,1349.500,1312.500,1718.500
2.150,1615.500,1351.000,1314.000,1720.500
2.151,1615.500,1352.000,1315.000,1722.000
2.152,1615.000,1353.000,1316.500,1723.500
2.153,1613.500,1353.500,1317.500,1724.500
2.154,1611.500,1353.500,1318.000,1724.000
2.155,1609.000,1352.000,1317.000,1722.000
2.156,1606.000,1350.000,1315.500,1719.000
2.157,1603.500,1347.500,1312.500,1715.000
2.158,1601.500,1344.500,1309.500,1710.500
2.159,1601.000,1342.000,1306.000,1706.500
2.160,1601.000,1340.000,1303.000,1703.000
2.161,1602.000,1338.500,1301.000,1701.000
2.162,1603.500,1338.000,1299.500,1699.500
2.163,1604.500,1338.000,1299.000,1699.000
2.164,1605.000,1337.500,1298.000,1698.500
2.165,1605.500,1337.500,1297.500,1698.000
2.166,1605.000,1337.000,1296.000,1697.000
2.167,1604.000,1336.000,1295.000,1696.500
2.168,1602.500,1335.000,1294.000,1696.000
2.169,1601.000,1334.000,1293.500,1696.000
2.170,1599.500,1333.500,1294.000,1697.000
2.171,1597.500,1333.500,1294.500,1698.500
2.172,1596.000,1334.000,1295.500,1700.500
2.173,1594.500,1334.500,1296.500,1703.000
2.174,1592.500,1335.500,1297.500,1705.000
2.175,1591.500,1335.500,1298.000,1706.000
2.176,1590.500,1335.000,1297.500,1706.000
2.177,1589.500,1334.000,1296.000,1704.000
2.178,1588.500,1331.500,1293.000,1701.000
2.179,1588.000,1329.000,1289.000,1697.500
2.180,1588.000,1326.000,1285.000,1694.000
2.181,1588.000,1323.500,1281.500,1690.500
2.182,1589.000,1321.500,1278.500,1688.000
2.183,1589.500,1320.000,1276.000,1686.000
2.184,1590.500,1319.500,1274.500,1685.000
2.185,1591.000,1319.000,1274.000,1684.000
2.186,1591.500,1319.000,1273.500,1684.000
2.187,1592.000,1319.500,1274.000,1684.000
2.188,1592.500,1320.500,1275.000,1685.000
2.189,1593.000,1321.500,1276.000,1686.500
2.190,1593.000,1322.500,1277.500,1688.000
2.191,1592.000,1324.000,1279.500,1690.000
2.192,1591.000,1325.000,1281.500,1691.500
2.193,1590.000,1326.000,1284.000,1693.500
2.194,1588.500,1327.000,1285.500,1695.000
2.195,1587.000,1327.000,1286.500,1695.500
2.196,1586.000,1326.500,1286.500,1695.000
2.197,1585.000,1325.000,1285.000,1693.500
2.198,1584.000,1323.000,1282.000,1691.000
2.199,1584.000,1320.500,1278.500,1688.000
2.200,1584.000,1318.000,1274.500,1685.000
2.201,1585.000,1316.500,1270.500,1682.000
2.202,1586.000,1316.000,1267.500,1679.000
2.203,1586.500,1315.500,1265.500,1677.000
2.204,1587.500,1315.500,1264.000,1675.500
2.205,1588.000,1315.500,1263.000,1674.000
2.206,1588.500,1315.500,1262.500,1673.500
2.207,1589.000,1315.500,1263.000,1673.500
2.208,1588.500,1315.500,1264.000,1674.000
2.209,1588.000,1316.000,1265.500,1675.000
2.210,1587.500,1317.000,1267.500,1676.500
2.211,1586.000,1317.500,1270.000,1678.000
2.212,1584.500,1318.500,1272.000,1679.000
2.213,1582.500,1319.000,1273.500,1680.500
2.214,1580.500,1318.500,1274.000,1681.000
2.215,1578.000,1318.000,1273.500,1680.500
2.216,1576.500,1316.500,1271.500,1679.000
2.217,1575.500,1314.500,1269.000,1677.000
2.218,1574.500,1312.500,1265.500,1674.500
2.219,1574.500,1310.500,1262.500,1672.000
2.220,1575.000,1308.500,1260.000,1669.000
2.221,1575.500,1307.500,1257.500,1667.000
2.222,1576.500,1306.500,1256.000,1665.500
2.223,1577.000,1306.000,1255.000,1664.500
2.224,1577.500,1306.000,1254.000,1663.500
2.225,1577.500,1305.500,1253.500,1663.000
2.226,1578.000,1305.500,1252.500,1662.500
2.227,1578.000,1305.500,1252.000,1662.000
2.228,1578.000,1306.000,1252.000,1662.000
2.229,1577.500,1306.500,1252.500,1662.500
2.230,1577.000,1307.500,1253.000,1664.000
2.231,1576.500,1308.500,1254.000,1665.500
2.232,1575.000,1309.500,1255.000,1667.000
2.233,1573.500,1310.000,1256.000,1668.500
2.234,1571.500,1310.000,1255.500,1668.500
2.235,1569.000,1308.500,1254.500,1668.000
2.236,1566.500,1306.500,1252.000,1665.500
2.237,1565.000,1304.000,1249.000,1663.000
2.238,1563.500,1301.500,1245.500,1660.000
2.239,1563.000,1299.000,1242.500,1657.000
2.240,1563.500,1297.000,1239.500,1654.500
2.241,1564.000,1296.000,1237.500,1652.500
2.242,1564.500,1295.500,1236.500,1651.000
2.243,1565.000,1295.500,1236.000,1649.500
2.244,1565.000,1295.500,1236.000,1649.000
2.245,1565.000,1295.500,1236.000,1648.000
2.246,1565.000,1295.500,1236.000,1647.500
2.247,1565.000,1295.500,1236.000,1647.000
2.248,1564.500,1296.000,1236.500,1647.000
2.249,1564.000,1296.000,1237.000,1647.500
2.250,1564.000,1297.000,1238.000,1648.000
2.251,1563.500,1298.000,1239.500,1649.000
2.252,1562.500,1299.000,1241.000,1650.500
2.253,1561.500,1300.000,1243.000,1652.500
2.254,1560.500,1301.000,1244.000,1654.000
2.255,1559.000,1301.000,1244.500,1655.000
2.256,1557.500,1300.500,1244.000,1654.500
2.257,1556.000,1299.500,1242.500,1653.500
2.258,1555.000,1297.500,1240.000,1651.000
2.259,1554.500,1295.000,1237.000,1648.000
2.260,1554.000,1292.500,1233.500,1644.500
2.261,1553.500,1289.000,1229.500,1641.000
2.262,1553.500,1286.500,1226.000,1638.000
2.263,1553.000,1284.000,1223.000,1635.500
2.264,1552.500,1282.000,1220.500,1634.000
2.265,1552.500,1281.500,1219.000,1632.500
2.266,1552.500,1282.000,1218.000,1632.000
2.267,1552.500,1283.000,1218.000,1631.500
2.268,1552.000,1284.500,1218.500,1631.000
2.269,1552.000,1286.000,1219.000,1631.000
2.270,1551.500,1287.500,1220.500,1631.500
2.271,1550.500,1289.000,1221.500,1632.500
2.272,1549.500,1290.000,1223.000,1633.000
2.273,1548.000,1290.500,1224.000,1633.500
2.274,1546.500,1290.500,1224.500,1633.500
2.275,1545.000,1290.000,1223.500,1632.000
2.276,1543.000,1288.500,1222.000,1630.000
2.277,1541.500,1286.000,1219.500,1627.000
2.278,1540.000,1283.500,1215.500,1623.500
2.279,1538.000,1280.000,1210.500,1619.000
2.280,1537.000,1277.000,1206.000,1615.000
2.281,1536.000,1274.500,1202.000,1611.500
2.282,1536.000,1272.500,1199.000,1609.000
2.283,1536.500,1271.500,1197.000,1607.500
2.284,1536.500,1271.000,1195.500,1606.500
2.285,1536.500,1270.500,1195.000,1606.000
2.286,1536.500,1270.500,1194.500,1606.000
2.287,1536.500,1271.000,1195.000,1607.000
2.288,1536.500,1272.000,1196.000,1609.000
2.289,1536.500,1273.500,1198.000,1612.000
2.290,1536.500,1275.500,1200.500,1616.000
2.291,1537.000,1278.000,1204.500,1620.500
2.292,1537.500,1281.000,1209.000,1626.000
2.293,1537.500,1284.500,1213.000,1630.500
2.294,1537.500,1287.500,1217.000,1635.000
2.295,1537.500,1289.500,1220.000,1637.500
2.296,1536.500,1290.000,1221.000,1639.500
2.297,1535.500,1290.000,1221.000,1640.000
2.298,1534.500,1289.500,1219.500,1640.500
2.299,1534.000,1288.000,1218.000,1640.000
2.300,1534.000,1287.000,1216.500,1640.500
2.301,1535.000,1287.000,1216.000,1641.000
2.302,1536.500,1288.000,1216.500,1642.500
2.303,1538.500,1289.500,1218.000,1645.000
2.304,1540.000,1291.500,1220.000,1648.000
2.305,1540.500,1293.500,1221.500,1651.500
2.306,1541.000,1294.500,1223.000,1654.000
2.307,1540.000,1295.000,1223.500,1656.500
2.308,1539.000,1294.500,1223.500,1658.000
2.309,1537.000,1294.000,1223.000,1659.000
2.310,1535.000,1293.500,1223.000,1659.500
2.311,1533.000,1292.500,1222.500,1660.000
2.312,1530.500,1291.500,1222.000,1659.500
2.313,1528.000,1290.000,1221.000,1658.000
2.314,1525.500,1288.500,1219.000,1655.000
2.315,1523.500,1286.500,1216.500,1650.500
2.316,1522.500,1284.500,1213.000,1645.000
2.317,1522.000,1282.500,1209.000,1638.500
2.318,1522.000,1280.000,1204.500,1631.500
2.319,1522.500,1277.500,1199.500,1624.500
2.320,1523.500,1275.500,1194.500,1617.500
2.321,1525.000,1273.500,1190.500,1611.500
2.322,1526.000,1271.500,1187.000,1607.000
2.323,1527.000,1270.500,1184.000,1604.000
2.324,1527.500,1270.500,1182.500,1602.000
2.325,1528.000,1270.500,1181.000,1600.500
2.326,1528.000,1270.500,1180.000,1600.500
2.327,1527.500,1270.000,1178.500,1600.500
2.328,1526.500,1269.500,1177.500,1601.000
2.329,1525.000,1269.000,1176.500,1601.500
2.330,1524.000,1268.500,1175.500,1602.000
2.331,1522.500,1268.500,1175.500,1602.000
2.332,1521.000,1269.000,1176.000,1602.500
2.333,1519.500,1270.000,1177.000,1602.500
2.334,1517.500,1270.000,1178.000,1602.500
2.335,1515.000,1269.500,1178.000,1601.000
2.336,1512.500,1268.500,1177.000,1599.000
2.337,1511.000,1267.000,1175.000,1596.000
2.338,1510.000,1265.500,1173.000,1593.000
2.339,1509.500,1263.500,1170.500,1590.000
2.340,1510.000,1262.000,1167.500,1587.000
2.341,1510.500,1260.500,1165.500,1585.000
2.342,1511.000,1259.000,1163.500,1583.500
2.343,1511.500,1258.000,1161.500,1582.500
2.344,1511.500,1257.000,1159.500,1581.500
2.345,1511.500,1256.500,1158.500,1581.000
2.346,1511.500,1256.000,1157.500,1581.000
2.347,1511.500,1256.500,1157.500,1581.500
2.348,1511.500,1257.000,1158.000,1582.500
2.349,1511.500,1258.000,1158.500,1583.500
2.350,1511.500,1259.000,1159.500,1584.000
2.351,1511.000,1260.000,1160.000,1584.500
2.352,1510.000,1261.000,1161.000,1585.000
2.353,1508.500,1261.500,1161.500,1584.500
2.354,1506.500,1261.500,1161.500,1584.000
2.355,1504.500,1261.000,1161.000,1582.500
2.356,1503.000,1260.000,1159.500,1581.000
2.357,1502.000,1259.000,1157.500,1579.000
2.358,1501.000,1257.500,1154.500,1576.500
2.359,1500.500,1255.500,1151.000,1574.000
2.360,1500.000,1253.000,1146.500,1571.500
2.361,1500.000,1250.500,1142.000,1569.000
2.362,1500.000,1248.500,1138.500,1566.500
2.363,1500.500,1247.500,1136.000,1564.000
2.364,1500.500,1247.000,1134.000,1562.500
2.365,1500.500,1246.500,1133.000,1561.000
2.366,1500.000,1246.000,1132.000,1560.000
2.367,1499.500,1245.000,1131.500,1559.500
2.368,1498.500,1244.500,1131.000,1560.000
2.369,1498.000,1244.000,1131.500,1560.500
2.370,1497.000,1243.500,1132.500,1562.000
2.371,1496.000,1243.500,1133.500,1564.000
2.372,1495.500,1244.000,1135.000,1566.000
2.373,1494.500,1245.000,1136.500,1568.000
2.374,1493.000,1246.500,1137.500,1569.500
2.375,1492.000,1247.500,1138.000,1569.000
2.376,1490.500,1248.000,1137.500,1568.000
2.377,1489.000,1248.000,1136.500,1565.500
2.378,1488.000,1248.000,1135.500,1562.500
2.379,1487.000,1247.000,1133.500,1559.500
2.380,1486.500,1246.000,1132.000,1556.000
2.381,1487.000,1245.500,1130.500,1553.000
2.382,1487.500,1245.000,1130.000,1551.500
2.383,1488.500,1245.000,1129.500,1551.000
2.384,1489.500,1245.500,1129.500,1551.000
2.385,1490.500,1246.500,1130.000,1551.500
2.386,1491.000,1247.000,1129.500,1552.000
2.387,1491.500,1247.500,1129.500,1552.500
2.388,1491.500,1247.500,1129.500,1553.000
2.389,1491.500,1248.000,1129.500,1553.500
2.390,1491.500,1248.500,1129.500,1554.500
2.391,1491.000,1249.000,1130.500,1556.000
2.392,1489.500,1249.000,1131.000,1557.500
2.393,1488.000,1249.000,1132.000,1558.500
2.394,1486.000,1249.000,1132.000,1559.000
2.395,1484.000,1249.000,1132.000,1559.000
2.396,1482.500,1248.000,1131.500,1558.500
2.397,1481.000,1247.000,1130.500,1556.500
2.398,1480.000,1245.500,1128.000,1554.000
2.399,1479.500,1244.000,1125.500,1550.500
2.400,1479.000,1241.500,1122.000,1547.500
2.401,1479.000,1240.000,1119.000,1544.500
2.402,1479.000,1238.500,1116.500,1542.500
2.403,1479.500,1238.000,1114.500,1541.000
2.404,1479.500,1237.500,1113.500,1540.500
2.405,1480.000,1237.500,1113.000,1540.500
2.406,1480.500,1237.500,1112.500,1540.500
2.407,1480.000,1238.000,1112.000,1541.000
2.408,1480.000,1238.000,1112.000,1541.500
2.409,1479.000,1238.000,1112.000,1542.000
2.410,1478.000,1238.000,1112.000,1543.000
2.411,1476.500,1238.000,1112.000,1543.500
2.412,1475.000,1238.000,1113.000,1544.500
2.413,1473.500,1238.500,1113.500,1545.500
2.414,1472.000,1238.500,1114.000,1546.000
2.415,1470.500,1238.500,1114.000,1545.500
2.416,1469.500,1238.000,1113.000,1545.000
2.417,1468.500,1237.000,1111.500,1543.500
2.418,1467.500,1235.500,1109.500,1541.500
2.419,1467.000,1233.500,1106.500,1539.500
2.420,1467.000,1232.000,1103.500,1537.000
2.421,1467.000,1230.000,1101.000,1535.000
2.422,1467.500,1229.000,1098.500,1533.000
2.423,1467.500,1228.000,1097.000,1531.500
2.424,1468.000,1227.500,1095.500,1530.000
2.425,1468.500,1227.500,1094.500,1528.500
2.426,1468.500,1227.500,1094.000,1527.500
2.427,1468.500,1227.500,1094.000,1527.000
2.428,1468.500,1228.000,1094.000,1527.500
2.429,1468.000,1228.000,1094.500,1528.000
2.430,1467.500,1228.500,1095.000,1529.000
2.431,1466.000,1228.500,1095.500,1530.000
2.432,1464.000,1228.500,1096.000,1531.500
2.433,1462.000,1228.500,1096.500,1532.500
2.434,1460.000,1228.000,1097.000,1533.000
2.435,1458.500,1228.000,1097.000,1532.000
2.436,1457.000,1227.500,1096.000,1530.000
2.437,1455.500,1226.000,1094.000,1527.000
2.438,1455.000,1224.000,1091.000,1523.000
2.439,1454.000,1221.500,1087.000,1519.500
2.440,1454.000,1218.500,1083.000,1516.000
2.441,1453.500,1216.000,1079.000,1513.500
2.442,1454.000,1214.000,1076.000,1512.000
2.443,1454.500,1213.000,1074.000,1511.000
2.444,1455.000,1212.500,1073.000,1511.000
2.445,1455.500,1212.500,1072.500,1511.000
2.446,1456.000,1213.000,1073.000,1511.500
2.447,1456.500,1213.500,1074.000,1512.000
2.448,1456.500,1214.000,1075.000,1513.000
2.449,1457.000,1215.000,1076.500,1514.500
2.450,1457.000,1216.500,1078.500,1516.000
2.451,1457.500,1218.500,1081.500,1519.000
2.452,1458.000,1220.500,1084.000,1522.000
2.453,1458.000,1222.500,1087.000,1524.500
2.454,1457.000,1224.000,1089.000,1526.500
2.455,1456.500,1225.500,1090.000,1527.500
2.456,1455.500,1225.500,1090.000,1527.500
2.457,1454.500,1225.000,1089.500,1526.500
2.458,1453.500,1223.500,1087.500,1525.000
2.459,1453.000,1222.000,1085.000,1522.500
2.460,1452.500,1219.500,1082.000,1519.500
2.461,1452.000,1217.000,1079.000,1516.000
2.462,1451.500,1215.000,1075.500,1513.000
2.463,1450.000,1212.000,1072.000,1509.500
2.464,1447.500,1208.000,1067.500,1505.500
2.465,1444.000,1203.000,1062.500,1501.500
2.466,1440.000,1198.000,1057.000,1497.500
2.467,1436.500,1193.500,1052.000,1494.000
2.468,1433.500,1190.500,1048.500,1491.500
2.469,1432.000,1189.000,1047.000,1490.500
2.470,1431.000,1189.000,1046.500,1490.500
2.471,1430.500,1189.500,1047.500,1491.500
2.472,1430.000,1191.000,1049.500,1493.000
2.473,1429.500,1192.500,1051.500,1495.000
2.474,1428.500,1194.000,1053.500,1496.500
2.475,1427.000,1194.500,1054.000,1497.000
2.476,1426.000,1195.000,1053.500,1495.500
2.477,1425.500,1194.500,1052.000,1493.500
2.478,1425.500,1194.000,1049.500,1490.500
2.479,1427.000,1193.500,1047.000,1488.000
2.480,1429.500,1194.000,1045.000,1486.500
2.481,1432.500,1195.000,1044.000,1486.500
2.482,1435.500,1196.500,1043.500,1487.000
2.483,1438.000,1197.500,1043.500,1488.000
2.484,1439.000,1198.000,1043.500,1489.000
2.485,1439.000,1198.500,1044.000,1489.500
2.486,1439.000,1199.000,1045.000,1490.500
2.487,1438.500,1200.000,1047.000,1491.500
2.488,1438.500,1201.500,1049.500,1493.000
2.489,1438.500,1203.000,1052.500,1495.000
2.490,1438.500,1205.000,1056.500,1497.500
2.491,1438.500,1207.000,1060.000,1499.500
2.492,1438.000,1208.500,1063.500,1502.000
2.493,1437.000,1210.000,1066.500,1503.500
2.494,1436.000,1211.000,1068.500,1505.000
2.495,1434.500,1210.500,1068.500,1505.000
2.496,1433.000,1209.000,1067.000,1504.000
2.497,1431.500,1206.500,1065.000,1502.500
2.498,1430.500,1203.500,1061.500,1500.000
2.499,1430.500,1201.000,1058.500,1497.500
2.500,1431.000,1199.000,1055.500,1495.000
2.501,1431.500,1198.000,1053.000,1493.000
2.502,1432.500,1197.500,1051.000,1491.500
2.503,1433.500,1198.000,1050.000,1490.500
2.504,1434.000,1199.000,1049.500,1490.000
2.505,1434.500,1200.500,1049.000,1489.500
2.506,1434.500,1201.500,1049.000,1489.500
2.507,1434.500,1202.500,1049.000,1489.000
2.508,1434.500,1203.500,1049.500,1489.000
2.509,1434.000,1204.500,1049.500,1489.500
2.510,1433.500,1205.500,1050.500,1490.500
2.511,1433.000,1206.000,1051.500,1492.000
2.512,1432.000,1206.500,1052.500,1494.000
2.513,1431.000,1207.500,1054.000,1495.500
2.514,1430.000,1208.000,1055.000,1497.000
2.515,1429.000,1208.000,1055.500,1497.500
2.516,1428.000,1208.000,1055.000,1496.500
2.517,1427.000,1207.000,1053.500,1494.500
2.518,1426.000,1205.500,1050.500,1491.500
2.519,1425.500,1203.500,1047.500,1488.000
2.520,1425.000,1201.000,1044.000,1485.000
2.521,1425.000,1199.500,1041.000,1482.000
2.522,1425.500,1198.500,1039.000,1480.500
2.523,1426.500,1198.000,1037.500,1479.500
2.524,1427.000,1198.500,1037.500,1479.500
2.525,1428.000,1198.500,1037.500,1480.000
2.526,1428.500,1199.500,1038.000,1480.500
2.527,1428.500,1200.000,1038.000,1481.500
2.528,1428.000,1200.000,1038.000,1481.500
2.529,1427.500,1200.000,1037.500,1481.000
2.530,1426.000,1199.500,1036.000,1480.000
2.531,1424.000,1198.500,1035.000,1479.000
2.532,1421.500,1197.500,1034.500,1478.000
2.533,1418.500,1197.000,1034.000,1477.500
2.534,1415.500,1196.500,1033.500,1477.000
2.535,1413.000,1195.500,1033.000,1476.500
2.536,1411.000,1194.500,1031.500,1475.000
2.537,1409.500,1193.000,1029.500,1473.000
2.538,1408.500,1191.000,1026.500,1470.000
2.539,1408.000,1189.500,1023.500,1467.000
2.540,1408.500,1188.000,1021.000,1464.500
2.541,1409.500,1187.000,1019.500,1462.000
2.542,1410.500,1186.000,1018.500,1460.500
2.543,1412.000,1186.000,1018.000,1460.000
2.544,1412.500,1186.000,1017.500,1459.500
2.545,1413.000,1186.000,1017.500,1459.500
2.546,1413.500,1186.000,1017.500,1460.000
2.547,1413.500,1186.000,1017.500,1460.000
2.548,1413.000,1186.500,1017.500,1460.500
2.549,1413.000,1186.500,1017.500,1460.500
2.550,1412.500,1187.000,1017.500,1461.000
2.551,1412.000,1187.500,1018.000,1461.500
2.552,1411.000,1188.000,1019.000,1462.000
2.553,1409.500,1188.500,1019.500,1463.000
2.554,1408.500,1188.500,1020.000,1463.500
2.555,1407.000,1188.500,1020.000,1463.500
2.556,1405.500,1187.500,1019.000,1462.500
2.557,1404.500,1186.500,1017.500,1461.000
2.558,1404.000,1185.000,1015.500,1459.000
2.559,1404.500,1183.500,1013.500,1457.000
2.560,1405.000,1182.000,1011.000,1455.000
2.561,1406.000,1180.500,1009.000,1454.000
2.562,1407.000,1180.000,1007.000,1453.000
2.563,1407.500,1179.000,1006.000,1452.000
2.564,1408.000,1178.500,1005.000,1451.500
2.565,1408.000,1178.500,1004.000,1450.500
2.566,1408.000,1178.500,1003.500,1449.000
2.567,1407.500,1178.000,1002.500,1447.000
2.568,1407.000,1178.000,1002.000,1445.500
2.569,1406.000,1178.000,1001.500,1445.000
2.570,1405.500,1178.500,1002.000,1444.500
2.571,1404.500,1179.000,1002.500,1445.500
2.572,1403.000,1180.000,1004.000,1446.500
2.573,1402.000,1181.000,1005.500,1447.500
2.574,1400.500,1182.000,1007.000,1449.000
2.575,1399.500,1182.000,1008.000,1449.500
2.576,1398.500,1182.000,1008.000,1449.000
2.577,1398.000,1181.000,1007.000,1447.500
2.578,1397.500,1180.000,1005.000,1445.000
2.579,1397.500,1178.000,1002.500,1441.500
2.580,1398.000,1176.000,999.000,1438.000
2.581,1398.000,1174.000,996.000,1435.000
2.582,1398.000,1172.000,993.000,1433.000
2.583,1398.500,1171.000,990.500,1431.500
2.584,1398.500,1170.000,989.000,1431.500
2.585,1399.000,1169.500,988.500,1431.500
2.586,1399.000,1169.500,987.500,1432.000
2.587,1399.000,1169.500,987.500,1432.500
2.588,1399.000,1169.500,987.000,1433.000
2.589,1398.500,1169.500,987.000,1433.500
2.590,1398.000,1170.000,987.000,1434.000
2.591,1397.500,1170.500,988.000,1435.500
2.592,1396.500,1171.000,989.000,1437.000
2.593,1395.500,1172.000,991.000,1438.500
2.594,1394.000,1172.500,992.000,1439.500
2.595,1392.500,1172.500,992.500,1440.000
2.596,1391.000,1172.000,992.500,1439.500
2.597,1390.500,1171.000,991.500,1438.000
2.598,1390.000,1170.000,990.000,1436.500
2.599,1390.500,1169.000,988.500,1434.000
2.600,1391.500,1168.000,987.000,1432.000
2.601,1392.500,1167.000,985.000,1430.000
2.602,1393.500,1166.000,983.500,1428.500
2.603,1394.000,1165.000,983.000,1427.500
2.604,1394.000,1165.000,982.500,1427.000
2.605,1394.000,1165.000,982.500,1427.000
2.606,1394.000,1165.000,983.000,1427.500
2.607,1394.000,1165.500,983.500,1428.000
2.608,1394.000,1166.500,984.000,1428.500
2.609,1394.000,1167.500,984.500,1429.500
2.610,1394.000,1168.500,985.500,1430.500
2.611,1394.000,1170.000,986.500,1431.500
2.612,1394.000,1172.000,988.500,1433.500
2.613,1393.500,1173.500,990.500,1435.500
2.614,1393.000,1175.000,992.500,1437.000
2.615,1392.000,1176.000,994.500,1438.000
2.616,1391.000,1176.000,995.500,1438.500
2.617,1389.500,1175.000,995.500,1437.500
2.618,1388.500,1173.000,994.500,1435.500
2.619,1387.000,1170.000,992.000,1432.500
2.620,1386.000,1166.000,988.500,1428.500
2.621,1385.000,1162.000,985.000,1425.000
2.622,1384.000,1158.500,981.500,1422.500
2.623,1384.000,1156.500,979.000,1421.000
2.624,1383.500,1155.500,977.500,1420.000
2.625,1384.000,1156.000,976.500,1419.500
2.626,1384.500,1157.000,976.500,1419.000
2.627,1385.000,1159.000,977.000,1419.000
2.628,1385.000,1161.000,977.500,1419.000
2.629,1385.000,1162.500,978.000,1419.000
2.630,1384.500,1164.500,979.000,1419.500
2.631,1384.500,1166.000,980.500,1420.500
2.632,1384.000,1167.500,982.500,1422.000
2.633,1383.500,1169.000,984.500,1424.000
2.634,1382.500,1170.000,986.000,1426.000
2.635,1381.500,1170.500,987.000,1427.000
2.636,1381.000,1170.000,986.500,1427.000
2.637,1380.000,1168.000,985.000,1426.000
2.638,1379.500,1166.000,983.000,1424.500
2.639,1379.500,1163.500,980.000,1422.500
2.640,1380.000,1161.000,976.500,1420.000
2.641,1380.500,1159.000,974.000,1417.500
2.642,1380.500,1157.500,971.500,1415.000
2.643,1381.000,1156.500,970.000,1413.000
2.644,1381.000,1156.000,969.000,1411.500
2.645,1381.000,1155.500,968.500,1410.500
2.646,1381.000,1155.500,968.500,1409.500
2.647,1381.000,1155.500,968.500,1409.500
2.648,1380.500,1155.500,968.500,1410.000
2.649,1380.000,1155.500,969.000,1410.500
2.650,1379.500,1155.500,969.500,1412.000
2.651,1378.500,1156.000,970.500,1413.500
2.652,1377.500,1156.000,971.500,1415.000
2.653,1376.000,1157.000,973.000,1416.000
2.654,1374.500,1157.000,974.000,1416.500
2.655,1372.500,1157.000,974.000,1415.500
2.656,1371.000,1156.000,973.000,1414.500
2.657,1370.000,1155.000,971.500,1412.500
2.658,1369.500,1153.000,969.000,1410.000
2.659,1369.500,1151.500,966.500,1407.000
2.660,1370.000,1149.500,964.000,1404.500
2.661,1371.000,1148.500,961.500,1403.000
2.662,1372.000,1147.000,960.000,1401.500
2.663,1372.500,1146.000,958.500,1400.500
2.664,1373.000,1145.500,957.500,1400.000
2.665,1373.000,1144.500,956.500,1400.000
2.666,1373.000,1144.000,956.500,1400.000
2.667,1373.000,1144.000,957.000,1400.500
2.668,1373.000,1144.000,957.500,1401.000
2.669,1373.000,1144.500,958.500,1402.000
2.670,1372.500,1145.000,960.000,1403.000
2.671,1372.500,1146.000,961.500,1404.500
2.672,1371.500,1147.000,964.000,1406.000
2.673,1371.000,1148.000,965.500,1407.500
2.674,1370.000,1148.000,967.000,1408.500
2.675,1368.500,1147.500,967.000,1408.500
2.676,1366.500,1146.000,966.000,1407.500
2.677,1365.000,1144.000,963.500,1405.000
2.678,1363.500,1141.000,960.000,1401.500
2.679,1362.000,1138.000,956.500,1398.000
2.680,1361.500,1135.000,953.000,1395.000
2.681,1362.000,1133.000,950.500,1392.000
2.682,1362.500,1132.000,949.000,1390.500
2.683,1363.500,1131.500,948.500,1389.500
2.684,1364.500,1131.500,949.000,1389.000
2.685,1365.500,1132.000,949.500,1389.500
2.686,1366.000,1132.000,950.000,1389.500
2.687,1366.000,1131.500,950.000,1390.000
2.688,1365.500,1131.000,950.000,1391.000
2.689,1365.000,1130.500,950.500,1392.000
2.690,1364.000,1130.500,951.000,1393.500
2.691,1363.000,1130.500,951.500,1395.000
2.692,1362.000,1130.500,953.000,1396.000
2.693,1361.000,1130.500,953.500,1396.500
2.694,1359.500,1130.500,954.000,1396.500
2.695,1358.000,1129.500,954.000,1395.000
2.696,1356.000,1128.500,952.500,1393.000
2.697,1354.500,1126.500,950.000,1390.500
2.698,1353.500,1124.000,946.500,1387.500
2.699,1353.000,1121.500,943.000,1385.000
2.700,1353.500,1119.500,940.000,1383.000
2.701,1354.500,1117.500,938.000,1381.000
2.702,1355.500,1116.500,936.000,1380.500
2.703,1356.500,1115.500,935.000,1380.000
2.704,1357.000,1115.000,934.500,1379.500
2.705,1357.000,1114.500,934.500,1379.500
2.706,1357.000,1114.500,935.000,1379.000
2.707,1357.000,1114.500,936.000,1379.000
2.708,1357.000,1115.000,937.000,1379.500
2.709,1356.500,1115.500,938.500,1380.000
2.710,1356.000,1116.000,940.500,1381.000
2.711,1355.500,1117.000,942.500,1382.500
2.712,1354.500,1117.500,944.500,1384.500
2.713,1353.500,1118.500,946.500,1386.000
2.714,1352.000,1118.500,948.000,1387.000
2.715,1351.000,1118.000,948.000,1387.000
2.716,1349.500,1116.500,947.500,1386.000
2.717,1348.000,1114.500,945.000,1384.000
2.718,1346.500,1111.500,941.500,1381.000
2.719,1345.500,1108.500,937.500,1378.000
2.720,1345.000,1105.000,933.500,1375.000
2.721,1344.500,1102.000,929.500,1371.500
2.722,1344.500,1099.500,926.000,1368.500
2.723,1344.500,1097.000,923.500,1366.000
2.724,1344.500,1095.500,922.000,1364.000
2.725,1344.500,1094.500,921.000,1362.500
2.726,1344.500,1094.000,921.000,1362.000
2.727,1345.000,1094.000,921.500,1362.000
2.728,1345.500,1094.500,923.000,1363.000
2.729,1345.500,1095.000,925.000,1364.500
2.730,1345.500,1095.500,927.500,1366.500
2.731,1345.000,1095.500,929.500,1368.500
2.732,1344.000,1095.000,931.000,1370.500
2.733,1343.000,1094.000,932.500,1372.500
2.734,1341.000,1092.500,934.000,1373.500
2.735,1339.500,1091.500,934.500,1374.000
2.736,1337.500,1090.000,934.000,1373.500
2.737,1336.500,1089.000,932.500,1372.500
2.738,1336.500,1088.000,930.500,1370.500
2.739,1337.000,1087.000,928.000,1368.500
2.740,1338.000,1087.000,926.000,1366.500
2.741,1340.000,1087.000,925.000,1365.500
2.742,1342.000,1088.000,925.000,1365.000
2.743,1344.000,1089.000,926.000,1365.500
2.744,1345.500,1089.500,926.500,1365.500
2.745,1346.000,1089.500,926.500,1365.000
2.746,1345.500,1088.500,925.000,1363.500
2.747,1344.500,1087.000,923.000,1361.500
2.748,1342.500,1084.500,920.500,1359.000
2.749,1340.500,1082.000,918.000,1356.500
2.750,1339.000,1080.000,916.500,1355.000
2.751,1337.500,1079.000,916.000,1354.000
2.752,1336.000,1079.000,917.000,1354.500
2.753,1334.500,1079.000,919.000,1356.000
2.754,1333.000,1079.000,921.500,1358.000
2.755,1332.500,1079.500,923.500,1359.500
2.756,1331.500,1079.000,925.000,1360.500
2.757,1331.500,1078.500,925.500,1360.000
2.758,1331.000,1077.000,924.500,1359.000
2.759,1331.500,1075.000,922.000,1356.500
2.760,1332.000,1073.000,919.500,1354.000
2.761,1332.500,1071.000,917.000,1352.000
2.762,1333.500,1069.500,915.000,1350.500
2.763,1334.000,1068.500,914.000,1350.500
2.764,1334.500,1067.000,913.500,1350.500
2.765,1334.500,1066.500,913.500,1351.000
2.766,1334.500,1065.500,914.000,1351.500
2.767,1334.500,1065.000,914.500,1352.000
2.768,1334.000,1065.000,915.000,1352.500
2.769,1333.500,1064.500,916.000,1353.000
2.770,1333.000,1064.500,917.000,1354.000
2.771,1332.000,1064.500,918.500,1356.000
2.772,1331.000,1065.000,920.000,1357.500
2.773,1330.000,1065.500,922.000,1359.500
2.774,1328.500,1065.500,923.000,1361.000
2.775,1327.000,1065.000,923.500,1361.500
2.776,1325.500,1063.500,923.000,1361.000
2.777,1324.500,1061.500,921.000,1359.000
2.778,1323.500,1059.000,918.000,1356.000
2.779,1323.000,1056.000,915.000,1352.500
2.780,1323.000,1053.000,911.000,1348.500
2.781,1323.000,1050.000,907.500,1345.500
2.782,1323.500,1048.000,905.000,1342.500
2.783,1324.000,1046.500,903.500,1341.000
2.784,1324.000,1045.500,902.500,1339.500
2.785,1324.500,1044.500,901.500,1339.000
2.786,1324.500,1043.500,901.000,1338.000
2.787,1324.500,1042.500,900.000,1337.000
2.788,1323.500,1041.500,899.500,1336.500
2.789,1322.500,1041.000,898.500,1336.000
2.790,1321.500,1040.500,898.500,1336.500
2.791,1320.500,1040.500,899.000,1337.500
2.792,1319.500,1040.500,900.000,1339.000
2.793,1318.500,1040.500,901.000,1340.500
2.794,1317.500,1040.500,902.000,1341.500
2.795,1316.500,1040.000,902.000,1341.500
2.796,1315.500,1039.000,901.500,1340.500
2.797,1314.500,1037.000,900.500,1338.500
2.798,1314.500,1035.000,898.500,1336.000
2.799,1314.500,1032.500,896.500,1333.000
2.800,1315.000,1030.000,894.500,1330.500
2.801,1315.500,1028.000,892.500,1329.000
2.802,1316.500,1026.000,891.000,1327.500
2.803,1317.000,1025.000,890.500,1327.500
2.804,1317.500,1024.000,890.000,1328.000
2.805,1317.500,1023.500,890.000,1328.500
2.806,1317.500,1023.000,890.000,1329.500
2.807,1317.500,1023.000,890.500,1330.000
2.808,1317.500,1022.500,890.500,1330.500
2.809,1317.500,1022.000,891.000,1331.000
2.810,1317.000,1021.500,891.500,1331.500
2.811,1316.500,1021.500,893.000,1332.500
2.812,1316.000,1021.500,894.500,1334.000
2.813,1314.500,1022.000,897.000,1336.000
2.814,1313.500,1022.500,899.000,1338.000
2.815,1312.000,1022.000,900.000,1339.000
2.816,1310.500,1021.500,900.500,1338.500
2.817,1309.500,1019.500,899.000,1337.000
2.818,1309.000,1017.000,896.500,1334.500
2.819,1309.000,1014.500,892.500,1331.500
2.820,1309.000,1011.500,888.500,1328.000
2.821,1310.000,1009.000,885.500,1325.000
2.822,1311.000,1007.500,883.500,1323.000
2.823,1312.500,1006.500,882.500,1322.000
2.824,1313.500,1006.500,883.000,1321.500
2.825,1314.500,1006.500,883.500,1321.500
2.826,1315.500,1007.000,884.500,1321.500
2.827,1316.000,1007.000,885.500,1322.000
2.828,1316.000,1007.000,886.500,1322.500
2.829,1315.500,1007.000,887.500,1322.500
2.830,1314.000,1006.500,888.000,1323.000
2.831,1312.000,1005.500,888.000,1323.500
2.832,1309.500,1004.500,888.500,1324.000
2.833,1306.500,1003.000,888.000,1324.000
2.834,1303.500,1001.000,887.000,1323.500
2.835,1300.500,999.000,885.500,1322.000
2.836,1298.500,996.500,883.000,1320.000
2.837,1297.500,994.000,880.500,1317.500
2.838,1296.500,991.000,877.500,1314.000
2.839,1296.500,988.000,874.500,1311.000
2.840,1296.500,985.000,871.000,1307.500
2.841,1296.500,981.500,867.000,1304.000
2.842,1296.500,978.500,863.500,1301.000
2.843,1296.500,975.500,860.000,1298.500
2.844,1296.000,973.000,857.500,1296.000
2.845,1295.500,971.000,855.500,1294.000
2.846,1295.000,969.500,854.500,1292.500
2.847,1294.000,968.500,853.500,1290.500
2.848,1293.000,967.500,853.500,1289.000
2.849,1292.000,967.500,853.500,1288.000
2.850,1291.000,967.000,854.500,1287.000
2.851,1290.000,967.500,855.500,1287.000
2.852,1289.000,968.000,857.500,1288.000
2.853,1287.500,968.500,860.000,1290.000
2.854,1286.500,969.000,862.500,1292.000
2.855,1285.500,970.000,864.000,1295.000
2.856,1284.500,970.500,866.000,1298.000
2.857,1284.000,970.500,867.000,1301.500
2.858,1284.500,971.000,868.500,1304.500
2.859,1285.500,971.500,869.500,1308.000
2.860,1287.500,972.000,870.500,1311.000
2.861,1289.500,973.000,872.000,1313.500
