'Elapsed time','AECG1','AECG2','AECG3','AECG4'
'seconds','uV','uV','uV','uV'
0.000,-1.500,15.500,-3.500,-6.000
0.001,-1.500,15.500,-4.000,-6.000
0.002,-1.500,15.500,-3.500,-6.000
0.003,-1.500,16.500,-2.000,-6.500
0.004,-1.500,17.000,-0.500,-7.000
0.005,-1.500,17.500,1.000,-7.500
0.006,-1.500,17.500,3.000,-8.500
0.007,-1.500,17.500,4.000,-9.000
0.008,-1.500,17.500,4.000,-9.500
0.009,-1.500,17.500,3.500,-9.500
0.010,-1.500,17.500,2.500,-9.000
0.011,-1.500,18.000,1.500,-9.000
0.012,-1.500,18.000,1.500,-8.500
0.013,-1.500,18.500,2.000,-8.000
0.014,-1.500,19.500,3.000,-7.500
0.015,-1.500,20.000,4.500,-7.500
0.016,-1.500,21.000,4.500,-7.500
0.017,-1.500,21.000,3.500,-7.500
0.018,-1.500,21.000,2.000,-7.500
0.019,-1.500,20.500,0.500,-7.500
0.020,-1.500,20.500,-0.500,-7.500
0.021,-1.500,20.500,-1.500,-7.000
0.022,-1.500,21.000,-2.500,-6.500
0.023,-2.000,21.000,-3.500,-6.000
0.024,-2.000,21.000,-4.000,-5.500
0.025,-2.000,20.000,-4.000,-5.000
0.026,-2.000,19.500,-4.000,-5.000
0.027,-2.000,19.000,-3.000,-5.000
0.028,-2.000,19.000,-2.000,-5.000
0.029,-2.000,19.500,-1.000,-5.000
0.030,-2.000,20.000,0.500,-5.000
0.031,-2.000,20.500,2.000,-5.500
0.032,-2.000,21.000,4.000,-6.000
0.033,-2.000,21.000,6.000,-6.500
0.034,-2.000,21.500,8.000,-6.500
0.035,-2.000,21.500,10.500,-6.500
0.036,-2.000,21.000,11.500,-6.500
0.037,-2.000,20.500,11.500,-6.500
0.038,-2.000,19.500,10.500,-6.500
0.039,-2.000,19.000,9.500,-6.500
0.040,-1.500,18.000,9.000,-6.500
0.041,-1.500,17.500,8.000,-7.000
0.042,-1.500,17.500,7.000,-7.000
0.043,-1.500,17.500,6.000,-7.000
0.044,-1.500,18.000,5.500,-7.000
0.045,-1.500,19.000,6.500,-7.000
0.046,-1.500,19.500,8.000,-7.000
0.047,-1.500,20.000,9.500,-6.500
0.048,-1.500,20.500,10.000,-6.500
0.049,-1.500,20.500,10.000,-6.000
0.050,-1.500,21.000,10.000,-6.000
0.051,-1.000,21.000,10.000,-5.500
0.052,-1.000,21.500,10.000,-5.500
0.053,-1.000,22.000,10.500,-5.000
0.054,-1.000,22.000,11.000,-5.000
0.055,-1.000,22.000,12.500,-5.000
0.056,-1.500,22.000,14.000,-5.000
0.057,-1.500,21.500,15.000,-5.500
0.058,-1.500,21.000,16.000,-5.500
0.059,-1.500,20.500,17.000,-6.000
0.060,-1.500,20.000,17.000,-6.000
0.061,-1.500,19.500,16.500,-6.000
0.062,-1.500,19.500,14.500,-6.500
0.063,-1.500,19.500,12.500,-6.500
0.064,-1.500,20.000,10.000,-6.000
0.065,-1.500,20.500,8.500,-6.000
0.066,-1.500,20.500,8.500,-6.000
0.067,-2.000,20.500,9.500,-6.500
0.068,-2.000,19.500,11.500,-7.000
0.069,-2.000,18.000,14.500,-8.000
0.070,-2.000,16.000,17.000,-9.000
0.071,-2.000,14.500,19.000,-9.500
0.072,-2.000,13.000,20.000,-10.500
0.073,-2.000,11.000,20.500,-11.000
0.074,-2.000,9.500,20.500,-11.000
0.075,-2.000,8.500,21.000,-11.500
0.076,-2.000,7.000,21.500,-12.000
0.077,-2.000,5.500,22.000,-12.500
0.078,-2.000,3.500,22.500,-13.500
0.079,-2.000,2.000,23.000,-14.500
0.080,-2.000,0.000,23.500,-15.000
0.081,-2.000,-1.000,23.500,-15.500
0.082,-1.500,-1.500,22.500,-15.500
0.083,-1.500,-1.500,21.000,-15.500
0.084,-1.500,-2.000,19.000,-15.500
0.085,-1.500,-2.500,17.000,-15.000
0.086,-1.500,-3.000,15.500,-14.500
0.087,-1.500,-3.500,14.000,-14.000
0.088,-1.500,-3.500,13.000,-13.000
0.089,-1.500,-3.000,12.000,-12.000
0.090,-1.000,-2.000,11.500,-11.000
0.091,-1.000,-0.500,11.000,-9.500
0.092,-1.500,1.500,10.500,-7.500
0.093,-1.500,4.000,9.500,-6.000
0.094,-1.500,6.500,8.500,-4.000
0.095,-1.500,9.500,8.000,-2.500
0.096,-1.500,13.000,7.000,-0.500
0.097,-1.500,16.000,6.500,1.500
0.098,-1.500,19.000,6.500,3.500
0.099,-2.000,21.500,6.500,5.500
0.100,-2.000,24.000,6.500,7.000
0.101,-2.000,26.000,6.000,8.500
0.102,-2.000,27.000,4.000,9.000
0.103,-2.000,28.000,1.500,9.500
0.104,-2.000,29.000,-0.500,10.000
0.105,-2.000,30.000,-2.500,10.000
0.106,-2.000,31.000,-4.500,10.500
0.107,-2.000,32.000,-5.500,10.000
0.108,-2.000,33.000,-6.500,10.000
0.109,-2.000,33.500,-7.000,9.500
0.110,-2.000,33.500,-7.000,9.500
0.111,-2.000,32.500,-7.000,9.000
0.112,-2.000,31.500,-6.500,9.000
0.113,-2.000,30.500,-5.500,8.500
0.114,-2.000,30.000,-4.000,8.000
0.115,-1.500,30.000,-1.500,8.000
0.116,-1.500,30.000,2.000,7.500
0.117,-1.500,30.000,4.500,7.000
0.118,-1.500,29.000,6.500,6.500
0.119,-1.500,28.000,7.000,6.000
0.120,-1.500,26.500,7.000,5.500
0.121,-2.000,24.500,6.500,5.000
0.122,-2.000,23.500,6.000,4.500
0.123,-2.000,23.000,5.000,4.000
0.124,-2.000,23.000,5.000,3.500
0.125,-2.000,23.500,6.500,3.000
0.126,-2.000,23.500,7.500,2.500
0.127,-2.000,24.000,7.000,1.500
0.128,-2.000,24.000,6.000,1.000
0.129,-2.000,23.500,5.500,0.500
0.130,-1.500,23.000,5.000,0.500
0.131,-1.500,22.500,5.000,0.000
0.132,-1.500,21.500,4.500,-0.500
0.133,-1.500,21.000,3.000,-1.000
0.134,-1.500,20.500,1.500,-1.500
0.135,-1.500,20.500,-0.500,-2.000
0.136,-1.500,21.000,-1.000,-2.000
0.137,-1.500,21.000,-1.500,-2.500
0.138,-1.500,21.000,-1.500,-2.500
0.139,-1.500,21.000,-2.000,-2.500
0.140,-1.500,21.500,-3.000,-2.500
0.141,-1.500,21.500,-3.000,-2.500
0.142,-1.500,21.500,-3.000,-2.500
0.143,-1.500,21.500,-2.000,-2.000
0.144,-1.500,21.500,-0.500,-2.000
0.145,-1.500,21.000,1.500,-2.000
0.146,-1.500,21.000,3.000,-1.500
0.147,-1.500,21.000,4.000,-1.500
0.148,-1.500,21.000,4.000,-1.000
0.149,-1.500,20.500,4.000,-1.000
0.150,-1.500,20.000,3.500,-1.000
0.151,-1.500,20.000,3.500,-0.500
0.152,-1.500,19.500,4.000,-0.500
0.153,-1.500,19.000,5.500,0.000
0.154,-1.500,19.000,6.500,0.500
0.155,-1.500,19.000,6.500,0.500
0.156,-2.000,19.500,5.500,1.000
0.157,-2.000,20.000,3.000,1.500
0.158,-2.000,20.500,0.500,1.500
0.159,-2.000,21.000,-2.000,1.500
0.160,-2.000,21.500,-3.500,1.500
0.161,-1.500,22.000,-4.500,1.500
0.162,-1.500,23.000,-5.000,1.500
0.163,-1.500,23.500,-4.000,2.000
0.164,-1.500,23.500,-2.000,2.000
0.165,-1.500,23.000,0.000,1.500
0.166,-1.500,22.000,1.500,1.000
0.167,-1.500,21.000,2.000,0.500
0.168,-1.500,20.000,1.500,0.500
0.169,-1.500,19.500,1.000,0.500
0.170,-1.500,18.500,0.500,0.000
0.171,-2.000,18.000,-0.500,0.000
0.172,-2.000,18.000,-3.000,0.500
0.173,-2.000,18.000,-5.000,0.500
0.174,-2.000,18.500,-6.500,1.000
0.175,-2.000,19.000,-6.000,1.500
0.176,-2.000,19.000,-4.000,1.000
0.177,-2.000,19.500,-1.000,1.000
0.178,-2.000,20.000,1.500,0.500
0.179,-2.000,20.500,2.000,0.500
0.180,-1.500,21.500,1.500,0.000
0.181,-1.500,22.500,0.500,-0.500
0.182,-1.500,23.000,-1.000,-0.500
0.183,-1.500,23.000,-1.500,-0.500
0.184,-1.500,22.500,-2.500,0.000
0.185,-1.500,21.000,-2.500,0.500
0.186,-1.500,19.500,-3.000,0.500
0.187,-1.500,18.000,-3.000,0.000
0.188,-1.500,17.000,-3.000,-0.500
0.189,-1.500,16.500,-2.000,-0.500
0.190,-1.500,16.500,0.000,-1.000
0.191,-1.000,16.500,1.500,-1.000
0.192,-1.000,16.500,3.000,-1.500
0.193,-1.000,16.500,3.000,-1.500
0.194,-1.000,16.500,2.000,-2.000
0.195,-1.000,16.500,-0.500,-2.000
0.196,-1.500,17.000,-2.500,-2.000
0.197,-1.500,17.500,-4.500,-1.500
0.198,-1.500,18.000,-6.500,-1.000
0.199,-1.500,18.000,-7.000,-1.000
0.200,-1.500,17.500,-7.000,-1.000
0.201,-1.500,17.500,-6.000,-1.000
0.202,-1.500,18.000,-5.000,-1.000
0.203,-1.500,19.000,-5.000,-0.500
0.204,-2.000,20.500,-5.500,-0.500
0.205,-2.000,21.500,-7.000,0.000
0.206,-2.000,22.500,-8.500,0.000
0.207,-2.000,23.000,-9.000,0.000
0.208,-2.000,22.000,-9.000,-0.500
0.209,-2.000,21.000,-8.500,-0.500
0.210,-2.000,19.500,-8.000,-1.000
0.211,-2.000,19.000,-8.000,-1.000
0.212,-2.000,18.500,-9.000,-1.000
0.213,-2.000,18.000,-9.500,-1.000
0.214,-1.500,18.000,-10.500,-1.000
0.215,-1.500,17.500,-11.000,-1.500
0.216,-1.500,17.000,-11.500,-2.000
0.217,-1.500,16.500,-11.000,-2.000
0.218,-1.500,16.000,-9.500,-2.500
0.219,-1.000,15.500,-7.000,-2.500
0.220,-1.000,15.000,-4.000,-3.000
0.221,-1.500,14.500,-2.500,-3.000
0.222,-1.500,14.000,-2.500,-3.000
0.223,-1.500,14.000,-4.500,-3.000
0.224,-1.500,14.500,-6.000,-3.000
0.225,-2.000,15.000,-6.500,-3.000
0.226,-2.000,15.000,-6.500,-3.000
0.227,-2.000,15.500,-7.000,-3.000
0.228,-2.000,15.500,-7.500,-3.000
0.229,-2.000,16.000,-8.000,-3.000
0.230,-2.000,16.000,-7.000,-3.000
0.231,-1.500,15.500,-5.500,-3.000
0.232,-1.500,15.500,-4.000,-3.000
0.233,-1.500,15.500,-2.500,-3.000
0.234,-1.500,16.000,-2.000,-3.000
0.235,-1.500,16.000,-3.500,-3.000
0.236,-1.500,16.500,-5.500,-2.500
0.237,-1.500,16.500,-7.000,-2.000
0.238,-2.000,17.000,-7.500,-1.500
0.239,-2.000,17.000,-7.500,-1.500
0.240,-2.000,17.500,-8.500,-1.500
0.241,-2.000,18.000,-10.500,-1.500
0.242,-2.000,18.500,-12.000,-1.000
0.243,-1.500,19.000,-13.000,-1.000
0.244,-1.500,18.500,-13.000,-1.000
0.245,-1.500,17.500,-12.000,-1.500
0.246,-1.500,16.500,-10.500,-2.000
0.247,-1.500,16.000,-9.500,-2.000
0.248,-1.500,15.500,-9.500,-2.500
0.249,-1.500,16.000,-9.500,-3.000
0.250,-1.500,16.500,-9.500,-3.000
0.251,-1.500,17.000,-10.000,-3.000
0.252,-1.500,17.000,-10.500,-2.500
0.253,-1.500,17.000,-10.500,-2.500
0.254,-1.500,16.500,-9.500,-2.000
0.255,-1.500,16.000,-9.000,-2.000
0.256,-1.500,15.000,-8.000,-2.000
0.257,-1.500,14.500,-7.000,-2.500
0.258,-1.500,14.000,-6.000,-3.000
0.259,-1.500,14.000,-5.000,-3.000
0.260,-1.500,14.000,-4.500,-2.500
0.261,-1.500,14.500,-4.500,-2.500
0.262,-1.500,15.000,-4.500,-2.000
0.263,-1.500,15.500,-4.000,-2.000
0.264,-1.500,15.500,-3.500,-2.000
0.265,-1.500,15.500,-3.000,-2.000
0.266,-1.500,15.500,-3.000,-2.500
0.267,-1.500,14.500,-4.000,-3.000
0.268,-1.500,14.000,-5.000,-3.500
0.269,-1.500,13.500,-7.000,-4.000
0.270,-1.500,13.500,-8.000,-4.500
0.271,-1.500,14.000,-9.000,-4.500
0.272,-1.500,14.500,-8.500,-4.500
0.273,-1.500,15.000,-8.000,-4.500
0.274,-1.500,15.000,-6.500,-5.000
0.275,-1.500,14.500,-5.000,-5.000
0.276,-1.500,13.500,-3.500,-5.000
0.277,-1.500,12.500,-2.500,-5.000
0.278,-1.500,12.000,-2.000,-5.000
0.279,-1.500,12.000,-1.000,-5.000
0.280,-1.500,12.500,1.500,-4.500
0.281,-2.000,13.000,4.500,-4.000
0.282,-1.500,14.000,8.000,-4.000
0.283,-1.500,15.000,10.000,-3.000
0.284,-1.500,15.500,10.500,-2.500
0.285,-1.500,16.000,10.000,-2.000
0.286,-1.500,16.000,10.000,-2.000
0.287,-1.500,16.000,11.500,-2.000
0.288,-1.500,16.000,13.000,-2.000
0.289,-1.500,15.000,14.500,-2.000
0.290,-1.500,14.000,14.500,-2.500
0.291,-1.500,12.500,13.500,-2.500
0.292,-1.500,11.000,12.000,-2.500
0.293,-1.500,10.000,10.000,-2.500
0.294,-1.000,9.500,8.000,-2.500
0.295,-1.000,9.500,6.000,-2.000
0.296,-1.000,9.500,5.500,-2.000
0.297,-1.500,10.000,5.000,-2.000
0.298,-1.500,10.000,4.500,-2.000
0.299,-1.500,10.000,2.500,-2.000
0.300,-1.500,10.000,1.000,-2.000
0.301,-1.000,10.000,0.500,-1.500
0.302,-1.000,10.000,1.500,-1.500
0.303,-1.000,10.500,4.000,-1.000
0.304,-1.500,10.500,8.000,-1.000
0.305,-1.500,11.000,13.000,-1.000
0.306,-1.500,10.500,16.500,-1.000
0.307,-1.500,10.500,18.500,-1.500
0.308,-1.500,10.500,18.000,-1.500
0.309,-1.500,11.000,15.500,-2.000
0.310,-1.500,11.000,12.500,-2.000
0.311,-1.500,11.500,9.500,-2.000
0.312,-1.500,11.500,7.000,-2.000
0.313,-1.500,11.500,5.000,-1.500
0.314,-1.500,11.000,3.500,-1.000
0.315,-1.500,11.000,3.000,-1.000
0.316,-1.500,11.500,3.500,-0.500
0.317,-1.500,12.000,4.500,-0.500
0.318,-1.500,12.000,5.500,0.000
0.319,-1.500,12.500,6.000,0.500
0.320,-1.500,12.500,6.000,0.500
0.321,-1.500,11.500,6.500,0.500
0.322,-1.500,11.000,6.500,0.000
0.323,-1.500,10.000,6.000,-0.500
0.324,-1.500,9.000,4.500,-1.000
0.325,-1.500,8.500,2.500,-1.500
0.326,-1.500,8.000,0.500,-1.500
0.327,-1.000,8.000,-0.500,-1.500
0.328,-1.000,8.500,-1.000,-1.000
0.329,-1.500,9.000,0.500,-0.500
0.330,-1.500,9.500,2.000,-0.500
0.331,-1.500,10.000,3.500,0.000
0.332,-1.500,10.000,4.500,0.000
0.333,-1.500,10.000,5.000,0.000
0.334,-1.500,10.000,4.500,0.000
0.335,-1.500,9.500,4.000,0.000
0.336,-1.500,9.000,3.000,-0.500
0.337,-1.500,9.000,3.000,-0.500
0.338,-1.500,9.500,3.500,-0.500
0.339,-1.500,9.500,4.000,-0.500
0.340,-1.500,9.500,3.500,-1.000
0.341,-1.500,9.500,2.000,-1.000
0.342,-1.500,9.500,-1.000,-1.500
0.343,-1.500,9.500,-2.500,-1.500
0.344,-1.500,9.500,-2.500,-1.500
0.345,-1.500,9.500,-1.000,-2.000
0.346,-1.500,9.500,1.000,-2.000
0.347,-1.500,9.000,2.500,-2.000
0.348,-1.500,8.500,3.500,-2.000
0.349,-1.500,8.500,4.000,-2.000
0.350,-1.500,8.500,4.000,-2.000
0.351,-1.500,9.000,4.000,-2.000
0.352,-1.500,9.500,4.000,-2.000
0.353,-1.500,10.000,4.000,-1.500
0.354,-1.500,10.000,4.000,-1.500
0.355,-1.500,10.500,4.500,-1.500
0.356,-1.500,10.500,5.000,-1.500
0.357,-1.500,10.500,6.000,-1.500
0.358,-1.500,10.500,6.500,-2.000
0.359,-1.500,10.000,7.000,-3.000
0.360,-2.000,10.000,7.000,-3.500
0.361,-2.000,9.000,6.000,-4.500
0.362,-2.000,8.000,5.000,-6.000
0.363,-1.500,6.500,4.500,-7.000
0.364,-1.500,5.000,4.500,-8.500
0.365,-1.500,3.500,5.000,-10.000
0.366,-1.000,2.000,5.500,-11.500
0.367,-1.000,1.000,6.000,-13.000
0.368,-1.000,0.500,6.000,-14.000
0.369,-1.500,0.000,5.500,-14.500
0.370,-1.500,0.000,5.500,-14.000
0.371,-1.500,0.500,4.500,-13.000
0.372,-1.500,0.500,3.500,-11.500
0.373,-1.500,0.500,2.500,-9.500
0.374,-1.500,1.000,1.500,-7.500
0.375,-1.500,2.000,1.000,-5.000
0.376,-1.500,4.000,1.000,-3.000
0.377,-1.500,5.500,1.500,-1.500
0.378,-1.000,7.500,2.500,-0.500
0.379,-1.000,9.500,3.500,0.500
0.380,-1.000,11.500,4.500,1.000
0.381,-1.500,13.500,4.500,1.000
0.382,-1.500,15.000,4.500,1.000
0.383,-1.500,15.000,4.500,0.500
0.384,-1.500,14.000,5.000,-0.500
0.385,-1.500,12.000,5.500,-1.000
0.386,-1.500,9.000,6.000,-2.000
0.387,-1.500,7.000,6.000,-3.000
0.388,-1.500,6.000,4.500,-3.500
0.389,-1.500,6.000,3.000,-3.500
0.390,-2.000,6.000,1.500,-4.000
0.391,-2.000,6.500,1.500,-4.000
0.392,-2.000,6.500,2.000,-4.000
0.393,-2.000,6.500,3.000,-4.000
0.394,-1.500,6.500,3.500,-4.000
0.395,-1.500,6.500,4.000,-4.000
0.396,-1.500,6.500,5.000,-3.500
0.397,-1.500,7.000,6.000,-3.500
0.398,-1.500,8.000,7.000,-3.500
0.399,-1.500,8.500,7.500,-3.500
0.400,-1.500,9.500,7.500,-3.500
0.401,-1.500,10.000,7.000,-3.000
0.402,-1.500,10.000,6.500,-3.000
0.403,-1.500,10.000,7.000,-3.000
0.404,-1.500,10.000,8.000,-3.000
0.405,-1.500,10.000,9.000,-3.000
0.406,-1.500,10.500,9.000,-3.000
0.407,-1.500,11.000,8.500,-3.500
0.408,-2.000,11.500,7.000,-3.500
0.409,-2.000,11.500,6.500,-4.000
0.410,-1.500,10.500,6.000,-4.000
0.411,-1.500,9.500,6.500,-4.500
0.412,-1.500,8.000,7.500,-4.500
0.413,-1.500,7.000,8.500,-4.500
0.414,-1.500,5.500,8.500,-4.500
0.415,-1.500,4.500,8.000,-4.500
0.416,-1.500,3.500,7.000,-4.000
0.417,-1.500,3.500,6.000,-4.000
0.418,-1.500,3.500,4.500,-3.500
0.419,-1.500,4.000,3.000,-3.500
0.420,-1.500,5.000,1.000,-3.000
0.421,-2.000,6.500,-2.000,-2.500
0.422,-2.000,8.000,-5.000,-1.500
0.423,-2.000,9.000,-7.500,-1.000
0.424,-2.000,9.500,-9.500,-0.500
0.425,-2.000,9.500,-10.500,-0.500
0.426,-2.500,9.000,-10.000,-0.500
0.427,-2.500,8.500,-8.000,-1.000
0.428,-2.000,8.500,-5.500,-1.000
0.429,-2.000,8.500,-3.500,-1.500
0.430,-2.000,9.000,-2.500,-1.500
0.431,-2.000,9.500,-3.000,-1.500
0.432,-1.500,11.000,-5.000,-2.000
0.433,-1.500,11.500,-7.500,-2.000
0.434,-1.500,12.000,-9.000,-2.000
0.435,-1.500,11.500,-9.000,-2.500
0.436,-2.000,10.500,-7.500,-3.000
0.437,-2.000,9.500,-6.500,-3.000
0.438,-2.000,8.000,-5.500,-3.000
0.439,-2.000,7.000,-5.500,-3.500
0.440,-2.000,6.000,-6.000,-3.500
0.441,-2.000,5.000,-7.000,-4.000
0.442,-2.000,4.500,-8.500,-4.500
0.443,-2.000,4.500,-8.500,-4.500
0.444,-2.000,5.000,-7.500,-4.500
0.445,-2.000,5.500,-5.500,-4.000
0.446,-1.500,6.000,-3.500,-4.000
0.447,-2.000,6.000,-2.500,-3.500
0.448,-2.000,6.000,-1.500,-4.000
0.449,-2.000,6.500,-2.000,-4.000
0.450,-2.000,6.500,-2.500,-4.000
0.451,-2.000,7.000,-3.500,-3.500
0.452,-2.000,6.500,-3.500,-3.500
0.453,-2.000,6.000,-2.500,-3.000
0.454,-2.000,5.500,-1.500,-3.000
0.455,-2.000,6.000,-1.000,-2.500
0.456,-2.000,6.500,-1.500,-2.500
0.457,-2.000,7.500,-2.000,-2.500
0.458,-1.500,8.500,-1.500,-2.500
0.459,-1.500,9.500,1.000,-3.000
0.460,-1.500,10.000,4.000,-3.500
0.461,-1.500,10.500,7.000,-4.000
0.462,-1.500,10.000,8.000,-4.000
0.463,-1.500,10.000,8.000,-3.500
0.464,-2.000,9.000,7.500,-3.000
0.465,-2.000,8.500,7.500,-2.500
0.466,-2.000,7.500,8.000,-2.000
0.467,-2.000,6.500,9.000,-1.500
0.468,-2.000,6.000,10.500,-1.000
0.469,-2.000,6.000,11.500,-1.000
0.470,-2.000,6.000,12.000,-1.000
0.471,-2.000,7.000,12.500,-0.500
0.472,-2.000,8.000,13.000,-0.500
0.473,-2.000,8.500,13.000,-0.500
0.474,-2.000,9.500,13.000,-0.500
0.475,-2.000,9.500,12.000,-1.000
0.476,-2.000,9.500,11.500,-1.000
0.477,-2.000,9.500,10.000,-1.000
0.478,-2.000,9.500,9.000,-1.000
0.479,-1.500,10.000,8.500,-1.000
0.480,-1.500,10.000,8.500,-1.000
0.481,-1.500,10.500,8.500,-1.000
0.482,-1.500,10.500,9.000,-1.000
0.483,-2.000,10.500,8.500,-1.000
0.484,-2.000,10.000,7.500,-0.500
0.485,-2.000,9.500,6.000,-0.500
0.486,-2.000,8.500,5.500,-0.500
0.487,-2.000,8.000,6.500,-1.000
0.488,-1.500,7.000,8.000,-1.000
0.489,-1.500,6.500,10.000,-1.000
0.490,-1.500,6.500,11.500,-1.000
0.491,-1.500,7.500,12.500,-0.500
0.492,-2.000,8.000,13.000,-0.500
0.493,-2.000,9.000,12.500,-0.500
0.494,-2.000,9.000,13.000,-0.500
0.495,-2.000,9.500,14.000,-0.500
0.496,-2.000,9.500,15.500,-1.000
0.497,-2.000,9.000,18.000,-1.000
0.498,-1.500,9.000,20.000,-1.500
0.499,-1.500,9.000,20.500,-1.500
0.500,-1.500,9.500,19.500,-2.000
0.501,-1.500,9.500,18.500,-2.000
0.502,-1.500,9.500,18.000,-2.000
0.503,-1.500,9.500,17.500,-2.500
0.504,-1.500,9.000,17.000,-2.500
0.505,-1.500,9.000,16.000,-2.500
0.506,-2.000,8.500,15.500,-2.500
0.507,-2.000,8.000,15.500,-2.500
0.508,-2.000,7.000,15.500,-2.500
0.509,-2.000,6.500,14.000,-2.500
0.510,-2.000,6.500,12.500,-2.500
0.511,-2.000,6.500,11.000,-2.500
0.512,-1.500,7.000,10.500,-2.500
0.513,-1.500,7.000,10.500,-3.000
0.514,-1.500,7.500,9.500,-3.000
0.515,-1.500,8.000,8.500,-3.000
0.516,-1.500,8.000,7.500,-3.000
0.517,-2.000,8.000,7.000,-3.000
0.518,-2.000,8.000,7.500,-2.500
0.519,-2.000,8.000,8.500,-2.500
0.520,-2.000,8.000,8.500,-2.000
0.521,-2.000,8.500,8.000,-1.000
0.522,-2.000,8.500,6.500,-1.000
0.523,-2.000,8.500,4.500,-0.500
0.524,-2.500,8.500,3.000,-0.500
0.525,-2.500,8.500,2.500,-0.500
0.526,-2.500,8.000,3.000,0.000
0.527,-2.000,7.500,4.000,0.500
0.528,-2.000,7.500,4.500,0.500
0.529,-2.000,7.500,4.500,0.500
0.530,-2.000,7.500,5.000,0.500
0.531,-2.000,8.000,4.500,0.000
0.532,-2.000,8.500,4.000,-0.500
0.533,-2.000,9.000,3.000,-0.500
0.534,-2.000,9.000,2.500,-1.000
0.535,-2.000,9.000,2.000,-1.000
0.536,-2.000,8.500,2.000,-1.000
0.537,-2.000,8.000,1.500,-1.000
0.538,-2.000,8.000,1.500,-1.500
0.539,-2.000,8.000,1.000,-1.500
0.540,-2.000,8.500,1.500,-1.500
0.541,-2.000,9.000,2.000,-1.500
0.542,-2.000,9.500,3.000,-1.500
0.543,-2.000,9.000,3.500,-1.500
0.544,-2.000,8.500,3.000,-1.500
0.545,-2.000,7.500,2.000,-2.000
0.546,-2.000,7.000,0.000,-1.500
0.547,-2.000,6.500,-1.500,-1.500
0.548,-2.000,6.000,-2.500,-1.500
0.549,-2.000,5.500,-2.500,-1.000
0.550,-2.000,5.500,-2.000,-1.000
0.551,-2.000,5.500,-1.500,-1.000
0.552,-2.000,5.500,-1.500,-1.000
0.553,-2.000,5.500,-2.500,-1.000
0.554,-2.000,5.500,-4.000,-1.000
0.555,-2.000,6.000,-6.500,-0.500
0.556,-2.000,6.500,-9.000,0.500
0.557,-2.000,7.000,-11.500,1.000
0.558,-2.000,8.000,-13.500,1.000
0.559,-1.500,9.000,-15.000,1.000
0.560,-1.500,10.000,-15.000,1.000
0.561,-1.500,11.500,-14.500,1.000
0.562,-1.500,12.000,-13.000,0.500
0.563,-1.500,12.500,-11.500,0.500
0.564,-2.000,12.500,-9.500,0.500
0.565,-2.000,11.500,-7.500,0.500
0.566,-2.000,10.000,-5.500,0.500
0.567,-2.000,8.000,-3.000,0.000
0.568,-2.000,6.500,-1.000,-0.500
0.569,-2.000,5.000,1.000,-1.000
0.570,-2.000,4.000,2.500,-1.000
0.571,-1.500,3.500,3.500,-1.500
0.572,-1.500,4.000,3.500,-2.000
0.573,-1.500,4.500,2.500,-2.500
0.574,-1.500,5.500,1.500,-3.000
0.575,-1.500,6.000,1.000,-3.000
0.576,-1.500,6.000,2.000,-3.500
0.577,-1.500,6.500,3.500,-4.000
0.578,-1.500,7.000,5.500,-4.000
0.579,-1.500,7.500,6.500,-4.000
0.580,-1.500,7.500,7.500,-4.000
0.581,-1.500,8.000,8.000,-3.500
0.582,-1.500,8.000,9.000,-3.500
0.583,-1.500,7.500,10.000,-3.000
0.584,-1.500,7.000,11.500,-2.500
0.585,-2.000,6.500,12.500,-2.500
0.586,-2.000,6.000,13.000,-2.500
0.587,-2.000,6.000,12.500,-2.500
0.588,-1.500,6.000,11.500,-2.500
0.589,-1.500,6.000,10.000,-2.500
0.590,-1.500,5.500,7.500,-2.500
0.591,-1.500,5.500,4.500,-2.500
0.592,-2.000,5.500,1.500,-2.500
0.593,-2.000,5.500,-2.000,-2.500
0.594,-2.000,6.000,-4.000,-2.500
0.595,-1.500,6.500,-5.500,-2.500
0.596,-1.500,7.000,-5.500,-2.500
0.597,-1.500,8.000,-5.000,-2.000
0.598,-1.500,9.000,-3.000,-2.000
0.599,-2.000,9.500,-0.500,-2.500
0.600,-2.000,9.000,2.500,-2.500
0.601,-2.000,8.500,4.500,-3.000
0.602,-1.500,7.000,6.000,-3.500
0.603,-1.500,5.500,7.000,-3.500
0.604,-1.500,4.000,8.500,-3.500
0.605,-1.500,3.000,9.500,-3.500
0.606,-1.500,3.000,10.000,-3.500
0.607,-1.500,3.500,9.500,-4.000
0.608,-1.500,4.000,8.500,-4.000
0.609,-1.500,4.500,7.500,-4.500
0.610,-1.500,5.000,6.500,-4.500
0.611,-1.500,5.000,5.000,-5.000
0.612,-2.000,5.000,3.000,-5.500
0.613,-2.000,5.000,2.500,-5.500
0.614,-1.500,5.000,3.500,-5.500
0.615,-1.500,4.500,5.000,-5.500
0.616,-1.500,3.000,7.000,-5.500
0.617,-1.500,1.500,8.500,-6.000
0.618,-1.500,0.500,8.500,-6.000
0.619,-1.500,0.000,8.000,-6.000
0.620,-1.500,0.500,7.000,-6.000
0.621,-1.500,1.000,6.500,-6.000
0.622,-1.500,1.500,5.500,-5.500
0.623,-2.000,2.000,4.000,-5.000
0.624,-2.000,2.500,2.500,-4.000
0.625,-2.000,3.000,1.500,-4.000
0.626,-2.000,3.500,1.000,-3.500
0.627,-2.000,3.500,0.500,-3.500
0.628,-2.000,3.500,-1.000,-3.500
0.629,-2.000,4.000,-2.500,-4.000
0.630,-2.000,4.500,-4.500,-4.000
0.631,-2.000,4.500,-6.500,-4.500
0.632,-2.000,4.500,-7.000,-5.000
0.633,-2.000,4.500,-6.000,-5.000
0.634,-2.000,3.500,-4.500,-5.000
0.635,-2.000,3.000,-3.500,-5.000
0.636,-2.000,3.000,-3.000,-5.000
0.637,-2.000,3.500,-3.000,-4.500
0.638,-1.500,4.000,-4.000,-4.000
0.639,-1.500,4.500,-5.500,-3.500
0.640,-1.500,5.500,-7.000,-3.000
0.641,-1.500,6.500,-7.000,-3.000
0.642,-2.000,6.500,-5.000,-3.500
0.643,-2.000,7.000,-2.000,-4.000
0.644,-2.000,6.500,1.000,-5.000
0.645,-2.000,5.500,3.000,-5.500
0.646,-2.000,4.000,4.000,-6.000
0.647,-1.500,3.000,4.500,-6.000
0.648,-2.000,2.000,5.000,-6.000
0.649,-2.000,1.500,5.500,-6.000
0.650,-2.000,1.000,6.000,-6.000
0.651,-2.000,1.000,6.000,-6.000
0.652,-2.000,1.000,6.500,-6.000
0.653,-2.000,1.500,7.500,-6.500
0.654,-2.000,2.000,8.500,-6.500
0.655,-2.000,2.500,9.500,-7.000
0.656,-1.500,2.500,10.000,-7.000
0.657,-1.500,2.500,11.000,-7.000
0.658,-1.500,2.000,12.000,-7.000
0.659,-1.500,2.000,13.000,-7.500
0.660,-1.500,1.500,14.500,-7.500
0.661,-1.500,1.500,15.500,-7.500
0.662,-1.500,2.000,15.500,-7.500
0.663,-1.500,2.000,14.500,-7.500
0.664,-1.500,2.500,13.000,-7.500
0.665,-1.500,2.500,12.000,-7.000
0.666,-1.500,2.500,11.500,-7.000
0.667,-1.500,2.500,11.000,-6.500
0.668,-1.500,3.500,11.000,-6.500
0.669,-1.000,4.000,11.000,-6.500
0.670,-1.000,4.500,12.000,-6.000
0.671,-1.000,4.000,12.500,-5.500
0.672,-1.000,3.000,13.500,-4.500
0.673,-1.500,2.500,14.000,-4.000
0.674,-1.500,3.000,14.000,-3.000
0.675,-1.500,3.500,14.000,-2.500
0.676,-1.500,4.000,14.000,-2.000
0.677,-1.500,4.000,14.500,-1.500
0.678,-2.000,3.500,15.500,-1.500
0.679,-2.000,2.500,16.500,-2.000
0.680,-2.000,2.000,17.500,-2.000
0.681,-2.000,1.000,17.500,-2.500
0.682,-2.000,0.500,16.000,-3.000
0.683,-2.000,0.500,14.000,-3.000
0.684,-2.000,1.000,11.500,-3.000
0.685,-2.000,1.000,9.500,-3.000
0.686,-2.000,1.500,8.500,-2.500
0.687,-2.000,1.000,8.500,-2.500
0.688,-1.500,1.000,9.000,-2.500
0.689,-1.500,1.000,9.500,-2.500
0.690,-1.500,1.500,9.500,-3.000
0.691,-1.500,2.000,10.000,-3.000
0.692,-1.500,2.500,11.500,-3.000
0.693,-1.500,2.500,13.000,-3.000
0.694,-1.500,2.500,15.500,-3.000
0.695,-1.500,2.500,17.000,-3.000
0.696,-1.500,3.000,18.000,-3.500
0.697,-1.500,3.000,19.000,-3.500
0.698,-1.500,3.500,19.000,-3.500
0.699,-1.500,3.500,18.500,-3.500
0.700,-1.500,4.000,17.000,-3.000
0.701,-1.500,4.000,15.500,-3.000
0.702,-1.500,5.000,14.000,-3.000
0.703,-2.000,5.500,13.500,-2.500
0.704,-2.000,6.000,13.500,-2.000
0.705,-2.000,6.500,13.000,-2.000
0.706,-1.500,7.000,13.000,-1.500
0.707,-1.500,7.000,12.000,-1.500
0.708,-1.500,7.000,10.500,-1.500
0.709,-1.500,7.000,8.000,-1.500
0.710,-1.500,6.000,6.000,-1.000
0.711,-1.500,5.500,3.500,-1.000
0.712,-1.500,4.500,2.000,-0.500
0.713,-1.500,4.000,0.500,0.000
0.714,-1.500,3.500,0.000,0.500
0.715,-1.500,3.500,1.000,0.500
0.716,-1.500,3.500,3.000,0.500
0.717,-1.500,4.000,5.500,0.500
0.718,-1.500,5.000,7.500,0.500
0.719,-1.500,5.500,7.500,0.500
0.720,-2.000,6.500,6.500,1.000
0.721,-2.000,7.000,6.000,1.000
0.722,-2.000,7.000,5.500,1.000
0.723,-1.500,7.500,5.500,1.000
0.724,-1.500,7.500,4.500,1.000
0.725,-1.500,8.000,4.000,1.000
0.726,-1.500,8.500,3.500,1.000
0.727,-1.500,8.500,4.500,1.000
0.728,-1.500,9.000,5.500,0.500
0.729,-1.500,10.000,6.500,0.500
0.730,-1.500,11.000,7.000,1.000
0.731,-1.500,12.500,8.000,1.000
0.732,-1.500,13.000,8.000,1.500
0.733,-1.500,13.500,7.500,2.500
0.734,-1.500,14.000,6.500,2.500
0.735,-1.500,13.000,5.000,3.000
0.736,-1.500,12.000,4.000,3.000
0.737,-1.500,10.500,2.500,2.500
0.738,-1.500,8.500,1.500,2.000
0.739,-1.500,6.500,1.500,1.000
0.740,-1.500,5.000,1.500,-0.500
0.741,-1.500,4.000,2.500,-2.000
0.742,-1.500,3.500,2.500,-3.000
0.743,-1.500,2.500,1.500,-4.500
0.744,-1.500,2.000,0.500,-5.500
0.745,-1.500,1.500,-1.000,-6.000
0.746,-1.500,1.500,-2.500,-7.000
0.747,-1.500,1.000,-4.500,-7.500
0.748,-1.500,1.000,-6.500,-8.000
0.749,-1.500,0.500,-7.500,-8.000
0.750,-1.500,0.000,-7.000,-7.000
0.751,-1.500,-0.500,-5.000,-6.000
0.752,-1.500,0.500,-3.500,-4.000
0.753,-2.000,1.000,-3.000,-1.500
0.754,-2.000,2.500,-3.500,1.000
0.755,-2.000,4.000,-3.500,3.000
0.756,-2.000,5.000,-3.000,5.000
0.757,-2.000,6.500,-2.000,6.500
0.758,-2.000,8.000,-1.500,7.500
0.759,-2.000,9.500,-0.500,8.000
0.760,-2.000,11.000,0.500,8.500
0.761,-2.000,12.500,2.000,8.500
0.762,-2.000,13.500,4.000,8.500
0.763,-2.000,14.000,5.500,8.000
0.764,-2.000,14.500,6.500,8.000
0.765,-2.000,14.000,7.000,7.500
0.766,-2.000,13.000,7.000,7.000
0.767,-2.000,12.000,6.500,6.500
0.768,-2.000,11.000,5.000,6.000
0.769,-2.000,10.000,3.500,6.000
0.770,-2.000,9.000,1.500,5.500
0.771,-2.000,8.000,-1.000,5.500
0.772,-1.500,7.500,-3.000,5.000
0.773,-1.500,8.000,-4.500,5.000
0.774,-1.500,8.500,-5.500,5.500
0.775,-1.500,9.000,-6.000,5.500
0.776,-1.000,10.000,-5.500,5.500
0.777,-1.000,10.500,-4.500,5.000
0.778,-1.000,11.500,-2.500,4.500
0.779,-1.000,12.000,-0.500,4.500
0.780,-1.500,12.500,2.000,4.500
0.781,-1.500,12.000,3.500,4.000
0.782,-1.500,11.000,4.000,4.000
0.783,-1.500,9.500,4.000,3.500
0.784,-1.500,7.500,4.500,3.500
0.785,-1.500,5.500,3.500,3.000
0.786,-1.500,4.500,2.000,3.000
0.787,-1.500,4.000,0.000,2.500
0.788,-1.500,3.500,-2.000,2.000
0.789,-1.500,3.500,-3.000,1.500
0.790,-1.500,3.000,-2.500,1.000
0.791,-1.500,2.000,-1.000,0.000
0.792,-1.500,1.500,1.000,-1.000
0.793,-1.500,0.500,3.500,-1.500
0.794,-1.500,-1.000,6.000,-2.000
0.795,-1.500,-1.500,8.000,-2.500
0.796,-1.500,-2.000,7.500,-2.500
0.797,-1.500,-2.500,5.500,-3.000
0.798,-2.000,-3.000,2.000,-3.000
0.799,-2.000,-3.500,-1.500,-3.000
0.800,-2.000,-4.500,-2.500,-3.500
0.801,-2.000,-5.000,-1.500,-3.500
0.802,-2.000,-5.500,0.000,-3.500
0.803,-2.000,-6.000,1.000,-3.000
0.804,-2.000,-6.500,1.500,-2.500
0.805,-2.000,-6.500,2.500,-2.000
0.806,-2.000,-7.000,4.000,-2.000
0.807,-2.000,-7.000,5.000,-1.500
0.808,-2.000,-6.500,5.000,-1.000
0.809,-2.000,-6.000,4.000,0.500
0.810,-2.000,-5.000,2.000,1.500
0.811,-2.000,-4.000,0.000,3.000
0.812,-1.500,-3.000,-1.500,5.000
0.813,-1.500,-2.000,-1.000,6.500
0.814,-1.500,0.500,0.500,8.500
0.815,-1.500,2.500,3.000,10.500
0.816,-1.500,5.000,5.500,12.000
0.817,-1.500,7.500,7.500,13.500
0.818,-1.500,10.500,9.000,15.000
0.819,-1.500,13.000,9.000,16.500
0.820,-1.500,16.000,9.000,17.500
0.821,-1.500,18.000,8.500,19.000
0.822,-1.500,20.000,8.000,20.000
0.823,-1.500,21.000,7.500,20.500
0.824,-1.500,22.000,7.500,21.000
0.825,-1.500,22.500,7.000,21.000
0.826,-1.500,23.000,6.500,21.500
0.827,-1.500,23.000,6.000,21.500
0.828,-1.500,23.500,6.500,21.000
0.829,-1.500,24.000,6.500,21.000
0.830,-1.500,24.500,7.000,20.500
0.831,-1.500,25.000,7.000,20.500
0.832,-2.000,25.000,6.500,20.000
0.833,-2.000,25.000,6.000,19.500
0.834,-2.000,24.500,6.000,19.000
0.835,-2.000,24.000,6.000,18.500
0.836,-2.000,24.000,6.500,18.000
0.837,-2.000,23.500,7.500,17.500
0.838,-1.500,22.500,8.000,17.000
0.839,-1.500,21.500,8.000,16.500
0.840,-1.500,20.500,8.500,16.000
0.841,-1.500,20.000,9.500,15.500
0.842,-2.000,19.500,9.500,15.000
0.843,-2.000,19.500,8.500,15.000
0.844,-2.000,20.000,7.000,14.500
0.845,-2.000,20.000,5.000,14.500
0.846,-2.000,20.000,3.000,14.500
0.847,-2.000,19.500,1.500,14.000
0.848,-2.000,19.000,0.000,14.000
0.849,-2.000,17.500,-1.000,14.500
0.850,-2.000,16.500,-0.500,14.500
0.851,-2.000,16.000,0.500,14.500
0.852,-2.000,16.000,1.500,14.000
0.853,-2.000,15.500,3.000,14.000
0.854,-2.000,15.000,5.500,13.500
0.855,-2.000,15.000,7.500,12.500
0.856,-2.000,14.500,9.000,12.000
0.857,-2.000,15.000,9.000,11.500
0.858,-2.000,15.000,8.500,11.000
0.859,-1.500,15.000,7.500,11.000
0.860,-1.500,15.000,7.500,11.000
0.861,-1.500,15.000,7.000,11.000
0.862,-1.500,15.000,7.000,11.000
0.863,-1.500,15.000,8.000,11.500
0.864,-1.500,15.000,9.000,11.500
0.865,-1.500,15.000,10.000,11.500
0.866,-1.500,15.000,10.000,11.500
0.867,-1.500,15.000,10.000,11.500
0.868,-1.500,15.500,9.000,11.500
0.869,-1.500,16.000,8.000,11.000
0.870,-1.500,17.000,7.000,10.500
0.871,-1.500,17.500,6.500,10.000
0.872,-1.500,18.500,7.000,10.000
0.873,-1.500,19.500,8.000,10.000
0.874,-1.500,20.000,9.000,10.000
0.875,-1.500,20.000,9.000,10.500
0.876,-1.500,20.000,8.000,11.000
0.877,-1.500,19.000,7.000,11.000
0.878,-1.500,17.000,6.000,11.500
0.879,-1.500,14.000,5.000,11.000
0.880,-1.500,12.000,3.500,11.000
0.881,-2.000,11.000,2.500,11.000
0.882,-2.000,11.000,1.500,11.500
0.883,-2.000,12.000,1.000,11.500
0.884,-2.000,13.000,0.500,12.000
0.885,-2.000,14.000,-1.000,12.500
0.886,-2.000,14.500,-2.000,12.500
0.887,-2.000,15.000,-3.000,12.500
0.888,-2.000,15.000,-4.000,12.500
0.889,-2.000,15.500,-4.500,13.000
0.890,-1.500,15.500,-5.000,13.000
0.891,-1.500,15.500,-6.000,13.500
0.892,-1.500,15.000,-7.000,14.000
0.893,-1.500,15.000,-7.500,14.000
0.894,-1.500,14.500,-7.000,14.000
0.895,-1.500,14.000,-7.000,13.500
0.896,-2.000,14.000,-7.500,13.000
0.897,-2.000,14.500,-9.000,12.500
0.898,-2.000,14.500,-10.000,12.500
0.899,-2.000,15.000,-10.500,12.500
0.900,-2.000,15.000,-10.000,13.000
0.901,-2.000,15.000,-9.000,13.000
0.902,-2.000,15.000,-7.500,13.500
0.903,-2.000,15.000,-6.000,13.500
0.904,-2.000,15.000,-4.000,13.500
0.905,-2.000,14.500,-1.500,13.000
0.906,-2.000,14.500,1.500,12.500
0.907,-2.000,14.000,3.000,12.500
0.908,-1.500,13.500,3.000,12.000
0.909,-1.500,12.500,1.500,12.000
0.910,-1.500,11.500,0.000,11.500
0.911,-1.500,11.500,-0.500,11.500
0.912,-1.500,11.500,0.000,11.500
0.913,-1.500,12.500,1.500,11.500
0.914,-1.500,13.000,3.000,11.500
0.915,-1.500,13.000,4.500,11.500
0.916,-1.500,13.000,6.500,12.000
0.917,-1.500,12.000,8.500,12.000
0.918,-1.500,11.500,9.500,12.000
0.919,-2.000,11.000,9.500,12.000
0.920,-2.000,11.000,8.500,12.000
0.921,-2.000,11.500,7.000,12.000
0.922,-2.000,12.000,6.500,12.500
0.923,-2.000,13.500,5.500,13.000
0.924,-2.000,14.000,4.500,13.500
0.925,-2.000,15.000,3.000,14.000
0.926,-2.000,15.000,1.000,14.000
0.927,-2.000,15.000,-1.000,14.000
0.928,-2.500,15.500,-1.500,14.000
0.929,-2.500,15.500,-1.500,14.000
0.930,-2.500,16.000,-1.000,14.000
0.931,-2.500,16.000,0.000,13.500
0.932,-2.000,16.000,1.000,13.500
0.933,-2.000,16.000,1.000,13.500
0.934,-2.000,15.000,0.500,13.500
0.935,-2.000,14.500,1.000,13.000
0.936,-2.000,14.500,2.500,12.500
0.937,-2.000,15.000,5.000,12.500
0.938,-2.000,15.500,8.000,12.000
0.939,-2.000,16.000,9.500,12.000
0.940,-2.000,16.000,10.500,12.000
0.941,-2.000,15.500,11.000,12.000
0.942,-1.500,14.500,12.000,11.500
0.943,-1.500,13.500,12.500,11.500
0.944,-1.500,12.500,13.000,11.000
0.945,-1.500,11.500,12.500,11.000
0.946,-1.500,10.500,12.500,11.000
0.947,-1.500,10.500,12.000,11.000
0.948,-1.500,10.000,11.500,11.000
0.949,-1.500,9.500,10.500,11.500
0.950,-1.500,9.000,8.500,12.000
0.951,-1.500,9.500,6.000,12.000
0.952,-1.500,10.000,3.000,12.000
0.953,-1.500,10.500,1.500,12.000
0.954,-1.500,11.000,1.500,12.000
0.955,-1.500,11.000,4.000,12.000
0.956,-1.500,11.500,6.500,12.000
0.957,-1.500,11.500,8.000,11.500
0.958,-1.500,12.000,8.000,11.500
0.959,-1.500,12.500,7.500,11.500
0.960,-1.500,13.000,6.000,11.500
0.961,-1.500,13.000,5.000,12.000
0.962,-2.000,13.500,4.000,12.500
0.963,-2.000,13.500,4.000,12.500
0.964,-2.000,14.000,5.000,12.500
0.965,-2.000,14.000,6.500,12.000
0.966,-2.000,14.000,9.000,12.000
0.967,-2.000,14.000,10.500,12.000
0.968,-2.000,14.000,11.000,12.500
0.969,-2.000,14.000,10.500,13.000
0.970,-1.500,14.000,9.000,13.000
0.971,-1.500,14.500,8.000,13.500
0.972,-1.000,15.000,7.500,13.500
0.973,-1.000,15.500,8.000,13.500
0.974,-1.000,15.500,9.500,13.500
0.975,-1.500,15.500,11.000,12.500
0.976,-1.500,15.000,11.500,12.000
0.977,-2.000,14.000,10.500,12.000
0.978,-2.000,13.000,9.000,11.500
0.979,-2.000,11.500,8.000,11.500
0.980,-2.000,11.000,7.500,11.500
0.981,-1.500,10.500,8.500,11.000
0.982,-1.500,11.000,11.000,11.000
0.983,-1.500,11.000,14.500,11.000
0.984,-1.500,11.000,17.000,10.500
0.985,-1.500,10.500,19.000,11.000
0.986,-1.500,10.000,19.500,11.000
0.987,-1.500,9.000,19.500,11.000
0.988,-1.500,8.000,19.000,11.000
0.989,-1.500,7.500,18.000,11.000
0.990,-1.500,7.000,17.000,11.000
0.991,-1.500,7.500,16.000,11.500
0.992,-1.500,8.000,14.500,11.000
0.993,-1.500,8.500,12.000,11.000
0.994,-1.500,9.000,9.500,11.000
0.995,-1.500,9.000,8.000,11.000
0.996,-2.000,9.000,8.500,11.500
0.997,-2.000,9.500,10.000,12.000
0.998,-2.000,10.500,12.000,12.500
0.999,-2.000,11.000,13.000,13.000
1.000,-2.000,11.000,12.000,14.000
1.001,-2.000,11.000,10.000,14.500
1.002,-2.000,10.500,7.000,14.500
1.003,-2.000,9.500,4.500,14.500
1.004,-2.000,8.500,2.500,14.500
1.005,-2.000,8.000,2.000,14.000
1.006,-2.000,7.500,2.000,13.500
1.007,-2.000,7.000,3.000,13.000
1.008,-2.000,6.500,4.000,12.500
1.009,-2.000,6.500,4.000,12.000
1.010,-2.000,7.000,3.000,11.500
1.011,-2.000,7.000,1.500,11.500
1.012,-2.000,7.500,0.500,11.000
1.013,-2.000,8.000,0.500,11.500
1.014,-2.000,8.000,1.000,11.500
1.015,-2.000,8.500,1.000,11.500
1.016,-2.000,8.000,1.000,11.500
1.017,-2.000,7.500,0.500,11.500
1.018,-2.000,7.000,-0.500,11.000
1.019,-2.000,6.500,0.000,10.500
1.020,-2.000,6.500,1.500,10.000
1.021,-2.000,6.000,3.000,9.500
1.022,-2.000,5.500,4.500,9.000
1.023,-2.000,5.000,5.500,9.000
1.024,-2.000,5.500,6.500,9.000
1.025,-2.000,6.000,8.000,9.000
1.026,-1.500,7.000,10.000,9.000
1.027,-1.500,7.500,11.000,9.500
1.028,-1.500,8.000,11.500,9.500
1.029,-2.000,7.000,11.000,9.500
1.030,-2.000,5.500,9.000,9.500
1.031,-2.000,4.000,6.500,9.000
1.032,-2.000,2.500,3.500,9.000
1.033,-2.000,1.500,1.500,8.500
1.034,-2.000,1.000,0.500,8.500
1.035,-1.500,0.500,-0.500,8.500
1.036,-1.500,1.000,-1.500,8.500
1.037,-1.500,2.000,-3.500,9.000
1.038,-2.000,3.000,-5.000,10.000
1.039,-2.000,4.000,-6.000,11.000
1.040,-2.000,5.000,-5.500,12.000
1.041,-2.000,6.000,-3.500,12.500
1.042,-2.000,6.500,-2.000,12.500
1.043,-2.000,6.500,-1.000,12.500
1.044,-2.000,7.000,-1.500,13.000
1.045,-2.000,7.500,-3.000,13.500
1.046,-2.000,7.500,-4.000,14.000
1.047,-2.000,7.500,-3.500,14.000
1.048,-2.000,7.500,-2.000,13.500
1.049,-2.000,7.500,0.000,13.500
1.050,-2.000,7.500,2.000,13.500
1.051,-2.000,7.500,3.000,13.500
1.052,-2.000,8.000,3.500,14.000
1.053,-2.000,9.000,3.500,14.500
1.054,-2.000,10.000,3.500,15.000
1.055,-2.000,11.000,3.500,14.500
1.056,-2.000,12.000,3.500,14.500
1.057,-2.000,11.500,2.500,14.500
1.058,-2.000,10.000,2.000,14.000
1.059,-2.000,8.000,2.000,13.500
1.060,-2.000,6.000,3.000,13.000
1.061,-2.000,4.500,3.500,12.500
1.062,-1.500,4.000,4.000,12.000
1.063,-1.500,4.500,3.500,12.000
1.064,-1.500,4.500,2.500,11.500
1.065,-1.500,5.000,1.000,11.500
1.066,-1.500,5.500,0.500,11.500
1.067,-1.500,6.000,0.500,11.000
1.068,-1.500,6.500,1.000,11.000
1.069,-1.500,7.000,1.000,11.500
1.070,-1.500,7.000,1.500,11.000
1.071,-2.000,7.000,2.000,11.000
1.072,-2.000,6.500,2.500,11.000
1.073,-2.000,6.500,2.500,11.000
1.074,-2.000,6.000,2.000,11.000
1.075,-1.500,6.000,1.500,10.500
1.076,-1.500,6.500,1.000,10.500
1.077,-1.500,6.500,1.000,10.500
1.078,-1.500,7.000,1.000,11.000
1.079,-1.500,7.500,1.000,11.000
1.080,-1.500,8.500,1.000,11.500
1.081,-1.500,9.000,1.000,12.000
1.082,-1.500,9.500,1.500,13.000
1.083,-1.500,9.500,2.500,13.500
1.084,-1.500,9.000,3.000,14.000
1.085,-2.000,9.000,3.500,14.500
1.086,-2.000,8.500,3.000,15.000
1.087,-2.000,9.000,2.000,15.500
1.088,-2.000,9.500,1.500,15.500
1.089,-1.500,9.000,1.500,15.000
1.090,-1.500,8.000,2.500,14.500
1.091,-1.500,7.000,3.500,14.500
1.092,-1.500,6.500,5.000,14.000
1.093,-1.500,6.500,6.500,14.000
1.094,-1.500,6.500,8.500,14.000
1.095,-1.500,7.500,10.000,14.500
1.096,-1.500,8.000,11.000,14.500
1.097,-1.500,8.500,12.000,14.000
1.098,-1.500,8.500,12.500,13.500
1.099,-1.500,8.500,13.500,13.000
1.100,-1.500,8.500,14.500,12.000
1.101,-1.500,8.000,15.000,11.500
1.102,-1.500,7.500,16.000,11.000
1.103,-1.500,7.000,17.500,11.000
1.104,-1.500,6.500,18.500,11.000
1.105,-1.500,6.500,18.500,11.000
1.106,-1.500,6.500,18.000,11.000
1.107,-1.500,7.000,16.500,11.000
1.108,-2.000,7.500,15.500,11.500
1.109,-1.500,8.000,15.500,11.500
1.110,-1.500,8.500,17.000,12.000
1.111,-1.500,9.000,18.500,12.000
1.112,-1.500,9.000,20.500,12.500
1.113,-1.500,9.500,21.500,13.000
1.114,-1.500,10.000,22.000,13.000
1.115,-1.500,10.500,22.000,13.000
1.116,-1.500,11.000,22.000,12.500
1.117,-1.500,11.000,21.500,11.500
1.118,-1.500,10.500,20.000,10.500
1.119,-1.500,10.500,18.000,10.000
1.120,-1.500,10.000,15.500,9.000
1.121,-1.500,10.000,13.000,8.500
1.122,-1.500,9.500,11.500,8.000
1.123,-1.500,9.000,10.000,7.000
1.124,-1.500,8.500,8.500,6.000
1.125,-1.500,7.500,6.500,5.000
1.126,-1.500,7.000,3.000,4.000
1.127,-1.500,6.000,-0.500,3.500
1.128,-1.500,5.500,-3.000,3.000
1.129,-1.500,5.500,-4.500,3.500
1.130,-1.500,6.000,-4.500,4.000
1.131,-2.000,6.000,-3.500,5.000
1.132,-2.000,6.000,-2.500,6.500
1.133,-2.000,5.500,-0.500,8.500
1.134,-2.000,4.500,1.000,10.500
1.135,-2.000,4.000,2.000,12.000
1.136,-1.500,4.000,2.500,14.000
1.137,-1.500,4.500,2.000,15.000
1.138,-1.500,5.500,0.500,15.500
1.139,-1.500,7.000,-1.000,15.500
1.140,-1.500,8.000,-1.500,15.000
1.141,-1.500,9.000,0.000,14.500
1.142,-1.500,9.500,2.500,13.500
1.143,-1.500,10.000,5.000,12.500
1.144,-1.500,9.500,7.500,11.500
1.145,-1.500,9.500,9.500,10.500
1.146,-1.500,9.500,9.500,10.000
1.147,-1.500,10.000,9.000,9.500
1.148,-1.500,10.000,9.000,9.500
1.149,-1.500,10.000,9.500,9.500
1.150,-1.500,10.000,10.000,9.500
1.151,-1.500,9.500,10.500,9.500
1.152,-1.500,9.500,10.500,9.500
1.153,-1.500,9.000,10.500,9.500
1.154,-1.500,9.000,10.500,9.500
1.155,-1.500,8.500,9.500,9.000
1.156,-1.500,8.500,8.500,9.000
1.157,-1.500,8.000,8.500,8.500
1.158,-1.500,7.500,8.500,7.500
1.159,-1.500,7.000,9.000,7.000
1.160,-1.500,7.000,9.000,7.000
1.161,-1.500,7.000,8.000,7.500
1.162,-1.500,7.500,7.000,8.000
1.163,-1.500,8.500,5.000,8.500
1.164,-1.500,9.500,3.000,9.500
1.165,-2.000,10.000,2.000,10.000
1.166,-2.000,10.000,1.000,10.500
1.167,-2.000,10.000,0.500,10.500
1.168,-1.500,9.500,0.000,10.000
1.169,-1.500,8.500,-0.500,9.500
1.170,-1.500,7.500,-0.500,9.000
1.171,-1.500,7.000,0.500,8.000
1.172,-1.500,6.500,2.000,7.000
1.173,-1.500,6.500,2.000,6.500
1.174,-1.500,7.500,2.000,6.000
1.175,-1.500,8.000,2.000,6.000
1.176,-1.500,9.000,3.000,6.000
1.177,-1.500,9.000,4.000,6.000
1.178,-1.500,8.500,5.500,6.000
1.179,-1.500,8.000,6.000,6.000
1.180,-1.500,7.500,6.500,5.500
1.181,-1.500,6.500,6.500,5.000
1.182,-1.500,5.500,6.000,5.000
1.183,-1.500,5.000,4.500,4.500
1.184,-1.500,4.500,3.000,4.500
1.185,-1.500,4.500,1.500,4.500
1.186,-1.000,4.500,1.000,5.000
1.187,-1.000,4.500,1.000,5.000
1.188,-1.000,4.500,2.500,5.000
1.189,-1.000,4.500,4.500,5.000
1.190,-1.500,4.500,6.500,4.500
1.191,-1.500,4.000,7.000,4.500
1.192,-1.500,4.000,6.500,4.000
1.193,-1.500,4.500,5.500,3.500
1.194,-1.500,4.500,4.500,3.500
1.195,-1.500,4.500,4.000,3.000
1.196,-1.000,4.500,5.000,3.000
1.197,-1.000,5.000,5.500,2.500
1.198,-1.000,5.000,6.000,2.000
1.199,-1.500,5.000,6.500,2.000
1.200,-1.500,5.500,7.000,2.000
1.201,-1.500,5.500,7.500,2.000
1.202,-1.500,6.000,7.500,2.500
1.203,-1.500,7.000,7.000,2.500
1.204,-1.500,7.500,6.000,2.500
1.205,-1.500,7.500,5.000,2.500
1.206,-1.500,7.000,4.500,2.500
1.207,-1.500,6.000,4.000,2.500
1.208,-1.500,5.000,4.000,3.000
1.209,-1.500,4.000,3.500,3.000
1.210,-1.500,2.500,3.000,2.500
1.211,-1.500,2.000,3.500,2.500
1.212,-1.500,1.500,4.000,2.000
1.213,-1.500,2.000,5.500,2.500
1.214,-1.500,2.500,7.000,2.500
1.215,-1.500,3.000,8.500,2.500
1.216,-2.000,3.500,9.500,2.500
1.217,-2.000,3.500,10.500,2.500
1.218,-2.000,3.000,10.500,2.000
1.219,-2.000,3.000,9.500,2.000
1.220,-2.000,3.000,8.500,1.500
1.221,-2.000,3.000,8.500,1.000
1.222,-1.500,3.000,10.000,0.500
1.223,-1.500,3.000,11.000,0.000
1.224,-1.500,3.500,12.000,-0.500
1.225,-1.500,3.500,12.000,-0.500
1.226,-1.500,4.000,11.000,-1.000
1.227,-1.500,4.000,10.000,-1.000
1.228,-1.500,3.500,9.000,-1.500
1.229,-1.500,2.500,8.000,-2.000
1.230,-1.500,1.500,7.000,-2.500
1.231,-1.500,0.500,6.500,-3.000
1.232,-1.500,-0.500,6.000,-3.000
1.233,-1.500,-1.500,5.500,-3.000
1.234,-1.500,-2.000,5.000,-3.000
1.235,-1.500,-2.000,3.500,-3.000
1.236,-1.500,-2.500,2.000,-3.500
1.237,-1.500,-2.500,0.500,-3.500
1.238,-1.500,-2.000,0.500,-4.000
1.239,-1.500,-2.000,1.000,-4.000
1.240,-1.500,-1.000,2.000,-4.000
1.241,-1.500,-0.500,3.500,-3.500
1.242,-1.500,0.500,6.000,-3.500
1.243,-1.500,1.500,7.500,-3.500
1.244,-1.500,2.000,9.000,-3.000
1.245,-1.500,2.500,9.500,-3.000
1.246,-2.000,2.500,9.000,-2.500
1.247,-2.000,2.500,8.000,-2.000
1.248,-2.000,3.000,5.500,-1.500
1.249,-2.000,3.000,3.000,-1.000
1.250,-2.000,2.500,1.500,-1.000
1.251,-2.000,1.500,2.000,-1.500
1.252,-2.000,1.000,3.000,-2.000
1.253,-2.000,0.500,3.500,-2.500
1.254,-2.000,0.500,2.000,-2.500
1.255,-2.000,1.000,0.000,-2.500
1.256,-1.500,1.000,-1.500,-3.000
1.257,-1.500,1.500,-2.000,-3.000
1.258,-1.500,1.500,-1.000,-3.000
1.259,-1.500,1.500,1.000,-3.500
1.260,-1.500,1.500,3.000,-4.000
1.261,-1.500,1.500,5.000,-4.500
1.262,-1.500,1.000,6.500,-5.000
1.263,-2.000,0.500,7.500,-5.500
1.264,-2.000,0.000,7.500,-5.500
1.265,-2.000,-0.500,7.500,-5.500
1.266,-2.000,-1.000,8.000,-5.500
1.267,-2.000,-1.500,9.000,-5.500
1.268,-2.000,-2.000,10.000,-5.500
1.269,-2.000,-3.000,11.500,-5.500
1.270,-2.000,-4.000,12.000,-5.500
1.271,-2.000,-4.500,11.500,-6.000
1.272,-2.000,-4.500,11.000,-6.500
1.273,-1.500,-4.000,10.500,-6.500
1.274,-1.500,-3.500,9.500,-7.000
1.275,-1.500,-3.500,8.000,-7.500
1.276,-1.500,-4.000,6.500,-8.000
1.277,-1.500,-5.000,5.500,-8.500
1.278,-1.500,-5.500,4.500,-9.000
1.279,-1.500,-6.000,4.000,-9.500
1.280,-1.500,-6.000,3.500,-9.500
1.281,-1.500,-5.500,3.500,-9.500
1.282,-1.500,-5.000,3.000,-9.000
1.283,-1.500,-4.500,2.000,-9.000
1.284,-1.500,-4.000,1.500,-8.500
1.285,-1.500,-4.000,1.000,-8.500
1.286,-1.500,-3.500,1.000,-8.500
1.287,-1.500,-3.000,1.000,-8.500
1.288,-1.500,-3.000,1.000,-8.500
1.289,-1.500,-3.000,1.500,-9.000
1.290,-1.500,-3.000,1.500,-9.000
1.291,-1.500,-3.000,1.000,-9.000
1.292,-1.500,-3.000,0.500,-9.000
1.293,-1.500,-2.500,-1.000,-8.500
1.294,-1.500,-2.500,-3.000,-8.500
1.295,-1.500,-2.000,-5.500,-8.000
1.296,-1.500,-2.000,-8.000,-7.500
1.297,-1.500,-2.000,-9.000,-7.500
1.298,-2.000,-2.000,-9.000,-7.500
1.299,-2.000,-2.500,-7.500,-7.500
1.300,-2.000,-3.000,-5.000,-7.500
1.301,-2.000,-3.500,-2.000,-8.000
1.302,-2.000,-3.500,0.000,-8.000
1.303,-2.000,-4.000,0.500,-8.000
1.304,-2.000,-4.000,0.000,-8.500
1.305,-2.000,-4.000,-1.500,-8.500
1.306,-2.000,-4.500,-3.000,-9.000
1.307,-2.000,-4.500,-4.500,-9.500
1.308,-2.000,-5.000,-5.500,-10.000
1.309,-2.000,-5.000,-5.500,-10.000
1.310,-2.000,-5.000,-4.500,-10.000
1.311,-2.000,-4.500,-3.000,-9.500
1.312,-2.000,-4.000,-1.500,-9.500
1.313,-2.000,-3.500,0.500,-9.000
1.314,-2.000,-3.500,3.500,-9.500
1.315,-2.000,-4.500,6.000,-10.000
1.316,-2.000,-5.500,7.000,-10.500
1.317,-2.000,-6.500,7.000,-11.000
1.318,-2.000,-7.500,7.000,-11.500
1.319,-2.000,-8.500,7.000,-12.000
1.320,-2.000,-8.500,6.500,-12.000
1.321,-2.000,-8.000,5.000,-12.000
1.322,-1.500,-8.000,2.500,-12.500
1.323,-1.500,-7.500,1.000,-13.000
1.324,-1.500,-7.000,1.000,-13.500
1.325,-1.500,-6.000,2.000,-14.000
1.326,-1.500,-5.000,3.500,-14.500
1.327,-1.500,-4.500,5.000,-15.000
1.328,-1.500,-4.500,6.000,-15.000
1.329,-1.500,-5.000,7.500,-15.500
1.330,-1.500,-6.500,8.000,-15.000
1.331,-1.500,-8.000,8.000,-15.000
1.332,-1.500,-9.000,7.500,-15.000
1.333,-1.500,-9.000,7.000,-15.000
1.334,-1.500,-9.500,7.500,-15.000
1.335,-1.500,-10.000,8.000,-15.000
1.336,-1.500,-10.500,9.500,-15.500
1.337,-1.500,-11.000,10.500,-15.500
1.338,-1.500,-11.000,11.000,-15.500
1.339,-1.500,-10.500,10.000,-15.500
1.340,-2.000,-10.000,8.500,-15.500
1.341,-2.000,-10.000,6.500,-15.000
1.342,-1.500,-10.500,6.000,-15.000
1.343,-1.500,-11.500,7.000,-15.000
1.344,-1.500,-13.000,9.000,-15.500
1.345,-1.500,-14.500,10.500,-16.000
1.346,-1.500,-15.500,11.500,-16.500
1.347,-1.500,-15.500,11.500,-16.500
1.348,-1.500,-15.000,11.500,-17.000
1.349,-1.500,-14.000,11.500,-17.000
1.350,-1.500,-13.000,11.500,-16.500
1.351,-1.500,-12.000,11.500,-16.500
1.352,-1.500,-11.000,11.500,-16.500
1.353,-1.500,-10.500,12.500,-16.000
1.354,-2.000,-9.500,13.500,-16.500
1.355,-2.000,-9.000,14.000,-16.500
1.356,-2.000,-9.000,14.500,-17.000
1.357,-2.000,-9.000,14.500,-17.500
1.358,-2.000,-9.500,14.000,-18.000
1.359,-2.000,-9.500,13.500,-18.500
1.360,-2.000,-10.000,14.500,-18.500
1.361,-2.000,-11.000,16.000,-19.000
1.362,-1.500,-12.000,17.500,-19.000
1.363,-1.500,-13.000,18.000,-19.500
1.364,-1.500,-14.500,17.500,-19.500
1.365,-1.500,-15.000,16.500,-20.000
1.366,-1.500,-15.500,15.000,-20.500
1.367,-2.000,-16.000,14.500,-21.000
1.368,-2.000,-16.000,14.500,-21.500
1.369,-1.500,-16.000,14.500,-22.000
1.370,-1.500,-15.500,13.500,-22.000
1.371,-1.500,-15.000,11.500,-22.000
1.372,-1.500,-14.500,8.500,-22.000
1.373,-1.500,-14.000,6.000,-22.000
1.374,-1.500,-14.000,5.000,-22.000
1.375,-1.500,-14.000,4.500,-22.000
1.376,-1.500,-13.500,4.000,-22.000
1.377,-1.500,-13.000,4.000,-22.500
1.378,-1.500,-13.000,4.500,-23.000
1.379,-1.500,-13.500,6.000,-23.500
1.380,-1.500,-14.000,7.000,-24.000
1.381,-1.500,-15.000,8.500,-24.500
1.382,-1.500,-16.000,9.500,-24.500
1.383,-1.500,-16.000,11.000,-24.500
1.384,-1.500,-16.000,12.000,-24.500
1.385,-1.500,-15.500,12.500,-24.000
1.386,-1.500,-14.500,12.500,-23.500
1.387,-2.000,-14.000,11.500,-23.000
1.388,-2.000,-13.500,10.500,-23.000
1.389,-2.000,-13.500,9.000,-23.000
1.390,-2.000,-13.500,7.500,-23.500
1.391,-2.000,-13.500,6.500,-24.000
1.392,-2.000,-13.500,6.000,-24.500
1.393,-2.000,-13.500,5.500,-24.500
1.394,-2.000,-14.000,5.000,-24.500
1.395,-2.000,-14.500,4.500,-24.500
1.396,-2.000,-15.000,4.500,-24.500
1.397,-2.000,-15.500,4.500,-25.000
1.398,-2.000,-15.500,5.000,-25.000
1.399,-2.000,-16.000,5.000,-25.000
1.400,-2.000,-16.000,4.500,-25.000
1.401,-2.000,-16.000,4.500,-25.500
1.402,-2.000,-16.000,4.500,-25.500
1.403,-2.000,-16.000,5.500,-26.500
1.404,-2.000,-16.000,7.000,-27.000
1.405,-1.500,-15.500,8.000,-27.500
1.406,-1.500,-15.000,9.000,-28.000
1.407,-1.500,-14.000,10.000,-28.000
1.408,-1.500,-13.500,10.500,-28.000
1.409,-1.500,-13.500,10.500,-28.500
1.410,-1.500,-14.500,9.500,-28.500
1.411,-1.500,-15.500,9.000,-29.000
1.412,-1.500,-17.000,8.500,-29.000
1.413,-1.500,-18.000,8.500,-29.000
1.414,-1.500,-18.000,9.000,-29.500
1.415,-1.500,-18.000,10.000,-29.500
1.416,-1.500,-17.500,11.500,-30.000
1.417,-1.500,-17.000,13.500,-30.500
1.418,-1.500,-16.500,15.500,-31.000
1.419,-1.500,-16.000,17.000,-30.500
1.420,-1.500,-16.500,16.500,-30.500
1.421,-2.000,-17.000,15.500,-30.000
1.422,-2.000,-18.000,13.000,-29.500
1.423,-2.000,-19.000,11.000,-29.000
1.424,-2.000,-20.000,10.000,-29.000
1.425,-2.000,-20.000,10.000,-29.000
1.426,-2.000,-20.000,9.500,-29.000
1.427,-2.000,-19.500,9.000,-29.000
1.428,-2.000,-19.000,7.500,-29.000
1.429,-2.000,-18.500,6.000,-29.500
1.430,-2.000,-18.500,5.500,-30.000
1.431,-2.000,-19.000,6.000,-30.500
1.432,-1.500,-19.500,7.000,-30.500
1.433,-1.500,-20.000,8.500,-30.500
1.434,-1.500,-20.000,9.000,-30.500
1.435,-2.000,-20.000,8.000,-30.500
1.436,-2.000,-20.000,6.500,-30.000
1.437,-2.000,-20.500,5.000,-30.000
1.438,-1.500,-20.500,3.500,-30.000
1.439,-1.500,-20.000,1.000,-30.000
1.440,-1.500,-20.000,-1.000,-30.000
1.441,-1.500,-19.500,-1.500,-30.000
1.442,-1.500,-19.000,0.500,-30.500
1.443,-1.500,-19.500,3.500,-31.000
1.444,-2.000,-20.000,6.500,-32.000
1.445,-2.000,-20.500,8.000,-32.000
1.446,-2.000,-21.000,9.500,-32.500
1.447,-2.000,-21.000,10.000,-33.000
1.448,-2.000,-21.000,10.500,-33.000
1.449,-1.500,-21.000,12.000,-33.000
1.450,-1.500,-20.500,14.000,-33.000
1.451,-1.500,-19.500,16.500,-33.000
1.452,-1.500,-19.500,18.500,-33.500
1.453,-1.500,-19.000,19.500,-33.500
1.454,-1.500,-19.500,20.000,-33.500
1.455,-1.500,-20.000,20.000,-34.000
1.456,-2.000,-20.500,19.500,-34.000
1.457,-2.000,-21.000,18.500,-34.500
1.458,-2.000,-21.500,17.000,-35.000
1.459,-2.000,-21.500,16.000,-35.500
1.460,-2.000,-22.000,14.500,-35.500
1.461,-2.000,-22.000,13.500,-36.000
1.462,-2.000,-22.000,13.000,-35.500
1.463,-2.000,-22.000,13.000,-35.500
1.464,-2.000,-21.500,13.500,-35.000
1.465,-2.000,-21.000,13.500,-35.000
1.466,-2.000,-20.000,13.000,-34.500
1.467,-2.000,-20.000,12.500,-34.000
1.468,-2.000,-20.000,11.500,-34.000
1.469,-2.000,-20.500,10.500,-34.000
1.470,-2.000,-21.000,9.000,-34.500
1.471,-2.000,-22.000,8.000,-35.000
1.472,-2.000,-22.500,6.500,-35.000
1.473,-2.000,-23.000,6.000,-35.500
1.474,-2.000,-23.500,6.000,-35.500
1.475,-2.000,-24.500,7.000,-35.500
1.476,-2.000,-25.000,8.000,-36.000
1.477,-2.000,-25.500,9.500,-36.000
1.478,-2.000,-25.500,11.000,-36.500
1.479,-2.000,-25.500,12.500,-37.500
1.480,-2.000,-25.000,14.000,-38.500
1.481,-2.000,-24.500,15.500,-39.000
1.482,-1.500,-24.000,16.500,-39.500
1.483,-1.500,-24.000,17.000,-39.500
1.484,-1.500,-23.500,18.000,-39.500
1.485,-2.000,-24.000,19.000,-39.500
1.486,-2.000,-24.500,19.500,-39.500
1.487,-1.500,-25.000,20.500,-39.500
1.488,-1.500,-25.500,21.500,-39.500
1.489,-1.000,-25.500,22.500,-39.500
1.490,-1.000,-25.500,23.500,-39.500
1.491,-1.000,-25.000,24.000,-40.000
1.492,-1.000,-24.500,24.000,-40.000
1.493,-1.500,-24.000,23.500,-40.500
1.494,-1.500,-24.000,22.500,-41.000
1.495,-1.500,-24.000,21.500,-41.000
1.496,-1.500,-24.500,19.500,-41.500
1.497,-1.500,-24.500,17.000,-41.500
1.498,-1.500,-24.500,14.500,-42.000
1.499,-1.500,-24.500,12.500,-42.000
1.500,-2.000,-24.500,10.500,-42.500
1.501,-2.000,-24.500,9.000,-43.500
1.502,-2.000,-25.000,6.500,-44.000
1.503,-2.000,-25.000,4.500,-44.500
1.504,-2.000,-25.500,3.000,-45.000
1.505,-1.500,-25.500,3.000,-46.000
1.506,-2.000,-26.000,4.000,-46.500
1.507,-2.000,-26.500,4.000,-47.500
1.508,-2.000,-27.500,3.000,-49.000
1.509,-2.000,-29.000,2.000,-51.000
1.510,-2.000,-30.500,0.500,-53.000
1.511,-2.000,-32.000,-0.500,-54.500
1.512,-2.000,-33.000,-1.000,-55.500
1.513,-2.000,-33.500,-0.500,-55.500
1.514,-2.000,-32.500,1.000,-54.000
1.515,-2.000,-31.000,2.500,-52.500
1.516,-2.000,-29.000,4.000,-50.500
1.517,-2.000,-27.500,5.000,-48.500
1.518,-2.000,-27.500,6.000,-47.000
1.519,-2.000,-28.500,6.500,-46.500
1.520,-2.000,-30.000,7.000,-46.500
1.521,-2.000,-32.500,7.000,-46.500
1.522,-2.000,-34.000,7.000,-47.000
1.523,-2.000,-35.000,6.000,-48.000
1.524,-2.000,-35.500,5.000,-49.000
1.525,-2.000,-36.500,5.000,-50.500
1.526,-2.000,-38.000,5.500,-52.000
1.527,-2.000,-40.500,6.000,-53.000
1.528,-2.000,-43.500,5.500,-54.000
1.529,-1.500,-46.500,4.500,-55.000
1.530,-1.500,-48.500,4.000,-56.500
1.531,-1.500,-50.000,4.500,-57.500
1.532,-1.500,-51.000,5.000,-58.000
1.533,-1.500,-51.000,5.000,-58.500
1.534,-1.500,-51.500,3.500,-58.500
1.535,-1.500,-51.000,1.000,-58.000
1.536,-1.500,-50.500,-1.000,-58.000
1.537,-1.500,-49.500,-1.500,-57.500
1.538,-1.500,-48.000,-1.000,-56.500
1.539,-1.500,-46.500,-0.500,-55.500
1.540,-1.500,-44.500,0.000,-54.000
1.541,-1.500,-42.500,0.000,-52.500
1.542,-1.500,-41.000,0.500,-50.500
1.543,-1.500,-40.000,1.500,-49.000
1.544,-1.500,-39.000,2.000,-47.000
1.545,-1.500,-37.000,3.000,-45.500
1.546,-1.500,-35.000,4.000,-44.000
1.547,-1.500,-32.000,4.500,-42.500
1.548,-1.500,-29.000,5.000,-41.500
1.549,-1.500,-26.000,5.000,-40.000
1.550,-1.500,-23.500,5.000,-39.000
1.551,-1.500,-22.500,5.500,-38.000
1.552,-2.000,-21.500,6.500,-37.500
1.553,-2.000,-21.000,7.500,-37.500
1.554,-2.000,-21.000,8.000,-37.500
1.555,-2.000,-20.500,7.500,-37.500
1.556,-2.000,-20.000,7.000,-37.500
1.557,-2.000,-19.500,6.500,-38.500
1.558,-2.000,-19.000,7.000,-39.500
1.559,-1.500,-18.500,7.000,-40.500
1.560,-1.500,-17.500,6.500,-41.000
1.561,-1.500,-17.000,5.500,-41.500
1.562,-1.500,-16.500,5.000,-42.000
1.563,-1.500,-16.500,5.000,-43.000
1.564,-1.500,-18.000,6.000,-43.500
1.565,-1.500,-19.500,7.000,-44.500
1.566,-1.500,-21.000,6.000,-45.500
1.567,-2.000,-22.500,4.500,-46.000
1.568,-2.000,-24.000,2.500,-47.000
1.569,-2.000,-25.500,2.000,-48.000
1.570,-1.500,-26.500,3.500,-49.000
1.571,-1.500,-27.500,5.500,-50.000
1.572,-1.500,-28.000,7.500,-50.500
1.573,-1.500,-28.000,9.000,-51.000
1.574,-1.000,-28.000,9.500,-52.000
1.575,-1.000,-28.000,9.500,-52.500
1.576,-1.000,-28.500,9.500,-53.000
1.577,-1.000,-29.000,10.000,-53.500
1.578,-1.500,-30.000,10.500,-54.000
1.579,-1.500,-30.500,11.000,-54.500
1.580,-1.500,-31.000,10.500,-55.500
1.581,-1.500,-31.500,9.500,-55.500
1.582,-1.000,-32.000,9.000,-56.000
1.583,-1.500,-32.000,9.500,-56.500
1.584,-1.500,-32.000,10.000,-56.500
1.585,-1.500,-32.000,10.500,-56.500
1.586,-1.500,-32.000,10.500,-57.000
1.587,-2.000,-31.500,10.000,-56.500
1.588,-2.000,-31.500,9.000,-56.500
1.589,-2.000,-31.500,9.000,-56.500
1.590,-2.000,-31.000,9.000,-56.000
1.591,-2.000,-30.500,9.000,-56.000
1.592,-2.000,-30.000,8.500,-56.000
1.593,-2.000,-29.500,8.000,-56.000
1.594,-2.000,-29.500,8.000,-56.500
1.595,-2.000,-29.500,8.500,-57.000
1.596,-2.000,-29.500,8.500,-57.500
1.597,-2.000,-29.500,8.000,-58.000
1.598,-2.000,-29.500,8.000,-58.000
1.599,-2.000,-29.500,8.000,-58.000
1.600,-2.000,-29.000,9.000,-58.000
1.601,-2.000,-29.000,9.500,-58.000
1.602,-2.000,-28.500,10.000,-57.500
1.603,-2.000,-28.500,9.500,-57.500
1.604,-2.000,-28.000,9.000,-57.500
1.605,-2.000,-28.500,9.000,-58.000
1.606,-2.000,-29.000,9.500,-58.500
1.607,-2.000,-30.000,11.000,-59.000
1.608,-2.000,-30.500,11.500,-59.500
1.609,-2.000,-31.000,11.500,-59.500
1.610,-1.500,-31.000,11.000,-59.500
1.611,-1.500,-31.000,10.500,-60.000
1.612,-1.500,-31.500,10.000,-60.500
1.613,-1.500,-32.000,8.500,-60.500
1.614,-1.500,-32.500,7.000,-61.000
1.615,-2.000,-32.500,5.000,-60.500
1.616,-2.000,-32.500,4.000,-61.000
1.617,-1.500,-32.000,3.000,-61.000
1.618,-1.500,-32.500,2.500,-61.500
1.619,-1.500,-33.500,1.500,-62.500
1.620,-1.500,-35.000,1.500,-63.500
1.621,-1.500,-36.000,2.500,-64.500
1.622,-1.500,-37.000,3.500,-65.500
1.623,-1.500,-37.000,4.500,-66.500
1.624,-1.500,-36.500,5.500,-66.500
1.625,-1.500,-36.000,5.500,-66.500
1.626,-1.500,-35.500,6.000,-66.500
1.627,-1.500,-35.000,6.000,-66.000
1.628,-1.500,-34.500,6.000,-66.000
1.629,-1.500,-34.000,7.000,-66.000
1.630,-1.500,-34.000,8.000,-65.500
1.631,-2.000,-33.500,9.000,-65.500
1.632,-2.000,-33.500,10.000,-66.000
1.633,-2.000,-34.000,11.000,-66.000
1.634,-2.000,-34.500,12.000,-67.000
1.635,-2.000,-35.000,13.000,-67.500
1.636,-1.500,-35.500,14.500,-68.000
1.637,-1.500,-35.500,14.500,-68.000
1.638,-1.500,-35.500,13.500,-68.000
1.639,-2.000,-35.500,11.000,-67.500
1.640,-2.000,-35.500,9.500,-67.000
1.641,-2.000,-35.500,8.500,-67.000
1.642,-2.000,-35.000,7.000,-67.000
1.643,-2.000,-34.500,4.500,-67.500
1.644,-2.000,-34.000,1.500,-67.500
1.645,-2.000,-33.000,-1.000,-67.500
1.646,-2.000,-32.500,-2.500,-67.500
1.647,-2.000,-32.500,-2.500,-67.500
1.648,-2.000,-33.000,-1.000,-68.000
1.649,-2.000,-33.500,0.500,-68.000
1.650,-2.000,-34.000,1.000,-68.500
1.651,-1.500,-34.500,0.000,-68.500
1.652,-1.500,-35.000,-1.000,-69.000
1.653,-1.500,-35.000,-3.000,-69.500
1.654,-1.500,-35.500,-4.500,-70.000
1.655,-1.500,-36.500,-5.000,-70.000
1.656,-1.500,-37.000,-5.000,-70.500
1.657,-2.000,-37.500,-3.500,-70.500
1.658,-2.000,-38.500,-1.000,-71.000
1.659,-1.500,-38.500,1.500,-71.500
1.660,-1.500,-38.500,3.000,-72.500
1.661,-1.500,-38.000,3.000,-73.000
1.662,-1.500,-37.500,2.000,-73.500
1.663,-1.500,-37.500,0.000,-74.000
1.664,-1.500,-37.500,-2.000,-74.000
1.665,-2.000,-38.000,-4.000,-74.500
1.666,-2.000,-38.500,-5.500,-74.500
1.667,-2.000,-38.500,-6.000,-74.500
1.668,-2.000,-38.500,-4.500,-75.000
1.669,-1.500,-37.500,-2.500,-75.000
1.670,-1.500,-37.000,0.000,-75.500
1.671,-1.500,-36.500,1.000,-75.500
1.672,-1.500,-36.500,0.500,-75.500
1.673,-1.500,-36.500,0.500,-76.000
1.674,-2.000,-36.500,0.500,-76.000
1.675,-1.500,-37.000,0.500,-76.000
1.676,-1.500,-37.000,0.500,-76.000
1.677,-1.500,-36.500,-1.000,-75.500
1.678,-1.500,-35.500,-2.500,-75.500
1.679,-1.500,-34.500,-3.500,-75.500
1.680,-1.500,-34.500,-4.000,-76.000
1.681,-1.500,-35.500,-3.500,-76.500
1.682,-1.500,-37.000,-3.000,-77.500
1.683,-1.500,-38.500,-2.500,-78.500
1.684,-1.500,-39.500,-2.000,-79.000
1.685,-2.000,-40.000,-1.500,-79.500
1.686,-2.000,-40.000,-0.500,-80.000
1.687,-2.000,-40.000,1.000,-80.500
1.688,-1.500,-40.000,2.500,-80.500
1.689,-1.500,-40.000,3.500,-81.000
1.690,-1.500,-39.500,3.500,-81.000
1.691,-1.500,-39.500,3.500,-81.500
1.692,-2.000,-39.000,4.000,-82.000
1.693,-2.000,-38.500,5.000,-82.000
1.694,-2.000,-38.500,7.000,-82.000
1.695,-2.000,-38.500,8.500,-82.000
1.696,-1.500,-38.500,10.500,-81.500
1.697,-1.500,-39.500,11.500,-81.500
1.698,-1.500,-41.000,12.000,-81.500
1.699,-1.500,-42.500,12.500,-81.500
1.700,-1.500,-43.000,12.500,-81.500
1.701,-1.500,-42.500,12.500,-81.500
1.702,-1.500,-41.000,12.000,-81.000
1.703,-2.000,-39.500,11.000,-80.500
1.704,-2.000,-38.500,10.500,-80.000
1.705,-2.000,-39.000,9.500,-80.000
1.706,-2.000,-40.000,8.500,-80.000
1.707,-2.000,-40.500,6.500,-80.500
1.708,-2.000,-41.000,4.500,-80.500
1.709,-2.000,-41.000,2.500,-80.500
1.710,-1.500,-41.000,1.000,-81.000
1.711,-1.500,-41.000,0.500,-81.000
1.712,-1.500,-41.000,0.500,-81.500
1.713,-2.000,-40.500,1.500,-82.000
1.714,-2.000,-40.500,3.000,-82.000
1.715,-2.000,-40.000,4.000,-82.500
1.716,-2.000,-40.000,4.000,-83.000
1.717,-2.000,-40.000,3.000,-83.500
1.718,-2.000,-40.000,1.500,-84.500
1.719,-1.500,-40.500,-0.500,-84.500
1.720,-1.500,-41.000,-2.500,-85.000
1.721,-1.500,-41.000,-3.500,-85.000
1.722,-1.500,-41.000,-4.000,-85.000
1.723,-1.500,-41.000,-3.500,-85.000
1.724,-2.000,-40.500,-2.000,-85.000
1.725,-2.000,-40.000,-1.000,-85.500
1.726,-2.000,-39.500,-0.500,-86.000
1.727,-2.000,-39.000,-1.000,-86.000
1.728,-2.000,-38.500,-2.500,-86.000
1.729,-2.000,-38.500,-3.500,-86.000
1.730,-2.000,-39.500,-4.000,-86.000
1.731,-2.000,-41.000,-3.000,-86.000
1.732,-2.000,-42.500,-2.000,-86.000
1.733,-2.000,-44.500,-1.000,-86.000
1.734,-2.000,-46.000,2.000,-86.500
1.735,-2.000,-47.000,5.500,-87.000
1.736,-2.000,-47.500,8.500,-87.500
1.737,-2.000,-47.500,9.000,-88.000
1.738,-2.000,-47.000,7.000,-88.500
1.739,-1.500,-47.000,4.500,-89.000
1.740,-1.500,-47.000,1.000,-89.500
1.741,-1.500,-47.500,-1.500,-90.000
1.742,-1.500,-47.500,-2.500,-90.500
1.743,-1.500,-47.500,-3.000,-91.000
1.744,-1.500,-47.500,-3.000,-91.000
1.745,-2.000,-47.000,-2.500,-90.500
1.746,-2.000,-47.000,-2.500,-91.000
1.747,-2.000,-47.000,-2.500,-91.000
1.748,-2.000,-47.500,-2.500,-91.500
1.749,-1.500,-48.000,-1.500,-92.500
1.750,-1.500,-48.500,0.000,-92.500
1.751,-1.500,-49.000,2.000,-93.000
1.752,-1.500,-49.500,3.500,-93.500
1.753,-1.500,-50.000,3.500,-93.500
1.754,-1.500,-50.000,3.000,-94.000
1.755,-1.500,-50.500,2.500,-94.000
1.756,-1.500,-50.500,2.500,-94.500
1.757,-1.500,-50.500,3.500,-95.000
1.758,-1.500,-50.500,4.000,-95.500
1.759,-1.500,-50.500,4.000,-96.000
1.760,-1.500,-51.000,4.000,-96.500
1.761,-1.500,-51.000,3.000,-97.000
1.762,-1.500,-50.500,3.000,-97.000
1.763,-2.000,-50.500,3.000,-97.500
1.764,-2.000,-50.000,4.000,-97.500
1.765,-2.000,-49.500,5.500,-97.000
1.766,-2.000,-49.000,7.000,-96.500
1.767,-2.000,-48.500,8.000,-96.000
1.768,-1.500,-48.000,7.000,-95.500
1.769,-1.500,-47.500,5.000,-95.000
1.770,-1.500,-47.500,2.500,-94.500
1.771,-1.500,-47.000,-0.500,-94.500
1.772,-1.500,-46.500,-3.500,-94.000
1.773,-1.500,-46.000,-6.000,-94.000
1.774,-1.500,-45.500,-8.000,-94.000
1.775,-2.000,-45.500,-9.000,-94.500
1.776,-2.000,-45.500,-9.000,-95.000
1.777,-2.000,-45.500,-7.000,-95.500
1.778,-2.000,-45.000,-4.500,-95.500
1.779,-2.000,-44.000,-2.000,-96.000
1.780,-2.000,-43.500,-1.000,-96.000
1.781,-2.500,-43.000,-1.500,-96.500
1.782,-2.500,-43.000,-2.000,-96.500
1.783,-2.000,-44.000,-2.500,-96.500
1.784,-2.000,-45.000,-2.500,-96.500
1.785,-2.000,-46.500,-2.500,-97.000
1.786,-1.500,-48.500,-3.000,-98.000
1.787,-1.500,-50.500,-2.500,-98.500
1.788,-1.500,-51.500,-2.000,-99.000
1.789,-1.500,-52.500,-1.500,-99.500
1.790,-1.500,-52.500,-0.500,-99.500
1.791,-1.500,-53.000,-0.500,-99.500
1.792,-1.500,-53.500,-1.000,-99.500
1.793,-1.500,-53.500,-2.500,-100.000
1.794,-1.500,-54.000,-4.500,-100.500
1.795,-1.500,-54.000,-5.500,-101.000
1.796,-1.500,-53.500,-5.500,-101.000
1.797,-1.500,-53.000,-5.000,-101.000
1.798,-1.500,-52.000,-4.000,-101.500
1.799,-2.000,-50.000,-3.000,-101.500
1.800,-2.000,-48.500,-3.000,-101.500
1.801,-2.000,-47.000,-3.000,-101.500
1.802,-2.000,-46.500,-2.500,-102.000
1.803,-1.500,-47.500,-2.000,-102.000
1.804,-1.500,-49.000,-1.500,-102.000
1.805,-1.500,-50.500,0.000,-102.000
1.806,-1.500,-51.500,2.000,-102.000
1.807,-2.000,-51.500,3.500,-102.000
1.808,-1.500,-50.500,4.000,-101.500
1.809,-1.500,-49.500,3.500,-101.500
1.810,-1.500,-49.000,2.000,-101.500
1.811,-2.000,-48.500,0.000,-101.500
1.812,-2.000,-48.500,-1.500,-101.500
1.813,-2.000,-49.000,-2.000,-101.500
1.814,-2.000,-49.000,-2.500,-101.500
1.815,-2.000,-48.500,-1.500,-101.500
1.816,-2.000,-48.500,0.000,-101.500
1.817,-2.000,-48.000,2.000,-102.000
1.818,-1.500,-47.500,3.000,-102.000
1.819,-1.500,-48.000,3.000,-102.500
1.820,-1.500,-48.000,2.500,-102.500
1.821,-1.500,-48.500,0.500,-103.000
1.822,-2.000,-48.500,-1.000,-103.000
1.823,-2.000,-48.000,-2.500,-103.000
1.824,-2.000,-47.000,-3.500,-102.500
1.825,-2.000,-46.500,-4.000,-102.500
1.826,-2.000,-46.000,-4.000,-102.500
1.827,-2.000,-46.000,-3.500,-103.000
1.828,-2.000,-46.000,-2.500,-103.500
1.829,-2.000,-46.000,-2.000,-104.000
1.830,-2.000,-46.000,-1.000,-104.500
1.831,-2.000,-45.500,0.500,-104.500
1.832,-2.000,-45.000,2.000,-105.000
1.833,-1.500,-44.500,4.000,-105.500
1.834,-1.500,-44.000,5.000,-105.500
1.835,-1.500,-44.000,5.500,-105.500
1.836,-1.500,-44.000,4.500,-106.000
1.837,-1.500,-44.500,3.500,-106.000
1.838,-1.500,-45.500,2.000,-106.000
1.839,-1.500,-46.000,1.000,-106.500
1.840,-1.500,-47.000,0.000,-106.500
1.841,-1.500,-47.500,-1.000,-106.500
1.842,-1.500,-47.500,-2.000,-107.000
1.843,-1.500,-47.000,-3.500,-107.500
1.844,-1.500,-46.500,-5.000,-107.500
1.845,-1.500,-46.000,-6.500,-108.000
1.846,-1.500,-46.000,-8.000,-108.000
1.847,-1.500,-45.500,-9.000,-108.500
1.848,-1.500,-45.000,-9.000,-108.000
1.849,-2.000,-45.000,-8.000,-108.000
1.850,-2.000,-44.500,-5.500,-108.000
1.851,-2.000,-44.000,-2.500,-108.000
1.852,-2.000,-43.500,-0.500,-108.000
1.853,-2.000,-43.000,0.500,-108.000
1.854,-2.000,-43.000,-0.500,-108.500
1.855,-2.000,-43.000,-2.000,-108.500
1.856,-2.000,-43.500,-2.500,-108.500
1.857,-2.000,-43.500,-2.500,-108.500
1.858,-2.000,-43.500,-2.500,-109.000
1.859,-2.000,-43.000,-3.000,-109.000
1.860,-2.000,-43.500,-3.000,-109.500
1.861,-2.000,-43.500,-2.500,-109.500
1.862,-2.000,-43.500,-0.500,-109.500
1.863,-2.000,-43.000,2.000,-109.500
1.864,-2.000,-42.000,4.500,-109.500
1.865,-2.000,-41.000,6.500,-109.500
1.866,-2.000,-40.500,9.000,-110.000
1.867,-2.000,-40.000,11.000,-110.000
1.868,-2.000,-40.500,12.500,-110.500
1.869,-2.000,-41.000,12.500,-111.000
1.870,-2.000,-42.000,12.000,-111.500
1.871,-2.000,-43.500,12.000,-111.500
1.872,-1.500,-44.000,12.000,-111.500
1.873,-1.500,-44.500,12.000,-111.500
1.874,-1.500,-44.500,12.000,-112.000
1.875,-1.500,-44.500,11.500,-112.000
1.876,-1.500,-44.000,10.500,-112.500
1.877,-1.500,-43.500,10.000,-113.000
1.878,-1.500,-43.500,9.500,-113.500
1.879,-1.500,-43.500,9.500,-114.500
1.880,-1.500,-44.000,10.500,-115.500
1.881,-1.500,-44.500,11.500,-116.500
1.882,-1.500,-45.000,12.500,-117.500
1.883,-1.500,-45.500,11.000,-119.000
1.884,-1.500,-46.000,9.000,-120.000
1.885,-2.000,-46.500,6.000,-121.500
1.886,-2.000,-47.000,3.500,-123.000
1.887,-2.000,-47.500,2.000,-125.000
1.888,-2.000,-48.500,1.000,-126.500
1.889,-1.500,-49.000,1.000,-128.500
1.890,-1.500,-50.000,1.500,-130.000
1.891,-1.500,-51.000,2.500,-130.500
1.892,-1.500,-51.500,2.500,-130.000
1.893,-2.000,-51.000,2.000,-128.500
1.894,-2.000,-50.500,1.500,-126.500
1.895,-2.000,-49.000,0.500,-124.000
1.896,-2.000,-47.500,-1.000,-121.500
1.897,-2.000,-46.500,-3.000,-119.000
1.898,-2.000,-45.000,-4.500,-117.500
1.899,-2.000,-44.000,-6.500,-116.500
1.900,-2.000,-43.000,-7.000,-115.500
1.901,-2.000,-42.000,-7.500,-115.500
1.902,-2.000,-41.000,-7.500,-115.000
1.903,-2.000,-40.000,-7.000,-115.000
1.904,-2.000,-39.500,-6.500,-115.500
1.905,-2.000,-39.500,-5.000,-116.500
1.906,-2.000,-40.000,-3.500,-117.500
1.907,-2.000,-40.500,-2.500,-118.000
1.908,-2.000,-41.500,-1.000,-119.000
1.909,-2.000,-42.500,-0.500,-119.500
1.910,-2.000,-43.000,-0.500,-119.500
1.911,-2.000,-43.500,-1.000,-120.000
1.912,-2.000,-43.000,-2.000,-120.000
1.913,-2.000,-43.000,-4.000,-120.500
1.914,-2.000,-42.000,-6.000,-121.000
1.915,-2.000,-41.500,-7.500,-121.500
1.916,-2.000,-41.000,-8.000,-121.500
1.917,-2.000,-41.000,-6.500,-122.000
1.918,-2.000,-41.500,-3.500,-122.500
1.919,-2.000,-42.000,0.500,-123.000
1.920,-2.000,-42.000,5.000,-123.500
1.921,-1.500,-42.000,9.000,-124.000
1.922,-1.500,-42.000,12.000,-125.000
1.923,-1.500,-42.500,13.000,-125.500
1.924,-1.500,-43.500,12.500,-126.500
1.925,-1.500,-44.000,10.500,-127.000
1.926,-1.500,-44.500,7.500,-127.500
1.927,-1.500,-44.000,5.000,-127.500
1.928,-1.500,-44.000,2.500,-128.000
1.929,-1.500,-43.500,1.000,-128.000
1.930,-1.500,-43.500,-0.500,-128.000
1.931,-1.500,-43.500,-1.000,-128.000
1.932,-1.500,-44.000,-1.000,-127.500
1.933,-1.500,-45.000,-1.000,-127.500
1.934,-1.500,-45.500,-1.000,-127.500
1.935,-1.500,-46.000,-0.500,-127.500
1.936,-1.500,-46.500,-0.500,-127.500
1.937,-1.500,-46.500,-1.000,-128.000
1.938,-1.500,-46.000,-1.500,-128.000
1.939,-1.500,-45.500,-2.000,-128.000
1.940,-1.500,-45.500,-2.000,-127.500
1.941,-2.000,-45.000,-1.000,-127.500
1.942,-2.000,-44.500,0.500,-127.500
1.943,-2.000,-44.500,1.500,-127.500
1.944,-2.000,-44.000,2.000,-127.500
1.945,-2.000,-44.000,2.500,-127.500
1.946,-2.000,-43.500,2.500,-127.500
1.947,-2.000,-43.500,2.000,-127.500
1.948,-2.000,-43.000,2.500,-127.500
1.949,-2.000,-42.000,2.500,-127.500
1.950,-2.000,-41.000,2.500,-128.000
1.951,-2.000,-39.500,2.000,-128.000
1.952,-2.000,-39.000,1.500,-128.500
1.953,-2.000,-39.500,1.500,-128.500
1.954,-2.000,-40.500,2.500,-129.000
1.955,-2.000,-42.500,4.000,-129.000
1.956,-1.500,-44.000,5.000,-129.500
1.957,-1.500,-45.000,5.000,-129.500
1.958,-1.500,-45.500,4.000,-130.000
1.959,-1.500,-46.000,2.500,-130.500
1.960,-1.500,-46.000,1.000,-131.000
1.961,-1.500,-46.000,0.500,-131.500
1.962,-1.500,-45.500,-0.500,-132.000
1.963,-1.500,-45.000,-0.500,-132.000
1.964,-1.500,-45.000,0.000,-132.500
1.965,-1.500,-45.500,1.000,-132.500
1.966,-1.500,-45.500,2.000,-133.000
1.967,-1.500,-46.000,3.000,-133.500
1.968,-1.500,-45.500,4.000,-134.000
1.969,-1.500,-45.000,4.500,-134.000
1.970,-1.500,-44.500,5.000,-134.500
1.971,-1.500,-44.000,6.000,-134.500
1.972,-1.500,-43.500,8.000,-135.000
1.973,-1.500,-43.500,9.500,-135.000
1.974,-1.500,-43.500,10.000,-135.000
1.975,-1.500,-43.500,9.500,-135.000
1.976,-1.500,-43.000,7.000,-135.000
1.977,-1.500,-42.500,3.500,-135.000
1.978,-1.500,-42.500,0.000,-135.500
1.979,-1.500,-42.000,-2.500,-136.000
1.980,-1.500,-42.000,-3.500,-136.500
1.981,-1.500,-43.000,-4.000,-136.500
1.982,-1.500,-44.000,-3.000,-136.500
1.983,-1.500,-45.000,-2.000,-136.500
1.984,-1.500,-46.500,-2.000,-136.500
1.985,-1.500,-47.500,-2.500,-136.000
1.986,-1.500,-47.500,-3.500,-136.000
1.987,-2.000,-47.500,-4.500,-136.000
1.988,-2.000,-47.000,-4.000,-136.000
1.989,-2.000,-47.000,-2.000,-136.000
1.990,-2.000,-46.500,1.000,-136.000
1.991,-2.000,-46.500,4.000,-136.000
1.992,-1.500,-46.000,6.000,-136.000
1.993,-1.500,-46.000,6.000,-136.500
1.994,-1.500,-45.500,4.500,-136.500
1.995,-1.500,-45.500,1.500,-137.000
1.996,-1.500,-45.000,-0.500,-137.500
1.997,-1.500,-45.000,-1.500,-138.000
1.998,-1.500,-44.500,-1.500,-138.500
1.999,-1.500,-44.000,-0.500,-138.500
2.000,-1.500,-44.000,0.000,-139.000
2.001,-1.500,-44.500,-1.000,-139.000
2.002,-1.500,-45.000,-2.500,-139.500
2.003,-1.500,-45.500,-3.500,-139.500
2.004,-1.500,-46.500,-3.500,-140.000
2.005,-1.500,-47.000,-4.000,-140.000
2.006,-1.500,-47.500,-4.000,-140.000
2.007,-1.500,-47.500,-3.500,-139.500
2.008,-1.500,-46.500,-3.000,-139.000
2.009,-1.500,-46.000,-1.500,-139.000
2.010,-2.000,-45.500,0.500,-139.500
2.011,-2.000,-45.000,2.000,-140.000
2.012,-1.500,-45.000,3.000,-140.500
2.013,-1.500,-45.500,3.000,-141.000
2.014,-1.500,-47.000,3.500,-141.500
2.015,-1.500,-48.000,4.500,-142.000
2.016,-1.500,-49.000,5.500,-142.000
2.017,-1.500,-50.000,5.500,-142.500
2.018,-1.500,-50.000,4.500,-143.000
2.019,-1.500,-49.500,3.000,-143.000
2.020,-1.500,-49.000,2.000,-143.500
2.021,-1.500,-48.500,1.500,-144.000
2.022,-1.500,-48.500,1.500,-144.000
2.023,-1.500,-48.500,2.000,-144.500
2.024,-1.000,-49.000,2.000,-144.500
2.025,-1.000,-49.500,2.000,-144.500
2.026,-1.000,-50.500,1.000,-144.500
2.027,-1.500,-50.500,0.500,-144.500
2.028,-1.500,-50.000,0.000,-144.500
2.029,-1.500,-49.500,0.000,-144.500
2.030,-1.500,-49.000,1.000,-144.000
2.031,-1.500,-48.500,2.000,-143.000
2.032,-1.500,-48.500,3.000,-143.000
2.033,-1.500,-48.500,4.000,-142.500
2.034,-1.500,-48.500,4.500,-142.500
2.035,-1.500,-48.000,4.500,-142.500
2.036,-1.500,-47.000,3.500,-142.500
2.037,-1.500,-46.000,2.000,-142.500
2.038,-2.000,-45.500,0.500,-142.500
2.039,-2.000,-45.000,-1.000,-143.000
2.040,-2.000,-45.500,-1.000,-144.000
2.041,-2.000,-46.000,0.000,-144.500
2.042,-2.000,-47.000,1.500,-145.000
2.043,-2.000,-48.000,3.500,-145.500
2.044,-2.000,-48.000,4.000,-146.000
2.045,-2.000,-48.000,4.000,-146.500
2.046,-2.000,-47.500,4.000,-146.500
2.047,-2.000,-47.500,5.000,-147.000
2.048,-2.000,-47.000,7.500,-147.000
2.049,-2.000,-47.500,10.000,-147.000
2.050,-1.500,-48.000,11.500,-146.500
2.051,-1.500,-48.500,10.500,-146.500
2.052,-1.500,-48.500,7.500,-146.500
2.053,-1.500,-48.500,4.000,-147.000
2.054,-1.500,-48.500,0.000,-147.500
2.055,-1.500,-48.500,-3.000,-148.000
2.056,-1.500,-48.500,-3.500,-149.000
2.057,-1.500,-49.000,-3.000,-150.000
2.058,-1.500,-49.500,-2.000,-150.500
2.059,-1.500,-50.000,-2.000,-151.000
2.060,-1.500,-50.500,-3.000,-151.500
2.061,-1.500,-51.000,-4.000,-152.000
2.062,-1.500,-51.000,-4.500,-152.000
2.063,-1.500,-51.000,-4.000,-152.000
2.064,-1.500,-51.000,-3.500,-152.500
2.065,-1.500,-51.000,-2.500,-152.500
2.066,-1.500,-50.500,-0.500,-152.500
2.067,-1.500,-50.000,2.500,-152.500
2.068,-1.500,-50.000,5.000,-152.500
2.069,-1.500,-50.000,7.500,-153.000
2.070,-1.500,-50.000,8.500,-153.000
2.071,-1.500,-50.500,8.500,-153.000
2.072,-1.500,-50.500,8.000,-153.000
2.073,-1.500,-51.000,7.000,-153.000
2.074,-1.500,-51.500,5.500,-152.500
2.075,-1.500,-51.500,4.000,-152.000
2.076,-1.500,-51.000,2.500,-151.500
2.077,-1.500,-49.500,1.500,-151.000
2.078,-1.500,-48.500,1.500,-151.000
2.079,-1.500,-47.000,1.500,-151.000
2.080,-1.500,-46.500,1.500,-151.500
2.081,-1.500,-46.500,1.500,-151.500
2.082,-1.500,-47.000,2.000,-152.000
2.083,-1.500,-47.500,2.500,-152.000
2.084,-2.000,-48.500,4.000,-152.500
2.085,-2.000,-49.000,5.500,-153.000
2.086,-2.000,-49.500,8.000,-153.000
2.087,-1.500,-50.000,10.000,-153.500
2.088,-1.500,-50.000,12.000,-154.000
2.089,-1.500,-50.500,12.500,-154.500
2.090,-1.500,-50.500,12.500,-155.000
2.091,-1.500,-51.000,11.500,-155.000
2.092,-1.500,-51.000,10.500,-155.500
2.093,-1.500,-51.000,10.500,-155.500
2.094,-1.500,-51.000,10.500,-156.000
2.095,-1.500,-50.500,10.500,-156.500
2.096,-1.500,-50.000,10.000,-156.500
2.097,-1.500,-49.500,9.000,-157.000
2.098,-1.500,-49.000,7.500,-157.000
2.099,-1.500,-48.500,6.500,-157.000
2.100,-1.500,-47.500,5.000,-157.000
2.101,-1.500,-47.000,4.500,-157.000
2.102,-1.500,-46.000,5.000,-156.500
2.103,-1.500,-46.000,5.500,-156.500
2.104,-1.500,-46.000,6.000,-157.000
2.105,-1.500,-46.000,6.000,-157.000
2.106,-1.500,-46.500,6.000,-157.000
2.107,-1.500,-47.000,5.000,-157.000
2.108,-1.500,-48.000,4.500,-157.000
2.109,-2.000,-49.000,4.500,-156.500
2.110,-2.000,-49.500,4.500,-156.000
2.111,-2.000,-49.500,4.000,-155.500
2.112,-2.000,-49.500,3.000,-155.000
2.113,-2.000,-49.000,2.000,-155.000
2.114,-2.000,-48.500,1.500,-155.500
2.115,-2.000,-48.500,1.500,-156.000
2.116,-2.000,-48.500,1.000,-156.500
2.117,-2.000,-48.000,-1.000,-157.000
2.118,-2.000,-47.500,-3.000,-157.000
2.119,-2.000,-47.500,-4.500,-157.000
2.120,-2.000,-47.000,-5.500,-157.000
2.121,-2.000,-47.500,-5.500,-157.000
2.122,-2.000,-48.000,-6.000,-157.500
2.123,-2.000,-48.000,-6.000,-157.500
2.124,-2.000,-48.000,-5.000,-157.000
2.125,-2.000,-47.500,-3.500,-157.000
2.126,-1.500,-47.000,-2.000,-157.500
2.127,-1.500,-47.000,-1.500,-158.000
2.128,-1.500,-47.000,-2.000,-159.000
2.129,-1.000,-47.000,-3.000,-160.000
2.130,-1.000,-46.500,-4.000,-160.500
2.131,-1.500,-46.000,-4.500,-161.500
2.132,-1.500,-46.000,-5.500,-162.000
2.133,-1.500,-46.000,-7.000,-162.500
2.134,-1.500,-46.500,-8.500,-163.000
2.135,-1.500,-48.000,-9.000,-163.500
2.136,-1.500,-49.000,-8.000,-163.500
2.137,-1.500,-50.000,-6.500,-163.500
2.138,-2.000,-50.500,-5.500,-163.000
2.139,-2.000,-50.500,-5.500,-163.000
2.140,-1.500,-50.000,-5.000,-162.500
2.141,-1.500,-49.500,-5.500,-162.500
2.142,-1.500,-48.500,-5.500,-162.000
2.143,-1.500,-48.000,-5.000,-161.500
2.144,-1.500,-47.500,-4.000,-161.500
2.145,-1.500,-47.500,-2.500,-161.500
2.146,-1.500,-47.500,-0.500,-161.500
2.147,-2.000,-48.000,1.000,-161.500
2.148,-2.000,-48.500,1.500,-161.500
2.149,-1.500,-48.500,1.000,-161.500
2.150,-1.500,-48.000,0.500,-161.500
2.151,-2.000,-47.500,0.500,-161.500
2.152,-2.000,-47.000,1.000,-161.000
2.153,-2.000,-47.000,1.500,-161.000
2.154,-2.000,-47.500,2.000,-160.500
2.155,-2.000,-47.500,2.000,-160.500
2.156,-2.000,-48.000,1.500,-160.500
2.157,-2.000,-47.500,0.500,-161.000
2.158,-2.000,-47.000,-1.500,-161.500
2.159,-1.500,-46.500,-4.000,-161.500
2.160,-1.500,-45.500,-5.500,-162.000
2.161,-1.500,-44.500,-5.500,-162.000
2.162,-1.500,-44.000,-4.500,-162.000
2.163,-1.500,-44.000,-4.000,-162.000
2.164,-1.500,-44.500,-3.500,-162.000
2.165,-1.500,-45.000,-3.500,-162.500
2.166,-1.500,-45.500,-3.000,-162.500
2.167,-1.500,-46.000,-1.500,-162.500
2.168,-1.500,-46.500,1.000,-163.000
2.169,-1.500,-46.500,3.000,-163.500
2.170,-1.500,-46.000,4.000,-164.000
2.171,-1.500,-46.000,4.500,-164.500
2.172,-1.500,-46.000,4.500,-164.500
2.173,-1.500,-46.500,4.500,-165.000
2.174,-1.500,-47.000,3.500,-165.500
2.175,-1.500,-47.500,2.500,-165.500
2.176,-1.500,-48.000,2.000,-165.500
2.177,-1.500,-47.500,1.000,-165.500
2.178,-1.500,-47.000,1.500,-165.500
2.179,-1.500,-46.000,2.000,-165.500
2.180,-1.500,-45.000,2.000,-165.500
2.181,-1.500,-44.500,1.500,-165.000
2.182,-1.500,-44.000,0.000,-165.000
2.183,-1.500,-44.000,-1.500,-165.000
2.184,-1.500,-44.000,-2.500,-164.500
2.185,-1.500,-44.500,-3.500,-164.500
2.186,-1.500,-44.500,-3.500,-164.500
2.187,-1.500,-45.000,-2.000,-164.000
2.188,-1.500,-45.000,-0.500,-163.500
2.189,-1.500,-45.500,-0.500,-163.000
2.190,-2.000,-45.000,-1.500,-162.500
2.191,-2.000,-44.500,-3.500,-162.000
2.192,-2.000,-43.500,-6.000,-161.500
2.193,-2.000,-43.000,-8.000,-161.500
2.194,-2.000,-42.500,-10.000,-161.000
2.195,-2.000,-42.000,-12.000,-161.000
2.196,-2.000,-42.000,-12.500,-161.000
2.197,-2.000,-42.000,-11.500,-161.500
2.198,-2.000,-42.000,-10.500,-162.000
2.199,-2.000,-41.500,-10.000,-162.500
2.200,-2.000,-40.500,-10.500,-162.500
2.201,-1.500,-39.000,-11.000,-162.500
2.202,-1.500,-38.000,-12.000,-162.500
2.203,-1.500,-37.500,-12.000,-163.000
2.204,-1.500,-37.500,-11.000,-163.000
2.205,-1.500,-38.000,-9.500,-163.500
2.206,-1.500,-38.500,-9.000,-164.000
2.207,-1.500,-38.500,-9.500,-164.500
2.208,-1.500,-39.000,-10.500,-165.000
2.209,-1.500,-39.500,-11.500,-165.500
2.210,-2.000,-40.000,-11.500,-166.000
2.211,-2.000,-41.000,-11.000,-165.500
2.212,-1.500,-42.500,-10.000,-165.500
2.213,-1.500,-43.500,-7.500,-165.500
2.214,-1.500,-44.500,-4.000,-166.000
2.215,-1.500,-45.000,-1.000,-166.500
2.216,-1.500,-44.500,1.500,-166.500
2.217,-1.500,-44.000,2.500,-167.000
2.218,-1.000,-43.000,2.500,-166.500
2.219,-1.000,-42.500,1.500,-166.000
2.220,-1.000,-42.000,0.500,-165.500
2.221,-1.000,-42.500,-1.000,-165.000
2.222,-1.000,-43.000,-2.000,-165.000
2.223,-1.000,-44.000,-2.000,-165.000
2.224,-1.500,-44.500,-1.500,-165.000
2.225,-1.500,-44.500,-1.500,-165.000
2.226,-1.500,-44.000,-1.500,-165.500
2.227,-2.000,-43.000,-1.500,-165.500
2.228,-2.000,-42.000,-1.000,-165.500
2.229,-2.000,-41.500,-1.000,-165.500
2.230,-2.000,-40.500,-0.500,-165.500
2.231,-2.000,-40.000,-0.500,-165.500
2.232,-2.000,-39.500,0.500,-165.500
2.233,-2.000,-39.000,1.000,-165.000
2.234,-1.500,-38.500,0.500,-164.000
2.235,-1.500,-38.000,0.000,-162.500
2.236,-1.500,-38.000,-0.500,-162.000
2.237,-1.500,-38.000,0.000,-161.000
2.238,-1.500,-39.000,0.500,-161.000
2.239,-1.500,-40.000,1.500,-161.500
2.240,-1.500,-41.000,3.000,-162.500
2.241,-1.500,-42.500,4.500,-163.500
2.242,-1.500,-43.000,4.500,-164.500
2.243,-1.500,-43.000,5.000,-164.500
2.244,-2.000,-42.000,5.000,-164.500
2.245,-2.000,-41.000,6.000,-164.500
2.246,-1.500,-40.000,6.000,-164.500
2.247,-1.500,-39.500,6.000,-165.000
2.248,-1.500,-39.000,5.000,-165.000
2.249,-1.500,-38.500,4.500,-165.500
2.250,-1.500,-38.500,4.000,-166.000
2.251,-1.500,-39.000,4.000,-166.500
2.252,-2.000,-39.500,3.500,-166.500
2.253,-2.000,-40.500,3.500,-167.000
2.254,-2.000,-41.000,3.500,-167.500
2.255,-2.000,-41.500,3.000,-168.000
2.256,-2.000,-41.500,2.500,-168.500
2.257,-2.000,-41.500,1.500,-169.000
2.258,-2.000,-41.500,0.500,-169.500
2.259,-2.000,-42.000,-0.500,-170.500
2.260,-2.000,-43.000,-1.500,-171.500
2.261,-1.500,-44.500,-1.000,-172.500
2.262,-1.500,-46.000,0.000,-174.000
2.263,-1.500,-48.500,1.500,-175.000
2.264,-1.500,-51.000,2.500,-176.500
2.265,-1.500,-53.000,4.000,-178.000
2.266,-1.500,-55.000,4.500,-179.000
2.267,-1.500,-56.500,4.500,-181.000
2.268,-1.500,-58.500,4.000,-183.000
2.269,-1.500,-61.000,3.500,-185.000
2.270,-1.500,-63.500,3.000,-187.000
2.271,-1.500,-66.000,2.000,-188.500
2.272,-1.500,-67.500,1.000,-189.000
2.273,-1.500,-69.000,0.500,-188.500
2.274,-1.500,-69.000,1.000,-187.000
2.275,-1.500,-68.000,1.000,-184.500
2.276,-1.500,-66.000,0.500,-181.500
2.277,-1.500,-63.500,-0.500,-178.000
2.278,-2.000,-61.000,-1.500,-174.500
2.279,-2.000,-58.000,-3.000,-171.000
2.280,-2.000,-55.500,-4.500,-167.500
2.281,-2.000,-52.500,-6.000,-164.500
2.282,-1.500,-49.500,-7.000,-161.500
2.283,-1.500,-46.500,-8.000,-159.500
2.284,-1.500,-43.000,-9.500,-157.500
2.285,-1.500,-40.500,-10.500,-156.000
2.286,-2.000,-37.500,-11.000,-155.000
2.287,-2.000,-35.000,-10.000,-154.000
2.288,-2.000,-33.000,-8.000,-153.500
2.289,-1.500,-30.500,-6.000,-153.000
2.290,-1.500,-28.500,-4.000,-152.500
2.291,-1.500,-26.500,-3.500,-152.000
2.292,-1.500,-25.500,-3.000,-151.500
2.293,-2.000,-25.500,-3.000,-151.500
2.294,-2.000,-25.500,-2.000,-152.000
2.295,-2.000,-25.500,0.000,-152.500
2.296,-1.500,-25.500,2.000,-153.500
2.297,-1.500,-25.000,3.500,-154.000
2.298,-1.500,-25.500,4.000,-155.000
2.299,-1.500,-26.000,3.000,-156.000
2.300,-1.500,-27.000,2.000,-156.500
2.301,-2.000,-28.500,1.500,-157.000
2.302,-2.000,-30.000,2.000,-157.500
2.303,-2.000,-31.000,3.500,-158.000
2.304,-2.000,-32.000,6.000,-158.500
2.305,-2.000,-32.500,8.000,-159.000
2.306,-2.000,-33.000,10.000,-159.500
2.307,-1.500,-33.000,11.000,-160.500
2.308,-1.500,-33.000,10.500,-161.000
2.309,-1.500,-33.500,9.500,-161.500
2.310,-1.500,-33.500,8.500,-162.500
2.311,-1.000,-34.000,7.000,-163.000
2.312,-1.000,-34.000,5.000,-163.500
2.313,-1.000,-34.000,2.500,-164.000
2.314,-1.000,-34.000,-1.000,-164.500
2.315,-1.500,-33.500,-4.000,-164.500
2.316,-1.500,-33.000,-6.000,-165.000
2.317,-1.500,-32.500,-7.000,-165.500
2.318,-1.500,-32.000,-7.000,-166.000
2.319,-1.500,-32.000,-7.000,-166.500
2.320,-1.500,-32.000,-7.000,-167.000
2.321,-1.500,-32.500,-7.000,-167.500
2.322,-1.500,-33.000,-6.500,-167.500
2.323,-2.000,-33.500,-6.500,-167.500
2.324,-2.000,-34.000,-5.500,-167.000
2.325,-2.000,-35.000,-4.500,-166.500
2.326,-2.000,-35.000,-3.500,-166.500
2.327,-2.000,-35.000,-2.500,-166.500
2.328,-2.000,-34.500,-2.500,-166.500
2.329,-2.000,-34.000,-2.500,-166.500
2.330,-2.000,-33.500,-3.000,-166.500
2.331,-2.000,-34.000,-3.000,-167.000
2.332,-2.000,-34.500,-2.500,-167.000
2.333,-2.000,-35.000,-3.000,-167.000
2.334,-2.000,-35.000,-4.500,-167.000
2.335,-2.000,-34.500,-6.500,-167.000
2.336,-1.500,-33.500,-8.000,-167.000
2.337,-1.500,-33.000,-9.500,-167.000
2.338,-1.500,-33.000,-10.000,-167.000
2.339,-1.500,-33.500,-10.500,-167.000
2.340,-1.500,-34.500,-11.000,-166.500
2.341,-1.500,-35.500,-12.000,-166.500
2.342,-1.500,-36.500,-13.000,-167.000
2.343,-1.500,-37.000,-14.000,-167.500
2.344,-2.000,-37.000,-14.500,-168.000
2.345,-1.500,-36.500,-15.500,-168.000
2.346,-1.500,-36.000,-16.000,-168.000
2.347,-1.500,-35.000,-16.000,-168.500
2.348,-1.500,-35.000,-16.500,-168.500
2.349,-1.500,-35.000,-15.500,-169.000
2.350,-1.500,-35.500,-14.500,-169.500
2.351,-1.500,-36.000,-13.000,-169.500
2.352,-1.500,-36.000,-12.000,-169.500
2.353,-1.500,-36.000,-11.500,-169.500
2.354,-1.500,-35.500,-11.000,-169.500
2.355,-1.500,-34.500,-10.500,-169.000
2.356,-1.500,-34.000,-9.000,-169.000
2.357,-1.500,-33.500,-7.000,-169.000
2.358,-1.500,-33.000,-4.500,-168.500
2.359,-1.500,-33.000,-2.500,-168.500
2.360,-1.500,-33.000,-1.000,-168.000
2.361,-1.500,-33.000,-1.000,-168.000
2.362,-1.500,-33.000,-2.500,-168.000
2.363,-1.500,-32.500,-4.000,-167.500
2.364,-1.500,-32.000,-4.000,-167.000
2.365,-1.500,-31.500,-2.500,-166.500
2.366,-1.500,-31.000,-1.500,-166.000
2.367,-1.500,-30.500,-2.500,-165.500
2.368,-1.500,-31.000,-5.000,-165.000
2.369,-1.500,-31.500,-8.000,-165.000
2.370,-1.500,-32.500,-10.000,-165.000
2.371,-1.500,-33.000,-11.000,-165.000
2.372,-1.500,-33.500,-11.000,-165.500
2.373,-1.500,-33.500,-10.000,-165.500
2.374,-1.500,-33.500,-9.500,-165.000
2.375,-1.500,-33.500,-10.000,-165.000
2.376,-1.500,-33.500,-11.500,-165.500
2.377,-1.500,-33.000,-12.500,-165.500
2.378,-1.500,-33.000,-13.000,-165.500
2.379,-1.500,-33.000,-13.500,-165.500
2.380,-1.500,-32.500,-13.500,-165.500
2.381,-1.500,-32.500,-13.500,-165.500
2.382,-1.500,-32.500,-13.000,-165.500
2.383,-1.500,-32.500,-12.000,-166.000
2.384,-1.500,-33.000,-10.000,-166.000
2.385,-1.500,-33.000,-8.500,-166.000
2.386,-1.500,-32.500,-6.500,-166.000
2.387,-1.500,-32.000,-5.000,-166.000
2.388,-1.500,-31.500,-3.500,-165.500
2.389,-1.500,-31.000,-2.000,-165.500
2.390,-1.500,-31.000,-1.000,-165.500
2.391,-1.500,-30.500,-0.500,-166.000
2.392,-1.500,-30.000,-0.500,-166.000
2.393,-1.500,-30.000,0.000,-166.500
2.394,-1.500,-30.000,0.500,-167.000
2.395,-1.500,-30.000,1.000,-167.000
2.396,-1.500,-30.000,2.500,-167.000
2.397,-1.500,-30.500,5.000,-167.000
2.398,-1.500,-31.500,8.000,-167.000
2.399,-1.500,-32.000,9.500,-167.000
2.400,-1.500,-32.000,9.000,-167.000
2.401,-1.500,-32.000,7.000,-166.500
2.402,-1.500,-31.500,5.000,-166.000
2.403,-1.500,-31.000,3.500,-165.500
2.404,-1.500,-31.000,3.000,-165.500
2.405,-1.500,-31.500,3.500,-165.500
2.406,-2.000,-32.500,4.500,-165.000
2.407,-2.000,-33.000,5.500,-165.000
2.408,-2.000,-33.500,5.500,-165.000
2.409,-2.000,-33.500,4.500,-165.000
2.410,-2.000,-33.000,1.000,-164.500
2.411,-2.000,-32.000,-3.000,-164.500
2.412,-2.000,-30.500,-7.000,-164.000
2.413,-2.000,-29.500,-9.000,-164.500
2.414,-2.000,-29.000,-8.500,-164.500
2.415,-2.000,-29.500,-6.500,-165.000
2.416,-1.500,-30.000,-4.000,-165.500
2.417,-1.500,-31.000,-1.500,-165.500
2.418,-1.500,-32.000,0.000,-166.000
2.419,-2.000,-33.000,0.000,-166.500
2.420,-2.000,-34.000,0.000,-167.000
2.421,-2.000,-34.500,0.500,-167.500
2.422,-1.500,-35.000,2.500,-168.000
2.423,-1.500,-35.500,4.500,-168.500
2.424,-1.500,-35.500,7.000,-169.000
2.425,-1.500,-35.000,9.500,-169.000
2.426,-1.500,-34.500,11.500,-169.000
2.427,-1.500,-34.000,12.500,-168.500
2.428,-1.500,-33.500,13.000,-168.500
2.429,-1.500,-32.500,12.000,-168.500
2.430,-1.500,-31.500,10.000,-168.000
2.431,-1.500,-31.000,7.500,-168.000
2.432,-1.500,-31.000,4.000,-167.500
2.433,-1.500,-31.000,0.500,-167.000
2.434,-1.500,-31.000,-2.000,-166.500
2.435,-1.500,-31.000,-3.000,-166.500
2.436,-1.500,-30.500,-2.500,-166.500
2.437,-1.500,-30.500,-1.000,-166.000
2.438,-1.500,-30.000,0.500,-165.500
2.439,-2.000,-29.500,1.500,-165.000
2.440,-2.000,-29.500,2.000,-164.500
2.441,-2.000,-29.500,1.500,-164.000
2.442,-2.000,-30.500,-0.500,-163.500
2.443,-2.000,-31.500,-2.500,-163.000
2.444,-1.500,-32.500,-5.000,-162.500
2.445,-1.500,-33.500,-5.500,-162.000
2.446,-1.500,-34.000,-4.500,-162.500
2.447,-2.000,-34.000,-2.000,-162.500
2.448,-2.000,-34.000,-0.500,-163.000
2.449,-2.000,-34.000,-1.000,-163.000
2.450,-2.000,-33.500,-3.000,-163.500
2.451,-2.000,-33.000,-5.500,-163.500
2.452,-2.000,-32.500,-7.500,-164.000
2.453,-2.000,-32.000,-9.000,-164.500
2.454,-2.000,-31.500,-9.500,-165.000
2.455,-2.000,-31.000,-10.000,-165.000
2.456,-1.500,-30.000,-10.500,-165.000
2.457,-1.500,-29.500,-11.000,-164.500
2.458,-1.500,-29.500,-11.000,-164.000
2.459,-1.500,-30.000,-11.000,-163.500
2.460,-1.500,-31.000,-10.500,-163.500
2.461,-1.500,-31.500,-8.500,-164.000
2.462,-1.500,-32.000,-5.500,-164.000
2.463,-2.000,-32.500,-2.500,-164.500
2.464,-2.000,-32.500,-0.500,-164.000
2.465,-2.000,-33.000,-0.500,-164.000
2.466,-1.500,-33.500,-2.000,-163.500
2.467,-1.500,-34.000,-3.500,-163.500
2.468,-1.500,-34.500,-4.000,-163.000
2.469,-1.000,-35.000,-4.000,-163.000
2.470,-1.000,-35.500,-3.500,-163.000
2.471,-1.000,-35.500,-3.500,-163.000
2.472,-1.000,-35.500,-4.000,-163.000
2.473,-1.000,-35.000,-5.000,-163.500
2.474,-1.000,-34.500,-6.000,-164.000
2.475,-1.000,-34.000,-6.500,-164.000
2.476,-1.000,-34.000,-6.000,-164.500
2.477,-1.000,-33.500,-5.500,-164.500
2.478,-1.000,-33.500,-5.000,-164.500
2.479,-1.500,-32.500,-5.500,-164.500
2.480,-1.500,-31.500,-7.500,-164.000
2.481,-1.500,-30.000,-10.500,-163.500
2.482,-1.500,-29.500,-13.000,-163.000
2.483,-1.500,-29.500,-15.500,-162.500
2.484,-2.000,-30.500,-18.000,-162.500
2.485,-2.000,-32.000,-20.000,-162.500
2.486,-2.000,-33.000,-21.500,-162.500
2.487,-1.500,-34.000,-21.500,-162.500
2.488,-1.500,-34.000,-21.500,-162.500
2.489,-1.500,-34.500,-20.000,-162.500
2.490,-1.500,-34.000,-18.000,-162.500
2.491,-1.500,-34.000,-16.000,-163.000
2.492,-2.000,-34.000,-14.000,-163.000
2.493,-2.000,-34.000,-12.500,-163.000
2.494,-2.000,-34.000,-11.000,-163.000
2.495,-2.000,-33.500,-10.500,-163.000
2.496,-2.000,-33.500,-9.500,-163.500
2.497,-1.500,-33.500,-9.500,-164.000
2.498,-1.500,-33.500,-10.000,-164.500
2.499,-1.500,-33.500,-10.500,-164.500
2.500,-1.500,-34.000,-10.500,-165.000
2.501,-1.500,-35.000,-10.500,-165.000
2.502,-1.500,-35.500,-10.000,-165.000
2.503,-1.500,-36.000,-10.000,-165.000
2.504,-1.500,-36.500,-10.500,-165.000
2.505,-1.500,-36.000,-11.000,-165.000
2.506,-2.000,-36.000,-10.500,-165.000
2.507,-2.000,-35.500,-9.500,-164.500
2.508,-2.000,-35.500,-8.500,-164.500
2.509,-2.000,-35.000,-8.000,-164.500
2.510,-2.000,-34.000,-7.500,-164.500
2.511,-2.000,-33.500,-6.500,-164.500
2.512,-1.500,-33.000,-6.000,-164.000
2.513,-1.500,-32.500,-6.500,-163.500
2.514,-1.500,-33.000,-8.500,-163.000
2.515,-1.500,-33.500,-10.000,-162.500
2.516,-1.500,-34.000,-11.000,-162.000
2.517,-1.500,-33.500,-11.000,-161.500
2.518,-1.500,-32.500,-9.500,-161.500
2.519,-1.500,-31.500,-8.000,-161.500
2.520,-1.500,-31.000,-7.000,-161.000
2.521,-1.500,-31.000,-8.000,-160.500
2.522,-1.500,-31.500,-9.000,-160.000
2.523,-2.000,-32.000,-10.000,-159.500
2.524,-2.000,-32.000,-11.000,-159.000
2.525,-2.000,-31.500,-12.000,-158.500
2.526,-2.500,-30.500,-13.500,-157.500
2.527,-2.500,-29.500,-15.000,-157.000
2.528,-2.000,-29.500,-15.500,-157.000
2.529,-2.000,-29.500,-14.000,-157.500
2.530,-1.500,-30.000,-11.500,-158.000
2.531,-1.500,-30.000,-9.500,-158.500
2.532,-1.500,-30.000,-9.500,-159.500
2.533,-1.500,-30.000,-11.000,-160.000
2.534,-1.500,-29.500,-13.500,-160.000
2.535,-1.500,-29.000,-15.000,-160.000
2.536,-1.500,-28.500,-15.000,-160.000
2.537,-1.500,-28.500,-13.500,-160.000
2.538,-1.500,-28.500,-11.500,-160.000
2.539,-1.500,-28.500,-10.000,-160.500
2.540,-1.500,-28.500,-9.500,-160.500
2.541,-1.500,-28.500,-9.000,-161.000
2.542,-1.500,-29.000,-8.000,-161.000
2.543,-1.500,-29.000,-7.500,-161.000
2.544,-1.500,-30.000,-6.500,-161.000
2.545,-1.500,-31.000,-6.000,-161.000
2.546,-1.500,-32.000,-6.000,-160.500
2.547,-2.000,-33.000,-6.500,-160.500
2.548,-2.000,-33.500,-7.000,-160.500
2.549,-2.000,-33.500,-7.000,-160.500
2.550,-2.000,-33.000,-6.500,-160.000
2.551,-1.500,-32.500,-6.500,-160.000
2.552,-1.500,-31.500,-7.000,-160.000
2.553,-1.500,-31.000,-7.500,-160.000
2.554,-1.500,-30.500,-7.000,-160.000
2.555,-1.500,-30.000,-6.000,-159.500
2.556,-1.500,-29.500,-5.000,-159.500
2.557,-2.000,-29.000,-5.500,-159.000
2.558,-2.000,-28.500,-7.500,-158.500
2.559,-2.000,-27.500,-10.500,-158.000
2.560,-2.000,-26.500,-13.500,-157.000
2.561,-2.000,-25.500,-14.000,-156.500
2.562,-2.000,-24.500,-13.000,-156.000
2.563,-2.000,-23.000,-11.000,-155.500
2.564,-2.000,-22.500,-8.500,-155.500
2.565,-2.000,-22.000,-7.500,-155.500
2.566,-2.000,-22.500,-7.000,-155.500
2.567,-2.000,-23.000,-7.500,-155.500
2.568,-2.000,-24.000,-8.000,-155.500
2.569,-1.500,-25.000,-8.000,-156.000
2.570,-1.500,-26.000,-7.000,-156.000
2.571,-1.500,-26.000,-7.000,-156.500
2.572,-1.500,-26.000,-8.500,-156.500
2.573,-1.500,-25.500,-11.500,-156.500
2.574,-1.500,-25.000,-13.500,-156.500
2.575,-1.500,-25.000,-15.000,-156.500
2.576,-2.000,-25.000,-15.000,-156.500
2.577,-1.500,-25.500,-14.000,-156.500
2.578,-1.500,-25.000,-13.500,-157.000
2.579,-1.500,-25.000,-13.000,-157.500
2.580,-1.500,-24.500,-13.000,-158.000
2.581,-1.500,-24.000,-14.000,-158.000
2.582,-1.500,-24.000,-14.500,-158.000
2.583,-1.500,-24.000,-15.000,-157.500
2.584,-1.500,-24.000,-15.000,-157.000
2.585,-1.500,-24.000,-14.500,-157.000
2.586,-1.500,-23.500,-14.000,-156.500
2.587,-1.500,-22.500,-13.500,-156.000
2.588,-1.500,-22.000,-13.500,-155.500
2.589,-1.500,-22.000,-14.000,-155.500
2.590,-1.500,-22.500,-15.000,-155.000
2.591,-1.500,-23.000,-16.500,-155.000
2.592,-2.000,-23.000,-17.000,-154.500
2.593,-2.000,-23.000,-17.000,-154.500
2.594,-2.000,-23.000,-16.000,-154.000
2.595,-2.000,-23.000,-15.000,-154.000
2.596,-2.000,-23.500,-15.000,-153.500
2.597,-2.000,-24.000,-16.000,-153.000
2.598,-2.000,-24.500,-17.500,-152.500
2.599,-1.500,-24.500,-19.500,-152.500
2.600,-1.500,-24.500,-22.000,-152.500
2.601,-1.500,-23.500,-23.500,-152.500
2.602,-1.500,-23.000,-23.500,-152.500
2.603,-1.500,-22.000,-23.500,-152.500
2.604,-1.500,-21.500,-23.500,-152.000
2.605,-1.500,-21.000,-24.000,-151.500
2.606,-1.500,-21.000,-24.500,-151.500
2.607,-1.500,-20.500,-25.000,-151.500
2.608,-1.500,-20.500,-24.000,-151.500
2.609,-1.500,-20.000,-22.000,-151.500
2.610,-1.500,-20.000,-20.000,-152.000
2.611,-1.500,-20.000,-18.500,-152.000
2.612,-1.500,-19.500,-17.000,-152.500
2.613,-1.500,-18.500,-15.500,-152.500
2.614,-1.500,-17.500,-14.000,-153.000
2.615,-1.500,-16.500,-12.500,-153.000
2.616,-1.500,-16.000,-11.000,-153.000
2.617,-1.500,-16.500,-10.500,-153.000
2.618,-1.500,-17.500,-10.000,-153.500
2.619,-1.500,-19.000,-10.500,-153.500
2.620,-1.500,-20.500,-11.000,-154.000
2.621,-1.500,-22.000,-12.000,-154.000
2.622,-1.500,-23.500,-13.500,-154.000
2.623,-1.500,-24.500,-15.500,-154.000
2.624,-1.500,-25.500,-17.500,-154.000
2.625,-1.500,-26.000,-20.000,-154.000
2.626,-1.500,-25.500,-21.500,-154.000
2.627,-1.500,-25.000,-22.500,-154.000
2.628,-1.500,-24.500,-23.500,-153.500
2.629,-1.500,-24.000,-24.000,-153.000
2.630,-1.500,-23.500,-23.500,-152.500
2.631,-1.500,-23.000,-22.500,-152.000
2.632,-1.500,-22.500,-21.000,-151.000
2.633,-2.000,-22.000,-19.500,-150.500
2.634,-2.000,-21.500,-18.000,-150.000
2.635,-2.000,-21.000,-17.500,-149.500
2.636,-2.500,-20.000,-18.000,-149.000
2.637,-2.500,-18.500,-19.500,-148.500
2.638,-2.500,-17.500,-21.000,-147.500
2.639,-2.500,-16.500,-21.500,-147.500
2.640,-2.500,-16.000,-21.000,-147.500
2.641,-2.000,-16.000,-20.000,-148.000
2.642,-2.000,-16.500,-20.000,-149.000
2.643,-2.000,-17.000,-20.000,-150.000
2.644,-2.000,-17.500,-20.000,-151.000
2.645,-2.000,-18.500,-20.000,-152.000
2.646,-2.000,-20.000,-19.500,-153.500
2.647,-2.000,-21.000,-18.500,-155.000
2.648,-2.000,-22.000,-18.000,-157.000
2.649,-2.000,-23.000,-18.000,-159.000
2.650,-1.500,-24.500,-17.000,-161.000
2.651,-1.500,-26.000,-16.000,-162.500
2.652,-1.500,-28.000,-15.000,-164.000
2.653,-1.500,-29.500,-14.000,-164.000
2.654,-1.500,-29.500,-12.500,-163.500
2.655,-1.500,-29.000,-10.500,-162.000
2.656,-1.500,-28.000,-8.000,-159.500
2.657,-1.500,-26.000,-7.000,-157.000
2.658,-1.500,-24.000,-7.000,-154.500
2.659,-1.500,-22.000,-7.000,-152.000
2.660,-1.500,-20.000,-6.500,-150.000
2.661,-1.500,-18.500,-6.000,-148.000
2.662,-1.500,-18.000,-5.500,-147.000
2.663,-1.500,-17.500,-6.000,-146.500
2.664,-1.000,-18.000,-6.000,-146.500
2.665,-1.500,-18.000,-6.500,-147.000
2.666,-1.500,-17.500,-7.000,-147.500
2.667,-1.500,-17.000,-7.000,-148.000
2.668,-1.500,-17.000,-7.000,-149.000
2.669,-1.500,-17.000,-7.000,-149.500
2.670,-1.500,-17.000,-8.000,-149.500
2.671,-1.500,-16.500,-9.500,-149.500
2.672,-2.000,-16.000,-11.000,-149.500
2.673,-2.000,-15.500,-12.000,-149.000
2.674,-2.000,-15.000,-12.000,-148.500
2.675,-2.000,-14.500,-11.000,-148.500
2.676,-2.000,-14.500,-10.000,-148.000
2.677,-2.000,-15.500,-8.500,-148.000
2.678,-2.000,-16.500,-8.000,-148.000
2.679,-2.000,-18.000,-7.500,-148.500
2.680,-2.000,-19.000,-7.000,-148.500
2.681,-1.500,-19.500,-7.500,-148.500
2.682,-1.500,-19.500,-8.500,-148.500
2.683,-1.500,-19.000,-9.500,-148.500
2.684,-1.500,-18.500,-10.500,-148.000
2.685,-1.500,-17.500,-10.500,-147.500
2.686,-2.000,-16.500,-10.000,-147.500
2.687,-2.000,-16.000,-10.500,-147.000
2.688,-2.000,-15.500,-11.500,-146.500
2.689,-2.000,-16.000,-12.000,-146.500
2.690,-1.500,-16.500,-12.000,-146.500
2.691,-1.500,-17.500,-10.500,-146.500
2.692,-1.500,-18.000,-9.000,-147.000
2.693,-1.500,-18.000,-7.000,-147.000
2.694,-1.500,-17.500,-6.000,-147.500
2.695,-1.500,-17.000,-6.500,-147.500
2.696,-1.500,-16.500,-7.500,-148.000
2.697,-1.500,-16.000,-9.000,-148.500
2.698,-1.500,-15.500,-10.000,-149.000
2.699,-1.500,-15.000,-9.500,-149.000
2.700,-1.500,-15.500,-8.000,-149.000
2.701,-1.500,-16.500,-6.500,-149.000
2.702,-1.500,-17.500,-6.000,-149.000
2.703,-1.500,-18.000,-7.000,-148.500
2.704,-1.500,-18.000,-9.000,-148.500
2.705,-1.500,-17.500,-11.000,-148.500
2.706,-1.500,-17.000,-12.500,-148.500
2.707,-1.500,-16.500,-13.500,-148.000
2.708,-1.500,-16.000,-14.000,-148.000
2.709,-1.500,-15.000,-14.500,-147.500
2.710,-1.500,-14.500,-14.500,-147.000
2.711,-1.500,-14.000,-14.000,-146.500
2.712,-1.500,-14.500,-13.000,-146.000
2.713,-2.000,-14.500,-11.500,-145.500
2.714,-2.000,-14.500,-9.500,-145.000
2.715,-2.000,-14.500,-8.500,-145.000
2.716,-2.000,-14.000,-8.500,-145.000
2.717,-2.000,-14.000,-9.500,-145.000
2.718,-2.000,-14.000,-10.500,-145.000
2.719,-1.500,-14.500,-11.500,-145.000
2.720,-2.000,-14.500,-11.500,-145.000
2.721,-2.000,-14.000,-11.000,-145.000
2.722,-2.000,-13.500,-10.000,-145.000
2.723,-2.000,-12.000,-9.500,-145.000
2.724,-2.000,-11.000,-10.000,-145.000
2.725,-2.000,-11.000,-10.500,-145.000
2.726,-2.000,-11.500,-11.000,-145.000
2.727,-2.000,-13.000,-10.500,-145.500
2.728,-2.000,-15.000,-10.000,-146.000
2.729,-1.500,-16.000,-10.000,-146.000
2.730,-1.500,-16.500,-10.500,-146.000
2.731,-1.500,-16.500,-11.500,-145.500
2.732,-1.500,-15.500,-12.500,-145.500
2.733,-1.500,-15.000,-12.500,-145.000
2.734,-1.500,-15.000,-11.500,-145.000
2.735,-1.500,-15.000,-11.000,-145.500
2.736,-1.500,-15.000,-11.000,-146.000
2.737,-1.500,-15.000,-11.000,-146.500
2.738,-1.500,-15.000,-11.000,-146.500
2.739,-1.500,-15.000,-11.000,-146.500
2.740,-1.500,-15.500,-11.500,-146.500
2.741,-1.500,-15.500,-11.500,-146.000
2.742,-1.500,-15.500,-11.500,-146.000
2.743,-1.500,-15.000,-11.500,-145.500
2.744,-1.500,-14.000,-11.500,-145.500
2.745,-1.500,-14.000,-11.000,-145.000
2.746,-1.500,-14.000,-10.500,-145.000
2.747,-2.000,-14.500,-11.500,-145.500
2.748,-2.000,-14.500,-13.000,-145.500
2.749,-2.000,-14.500,-15.000,-145.500
2.750,-2.000,-14.500,-16.500,-145.500
2.751,-2.000,-14.000,-16.500,-145.500
2.752,-1.500,-13.500,-17.000,-145.500
2.753,-1.500,-13.000,-18.000,-145.000
2.754,-1.500,-12.500,-20.000,-145.000
2.755,-1.500,-12.000,-22.500,-144.500
2.756,-2.000,-11.500,-24.000,-144.500
2.757,-2.000,-11.500,-25.000,-144.000
2.758,-2.000,-11.500,-24.500,-144.000
2.759,-2.000,-11.500,-23.500,-144.500
2.760,-2.000,-12.000,-22.000,-144.500
2.761,-2.000,-12.000,-20.000,-145.000
2.762,-2.000,-12.500,-18.000,-145.000
2.763,-2.000,-12.000,-17.000,-144.500
2.764,-1.500,-11.000,-16.500,-144.000
2.765,-1.500,-10.000,-17.000,-144.000
2.766,-1.500,-9.500,-17.000,-143.500
2.767,-1.500,-9.500,-16.500,-143.500
2.768,-1.000,-10.500,-15.500,-144.000
2.769,-1.000,-12.000,-13.500,-144.000
2.770,-1.000,-14.000,-10.500,-144.500
2.771,-1.000,-15.500,-7.500,-145.500
2.772,-1.500,-16.500,-4.500,-145.500
2.773,-1.500,-17.000,-3.500,-146.000
2.774,-1.500,-16.500,-3.500,-146.000
2.775,-1.500,-16.000,-4.000,-146.000
2.776,-1.500,-15.000,-4.000,-146.000
2.777,-1.500,-14.500,-3.500,-146.000
2.778,-1.500,-13.500,-2.500,-146.000
2.779,-1.500,-12.500,-2.500,-146.000
2.780,-1.500,-12.000,-3.000,-146.000
2.781,-1.500,-11.500,-4.500,-146.000
2.782,-1.500,-11.500,-6.000,-145.500
2.783,-1.500,-12.000,-6.500,-145.500
2.784,-1.500,-12.000,-6.500,-145.000
2.785,-1.500,-12.000,-7.000,-144.500
2.786,-1.500,-12.000,-8.000,-144.500
2.787,-1.500,-11.500,-10.000,-144.500
2.788,-1.500,-11.000,-12.000,-144.500
2.789,-1.500,-10.500,-13.500,-144.500
2.790,-1.500,-10.500,-14.000,-144.000
2.791,-2.000,-10.500,-13.000,-143.500
2.792,-2.000,-10.500,-12.000,-143.000
2.793,-2.000,-11.000,-11.000,-142.500
2.794,-2.000,-11.000,-11.000,-142.500
2.795,-2.000,-10.500,-12.000,-142.000
2.796,-2.000,-10.000,-13.500,-142.000
2.797,-2.000,-9.000,-14.500,-142.000
2.798,-2.000,-8.500,-15.000,-142.000
2.799,-1.500,-9.000,-15.000,-142.000
2.800,-1.500,-9.500,-15.000,-142.500
2.801,-1.500,-10.500,-15.000,-142.500
2.802,-2.000,-11.500,-14.000,-143.000
2.803,-2.000,-11.500,-13.000,-143.000
2.804,-2.000,-11.000,-11.500,-143.000
2.805,-2.000,-11.000,-10.000,-143.000
2.806,-2.000,-10.500,-8.500,-143.000
2.807,-2.000,-9.500,-7.500,-143.000
2.808,-2.000,-8.500,-7.000,-143.000
2.809,-2.000,-7.500,-7.500,-143.000
2.810,-1.500,-7.000,-8.500,-143.500
2.811,-1.500,-6.500,-8.500,-143.500
2.812,-1.000,-7.000,-8.500,-144.000
2.813,-1.000,-8.000,-7.500,-144.500
2.814,-1.000,-9.000,-7.000,-144.500
2.815,-1.000,-9.500,-6.500,-144.500
2.816,-1.500,-9.500,-6.000,-144.000
2.817,-1.500,-9.000,-5.000,-143.500
2.818,-1.500,-8.500,-3.500,-143.000
2.819,-1.000,-8.500,-1.000,-142.500
2.820,-1.000,-9.000,2.000,-142.000
2.821,-1.000,-9.500,5.000,-142.000
2.822,-1.500,-10.500,6.500,-141.500
2.823,-1.500,-11.000,6.000,-141.500
2.824,-1.500,-11.000,4.500,-141.500
2.825,-1.500,-10.500,2.500,-141.500
2.826,-1.500,-10.000,1.000,-141.500
2.827,-1.500,-9.500,-0.500,-142.000
2.828,-1.500,-8.500,-2.000,-142.000
2.829,-1.500,-8.500,-3.000,-142.000
2.830,-1.500,-8.000,-4.500,-142.000
2.831,-1.500,-8.000,-6.500,-142.000
2.832,-1.500,-7.500,-8.500,-141.500
2.833,-1.500,-7.500,-9.500,-141.500
2.834,-1.500,-7.000,-10.000,-141.000
2.835,-1.500,-7.000,-9.500,-141.000
2.836,-2.000,-7.000,-8.500,-141.000
2.837,-1.500,-7.000,-9.000,-141.000
2.838,-1.500,-7.000,-10.500,-141.500
2.839,-1.500,-6.500,-12.000,-141.500
2.840,-1.500,-6.000,-12.500,-141.500
2.841,-1.500,-6.000,-12.000,-141.500
2.842,-1.500,-5.500,-11.500,-141.500
2.843,-1.500,-5.000,-11.500,-141.500
2.844,-2.000,-5.000,-12.000,-141.000
2.845,-2.000,-4.500,-13.000,-140.000
2.846,-2.000,-4.000,-14.500,-139.500
2.847,-2.000,-3.500,-15.000,-139.500
2.848,-2.000,-4.000,-15.500,-139.000
2.849,-2.000,-4.500,-15.500,-138.500
2.850,-2.500,-6.000,-15.500,-138.500
2.851,-2.500,-7.000,-15.500,-139.000
2.852,-2.500,-7.500,-15.500,-139.000
2.853,-2.500,-7.500,-15.500,-139.000
2.854,-2.500,-7.000,-15.000,-139.000
2.855,-2.500,-7.000,-14.500,-139.000
2.856,-2.500,-7.000,-13.500,-138.500
2.857,-2.000,-6.500,-12.500,-139.000
2.858,-2.000,-6.500,-11.500,-139.000
2.859,-2.000,-6.000,-11.000,-139.000
2.860,-2.000,-5.500,-11.500,-139.000
2.861,-2.000,-5.000,-12.000,-139.500
2.862,-2.000,-5.000,-12.000,-139.500
2.863,-2.000,-4.500,-11.000,-139.500
2.864,-2.000,-5.000,-9.500,-139.500
2.865,-2.000,-5.500,-8.000,-140.000
2.866,-1.500,-6.500,-7.000,-140.000
2.867,-1.500,-7.000,-5.500,-140.000
2.868,-1.500,-7.500,-4.500,-140.000
2.869,-1.500,-8.000,-3.500,-140.000
2.870,-1.500,-7.500,-3.000,-139.500
2.871,-1.500,-7.000,-4.000,-139.500
2.872,-1.500,-6.500,-5.500,-139.000
2.873,-1.500,-5.500,-8.000,-139.000
2.874,-1.500,-5.000,-10.000,-139.000
2.875,-1.500,-4.000,-11.000,-139.000
2.876,-1.500,-3.500,-11.000,-139.000
2.877,-1.500,-3.000,-9.500,-139.000
2.878,-1.500,-3.000,-8.000,-139.500
2.879,-1.500,-3.500,-7.000,-139.500
2.880,-1.000,-4.000,-6.500,-139.500
2.881,-1.000,-4.500,-6.500,-139.500
2.882,-1.000,-4.500,-7.000,-139.000
2.883,-1.000,-5.000,-8.000,-138.500
2.884,-1.000,-5.000,-9.500,-138.500
2.885,-1.000,-5.000,-10.500,-138.000
2.886,-1.500,-4.500,-10.000,-137.500
2.887,-1.500,-4.000,-9.000,-137.000
2.888,-2.000,-4.500,-7.500,-137.000
2.889,-2.000,-5.500,-7.000,-137.000
2.890,-2.000,-6.500,-7.500,-137.000
2.891,-2.000,-7.500,-9.000,-137.000
2.892,-1.500,-8.000,-10.500,-137.000
2.893,-1.500,-8.000,-12.500,-137.000
2.894,-1.500,-7.500,-14.000,-137.000
2.895,-1.500,-7.000,-16.000,-137.000
2.896,-1.500,-6.500,-17.500,-137.000
2.897,-1.500,-5.500,-18.000,-137.000
2.898,-1.500,-4.500,-18.000,-136.500
2.899,-1.500,-4.000,-16.500,-136.500
2.900,-1.500,-3.000,-14.000,-136.500
2.901,-1.500,-3.000,-10.000,-136.500
2.902,-1.500,-3.500,-6.500,-136.500
2.903,-1.500,-4.500,-3.500,-137.000
2.904,-1.500,-4.500,-1.500,-137.000
2.905,-1.500,-4.500,-1.500,-136.500
2.906,-1.500,-4.000,-2.000,-136.000
2.907,-1.500,-3.000,-2.500,-135.500
2.908,-1.500,-3.000,-2.500,-135.500
2.909,-2.000,-2.500,-3.000,-135.000
2.910,-2.000,-2.500,-4.500,-135.000
2.911,-2.000,-2.000,-6.500,-135.000
2.912,-2.000,-2.000,-8.500,-135.000
2.913,-2.000,-2.000,-11.000,-135.000
2.914,-1.500,-1.500,-12.000,-135.000
2.915,-1.500,-1.500,-11.500,-135.000
2.916,-1.500,-1.500,-10.000,-135.000
2.917,-1.500,-1.500,-8.500,-135.000
2.918,-1.500,-1.500,-7.500,-134.500
2.919,-1.500,-1.500,-7.000,-134.500
2.920,-1.500,-1.500,-7.000,-134.000
2.921,-2.000,-1.000,-6.500,-133.500
2.922,-2.000,-0.500,-6.000,-133.500
2.923,-1.500,0.500,-5.500,-134.000
2.924,-1.500,1.500,-5.000,-134.000
2.925,-1.500,2.500,-4.500,-134.000
2.926,-1.500,3.000,-4.500,-133.500
2.927,-1.500,3.000,-4.500,-133.000
2.928,-1.500,2.000,-5.500,-133.000
2.929,-2.000,0.000,-6.500,-132.500
2.930,-2.000,-1.500,-8.000,-132.500
2.931,-2.000,-2.500,-9.000,-132.500
2.932,-2.000,-3.000,-9.500,-132.500
2.933,-2.000,-3.000,-9.000,-132.500
2.934,-2.000,-2.500,-8.000,-133.000
2.935,-2.000,-2.000,-6.500,-133.000
2.936,-1.500,-2.000,-4.000,-133.000
2.937,-1.500,-2.000,-1.500,-133.500
2.938,-1.500,-2.000,1.000,-133.500
2.939,-1.500,-1.500,1.500,-134.000
2.940,-1.000,-1.000,0.500,-134.500
2.941,-1.000,-0.500,-1.500,-134.500
2.942,-1.000,0.000,-3.000,-134.500
2.943,-1.000,0.500,-4.500,-134.000
2.944,-1.000,1.000,-5.000,-133.500
2.945,-1.000,1.000,-6.000,-133.000
2.946,-1.000,1.500,-6.500,-132.500
2.947,-1.000,1.500,-7.500,-132.500
2.948,-1.500,1.500,-8.500,-132.500
2.949,-1.500,1.500,-9.000,-132.500
2.950,-1.500,1.500,-9.000,-132.500
2.951,-1.500,1.000,-9.000,-132.500
2.952,-1.000,1.000,-8.000,-132.500
2.953,-1.000,0.500,-6.500,-132.500
2.954,-1.000,0.500,-5.000,-132.000
2.955,-1.000,1.000,-3.500,-131.500
2.956,-1.500,1.500,-3.000,-131.500
2.957,-1.500,2.500,-3.000,-131.000
2.958,-1.500,3.500,-3.000,-130.500
2.959,-2.000,4.000,-2.000,-130.500
2.960,-2.000,4.500,0.000,-130.500
2.961,-2.000,4.500,2.000,-130.500
2.962,-2.000,4.500,3.000,-130.500
2.963,-1.500,4.500,4.000,-130.500
2.964,-1.500,4.500,3.500,-130.000
2.965,-1.500,4.500,1.500,-130.000
2.966,-1.500,4.500,-0.500,-129.500
2.967,-1.500,4.500,-1.500,-129.000
2.968,-1.500,4.000,-2.000,-129.000
2.969,-1.500,4.500,-2.500,-128.500
2.970,-1.500,5.000,-2.500,-128.500
2.971,-1.500,6.000,-2.500,-128.500
2.972,-1.500,7.000,-2.000,-128.000
2.973,-1.500,8.000,-1.500,-127.500
2.974,-1.500,8.500,-1.500,-127.500
2.975,-1.500,8.500,-2.500,-127.500
2.976,-1.500,8.000,-3.000,-127.500
2.977,-1.500,7.500,-4.000,-128.000
2.978,-1.500,6.500,-5.000,-128.000
2.979,-1.500,6.000,-5.500,-128.500
2.980,-1.500,5.000,-5.500,-128.500
2.981,-1.500,4.500,-6.000,-128.000
2.982,-1.500,4.500,-7.000,-127.500
2.983,-1.500,5.500,-8.500,-126.500
2.984,-1.500,6.000,-11.000,-125.500
2.985,-2.000,7.500,-12.000,-125.000
2.986,-2.000,8.500,-12.500,-124.500
2.987,-2.000,10.000,-12.000,-124.000
2.988,-2.000,11.000,-11.500,-124.000
2.989,-1.500,12.000,-12.000,-124.000
2.990,-1.500,12.500,-13.500,-124.000
2.991,-1.500,13.500,-15.500,-124.000
2.992,-1.500,13.500,-17.000,-123.500
2.993,-1.500,12.500,-17.500,-123.500
2.994,-1.500,11.000,-17.000,-123.500
2.995,-1.500,9.500,-16.000,-124.000
2.996,-1.500,8.500,-15.000,-124.500
2.997,-2.000,8.500,-13.000,-125.000
2.998,-2.000,9.000,-11.000,-125.000
2.999,-2.000,10.000,-9.500,-125.000
3.000,-2.000,10.500,-9.500,-125.000
3.001,-2.000,11.000,-10.000,-125.000
3.002,-2.000,11.000,-11.000,-125.000
3.003,-2.000,10.500,-11.500,-125.500
3.004,-2.000,9.500,-13.000,-126.000
3.005,-2.000,8.500,-14.500,-126.000
3.006,-2.000,7.500,-15.500,-126.500
3.007,-2.000,7.000,-15.000,-127.000
3.008,-2.000,6.500,-13.000,-127.500
3.009,-2.000,6.000,-10.000,-128.000
3.010,-2.000,5.500,-7.500,-128.500
3.011,-2.000,5.000,-6.500,-129.000
3.012,-2.000,5.000,-7.500,-129.000
3.013,-2.000,5.000,-9.500,-129.500
3.014,-2.000,4.500,-10.500,-130.000
3.015,-2.000,3.500,-10.500,-131.000
3.016,-1.500,2.500,-10.000,-132.000
3.017,-1.500,1.000,-10.000,-132.000
3.018,-1.500,-0.500,-10.000,-132.000
3.019,-1.500,-1.500,-10.000,-132.000
3.020,-1.500,-2.500,-10.500,-132.000
3.021,-1.500,-3.000,-11.500,-132.000
3.022,-1.500,-3.500,-12.000,-132.500
3.023,-1.500,-4.500,-12.000,-133.500
3.024,-1.500,-5.500,-11.000,-134.500
3.025,-1.500,-6.500,-9.500,-135.500
3.026,-2.000,-8.000,-8.000,-136.000
3.027,-2.000,-9.000,-7.000,-136.500
3.028,-2.000,-11.000,-5.500,-137.000
3.029,-2.000,-13.000,-4.500,-138.000
3.030,-1.500,-15.500,-3.500,-138.500
3.031,-1.500,-17.000,-3.000,-139.500
3.032,-1.500,-18.000,-2.500,-140.000
3.033,-1.500,-18.500,-2.000,-140.000
3.034,-1.500,-17.500,-1.000,-139.500
3.035,-1.500,-16.000,0.500,-138.000
3.036,-1.500,-14.000,1.500,-135.500
3.037,-2.000,-10.500,2.500,-132.500
3.038,-2.000,-7.000,2.000,-129.000
3.039,-2.000,-2.500,1.500,-124.500
3.040,-2.000,2.000,1.000,-120.500
3.041,-2.000,6.500,0.500,-116.500
3.042,-2.000,10.500,0.000,-113.000
3.043,-2.000,14.000,-1.500,-110.000
3.044,-2.000,17.000,-2.500,-108.000
3.045,-2.000,19.500,-3.000,-106.500
3.046,-2.000,21.500,-2.500,-105.500
3.047,-2.000,23.000,0.000,-105.000
3.048,-2.000,24.000,2.500,-105.500
3.049,-1.500,24.500,4.500,-106.000
3.050,-1.500,25.000,5.500,-107.000
3.051,-1.500,25.000,6.500,-108.000
3.052,-1.500,25.000,7.000,-109.000
3.053,-1.500,25.000,8.500,-109.500
3.054,-1.500,25.000,9.500,-110.000
3.055,-1.500,25.500,10.000,-110.500
3.056,-1.500,25.500,9.500,-110.500
3.057,-1.500,25.500,9.000,-110.500
3.058,-2.000,25.000,8.500,-111.000
3.059,-2.000,23.500,7.000,-111.500
3.060,-2.000,22.000,5.000,-112.500
3.061,-2.000,20.500,3.000,-113.000
3.062,-2.000,19.000,1.500,-114.000
3.063,-2.000,18.000,0.500,-115.000
3.064,-1.500,16.500,1.000,-115.500
3.065,-1.500,15.500,1.500,-116.000
3.066,-1.500,15.000,2.000,-116.500
3.067,-1.500,14.500,1.500,-116.500
3.068,-2.000,14.500,0.000,-116.500
3.069,-2.000,15.000,-2.000,-117.000
3.070,-2.000,16.000,-4.000,-117.000
3.071,-2.000,16.500,-5.000,-117.000
3.072,-2.000,17.500,-5.500,-117.500
3.073,-2.000,18.000,-5.000,-117.500
3.074,-2.000,17.500,-3.500,-117.500
3.075,-2.000,16.500,-1.000,-118.000
3.076,-2.000,15.500,1.500,-119.000
3.077,-2.000,15.000,3.500,-119.500
3.078,-2.000,14.500,5.500,-120.000
3.079,-1.500,15.000,7.500,-120.500
3.080,-1.500,15.500,9.000,-121.000
3.081,-1.500,16.500,9.500,-121.000
3.082,-1.500,17.000,10.000,-121.000
3.083,-1.500,17.500,9.500,-121.000
3.084,-1.500,17.500,9.000,-121.000
3.085,-1.500,17.500,8.000,-121.000
3.086,-1.500,17.500,8.000,-120.500
3.087,-1.500,18.500,8.500,-120.000
3.088,-1.500,19.500,9.500,-119.500
3.089,-1.500,21.000,10.500,-119.500
3.090,-1.500,21.500,10.500,-119.000
3.091,-1.500,20.000,10.000,-119.000
3.092,-1.500,17.500,10.000,-118.500
3.093,-1.500,14.500,10.500,-119.000
3.094,-1.500,11.500,12.000,-119.000
3.095,-1.500,10.000,13.500,-119.500
3.096,-1.500,10.000,14.500,-120.000
3.097,-1.500,10.500,16.000,-120.000
3.098,-1.500,12.000,18.000,-120.000
3.099,-1.500,13.000,19.500,-120.000
3.100,-1.500,14.500,20.500,-120.000
3.101,-1.500,15.000,20.000,-119.500
3.102,-1.500,15.500,18.500,-119.000
3.103,-2.000,16.000,16.000,-118.500
3.104,-2.000,16.500,13.500,-118.000
3.105,-2.000,16.500,11.500,-117.500
3.106,-2.000,16.000,10.000,-117.500
3.107,-1.500,15.500,9.000,-117.500
3.108,-1.500,15.000,8.000,-117.500
3.109,-1.000,14.500,7.500,-117.500
3.110,-1.000,14.500,6.500,-118.000
3.111,-1.000,14.500,5.500,-118.000
3.112,-1.500,15.000,5.000,-118.500
3.113,-1.500,15.500,4.500,-118.500
3.114,-1.500,16.000,4.500,-118.500
3.115,-1.500,16.500,5.500,-119.000
3.116,-1.500,16.500,7.500,-119.000
3.117,-1.500,16.500,10.500,-119.000
3.118,-1.500,16.000,13.500,-119.000
3.119,-1.500,16.000,15.500,-119.000
3.120,-1.500,15.500,16.000,-119.000
3.121,-1.500,15.500,14.500,-119.000
3.122,-2.000,15.000,12.000,-119.500
3.123,-2.000,14.500,9.000,-119.000
3.124,-1.500,14.500,7.000,-119.000
3.125,-1.500,14.500,5.500,-118.500
3.126,-1.500,15.000,5.000,-118.500
3.127,-1.500,15.500,5.000,-117.500
3.128,-1.500,16.000,5.000,-117.000
3.129,-1.500,16.500,5.500,-116.500
3.130,-1.500,16.500,7.000,-116.500
3.131,-1.500,17.000,8.500,-116.000
3.132,-1.500,17.500,10.000,-116.000
3.133,-1.500,18.000,10.000,-116.000
3.134,-1.500,18.500,9.000,-115.500
3.135,-1.500,19.000,8.000,-115.500
3.136,-2.000,19.500,8.000,-115.500
3.137,-2.000,19.000,8.500,-115.500
3.138,-2.000,19.000,8.500,-115.500
3.139,-2.000,18.000,8.000,-116.000
3.140,-2.000,18.000,7.000,-116.000
3.141,-2.000,17.500,5.500,-116.000
3.142,-2.000,18.000,5.000,-116.500
3.143,-2.000,18.500,5.500,-116.500
3.144,-2.000,19.000,7.000,-116.500
3.145,-2.000,19.000,9.000,-116.500
3.146,-2.000,19.000,10.500,-116.500
3.147,-2.000,18.500,11.000,-116.500
3.148,-2.000,17.500,11.500,-116.500
3.149,-2.000,17.000,11.500,-116.500
3.150,-2.000,16.500,11.500,-116.000
3.151,-2.000,16.500,11.000,-116.000
3.152,-2.000,17.000,10.000,-116.000
3.153,-2.000,17.500,8.500,-116.000
3.154,-2.000,18.000,7.000,-116.000
3.155,-2.000,18.000,5.500,-116.000
3.156,-2.000,17.000,5.000,-116.500
3.157,-2.000,16.500,5.500,-116.500
3.158,-2.000,16.000,7.000,-116.500
3.159,-2.000,15.500,8.500,-116.000
3.160,-1.500,15.500,10.000,-116.000
3.161,-1.500,16.000,12.000,-115.500
3.162,-1.500,16.000,13.000,-115.500
3.163,-1.500,16.500,13.000,-115.500
3.164,-1.500,17.000,11.500,-115.500
3.165,-1.500,18.000,8.500,-115.500
3.166,-2.000,19.000,4.500,-115.000
3.167,-2.000,19.500,0.500,-115.000
3.168,-2.000,20.000,-2.500,-114.500
3.169,-2.500,19.500,-3.000,-114.500
3.170,-2.500,19.500,-2.500,-114.000
3.171,-2.500,19.000,-2.000,-113.500
3.172,-2.500,18.500,-1.000,-113.500
3.173,-2.500,18.000,1.000,-113.500
3.174,-2.500,17.500,3.000,-113.500
3.175,-2.500,17.500,3.500,-114.000
3.176,-2.000,18.000,4.000,-114.000
3.177,-2.000,18.500,4.500,-114.500
3.178,-2.000,19.000,4.500,-115.000
3.179,-1.500,19.500,4.000,-115.500
3.180,-1.500,19.500,2.500,-115.500
3.181,-1.500,19.500,1.000,-115.500
3.182,-2.000,19.500,-0.500,-115.500
3.183,-2.000,19.500,-2.000,-115.500
3.184,-2.000,20.000,-3.000,-115.000
3.185,-2.000,20.000,-4.000,-115.000
3.186,-2.000,20.000,-3.500,-115.000
3.187,-2.000,20.000,-3.000,-115.000
3.188,-2.000,19.000,-2.000,-115.000
3.189,-2.000,18.000,-1.000,-115.000
3.190,-2.000,16.500,1.000,-115.000
3.191,-2.000,15.500,2.500,-115.000
3.192,-1.500,14.000,4.500,-115.500
3.193,-1.500,13.500,5.500,-115.500
3.194,-1.500,13.500,6.000,-116.000
3.195,-1.500,13.500,6.000,-116.000
3.196,-1.500,13.500,6.000,-116.000
3.197,-1.500,13.500,6.500,-116.500
3.198,-1.500,13.500,7.000,-116.500
3.199,-1.500,13.500,8.000,-116.000
3.200,-1.500,14.000,8.500,-116.000
3.201,-1.500,14.500,9.000,-115.500
3.202,-1.500,15.000,9.000,-115.000
3.203,-1.500,15.500,10.000,-114.500
3.204,-1.500,16.500,11.000,-114.500
3.205,-1.500,17.000,12.500,-114.000
3.206,-1.500,18.000,13.500,-114.000
3.207,-1.500,18.500,13.500,-114.000
3.208,-1.500,19.000,12.000,-114.000
3.209,-1.500,19.500,10.500,-114.000
3.210,-1.500,20.000,8.500,-113.500
3.211,-1.500,20.500,7.000,-113.500
3.212,-2.000,20.500,5.000,-113.000
3.213,-2.000,20.000,3.500,-113.000
3.214,-2.000,19.000,2.000,-113.000
3.215,-2.000,18.000,1.000,-113.500
3.216,-2.000,16.500,0.000,-114.000
3.217,-2.000,15.500,-0.500,-114.000
3.218,-2.000,15.000,-0.500,-113.500
3.219,-2.000,15.500,0.000,-113.000
3.220,-2.000,16.000,1.000,-112.500
3.221,-2.000,16.500,1.500,-111.500
3.222,-2.000,17.000,1.500,-111.500
3.223,-1.500,16.500,2.500,-112.000
3.224,-1.500,16.000,4.500,-112.500
3.225,-1.500,15.500,7.000,-113.000
3.226,-1.500,15.000,9.000,-113.500
3.227,-1.500,15.000,9.500,-113.500
3.228,-1.500,15.500,9.000,-113.500
3.229,-1.500,16.500,8.000,-113.500
3.230,-1.500,17.000,6.500,-113.000
3.231,-2.000,18.000,5.000,-112.500
3.232,-2.000,18.000,3.500,-111.500
3.233,-2.000,18.000,2.500,-111.000
3.234,-2.000,17.500,2.000,-111.000
3.235,-2.000,17.500,1.500,-111.000
3.236,-2.000,17.500,1.500,-111.000
3.237,-2.000,17.000,1.500,-111.000
3.238,-2.000,17.000,2.000,-111.500
3.239,-2.000,17.000,2.500,-112.000
3.240,-2.000,17.000,3.500,-112.000
3.241,-2.000,17.500,5.000,-112.000
3.242,-2.000,17.500,7.000,-112.000
3.243,-2.000,17.000,8.000,-112.000
3.244,-2.000,17.000,8.000,-111.500
3.245,-1.500,16.500,6.500,-111.000
3.246,-1.500,16.500,5.000,-110.500
3.247,-1.500,17.000,3.000,-110.000
3.248,-1.500,17.500,1.500,-109.500
3.249,-1.500,18.000,1.000,-109.000
3.250,-2.000,18.500,1.500,-109.000
3.251,-2.000,18.000,2.500,-109.500
3.252,-2.000,17.500,3.000,-109.500
3.253,-2.000,16.500,3.500,-110.000
3.254,-2.000,15.500,4.500,-110.500
3.255,-2.000,15.000,6.000,-111.000
3.256,-1.500,14.000,9.000,-111.000
3.257,-1.500,14.000,12.500,-111.500
3.258,-1.500,13.500,16.000,-112.000
3.259,-1.500,13.500,18.500,-112.000
3.260,-1.500,13.000,20.000,-112.500
3.261,-1.500,13.500,20.500,-112.500
3.262,-1.500,13.500,19.500,-112.000
3.263,-1.500,14.000,17.500,-111.500
3.264,-1.500,14.000,15.000,-111.500
3.265,-1.500,14.500,12.500,-111.000
3.266,-1.500,14.500,10.500,-111.000
3.267,-1.500,15.000,10.000,-111.000
3.268,-1.500,15.500,10.000,-111.500
3.269,-1.500,16.000,9.500,-111.500
3.270,-1.500,16.500,9.000,-111.500
3.271,-1.000,17.500,8.500,-111.000
3.272,-1.000,18.000,8.500,-111.000
3.273,-1.000,18.500,9.000,-111.000
3.274,-1.000,19.000,9.000,-110.500
3.275,-1.000,20.000,8.500,-110.500
3.276,-1.500,21.500,7.000,-110.000
3.277,-1.500,22.500,4.500,-109.500
3.278,-1.500,22.500,2.500,-108.500
3.279,-1.500,22.000,1.500,-108.000
3.280,-1.500,20.500,2.000,-108.000
3.281,-1.500,19.000,3.500,-107.500
3.282,-1.500,18.000,4.000,-107.500
3.283,-1.500,17.500,4.000,-107.500
3.284,-1.500,17.500,4.000,-107.500
3.285,-2.000,17.500,4.500,-108.000
3.286,-2.000,17.500,6.000,-108.500
3.287,-2.000,17.500,7.500,-108.500
3.288,-2.000,17.500,9.500,-109.000
3.289,-2.000,17.500,10.500,-109.000
3.290,-1.500,17.500,11.500,-109.000
3.291,-1.500,18.000,11.000,-108.500
3.292,-1.500,18.500,10.500,-108.500
3.293,-1.500,19.000,10.000,-108.000
3.294,-1.500,19.000,10.500,-108.000
3.295,-1.500,19.500,10.500,-108.000
3.296,-1.500,20.500,10.500,-107.500
3.297,-2.000,21.000,9.000,-107.500
3.298,-2.000,21.000,6.500,-107.500
3.299,-2.000,21.000,4.000,-107.000
3.300,-2.000,20.500,2.000,-107.000
3.301,-2.000,20.000,1.000,-107.000
3.302,-2.000,20.000,0.500,-107.000
3.303,-2.000,20.500,1.000,-107.000
3.304,-2.000,21.000,1.500,-107.000
3.305,-2.000,20.500,2.500,-106.500
3.306,-2.000,20.500,3.500,-106.500
3.307,-2.000,20.000,4.000,-106.000
3.308,-1.500,20.000,4.500,-105.500
3.309,-1.500,20.500,5.000,-105.500
3.310,-1.500,21.000,6.500,-105.500
3.311,-1.500,22.000,7.500,-105.500
3.312,-1.500,22.500,7.500,-105.500
3.313,-1.500,23.000,6.500,-105.500
3.314,-1.500,23.500,5.000,-106.000
3.315,-1.500,23.500,4.500,-106.000
3.316,-2.000,23.000,5.500,-107.000
3.317,-2.000,22.000,7.500,-107.500
3.318,-2.000,20.500,9.000,-108.000
3.319,-2.000,20.000,10.000,-108.500
3.320,-2.000,19.500,11.000,-108.000
3.321,-1.500,19.500,11.500,-107.500
3.322,-2.000,20.000,12.000,-107.000
3.323,-2.000,20.500,12.000,-107.000
3.324,-2.000,21.000,12.500,-107.000
3.325,-2.000,21.500,13.000,-107.500
3.326,-2.000,22.000,12.500,-107.500
3.327,-2.000,22.500,11.000,-108.000
3.328,-1.500,23.500,9.000,-108.000
3.329,-1.500,23.500,7.500,-108.500
3.330,-1.500,24.000,6.000,-109.000
3.331,-1.500,23.500,5.000,-109.500
3.332,-1.500,23.500,3.500,-110.000
3.333,-1.500,22.500,1.500,-110.000
3.334,-1.500,22.000,0.000,-109.500
3.335,-1.500,21.500,-0.500,-109.000
3.336,-1.500,21.500,0.000,-108.500
3.337,-1.500,22.000,1.000,-108.000
3.338,-1.500,22.500,1.000,-107.500
3.339,-1.500,23.000,-1.000,-107.500
3.340,-1.500,23.500,-3.500,-107.500
3.341,-1.500,23.500,-6.000,-107.500
3.342,-1.500,23.500,-7.000,-108.000
3.343,-1.500,22.500,-7.500,-108.000
3.344,-1.500,22.000,-7.000,-108.000
3.345,-1.500,21.500,-7.000,-108.000
3.346,-1.500,21.500,-8.000,-107.500
3.347,-1.500,22.000,-9.000,-107.000
3.348,-1.000,22.500,-9.500,-107.000
3.349,-1.000,23.000,-9.000,-106.500
3.350,-1.000,23.500,-7.500,-106.000
3.351,-1.000,23.500,-6.000,-106.000
3.352,-1.500,23.500,-5.000,-105.500
3.353,-1.500,23.500,-4.000,-105.500
3.354,-1.500,23.000,-3.500,-105.500
3.355,-1.500,23.000,-3.500,-105.500
3.356,-2.000,23.000,-5.000,-105.000
3.357,-2.000,23.000,-7.000,-105.000
3.358,-2.000,23.500,-9.000,-105.000
3.359,-2.000,24.500,-10.000,-105.000
3.360,-1.500,25.500,-10.000,-105.000
3.361,-1.500,26.500,-9.500,-105.000
3.362,-2.000,28.000,-9.000,-105.000
3.363,-2.000,29.000,-7.500,-105.000
3.364,-2.000,30.500,-5.000,-105.000
3.365,-2.000,31.000,-2.000,-104.500
3.366,-2.000,31.000,0.500,-104.500
3.367,-2.000,30.000,2.000,-104.000
3.368,-2.000,29.000,2.500,-103.500
3.369,-2.000,27.500,2.500,-103.500
3.370,-2.000,25.500,2.000,-103.500
3.371,-2.000,24.000,1.000,-104.000
3.372,-1.500,23.500,0.000,-104.000
3.373,-1.500,23.000,-0.500,-104.500
3.374,-1.500,23.000,0.000,-105.000
3.375,-1.500,23.000,2.000,-105.000
3.376,-1.500,23.500,3.500,-105.000
3.377,-2.000,24.500,3.500,-105.000
3.378,-2.000,25.000,2.500,-105.000
3.379,-2.000,25.500,0.500,-104.500
3.380,-2.000,25.500,-2.500,-104.500
3.381,-2.000,26.000,-4.000,-104.500
3.382,-1.500,26.500,-4.000,-104.500
3.383,-1.500,26.500,-2.000,-104.500
3.384,-1.500,27.000,0.500,-104.000
3.385,-1.500,27.500,3.500,-104.000
3.386,-1.500,27.500,6.000,-103.500
3.387,-1.500,27.500,8.000,-103.500
3.388,-1.500,27.000,9.000,-103.500
3.389,-1.500,27.000,9.500,-103.500
3.390,-1.500,26.000,9.000,-104.000
3.391,-1.500,25.500,8.000,-104.000
3.392,-1.500,24.500,7.500,-104.500
3.393,-1.500,24.000,8.000,-104.500
3.394,-1.500,23.500,9.000,-105.000
3.395,-1.000,24.000,10.000,-105.000
3.396,-1.000,24.000,10.000,-105.500
3.397,-1.000,24.000,8.500,-105.500
3.398,-1.000,23.500,6.500,-105.500
3.399,-1.000,23.500,4.500,-105.500
3.400,-1.000,24.000,3.500,-105.000
3.401,-1.000,25.000,3.500,-104.500
3.402,-1.500,26.500,3.500,-103.500
3.403,-1.500,27.500,3.500,-103.000
3.404,-2.000,28.000,4.000,-103.000
3.405,-2.000,28.000,4.000,-102.500
3.406,-2.000,27.500,4.000,-102.500
3.407,-2.000,27.000,4.000,-102.500
3.408,-2.000,26.500,3.000,-102.500
3.409,-2.000,26.000,1.000,-103.000
3.410,-2.000,25.500,-1.500,-103.500
3.411,-2.000,25.500,-3.000,-104.000
3.412,-1.500,26.000,-4.000,-105.000
3.413,-1.500,26.000,-4.000,-106.500
3.414,-1.500,25.500,-3.500,-108.000
3.415,-1.500,25.000,-2.500,-110.000
3.416,-1.500,24.000,-1.000,-111.500
3.417,-1.500,22.500,-0.500,-112.000
3.418,-1.500,21.500,0.000,-112.500
3.419,-1.500,21.000,-0.500,-112.000
3.420,-1.500,21.000,-1.000,-110.500
3.421,-1.500,22.000,-1.500,-109.000
3.422,-1.500,23.500,-2.500,-106.500
3.423,-1.500,24.500,-4.000,-104.000
3.424,-1.500,26.000,-5.000,-101.500
3.425,-1.500,27.000,-6.500,-99.500
3.426,-1.500,28.000,-7.000,-98.000
3.427,-2.000,29.500,-7.500,-97.000
3.428,-2.000,30.500,-7.000,-96.000
3.429,-2.000,31.000,-6.000,-95.500
3.430,-2.000,31.000,-5.000,-95.500
3.431,-2.000,30.000,-3.000,-96.500
3.432,-1.500,28.000,-0.500,-97.500
3.433,-1.500,26.500,2.000,-98.500
3.434,-1.500,25.000,3.500,-100.000
3.435,-1.500,24.500,3.500,-100.500
