'Elapsed time','AECG1','AECG2','AECG3','AECG4'
'seconds','uV','uV','uV','uV'
0.000,-118.000,-119.500,-192.500,-116.000
0.001,-114.500,-120.500,-192.000,-114.000
0.002,-111.000,-121.500,-191.500,-112.000
0.003,-108.500,-122.500,-190.500,-109.500
0.004,-106.000,-123.000,-189.500,-107.000
0.005,-105.000,-123.000,-188.500,-104.500
0.006,-105.000,-122.500,-188.000,-102.500
0.007,-106.000,-121.500,-187.000,-101.000
0.008,-108.000,-120.000,-186.500,-100.000
0.009,-111.000,-118.000,-185.500,-99.500
0.010,-114.500,-116.000,-185.000,-100.000
0.011,-118.000,-113.500,-184.500,-101.000
0.012,-120.500,-111.500,-184.500,-102.500
0.013,-122.000,-109.500,-184.500,-104.000
0.014,-123.000,-108.500,-185.000,-105.500
0.015,-122.500,-107.500,-185.500,-107.000
0.016,-122.000,-107.000,-186.000,-108.000
0.017,-120.500,-107.500,-186.500,-109.000
0.018,-118.000,-108.000,-186.500,-108.500
0.019,-115.000,-109.000,-186.500,-108.000
0.020,-112.000,-110.500,-186.500,-106.500
0.021,-109.000,-111.500,-186.000,-104.500
0.022,-106.000,-112.500,-185.500,-102.500
0.023,-103.500,-113.500,-184.500,-100.500
0.024,-102.000,-114.000,-184.000,-98.000
0.025,-101.500,-114.500,-183.000,-96.500
0.026,-101.500,-115.000,-183.000,-95.500
0.027,-102.500,-115.000,-182.500,-95.000
0.028,-104.500,-115.000,-182.500,-95.500
0.029,-106.500,-114.000,-183.000,-95.500
0.030,-109.000,-113.000,-183.000,-96.500
0.031,-112.000,-112.000,-183.500,-98.000
0.032,-114.500,-111.000,-184.000,-99.500
0.033,-116.000,-110.000,-185.000,-101.500
0.034,-117.500,-109.500,-185.500,-103.500
0.035,-117.500,-109.000,-186.500,-105.000
0.036,-116.500,-109.000,-186.500,-106.000
0.037,-114.500,-109.500,-187.000,-107.000
0.038,-111.500,-110.000,-186.500,-106.500
0.039,-107.500,-111.000,-186.000,-105.500
0.040,-103.000,-111.500,-185.500,-104.000
0.041,-98.500,-112.000,-184.500,-101.500
0.042,-94.500,-112.500,-183.500,-99.000
0.043,-91.500,-113.000,-182.000,-96.500
0.044,-89.500,-112.500,-180.500,-94.000
0.045,-88.500,-112.500,-179.000,-92.000
0.046,-89.000,-111.500,-177.500,-90.500
0.047,-90.000,-110.500,-176.500,-90.000
0.048,-92.000,-109.000,-175.500,-90.000
0.049,-94.500,-107.000,-174.500,-90.500
0.050,-97.000,-105.000,-174.500,-91.500
0.051,-100.000,-103.000,-174.000,-93.000
0.052,-103.500,-101.000,-174.000,-95.000
0.053,-106.500,-100.000,-174.500,-97.500
0.054,-109.000,-99.500,-175.000,-99.500
0.055,-110.500,-99.500,-175.500,-101.500
0.056,-111.000,-99.500,-176.000,-103.000
0.057,-110.000,-100.500,-176.500,-104.000
0.058,-107.500,-101.500,-177.000,-104.000
0.059,-104.500,-103.000,-177.500,-103.500
0.060,-101.500,-104.500,-177.500,-102.500
0.061,-98.000,-106.000,-177.500,-101.500
0.062,-95.000,-107.500,-177.500,-100.000
0.063,-93.000,-108.500,-177.000,-98.500
0.064,-91.500,-109.500,-176.000,-96.500
0.065,-90.500,-109.500,-175.500,-95.000
0.066,-90.500,-109.500,-174.500,-93.500
0.067,-91.000,-108.500,-173.500,-92.000
0.068,-93.000,-108.000,-173.000,-91.500
0.069,-96.000,-107.000,-173.000,-91.500
0.070,-99.500,-106.000,-173.000,-92.500
0.071,-103.000,-105.000,-173.500,-94.000
0.072,-106.000,-104.000,-174.000,-95.500
0.073,-108.500,-103.500,-175.000,-97.500
0.074,-109.500,-103.000,-176.000,-99.000
0.075,-110.000,-102.500,-176.500,-100.500
0.076,-108.500,-103.000,-177.000,-101.500
0.077,-106.500,-104.000,-177.500,-102.000
0.078,-103.000,-105.000,-178.000,-102.000
0.079,-99.500,-106.500,-178.000,-101.500
0.080,-95.000,-108.000,-178.000,-100.000
0.081,-91.000,-109.500,-177.500,-98.500
0.082,-87.000,-110.500,-176.500,-96.000
0.083,-84.000,-111.000,-175.500,-94.000
0.084,-81.500,-111.000,-174.500,-91.000
0.085,-80.000,-111.000,-173.500,-89.000
0.086,-78.500,-110.500,-172.500,-87.000
0.087,-78.500,-110.000,-172.000,-85.500
0.088,-78.500,-109.000,-171.500,-84.500
0.089,-79.500,-108.000,-171.500,-84.500
0.090,-81.000,-106.500,-171.500,-85.000
0.091,-82.000,-105.500,-171.500,-86.500
0.092,-83.500,-104.000,-172.000,-88.000
0.093,-85.000,-103.000,-172.500,-90.000
0.094,-86.500,-102.500,-173.000,-92.000
0.095,-87.500,-102.000,-173.500,-94.000
0.096,-87.500,-101.500,-174.000,-95.500
0.097,-87.000,-102.000,-174.500,-96.500
0.098,-86.000,-103.000,-175.000,-97.000
0.099,-84.000,-104.000,-175.000,-97.000
0.100,-82.000,-106.000,-175.500,-96.000
0.101,-80.500,-108.000,-176.000,-95.000
0.102,-79.500,-110.000,-176.000,-93.500
0.103,-79.000,-112.000,-176.000,-92.500
0.104,-79.500,-113.500,-176.000,-91.500
0.105,-80.500,-114.500,-175.500,-90.500
0.106,-82.000,-115.000,-175.000,-89.500
0.107,-84.500,-114.500,-175.000,-89.500
0.108,-87.500,-114.000,-174.500,-89.500
0.109,-90.500,-113.000,-174.500,-90.000
0.110,-94.500,-112.000,-175.000,-91.000
0.111,-98.000,-111.000,-175.500,-92.000
0.112,-101.000,-110.000,-176.000,-94.000
0.113,-103.500,-109.500,-176.500,-95.500
0.114,-105.000,-109.500,-177.500,-97.500
0.115,-105.500,-109.500,-179.000,-99.500
0.116,-105.500,-110.500,-180.500,-100.500
0.117,-105.000,-111.500,-181.500,-101.500
0.118,-103.500,-113.000,-183.000,-101.000
0.119,-102.000,-115.000,-184.000,-100.000
0.120,-99.500,-117.000,-184.500,-98.500
0.121,-97.000,-119.000,-185.000,-95.500
0.122,-95.000,-121.000,-185.000,-92.500
0.123,-93.000,-123.000,-185.000,-88.500
0.124,-91.500,-124.500,-185.500,-85.000
0.125,-91.000,-126.000,-185.500,-81.000
0.126,-91.000,-126.500,-185.500,-78.000
0.127,-92.500,-127.000,-185.500,-75.500
0.128,-94.500,-127.000,-185.500,-73.500
0.129,-97.500,-126.500,-185.500,-72.500
0.130,-101.000,-126.000,-185.500,-72.500
0.131,-104.500,-126.000,-186.000,-72.500
0.132,-108.000,-126.000,-186.500,-72.500
0.133,-110.500,-126.500,-187.500,-72.500
0.134,-112.000,-127.000,-188.500,-72.500
0.135,-112.500,-128.500,-189.500,-72.500
0.136,-112.000,-130.000,-191.000,-71.500
0.137,-110.000,-132.000,-192.000,-70.500
0.138,-107.500,-134.500,-192.500,-68.500
0.139,-104.000,-137.000,-193.000,-65.500
0.140,-100.500,-139.500,-193.500,-62.500
0.141,-96.500,-142.000,-193.500,-59.500
0.142,-93.000,-143.500,-193.000,-57.000
0.143,-90.000,-144.000,-192.500,-55.000
0.144,-88.000,-143.000,-191.000,-54.000
0.145,-87.000,-141.500,-189.500,-54.500
0.146,-87.000,-139.500,-187.500,-56.500
0.147,-89.000,-136.500,-185.500,-59.500
0.148,-92.500,-132.500,-183.500,-64.000
0.149,-97.000,-128.500,-182.000,-70.000
0.150,-103.000,-124.500,-180.500,-77.000
0.151,-108.500,-120.000,-179.000,-84.500
0.152,-113.500,-116.000,-178.000,-92.000
0.153,-118.000,-112.500,-177.500,-98.500
0.154,-120.500,-109.500,-177.000,-103.500
0.155,-122.000,-107.500,-176.500,-108.000
0.156,-122.000,-106.000,-177.000,-111.500
0.157,-121.000,-105.500,-177.000,-114.000
0.158,-119.500,-106.000,-177.500,-115.000
0.159,-117.000,-107.000,-178.000,-115.500
0.160,-114.000,-108.500,-178.000,-115.000
0.161,-111.000,-110.000,-178.500,-113.500
0.162,-108.500,-111.500,-179.000,-112.000
0.163,-106.500,-112.500,-178.500,-110.500
0.164,-104.500,-113.500,-178.500,-108.500
0.165,-103.500,-114.000,-178.000,-106.500
0.166,-103.000,-114.000,-178.000,-105.000
0.167,-103.500,-113.500,-177.500,-103.500
0.168,-104.500,-112.500,-177.000,-103.000
0.169,-106.000,-111.000,-177.000,-102.500
0.170,-108.500,-109.500,-177.000,-103.000
0.171,-111.000,-108.500,-177.500,-103.500
0.172,-114.000,-107.000,-178.000,-104.500
0.173,-117.000,-106.500,-178.500,-106.000
0.174,-119.500,-106.000,-179.500,-107.000
0.175,-121.000,-105.500,-180.000,-108.000
0.176,-121.500,-106.000,-181.000,-108.500
0.177,-120.500,-107.000,-181.500,-109.000
0.178,-118.500,-108.000,-182.000,-108.500
0.179,-116.000,-110.000,-182.500,-108.000
0.180,-113.000,-112.000,-182.500,-106.500
0.181,-110.500,-114.000,-182.500,-104.000
0.182,-108.000,-115.500,-182.000,-102.000
0.183,-105.500,-117.500,-182.000,-99.500
0.184,-104.000,-118.500,-181.500,-97.000
0.185,-103.500,-119.500,-181.000,-94.500
0.186,-104.000,-120.000,-180.500,-92.500
0.187,-105.500,-120.000,-180.000,-91.500
0.188,-108.000,-119.500,-179.500,-90.500
0.189,-111.500,-118.500,-179.500,-91.000
0.190,-115.000,-117.000,-179.000,-92.000
0.191,-118.500,-115.500,-179.500,-94.000
0.192,-121.500,-114.500,-180.000,-96.500
0.193,-124.000,-113.500,-181.000,-99.500
0.194,-126.000,-113.500,-182.000,-102.000
0.195,-127.000,-113.500,-183.500,-104.000
0.196,-127.500,-114.000,-184.500,-105.500
0.197,-127.000,-115.000,-185.500,-106.500
0.198,-125.500,-116.500,-186.000,-106.500
0.199,-123.500,-118.000,-186.500,-105.500
0.200,-120.500,-120.000,-187.000,-104.000
0.201,-116.500,-121.500,-187.000,-102.500
0.202,-113.000,-123.000,-187.000,-100.000
0.203,-109.500,-124.500,-187.000,-97.500
0.204,-106.500,-126.000,-187.000,-95.000
0.205,-104.500,-126.500,-187.000,-93.000
0.206,-102.500,-127.500,-187.000,-91.000
0.207,-102.000,-128.000,-187.500,-90.000
0.208,-102.000,-128.000,-188.000,-89.500
0.209,-103.000,-128.000,-189.000,-89.500
0.210,-104.000,-127.500,-190.000,-90.000
0.211,-106.000,-126.500,-190.500,-91.500
0.212,-108.500,-125.500,-191.000,-93.500
0.213,-111.000,-124.000,-191.500,-95.500
0.214,-113.500,-123.000,-192.000,-98.000
0.215,-115.500,-122.000,-192.000,-100.000
0.216,-116.000,-122.000,-192.500,-101.500
0.217,-115.000,-122.500,-192.500,-102.000
0.218,-113.500,-122.500,-192.500,-102.000
0.219,-110.500,-123.000,-192.000,-101.500
0.220,-107.000,-123.500,-191.000,-100.500
0.221,-103.500,-124.000,-189.500,-99.000
0.222,-100.500,-124.000,-188.000,-96.500
0.223,-97.500,-124.500,-186.500,-94.500
0.224,-95.000,-124.500,-185.500,-92.000
0.225,-93.500,-124.500,-184.500,-90.000
0.226,-93.000,-124.500,-184.000,-89.000
0.227,-94.000,-124.500,-183.500,-88.500
0.228,-95.500,-123.500,-183.500,-88.500
0.229,-98.500,-122.000,-183.000,-89.500
0.230,-101.500,-120.500,-182.500,-90.500
0.231,-105.000,-118.500,-182.500,-92.000
0.232,-109.000,-116.500,-182.500,-94.000
0.233,-112.500,-114.500,-182.500,-96.000
0.234,-115.500,-113.000,-183.000,-98.000
0.235,-117.500,-112.000,-183.500,-100.000
0.236,-119.000,-111.500,-184.000,-102.000
0.237,-119.500,-111.500,-184.500,-103.500
0.238,-119.000,-112.000,-185.000,-105.000
0.239,-117.500,-113.000,-185.500,-105.500
0.240,-115.500,-114.500,-185.500,-105.500
0.241,-113.000,-115.500,-185.500,-105.000
0.242,-110.500,-117.000,-185.000,-103.500
0.243,-108.500,-118.500,-185.000,-101.500
0.244,-107.000,-120.000,-185.500,-99.000
0.245,-106.000,-121.500,-185.500,-97.000
0.246,-107.000,-122.500,-186.000,-96.000
0.247,-109.000,-123.500,-187.000,-95.000
0.248,-112.500,-123.500,-187.500,-95.500
0.249,-117.000,-123.500,-188.000,-96.500
0.250,-122.000,-123.000,-188.500,-98.000
0.251,-128.000,-122.500,-189.000,-100.500
0.252,-134.000,-121.500,-190.000,-103.500
0.253,-139.000,-121.000,-191.000,-106.000
0.254,-143.000,-120.500,-192.000,-109.000
0.255,-145.500,-120.000,-193.000,-111.500
0.256,-146.500,-120.500,-194.000,-113.000
0.257,-146.500,-121.000,-194.500,-114.500
0.258,-145.000,-122.000,-195.000,-115.000
0.259,-142.500,-123.000,-195.500,-114.500
0.260,-140.000,-124.500,-195.500,-114.000
0.261,-137.500,-126.000,-195.500,-112.500
0.262,-135.000,-127.000,-195.000,-111.000
0.263,-133.000,-128.000,-194.500,-109.500
0.264,-131.500,-128.500,-193.500,-108.000
0.265,-131.000,-129.000,-192.000,-106.000
0.266,-131.000,-128.500,-190.500,-105.000
0.267,-132.500,-127.500,-189.000,-103.500
0.268,-134.000,-126.000,-188.000,-103.000
0.269,-136.500,-124.000,-187.500,-103.000
0.270,-139.500,-122.000,-186.500,-103.500
0.271,-142.000,-120.500,-186.000,-104.500
0.272,-144.500,-119.000,-186.000,-106.000
0.273,-147.000,-117.500,-186.000,-108.000
0.274,-149.000,-116.500,-186.500,-110.000
0.275,-150.500,-116.000,-187.000,-112.000
0.276,-152.000,-116.500,-188.000,-113.500
0.277,-153.000,-117.500,-189.000,-114.000
0.278,-153.000,-119.000,-190.500,-114.500
0.279,-152.500,-121.000,-191.500,-114.500
0.280,-152.500,-123.000,-192.500,-113.500
0.281,-152.500,-125.500,-193.500,-113.000
0.282,-153.000,-127.500,-194.000,-112.000
0.283,-154.000,-129.000,-194.500,-111.000
0.284,-155.000,-130.500,-194.000,-110.000
0.285,-155.500,-130.500,-193.500,-109.000
0.286,-157.000,-130.500,-193.000,-108.000
0.287,-158.500,-129.500,-192.000,-107.000
0.288,-161.000,-128.500,-191.000,-106.500
0.289,-164.500,-127.000,-190.500,-106.500
0.290,-168.500,-125.500,-190.500,-107.000
0.291,-172.500,-124.500,-190.500,-108.000
0.292,-176.500,-123.500,-190.500,-110.000
0.293,-179.500,-122.500,-191.000,-111.500
0.294,-182.000,-121.500,-191.500,-113.500
0.295,-182.500,-121.500,-192.000,-115.000
0.296,-182.500,-121.000,-192.500,-116.500
0.297,-181.500,-121.500,-192.500,-117.000
0.298,-180.000,-122.000,-192.500,-117.000
0.299,-177.500,-123.500,-192.500,-116.000
0.300,-174.500,-124.500,-192.500,-114.500
0.301,-171.500,-126.000,-192.000,-112.000
0.302,-168.500,-127.500,-191.000,-109.500
0.303,-166.000,-128.500,-190.500,-107.000
0.304,-164.000,-129.500,-189.500,-104.500
0.305,-162.500,-130.000,-189.000,-102.500
0.306,-162.500,-130.500,-189.000,-101.000
0.307,-163.500,-131.000,-189.000,-100.000
0.308,-165.000,-131.000,-189.000,-100.000
0.309,-167.500,-130.000,-189.000,-100.000
0.310,-170.000,-129.000,-189.000,-101.000
0.311,-172.500,-127.500,-189.000,-103.000
0.312,-175.000,-126.000,-189.000,-105.000
0.313,-176.500,-125.000,-189.500,-107.000
0.314,-177.500,-124.000,-190.000,-109.000
0.315,-177.000,-123.500,-190.500,-111.000
0.316,-175.500,-123.500,-191.000,-112.500
0.317,-173.500,-124.000,-191.500,-113.500
0.318,-170.500,-124.500,-191.500,-113.500
0.319,-167.000,-125.500,-192.000,-113.000
0.320,-163.000,-127.000,-192.000,-112.000
0.321,-159.500,-129.000,-192.000,-110.500
0.322,-156.500,-130.500,-191.500,-108.500
0.323,-154.000,-131.500,-191.000,-106.500
0.324,-152.000,-132.500,-190.500,-104.500
0.325,-151.500,-133.000,-190.000,-102.500
0.326,-151.500,-133.000,-189.500,-101.500
0.327,-152.500,-132.500,-189.000,-100.500
0.328,-154.500,-131.500,-189.000,-100.500
0.329,-156.500,-130.500,-188.500,-101.000
0.330,-159.000,-129.500,-188.000,-101.500
0.331,-161.500,-128.000,-187.500,-102.500
0.332,-163.500,-127.000,-187.500,-103.500
0.333,-165.000,-125.500,-187.500,-105.000
0.334,-165.500,-125.000,-187.500,-106.500
0.335,-165.000,-124.500,-187.500,-108.000
0.336,-163.500,-124.000,-187.500,-108.500
0.337,-161.000,-124.000,-187.500,-109.000
0.338,-157.500,-124.000,-187.000,-109.000
0.339,-153.500,-124.500,-186.500,-108.000
0.340,-149.000,-125.000,-186.000,-107.000
0.341,-145.000,-126.500,-185.500,-105.000
0.342,-141.500,-127.500,-184.500,-103.000
0.343,-138.000,-128.500,-184.000,-100.500
0.344,-135.500,-129.000,-183.500,-98.500
0.345,-134.000,-129.500,-182.500,-96.500
0.346,-133.500,-129.500,-182.000,-95.000
0.347,-133.500,-129.000,-181.500,-94.000
0.348,-134.500,-128.000,-181.000,-94.000
0.349,-136.500,-127.000,-180.500,-94.500
0.350,-138.500,-125.500,-180.500,-96.000
0.351,-141.000,-124.500,-180.500,-97.500
0.352,-143.500,-123.000,-181.000,-99.500
0.353,-146.000,-122.000,-181.500,-102.000
0.354,-147.500,-121.000,-182.000,-104.000
0.355,-148.000,-120.000,-182.500,-105.500
0.356,-147.500,-120.000,-183.000,-106.500
0.357,-146.000,-120.500,-183.500,-107.000
0.358,-143.500,-121.500,-184.000,-106.500
0.359,-140.000,-122.500,-184.500,-106.000
0.360,-136.500,-123.500,-184.500,-104.500
0.361,-132.500,-125.000,-184.500,-103.000
0.362,-128.500,-125.500,-184.000,-101.500
0.363,-125.500,-126.000,-183.000,-99.000
0.364,-123.000,-125.500,-181.500,-97.000
0.365,-121.500,-125.500,-180.000,-94.500
0.366,-121.000,-124.500,-178.500,-92.500
0.367,-121.500,-123.500,-177.000,-91.500
0.368,-123.000,-122.000,-176.000,-90.500
0.369,-125.000,-120.500,-175.500,-90.500
0.370,-127.000,-118.500,-174.500,-91.500
0.371,-128.500,-116.500,-174.500,-92.500
0.372,-129.500,-114.500,-174.000,-94.500
0.373,-130.500,-113.000,-174.000,-96.500
0.374,-130.500,-111.500,-174.500,-98.500
0.375,-130.500,-111.000,-175.000,-100.000
0.376,-130.000,-111.000,-175.500,-101.500
0.377,-129.500,-111.000,-176.000,-102.000
0.378,-128.500,-112.000,-176.500,-102.000
0.379,-126.500,-112.500,-176.500,-101.500
0.380,-124.000,-113.500,-176.000,-100.500
0.381,-121.500,-114.500,-175.500,-99.000
0.382,-118.500,-115.500,-174.500,-97.000
0.383,-116.000,-116.500,-173.500,-95.500
0.384,-114.500,-117.000,-172.500,-93.500
0.385,-113.500,-117.000,-171.500,-92.000
0.386,-113.500,-116.500,-170.500,-91.000
0.387,-114.500,-116.000,-169.500,-90.000
0.388,-116.000,-114.500,-168.500,-89.000
0.389,-118.500,-113.000,-167.500,-89.000
0.390,-121.000,-111.500,-167.000,-89.500
0.391,-123.000,-109.500,-166.500,-91.000
0.392,-125.500,-107.500,-166.500,-92.500
0.393,-127.000,-106.000,-166.500,-94.500
0.394,-128.000,-105.000,-167.000,-96.500
0.395,-128.000,-104.000,-167.500,-98.000
0.396,-126.500,-104.000,-168.000,-99.000
0.397,-124.000,-104.000,-168.500,-99.500
0.398,-120.500,-105.000,-168.500,-99.500
0.399,-116.000,-105.500,-168.000,-98.500
0.400,-111.500,-106.500,-167.500,-97.000
0.401,-107.000,-107.500,-166.500,-95.000
0.402,-103.000,-108.000,-165.000,-92.500
0.403,-99.500,-108.500,-163.500,-90.000
0.404,-97.000,-108.500,-161.500,-87.500
0.405,-95.500,-108.000,-160.000,-85.500
0.406,-95.500,-107.500,-158.500,-84.000
0.407,-97.000,-106.500,-157.000,-83.000
0.408,-100.000,-105.500,-156.500,-82.500
0.409,-103.500,-104.000,-156.000,-83.500
0.410,-108.000,-103.000,-156.000,-84.500
0.411,-112.500,-101.500,-156.500,-86.500
0.412,-116.500,-100.000,-156.500,-89.000
0.413,-120.000,-98.500,-157.500,-92.000
0.414,-122.000,-97.500,-158.000,-94.500
0.415,-123.000,-97.000,-159.000,-97.500
0.416,-123.000,-96.500,-160.000,-100.000
0.417,-122.000,-97.500,-161.000,-102.000
0.418,-120.000,-98.500,-162.000,-103.500
0.419,-117.500,-100.000,-162.500,-104.000
0.420,-114.000,-101.500,-163.000,-104.000
0.421,-110.500,-103.000,-163.000,-103.000
0.422,-107.000,-104.500,-162.500,-101.500
0.423,-104.000,-105.000,-161.500,-99.500
0.424,-102.000,-105.500,-160.500,-97.000
0.425,-101.000,-105.500,-159.500,-95.000
0.426,-101.000,-105.500,-158.500,-93.000
0.427,-102.500,-104.500,-157.500,-91.000
0.428,-104.500,-103.500,-157.000,-90.000
0.429,-107.500,-102.000,-156.500,-90.000
0.430,-110.500,-100.500,-156.000,-90.500
0.431,-114.000,-99.000,-156.000,-91.500
0.432,-117.500,-97.000,-156.000,-93.500
0.433,-120.500,-95.500,-156.000,-95.500
0.434,-123.000,-94.500,-156.000,-97.500
0.435,-125.000,-93.500,-156.500,-100.000
0.436,-126.000,-93.500,-157.000,-102.000
0.437,-126.000,-94.000,-157.500,-103.500
0.438,-124.500,-95.000,-158.000,-104.500
0.439,-122.500,-96.000,-158.500,-105.000
0.440,-120.500,-97.500,-158.500,-104.500
0.441,-118.000,-98.500,-158.500,-104.000
0.442,-116.000,-100.000,-158.000,-103.000
0.443,-114.500,-101.000,-157.500,-102.000
0.444,-113.500,-102.500,-157.000,-101.000
0.445,-113.000,-103.000,-156.500,-100.000
0.446,-112.500,-103.500,-156.500,-100.000
0.447,-113.000,-103.500,-156.000,-100.000
0.448,-114.500,-103.000,-155.500,-100.500
0.449,-117.000,-102.500,-155.500,-101.500
0.450,-119.500,-101.500,-156.500,-103.500
0.451,-123.000,-101.000,-157.500,-105.500
0.452,-126.000,-100.500,-159.000,-108.000
0.453,-129.000,-100.500,-161.000,-110.500
0.454,-131.500,-100.500,-163.000,-112.500
0.455,-133.000,-101.000,-164.500,-114.500
0.456,-133.000,-101.500,-166.000,-116.000
0.457,-132.000,-102.500,-167.000,-116.500
0.458,-130.000,-103.500,-167.500,-116.000
0.459,-126.500,-104.500,-168.000,-115.000
0.460,-123.000,-106.000,-167.500,-114.000
0.461,-119.000,-107.000,-167.000,-112.500
0.462,-115.500,-108.000,-166.500,-111.000
0.463,-111.500,-109.000,-165.500,-110.000
0.464,-108.500,-109.500,-165.000,-109.000
0.465,-105.500,-109.500,-164.000,-108.500
0.466,-103.500,-109.500,-163.500,-108.500
0.467,-102.500,-109.000,-162.500,-108.000
0.468,-102.500,-108.000,-162.000,-108.500
0.469,-103.000,-107.000,-161.500,-108.500
0.470,-104.000,-105.000,-161.000,-109.500
0.471,-105.500,-103.500,-160.500,-110.500
0.472,-107.000,-102.000,-160.500,-112.000
0.473,-108.000,-100.500,-160.500,-113.500
0.474,-108.000,-99.000,-160.500,-115.000
0.475,-108.000,-98.500,-160.500,-117.000
0.476,-106.500,-98.000,-161.000,-118.000
0.477,-104.500,-98.000,-161.000,-119.000
0.478,-102.000,-98.500,-161.000,-119.000
0.479,-98.500,-99.000,-160.500,-118.000
0.480,-95.000,-100.000,-160.500,-116.500
0.481,-91.500,-101.500,-160.000,-115.000
0.482,-88.000,-102.500,-159.500,-112.500
0.483,-85.500,-103.500,-159.000,-110.500
0.484,-83.000,-104.000,-158.000,-108.000
0.485,-82.000,-104.500,-157.500,-105.500
0.486,-81.500,-104.000,-156.500,-103.500
0.487,-82.000,-103.000,-155.500,-102.000
0.488,-83.000,-101.500,-154.500,-101.500
0.489,-84.500,-99.500,-154.000,-101.500
0.490,-86.500,-97.500,-153.500,-102.000
0.491,-89.000,-95.500,-153.000,-103.000
0.492,-91.000,-93.500,-153.000,-104.500
0.493,-92.500,-91.500,-153.000,-106.000
0.494,-93.000,-90.500,-153.500,-107.500
0.495,-93.000,-89.500,-153.500,-108.500
0.496,-92.000,-89.000,-154.000,-110.000
0.497,-89.500,-89.500,-154.500,-110.500
0.498,-86.000,-90.000,-155.000,-110.500
0.499,-81.500,-91.000,-155.000,-110.000
0.500,-77.000,-92.500,-155.500,-109.000
0.501,-72.500,-93.500,-155.000,-107.500
0.502,-68.500,-95.000,-154.500,-105.500
0.503,-65.500,-96.000,-154.000,-103.500
0.504,-63.000,-96.500,-153.000,-101.500
0.505,-61.000,-96.500,-152.500,-99.500
0.506,-60.500,-96.500,-151.500,-98.000
0.507,-60.500,-95.500,-150.500,-97.000
0.508,-62.000,-94.500,-150.000,-96.500
0.509,-64.500,-93.500,-150.000,-96.500
0.510,-67.500,-93.000,-150.000,-97.500
0.511,-71.000,-92.000,-150.500,-99.500
0.512,-74.000,-91.000,-151.000,-102.000
0.513,-77.000,-90.500,-152.000,-104.500
0.514,-78.500,-90.000,-153.000,-107.000
0.515,-79.500,-90.000,-154.000,-109.000
0.516,-79.000,-90.000,-155.000,-110.500
0.517,-77.500,-90.500,-156.000,-111.500
0.518,-75.500,-91.000,-156.500,-112.000
0.519,-73.000,-92.000,-156.500,-112.000
0.520,-70.000,-93.500,-156.500,-111.000
0.521,-67.500,-95.000,-156.500,-110.000
0.522,-65.500,-97.000,-156.500,-108.500
0.523,-64.000,-98.500,-156.000,-107.000
0.524,-63.000,-100.000,-155.500,-105.500
0.525,-62.500,-101.000,-155.500,-104.500
0.526,-63.000,-102.000,-155.000,-103.500
0.527,-64.000,-102.000,-154.500,-103.000
0.528,-66.500,-102.000,-154.500,-103.500
0.529,-70.000,-101.500,-155.000,-105.000
0.530,-74.000,-101.000,-155.000,-106.500
0.531,-78.000,-100.500,-156.000,-109.000
0.532,-82.000,-100.000,-157.000,-111.500
0.533,-85.000,-99.500,-158.500,-114.000
0.534,-86.500,-99.500,-159.500,-116.000
0.535,-87.500,-100.000,-160.500,-118.000
0.536,-87.000,-100.500,-161.500,-119.000
0.537,-85.500,-101.000,-162.000,-120.000
0.538,-83.000,-102.500,-162.500,-120.000
0.539,-80.000,-104.000,-163.000,-119.500
0.540,-76.500,-105.500,-163.000,-118.500
0.541,-73.000,-107.000,-162.500,-117.000
0.542,-70.000,-108.500,-162.500,-115.000
0.543,-67.500,-109.500,-162.000,-113.500
0.544,-66.500,-110.000,-161.500,-112.000
0.545,-66.000,-111.000,-161.000,-110.500
0.546,-67.000,-111.500,-161.000,-109.500
0.547,-69.500,-111.500,-161.000,-108.500
0.548,-73.000,-111.000,-161.000,-109.000
0.549,-77.500,-110.500,-161.000,-109.500
0.550,-82.000,-109.500,-162.000,-111.000
0.551,-86.500,-108.500,-162.500,-112.500
0.552,-90.000,-108.000,-163.500,-114.500
0.553,-93.000,-107.000,-164.500,-116.500
0.554,-94.500,-107.000,-165.500,-118.500
0.555,-95.000,-107.000,-166.000,-120.000
0.556,-94.500,-107.000,-167.000,-121.500
0.557,-92.500,-107.500,-167.500,-122.000
0.558,-90.000,-108.500,-168.500,-122.500
0.559,-86.500,-110.000,-168.500,-122.500
0.560,-82.500,-111.500,-169.000,-121.500
0.561,-79.000,-113.000,-168.500,-121.000
0.562,-76.000,-115.000,-168.500,-120.000
0.563,-73.500,-116.500,-168.000,-119.000
0.564,-72.000,-117.500,-167.500,-118.500
0.565,-71.500,-118.500,-166.500,-117.500
0.566,-71.500,-118.500,-166.000,-116.500
0.567,-73.000,-118.500,-165.000,-116.000
0.568,-75.500,-117.500,-164.500,-116.000
0.569,-78.500,-116.500,-164.000,-116.500
0.570,-82.500,-115.000,-163.500,-118.000
0.571,-86.000,-114.000,-163.500,-120.000
0.572,-89.500,-113.000,-163.500,-122.000
0.573,-92.500,-112.000,-164.000,-124.000
0.574,-94.500,-111.500,-164.500,-126.000
0.575,-96.000,-111.000,-165.000,-127.500
0.576,-96.000,-111.500,-165.500,-128.500
0.577,-95.000,-112.000,-166.000,-129.500
0.578,-93.500,-113.000,-166.500,-129.500
0.579,-91.000,-114.500,-167.000,-129.000
0.580,-88.000,-116.000,-167.000,-127.500
0.581,-85.500,-117.500,-167.000,-126.500
0.582,-83.500,-119.000,-166.500,-125.000
0.583,-81.500,-120.000,-166.500,-123.500
0.584,-80.000,-120.500,-165.500,-121.500
0.585,-79.000,-121.000,-165.000,-120.000
0.586,-79.000,-120.500,-164.000,-118.500
0.587,-79.500,-119.000,-163.000,-117.500
0.588,-80.500,-117.500,-162.500,-117.000
0.589,-81.500,-115.500,-162.000,-117.000
0.590,-83.500,-114.000,-161.500,-118.000
0.591,-85.000,-112.000,-161.500,-120.000
0.592,-86.500,-110.500,-162.000,-122.000
0.593,-87.500,-109.500,-162.500,-124.500
0.594,-88.000,-108.500,-163.500,-127.000
0.595,-88.000,-108.000,-164.000,-129.000
0.596,-87.000,-108.000,-165.000,-131.000
0.597,-85.500,-108.000,-165.500,-132.000
0.598,-83.000,-108.500,-166.000,-132.500
0.599,-79.500,-109.500,-166.000,-132.000
0.600,-76.000,-110.500,-166.000,-130.500
0.601,-73.000,-112.000,-166.000,-129.000
0.602,-69.500,-113.000,-165.500,-126.500
0.603,-67.500,-114.000,-165.000,-124.500
0.604,-65.500,-115.000,-164.500,-122.000
0.605,-64.500,-115.000,-163.500,-120.000
0.606,-63.500,-114.500,-162.500,-118.500
0.607,-64.000,-113.000,-161.500,-117.000
0.608,-64.500,-112.000,-160.000,-116.500
0.609,-66.500,-110.000,-159.500,-116.500
0.610,-68.500,-108.500,-159.000,-118.000
0.611,-71.500,-106.500,-159.000,-120.000
0.612,-74.500,-105.500,-159.500,-122.000
0.613,-77.000,-104.000,-160.000,-124.500
0.614,-79.000,-103.000,-160.500,-126.500
0.615,-79.500,-103.000,-161.500,-128.000
0.616,-78.500,-103.000,-162.000,-129.500
0.617,-77.000,-103.500,-163.000,-130.500
0.618,-74.500,-104.500,-163.500,-131.000
0.619,-71.000,-106.000,-164.000,-131.000
0.620,-68.000,-107.500,-164.500,-131.000
0.621,-64.500,-109.000,-164.500,-130.000
0.622,-61.000,-110.000,-164.000,-129.000
0.623,-58.500,-111.000,-163.500,-127.500
0.624,-56.000,-111.500,-162.500,-125.500
0.625,-54.500,-111.500,-161.500,-124.000
0.626,-53.500,-111.000,-160.500,-122.500
0.627,-54.000,-110.500,-160.000,-121.000
0.628,-56.000,-109.500,-159.000,-121.000
0.629,-58.500,-108.500,-159.000,-121.000
0.630,-61.500,-107.000,-158.500,-122.000
0.631,-64.500,-105.500,-159.000,-123.500
0.632,-67.000,-104.000,-159.000,-125.000
0.633,-68.500,-102.500,-159.500,-126.500
0.634,-69.000,-101.500,-160.000,-127.500
0.635,-68.500,-101.000,-160.500,-128.000
0.636,-66.500,-100.500,-161.000,-128.500
0.637,-63.000,-101.000,-161.500,-128.000
0.638,-58.500,-101.500,-162.000,-127.000
0.639,-53.500,-103.000,-162.500,-126.000
0.640,-48.000,-104.500,-163.000,-124.000
0.641,-42.500,-106.500,-163.500,-122.000
0.642,-37.000,-108.000,-164.000,-120.000
0.643,-32.000,-110.500,-165.000,-117.500
0.644,-27.500,-112.000,-165.500,-115.500
0.645,-24.500,-114.000,-166.000,-113.500
0.646,-22.000,-115.000,-166.500,-112.000
0.647,-21.000,-116.000,-167.000,-111.000
0.648,-21.000,-116.000,-167.500,-111.000
0.649,-21.500,-116.000,-167.500,-112.000
0.650,-23.000,-115.000,-167.500,-113.000
0.651,-25.000,-113.500,-168.000,-115.000
0.652,-26.500,-112.500,-168.000,-117.000
0.653,-28.000,-111.500,-168.500,-119.000
0.654,-29.000,-110.500,-169.000,-121.500
0.655,-28.500,-110.000,-170.000,-123.500
0.656,-28.000,-110.000,-170.500,-125.500
0.657,-26.500,-111.000,-171.000,-127.500
0.658,-25.000,-111.500,-171.500,-128.500
0.659,-23.000,-112.500,-171.500,-129.000
0.660,-20.500,-113.500,-171.000,-128.500
0.661,-18.000,-114.500,-170.500,-127.000
0.662,-15.500,-115.500,-169.500,-125.500
0.663,-13.500,-116.000,-168.500,-123.500
0.664,-12.500,-117.000,-168.000,-121.000
0.665,-12.500,-117.500,-167.000,-119.000
0.666,-13.000,-117.500,-166.500,-117.500
0.667,-15.000,-117.500,-166.500,-116.000
0.668,-17.500,-116.500,-165.500,-116.000
0.669,-21.000,-115.000,-165.000,-116.000
0.670,-25.000,-113.000,-164.500,-117.500
0.671,-29.500,-111.000,-164.000,-119.000
0.672,-34.000,-109.000,-163.500,-121.000
0.673,-38.000,-107.500,-163.500,-123.000
0.674,-41.000,-106.500,-163.500,-125.000
0.675,-42.500,-106.000,-164.000,-126.500
0.676,-43.500,-106.000,-164.000,-127.500
0.677,-42.500,-106.500,-164.500,-127.500
0.678,-41.000,-107.500,-165.000,-127.000
0.679,-38.500,-109.000,-165.000,-125.500
0.680,-35.500,-110.500,-165.500,-123.500
0.681,-32.000,-113.000,-165.500,-120.500
0.682,-28.000,-115.500,-166.000,-117.000
0.683,-24.500,-117.500,-166.000,-113.000
0.684,-21.500,-119.500,-166.000,-109.000
0.685,-19.500,-121.500,-166.500,-105.500
0.686,-18.500,-122.500,-166.500,-102.500
0.687,-18.500,-123.500,-166.000,-99.500
0.688,-19.000,-123.500,-166.000,-97.500
0.689,-20.000,-123.500,-165.500,-95.000
0.690,-21.500,-123.000,-165.500,-93.000
0.691,-23.000,-122.500,-165.500,-91.500
0.692,-25.000,-122.500,-165.500,-90.000
0.693,-26.000,-122.500,-165.500,-88.500
0.694,-26.500,-122.500,-166.000,-87.000
0.695,-26.500,-123.500,-166.500,-85.500
0.696,-25.000,-124.500,-167.000,-83.500
0.697,-23.000,-126.000,-167.000,-81.500
0.698,-20.500,-127.500,-167.500,-78.500
0.699,-17.000,-129.000,-167.000,-76.000
0.700,-13.000,-130.000,-167.000,-73.000
0.701,-9.500,-131.000,-166.000,-71.000
0.702,-6.500,-131.500,-164.500,-70.000
0.703,-4.500,-131.000,-163.000,-70.000
0.704,-4.000,-130.500,-161.000,-71.000
0.705,-4.000,-129.000,-159.000,-73.000
0.706,-6.000,-127.000,-157.000,-76.500
0.707,-8.500,-124.500,-155.000,-81.000
0.708,-12.500,-121.000,-153.000,-87.000
0.709,-17.000,-117.000,-151.500,-94.000
0.710,-22.500,-113.000,-150.000,-102.000
0.711,-27.500,-109.000,-149.000,-109.500
0.712,-32.000,-105.500,-148.500,-117.000
0.713,-36.000,-102.000,-148.500,-123.000
0.714,-39.000,-99.500,-148.500,-128.500
0.715,-40.500,-98.000,-148.500,-133.000
0.716,-41.000,-97.000,-148.500,-136.000
0.717,-40.500,-96.500,-149.000,-138.000
0.718,-38.500,-97.000,-149.000,-138.500
0.719,-35.500,-98.000,-149.500,-137.500
0.720,-32.500,-99.000,-149.500,-136.000
0.721,-28.500,-100.000,-149.000,-133.500
0.722,-25.000,-101.000,-148.500,-131.000
0.723,-22.000,-102.000,-148.000,-128.000
0.724,-19.000,-102.000,-147.000,-125.500
0.725,-17.000,-102.000,-146.000,-123.500
0.726,-16.000,-102.000,-145.000,-121.500
0.727,-16.000,-101.000,-144.500,-119.500
0.728,-16.500,-100.500,-144.000,-118.500
0.729,-18.000,-99.500,-144.000,-118.000
0.730,-20.000,-99.000,-144.000,-117.500
0.731,-22.500,-98.000,-145.000,-117.500
0.732,-25.000,-97.000,-145.500,-118.000
0.733,-27.000,-96.500,-147.000,-118.500
0.734,-28.500,-96.500,-148.500,-119.000
0.735,-29.000,-96.500,-150.500,-119.500
0.736,-29.000,-97.500,-152.000,-119.500
0.737,-28.000,-99.000,-154.000,-119.500
0.738,-26.000,-100.500,-155.500,-118.500
0.739,-23.500,-102.500,-156.500,-117.500
0.740,-21.000,-104.500,-157.000,-115.500
0.741,-18.500,-106.500,-157.000,-113.000
0.742,-16.000,-108.000,-156.500,-110.500
0.743,-14.500,-109.000,-155.500,-107.500
0.744,-13.000,-109.500,-154.500,-104.500
0.745,-12.500,-109.500,-153.000,-101.500
0.746,-13.000,-109.000,-151.500,-99.500
0.747,-14.500,-108.500,-150.000,-98.000
0.748,-17.000,-107.500,-148.500,-97.000
0.749,-20.500,-106.500,-147.500,-97.000
0.750,-24.500,-105.000,-147.000,-97.500
0.751,-28.500,-103.000,-146.500,-98.500
0.752,-32.000,-101.500,-146.500,-100.000
0.753,-34.500,-100.000,-146.000,-101.500
0.754,-36.500,-98.500,-146.000,-103.500
0.755,-37.500,-97.500,-146.000,-105.000
0.756,-37.500,-96.500,-145.500,-106.500
0.757,-36.000,-96.500,-145.500,-107.500
0.758,-33.500,-97.500,-145.500,-107.500
0.759,-30.000,-98.500,-145.000,-107.500
0.760,-26.500,-100.000,-145.000,-107.000
0.761,-22.500,-101.500,-144.500,-105.500
0.762,-18.500,-103.000,-144.000,-103.500
0.763,-15.000,-104.500,-143.500,-101.500
0.764,-12.500,-105.500,-142.500,-99.500
0.765,-11.000,-106.500,-142.000,-98.000
0.766,-10.000,-106.500,-141.500,-96.500
0.767,-10.500,-106.500,-141.000,-96.000
0.768,-12.000,-105.500,-140.500,-95.500
0.769,-14.000,-104.500,-140.000,-96.000
0.770,-16.500,-103.000,-140.000,-96.500
0.771,-19.000,-101.500,-140.000,-98.000
0.772,-21.000,-100.500,-140.000,-99.000
0.773,-23.000,-99.500,-140.500,-100.500
0.774,-24.500,-98.500,-140.500,-101.500
0.775,-25.500,-98.000,-141.000,-102.500
0.776,-26.000,-98.000,-141.500,-103.500
0.777,-25.500,-98.500,-141.500,-103.500
0.778,-24.500,-99.500,-142.000,-103.500
0.779,-22.500,-101.000,-142.000,-102.500
0.780,-20.500,-103.000,-142.000,-101.000
0.781,-18.000,-105.000,-142.000,-99.500
0.782,-15.500,-106.500,-141.500,-97.000
0.783,-14.000,-108.000,-140.500,-94.500
0.784,-13.000,-109.000,-139.500,-92.000
0.785,-12.500,-109.500,-138.000,-90.000
0.786,-12.500,-109.500,-136.500,-88.500
0.787,-13.500,-108.500,-135.500,-87.500
0.788,-14.500,-107.500,-134.500,-87.500
0.789,-16.500,-106.000,-134.000,-88.500
0.790,-18.000,-104.500,-134.000,-90.500
0.791,-20.000,-103.000,-134.000,-92.500
0.792,-22.000,-102.000,-135.000,-95.000
0.793,-23.500,-101.500,-135.500,-97.000
0.794,-24.500,-101.000,-136.500,-98.500
0.795,-25.000,-101.000,-137.500,-100.000
0.796,-25.000,-101.500,-138.500,-100.500
0.797,-24.000,-102.500,-139.500,-101.000
0.798,-22.500,-104.000,-140.000,-101.500
0.799,-20.500,-105.500,-140.500,-101.500
0.800,-18.500,-107.500,-140.500,-101.000
0.801,-15.500,-109.500,-140.500,-100.000
0.802,-13.000,-111.500,-140.500,-99.000
0.803,-11.000,-113.000,-140.000,-97.500
0.804,-9.500,-114.500,-139.500,-96.000
0.805,-9.000,-115.500,-139.000,-95.000
0.806,-9.000,-116.000,-138.000,-93.500
0.807,-10.000,-116.000,-137.500,-92.500
0.808,-12.000,-115.500,-137.000,-91.500
0.809,-14.500,-114.500,-137.000,-91.500
0.810,-17.500,-113.000,-137.000,-92.000
0.811,-20.500,-111.500,-137.000,-93.000
0.812,-22.500,-110.000,-137.000,-94.000
0.813,-24.500,-108.500,-137.500,-95.000
0.814,-25.000,-107.500,-138.000,-96.000
0.815,-25.000,-107.000,-138.500,-97.000
0.816,-24.500,-107.000,-139.000,-98.000
0.817,-23.000,-107.000,-139.500,-99.000
0.818,-21.000,-108.000,-140.000,-100.000
0.819,-18.000,-109.000,-140.500,-100.000
0.820,-14.500,-110.000,-140.500,-100.000
0.821,-11.000,-111.500,-140.500,-99.500
0.822,-7.500,-113.000,-140.500,-99.000
0.823,-4.500,-114.000,-140.500,-97.500
0.824,-2.500,-115.000,-140.000,-96.000
0.825,-1.000,-116.000,-139.500,-94.500
0.826,-1.000,-116.000,-138.500,-93.500
0.827,-1.500,-116.000,-138.000,-92.500
0.828,-3.000,-115.500,-138.000,-92.500
0.829,-5.500,-114.500,-138.000,-93.000
0.830,-8.500,-113.500,-138.500,-94.500
0.831,-12.000,-112.000,-139.000,-96.500
0.832,-15.500,-111.000,-140.000,-99.000
0.833,-18.000,-110.500,-141.000,-101.000
0.834,-20.000,-110.000,-142.000,-103.500
0.835,-20.500,-109.500,-143.000,-106.000
0.836,-19.500,-110.000,-144.000,-108.000
0.837,-18.000,-111.000,-145.500,-109.500
0.838,-15.500,-112.000,-146.500,-110.000
0.839,-12.500,-114.000,-147.500,-110.000
0.840,-10.000,-116.000,-148.000,-109.500
0.841,-7.500,-118.000,-148.500,-108.500
0.842,-6.000,-119.500,-148.500,-107.000
0.843,-5.000,-121.000,-148.000,-105.000
0.844,-4.000,-122.000,-148.000,-103.000
0.845,-4.000,-122.500,-147.000,-101.000
0.846,-5.000,-122.500,-146.500,-99.500
0.847,-6.500,-122.000,-146.000,-98.500
0.848,-9.500,-121.000,-145.500,-98.500
0.849,-12.500,-119.500,-145.000,-99.000
0.850,-16.500,-117.500,-144.500,-99.500
0.851,-20.000,-116.000,-144.000,-101.000
0.852,-23.000,-114.000,-144.000,-102.500
0.853,-25.000,-113.000,-144.000,-104.000
0.854,-26.500,-111.500,-144.500,-105.500
0.855,-27.000,-111.000,-144.500,-106.500
0.856,-27.000,-111.000,-145.000,-107.500
0.857,-26.000,-111.500,-145.500,-107.500
0.858,-24.500,-112.000,-146.000,-107.500
0.859,-22.000,-113.500,-146.500,-107.000
0.860,-19.000,-114.500,-146.000,-105.500
0.861,-15.500,-116.000,-146.000,-103.500
0.862,-12.500,-117.000,-145.000,-101.500
0.863,-9.500,-118.000,-144.000,-99.000
0.864,-7.500,-118.500,-143.000,-96.500
0.865,-6.000,-118.500,-141.500,-94.000
0.866,-6.000,-118.000,-140.500,-92.000
0.867,-6.500,-117.000,-139.500,-90.500
0.868,-8.500,-116.000,-138.500,-90.000
0.869,-11.000,-114.000,-138.000,-90.500
0.870,-14.000,-112.500,-137.000,-91.500
0.871,-17.000,-111.000,-137.000,-93.000
0.872,-20.000,-109.500,-137.000,-94.500
0.873,-22.500,-108.500,-137.000,-96.500
0.874,-25.000,-107.500,-137.000,-98.500
0.875,-26.500,-107.500,-137.500,-100.000
0.876,-27.000,-107.500,-138.000,-101.000
0.877,-27.000,-108.500,-138.500,-102.000
0.878,-25.500,-109.500,-139.000,-102.000
0.879,-23.500,-110.500,-139.500,-101.500
0.880,-20.500,-112.000,-139.500,-100.000
0.881,-17.500,-113.500,-139.500,-98.500
0.882,-15.000,-115.000,-139.000,-96.500
0.883,-13.000,-115.500,-138.500,-94.000
0.884,-11.500,-116.500,-137.500,-91.500
0.885,-11.000,-116.500,-136.500,-89.500
0.886,-12.000,-116.000,-135.500,-87.500
0.887,-14.000,-116.000,-135.000,-86.500
0.888,-17.000,-115.500,-134.500,-86.500
0.889,-21.000,-115.000,-134.500,-87.000
0.890,-25.500,-114.500,-135.000,-88.000
0.891,-30.000,-113.500,-136.000,-90.000
0.892,-34.000,-113.000,-136.500,-92.000
0.893,-37.500,-112.500,-137.500,-94.000
0.894,-40.000,-112.500,-138.000,-96.000
0.895,-41.000,-112.500,-139.000,-98.000
0.896,-41.500,-112.500,-140.000,-99.500
0.897,-40.500,-113.000,-140.500,-100.500
0.898,-38.500,-114.000,-141.000,-101.000
0.899,-36.000,-115.500,-141.500,-101.000
0.900,-33.000,-117.000,-141.500,-100.500
0.901,-30.000,-118.500,-141.500,-99.500
0.902,-27.000,-119.500,-141.500,-98.000
0.903,-24.000,-120.500,-141.000,-96.000
0.904,-22.000,-121.000,-140.000,-94.500
0.905,-21.000,-121.000,-139.000,-93.000
0.906,-20.500,-121.000,-137.500,-91.500
0.907,-21.500,-120.000,-136.500,-90.500
0.908,-23.500,-119.000,-136.000,-89.500
0.909,-26.500,-118.000,-135.500,-89.500
0.910,-30.000,-116.500,-135.500,-90.000
0.911,-33.500,-115.000,-135.500,-91.000
0.912,-36.500,-113.500,-135.500,-92.500
0.913,-39.000,-112.500,-136.000,-94.000
0.914,-40.500,-111.500,-136.000,-95.000
0.915,-40.500,-110.500,-136.000,-96.500
0.916,-40.000,-110.500,-136.500,-97.500
0.917,-38.000,-111.000,-137.000,-98.500
0.918,-35.000,-112.000,-137.500,-99.000
0.919,-32.000,-113.500,-138.000,-99.000
0.920,-28.000,-115.000,-138.500,-99.000
0.921,-24.500,-116.500,-139.000,-98.000
0.922,-22.000,-118.000,-139.000,-96.500
0.923,-20.000,-119.000,-138.500,-95.000
0.924,-19.000,-120.000,-138.500,-93.000
0.925,-19.000,-120.000,-138.000,-91.500
0.926,-20.000,-120.000,-137.500,-90.000
0.927,-22.000,-119.500,-137.000,-88.500
0.928,-24.500,-118.500,-136.500,-88.000
0.929,-27.500,-117.000,-136.000,-88.000
0.930,-30.500,-115.000,-135.500,-88.500
0.931,-33.000,-112.500,-135.000,-90.000
0.932,-36.000,-110.500,-135.000,-91.500
0.933,-38.500,-109.000,-135.000,-93.500
0.934,-40.500,-108.000,-135.000,-95.500
0.935,-42.500,-107.500,-136.000,-98.000
0.936,-44.000,-107.500,-136.500,-100.500
0.937,-44.500,-108.500,-137.500,-102.000
0.938,-44.500,-109.500,-138.000,-103.500
0.939,-43.500,-110.500,-138.500,-104.000
0.940,-42.000,-112.000,-138.500,-103.500
0.941,-39.500,-113.000,-138.500,-102.500
0.942,-37.500,-114.000,-138.500,-101.000
0.943,-36.000,-115.000,-138.000,-100.000
0.944,-35.000,-115.500,-138.000,-98.500
0.945,-35.000,-116.000,-137.500,-97.000
0.946,-36.000,-116.000,-136.500,-96.000
0.947,-37.000,-115.500,-136.000,-95.500
0.948,-39.000,-115.000,-135.500,-95.000
0.949,-41.500,-113.500,-135.000,-95.500
0.950,-44.000,-111.500,-135.000,-95.500
0.951,-47.000,-109.500,-134.500,-96.500
0.952,-49.500,-107.500,-134.500,-98.000
0.953,-51.500,-105.500,-135.000,-99.500
0.954,-53.000,-103.500,-135.000,-101.500
0.955,-53.500,-102.000,-135.000,-103.000
0.956,-53.000,-101.000,-135.500,-105.000
0.957,-52.000,-101.000,-135.500,-106.000
0.958,-49.500,-101.000,-135.500,-107.000
0.959,-47.000,-102.000,-135.500,-107.000
0.960,-44.000,-103.000,-135.500,-106.500
0.961,-41.000,-104.000,-135.000,-106.000
0.962,-38.500,-105.000,-134.500,-104.500
0.963,-36.500,-106.000,-133.500,-102.500
0.964,-35.000,-106.500,-132.500,-100.500
0.965,-35.000,-107.000,-131.500,-99.000
0.966,-35.500,-107.000,-130.500,-97.500
0.967,-37.000,-107.000,-129.500,-96.500
0.968,-39.000,-106.000,-129.000,-96.000
0.969,-41.500,-105.000,-129.000,-96.000
0.970,-44.500,-103.000,-129.000,-96.500
0.971,-48.000,-101.500,-129.500,-97.500
0.972,-51.500,-100.000,-130.000,-99.000
0.973,-55.000,-98.500,-131.000,-101.500
0.974,-58.000,-97.500,-132.000,-104.000
0.975,-59.500,-97.000,-133.000,-106.000
0.976,-60.500,-97.000,-134.000,-108.500
0.977,-60.500,-97.500,-134.500,-109.500
0.978,-58.500,-98.500,-135.000,-110.500
0.979,-56.500,-99.500,-135.000,-110.000
0.980,-53.000,-100.500,-134.500,-109.000
0.981,-50.000,-102.000,-134.500,-107.500
0.982,-46.500,-103.000,-134.000,-106.000
0.983,-43.500,-104.500,-134.000,-104.000
0.984,-41.500,-105.500,-133.500,-102.000
0.985,-40.000,-106.000,-133.500,-100.500
0.986,-40.000,-106.500,-133.000,-99.000
0.987,-41.000,-106.000,-132.500,-98.000
0.988,-43.000,-105.500,-132.500,-97.500
0.989,-45.000,-104.000,-132.000,-98.000
0.990,-47.000,-102.500,-132.000,-98.500
0.991,-49.000,-101.000,-132.500,-100.500
0.992,-51.000,-99.500,-132.500,-103.000
0.993,-52.500,-98.500,-133.000,-105.500
0.994,-53.000,-97.000,-133.000,-108.000
0.995,-53.000,-96.000,-133.500,-109.500
0.996,-52.500,-95.500,-133.500,-111.000
0.997,-50.500,-95.500,-133.500,-111.500
0.998,-48.000,-95.500,-133.500,-111.500
0.999,-44.500,-96.000,-133.500,-111.000
1.000,-41.000,-97.000,-133.500,-110.000
1.001,-38.000,-98.000,-133.000,-109.000
1.002,-35.500,-99.000,-132.500,-107.000
1.003,-34.000,-100.000,-132.000,-105.500
1.004,-33.000,-100.500,-131.000,-103.500
1.005,-32.500,-101.000,-130.000,-101.500
1.006,-33.000,-100.500,-129.000,-100.000
1.007,-34.000,-100.000,-128.000,-99.000
1.008,-36.000,-99.000,-127.500,-98.500
1.009,-39.500,-97.500,-127.000,-98.500
1.010,-43.500,-96.000,-126.500,-99.500
1.011,-48.000,-94.500,-126.500,-100.500
1.012,-52.000,-93.000,-126.500,-102.500
1.013,-56.500,-91.500,-127.500,-104.500
1.014,-60.500,-91.000,-128.000,-107.000
1.015,-64.000,-91.000,-129.000,-109.500
1.016,-67.000,-91.000,-130.000,-111.500
1.017,-69.500,-92.000,-130.500,-113.000
1.018,-70.500,-93.500,-131.500,-114.000
1.019,-71.000,-95.000,-132.000,-114.000
1.020,-70.500,-96.500,-132.500,-113.500
1.021,-69.500,-98.500,-133.000,-112.500
1.022,-68.000,-100.500,-133.000,-110.500
1.023,-67.000,-102.000,-132.500,-108.500
1.024,-67.000,-103.500,-132.500,-107.000
1.025,-68.000,-104.000,-132.000,-105.000
1.026,-70.000,-105.000,-131.500,-104.000
1.027,-72.500,-105.000,-131.000,-103.000
1.028,-76.000,-104.500,-130.500,-103.000
1.029,-79.500,-103.500,-130.500,-103.000
1.030,-83.000,-101.500,-130.000,-103.500
1.031,-86.000,-100.000,-130.000,-104.000
1.032,-89.000,-98.000,-130.000,-105.500
1.033,-91.000,-96.500,-130.000,-107.000
1.034,-93.000,-95.500,-130.500,-108.500
1.035,-94.000,-95.000,-131.000,-109.500
1.036,-93.500,-95.000,-131.500,-110.500
1.037,-92.500,-95.500,-132.000,-111.000
1.038,-90.500,-96.000,-132.000,-110.500
1.039,-87.500,-97.500,-132.500,-110.000
1.040,-84.000,-99.000,-132.500,-109.000
1.041,-81.000,-100.500,-132.500,-107.000
1.042,-78.000,-102.000,-132.000,-104.500
1.043,-76.000,-103.500,-131.500,-102.500
1.044,-74.500,-104.500,-130.500,-100.000
1.045,-73.500,-105.000,-129.500,-98.000
1.046,-74.000,-105.000,-128.500,-96.000
1.047,-74.500,-104.500,-127.000,-94.500
1.048,-76.500,-103.500,-126.500,-93.000
1.049,-79.000,-102.500,-125.500,-93.000
1.050,-82.500,-101.500,-125.000,-93.500
1.051,-86.500,-100.000,-125.000,-94.500
1.052,-91.000,-99.000,-125.000,-96.000
1.053,-95.000,-98.500,-126.000,-97.500
1.054,-98.500,-98.000,-127.000,-99.500
1.055,-101.000,-98.000,-128.000,-101.000
1.056,-102.500,-98.000,-128.500,-102.500
1.057,-102.500,-98.500,-129.500,-103.000
1.058,-101.500,-99.500,-129.500,-103.000
1.059,-99.500,-101.000,-130.000,-102.500
1.060,-97.000,-102.500,-130.000,-101.500
1.061,-93.500,-104.000,-129.500,-100.000
1.062,-90.500,-105.000,-129.000,-98.500
1.063,-87.500,-106.500,-128.500,-96.500
1.064,-85.500,-107.500,-127.500,-95.000
1.065,-84.500,-108.000,-126.500,-93.500
1.066,-85.000,-108.000,-125.500,-92.000
1.067,-86.000,-107.500,-124.500,-91.000
1.068,-88.000,-106.500,-124.000,-90.000
1.069,-91.000,-105.000,-123.000,-90.000
1.070,-93.500,-103.000,-122.000,-90.500
1.071,-96.500,-101.000,-122.000,-92.000
1.072,-99.500,-99.500,-121.500,-93.500
1.073,-101.500,-98.000,-122.000,-95.500
1.074,-103.000,-97.000,-122.500,-97.500
1.075,-103.500,-97.000,-123.000,-99.500
1.076,-103.500,-97.000,-124.000,-100.500
1.077,-102.500,-98.000,-124.500,-101.500
1.078,-100.000,-99.500,-125.500,-101.500
1.079,-97.000,-101.500,-126.500,-101.000
1.080,-93.000,-104.000,-127.500,-100.000
1.081,-88.000,-106.500,-128.500,-98.500
1.082,-83.500,-109.000,-129.500,-96.500
1.083,-79.000,-111.500,-130.000,-94.500
1.084,-75.500,-114.000,-131.000,-92.500
1.085,-73.500,-116.500,-132.000,-90.500
1.086,-72.500,-118.000,-133.000,-89.500
1.087,-73.000,-119.000,-133.500,-88.500
1.088,-75.000,-118.500,-134.000,-88.500
1.089,-78.000,-118.000,-134.000,-89.000
1.090,-82.000,-116.500,-134.000,-90.000
1.091,-86.500,-115.500,-134.000,-92.000
1.092,-91.500,-114.000,-134.500,-94.000
1.093,-96.000,-113.000,-135.000,-96.500
1.094,-100.500,-112.000,-136.000,-99.000
1.095,-104.000,-111.500,-137.000,-101.500
1.096,-106.500,-111.000,-137.500,-103.500
1.097,-108.000,-111.000,-137.500,-105.000
1.098,-108.500,-110.500,-137.000,-106.000
1.099,-108.500,-111.000,-136.500,-106.500
1.100,-107.500,-111.500,-136.000,-106.000
1.101,-106.500,-112.000,-135.500,-104.500
1.102,-105.500,-113.500,-135.000,-102.500
1.103,-104.500,-114.500,-134.500,-100.500
1.104,-104.000,-115.500,-134.000,-98.500
1.105,-104.000,-116.500,-133.500,-97.000
1.106,-104.500,-116.500,-132.500,-95.500
1.107,-106.000,-116.000,-131.500,-94.500
1.108,-108.000,-115.000,-130.500,-94.000
1.109,-110.500,-113.000,-130.000,-94.000
1.110,-114.000,-111.500,-129.000,-95.000
1.111,-117.500,-109.500,-129.000,-97.000
1.112,-121.500,-107.500,-129.000,-99.000
1.113,-125.000,-106.000,-129.500,-101.500
1.114,-128.000,-104.500,-130.000,-104.000
1.115,-130.000,-103.500,-130.500,-105.500
1.116,-131.500,-103.000,-131.000,-107.000
1.117,-131.500,-103.000,-131.000,-108.000
1.118,-130.500,-103.500,-131.500,-108.000
1.119,-128.000,-104.500,-131.500,-107.000
1.120,-124.500,-105.500,-131.500,-105.500
1.121,-120.500,-107.500,-131.500,-103.500
1.122,-116.500,-109.000,-131.500,-101.500
1.123,-113.000,-110.500,-131.500,-99.000
1.124,-111.500,-112.000,-131.500,-97.000
1.125,-111.000,-113.000,-131.500,-95.000
1.126,-111.500,-113.500,-131.000,-94.000
1.127,-113.500,-113.500,-131.000,-93.000
1.128,-116.500,-113.000,-131.000,-92.500
1.129,-120.000,-112.000,-131.000,-93.000
1.130,-124.000,-111.000,-131.000,-93.500
1.131,-128.000,-109.500,-131.500,-95.000
1.132,-131.500,-108.500,-132.000,-96.000
1.133,-134.500,-107.500,-132.500,-97.500
1.134,-137.000,-106.500,-133.000,-99.000
1.135,-139.000,-106.000,-133.000,-100.500
1.136,-139.500,-106.000,-133.500,-101.500
1.137,-139.500,-105.500,-133.500,-102.000
1.138,-138.500,-106.000,-133.500,-102.000
1.139,-136.500,-106.500,-133.500,-102.000
1.140,-134.000,-107.500,-133.000,-101.000
1.141,-131.500,-109.000,-132.500,-99.500
1.142,-129.500,-110.500,-132.000,-98.000
1.143,-128.000,-112.000,-131.000,-96.000
1.144,-127.000,-113.500,-130.500,-94.000
1.145,-126.500,-114.500,-130.000,-92.500
1.146,-127.000,-115.500,-129.500,-91.500
1.147,-128.500,-116.000,-129.500,-90.500
1.148,-130.500,-116.000,-129.500,-91.000
1.149,-133.000,-115.500,-129.500,-91.500
1.150,-136.000,-115.000,-130.000,-93.000
1.151,-139.000,-114.000,-130.500,-95.000
1.152,-142.000,-113.000,-131.500,-97.500
1.153,-144.500,-112.000,-132.000,-100.000
1.154,-146.000,-111.000,-132.500,-102.000
1.155,-147.000,-110.000,-133.500,-104.000
1.156,-147.000,-110.000,-134.000,-105.500
1.157,-146.000,-110.000,-135.000,-106.500
1.158,-144.000,-110.500,-135.500,-107.000
1.159,-141.000,-111.500,-135.500,-106.500
1.160,-137.500,-112.500,-136.000,-105.500
1.161,-133.000,-114.000,-135.500,-103.500
1.162,-128.500,-115.000,-135.500,-101.000
1.163,-125.000,-116.000,-135.000,-98.500
1.164,-121.500,-116.500,-134.000,-96.000
1.165,-119.000,-117.000,-133.500,-93.500
1.166,-118.000,-116.500,-133.000,-91.500
1.167,-117.500,-115.500,-132.000,-90.000
1.168,-118.500,-114.000,-131.500,-89.500
1.169,-121.000,-112.500,-131.000,-89.500
1.170,-124.000,-111.000,-130.500,-90.500
1.171,-127.000,-109.500,-130.500,-92.000
1.172,-130.000,-108.000,-130.500,-93.500
1.173,-131.500,-106.500,-130.500,-95.500
1.174,-132.500,-105.000,-131.000,-97.000
1.175,-132.500,-104.500,-131.500,-98.500
1.176,-131.500,-104.000,-131.500,-99.500
1.177,-129.500,-104.500,-132.000,-100.000
1.178,-127.000,-105.000,-132.000,-100.000
1.179,-123.500,-106.500,-132.500,-99.500
1.180,-120.000,-107.500,-132.500,-98.000
1.181,-116.000,-109.000,-132.500,-96.500
1.182,-112.500,-110.000,-132.000,-94.500
1.183,-109.500,-111.000,-132.000,-92.500
1.184,-107.500,-112.000,-131.500,-91.000
1.185,-106.500,-112.500,-131.000,-89.500
1.186,-107.000,-112.500,-130.500,-88.500
1.187,-108.000,-112.500,-130.500,-88.000
1.188,-110.500,-112.000,-130.500,-88.000
1.189,-113.000,-111.000,-130.500,-89.000
1.190,-116.000,-110.000,-131.000,-90.000
1.191,-119.500,-109.000,-131.500,-91.500
1.192,-122.500,-107.500,-132.000,-93.500
1.193,-125.500,-106.000,-133.000,-96.000
1.194,-127.000,-104.500,-133.500,-98.000
1.195,-128.000,-103.500,-134.000,-100.000
1.196,-128.000,-102.500,-134.500,-101.500
1.197,-127.000,-102.500,-135.000,-102.500
1.198,-125.000,-102.500,-135.500,-103.000
1.199,-122.500,-103.500,-136.000,-103.000
1.200,-119.000,-104.500,-136.000,-102.000
1.201,-115.000,-106.000,-136.000,-101.000
1.202,-110.500,-107.500,-136.000,-99.500
1.203,-106.500,-109.000,-136.000,-98.000
1.204,-102.500,-110.000,-135.500,-96.000
1.205,-99.500,-111.000,-135.500,-95.000
1.206,-97.000,-111.000,-135.000,-94.000
1.207,-96.000,-111.000,-134.000,-93.000
1.208,-95.500,-110.000,-133.500,-93.000
1.209,-96.000,-109.000,-133.000,-93.500
1.210,-98.000,-108.000,-133.000,-94.500
1.211,-100.000,-106.500,-133.500,-96.000
1.212,-102.000,-105.500,-133.500,-98.500
1.213,-103.500,-104.500,-134.000,-100.500
1.214,-104.500,-103.500,-135.000,-103.000
1.215,-105.000,-103.000,-135.500,-105.000
1.216,-104.000,-102.500,-136.000,-106.500
1.217,-102.000,-103.000,-136.500,-107.000
1.218,-100.000,-103.500,-137.000,-107.000
1.219,-97.000,-104.500,-137.000,-106.500
1.220,-94.000,-106.000,-137.000,-105.500
1.221,-91.500,-107.000,-137.000,-103.500
1.222,-89.000,-108.500,-136.500,-101.500
1.223,-86.500,-109.500,-136.000,-99.000
1.224,-85.000,-110.000,-135.000,-97.000
1.225,-83.500,-110.500,-134.000,-94.500
1.226,-83.000,-110.000,-132.500,-92.500
1.227,-82.000,-108.500,-131.500,-91.000
1.228,-82.000,-107.000,-130.000,-90.000
1.229,-83.000,-105.000,-129.500,-89.500
1.230,-84.000,-103.000,-129.000,-90.000
1.231,-85.500,-101.000,-128.500,-91.000
1.232,-87.000,-99.500,-128.500,-92.500
1.233,-88.000,-98.500,-129.000,-94.000
1.234,-88.500,-98.000,-130.000,-96.000
1.235,-89.000,-97.500,-131.000,-97.500
1.236,-88.500,-98.000,-132.000,-98.500
1.237,-87.000,-98.500,-132.500,-98.500
1.238,-85.000,-99.500,-133.000,-98.000
1.239,-82.500,-101.000,-133.500,-96.000
1.240,-78.500,-102.500,-134.000,-93.500
1.241,-74.500,-104.000,-134.000,-89.500
1.242,-70.500,-106.000,-134.000,-85.500
1.243,-66.500,-107.500,-134.000,-80.500
1.244,-63.000,-109.000,-134.000,-76.000
1.245,-60.500,-110.000,-133.500,-71.500
1.246,-58.500,-110.500,-132.500,-67.500
1.247,-57.500,-111.000,-132.000,-63.500
1.248,-56.500,-110.500,-131.000,-60.000
1.249,-56.500,-110.000,-130.000,-56.500
1.250,-56.500,-109.500,-129.500,-53.500
1.251,-56.500,-108.500,-128.500,-51.500
1.252,-57.000,-107.500,-128.500,-49.500
1.253,-57.500,-107.000,-128.000,-48.000
1.254,-58.500,-106.500,-128.000,-46.500
1.255,-58.500,-107.000,-128.500,-45.500
1.256,-58.500,-108.000,-129.000,-44.000
1.257,-58.000,-109.000,-129.500,-42.000
1.258,-57.000,-110.500,-130.000,-40.500
1.259,-55.000,-112.000,-130.500,-38.500
1.260,-52.500,-113.500,-130.000,-37.000
1.261,-50.500,-114.500,-129.500,-36.000
1.262,-48.500,-115.000,-128.500,-36.500
1.263,-47.500,-115.000,-127.000,-37.500
1.264,-47.500,-114.500,-125.500,-40.000
1.265,-48.500,-113.000,-123.500,-43.500
1.266,-51.000,-110.500,-121.500,-48.500
1.267,-54.000,-107.000,-119.500,-55.000
1.268,-58.500,-103.000,-117.500,-62.500
1.269,-63.000,-99.000,-116.000,-70.500
1.270,-68.000,-95.000,-114.500,-78.000
1.271,-73.000,-91.500,-114.000,-84.500
1.272,-77.500,-88.500,-113.500,-90.500
1.273,-81.500,-86.500,-113.500,-95.500
1.274,-84.500,-84.500,-114.000,-99.500
1.275,-86.500,-83.500,-114.500,-102.500
1.276,-87.500,-83.000,-115.000,-105.000
1.277,-88.000,-83.000,-116.000,-106.000
1.278,-87.000,-84.000,-117.000,-107.000
1.279,-85.500,-85.500,-117.500,-107.000
1.280,-83.000,-87.000,-118.000,-106.500
1.281,-79.500,-88.500,-118.500,-105.500
1.282,-76.500,-90.000,-119.000,-104.000
1.283,-74.500,-91.500,-119.000,-102.000
1.284,-72.500,-92.500,-119.000,-100.000
1.285,-72.000,-93.500,-119.000,-97.500
1.286,-72.000,-94.000,-119.000,-95.500
1.287,-72.500,-94.000,-118.500,-94.000
1.288,-73.500,-94.000,-119.000,-93.000
1.289,-74.500,-93.500,-119.000,-92.000
1.290,-76.500,-92.500,-119.000,-91.500
1.291,-78.000,-92.000,-119.500,-91.500
1.292,-80.000,-91.000,-119.500,-91.500
1.293,-81.500,-90.000,-120.000,-92.000
1.294,-82.500,-89.500,-121.000,-92.000
1.295,-83.500,-89.000,-121.500,-92.500
1.296,-83.500,-89.000,-122.000,-93.000
1.297,-83.000,-90.000,-123.000,-93.500
1.298,-81.000,-91.000,-124.000,-93.000
1.299,-78.500,-92.500,-124.500,-92.500
1.300,-75.000,-94.500,-125.000,-91.500
1.301,-71.500,-96.500,-124.500,-90.000
1.302,-67.500,-98.000,-124.500,-88.000
1.303,-64.500,-99.500,-123.500,-85.500
1.304,-61.500,-100.000,-122.500,-83.500
1.305,-60.000,-101.000,-121.500,-81.500
1.306,-59.000,-101.000,-120.500,-79.500
1.307,-59.500,-100.500,-119.500,-78.500
1.308,-61.000,-100.000,-118.500,-78.500
1.309,-63.000,-98.500,-118.500,-78.500
1.310,-65.500,-97.500,-118.000,-79.500
1.311,-68.000,-96.000,-118.500,-81.000
1.312,-71.000,-94.500,-119.000,-82.500
1.313,-73.500,-93.500,-119.500,-84.500
1.314,-75.000,-92.500,-120.500,-86.500
1.315,-75.500,-92.000,-121.000,-88.500
1.316,-75.000,-92.000,-121.500,-89.500
1.317,-74.000,-92.000,-122.000,-90.500
1.318,-71.500,-92.500,-122.500,-90.500
1.319,-68.500,-93.500,-122.500,-90.000
1.320,-65.500,-94.500,-122.500,-89.000
1.321,-62.500,-95.500,-122.500,-87.500
1.322,-60.000,-96.500,-122.000,-86.000
1.323,-57.500,-98.000,-121.500,-84.500
1.324,-55.500,-98.500,-121.000,-83.000
1.325,-53.500,-99.000,-120.500,-81.500
1.326,-53.000,-99.000,-119.500,-80.500
1.327,-53.000,-98.500,-118.500,-79.500
1.328,-54.500,-97.500,-118.000,-79.000
1.329,-56.500,-96.500,-117.000,-78.500
1.330,-60.000,-95.000,-116.500,-79.000
1.331,-63.500,-93.000,-116.000,-79.500
1.332,-67.000,-91.500,-116.000,-81.000
1.333,-69.500,-90.000,-116.000,-82.500
1.334,-71.500,-88.500,-116.000,-84.500
1.335,-72.500,-87.500,-116.000,-86.000
1.336,-73.000,-87.000,-116.500,-87.500
1.337,-72.000,-87.000,-116.500,-88.500
1.338,-70.500,-88.000,-117.000,-89.000
1.339,-68.000,-89.000,-117.500,-88.500
1.340,-65.500,-91.000,-117.500,-87.500
1.341,-62.500,-92.500,-118.000,-86.000
1.342,-60.000,-94.500,-118.000,-84.500
1.343,-58.000,-96.000,-117.500,-82.500
1.344,-56.500,-97.000,-117.000,-80.000
1.345,-55.000,-97.000,-116.000,-77.500
1.346,-54.500,-97.000,-115.000,-75.500
1.347,-55.000,-96.500,-114.000,-74.000
1.348,-56.000,-95.000,-113.000,-73.000
1.349,-58.000,-93.500,-112.000,-73.000
1.350,-61.000,-92.000,-111.500,-73.500
1.351,-63.500,-90.000,-111.500,-74.500
1.352,-66.500,-88.500,-111.500,-76.000
1.353,-68.500,-87.000,-111.500,-77.500
1.354,-70.500,-85.500,-112.000,-79.000
1.355,-72.000,-85.000,-113.000,-80.000
1.356,-72.500,-84.500,-113.500,-81.000
1.357,-72.000,-84.500,-114.000,-81.500
1.358,-71.000,-85.500,-114.500,-81.500
1.359,-68.500,-86.500,-114.500,-81.500
1.360,-65.500,-87.500,-115.000,-80.500
1.361,-61.500,-89.000,-115.000,-79.500
1.362,-58.000,-91.000,-114.500,-78.000
1.363,-54.500,-92.000,-114.500,-77.000
1.364,-52.000,-93.500,-114.000,-75.000
1.365,-50.000,-94.000,-113.500,-73.500
1.366,-49.000,-94.500,-113.000,-72.000
1.367,-49.000,-94.000,-112.000,-71.000
1.368,-49.500,-93.000,-111.500,-70.500
1.369,-51.000,-92.000,-111.000,-70.500
1.370,-53.000,-90.500,-110.500,-71.000
1.371,-55.000,-89.000,-110.500,-72.500
1.372,-57.000,-87.500,-111.000,-74.000
1.373,-59.000,-86.000,-111.500,-76.000
1.374,-60.500,-85.000,-112.500,-78.000
1.375,-61.500,-84.500,-113.500,-79.500
1.376,-61.500,-84.000,-114.000,-80.500
1.377,-61.000,-84.000,-115.000,-81.000
1.378,-59.500,-85.000,-115.500,-81.000
1.379,-57.500,-85.500,-116.000,-80.000
1.380,-55.000,-86.500,-116.000,-78.500
1.381,-52.000,-88.000,-116.000,-76.500
1.382,-49.500,-89.000,-115.500,-74.000
1.383,-47.000,-90.000,-115.000,-72.000
1.384,-45.500,-90.500,-114.500,-69.500
1.385,-44.500,-91.000,-114.000,-68.000
1.386,-45.000,-91.000,-113.500,-66.500
1.387,-46.000,-91.000,-113.000,-66.000
1.388,-48.500,-90.000,-113.000,-66.000
1.389,-51.000,-88.500,-112.500,-66.500
1.390,-54.000,-87.000,-112.000,-67.000
1.391,-56.500,-85.000,-112.000,-68.500
1.392,-59.000,-83.500,-112.500,-70.000
1.393,-60.500,-82.000,-112.500,-71.500
1.394,-62.000,-81.000,-113.000,-73.000
1.395,-62.000,-80.500,-114.000,-74.000
1.396,-61.500,-80.000,-114.500,-75.000
1.397,-60.000,-80.500,-115.000,-75.000
1.398,-57.500,-81.000,-115.000,-75.000
1.399,-54.000,-82.000,-115.000,-74.000
1.400,-50.000,-82.500,-114.500,-72.000
1.401,-45.000,-83.500,-113.500,-70.000
1.402,-40.500,-84.500,-112.500,-67.000
1.403,-36.500,-85.000,-111.000,-64.000
1.404,-33.500,-86.000,-110.000,-61.500
1.405,-31.500,-86.500,-108.500,-59.000
1.406,-30.500,-86.500,-107.000,-57.500
1.407,-31.000,-86.500,-106.000,-56.000
1.408,-33.000,-86.000,-105.500,-55.500
1.409,-35.500,-85.500,-105.000,-56.000
1.410,-38.500,-84.500,-105.000,-56.500
1.411,-41.500,-84.000,-105.000,-58.000
1.412,-44.500,-83.500,-106.000,-60.000
1.413,-47.500,-83.000,-107.000,-62.000
1.414,-49.500,-83.000,-108.000,-64.000
1.415,-51.000,-83.500,-109.500,-66.000
1.416,-52.000,-84.000,-110.500,-68.000
1.417,-51.500,-85.000,-112.000,-69.000
1.418,-51.000,-86.500,-113.000,-69.500
1.419,-49.500,-88.000,-113.500,-69.000
1.420,-47.000,-90.000,-114.000,-68.000
1.421,-44.000,-92.500,-114.000,-66.500
1.422,-41.500,-94.500,-114.000,-64.500
1.423,-38.500,-96.500,-113.500,-62.500
1.424,-36.000,-98.000,-113.000,-60.500
1.425,-35.000,-99.000,-112.500,-58.500
1.426,-35.000,-99.500,-111.500,-57.500
1.427,-36.000,-100.000,-110.500,-56.000
1.428,-38.500,-100.000,-110.000,-56.000
1.429,-42.000,-99.500,-110.000,-56.000
1.430,-46.000,-99.000,-109.500,-57.000
1.431,-49.500,-98.500,-109.500,-58.000
1.432,-52.500,-97.500,-109.500,-59.500
1.433,-55.000,-96.000,-109.500,-61.500
1.434,-56.000,-95.500,-110.000,-63.000
1.435,-56.500,-95.000,-110.500,-64.000
1.436,-55.500,-94.500,-111.000,-65.500
1.437,-53.500,-95.000,-111.000,-66.000
1.438,-50.500,-96.000,-111.500,-66.000
1.439,-47.000,-97.000,-111.500,-66.000
1.440,-43.000,-99.000,-111.500,-65.000
1.441,-39.500,-100.500,-111.500,-64.000
1.442,-36.000,-102.000,-111.500,-62.000
1.443,-33.000,-103.500,-111.000,-60.500
1.444,-31.000,-104.500,-110.000,-58.500
1.445,-30.000,-105.000,-109.000,-57.000
1.446,-30.500,-105.000,-108.000,-55.500
1.447,-31.500,-105.000,-107.000,-54.000
1.448,-34.000,-104.500,-106.500,-53.500
1.449,-37.000,-103.500,-106.500,-53.500
1.450,-40.000,-102.000,-106.500,-54.000
1.451,-43.500,-100.500,-106.500,-55.000
1.452,-46.500,-98.500,-106.500,-56.500
1.453,-49.500,-97.000,-106.500,-58.500
1.454,-51.500,-95.500,-106.500,-60.000
1.455,-53.000,-94.000,-106.500,-61.500
1.456,-53.000,-93.500,-107.000,-62.000
1.457,-52.500,-93.000,-107.000,-62.500
1.458,-51.000,-93.500,-107.000,-62.000
1.459,-48.500,-94.000,-107.000,-61.500
1.460,-45.500,-95.000,-107.000,-60.000
1.461,-41.500,-96.000,-107.000,-58.000
1.462,-38.000,-97.000,-106.000,-56.000
1.463,-34.500,-97.500,-105.000,-53.500
1.464,-31.500,-98.000,-104.000,-51.000
1.465,-29.500,-98.500,-103.000,-48.500
1.466,-28.000,-98.500,-102.000,-46.500
1.467,-27.500,-98.000,-100.500,-45.000
1.468,-28.500,-97.500,-100.000,-44.000
1.469,-30.000,-96.500,-99.500,-44.000
1.470,-32.500,-95.000,-99.000,-44.500
1.471,-35.500,-93.500,-98.500,-46.000
1.472,-38.500,-91.500,-98.500,-47.500
1.473,-41.000,-90.000,-99.000,-49.500
1.474,-43.500,-89.000,-99.500,-51.500
1.475,-45.000,-88.500,-100.000,-53.000
1.476,-45.500,-89.000,-100.500,-54.500
1.477,-45.000,-89.500,-101.500,-55.000
1.478,-43.000,-90.000,-101.500,-55.500
1.479,-40.000,-91.500,-101.500,-55.500
1.480,-36.500,-92.500,-101.500,-55.000
1.481,-33.000,-94.000,-101.000,-54.500
1.482,-30.000,-95.500,-101.000,-53.000
1.483,-28.000,-96.500,-100.500,-52.000
1.484,-26.500,-98.000,-100.000,-50.500
1.485,-26.500,-99.000,-99.500,-49.500
1.486,-27.000,-99.000,-98.500,-48.500
1.487,-29.000,-99.000,-98.000,-47.500
1.488,-31.500,-98.000,-97.500,-46.500
1.489,-34.500,-96.500,-97.000,-46.000
1.490,-38.000,-95.000,-96.500,-46.500
1.491,-41.500,-92.500,-96.000,-47.000
1.492,-44.500,-90.500,-96.000,-48.500
1.493,-47.500,-89.000,-96.000,-50.000
1.494,-49.000,-88.000,-96.500,-52.500
1.495,-50.000,-87.500,-97.500,-54.500
1.496,-50.500,-87.500,-98.500,-57.000
1.497,-50.500,-88.000,-99.000,-59.000
1.498,-50.500,-89.000,-100.000,-60.000
1.499,-49.500,-90.000,-101.000,-60.500
1.500,-48.500,-91.000,-101.000,-60.000
1.501,-47.000,-92.000,-101.000,-58.500
1.502,-45.000,-92.500,-100.500,-57.000
1.503,-43.500,-93.000,-99.500,-55.000
1.504,-42.500,-93.000,-98.000,-53.000
1.505,-41.500,-92.500,-96.500,-51.000
1.506,-42.000,-92.000,-95.500,-49.500
1.507,-43.000,-91.500,-94.500,-48.500
1.508,-45.000,-91.000,-94.000,-48.000
1.509,-48.000,-90.000,-93.500,-48.000
1.510,-51.000,-88.500,-93.500,-49.000
1.511,-54.000,-87.500,-93.500,-50.500
1.512,-56.500,-86.000,-94.000,-52.000
1.513,-59.000,-85.000,-94.500,-54.500
1.514,-60.500,-84.500,-96.000,-56.500
1.515,-61.500,-84.500,-97.000,-58.500
1.516,-61.000,-85.500,-99.000,-59.500
1.517,-60.000,-87.000,-101.000,-60.500
1.518,-57.000,-89.000,-103.000,-61.000
1.519,-53.500,-92.000,-105.000,-61.000
1.520,-49.000,-95.000,-107.500,-60.000
1.521,-44.500,-97.500,-109.000,-59.000
1.522,-41.000,-100.000,-110.500,-57.500
1.523,-38.000,-102.000,-111.000,-56.000
1.524,-37.000,-103.000,-111.000,-54.500
1.525,-37.000,-103.500,-110.500,-53.500
1.526,-38.500,-103.500,-109.500,-53.000
1.527,-41.500,-103.000,-109.000,-53.500
1.528,-45.000,-102.500,-108.000,-54.000
1.529,-49.000,-101.000,-107.500,-55.500
1.530,-53.500,-99.500,-106.500,-57.000
1.531,-58.000,-97.500,-106.500,-59.000
1.532,-62.000,-95.500,-106.000,-61.500
1.533,-65.500,-93.500,-106.000,-64.000
1.534,-67.500,-92.000,-106.000,-66.500
1.535,-67.500,-91.500,-106.500,-68.500
1.536,-66.500,-91.500,-107.500,-70.500
1.537,-64.000,-92.500,-108.500,-72.000
1.538,-60.000,-94.000,-109.500,-73.000
1.539,-56.000,-95.500,-110.000,-73.500
1.540,-51.500,-97.000,-110.500,-73.000
1.541,-47.000,-98.500,-110.000,-72.000
1.542,-43.500,-99.000,-109.000,-70.500
1.543,-41.000,-99.500,-108.000,-69.000
1.544,-39.000,-99.000,-106.500,-67.000
1.545,-38.500,-98.500,-105.000,-65.500
1.546,-39.000,-97.500,-103.500,-64.500
1.547,-40.000,-96.000,-101.500,-63.500
1.548,-41.500,-94.500,-100.000,-63.000
1.549,-44.500,-92.500,-98.500,-63.500
1.550,-47.500,-90.500,-97.500,-64.000
1.551,-51.500,-88.500,-96.500,-65.500
1.552,-55.000,-86.000,-96.000,-67.000
1.553,-58.500,-84.000,-95.500,-68.500
1.554,-61.500,-82.500,-95.500,-70.000
1.555,-63.500,-82.000,-96.000,-71.500
1.556,-64.500,-82.000,-96.500,-72.500
1.557,-63.500,-83.000,-97.500,-73.000
1.558,-61.500,-84.500,-99.000,-73.000
1.559,-58.500,-86.500,-99.500,-73.000
1.560,-55.500,-88.500,-100.000,-72.000
1.561,-52.000,-90.500,-100.500,-70.500
1.562,-49.000,-92.500,-100.000,-68.500
1.563,-47.000,-93.500,-99.000,-66.500
1.564,-45.500,-94.500,-98.500,-64.000
1.565,-45.000,-94.500,-97.000,-62.000
1.566,-45.000,-94.000,-96.000,-60.000
1.567,-46.000,-93.000,-95.000,-58.000
1.568,-47.500,-92.000,-93.500,-57.000
1.569,-49.500,-90.000,-92.500,-56.500
1.570,-52.500,-88.500,-92.000,-57.000
1.571,-55.500,-87.000,-92.000,-57.500
1.572,-58.500,-85.000,-92.000,-59.000
1.573,-61.500,-84.000,-92.000,-61.000
1.574,-64.000,-83.000,-93.000,-62.500
1.575,-65.500,-82.500,-93.500,-64.500
1.576,-66.000,-82.500,-94.500,-66.000
1.577,-65.500,-82.500,-95.000,-67.500
1.578,-63.500,-83.500,-96.000,-68.500
1.579,-61.000,-84.500,-96.500,-68.500
1.580,-58.500,-85.500,-96.500,-68.500
1.581,-55.000,-87.000,-96.500,-67.500
1.582,-52.000,-88.000,-96.500,-66.000
1.583,-49.500,-89.000,-96.500,-64.500
1.584,-47.000,-90.000,-96.000,-63.000
1.585,-45.500,-90.500,-95.500,-61.500
1.586,-45.000,-90.500,-95.000,-60.000
1.587,-45.000,-90.500,-94.500,-59.500
1.588,-46.500,-90.000,-94.000,-59.000
1.589,-48.500,-89.000,-94.000,-59.500
1.590,-51.500,-88.000,-94.000,-60.500
1.591,-54.500,-87.000,-94.500,-62.000
1.592,-58.000,-86.000,-95.000,-64.000
1.593,-61.000,-84.500,-95.500,-65.500
1.594,-63.500,-84.000,-96.000,-67.500
1.595,-64.500,-83.000,-97.000,-69.000
1.596,-64.500,-82.500,-97.500,-70.500
1.597,-63.500,-83.000,-97.500,-71.000
1.598,-61.000,-83.500,-98.000,-71.000
1.599,-57.500,-84.500,-98.500,-70.000
1.600,-54.000,-85.500,-98.500,-69.000
1.601,-50.000,-87.000,-98.500,-67.500
1.602,-46.500,-88.500,-98.500,-65.500
1.603,-43.000,-89.500,-98.000,-63.500
1.604,-40.000,-90.000,-97.500,-61.500
1.605,-38.500,-90.500,-97.000,-59.500
1.606,-38.000,-90.500,-96.000,-58.000
1.607,-38.000,-89.500,-95.500,-56.500
1.608,-39.000,-88.500,-94.500,-56.000
1.609,-41.000,-87.500,-94.500,-56.000
1.610,-42.500,-85.500,-94.000,-56.500
1.611,-44.500,-84.000,-94.000,-58.000
1.612,-46.500,-82.000,-94.000,-59.500
1.613,-48.000,-80.500,-94.500,-61.000
1.614,-49.000,-79.000,-95.000,-63.000
1.615,-49.500,-78.000,-95.500,-64.500
1.616,-49.000,-77.500,-96.500,-65.500
1.617,-47.000,-78.000,-97.000,-66.500
1.618,-44.500,-78.500,-98.000,-67.500
1.619,-41.000,-79.000,-98.500,-67.500
1.620,-38.000,-80.000,-98.500,-67.000
1.621,-35.000,-81.000,-98.500,-66.000
1.622,-32.500,-82.000,-98.500,-65.000
1.623,-31.000,-83.000,-97.500,-63.000
1.624,-30.000,-83.500,-96.500,-61.500
1.625,-29.500,-83.500,-95.500,-60.000
1.626,-29.500,-83.000,-94.500,-58.500
1.627,-30.000,-82.000,-93.500,-57.500
1.628,-31.500,-80.500,-92.500,-56.500
1.629,-33.500,-79.000,-91.500,-56.000
1.630,-35.500,-77.000,-91.000,-56.000
1.631,-38.000,-74.500,-90.500,-56.500
1.632,-40.500,-72.500,-90.000,-57.000
1.633,-43.000,-71.000,-90.000,-58.000
1.634,-44.500,-69.500,-90.000,-59.000
1.635,-46.000,-68.000,-90.500,-60.000
1.636,-46.500,-67.500,-90.500,-60.500
1.637,-46.500,-67.500,-91.000,-61.500
1.638,-45.500,-67.500,-91.000,-61.500
1.639,-43.500,-68.500,-91.500,-61.500
1.640,-41.500,-69.500,-91.500,-60.500
1.641,-39.000,-71.000,-92.000,-59.500
1.642,-37.000,-72.500,-92.000,-57.500
1.643,-35.000,-74.000,-91.500,-56.000
1.644,-34.000,-75.000,-91.000,-54.000
1.645,-33.500,-75.500,-90.500,-52.500
1.646,-34.000,-75.500,-89.500,-51.000
1.647,-34.500,-75.000,-89.000,-50.500
1.648,-36.000,-74.000,-88.500,-50.000
1.649,-38.500,-73.000,-88.000,-51.000
1.650,-41.000,-72.000,-88.000,-52.000
1.651,-44.000,-70.500,-88.000,-54.000
1.652,-47.000,-69.500,-88.500,-56.000
1.653,-49.500,-68.500,-89.000,-58.500
1.654,-51.000,-67.500,-89.500,-60.500
1.655,-52.000,-66.500,-90.000,-62.500
1.656,-52.000,-66.500,-91.000,-64.500
1.657,-51.000,-66.500,-91.500,-66.000
1.658,-49.000,-67.000,-92.500,-67.000
1.659,-46.000,-68.500,-93.500,-67.500
1.660,-43.000,-70.000,-94.000,-67.000
1.661,-39.000,-71.500,-94.500,-65.500
1.662,-35.500,-73.500,-95.000,-63.500
1.663,-31.500,-75.000,-95.000,-61.500
1.664,-28.000,-76.000,-95.000,-59.000
1.665,-25.500,-77.000,-94.500,-57.000
1.666,-23.500,-77.500,-94.000,-55.500
1.667,-22.500,-77.500,-93.000,-54.000
1.668,-22.500,-77.000,-92.500,-53.500
1.669,-24.000,-76.000,-92.000,-54.000
1.670,-26.000,-75.000,-91.500,-55.000
1.671,-28.000,-73.500,-91.500,-56.000
1.672,-30.500,-72.000,-91.000,-57.500
1.673,-32.500,-70.500,-91.500,-59.500
1.674,-34.500,-69.500,-91.500,-61.000
1.675,-35.500,-68.500,-92.000,-62.500
1.676,-36.000,-68.000,-92.500,-63.500
1.677,-36.000,-68.000,-93.000,-64.000
1.678,-35.000,-68.500,-93.500,-64.000
1.679,-34.000,-69.500,-93.500,-64.000
1.680,-32.500,-71.000,-94.000,-63.000
1.681,-31.000,-72.000,-93.500,-62.000
1.682,-29.500,-73.500,-93.500,-60.500
1.683,-28.500,-74.500,-93.000,-58.500
1.684,-28.000,-75.000,-92.500,-56.500
1.685,-28.000,-75.500,-92.000,-55.000
1.686,-28.500,-76.000,-91.500,-53.500
1.687,-29.000,-75.500,-90.500,-52.500
1.688,-30.000,-75.000,-90.000,-52.000
1.689,-31.000,-74.000,-89.500,-51.500
1.690,-32.000,-73.000,-89.500,-52.000
1.691,-33.500,-71.500,-89.500,-52.500
1.692,-35.000,-70.500,-90.000,-54.000
1.693,-37.000,-70.000,-90.500,-55.500
1.694,-38.500,-69.000,-91.500,-57.500
1.695,-39.000,-68.500,-92.000,-59.500
1.696,-38.500,-68.000,-93.000,-61.000
1.697,-37.500,-68.000,-93.500,-61.500
1.698,-35.500,-68.500,-94.000,-61.500
1.699,-32.500,-69.500,-94.000,-61.000
1.700,-29.000,-70.500,-94.000,-59.500
1.701,-25.000,-71.500,-94.000,-58.000
1.702,-21.500,-72.500,-93.500,-56.000
1.703,-18.000,-74.000,-93.000,-54.000
1.704,-16.000,-74.500,-92.000,-52.000
1.705,-15.000,-75.500,-91.500,-50.000
1.706,-15.500,-75.500,-90.500,-48.500
1.707,-17.000,-75.500,-90.000,-47.500
1.708,-19.500,-74.500,-90.000,-47.000
1.709,-23.000,-73.500,-89.500,-47.000
1.710,-26.500,-72.000,-90.000,-47.500
1.711,-29.500,-70.500,-90.000,-48.500
1.712,-32.500,-69.500,-90.500,-50.000
1.713,-35.000,-68.000,-90.500,-52.000
1.714,-37.000,-67.000,-91.000,-54.000
1.715,-38.500,-66.500,-91.500,-56.000
1.716,-39.000,-66.000,-91.500,-57.500
1.717,-38.500,-66.500,-92.000,-59.000
1.718,-38.000,-67.000,-92.500,-59.500
1.719,-36.500,-68.000,-93.000,-60.000
1.720,-34.500,-69.500,-93.000,-59.500
1.721,-32.500,-71.000,-93.000,-58.500
1.722,-30.500,-72.500,-93.000,-57.000
1.723,-29.000,-74.000,-93.000,-55.000
1.724,-28.000,-75.500,-92.500,-53.000
1.725,-28.000,-76.500,-92.000,-51.500
1.726,-29.000,-77.500,-92.000,-50.000
1.727,-31.500,-77.500,-91.500,-49.000
1.728,-34.500,-77.500,-91.500,-48.500
1.729,-39.000,-76.500,-91.500,-48.500
1.730,-43.500,-75.500,-91.000,-49.000
1.731,-48.000,-74.000,-91.000,-50.500
1.732,-52.000,-72.000,-91.500,-52.000
1.733,-56.000,-71.000,-91.500,-54.500
1.734,-59.000,-70.000,-92.500,-57.000
1.735,-61.500,-69.500,-93.000,-59.500
1.736,-63.000,-70.000,-94.000,-61.500
1.737,-63.500,-71.000,-95.000,-63.500
1.738,-63.000,-72.000,-96.000,-65.000
1.739,-61.500,-73.500,-97.000,-66.000
1.740,-59.500,-75.000,-97.500,-66.000
1.741,-57.000,-77.000,-98.000,-65.000
1.742,-54.000,-78.500,-98.000,-64.000
1.743,-51.000,-80.000,-97.500,-62.000
1.744,-49.000,-81.000,-97.000,-60.000
1.745,-47.500,-81.500,-96.500,-58.500
1.746,-47.500,-82.000,-95.500,-56.500
1.747,-48.500,-82.000,-95.000,-55.500
1.748,-50.500,-81.500,-94.500,-55.000
1.749,-54.000,-80.500,-94.500,-55.000
1.750,-57.500,-79.500,-94.500,-55.000
1.751,-61.500,-78.500,-95.000,-56.000
1.752,-64.500,-77.500,-95.500,-57.000
1.753,-67.500,-76.500,-96.500,-58.500
1.754,-70.000,-76.000,-97.000,-60.000
1.755,-71.500,-76.000,-97.500,-61.500
1.756,-72.500,-76.500,-98.500,-62.500
1.757,-72.500,-77.000,-99.000,-63.500
1.758,-72.000,-78.500,-100.000,-64.000
1.759,-70.000,-79.500,-100.500,-64.000
1.760,-67.000,-81.000,-100.500,-63.500
1.761,-63.500,-82.500,-100.000,-62.500
1.762,-60.000,-84.000,-99.500,-60.500
1.763,-57.000,-84.500,-98.500,-58.000
1.764,-54.500,-85.500,-97.000,-55.500
1.765,-53.500,-85.500,-96.000,-53.000
1.766,-53.000,-85.000,-94.500,-50.500
1.767,-53.500,-84.500,-93.500,-48.500
1.768,-55.000,-83.500,-92.500,-47.500
1.769,-57.000,-82.000,-92.000,-47.000
1.770,-59.500,-81.000,-92.000,-47.000
1.771,-62.000,-79.500,-92.000,-48.000
1.772,-64.500,-78.000,-92.000,-49.500
1.773,-66.500,-76.500,-92.000,-51.000
1.774,-68.000,-75.000,-92.500,-53.000
1.775,-68.500,-74.500,-92.500,-54.500
1.776,-68.000,-74.000,-93.000,-56.000
1.777,-67.000,-74.500,-93.500,-57.500
1.778,-65.000,-75.500,-94.000,-58.500
1.779,-62.500,-77.000,-94.500,-58.500
1.780,-59.000,-79.000,-95.000,-58.500
1.781,-55.500,-81.000,-95.500,-57.500
1.782,-51.500,-83.000,-95.500,-56.000
1.783,-48.000,-84.500,-95.000,-54.000
1.784,-45.000,-85.500,-94.500,-52.000
1.785,-42.500,-86.000,-94.000,-49.500
1.786,-41.000,-86.000,-93.500,-48.000
1.787,-40.500,-86.000,-93.000,-46.500
1.788,-41.000,-85.500,-92.000,-45.500
1.789,-42.000,-84.000,-92.000,-45.500
1.790,-44.000,-83.000,-91.500,-46.000
1.791,-46.500,-81.000,-91.500,-47.000
1.792,-49.500,-79.000,-91.500,-48.500
1.793,-52.000,-77.500,-91.500,-50.000
1.794,-53.500,-75.500,-91.500,-51.500
1.795,-53.500,-74.000,-91.500,-53.000
1.796,-52.000,-73.000,-91.500,-54.000
1.797,-49.500,-72.000,-91.500,-54.000
1.798,-46.000,-72.000,-91.500,-54.000
1.799,-42.000,-72.500,-91.000,-53.500
1.800,-37.500,-73.000,-90.500,-52.000
1.801,-33.000,-74.000,-90.000,-50.000
1.802,-28.500,-75.000,-89.500,-48.000
1.803,-24.500,-76.000,-89.000,-45.500
1.804,-21.500,-77.000,-88.500,-43.000
1.805,-19.000,-78.000,-88.500,-40.500
1.806,-17.500,-78.500,-88.500,-38.000
1.807,-17.500,-79.000,-88.500,-36.000
1.808,-18.500,-78.500,-88.500,-35.000
1.809,-20.000,-78.000,-89.000,-34.000
1.810,-22.500,-77.500,-89.500,-33.500
1.811,-25.000,-76.500,-90.000,-34.000
1.812,-27.500,-76.000,-91.000,-34.500
1.813,-29.000,-75.500,-92.000,-35.000
1.814,-30.500,-75.000,-93.500,-35.500
1.815,-31.000,-75.500,-94.500,-35.500
1.816,-31.000,-76.000,-96.000,-35.000
1.817,-29.500,-77.000,-97.000,-34.000
1.818,-27.500,-78.500,-98.000,-31.500
1.819,-24.500,-80.500,-98.500,-28.500
1.820,-21.000,-82.000,-99.000,-24.000
1.821,-17.500,-84.000,-98.500,-19.000
1.822,-14.000,-86.000,-98.000,-14.000
1.823,-10.500,-88.000,-97.500,-8.500
1.824,-8.000,-89.500,-96.500,-3.500
1.825,-6.000,-90.500,-95.500,1.500
1.826,-5.000,-91.500,-94.500,6.500
1.827,-5.000,-92.500,-93.500,10.500
1.828,-6.500,-92.500,-93.000,14.500
1.829,-8.000,-92.000,-92.000,17.000
1.830,-11.000,-90.500,-91.000,18.000
1.831,-14.000,-88.000,-90.500,17.000
1.832,-17.500,-85.500,-89.500,14.000
1.833,-21.000,-83.000,-89.000,10.000
1.834,-24.500,-80.000,-88.500,4.500
1.835,-27.500,-77.500,-88.000,-2.000
1.836,-29.500,-74.500,-87.500,-9.000
1.837,-31.500,-72.000,-87.000,-17.000
1.838,-32.000,-70.000,-86.000,-24.500
1.839,-31.500,-68.000,-85.000,-31.500
1.840,-30.500,-66.500,-84.500,-37.000
1.841,-28.500,-66.000,-83.500,-41.500
1.842,-26.500,-65.500,-82.500,-44.000
1.843,-24.500,-65.500,-81.500,-45.500
1.844,-22.500,-65.500,-80.500,-46.000
1.845,-21.000,-65.500,-79.000,-46.000
1.846,-20.500,-65.000,-78.500,-45.000
1.847,-20.500,-65.000,-77.500,-44.000
1.848,-21.500,-64.500,-77.500,-43.500
1.849,-24.000,-63.500,-77.500,-43.500
1.850,-27.500,-62.500,-78.000,-44.500
1.851,-31.500,-61.500,-78.500,-46.000
1.852,-36.000,-60.500,-79.500,-48.500
1.853,-40.500,-59.500,-80.500,-51.500
1.854,-44.500,-59.500,-82.000,-54.500
1.855,-47.500,-59.500,-83.000,-57.000
1.856,-50.000,-60.500,-84.500,-59.500
1.857,-51.000,-62.000,-86.000,-61.500
1.858,-51.000,-63.500,-87.500,-62.500
1.859,-49.000,-65.500,-88.500,-62.000
1.860,-46.500,-67.500,-89.000,-61.000
1.861,-43.000,-69.500,-89.500,-59.000
1.862,-39.500,-71.500,-90.000,-56.500
1.863,-36.500,-73.500,-89.500,-53.500
1.864,-34.500,-75.000,-89.500,-50.500
1.865,-33.500,-76.500,-89.500,-47.500
1.866,-33.500,-77.500,-89.000,-44.500
1.867,-34.500,-78.000,-88.500,-42.500
1.868,-36.500,-77.500,-88.000,-41.000
1.869,-39.500,-76.500,-87.000,-40.000
1.870,-43.000,-75.000,-86.500,-40.000
1.871,-47.000,-73.000,-86.000,-40.500
1.872,-51.000,-71.500,-86.000,-41.500
1.873,-54.500,-70.000,-86.500,-43.000
1.874,-58.000,-69.000,-87.000,-45.000
1.875,-60.500,-68.000,-88.000,-46.500
1.876,-62.500,-68.000,-89.000,-48.500
1.877,-63.000,-68.500,-89.500,-50.000
1.878,-62.500,-69.500,-90.000,-50.500
1.879,-60.500,-70.000,-90.500,-51.000
1.880,-58.000,-71.500,-90.500,-50.500
1.881,-54.500,-72.500,-90.000,-50.000
1.882,-51.500,-74.000,-90.000,-48.500
1.883,-48.500,-75.500,-89.500,-47.000
1.884,-46.500,-76.500,-88.500,-45.000
1.885,-45.000,-77.500,-88.000,-43.000
1.886,-44.500,-77.500,-87.000,-41.000
1.887,-45.000,-77.500,-86.000,-39.500
1.888,-46.500,-77.000,-85.500,-38.500
1.889,-48.500,-76.000,-85.500,-38.000
1.890,-51.500,-75.000,-85.500,-38.000
1.891,-54.500,-74.000,-85.500,-39.000
1.892,-57.500,-72.500,-86.000,-40.500
1.893,-60.000,-72.000,-86.500,-42.000
1.894,-62.000,-71.500,-87.500,-44.000
1.895,-63.000,-71.500,-88.500,-46.000
1.896,-63.000,-71.500,-89.500,-48.000
1.897,-62.000,-72.500,-90.000,-50.000
1.898,-60.500,-73.500,-91.000,-51.000
1.899,-58.000,-75.000,-91.500,-51.500
1.900,-55.000,-77.000,-92.500,-51.000
1.901,-52.000,-79.000,-92.500,-50.500
1.902,-49.000,-81.000,-92.500,-49.000
1.903,-46.000,-82.500,-92.500,-47.500
1.904,-44.000,-84.000,-92.500,-46.000
1.905,-42.500,-85.000,-92.500,-44.500
1.906,-42.000,-86.000,-92.500,-43.500
1.907,-42.500,-86.500,-93.000,-43.000
1.908,-44.000,-86.000,-93.000,-42.500
1.909,-47.000,-85.000,-93.000,-42.500
1.910,-50.500,-84.000,-93.000,-43.500
1.911,-54.000,-82.500,-93.000,-45.000
1.912,-58.500,-80.500,-93.000,-46.500
1.913,-62.000,-79.000,-93.500,-48.500
1.914,-65.000,-78.000,-94.000,-50.500
1.915,-67.000,-77.500,-95.000,-52.500
1.916,-67.500,-77.500,-95.500,-53.500
1.917,-67.000,-77.500,-96.500,-54.500
1.918,-65.500,-78.500,-97.000,-54.500
1.919,-63.000,-80.000,-97.000,-54.000
1.920,-59.500,-81.500,-97.000,-53.000
1.921,-55.500,-83.000,-96.500,-51.000
1.922,-51.500,-84.500,-96.000,-48.500
1.923,-48.000,-85.500,-94.500,-45.500
1.924,-44.500,-86.000,-93.000,-42.500
1.925,-42.000,-86.500,-91.500,-40.000
1.926,-40.500,-86.500,-90.000,-37.500
1.927,-40.000,-86.000,-88.500,-35.500
1.928,-41.000,-85.000,-87.500,-34.500
1.929,-43.000,-83.500,-86.500,-34.000
1.930,-45.000,-81.500,-85.500,-34.500
1.931,-48.000,-80.000,-85.500,-36.000
1.932,-50.500,-78.000,-85.000,-37.500
1.933,-53.000,-76.000,-85.000,-39.500
1.934,-55.000,-74.500,-85.500,-41.500
1.935,-56.000,-73.500,-85.500,-43.500
1.936,-56.000,-73.000,-86.000,-45.000
1.937,-54.500,-73.000,-86.500,-46.000
1.938,-51.500,-74.000,-87.500,-46.500
1.939,-48.000,-75.000,-88.000,-46.500
1.940,-43.000,-76.500,-88.000,-46.000
1.941,-38.500,-78.500,-88.500,-44.500
1.942,-33.500,-80.500,-88.500,-42.500
1.943,-29.000,-82.000,-88.500,-40.500
1.944,-25.000,-84.000,-88.500,-38.000
1.945,-22.000,-85.500,-88.500,-36.000
1.946,-20.000,-86.500,-89.000,-34.000
1.947,-19.000,-87.500,-89.000,-32.500
1.948,-19.000,-88.000,-89.500,-31.000
1.949,-20.000,-88.500,-90.000,-30.500
1.950,-21.500,-88.500,-91.000,-30.500
1.951,-23.500,-88.500,-91.500,-31.000
1.952,-25.500,-87.500,-92.000,-32.000
1.953,-27.000,-86.500,-92.500,-33.500
1.954,-28.000,-85.000,-92.500,-34.500
1.955,-28.000,-84.000,-92.500,-36.000
1.956,-27.000,-83.000,-92.500,-37.000
1.957,-25.000,-82.000,-92.500,-38.000
1.958,-22.500,-82.000,-92.000,-38.500
1.959,-19.000,-82.500,-91.500,-38.000
1.960,-15.500,-83.500,-91.000,-37.500
1.961,-11.500,-84.000,-90.000,-36.000
1.962,-8.000,-84.500,-89.000,-34.000
1.963,-5.000,-84.500,-87.500,-32.000
1.964,-2.500,-85.000,-86.000,-29.500
1.965,-1.000,-85.000,-84.500,-27.500
1.966,-1.000,-85.000,-83.500,-26.000
1.967,-2.000,-84.500,-82.500,-24.500
1.968,-4.000,-84.000,-81.500,-23.500
1.969,-6.500,-83.000,-81.000,-23.000
1.970,-10.000,-81.500,-80.500,-23.500
1.971,-13.000,-80.000,-80.000,-24.500
1.972,-16.000,-78.000,-79.500,-25.500
1.973,-19.000,-76.500,-79.000,-27.500
1.974,-21.500,-75.000,-78.500,-29.500
1.975,-23.000,-74.000,-78.500,-31.000
1.976,-23.500,-73.500,-78.500,-33.000
1.977,-23.500,-73.500,-78.500,-34.000
1.978,-23.000,-74.000,-78.000,-35.000
1.979,-21.500,-75.000,-78.000,-35.000
1.980,-20.000,-76.000,-77.500,-34.500
1.981,-18.000,-77.500,-77.500,-33.000
1.982,-16.500,-78.500,-76.500,-31.500
1.983,-14.500,-79.500,-76.000,-29.000
1.984,-12.500,-80.500,-75.000,-26.500
1.985,-11.000,-81.500,-74.500,-24.000
1.986,-10.000,-82.500,-74.000,-22.000
1.987,-10.000,-83.000,-74.000,-20.000
1.988,-10.500,-83.000,-74.000,-19.000
1.989,-12.000,-83.000,-74.500,-18.500
1.990,-14.000,-82.500,-74.500,-18.000
1.991,-16.000,-81.500,-74.500,-18.500
1.992,-18.500,-80.500,-74.500,-19.500
1.993,-20.000,-79.500,-75.000,-20.500
1.994,-21.500,-78.500,-75.500,-22.000
1.995,-22.000,-78.000,-76.500,-23.500
1.996,-22.000,-77.500,-77.000,-24.500
1.997,-21.000,-78.000,-77.500,-26.000
1.998,-19.000,-78.500,-78.000,-27.000
1.999,-16.500,-79.500,-78.500,-27.000
2.000,-13.000,-80.500,-78.500,-26.500
2.001,-9.500,-82.000,-78.500,-25.000
2.002,-6.000,-83.000,-78.000,-23.000
2.003,-2.500,-84.000,-77.500,-20.500
2.004,0.000,-85.000,-77.000,-18.000
2.005,2.000,-85.500,-76.000,-15.500
2.006,3.000,-85.500,-75.000,-13.500
2.007,2.500,-85.000,-74.500,-11.500
2.008,1.000,-84.000,-73.500,-10.500
2.009,-1.500,-83.000,-72.500,-10.000
2.010,-5.500,-81.000,-72.000,-10.000
2.011,-9.500,-79.500,-71.500,-10.500
2.012,-14.000,-77.500,-71.500,-12.000
2.013,-18.000,-76.000,-71.500,-13.500
2.014,-21.000,-75.000,-72.000,-15.000
2.015,-23.500,-74.000,-72.500,-16.500
2.016,-25.000,-73.500,-73.000,-18.000
2.017,-24.500,-73.500,-73.500,-18.500
2.018,-23.000,-73.500,-73.500,-18.500
2.019,-20.000,-74.000,-73.000,-17.500
2.020,-16.500,-74.500,-72.000,-16.000
2.021,-12.500,-75.500,-71.500,-14.000
2.022,-8.500,-76.500,-71.000,-12.000
2.023,-5.000,-77.500,-70.000,-9.500
2.024,-2.500,-78.500,-69.500,-7.000
2.025,-1.000,-79.000,-68.500,-5.000
2.026,-0.500,-79.000,-67.500,-3.000
2.027,-0.500,-78.500,-66.500,-1.500
2.028,-1.500,-77.500,-66.000,0.000
2.029,-4.000,-76.000,-65.000,0.500
2.030,-6.500,-74.500,-65.000,0.500
2.031,-10.500,-73.000,-65.000,-0.500
2.032,-14.500,-71.000,-65.000,-1.500
2.033,-18.000,-69.500,-66.000,-3.000
2.034,-21.000,-68.500,-66.500,-4.500
2.035,-23.000,-67.500,-67.500,-6.000
2.036,-24.000,-67.000,-68.500,-7.000
2.037,-24.000,-66.500,-69.000,-8.000
2.038,-22.500,-67.000,-69.500,-8.000
2.039,-20.500,-67.500,-69.500,-7.500
2.040,-17.000,-68.500,-70.000,-7.000
2.041,-14.000,-70.000,-69.500,-5.500
2.042,-10.500,-71.500,-69.500,-3.500
2.043,-7.500,-72.500,-69.000,-1.500
2.044,-5.000,-73.500,-68.500,0.500
2.045,-3.000,-74.000,-67.500,2.500
2.046,-2.500,-73.500,-66.500,4.000
2.047,-2.500,-73.000,-65.500,5.500
2.048,-4.000,-72.000,-64.500,6.500
2.049,-7.000,-70.500,-63.500,6.500
2.050,-10.500,-68.500,-62.500,6.500
2.051,-14.500,-67.000,-62.000,6.000
2.052,-18.500,-65.500,-62.000,5.000
2.053,-22.000,-64.000,-62.500,3.500
2.054,-25.000,-62.500,-62.500,1.500
2.055,-26.500,-62.000,-63.000,0.000
2.056,-27.000,-61.500,-64.000,-1.500
2.057,-26.500,-61.500,-64.500,-3.000
2.058,-25.000,-62.000,-65.500,-4.000
2.059,-22.500,-63.500,-66.000,-4.500
2.060,-19.500,-65.000,-67.000,-4.500
2.061,-16.500,-66.500,-67.500,-4.000
2.062,-13.500,-68.500,-67.500,-3.000
2.063,-11.000,-70.000,-67.500,-1.500
2.064,-9.500,-71.500,-67.500,-0.500
2.065,-9.000,-72.500,-67.000,1.000
2.066,-9.500,-73.000,-66.500,2.500
2.067,-10.500,-72.500,-66.000,3.500
2.068,-12.500,-72.000,-65.500,4.000
2.069,-15.000,-71.000,-65.000,4.000
2.070,-17.500,-69.500,-64.500,3.500
2.071,-21.000,-68.000,-64.500,2.500
2.072,-24.000,-66.000,-64.500,0.500
2.073,-27.500,-65.000,-64.500,-1.500
2.074,-30.500,-64.000,-65.500,-4.000
2.075,-33.000,-63.500,-66.500,-7.000
2.076,-34.500,-63.500,-67.500,-9.500
2.077,-35.000,-64.000,-69.000,-11.500
2.078,-34.000,-65.000,-70.000,-12.500
2.079,-31.500,-66.500,-71.000,-13.000
2.080,-27.500,-68.000,-71.000,-13.000
2.081,-23.000,-69.500,-71.500,-11.500
2.082,-18.500,-71.000,-71.000,-10.000
2.083,-14.500,-72.000,-70.500,-8.500
2.084,-11.000,-73.500,-70.000,-7.000
2.085,-8.500,-74.500,-69.500,-5.500
2.086,-7.000,-75.000,-69.000,-4.500
2.087,-6.000,-75.000,-69.000,-4.000
2.088,-7.000,-75.000,-68.500,-4.500
2.089,-9.000,-74.500,-68.500,-5.000
2.090,-12.500,-73.500,-69.000,-6.000
2.091,-17.000,-72.500,-69.500,-7.500
2.092,-22.500,-71.000,-70.000,-9.500
2.093,-27.500,-69.500,-70.500,-12.000
2.094,-32.000,-68.000,-71.500,-14.500
2.095,-35.500,-67.000,-72.000,-16.500
2.096,-37.500,-66.000,-72.500,-18.500
2.097,-39.000,-65.500,-73.000,-20.000
2.098,-39.000,-65.500,-73.000,-21.000
2.099,-38.000,-66.000,-73.000,-21.000
2.100,-36.000,-67.000,-72.500,-20.000
2.101,-33.500,-67.500,-72.000,-18.500
2.102,-30.500,-68.000,-71.000,-16.000
2.103,-28.000,-69.000,-70.500,-13.500
2.104,-26.000,-69.500,-69.500,-11.000
2.105,-24.000,-70.000,-68.500,-9.000
2.106,-22.500,-70.000,-68.000,-7.000
2.107,-22.000,-70.000,-67.500,-6.000
2.108,-22.500,-69.500,-67.500,-5.500
2.109,-23.500,-68.500,-67.000,-6.000
2.110,-25.500,-67.000,-66.500,-6.500
2.111,-27.500,-65.000,-66.500,-8.000
2.112,-30.500,-63.000,-66.000,-9.500
2.113,-33.000,-61.000,-65.500,-11.000
2.114,-35.500,-59.500,-65.500,-13.000
2.115,-37.500,-58.000,-65.500,-15.000
2.116,-39.000,-57.500,-66.000,-17.000
2.117,-39.000,-57.500,-66.500,-19.000
2.118,-38.500,-58.000,-67.000,-20.000
2.119,-36.500,-59.500,-67.500,-20.500
2.120,-33.500,-60.500,-68.000,-19.500
2.121,-30.500,-62.000,-68.000,-18.000
2.122,-27.000,-63.500,-67.500,-16.000
2.123,-24.000,-65.000,-67.000,-13.500
2.124,-22.000,-66.000,-66.500,-11.000
2.125,-20.500,-66.500,-65.500,-8.000
2.126,-20.500,-67.000,-65.000,-5.500
2.127,-21.000,-66.500,-64.000,-3.500
2.128,-22.500,-65.500,-63.000,-2.000
2.129,-24.500,-64.500,-62.500,-1.500
2.130,-26.500,-62.500,-62.000,-2.000
2.131,-29.000,-61.000,-61.500,-2.500
2.132,-31.500,-59.500,-61.500,-4.000
2.133,-34.000,-58.000,-61.500,-6.000
2.134,-36.500,-57.000,-62.000,-8.000
2.135,-38.000,-56.000,-62.500,-10.000
2.136,-39.000,-55.500,-63.500,-12.000
2.137,-39.000,-56.000,-64.000,-13.000
2.138,-38.500,-56.500,-65.000,-14.000
2.139,-37.000,-57.000,-65.000,-13.500
2.140,-34.500,-58.000,-65.500,-13.000
2.141,-32.000,-58.500,-65.000,-11.500
2.142,-29.000,-59.000,-64.500,-10.000
2.143,-26.000,-59.500,-63.500,-7.500
2.144,-23.500,-60.000,-62.500,-5.000
2.145,-21.500,-60.000,-61.500,-2.500
2.146,-20.000,-60.000,-60.000,0.000
2.147,-19.000,-59.000,-58.500,2.000
2.148,-19.500,-58.000,-57.500,3.500
2.149,-20.500,-56.500,-56.500,4.500
2.150,-23.000,-54.500,-56.000,4.500
2.151,-26.000,-53.000,-56.000,3.500
2.152,-29.500,-51.500,-56.500,2.000
2.153,-33.500,-50.000,-57.000,0.500
2.154,-36.500,-49.000,-58.000,-2.000
2.155,-39.000,-48.500,-58.500,-4.000
2.156,-40.500,-48.500,-59.500,-6.000
2.157,-41.000,-48.500,-60.500,-7.500
2.158,-39.500,-49.500,-61.500,-8.500
2.159,-37.500,-50.500,-62.000,-8.500
2.160,-35.000,-52.000,-62.000,-8.500
2.161,-32.000,-53.500,-62.000,-7.500
2.162,-30.000,-55.000,-62.000,-6.000
2.163,-28.000,-56.000,-61.500,-4.500
2.164,-27.000,-57.000,-60.500,-2.500
2.165,-26.000,-56.500,-59.500,0.000
2.166,-26.000,-56.000,-58.500,2.500
2.167,-26.500,-54.500,-57.000,4.000
2.168,-27.500,-53.000,-55.500,6.000
2.169,-29.000,-51.500,-54.000,7.000
2.170,-31.500,-49.000,-53.000,7.000
2.171,-34.000,-47.000,-52.500,6.500
2.172,-36.500,-45.000,-52.000,5.500
2.173,-39.000,-43.500,-52.000,4.000
2.174,-41.000,-42.000,-52.500,2.500
2.175,-43.000,-41.000,-53.000,0.500
2.176,-44.000,-40.500,-53.500,-1.000
2.177,-44.500,-40.500,-54.000,-2.000
2.178,-44.000,-41.000,-54.000,-2.500
2.179,-42.500,-42.000,-54.500,-2.500
2.180,-40.500,-43.500,-54.500,-2.000
2.181,-38.000,-45.000,-54.500,-1.000
2.182,-36.000,-47.000,-54.500,0.500
2.183,-34.000,-48.500,-54.500,2.500
2.184,-32.500,-50.000,-54.000,4.500
2.185,-31.500,-51.000,-53.500,6.500
2.186,-31.500,-51.500,-53.000,7.500
2.187,-33.000,-52.000,-52.500,8.500
2.188,-35.000,-51.500,-52.000,9.000
2.189,-38.000,-50.500,-52.000,9.000
2.190,-41.500,-49.500,-52.000,8.000
2.191,-45.500,-48.500,-52.500,7.000
2.192,-50.000,-47.000,-53.000,5.000
2.193,-54.000,-46.500,-53.500,3.000
2.194,-57.000,-45.500,-54.500,1.000
2.195,-59.500,-45.500,-55.000,-1.000
2.196,-61.000,-45.500,-56.000,-3.000
2.197,-61.500,-46.000,-57.000,-4.500
2.198,-60.500,-46.500,-58.000,-5.500
2.199,-59.000,-47.500,-59.000,-6.000
2.200,-56.500,-49.000,-59.500,-5.500
2.201,-53.500,-50.500,-60.000,-4.500
2.202,-50.500,-51.500,-60.000,-3.500
2.203,-47.500,-52.500,-59.500,-1.500
2.204,-45.000,-53.500,-59.000,0.000
2.205,-43.000,-53.500,-58.500,2.000
2.206,-41.500,-53.500,-58.000,3.500
2.207,-41.000,-53.000,-57.000,4.500
2.208,-41.000,-51.500,-56.000,5.500
2.209,-42.000,-50.000,-55.500,5.500
2.210,-43.500,-48.000,-55.000,5.000
2.211,-45.000,-46.000,-55.000,4.000
2.212,-47.000,-44.500,-55.500,2.500
2.213,-49.500,-43.000,-56.000,0.500
2.214,-51.500,-42.000,-57.000,-2.000
2.215,-53.500,-41.500,-58.500,-4.500
2.216,-54.500,-41.000,-59.500,-6.500
2.217,-54.500,-41.500,-60.500,-8.500
2.218,-54.000,-42.000,-61.500,-9.500
2.219,-52.500,-43.000,-62.000,-10.500
2.220,-50.500,-44.500,-62.500,-10.000
2.221,-47.500,-45.500,-62.500,-9.500
2.222,-44.500,-46.500,-62.000,-8.000
2.223,-41.000,-47.500,-61.500,-6.000
2.224,-38.000,-48.000,-61.000,-3.500
2.225,-36.000,-48.500,-60.000,-1.500
2.226,-34.500,-48.500,-59.500,0.500
2.227,-34.500,-48.000,-58.500,2.000
2.228,-35.500,-47.000,-58.000,3.000
2.229,-37.000,-46.000,-57.000,3.000
2.230,-39.000,-44.500,-57.000,2.000
2.231,-41.000,-43.000,-56.500,1.000
2.232,-43.500,-41.500,-56.500,-1.000
2.233,-45.500,-40.000,-57.000,-3.000
2.234,-47.000,-39.000,-57.500,-5.000
2.235,-47.500,-38.000,-58.500,-7.000
2.236,-47.000,-37.500,-59.000,-8.500
2.237,-45.500,-37.500,-60.000,-10.000
2.238,-43.000,-38.000,-60.500,-10.500
2.239,-39.500,-39.000,-60.500,-11.000
2.240,-36.000,-40.500,-61.000,-10.500
2.241,-31.500,-42.000,-61.000,-9.500
2.242,-27.000,-44.000,-60.500,-8.000
2.243,-23.000,-45.500,-60.000,-6.500
2.244,-19.000,-46.500,-59.500,-4.500
2.245,-16.500,-47.500,-58.500,-3.000
2.246,-15.000,-47.500,-57.500,-1.500
2.247,-14.000,-47.500,-56.500,0.000
2.248,-14.000,-46.500,-55.500,0.500
2.249,-15.000,-45.500,-54.500,1.000
2.250,-16.000,-44.000,-54.000,1.000
2.251,-18.000,-42.500,-53.500,0.500
2.252,-20.000,-41.500,-53.500,-1.000
2.253,-22.000,-40.500,-54.000,-2.500
2.254,-23.500,-39.500,-54.500,-4.500
2.255,-24.000,-39.000,-55.000,-6.500
2.256,-24.000,-39.000,-56.000,-8.500
2.257,-23.000,-39.000,-57.000,-10.000
2.258,-21.000,-39.500,-57.500,-11.000
2.259,-18.000,-41.000,-58.500,-11.500
2.260,-14.000,-42.000,-58.500,-11.000
2.261,-9.500,-43.500,-59.000,-9.500
2.262,-5.000,-45.000,-58.500,-7.000
2.263,-1.000,-46.500,-58.000,-4.000
2.264,2.500,-47.000,-57.000,-1.000
2.265,5.000,-47.000,-55.500,2.000
2.266,6.500,-46.500,-54.000,5.000
2.267,7.000,-46.000,-53.000,7.500
2.268,7.000,-44.500,-51.500,9.500
2.269,6.500,-43.500,-51.000,11.000
2.270,5.000,-42.000,-50.500,11.000
2.271,3.500,-40.000,-50.000,11.000
2.272,1.000,-38.000,-50.000,10.000
2.273,-1.000,-36.500,-50.000,9.000
2.274,-3.000,-35.000,-50.000,7.500
2.275,-4.500,-34.000,-50.500,6.000
2.276,-5.500,-33.000,-50.500,5.000
2.277,-5.500,-33.000,-51.500,4.000
2.278,-4.500,-33.500,-52.000,3.500
2.279,-2.500,-34.500,-52.000,3.500
2.280,0.000,-36.000,-52.500,4.500
2.281,3.000,-37.500,-52.500,6.000
2.282,6.000,-39.500,-52.500,7.500
2.283,8.000,-41.000,-52.000,9.500
2.284,10.000,-42.500,-52.000,11.500
2.285,10.500,-43.500,-51.500,13.500
2.286,10.000,-44.000,-50.500,15.000
2.287,8.500,-44.500,-50.000,16.500
2.288,6.000,-44.000,-49.500,17.000
2.289,3.000,-43.000,-49.500,17.500
2.290,-0.500,-42.000,-49.000,17.000
2.291,-4.500,-41.000,-49.000,16.000
2.292,-8.500,-39.500,-49.000,14.500
2.293,-12.000,-38.000,-49.000,13.000
2.294,-15.000,-37.000,-49.500,12.000
2.295,-17.000,-36.500,-50.000,10.500
2.296,-18.000,-36.000,-50.500,9.000
2.297,-17.500,-36.000,-51.000,8.000
2.298,-16.000,-37.000,-51.500,7.000
2.299,-14.000,-38.000,-51.500,6.500
2.300,-11.500,-39.000,-52.000,7.000
2.301,-9.000,-40.500,-52.000,8.000
2.302,-6.000,-42.000,-51.500,9.500
2.303,-4.000,-43.500,-50.500,11.500
2.304,-2.500,-44.500,-50.000,13.500
2.305,-2.000,-45.500,-49.000,16.000
2.306,-2.000,-45.500,-48.000,17.500
2.307,-3.000,-45.500,-47.500,18.500
2.308,-5.000,-45.500,-47.000,19.500
2.309,-8.000,-44.500,-47.000,19.500
2.310,-11.500,-43.500,-47.000,19.000
2.311,-15.500,-42.500,-47.000,18.000
2.312,-19.500,-41.000,-48.000,16.500
2.313,-23.500,-40.000,-48.500,14.500
2.314,-27.000,-39.500,-49.500,12.500
2.315,-29.500,-38.500,-50.000,10.500
2.316,-31.500,-38.500,-51.000,8.500
2.317,-32.500,-39.000,-51.500,7.000
2.318,-32.500,-39.500,-52.500,6.500
2.319,-31.500,-41.000,-53.000,6.500
2.320,-29.000,-42.000,-53.000,7.000
2.321,-26.000,-43.500,-53.500,8.000
2.322,-23.000,-45.000,-53.000,9.000
2.323,-20.500,-46.000,-53.000,11.000
2.324,-18.500,-47.000,-52.500,12.500
2.325,-17.500,-48.000,-52.000,13.500
2.326,-18.000,-48.000,-51.000,14.500
2.327,-19.500,-48.000,-50.000,15.500
2.328,-21.500,-47.500,-49.500,16.000
2.329,-24.500,-46.500,-48.500,16.000
2.330,-27.500,-45.000,-48.000,15.500
2.331,-30.500,-43.500,-48.000,14.500
2.332,-34.000,-41.500,-47.500,13.000
2.333,-36.500,-39.500,-47.500,11.500
2.334,-38.000,-37.500,-47.500,9.500
2.335,-38.500,-36.000,-48.000,8.000
2.336,-38.000,-35.500,-48.500,6.000
2.337,-36.000,-35.500,-49.000,4.500
2.338,-33.000,-36.000,-50.000,3.500
2.339,-28.500,-37.000,-50.500,3.000
2.340,-23.500,-38.500,-51.500,3.000
2.341,-18.500,-40.500,-52.000,3.500
2.342,-13.000,-42.000,-52.000,5.000
2.343,-8.000,-43.000,-52.000,7.000
2.344,-3.500,-44.000,-51.500,9.000
2.345,0.500,-44.500,-51.000,11.000
2.346,3.000,-44.500,-50.000,13.000
2.347,4.500,-44.000,-49.500,14.500
2.348,5.500,-43.500,-48.500,15.500
2.349,5.500,-42.000,-48.000,15.500
2.350,4.500,-40.500,-48.000,15.500
2.351,3.000,-39.000,-48.000,14.500
2.352,1.000,-37.000,-48.000,13.500
2.353,-1.500,-35.500,-48.500,12.000
2.354,-4.000,-34.000,-48.500,10.000
2.355,-5.500,-33.000,-49.000,8.500
2.356,-6.500,-32.500,-49.500,6.500
2.357,-6.000,-32.500,-50.000,5.000
2.358,-5.000,-33.000,-50.500,4.000
2.359,-3.000,-34.000,-51.500,3.500
2.360,-0.500,-35.500,-52.000,3.000
2.361,2.500,-37.500,-52.000,4.000
2.362,5.000,-39.000,-52.000,5.000
2.363,7.000,-40.000,-51.500,6.500
2.364,8.500,-41.000,-50.500,8.500
2.365,10.000,-41.500,-49.500,10.500
2.366,10.500,-42.000,-48.500,12.500
2.367,11.000,-41.500,-48.000,14.500
2.368,10.500,-41.000,-47.000,15.500
2.369,9.500,-40.500,-46.500,16.500
2.370,7.500,-39.500,-46.000,16.500
2.371,5.500,-38.500,-46.000,16.000
2.372,3.000,-37.000,-46.000,15.000
2.373,1.000,-36.000,-46.500,13.500
2.374,-1.000,-35.500,-47.500,12.000
2.375,-2.000,-35.500,-48.500,11.000
2.376,-2.500,-36.500,-50.000,10.000
2.377,-1.000,-37.500,-51.500,10.000
2.378,1.000,-39.500,-53.500,10.000
2.379,4.500,-41.500,-55.000,10.500
2.380,8.500,-44.500,-56.500,11.000
2.381,13.000,-47.000,-57.500,12.500
2.382,18.000,-49.000,-57.500,14.000
2.383,22.000,-50.000,-57.500,15.500
2.384,25.000,-51.000,-57.000,17.000
2.385,27.000,-51.500,-56.500,18.000
2.386,28.000,-52.000,-55.500,19.500
2.387,28.000,-51.500,-54.500,20.500
2.388,27.500,-51.000,-54.000,21.500
2.389,26.000,-50.500,-53.000,21.500
2.390,23.500,-49.000,-52.500,21.000
2.391,20.500,-47.000,-52.000,19.500
2.392,17.000,-45.000,-51.500,17.500
2.393,13.500,-42.500,-51.000,15.000
2.394,11.000,-40.500,-51.000,13.000
2.395,10.000,-39.000,-51.000,11.000
2.396,10.000,-38.000,-51.000,9.500
2.397,10.500,-37.500,-51.500,8.500
2.398,12.500,-38.000,-51.500,8.500
2.399,14.500,-38.500,-51.500,8.500
2.400,17.500,-40.000,-51.000,9.500
2.401,20.500,-41.000,-51.000,10.500
2.402,23.500,-42.000,-50.000,12.500
2.403,26.500,-42.500,-49.000,14.000
2.404,29.000,-43.000,-48.000,16.000
2.405,30.500,-42.500,-46.500,18.000
2.406,31.000,-42.500,-45.500,19.500
2.407,31.000,-41.500,-44.000,20.500
2.408,29.000,-40.500,-43.000,21.000
2.409,26.500,-39.500,-42.500,20.500
2.410,23.000,-37.500,-41.500,20.000
2.411,19.000,-35.000,-40.500,19.000
2.412,15.500,-33.000,-40.500,18.000
2.413,12.000,-31.500,-40.500,17.000
2.414,9.500,-30.500,-41.000,15.500
2.415,8.000,-30.500,-42.000,14.500
2.416,7.500,-30.500,-43.000,14.000
2.417,7.500,-31.500,-44.500,13.500
2.418,9.000,-32.500,-45.500,13.000
2.419,11.000,-34.500,-46.500,13.500
2.420,14.000,-36.000,-47.500,14.500
2.421,17.000,-37.500,-48.000,16.000
2.422,21.000,-39.500,-48.500,18.000
2.423,24.000,-41.000,-48.500,20.000
2.424,27.000,-43.000,-48.500,22.500
2.425,29.500,-44.500,-48.500,24.500
2.426,31.000,-46.000,-49.000,27.000
2.427,31.500,-47.000,-49.000,29.000
2.428,30.500,-48.000,-49.500,31.000
2.429,28.500,-48.500,-49.500,32.500
2.430,26.000,-48.500,-50.000,33.500
2.431,23.000,-48.500,-50.000,34.500
2.432,20.000,-48.500,-50.500,35.000
2.433,17.500,-48.000,-51.500,35.500
2.434,15.000,-48.000,-52.000,36.000
2.435,13.500,-48.000,-53.000,37.000
2.436,13.000,-48.500,-53.500,38.000
2.437,13.500,-49.500,-54.000,40.000
2.438,15.000,-50.500,-54.500,42.000
2.439,17.500,-52.000,-55.000,45.000
2.440,20.500,-54.000,-55.000,49.000
2.441,24.500,-55.500,-54.500,53.500
2.442,28.000,-58.000,-54.500,58.000
2.443,31.500,-60.000,-54.000,63.000
2.444,34.500,-61.500,-53.500,67.500
2.445,36.500,-62.500,-53.000,71.500
2.446,37.500,-63.000,-52.500,74.000
2.447,37.000,-63.000,-52.000,75.000
2.448,35.500,-61.500,-51.000,74.000
2.449,33.500,-59.500,-50.000,71.500
2.450,30.000,-56.500,-49.000,67.500
2.451,26.000,-53.500,-48.500,62.500
2.452,21.500,-50.000,-47.500,56.000
2.453,16.500,-46.000,-47.000,48.500
2.454,12.500,-42.500,-46.000,40.500
2.455,9.000,-39.000,-45.500,32.500
2.456,7.000,-36.000,-45.500,25.500
2.457,6.000,-34.000,-45.500,19.000
2.458,6.000,-32.500,-45.500,14.500
2.459,6.500,-32.000,-45.000,11.500
2.460,8.000,-31.500,-45.000,9.500
2.461,9.500,-32.000,-44.500,9.000
2.462,11.500,-32.000,-44.500,9.500
2.463,14.000,-32.500,-44.000,10.500
2.464,15.500,-33.000,-43.500,12.000
2.465,17.000,-33.000,-43.000,14.000
2.466,17.500,-33.000,-42.500,16.000
2.467,17.000,-32.500,-41.500,18.000
2.468,16.500,-31.500,-40.500,20.000
2.469,14.500,-30.000,-39.500,21.000
2.470,12.500,-28.500,-38.500,21.000
2.471,10.000,-27.000,-38.000,20.500
2.472,7.500,-25.500,-38.000,19.500
2.473,5.500,-24.500,-38.500,18.000
2.474,4.500,-24.000,-39.500,16.000
2.475,3.500,-24.000,-40.500,14.500
2.476,3.000,-24.500,-42.000,13.500
2.477,3.500,-26.000,-43.500,13.000
2.478,5.000,-27.500,-45.000,13.000
2.479,6.500,-29.500,-46.500,14.000
2.480,9.000,-32.000,-47.500,15.500
2.481,11.500,-34.500,-48.000,17.500
2.482,14.000,-37.000,-48.500,20.000
2.483,16.500,-39.000,-48.500,22.000
2.484,18.500,-40.500,-48.500,24.500
2.485,20.500,-42.000,-48.000,27.000
2.486,22.000,-42.500,-47.500,29.000
2.487,22.000,-42.000,-47.000,30.500
2.488,21.500,-41.500,-46.500,31.500
2.489,20.500,-40.500,-46.000,32.000
2.490,18.500,-39.000,-45.500,32.000
2.491,16.000,-37.500,-45.000,31.500
2.492,14.000,-36.000,-45.000,30.000
2.493,12.000,-34.500,-45.500,28.500
2.494,10.500,-33.500,-46.000,26.500
2.495,9.500,-33.000,-46.500,24.500
2.496,9.500,-32.500,-47.000,23.000
2.497,10.500,-32.500,-47.500,22.000
2.498,12.500,-33.500,-48.500,21.000
2.499,15.500,-34.500,-49.000,21.000
2.500,19.000,-36.000,-49.500,21.500
2.501,22.500,-38.000,-50.000,22.500
2.502,26.000,-40.000,-50.500,23.500
2.503,28.500,-42.000,-51.000,25.000
2.504,31.000,-43.500,-51.000,27.000
2.505,32.500,-44.500,-51.000,28.500
2.506,33.500,-45.500,-50.500,30.500
2.507,34.000,-45.500,-50.000,32.500
2.508,33.500,-44.500,-49.000,34.000
2.509,31.500,-43.500,-48.500,35.000
2.510,29.000,-42.500,-47.500,35.500
2.511,25.500,-41.000,-47.500,35.500
2.512,22.000,-40.000,-47.500,34.500
2.513,18.000,-39.000,-47.500,33.000
2.514,15.000,-38.000,-48.000,31.500
2.515,12.500,-38.000,-49.000,29.000
2.516,11.500,-38.000,-50.000,27.000
2.517,11.000,-38.500,-51.000,25.500
2.518,11.500,-39.500,-52.000,24.500
2.519,13.000,-40.000,-52.500,24.000
2.520,15.000,-41.500,-53.000,24.500
2.521,18.000,-43.000,-53.000,25.500
2.522,21.000,-44.500,-52.500,27.500
2.523,24.500,-46.500,-52.500,30.000
2.524,27.500,-47.500,-52.000,32.000
2.525,30.500,-48.500,-51.500,34.500
2.526,32.500,-49.500,-51.000,36.500
2.527,34.000,-49.500,-51.000,37.500
2.528,35.000,-49.500,-50.500,38.000
2.529,35.500,-49.000,-50.500,38.500
2.530,34.500,-48.000,-50.000,38.500
2.531,33.000,-47.000,-50.000,38.000
2.532,31.000,-46.000,-50.000,37.000
2.533,29.000,-45.500,-50.500,36.000
2.534,27.000,-44.500,-50.500,34.500
2.535,26.000,-44.000,-51.000,33.000
2.536,26.000,-44.000,-51.500,31.500
2.537,26.500,-44.000,-52.000,30.500
2.538,28.500,-44.500,-52.500,30.000
2.539,31.500,-45.000,-53.000,30.000
2.540,35.000,-46.000,-53.000,30.500
2.541,39.000,-47.000,-52.500,32.000
2.542,43.000,-48.000,-52.000,34.000
2.543,46.500,-49.000,-51.000,36.000
2.544,49.000,-50.000,-50.000,39.000
2.545,51.500,-50.500,-49.000,41.500
2.546,52.500,-50.500,-48.000,43.500
2.547,52.000,-50.500,-47.000,45.500
2.548,51.000,-50.000,-46.000,46.500
2.549,48.500,-49.500,-45.500,47.000
2.550,45.500,-48.500,-45.000,47.000
2.551,42.500,-47.000,-44.500,46.500
2.552,39.500,-45.500,-44.500,45.000
2.553,37.000,-44.000,-44.500,43.500
2.554,35.000,-42.500,-44.500,42.000
2.555,34.000,-42.000,-45.000,40.000
2.556,33.500,-41.500,-45.500,38.500
2.557,34.500,-41.500,-46.000,37.000
2.558,37.000,-42.000,-46.000,36.000
2.559,40.000,-43.000,-46.000,35.500
2.560,44.000,-44.500,-46.000,35.500
2.561,48.000,-46.000,-46.000,36.500
2.562,52.500,-47.500,-45.500,38.000
2.563,56.500,-48.500,-45.000,40.000
2.564,60.500,-50.000,-44.000,42.000
2.565,63.500,-50.500,-42.500,44.500
2.566,65.500,-50.500,-41.000,46.500
2.567,66.500,-50.000,-40.000,48.500
2.568,66.000,-49.000,-38.500,50.500
2.569,65.000,-48.000,-37.500,51.500
2.570,62.500,-46.000,-37.000,52.000
2.571,60.000,-44.000,-36.000,52.000
2.572,56.500,-42.000,-35.500,51.000
2.573,54.000,-40.500,-35.500,50.000
2.574,51.500,-39.000,-35.500,48.500
2.575,50.500,-38.000,-35.500,47.000
2.576,50.000,-37.500,-36.000,45.000
2.577,50.500,-37.500,-36.500,44.000
2.578,52.500,-38.500,-37.000,43.000
2.579,55.000,-39.500,-37.500,43.000
2.580,58.500,-41.000,-38.000,43.500
2.581,63.000,-42.500,-38.000,44.500
2.582,67.500,-43.500,-38.000,46.500
2.583,72.500,-45.000,-37.500,48.500
2.584,76.500,-46.000,-37.000,50.500
2.585,79.500,-46.500,-36.000,53.000
2.586,81.500,-47.000,-35.500,54.500
2.587,82.000,-47.000,-34.500,56.000
2.588,81.500,-47.000,-34.000,57.000
2.589,80.500,-46.000,-33.500,57.000
2.590,78.500,-45.000,-33.500,57.000
2.591,77.000,-44.000,-33.000,56.000
2.592,75.000,-42.000,-33.000,55.000
2.593,73.500,-40.500,-33.000,53.500
2.594,72.000,-39.500,-33.500,52.500
2.595,71.000,-38.500,-34.000,50.500
2.596,71.000,-38.500,-35.000,49.500
2.597,72.500,-39.000,-35.500,48.000
2.598,74.500,-40.000,-36.500,47.500
2.599,78.000,-41.000,-37.000,47.500
2.600,82.000,-42.500,-37.000,48.000
2.601,86.500,-43.500,-37.000,49.000
2.602,90.500,-45.000,-37.000,51.000
2.603,94.500,-46.000,-36.500,53.500
2.604,98.000,-47.000,-35.500,56.000
2.605,101.000,-47.500,-35.000,58.500
2.606,103.500,-48.000,-34.000,60.500
2.607,104.500,-47.500,-33.000,62.500
2.608,105.000,-46.500,-31.500,64.000
2.609,104.000,-45.000,-31.000,65.000
2.610,103.000,-43.500,-30.000,65.000
2.611,101.500,-41.500,-29.500,64.500
2.612,99.500,-40.000,-29.000,63.500
2.613,98.000,-38.500,-29.000,62.000
2.614,97.000,-37.500,-29.000,60.500
2.615,96.500,-36.500,-29.000,59.500
2.616,96.500,-36.500,-29.500,58.500
2.617,98.000,-36.000,-29.500,58.000
2.618,100.000,-36.500,-29.500,58.000
2.619,103.500,-37.500,-29.500,58.500
2.620,107.500,-38.500,-29.000,60.000
2.621,111.500,-39.500,-29.000,61.500
2.622,115.500,-41.000,-28.500,64.000
2.623,119.500,-42.500,-27.500,66.000
2.624,122.000,-43.500,-26.500,68.500
2.625,124.500,-44.500,-25.500,71.000
2.626,125.500,-45.000,-24.500,73.000
2.627,125.000,-45.000,-23.500,74.500
2.628,124.000,-44.000,-22.500,75.000
2.629,121.500,-43.000,-22.000,75.500
2.630,119.000,-41.500,-21.500,75.500
2.631,116.000,-39.500,-21.000,75.000
2.632,114.000,-37.500,-21.000,73.500
2.633,112.500,-36.000,-21.000,72.500
2.634,112.000,-34.500,-21.000,71.000
2.635,112.000,-33.000,-21.500,69.000
2.636,112.500,-32.500,-22.000,67.500
2.637,114.000,-33.000,-22.000,66.500
2.638,116.500,-33.500,-22.500,65.500
2.639,119.500,-34.500,-23.000,65.500
2.640,123.000,-35.500,-23.500,66.000
2.641,127.000,-37.000,-23.500,67.500
2.642,131.000,-38.500,-23.500,69.000
2.643,134.500,-40.000,-23.000,71.500
2.644,137.000,-41.500,-22.500,73.500
2.645,138.500,-42.500,-22.000,75.500
2.646,139.000,-43.000,-21.000,77.500
2.647,138.000,-43.500,-20.000,79.000
2.648,136.000,-43.000,-19.500,79.500
2.649,133.000,-42.000,-18.500,79.500
2.650,129.500,-40.500,-18.500,79.500
2.651,126.000,-39.500,-18.000,78.500
2.652,123.000,-38.000,-18.000,77.000
2.653,120.000,-37.000,-18.500,75.500
2.654,118.000,-36.000,-18.500,73.500
2.655,117.000,-35.500,-19.000,71.500
2.656,116.500,-35.500,-19.500,70.000
2.657,117.000,-36.000,-20.500,68.500
2.658,118.500,-37.000,-21.000,68.000
2.659,120.500,-38.500,-22.000,67.500
2.660,123.000,-40.500,-22.500,67.500
2.661,125.500,-42.500,-23.000,68.500
2.662,128.500,-44.500,-22.500,70.500
2.663,131.500,-46.000,-22.500,73.000
2.664,134.000,-47.000,-22.000,75.500
2.665,135.500,-48.500,-21.000,78.000
2.666,136.500,-49.000,-20.500,80.000
2.667,136.500,-49.500,-20.000,82.000
2.668,135.000,-49.500,-19.500,83.000
2.669,133.000,-48.500,-19.000,83.000
2.670,130.000,-47.500,-18.500,82.500
2.671,127.000,-46.000,-18.000,81.500
2.672,124.000,-44.500,-18.500,79.500
2.673,121.000,-43.000,-19.000,77.500
2.674,118.500,-42.000,-19.500,75.000
2.675,117.500,-41.500,-20.000,72.500
2.676,117.000,-41.000,-20.500,70.500
2.677,117.500,-41.000,-21.000,69.000
2.678,119.000,-41.500,-21.000,68.000
2.679,121.000,-42.500,-21.500,67.000
2.680,124.000,-43.500,-21.500,67.000
2.681,127.000,-45.500,-22.000,67.500
2.682,130.000,-47.000,-22.000,68.500
2.683,132.500,-48.500,-21.500,70.000
2.684,135.000,-49.500,-21.000,71.500
2.685,137.000,-50.000,-20.000,73.500
2.686,139.000,-50.000,-19.000,75.500
2.687,139.500,-49.500,-18.000,77.000
2.688,139.500,-49.000,-17.500,77.500
2.689,138.500,-48.000,-17.000,78.000
2.690,136.000,-47.000,-17.500,77.000
2.691,133.500,-46.000,-17.500,76.000
2.692,130.000,-45.000,-18.000,74.000
2.693,127.500,-44.000,-19.000,72.000
2.694,125.500,-43.500,-19.500,69.500
2.695,124.500,-43.000,-20.000,68.000
2.696,124.500,-43.000,-21.000,66.000
2.697,126.000,-43.000,-21.500,65.000
2.698,128.000,-43.500,-22.000,64.500
2.699,131.000,-44.500,-23.000,64.500
2.700,134.500,-45.500,-23.500,65.000
2.701,138.500,-47.000,-24.000,66.000
2.702,142.000,-48.500,-24.000,67.000
2.703,145.500,-50.000,-24.000,69.000
2.704,148.500,-51.500,-23.500,71.000
2.705,151.500,-52.000,-22.500,73.000
2.706,154.000,-52.500,-21.500,75.000
2.707,155.500,-52.000,-20.000,77.000
2.708,156.500,-51.000,-18.500,78.500
2.709,157.000,-50.000,-17.500,79.000
2.710,156.500,-48.500,-16.500,79.000
2.711,155.500,-47.000,-16.000,78.500
2.712,153.500,-45.500,-15.500,77.500
2.713,151.000,-44.500,-15.500,75.500
2.714,149.000,-43.500,-16.000,73.500
2.715,147.000,-43.000,-17.000,71.500
2.716,145.500,-43.000,-18.000,69.500
2.717,145.500,-43.500,-19.000,67.500
2.718,146.500,-44.000,-19.500,66.500
2.719,148.500,-45.500,-20.500,66.000
2.720,151.000,-47.000,-21.500,66.000
2.721,154.000,-49.000,-22.000,66.500
2.722,157.000,-51.500,-22.500,67.500
2.723,159.500,-53.500,-22.500,68.500
2.724,161.500,-55.000,-22.000,70.000
2.725,163.000,-56.000,-21.500,71.500
2.726,163.500,-56.500,-20.500,73.000
2.727,163.500,-56.500,-19.500,74.000
2.728,162.500,-56.000,-18.500,75.000
2.729,161.000,-55.000,-17.000,76.000
2.730,159.000,-53.500,-16.000,76.000
2.731,157.000,-52.000,-15.500,76.000
2.732,155.000,-50.000,-14.500,75.000
2.733,153.000,-48.000,-14.000,74.500
2.734,151.500,-46.000,-13.500,73.000
2.735,150.500,-44.500,-13.000,72.000
2.736,150.000,-43.500,-13.000,71.000
2.737,150.500,-43.500,-13.000,70.000
2.738,152.000,-43.500,-13.000,69.500
2.739,153.500,-44.000,-13.000,70.000
2.740,156.500,-45.000,-13.000,71.500
2.741,159.500,-46.000,-12.000,73.000
2.742,162.500,-47.000,-11.500,75.500
2.743,165.500,-48.000,-10.500,78.000
2.744,168.000,-49.000,-9.000,80.500
2.745,170.500,-49.500,-8.000,83.000
2.746,171.500,-49.500,-6.500,85.000
2.747,172.000,-49.500,-5.500,86.500
2.748,171.500,-48.500,-4.000,88.000
2.749,170.500,-47.500,-3.000,89.000
2.750,168.500,-46.500,-2.000,89.000
2.751,166.500,-45.000,-1.500,88.500
2.752,164.000,-44.000,-1.000,87.000
2.753,162.000,-42.500,-1.000,85.500
2.754,161.000,-41.500,-1.500,83.500
2.755,160.000,-40.500,-1.500,81.500
2.756,160.500,-40.000,-2.000,80.000
2.757,161.000,-39.500,-2.000,78.500
2.758,162.500,-40.000,-2.500,77.500
2.759,165.000,-40.500,-2.500,77.500
2.760,167.500,-42.000,-2.500,78.000
2.761,171.000,-43.500,-2.000,79.000
2.762,174.500,-45.000,-1.500,81.000
2.763,177.500,-46.000,-1.000,83.000
2.764,179.500,-47.500,0.500,85.000
2.765,181.000,-48.500,1.500,87.500
2.766,182.000,-49.000,2.500,89.500
2.767,181.500,-49.000,3.500,91.500
2.768,180.500,-48.500,4.500,92.500
2.769,178.500,-47.500,5.500,93.000
2.770,176.500,-46.000,6.500,93.000
2.771,174.500,-44.500,7.000,92.000
2.772,172.500,-43.000,7.000,91.000
2.773,171.000,-42.000,7.000,89.000
2.774,170.000,-41.500,6.500,87.000
2.775,170.000,-41.000,5.500,85.000
2.776,170.500,-41.000,4.500,83.000
2.777,172.000,-42.000,3.500,81.500
2.778,174.500,-43.000,3.000,80.500
2.779,178.000,-44.500,2.000,80.500
2.780,182.000,-46.500,1.500,81.000
2.781,186.500,-48.000,1.500,82.500
2.782,191.500,-50.000,1.500,84.000
2.783,196.000,-51.500,1.500,86.000
2.784,200.000,-53.000,2.000,88.000
2.785,203.000,-53.500,3.000,89.500
2.786,205.000,-54.000,3.500,91.000
2.787,205.500,-54.000,4.500,92.500
2.788,204.500,-53.500,5.000,92.500
2.789,203.000,-53.000,6.000,92.500
2.790,200.000,-51.500,6.500,92.000
2.791,197.000,-50.000,6.500,90.500
2.792,193.500,-48.500,6.500,89.000
2.793,190.500,-47.500,6.500,86.500
2.794,188.500,-47.000,5.500,84.000
2.795,187.000,-47.000,4.500,81.500
2.796,187.000,-47.000,3.500,79.000
2.797,188.000,-47.500,2.500,77.000
2.798,190.500,-48.500,1.500,76.000
2.799,194.000,-50.000,1.000,76.000
2.800,198.000,-51.500,0.500,76.500
2.801,202.500,-53.500,-0.500,78.000
2.802,206.500,-55.500,-1.500,80.000
2.803,210.500,-58.000,-2.000,82.000
2.804,213.500,-60.500,-3.000,84.500
2.805,216.500,-63.000,-4.000,87.000
2.806,219.000,-65.500,-5.000,89.000
2.807,221.000,-67.000,-5.500,90.500
2.808,221.500,-68.500,-6.500,91.500
2.809,221.000,-69.000,-7.000,91.500
2.810,219.000,-68.500,-7.000,91.000
2.811,216.500,-67.000,-7.000,90.000
2.812,213.500,-65.500,-6.500,88.000
2.813,210.500,-64.000,-6.500,86.000
2.814,208.000,-62.500,-7.000,84.000
2.815,205.500,-61.000,-7.000,81.500
2.816,204.000,-60.500,-8.000,79.500
2.817,202.500,-60.000,-8.500,78.000
2.818,201.500,-59.500,-9.000,76.500
2.819,201.000,-60.000,-9.000,75.000
2.820,200.500,-60.000,-9.500,75.000
2.821,200.500,-61.000,-9.500,75.000
2.822,200.500,-62.000,-9.500,76.000
2.823,200.500,-63.500,-9.500,77.500
2.824,200.500,-65.000,-9.000,79.500
2.825,200.000,-65.500,-9.000,81.000
2.826,199.500,-66.000,-8.500,82.500
2.827,198.000,-66.000,-8.000,84.000
2.828,196.500,-65.000,-7.000,85.000
2.829,194.500,-63.500,-6.000,85.000
2.830,192.500,-61.500,-4.500,85.000
2.831,189.500,-59.000,-3.500,84.000
2.832,186.500,-56.000,-2.500,82.500
2.833,183.500,-53.500,-1.500,80.500
2.834,180.500,-51.500,-1.500,78.500
2.835,178.500,-50.500,-1.500,75.500
2.836,177.500,-50.000,-2.000,73.000
2.837,177.500,-50.000,-3.000,70.500
2.838,178.000,-50.500,-4.000,68.500
2.839,180.000,-52.000,-5.000,67.000
2.840,182.500,-53.500,-5.500,66.000
2.841,186.000,-56.000,-6.500,66.500
2.842,189.500,-58.000,-7.000,67.500
2.843,193.000,-60.500,-7.000,69.500
2.844,196.000,-62.500,-7.500,71.500
2.845,198.500,-64.000,-7.500,74.000
2.846,200.000,-65.000,-7.500,76.500
2.847,200.500,-65.500,-7.000,78.000
2.848,200.000,-65.500,-7.000,79.000
2.849,198.500,-64.500,-6.500,79.500
2.850,196.000,-64.000,-6.500,79.000
2.851,193.000,-63.000,-7.000,77.500
2.852,190.500,-62.000,-7.500,76.000
2.853,188.000,-61.000,-8.500,74.000
2.854,187.000,-60.500,-9.500,71.500
2.855,186.500,-60.500,-10.500,69.000
2.856,186.500,-60.500,-11.500,67.000
2.857,187.500,-61.000,-13.000,65.000
2.858,189.000,-62.500,-14.000,63.500
2.859,191.000,-64.000,-15.000,62.500
2.860,193.500,-66.000,-16.000,62.500
2.861,196.500,-68.000,-16.500,62.500
2.862,199.500,-70.000,-17.000,63.500
2.863,202.500,-72.000,-17.000,65.000
2.864,205.000,-73.500,-17.000,66.500
2.865,206.500,-74.500,-16.500,68.500
2.866,207.500,-75.000,-16.500,70.000
2.867,208.000,-75.000,-16.000,71.000
2.868,207.500,-75.000,-15.500,72.000
2.869,206.500,-74.000,-15.500,72.000
2.870,204.000,-73.000,-15.500,72.000
2.871,201.500,-72.000,-15.500,71.000
2.872,198.000,-70.500,-15.500,69.500
2.873,195.000,-69.500,-16.000,68.000
2.874,192.000,-68.500,-16.500,66.000
2.875,190.000,-68.000,-17.000,64.000
2.876,188.000,-68.000,-17.500,62.000
2.877,187.500,-68.000,-18.500,60.500
2.878,187.500,-69.000,-19.000,59.500
2.879,188.500,-69.500,-19.500,59.000
2.880,190.000,-70.500,-19.500,59.500
2.881,192.000,-72.000,-19.500,60.000
2.882,194.500,-73.000,-19.000,61.500
2.883,196.500,-74.000,-18.500,63.500
2.884,197.500,-74.500,-17.500,65.500
2.885,198.000,-74.500,-16.500,67.500
2.886,197.500,-74.500,-15.500,69.500
2.887,196.000,-74.000,-15.000,71.500
2.888,193.500,-73.500,-14.000,72.500
2.889,189.500,-72.500,-13.500,73.000
2.890,185.000,-71.500,-13.000,73.000
2.891,180.000,-70.500,-13.000,72.000
2.892,175.500,-69.500,-13.000,71.000
2.893,171.000,-68.000,-13.500,69.500
2.894,168.000,-67.000,-14.000,68.000
2.895,165.500,-65.500,-14.000,66.500
2.896,164.000,-65.000,-14.500,65.000
2.897,163.500,-64.500,-15.500,64.000
2.898,164.000,-64.500,-16.000,62.500
2.899,165.500,-65.000,-17.000,62.000
2.900,167.500,-66.000,-17.500,62.500
2.901,170.500,-67.000,-18.000,63.000
2.902,173.500,-68.000,-17.500,64.500
2.903,177.000,-69.000,-17.000,67.000
2.904,180.000,-69.000,-16.000,69.500
2.905,182.000,-69.000,-15.000,72.000
2.906,182.500,-68.500,-13.500,75.000
2.907,182.500,-67.500,-12.500,77.000
2.908,181.000,-66.500,-11.500,79.000
2.909,179.000,-65.000,-10.500,80.000
2.910,176.000,-63.500,-9.500,80.000
2.911,173.500,-62.000,-9.000,80.000
2.912,170.500,-60.500,-9.000,79.000
2.913,167.500,-59.000,-9.000,77.500
2.914,165.500,-57.500,-9.500,76.000
2.915,163.500,-56.500,-10.000,74.500
2.916,162.500,-56.000,-10.500,73.000
2.917,162.500,-56.000,-11.000,71.500
2.918,164.000,-57.000,-11.500,70.500
2.919,167.000,-58.000,-12.000,70.500
2.920,170.500,-59.500,-12.000,70.500
2.921,175.000,-61.000,-12.500,71.500
2.922,179.000,-63.000,-12.500,73.000
2.923,182.500,-64.500,-12.000,74.500
2.924,185.000,-66.000,-12.000,76.500
2.925,186.500,-67.000,-11.500,78.000
2.926,187.000,-67.500,-10.500,80.000
2.927,186.500,-67.500,-10.000,82.000
2.928,185.000,-67.000,-9.500,83.000
2.929,183.500,-66.500,-9.000,84.000
2.930,182.000,-65.000,-8.500,84.000
2.931,180.000,-64.000,-8.500,83.500
2.932,178.000,-62.500,-8.500,82.000
2.933,176.500,-61.000,-9.000,81.000
2.934,175.000,-59.500,-9.000,79.000
2.935,174.500,-58.500,-9.500,77.500
2.936,175.000,-58.000,-10.000,76.500
2.937,176.500,-57.500,-10.500,75.000
2.938,178.500,-58.000,-11.000,74.500
2.939,182.000,-58.500,-11.500,74.500
2.940,186.000,-59.500,-11.500,75.000
2.941,191.000,-60.500,-11.500,76.500
2.942,195.500,-61.500,-11.500,78.000
2.943,199.500,-62.500,-11.000,80.000
2.944,202.500,-63.500,-10.500,82.500
2.945,205.000,-64.000,-10.000,84.500
2.946,206.500,-64.000,-9.500,87.000
2.947,206.500,-64.000,-9.000,88.500
2.948,206.500,-63.500,-8.500,90.000
2.949,205.000,-62.500,-8.500,90.000
2.950,203.500,-61.500,-8.500,89.500
2.951,202.000,-60.000,-8.500,88.500
2.952,200.500,-58.000,-9.000,87.000
2.953,199.000,-56.500,-9.000,85.500
2.954,198.000,-55.000,-10.000,84.000
2.955,197.500,-54.500,-11.000,82.500
2.956,197.000,-54.500,-12.000,81.000
2.957,197.500,-54.500,-13.000,80.000
2.958,199.000,-55.500,-14.000,79.500
2.959,201.000,-56.000,-14.500,79.500
2.960,204.000,-57.000,-15.000,80.500
2.961,207.000,-58.000,-14.500,82.500
2.962,210.000,-59.000,-13.500,84.500
2.963,213.000,-60.000,-12.500,87.000
2.964,215.000,-61.000,-11.500,89.500
2.965,216.000,-61.500,-11.000,92.000
2.966,216.500,-62.500,-10.500,94.000
2.967,215.500,-63.000,-10.000,95.500
2.968,214.000,-63.500,-10.000,96.000
2.969,211.500,-63.500,-10.000,96.000
2.970,208.500,-63.000,-10.500,95.000
2.971,206.000,-62.500,-10.500,94.000
2.972,203.000,-61.500,-11.000,92.000
2.973,201.000,-60.000,-11.500,90.000
2.974,199.500,-59.000,-12.000,88.000
2.975,198.000,-58.000,-12.500,86.000
2.976,197.500,-57.500,-13.500,84.500
2.977,198.000,-57.500,-14.000,83.000
2.978,199.500,-58.000,-14.500,82.500
2.979,202.000,-59.000,-15.000,82.500
2.980,205.500,-60.500,-15.500,83.000
2.981,210.000,-62.000,-16.000,84.000
2.982,214.500,-64.000,-16.000,85.500
2.983,218.500,-65.500,-15.500,87.000
2.984,222.000,-66.500,-15.500,89.000
2.985,224.500,-67.000,-15.000,91.500
2.986,226.000,-67.500,-14.000,93.500
2.987,226.500,-67.000,-13.500,95.000
2.988,226.000,-66.000,-13.000,96.500
2.989,224.500,-64.500,-12.000,97.500
2.990,223.000,-62.500,-11.500,97.500
2.991,221.000,-60.500,-11.000,97.000
2.992,218.500,-58.500,-11.000,96.000
2.993,216.500,-57.000,-11.500,94.000
2.994,214.500,-55.500,-12.000,92.000
2.995,213.000,-54.000,-12.500,90.000
2.996,212.500,-53.500,-13.000,88.500
2.997,212.500,-53.500,-13.500,87.000
2.998,213.000,-54.000,-14.000,86.000
2.999,215.000,-54.500,-14.500,85.500
3.000,217.500,-56.000,-15.000,86.000
3.001,220.500,-57.500,-15.500,87.000
3.002,223.500,-59.500,-16.000,88.000
3.003,227.000,-61.500,-16.000,89.500
3.004,229.500,-63.000,-16.000,91.500
3.005,231.500,-64.500,-16.000,93.000
3.006,233.000,-65.500,-15.500,94.500
3.007,233.500,-65.500,-15.000,95.500
3.008,233.000,-65.500,-14.500,96.500
3.009,232.000,-64.500,-14.000,97.500
3.010,230.500,-63.000,-13.000,97.500
3.011,228.000,-61.000,-12.500,96.500
3.012,226.000,-59.000,-12.500,95.500
3.013,223.500,-57.500,-12.500,93.500
3.014,222.000,-56.000,-12.500,91.500
3.015,221.000,-54.500,-13.000,89.500
3.016,220.500,-54.000,-13.500,87.500
3.017,221.000,-53.500,-14.500,85.500
3.018,223.000,-54.000,-15.000,84.500
3.019,225.500,-55.000,-15.500,83.500
3.020,228.500,-56.000,-15.500,83.500
3.021,232.500,-57.000,-15.500,84.000
3.022,237.000,-58.500,-15.500,85.500
3.023,240.500,-59.500,-15.000,87.000
3.024,243.500,-60.500,-14.000,89.000
3.025,245.500,-61.000,-13.500,91.500
3.026,246.000,-61.000,-12.500,93.500
3.027,245.500,-61.000,-12.000,95.000
3.028,244.000,-60.500,-11.500,96.000
3.029,242.000,-59.500,-11.000,96.000
3.030,239.500,-58.500,-10.500,96.000
3.031,236.500,-57.000,-10.500,95.000
3.032,233.500,-55.500,-11.000,94.000
3.033,230.500,-54.500,-11.000,92.500
3.034,228.500,-53.000,-11.500,90.500
3.035,227.500,-52.500,-12.000,89.000
3.036,227.500,-51.500,-12.500,88.000
3.037,228.500,-51.500,-12.500,87.500
3.038,230.500,-51.500,-13.000,87.000
3.039,233.500,-52.000,-13.000,87.500
3.040,236.500,-53.000,-12.500,88.500
3.041,240.000,-54.000,-12.500,89.500
3.042,243.500,-55.000,-12.000,91.500
3.043,246.500,-56.000,-11.500,93.000
3.044,250.000,-57.000,-11.000,95.500
3.045,253.000,-58.000,-10.500,97.500
3.046,255.000,-58.000,-9.500,100.000
3.047,256.500,-58.000,-8.500,102.000
3.048,257.000,-57.000,-7.500,104.000
3.049,256.500,-56.000,-6.500,105.000
3.050,255.500,-54.500,-5.500,105.500
3.051,253.500,-53.000,-5.000,105.500
3.052,251.000,-51.000,-4.500,104.500
3.053,249.000,-49.500,-4.500,103.000
3.054,247.500,-48.000,-4.500,101.500
3.055,247.000,-47.000,-5.000,100.000
3.056,247.000,-46.500,-5.000,99.000
3.057,247.500,-46.000,-5.500,98.000
3.058,249.000,-46.000,-6.000,97.000
3.059,251.000,-46.500,-6.000,97.000
3.060,254.500,-47.500,-6.500,98.000
3.061,258.500,-48.500,-6.500,99.000
3.062,263.000,-50.000,-7.000,101.000
3.063,267.500,-51.500,-6.500,103.500
3.064,271.500,-52.500,-6.000,106.000
3.065,274.000,-53.000,-5.000,109.000
3.066,276.000,-53.000,-4.000,111.500
3.067,277.000,-52.500,-3.000,113.500
3.068,277.000,-51.500,-2.000,115.500
3.069,276.000,-50.500,-1.000,116.000
3.070,274.500,-48.500,0.000,116.000
3.071,272.000,-47.000,0.500,115.500
3.072,270.000,-45.000,1.000,114.000
3.073,267.500,-43.000,1.000,112.500
3.074,265.500,-41.500,1.000,111.000
3.075,264.000,-40.500,0.500,109.500
3.076,263.500,-40.000,-0.500,108.000
3.077,263.500,-40.000,-1.000,107.000
3.078,265.000,-40.500,-1.500,106.500
3.079,267.500,-41.000,-2.000,106.500
3.080,271.000,-42.000,-2.500,107.000
3.081,275.000,-43.000,-3.000,108.500
3.082,279.500,-44.000,-3.000,111.000
3.083,284.000,-45.000,-3.000,114.500
3.084,288.000,-46.000,-2.000,117.500
3.085,291.500,-46.500,-1.000,121.000
3.086,294.000,-46.500,0.000,124.500
3.087,295.500,-46.000,1.000,127.000
3.088,296.500,-45.000,2.000,129.000
3.089,296.500,-44.000,2.500,131.000
3.090,296.000,-42.500,3.500,132.500
3.091,295.500,-40.500,4.000,133.500
3.092,295.500,-39.000,5.000,135.000
3.093,296.000,-37.000,5.500,136.000
3.094,297.500,-35.000,6.000,137.500
3.095,300.500,-33.500,6.000,139.000
3.096,305.000,-32.000,7.000,141.000
3.097,311.000,-31.000,8.000,144.000
3.098,318.500,-30.000,9.500,147.500
3.099,328.000,-29.500,11.000,152.500
3.100,338.500,-29.000,13.500,158.500
