'Elapsed time','AECG1','AECG2','AECG3','AECG4'
'seconds','uV','uV','uV','uV'
0.000,29.000,19.000,55.500,52.500
0.001,37.500,27.500,63.500,61.000
0.002,45.500,35.000,71.500,68.500
0.003,52.000,41.500,78.000,75.000
0.004,56.500,46.500,83.000,80.000
0.005,59.000,49.000,86.000,83.000
0.006,59.000,49.500,86.000,83.500
0.007,57.500,48.000,85.000,82.500
0.008,55.500,46.500,84.000,81.500
0.009,54.500,45.500,83.500,81.500
0.010,53.500,45.500,83.500,81.500
0.011,53.500,45.500,84.000,81.500
0.012,54.000,46.000,84.500,82.000
0.013,54.000,46.000,84.500,82.000
0.014,54.000,46.000,84.500,82.000
0.015,53.500,45.500,83.500,81.000
0.016,52.500,45.000,82.500,80.000
0.017,51.500,44.000,81.500,78.500
0.018,51.000,43.500,81.000,77.500
0.019,50.500,43.000,80.500,77.500
0.020,50.500,43.000,80.500,77.500
0.021,51.000,43.500,81.000,78.000
0.022,52.000,44.500,82.000,79.000
0.023,53.000,46.000,83.000,80.500
0.024,55.000,47.500,85.000,82.000
0.025,57.000,50.000,87.000,84.500
0.026,59.000,52.500,89.500,87.000
0.027,61.000,54.500,91.500,89.500
0.028,62.000,55.500,93.000,90.500
0.029,62.000,56.000,93.000,91.000
0.030,62.000,55.500,93.000,91.000
0.031,62.000,55.500,93.000,91.000
0.032,62.500,55.500,93.500,91.000
0.033,62.500,55.000,93.000,91.000
0.034,62.000,55.000,92.500,90.000
0.035,61.500,54.000,91.500,89.000
0.036,61.000,53.500,91.000,88.500
0.037,61.000,53.000,90.500,88.000
0.038,61.500,53.500,90.500,88.000
0.039,62.000,54.000,91.500,88.500
0.040,63.000,54.500,92.000,89.000
0.041,63.500,55.000,92.500,89.500
0.042,64.000,55.500,92.500,90.000
0.043,64.500,56.000,93.000,90.500
0.044,65.000,56.500,93.500,91.000
0.045,66.000,57.500,94.500,92.000
0.046,66.500,58.500,95.000,93.000
0.047,68.000,60.000,96.500,94.500
0.048,69.500,62.000,98.500,96.500
0.049,71.000,64.000,100.500,98.500
0.050,72.500,66.000,102.000,100.500
0.051,73.500,67.000,103.000,101.500
0.052,74.000,67.000,103.500,102.000
0.053,74.000,67.500,103.500,102.000
0.054,74.000,67.500,103.500,102.000
0.055,74.000,67.500,104.000,102.000
0.056,74.500,68.500,104.500,102.500
0.057,75.500,69.500,105.000,103.000
0.058,76.500,70.500,106.000,103.500
0.059,77.500,71.500,106.500,104.000
0.060,78.000,72.000,107.000,104.500
0.061,78.500,72.000,106.500,104.000
0.062,78.500,72.000,106.500,104.000
0.063,79.000,72.500,107.000,104.000
0.064,80.500,74.000,108.000,105.500
0.065,82.000,75.500,110.000,107.500
0.066,84.000,77.500,112.500,110.000
0.067,85.500,79.000,114.000,111.500
0.068,86.500,80.500,115.500,113.500
0.069,87.500,82.000,117.500,115.000
0.070,89.000,83.500,118.500,116.500
0.071,90.000,84.500,120.000,117.500
0.072,90.500,85.500,120.500,118.500
0.073,91.000,85.500,120.500,118.500
0.074,91.000,85.500,120.500,118.500
0.075,91.000,85.500,120.000,118.500
0.076,90.500,85.500,120.000,118.000
0.077,90.500,85.000,120.000,118.000
0.078,90.000,85.000,120.000,118.000
0.079,90.000,85.500,120.000,118.000
0.080,90.500,85.500,121.000,118.500
0.081,91.000,86.000,121.500,119.000
0.082,91.500,86.500,122.000,119.500
0.083,92.000,87.500,123.000,120.500
0.084,93.000,88.500,124.000,121.500
0.085,94.000,90.000,125.500,123.000
0.086,96.000,92.000,127.500,125.000
0.087,97.500,94.000,130.000,127.500
0.088,99.500,96.000,132.000,130.000
0.089,100.500,97.500,134.500,132.000
0.090,101.500,98.500,136.000,133.500
0.091,102.500,99.500,137.000,134.500
0.092,102.500,99.500,137.000,135.500
0.093,102.500,99.500,137.500,135.500
0.094,102.500,99.500,137.500,136.000
0.095,102.000,99.500,137.000,135.500
0.096,102.000,99.500,137.000,135.500
0.097,101.500,99.000,137.000,135.000
0.098,101.500,99.500,136.500,135.000
0.099,102.000,99.500,137.000,135.000
0.100,102.500,100.000,137.000,135.500
0.101,103.500,101.000,138.000,136.500
0.102,105.000,103.000,139.500,138.000
0.103,107.000,105.000,141.000,140.000
0.104,108.500,107.000,143.000,141.500
0.105,110.000,108.500,144.000,143.500
0.106,111.000,109.500,145.500,145.000
0.107,112.000,110.500,146.500,146.500
0.108,112.500,112.000,148.000,147.500
0.109,113.000,113.000,149.000,149.000
0.110,113.500,113.500,150.000,150.000
0.111,114.000,114.500,151.000,151.000
0.112,115.000,115.500,152.000,152.000
0.113,116.500,117.000,153.500,153.500
0.114,118.000,118.500,155.000,155.000
0.115,120.000,120.000,156.500,156.500
0.116,121.500,121.500,158.000,157.500
0.117,123.000,123.000,159.000,158.500
0.118,124.500,124.000,160.000,159.500
0.119,125.500,125.000,161.500,160.000
0.120,126.500,126.000,162.000,161.000
0.121,127.000,126.000,162.500,161.000
0.122,127.500,126.500,163.000,161.500
0.123,127.500,127.000,164.000,162.000
0.124,128.500,128.000,165.000,163.500
0.125,129.500,129.500,166.500,165.000
0.126,131.500,131.500,168.500,167.500
0.127,134.500,134.000,171.000,170.000
0.128,137.000,137.000,174.000,173.500
0.129,140.000,140.000,177.000,176.500
0.130,143.000,143.000,180.000,180.000
0.131,145.500,145.500,183.000,183.000
0.132,148.000,148.000,185.500,185.000
0.133,150.000,150.000,187.500,187.000
0.134,151.500,151.500,189.000,188.500
0.135,152.500,152.500,190.000,189.000
0.136,153.500,153.000,190.500,189.500
0.137,155.000,154.500,191.500,190.500
0.138,157.000,156.000,193.000,192.000
0.139,159.500,158.000,195.000,193.500
0.140,162.000,160.000,197.000,195.500
0.141,164.500,162.000,198.500,197.000
0.142,166.500,163.500,200.500,199.000
0.143,169.000,166.000,203.000,201.000
0.144,171.500,168.000,205.500,203.500
0.145,173.500,170.500,207.500,206.000
0.146,175.000,171.500,209.000,207.500
0.147,176.000,172.500,210.000,208.500
0.148,177.000,174.000,211.000,210.000
0.149,178.500,175.500,212.500,212.000
0.150,180.500,177.000,214.500,214.000
0.151,182.500,178.500,216.000,216.000
0.152,184.000,180.000,217.500,217.500
0.153,185.500,181.000,218.500,218.500
0.154,187.000,181.500,219.500,219.000
0.155,188.000,182.500,220.500,220.000
0.156,189.500,183.500,221.500,221.000
0.157,190.500,184.500,222.500,221.500
0.158,191.500,185.500,223.000,222.500
0.159,192.500,186.000,223.500,222.500
0.160,193.500,187.000,224.000,223.000
0.161,194.500,187.500,224.500,223.500
0.162,195.500,188.500,225.000,224.000
0.163,196.500,189.500,226.000,225.000
0.164,198.000,191.000,227.000,226.500
0.165,199.500,192.500,228.500,228.500
0.166,201.000,194.500,230.500,230.000
0.167,202.500,196.500,232.000,232.500
0.168,204.000,198.000,234.000,234.500
0.169,206.000,200.000,236.000,236.500
0.170,208.000,202.000,238.000,239.000
0.171,209.500,203.500,239.500,240.500
0.172,210.500,205.000,241.000,242.000
0.173,211.000,205.500,242.000,242.500
0.174,211.500,206.000,242.500,242.500
0.175,211.500,206.000,242.000,242.000
0.176,211.000,205.000,241.500,241.500
0.177,211.000,204.500,240.500,240.500
0.178,210.000,203.500,240.000,239.500
0.179,209.500,202.500,239.000,238.000
0.180,209.000,202.000,238.000,237.000
0.181,208.500,201.500,237.000,236.500
0.182,208.000,201.000,236.500,235.500
0.183,207.500,201.000,236.000,235.500
0.184,207.500,200.500,235.500,235.000
0.185,206.500,200.000,235.000,234.500
0.186,206.000,199.000,234.000,234.000
0.187,205.000,198.000,233.000,233.000
0.188,203.500,197.000,232.000,232.000
0.189,202.500,195.500,231.000,231.000
0.190,201.000,194.000,230.000,229.500
0.191,199.000,192.000,228.500,227.500
0.192,197.000,190.500,226.500,226.000
0.193,195.000,188.500,224.500,224.000
0.194,193.000,186.000,222.000,221.500
0.195,191.000,184.000,219.500,219.000
0.196,189.000,182.000,217.000,216.500
0.197,186.500,180.000,214.500,214.000
0.198,184.000,177.500,212.000,211.500
0.199,181.500,174.500,209.000,208.500
0.200,179.500,172.500,207.000,206.000
0.201,177.500,170.500,204.500,204.000
0.202,176.000,169.000,203.000,202.500
0.203,174.000,167.500,201.500,201.000
0.204,172.000,165.500,199.500,199.000
0.205,169.000,163.500,197.500,197.000
0.206,166.000,160.500,195.000,194.500
0.207,163.000,157.500,192.500,192.000
0.208,160.000,155.000,190.500,189.500
0.209,157.500,153.000,188.500,187.500
0.210,155.500,151.000,186.500,185.500
0.211,153.000,149.000,184.000,183.500
0.212,150.500,146.500,181.500,181.500
0.213,148.000,144.000,179.500,179.000
0.214,145.500,142.000,177.000,177.000
0.215,143.500,140.000,175.000,174.500
0.216,141.500,138.000,173.000,172.500
0.217,140.000,136.000,171.000,170.000
0.218,138.000,134.000,169.000,167.500
0.219,136.000,131.500,166.500,165.000
0.220,133.500,129.000,164.000,162.500
0.221,131.000,126.000,161.500,160.000
0.222,128.500,124.000,159.500,157.500
0.223,127.000,122.500,158.000,156.000
0.224,125.500,121.500,157.000,155.500
0.225,124.500,120.500,156.500,155.500
0.226,123.500,119.500,156.000,155.000
0.227,121.000,118.000,154.500,153.500
0.228,118.500,115.500,152.000,152.000
0.229,115.000,113.000,150.000,149.500
0.230,112.000,110.500,147.500,147.000
0.231,109.000,108.000,145.500,145.000
0.232,106.500,106.000,144.000,143.500
0.233,104.000,104.500,142.500,142.000
0.234,102.500,103.000,141.000,140.500
0.235,101.000,101.500,139.500,139.500
0.236,99.500,100.500,138.500,139.000
0.237,99.000,99.500,137.500,138.000
0.238,98.000,98.000,136.500,137.000
0.239,96.500,96.500,134.000,134.500
0.240,95.000,94.500,131.500,131.500
0.241,93.500,92.000,128.000,127.500
0.242,92.500,90.000,125.000,124.000
0.243,92.500,88.500,122.000,121.000
0.244,93.000,88.500,120.500,119.000
0.245,94.000,88.500,119.500,118.000
0.246,95.000,89.500,119.500,117.500
0.247,96.000,90.000,119.500,118.000
0.248,96.500,90.500,120.000,118.000
0.249,97.000,90.500,120.000,118.500
0.250,96.500,90.500,120.500,118.500
0.251,96.500,90.500,120.500,119.000
0.252,96.000,90.500,121.000,119.000
0.253,95.500,90.500,121.500,119.500
0.254,94.500,90.500,121.500,119.500
0.255,93.500,89.500,121.000,119.000
0.256,92.000,88.500,120.000,118.000
0.257,90.000,87.000,119.000,117.000
0.258,88.000,85.000,117.500,115.500
0.259,86.000,83.000,116.500,114.500
0.260,84.500,82.000,116.000,114.000
0.261,84.000,81.000,115.500,114.000
0.262,83.500,80.500,115.000,113.500
0.263,83.500,80.500,115.000,113.500
0.264,83.500,80.000,114.500,113.000
0.265,83.500,80.000,114.000,113.000
0.266,83.500,80.000,114.500,113.500
0.267,83.500,81.000,115.000,114.000
0.268,84.000,81.500,115.500,114.500
0.269,84.000,81.500,116.000,115.000
0.270,83.500,81.500,115.500,115.000
0.271,83.000,81.500,115.500,114.500
0.272,82.500,81.000,115.000,114.000
0.273,82.000,80.500,114.000,113.500
0.274,81.500,80.000,113.500,113.000
0.275,81.000,79.500,112.500,112.000
0.276,80.000,78.500,111.500,111.000
0.277,78.500,77.500,110.500,109.500
0.278,77.500,76.500,109.500,108.500
0.279,77.000,75.500,109.000,107.500
0.280,76.500,75.500,108.500,107.000
0.281,76.500,75.000,108.500,106.500
0.282,76.500,74.500,108.500,106.500
0.283,76.500,74.500,108.500,106.000
0.284,76.500,74.500,108.500,106.500
0.285,77.000,75.000,109.000,107.000
0.286,78.000,75.500,109.500,108.000
0.287,79.000,76.500,110.500,109.500
0.288,80.000,77.500,111.500,111.000
0.289,81.000,78.500,112.500,112.000
0.290,81.500,79.000,113.000,113.000
0.291,82.000,79.000,113.000,113.000
0.292,81.500,79.000,113.000,113.000
0.293,81.000,78.000,112.000,112.000
0.294,80.000,77.000,111.000,110.500
0.295,79.000,76.000,110.000,109.500
0.296,78.500,75.000,109.500,108.500
0.297,78.000,74.000,108.500,107.500
0.298,77.000,73.000,108.000,106.500
0.299,76.500,72.500,107.000,105.500
0.300,76.000,71.500,106.000,104.500
0.301,76.000,71.500,105.500,104.000
0.302,76.500,72.000,106.000,104.500
0.303,77.000,72.500,106.500,105.000
0.304,78.000,73.500,107.500,106.500
0.305,79.000,75.000,109.000,108.000
0.306,79.500,76.000,110.000,109.500
0.307,80.000,77.000,111.000,110.500
0.308,80.000,78.000,112.000,111.500
0.309,80.000,78.000,112.500,112.000
0.310,79.500,78.000,112.500,112.000
0.311,79.000,78.000,112.500,112.000
0.312,78.500,77.500,112.000,111.500
0.313,77.500,77.000,111.500,110.500
0.314,77.000,76.000,111.000,110.000
0.315,76.000,75.500,110.500,109.000
0.316,75.500,75.000,110.000,108.000
0.317,75.000,74.500,109.500,107.500
0.318,75.000,74.500,109.000,107.000
0.319,75.000,74.500,108.500,106.500
0.320,75.000,74.500,109.000,106.500
0.321,75.500,75.000,109.000,106.500
0.322,75.500,75.500,109.500,107.000
0.323,76.000,76.000,110.000,107.500
0.324,76.500,76.500,110.500,108.000
0.325,77.000,77.500,111.500,109.500
0.326,77.500,78.500,112.500,110.500
0.327,78.000,79.500,113.500,111.500
0.328,78.500,80.000,114.500,112.500
0.329,79.000,80.500,114.500,113.000
0.330,78.500,80.500,114.500,113.000
0.331,78.000,80.000,114.000,112.500
0.332,77.000,79.000,113.500,112.000
0.333,76.000,78.000,112.500,111.000
0.334,75.500,77.000,111.500,110.000
0.335,74.500,76.000,110.500,108.500
0.336,74.000,75.000,109.500,107.500
0.337,74.000,74.500,109.000,107.000
0.338,74.000,74.500,109.000,106.500
0.339,74.500,74.500,109.000,106.000
0.340,75.000,74.500,109.000,106.500
0.341,76.000,75.000,110.000,107.000
0.342,77.000,76.000,110.500,108.000
0.343,77.500,76.500,111.000,108.500
0.344,78.000,76.500,111.500,109.000
0.345,78.500,77.000,112.500,110.000
0.346,79.500,78.000,113.000,110.500
0.347,80.500,79.000,114.500,112.000
0.348,82.000,80.500,116.000,113.500
0.349,83.000,81.500,117.000,115.000
0.350,83.500,82.500,118.000,116.000
0.351,83.000,82.500,118.000,116.000
0.352,82.500,81.500,117.000,115.500
0.353,81.500,80.500,116.000,114.500
0.354,80.500,79.500,115.000,113.000
0.355,80.000,78.500,114.000,112.000
0.356,79.500,77.500,113.500,111.000
0.357,79.000,76.500,112.500,110.000
0.358,78.500,75.500,112.000,109.000
0.359,78.000,75.000,111.500,108.500
0.360,78.000,75.000,111.000,108.000
0.361,78.500,75.500,111.500,108.000
0.362,79.500,76.500,112.500,109.000
0.363,80.500,78.000,113.500,110.000
0.364,81.500,79.000,114.500,111.000
0.365,82.000,80.000,115.000,112.000
0.366,82.500,80.000,115.500,112.500
0.367,82.500,80.000,115.500,113.000
0.368,82.500,80.000,116.000,113.500
0.369,82.500,80.000,116.000,114.000
0.370,82.500,79.500,116.000,114.000
0.371,82.000,79.000,115.500,113.500
0.372,81.500,78.500,115.000,113.000
0.373,81.000,77.500,114.000,112.000
0.374,80.500,77.000,113.500,111.000
0.375,80.000,76.000,112.500,110.500
0.376,79.500,75.500,112.000,109.500
0.377,79.500,75.000,111.500,108.500
0.378,79.500,75.000,111.000,108.000
0.379,79.500,74.500,110.500,107.500
0.380,79.500,74.500,110.000,107.000
0.381,79.500,74.000,109.500,107.000
0.382,79.500,73.500,109.000,106.500
0.383,79.500,73.500,109.000,106.000
0.384,79.000,73.500,109.000,106.500
0.385,79.000,74.000,109.500,107.000
0.386,79.500,74.500,110.000,107.500
0.387,79.500,75.000,110.500,108.500
0.388,79.500,75.000,110.500,109.000
0.389,79.000,75.000,110.500,109.000
0.390,78.500,74.500,110.000,109.000
0.391,77.500,73.500,109.000,108.000
0.392,76.500,72.000,108.000,106.500
0.393,75.500,71.000,106.500,105.500
0.394,74.500,70.000,105.500,104.000
0.395,73.500,69.500,104.500,103.000
0.396,73.000,68.500,103.500,101.500
0.397,72.500,68.000,103.000,100.500
0.398,72.000,68.000,102.500,100.000
0.399,72.000,68.000,102.000,99.500
0.400,72.500,68.500,102.000,99.500
0.401,72.500,69.000,102.000,99.500
0.402,73.500,69.500,102.500,100.000
0.403,74.000,70.000,103.500,101.000
0.404,75.000,71.000,104.000,101.500
0.405,75.500,71.500,105.000,102.500
0.406,76.000,72.000,105.500,103.500
0.407,76.500,73.000,106.500,104.500
0.408,77.000,73.500,107.500,105.000
0.409,77.500,74.000,108.000,106.000
0.410,77.500,74.000,108.500,106.500
0.411,77.000,73.500,108.000,106.000
0.412,76.000,72.500,107.000,105.000
0.413,74.000,71.000,105.500,103.500
0.414,72.500,69.500,104.000,102.000
0.415,72.000,68.500,103.000,101.000
0.416,71.500,68.000,102.500,100.500
0.417,71.500,68.000,102.000,100.000
0.418,71.500,67.500,101.500,99.000
0.419,71.000,67.000,101.000,98.500
0.420,71.000,67.000,101.000,98.500
0.421,72.000,67.500,101.500,98.500
0.422,72.500,68.500,102.000,99.500
0.423,73.500,69.000,103.000,100.000
0.424,74.500,70.000,103.500,101.000
0.425,75.500,70.500,104.500,102.000
0.426,76.000,71.000,105.000,102.500
0.427,76.500,71.000,105.000,103.000
0.428,76.500,71.000,105.000,103.000
0.429,76.000,71.000,105.000,103.500
0.430,76.000,70.500,105.000,103.500
0.431,75.000,70.500,104.500,103.000
0.432,74.500,69.500,104.000,102.500
0.433,73.500,68.500,103.500,101.500
0.434,72.500,67.500,102.500,100.500
0.435,71.500,66.500,101.500,99.000
0.436,70.500,65.000,100.500,98.000
0.437,70.000,64.500,99.500,97.000
0.438,69.500,64.000,99.000,96.500
0.439,69.500,64.000,99.000,96.500
0.440,70.000,65.000,99.500,97.000
0.441,71.500,66.000,101.000,98.500
0.442,73.000,67.500,102.500,100.000
0.443,74.000,69.000,103.500,101.500
0.444,74.500,69.500,104.500,102.500
0.445,74.500,70.000,105.000,102.500
0.446,74.000,70.000,105.000,103.000
0.447,74.000,70.000,105.000,103.000
0.448,74.000,70.000,105.000,103.500
0.449,73.500,69.500,105.000,103.500
0.450,73.500,69.500,105.000,103.500
0.451,73.000,69.000,104.500,103.500
0.452,73.000,69.000,104.500,103.500
0.453,73.000,68.500,104.500,103.000
0.454,73.000,68.500,104.000,102.500
0.455,73.000,67.500,103.500,102.000
0.456,72.500,67.000,102.500,101.000
0.457,71.500,66.000,101.500,99.500
0.458,71.000,65.000,100.500,98.500
0.459,70.000,64.000,99.500,97.000
0.460,69.500,64.000,99.000,96.500
0.461,70.000,64.000,99.500,96.500
0.462,71.000,65.000,100.000,97.500
0.463,72.000,66.500,101.500,98.500
0.464,73.500,68.000,103.000,100.500
0.465,75.500,70.000,104.500,102.000
0.466,77.000,71.500,106.500,104.000
0.467,78.000,73.000,107.500,105.500
0.468,79.000,74.000,109.000,107.500
0.469,80.000,75.500,110.000,108.500
0.470,81.000,76.500,111.500,110.000
0.471,82.500,78.000,113.000,112.000
0.472,84.000,80.000,114.500,113.500
0.473,85.500,82.000,116.500,115.500
0.474,87.500,84.000,118.500,117.000
0.475,89.500,86.000,120.500,119.000
0.476,91.000,87.500,122.000,120.500
0.477,92.500,89.000,123.500,121.500
0.478,94.000,90.000,124.500,122.500
0.479,95.000,91.500,126.000,124.000
0.480,97.000,93.000,127.500,125.500
0.481,98.500,95.000,129.500,127.500
0.482,100.500,97.500,131.000,129.000
0.483,102.500,99.000,133.000,131.000
0.484,104.000,101.000,134.500,132.500
0.485,105.000,102.500,136.000,134.000
0.486,106.500,104.000,138.000,136.000
0.487,107.500,105.500,139.000,137.500
0.488,107.500,105.500,139.500,138.000
0.489,107.000,104.000,138.500,137.000
0.490,104.500,102.000,136.000,135.000
0.491,101.500,98.500,133.000,132.000
0.492,98.500,95.500,129.500,129.000
0.493,96.000,92.500,126.500,126.000
0.494,94.000,90.000,124.000,123.500
0.495,92.500,88.500,122.500,121.500
0.496,92.000,87.500,122.000,120.500
0.497,92.500,88.000,122.000,121.000
0.498,95.000,90.000,124.000,122.500
0.499,98.500,93.000,127.000,125.000
0.500,103.000,97.500,131.500,129.500
0.501,108.500,102.500,136.500,134.000
0.502,113.500,107.500,141.500,139.000
0.503,119.000,113.000,146.500,144.000
0.504,123.500,117.500,151.000,149.000
0.505,127.500,122.000,155.500,153.000
0.506,130.500,125.500,159.000,157.000
0.507,133.000,128.500,162.500,160.500
0.508,135.000,131.000,165.000,163.000
0.509,136.500,133.000,167.000,165.000
0.510,137.500,134.000,168.000,166.500
0.511,137.500,134.000,168.500,167.000
0.512,136.500,133.500,167.500,166.500
0.513,135.000,131.500,166.000,165.000
0.514,132.000,128.500,163.000,162.000
0.515,128.000,124.500,158.500,157.500
0.516,122.500,119.000,153.500,152.500
0.517,117.000,113.500,147.500,146.500
0.518,111.500,108.000,142.000,141.000
0.519,106.000,103.000,137.000,135.500
0.520,102.000,98.000,132.000,130.500
0.521,98.500,94.500,128.500,127.000
0.522,96.500,91.500,126.000,124.500
0.523,95.500,90.500,125.000,123.000
0.524,95.000,90.000,124.500,122.500
0.525,95.000,89.500,124.000,122.500
0.526,94.500,89.000,123.000,122.000
0.527,93.500,88.500,122.000,121.500
0.528,92.500,87.500,121.500,121.000
0.529,92.000,86.500,121.000,120.500
0.530,91.000,86.000,120.500,120.000
0.531,90.500,85.500,120.000,119.500
0.532,90.000,85.000,120.000,119.000
0.533,89.500,84.500,119.000,118.000
0.534,88.500,83.000,118.000,116.500
0.535,87.000,81.500,116.000,114.500
0.536,85.500,79.500,114.000,112.500
0.537,84.000,77.500,112.000,110.500
0.538,82.500,76.000,110.500,109.000
0.539,81.500,75.000,109.500,108.000
0.540,80.500,74.500,109.000,107.000
0.541,80.500,74.500,109.000,107.000
0.542,80.500,75.000,109.000,107.000
0.543,80.500,75.000,109.000,106.500
0.544,80.000,75.000,109.000,106.500
0.545,78.500,74.000,107.500,105.500
0.546,76.500,72.500,106.000,104.000
0.547,74.500,70.500,104.000,102.500
0.548,72.000,68.000,102.000,100.500
0.549,70.000,66.000,100.000,98.500
0.550,68.000,64.000,98.500,97.000
0.551,66.500,62.500,97.000,95.500
0.552,65.500,61.000,96.000,94.000
0.553,64.500,60.000,95.000,92.500
0.554,64.000,59.000,94.000,91.500
0.555,63.500,58.500,93.000,90.500
0.556,63.000,58.500,92.000,90.000
0.557,62.000,57.500,91.500,89.000
0.558,61.000,56.500,90.000,87.500
0.559,60.000,56.000,89.500,86.500
0.560,59.500,55.000,88.500,86.000
0.561,59.500,54.500,88.500,85.500
0.562,59.000,54.500,88.000,85.000
0.563,59.000,54.000,88.000,84.500
0.564,58.500,54.000,87.500,84.000
0.565,58.500,53.500,87.000,84.000
0.566,58.000,53.500,86.500,84.000
0.567,57.500,53.500,86.500,84.500
0.568,57.500,53.500,86.500,85.000
0.569,58.000,54.000,87.000,86.000
0.570,58.500,54.500,87.500,86.500
0.571,59.000,55.000,88.000,87.500
0.572,59.500,55.500,88.500,88.000
0.573,60.000,55.500,89.000,88.500
0.574,60.500,56.000,89.500,89.000
0.575,60.500,56.500,90.000,89.000
0.576,61.000,56.500,90.000,89.000
0.577,60.500,56.500,90.000,89.000
0.578,60.500,56.500,90.000,88.500
0.579,60.000,56.000,89.000,87.500
0.580,60.000,55.500,88.500,87.000
0.581,60.000,55.000,88.500,86.500
0.582,60.500,55.500,88.500,87.000
0.583,60.500,55.500,88.500,87.000
0.584,61.000,55.500,89.000,87.500
0.585,61.000,56.000,89.000,88.000
0.586,61.000,56.500,89.500,88.500
0.587,61.500,57.000,90.000,89.000
0.588,62.500,58.000,91.000,90.000
0.589,63.000,58.500,91.500,90.500
0.590,63.000,58.500,91.500,90.500
0.591,63.000,58.000,91.500,90.500
0.592,62.500,57.500,91.000,90.000
0.593,62.500,57.500,91.000,90.000
0.594,62.500,57.500,91.000,90.000
0.595,62.500,57.500,90.500,89.500
0.596,62.000,57.000,90.500,89.000
0.597,61.000,56.000,89.500,88.000
0.598,60.000,55.000,88.500,87.000
0.599,59.500,54.000,87.500,85.500
0.600,59.000,53.500,86.500,85.000
0.601,58.500,53.500,86.000,84.500
0.602,59.000,54.000,86.500,85.000
0.603,59.500,55.000,87.500,85.500
0.604,60.500,56.000,88.500,87.000
0.605,61.500,57.000,89.500,88.000
0.606,62.000,58.000,90.000,89.000
0.607,62.000,58.000,90.500,89.500
0.608,62.000,58.000,90.500,89.500
0.609,61.500,58.000,90.000,89.500
0.610,61.500,57.500,90.000,89.500
0.611,61.000,57.500,90.000,89.500
0.612,61.000,57.500,90.000,89.500
0.613,60.500,57.500,89.500,89.000
0.614,60.000,57.000,89.500,89.000
0.615,60.000,56.500,89.000,88.500
0.616,59.500,56.000,88.000,88.000
0.617,59.000,55.000,87.500,87.000
0.618,58.000,54.000,86.500,86.000
0.619,57.000,53.000,85.500,85.000
0.620,56.000,52.000,84.500,84.000
0.621,55.500,51.500,84.500,83.500
0.622,55.500,51.500,84.500,84.000
0.623,55.500,52.000,85.000,84.500
0.624,56.000,52.000,86.000,85.500
0.625,56.000,52.000,86.000,86.000
0.626,55.000,51.000,85.500,86.000
0.627,54.500,50.500,85.500,86.000
0.628,54.000,50.500,85.500,86.500
0.629,54.500,51.500,86.500,88.000
0.630,56.000,52.500,88.500,90.500
0.631,57.500,54.000,90.000,92.500
0.632,58.500,55.000,91.000,94.000
0.633,59.500,55.500,91.500,94.500
0.634,60.500,55.500,91.500,94.500
0.635,62.500,56.500,91.500,94.500
0.636,65.500,58.500,92.500,95.000
0.637,70.500,62.000,95.500,97.500
0.638,78.000,68.500,100.500,102.000
0.639,88.000,77.000,108.500,109.500
0.640,100.000,88.000,118.500,119.000
0.641,113.000,100.500,130.500,130.000
0.642,126.000,113.500,143.000,142.500
0.643,138.000,126.000,155.000,154.500
0.644,149.000,137.000,166.000,166.000
0.645,158.500,146.500,176.000,176.500
0.646,166.500,155.000,185.000,185.500
0.647,173.500,162.500,193.000,194.000
0.648,179.500,170.000,201.000,202.000
0.649,186.500,177.500,209.500,210.500
0.650,194.000,185.500,218.500,220.500
0.651,202.000,194.500,228.500,230.500
0.652,210.500,204.000,238.500,241.000
0.653,218.500,212.500,248.000,251.000
0.654,224.500,220.000,255.500,259.000
0.655,229.000,225.000,261.000,265.000
0.656,232.500,228.500,264.500,268.500
0.657,234.500,231.000,267.500,271.000
0.658,237.000,233.500,270.000,273.500
0.659,240.000,236.500,273.000,276.500
0.660,243.500,240.000,276.500,280.000
0.661,247.500,244.000,280.500,284.000
0.662,251.000,248.000,284.000,287.500
0.663,253.500,250.000,286.000,290.000
0.664,254.000,250.500,286.000,290.000
0.665,252.500,249.000,284.500,289.000
0.666,250.500,246.500,282.500,287.000
0.667,249.000,244.500,280.500,285.000
0.668,248.000,243.500,279.500,284.500
0.669,247.500,243.000,279.000,284.000
0.670,247.000,242.500,278.500,283.500
0.671,246.000,241.500,277.500,282.500
0.672,243.000,238.500,274.500,280.000
0.673,239.000,234.500,270.000,275.000
0.674,232.000,228.000,263.000,268.000
0.675,222.500,218.500,253.500,258.000
0.676,209.500,205.000,240.000,244.000
0.677,192.500,187.500,222.500,226.000
0.678,172.000,167.000,201.500,205.000
0.679,150.000,144.500,179.500,182.000
0.680,129.000,123.000,158.000,160.000
0.681,111.000,105.000,139.500,141.000
0.682,97.000,91.000,125.000,127.000
0.683,87.500,81.500,115.500,117.500
0.684,82.000,75.500,109.500,111.500
0.685,78.500,72.000,106.000,108.000
0.686,77.000,70.000,104.500,106.500
0.687,75.500,69.000,103.500,105.500
0.688,74.000,67.500,102.000,104.000
0.689,71.000,65.000,99.000,101.000
0.690,66.000,60.000,94.000,96.000
0.691,59.000,53.000,86.500,89.000
0.692,50.000,44.500,77.500,80.000
0.693,41.000,35.000,68.000,70.000
0.694,31.500,25.500,58.000,60.000
0.695,23.000,16.500,49.000,51.000
0.696,15.500,8.500,41.000,42.500
0.697,10.000,2.500,34.500,36.000
0.698,6.000,-2.500,29.500,31.000
0.699,3.500,-5.500,26.500,27.500
0.700,3.000,-6.500,25.000,26.000
0.701,4.000,-6.000,25.500,26.000
0.702,6.500,-3.500,27.500,28.000
0.703,10.000,0.000,31.000,32.000
0.704,14.500,4.500,35.500,36.500
0.705,19.000,9.500,41.000,42.000
0.706,24.500,15.000,46.500,48.000
0.707,30.000,21.000,52.500,54.500
0.708,36.000,27.500,59.000,61.500
0.709,42.000,34.000,65.500,68.000
0.710,48.000,40.000,71.500,74.500
0.711,53.500,46.000,77.500,80.500
0.712,59.000,51.500,83.000,86.500
0.713,64.500,57.000,88.000,92.000
0.714,70.000,62.000,93.500,97.000
0.715,74.500,67.000,98.000,101.500
0.716,78.000,70.500,101.500,104.500
0.717,80.500,73.000,103.500,106.500
0.718,81.500,74.000,104.500,107.500
0.719,82.000,75.000,105.000,107.500
0.720,82.500,75.500,105.500,108.000
0.721,83.000,76.500,106.500,108.500
0.722,84.000,77.500,107.500,110.000
0.723,85.000,79.500,109.000,111.500
0.724,86.500,81.500,110.500,113.500
0.725,88.000,83.000,112.000,115.500
0.726,89.000,84.500,113.500,117.000
0.727,89.500,85.000,114.500,118.000
0.728,90.000,86.000,115.000,119.500
0.729,90.000,86.500,116.000,120.000
0.730,90.500,87.000,116.500,120.500
0.731,90.500,87.000,117.000,121.000
0.732,90.000,87.000,117.000,120.500
0.733,89.500,86.500,116.500,120.000
0.734,89.500,86.000,116.000,119.500
0.735,89.000,86.000,116.000,119.000
0.736,89.500,86.000,115.500,118.500
0.737,89.000,86.000,115.000,118.000
0.738,89.000,85.500,114.500,117.500
0.739,88.500,85.500,114.000,117.000
0.740,88.500,85.500,114.000,117.000
0.741,89.000,86.000,114.000,117.000
0.742,89.500,87.000,114.500,117.500
0.743,90.000,87.500,115.000,118.000
0.744,91.000,88.500,116.000,119.000
0.745,92.000,89.500,117.500,120.500
0.746,93.000,90.500,119.000,122.000
0.747,94.000,91.500,120.500,123.500
0.748,95.000,92.500,122.000,125.000
0.749,96.000,93.500,123.500,126.000
0.750,97.000,94.000,124.500,127.000
0.751,97.500,94.500,125.500,128.000
0.752,98.000,95.000,126.000,128.500
0.753,98.000,95.000,126.000,128.500
0.754,98.000,94.500,125.500,128.000
0.755,97.000,93.500,124.500,127.000
0.756,96.000,92.500,123.000,125.500
0.757,95.000,91.500,121.500,124.500
0.758,94.500,91.000,121.000,123.500
0.759,95.000,91.000,121.000,124.000
0.760,95.500,92.000,122.000,124.500
0.761,97.000,93.000,123.000,125.500
0.762,98.000,94.500,124.000,127.000
0.763,99.500,96.000,125.500,128.500
0.764,101.000,97.500,127.000,130.500
0.765,102.000,99.000,128.500,132.000
0.766,103.000,100.000,130.000,133.500
0.767,103.500,101.000,131.000,135.000
0.768,103.500,101.500,131.500,136.000
0.769,103.500,102.000,132.000,137.000
0.770,104.000,102.500,132.500,137.500
0.771,104.000,103.000,133.000,138.500
0.772,104.000,103.000,133.500,138.500
0.773,104.000,103.500,134.000,139.000
0.774,104.000,103.500,134.000,139.000
0.775,104.000,103.500,134.000,139.000
0.776,104.000,103.500,134.500,139.000
0.777,104.500,104.000,134.500,139.000
0.778,105.000,104.000,135.000,139.000
0.779,105.500,105.000,135.000,139.500
0.780,106.000,105.500,136.000,140.000
0.781,107.000,106.500,137.000,141.000
0.782,108.000,108.000,138.000,142.000
0.783,109.000,109.000,139.500,143.500
0.784,110.000,110.000,140.500,144.500
0.785,111.000,111.000,141.500,145.500
0.786,112.000,112.000,142.000,146.500
0.787,113.000,113.500,143.000,148.000
0.788,114.000,114.500,144.500,149.000
0.789,115.000,115.500,145.500,150.500
0.790,115.500,116.000,146.000,151.000
0.791,116.000,116.500,146.500,151.500
0.792,116.500,117.000,147.000,152.000
0.793,117.000,117.500,147.500,152.500
0.794,117.500,118.000,148.000,153.000
0.795,118.500,118.500,148.500,153.500
0.796,119.000,119.000,148.500,154.000
0.797,119.500,119.500,149.000,154.000
0.798,120.000,120.000,149.500,154.500
0.799,120.500,120.500,150.000,155.000
0.800,121.000,121.000,151.000,155.500
0.801,122.000,122.000,152.000,156.500
0.802,123.500,123.000,153.500,157.500
0.803,124.500,124.500,155.500,159.500
0.804,126.000,126.000,157.500,161.500
0.805,128.000,128.000,159.500,164.000
0.806,130.000,130.500,162.000,166.500
0.807,132.000,133.000,164.500,169.500
0.808,134.500,136.000,167.000,172.500
0.809,136.500,138.000,169.500,174.500
0.810,138.000,140.000,171.500,176.500
0.811,139.000,140.500,172.500,177.500
0.812,139.000,141.000,172.500,177.500
0.813,139.000,140.500,172.500,177.000
0.814,139.000,140.000,172.000,176.500
0.815,139.500,140.500,172.000,176.500
0.816,140.500,141.000,172.500,177.000
0.817,141.500,142.000,173.000,178.000
0.818,143.500,143.000,174.000,178.500
0.819,145.000,144.500,175.000,179.500
0.820,146.500,145.500,176.500,181.000
0.821,148.500,147.000,177.500,182.000
0.822,150.000,148.000,179.000,183.000
0.823,152.000,149.500,180.500,184.500
0.824,154.000,151.000,182.000,186.500
0.825,156.000,153.000,184.000,188.500
0.826,158.500,155.000,186.500,191.000
0.827,160.500,157.000,189.000,193.500
0.828,163.000,159.500,191.000,196.000
0.829,165.000,161.500,193.000,198.500
0.830,167.000,163.000,195.000,200.000
0.831,168.000,164.000,196.000,201.500
0.832,169.000,165.000,197.000,202.000
0.833,170.000,166.000,198.000,203.000
0.834,170.500,166.500,198.500,203.500
0.835,171.500,167.000,199.000,204.000
0.836,172.500,168.000,200.000,205.000
0.837,174.000,169.500,201.000,206.000
0.838,175.500,170.500,202.500,207.000
0.839,177.000,172.000,204.000,208.500
0.840,179.000,174.000,205.500,210.000
0.841,180.500,176.000,207.500,212.000
0.842,182.500,178.000,209.500,214.000
0.843,184.500,180.000,211.500,216.000
0.844,187.000,182.000,213.500,218.500
0.845,189.000,184.500,216.000,221.000
0.846,191.500,187.000,218.500,224.000
0.847,193.500,189.500,221.500,227.000
0.848,195.500,191.500,223.500,229.000
0.849,196.500,193.000,225.500,231.000
0.850,198.000,194.000,227.000,232.500
0.851,199.000,195.000,228.000,233.000
0.852,200.000,195.500,228.500,234.000
0.853,201.000,196.000,229.500,235.000
0.854,202.500,197.000,230.000,235.500
0.855,203.500,198.000,231.000,236.500
0.856,205.500,199.500,232.500,237.500
0.857,207.000,200.500,233.500,239.000
0.858,208.500,202.000,235.000,240.000
0.859,209.500,203.000,236.000,240.500
0.860,210.000,203.500,236.500,241.500
0.861,210.500,204.000,237.500,242.000
0.862,211.500,205.000,238.500,243.000
0.863,212.000,206.000,240.000,244.500
0.864,213.500,207.000,241.500,246.000
0.865,214.500,208.500,242.500,247.500
0.866,216.000,209.500,243.500,248.500
0.867,217.000,210.000,244.000,249.500
0.868,217.500,211.000,245.000,250.000
0.869,218.500,211.500,245.500,251.000
0.870,219.000,212.000,246.500,252.000
0.871,219.500,213.000,247.000,252.500
0.872,220.000,213.500,248.000,253.000
0.873,220.000,214.000,248.000,253.500
0.874,220.000,214.000,248.500,253.500
0.875,220.500,214.500,248.500,254.000
0.876,221.000,215.000,249.000,254.000
0.877,221.000,215.500,249.500,254.500
0.878,221.500,216.000,250.000,255.000
0.879,222.000,216.500,251.000,255.500
0.880,223.000,217.500,251.500,256.500
0.881,224.000,218.500,252.500,257.500
0.882,225.000,219.500,253.500,259.000
0.883,226.000,220.500,254.500,260.000
0.884,226.500,221.000,255.500,261.000
0.885,227.000,221.500,256.000,262.000
0.886,227.500,222.000,257.000,262.500
0.887,227.500,222.500,257.500,263.000
0.888,227.500,222.500,257.500,263.500
0.889,227.000,222.500,257.500,263.500
0.890,226.000,222.000,257.000,263.000
0.891,225.500,221.500,256.000,262.500
0.892,224.500,221.000,255.500,262.000
0.893,223.500,220.500,254.500,261.500
0.894,222.500,219.500,253.500,260.500
0.895,221.500,218.500,252.500,259.000
0.896,220.000,217.000,251.000,257.500
0.897,219.000,215.500,249.000,255.500
0.898,217.500,214.000,247.000,253.500
0.899,216.000,212.500,245.000,251.500
0.900,214.500,210.500,243.000,249.500
0.901,213.000,209.000,241.500,247.500
0.902,211.000,207.000,239.500,245.500
0.903,209.000,205.000,237.500,243.500
0.904,207.000,203.000,236.000,241.500
0.905,205.000,201.000,234.000,239.500
0.906,203.000,199.000,232.000,238.000
0.907,201.000,196.500,229.500,236.500
0.908,199.000,194.500,227.500,234.500
0.909,197.000,192.500,225.000,232.500
0.910,194.500,190.000,223.000,230.000
0.911,192.000,187.000,220.000,227.500
0.912,189.000,184.500,217.000,224.500
0.913,185.500,181.500,214.000,221.500
0.914,182.500,178.500,211.000,218.500
0.915,179.500,175.500,208.000,215.500
0.916,176.500,172.500,205.000,212.500
0.917,174.000,170.000,202.500,209.500
0.918,172.000,167.500,200.000,207.000
0.919,169.500,165.500,197.500,204.500
0.920,168.000,163.500,195.500,202.000
0.921,166.500,162.000,194.000,200.000
0.922,165.000,160.500,192.000,198.500
0.923,163.000,159.000,190.500,196.500
0.924,161.500,157.000,189.000,195.000
0.925,160.000,155.500,187.000,193.500
0.926,158.500,153.500,185.500,192.000
0.927,157.000,152.000,183.500,190.500
0.928,155.000,150.000,182.000,188.500
0.929,152.500,147.500,179.500,186.500
0.930,149.500,144.500,176.500,183.500
0.931,146.500,141.000,173.000,180.500
0.932,143.500,137.500,169.500,177.000
0.933,141.000,134.500,166.500,174.000
0.934,138.500,132.000,164.000,171.500
0.935,136.500,129.500,161.500,169.000
0.936,134.500,127.500,159.000,166.000
0.937,132.500,125.500,157.000,163.500
0.938,131.000,123.500,154.500,161.000
0.939,129.000,121.500,152.500,159.000
0.940,127.500,119.500,150.500,157.000
0.941,126.000,118.000,148.500,155.000
0.942,125.000,116.500,147.500,154.000
0.943,124.000,115.500,146.000,153.000
0.944,122.500,114.500,145.000,152.000
0.945,121.500,114.000,144.000,151.000
0.946,120.000,113.000,143.000,149.500
0.947,118.500,112.000,142.000,148.500
0.948,117.000,110.500,140.500,147.500
0.949,115.500,109.500,139.500,146.500
0.950,114.500,108.500,138.000,145.000
0.951,113.000,107.000,136.500,144.000
0.952,111.500,105.000,135.000,142.500
0.953,109.500,103.000,133.500,141.000
0.954,108.000,101.000,131.500,139.000
0.955,106.500,99.500,130.000,136.500
0.956,104.500,97.500,128.000,134.500
0.957,103.000,96.000,126.500,132.500
0.958,101.500,94.500,124.500,130.500
0.959,100.500,93.500,123.500,129.500
0.960,99.500,92.500,122.500,128.500
0.961,98.500,91.500,121.500,128.000
0.962,97.500,91.000,121.000,127.500
0.963,96.500,90.500,120.000,127.000
0.964,95.500,90.000,119.500,126.500
0.965,94.500,89.000,119.000,125.500
0.966,93.500,88.000,118.000,125.000
0.967,92.500,86.500,117.000,124.000
0.968,91.500,85.500,115.500,123.000
0.969,90.500,84.500,114.500,122.000
0.970,89.500,83.500,114.000,121.500
0.971,89.000,82.500,113.000,120.500
0.972,88.000,81.500,112.000,119.500
0.973,87.000,80.500,111.000,118.500
0.974,86.500,79.500,109.500,117.500
0.975,85.500,78.500,108.500,116.000
0.976,85.000,77.500,107.500,115.000
0.977,84.500,77.000,106.500,114.000
0.978,84.500,77.000,106.000,113.500
0.979,84.500,77.000,106.000,113.500
0.980,85.000,77.500,106.000,113.500
0.981,85.000,78.000,106.000,113.500
0.982,85.500,78.000,106.500,114.000
0.983,85.500,78.500,106.500,114.000
0.984,85.000,78.500,106.500,114.500
0.985,85.000,78.500,107.000,115.000
0.986,84.500,78.500,107.000,115.000
0.987,84.000,78.500,107.000,115.500
0.988,84.000,78.500,107.000,116.000
0.989,83.500,78.500,107.000,116.000
0.990,83.000,78.000,106.500,115.500
0.991,82.000,77.000,105.500,115.000
0.992,81.000,76.000,104.500,113.500
0.993,79.500,74.500,103.000,112.500
0.994,78.500,73.500,102.000,111.000
0.995,78.000,73.000,101.000,110.000
0.996,77.500,72.000,100.500,109.000
0.997,76.500,71.500,99.500,108.000
0.998,76.000,70.500,98.500,106.500
0.999,75.000,69.500,98.000,105.500
1.000,74.500,68.500,97.000,104.500
1.001,73.500,67.500,96.000,104.000
1.002,73.000,66.500,95.500,103.500
1.003,73.000,66.500,95.500,103.500
1.004,73.500,67.000,96.000,103.500
1.005,74.000,67.500,96.500,104.500
1.006,75.500,69.000,98.000,106.000
1.007,77.500,71.000,100.500,108.000
1.008,79.500,73.500,102.500,111.000
1.009,81.000,75.000,104.500,113.000
1.010,82.000,76.000,105.500,114.000
1.011,82.500,76.500,105.500,114.500
1.012,82.500,76.000,105.500,114.000
1.013,82.500,75.500,105.000,113.500
1.014,83.000,75.000,104.500,113.500
1.015,82.500,74.500,104.000,113.000
1.016,82.000,73.500,103.500,112.000
1.017,81.000,72.000,102.500,111.000
1.018,80.000,71.000,101.500,110.000
1.019,79.000,69.500,100.500,108.500
1.020,78.000,69.000,100.000,108.000
1.021,77.500,68.500,100.000,107.500
1.022,77.500,69.000,100.500,108.000
1.023,77.500,69.000,101.000,108.500
1.024,77.000,69.000,101.500,109.500
1.025,76.000,69.000,101.500,110.500
1.026,75.000,68.500,102.000,111.000
1.027,74.000,68.000,102.000,111.500
1.028,73.500,68.000,101.500,111.500
1.029,73.000,67.500,101.000,111.500
1.030,72.500,67.000,100.500,110.500
1.031,72.000,66.000,99.000,109.500
1.032,71.500,65.500,97.500,107.500
1.033,72.000,64.500,96.000,105.500
1.034,73.000,64.500,95.000,104.000
1.035,75.000,65.500,94.500,103.000
1.036,77.500,67.000,94.500,102.500
1.037,79.500,68.500,95.000,102.000
1.038,81.000,69.500,95.500,102.000
1.039,82.000,70.000,95.500,102.000
1.040,82.000,70.000,95.000,101.500
1.041,81.500,70.000,95.000,101.000
1.042,81.500,70.500,95.000,101.500
1.043,81.500,71.000,96.000,102.000
1.044,82.000,72.000,97.500,103.500
1.045,82.500,73.000,99.000,105.500
1.046,82.500,74.000,100.500,107.500
1.047,83.000,75.000,102.500,109.500
1.048,83.000,75.500,104.000,111.000
1.049,82.500,75.500,105.000,112.000
1.050,81.500,75.000,105.500,112.500
1.051,80.500,74.500,105.500,112.500
1.052,79.500,74.000,105.000,112.500
1.053,79.500,73.500,105.000,112.500
1.054,79.000,73.500,104.500,112.000
1.055,79.000,73.500,104.500,112.000
1.056,79.500,73.500,104.000,111.500
1.057,79.500,73.500,104.000,111.500
1.058,79.500,73.000,103.000,110.500
1.059,79.000,72.000,102.000,109.500
1.060,78.000,71.000,100.500,108.000
1.061,77.500,70.500,99.500,107.000
1.062,77.500,70.000,99.000,106.500
1.063,77.000,70.000,99.000,106.000
1.064,77.000,70.500,99.000,106.500
1.065,77.500,71.000,99.500,106.500
1.066,78.000,71.500,100.000,107.500
1.067,78.500,72.000,100.500,108.000
1.068,79.000,72.500,101.500,109.000
1.069,79.500,73.000,101.500,109.500
1.070,79.500,73.000,101.500,110.000
1.071,79.500,73.000,101.500,109.500
1.072,79.500,72.500,101.000,109.000
1.073,79.000,72.000,100.500,108.500
1.074,78.500,71.500,99.500,108.000
1.075,78.000,71.000,99.000,107.000
1.076,77.000,70.000,98.000,106.000
1.077,76.500,68.500,97.000,104.500
1.078,75.500,67.500,95.500,103.000
1.079,75.000,66.500,94.500,102.000
1.080,74.500,65.500,94.000,101.000
1.081,74.500,65.500,94.000,100.500
1.082,74.500,65.500,94.000,101.000
1.083,75.000,66.000,94.500,101.500
1.084,76.000,67.000,95.500,102.000
1.085,77.000,68.000,96.500,103.000
1.086,77.500,69.000,97.500,104.500
1.087,78.500,69.500,98.000,105.500
1.088,79.000,70.500,99.000,106.000
1.089,79.500,71.000,100.000,107.000
1.090,79.500,71.500,100.000,107.500
1.091,80.000,72.000,100.500,107.500
1.092,79.500,72.000,100.500,107.500
1.093,79.500,71.500,100.000,107.500
1.094,79.000,71.000,100.000,106.500
1.095,79.000,70.500,99.500,106.000
1.096,78.500,70.000,99.000,105.000
1.097,78.500,69.500,98.000,104.000
1.098,78.000,69.000,97.500,103.000
1.099,77.500,68.000,96.500,102.000
1.100,77.000,67.000,95.500,101.000
1.101,76.500,66.500,94.500,100.500
1.102,76.000,66.500,94.500,100.000
1.103,76.500,66.500,95.000,100.500
1.104,77.000,67.000,95.500,101.500
1.105,77.000,67.500,96.000,102.000
1.106,77.500,68.000,96.000,102.500
1.107,77.000,68.000,95.500,102.500
1.108,76.500,68.000,95.500,103.000
1.109,76.000,68.000,95.500,103.000
1.110,76.000,67.500,95.500,103.000
1.111,75.500,67.500,95.000,102.500
1.112,75.500,67.500,95.500,102.500
1.113,75.500,67.500,95.500,102.500
1.114,75.500,67.500,95.000,102.500
1.115,75.500,67.000,94.500,102.000
1.116,75.500,66.000,93.500,101.000
1.117,74.500,65.000,92.500,99.500
1.118,73.500,64.000,91.000,98.000
1.119,72.500,63.000,90.000,96.500
1.120,72.000,62.000,89.000,95.500
1.121,72.000,62.000,89.000,95.500
1.122,72.500,62.500,89.000,95.500
1.123,72.500,62.500,89.000,95.500
1.124,73.000,62.500,89.500,95.500
1.125,73.000,62.500,89.500,96.000
1.126,72.500,62.500,89.500,96.000
1.127,72.500,62.500,89.500,96.500
1.128,72.500,63.000,89.500,96.500
1.129,72.000,63.000,89.500,97.000
1.130,72.000,62.500,89.000,96.500
1.131,71.500,62.500,89.000,96.500
1.132,71.500,62.500,89.000,96.500
1.133,71.500,62.500,89.000,96.000
1.134,71.500,62.000,88.500,95.500
1.135,71.500,62.000,88.000,95.000
1.136,71.500,61.000,87.500,94.000
1.137,70.500,60.500,86.500,93.000
1.138,70.000,59.500,85.000,92.000
1.139,69.000,58.500,84.000,91.000
1.140,68.500,58.000,83.000,90.000
1.141,68.000,58.000,83.000,90.000
1.142,68.000,58.000,83.000,90.000
1.143,68.000,58.500,83.000,90.000
1.144,68.500,58.500,83.500,90.500
1.145,68.500,59.000,83.500,91.000
1.146,68.500,59.000,83.500,91.000
1.147,68.500,58.500,83.000,90.500
1.148,68.000,58.000,82.500,90.500
1.149,67.500,57.500,82.000,90.000
1.150,67.000,57.000,82.000,90.000
1.151,66.500,56.500,82.000,90.000
1.152,66.500,56.500,81.500,89.500
1.153,66.000,56.000,81.500,89.500
1.154,66.000,55.500,81.500,89.500
1.155,66.000,55.000,81.000,89.000
1.156,66.000,55.000,80.500,88.000
1.157,65.500,54.500,80.000,87.500
1.158,65.500,54.000,79.500,87.000
1.159,65.000,53.500,78.500,86.000
1.160,64.500,52.500,78.000,85.500
1.161,64.500,52.500,77.500,85.000
1.162,64.500,52.000,77.500,84.500
1.163,64.500,52.000,77.500,85.000
1.164,65.000,52.500,78.000,85.500
1.165,65.500,53.500,78.500,86.500
1.166,66.500,54.500,79.500,87.500
1.167,66.500,55.000,80.500,88.500
1.168,66.500,55.500,81.000,89.000
1.169,66.500,55.500,81.000,89.500
1.170,66.000,55.000,81.000,89.500
1.171,65.500,54.500,80.500,88.500
1.172,64.500,53.500,79.500,88.000
1.173,63.500,53.000,79.000,87.000
1.174,63.000,52.500,78.500,86.500
1.175,62.500,52.000,78.000,86.000
1.176,62.000,52.000,77.500,85.500
1.177,61.000,51.000,76.500,84.500
1.178,60.000,50.500,75.500,83.500
1.179,59.500,49.500,75.000,83.000
1.180,59.500,49.500,74.500,82.500
1.181,60.000,50.000,75.000,83.000
1.182,60.500,51.000,76.000,83.500
1.183,61.500,52.000,77.000,84.500
1.184,62.500,53.000,78.000,85.500
1.185,64.000,54.500,79.000,87.000
1.186,65.000,55.500,80.500,89.000
1.187,66.000,57.000,81.500,90.500
1.188,67.000,58.000,83.000,92.000
1.189,68.500,59.000,85.000,94.000
1.190,70.000,61.000,86.500,96.000
1.191,72.000,62.500,88.500,98.000
1.192,73.500,63.500,89.500,99.000
1.193,75.000,64.500,91.000,100.000
1.194,76.000,65.500,91.500,101.000
1.195,77.500,67.000,92.500,101.500
1.196,79.500,68.000,94.000,102.500
1.197,81.500,69.500,96.000,104.000
1.198,84.000,71.500,98.000,106.000
1.199,86.500,73.500,100.000,108.000
1.200,88.500,75.500,102.000,110.000
1.201,90.000,77.500,104.000,112.000
1.202,91.500,79.000,106.000,113.500
1.203,93.000,81.000,107.500,115.000
1.204,94.500,82.500,109.000,117.000
1.205,95.500,83.500,110.500,118.500
1.206,96.000,84.500,111.500,119.500
1.207,96.500,84.500,112.000,120.000
1.208,96.500,84.500,112.000,120.500
1.209,96.000,84.500,111.500,120.500
1.210,95.000,83.500,111.000,119.500
1.211,93.500,82.500,109.500,118.500
1.212,92.000,80.500,108.000,117.000
1.213,90.500,79.000,106.000,115.000
1.214,88.500,77.000,103.500,113.000
1.215,86.500,75.000,101.500,110.500
1.216,85.000,73.000,99.500,108.000
1.217,83.500,71.500,98.000,106.500
1.218,83.000,70.500,97.500,106.000
1.219,83.000,71.000,97.500,106.000
1.220,84.000,72.000,98.500,107.000
1.221,86.500,74.500,101.000,109.500
1.222,90.500,78.500,105.000,113.500
1.223,95.500,83.500,109.500,118.000
1.224,100.500,89.000,115.000,124.000
1.225,106.500,94.500,121.000,130.000
1.226,112.000,100.500,126.500,135.500
1.227,116.500,105.000,131.500,141.000
1.228,120.500,109.500,135.500,145.000
1.229,123.500,112.500,138.500,148.500
1.230,125.500,115.000,140.500,151.000
1.231,127.000,116.500,142.000,152.500
1.232,127.500,117.000,142.000,153.000
1.233,127.000,116.500,141.500,152.500
1.234,126.000,115.500,140.500,151.500
1.235,124.500,114.000,139.000,149.500
1.236,122.500,112.000,136.500,147.000
1.237,120.000,109.000,133.500,143.500
1.238,116.000,105.000,129.000,139.000
1.239,111.500,100.000,123.500,134.000
1.240,106.500,94.500,118.000,128.500
1.241,101.500,89.000,113.000,123.000
1.242,97.000,84.000,108.000,118.500
1.243,92.500,80.000,104.000,114.500
1.244,89.000,77.000,101.000,111.000
1.245,86.500,74.500,98.500,108.500
1.246,84.000,72.500,96.500,107.000
1.247,82.500,71.000,95.000,105.500
1.248,81.000,70.000,94.000,104.500
1.249,79.500,69.000,92.500,103.500
1.250,78.000,68.000,91.500,102.500
1.251,77.000,66.500,90.500,101.500
1.252,76.000,66.000,89.500,101.000
1.253,75.500,65.000,89.000,100.000
1.254,75.000,64.500,88.500,99.500
1.255,74.500,63.500,87.500,98.500
1.256,73.500,62.500,86.500,97.500
1.257,72.000,61.500,84.500,95.500
1.258,70.500,59.500,83.000,94.000
1.259,69.000,58.000,81.500,92.000
1.260,68.500,57.000,80.000,90.500
1.261,68.000,56.500,80.000,90.000
1.262,68.000,56.500,80.000,90.000
1.263,68.500,57.000,80.500,90.000
1.264,68.500,57.500,81.000,90.500
1.265,69.000,58.000,81.000,90.500
1.266,68.500,58.000,80.500,90.500
1.267,67.500,57.000,79.500,90.000
1.268,65.500,55.500,78.000,88.500
1.269,63.000,53.000,75.500,86.000
1.270,59.500,49.500,72.000,83.000
1.271,55.500,46.000,68.500,79.500
1.272,52.000,43.000,65.000,76.000
1.273,49.500,40.000,62.500,73.500
1.274,47.500,38.500,61.000,71.500
1.275,46.500,37.500,60.000,70.500
1.276,46.500,37.000,59.500,70.000
1.277,46.500,37.000,59.500,69.500
1.278,46.000,37.000,59.000,69.000
1.279,46.000,36.500,59.000,68.500
1.280,45.500,36.500,58.500,68.000
1.281,45.500,36.500,59.000,68.000
1.282,46.000,37.500,59.000,68.500
1.283,46.500,38.000,60.000,69.500
1.284,47.000,39.000,60.500,70.500
1.285,47.500,39.500,61.500,71.500
1.286,48.000,40.500,62.000,72.500
1.287,48.000,41.000,63.000,73.000
1.288,48.000,41.000,63.500,74.000
1.289,48.000,41.500,64.000,74.000
1.290,47.500,41.000,64.000,74.500
1.291,47.500,41.000,64.000,74.000
1.292,47.000,40.000,63.500,74.000
1.293,46.500,39.500,62.500,73.500
1.294,46.000,39.000,62.000,72.500
1.295,46.000,38.500,61.000,72.000
1.296,45.500,38.000,60.500,71.000
1.297,45.000,37.500,59.500,70.000
1.298,44.500,37.000,59.000,69.000
1.299,44.500,36.500,58.500,68.000
1.300,44.500,36.500,58.000,67.500
1.301,44.500,36.000,58.000,67.500
1.302,44.500,36.000,57.500,67.000
1.303,44.500,35.500,57.000,66.500
1.304,44.000,34.500,56.500,66.500
1.305,44.000,34.500,56.000,66.000
1.306,43.500,34.000,56.000,66.500
1.307,43.500,34.500,56.000,67.000
1.308,44.000,34.500,56.500,68.000
1.309,44.000,35.000,57.000,68.500
1.310,44.000,35.500,57.000,69.000
1.311,44.000,35.500,57.000,69.000
1.312,44.000,35.500,57.500,69.500
1.313,44.000,35.500,57.000,69.500
1.314,44.000,35.500,57.000,69.500
1.315,43.500,35.000,56.500,69.000
1.316,43.500,34.500,56.500,68.500
1.317,43.500,34.500,56.500,68.000
1.318,43.500,34.000,56.000,67.000
1.319,43.500,33.500,55.500,66.500
1.320,43.500,33.500,55.000,66.000
1.321,44.000,34.000,55.500,66.500
1.322,45.000,35.500,56.000,67.500
1.323,46.500,37.000,57.500,68.500
1.324,48.000,38.000,58.500,70.000
1.325,49.000,39.500,59.500,71.500
1.326,50.000,40.000,60.000,72.000
1.327,50.000,40.500,60.500,72.500
1.328,50.000,40.500,61.000,73.000
1.329,50.000,40.500,61.000,73.500
1.330,49.500,40.500,61.000,73.500
1.331,49.500,40.500,61.000,73.500
1.332,48.500,40.000,61.000,73.500
1.333,48.000,39.500,60.500,73.000
1.334,47.000,38.500,60.000,72.000
1.335,46.000,38.000,59.000,71.000
1.336,45.500,37.500,58.000,70.000
1.337,45.000,37.000,57.000,68.500
1.338,44.500,36.500,56.000,67.500
1.339,44.500,36.000,55.500,67.000
1.340,45.000,36.500,55.500,67.000
1.341,45.500,37.500,56.000,67.500
1.342,46.500,38.500,57.000,68.500
1.343,47.000,39.500,58.000,69.500
1.344,48.000,40.000,58.500,70.500
1.345,48.000,40.500,59.000,71.000
1.346,48.500,40.500,59.000,71.500
1.347,48.500,41.000,59.500,72.000
1.348,49.000,41.500,59.500,72.500
1.349,49.000,42.000,60.000,73.500
1.350,49.500,42.000,60.500,74.000
1.351,50.000,42.500,61.000,74.500
1.352,50.500,43.500,62.000,75.000
1.353,51.500,44.000,63.000,76.000
1.354,52.500,45.000,64.000,77.000
1.355,54.000,46.500,65.000,78.000
1.356,55.500,48.000,66.000,79.000
1.357,58.000,50.000,68.000,80.500
1.358,60.500,52.500,70.500,83.000
1.359,65.500,56.500,74.500,87.500
1.360,72.500,63.500,81.500,94.000
1.361,81.500,72.500,90.500,103.500
1.362,92.500,83.500,102.000,114.500
1.363,104.500,95.500,114.000,126.500
1.364,116.000,107.000,126.000,138.500
1.365,126.500,118.000,137.000,149.500
1.366,135.500,127.000,146.500,159.500
1.367,143.500,135.000,155.000,168.000
1.368,150.000,142.000,162.000,175.500
1.369,156.000,148.500,169.000,182.500
1.370,162.500,155.000,176.000,190.000
1.371,170.000,163.000,184.000,198.500
1.372,178.500,171.500,192.500,207.500
1.373,187.500,181.000,202.000,217.000
1.374,196.500,189.500,211.000,225.500
1.375,203.500,197.000,218.500,233.000
1.376,208.500,202.000,223.500,238.000
1.377,212.000,205.500,227.500,241.500
1.378,214.500,208.000,230.000,244.000
1.379,217.500,211.000,233.000,247.000
1.380,221.000,214.000,236.500,251.000
1.381,225.000,218.500,241.500,255.500
1.382,230.000,223.500,246.500,260.500
1.383,234.500,228.000,251.500,265.500
1.384,237.500,231.500,255.000,269.000
1.385,238.500,233.000,256.500,271.000
1.386,237.500,232.500,255.500,270.500
1.387,235.500,230.000,253.500,268.000
1.388,233.000,227.500,251.000,266.000
1.389,231.500,225.500,249.000,264.500
1.390,230.500,225.000,248.500,264.000
1.391,230.000,224.500,248.000,264.000
1.392,229.000,223.500,247.500,263.000
1.393,227.000,221.500,245.500,261.000
1.394,223.500,218.000,241.500,257.000
1.395,217.500,212.000,235.000,250.500
1.396,209.000,203.000,225.500,240.500
1.397,197.500,190.500,213.000,227.000
1.398,182.000,174.500,196.500,210.000
1.399,163.000,155.000,176.500,190.000
1.400,142.000,134.000,155.500,168.500
1.401,121.500,113.000,134.500,147.000
1.402,103.000,94.500,116.000,128.500
1.403,88.500,80.500,101.500,114.000
1.404,78.500,70.500,91.500,104.000
1.405,71.500,64.000,85.000,97.500
1.406,67.000,60.000,80.500,93.500
1.407,63.500,56.500,77.500,90.500
1.408,61.000,54.000,75.000,88.000
1.409,58.000,51.000,72.000,85.500
1.410,54.500,47.500,68.500,81.500
1.411,49.000,42.500,63.000,76.000
1.412,42.000,35.000,55.500,69.000
1.413,33.000,26.000,46.500,60.000
1.414,23.000,16.000,36.500,50.000
1.415,12.500,6.000,26.000,39.000
1.416,2.500,-4.500,15.500,28.500
1.417,-7.000,-14.000,6.000,19.000
1.418,-15.000,-22.000,-2.000,10.500
1.419,-21.500,-28.000,-8.500,4.500
1.420,-25.500,-32.000,-12.000,0.500
1.421,-28.000,-34.000,-14.000,-1.000
1.422,-28.000,-34.000,-13.500,-1.000
1.423,-26.000,-32.000,-11.500,1.500
1.424,-23.000,-28.500,-7.500,6.000
1.425,-19.000,-24.500,-3.000,11.000
1.426,-15.000,-20.000,2.500,16.000
1.427,-10.500,-15.500,7.000,21.500
1.428,-6.000,-10.500,12.000,26.500
1.429,-1.000,-6.000,16.500,31.500
1.430,5.000,-1.000,21.000,36.000
1.431,11.000,5.000,26.000,41.000
1.432,18.500,11.500,31.500,46.500
1.433,27.000,19.000,38.000,52.500
1.434,36.000,27.500,45.000,59.000
1.435,44.500,35.500,52.500,66.000
1.436,52.000,43.000,58.500,72.000
1.437,58.000,49.000,64.000,77.000
1.438,62.000,53.000,67.000,80.000
1.439,64.500,55.500,69.500,82.500
1.440,66.000,57.500,71.000,84.000
1.441,67.500,59.000,73.000,85.500
1.442,69.000,60.500,74.500,87.000
1.443,70.000,61.500,76.000,89.000
1.444,70.500,62.500,78.000,90.500
1.445,71.000,63.500,79.500,92.500
1.446,71.000,64.500,81.500,94.500
1.447,71.500,65.500,83.500,97.000
1.448,71.500,66.500,85.000,98.500
1.449,71.500,67.500,86.000,100.000
1.450,71.500,67.500,86.500,101.000
1.451,71.000,67.500,86.500,101.000
1.452,70.500,67.500,86.500,101.000
1.453,70.000,67.000,86.000,100.500
1.454,70.000,66.500,85.500,100.000
1.455,70.000,66.000,85.000,100.000
1.456,70.000,66.000,85.000,99.500
1.457,70.500,66.000,85.000,99.000
1.458,71.000,66.000,84.500,99.000
1.459,71.500,66.500,84.500,99.000
1.460,72.000,67.000,84.500,99.000
1.461,72.500,67.500,84.500,99.000
1.462,73.500,68.000,85.000,99.500
1.463,74.000,68.500,85.000,99.500
1.464,74.000,69.000,85.500,100.000
1.465,74.500,69.000,86.000,101.000
1.466,75.000,70.000,87.000,102.000
1.467,75.500,70.500,88.500,103.000
1.468,76.500,71.500,89.500,104.500
1.469,77.000,72.500,90.500,105.500
1.470,77.500,73.000,91.500,106.000
1.471,78.000,74.000,92.000,107.000
1.472,78.500,74.000,92.500,107.000
1.473,78.500,74.500,92.500,107.500
1.474,79.000,74.500,92.500,107.000
1.475,79.000,74.000,92.000,107.000
1.476,79.000,74.000,91.500,106.500
1.477,78.500,73.500,91.000,105.500
1.478,78.500,73.500,90.500,105.000
1.479,78.000,73.500,90.500,105.000
1.480,78.500,74.000,90.500,105.000
1.481,79.500,75.000,91.500,105.500
1.482,80.500,76.000,92.500,106.000
1.483,82.000,77.000,93.500,107.000
1.484,83.000,78.000,94.000,108.000
1.485,83.500,78.500,95.000,109.000
1.486,84.000,79.000,95.500,109.500
1.487,84.500,79.500,96.000,110.500
1.488,84.500,79.500,96.500,111.500
1.489,85.000,80.000,97.500,112.000
1.490,84.500,80.000,97.500,112.500
1.491,84.500,80.000,98.000,113.000
1.492,84.000,80.500,98.500,113.500
1.493,84.000,80.500,98.500,113.500
1.494,84.000,80.500,98.500,113.000
1.495,83.500,80.500,98.000,112.500
1.496,83.500,80.500,98.000,112.000
1.497,84.000,80.500,97.500,111.500
1.498,85.000,81.000,97.500,111.500
1.499,86.000,82.000,98.000,112.000
1.500,87.000,83.000,99.000,112.500
1.501,88.000,84.000,100.000,114.000
1.502,89.000,85.500,101.500,115.000
1.503,90.000,87.000,102.500,116.500
1.504,91.500,88.500,104.000,118.000
1.505,92.500,90.000,105.500,120.000
1.506,93.500,91.500,107.000,121.500
1.507,94.500,92.500,108.500,123.000
1.508,95.500,93.500,110.000,124.500
1.509,97.000,95.000,111.500,125.500
1.510,98.000,96.000,112.500,127.000
1.511,98.500,96.500,113.000,127.500
1.512,99.000,96.500,113.000,127.500
1.513,99.000,96.000,112.500,127.500
1.514,99.000,96.000,112.500,127.000
1.515,99.500,96.500,112.500,127.500
1.516,100.500,97.000,113.500,128.000
1.517,101.500,98.000,114.000,128.500
1.518,102.500,99.000,115.000,129.000
1.519,103.500,99.500,115.500,129.500
1.520,104.500,101.000,116.500,130.500
1.521,105.500,102.000,117.500,131.500
1.522,106.500,103.000,119.000,132.000
1.523,107.500,104.500,120.000,133.500
1.524,108.500,106.000,121.000,135.000
1.525,109.500,107.500,122.500,136.500
1.526,111.000,109.000,124.000,138.000
1.527,112.500,110.500,125.500,140.000
1.528,114.000,112.000,127.000,142.000
1.529,115.500,114.000,129.500,144.500
1.530,117.500,115.500,131.500,147.000
1.531,119.500,117.500,133.500,149.500
1.532,121.000,119.000,135.500,151.500
1.533,122.000,119.500,136.500,152.000
1.534,122.500,120.000,136.500,152.500
1.535,122.500,119.500,136.500,152.000
1.536,123.000,120.000,136.500,152.000
1.537,123.500,120.000,136.500,152.000
1.538,124.000,121.000,137.500,152.500
1.539,125.000,122.000,138.000,153.000
1.540,126.500,123.000,139.500,154.000
1.541,128.500,124.500,141.000,155.500
1.542,130.500,126.000,142.500,157.000
1.543,133.000,128.000,144.500,159.000
1.544,135.000,130.000,147.000,161.000
1.545,137.500,132.000,149.000,163.500
1.546,139.500,133.500,151.000,165.500
1.547,141.500,135.500,153.000,168.000
1.548,143.000,137.000,155.000,170.000
1.549,144.500,138.500,157.000,171.500
1.550,145.500,140.000,158.000,173.000
1.551,146.500,141.000,159.500,174.000
1.552,147.500,142.000,160.000,175.000
1.553,148.500,143.000,161.000,176.000
1.554,149.500,144.000,162.000,177.000
1.555,150.000,144.500,163.000,177.500
1.556,151.000,145.500,164.000,178.000
1.557,151.500,146.500,164.500,178.500
1.558,152.500,147.500,165.500,179.000
1.559,153.500,148.500,166.500,180.000
1.560,154.500,150.000,167.500,181.000
1.561,156.000,151.500,169.000,182.500
1.562,157.500,153.500,170.500,184.500
1.563,159.000,155.000,172.500,186.000
1.564,160.500,156.500,174.000,187.500
1.565,161.500,158.000,175.500,189.500
1.566,163.000,159.500,177.000,191.000
1.567,164.500,161.500,179.000,193.500
1.568,166.000,163.500,181.000,195.500
1.569,168.500,166.000,183.500,198.500
1.570,170.500,168.500,186.000,201.000
1.571,172.500,170.500,188.000,203.000
1.572,173.500,171.500,189.500,204.500
1.573,174.000,172.500,190.500,205.500
1.574,174.500,172.500,190.500,205.500
1.575,175.000,172.500,191.000,205.500
1.576,176.000,173.500,191.500,206.000
1.577,177.500,174.500,193.000,207.500
1.578,180.000,176.500,194.500,209.000
1.579,182.000,178.500,196.000,210.500
1.580,184.000,180.500,198.000,212.500
1.581,185.500,182.000,199.500,214.000
1.582,187.000,184.000,201.000,215.500
1.583,189.000,186.000,203.500,218.000
1.584,191.000,188.000,206.000,220.500
1.585,193.000,190.000,208.500,223.500
1.586,195.000,192.000,211.000,226.000
1.587,197.000,193.500,213.000,228.000
1.588,198.500,194.500,214.000,229.500
1.589,199.000,195.500,215.000,230.500
1.590,200.000,196.000,215.500,231.000
1.591,200.000,196.000,215.500,231.500
1.592,200.500,196.500,216.000,232.000
1.593,201.500,197.000,217.000,232.500
1.594,202.500,198.000,218.000,233.500
1.595,203.500,199.000,219.000,234.000
1.596,203.500,199.000,219.000,234.000
1.597,202.500,198.500,218.500,233.000
1.598,201.500,197.500,217.000,231.000
1.599,200.500,196.000,215.500,229.500
1.600,200.500,195.500,215.000,228.500
1.601,201.000,195.500,215.000,228.500
1.602,202.000,196.000,216.000,229.000
1.603,202.500,197.000,217.000,230.000
1.604,203.500,198.000,218.000,231.000
1.605,204.000,199.000,218.500,232.000
1.606,204.500,200.000,219.500,233.000
1.607,205.000,201.000,220.500,234.500
1.608,205.500,201.500,221.000,235.500
1.609,205.500,202.000,221.500,236.500
1.610,205.500,202.000,221.500,237.000
1.611,204.500,201.500,221.500,237.000
1.612,203.500,201.000,220.500,236.000
1.613,202.500,199.500,219.500,235.000
1.614,201.000,198.000,218.000,233.500
1.615,199.500,196.500,216.500,231.500
1.616,198.000,195.000,215.000,230.000
1.617,197.500,194.000,213.500,228.500
1.618,197.000,193.000,212.500,227.500
1.619,196.500,192.500,212.000,226.500
1.620,196.500,192.000,211.500,226.000
1.621,196.000,191.500,211.000,225.500
1.622,195.000,190.500,210.500,224.500
1.623,193.000,189.000,209.000,223.000
1.624,191.500,187.500,207.500,221.500
1.625,189.500,185.500,205.500,220.000
1.626,188.500,184.000,204.000,218.500
1.627,187.500,183.000,203.000,217.500
1.628,186.500,182.000,202.000,217.000
1.629,185.000,181.000,201.000,216.000
1.630,183.000,179.000,199.500,214.500
1.631,180.000,176.500,197.000,212.000
1.632,177.000,173.000,194.000,208.500
1.633,173.500,169.500,190.500,204.500
1.634,170.000,166.000,187.000,201.000
1.635,167.000,162.500,183.000,197.000
1.636,163.500,159.000,179.500,193.000
1.637,160.000,155.500,176.000,189.500
1.638,157.500,152.000,172.500,185.500
1.639,154.500,149.000,169.500,182.500
1.640,152.000,146.500,167.000,179.500
1.641,149.500,144.000,164.500,177.000
1.642,147.500,142.000,162.500,175.000
1.643,145.500,140.500,160.500,173.500
1.644,144.000,139.000,159.000,172.000
1.645,142.000,137.000,157.500,170.500
1.646,140.500,135.500,156.000,169.500
1.647,139.000,134.000,154.500,168.500
1.648,137.500,132.500,153.000,167.000
1.649,135.000,130.500,151.000,165.000
1.650,132.500,128.000,148.500,162.500
1.651,129.500,125.000,145.500,159.500
1.652,127.000,122.500,143.000,157.000
1.653,125.000,120.000,141.000,154.000
1.654,122.500,118.000,138.500,151.500
1.655,120.000,115.500,136.000,149.000
1.656,116.500,112.000,133.000,145.500
1.657,113.000,109.000,129.500,142.000
1.658,110.000,105.500,126.000,138.500
1.659,107.000,103.000,123.000,135.500
1.660,105.000,101.000,121.000,133.000
1.661,103.500,99.500,119.000,131.500
1.662,102.500,98.500,118.000,130.000
1.663,101.500,98.000,117.000,129.000
1.664,100.500,96.500,116.000,128.000
1.665,99.000,95.000,114.000,126.000
1.666,97.000,93.000,112.500,124.500
1.667,95.500,91.500,110.500,123.000
1.668,94.000,89.500,109.000,121.500
1.669,92.500,88.000,107.500,120.500
1.670,91.000,86.500,106.000,119.000
1.671,89.000,85.000,104.500,117.000
1.672,87.000,83.000,102.500,115.000
1.673,85.500,81.500,101.000,113.000
1.674,84.000,80.000,99.000,111.000
1.675,82.000,78.500,97.000,109.000
1.676,81.000,77.000,95.500,107.500
1.677,79.500,75.000,93.500,105.500
1.678,78.000,73.500,91.500,103.500
1.679,76.500,72.000,90.000,102.000
1.680,75.500,71.000,89.000,101.000
1.681,75.500,70.500,88.500,100.500
1.682,75.500,71.000,88.500,100.500
1.683,76.000,71.000,89.000,101.000
1.684,76.000,71.000,89.000,101.000
1.685,75.500,70.500,89.000,101.000
1.686,75.000,70.000,88.500,100.500
1.687,74.500,69.500,88.000,100.000
1.688,73.000,69.000,87.500,99.500
1.689,71.500,67.500,86.500,98.500
1.690,70.000,66.000,84.500,97.000
1.691,68.000,64.000,83.000,95.000
1.692,66.000,61.500,81.000,93.000
1.693,64.000,60.000,79.500,91.500
1.694,63.000,58.500,78.000,90.000
1.695,62.000,57.500,77.000,88.500
1.696,61.500,56.500,76.000,87.500
1.697,61.000,55.500,75.000,86.000
1.698,60.500,54.500,74.500,85.000
1.699,60.000,53.500,73.500,83.500
1.700,60.000,52.500,72.500,83.000
1.701,60.000,52.500,72.000,82.000
1.702,59.500,52.000,71.500,82.000
1.703,59.500,52.000,71.000,82.000
1.704,59.000,52.000,71.000,82.000
1.705,58.000,52.000,70.500,82.000
1.706,57.000,51.500,70.500,82.000
1.707,56.000,51.000,70.000,81.500
1.708,55.500,50.500,69.500,81.500
1.709,55.000,50.000,69.500,81.000
1.710,54.500,50.000,69.500,81.000
1.711,54.500,50.000,69.500,81.000
1.712,54.500,50.000,69.500,81.000
1.713,54.500,49.500,69.000,81.000
1.714,54.500,49.500,68.500,80.500
1.715,54.500,49.500,68.500,80.500
1.716,54.500,49.500,68.000,80.500
1.717,54.000,49.500,68.000,80.000
1.718,53.500,49.000,67.500,79.500
1.719,53.000,49.000,67.000,78.500
1.720,52.000,48.500,66.500,77.500
1.721,51.500,47.500,65.500,76.500
1.722,51.000,47.000,65.000,75.500
1.723,51.000,47.000,64.500,75.500
1.724,51.000,47.000,65.000,75.500
1.725,51.500,47.500,65.500,76.500
1.726,52.500,48.500,66.500,77.500
1.727,53.000,49.000,67.500,79.000
1.728,53.500,49.500,68.000,79.500
1.729,53.500,50.000,68.500,80.000
1.730,53.500,50.000,68.500,80.000
1.731,53.000,50.000,68.500,80.000
1.732,53.000,49.500,68.500,80.000
1.733,52.500,49.500,68.000,79.500
1.734,51.500,49.000,67.500,79.000
1.735,51.000,48.000,66.500,78.000
1.736,50.000,47.500,66.000,77.000
1.737,49.500,47.000,65.000,76.000
1.738,49.500,46.500,65.000,75.500
1.739,49.500,46.500,65.000,75.500
1.740,50.000,47.000,65.000,75.500
1.741,51.500,48.000,66.000,76.500
1.742,53.000,49.000,67.000,77.500
1.743,54.000,50.500,67.500,78.500
1.744,55.000,51.000,68.000,79.500
1.745,55.000,51.000,68.000,79.500
1.746,55.500,51.000,68.000,80.000
1.747,55.500,51.000,68.000,80.000
1.748,55.500,51.000,68.000,80.000
1.749,55.500,51.000,68.000,80.000
1.750,55.000,50.500,67.500,80.000
1.751,54.000,49.500,66.500,79.000
1.752,53.000,49.000,66.000,78.500
1.753,52.500,48.500,65.500,78.000
1.754,52.500,48.500,65.500,78.000
1.755,53.000,48.500,66.000,78.000
1.756,53.000,48.500,66.000,78.000
1.757,53.000,48.500,66.000,78.000
1.758,53.000,48.500,65.500,77.500
1.759,53.000,48.000,65.500,77.500
1.760,53.500,48.000,65.500,77.000
1.761,54.000,48.500,66.000,77.500
1.762,54.000,48.500,66.000,77.500
1.763,54.500,49.000,66.000,78.000
1.764,54.500,49.000,66.500,78.500
1.765,55.000,49.500,67.000,79.000
1.766,55.500,50.500,68.000,80.000
1.767,56.000,51.000,69.000,80.500
1.768,56.500,52.000,69.500,81.500
1.769,57.500,53.000,70.500,82.500
1.770,57.500,53.500,71.000,83.000
1.771,57.500,53.500,71.500,83.500
1.772,57.500,53.500,71.000,83.500
1.773,57.000,53.000,71.000,83.500
1.774,57.000,53.000,70.500,83.000
1.775,56.500,52.000,70.000,82.000
1.776,56.000,51.500,69.500,81.000
1.777,55.500,50.500,68.500,79.500
1.778,55.000,49.500,67.500,78.500
1.779,54.500,48.500,67.000,78.000
1.780,54.000,48.000,66.500,77.500
1.781,53.500,48.000,66.500,77.000
1.782,53.500,48.000,66.500,77.000
1.783,53.000,48.500,66.000,77.000
1.784,53.000,49.000,66.500,77.500
1.785,53.500,50.000,67.500,78.500
1.786,54.000,51.500,69.000,80.000
1.787,55.000,52.500,70.500,82.000
1.788,56.500,54.000,72.500,84.000
1.789,57.500,55.000,74.000,85.500
1.790,58.000,55.500,74.500,86.000
1.791,58.000,55.500,74.500,86.500
1.792,58.000,55.500,74.500,86.000
1.793,57.500,55.000,74.000,85.500
1.794,57.500,54.500,73.500,85.500
1.795,57.500,54.500,73.500,85.000
1.796,58.000,54.500,73.000,84.500
1.797,58.000,54.000,72.500,84.000
1.798,57.000,53.000,71.500,83.000
1.799,56.500,51.500,70.000,81.500
1.800,55.500,50.500,69.000,80.000
1.801,55.000,50.000,68.000,78.500
1.802,55.000,49.500,67.500,78.000
1.803,54.500,49.000,67.000,77.500
1.804,54.000,48.500,67.000,77.500
1.805,53.500,48.500,67.000,77.500
1.806,53.500,48.500,67.000,78.000
1.807,53.000,48.000,67.000,78.500
1.808,52.500,48.000,67.500,79.000
1.809,52.000,47.500,67.500,79.000
1.810,51.500,47.000,67.000,79.000
1.811,50.500,46.500,66.500,78.500
1.812,50.000,45.500,66.000,78.000
1.813,48.500,44.000,65.000,77.000
1.814,47.000,42.500,64.000,75.500
1.815,45.500,41.000,62.500,74.000
1.816,43.500,39.000,60.500,72.000
1.817,41.500,37.000,59.000,70.500
1.818,40.500,36.000,58.000,69.500
1.819,40.000,35.500,58.500,69.500
1.820,40.500,36.000,59.000,70.500
1.821,41.500,37.500,60.500,72.000
1.822,43.000,38.500,61.500,73.000
1.823,44.500,39.000,61.500,73.000
1.824,45.500,39.500,61.000,72.500
1.825,46.500,40.000,60.500,72.000
1.826,48.500,41.000,60.500,72.000
1.827,50.500,42.500,61.000,72.500
1.828,53.500,45.000,62.000,73.000
1.829,56.000,47.000,63.500,74.000
1.830,58.000,49.000,64.500,74.500
1.831,59.000,50.000,65.000,75.000
1.832,59.500,50.000,65.000,75.000
1.833,59.500,50.000,65.000,74.500
1.834,58.500,49.500,64.500,74.500
1.835,58.000,49.500,64.500,74.000
1.836,58.000,49.000,64.500,74.000
1.837,58.000,49.000,65.000,74.000
1.838,58.000,49.000,65.500,74.500
1.839,57.500,48.500,65.500,74.000
1.840,56.500,47.500,65.500,73.500
1.841,55.000,46.500,65.000,73.500
1.842,53.500,45.500,64.500,73.000
1.843,52.000,44.500,64.000,72.500
1.844,51.000,44.000,64.000,73.000
1.845,50.500,43.500,64.000,73.500
1.846,50.500,44.000,64.500,74.000
1.847,50.500,44.500,65.000,75.000
1.848,51.000,45.000,65.500,76.000
1.849,51.000,45.500,66.000,76.500
1.850,50.500,45.000,66.000,76.000
1.851,50.000,44.500,65.500,75.500
1.852,49.500,44.000,65.000,75.000
1.853,49.500,44.000,64.500,74.500
1.854,50.000,43.500,64.500,74.500
1.855,50.000,43.500,64.000,74.000
1.856,50.000,43.000,63.500,73.000
1.857,49.000,42.000,62.500,71.500
1.858,48.500,40.500,61.500,70.000
1.859,48.000,39.500,60.500,69.000
1.860,47.500,39.000,60.000,68.000
1.861,48.000,39.000,60.000,68.000
1.862,48.500,39.500,60.500,68.500
1.863,49.000,40.500,61.000,69.000
1.864,50.000,41.000,61.500,70.000
1.865,50.500,41.500,62.000,70.500
1.866,51.000,42.000,62.500,71.500
1.867,51.500,42.500,63.000,72.000
1.868,52.000,43.000,64.000,73.000
1.869,52.500,44.000,65.000,74.000
1.870,53.500,45.000,66.000,75.000
1.871,54.000,45.500,66.500,76.000
1.872,54.000,46.000,67.000,76.000
1.873,54.000,45.500,67.000,76.000
1.874,54.000,45.500,66.500,75.500
1.875,53.500,45.000,66.000,75.000
1.876,53.000,44.500,65.500,74.500
1.877,52.500,44.000,65.000,73.500
1.878,52.000,43.500,64.500,73.000
1.879,51.500,43.000,64.000,72.500
1.880,51.000,42.500,63.500,72.000
1.881,50.000,41.500,63.000,71.000
1.882,49.000,40.500,62.000,70.000
1.883,48.000,40.000,61.000,69.000
1.884,47.500,39.500,60.500,69.000
1.885,47.500,39.500,60.500,69.000
1.886,47.500,39.500,61.000,70.000
1.887,47.500,39.500,61.500,70.500
1.888,47.500,39.500,62.000,71.000
1.889,47.000,39.000,61.500,70.500
1.890,46.500,38.500,61.000,70.000
1.891,45.500,37.500,60.000,69.000
1.892,44.500,37.000,59.500,68.500
1.893,45.000,37.000,59.500,68.500
1.894,45.500,38.000,60.000,69.500
1.895,47.000,39.000,61.000,70.000
1.896,48.000,40.000,62.000,71.000
1.897,49.000,40.500,62.500,71.500
1.898,50.000,41.500,63.000,72.000
1.899,51.000,42.000,63.500,72.500
1.900,52.000,42.500,64.500,73.000
1.901,53.000,43.500,65.500,74.000
1.902,54.000,45.000,66.500,75.500
1.903,55.500,46.500,68.000,77.000
1.904,57.000,48.500,70.000,79.000
1.905,58.500,50.500,72.000,81.000
1.906,60.500,52.500,74.500,83.500
1.907,63.500,55.500,77.500,87.000
1.908,67.000,59.000,81.000,91.000
1.909,70.000,62.000,84.500,94.500
1.910,72.500,64.500,87.000,97.500
1.911,74.500,66.500,89.000,99.500
1.912,76.000,67.500,90.500,100.500
1.913,76.500,68.000,91.000,101.000
1.914,77.500,68.500,91.500,101.000
1.915,77.500,69.000,91.500,101.000
1.916,78.000,69.500,92.000,101.000
1.917,78.500,69.500,92.500,101.500
1.918,79.500,70.000,93.000,101.500
1.919,80.000,70.500,93.500,102.000
1.920,81.500,71.500,94.500,102.500
1.921,82.500,72.500,95.000,103.000
1.922,83.000,72.500,95.000,103.500
1.923,82.500,72.000,94.500,103.000
1.924,81.000,71.000,93.000,101.500
1.925,79.000,69.000,91.500,100.000
1.926,77.000,67.000,89.500,98.500
1.927,74.500,65.000,87.500,96.500
1.928,72.500,63.500,86.000,95.500
1.929,71.500,62.500,85.000,94.500
1.930,71.000,62.500,85.000,95.000
1.931,71.500,63.500,86.500,96.000
1.932,73.500,65.500,88.500,98.500
1.933,76.000,68.000,91.500,101.500
1.934,79.500,71.500,94.500,104.500
1.935,83.500,75.000,98.500,108.500
1.936,88.000,79.500,103.000,112.500
1.937,93.000,84.500,107.500,117.000
1.938,97.000,89.000,112.000,121.000
1.939,101.000,93.000,116.000,125.000
1.940,105.000,97.000,119.500,128.500
1.941,108.500,100.500,123.000,132.000
1.942,111.500,103.500,126.000,135.000
1.943,113.000,105.500,128.000,137.000
1.944,113.500,106.000,128.500,138.000
1.945,112.500,105.500,128.000,137.500
1.946,111.000,104.000,126.500,136.000
1.947,108.500,102.000,124.500,134.500
1.948,106.000,99.000,122.000,131.500
1.949,102.000,95.000,118.000,128.000
1.950,97.000,90.000,113.500,123.000
1.951,91.000,84.000,108.000,117.500
1.952,85.500,78.500,102.500,111.500
1.953,80.000,73.000,97.000,106.000
1.954,74.500,68.000,92.000,101.000
1.955,70.000,63.500,88.000,96.500
1.956,66.500,60.500,84.500,93.000
1.957,64.500,58.500,82.000,90.500
1.958,62.500,57.000,80.000,88.500
1.959,61.500,55.500,78.500,86.500
1.960,60.500,54.500,77.500,85.500
1.961,60.000,54.000,76.000,84.000
1.962,59.000,53.000,75.000,83.000
1.963,58.500,52.500,75.000,82.500
1.964,58.000,52.500,74.500,82.500
1.965,57.500,52.500,75.000,82.500
1.966,57.500,52.500,74.500,82.500
1.967,57.000,52.000,74.000,82.000
1.968,56.000,51.000,73.500,81.500
1.969,55.000,50.000,72.000,80.500
1.970,54.000,49.000,70.500,79.000
1.971,52.500,47.500,69.500,78.000
1.972,51.500,46.500,68.000,76.500
1.973,50.500,45.500,67.000,75.500
1.974,50.000,44.500,66.000,74.500
1.975,49.000,43.500,65.000,73.000
1.976,47.500,42.000,64.000,71.500
1.977,46.000,40.500,62.500,69.000
1.978,44.000,38.500,60.000,66.500
1.979,42.000,36.000,57.500,64.000
1.980,40.000,34.000,55.500,61.500
1.981,38.500,32.000,54.000,60.000
1.982,37.500,30.500,52.500,59.000
1.983,37.000,29.500,52.000,58.500
1.984,36.000,29.000,51.000,57.500
1.985,35.000,28.000,50.500,57.000
1.986,34.500,27.500,50.000,56.500
1.987,34.500,27.000,49.500,56.500
1.988,35.000,27.000,50.000,57.000
1.989,35.500,27.500,50.500,57.500
1.990,36.500,28.500,51.500,58.500
1.991,37.000,29.000,52.000,59.500
1.992,36.500,29.000,52.000,59.500
1.993,36.000,29.000,51.500,58.500
1.994,35.500,28.000,50.500,58.000
1.995,34.500,27.500,50.000,57.000
1.996,33.500,26.500,49.000,56.000
1.997,32.000,25.500,48.000,54.500
1.998,31.000,24.000,47.000,53.000
1.999,29.500,23.000,45.500,51.500
2.000,29.000,22.000,44.500,50.000
2.001,28.500,21.500,44.500,49.500
2.002,29.000,22.000,44.500,50.000
2.003,29.500,22.500,45.500,51.000
2.004,30.500,23.500,46.500,52.000
2.005,32.000,24.000,47.000,53.500
2.006,32.500,25.000,48.000,54.500
2.007,33.500,25.000,48.500,55.000
2.008,33.500,25.500,48.500,55.500
2.009,33.500,25.500,49.000,56.000
2.010,33.500,25.500,49.000,56.000
2.011,33.000,25.000,49.000,56.000
2.012,32.500,25.000,48.500,55.500
2.013,32.000,24.500,48.000,55.000
2.014,31.500,23.500,47.000,54.000
2.015,30.500,23.000,46.500,53.000
2.016,30.000,22.500,45.500,52.000
2.017,29.500,22.500,45.500,51.500
2.018,30.000,23.000,45.500,51.500
2.019,30.000,23.000,46.000,52.000
2.020,30.000,23.000,46.000,51.500
2.021,29.500,22.000,45.500,51.000
2.022,29.000,21.000,45.000,50.000
2.023,28.500,20.500,44.500,49.000
2.024,27.500,19.500,44.000,48.500
2.025,27.000,19.000,44.000,48.500
2.026,27.000,19.000,44.000,49.000
2.027,28.000,20.000,45.000,50.500
2.028,29.000,21.500,46.000,52.500
2.029,30.500,23.000,48.000,54.500
2.030,32.000,24.000,49.000,55.500
2.031,32.500,25.000,50.000,56.500
2.032,33.000,25.000,50.000,57.000
2.033,32.500,25.000,49.500,56.500
2.034,32.000,24.500,48.500,55.500
2.035,31.000,23.500,47.500,54.500
2.036,30.500,23.000,47.000,53.500
2.037,30.000,22.500,46.500,53.000
2.038,30.500,22.500,46.500,52.500
2.039,30.500,22.500,46.500,52.500
2.040,31.000,23.000,46.500,52.000
2.041,31.000,23.000,46.500,52.000
2.042,31.500,23.500,47.000,52.500
2.043,32.000,24.500,47.500,53.000
2.044,33.000,25.500,48.500,54.000
2.045,33.500,26.500,49.500,55.500
2.046,34.500,27.000,50.000,56.500
2.047,34.500,27.500,51.000,57.500
2.048,34.500,27.500,51.500,58.000
2.049,34.500,27.500,51.500,58.500
2.050,34.000,27.500,51.500,58.500
2.051,34.000,27.000,51.000,58.000
2.052,34.000,27.000,51.000,58.000
2.053,33.500,27.000,50.500,57.500
2.054,33.500,26.500,50.500,57.500
2.055,33.500,26.500,50.000,57.000
2.056,33.000,26.000,49.500,56.500
2.057,32.500,25.000,49.000,55.500
2.058,32.000,24.000,48.000,54.500
2.059,30.500,23.000,46.500,53.500
2.060,29.500,21.500,45.500,52.000
2.061,29.000,20.500,45.000,51.500
2.062,28.500,20.500,44.500,51.000
2.063,29.000,20.500,45.000,51.500
2.064,30.000,21.500,46.000,52.500
2.065,31.500,23.000,47.500,54.000
2.066,33.500,25.000,49.500,55.500
2.067,35.500,27.000,51.500,58.000
2.068,38.500,30.000,54.500,60.500
2.069,41.500,33.500,58.000,64.500
2.070,46.000,38.000,63.000,69.500
2.071,52.500,44.500,69.500,76.500
2.072,60.500,53.000,78.500,85.500
2.073,70.500,63.500,89.000,96.000
2.074,82.000,75.000,100.500,108.000
2.075,93.500,86.500,113.000,119.500
2.076,104.500,98.000,124.500,131.000
2.077,114.500,108.000,134.500,141.000
2.078,123.000,116.500,142.500,149.500
2.079,129.000,122.500,149.000,155.500
2.080,134.500,127.500,154.000,160.500
2.081,140.000,133.000,159.500,166.500
2.082,147.000,140.000,167.000,174.000
2.083,156.000,149.000,176.000,183.000
2.084,166.500,159.500,186.500,194.000
2.085,176.500,170.000,197.000,205.000
2.086,185.500,179.000,206.500,214.500
2.087,192.500,186.500,214.000,222.500
2.088,197.500,192.500,220.000,228.000
2.089,201.500,196.500,224.000,232.500
2.090,205.000,200.500,228.000,237.000
2.091,209.000,205.000,232.500,241.000
2.092,213.500,209.500,237.000,246.000
2.093,218.000,214.000,241.500,250.500
2.094,221.500,218.000,246.000,254.500
2.095,224.500,220.500,249.000,257.000
2.096,225.000,221.500,250.000,258.000
2.097,224.000,220.500,249.000,257.000
2.098,222.000,218.500,246.500,254.500
2.099,220.000,216.500,244.500,252.500
2.100,219.500,215.500,243.500,251.500
2.101,219.500,215.500,244.000,251.500
2.102,221.000,217.000,245.500,252.500
2.103,222.000,218.000,246.500,253.500
2.104,222.000,217.500,246.500,254.000
2.105,220.000,216.000,245.000,252.000
2.106,216.000,212.000,241.000,248.000
2.107,209.000,205.000,234.000,241.500
2.108,199.000,195.000,223.500,230.500
2.109,185.000,181.000,209.000,216.000
2.110,167.500,163.000,191.000,198.000
2.111,148.000,143.500,171.000,178.000
2.112,128.000,123.000,150.500,157.000
2.113,109.500,104.500,131.500,138.000
2.114,94.500,89.000,116.000,122.000
2.115,83.500,78.000,104.500,110.500
2.116,76.500,71.000,97.500,102.500
2.117,72.500,66.500,93.000,97.500
2.118,70.000,64.000,90.000,94.000
2.119,68.000,61.500,88.000,91.500
2.120,66.000,60.000,85.500,89.000
2.121,63.500,57.000,83.000,86.000
2.122,59.500,53.000,78.500,82.000
2.123,53.000,47.000,72.000,75.000
2.124,44.000,38.500,63.000,66.500
2.125,33.500,28.000,53.000,56.000
2.126,22.500,17.500,42.000,45.500
2.127,12.000,6.500,31.500,35.500
2.128,2.000,-3.000,22.500,26.000
2.129,-6.000,-11.500,14.500,18.000
2.130,-13.000,-18.000,8.000,11.500
2.131,-18.000,-23.000,3.000,7.000
2.132,-21.500,-26.500,-0.500,3.500
2.133,-23.000,-28.500,-2.500,1.000
2.134,-23.500,-29.000,-3.000,0.500
2.135,-23.000,-28.500,-2.500,0.500
2.136,-21.500,-27.000,-1.500,2.000
2.137,-19.500,-25.000,0.500,4.000
2.138,-17.000,-22.500,3.500,6.500
2.139,-13.500,-19.500,6.500,9.500
2.140,-9.500,-15.500,10.500,13.500
2.141,-4.500,-11.000,15.500,18.000
2.142,1.000,-5.500,21.500,24.000
2.143,7.500,1.000,28.000,30.000
2.144,14.500,8.000,35.000,37.500
2.145,21.500,16.000,43.000,46.000
2.146,29.500,24.000,51.500,54.500
2.147,36.500,32.000,59.000,62.500
2.148,43.000,38.500,66.000,70.000
2.149,47.500,43.500,71.000,75.000
2.150,50.500,47.000,74.500,78.500
2.151,51.500,48.000,76.000,80.000
2.152,52.000,48.500,76.000,80.500
2.153,51.500,48.500,76.000,80.000
2.154,51.500,48.500,76.000,80.000
2.155,51.500,49.000,76.000,80.000
2.156,52.000,49.500,76.500,80.000
2.157,53.000,50.500,77.500,81.000
2.158,54.500,51.500,79.000,82.000
2.159,56.500,53.000,80.500,83.500
2.160,59.000,54.500,82.000,85.000
2.161,61.000,56.000,83.500,86.500
2.162,62.000,57.500,85.000,87.500
2.163,63.000,58.000,86.000,88.500
2.164,63.500,58.500,86.500,89.500
2.165,64.000,59.000,87.000,90.000
2.166,64.000,59.000,87.500,90.500
2.167,64.000,59.000,87.500,91.000
2.168,64.500,58.500,87.500,91.000
2.169,64.500,58.500,87.500,90.500
2.170,64.500,58.000,87.000,90.000
2.171,64.000,57.500,86.000,89.500
2.172,64.000,57.000,85.500,89.000
2.173,64.000,57.000,85.000,88.500
2.174,65.000,57.500,85.000,88.500
2.175,66.000,58.000,85.000,89.000
2.176,67.000,58.500,85.500,89.500
2.177,67.500,59.500,86.500,89.500
2.178,68.500,60.500,87.000,90.000
2.179,69.500,61.000,88.000,91.000
2.180,70.000,62.000,89.000,91.500
2.181,70.500,62.500,89.500,92.500
2.182,70.500,63.500,90.500,93.000
2.183,71.000,64.000,91.000,94.000
2.184,71.500,65.000,92.000,95.000
2.185,72.000,66.000,93.500,96.500
2.186,72.500,66.500,94.500,98.000
2.187,73.000,67.500,95.500,99.000
2.188,73.500,68.000,96.000,100.000
2.189,73.500,68.000,96.500,100.500
2.190,73.500,68.000,96.500,100.500
2.191,73.500,68.000,97.000,101.000
2.192,73.500,68.000,97.000,101.000
2.193,73.000,67.500,96.500,100.500
2.194,73.000,67.000,96.000,100.000
2.195,72.500,66.500,95.500,99.500
2.196,72.500,66.000,95.000,98.500
2.197,72.000,65.000,94.500,97.500
2.198,72.000,64.500,94.000,96.500
2.199,71.500,64.000,93.500,95.500
2.200,72.000,64.000,93.500,95.500
2.201,72.500,65.000,94.500,97.000
2.202,74.000,67.000,96.500,98.500
2.203,76.000,69.000,98.500,101.000
2.204,77.000,70.500,100.500,103.000
2.205,77.500,71.500,102.000,104.500
2.206,77.500,72.000,102.500,105.500
2.207,77.000,72.000,103.000,106.000
2.208,76.500,72.000,103.000,106.000
2.209,76.000,72.000,103.500,106.500
2.210,76.000,72.500,103.500,107.000
2.211,76.000,72.500,103.500,107.500
2.212,76.000,72.500,104.000,108.500
2.213,76.500,72.500,104.500,109.000
2.214,76.500,72.000,105.000,109.500
2.215,76.000,72.000,105.000,109.500
2.216,76.500,72.000,105.000,109.500
2.217,77.000,72.000,105.000,109.500
2.218,78.000,72.500,105.000,109.000
2.219,79.000,72.500,105.000,108.500
2.220,80.500,73.000,104.000,108.000
2.221,82.500,73.000,103.500,107.000
2.222,84.500,74.500,103.500,107.000
2.223,87.500,76.500,104.500,107.500
2.224,91.000,79.500,106.500,109.500
2.225,95.000,83.000,109.000,111.500
2.226,98.500,86.000,112.000,114.500
2.227,101.000,89.000,114.500,117.000
2.228,102.500,91.500,116.500,119.500
2.229,103.500,93.000,118.500,121.000
2.230,104.000,94.500,120.000,122.500
2.231,104.000,95.000,121.000,124.000
2.232,104.000,96.000,122.000,125.000
2.233,104.500,96.500,123.000,126.000
2.234,104.500,97.000,124.500,127.000
2.235,104.500,97.500,125.500,128.000
2.236,104.500,98.000,126.000,129.000
2.237,104.000,98.000,126.500,129.500
2.238,103.500,97.000,126.500,129.500
2.239,102.500,96.500,126.500,129.000
2.240,102.000,95.500,126.000,129.000
2.241,102.000,95.500,126.000,129.500
2.242,103.000,96.500,127.000,130.000
2.243,104.500,97.500,128.000,131.500
2.244,106.000,99.000,129.000,133.000
2.245,108.000,100.500,130.500,135.000
2.246,109.500,102.500,132.500,137.000
2.247,111.000,104.000,134.000,139.000
2.248,113.000,106.000,136.000,141.000
2.249,114.000,107.000,138.000,142.500
2.250,115.000,108.500,139.500,144.000
2.251,116.000,109.500,140.500,145.000
2.252,117.000,110.000,141.000,146.000
2.253,117.500,110.500,141.500,146.500
2.254,118.500,111.500,142.500,147.500
2.255,120.000,112.500,143.500,148.500
2.256,121.500,114.000,145.000,149.500
2.257,123.000,115.500,146.000,151.000
2.258,124.500,117.000,147.500,152.000
2.259,126.000,118.500,149.000,153.500
2.260,127.500,120.000,150.500,155.000
2.261,129.000,121.500,152.500,156.500
2.262,130.000,123.000,154.000,158.000
2.263,131.500,124.500,155.500,159.000
2.264,133.000,125.500,156.500,160.500
2.265,134.500,127.500,158.500,162.500
2.266,136.000,129.500,161.000,165.000
2.267,138.500,132.000,163.500,167.500
2.268,140.500,135.000,166.000,170.500
2.269,142.500,137.000,168.000,172.500
2.270,144.500,138.500,169.500,174.500
2.271,145.500,139.000,170.500,175.500
2.272,145.500,139.000,171.000,176.000
2.273,145.500,139.000,171.000,176.000
2.274,145.500,138.500,171.000,175.500
2.275,146.000,138.500,170.500,175.500
2.276,146.500,139.000,171.000,176.000
2.277,148.000,140.000,172.000,177.000
2.278,149.500,141.500,173.000,178.000
2.279,151.000,143.000,174.500,179.000
2.280,152.500,144.000,176.000,180.500
2.281,154.500,145.500,177.500,181.500
2.282,156.000,147.500,179.000,183.000
2.283,158.500,149.500,181.000,185.000
2.284,161.000,151.500,183.500,187.500
2.285,163.500,154.000,186.000,190.000
2.286,165.500,156.500,188.500,192.500
2.287,167.500,158.500,190.500,194.500
2.288,169.000,160.000,192.000,196.500
2.289,170.500,162.000,194.000,198.500
2.290,172.000,163.500,196.000,200.500
2.291,174.000,165.500,198.000,202.500
2.292,176.000,167.500,200.000,204.500
2.293,177.500,169.000,201.500,206.000
2.294,178.500,170.000,202.500,207.000
2.295,179.500,170.500,203.000,207.000
2.296,179.500,170.500,202.500,207.000
2.297,179.000,170.000,202.000,206.000
2.298,178.000,169.500,201.000,205.000
2.299,178.000,168.500,200.500,204.000
2.300,178.000,169.000,200.500,204.000
2.301,179.500,170.000,202.000,205.000
2.302,181.000,171.500,203.500,206.500
2.303,183.000,173.000,205.500,208.500
2.304,184.500,174.500,207.000,210.000
2.305,185.500,176.000,208.500,211.500
2.306,187.000,177.500,210.000,213.500
2.307,188.500,179.000,211.500,215.500
2.308,190.000,180.500,213.500,217.500
2.309,191.000,181.500,215.000,219.000
2.310,191.500,182.500,215.500,220.000
2.311,191.500,182.500,216.000,220.000
2.312,191.000,182.000,215.500,219.500
2.313,190.500,181.000,215.000,219.000
2.314,189.500,180.000,214.000,218.000
2.315,189.000,178.500,213.000,216.500
2.316,188.500,177.500,212.000,215.500
2.317,188.000,177.000,211.000,214.500
2.318,188.000,176.500,210.500,213.500
2.319,188.000,176.500,209.500,212.500
2.320,188.000,176.500,209.500,212.000
2.321,188.500,176.500,209.500,212.000
2.322,189.000,177.000,210.000,212.000
2.323,189.500,177.000,210.500,212.500
2.324,190.000,177.500,211.000,212.500
2.325,190.000,177.500,211.000,213.000
2.326,190.000,177.500,211.500,213.000
2.327,189.500,177.000,211.000,213.500
2.328,188.500,176.500,211.000,213.500
2.329,187.000,176.000,210.000,212.500
2.330,185.500,174.500,208.500,211.500
2.331,183.500,173.000,207.000,210.000
2.332,181.500,171.000,205.000,208.000
2.333,179.000,169.000,202.500,206.000
2.334,177.000,166.500,200.500,203.500
2.335,175.500,164.500,198.000,201.000
2.336,173.500,162.000,196.000,198.500
2.337,171.500,160.000,193.000,196.000
2.338,169.500,158.000,190.500,193.500
2.339,167.500,155.500,188.000,191.000
2.340,165.000,153.500,185.500,188.500
2.341,163.000,151.500,183.500,186.500
2.342,161.000,149.500,182.000,184.500
2.343,159.000,147.500,180.500,182.500
2.344,157.500,146.000,179.000,181.000
2.345,155.500,144.000,177.000,179.000
2.346,153.500,142.000,175.000,177.000
2.347,151.500,139.500,173.500,175.000
2.348,149.500,137.500,171.500,173.500
2.349,147.500,135.500,169.500,172.000
2.350,145.000,133.000,167.000,169.500
2.351,142.000,130.000,164.000,166.000
2.352,138.500,126.000,160.000,162.000
2.353,135.000,122.500,156.500,158.000
2.354,132.000,119.000,153.000,154.500
2.355,129.000,116.000,150.000,151.500
2.356,127.000,113.000,147.000,148.500
2.357,124.500,110.500,144.000,145.500
2.358,122.000,108.000,141.500,142.500
2.359,120.000,105.500,139.000,140.000
2.360,118.500,103.500,137.000,138.000
2.361,117.000,101.500,135.500,136.500
2.362,116.000,100.500,134.500,135.000
2.363,114.500,99.000,133.000,134.000
2.364,113.500,97.500,132.000,132.500
2.365,111.500,96.000,130.500,131.500
2.366,110.000,94.500,129.000,129.500
2.367,107.500,92.500,127.000,128.000
2.368,105.500,90.000,124.500,126.000
2.369,103.500,88.000,122.500,124.000
2.370,101.500,86.000,120.500,122.000
2.371,99.500,84.500,118.500,120.000
2.372,97.500,82.500,116.500,118.000
2.373,95.500,80.500,114.500,116.000
2.374,93.500,78.500,112.500,114.000
2.375,91.500,76.500,110.500,112.000
2.376,89.500,74.500,108.000,109.500
2.377,87.500,72.500,106.000,107.500
2.378,85.000,70.000,103.500,105.000
2.379,83.000,67.500,101.500,102.500
2.380,81.000,65.000,99.500,100.500
2.381,79.500,63.500,97.500,98.500
2.382,78.000,61.500,96.000,96.500
2.383,76.500,60.000,94.000,94.500
2.384,75.000,58.000,92.500,93.000
2.385,73.500,56.500,91.000,91.500
2.386,72.000,55.500,90.000,90.500
2.387,71.000,55.000,89.500,90.000
2.388,70.000,54.500,89.500,89.500
2.389,70.000,54.500,89.500,90.000
2.390,69.500,55.000,89.500,90.000
2.391,69.500,54.500,89.500,90.000
2.392,69.000,54.500,89.000,89.500
2.393,68.000,53.500,88.000,88.500
2.394,67.000,52.500,86.500,87.000
2.395,66.000,51.000,85.500,86.000
2.396,64.500,50.000,84.500,85.000
2.397,63.500,49.000,84.000,83.500
2.398,62.500,48.500,83.000,82.500
2.399,61.500,47.500,82.500,81.500
2.400,60.500,47.000,81.500,80.500
2.401,60.000,46.500,81.000,79.500
2.402,59.000,45.500,80.500,79.000
2.403,58.000,45.000,80.000,78.500
2.404,57.500,44.500,79.500,78.500
2.405,57.000,44.000,79.000,78.500
2.406,56.500,44.000,79.000,78.500
2.407,57.000,44.500,79.500,79.000
2.408,57.000,44.500,79.500,79.500
2.409,57.000,44.500,80.000,79.500
2.410,57.000,44.000,79.500,79.000
2.411,56.000,43.000,78.500,78.500
2.412,55.500,42.500,78.000,77.500
2.413,54.500,41.500,77.000,76.500
2.414,53.500,41.000,76.000,75.500
2.415,52.000,40.000,75.000,74.500
2.416,51.000,39.000,74.500,73.000
2.417,50.000,38.500,73.500,72.000
2.418,49.000,37.500,72.500,70.500
2.419,48.000,36.500,71.500,69.500
2.420,47.500,36.000,70.500,68.500
2.421,47.500,35.500,70.500,68.500
2.422,47.500,36.000,70.500,68.500
2.423,48.500,36.500,71.000,69.500
2.424,49.000,37.000,72.000,70.000
2.425,50.000,38.000,73.000,71.000
2.426,51.000,39.000,73.500,72.000
2.427,51.500,39.500,74.000,73.000
2.428,52.000,39.500,74.000,73.000
2.429,51.500,39.000,73.500,72.500
2.430,50.500,37.500,72.000,71.500
2.431,49.000,36.000,71.000,70.000
2.432,48.000,35.000,69.500,69.000
2.433,47.500,34.000,69.000,68.000
2.434,47.000,34.000,68.500,67.500
2.435,47.500,34.000,68.500,67.500
2.436,47.500,34.000,68.500,67.500
2.437,48.000,34.000,68.000,67.000
2.438,48.000,33.500,67.500,66.000
2.439,47.500,33.000,67.000,65.500
2.440,47.500,33.000,67.000,65.000
2.441,48.000,33.500,67.500,65.500
2.442,48.500,34.000,68.000,66.000
2.443,49.000,35.000,69.000,67.000
2.444,49.500,36.000,70.000,68.000
2.445,50.500,37.000,71.000,69.500
2.446,51.000,38.000,72.000,70.500
2.447,51.500,39.000,73.000,71.500
2.448,52.000,40.000,74.000,72.500
2.449,52.500,40.500,74.500,73.500
2.450,53.000,40.500,75.000,73.500
2.451,53.500,41.000,75.000,73.500
2.452,54.000,40.500,74.500,73.500
2.453,53.500,40.000,74.000,72.500
2.454,53.000,39.000,72.500,71.500
2.455,52.000,37.500,71.000,69.500
2.456,50.500,36.500,69.500,68.000
2.457,50.000,35.500,68.000,66.500
2.458,49.500,35.000,67.500,65.500
2.459,49.500,35.000,67.500,65.000
2.460,49.500,35.500,67.500,65.000
2.461,50.000,36.000,68.500,65.500
2.462,50.500,36.500,69.000,66.500
2.463,50.500,37.000,69.500,67.000
2.464,51.000,37.500,70.000,67.500
2.465,51.500,38.000,70.500,68.500
2.466,52.000,38.500,71.500,69.000
2.467,52.500,39.500,72.500,70.000
2.468,53.000,40.500,73.500,71.000
2.469,53.500,41.500,74.500,72.500
2.470,54.000,42.000,75.500,73.500
2.471,54.000,42.000,76.000,74.000
2.472,53.500,42.000,75.500,74.000
2.473,53.000,41.500,75.500,73.500
2.474,53.000,41.000,75.000,73.000
2.475,52.500,40.500,75.000,72.500
2.476,52.500,40.500,75.000,72.000
2.477,52.500,40.500,74.500,72.000
2.478,52.000,40.500,74.500,71.500
2.479,52.000,40.500,74.000,71.000
2.480,52.000,40.500,74.000,70.500
2.481,52.500,41.000,74.500,71.000
2.482,53.500,42.000,75.500,72.000
2.483,54.500,43.000,76.500,73.000
2.484,55.000,43.500,77.000,74.000
2.485,55.500,44.000,77.500,75.000
2.486,55.500,44.000,78.000,75.500
2.487,55.000,44.000,78.000,75.500
2.488,54.500,44.000,78.000,75.500
2.489,54.000,44.000,78.000,75.500
2.490,53.500,43.500,78.000,75.500
2.491,53.000,43.000,78.000,75.000
2.492,53.000,42.500,78.000,75.000
2.493,52.500,42.500,77.500,74.500
2.494,53.000,42.000,77.500,74.500
2.495,53.000,42.000,77.500,74.500
2.496,53.000,41.500,77.500,74.500
2.497,53.000,41.500,77.000,74.000
2.498,52.500,40.500,76.500,73.000
2.499,51.500,40.000,75.500,71.500
2.500,51.000,39.000,74.500,70.500
2.501,50.000,38.000,73.500,69.500
2.502,50.000,37.500,73.000,69.000
2.503,49.500,37.500,72.500,69.000
2.504,50.000,38.000,73.000,69.500
2.505,50.000,38.500,73.500,70.500
2.506,50.500,39.000,74.500,71.500
2.507,51.000,39.500,75.000,72.000
2.508,51.500,40.000,75.500,73.000
2.509,51.500,40.500,76.000,73.500
2.510,52.000,41.000,76.500,73.500
2.511,52.000,41.000,76.500,74.000
2.512,52.000,41.000,76.500,74.000
2.513,52.000,41.000,77.000,74.000
2.514,52.500,41.000,77.000,74.000
2.515,53.000,41.000,77.500,74.000
2.516,53.000,41.500,77.500,73.500
2.517,52.000,41.000,77.000,72.000
2.518,51.000,40.000,76.000,71.000
2.519,50.000,39.000,75.000,69.500
2.520,49.000,38.500,74.000,68.500
2.521,48.500,38.000,73.500,68.000
2.522,48.500,38.000,73.500,68.000
2.523,48.500,38.000,74.000,68.000
2.524,48.500,38.500,74.000,68.500
2.525,48.500,38.500,74.000,68.500
2.526,49.000,38.000,74.000,69.000
2.527,49.000,38.500,74.000,69.500
2.528,49.500,39.000,74.500,70.000
2.529,50.000,39.500,75.000,71.000
2.530,51.000,40.000,75.500,72.000
2.531,51.000,40.500,76.000,72.500
2.532,51.000,40.500,76.000,72.000
2.533,51.000,40.000,75.500,71.500
2.534,50.500,39.500,75.000,71.000
2.535,50.000,39.000,74.500,70.000
2.536,50.500,39.000,74.500,70.000
2.537,50.500,39.500,74.500,69.500
2.538,51.000,39.500,74.500,69.500
2.539,51.000,39.500,74.000,69.000
2.540,51.000,39.500,74.500,69.000
2.541,51.500,40.000,75.000,69.000
2.542,52.500,41.000,75.500,70.000
2.543,53.000,42.000,76.500,71.000
2.544,53.500,42.500,77.500,71.500
2.545,53.500,42.000,77.500,72.000
2.546,53.000,41.500,77.000,71.500
2.547,52.500,41.000,76.500,71.500
2.548,52.000,41.000,76.500,71.500
2.549,52.000,41.000,76.500,71.500
2.550,52.500,41.000,76.500,72.000
2.551,52.500,41.000,76.500,72.000
2.552,52.000,40.500,76.000,71.500
2.553,51.500,39.500,75.500,71.000
2.554,50.500,38.500,74.500,69.500
2.555,49.500,37.000,73.000,68.500
2.556,48.000,36.000,71.500,67.000
2.557,47.000,34.500,70.000,65.000
2.558,46.000,33.500,69.000,63.500
2.559,45.000,32.500,68.000,62.500
2.560,45.000,32.000,67.500,61.500
2.561,45.000,31.500,67.500,61.500
2.562,45.000,31.500,68.000,61.500
2.563,46.000,32.000,68.500,62.500
2.564,46.500,33.000,70.000,63.500
2.565,48.000,34.500,71.000,65.000
2.566,49.500,36.000,72.500,67.000
2.567,51.000,37.500,74.000,68.500
2.568,51.500,38.000,75.000,69.500
2.569,51.500,38.000,75.500,69.500
2.570,51.000,37.500,75.000,69.500
2.571,50.000,37.000,74.500,69.000
2.572,49.000,36.000,73.500,68.000
2.573,48.500,35.500,73.000,67.500
2.574,48.000,34.500,72.500,67.000
2.575,47.500,34.000,71.500,66.000
2.576,47.500,33.500,71.500,65.500
2.577,48.000,33.500,71.000,65.000
2.578,48.500,33.000,70.500,64.500
2.579,48.500,33.000,70.000,63.500
2.580,48.500,32.500,69.500,63.000
2.581,48.000,32.000,69.500,62.500
2.582,48.000,32.000,69.500,62.000
2.583,48.000,32.500,69.500,62.500
2.584,48.000,32.500,70.000,63.000
2.585,48.500,33.000,70.500,63.500
2.586,48.500,33.500,71.000,64.500
2.587,48.500,33.500,71.000,65.000
2.588,49.000,34.000,71.500,65.500
2.589,49.000,34.500,72.000,66.000
2.590,49.000,34.500,72.500,66.500
2.591,49.000,34.500,73.000,66.500
2.592,48.500,34.500,73.000,66.500
2.593,49.000,35.000,73.500,66.500
2.594,49.000,35.000,73.500,66.500
2.595,49.000,35.000,73.500,66.500
2.596,49.000,35.500,74.000,66.500
2.597,49.000,35.500,74.000,66.500
2.598,49.000,35.500,75.000,67.000
2.599,49.500,36.000,75.500,67.500
2.600,50.500,37.000,76.500,69.000
2.601,51.000,37.500,77.500,70.000
2.602,51.500,38.500,78.500,71.000
2.603,52.000,39.500,79.500,72.000
2.604,52.500,40.500,80.500,73.500
2.605,53.000,41.500,82.000,75.500
2.606,54.500,43.500,84.000,78.000
2.607,56.500,45.500,86.500,81.000
2.608,59.000,48.000,89.500,84.500
2.609,61.000,50.500,92.500,87.500
2.610,63.000,53.000,95.000,90.500
2.611,64.500,54.500,97.000,92.500
2.612,65.500,55.500,98.000,93.500
2.613,66.000,56.000,98.500,93.500
2.614,66.500,56.500,98.000,93.000
2.615,67.000,56.000,97.000,92.000
2.616,67.500,56.000,96.000,90.500
2.617,69.000,56.500,95.000,89.000
2.618,71.500,58.000,95.000,88.500
2.619,74.000,60.500,95.500,88.500
2.620,77.500,63.000,97.000,89.500
2.621,80.000,65.000,98.000,90.000
2.622,82.000,67.000,99.000,91.000
2.623,82.500,67.500,99.500,91.000
2.624,82.000,67.500,99.500,91.000
2.625,81.000,67.000,99.000,91.000
2.626,79.500,66.000,99.000,90.500
2.627,78.000,64.500,98.500,90.000
2.628,76.500,63.500,98.000,89.500
2.629,75.000,61.500,97.500,89.500
2.630,73.500,60.000,96.500,89.000
2.631,72.000,59.500,97.000,89.500
2.632,72.000,59.500,98.000,90.500
2.633,73.500,61.500,100.500,93.000
2.634,76.000,64.000,104.000,97.000
2.635,79.500,68.000,108.000,101.500
2.636,84.000,72.500,113.000,106.000
2.637,89.000,77.000,118.000,110.500
2.638,93.500,81.500,122.500,115.000
2.639,98.000,86.000,127.000,119.000
2.640,102.000,90.000,130.500,122.500
2.641,105.500,93.000,133.500,125.000
2.642,108.000,96.000,135.500,127.500
2.643,109.500,97.500,137.500,129.000
2.644,110.500,99.000,138.000,129.500
2.645,111.000,99.000,138.500,130.000
2.646,110.500,98.500,138.000,129.500
2.647,109.500,97.000,137.000,129.000
2.648,107.500,95.500,135.000,127.500
2.649,105.000,93.000,132.500,125.000
2.650,101.000,89.500,129.000,121.500
2.651,96.500,85.000,124.500,117.000
2.652,91.500,80.000,119.000,111.500
2.653,86.000,75.000,114.000,106.500
2.654,81.500,70.000,109.000,101.000
2.655,77.000,65.500,105.000,96.500
2.656,73.500,61.500,101.000,92.500
2.657,70.500,58.500,98.000,89.500
2.658,68.500,56.000,95.500,87.000
2.659,67.000,54.500,94.000,85.000
2.660,66.000,53.500,92.500,84.000
2.661,65.500,52.500,92.000,83.500
2.662,65.000,52.000,91.500,83.000
2.663,64.500,52.000,91.500,83.000
2.664,64.500,51.500,91.000,83.000
2.665,64.500,52.000,91.000,83.000
2.666,65.000,52.000,91.500,83.500
2.667,65.000,52.500,92.000,84.500
2.668,65.000,52.500,92.500,85.000
2.669,64.500,52.000,92.000,85.000
2.670,63.500,51.000,91.500,84.000
2.671,62.500,49.500,90.000,82.500
2.672,61.000,48.000,89.000,81.500
2.673,60.000,46.500,87.500,80.000
2.674,58.500,45.500,86.500,78.500
2.675,57.500,44.000,85.000,77.000
2.676,56.000,42.500,83.500,75.000
2.677,54.500,41.000,82.000,73.500
2.678,53.000,39.500,80.000,71.000
2.679,51.000,37.500,78.000,69.000
2.680,49.500,35.500,76.000,66.500
2.681,47.500,33.500,74.000,64.500
2.682,45.000,31.000,71.500,62.000
2.683,43.000,29.000,69.500,60.500
2.684,41.000,27.500,68.000,59.000
2.685,40.000,27.000,67.000,58.000
2.686,39.000,26.500,66.500,58.000
2.687,39.000,27.000,67.000,58.500
2.688,39.500,27.500,68.000,59.500
2.689,40.000,28.500,68.500,60.500
2.690,40.500,28.500,69.000,61.000
2.691,40.500,28.500,69.000,61.000
2.692,39.500,28.000,68.000,60.500
2.693,39.000,27.000,67.000,59.500
2.694,38.500,26.500,66.000,58.000
2.695,38.000,25.500,65.000,57.000
2.696,37.500,25.000,64.500,55.500
2.697,37.000,24.000,63.500,54.500
2.698,36.500,23.000,62.500,53.500
2.699,35.500,22.500,62.000,52.000
2.700,35.500,22.000,61.000,51.500
2.701,35.500,22.000,61.000,51.500
2.702,35.500,22.500,61.500,52.000
2.703,36.500,23.000,62.000,53.000
2.704,37.000,24.000,63.000,54.000
2.705,37.000,25.000,63.500,55.000
2.706,37.500,25.500,64.000,55.500
2.707,37.000,25.500,64.500,55.500
2.708,37.000,25.500,64.500,56.000
2.709,36.500,25.000,64.500,55.500
2.710,35.500,24.500,64.500,55.000
2.711,34.500,24.000,63.500,54.500
2.712,33.500,23.000,62.500,53.500
2.713,32.500,21.500,61.500,52.500
2.714,31.500,20.500,60.000,51.000
2.715,30.500,19.500,59.000,50.000
2.716,30.500,19.000,58.000,49.000
2.717,30.000,19.000,57.500,48.000
2.718,30.000,18.500,57.000,47.500
2.719,30.000,18.500,57.000,47.500
2.720,30.000,19.000,57.000,47.500
2.721,30.500,19.000,57.000,47.500
2.722,30.500,19.500,57.500,48.000
2.723,30.500,19.500,57.500,48.500
2.724,30.500,20.000,58.000,49.000
2.725,31.000,21.000,59.000,50.000
2.726,32.000,22.000,60.000,51.000
2.727,33.000,23.500,61.500,53.000
2.728,34.500,25.000,63.500,54.500
2.729,36.000,27.000,65.000,56.500
2.730,37.500,28.500,67.000,58.500
2.731,38.000,29.000,67.500,59.500
2.732,37.500,29.000,67.500,59.000
2.733,36.500,28.000,67.000,58.500
2.734,35.000,26.500,65.500,57.000
2.735,34.000,25.500,64.500,55.500
2.736,33.000,24.500,64.000,54.500
2.737,32.000,24.000,63.500,54.000
2.738,32.000,23.500,63.000,53.000
2.739,32.000,23.500,63.500,53.000
2.740,32.500,24.000,64.000,53.500
2.741,33.000,24.500,64.500,54.000
2.742,33.500,25.500,65.000,54.500
2.743,34.000,26.000,65.500,55.500
2.744,34.000,26.500,66.000,56.000
2.745,34.000,27.000,66.500,56.500
2.746,34.000,27.000,67.000,57.000
2.747,34.000,27.500,67.500,57.500
2.748,34.000,27.500,68.000,57.500
2.749,34.000,27.500,68.000,58.000
2.750,34.000,27.500,68.000,57.500
2.751,33.500,27.000,68.000,57.500
2.752,33.000,27.000,67.500,57.000
2.753,33.000,26.500,67.500,57.000
2.754,33.500,27.000,67.500,57.000
2.755,34.000,27.500,68.000,57.000
2.756,34.500,28.000,68.000,57.500
2.757,35.000,28.000,68.500,57.500
2.758,35.000,28.500,68.000,57.000
2.759,35.000,28.000,68.000,56.500
2.760,34.500,27.500,67.000,55.500
2.761,34.000,27.000,66.500,55.000
2.762,33.500,26.500,66.000,54.500
2.763,33.000,26.500,66.000,54.500
2.764,33.500,27.000,66.500,55.000
2.765,34.500,28.000,67.500,56.000
2.766,35.500,29.000,68.500,57.500
2.767,37.000,30.500,70.000,59.000
2.768,38.500,32.000,71.500,61.000
2.769,40.500,34.000,73.500,63.000
2.770,43.000,36.000,76.000,65.500
2.771,47.000,40.000,80.000,69.500
2.772,53.000,46.000,86.000,75.500
2.773,61.000,54.000,94.000,83.500
2.774,70.500,64.000,104.000,93.500
2.775,81.500,74.500,114.500,104.000
2.776,93.000,86.000,125.500,115.000
2.777,103.500,96.500,136.000,125.500
2.778,113.000,106.000,145.500,135.000
2.779,121.500,114.500,154.000,143.500
2.780,129.000,122.000,162.000,151.500
2.781,136.000,129.000,169.500,159.000
2.782,143.500,136.500,177.500,167.500
2.783,152.500,145.000,186.500,177.000
2.784,162.500,155.000,196.500,188.000
2.785,173.500,166.500,208.500,200.000
2.786,185.000,178.500,220.500,212.500
2.787,195.500,189.500,231.500,224.000
2.788,204.000,198.000,241.000,233.000
2.789,209.500,204.000,247.500,239.500
2.790,213.000,208.000,251.500,244.000
2.791,215.500,210.500,254.000,247.000
2.792,217.500,212.500,256.000,249.000
2.793,220.000,214.500,258.500,251.500
2.794,222.500,217.000,261.000,254.500
2.795,225.000,219.500,263.500,256.500
2.796,227.000,221.000,265.500,258.500
2.797,227.000,221.500,265.500,258.000
2.798,225.500,220.000,264.000,256.500
2.799,223.500,217.500,261.500,253.500
2.800,221.000,215.000,259.000,251.000
2.801,220.000,213.000,257.500,249.000
2.802,219.500,212.500,257.000,248.500
2.803,219.500,212.500,257.000,249.000
2.804,220.000,213.000,258.000,249.500
2.805,220.000,213.000,258.000,249.500
2.806,218.500,212.000,256.500,248.500
2.807,215.000,209.000,253.000,245.500
2.808,209.500,203.000,247.000,239.500
2.809,200.500,194.000,238.000,230.000
2.810,187.500,181.000,225.000,217.000
2.811,170.500,164.000,207.500,199.500
2.812,151.000,144.000,187.500,179.500
2.813,131.000,123.000,166.500,158.500
2.814,112.000,104.000,147.000,139.000
2.815,97.000,88.500,131.500,123.000
2.816,86.000,77.000,120.000,111.000
2.817,79.000,70.000,112.500,103.500
2.818,74.500,65.500,107.500,98.000
2.819,70.500,61.500,103.500,94.000
2.820,67.000,58.000,100.000,90.500
2.821,63.500,54.500,96.500,86.500
2.822,59.500,51.000,92.500,82.000
2.823,54.500,46.500,87.500,77.500
2.824,48.500,40.500,81.000,71.000
2.825,40.500,32.500,73.500,63.500
2.826,31.500,23.500,64.000,54.500
2.827,21.500,14.000,54.500,45.000
2.828,12.000,4.000,44.500,35.000
2.829,3.000,-5.000,35.500,26.000
2.830,-5.500,-13.000,27.500,18.000
2.831,-12.000,-20.000,21.000,11.000
2.832,-17.500,-25.500,15.500,5.500
2.833,-21.000,-29.000,12.000,2.000
2.834,-22.500,-31.000,10.500,0.000
2.835,-22.500,-31.000,10.500,0.000
2.836,-21.000,-29.500,11.500,1.500
2.837,-18.000,-27.000,14.000,4.000
2.838,-14.500,-23.500,17.500,7.000
2.839,-11.000,-19.500,21.000,10.500
2.840,-6.500,-15.500,25.000,14.000
2.841,-2.000,-11.000,29.500,18.500
2.842,3.000,-6.000,34.500,23.000
2.843,8.000,-0.500,40.000,28.500
2.844,13.500,5.000,46.000,34.500
2.845,19.000,11.000,52.000,40.500
2.846,25.000,17.000,58.000,47.000
2.847,31.000,22.500,64.000,53.500
2.848,37.000,28.500,70.500,60.000
2.849,42.500,34.000,76.000,66.000
2.850,47.500,38.500,81.000,71.000
2.851,51.500,42.500,84.500,75.000
2.852,54.000,44.500,87.500,77.500
2.853,55.500,46.000,89.000,79.000
2.854,56.500,46.500,89.500,79.500
2.855,56.500,46.500,89.500,79.500
2.856,56.500,46.000,89.000,79.000
2.857,56.000,45.500,89.000,78.500
2.858,56.500,45.500,88.500,78.000
2.859,57.000,46.000,89.500,78.500
2.860,58.000,47.000,90.500,80.000
2.861,60.000,49.000,92.500,81.500
2.862,61.500,50.500,94.500,83.000
2.863,63.000,52.000,96.000,84.500
2.864,64.000,53.000,97.000,85.500
2.865,64.500,53.500,98.000,86.500
2.866,65.500,54.500,99.000,88.000
2.867,66.500,56.000,100.000,89.000
2.868,67.000,56.500,101.000,90.000
2.869,67.500,57.500,101.500,91.000
2.870,67.000,57.500,101.500,91.000
2.871,66.500,57.000,101.000,90.500
2.872,65.500,56.500,100.000,89.500
2.873,64.500,55.500,99.000,89.000
2.874,64.000,55.000,98.500,88.500
2.875,64.500,55.000,98.500,88.500
2.876,65.500,56.000,99.500,89.000
2.877,66.500,57.500,100.500,90.000
2.878,68.000,58.500,101.500,90.500
2.879,68.500,59.500,102.500,91.000
2.880,69.000,60.000,102.500,91.000
2.881,69.000,60.000,102.500,91.000
2.882,69.000,60.000,102.500,91.000
2.883,69.000,60.500,102.500,91.500
2.884,69.500,61.000,103.000,92.000
2.885,70.000,61.500,104.000,93.500
2.886,71.000,63.000,105.500,95.000
2.887,72.000,64.000,106.500,96.000
2.888,72.500,65.000,108.000,97.500
2.889,73.500,66.000,108.500,98.000
2.890,73.500,66.000,109.000,99.000
2.891,74.000,66.500,109.500,99.000
2.892,74.000,66.500,109.500,99.500
2.893,74.000,66.000,109.000,99.000
2.894,73.500,65.500,108.500,98.000
2.895,72.500,64.500,107.500,97.500
2.896,72.500,64.000,106.500,96.500
2.897,72.000,64.000,106.000,95.500
2.898,72.500,64.000,105.500,95.000
2.899,72.500,64.000,105.500,94.500
2.900,73.500,64.000,105.500,94.500
2.901,74.500,65.000,106.000,95.000
2.902,76.500,66.000,107.000,96.000
2.903,78.000,67.500,108.500,98.000
2.904,79.500,69.000,110.000,99.500
2.905,80.500,70.000,111.500,100.500
2.906,81.500,71.000,112.500,101.500
2.907,82.500,72.000,113.000,102.500
2.908,83.000,72.500,114.000,104.000
2.909,84.000,73.500,115.000,105.000
2.910,85.000,74.500,116.000,106.000
2.911,85.000,75.000,116.500,106.500
2.912,85.000,75.000,116.000,106.500
2.913,84.500,74.500,116.000,106.000
2.914,84.500,74.500,116.000,106.000
2.915,84.500,74.500,116.000,106.000
2.916,84.500,75.000,116.000,106.000
2.917,85.500,75.500,117.000,106.500
2.918,86.500,76.500,118.000,107.000
2.919,88.000,77.500,119.000,108.500
2.920,89.500,79.000,120.500,109.500
2.921,91.000,80.000,121.500,111.000
2.922,92.500,81.500,123.000,112.500
2.923,94.000,83.000,124.500,114.000
2.924,95.500,84.000,126.000,116.000
2.925,97.000,86.000,128.000,118.000
2.926,98.500,87.500,130.000,119.500
2.927,100.000,89.500,132.000,121.500
2.928,101.500,91.000,133.500,123.500
2.929,103.000,92.500,135.000,125.500
2.930,104.000,94.000,136.000,126.500
2.931,104.500,94.500,136.500,127.500
2.932,104.500,94.500,136.500,127.500
2.933,104.500,94.500,136.500,127.000
2.934,104.500,94.500,136.500,127.000
2.935,104.500,94.500,136.500,127.000
2.936,104.500,95.000,137.000,127.000
2.937,105.000,95.500,137.500,127.500
2.938,106.000,96.000,138.000,128.000
2.939,106.500,97.000,138.500,128.500
2.940,107.500,98.000,139.000,129.500
2.941,108.500,99.500,140.500,131.000
2.942,110.000,101.500,142.500,133.000
2.943,111.500,103.500,144.500,135.000
2.944,113.000,105.500,146.500,137.500
2.945,114.500,107.000,148.000,139.000
2.946,115.500,108.000,149.500,140.500
2.947,116.000,109.000,150.500,142.000
2.948,117.000,110.000,152.000,143.500
2.949,118.000,111.500,153.500,145.000
2.950,119.000,113.000,155.000,146.500
2.951,120.500,114.500,156.500,148.000
2.952,121.500,115.500,157.500,149.000
2.953,122.000,116.500,158.000,150.000
2.954,122.500,116.500,158.000,150.000
2.955,122.500,116.500,158.000,149.500
2.956,122.500,116.500,158.000,149.500
2.957,123.000,117.000,158.000,149.500
2.958,124.000,117.500,158.500,149.500
2.959,125.000,118.500,159.500,150.500
2.960,126.500,120.000,160.500,151.500
2.961,128.500,122.000,162.000,153.500
2.962,130.500,124.000,164.000,155.500
2.963,133.000,126.500,166.500,158.000
2.964,135.500,129.500,169.500,161.500
2.965,137.500,132.000,172.500,164.500
2.966,139.500,135.000,175.000,167.000
2.967,141.500,137.000,177.500,169.500
2.968,143.000,139.000,179.000,171.500
2.969,145.000,141.000,180.500,173.000
2.970,146.000,142.000,181.500,174.500
2.971,147.000,143.500,182.500,175.500
2.972,148.000,144.500,183.500,176.500
2.973,149.000,146.000,184.500,178.000
2.974,150.000,147.000,186.000,179.000
2.975,151.000,148.500,187.500,180.000
2.976,152.500,150.000,189.000,181.000
2.977,154.000,151.500,190.500,182.500
2.978,155.500,153.000,192.000,184.000
2.979,157.000,154.500,193.500,185.500
2.980,158.500,155.500,194.500,186.500
2.981,159.500,156.500,195.500,187.500
2.982,160.500,157.500,196.500,188.500
2.983,162.000,158.500,198.000,190.000
2.984,163.500,160.500,200.000,192.500
2.985,165.500,162.500,202.500,195.000
2.986,167.500,164.500,205.000,197.500
2.987,169.000,166.500,207.000,200.000
2.988,170.500,168.500,209.000,202.000
2.989,172.000,170.000,210.500,203.500
2.990,173.500,171.000,211.500,205.000
2.991,174.500,172.500,213.000,206.000
2.992,175.500,173.500,214.000,207.500
2.993,176.000,174.500,215.000,208.000
2.994,177.000,175.500,215.500,209.000
2.995,177.000,176.000,216.000,209.500
2.996,177.500,176.000,216.500,210.000
2.997,177.000,176.000,216.500,210.500
2.998,177.000,176.000,217.000,210.500
2.999,176.500,176.000,217.000,210.500
3.000,176.500,176.500,217.000,210.500
3.001,177.000,177.000,218.000,211.500
3.002,177.500,178.000,219.000,213.000
3.003,178.500,179.000,220.500,214.500
3.004,178.500,180.000,222.000,216.500
3.005,179.000,180.500,223.000,218.000
3.006,179.000,181.000,223.500,219.000
3.007,179.000,181.500,224.500,220.000
3.008,179.500,182.000,224.500,220.500
3.009,180.000,182.000,225.000,220.500
3.010,180.000,182.000,224.000,220.000
3.011,180.500,182.000,223.000,219.000
3.012,181.000,181.500,222.000,218.000
3.013,182.500,182.000,221.000,216.500
3.014,185.000,183.000,221.000,216.000
3.015,187.500,184.500,221.000,215.500
3.016,190.000,186.500,221.500,215.500
3.017,192.000,187.500,222.000,215.000
3.018,193.500,188.500,222.500,215.000
3.019,194.000,189.000,223.000,215.500
3.020,195.000,190.000,223.500,216.000
3.021,196.000,190.500,225.000,217.000
3.022,197.000,191.500,226.000,218.000
3.023,197.500,191.500,226.500,219.000
3.024,197.500,192.000,227.500,219.500
3.025,197.000,191.500,228.000,220.500
3.026,196.500,191.500,228.000,221.000
3.027,195.000,191.000,228.000,221.500
3.028,194.000,190.000,228.000,222.000
3.029,192.500,189.000,228.000,222.000
3.030,191.000,188.000,227.500,221.500
3.031,190.000,186.500,227.000,221.000
3.032,189.000,185.500,226.500,220.000
3.033,187.500,184.000,225.000,219.000
3.034,186.000,182.000,223.000,216.500
3.035,183.500,179.500,220.000,214.000
3.036,180.500,176.500,217.000,210.000
3.037,177.500,173.000,213.000,206.500
3.038,174.500,169.500,209.500,202.500
3.039,171.500,166.500,206.500,199.000
3.040,169.000,163.500,203.500,196.000
3.041,167.000,161.000,200.500,193.500
3.042,164.500,159.000,198.000,191.000
3.043,162.500,157.000,196.000,189.000
3.044,160.500,155.000,194.000,187.500
3.045,159.500,154.000,193.000,186.500
3.046,158.000,153.000,192.000,185.500
3.047,157.000,152.000,191.000,184.500
3.048,155.000,150.500,189.500,183.000
3.049,153.000,148.000,187.500,181.500
3.050,150.500,145.500,185.000,179.000
3.051,147.500,142.500,182.500,176.500
3.052,145.000,139.500,180.000,174.000
3.053,142.000,137.000,177.000,170.500
3.054,139.000,134.000,174.000,167.000
3.055,135.500,131.000,170.500,163.500
3.056,133.000,127.500,167.500,160.000
3.057,130.000,125.000,164.000,156.500
3.058,127.500,122.000,161.500,153.500
3.059,125.500,120.000,159.000,151.500
3.060,124.000,118.000,157.000,149.500
3.061,122.500,116.000,155.000,147.500
3.062,120.500,114.000,153.000,145.000
3.063,118.500,112.000,151.000,143.000
3.064,116.500,110.000,148.500,141.000
3.065,115.000,108.500,147.000,139.500
3.066,114.000,107.500,146.000,139.000
3.067,113.000,106.500,145.000,138.000
3.068,112.000,105.000,143.500,137.000
3.069,109.500,103.000,141.500,135.000
3.070,107.000,100.500,139.500,133.000
3.071,104.000,97.500,136.500,130.000
3.072,101.000,94.500,133.500,127.000
3.073,98.000,91.500,130.500,124.000
3.074,95.500,89.000,128.000,121.000
3.075,93.000,86.500,125.500,118.500
3.076,91.000,84.500,123.500,116.500
3.077,89.000,83.000,122.000,114.500
3.078,88.000,82.000,121.000,113.500
3.079,87.500,81.500,120.000,112.500
3.080,87.000,81.000,119.000,112.000
3.081,86.000,80.000,118.000,111.000
3.082,85.000,79.000,117.000,110.000
3.083,84.000,77.500,116.000,108.500
3.084,82.500,76.500,114.500,107.500
3.085,81.000,75.000,113.000,106.000
3.086,79.000,73.500,112.000,105.000
3.087,78.000,72.500,111.000,104.000
3.088,77.000,72.000,110.000,103.500
3.089,76.000,71.000,109.500,103.000
3.090,75.000,70.000,108.500,102.000
3.091,74.000,69.000,107.000,101.000
3.092,72.500,67.000,105.500,99.500
3.093,71.000,65.500,103.500,98.000
3.094,69.500,63.500,102.000,96.000
3.095,68.000,62.000,100.000,94.000
3.096,67.000,60.000,98.000,92.000
3.097,66.000,58.500,96.500,90.000
3.098,64.500,57.500,95.000,88.500
3.099,63.500,56.500,93.500,87.000
3.100,63.000,55.500,92.500,85.500
3.101,62.500,55.000,92.000,85.000
3.102,61.500,54.500,91.500,84.500
3.103,61.000,54.500,91.000,84.500
3.104,61.000,54.000,90.500,84.000
3.105,61.000,54.000,90.000,84.000
3.106,61.000,54.500,90.000,84.500
3.107,61.000,54.500,90.500,85.000
3.108,61.500,55.000,91.000,85.500
3.109,61.500,55.000,91.500,86.000
3.110,61.500,55.000,91.500,86.000
3.111,61.000,55.000,91.500,85.500
3.112,60.500,54.000,91.000,84.500
3.113,59.500,53.500,90.000,83.500
3.114,58.500,52.000,88.500,82.500
3.115,57.000,51.000,87.500,80.500
3.116,56.000,50.000,86.000,79.000
3.117,55.000,49.000,85.000,78.000
3.118,54.500,48.000,84.500,77.000
3.119,54.000,47.500,84.000,76.500
3.120,53.500,46.500,83.000,75.500
3.121,52.500,46.000,82.500,74.500
3.122,52.000,45.500,82.000,74.500
3.123,52.500,45.500,82.000,74.500
3.124,53.000,46.000,82.500,75.000
3.125,53.500,47.000,83.500,76.000
3.126,54.000,47.500,84.000,77.000
3.127,54.500,48.000,84.500,78.000
3.128,54.500,48.500,85.000,78.500
3.129,54.500,48.500,85.500,79.000
3.130,54.000,48.500,85.000,79.500
3.131,53.500,48.000,84.500,79.000
3.132,52.500,47.500,84.000,78.500
3.133,52.000,46.500,83.500,77.500
3.134,51.000,46.000,83.000,77.000
3.135,51.000,45.500,82.500,76.000
3.136,50.500,45.500,82.000,76.000
3.137,50.500,45.000,82.000,76.000
3.138,50.500,45.000,81.500,75.500
3.139,50.000,44.500,81.500,75.000
3.140,49.500,44.000,81.000,74.500
3.141,49.500,44.000,80.500,74.000
3.142,49.500,44.000,80.500,74.000
3.143,50.000,44.000,80.500,74.000
3.144,50.500,44.500,81.500,75.000
3.145,51.000,45.500,82.500,76.000
3.146,52.000,46.500,83.000,77.000
3.147,52.500,47.000,84.000,78.500
3.148,52.500,47.500,84.500,79.000
3.149,52.500,48.000,85.000,80.000
3.150,52.500,48.500,85.000,80.000
3.151,51.500,48.000,85.000,80.000
3.152,51.000,48.000,84.500,79.500
3.153,50.000,47.000,84.000,78.500
3.154,48.500,46.000,82.500,77.000
3.155,47.000,44.500,81.000,75.500
3.156,45.500,43.000,79.500,73.500
3.157,44.500,41.500,78.000,72.000
3.158,44.000,40.500,77.000,71.000
3.159,44.000,40.500,76.500,70.500
3.160,44.500,40.500,76.500,70.500
3.161,45.000,41.000,76.500,70.500
3.162,45.500,41.500,77.000,71.000
3.163,46.000,42.500,77.500,71.000
3.164,46.000,43.000,77.500,71.500
3.165,46.500,43.500,77.500,72.000
3.166,47.000,44.000,78.000,72.500
3.167,47.500,44.500,79.000,73.500
3.168,48.500,45.500,80.500,74.500
3.169,49.500,46.500,81.500,76.000
3.170,50.000,47.500,82.000,77.000
3.171,50.000,47.500,82.500,77.500
3.172,49.500,47.500,82.500,77.500
3.173,48.500,46.500,81.500,76.500
3.174,47.500,45.500,80.500,75.500
3.175,46.000,44.000,79.000,74.000
3.176,45.000,42.000,77.500,72.000
3.177,43.500,40.500,76.000,70.500
3.178,43.000,39.500,75.000,69.500
3.179,42.500,39.500,75.000,69.000
3.180,43.500,40.000,75.500,69.000
3.181,44.500,41.500,76.500,70.500
3.182,46.000,43.000,78.000,72.000
3.183,47.500,45.000,79.500,73.500
3.184,48.000,46.000,80.000,74.500
3.185,48.500,46.500,81.000,75.500
3.186,49.000,47.000,81.000,76.500
3.187,49.500,47.500,81.500,77.000
3.188,50.000,48.000,82.500,78.000
3.189,50.500,48.500,82.500,78.500
3.190,50.500,48.000,82.500,78.500
3.191,50.000,47.500,82.000,78.000
3.192,48.500,46.000,80.500,76.500
3.193,47.500,44.500,79.000,75.000
3.194,46.000,43.000,77.000,73.000
3.195,45.000,41.500,75.500,71.500
3.196,43.500,40.000,74.000,69.500
3.197,42.500,39.000,72.500,68.000
3.198,42.000,38.000,71.500,66.500
3.199,42.000,38.500,71.500,66.500
3.200,42.500,39.500,72.000,66.500
3.201,44.000,40.500,73.000,68.000
3.202,44.500,41.500,74.000,69.000
3.203,45.000,42.000,74.500,69.500
3.204,45.000,42.000,74.500,69.500
3.205,44.500,42.000,74.000,69.500
3.206,44.500,42.000,74.000,70.000
3.207,44.500,42.000,74.500,70.500
3.208,44.500,43.000,75.500,71.500
3.209,44.500,43.500,76.000,72.000
3.210,44.500,44.000,76.500,72.500
3.211,44.500,44.000,76.500,73.000
3.212,44.500,44.500,77.000,73.000
3.213,44.500,44.500,77.000,73.000
3.214,45.000,44.500,76.500,72.500
3.215,44.500,44.500,76.000,72.000
3.216,44.000,43.500,75.000,71.000
3.217,43.500,43.000,74.000,70.000
3.218,42.500,42.000,73.000,69.000
3.219,42.000,41.500,72.000,68.000
3.220,41.000,40.500,71.500,67.000
3.221,40.500,40.000,70.500,66.500
3.222,40.000,40.000,70.500,66.500
3.223,40.500,40.000,70.500,66.500
3.224,40.500,40.500,71.000,67.500
3.225,41.000,41.000,71.500,68.000
3.226,41.000,41.500,71.500,68.500
3.227,41.000,42.000,72.000,69.000
3.228,41.000,42.000,72.500,69.500
3.229,41.500,42.500,73.000,70.000
3.230,42.000,43.000,73.000,71.000
3.231,42.000,43.000,73.000,71.000
3.232,41.500,42.500,73.000,70.500
3.233,41.000,41.500,72.000,69.500
3.234,40.000,40.500,71.000,68.500
3.235,39.500,40.000,70.500,67.500
3.236,39.500,39.000,69.500,67.000
3.237,39.500,39.000,69.000,66.000
3.238,39.500,39.000,69.000,65.500
3.239,40.000,38.500,69.000,65.500
3.240,40.000,38.500,69.000,65.500
3.241,40.500,38.500,69.500,65.500
3.242,40.500,39.000,69.500,65.500
3.243,40.500,39.000,69.500,65.500
3.244,40.000,39.000,69.500,65.500
3.245,40.000,39.000,69.500,66.000
3.246,39.500,39.000,69.500,66.500
3.247,39.500,39.500,70.000,67.000
3.248,39.500,39.500,70.500,68.000
3.249,39.500,39.500,71.000,68.000
3.250,39.000,39.500,71.000,68.500
3.251,39.000,39.500,70.500,68.000
3.252,38.500,39.000,70.000,67.500
3.253,38.000,38.500,69.500,66.500
3.254,37.000,37.500,68.000,65.500
3.255,36.000,36.500,67.000,64.000
3.256,35.500,35.500,65.500,62.500
3.257,35.000,35.000,65.000,61.500
3.258,34.500,34.500,64.500,61.000
3.259,34.500,34.500,64.500,61.000
3.260,34.500,34.000,64.500,61.000
3.261,34.500,34.000,64.000,61.000
3.262,34.500,34.000,64.000,61.000
3.263,34.500,34.000,64.500,61.000
3.264,35.000,34.500,65.000,62.000
3.265,36.000,35.000,65.500,63.000
3.266,37.000,36.000,67.000,64.000
3.267,38.500,37.000,68.000,65.500
3.268,39.500,38.500,69.000,66.500
3.269,39.500,39.000,69.500,67.000
3.270,39.500,39.000,69.500,67.000
3.271,39.000,38.500,68.500,66.500
3.272,38.000,37.500,67.500,66.000
3.273,37.500,37.000,67.000,65.000
3.274,36.500,36.500,66.500,64.000
3.275,36.000,36.000,65.500,63.000
3.276,35.500,35.500,65.000,62.500
3.277,35.500,35.000,65.000,62.000
3.278,35.500,35.000,64.500,61.500
3.279,35.500,35.000,64.000,61.000
3.280,35.000,35.000,64.000,61.000
3.281,34.500,35.000,64.000,61.000
3.282,34.500,35.000,64.000,61.000
3.283,34.500,35.000,64.000,61.000
3.284,34.000,35.000,64.000,61.000
3.285,33.500,35.000,64.000,61.500
3.286,33.000,35.000,64.000,62.000
3.287,33.000,35.500,64.500,62.500
3.288,32.500,36.000,65.000,63.000
3.289,32.500,36.000,65.500,63.500
3.290,32.500,36.000,65.500,63.500
3.291,32.000,36.000,65.500,63.500
3.292,31.500,35.500,65.000,63.000
3.293,31.000,34.500,64.500,62.500
3.294,30.000,33.500,63.500,61.500
3.295,29.000,32.500,62.500,60.000
3.296,28.000,31.500,61.500,58.500
3.297,27.500,30.500,60.500,57.000
3.298,26.500,29.500,59.000,56.000
3.299,26.000,28.500,58.000,55.000
3.300,25.500,28.500,57.500,54.500
3.301,26.000,28.500,57.500,54.500
3.302,26.500,29.000,57.500,55.000
3.303,27.500,30.000,58.000,55.500
3.304,28.000,30.500,59.000,56.000
3.305,29.000,31.500,59.500,57.000
3.306,29.500,32.500,60.500,58.500
3.307,30.500,33.500,61.500,59.500
3.308,31.500,34.000,62.500,61.000
3.309,32.000,35.000,63.500,62.000
3.310,32.500,36.000,64.500,63.500
3.311,33.500,37.000,65.500,65.000
3.312,35.000,38.500,67.000,66.000
3.313,36.000,40.000,68.000,67.500
3.314,37.500,41.500,69.500,68.500
3.315,39.000,42.500,70.500,69.500
3.316,40.000,43.500,71.500,70.500
3.317,41.500,44.500,72.500,71.000
3.318,43.000,46.000,73.500,72.500
3.319,45.000,47.500,75.500,73.500
3.320,47.000,50.000,77.000,75.500
3.321,49.500,52.500,79.500,78.000
3.322,52.000,55.000,81.500,80.000
3.323,54.500,57.000,84.000,82.500
3.324,57.000,59.500,86.500,85.000
3.325,60.000,62.000,89.000,88.000
3.326,62.500,64.500,91.500,91.000
3.327,64.500,66.500,94.000,93.500
3.328,67.000,68.500,96.000,96.000
3.329,68.500,70.500,98.000,98.000
3.330,70.000,72.000,99.500,99.500
3.331,71.000,72.500,100.500,100.500
3.332,71.500,73.000,101.000,101.000
3.333,71.000,72.500,100.500,100.500
3.334,70.500,71.500,99.500,99.500
3.335,68.500,69.500,98.000,97.500
3.336,66.000,66.500,95.000,94.000
3.337,62.500,62.500,91.000,90.000
3.338,58.500,58.500,87.000,86.000
3.339,55.500,55.000,84.000,82.500
3.340,53.000,52.500,81.500,80.000
3.341,51.500,51.500,80.000,78.500
3.342,51.000,51.000,79.500,78.500
3.343,51.500,51.500,80.000,79.000
3.344,53.000,53.500,82.000,81.000
3.345,56.500,56.000,85.000,84.000
3.346,60.500,60.500,89.500,88.500
3.347,66.000,65.500,94.500,94.500
3.348,72.000,71.500,101.000,100.500
3.349,78.000,77.500,107.000,107.000
3.350,83.500,83.000,113.000,113.000
3.351,88.500,88.000,118.000,118.000
3.352,91.500,91.500,121.500,121.500
3.353,94.000,93.500,124.000,124.000
3.354,95.000,95.000,125.500,125.000
3.355,96.000,95.500,126.000,125.500
3.356,96.000,95.500,126.000,126.000
3.357,96.000,95.000,126.000,125.000
3.358,95.000,94.000,125.000,124.000
3.359,93.500,92.500,123.500,122.500
3.360,92.000,90.500,121.500,120.000
3.361,89.000,88.000,119.000,117.000
3.362,86.000,84.500,115.500,114.000
3.363,81.500,81.000,112.000,110.000
3.364,77.000,76.500,107.500,106.000
3.365,72.500,72.500,103.500,102.000
3.366,68.000,68.500,99.500,98.000
