'Elapsed time','AECG1','AECG2','AECG3','AECG4'
'seconds','uV','uV','uV','uV'
0.000,305.500,366.000,349.000,50.500
0.001,2681.500,3210.000,3064.000,444.500
0.002,3084.000,3692.000,3524.500,512.000
0.003,3286.500,3934.000,3756.500,547.000
0.004,3366.500,4031.000,3850.000,562.500
0.005,3388.000,4057.000,3876.500,568.000
0.006,3386.500,4056.500,3877.000,570.000
0.007,3380.000,4049.000,3871.500,571.500
0.008,3374.000,4043.000,3867.000,572.500
0.009,3370.500,4039.500,3864.500,574.000
0.010,3369.000,4038.000,3864.500,575.500
0.011,3369.000,4038.000,3865.000,577.000
0.012,3369.000,4038.000,3865.500,577.500
0.013,3368.000,4037.000,3864.500,576.500
0.014,3366.000,4034.500,3861.500,573.500
0.015,3363.500,4031.500,3858.500,569.500
0.016,3361.500,4029.000,3855.500,565.500
0.017,3360.500,4027.500,3853.000,562.000
0.018,3360.500,4026.500,3852.000,560.000
0.019,3361.500,4027.000,3852.000,558.500
0.020,3362.500,4028.000,3852.500,558.500
0.021,3364.000,4029.000,3854.000,559.500
0.022,3365.500,4030.500,3855.500,561.500
0.023,3366.500,4031.500,3857.500,563.500
0.024,3366.500,4031.500,3859.000,566.000
0.025,3365.500,4031.500,3860.000,568.500
0.026,3364.000,4030.500,3861.000,570.500
0.027,3362.500,4029.500,3861.500,573.000
0.028,3361.000,4029.000,3862.500,574.500
0.029,3359.500,4028.000,3862.500,576.000
0.030,3358.000,4026.500,3862.500,576.000
0.031,3356.000,4025.000,3861.500,575.500
0.032,3354.500,4023.500,3860.500,574.500
0.033,3353.000,4021.500,3859.000,573.000
0.034,3351.500,4019.000,3856.500,570.000
0.035,3350.000,4016.500,3854.000,567.000
0.036,3348.500,4014.500,3851.000,563.500
0.037,3347.500,4012.500,3848.500,559.500
0.038,3347.000,4011.000,3846.500,556.500
0.039,3347.000,4010.500,3845.000,554.000
0.040,3347.500,4010.000,3844.500,553.000
0.041,3348.500,4010.500,3845.000,553.000
0.042,3349.500,4011.500,3846.500,554.000
0.043,3350.500,4012.500,3848.000,556.500
0.044,3351.000,4013.000,3850.000,559.000
0.045,3350.500,4013.000,3851.500,562.500
0.046,3349.500,4013.000,3853.000,565.000
0.047,3348.000,4012.500,3853.500,567.500
0.048,3346.000,4011.500,3854.000,569.000
0.049,3344.000,4010.000,3853.500,570.000
0.050,3342.000,4008.500,3852.500,570.000
0.051,3340.000,4006.500,3851.500,569.000
0.052,3338.000,4004.000,3849.500,567.500
0.053,3335.500,4001.500,3847.500,565.500
0.054,3334.000,3999.500,3845.000,562.500
0.055,3332.500,3997.500,3843.000,560.000
0.056,3332.000,3996.000,3841.500,557.500
0.057,3332.500,3995.000,3840.000,555.000
0.058,3333.000,3994.500,3839.500,553.000
0.059,3334.000,3994.500,3839.000,551.500
0.060,3335.000,3995.000,3839.500,551.000
0.061,3336.000,3995.500,3840.500,551.500
0.062,3336.500,3996.500,3841.500,552.500
0.063,3336.500,3996.500,3842.500,554.000
0.064,3335.500,3996.500,3843.000,555.500
0.065,3334.000,3995.000,3843.000,557.000
0.066,3332.000,3993.000,3842.500,558.500
0.067,3329.500,3991.500,3842.500,559.500
0.068,3327.500,3990.000,3842.000,560.500
0.069,3326.000,3988.500,3842.000,561.500
0.070,3325.000,3987.500,3841.500,562.000
0.071,3323.500,3986.500,3841.000,562.000
0.072,3322.000,3984.500,3839.500,560.500
0.073,3320.000,3982.500,3837.500,558.500
0.074,3318.000,3980.000,3835.000,555.500
0.075,3316.000,3977.500,3832.000,552.000
0.076,3314.000,3974.500,3829.000,548.000
0.077,3312.500,3972.500,3826.000,544.500
0.078,3311.500,3970.500,3824.000,541.000
0.079,3311.000,3969.500,3823.000,538.500
0.080,3312.000,3970.000,3823.500,538.500
0.081,3314.000,3972.000,3825.500,540.000
0.082,3316.500,3974.500,3828.500,543.000
0.083,3318.500,3977.000,3832.000,546.500
0.084,3319.500,3978.500,3834.500,550.500
0.085,3319.000,3979.000,3836.500,553.500
0.086,3317.500,3978.000,3837.000,555.500
0.087,3315.500,3976.500,3837.000,557.000
0.088,3312.500,3974.500,3836.500,557.500
0.089,3310.000,3972.500,3835.500,557.500
0.090,3308.000,3970.500,3834.500,557.000
0.091,3306.500,3969.000,3833.000,556.500
0.092,3305.000,3967.500,3832.000,555.500
0.093,3303.500,3965.500,3830.500,554.000
0.094,3302.500,3964.000,3828.500,552.000
0.095,3301.000,3962.500,3827.000,549.500
0.096,3300.000,3961.000,3824.500,547.000
0.097,3299.500,3959.000,3822.500,543.500
0.098,3299.000,3958.000,3821.000,540.500
0.099,3298.500,3957.000,3819.500,538.000
0.100,3299.000,3956.500,3818.000,536.000
0.101,3299.500,3956.000,3817.500,534.500
0.102,3300.000,3956.500,3817.000,534.500
0.103,3300.500,3956.500,3817.000,535.500
0.104,3300.500,3957.000,3818.000,538.000
0.105,3300.000,3957.000,3819.000,541.000
0.106,3299.000,3956.500,3820.500,544.000
0.107,3297.500,3955.500,3821.000,546.500
0.108,3295.500,3954.500,3822.000,548.000
0.109,3294.000,3953.500,3823.000,549.500
0.110,3292.500,3952.500,3823.500,550.500
0.111,3291.500,3951.500,3824.000,551.000
0.112,3290.500,3950.500,3824.000,551.000
0.113,3289.500,3949.500,3823.500,550.000
0.114,3288.500,3948.000,3822.500,549.000
0.115,3288.000,3947.000,3821.000,547.000
0.116,3287.000,3945.500,3819.000,544.000
0.117,3286.500,3944.000,3817.500,541.500
0.118,3287.000,3943.500,3816.500,539.000
0.119,3287.500,3943.500,3816.000,537.500
0.120,3289.000,3944.000,3816.500,537.000
0.121,3290.000,3945.000,3817.000,538.000
0.122,3291.000,3946.500,3818.500,539.500
0.123,3292.000,3947.500,3820.500,541.500
0.124,3292.000,3947.500,3821.500,543.500
0.125,3291.000,3947.000,3822.000,545.500
0.126,3289.500,3946.500,3822.500,548.000
0.127,3288.000,3945.500,3823.000,550.000
0.128,3287.000,3944.500,3823.500,552.000
0.129,3286.000,3944.000,3824.000,553.500
0.130,3285.000,3942.500,3823.500,554.000
0.131,3283.500,3941.000,3822.500,553.500
0.132,3282.000,3939.500,3821.000,552.000
0.133,3280.000,3937.500,3819.000,550.000
0.134,3278.500,3935.500,3817.000,547.000
0.135,3277.000,3933.500,3814.500,544.000
0.136,3276.000,3931.500,3812.000,540.500
0.137,3275.000,3929.500,3809.500,537.000
0.138,3274.500,3928.000,3807.500,533.500
0.139,3274.000,3927.000,3806.500,531.500
0.140,3274.500,3926.500,3806.500,530.000
0.141,3275.000,3927.000,3807.000,530.000
0.142,3275.500,3927.500,3808.500,531.000
0.143,3276.000,3928.000,3810.000,533.000
0.144,3276.000,3928.000,3811.500,535.500
0.145,3275.000,3928.000,3812.500,538.000
0.146,3274.000,3927.500,3813.500,540.000
0.147,3272.000,3926.500,3814.500,542.000
0.148,3270.000,3925.500,3814.500,543.500
0.149,3268.000,3924.000,3814.000,544.000
0.150,3265.500,3922.000,3813.000,544.000
0.151,3263.500,3920.000,3811.500,543.000
0.152,3262.000,3918.500,3810.500,542.000
0.153,3261.500,3917.500,3810.000,541.000
0.154,3261.000,3917.000,3809.500,540.000
0.155,3261.500,3916.500,3808.500,538.000
0.156,3262.000,3916.500,3808.000,536.500
0.157,3263.500,3916.500,3807.500,535.500
0.158,3265.000,3917.000,3808.000,534.500
0.159,3267.000,3918.500,3809.000,534.500
0.160,3269.000,3919.500,3810.500,535.000
0.161,3271.500,3921.500,3812.500,536.500
0.162,3273.500,3923.500,3815.000,539.000
0.163,3275.000,3925.500,3818.000,542.500
0.164,3276.500,3927.500,3821.000,546.500
0.165,3277.500,3929.500,3824.500,551.000
0.166,3278.500,3930.500,3827.000,555.000
0.167,3279.000,3932.000,3830.000,559.500
0.168,3279.500,3933.000,3832.500,563.500
0.169,3281.000,3934.500,3835.500,567.000
0.170,3282.500,3936.500,3838.000,570.500
0.171,3284.000,3938.500,3840.500,573.000
0.172,3285.000,3939.500,3842.500,575.000
0.173,3286.000,3940.500,3843.000,575.500
0.174,3286.000,3940.000,3843.000,575.000
0.175,3285.500,3939.500,3842.000,573.500
0.176,3285.000,3938.000,3840.000,570.500
0.177,3283.500,3935.500,3837.500,567.000
0.178,3282.000,3933.000,3835.000,563.000
0.179,3281.500,3931.500,3833.000,560.000
0.180,3281.500,3931.000,3833.000,559.000
0.181,3283.500,3932.500,3834.500,560.000
0.182,3286.000,3934.500,3837.500,563.000
0.183,3288.500,3937.000,3840.500,567.000
0.184,3290.000,3939.000,3843.500,570.500
0.185,3290.000,3939.000,3845.000,573.500
0.186,3288.000,3937.500,3845.000,575.000
0.187,3285.000,3935.500,3844.000,575.500
0.188,3281.500,3932.500,3842.500,575.500
0.189,3279.000,3930.500,3841.500,575.500
0.190,3277.000,3929.000,3841.000,576.000
0.191,3276.000,3928.500,3841.000,576.000
0.192,3275.000,3927.500,3840.500,576.000
0.193,3274.000,3926.500,3839.500,575.000
0.194,3272.500,3924.500,3837.500,573.000
0.195,3270.500,3921.500,3834.500,569.500
0.196,3267.500,3918.000,3831.000,565.000
0.197,3264.500,3914.500,3827.000,559.500
0.198,3261.500,3911.000,3823.500,555.000
0.199,3259.500,3908.500,3821.000,551.000
0.200,3258.500,3907.000,3819.500,548.500
0.201,3258.000,3906.000,3819.000,547.500
0.202,3257.500,3905.500,3819.500,547.500
0.203,3257.500,3906.000,3820.500,549.000
0.204,3257.500,3907.000,3822.500,552.000
0.205,3257.500,3907.500,3824.500,555.000
0.206,3256.500,3907.500,3826.000,557.500
0.207,3255.000,3906.500,3826.500,559.500
0.208,3252.500,3904.500,3826.000,560.000
0.209,3249.500,3902.500,3825.000,559.500
0.210,3246.500,3900.000,3823.000,558.500
0.211,3243.000,3896.500,3820.000,556.000
0.212,3240.000,3893.500,3817.000,553.000
0.213,3237.000,3890.000,3813.500,549.500
0.214,3234.500,3887.000,3810.500,545.000
0.215,3232.500,3884.000,3807.000,540.500
0.216,3230.500,3881.000,3803.000,535.500
0.217,3228.000,3877.000,3798.500,529.500
0.218,3225.500,3873.500,3793.500,523.500
0.219,3223.500,3870.000,3789.500,518.500
0.220,3222.000,3868.000,3787.000,515.000
0.221,3221.500,3867.000,3786.000,513.500
0.222,3221.000,3866.500,3786.000,513.500
0.223,3221.000,3866.500,3787.000,515.000
0.224,3220.500,3867.000,3788.500,518.000
0.225,3220.000,3867.000,3790.500,521.500
0.226,3218.500,3867.000,3792.500,525.500
0.227,3216.000,3866.000,3793.500,528.500
0.228,3213.500,3865.000,3795.000,531.500
0.229,3211.500,3864.000,3796.000,533.500
0.230,3209.500,3863.000,3796.500,535.000
0.231,3207.500,3861.500,3796.000,535.500
0.232,3205.000,3859.500,3794.500,534.000
0.233,3203.000,3857.000,3792.000,531.500
0.234,3201.000,3854.000,3789.000,528.000
0.235,3199.500,3852.000,3786.500,524.500
0.236,3198.500,3850.000,3784.000,520.500
0.237,3197.500,3848.000,3781.500,517.000
0.238,3196.500,3846.000,3779.000,513.500
0.239,3196.000,3844.000,3777.000,510.000
0.240,3195.500,3843.000,3775.500,508.000
0.241,3196.000,3842.500,3775.500,507.000
0.242,3196.500,3842.500,3775.500,507.000
0.243,3196.500,3842.500,3776.000,508.000
0.244,3196.500,3842.500,3776.500,509.500
0.245,3195.500,3842.000,3776.500,511.000
0.246,3193.500,3840.500,3776.000,511.500
0.247,3190.500,3838.500,3774.500,511.500
0.248,3187.500,3836.000,3772.500,511.000
0.249,3184.500,3833.500,3770.500,511.000
0.250,3182.500,3832.000,3770.000,511.000
0.251,3181.000,3831.000,3770.000,511.500
0.252,3180.500,3830.500,3770.500,512.000
0.253,3179.500,3830.000,3771.000,512.000
0.254,3179.000,3829.500,3770.500,511.000
0.255,3177.500,3828.000,3770.000,509.000
0.256,3176.000,3826.000,3768.500,506.500
0.257,3175.000,3824.000,3766.500,503.500
0.258,3174.000,3822.500,3765.500,500.500
0.259,3174.000,3821.500,3764.500,498.500
0.260,3174.500,3821.500,3764.500,497.500
0.261,3175.500,3822.500,3765.500,497.500
0.262,3176.500,3823.500,3766.500,499.000
0.263,3177.000,3824.500,3768.500,501.000
0.264,3177.000,3825.000,3770.000,504.000
0.265,3177.000,3825.500,3772.000,507.000
0.266,3176.500,3826.000,3773.500,510.000
0.267,3175.500,3825.500,3774.500,512.500
0.268,3174.500,3825.000,3775.000,514.500
0.269,3173.500,3824.000,3775.500,515.500
0.270,3172.000,3823.000,3775.000,516.000
0.271,3170.500,3821.500,3774.000,515.500
0.272,3168.500,3819.000,3772.000,514.000
0.273,3166.000,3816.500,3769.500,511.500
0.274,3164.000,3814.000,3767.000,509.000
0.275,3163.000,3812.000,3765.000,506.000
0.276,3162.500,3810.500,3763.000,503.500
0.277,3163.000,3810.000,3762.000,501.500
0.278,3163.500,3810.000,3761.500,500.000
0.279,3164.500,3810.500,3762.000,499.000
0.280,3165.500,3811.000,3762.500,498.500
0.281,3166.500,3811.000,3763.000,498.500
0.282,3166.500,3811.000,3763.500,499.000
0.283,3166.000,3810.500,3764.000,500.000
0.284,3165.500,3810.000,3765.000,501.500
0.285,3164.000,3809.500,3765.500,503.500
0.286,3162.500,3808.000,3766.000,505.500
0.287,3159.500,3806.000,3765.500,506.500
0.288,3156.500,3803.500,3764.000,506.500
0.289,3152.500,3800.000,3762.000,505.500
0.290,3148.000,3795.500,3758.500,503.000
0.291,3142.500,3790.500,3754.000,498.500
0.292,3136.000,3783.500,3747.500,492.500
0.293,3129.000,3776.500,3741.000,485.500
0.294,3124.000,3771.000,3735.000,479.500
0.295,3121.500,3768.000,3732.000,475.500
0.296,3124.000,3769.500,3733.500,476.000
0.297,3132.000,3776.500,3740.000,481.500
0.298,3145.000,3788.500,3752.000,492.500
0.299,3162.000,3804.500,3767.500,507.500
0.300,3181.000,3823.000,3786.500,525.500
0.301,3200.500,3842.500,3806.000,545.500
0.302,3220.000,3862.000,3826.500,566.000
0.303,3238.500,3881.000,3846.500,586.500
0.304,3256.000,3899.500,3866.000,607.500
0.305,3273.000,3917.000,3885.500,628.500
0.306,3289.500,3934.500,3905.500,649.500
0.307,3307.500,3953.500,3926.500,672.500
0.308,3328.500,3975.500,3950.500,698.500
0.309,3354.500,4000.500,3978.000,728.500
0.310,3386.500,4027.000,4008.000,763.500
0.311,3423.500,4052.000,4037.000,804.000
0.312,3466.500,4072.000,4062.000,849.000
0.313,3514.000,4085.500,4079.500,898.500
0.314,3565.000,4092.500,4089.500,951.000
0.315,3617.500,4095.500,4094.000,1004.000
0.316,3668.500,4096.500,4096.000,1055.000
0.317,3717.000,4096.500,4096.500,1103.000
0.318,3761.500,4096.000,4096.500,1146.500
0.319,3801.500,4096.000,4096.000,1185.500
0.320,3836.000,4096.000,4096.000,1219.500
0.321,3865.500,4096.000,4096.000,1249.500
0.322,3890.000,4096.000,4096.000,1275.000
0.323,3909.000,4096.000,4096.000,1296.500
0.324,3922.500,4096.000,4096.000,1313.000
0.325,3929.000,4096.000,4096.000,1322.500
0.326,3928.000,4096.000,4096.000,1325.000
0.327,3920.000,4096.000,4096.000,1320.000
0.328,3906.000,4096.000,4096.000,1308.500
0.329,3887.000,4096.000,4096.000,1291.000
0.330,3862.000,4096.000,4096.000,1267.000
0.331,3831.000,4096.000,4096.500,1236.000
0.332,3792.500,4096.500,4096.500,1197.000
0.333,3746.500,4096.500,4096.500,1149.000
0.334,3693.000,4096.000,4095.500,1092.500
0.335,3632.500,4093.500,4092.500,1029.000
0.336,3569.500,4087.500,4085.500,962.000
0.337,3508.000,4075.500,4071.000,895.500
0.338,3451.000,4055.000,4048.000,834.000
0.339,3401.500,4027.500,4018.500,780.500
0.340,3359.500,3996.500,3986.000,735.000
0.341,3325.500,3966.000,3954.500,698.500
0.342,3297.000,3938.500,3927.000,669.000
0.343,3273.000,3914.000,3903.000,645.000
0.344,3252.000,3892.500,3882.500,625.500
0.345,3233.000,3873.500,3864.500,609.000
0.346,3216.000,3857.000,3849.500,595.500
0.347,3201.500,3843.000,3837.000,584.000
0.348,3189.500,3831.000,3826.500,574.000
0.349,3179.000,3821.000,3817.500,566.500
0.350,3170.500,3812.500,3810.000,559.500
0.351,3163.500,3805.500,3803.000,553.500
0.352,3156.500,3798.500,3796.500,547.500
0.353,3150.000,3792.000,3790.500,541.000
0.354,3144.500,3786.000,3784.500,535.000
0.355,3139.500,3780.500,3779.000,529.000
0.356,3136.000,3776.000,3774.000,523.500
0.357,3133.000,3772.500,3770.500,518.500
0.358,3131.500,3770.000,3767.500,514.000
0.359,3131.000,3768.500,3765.500,511.000
0.360,3131.000,3768.000,3764.500,509.500
0.361,3131.000,3767.500,3764.000,508.500
0.362,3131.000,3767.000,3764.000,508.500
0.363,3130.000,3766.000,3764.000,509.000
0.364,3128.500,3764.500,3763.500,510.000
0.365,3127.000,3763.500,3764.000,511.500
0.366,3125.500,3762.500,3764.500,513.500
0.367,3124.000,3761.500,3765.000,516.000
0.368,3122.500,3761.000,3765.500,517.500
0.369,3121.500,3760.500,3766.000,519.000
0.370,3120.000,3759.500,3766.000,519.500
0.371,3118.500,3758.000,3765.000,519.500
0.372,3116.500,3755.500,3763.000,518.000
0.373,3114.000,3753.000,3760.500,515.500
0.374,3111.500,3750.000,3758.000,512.500
0.375,3109.500,3747.500,3755.000,509.000
0.376,3108.000,3745.000,3752.000,505.500
0.377,3106.500,3742.500,3749.000,501.500
0.378,3105.000,3740.500,3746.000,498.000
0.379,3104.000,3739.000,3744.500,495.500
0.380,3104.000,3738.000,3743.500,494.000
0.381,3104.500,3738.000,3743.500,493.500
0.382,3105.000,3738.000,3744.500,494.500
0.383,3105.500,3738.500,3745.500,496.500
0.384,3106.000,3739.000,3747.500,499.000
0.385,3106.000,3740.000,3749.500,502.500
0.386,3106.000,3740.500,3752.000,506.000
0.387,3105.500,3740.500,3753.500,509.500
0.388,3104.500,3740.500,3754.500,511.500
0.389,3103.500,3740.000,3755.500,513.500
0.390,3102.500,3739.000,3755.500,514.000
0.391,3101.000,3738.000,3755.000,514.000
0.392,3099.500,3736.500,3754.000,513.000
0.393,3097.500,3734.500,3752.000,511.000
0.394,3095.500,3732.000,3749.500,508.500
0.395,3094.000,3730.000,3747.000,505.500
0.396,3093.000,3728.000,3745.000,502.500
0.397,3092.000,3726.500,3743.000,499.500
0.398,3091.500,3725.000,3741.500,497.000
0.399,3092.000,3724.500,3740.500,495.500
0.400,3092.500,3725.000,3740.500,494.500
0.401,3093.500,3725.500,3741.000,495.000
0.402,3095.000,3727.000,3743.000,496.500
0.403,3096.500,3728.500,3745.000,499.500
0.404,3097.500,3729.500,3747.000,502.500
0.405,3097.000,3729.500,3748.000,505.000
0.406,3095.500,3729.000,3749.000,507.500
0.407,3094.000,3727.500,3749.000,509.500
0.408,3092.000,3726.500,3749.000,511.000
0.409,3090.500,3725.000,3749.000,512.000
0.410,3089.000,3724.000,3748.500,512.500
0.411,3087.500,3722.500,3748.000,512.000
0.412,3086.000,3720.500,3746.500,511.000
0.413,3084.000,3718.500,3744.000,509.000
0.414,3082.500,3716.500,3741.500,506.000
0.415,3080.500,3714.000,3739.000,502.500
0.416,3079.000,3712.000,3736.500,499.500
0.417,3078.000,3710.000,3734.000,496.000
0.418,3077.000,3709.000,3732.500,493.000
0.419,3077.000,3708.500,3731.500,491.000
0.420,3077.500,3708.000,3731.000,490.000
0.421,3079.000,3709.000,3731.000,490.000
0.422,3080.500,3709.500,3731.500,491.000
0.423,3081.500,3710.500,3732.500,492.500
0.424,3082.000,3711.000,3733.500,495.000
0.425,3081.500,3711.000,3735.000,498.000
0.426,3080.500,3710.500,3735.500,501.000
0.427,3078.500,3710.000,3736.500,504.000
0.428,3077.500,3709.500,3737.500,506.500
0.429,3076.500,3709.000,3739.000,508.500
0.430,3075.500,3709.000,3740.000,510.000
0.431,3074.500,3708.500,3741.000,511.000
0.432,3073.500,3707.500,3741.000,511.000
0.433,3071.500,3705.500,3739.500,509.500
0.434,3070.000,3703.500,3737.500,507.000
0.435,3068.000,3700.500,3735.500,504.000
0.436,3066.000,3698.500,3733.000,501.000
0.437,3065.000,3696.500,3730.500,497.500
0.438,3064.500,3695.000,3729.000,495.000
0.439,3065.000,3694.500,3728.500,493.500
0.440,3066.000,3695.000,3728.500,493.000
0.441,3067.500,3696.000,3729.500,493.500
0.442,3069.000,3697.500,3730.500,495.000
0.443,3069.500,3698.500,3732.000,497.500
0.444,3070.000,3699.000,3733.500,499.500
0.445,3069.500,3699.000,3735.000,502.000
0.446,3069.000,3698.500,3736.000,504.500
0.447,3067.500,3697.500,3736.000,506.500
0.448,3065.500,3696.500,3735.500,507.500
0.449,3063.500,3695.000,3734.500,508.000
0.450,3061.500,3693.000,3733.500,508.000
0.451,3060.000,3691.500,3732.500,508.000
0.452,3059.000,3690.500,3731.500,507.500
0.453,3058.500,3690.000,3731.000,507.000
0.454,3059.000,3689.500,3731.000,506.500
0.455,3060.000,3690.000,3731.000,506.000
0.456,3061.000,3689.500,3730.500,505.000
0.457,3060.500,3688.500,3728.500,502.000
0.458,3059.500,3686.500,3726.000,498.500
0.459,3059.000,3685.000,3724.000,495.500
0.460,3059.000,3684.000,3723.500,494.500
0.461,3060.000,3685.000,3724.000,495.000
0.462,3061.500,3686.000,3725.500,497.000
0.463,3063.000,3688.000,3728.000,500.500
0.464,3064.500,3689.500,3731.000,504.500
0.465,3065.000,3691.000,3733.500,508.500
0.466,3065.000,3691.500,3735.500,512.000
0.467,3064.500,3691.000,3737.000,514.500
0.468,3062.500,3690.000,3737.000,516.500
0.469,3060.500,3688.000,3736.500,517.000
0.470,3057.500,3685.500,3735.000,516.500
0.471,3054.500,3683.000,3733.500,515.000
0.472,3052.000,3680.500,3731.500,513.500
0.473,3050.500,3679.000,3729.500,511.500
0.474,3049.500,3677.500,3728.500,510.000
0.475,3050.000,3677.000,3727.500,509.000
0.476,3050.500,3677.000,3726.500,507.500
0.477,3051.500,3677.000,3726.000,506.000
0.478,3052.500,3677.000,3725.500,505.000
0.479,3054.000,3678.000,3726.000,504.500
0.480,3056.000,3679.000,3727.000,505.000
0.481,3057.500,3680.500,3729.000,506.500
0.482,3059.500,3682.000,3731.000,508.500
0.483,3061.000,3683.500,3733.500,511.500
0.484,3062.000,3685.000,3736.000,515.500
0.485,3062.500,3686.000,3738.500,519.500
0.486,3063.000,3687.000,3741.000,523.500
0.487,3063.000,3687.500,3742.500,527.000
0.488,3062.500,3688.000,3744.000,530.000
0.489,3062.500,3688.000,3745.000,532.500
0.490,3062.000,3688.000,3745.500,534.000
0.491,3061.500,3687.000,3745.500,534.500
0.492,3061.000,3686.000,3745.000,534.500
0.493,3060.000,3685.000,3744.000,533.500
0.494,3059.000,3683.500,3742.500,532.000
0.495,3059.000,3683.000,3741.500,530.500
0.496,3059.500,3682.500,3740.500,528.500
0.497,3060.000,3682.000,3740.000,527.500
0.498,3061.000,3682.000,3739.500,526.000
0.499,3062.500,3682.500,3740.000,525.000
0.500,3064.000,3683.000,3740.500,525.500
0.501,3066.000,3684.500,3742.000,526.500
0.502,3068.000,3686.500,3744.500,529.500
0.503,3070.000,3688.500,3747.500,533.000
0.504,3072.000,3691.000,3751.000,538.000
0.505,3073.500,3693.000,3754.500,543.000
0.506,3074.500,3694.500,3757.500,548.500
0.507,3075.000,3696.000,3760.000,552.500
0.508,3075.500,3696.500,3762.000,556.000
0.509,3075.500,3696.500,3763.500,559.000
0.510,3075.500,3697.000,3764.500,561.000
0.511,3076.000,3697.500,3765.500,562.500
0.512,3076.000,3698.000,3766.000,563.500
0.513,3077.000,3698.500,3766.000,564.000
0.514,3078.000,3699.000,3766.500,564.000
0.515,3079.500,3699.500,3767.000,564.000
0.516,3081.500,3701.000,3767.500,564.500
0.517,3083.000,3702.000,3768.000,564.000
0.518,3085.000,3702.500,3768.500,563.500
0.519,3087.000,3703.500,3769.000,563.500
0.520,3089.000,3705.000,3770.500,564.500
0.521,3091.500,3707.000,3772.500,566.500
0.522,3094.500,3709.500,3775.500,569.500
0.523,3097.000,3712.500,3778.500,573.500
0.524,3099.000,3715.000,3782.000,578.500
0.525,3100.000,3716.500,3785.000,583.500
0.526,3100.500,3718.000,3788.000,587.500
0.527,3100.500,3718.500,3790.000,591.500
0.528,3100.000,3719.000,3791.000,594.000
0.529,3099.500,3719.000,3792.500,596.500
0.530,3099.500,3719.000,3793.000,598.000
0.531,3099.000,3718.500,3793.000,599.000
0.532,3099.000,3718.500,3793.000,599.500
0.533,3098.500,3718.000,3792.500,599.500
0.534,3098.000,3717.500,3791.500,598.500
0.535,3098.500,3717.000,3791.000,597.500
0.536,3100.000,3717.500,3791.000,596.500
0.537,3102.000,3718.500,3791.500,596.500
0.538,3104.500,3720.000,3792.500,596.500
0.539,3107.000,3721.500,3793.000,596.500
0.540,3109.000,3723.000,3794.500,597.000
0.541,3110.500,3724.500,3795.500,598.000
0.542,3112.500,3726.000,3797.500,600.000
0.543,3113.500,3727.000,3799.500,602.500
0.544,3113.500,3728.000,3801.500,605.500
0.545,3113.000,3728.000,3802.500,608.500
0.546,3112.000,3727.500,3803.000,611.000
0.547,3110.000,3726.500,3803.500,613.000
0.548,3108.000,3725.000,3803.000,614.500
0.549,3106.000,3724.000,3803.000,616.000
0.550,3104.500,3722.500,3802.500,616.500
0.551,3103.000,3721.000,3802.000,616.000
0.552,3101.500,3719.500,3800.500,615.000
0.553,3100.000,3717.500,3798.500,613.000
0.554,3098.000,3715.000,3796.000,610.000
0.555,3096.500,3712.500,3793.000,606.500
0.556,3094.500,3709.500,3789.500,602.500
0.557,3093.000,3707.000,3786.000,598.500
0.558,3091.500,3705.000,3783.000,595.000
0.559,3091.000,3703.500,3781.000,592.000
0.560,3090.000,3702.000,3779.500,590.500
0.561,3089.500,3701.000,3778.500,589.500
0.562,3088.500,3700.000,3777.500,589.000
0.563,3087.500,3698.500,3777.000,589.000
0.564,3086.000,3697.500,3777.000,590.000
0.565,3084.000,3696.500,3777.000,592.000
0.566,3082.000,3695.000,3777.000,593.500
0.567,3079.000,3693.000,3776.000,594.500
0.568,3075.500,3690.500,3774.500,594.500
0.569,3072.000,3687.500,3772.000,593.500
0.570,3068.500,3684.500,3769.500,592.000
0.571,3064.500,3681.000,3766.000,589.000
0.572,3060.500,3676.500,3762.500,585.500
0.573,3056.000,3672.000,3758.000,581.500
0.574,3052.000,3667.500,3753.000,576.500
0.575,3047.500,3663.000,3748.000,571.000
0.576,3044.000,3658.000,3743.000,565.500
0.577,3040.500,3653.500,3738.000,559.500
0.578,3037.500,3649.500,3733.500,554.000
0.579,3035.500,3646.000,3729.500,549.000
0.580,3034.000,3643.500,3726.000,545.500
0.581,3032.500,3641.500,3724.000,543.000
0.582,3031.000,3640.000,3722.500,542.000
0.583,3029.000,3638.000,3721.500,541.500
0.584,3026.500,3636.000,3720.500,542.000
0.585,3023.500,3633.500,3719.000,542.000
0.586,3020.000,3630.500,3717.000,542.000
0.587,3016.000,3627.500,3714.500,541.500
0.588,3012.000,3623.500,3711.500,540.000
0.589,3007.500,3619.500,3708.500,538.500
0.590,3003.500,3615.500,3704.500,536.000
0.591,3000.000,3611.500,3700.500,532.500
0.592,2996.500,3607.500,3696.000,528.500
0.593,2993.000,3603.500,3690.500,524.000
0.594,2989.000,3599.000,3685.000,519.000
0.595,2985.500,3595.000,3680.000,514.000
0.596,2982.500,3591.000,3675.000,509.000
0.597,2979.500,3587.500,3670.500,504.500
0.598,2977.500,3584.000,3667.500,500.500
0.599,2976.000,3582.000,3665.000,497.000
0.600,2974.500,3580.000,3663.500,495.000
0.601,2974.000,3578.500,3663.000,493.500
0.602,2973.000,3577.500,3663.000,493.500
0.603,2971.500,3576.500,3663.000,494.000
0.604,2970.000,3575.500,3663.000,495.500
0.605,2967.500,3573.500,3662.500,496.500
0.606,2964.500,3572.000,3661.500,498.000
0.607,2962.000,3570.000,3661.000,499.500
0.608,2960.500,3569.000,3661.000,501.000
0.609,2959.000,3568.000,3661.000,502.000
0.610,2957.000,3567.000,3660.500,502.500
0.611,2954.500,3564.500,3658.500,501.500
0.612,2951.500,3561.000,3655.000,498.500
0.613,2947.500,3557.000,3651.000,494.500
0.614,2944.000,3552.500,3646.500,489.500
0.615,2940.500,3548.500,3641.500,484.500
0.616,2937.500,3544.500,3637.500,480.000
0.617,2935.000,3542.000,3634.000,475.500
0.618,2934.000,3539.500,3631.000,472.500
0.619,2933.500,3538.500,3629.500,470.000
0.620,2934.000,3538.500,3629.000,469.000
0.621,2935.500,3539.000,3629.000,469.000
0.622,2936.500,3539.500,3629.500,470.000
0.623,2937.000,3539.500,3630.000,471.500
0.624,2937.000,3540.000,3630.500,473.500
0.625,2936.500,3539.500,3631.000,476.000
0.626,2935.000,3538.500,3631.000,477.500
0.627,2933.000,3537.000,3630.500,479.000
0.628,2931.500,3535.000,3629.500,479.000
0.629,2929.500,3533.500,3628.000,479.000
0.630,2928.000,3532.000,3626.500,478.500
0.631,2926.500,3530.000,3624.500,477.000
0.632,2924.500,3528.000,3622.000,475.000
0.633,2922.500,3525.500,3619.500,472.500
0.634,2920.500,3523.000,3616.500,470.000
0.635,2918.500,3520.500,3613.500,467.000
0.636,2916.500,3518.000,3610.500,464.000
0.637,2915.500,3516.000,3608.000,461.500
0.638,2915.000,3515.000,3606.500,459.500
0.639,2914.500,3514.000,3606.000,458.500
0.640,2914.500,3514.000,3606.000,458.500
0.641,2915.000,3514.500,3607.500,460.000
0.642,2915.500,3515.500,3609.000,462.000
0.643,2916.500,3517.000,3611.500,465.500
0.644,2917.500,3518.500,3614.000,469.500
0.645,2917.500,3519.000,3615.500,472.500
0.646,2916.500,3518.000,3616.000,475.000
0.647,2914.500,3516.500,3616.000,476.500
0.648,2912.500,3515.000,3615.000,478.000
0.649,2911.000,3514.000,3615.000,479.000
0.650,2910.500,3513.500,3615.000,480.000
0.651,2910.000,3513.000,3614.500,481.000
0.652,2909.000,3512.500,3614.000,481.000
0.653,2908.000,3511.000,3612.500,480.000
0.654,2907.000,3509.500,3610.500,478.000
0.655,2906.000,3508.000,3608.500,476.000
0.656,2905.000,3506.500,3606.000,473.000
0.657,2904.500,3505.000,3603.500,470.000
0.658,2904.000,3503.500,3601.000,467.500
0.659,2904.000,3502.500,3599.500,465.000
0.660,2904.000,3501.500,3598.500,463.500
0.661,2904.000,3502.000,3598.500,463.500
0.662,2904.500,3502.000,3599.000,464.000
0.663,2905.500,3503.000,3600.000,466.500
0.664,2906.000,3503.500,3601.500,469.500
0.665,2906.000,3504.000,3602.500,473.000
0.666,2905.000,3504.000,3603.500,476.000
0.667,2903.500,3503.000,3604.000,478.500
0.668,2901.500,3501.500,3604.000,480.000
0.669,2899.000,3500.000,3603.000,480.500
0.670,2897.000,3498.500,3602.000,480.500
0.671,2894.500,3496.500,3600.000,480.000
0.672,2892.500,3494.500,3598.000,478.500
0.673,2890.500,3492.000,3595.500,476.500
0.674,2888.500,3490.000,3592.500,474.000
0.675,2886.500,3487.500,3589.500,471.000
0.676,2885.500,3485.500,3586.500,467.500
0.677,2884.500,3483.500,3584.500,464.500
0.678,2885.000,3483.000,3582.500,462.500
0.679,2885.500,3482.500,3582.000,461.000
0.680,2887.000,3483.000,3582.000,460.500
0.681,2889.000,3484.000,3582.500,461.500
0.682,2890.500,3485.500,3584.000,464.000
0.683,2892.500,3487.500,3586.000,467.000
0.684,2893.500,3489.000,3588.000,470.500
0.685,2893.500,3490.000,3590.000,474.000
0.686,2893.000,3490.000,3591.000,477.000
0.687,2891.500,3489.500,3591.500,479.000
0.688,2890.000,3488.500,3591.500,481.000
0.689,2888.500,3487.500,3591.000,482.000
0.690,2888.000,3487.000,3591.000,483.500
0.691,2887.500,3486.500,3591.000,484.500
0.692,2886.500,3486.000,3590.500,485.000
0.693,2885.000,3484.500,3588.500,483.500
0.694,2883.000,3481.500,3586.000,481.000
0.695,2880.000,3478.000,3582.000,477.000
0.696,2877.000,3474.500,3578.000,472.000
0.697,2874.500,3471.500,3574.000,468.000
0.698,2873.500,3469.000,3571.000,464.000
0.699,2872.500,3468.000,3569.000,461.500
0.700,2872.500,3467.000,3567.500,460.000
0.701,2872.500,3466.500,3567.000,459.500
0.702,2873.000,3466.500,3567.000,460.500
0.703,2873.500,3467.000,3568.500,463.000
0.704,2874.500,3468.500,3570.500,466.500
0.705,2874.500,3469.500,3572.000,470.500
0.706,2874.500,3470.000,3574.000,474.000
0.707,2873.500,3470.000,3575.000,477.000
0.708,2872.500,3470.000,3575.500,479.500
0.709,2872.000,3469.500,3575.500,482.000
0.710,2871.500,3469.500,3576.000,483.500
0.711,2871.000,3469.000,3575.000,484.000
0.712,2869.500,3467.500,3574.000,483.500
0.713,2868.000,3465.000,3571.500,481.500
0.714,2865.500,3462.500,3568.500,478.500
0.715,2863.500,3459.000,3564.500,475.000
0.716,2861.500,3456.500,3561.000,471.000
0.717,2860.500,3454.000,3558.000,467.500
0.718,2860.500,3453.000,3556.000,465.000
0.719,2861.500,3452.500,3555.000,463.500
0.720,2863.000,3453.500,3555.000,463.500
0.721,2865.000,3455.000,3556.000,464.500
0.722,2866.500,3456.000,3557.000,466.000
0.723,2867.000,3456.500,3558.000,468.500
0.724,2866.500,3456.500,3558.500,470.500
0.725,2865.000,3455.000,3558.500,472.500
0.726,2862.500,3453.500,3558.000,474.000
0.727,2860.000,3451.500,3557.000,475.000
0.728,2856.500,3449.500,3555.500,475.500
0.729,2853.500,3447.000,3554.000,475.000
0.730,2851.000,3444.500,3552.500,475.000
0.731,2849.500,3443.000,3551.000,474.500
0.732,2848.500,3442.500,3550.500,474.500
0.733,2848.500,3442.000,3550.000,475.000
0.734,2849.500,3442.500,3550.000,475.000
0.735,2850.500,3443.500,3550.000,475.000
0.736,2852.000,3444.000,3549.500,474.500
0.737,2853.000,3444.000,3548.000,473.000
0.738,2853.000,3443.000,3546.000,470.500
0.739,2852.500,3442.000,3544.000,468.000
0.740,2852.000,3441.000,3542.500,466.500
0.741,2852.000,3440.500,3542.000,466.000
0.742,2852.000,3440.500,3542.000,467.000
0.743,2852.000,3440.500,3542.500,468.500
0.744,2851.500,3440.500,3543.000,471.000
0.745,2851.000,3440.500,3543.500,474.000
0.746,2850.000,3440.000,3544.500,477.000
0.747,2849.500,3439.500,3545.000,479.500
0.748,2848.500,3439.000,3545.500,482.000
0.749,2847.500,3438.000,3545.500,483.500
0.750,2845.500,3437.000,3544.500,483.500
0.751,2843.000,3434.500,3542.500,482.500
0.752,2840.500,3432.000,3539.500,480.500
0.753,2837.500,3428.500,3536.000,477.500
0.754,2835.500,3425.500,3532.500,474.500
0.755,2833.500,3423.000,3529.000,471.500
0.756,2833.000,3421.500,3526.500,468.500
0.757,2833.000,3420.000,3524.000,466.500
0.758,2834.000,3419.500,3523.000,464.500
0.759,2835.000,3420.000,3522.000,463.000
0.760,2836.000,3420.000,3522.000,462.500
0.761,2837.000,3420.500,3522.000,463.000
0.762,2838.000,3421.500,3523.000,464.500
0.763,2838.500,3422.500,3524.000,467.000
0.764,2839.000,3423.000,3525.000,470.000
0.765,2838.500,3423.000,3526.000,473.000
0.766,2838.000,3423.000,3526.500,476.000
0.767,2836.500,3422.000,3526.500,478.000
0.768,2835.500,3421.000,3526.500,480.000
0.769,2834.000,3420.000,3526.000,481.000
0.770,2832.500,3418.500,3525.000,481.500
0.771,2830.500,3416.500,3522.500,480.000
0.772,2828.500,3414.000,3519.000,478.000
0.773,2826.000,3411.000,3515.000,474.500
0.774,2824.000,3408.500,3511.500,472.000
0.775,2823.000,3406.500,3509.000,469.500
0.776,2822.500,3405.000,3507.000,467.500
0.777,2822.500,3404.000,3506.000,466.000
0.778,2822.500,3404.000,3505.500,465.000
0.779,2824.000,3404.000,3506.000,464.500
0.780,2825.500,3405.500,3508.000,465.500
0.781,2828.000,3407.500,3510.000,467.500
0.782,2830.000,3409.000,3512.500,470.000
0.783,2831.000,3410.500,3514.500,473.000
0.784,2831.000,3410.500,3515.500,475.500
0.785,2829.500,3409.500,3515.500,478.000
0.786,2827.000,3408.000,3514.500,479.500
0.787,2824.000,3405.500,3513.000,480.500
0.788,2821.500,3403.500,3511.500,481.000
0.789,2819.000,3401.500,3510.000,481.000
0.790,2817.000,3399.500,3508.500,481.000
0.791,2815.500,3398.500,3507.000,481.000
0.792,2814.500,3397.500,3506.000,480.500
0.793,2814.000,3396.500,3504.500,480.000
0.794,2814.000,3395.500,3503.500,479.000
0.795,2814.000,3395.000,3502.000,478.000
0.796,2814.500,3394.500,3500.500,476.500
0.797,2815.000,3393.500,3498.500,475.000
0.798,2815.000,3392.500,3496.500,472.500
0.799,2815.000,3392.000,3494.500,470.500
0.800,2815.000,3391.000,3492.500,469.000
0.801,2814.500,3390.500,3491.000,468.000
0.802,2814.500,3390.000,3490.500,468.500
0.803,2814.500,3389.500,3490.500,469.500
0.804,2814.500,3390.000,3491.000,472.500
0.805,2815.000,3391.000,3492.500,476.000
0.806,2816.000,3392.000,3494.500,480.500
0.807,2816.500,3393.500,3496.500,484.500
0.808,2816.000,3393.500,3497.500,488.000
0.809,2814.500,3393.000,3497.000,489.500
0.810,2812.000,3391.000,3495.500,489.500
0.811,2809.500,3388.000,3492.500,488.000
0.812,2806.500,3385.500,3489.500,485.500
0.813,2804.500,3382.500,3486.500,483.000
0.814,2803.000,3380.500,3483.500,480.000
0.815,2802.000,3379.000,3481.000,478.000
0.816,2802.000,3378.000,3479.500,476.000
0.817,2802.000,3377.500,3477.500,474.000
0.818,2803.000,3377.000,3476.500,472.500
0.819,2803.500,3377.000,3475.500,471.500
0.820,2804.500,3377.000,3474.500,470.500
0.821,2805.000,3377.000,3474.500,470.500
0.822,2805.500,3377.500,3475.000,472.000
0.823,2806.500,3378.500,3475.500,474.000
0.824,2807.000,3379.000,3477.000,477.000
0.825,2807.000,3380.000,3478.500,480.500
0.826,2807.000,3380.500,3480.000,484.500
0.827,2806.000,3380.000,3481.000,487.500
0.828,2805.000,3379.500,3481.000,490.000
0.829,2803.500,3379.000,3481.000,491.500
0.830,2802.000,3378.000,3480.500,492.500
0.831,2801.000,3377.500,3480.000,493.000
0.832,2799.500,3376.500,3478.500,492.500
0.833,2798.500,3375.500,3477.000,492.000
0.834,2797.500,3374.000,3475.000,490.500
0.835,2797.000,3373.000,3473.000,489.000
0.836,2796.500,3371.500,3470.500,486.500
0.837,2795.500,3370.000,3467.500,483.500
0.838,2794.500,3368.500,3465.000,480.000
0.839,2794.000,3367.000,3463.000,477.500
0.840,2795.000,3367.500,3462.500,477.000
0.841,2797.500,3369.500,3464.000,479.500
0.842,2802.000,3374.000,3468.000,484.000
0.843,2807.500,3380.000,3474.500,491.500
0.844,2814.000,3386.500,3481.500,501.000
0.845,2820.500,3393.500,3489.500,510.500
0.846,2825.500,3399.000,3496.000,519.500
0.847,2828.500,3403.000,3500.500,526.500
0.848,2830.000,3405.000,3503.000,531.500
0.849,2830.500,3405.500,3504.000,534.500
0.850,2830.000,3405.000,3504.000,535.500
0.851,2829.000,3404.000,3502.500,535.500
0.852,2827.500,3402.500,3500.500,534.500
0.853,2825.500,3400.000,3497.500,532.000
0.854,2823.000,3397.000,3494.000,529.000
0.855,2821.000,3394.000,3490.000,525.500
0.856,2819.000,3391.000,3486.500,521.500
0.857,2817.500,3389.000,3483.000,518.000
0.858,2817.000,3388.000,3480.500,515.000
0.859,2816.500,3387.000,3479.000,513.000
0.860,2816.500,3386.500,3477.500,511.500
0.861,2816.500,3386.500,3477.000,511.000
0.862,2816.500,3386.500,3476.500,511.500
0.863,2816.500,3386.500,3477.000,513.000
0.864,2817.000,3386.500,3477.500,516.000
0.865,2817.500,3387.500,3479.000,519.500
0.866,2817.500,3388.000,3480.500,523.500
0.867,2817.000,3388.000,3481.000,527.000
0.868,2815.000,3387.000,3481.000,529.000
0.869,2813.000,3385.500,3480.500,530.000
0.870,2811.000,3383.500,3479.000,530.000
0.871,2809.000,3381.500,3477.000,529.000
0.872,2807.000,3379.500,3475.000,528.000
0.873,2805.000,3377.500,3472.000,526.000
0.874,2803.000,3375.000,3469.500,523.500
0.875,2801.500,3373.000,3466.500,521.000
0.876,2800.000,3371.000,3463.500,518.000
0.877,2799.000,3369.500,3460.500,515.000
0.878,2799.000,3369.000,3459.000,513.000
0.879,2800.000,3369.000,3457.500,511.500
0.880,2801.000,3369.000,3456.500,510.500
0.881,2801.000,3368.500,3456.000,510.000
0.882,2801.000,3367.500,3455.000,510.000
0.883,2800.000,3366.000,3454.500,510.500
0.884,2799.000,3365.000,3454.000,512.000
0.885,2797.000,3363.500,3453.000,513.500
0.886,2794.500,3362.000,3452.000,515.000
0.887,2792.500,3360.500,3451.500,516.000
0.888,2790.500,3359.500,3450.500,517.500
0.889,2788.500,3358.000,3449.500,518.500
0.890,2786.000,3356.000,3448.000,518.000
0.891,2783.000,3353.500,3445.500,517.000
0.892,2779.000,3349.500,3441.500,514.000
0.893,2774.500,3345.000,3436.500,510.000
0.894,2770.500,3340.000,3431.000,505.000
0.895,2766.500,3335.500,3425.500,500.000
0.896,2763.500,3332.000,3421.000,495.000
0.897,2761.500,3329.000,3417.500,491.000
0.898,2761.000,3327.500,3415.000,488.000
0.899,2760.000,3326.000,3413.000,486.000
0.900,2759.500,3325.000,3411.000,484.000
0.901,2759.000,3324.000,3410.000,483.000
0.902,2759.500,3324.500,3410.000,484.000
0.903,2761.000,3326.000,3411.500,486.500
0.904,2763.000,3328.000,3414.000,491.000
0.905,2764.500,3330.000,3416.500,496.000
0.906,2765.000,3331.000,3418.500,500.000
0.907,2764.500,3331.000,3419.000,503.000
0.908,2763.000,3329.500,3419.000,504.500
0.909,2762.000,3328.500,3418.000,506.000
0.910,2760.500,3327.000,3417.000,506.000
0.911,2758.500,3324.500,3414.500,505.500
0.912,2755.500,3321.500,3411.000,503.000
0.913,2752.500,3318.000,3406.500,499.500
0.914,2749.500,3314.500,3402.000,495.500
0.915,2747.000,3311.500,3398.500,492.000
0.916,2746.500,3310.000,3396.000,489.500
0.917,2746.500,3309.500,3394.500,487.500
0.918,2747.500,3309.500,3393.500,486.000
0.919,2748.500,3310.000,3393.000,485.500
0.920,2749.500,3310.500,3393.000,485.000
0.921,2749.500,3310.500,3392.500,484.500
0.922,2749.500,3310.000,3392.000,485.000
0.923,2748.500,3309.000,3391.500,485.500
0.924,2746.500,3308.000,3391.000,486.500
0.925,2745.000,3306.500,3390.000,488.500
0.926,2742.500,3305.000,3389.500,490.000
0.927,2741.000,3304.000,3389.500,492.000
0.928,2739.500,3303.000,3389.000,494.000
0.929,2738.500,3302.500,3389.000,496.000
0.930,2737.500,3302.000,3389.000,497.500
0.931,2736.500,3301.500,3388.000,498.000
0.932,2735.000,3300.000,3386.000,497.000
0.933,2733.500,3298.000,3383.000,495.000
0.934,2731.500,3295.000,3379.000,491.500
0.935,2730.500,3292.500,3375.000,487.500
0.936,2730.000,3290.500,3371.000,484.000
0.937,2730.000,3289.500,3368.500,481.500
0.938,2731.000,3289.000,3366.500,480.000
0.939,2732.500,3289.000,3366.000,479.500
0.940,2734.000,3290.000,3366.500,480.500
0.941,2735.500,3291.500,3368.500,482.500
0.942,2737.500,3293.500,3371.000,485.500
0.943,2739.500,3296.000,3374.000,490.000
0.944,2741.000,3298.000,3377.500,494.500
0.945,2741.500,3299.000,3380.000,499.000
0.946,2741.000,3299.000,3381.000,502.500
0.947,2739.000,3298.000,3381.500,505.000
0.948,2737.000,3296.500,3380.500,506.500
0.949,2734.500,3295.000,3379.500,507.500
0.950,2732.500,3293.000,3378.000,507.500
0.951,2730.000,3290.500,3375.500,506.500
0.952,2728.000,3288.500,3373.000,504.500
0.953,2726.000,3286.000,3369.500,502.500
0.954,2724.000,3283.500,3366.500,500.000
0.955,2723.000,3281.500,3363.500,497.000
0.956,2722.000,3279.500,3360.000,493.500
0.957,2721.000,3277.000,3356.500,490.000
0.958,2719.500,3274.000,3353.000,486.000
0.959,2717.500,3271.500,3349.000,482.000
0.960,2715.500,3268.500,3345.500,479.000
0.961,2714.000,3267.000,3342.500,477.000
0.962,2713.000,3266.000,3341.500,476.500
0.963,2712.500,3265.500,3341.000,477.500
0.964,2711.500,3265.000,3341.000,479.000
0.965,2709.000,3263.000,3340.000,480.000
0.966,2705.000,3260.000,3337.500,479.500
0.967,2700.000,3255.500,3333.500,478.000
0.968,2694.500,3251.000,3329.500,476.000
0.969,2691.500,3248.000,3327.000,475.000
0.970,2692.000,3248.500,3327.500,477.500
0.971,2696.500,3253.000,3332.500,483.500
0.972,2705.000,3261.500,3341.000,493.500
0.973,2717.000,3273.500,3353.000,506.000
0.974,2732.000,3287.500,3367.000,520.500
0.975,2748.000,3303.000,3382.000,536.500
0.976,2764.500,3318.500,3397.000,552.000
0.977,2781.500,3335.000,3412.500,567.500
0.978,2799.000,3351.500,3428.000,583.500
0.979,2817.500,3369.000,3445.000,600.500
0.980,2838.000,3388.500,3464.000,619.500
0.981,2860.500,3411.500,3486.500,643.000
0.982,2887.500,3438.000,3513.000,671.000
0.983,2919.000,3469.500,3545.500,705.000
0.984,2954.500,3505.500,3582.500,744.500
0.985,2994.000,3545.500,3624.000,789.000
0.986,3037.000,3589.500,3669.500,837.500
0.987,3083.000,3636.500,3718.000,889.500
0.988,3131.500,3686.000,3769.000,943.500
0.989,3181.000,3737.000,3821.500,998.000
0.990,3231.000,3787.500,3873.000,1052.000
0.991,3279.500,3836.500,3922.500,1103.500
0.992,3325.000,3882.500,3968.500,1151.500
0.993,3366.000,3923.500,4009.000,1193.500
0.994,3401.000,3958.000,4041.500,1229.000
0.995,3430.000,3986.000,4066.000,1258.000
0.996,3453.000,4008.500,4082.000,1280.000
0.997,3471.000,4025.500,4091.000,1296.500
0.998,3484.000,4037.500,4095.000,1307.500
0.999,3490.500,4043.500,4096.500,1312.500
1.000,3490.000,4043.000,4096.000,1311.000
1.001,3483.000,4036.000,4093.500,1303.000
1.002,3470.500,4023.500,4087.500,1290.500
1.003,3453.000,4006.000,4076.500,1273.500
1.004,3430.500,3983.500,4058.500,1252.500
1.005,3402.000,3955.500,4033.000,1226.000
1.006,3366.500,3920.000,3999.000,1192.500
1.007,3323.500,3877.500,3957.000,1151.000
1.008,3272.500,3826.500,3905.500,1101.500
1.009,3214.000,3768.000,3846.500,1043.500
1.010,3151.000,3704.500,3782.500,980.000
1.011,3087.500,3640.500,3718.000,915.500
1.012,3028.500,3580.500,3656.500,854.000
1.013,2976.000,3527.000,3602.000,799.500
1.014,2931.000,3481.500,3555.500,752.500
1.015,2894.500,3443.500,3516.000,712.500
1.016,2864.000,3412.000,3483.000,679.000
1.017,2839.000,3385.500,3455.500,651.000
1.018,2818.000,3363.000,3432.000,626.500
1.019,2799.500,3343.500,3411.500,605.000
1.020,2783.500,3327.000,3393.500,587.500
1.021,2770.000,3312.500,3378.500,572.500
1.022,2758.000,3300.000,3366.000,561.000
1.023,2747.500,3289.500,3355.500,552.000
1.024,2738.500,3281.000,3347.000,546.000
1.025,2731.500,3274.000,3341.000,542.000
1.026,2725.500,3269.000,3336.500,540.500
1.027,2720.500,3264.500,3333.000,540.000
1.028,2716.500,3261.000,3330.500,539.000
1.029,2712.500,3257.000,3327.000,538.000
1.030,2708.000,3253.000,3323.000,535.500
1.031,2703.500,3248.500,3318.500,532.000
1.032,2698.500,3243.500,3313.500,528.000
1.033,2694.500,3239.500,3308.500,524.000
1.034,2692.000,3236.000,3304.500,520.000
1.035,2690.500,3234.000,3301.000,517.000
1.036,2690.500,3232.500,3298.500,514.500
1.037,2691.000,3232.000,3296.000,512.000
1.038,2692.000,3231.000,3294.000,509.500
1.039,2692.000,3230.000,3291.500,506.500
1.040,2692.000,3228.500,3288.500,504.000
1.041,2691.000,3227.000,3286.500,502.000
1.042,2690.500,3226.000,3284.500,501.000
1.043,2690.000,3225.000,3283.500,501.000
1.044,2689.500,3224.500,3283.000,502.500
1.045,2688.000,3223.500,3283.000,504.500
1.046,2686.000,3222.500,3282.500,506.500
1.047,2683.500,3220.500,3281.500,508.500
1.048,2680.500,3218.500,3280.500,510.000
1.049,2677.500,3216.000,3279.000,510.500
1.050,2674.500,3214.000,3278.000,511.500
1.051,2672.500,3212.500,3277.500,512.500
1.052,2671.500,3212.000,3277.000,513.500
1.053,2670.000,3211.000,3276.500,514.500
1.054,2669.000,3210.000,3275.500,514.000
1.055,2668.000,3208.500,3273.500,512.500
1.056,2667.000,3207.000,3271.000,510.000
1.057,2666.500,3205.000,3268.000,507.000
1.058,2666.500,3203.500,3265.000,503.500
1.059,2666.500,3202.000,3262.500,500.500
1.060,2667.000,3201.500,3260.500,499.000
1.061,2667.500,3201.500,3260.000,498.500
1.062,2668.500,3202.000,3260.500,500.000
1.063,2669.500,3203.500,3261.500,502.000
1.064,2670.500,3204.500,3263.000,505.500
1.065,2670.500,3205.000,3264.500,509.000
1.066,2670.000,3204.500,3265.000,512.000
1.067,2668.500,3203.500,3265.000,514.500
1.068,2667.000,3202.000,3264.000,515.500
1.069,2665.000,3200.500,3263.000,516.500
1.070,2663.000,3198.500,3261.500,517.000
1.071,2661.000,3197.000,3260.000,517.000
1.072,2659.500,3195.500,3258.000,516.500
1.073,2658.000,3193.500,3256.000,515.000
1.074,2657.000,3191.500,3253.000,513.000
1.075,2656.000,3189.500,3250.000,510.500
1.076,2655.000,3187.500,3247.000,507.000
1.077,2654.500,3185.500,3244.000,504.000
1.078,2654.000,3184.000,3241.500,501.500
1.079,2654.500,3183.000,3239.500,499.500
1.080,2654.500,3182.500,3238.500,498.500
1.081,2655.000,3182.000,3237.500,498.000
1.082,2655.500,3182.500,3237.500,499.000
1.083,2656.000,3182.500,3238.000,501.000
1.084,2656.500,3183.500,3239.000,504.000
1.085,2657.000,3184.500,3241.000,508.000
1.086,2658.000,3186.000,3243.500,512.500
1.087,2659.000,3187.500,3246.000,517.000
1.088,2659.500,3188.500,3247.500,521.000
1.089,2659.000,3188.500,3248.500,524.000
1.090,2657.500,3187.500,3247.500,525.000
1.091,2655.500,3186.000,3246.000,524.500
1.092,2653.500,3183.500,3243.500,523.000
1.093,2651.500,3181.000,3241.000,521.000
1.094,2649.500,3179.000,3238.000,518.500
1.095,2648.000,3176.500,3234.500,515.500
1.096,2646.500,3174.000,3231.000,512.000
1.097,2645.000,3172.000,3228.000,508.500
1.098,2643.500,3170.000,3224.500,505.500
1.099,2643.500,3168.500,3222.500,503.000
1.100,2644.000,3168.000,3221.500,502.500
1.101,2645.000,3168.500,3221.500,503.000
1.102,2647.000,3169.500,3222.500,505.000
1.103,2648.500,3171.000,3224.000,508.000
1.104,2650.000,3172.000,3225.500,511.500
1.105,2650.500,3173.000,3227.000,515.000
1.106,2650.500,3173.500,3228.500,519.000
1.107,2649.500,3173.000,3229.000,521.500
1.108,2647.500,3172.000,3228.500,523.500
1.109,2645.500,3170.500,3227.000,524.500
1.110,2643.500,3168.500,3225.500,524.500
1.111,2641.500,3167.000,3224.000,524.500
1.112,2639.500,3166.000,3222.500,523.500
1.113,2638.000,3164.500,3220.500,522.500
1.114,2636.000,3162.500,3218.000,520.000
1.115,2634.500,3160.500,3215.000,517.000
1.116,2632.500,3158.500,3211.500,513.500
1.117,2631.500,3156.500,3208.500,510.000
1.118,2631.000,3155.500,3206.000,507.500
1.119,2631.500,3155.000,3205.000,506.000
1.120,2633.000,3156.000,3204.500,505.500
1.121,2635.000,3157.500,3205.500,506.500
1.122,2637.500,3159.000,3207.000,508.500
1.123,2639.500,3160.500,3208.000,511.000
1.124,2641.000,3161.500,3209.000,513.500
1.125,2641.500,3162.000,3209.500,516.500
1.126,2641.000,3162.500,3210.000,520.000
1.127,2640.500,3162.000,3210.500,523.000
1.128,2639.000,3161.500,3211.000,525.500
1.129,2638.000,3160.500,3211.500,527.500
1.130,2636.500,3159.500,3211.000,529.000
1.131,2635.000,3158.500,3210.500,529.500
1.132,2633.500,3157.000,3209.500,529.000
1.133,2632.000,3155.500,3208.000,528.000
1.134,2630.500,3154.000,3206.500,526.500
1.135,2629.500,3152.500,3204.500,524.500
1.136,2629.000,3151.500,3202.500,522.000
1.137,2628.500,3150.500,3200.500,520.000
1.138,2628.500,3150.000,3199.000,518.000
1.139,2629.000,3150.000,3198.000,516.500
1.140,2630.000,3150.000,3197.500,516.000
1.141,2631.000,3150.500,3197.500,516.500
1.142,2632.000,3151.500,3199.000,518.500
1.143,2633.500,3153.000,3200.500,521.500
1.144,2635.000,3155.000,3202.500,525.500
1.145,2636.000,3156.000,3204.500,529.500
1.146,2636.000,3156.500,3205.500,533.000
1.147,2635.000,3156.000,3206.000,536.000
1.148,2633.500,3155.500,3205.500,538.000
1.149,2631.500,3154.000,3204.500,539.000
1.150,2630.000,3152.500,3203.500,539.500
1.151,2628.000,3150.500,3202.000,539.000
1.152,2626.500,3149.500,3200.500,538.500
1.153,2625.500,3148.000,3199.000,537.500
1.154,2625.000,3147.500,3197.500,536.500
1.155,2625.000,3146.500,3195.500,535.500
1.156,2625.500,3146.000,3194.000,533.500
1.157,2625.500,3145.000,3192.000,531.500
1.158,2625.500,3144.000,3190.000,529.000
1.159,2626.000,3143.000,3188.500,527.000
1.160,2626.500,3143.000,3188.000,526.000
1.161,2628.000,3144.000,3188.500,527.000
1.162,2630.000,3145.500,3190.500,529.000
1.163,2632.000,3148.000,3193.000,533.000
1.164,2634.000,3150.500,3196.000,537.500
1.165,2635.500,3152.500,3199.000,542.500
1.166,2637.000,3154.000,3201.500,547.000
1.167,2637.500,3155.000,3204.000,551.500
1.168,2638.000,3156.000,3206.000,555.500
1.169,2638.500,3157.000,3207.500,558.500
1.170,2638.500,3158.000,3208.500,561.000
1.171,2639.000,3158.500,3209.000,562.500
1.172,2639.000,3158.000,3208.500,562.500
1.173,2638.500,3157.500,3207.500,562.000
1.174,2637.500,3156.000,3205.500,560.000
1.175,2636.500,3154.000,3203.000,557.500
1.176,2635.500,3152.000,3200.000,555.000
1.177,2635.000,3150.500,3197.500,552.000
1.178,2635.500,3150.000,3196.000,550.000
1.179,2637.500,3150.500,3196.500,550.000
1.180,2640.500,3153.500,3198.500,552.000
1.181,2645.000,3157.000,3202.000,556.000
1.182,2650.000,3162.000,3206.500,561.500
1.183,2654.000,3166.000,3211.500,567.500
1.184,2657.500,3169.500,3215.500,573.000
1.185,2660.000,3172.500,3219.000,578.500
1.186,2661.000,3174.000,3221.500,583.000
1.187,2661.000,3175.000,3223.500,587.000
1.188,2661.000,3175.500,3225.000,590.000
1.189,2660.500,3175.500,3226.000,592.500
1.190,2660.000,3175.500,3226.500,594.500
1.191,2659.500,3175.000,3226.500,595.500
1.192,2658.500,3174.000,3225.500,595.500
1.193,2657.500,3172.500,3224.000,594.000
1.194,2656.500,3170.500,3221.500,592.000
1.195,2656.000,3169.000,3219.500,590.000
1.196,2656.500,3168.500,3218.500,589.000
1.197,2658.500,3169.500,3219.000,588.500
1.198,2661.500,3172.000,3220.000,589.500
1.199,2665.000,3175.000,3222.500,591.500
1.200,2669.000,3178.000,3225.500,594.000
1.201,2673.000,3181.500,3228.000,597.000
1.202,2676.000,3184.000,3231.000,600.000
1.203,2679.000,3187.000,3234.000,604.500
1.204,2681.500,3189.500,3237.000,609.000
1.205,2683.000,3191.000,3240.000,613.500
1.206,2683.500,3192.000,3242.000,617.500
1.207,2683.000,3192.500,3243.000,620.500
1.208,2682.000,3192.000,3243.500,623.000
1.209,2681.000,3191.500,3244.000,625.000
1.210,2680.500,3191.000,3244.500,626.500
1.211,2679.500,3190.500,3244.000,627.500
1.212,2678.000,3189.500,3243.000,627.000
1.213,2677.000,3188.000,3241.000,625.500
1.214,2675.500,3186.000,3239.000,623.500
1.215,2675.000,3184.500,3237.000,621.000
1.216,2674.500,3183.000,3235.000,619.000
1.217,2674.000,3182.000,3233.500,616.500
1.218,2674.500,3181.500,3232.000,614.500
1.219,2675.500,3181.500,3231.000,613.000
1.220,2677.000,3182.000,3231.000,612.500
1.221,2679.000,3183.000,3231.500,613.000
1.222,2681.000,3184.500,3232.500,615.000
1.223,2682.500,3186.000,3234.500,618.000
1.224,2683.500,3187.500,3236.500,621.500
1.225,2683.500,3188.500,3238.000,625.500
1.226,2682.500,3188.000,3239.000,628.500
1.227,2681.000,3187.000,3239.500,630.500
1.228,2679.500,3186.000,3239.500,632.500
1.229,2677.500,3184.500,3238.500,633.000
1.230,2675.500,3182.500,3237.500,633.000
1.231,2672.500,3180.000,3235.000,631.500
1.232,2669.500,3176.500,3231.500,629.000
1.233,2666.000,3173.000,3227.500,625.000
1.234,2662.500,3169.000,3223.500,621.000
1.235,2659.500,3165.500,3219.000,616.500
1.236,2657.000,3162.000,3215.500,612.000
1.237,2655.500,3159.500,3212.000,608.500
1.238,2654.500,3157.500,3209.000,605.000
1.239,2654.000,3156.500,3207.000,602.500
1.240,2654.500,3156.000,3206.000,601.000
1.241,2654.500,3155.500,3205.500,600.500
1.242,2654.000,3154.500,3205.000,600.500
1.243,2652.500,3153.000,3204.000,600.000
1.244,2650.000,3151.000,3202.000,600.000
1.245,2647.000,3148.500,3200.500,600.000
1.246,2643.500,3145.000,3198.500,600.000
1.247,2639.000,3141.500,3196.000,599.000
1.248,2634.500,3137.500,3193.000,598.000
1.249,2630.000,3133.500,3190.000,596.000
1.250,2625.500,3129.500,3186.500,594.000
1.251,2621.000,3125.000,3182.500,591.000
1.252,2617.000,3121.000,3178.000,587.000
1.253,2613.000,3117.000,3173.500,583.000
1.254,2609.500,3113.000,3169.000,578.500
1.255,2606.500,3109.000,3164.000,573.500
1.256,2603.000,3105.000,3159.500,568.500
1.257,2600.500,3101.500,3154.500,563.000
1.258,2598.000,3098.000,3150.500,558.000
1.259,2596.000,3095.000,3146.500,554.000
1.260,2594.500,3092.500,3144.000,551.000
1.261,2593.500,3090.500,3141.500,549.000
1.262,2592.500,3089.000,3139.500,547.500
1.263,2591.000,3087.000,3137.500,546.500
1.264,2589.000,3085.000,3135.500,546.000
1.265,2586.500,3082.500,3133.000,545.500
1.266,2583.000,3079.500,3130.500,545.000
1.267,2579.500,3075.500,3127.500,544.500
1.268,2575.000,3071.500,3124.500,543.500
1.269,2570.500,3067.000,3121.000,541.500
1.270,2566.000,3063.000,3118.000,539.500
1.271,2561.500,3058.500,3114.500,537.000
1.272,2557.500,3054.500,3111.000,534.000
1.273,2553.500,3050.000,3107.500,530.500
1.274,2550.000,3046.000,3103.500,526.500
1.275,2547.500,3042.500,3100.000,522.000
1.276,2545.500,3040.000,3097.000,518.000
1.277,2544.000,3037.500,3094.000,514.000
1.278,2543.000,3035.500,3091.500,510.500
1.279,2541.500,3033.500,3089.000,507.500
1.280,2540.500,3032.000,3087.000,505.000
1.281,2539.500,3030.500,3085.000,503.500
1.282,2539.000,3029.500,3084.000,503.000
1.283,2538.000,3028.500,3083.500,503.000
1.284,2536.500,3027.000,3082.500,503.500
1.285,2535.000,3025.000,3081.000,504.500
1.286,2532.500,3023.000,3080.000,505.000
1.287,2530.000,3021.000,3079.000,506.000
1.288,2527.500,3019.000,3078.000,506.500
1.289,2525.500,3017.000,3077.000,507.000
1.290,2524.000,3015.500,3075.500,507.000
1.291,2522.000,3014.000,3074.500,506.500
1.292,2520.000,3012.000,3072.500,505.000
1.293,2517.500,3009.000,3069.000,502.500
1.294,2514.000,3005.000,3065.000,498.500
1.295,2510.500,3000.500,3060.000,493.000
1.296,2507.500,2996.500,3055.500,488.000
1.297,2506.000,2993.500,3051.500,484.000
1.298,2505.500,2992.500,3049.500,481.000
1.299,2506.500,2992.500,3049.500,480.000
1.300,2508.500,2994.000,3050.500,480.500
1.301,2511.000,2996.000,3052.500,482.500
1.302,2513.500,2998.000,3055.000,485.500
1.303,2515.000,3000.000,3057.000,488.500
1.304,2515.500,3001.000,3058.500,491.500
1.305,2515.000,3001.000,3059.500,494.000
1.306,2513.500,3000.500,3059.500,496.000
1.307,2511.000,2998.500,3059.000,497.500
1.308,2508.500,2996.500,3058.000,498.000
1.309,2506.000,2994.000,3056.500,498.500
1.310,2503.500,2992.000,3054.500,498.000
1.311,2501.500,2990.000,3052.500,497.000
1.312,2499.000,2987.500,3050.500,495.500
1.313,2497.000,2985.000,3047.500,493.000
1.314,2494.500,2982.500,3044.500,490.500
1.315,2493.000,2980.500,3042.000,487.500
1.316,2492.000,2978.000,3039.000,484.000
1.317,2491.500,2976.500,3037.000,481.000
1.318,2491.500,2975.500,3035.000,478.500
1.319,2492.000,2975.000,3034.000,476.500
1.320,2493.000,2975.000,3033.000,475.500
1.321,2494.000,2975.000,3032.500,475.000
1.322,2494.000,2974.500,3032.000,475.000
1.323,2494.000,2974.500,3032.500,476.000
1.324,2493.000,2974.500,3033.000,478.000
1.325,2492.500,2974.000,3033.500,480.500
1.326,2491.500,2974.000,3034.500,483.500
1.327,2490.500,2973.500,3035.500,486.500
1.328,2489.500,2973.000,3036.000,489.000
1.329,2489.000,2973.000,3037.000,491.000
1.330,2489.000,2973.000,3037.000,492.500
1.331,2488.000,2972.500,3037.000,493.000
1.332,2487.500,2971.500,3036.000,493.000
1.333,2486.500,2970.500,3035.000,492.000
1.334,2485.500,2969.500,3033.500,491.000
1.335,2485.000,2968.500,3031.500,489.000
1.336,2484.500,2967.500,3030.000,487.500
1.337,2484.500,2966.500,3028.500,485.000
1.338,2484.500,2965.500,3027.000,483.000
1.339,2484.500,2965.000,3025.500,481.000
1.340,2485.000,2964.500,3025.000,479.500
1.341,2485.500,2964.500,3025.000,479.500
1.342,2486.500,2965.000,3025.000,480.000
1.343,2486.500,2965.000,3025.500,481.500
1.344,2486.000,2964.500,3026.000,483.500
1.345,2485.000,2963.500,3026.500,485.000
1.346,2483.500,2962.500,3026.500,487.000
1.347,2481.000,2961.000,3026.000,488.500
1.348,2478.500,2959.000,3025.000,489.500
1.349,2476.000,2956.500,3023.500,489.500
1.350,2473.500,2954.500,3022.000,489.000
1.351,2471.500,2952.500,3020.500,488.000
1.352,2470.500,2951.000,3019.000,487.500
1.353,2470.000,2949.500,3018.000,487.000
1.354,2469.500,2948.500,3016.500,485.500
1.355,2469.000,2947.000,3015.000,483.500
1.356,2468.500,2945.500,3012.500,481.000
1.357,2468.000,2944.000,3010.500,478.000
1.358,2467.000,2942.500,3008.000,475.000
1.359,2466.500,2941.000,3006.000,472.500
1.360,2466.000,2940.000,3004.500,471.000
1.361,2466.000,2939.000,3004.000,470.000
1.362,2466.000,2939.000,3004.000,471.000
1.363,2466.500,2939.500,3005.000,472.500
1.364,2467.000,2940.500,3006.500,475.500
1.365,2467.500,2941.000,3008.000,479.000
1.366,2468.500,2942.000,3010.000,483.000
1.367,2468.500,2943.000,3012.000,487.000
1.368,2468.500,2943.500,3013.500,490.000
1.369,2468.500,2943.500,3014.000,492.000
1.370,2467.500,2943.000,3014.000,493.500
1.371,2466.500,2942.000,3013.500,493.500
1.372,2465.000,2940.500,3011.500,492.500
1.373,2463.500,2938.500,3009.500,490.500
1.374,2461.500,2936.000,3006.500,487.500
1.375,2459.500,2933.000,3003.500,484.500
1.376,2458.000,2930.500,3000.500,481.000
1.377,2457.000,2928.500,2998.000,478.000
1.378,2457.000,2927.500,2996.000,475.000
1.379,2457.000,2926.500,2994.000,473.000
1.380,2457.500,2926.000,2993.000,472.000
1.381,2458.500,2926.000,2993.000,471.500
1.382,2459.000,2926.500,2993.000,472.500
1.383,2460.000,2927.000,2994.000,474.500
1.384,2460.500,2928.000,2995.000,477.000
1.385,2460.500,2928.500,2996.500,480.500
1.386,2460.000,2928.500,2997.500,483.500
1.387,2459.000,2928.500,2998.500,486.000
1.388,2458.000,2928.000,2999.000,488.000
1.389,2456.500,2927.000,2998.500,489.500
1.390,2455.000,2925.500,2997.500,490.000
1.391,2453.500,2924.000,2996.000,489.500
1.392,2451.500,2922.000,2994.000,488.000
1.393,2450.000,2920.000,2991.500,486.000
1.394,2448.000,2917.500,2989.500,483.500
1.395,2446.500,2915.500,2986.500,480.500
1.396,2445.000,2913.000,2984.000,477.000
1.397,2444.000,2911.000,2981.000,473.500
1.398,2443.500,2910.000,2979.000,471.000
1.399,2444.000,2909.500,2978.000,469.000
1.400,2445.500,2910.500,2978.000,469.000
1.401,2447.500,2912.000,2979.000,470.000
1.402,2449.000,2913.500,2981.000,472.500
1.403,2451.000,2915.500,2983.000,476.000
1.404,2452.000,2916.500,2985.000,479.500
1.405,2452.000,2917.000,2986.000,483.000
1.406,2451.500,2917.000,2987.000,486.000
1.407,2450.000,2916.000,2987.000,488.500
1.408,2448.500,2915.000,2987.000,490.000
1.409,2447.000,2913.500,2986.500,491.000
1.410,2445.500,2912.500,2985.500,491.500
1.411,2443.500,2911.000,2984.500,491.000
1.412,2442.000,2909.500,2983.000,490.500
1.413,2440.000,2907.500,2981.000,488.500
1.414,2438.000,2904.500,2977.500,485.500
1.415,2435.000,2901.000,2973.500,481.000
1.416,2432.500,2897.000,2969.500,476.000
1.417,2430.000,2894.000,2965.500,471.500
1.418,2429.000,2892.000,2962.500,468.000
1.419,2429.000,2891.500,2961.500,466.000
1.420,2430.000,2891.500,2961.000,465.000
1.421,2431.000,2892.000,2961.000,465.000
1.422,2431.500,2892.500,2961.000,466.000
1.423,2432.000,2892.500,2961.500,467.000
1.424,2432.000,2893.000,2962.000,469.500
1.425,2432.000,2893.500,2963.000,472.500
1.426,2432.000,2893.500,2963.500,475.500
1.427,2430.500,2893.000,2964.000,478.000
1.428,2429.500,2892.000,2964.000,480.000
1.429,2428.000,2891.000,2963.500,481.000
1.430,2426.500,2890.000,2963.000,482.000
1.431,2425.000,2888.500,2962.000,482.000
1.432,2423.500,2886.500,2960.000,480.500
1.433,2421.500,2884.500,2957.500,478.500
1.434,2420.000,2882.500,2955.000,476.000
1.435,2419.000,2880.500,2952.000,473.000
1.436,2418.000,2878.500,2949.000,469.000
1.437,2417.000,2876.000,2945.000,465.000
1.438,2416.000,2874.000,2941.500,460.500
1.439,2416.000,2873.000,2938.500,458.000
1.440,2417.000,2873.500,2937.500,457.500
1.441,2419.500,2875.000,2939.000,459.500
1.442,2422.500,2878.000,2942.000,463.500
1.443,2425.500,2881.000,2945.500,468.500
1.444,2427.000,2883.000,2949.000,473.500
1.445,2427.500,2884.000,2951.500,477.000
1.446,2426.000,2883.500,2952.500,479.500
1.447,2424.000,2881.500,2952.000,481.000
1.448,2421.500,2879.500,2951.000,481.500
1.449,2419.500,2877.500,2949.500,482.000
1.450,2417.500,2876.000,2948.500,481.500
1.451,2416.500,2874.500,2947.000,481.000
1.452,2415.500,2873.000,2945.500,480.000
1.453,2414.500,2871.500,2944.000,478.500
1.454,2414.000,2870.500,2942.000,476.500
1.455,2413.500,2869.000,2939.500,474.500
1.456,2413.500,2868.000,2937.000,472.000
1.457,2414.000,2867.500,2935.000,469.500
1.458,2414.500,2867.000,2933.500,467.000
1.459,2415.000,2866.500,2932.000,465.500
1.460,2415.500,2866.500,2931.500,464.500
1.461,2416.500,2867.000,2932.000,465.000
1.462,2417.000,2867.500,2933.500,467.500
1.463,2417.500,2869.000,2935.000,470.500
1.464,2417.500,2869.500,2937.000,474.500
1.465,2417.000,2870.000,2938.500,478.500
1.466,2416.000,2869.500,2939.500,481.500
1.467,2414.000,2868.500,2939.000,483.000
1.468,2412.000,2866.500,2938.000,484.000
1.469,2410.000,2865.000,2936.500,484.500
1.470,2408.000,2863.500,2935.000,484.500
1.471,2406.500,2861.500,2933.500,483.500
1.472,2405.000,2860.000,2931.500,482.000
1.473,2403.500,2858.000,2929.500,480.500
1.474,2402.500,2856.500,2927.000,478.000
1.475,2401.000,2854.500,2924.500,475.500
1.476,2400.000,2852.500,2921.500,472.000
1.477,2399.000,2850.500,2918.000,468.500
1.478,2398.000,2848.500,2915.500,465.000
1.479,2397.500,2847.500,2913.500,462.500
1.480,2398.500,2847.500,2912.500,461.500
1.481,2400.000,2849.000,2913.000,462.000
1.482,2403.000,2851.000,2915.000,465.000
1.483,2406.000,2854.500,2918.500,469.500
1.484,2409.000,2857.500,2921.500,475.000
1.485,2411.000,2859.500,2924.500,479.500
1.486,2411.000,2860.000,2926.000,483.500
1.487,2409.500,2859.500,2926.000,485.500
1.488,2407.500,2857.500,2925.000,486.500
1.489,2404.000,2855.000,2923.500,486.500
1.490,2401.000,2852.000,2920.500,485.000
1.491,2398.000,2849.000,2917.500,483.000
1.492,2395.500,2846.000,2914.500,481.000
1.493,2394.000,2843.500,2912.000,478.500
1.494,2392.500,2841.500,2909.000,476.000
1.495,2391.000,2839.000,2906.000,473.000
1.496,2389.500,2837.000,2903.500,470.500
1.497,2389.000,2835.500,2901.000,467.500
1.498,2388.500,2834.500,2899.500,465.000
1.499,2388.500,2834.000,2898.000,463.500
1.500,2388.500,2834.000,2897.500,462.500
1.501,2389.000,2833.500,2897.500,462.500
1.502,2389.000,2833.500,2897.500,463.000
1.503,2389.500,2833.500,2898.000,464.500
1.504,2389.500,2834.000,2898.500,467.000
1.505,2389.500,2834.000,2899.500,470.000
1.506,2389.500,2834.000,2900.500,473.000
1.507,2388.500,2834.000,2901.500,476.000
1.508,2388.000,2833.500,2902.000,478.000
1.509,2386.500,2833.000,2902.000,479.500
1.510,2385.000,2831.500,2901.000,480.000
1.511,2383.500,2830.000,2899.500,479.500
1.512,2382.000,2828.500,2898.000,478.500
1.513,2381.000,2827.500,2896.500,478.000
1.514,2381.000,2827.000,2895.000,477.000
1.515,2381.500,2827.000,2894.000,476.000
1.516,2382.500,2827.000,2893.000,475.000
1.517,2383.500,2826.500,2892.500,473.500
1.518,2384.000,2826.000,2891.000,471.500
1.519,2384.500,2826.000,2890.000,469.500
1.520,2386.000,2826.000,2890.000,469.000
1.521,2388.000,2827.500,2890.500,469.500
1.522,2390.000,2829.500,2892.000,472.000
1.523,2392.500,2831.000,2894.000,475.000
1.524,2393.500,2832.500,2895.500,478.500
1.525,2394.500,2833.500,2897.500,482.500
1.526,2395.000,2835.000,2900.000,487.000
1.527,2397.000,2837.500,2903.000,492.500
1.528,2399.500,2840.500,2907.000,498.500
1.529,2403.000,2844.500,2911.000,504.500
1.530,2406.000,2848.000,2915.500,509.500
1.531,2408.500,2851.000,2918.500,513.500
1.532,2410.000,2852.500,2920.000,516.000
1.533,2410.500,2853.000,2920.000,516.500
1.534,2410.500,2852.500,2919.000,516.000
1.535,2410.000,2852.000,2917.500,514.000
1.536,2409.500,2850.500,2915.500,511.500
1.537,2409.000,2849.500,2913.500,509.000
1.538,2409.000,2848.500,2911.500,506.500
1.539,2409.000,2848.000,2909.500,504.000
1.540,2409.500,2847.000,2908.000,502.500
1.541,2409.500,2847.000,2907.000,502.000
1.542,2409.500,2846.500,2906.500,502.000
1.543,2409.000,2846.000,2906.500,503.000
1.544,2408.500,2846.000,2907.000,504.500
1.545,2407.000,2845.000,2906.500,506.500
1.546,2405.000,2844.000,2906.000,508.000
1.547,2402.000,2841.500,2904.500,508.500
1.548,2399.000,2839.000,2902.000,508.500
1.549,2396.000,2836.000,2900.000,508.000
1.550,2394.000,2834.000,2898.000,507.500
1.551,2392.000,2832.000,2896.500,507.000
1.552,2390.500,2830.500,2894.500,506.000
1.553,2388.500,2828.000,2892.500,504.000
1.554,2386.500,2826.000,2889.500,502.000
1.555,2385.000,2823.500,2886.500,499.000
1.556,2383.500,2821.000,2883.500,495.500
1.557,2382.000,2818.500,2880.500,491.500
1.558,2381.500,2817.000,2877.500,488.500
1.559,2381.000,2816.000,2875.500,485.500
1.560,2381.500,2815.500,2874.500,484.000
1.561,2382.000,2815.000,2874.000,483.500
1.562,2382.500,2815.000,2873.500,484.000
1.563,2382.500,2815.000,2874.000,485.500
1.564,2382.500,2815.000,2874.500,488.000
1.565,2382.000,2815.000,2875.500,491.000
1.566,2381.000,2814.500,2876.500,493.500
1.567,2379.500,2813.500,2876.500,495.500
1.568,2377.000,2811.500,2875.500,496.500
1.569,2374.500,2809.500,2874.000,496.500
1.570,2372.000,2807.000,2871.500,495.500
1.571,2369.500,2804.000,2869.000,494.000
1.572,2367.000,2801.000,2866.000,491.500
1.573,2364.500,2798.000,2863.000,488.500
1.574,2362.000,2795.500,2859.500,485.000
1.575,2359.500,2792.000,2856.000,481.500
1.576,2357.000,2788.500,2851.500,477.000
1.577,2353.500,2785.000,2847.000,472.000
1.578,2350.500,2781.000,2842.500,466.500
1.579,2348.500,2778.000,2838.500,462.000
1.580,2347.000,2776.000,2835.500,458.500
1.581,2346.000,2774.500,2834.000,457.000
1.582,2345.000,2773.500,2833.000,456.500
1.583,2344.500,2773.000,2833.000,457.500
1.584,2343.500,2772.500,2833.000,459.000
1.585,2342.500,2772.000,2833.500,461.500
1.586,2341.500,2771.000,2833.500,463.500
1.587,2340.500,2770.000,2833.000,465.000
1.588,2339.000,2769.000,2831.500,465.500
1.589,2338.000,2767.500,2830.000,466.000
1.590,2336.500,2766.000,2828.000,465.500
1.591,2335.500,2764.500,2826.500,465.500
1.592,2334.500,2763.000,2824.500,464.500
1.593,2333.000,2761.500,2823.000,463.500
1.594,2332.000,2760.000,2821.500,462.000
1.595,2331.000,2758.000,2819.500,460.000
1.596,2330.000,2757.000,2818.000,458.000
1.597,2329.500,2756.000,2817.000,456.000
1.598,2329.000,2755.000,2815.500,453.500
1.599,2329.000,2754.000,2814.000,451.500
1.600,2329.000,2754.000,2813.500,450.500
1.601,2330.000,2754.500,2814.000,450.500
1.602,2331.000,2755.500,2815.000,452.000
1.603,2332.500,2756.500,2817.000,455.000
1.604,2333.000,2757.500,2819.000,458.000
1.605,2333.000,2758.000,2820.000,461.000
1.606,2331.500,2757.000,2820.000,463.000
1.607,2329.000,2755.000,2819.000,464.500
1.608,2326.000,2752.500,2817.000,464.500
1.609,2322.500,2749.500,2814.500,463.500
1.610,2319.000,2746.000,2811.500,462.000
1.611,2316.000,2743.000,2808.500,460.000
1.612,2313.000,2740.000,2805.500,457.500
1.613,2310.500,2737.500,2803.000,455.000
1.614,2309.000,2735.500,2800.500,452.500
1.615,2308.500,2734.000,2798.000,450.000
1.616,2308.500,2733.500,2796.500,448.500
1.617,2309.500,2733.500,2795.500,447.000
1.618,2310.500,2734.000,2795.000,445.500
1.619,2311.500,2734.000,2793.500,444.000
1.620,2312.000,2733.500,2792.500,442.500
1.621,2312.500,2733.500,2792.000,442.500
1.622,2313.500,2733.500,2792.500,443.000
1.623,2314.000,2734.000,2793.000,444.500
1.624,2314.500,2734.500,2794.000,447.000
1.625,2314.500,2734.000,2794.500,449.500
1.626,2313.500,2733.500,2795.000,452.000
1.627,2312.000,2732.500,2794.500,454.000
1.628,2310.500,2731.500,2794.500,455.500
1.629,2310.000,2731.500,2795.000,457.500
1.630,2309.500,2731.500,2795.500,459.500
1.631,2309.500,2732.000,2796.000,461.000
1.632,2309.500,2732.000,2795.500,461.500
1.633,2308.500,2731.000,2794.000,460.500
1.634,2307.000,2729.000,2792.000,458.000
1.635,2305.000,2726.500,2789.000,454.500
1.636,2304.000,2724.500,2786.000,451.500
1.637,2303.500,2723.000,2784.000,448.500
1.638,2303.500,2722.500,2782.500,446.000
1.639,2304.000,2722.000,2781.500,444.000
1.640,2304.500,2722.000,2781.000,443.500
1.641,2305.500,2723.000,2781.000,443.500
1.642,2306.500,2723.500,2782.000,445.000
1.643,2307.000,2724.500,2783.500,447.000
1.644,2307.000,2724.500,2784.500,449.500
1.645,2306.000,2724.000,2785.000,452.000
1.646,2303.000,2722.000,2784.000,453.000
1.647,2299.000,2718.500,2781.500,452.500
1.648,2294.000,2714.000,2777.500,450.500
1.649,2288.500,2708.500,2773.000,447.500
1.650,2282.500,2702.500,2767.500,443.000
1.651,2277.000,2697.000,2761.500,438.500
1.652,2271.500,2691.500,2756.000,433.500
1.653,2268.000,2687.500,2752.000,429.500
1.654,2267.000,2686.000,2750.000,427.500
1.655,2270.000,2688.000,2751.000,428.500
1.656,2277.000,2694.000,2756.500,434.000
1.657,2288.500,2704.500,2765.500,443.000
1.658,2303.500,2718.500,2779.000,456.500
1.659,2322.500,2736.500,2796.500,473.500
1.660,2343.000,2756.500,2816.500,493.000
1.661,2364.000,2777.500,2837.500,514.500
1.662,2385.000,2798.500,2859.000,537.000
1.663,2405.500,2819.000,2880.500,559.500
1.664,2425.500,2839.500,2902.500,583.000
1.665,2447.000,2862.000,2926.000,609.000
1.666,2471.000,2887.000,2952.500,638.000
1.667,2499.000,2916.000,2983.000,671.000
1.668,2532.500,2950.000,3018.500,709.000
1.669,2570.000,2989.000,3058.500,751.500
1.670,2612.500,3032.000,3102.500,797.500
1.671,2658.000,3078.500,3149.500,846.500
1.672,2706.500,3127.500,3199.000,897.000
1.673,2756.500,3177.500,3249.500,948.500
1.674,2806.500,3227.500,3299.500,999.500
1.675,2855.500,3276.000,3348.000,1048.500
1.676,2902.000,3322.000,3394.000,1095.000
1.677,2944.500,3364.000,3435.500,1136.500
1.678,2982.500,3401.500,3472.000,1173.500
1.679,3015.000,3433.500,3503.500,1204.500
1.680,3042.000,3460.000,3529.500,1231.000
1.681,3064.000,3481.500,3550.500,1252.500
1.682,3080.500,3497.500,3566.500,1269.000
1.683,3090.000,3507.000,3576.000,1280.000
1.684,3091.500,3509.000,3578.500,1284.000
1.685,3085.500,3503.500,3574.000,1281.000
1.686,3073.000,3491.500,3563.000,1271.500
1.687,3054.500,3474.000,3546.000,1256.000
1.688,3030.500,3450.500,3523.000,1235.000
1.689,3001.500,3422.000,3494.500,1207.000
1.690,2966.000,3387.000,3459.000,1172.000
1.691,2923.500,3344.500,3416.000,1129.500
1.692,2874.000,3294.500,3365.500,1078.000
1.693,2817.000,3237.500,3307.000,1019.000
1.694,2755.000,3174.500,3243.000,953.500
1.695,2691.500,3109.500,3176.500,885.500
1.696,2630.000,3047.000,3112.000,819.500
1.697,2574.500,2990.000,3053.500,759.000
1.698,2527.000,2941.000,3003.000,707.000
1.699,2488.000,2901.500,2962.000,665.000
1.700,2457.500,2870.000,2929.000,631.500
1.701,2432.500,2844.500,2903.000,605.000
1.702,2411.500,2823.000,2881.000,583.500
1.703,2393.000,2804.500,2862.500,565.500
1.704,2376.500,2788.000,2846.500,551.000
1.705,2362.000,2774.000,2833.500,539.000
1.706,2349.000,2761.500,2821.500,529.500
1.707,2337.500,2751.000,2811.500,521.000
1.708,2327.500,2741.000,2802.000,513.500
1.709,2318.000,2732.500,2793.500,507.000
1.710,2310.000,2724.500,2786.500,500.500
1.711,2303.000,2718.000,2779.500,495.000
1.712,2297.500,2712.000,2773.500,489.500
1.713,2292.500,2707.000,2767.500,484.500
1.714,2288.000,2702.000,2762.000,479.000
1.715,2284.000,2697.500,2756.500,473.500
1.716,2281.000,2693.000,2751.500,468.000
1.717,2279.000,2690.000,2747.500,463.500
1.718,2277.500,2687.500,2744.000,459.500
1.719,2276.500,2685.500,2741.500,456.500
1.720,2275.500,2684.000,2739.500,454.000
1.721,2275.000,2683.000,2738.000,453.000
1.722,2274.500,2682.500,2737.000,453.000
1.723,2274.000,2682.000,2737.000,454.000
1.724,2272.500,2681.500,2737.000,455.500
1.725,2271.000,2680.500,2737.000,457.500
1.726,2268.500,2679.500,2736.000,459.000
1.727,2265.500,2677.000,2734.500,460.000
1.728,2262.500,2675.000,2733.000,460.000
1.729,2260.000,2672.500,2731.000,460.000
1.730,2258.500,2671.000,2730.000,459.500
1.731,2257.000,2669.500,2729.000,459.500
1.732,2256.500,2669.000,2728.000,459.500
1.733,2256.000,2668.000,2727.000,458.500
1.734,2255.000,2667.000,2725.500,457.500
1.735,2254.000,2665.500,2723.000,455.000
1.736,2253.000,2663.500,2719.500,451.500
1.737,2251.500,2661.000,2716.000,447.500
1.738,2250.500,2659.000,2713.000,444.000
1.739,2250.500,2657.500,2711.000,441.500
1.740,2251.000,2657.500,2710.500,440.000
1.741,2252.000,2658.000,2710.000,440.000
1.742,2253.000,2658.500,2710.500,441.000
1.743,2253.000,2659.000,2710.500,442.500
1.744,2252.000,2658.500,2710.500,444.000
1.745,2250.500,2657.500,2710.000,445.500
1.746,2248.500,2656.000,2709.500,447.500
1.747,2247.000,2655.000,2709.000,449.000
1.748,2246.000,2654.500,2708.500,451.000
1.749,2245.500,2653.500,2708.000,452.000
1.750,2244.500,2653.000,2707.000,452.500
1.751,2243.500,2652.000,2705.000,452.000
1.752,2242.000,2650.500,2703.500,451.500
1.753,2241.000,2649.500,2701.500,450.500
1.754,2239.500,2648.000,2700.000,449.500
1.755,2238.500,2646.500,2698.000,447.500
1.756,2238.000,2645.500,2696.500,445.500
1.757,2237.000,2644.500,2695.000,443.000
1.758,2237.000,2643.500,2693.500,441.000
1.759,2236.500,2642.500,2692.000,438.500
1.760,2237.000,2642.500,2691.500,437.500
1.761,2238.000,2643.000,2691.500,437.500
1.762,2239.500,2644.500,2693.000,439.500
1.763,2241.000,2646.000,2695.000,442.500
1.764,2242.000,2647.500,2697.000,446.000
1.765,2242.500,2649.000,2699.000,450.000
1.766,2242.500,2649.500,2700.000,453.500
1.767,2241.500,2649.000,2700.500,456.000
1.768,2240.000,2648.500,2700.500,458.000
1.769,2238.000,2647.000,2699.500,459.000
1.770,2236.000,2645.500,2698.500,459.000
1.771,2234.000,2643.000,2696.000,458.500
1.772,2231.500,2641.000,2693.500,456.500
1.773,2229.500,2638.000,2690.000,454.000
1.774,2227.000,2635.000,2686.000,450.500
1.775,2225.500,2632.500,2682.500,447.000
1.776,2224.500,2630.500,2679.500,444.000
1.777,2225.000,2629.500,2677.500,441.500
1.778,2226.500,2630.500,2677.000,440.500
1.779,2229.000,2632.000,2677.500,440.500
1.780,2232.500,2634.500,2679.500,442.000
1.781,2235.500,2637.500,2681.500,444.000
1.782,2237.500,2639.500,2683.000,446.500
1.783,2238.500,2641.000,2684.000,449.000
1.784,2238.000,2641.000,2684.000,451.000
1.785,2236.500,2640.500,2684.000,453.000
1.786,2234.000,2639.000,2683.000,455.000
1.787,2232.000,2637.500,2682.500,456.500
1.788,2230.000,2636.500,2682.000,457.500
1.789,2228.500,2635.000,2681.000,458.500
1.790,2226.500,2634.000,2680.000,459.000
1.791,2225.000,2632.500,2678.500,458.500
1.792,2223.000,2630.500,2676.000,457.000
1.793,2220.500,2628.500,2673.000,455.000
1.794,2218.500,2626.500,2670.000,452.500
1.795,2217.000,2624.500,2667.000,450.000
1.796,2216.000,2623.000,2664.500,447.000
1.797,2215.500,2622.000,2662.500,444.500
1.798,2215.500,2621.500,2660.500,442.500
1.799,2216.000,2621.000,2659.500,440.500
1.800,2217.000,2621.500,2659.000,440.000
1.801,2218.500,2622.500,2659.000,440.500
1.802,2220.000,2624.000,2660.000,442.000
1.803,2222.000,2625.500,2662.000,445.000
1.804,2223.000,2627.000,2663.500,448.500
1.805,2223.000,2628.000,2665.000,452.000
1.806,2222.000,2628.000,2665.500,454.500
1.807,2220.500,2627.000,2665.000,456.500
1.808,2218.500,2625.500,2664.500,458.000
1.809,2216.500,2624.000,2663.500,458.500
1.810,2214.000,2622.500,2662.000,459.000
1.811,2212.000,2620.500,2660.000,458.000
1.812,2210.000,2618.500,2657.000,456.500
1.813,2208.000,2616.500,2654.000,454.500
1.814,2206.000,2614.500,2651.000,451.500
1.815,2205.000,2612.500,2648.000,448.500
1.816,2204.000,2610.500,2644.500,445.500
1.817,2203.500,2609.000,2641.500,442.500
1.818,2203.000,2608.000,2639.500,440.000
1.819,2203.500,2607.500,2638.000,438.000
1.820,2204.500,2608.000,2637.500,437.500
1.821,2205.500,2609.000,2638.000,438.000
1.822,2206.500,2610.000,2638.500,439.500
1.823,2208.000,2611.000,2640.000,442.000
1.824,2208.500,2612.000,2641.000,445.000
1.825,2208.500,2612.500,2642.000,448.500
1.826,2208.500,2613.000,2643.000,452.000
1.827,2208.000,2613.000,2643.500,455.000
1.828,2207.000,2613.000,2643.500,457.500
1.829,2206.000,2612.500,2643.500,459.500
1.830,2204.500,2611.500,2642.500,460.000
1.831,2203.000,2610.000,2641.000,460.000
1.832,2201.500,2608.500,2639.000,459.000
1.833,2200.000,2607.000,2637.000,458.000
1.834,2199.000,2606.000,2635.000,456.500
1.835,2199.000,2605.500,2634.000,456.000
1.836,2199.500,2605.500,2633.000,455.000
1.837,2200.500,2606.000,2632.000,453.500
1.838,2201.000,2605.500,2631.000,452.000
1.839,2201.500,2605.500,2629.500,450.000
1.840,2202.500,2605.500,2629.000,449.500
1.841,2203.500,2606.000,2629.000,450.000
1.842,2205.500,2608.000,2630.500,452.500
1.843,2207.500,2610.000,2633.000,456.500
1.844,2209.500,2612.000,2635.000,460.500
1.845,2210.000,2613.500,2637.000,465.000
1.846,2210.500,2614.500,2638.500,468.500
1.847,2209.500,2614.500,2639.000,471.500
1.848,2209.000,2614.500,2639.500,474.000
1.849,2208.000,2614.000,2639.000,475.500
1.850,2207.500,2614.000,2639.000,477.000
1.851,2207.500,2614.000,2638.500,478.500
1.852,2207.500,2614.000,2638.000,479.000
1.853,2207.500,2614.000,2637.500,479.500
1.854,2208.000,2614.000,2636.000,478.500
1.855,2208.500,2613.000,2634.000,477.000
1.856,2208.500,2612.000,2632.000,475.000
1.857,2208.000,2611.000,2629.500,472.500
1.858,2208.000,2610.000,2627.000,470.000
1.859,2208.500,2610.000,2625.500,468.000
1.860,2210.000,2610.500,2625.000,467.500
1.861,2212.000,2612.500,2626.000,469.000
1.862,2214.500,2615.000,2627.500,472.000
1.863,2217.500,2617.500,2630.000,476.000
1.864,2220.000,2620.500,2632.500,480.500
1.865,2223.000,2623.500,2636.000,486.500
1.866,2225.000,2626.000,2639.000,492.000
1.867,2227.000,2629.000,2642.500,498.000
1.868,2228.500,2631.500,2645.500,503.000
1.869,2230.000,2633.500,2648.000,507.500
1.870,2231.000,2635.000,2650.000,511.500
1.871,2231.500,2636.000,2651.000,514.500
1.872,2231.500,2636.500,2651.500,516.500
1.873,2231.500,2636.500,2651.500,517.500
1.874,2231.500,2636.500,2651.000,518.500
1.875,2232.000,2636.500,2650.500,518.500
1.876,2232.000,2636.500,2649.500,517.500
1.877,2232.500,2636.000,2648.000,516.000
1.878,2233.500,2635.500,2646.000,514.500
1.879,2234.000,2635.500,2644.500,512.500
1.880,2235.500,2636.000,2643.500,512.000
1.881,2237.500,2637.500,2643.500,512.500
1.882,2240.500,2639.500,2645.000,515.000
1.883,2243.500,2643.000,2647.500,519.500
1.884,2247.000,2646.500,2651.500,525.000
1.885,2250.000,2649.500,2655.000,531.000
1.886,2251.500,2652.000,2658.000,536.000
1.887,2252.000,2653.500,2659.500,540.000
1.888,2252.000,2653.500,2660.500,543.500
1.889,2251.500,2653.500,2660.500,545.500
1.890,2251.000,2653.500,2660.500,547.000
1.891,2251.000,2653.500,2660.000,548.500
1.892,2251.000,2653.500,2660.000,549.000
1.893,2251.000,2654.000,2659.500,549.500
1.894,2251.500,2654.000,2659.000,550.000
1.895,2252.500,2654.500,2658.000,549.000
1.896,2253.000,2654.500,2656.500,548.000
1.897,2254.000,2654.500,2654.500,546.000
1.898,2254.500,2654.500,2652.000,544.000
1.899,2255.500,2654.000,2649.500,541.500
1.900,2256.500,2654.000,2647.500,540.500
1.901,2257.500,2654.500,2647.000,541.000
1.902,2258.500,2655.500,2647.000,543.000
1.903,2260.000,2657.000,2648.500,546.000
1.904,2261.000,2658.500,2650.500,550.500
1.905,2261.500,2659.500,2652.000,554.500
1.906,2261.000,2660.000,2654.000,558.500
1.907,2260.000,2660.000,2655.000,562.000
1.908,2259.000,2659.500,2655.500,565.000
1.909,2257.500,2659.500,2655.500,567.000
1.910,2256.500,2659.000,2655.500,568.500
1.911,2255.000,2658.000,2654.500,568.500
1.912,2253.500,2657.000,2652.500,568.000
1.913,2252.000,2655.000,2650.000,566.000
1.914,2250.000,2652.500,2646.500,563.000
1.915,2248.000,2650.000,2642.500,559.500
1.916,2245.500,2647.000,2638.000,555.500
1.917,2243.500,2644.500,2633.500,551.000
1.918,2242.000,2641.500,2629.500,547.000
1.919,2240.500,2639.500,2625.500,543.000
1.920,2239.500,2638.000,2622.500,540.500
1.921,2238.500,2637.000,2620.000,539.500
1.922,2238.000,2636.000,2618.500,539.500
1.923,2237.000,2635.000,2617.500,540.000
1.924,2235.500,2634.000,2616.500,541.000
1.925,2233.500,2632.500,2615.000,542.000
1.926,2230.500,2630.000,2612.500,542.000
1.927,2226.500,2626.500,2609.000,541.500
1.928,2223.000,2623.000,2605.500,541.000
1.929,2219.000,2619.500,2602.000,539.500
1.930,2215.500,2616.000,2598.000,538.000
1.931,2211.500,2613.000,2594.500,536.000
1.932,2207.500,2609.000,2590.000,533.000
1.933,2203.500,2605.000,2585.000,529.000
1.934,2199.500,2600.500,2579.000,524.000
1.935,2195.500,2596.000,2573.000,518.500
1.936,2191.500,2591.000,2566.500,512.000
1.937,2188.000,2586.000,2560.000,506.000
1.938,2184.500,2581.500,2553.500,499.500
1.939,2181.500,2578.000,2548.000,494.500
1.940,2179.000,2575.000,2543.500,490.000
1.941,2177.000,2572.500,2540.000,487.500
1.942,2175.500,2571.000,2537.500,486.500
1.943,2174.000,2569.500,2536.000,486.000
1.944,2172.500,2568.000,2534.500,487.000
1.945,2170.000,2566.500,2532.500,488.000
1.946,2167.000,2564.000,2530.500,488.500
1.947,2163.500,2561.000,2527.500,488.500
1.948,2159.500,2558.000,2524.000,488.000
1.949,2155.500,2554.500,2520.500,486.500
1.950,2151.500,2551.000,2516.500,484.500
1.951,2148.000,2547.500,2513.000,482.500
1.952,2145.000,2544.500,2509.000,480.000
1.953,2141.500,2541.000,2504.500,477.000
1.954,2137.500,2537.000,2499.500,472.500
1.955,2134.000,2532.500,2493.500,467.500
1.956,2130.000,2528.000,2487.500,462.000
1.957,2127.000,2524.000,2482.500,457.000
1.958,2125.000,2521.000,2477.500,452.000
1.959,2123.500,2518.500,2473.500,448.500
1.960,2122.000,2516.500,2470.500,445.500
1.961,2120.500,2514.500,2467.500,443.000
1.962,2119.000,2513.000,2465.500,442.000
1.963,2117.500,2511.500,2463.500,442.000
1.964,2116.000,2510.500,2462.000,443.000
1.965,2114.500,2509.500,2461.000,444.500
1.966,2113.500,2508.500,2460.000,446.500
1.967,2112.500,2508.000,2459.500,449.000
1.968,2111.500,2507.500,2459.500,451.500
1.969,2110.500,2507.000,2459.000,453.500
1.970,2109.000,2506.000,2457.500,454.000
1.971,2107.000,2504.000,2455.000,453.000
1.972,2104.500,2502.000,2452.000,451.000
1.973,2102.000,2499.000,2448.000,448.500
1.974,2100.000,2496.500,2444.000,445.500
1.975,2097.500,2493.500,2439.500,442.000
1.976,2096.000,2491.000,2435.500,438.000
1.977,2094.000,2488.500,2431.000,434.000
1.978,2093.000,2486.000,2427.000,430.500
1.979,2092.000,2484.000,2423.500,427.500
1.980,2090.500,2482.000,2419.500,424.500
1.981,2089.000,2480.000,2416.000,422.000
1.982,2087.000,2478.000,2413.000,420.500
1.983,2085.500,2476.500,2411.000,420.500
1.984,2085.000,2476.000,2410.000,422.000
1.985,2085.000,2476.500,2410.500,425.000
1.986,2085.500,2477.000,2411.500,429.000
1.987,2085.500,2478.000,2412.500,433.000
1.988,2084.500,2478.000,2412.500,436.000
1.989,2083.000,2476.500,2411.000,437.000
1.990,2080.500,2474.500,2408.500,437.000
1.991,2077.500,2472.000,2405.500,435.500
1.992,2074.000,2469.000,2401.500,433.000
1.993,2071.500,2466.000,2397.500,430.000
1.994,2069.500,2464.000,2394.000,427.500
1.995,2068.500,2462.500,2391.000,425.000
1.996,2068.000,2461.000,2388.000,423.000
1.997,2068.000,2460.500,2386.000,421.000
1.998,2068.500,2460.000,2384.000,419.000
1.999,2069.000,2460.000,2382.000,418.000
2.000,2069.500,2460.000,2381.000,417.000
2.001,2070.500,2460.000,2380.000,417.500
2.002,2071.500,2461.000,2379.500,418.500
2.003,2072.000,2461.500,2379.500,421.000
2.004,2072.500,2462.000,2380.000,423.500
2.005,2072.500,2462.500,2380.000,427.000
2.006,2072.000,2462.500,2380.500,430.000
2.007,2071.000,2462.000,2380.500,433.000
2.008,2069.500,2461.500,2380.000,435.500
2.009,2068.000,2460.500,2379.500,437.000
2.010,2066.500,2459.500,2377.500,437.500
2.011,2064.500,2457.500,2375.500,437.500
2.012,2063.000,2455.500,2372.000,436.000
2.013,2061.000,2453.500,2368.500,434.000
2.014,2059.000,2451.000,2364.500,431.000
2.015,2057.500,2449.000,2361.000,428.500
2.016,2056.000,2447.000,2357.500,425.500
2.017,2055.000,2445.500,2354.500,423.000
2.018,2054.500,2444.000,2351.500,420.000
2.019,2054.500,2443.500,2349.500,418.500
2.020,2055.500,2443.500,2348.000,417.500
2.021,2056.500,2444.500,2347.500,418.000
2.022,2058.000,2445.500,2348.000,420.000
2.023,2059.500,2447.000,2349.000,422.500
2.024,2060.500,2448.000,2350.000,426.000
2.025,2061.000,2449.000,2351.000,430.000
2.026,2061.000,2449.500,2351.500,433.500
2.027,2060.000,2449.000,2351.500,436.500
2.028,2058.500,2448.500,2350.500,438.500
2.029,2057.000,2447.500,2349.500,440.000
2.030,2055.000,2445.500,2347.500,440.500
2.031,2053.000,2443.500,2345.000,440.000
2.032,2051.000,2441.500,2342.000,438.500
2.033,2049.500,2440.000,2339.000,437.000
2.034,2048.500,2439.000,2336.500,435.500
2.035,2048.000,2438.000,2334.000,434.000
2.036,2048.000,2437.500,2331.000,432.000
2.037,2048.000,2436.500,2328.500,430.000
2.038,2047.500,2435.500,2325.500,427.500
2.039,2047.500,2435.000,2323.000,425.500
2.040,2047.000,2434.000,2320.500,423.500
2.041,2047.000,2433.500,2319.000,423.000
2.042,2047.500,2434.000,2318.500,424.000
2.043,2048.500,2435.000,2319.000,426.500
2.044,2049.500,2436.000,2319.500,430.000
2.045,2050.000,2437.000,2320.500,433.500
2.046,2050.500,2438.000,2321.500,437.500
2.047,2050.000,2438.000,2321.000,440.500
2.048,2049.000,2437.000,2320.500,442.500
2.049,2047.500,2436.000,2319.000,443.500
2.050,2045.500,2434.500,2317.000,444.000
2.051,2044.000,2433.000,2315.000,444.000
2.052,2042.500,2431.500,2313.000,443.500
2.053,2041.000,2429.500,2309.500,441.500
2.054,2039.500,2427.000,2306.000,439.000
2.055,2037.000,2424.000,2301.000,435.500
2.056,2035.000,2421.500,2296.500,431.500
2.057,2033.500,2419.000,2292.500,428.000
2.058,2033.000,2418.000,2289.000,425.000
2.059,2033.500,2418.000,2287.500,424.000
2.060,2035.000,2419.000,2287.000,424.000
2.061,2037.000,2420.500,2287.500,425.500
2.062,2039.000,2422.500,2289.000,428.000
2.063,2040.500,2424.500,2290.000,431.500
2.064,2041.500,2425.500,2291.000,435.000
2.065,2042.000,2426.000,2291.500,439.000
2.066,2041.500,2426.500,2291.500,442.000
2.067,2040.500,2426.500,2291.500,445.000
2.068,2039.500,2426.000,2291.000,447.500
2.069,2038.500,2425.500,2290.000,449.000
2.070,2037.000,2424.500,2288.000,449.500
2.071,2035.000,2422.500,2285.500,449.500
2.072,2032.500,2420.500,2282.500,448.000
2.073,2030.000,2417.500,2278.500,445.500
2.074,2027.500,2415.000,2274.000,442.500
2.075,2025.500,2412.000,2269.500,438.500
2.076,2023.500,2409.500,2265.000,434.500
2.077,2022.500,2407.500,2261.000,431.000
2.078,2022.000,2406.500,2258.500,428.500
2.079,2023.000,2406.500,2257.000,428.000
2.080,2024.500,2408.000,2257.000,428.500
2.081,2027.000,2410.000,2257.500,431.000
2.082,2029.500,2412.000,2259.000,433.500
2.083,2031.000,2413.500,2260.000,436.500
2.084,2031.000,2414.000,2260.000,439.500
2.085,2030.000,2413.500,2259.500,441.500
2.086,2028.500,2412.500,2257.500,443.000
2.087,2026.000,2410.500,2255.000,443.500
2.088,2023.000,2408.000,2251.500,443.500
2.089,2020.500,2405.500,2248.500,442.500
2.090,2018.500,2403.500,2245.500,442.000
2.091,2017.000,2402.000,2243.000,442.000
2.092,2015.500,2401.000,2240.500,442.000
2.093,2015.000,2400.500,2239.000,442.000
2.094,2015.000,2400.000,2237.500,442.000
2.095,2015.500,2400.000,2236.000,441.500
2.096,2015.500,2399.500,2234.000,440.500
2.097,2015.500,2398.500,2232.000,438.500
2.098,2015.000,2397.500,2229.500,436.500
2.099,2015.000,2396.500,2228.000,435.000
2.100,2015.000,2396.500,2227.000,434.500
2.101,2015.500,2397.000,2226.000,435.000
2.102,2016.000,2397.500,2226.000,436.000
2.103,2016.500,2398.000,2226.500,438.500
2.104,2016.500,2398.500,2227.000,441.500
2.105,2016.500,2399.000,2227.500,445.000
2.106,2016.000,2399.000,2227.500,448.500
2.107,2015.000,2398.500,2227.000,450.500
2.108,2013.000,2397.000,2225.000,452.000
2.109,2010.500,2394.500,2222.500,451.500
2.110,2008.000,2392.500,2219.500,451.000
2.111,2005.500,2390.000,2216.500,449.500
2.112,2003.500,2387.500,2213.000,448.000
2.113,2002.000,2386.000,2210.500,446.500
2.114,2001.500,2385.000,2207.500,445.000
2.115,2002.000,2384.000,2205.500,444.000
2.116,2002.000,2383.500,2203.000,442.500
2.117,2002.500,2383.000,2201.000,441.000
2.118,2003.000,2382.500,2199.000,439.000
2.119,2003.000,2382.000,2196.500,437.500
2.120,2003.000,2381.500,2194.000,436.000
2.121,2002.500,2380.500,2192.500,435.500
2.122,2002.500,2380.500,2191.000,435.500
2.123,2002.000,2380.000,2190.500,436.500
2.124,2002.000,2380.500,2190.000,439.000
2.125,2001.500,2380.500,2190.500,442.000
2.126,2001.500,2381.000,2191.000,445.500
2.127,2001.000,2381.000,2191.000,449.000
2.128,2000.500,2381.000,2190.500,451.500
2.129,2000.000,2380.500,2190.500,454.000
2.130,1999.000,2380.500,2189.500,455.500
2.131,1998.000,2379.500,2188.000,456.000
2.132,1996.500,2378.000,2185.500,455.500
2.133,1995.000,2376.000,2182.500,454.000
2.134,1992.500,2373.500,2178.500,451.000
2.135,1990.500,2370.500,2174.000,448.000
2.136,1989.000,2368.000,2170.000,444.000
2.137,1988.000,2366.000,2166.500,441.000
2.138,1988.000,2365.000,2163.500,438.000
2.139,1988.500,2364.500,2161.000,436.500
2.140,1989.000,2364.500,2159.500,435.500
2.141,1990.000,2365.000,2159.000,436.000
2.142,1991.500,2366.000,2159.500,437.500
2.143,1992.500,2367.500,2160.000,440.500
2.144,1994.000,2368.500,2161.500,444.500
2.145,1994.500,2370.000,2162.500,448.500
2.146,1994.500,2370.500,2163.500,452.500
2.147,1993.500,2370.500,2163.500,455.500
2.148,1991.500,2369.000,2162.500,457.500
2.149,1990.000,2368.000,2161.000,458.500
2.150,1988.000,2366.500,2159.500,459.500
2.151,1987.000,2365.000,2157.500,459.500
2.152,1986.000,2364.000,2155.000,458.500
2.153,1985.000,2362.000,2152.500,457.500
2.154,1984.000,2360.000,2148.500,455.000
2.155,1982.000,2357.500,2144.500,452.000
2.156,1980.500,2355.000,2140.000,448.000
2.157,1978.500,2352.000,2135.000,443.500
2.158,1976.500,2349.500,2130.500,439.500
2.159,1976.000,2347.500,2127.000,436.000
2.160,1975.500,2346.500,2124.500,434.500
2.161,1976.500,2346.500,2123.500,435.000
2.162,1978.000,2348.000,2124.500,437.500
2.163,1980.500,2350.000,2126.500,441.500
2.164,1982.500,2352.500,2129.000,446.500
2.165,1984.000,2354.500,2131.000,451.500
2.166,1984.000,2356.000,2132.500,456.000
2.167,1983.000,2356.000,2132.500,459.000
2.168,1982.000,2355.000,2131.500,461.000
2.169,1980.500,2354.000,2130.500,462.500
2.170,1979.000,2353.000,2128.500,463.000
2.171,1977.000,2351.500,2126.500,462.500
2.172,1975.500,2350.000,2124.000,461.500
2.173,1974.000,2348.000,2121.000,460.000
2.174,1972.500,2346.500,2117.500,458.000
2.175,1971.000,2344.500,2114.000,455.500
2.176,1970.000,2342.500,2110.500,452.500
2.177,1969.000,2341.000,2107.000,449.500
2.178,1968.500,2339.500,2103.500,446.500
2.179,1968.500,2338.500,2100.500,444.000
2.180,1969.500,2338.000,2098.500,443.000
2.181,1970.500,2338.500,2098.000,443.500
2.182,1971.500,2339.000,2097.500,445.000
2.183,1973.000,2340.500,2098.000,447.500
2.184,1973.500,2341.500,2099.000,451.000
2.185,1974.000,2343.000,2100.000,455.000
2.186,1974.000,2343.500,2101.000,458.500
2.187,1973.000,2343.500,2101.000,461.500
2.188,1972.000,2342.500,2100.500,463.500
2.189,1970.000,2341.500,2099.000,464.500
2.190,1968.500,2340.000,2097.500,464.500
2.191,1966.500,2338.000,2095.000,464.000
2.192,1964.500,2336.000,2092.000,462.500
2.193,1962.500,2334.000,2089.000,460.500
2.194,1961.500,2332.000,2086.000,458.500
2.195,1960.500,2330.500,2082.500,456.000
2.196,1960.000,2329.000,2079.500,453.500
2.197,1959.500,2327.500,2076.000,450.500
2.198,1959.000,2326.500,2073.500,448.000
2.199,1959.000,2325.500,2071.000,446.000
2.200,1959.000,2324.500,2068.500,444.000
2.201,1958.000,2323.500,2066.000,442.500
2.202,1958.000,2323.000,2064.500,442.500
2.203,1958.500,2323.500,2065.000,444.500
2.204,1960.500,2325.500,2066.500,449.000
2.205,1962.500,2328.500,2069.500,454.500
2.206,1964.000,2330.500,2072.500,460.000
2.207,1964.500,2331.500,2074.000,464.500
2.208,1964.000,2331.500,2074.000,467.500
2.209,1963.000,2331.000,2073.000,469.000
2.210,1961.500,2330.000,2071.500,470.000
2.211,1960.500,2329.000,2069.500,470.000
2.212,1959.000,2328.000,2067.500,469.500
2.213,1958.000,2327.000,2065.500,468.500
2.214,1957.500,2326.500,2063.000,467.500
2.215,1957.500,2325.500,2061.000,466.000
2.216,1958.000,2325.500,2059.500,465.000
2.217,1959.000,2325.500,2057.500,463.500
2.218,1960.500,2326.000,2056.000,462.500
2.219,1962.000,2327.000,2054.500,461.000
2.220,1964.000,2328.000,2053.000,460.500
2.221,1966.000,2329.500,2052.500,461.500
2.222,1968.500,2331.500,2053.000,463.500
2.223,1971.500,2334.500,2055.000,468.000
2.224,1974.500,2338.000,2058.000,474.000
2.225,1977.500,2341.500,2062.500,481.000
2.226,1980.500,2345.000,2066.500,488.000
2.227,1983.000,2348.000,2071.000,495.000
2.228,1985.000,2351.000,2074.500,500.500
2.229,1986.500,2353.000,2077.000,505.500
2.230,1987.500,2355.000,2079.000,509.000
2.231,1988.000,2355.500,2079.500,511.000
2.232,1988.000,2356.000,2079.500,512.500
2.233,1987.500,2355.500,2078.000,512.000
2.234,1986.500,2354.000,2075.500,510.500
2.235,1984.500,2351.500,2072.000,507.500
2.236,1982.500,2349.000,2067.500,504.000
2.237,1980.500,2346.000,2063.000,499.500
2.238,1979.000,2343.500,2058.500,495.000
2.239,1978.000,2341.500,2055.000,491.500
2.240,1978.000,2340.500,2052.500,490.000
2.241,1979.000,2341.000,2051.500,490.000
2.242,1980.500,2342.000,2051.500,491.500
2.243,1982.000,2343.000,2052.000,494.000
2.244,1982.000,2343.500,2052.000,497.000
2.245,1981.500,2343.500,2052.000,499.500
2.246,1980.000,2343.000,2051.500,502.500
2.247,1979.000,2342.500,2051.000,505.000
2.248,1977.500,2341.500,2050.500,507.500
2.249,1976.500,2341.000,2050.000,509.000
2.250,1975.000,2340.000,2049.000,509.500
2.251,1973.500,2338.500,2047.000,509.500
2.252,1972.000,2337.000,2044.500,508.500
2.253,1970.000,2334.500,2041.500,506.500
2.254,1968.000,2332.000,2037.500,504.000
2.255,1965.500,2329.000,2033.000,500.500
2.256,1964.000,2326.500,2028.500,496.500
2.257,1962.500,2324.000,2024.500,493.000
2.258,1961.500,2322.500,2021.500,490.000
2.259,1961.500,2322.000,2019.000,488.000
2.260,1962.000,2321.500,2018.000,487.000
2.261,1962.000,2322.000,2017.000,486.500
2.262,1962.500,2322.000,2016.000,487.000
2.263,1962.000,2321.500,2015.500,488.000
2.264,1961.500,2321.500,2015.000,489.500
2.265,1960.500,2321.000,2014.000,491.500
2.266,1959.000,2319.500,2013.000,492.500
2.267,1957.000,2318.000,2011.500,493.500
2.268,1955.000,2316.000,2009.500,494.000
2.269,1953.000,2314.000,2007.000,493.500
2.270,1951.000,2312.000,2004.500,493.000
2.271,1949.000,2309.500,2001.500,491.500
2.272,1946.500,2307.000,1997.500,489.000
2.273,1943.500,2303.500,1993.500,485.500
2.274,1940.000,2300.000,1988.500,481.500
2.275,1936.500,2296.500,1983.500,477.000
2.276,1933.000,2293.000,1978.500,472.500
2.277,1930.500,2290.500,1974.000,468.500
2.278,1928.500,2288.000,1970.500,465.000
2.279,1927.000,2286.500,1968.000,463.000
2.280,1926.500,2286.000,1966.500,462.000
2.281,1926.000,2285.500,1966.000,462.500
2.282,1926.000,2286.000,1966.000,464.000
2.283,1926.000,2286.000,1966.500,466.500
2.284,1926.000,2286.500,1967.000,469.000
2.285,1925.000,2286.000,1966.500,471.500
2.286,1924.000,2285.000,1966.000,473.500
2.287,1922.000,2284.000,1965.000,475.000
2.288,1920.500,2283.000,1963.500,476.000
2.289,1919.500,2282.500,1963.000,477.500
2.290,1919.500,2282.500,1962.500,479.000
2.291,1919.000,2283.000,1962.000,480.000
2.292,1919.000,2282.500,1961.000,480.500
2.293,1918.000,2281.500,1959.000,479.500
2.294,1917.000,2280.000,1956.000,477.500
2.295,1915.500,2278.000,1952.500,475.000
2.296,1914.500,2276.000,1949.000,472.500
2.297,1914.000,2275.000,1946.000,469.500
2.298,1914.000,2274.000,1943.500,467.000
2.299,1914.000,2273.500,1941.500,465.000
2.300,1914.000,2272.500,1939.500,463.500
2.301,1914.000,2272.000,1938.000,462.500
2.302,1913.000,2271.000,1936.000,462.000
2.303,1912.000,2270.000,1935.000,462.500
2.304,1911.000,2269.500,1934.000,464.000
2.305,1910.000,2269.000,1934.000,466.500
2.306,1909.000,2269.000,1934.000,469.000
2.307,1908.000,2268.500,1933.500,471.500
2.308,1907.000,2267.500,1933.000,473.500
2.309,1905.500,2266.500,1932.000,474.500
2.310,1904.000,2265.000,1930.500,475.000
2.311,1902.000,2264.000,1929.000,475.000
2.312,1900.500,2262.500,1926.500,474.000
2.313,1899.000,2260.500,1924.000,472.500
2.314,1897.500,2258.500,1921.500,470.500
2.315,1896.500,2257.000,1918.000,467.500
2.316,1895.500,2255.000,1915.000,464.500
2.317,1895.000,2253.500,1911.500,461.500
2.318,1895.500,2253.000,1909.000,459.000
2.319,1896.000,2253.000,1907.500,457.500
2.320,1897.000,2253.500,1907.000,457.000
2.321,1898.500,2254.500,1907.000,458.000
2.322,1900.000,2255.500,1908.000,459.500
2.323,1901.500,2257.000,1908.500,462.500
2.324,1902.500,2258.000,1910.000,465.500
2.325,1902.500,2259.000,1910.500,469.000
2.326,1901.500,2259.000,1911.000,472.000
2.327,1900.000,2258.000,1910.000,473.500
2.328,1897.500,2256.500,1909.000,474.500
2.329,1895.000,2254.500,1907.000,474.500
2.330,1893.000,2253.000,1905.500,474.000
2.331,1891.000,2251.500,1903.500,473.500
2.332,1889.500,2250.000,1901.500,472.500
2.333,1888.500,2249.000,1899.500,471.500
2.334,1887.500,2247.500,1897.000,469.500
2.335,1886.500,2246.000,1894.000,467.500
2.336,1885.500,2244.500,1891.000,464.500
2.337,1885.000,2243.500,1888.500,462.000
2.338,1885.500,2243.000,1886.500,460.500
2.339,1886.000,2243.000,1885.000,459.000
2.340,1887.500,2243.500,1884.500,458.500
2.341,1888.500,2244.000,1884.500,459.000
2.342,1890.000,2245.500,1885.000,460.500
2.343,1891.500,2247.000,1886.500,463.000
2.344,1891.500,2247.500,1887.000,465.500
2.345,1889.500,2246.000,1886.000,467.000
2.346,1885.500,2242.500,1883.000,466.500
2.347,1879.500,2237.000,1878.000,464.000
2.348,1872.500,2230.500,1872.000,460.500
2.349,1866.000,2224.000,1866.000,456.500
2.350,1861.000,2219.500,1861.500,453.500
2.351,1859.500,2218.500,1859.500,453.500
2.352,1862.000,2221.000,1862.000,457.000
2.353,1869.500,2228.000,1868.000,464.000
2.354,1881.000,2239.000,1877.500,474.500
2.355,1895.500,2252.500,1890.500,488.000
2.356,1912.500,2269.000,1905.000,503.000
2.357,1931.000,2286.500,1921.500,520.000
2.358,1949.500,2304.500,1938.500,537.000
2.359,1969.000,2323.500,1956.000,555.000
2.360,1988.500,2342.500,1974.500,574.000
2.361,2008.500,2362.500,1994.000,594.500
2.362,2030.000,2384.000,2015.500,617.000
2.363,2054.000,2408.000,2040.000,643.500
2.364,2082.000,2436.500,2069.000,675.000
2.365,2114.500,2469.500,2102.000,711.500
2.366,2150.500,2506.000,2139.500,752.000
2.367,2190.500,2547.000,2181.500,797.000
2.368,2234.000,2591.500,2227.000,845.500
2.369,2281.500,2640.000,2276.500,897.500
2.370,2331.500,2691.000,2328.500,951.500
2.371,2383.500,2743.500,2381.000,1006.500
2.372,2434.000,2795.000,2432.500,1060.000
2.373,2482.000,2843.000,2480.500,1109.500
2.374,2525.500,2886.500,2523.500,1153.500
2.375,2563.000,2924.500,2560.500,1191.500
2.376,2595.500,2956.500,2592.000,1223.000
2.377,2623.000,2983.500,2618.000,1249.000
2.378,2646.000,3005.500,2639.500,1270.000
2.379,2664.000,3023.000,2656.000,1286.000
2.380,2676.000,3035.000,2667.000,1297.000
2.381,2682.000,3040.500,2671.500,1302.000
2.382,2680.500,3039.500,2670.000,1301.000
2.383,2673.000,3032.000,2662.500,1294.500
2.384,2659.500,3019.000,2649.500,1283.000
2.385,2640.000,3000.500,2631.000,1266.000
2.386,2614.500,2976.000,2606.500,1243.000
2.387,2582.000,2944.000,2574.500,1213.000
2.388,2542.000,2904.500,2534.500,1174.500
2.389,2493.500,2856.500,2486.000,1127.000
2.390,2437.500,2800.000,2429.000,1070.500
2.391,2375.000,2738.000,2365.500,1007.500
2.392,2311.000,2673.500,2299.500,940.500
2.393,2248.500,2610.000,2234.000,875.000
2.394,2191.500,2551.500,2173.500,813.500
2.395,2141.500,2500.000,2119.500,759.000
2.396,2099.500,2456.500,2073.500,712.500
2.397,2065.500,2420.500,2035.500,674.000
2.398,2038.000,2391.500,2005.000,643.000
2.399,2015.500,2367.500,1979.500,617.500
2.400,1996.000,2347.500,1958.500,596.000
2.401,1979.000,2330.000,1940.500,578.000
2.402,1965.000,2315.500,1925.500,564.000
2.403,1952.500,2303.500,1914.000,552.500
2.404,1942.500,2293.500,1904.500,544.500
2.405,1933.500,2285.000,1896.500,539.000
2.406,1925.000,2277.000,1890.000,534.000
2.407,1917.500,2270.500,1884.000,530.500
2.408,1910.500,2264.500,1878.500,526.500
2.409,1904.500,2259.000,1873.500,523.500
2.410,1899.500,2254.500,1869.000,520.500
2.411,1895.000,2250.500,1864.500,517.500
2.412,1890.500,2246.000,1860.000,514.000
2.413,1887.000,2242.000,1855.500,510.000
2.414,1883.500,2238.000,1851.000,505.500
2.415,1880.500,2234.500,1846.000,501.000
2.416,1878.000,2231.000,1841.500,496.500
2.417,1876.000,2228.500,1837.500,492.500
2.418,1875.000,2226.500,1834.500,489.000
2.419,1874.000,2225.500,1832.000,486.000
2.420,1874.000,2225.000,1830.500,484.500
2.421,1874.500,2225.000,1830.000,484.500
2.422,1875.000,2225.500,1830.500,485.500
2.423,1875.500,2226.000,1831.000,487.000
2.424,1875.500,2226.500,1832.000,489.500
2.425,1875.000,2226.500,1832.500,492.000
2.426,1874.000,2226.000,1832.500,494.000
2.427,1872.500,2225.000,1832.000,496.000
2.428,1870.500,2223.500,1831.000,497.000
2.429,1868.500,2222.000,1829.500,497.500
2.430,1866.500,2220.000,1828.000,497.500
2.431,1864.500,2218.000,1826.000,496.500
2.432,1862.500,2216.000,1823.500,495.000
2.433,1861.000,2213.500,1821.000,493.000
2.434,1859.000,2211.500,1818.000,490.000
2.435,1858.000,2209.000,1814.500,487.000
2.436,1856.500,2207.500,1811.500,484.000
2.437,1856.000,2205.500,1809.000,480.500
2.438,1856.000,2205.000,1807.000,478.000
2.439,1856.500,2205.000,1805.500,476.500
2.440,1858.000,2205.500,1805.500,476.500
2.441,1859.500,2207.000,1806.000,477.000
2.442,1861.000,2208.500,1807.000,479.000
2.443,1862.000,2210.000,1808.500,481.500
2.444,1863.000,2211.000,1810.000,484.500
2.445,1863.000,2211.000,1811.000,487.500
2.446,1861.500,2210.500,1810.500,489.500
2.447,1860.000,2209.000,1810.000,491.000
2.448,1858.000,2208.000,1809.000,492.000
2.449,1856.000,2206.500,1808.000,492.500
2.450,1855.000,2205.500,1807.500,493.500
2.451,1854.500,2205.500,1807.000,494.500
2.452,1855.000,2206.000,1807.500,495.500
2.453,1856.000,2207.000,1807.500,496.000
2.454,1856.000,2207.000,1807.000,495.500
2.455,1855.500,2206.000,1805.500,493.500
2.456,1855.000,2204.500,1803.000,491.000
2.457,1854.500,2203.500,1800.500,488.000
2.458,1854.500,2202.500,1798.500,485.000
2.459,1854.500,2202.500,1797.000,483.500
2.460,1855.500,2202.500,1796.000,482.000
2.461,1856.000,2202.500,1795.500,482.000
2.462,1856.500,2202.500,1795.500,482.000
2.463,1856.500,2203.000,1795.500,483.500
2.464,1857.000,2203.500,1796.500,486.000
2.465,1857.000,2204.000,1798.000,489.000
2.466,1857.000,2204.500,1799.000,492.500
2.467,1856.500,2205.000,1800.000,495.500
2.468,1855.500,2204.500,1800.000,498.000
2.469,1854.500,2204.000,1800.000,499.500
2.470,1853.000,2203.000,1799.500,500.000
2.471,1851.500,2202.000,1798.500,500.000
2.472,1850.000,2200.500,1797.000,499.500
2.473,1849.000,2199.000,1795.000,497.500
2.474,1847.500,2197.000,1792.500,495.500
2.475,1846.500,2195.500,1790.000,493.000
2.476,1846.000,2194.000,1787.500,490.500
2.477,1846.000,2193.500,1786.000,488.000
2.478,1846.500,2193.500,1784.500,486.000
2.479,1847.000,2193.500,1784.000,485.000
2.480,1848.000,2194.000,1784.000,484.000
2.481,1848.500,2194.000,1783.500,483.500
2.482,1849.000,2194.500,1783.500,484.000
2.483,1849.500,2194.500,1784.500,485.500
2.484,1850.000,2195.500,1785.500,488.500
2.485,1850.500,2196.500,1787.000,492.000
2.486,1850.000,2197.000,1788.500,495.500
2.487,1850.000,2197.500,1789.500,498.500
2.488,1849.000,2197.000,1790.000,500.500
2.489,1848.500,2196.500,1789.500,502.000
2.490,1847.500,2195.500,1789.000,502.500
2.491,1846.500,2194.500,1787.500,502.000
2.492,1845.000,2193.000,1786.000,501.000
2.493,1843.500,2191.500,1783.500,499.000
2.494,1842.500,2189.500,1781.000,497.000
2.495,1841.000,2187.500,1778.500,494.500
2.496,1840.000,2186.000,1776.500,491.500
2.497,1839.000,2184.500,1774.000,488.500
2.498,1839.000,2183.500,1772.000,486.000
2.499,1839.000,2183.000,1771.000,484.000
2.500,1840.000,2183.000,1770.000,483.000
2.501,1841.000,2183.500,1770.500,483.000
2.502,1842.500,2185.000,1771.500,484.500
2.503,1844.000,2186.000,1773.000,487.000
2.504,1844.500,2187.500,1774.500,490.500
2.505,1845.000,2188.000,1776.000,493.500
2.506,1844.500,2188.000,1777.000,497.000
2.507,1844.000,2188.000,1778.000,500.000
2.508,1843.500,2188.000,1778.000,502.000
2.509,1842.500,2187.500,1778.000,503.500
2.510,1841.500,2186.000,1776.500,504.000
2.511,1840.000,2184.500,1775.000,503.500
2.512,1838.000,2183.000,1772.500,502.000
2.513,1836.000,2181.000,1770.500,500.000
2.514,1834.500,2179.500,1768.500,497.500
2.515,1833.500,2178.000,1766.500,495.000
2.516,1833.000,2176.500,1764.000,492.500
2.517,1832.500,2175.500,1762.000,489.500
2.518,1832.500,2175.000,1760.000,487.000
2.519,1832.500,2175.000,1758.500,485.000
2.520,1833.500,2175.000,1758.000,484.000
2.521,1834.500,2176.000,1758.500,484.500
2.522,1835.500,2177.500,1759.500,486.000
2.523,1837.000,2179.000,1761.500,489.000
2.524,1838.000,2180.500,1764.000,492.500
2.525,1838.500,2182.000,1766.000,496.500
2.526,1838.500,2182.500,1767.500,500.000
2.527,1838.500,2183.000,1768.500,503.000
2.528,1838.000,2183.000,1769.500,505.500
2.529,1837.000,2182.500,1769.500,507.000
2.530,1836.000,2182.000,1769.000,508.500
2.531,1835.500,2181.500,1768.500,508.500
2.532,1834.000,2180.500,1767.500,508.000
2.533,1832.500,2179.000,1765.500,506.000
2.534,1830.500,2176.500,1763.000,503.500
2.535,1829.000,2174.500,1760.000,500.000
2.536,1828.000,2173.000,1757.500,497.000
2.537,1828.500,2172.500,1756.500,495.000
2.538,1830.500,2173.500,1756.500,494.500
2.539,1833.500,2176.000,1758.000,495.500
2.540,1836.500,2178.500,1760.500,496.500
2.541,1839.500,2181.000,1762.500,498.500
2.542,1842.000,2183.000,1764.500,501.000
2.543,1843.500,2185.000,1767.000,504.000
2.544,1845.000,2187.000,1769.000,507.500
2.545,1846.500,2188.500,1771.500,512.000
2.546,1847.000,2190.000,1773.500,516.000
2.547,1847.000,2190.500,1775.000,519.000
2.548,1847.000,2191.000,1776.000,521.500
2.549,1847.000,2191.500,1776.000,523.000
2.550,1846.500,2191.000,1776.000,523.500
2.551,1846.500,2191.000,1775.000,523.500
2.552,1846.000,2191.000,1774.000,523.500
2.553,1846.000,2190.500,1773.000,523.000
2.554,1845.500,2189.500,1771.500,522.000
2.555,1845.500,2188.500,1770.500,520.500
2.556,1845.500,2188.000,1769.500,519.000
2.557,1846.000,2187.500,1769.500,517.500
2.558,1847.500,2188.000,1770.000,516.500
2.559,1849.500,2190.000,1771.500,517.000
2.560,1852.500,2192.500,1774.000,518.500
2.561,1856.000,2195.500,1777.500,521.500
2.562,1859.500,2199.000,1781.500,525.500
2.563,1863.000,2203.000,1785.500,530.500
2.564,1866.000,2206.500,1790.000,536.000
2.565,1868.500,2209.500,1794.000,541.500
2.566,1870.500,2211.500,1797.000,547.000
2.567,1871.500,2213.500,1800.000,551.500
2.568,1872.500,2215.000,1802.500,555.500
2.569,1873.500,2216.500,1804.500,559.000
2.570,1875.000,2218.000,1806.500,562.000
2.571,1876.000,2219.500,1808.000,564.500
2.572,1877.500,2221.000,1809.500,566.000
2.573,1878.500,2222.500,1810.000,566.500
2.574,1879.500,2223.000,1810.000,566.500
2.575,1879.500,2222.500,1809.000,565.000
2.576,1879.500,2221.500,1807.500,563.000
2.577,1879.500,2220.500,1805.500,560.500
2.578,1880.000,2220.000,1804.000,558.000
2.579,1881.000,2220.000,1803.500,557.000
2.580,1883.000,2221.500,1804.500,557.000
2.581,1886.000,2224.000,1807.000,559.500
2.582,1889.500,2227.500,1810.500,563.000
2.583,1893.000,2231.000,1814.500,568.000
2.584,1896.000,2234.500,1818.500,573.500
2.585,1898.000,2237.500,1822.500,578.500
2.586,1900.000,2240.000,1825.500,584.000
2.587,1901.000,2242.000,1828.500,588.000
2.588,1901.000,2243.000,1830.000,591.500
2.589,1901.000,2243.500,1831.500,594.000
2.590,1900.500,2244.000,1832.000,595.500
2.591,1900.500,2243.500,1832.000,596.500
2.592,1900.000,2243.500,1832.000,597.000
2.593,1900.000,2243.000,1832.000,596.500
2.594,1900.000,2243.000,1831.000,595.500
2.595,1900.000,2242.500,1830.000,594.000
2.596,1900.000,2241.500,1828.500,592.000
2.597,1900.000,2241.000,1827.000,589.500
2.598,1900.500,2240.500,1825.500,587.000
2.599,1901.500,2240.500,1825.000,585.500
2.600,1902.500,2241.500,1825.500,585.000
2.601,1904.500,2242.500,1827.000,586.000
2.602,1906.500,2244.500,1829.000,588.000
2.603,1908.500,2246.500,1831.500,591.000
2.604,1910.500,2248.000,1834.000,594.500
2.605,1911.000,2249.000,1836.000,598.000
2.606,1911.000,2249.500,1837.000,601.000
2.607,1909.500,2248.500,1837.000,602.500
2.608,1907.500,2247.000,1836.500,603.500
2.609,1905.500,2245.000,1835.500,603.500
2.610,1903.000,2243.000,1834.500,603.000
2.611,1901.000,2241.000,1833.000,602.500
2.612,1899.000,2239.500,1831.500,601.000
2.613,1897.500,2237.500,1829.500,598.500
2.614,1896.000,2235.500,1827.000,595.500
2.615,1894.000,2233.000,1824.000,592.500
2.616,1892.500,2231.000,1821.000,588.500
2.617,1891.000,2228.500,1818.000,584.500
2.618,1890.000,2226.500,1815.000,580.500
2.619,1888.500,2224.500,1812.500,577.000
2.620,1887.500,2222.500,1810.000,574.000
2.621,1886.500,2221.000,1808.500,572.000
2.622,1885.500,2219.500,1807.000,571.000
2.623,1884.000,2218.500,1806.500,571.000
2.624,1882.500,2217.500,1806.000,572.000
2.625,1881.000,2216.000,1806.000,573.500
2.626,1878.500,2214.500,1805.500,574.000
2.627,1875.000,2212.000,1804.000,574.500
2.628,1871.500,2208.500,1802.000,573.500
2.629,1867.000,2205.000,1799.000,571.000
2.630,1862.500,2201.000,1795.500,568.500
2.631,1858.500,2197.000,1791.500,565.500
2.632,1854.000,2192.500,1787.500,561.500
2.633,1849.500,2188.000,1783.000,557.000
2.634,1844.500,2183.000,1777.500,551.000
2.635,1840.000,2177.500,1771.500,544.500
2.636,1835.500,2172.000,1765.500,537.500
2.637,1831.500,2167.000,1760.000,530.500
2.638,1828.500,2163.500,1755.000,524.500
2.639,1827.500,2160.500,1751.500,520.000
2.640,1827.000,2159.500,1750.000,517.500
2.641,1827.500,2159.500,1749.500,517.000
2.642,1828.000,2159.500,1749.000,517.000
2.643,1827.000,2159.000,1749.000,517.500
2.644,1825.500,2157.500,1748.000,517.500
2.645,1822.500,2155.000,1747.000,518.000
2.646,1819.000,2152.500,1745.500,517.500
2.647,1815.500,2149.500,1743.500,517.000
2.648,1811.500,2146.000,1741.000,516.500
2.649,1807.000,2142.500,1738.500,514.500
2.650,1803.500,2139.000,1735.500,512.500
2.651,1799.500,2135.500,1732.500,509.500
2.652,1796.000,2132.000,1729.000,506.000
2.653,1792.500,2128.500,1725.500,502.500
2.654,1789.500,2125.000,1722.000,498.500
2.655,1786.500,2121.500,1718.000,494.000
2.656,1784.000,2118.000,1713.500,489.000
2.657,1781.500,2114.000,1709.000,483.500
2.658,1779.000,2111.000,1705.000,478.500
2.659,1777.500,2109.000,1702.000,474.000
2.660,1776.500,2107.500,1700.000,471.000
2.661,1776.000,2106.500,1699.000,469.500
2.662,1775.500,2106.000,1698.500,469.000
2.663,1775.000,2105.500,1699.000,469.500
2.664,1774.000,2104.500,1699.000,471.000
2.665,1772.500,2103.500,1699.000,472.000
2.666,1770.500,2102.000,1698.500,473.500
2.667,1768.000,2100.500,1698.000,474.500
2.668,1766.000,2099.000,1697.500,475.000
2.669,1763.500,2097.000,1696.500,474.500
2.670,1761.000,2094.500,1694.500,473.500
2.671,1758.000,2092.000,1692.000,471.000
2.672,1755.000,2088.500,1688.500,467.500
2.673,1752.500,2085.500,1684.500,464.000
2.674,1750.500,2082.500,1680.500,459.500
2.675,1749.000,2080.000,1677.000,455.000
2.676,1748.000,2077.500,1673.500,451.000
2.677,1747.000,2075.500,1670.500,447.000
2.678,1746.500,2074.000,1668.500,443.500
2.679,1746.500,2073.000,1666.500,441.000
2.680,1746.500,2073.000,1666.000,440.000
2.681,1747.000,2073.500,1666.500,440.000
2.682,1747.500,2074.000,1668.000,442.000
2.683,1747.500,2075.000,1669.500,444.000
2.684,1747.000,2075.000,1671.500,447.000
2.685,1746.000,2075.000,1673.000,450.000
2.686,1744.000,2074.500,1674.500,453.500
2.687,1742.500,2074.000,1675.500,456.000
2.688,1740.000,2073.000,1676.500,458.000
2.689,1738.000,2071.500,1676.000,458.500
2.690,1735.500,2069.500,1675.500,458.000
2.691,1733.500,2067.500,1673.500,456.500
2.692,1731.500,2065.000,1671.000,454.500
2.693,1730.000,2063.000,1668.500,451.500
2.694,1728.500,2060.500,1665.500,448.000
2.695,1727.000,2058.000,1662.500,444.000
2.696,1725.500,2056.000,1659.000,440.000
2.697,1724.500,2054.000,1656.500,436.000
2.698,1724.500,2053.000,1654.000,433.000
2.699,1725.000,2052.500,1653.000,430.500
2.700,1726.000,2053.000,1653.000,429.500
2.701,1727.500,2053.500,1653.500,430.000
2.702,1729.000,2054.500,1654.500,431.000
2.703,1729.500,2055.500,1656.000,433.500
2.704,1730.000,2056.500,1658.000,436.000
2.705,1729.500,2057.000,1659.500,439.000
2.706,1728.500,2057.000,1660.500,442.000
2.707,1727.500,2056.500,1661.500,444.000
2.708,1726.000,2055.500,1662.000,446.000
2.709,1724.500,2054.500,1662.000,446.500
2.710,1723.000,2053.500,1661.500,447.000
2.711,1721.500,2052.000,1660.500,446.500
2.712,1720.000,2051.000,1659.500,445.500
2.713,1719.000,2049.500,1658.500,444.000
2.714,1718.000,2048.500,1657.000,442.000
2.715,1717.000,2047.000,1655.500,440.000
2.716,1716.000,2045.500,1653.500,437.000
2.717,1716.000,2044.500,1651.500,434.500
2.718,1716.000,2043.500,1650.000,431.500
2.719,1716.000,2043.000,1649.000,429.500
2.720,1717.000,2043.000,1649.000,428.000
2.721,1718.000,2043.500,1649.500,428.000
2.722,1719.000,2044.000,1650.000,428.500
2.723,1720.000,2045.000,1651.500,430.000
2.724,1720.500,2046.000,1652.500,432.500
2.725,1720.500,2046.000,1653.000,434.500
2.726,1720.000,2046.000,1653.500,436.500
2.727,1719.000,2045.000,1653.000,438.000
2.728,1717.000,2043.500,1653.000,439.000
2.729,1715.500,2042.500,1653.000,440.500
2.730,1714.500,2042.000,1653.000,441.500
2.731,1713.000,2041.000,1653.000,441.500
2.732,1711.000,2040.000,1652.500,441.000
2.733,1709.500,2038.500,1652.000,439.500
2.734,1708.000,2037.000,1650.500,437.500
2.735,1707.000,2035.000,1649.000,434.500
2.736,1706.000,2033.500,1647.500,431.500
2.737,1705.500,2032.500,1646.000,429.000
2.738,1706.000,2032.000,1645.000,426.500
2.739,1706.500,2032.000,1645.000,425.000
2.740,1707.500,2033.000,1645.500,424.500
2.741,1709.500,2034.000,1646.500,425.000
2.742,1711.000,2035.500,1648.000,426.500
2.743,1711.500,2036.000,1649.000,428.000
2.744,1711.000,2036.000,1649.500,429.500
2.745,1709.500,2034.000,1649.000,430.000
2.746,1706.500,2031.500,1647.500,430.000
2.747,1703.000,2029.000,1645.500,430.000
2.748,1700.500,2027.000,1645.000,430.500
2.749,1699.500,2026.500,1645.000,431.500
2.750,1700.000,2027.500,1647.000,434.000
2.751,1701.500,2029.500,1649.500,437.000
2.752,1703.500,2031.500,1652.000,439.000
2.753,1704.500,2032.500,1653.000,440.000
2.754,1704.000,2031.500,1652.000,438.500
2.755,1703.000,2029.500,1649.500,435.000
2.756,1701.500,2027.000,1646.500,431.000
2.757,1700.000,2024.500,1644.000,427.000
2.758,1698.500,2022.500,1641.000,423.000
2.759,1697.500,2021.000,1639.000,419.500
2.760,1697.500,2020.000,1638.500,417.500
2.761,1698.000,2020.500,1638.500,417.000
2.762,1698.500,2021.000,1639.500,418.000
2.763,1699.500,2022.000,1641.000,420.000
2.764,1700.500,2023.000,1642.500,422.500
2.765,1700.000,2023.500,1644.000,425.000
2.766,1699.000,2023.000,1645.000,427.500
2.767,1697.500,2022.500,1645.500,429.000
2.768,1695.500,2021.500,1645.500,430.000
2.769,1694.000,2020.500,1645.000,431.000
2.770,1693.000,2019.500,1645.000,431.500
2.771,1692.500,2019.000,1645.000,431.500
2.772,1692.500,2019.000,1645.000,432.000
2.773,1693.500,2019.000,1645.500,432.000
2.774,1694.500,2019.000,1645.000,431.000
2.775,1694.500,2018.500,1644.500,429.500
2.776,1693.500,2017.000,1642.500,426.500
2.777,1692.500,2015.500,1640.000,422.500
2.778,1691.500,2013.500,1638.000,419.500
2.779,1691.000,2013.000,1637.000,417.000
2.780,1691.500,2012.500,1636.500,416.000
2.781,1692.500,2013.000,1637.000,415.500
2.782,1693.000,2013.500,1637.500,416.000
2.783,1693.500,2013.500,1639.000,417.500
2.784,1693.500,2014.000,1640.000,419.500
2.785,1693.000,2014.000,1641.500,422.000
2.786,1692.000,2014.000,1642.500,424.500
2.787,1690.500,2013.500,1643.500,427.000
2.788,1688.500,2012.500,1643.500,428.000
2.789,1686.500,2011.000,1643.000,429.000
2.790,1685.000,2010.000,1642.500,429.000
2.791,1684.000,2008.500,1642.000,428.500
2.792,1683.000,2008.000,1641.500,428.000
2.793,1682.000,2007.000,1640.500,426.500
2.794,1681.500,2006.000,1639.500,425.000
2.795,1680.500,2005.000,1638.000,423.000
2.796,1679.500,2003.500,1636.000,420.000
2.797,1679.000,2002.000,1634.000,416.500
2.798,1678.500,2000.500,1632.500,413.500
2.799,1679.000,2000.000,1632.000,411.500
2.800,1679.500,2000.500,1632.000,410.500
2.801,1680.500,2001.000,1632.500,410.500
2.802,1682.000,2002.500,1634.000,412.000
2.803,1682.500,2003.500,1635.500,414.000
2.804,1683.000,2004.000,1637.000,416.500
2.805,1683.500,2005.000,1639.000,419.500
2.806,1683.000,2005.000,1640.000,422.000
2.807,1682.000,2004.500,1641.000,424.500
2.808,1681.000,2004.000,1641.000,426.000
2.809,1679.000,2003.000,1641.500,427.000
2.810,1677.000,2001.500,1640.500,427.000
2.811,1674.500,1999.500,1639.500,426.000
2.812,1672.500,1997.000,1637.500,424.000
2.813,1670.500,1995.000,1635.000,421.500
2.814,1669.500,1993.000,1633.000,419.000
2.815,1669.000,1992.000,1631.000,416.500
2.816,1669.000,1991.000,1629.500,414.000
2.817,1669.000,1990.000,1628.000,411.000
2.818,1668.500,1989.000,1626.500,408.500
2.819,1669.000,1988.500,1625.000,406.000
2.820,1669.500,1988.500,1625.000,404.500
2.821,1671.000,1989.000,1626.000,405.000
2.822,1672.000,1990.500,1628.000,406.500
2.823,1673.000,1991.500,1629.500,408.500
2.824,1673.000,1991.500,1631.000,410.500
2.825,1672.000,1991.500,1631.500,412.500
2.826,1670.500,1990.500,1632.000,414.500
2.827,1668.500,1989.500,1632.500,416.500
2.828,1667.500,1989.000,1633.500,418.000
2.829,1666.500,1989.000,1634.000,420.000
2.830,1666.000,1989.000,1635.000,421.500
2.831,1665.000,1988.500,1634.500,421.500
2.832,1663.000,1986.500,1633.000,419.500
2.833,1660.500,1983.500,1630.000,416.500
2.834,1657.500,1980.500,1626.000,412.000
2.835,1655.000,1977.500,1623.000,408.000
2.836,1654.000,1976.000,1621.000,405.000
2.837,1655.000,1976.000,1620.500,403.000
2.838,1657.500,1978.000,1622.000,402.500
2.839,1661.000,1981.000,1624.000,403.500
2.840,1665.000,1983.500,1627.000,405.500
2.841,1667.500,1986.000,1629.000,407.000
2.842,1668.500,1986.500,1630.000,408.000
2.843,1668.500,1986.500,1630.500,409.000
2.844,1668.500,1986.000,1631.000,410.500
2.845,1667.500,1986.000,1632.000,412.000
2.846,1666.500,1985.500,1632.500,414.000
2.847,1665.000,1985.000,1633.500,416.500
2.848,1663.500,1984.500,1634.000,418.000
2.849,1662.000,1984.000,1634.000,419.500
2.850,1661.000,1983.500,1634.000,420.000
2.851,1659.500,1982.500,1633.500,419.500
2.852,1658.500,1981.500,1633.000,419.000
2.853,1657.500,1980.000,1631.500,417.000
2.854,1656.500,1978.500,1630.000,415.000
2.855,1655.000,1976.500,1628.000,412.000
2.856,1654.000,1974.500,1626.000,408.500
2.857,1652.500,1972.500,1623.500,405.000
2.858,1651.500,1971.000,1621.500,401.500
2.859,1651.500,1970.500,1620.500,399.000
2.860,1652.000,1970.500,1620.000,398.000
2.861,1653.500,1971.500,1621.000,398.000
2.862,1655.000,1972.500,1622.500,399.500
2.863,1656.000,1974.000,1624.500,401.500
2.864,1656.500,1974.500,1626.000,404.000
2.865,1656.000,1974.500,1627.000,406.000
2.866,1655.500,1974.000,1627.500,408.000
2.867,1654.000,1973.000,1627.000,409.000
2.868,1653.000,1972.000,1626.000,409.000
2.869,1651.500,1970.500,1625.000,409.000
2.870,1650.000,1969.000,1624.000,408.500
2.871,1648.500,1968.000,1623.000,408.000
2.872,1647.000,1966.500,1622.500,407.500
2.873,1646.000,1965.500,1621.500,406.500
2.874,1645.000,1964.500,1621.000,405.000
2.875,1644.500,1963.500,1620.500,403.000
2.876,1643.500,1962.500,1619.500,401.000
2.877,1643.500,1961.500,1619.000,399.000
2.878,1643.500,1961.000,1618.500,397.000
2.879,1644.000,1960.500,1618.000,395.000
2.880,1644.500,1961.000,1618.500,394.500
2.881,1645.000,1961.500,1619.500,394.500
2.882,1646.000,1962.500,1621.000,396.000
2.883,1647.000,1963.000,1622.500,398.000
2.884,1647.000,1964.000,1624.000,400.500
2.885,1647.000,1964.000,1625.000,403.000
2.886,1646.000,1964.000,1626.000,405.500
2.887,1644.500,1963.500,1627.000,407.000
2.888,1643.000,1963.000,1627.000,408.500
2.889,1641.000,1961.500,1626.500,409.000
2.890,1639.500,1960.000,1625.500,408.500
2.891,1637.500,1958.000,1624.000,407.000
2.892,1636.000,1956.000,1622.500,405.000
2.893,1634.500,1954.500,1620.500,403.000
2.894,1633.000,1952.500,1618.500,400.500
2.895,1632.500,1951.000,1616.500,398.000
2.896,1632.000,1950.000,1615.000,395.000
2.897,1632.000,1949.000,1613.000,392.500
2.898,1632.000,1948.500,1612.000,390.000
2.899,1632.500,1948.500,1611.500,388.000
2.900,1634.000,1949.500,1612.000,387.500
2.901,1636.500,1951.500,1614.000,388.500
2.902,1638.500,1953.500,1616.500,391.000
2.903,1640.500,1955.500,1619.000,394.000
2.904,1641.500,1956.000,1621.000,396.500
2.905,1641.000,1956.000,1622.000,399.000
2.906,1639.500,1955.000,1622.500,400.500
2.907,1637.500,1954.000,1622.500,402.000
2.908,1636.500,1953.500,1623.000,403.500
2.909,1635.500,1953.500,1624.000,405.500
2.910,1636.000,1954.000,1625.500,407.000
2.911,1637.000,1955.000,1627.000,409.000
2.912,1637.500,1956.000,1628.500,410.000
2.913,1638.500,1956.500,1629.000,410.500
2.914,1638.500,1957.000,1629.000,410.000
2.915,1639.000,1956.500,1628.500,408.500
2.916,1639.000,1956.500,1628.000,407.000
2.917,1640.000,1956.500,1627.500,405.000
2.918,1641.000,1957.000,1627.500,403.500
2.919,1643.000,1958.500,1628.000,403.000
2.920,1645.500,1960.500,1629.500,403.500
2.921,1649.000,1963.500,1632.500,406.000
2.922,1652.500,1967.000,1636.000,409.500
