'Elapsed time','AECG1','AECG2','AECG3','AECG4'
'seconds','uV','uV','uV','uV'
0.000,109.500,21.500,52.500,6.500
0.001,108.000,20.000,51.000,5.000
0.002,107.000,18.500,49.500,4.000
0.003,105.500,17.000,48.000,3.000
0.004,103.500,15.500,47.000,2.500
0.005,101.500,14.000,46.000,2.000
0.006,100.000,13.000,45.500,2.500
0.007,98.500,12.000,45.000,2.500
0.008,96.500,11.000,44.000,2.500
0.009,95.000,9.500,43.000,1.500
0.010,93.000,7.500,41.000,0.000
0.011,90.500,5.500,39.000,-2.500
0.012,88.500,3.500,37.000,-5.000
0.013,86.500,1.000,34.000,-8.000
0.014,84.500,-1.000,31.500,-11.500
0.015,83.000,-3.000,29.000,-14.500
0.016,81.500,-5.000,26.500,-17.500
0.017,80.500,-6.500,25.000,-20.500
0.018,80.000,-7.500,23.500,-22.500
0.019,79.500,-8.500,22.000,-24.500
0.020,78.500,-9.500,21.500,-25.500
0.021,78.000,-10.000,20.500,-26.500
0.022,77.500,-10.500,20.000,-26.500
0.023,77.000,-11.000,20.000,-26.000
0.024,76.500,-11.500,20.000,-25.000
0.025,76.000,-11.500,20.500,-24.000
0.026,75.000,-12.000,20.500,-23.000
0.027,74.000,-12.500,20.000,-22.000
0.028,73.000,-13.000,19.500,-22.000
0.029,72.500,-13.500,19.000,-22.000
0.030,71.500,-14.000,18.500,-22.000
0.031,71.500,-14.000,18.000,-22.500
0.032,71.000,-14.000,17.500,-23.500
0.033,70.500,-14.500,16.500,-24.500
0.034,69.500,-15.500,15.000,-26.500
0.035,68.500,-17.000,13.500,-29.000
0.036,67.500,-19.000,11.500,-32.000
0.037,66.500,-20.500,10.000,-34.500
0.038,65.500,-21.500,8.500,-37.000
0.039,65.000,-22.500,7.500,-38.500
0.040,65.000,-22.500,7.500,-39.000
0.041,65.500,-21.500,8.500,-38.500
0.042,66.500,-20.500,10.000,-37.000
0.043,67.500,-19.000,11.500,-34.500
0.044,68.000,-18.500,12.500,-32.500
0.045,68.000,-18.000,13.000,-31.500
0.046,67.000,-18.500,13.000,-30.500
0.047,65.500,-19.500,12.500,-30.500
0.048,63.500,-21.000,11.500,-31.000
0.049,61.500,-23.000,10.000,-32.500
0.050,59.500,-25.000,8.000,-34.500
0.051,57.500,-27.500,5.500,-37.500
0.052,55.500,-29.500,3.000,-40.000
0.053,54.000,-31.500,0.500,-43.000
0.054,52.500,-33.000,-2.000,-46.000
0.055,51.000,-35.000,-4.500,-49.000
0.056,51.000,-36.000,-5.500,-51.500
0.057,52.000,-35.000,-5.000,-52.000
0.058,55.500,-31.500,-2.500,-50.000
0.059,61.500,-26.000,3.500,-45.000
0.060,70.000,-17.500,12.000,-37.000
0.061,81.000,-6.500,23.500,-26.000
0.062,92.500,5.500,36.000,-13.000
0.063,104.000,18.000,49.000,1.000
0.064,115.000,29.500,61.500,14.500
0.065,124.500,40.000,73.000,27.000
0.066,133.500,49.500,83.000,38.500
0.067,142.000,59.500,93.500,50.000
0.068,152.000,70.000,105.000,62.500
0.069,163.500,82.000,117.500,76.000
0.070,177.500,97.000,133.000,92.000
0.071,195.000,115.000,151.500,111.000
0.072,215.000,135.500,173.000,133.000
0.073,237.000,158.000,195.500,156.000
0.074,260.000,181.000,219.000,179.500
0.075,284.000,205.000,243.000,204.000
0.076,309.500,230.500,269.000,230.000
0.077,337.500,259.000,297.500,258.500
0.078,369.000,290.500,329.500,290.500
0.079,403.500,325.500,365.000,326.500
0.080,440.500,363.000,403.500,365.000
0.081,479.500,402.500,444.000,406.000
0.082,518.000,442.000,484.000,447.500
0.083,555.000,479.500,522.500,487.500
0.084,587.000,513.000,557.000,523.000
0.085,611.500,538.500,583.000,550.500
0.086,625.000,553.000,597.500,566.000
0.087,624.500,553.500,597.500,566.500
0.088,610.000,539.000,583.000,552.000
0.089,582.500,511.500,555.000,523.000
0.090,546.000,475.000,517.500,484.500
0.091,506.000,434.000,475.500,441.000
0.092,465.000,392.000,432.000,396.500
0.093,425.500,350.500,389.500,352.500
0.094,387.500,311.500,349.000,310.000
0.095,352.000,274.000,310.500,269.500
0.096,318.000,238.500,274.000,231.500
0.097,285.000,204.000,238.500,194.000
0.098,252.500,170.500,203.500,157.500
0.099,220.000,137.500,169.500,122.500
0.100,189.500,106.000,137.500,89.500
0.101,161.500,77.500,108.500,60.000
0.102,137.500,53.000,83.500,35.000
0.103,117.500,32.500,63.000,15.000
0.104,101.000,16.000,47.000,-0.500
0.105,87.500,3.000,33.500,-13.000
0.106,75.500,-9.000,22.000,-23.500
0.107,64.500,-20.000,11.000,-33.500
0.108,53.500,-30.000,0.500,-43.500
0.109,43.000,-40.500,-10.000,-53.500
0.110,33.500,-50.000,-19.500,-63.500
0.111,24.000,-59.000,-29.000,-72.500
0.112,16.500,-67.000,-37.000,-80.500
0.113,11.000,-72.500,-43.000,-87.000
0.114,7.000,-76.500,-47.500,-91.500
0.115,5.000,-79.000,-50.000,-94.500
0.116,4.000,-80.500,-52.000,-97.000
0.117,4.000,-81.000,-52.500,-98.500
0.118,5.000,-80.500,-52.500,-99.000
0.119,6.500,-79.000,-50.500,-98.000
0.120,9.500,-76.000,-47.500,-95.500
0.121,13.000,-72.500,-43.500,-91.500
0.122,17.000,-68.000,-39.000,-86.500
0.123,21.000,-63.500,-34.500,-81.500
0.124,25.000,-59.000,-29.500,-75.500
0.125,28.500,-54.500,-25.000,-69.500
0.126,32.000,-50.500,-20.500,-64.000
0.127,35.500,-47.000,-16.500,-58.500
0.128,38.000,-43.500,-13.500,-54.000
0.129,40.000,-41.500,-11.000,-51.000
0.130,41.500,-40.000,-9.500,-49.500
0.131,42.500,-38.500,-8.500,-48.500
0.132,44.000,-37.000,-7.500,-47.500
0.133,46.000,-35.500,-6.000,-46.500
0.134,48.000,-33.500,-4.500,-46.000
0.135,49.500,-32.500,-4.000,-46.000
0.136,50.000,-32.500,-4.500,-47.000
0.137,49.000,-34.000,-6.000,-49.500
0.138,48.000,-36.000,-8.500,-52.500
0.139,47.000,-37.500,-10.000,-54.500
0.140,47.000,-38.000,-10.500,-55.500
0.141,48.000,-37.500,-9.500,-54.500
0.142,50.000,-35.000,-7.000,-52.000
0.143,52.500,-32.500,-4.000,-48.500
0.144,55.000,-30.000,-1.000,-45.000
0.145,56.000,-28.000,1.500,-42.000
0.146,56.500,-27.000,3.000,-40.000
0.147,55.500,-27.000,3.000,-39.000
0.148,55.000,-27.500,2.500,-39.000
0.149,54.000,-27.500,2.000,-38.500
0.150,54.000,-28.000,1.500,-38.500
0.151,54.000,-28.000,1.500,-38.500
0.152,54.500,-28.000,1.500,-38.500
0.153,54.500,-28.000,1.000,-39.500
0.154,54.500,-28.000,0.500,-40.500
0.155,54.000,-28.500,-0.500,-42.000
0.156,54.000,-29.500,-1.500,-44.000
0.157,53.500,-30.000,-2.500,-46.500
0.158,53.000,-31.000,-3.500,-48.000
0.159,53.000,-31.000,-4.000,-49.000
0.160,53.500,-31.000,-4.000,-49.000
0.161,54.000,-30.500,-3.500,-48.500
0.162,54.500,-30.000,-3.000,-47.500
0.163,55.000,-28.500,-1.500,-45.500
0.164,56.000,-27.000,0.500,-43.000
0.165,57.500,-25.500,2.500,-39.500
0.166,58.500,-23.500,4.500,-36.500
0.167,59.500,-22.500,6.500,-34.000
0.168,59.500,-21.500,7.500,-32.500
0.169,59.500,-21.500,8.000,-31.500
0.170,59.000,-21.500,8.000,-31.000
0.171,58.500,-22.000,8.000,-31.000
0.172,58.000,-22.500,8.000,-31.500
0.173,57.500,-23.000,7.500,-32.000
0.174,57.000,-23.500,7.000,-33.500
0.175,56.500,-24.000,6.000,-35.000
0.176,56.500,-24.500,5.500,-36.500
0.177,57.000,-24.500,5.500,-37.500
0.178,58.000,-24.000,6.000,-38.000
0.179,58.500,-23.500,5.500,-38.500
0.180,58.000,-24.000,5.000,-40.000
0.181,57.000,-25.000,4.000,-41.000
0.182,56.500,-26.000,3.000,-42.000
0.183,56.000,-26.500,2.500,-42.000
0.184,56.000,-26.500,2.500,-41.000
0.185,56.000,-26.000,2.500,-40.500
0.186,56.000,-26.500,2.500,-39.500
0.187,55.500,-26.500,2.500,-39.000
0.188,55.500,-26.500,3.000,-38.000
0.189,56.000,-25.500,3.500,-37.500
0.190,57.500,-24.500,4.500,-36.000
0.191,59.000,-22.500,5.500,-35.000
0.192,60.500,-21.500,7.000,-34.000
0.193,61.500,-20.500,7.500,-34.000
0.194,62.500,-19.500,8.000,-34.500
0.195,63.500,-19.000,8.000,-35.000
0.196,64.000,-19.000,8.000,-36.000
0.197,64.500,-18.500,8.500,-37.000
0.198,65.500,-17.500,9.000,-37.000
0.199,66.500,-17.000,10.000,-37.000
0.200,67.500,-16.000,11.000,-36.000
0.201,68.500,-15.000,12.500,-34.500
0.202,69.500,-13.500,14.500,-32.500
0.203,70.500,-12.500,16.000,-29.500
0.204,71.500,-11.000,18.000,-27.000
0.205,72.000,-9.500,19.500,-24.000
0.206,72.500,-8.500,21.500,-21.500
0.207,73.500,-7.000,23.000,-19.000
0.208,74.000,-6.000,25.000,-16.500
0.209,75.000,-5.000,26.000,-15.000
0.210,75.500,-4.000,27.000,-14.000
0.211,76.000,-4.000,27.500,-13.500
0.212,76.000,-4.000,27.000,-13.500
0.213,76.000,-4.500,26.500,-14.000
0.214,76.000,-4.500,25.500,-15.500
0.215,76.000,-5.000,25.000,-16.500
0.216,76.000,-5.500,24.000,-18.500
0.217,76.500,-6.000,23.500,-20.000
0.218,77.000,-6.000,23.500,-21.000
0.219,78.000,-5.000,24.000,-21.000
0.220,80.500,-3.500,26.000,-19.500
0.221,83.000,-1.000,28.500,-17.000
0.222,85.000,1.500,30.500,-14.500
0.223,86.500,3.500,32.500,-12.000
0.224,87.500,5.000,34.000,-9.000
0.225,88.500,6.000,36.000,-6.500
0.226,89.500,7.500,37.500,-3.500
0.227,90.000,8.500,39.000,-1.000
0.228,90.500,10.000,40.500,1.000
0.229,91.500,11.000,41.500,2.500
0.230,92.000,12.000,42.500,3.500
0.231,92.500,12.500,43.000,4.000
0.232,93.500,13.500,43.000,4.500
0.233,94.500,14.000,44.000,4.500
0.234,96.000,15.500,45.000,5.000
0.235,97.500,16.500,45.500,5.500
0.236,98.500,17.000,46.000,5.000
0.237,99.000,17.000,46.000,4.000
0.238,99.500,17.000,46.000,3.000
0.239,100.500,17.500,46.500,3.000
0.240,102.000,19.000,48.000,4.000
0.241,104.000,21.500,50.500,6.000
0.242,106.000,23.500,53.000,9.000
0.243,108.500,26.500,56.500,12.500
0.244,110.500,29.000,59.500,16.500
0.245,112.000,31.000,62.000,20.000
0.246,114.000,33.500,64.500,24.000
0.247,115.000,35.500,67.000,27.000
0.248,116.500,37.000,69.000,30.000
0.249,118.000,39.000,71.000,33.000
0.250,120.000,40.500,73.000,35.000
0.251,122.000,43.000,75.000,37.500
0.252,124.000,45.000,77.500,39.000
0.253,125.500,46.500,79.000,40.500
0.254,126.500,46.500,79.500,40.000
0.255,126.000,46.000,78.500,38.500
0.256,125.500,45.000,77.500,36.500
0.257,126.000,45.500,78.000,35.500
0.258,128.000,47.000,79.500,36.000
0.259,132.000,50.500,83.000,38.500
0.260,135.500,54.000,86.500,42.000
0.261,139.500,57.500,90.500,45.500
0.262,142.500,61.000,94.000,49.500
0.263,145.500,64.000,97.500,53.500
0.264,148.000,67.500,101.000,58.000
0.265,151.000,71.000,105.000,62.500
0.266,153.500,74.500,109.000,67.500
0.267,157.000,78.000,113.000,72.000
0.268,160.000,81.500,116.500,76.500
0.269,162.500,85.000,120.000,80.500
0.270,165.000,87.500,122.500,83.500
0.271,167.000,89.500,125.000,85.500
0.272,168.500,91.000,126.500,86.500
0.273,170.500,92.500,128.000,87.500
0.274,172.500,94.000,129.500,88.500
0.275,175.000,96.500,131.500,90.000
0.276,178.000,99.000,134.500,92.000
0.277,181.500,102.000,137.000,93.500
0.278,184.500,104.500,139.500,95.500
0.279,187.500,108.000,142.500,98.000
0.280,191.500,111.500,146.000,101.000
0.281,195.500,116.000,150.500,105.000
0.282,200.000,120.500,155.000,110.000
0.283,204.000,125.000,160.000,116.000
0.284,208.500,129.500,165.000,122.000
0.285,212.000,134.000,170.000,128.000
0.286,215.500,137.500,174.500,133.500
0.287,218.500,141.000,178.500,138.500
0.288,221.000,144.500,182.500,143.500
0.289,224.500,148.000,186.000,147.500
0.290,227.500,151.500,189.500,151.500
0.291,230.500,155.000,192.500,155.000
0.292,233.000,157.500,195.000,157.500
0.293,235.000,159.500,197.000,158.500
0.294,236.500,161.000,198.000,159.500
0.295,238.500,162.500,199.500,160.000
0.296,241.000,164.500,201.000,161.000
0.297,244.000,167.000,203.500,162.500
0.298,247.000,170.000,206.000,164.500
0.299,250.500,173.000,209.000,167.000
0.300,253.500,176.000,212.000,169.500
0.301,256.500,179.500,215.500,173.000
0.302,260.500,183.500,219.500,177.500
0.303,264.000,187.500,223.500,182.500
0.304,267.500,191.500,228.500,188.000
0.305,271.000,195.000,232.500,193.000
0.306,274.000,198.500,237.000,198.500
0.307,277.000,201.500,240.500,203.000
0.308,279.500,204.000,244.000,207.500
0.309,281.500,206.500,246.500,210.500
0.310,283.000,208.000,248.000,212.500
0.311,284.000,209.000,249.500,214.000
0.312,285.000,210.000,250.500,214.500
0.313,286.500,211.500,252.000,215.500
0.314,288.000,212.500,253.000,216.000
0.315,289.500,214.000,254.000,216.000
0.316,291.000,214.500,254.500,215.000
0.317,291.500,214.500,254.000,214.000
0.318,292.000,214.500,254.000,213.000
0.319,292.500,215.000,254.000,212.500
0.320,293.500,215.500,254.500,213.000
0.321,295.000,217.000,256.000,214.000
0.322,296.000,218.500,257.500,216.000
0.323,297.500,220.000,259.000,218.000
0.324,298.500,221.000,261.000,220.500
0.325,299.000,222.000,262.000,222.500
0.326,299.000,223.000,263.000,224.500
0.327,298.500,223.000,263.500,225.500
0.328,298.000,222.500,263.000,226.000
0.329,296.500,221.000,262.000,225.500
0.330,294.500,219.000,260.000,223.500
0.331,292.000,216.500,257.500,221.000
0.332,289.500,213.500,254.000,217.000
0.333,286.500,210.000,250.500,213.000
0.334,283.500,207.000,246.500,209.000
0.335,281.500,204.000,243.000,204.500
0.336,279.000,201.000,239.500,200.500
0.337,276.000,198.000,236.000,196.000
0.338,273.000,194.500,232.500,191.500
0.339,270.500,191.500,229.500,187.500
0.340,268.000,189.000,226.500,184.500
0.341,265.500,186.500,224.500,181.500
0.342,263.500,184.500,222.500,179.500
0.343,260.500,182.000,220.000,177.500
0.344,257.500,179.000,217.500,176.000
0.345,254.000,176.000,214.500,173.500
0.346,249.500,172.000,211.000,170.500
0.347,244.500,167.500,207.000,167.000
0.348,239.500,163.000,202.500,163.000
0.349,234.500,158.500,198.000,158.500
0.350,230.000,154.000,193.500,154.500
0.351,226.500,150.000,189.500,150.000
0.352,222.500,146.000,185.500,146.000
0.353,219.000,141.500,180.500,140.500
0.354,214.500,136.500,175.000,134.500
0.355,209.500,131.000,169.000,128.000
0.356,204.500,125.000,163.000,120.500
0.357,199.500,119.500,157.000,113.500
0.358,195.000,114.000,151.500,107.000
0.359,191.000,109.000,146.000,101.000
0.360,187.000,105.000,141.500,96.000
0.361,183.500,101.000,138.000,92.500
0.362,180.000,98.000,134.500,89.000
0.363,176.500,94.500,132.000,87.000
0.364,173.000,91.500,129.000,84.500
0.365,169.000,88.000,126.000,82.500
0.366,165.000,84.500,123.000,80.000
0.367,161.000,81.500,120.000,77.500
0.368,157.500,78.000,117.000,75.000
0.369,154.000,75.000,113.500,71.500
0.370,150.500,71.500,110.000,68.000
0.371,147.500,67.500,106.000,64.000
0.372,144.000,64.000,102.000,60.000
0.373,141.000,60.500,98.000,55.500
0.374,139.000,57.500,94.500,51.500
0.375,136.500,54.500,91.500,47.500
0.376,134.500,52.000,88.500,43.500
0.377,132.000,49.500,85.000,39.500
0.378,129.500,46.500,82.000,35.500
0.379,127.500,44.500,79.500,32.500
0.380,126.000,42.000,77.500,29.500
0.381,124.000,40.000,75.500,27.500
0.382,122.000,38.500,74.000,26.500
0.383,120.000,37.000,73.000,26.000
0.384,119.000,36.000,72.500,26.500
0.385,117.500,35.500,72.500,27.000
0.386,116.500,35.000,72.000,27.500
0.387,115.000,34.000,71.500,28.000
0.388,113.500,33.000,70.500,27.500
0.389,112.000,32.000,69.500,27.000
0.390,110.500,30.500,68.000,25.500
0.391,108.500,29.000,66.500,24.000
0.392,106.000,26.500,64.000,21.500
0.393,104.000,24.000,61.500,18.500
0.394,101.500,21.500,58.500,15.000
0.395,99.500,19.000,56.000,11.500
0.396,98.000,17.000,53.500,8.000
0.397,96.500,15.000,51.000,5.000
0.398,95.500,13.500,49.500,2.000
0.399,94.500,12.000,48.000,0.000
0.400,93.500,11.000,46.500,-2.000
0.401,92.500,10.000,46.000,-3.000
0.402,92.000,9.500,45.500,-3.000
0.403,91.500,9.500,46.000,-2.000
0.404,92.000,10.000,47.000,0.000
0.405,92.000,11.000,48.500,2.500
0.406,92.500,11.500,49.500,4.500
0.407,92.500,12.000,50.000,5.500
0.408,92.000,12.000,50.000,6.500
0.409,91.000,11.000,49.000,6.000
0.410,90.000,10.000,48.000,5.000
0.411,88.500,8.500,47.000,4.000
0.412,88.000,7.500,45.500,2.500
0.413,87.000,6.500,44.500,1.000
0.414,87.000,6.000,44.000,-1.000
0.415,87.000,5.500,43.500,-2.000
0.416,87.000,5.000,43.500,-3.500
0.417,87.000,4.500,43.000,-5.000
0.418,87.000,4.500,42.000,-6.500
0.419,87.000,3.500,41.500,-8.000
0.420,86.500,3.000,41.000,-9.000
0.421,86.500,3.000,41.000,-9.000
0.422,87.000,3.500,41.500,-8.500
0.423,87.500,4.500,42.500,-7.000
0.424,88.000,5.500,44.000,-5.000
0.425,88.500,6.000,45.000,-2.500
0.426,89.000,7.000,46.500,-0.500
0.427,89.500,7.500,47.500,1.500
0.428,89.500,8.000,48.000,3.000
0.429,89.500,8.000,48.000,3.000
0.430,88.500,7.500,48.000,3.000
0.431,88.000,7.000,47.500,2.500
0.432,87.500,6.500,47.500,2.000
0.433,87.500,6.500,47.000,1.500
0.434,88.000,7.000,47.000,1.000
0.435,89.000,7.500,47.000,0.500
0.436,89.500,8.500,47.000,-0.500
0.437,90.500,8.500,47.000,-1.500
0.438,90.500,8.000,46.000,-3.000
0.439,90.000,7.000,45.000,-5.000
0.440,90.000,6.000,44.500,-6.000
0.441,90.000,6.500,44.500,-6.000
0.442,91.000,7.500,45.500,-4.500
0.443,92.500,9.000,47.500,-2.000
0.444,93.500,10.500,49.500,0.500
0.445,94.000,11.500,51.000,3.000
0.446,94.000,11.500,51.500,4.500
0.447,93.500,11.500,52.000,5.500
0.448,92.500,11.000,52.000,6.000
0.449,92.000,11.000,52.000,6.500
0.450,92.000,10.500,52.000,6.500
0.451,91.000,10.000,51.000,6.000
0.452,90.500,9.000,50.000,5.000
0.453,89.500,8.000,48.500,3.000
0.454,88.500,6.500,47.000,1.000
0.455,88.000,5.500,46.000,-1.000
0.456,88.000,5.000,45.500,-3.000
0.457,88.500,5.000,45.500,-4.500
0.458,89.000,5.000,45.500,-5.000
0.459,90.500,6.000,46.000,-5.000
0.460,91.500,7.000,47.500,-4.500
0.461,93.000,8.500,48.500,-3.000
0.462,94.000,9.500,50.000,-1.500
0.463,95.000,10.500,51.000,0.500
0.464,95.500,11.500,52.000,3.000
0.465,95.500,12.500,53.000,5.500
0.466,95.500,13.000,54.000,7.500
0.467,95.500,13.500,55.000,9.000
0.468,95.500,14.000,55.500,10.000
0.469,94.500,13.500,55.500,10.000
0.470,94.000,13.000,54.500,9.000
0.471,93.000,12.000,54.000,8.000
0.472,92.500,11.500,53.000,7.000
0.473,92.500,11.000,52.000,5.500
0.474,92.500,11.000,51.500,4.500
0.475,92.500,10.500,50.500,3.000
0.476,93.000,10.500,50.500,2.000
0.477,93.500,10.500,50.000,1.000
0.478,94.000,10.000,50.000,-0.500
0.479,94.000,10.000,50.000,-1.500
0.480,93.500,10.000,50.000,-2.000
0.481,93.500,10.000,50.000,-2.000
0.482,93.500,10.500,50.500,-1.500
0.483,93.500,11.000,51.500,-0.500
0.484,93.500,11.500,52.500,1.500
0.485,94.000,12.500,54.000,4.000
0.486,94.500,13.500,55.500,6.500
0.487,95.000,14.500,57.000,9.000
0.488,95.500,15.000,58.000,10.500
0.489,95.500,15.500,58.000,11.000
0.490,95.000,15.500,58.000,11.000
0.491,95.000,16.000,58.000,11.000
0.492,95.000,16.000,57.500,10.500
0.493,95.000,15.500,57.000,9.500
0.494,95.000,15.000,56.000,8.000
0.495,95.000,14.500,55.500,7.000
0.496,95.500,14.500,55.000,5.500
0.497,96.000,14.000,54.500,4.500
0.498,96.500,14.000,54.000,3.000
0.499,96.500,13.500,53.500,2.000
0.500,96.500,13.500,53.500,1.500
0.501,96.500,14.000,54.000,2.000
0.502,97.500,15.000,55.000,3.000
0.503,98.000,16.500,56.000,5.000
0.504,99.000,17.500,57.000,7.000
0.505,99.000,18.500,58.500,9.500
0.506,99.000,19.000,59.000,11.000
0.507,98.500,19.000,60.000,12.500
0.508,99.000,19.500,61.000,14.000
0.509,99.000,19.500,62.000,15.000
0.510,99.000,19.500,62.500,15.000
0.511,98.500,19.000,62.000,14.500
0.512,98.000,18.000,61.000,13.500
0.513,97.000,16.500,59.500,11.500
0.514,96.000,15.500,57.500,9.000
0.515,95.000,14.000,55.500,6.500
0.516,94.500,12.500,54.000,4.000
0.517,94.000,12.000,53.000,2.000
0.518,94.500,11.500,52.500,1.000
0.519,94.500,11.500,52.000,0.000
0.520,94.500,11.500,52.500,-0.500
0.521,95.000,12.000,53.000,0.500
0.522,96.000,13.500,54.500,2.500
0.523,97.500,15.000,56.500,5.000
0.524,99.000,17.000,58.500,8.000
0.525,99.500,18.000,60.000,10.000
0.526,99.500,18.500,60.500,11.500
0.527,99.000,18.500,60.500,12.500
0.528,98.000,18.000,60.500,13.000
0.529,97.500,17.500,60.000,13.000
0.530,97.000,17.000,60.000,13.000
0.531,96.500,17.000,60.000,12.500
0.532,96.000,16.500,59.500,12.000
0.533,95.500,15.500,58.500,10.500
0.534,94.500,14.500,57.000,8.500
0.535,94.000,13.000,55.500,6.000
0.536,93.000,12.000,54.000,4.000
0.537,92.500,11.000,52.500,2.000
0.538,93.000,10.500,52.000,0.500
0.539,93.500,11.000,52.000,0.500
0.540,94.500,11.500,52.500,1.000
0.541,95.500,12.500,54.000,2.000
0.542,96.000,13.500,55.000,3.000
0.543,96.500,14.000,55.500,4.500
0.544,96.500,14.500,56.000,6.000
0.545,96.500,15.000,57.000,7.500
0.546,96.500,15.500,58.000,10.000
0.547,96.500,16.000,59.000,11.500
0.548,96.000,16.000,59.000,12.500
0.549,95.500,16.000,59.000,12.500
0.550,95.000,15.500,58.500,12.000
0.551,94.500,15.000,58.000,11.500
0.552,94.500,15.000,57.500,11.000
0.553,95.000,15.000,57.000,10.500
0.554,95.000,15.000,56.000,9.000
0.555,94.500,13.500,54.500,6.500
0.556,93.500,12.000,53.000,4.000
0.557,92.500,10.000,51.000,1.000
0.558,91.500,9.000,50.000,-1.000
0.559,91.500,8.500,50.000,-1.500
0.560,92.500,9.500,51.000,-1.500
0.561,94.000,11.000,52.500,0.000
0.562,95.500,12.500,54.000,1.500
0.563,96.500,14.000,55.500,4.000
0.564,97.000,15.000,57.000,6.500
0.565,97.500,16.000,58.000,8.500
0.566,97.500,17.000,59.500,10.500
0.567,97.500,17.500,60.500,12.500
0.568,97.500,18.000,61.000,13.500
0.569,97.000,18.000,61.000,14.000
0.570,97.000,17.500,61.000,14.000
0.571,96.000,17.000,60.000,13.500
0.572,95.000,16.000,59.000,12.000
0.573,94.000,14.500,57.000,10.000
0.574,92.500,12.500,55.000,7.500
0.575,91.500,11.000,53.000,5.000
0.576,91.000,10.500,52.000,3.000
0.577,91.500,10.000,51.500,1.500
0.578,92.000,10.000,51.500,0.500
0.579,92.500,10.500,51.000,0.000
0.580,93.000,10.500,51.000,0.000
0.581,93.000,11.000,51.500,0.500
0.582,94.000,12.000,52.500,1.500
0.583,94.500,13.500,54.500,4.000
0.584,95.500,14.500,56.000,6.000
0.585,95.500,15.500,57.500,8.000
0.586,95.000,15.500,58.000,9.500
0.587,95.000,15.500,58.500,10.500
0.588,94.500,15.500,59.000,11.500
0.589,94.500,15.500,59.000,12.000
0.590,94.000,15.000,58.500,11.500
0.591,93.000,14.500,57.500,10.500
0.592,91.500,13.000,55.500,8.500
0.593,90.000,11.500,53.500,6.000
0.594,88.500,9.500,51.500,3.500
0.595,87.500,8.500,50.000,1.000
0.596,87.500,8.000,49.500,-0.500
0.597,88.500,8.000,49.500,-1.500
0.598,89.500,9.000,50.500,-1.500
0.599,90.500,9.500,51.000,-1.500
0.600,91.000,10.000,51.500,-1.000
0.601,91.500,10.000,52.000,-0.500
0.602,91.500,10.500,53.000,0.500
0.603,92.000,11.000,54.000,2.500
0.604,92.500,11.500,55.500,4.500
0.605,92.500,12.500,57.000,6.500
0.606,92.500,13.000,58.000,8.500
0.607,92.000,13.500,58.500,9.500
0.608,91.500,13.500,58.500,10.500
0.609,90.500,13.000,58.500,10.500
0.610,89.500,12.000,57.500,10.500
0.611,88.500,11.000,57.000,9.500
0.612,87.500,10.500,56.000,9.000
0.613,87.000,10.000,55.000,8.000
0.614,86.500,9.500,54.500,6.500
0.615,86.000,9.000,53.500,5.000
0.616,85.000,8.000,52.000,3.000
0.617,84.000,7.000,51.000,1.000
0.618,83.500,6.000,50.000,-0.500
0.619,83.500,5.500,49.500,-2.000
0.620,83.500,5.000,49.000,-2.500
0.621,84.000,5.000,48.500,-2.500
0.622,84.000,5.000,48.000,-2.500
0.623,84.000,4.500,47.500,-2.500
0.624,84.000,4.500,47.500,-1.500
0.625,84.000,5.000,48.000,-0.500
0.626,84.000,5.500,48.000,1.500
0.627,84.000,6.000,48.500,2.500
0.628,84.000,6.500,49.000,3.500
0.629,84.500,7.500,49.500,4.000
0.630,85.000,8.000,49.500,4.500
0.631,85.500,8.500,49.500,4.500
0.632,86.000,8.000,49.500,4.000
0.633,86.000,8.000,49.000,2.500
0.634,86.500,8.000,48.500,1.000
0.635,86.500,8.000,48.000,-0.500
0.636,87.000,8.000,47.500,-1.500
0.637,87.500,8.000,47.500,-3.000
0.638,88.000,8.000,48.000,-3.500
0.639,88.500,8.500,48.500,-3.500
0.640,89.000,9.500,49.500,-2.500
0.641,90.000,10.500,51.000,-1.000
0.642,91.000,12.000,52.500,1.500
0.643,92.000,13.500,54.000,4.000
0.644,92.500,14.500,56.000,6.500
0.645,93.000,15.500,57.500,9.500
0.646,93.500,16.500,59.000,11.500
0.647,93.500,17.500,60.000,13.500
0.648,94.000,18.000,61.000,15.000
0.649,94.500,18.500,62.000,16.000
0.650,94.500,18.500,62.000,16.000
0.651,94.500,18.500,62.000,16.000
0.652,94.000,18.000,61.500,15.000
0.653,93.500,17.000,60.000,13.500
0.654,93.000,16.000,59.000,12.000
0.655,92.500,15.500,58.000,10.500
0.656,92.500,15.000,57.000,9.000
0.657,93.000,15.000,57.000,7.500
0.658,94.500,16.500,57.500,8.000
0.659,97.500,19.000,60.000,9.500
0.660,101.000,22.500,63.500,12.500
0.661,104.500,26.000,67.000,16.000
0.662,107.500,29.000,70.500,19.500
0.663,109.500,31.500,73.000,23.000
0.664,111.000,33.500,75.500,26.500
0.665,112.500,35.000,78.000,30.000
0.666,113.500,36.500,79.500,32.500
0.667,114.000,37.500,80.500,35.000
0.668,114.500,38.000,81.500,36.500
0.669,115.000,39.000,82.000,37.500
0.670,115.500,40.000,83.000,38.500
0.671,116.000,40.500,83.000,39.000
0.672,116.000,40.500,83.000,38.500
0.673,116.000,40.000,82.000,37.500
0.674,116.000,40.000,81.500,36.500
0.675,116.000,39.500,81.000,35.000
0.676,116.500,39.000,80.000,33.500
0.677,116.500,39.000,80.000,32.000
0.678,117.500,39.000,80.000,31.000
0.679,118.000,39.000,80.000,30.000
0.680,118.500,39.500,81.000,30.500
0.681,120.000,41.000,82.500,32.000
0.682,122.000,43.000,85.000,35.000
0.683,124.500,46.000,88.500,39.000
0.684,127.500,50.000,93.000,44.500
0.685,130.500,54.000,97.500,50.000
0.686,134.000,58.000,102.000,55.500
0.687,137.000,62.000,106.000,60.500
0.688,140.500,65.500,109.500,64.500
0.689,143.000,68.500,112.500,67.500
0.690,145.000,70.500,114.500,69.500
0.691,145.500,71.000,115.000,70.000
0.692,145.500,71.000,114.500,69.500
0.693,144.500,70.000,113.000,67.500
0.694,143.000,68.500,111.500,65.500
0.695,142.000,67.000,109.500,63.000
0.696,141.000,65.500,108.000,60.500
0.697,140.000,64.000,106.000,58.000
0.698,139.000,63.000,104.500,55.500
0.699,139.000,62.000,103.500,54.000
0.700,139.000,62.000,104.000,53.500
0.701,140.000,62.500,105.000,54.500
0.702,141.000,64.000,106.500,57.000
0.703,142.500,66.000,109.000,60.000
0.704,144.000,68.000,111.000,63.000
0.705,145.000,69.500,113.000,66.500
0.706,146.000,71.000,114.000,69.000
0.707,146.000,71.000,114.500,70.500
0.708,145.000,70.500,114.500,71.000
0.709,144.000,69.500,113.500,70.000
0.710,142.500,68.500,112.000,69.000
0.711,141.000,66.500,110.000,67.000
0.712,139.500,65.000,108.500,65.000
0.713,138.000,63.500,106.500,62.500
0.714,136.000,61.500,104.500,60.000
0.715,134.000,59.500,102.000,56.500
0.716,132.500,57.500,99.500,53.000
0.717,130.500,55.500,97.500,49.500
0.718,128.500,53.000,95.000,46.000
0.719,126.500,51.000,93.000,43.000
0.720,125.000,49.000,91.000,40.500
0.721,123.000,47.000,89.000,38.500
0.722,121.500,45.500,87.500,37.500
0.723,120.000,44.000,86.000,37.000
0.724,118.000,43.000,85.000,36.500
0.725,115.500,41.000,83.500,36.000
0.726,113.000,39.000,82.000,35.000
0.727,110.000,36.500,79.500,33.500
0.728,107.000,34.000,77.500,31.500
0.729,104.500,32.000,75.000,30.000
0.730,102.000,30.000,73.000,28.000
0.731,100.000,28.000,70.500,25.500
0.732,97.000,25.000,67.000,22.000
0.733,94.000,21.500,63.000,17.500
0.734,90.500,18.000,58.500,12.500
0.735,87.000,14.000,54.500,7.500
0.736,84.000,11.000,50.500,3.000
0.737,82.500,8.500,48.000,-0.500
0.738,81.000,7.000,46.500,-3.000
0.739,80.500,6.000,45.500,-5.000
0.740,80.500,5.500,45.000,-5.500
0.741,80.000,5.500,45.000,-6.000
0.742,80.000,6.000,45.500,-5.500
0.743,80.500,6.500,46.000,-4.000
0.744,80.000,6.500,46.500,-3.000
0.745,79.000,6.500,46.500,-2.000
0.746,78.000,6.000,46.500,-1.500
0.747,77.000,5.500,46.000,-0.500
0.748,76.000,5.500,46.000,0.000
0.749,75.000,5.000,46.000,0.500
0.750,74.500,5.000,45.500,0.500
0.751,74.000,4.000,44.500,-0.500
0.752,73.000,3.000,43.000,-2.000
0.753,72.000,2.000,41.500,-4.000
0.754,71.500,1.000,40.000,-6.000
0.755,71.500,0.500,39.500,-7.500
0.756,72.000,0.500,39.000,-9.000
0.757,72.500,1.000,39.000,-9.500
0.758,73.500,1.500,39.500,-10.000
0.759,74.500,2.000,40.000,-10.000
0.760,75.000,2.500,40.500,-10.000
0.761,76.000,3.500,41.500,-9.000
0.762,76.500,4.500,43.000,-7.500
0.763,77.000,5.000,44.000,-5.500
0.764,76.500,5.500,45.000,-4.000
0.765,75.500,5.000,45.000,-3.000
0.766,74.000,4.000,44.500,-2.500
0.767,73.000,3.500,44.000,-2.000
0.768,72.000,3.000,43.500,-2.000
0.769,70.500,2.000,43.000,-2.500
0.770,69.000,0.500,41.500,-4.000
0.771,67.000,-1.500,39.000,-6.500
0.772,65.000,-3.500,36.500,-9.000
0.773,63.500,-5.500,34.000,-12.500
0.774,61.500,-7.500,31.000,-16.000
0.775,59.500,-10.000,28.000,-19.500
0.776,57.500,-12.500,25.000,-23.500
0.777,56.000,-14.500,22.000,-27.000
0.778,54.500,-16.000,20.000,-30.000
0.779,54.500,-16.500,19.500,-31.000
0.780,56.500,-14.500,21.500,-29.500
0.781,61.000,-10.000,26.000,-24.500
0.782,67.500,-3.000,33.500,-17.000
0.783,75.500,6.000,42.500,-7.000
0.784,84.500,16.000,53.000,4.500
0.785,94.500,26.500,64.000,17.000
0.786,104.000,37.000,75.500,29.500
0.787,113.000,47.000,86.500,41.500
0.788,122.500,57.000,97.000,53.000
0.789,131.000,66.500,107.500,64.000
0.790,140.500,76.500,118.000,75.000
0.791,151.000,87.500,129.500,86.500
0.792,163.500,100.500,142.500,100.000
0.793,179.500,116.500,159.000,116.000
0.794,198.000,135.500,178.000,135.000
0.795,218.500,156.500,199.000,156.500
0.796,240.500,179.000,222.000,178.500
0.797,263.500,202.000,245.500,202.000
0.798,287.500,227.000,271.000,227.000
0.799,314.000,254.000,298.500,254.500
0.800,343.500,284.000,329.500,285.500
0.801,376.500,317.500,364.000,321.000
0.802,412.500,354.500,401.500,360.000
0.803,450.500,393.500,442.000,402.000
0.804,489.500,434.000,483.500,445.500
0.805,528.500,474.000,525.000,488.500
0.806,565.000,512.000,564.000,529.000
0.807,596.500,544.500,598.000,564.500
0.808,620.500,569.500,623.500,590.500
0.809,633.500,583.000,637.500,604.500
0.810,633.000,583.000,637.000,604.000
0.811,618.000,568.500,621.500,587.000
0.812,590.000,540.000,592.000,556.000
0.813,552.500,502.500,552.500,515.000
0.814,511.500,460.000,508.500,469.000
0.815,469.500,416.500,463.500,422.000
0.816,429.000,375.000,420.500,377.000
0.817,392.500,336.500,380.500,335.500
0.818,358.500,301.000,344.000,297.500
0.819,327.000,268.000,309.500,262.000
0.820,296.500,236.500,277.000,228.500
0.821,266.000,205.000,245.000,195.500
0.822,235.000,173.500,213.000,163.500
0.823,204.000,142.500,181.500,132.000
0.824,174.500,113.000,152.000,102.500
0.825,148.000,86.500,125.500,77.000
0.826,125.500,64.500,103.500,56.000
0.827,107.500,47.000,85.500,39.000
0.828,92.500,32.000,71.000,25.000
0.829,79.500,19.500,58.000,12.500
0.830,68.000,8.000,46.000,0.500
0.831,57.000,-3.000,34.500,-10.500
0.832,46.500,-13.000,24.000,-22.000
0.833,37.000,-23.000,13.500,-33.000
0.834,28.000,-32.500,3.500,-43.500
0.835,20.000,-41.000,-5.500,-53.000
0.836,13.500,-47.500,-12.500,-61.000
0.837,9.000,-53.000,-18.000,-67.500
0.838,6.000,-56.500,-21.500,-71.500
0.839,4.000,-58.500,-23.000,-74.000
0.840,4.000,-58.500,-23.500,-74.000
0.841,5.000,-57.500,-22.000,-72.500
0.842,7.000,-55.000,-19.500,-69.500
0.843,9.500,-51.500,-16.000,-65.500
0.844,12.500,-48.500,-12.500,-60.500
0.845,15.000,-45.000,-9.000,-56.000
0.846,17.500,-42.000,-5.500,-51.500
0.847,20.000,-39.000,-2.000,-47.000
0.848,22.500,-36.000,1.500,-43.000
0.849,25.500,-32.500,5.000,-39.500
0.850,28.500,-29.000,8.500,-36.000
0.851,31.500,-26.000,11.000,-33.000
0.852,34.000,-24.000,13.000,-31.500
0.853,35.500,-22.500,14.000,-31.000
0.854,37.000,-22.000,14.500,-31.000
0.855,37.500,-21.500,14.500,-31.500
0.856,38.500,-20.500,15.000,-32.000
0.857,39.500,-20.000,15.500,-32.000
0.858,41.000,-19.000,16.500,-32.000
0.859,42.500,-17.500,17.500,-31.000
0.860,44.000,-16.500,19.000,-30.000
0.861,46.000,-15.000,21.000,-28.000
0.862,48.000,-13.000,23.000,-25.500
0.863,50.000,-10.500,26.000,-22.500
0.864,51.500,-8.000,28.500,-19.000
0.865,53.000,-6.500,30.500,-16.000
0.866,53.000,-5.500,31.500,-14.000
0.867,53.000,-5.000,32.000,-13.000
0.868,52.000,-5.500,31.500,-13.000
0.869,50.500,-7.000,30.500,-13.500
0.870,48.500,-8.000,29.000,-15.000
0.871,47.500,-9.000,28.000,-16.000
0.872,48.000,-8.500,28.000,-16.500
0.873,48.500,-8.000,28.500,-16.500
0.874,49.000,-7.500,28.500,-17.000
0.875,49.500,-7.500,28.500,-18.500
0.876,50.000,-7.000,28.000,-19.500
0.877,50.500,-6.500,28.000,-20.000
0.878,51.500,-6.000,28.000,-20.500
0.879,51.500,-5.500,28.000,-20.500
0.880,51.000,-5.500,28.000,-21.000
0.881,50.500,-6.000,28.000,-20.500
0.882,50.500,-5.500,28.500,-19.500
0.883,50.500,-5.000,29.000,-18.000
0.884,50.500,-4.500,30.000,-15.500
0.885,51.000,-3.500,31.500,-13.500
0.886,51.000,-2.500,32.500,-11.500
0.887,51.000,-2.500,33.000,-10.500
0.888,50.500,-2.000,33.000,-9.500
0.889,50.000,-2.000,33.500,-9.500
0.890,50.000,-1.500,33.500,-9.000
0.891,50.500,-1.000,34.500,-8.500
0.892,51.000,-0.500,35.000,-8.500
0.893,52.000,0.500,35.500,-8.500
0.894,52.500,0.500,35.500,-9.500
0.895,52.500,0.500,34.500,-11.000
0.896,52.500,-0.500,34.000,-12.500
0.897,51.500,-1.500,32.500,-15.000
0.898,51.000,-2.500,31.500,-17.000
0.899,50.500,-3.500,30.500,-18.000
0.900,50.500,-3.500,31.000,-18.000
0.901,51.000,-2.500,31.500,-17.000
0.902,52.500,-1.000,33.500,-15.000
0.903,54.000,1.000,35.500,-11.500
0.904,55.500,3.000,38.000,-8.000
0.905,57.000,5.000,40.000,-5.000
0.906,57.500,6.500,41.500,-2.500
0.907,58.000,7.000,42.500,-1.000
0.908,58.000,8.000,43.500,0.500
0.909,58.500,8.500,44.000,1.500
0.910,58.500,9.000,44.500,1.500
0.911,58.000,9.000,44.000,1.000
0.912,58.000,8.500,43.500,0.000
0.913,58.000,8.000,43.000,-1.000
0.914,58.000,8.000,42.500,-2.000
0.915,58.500,8.500,42.500,-2.500
0.916,59.000,8.000,42.000,-4.000
0.917,59.000,8.000,41.500,-5.000
0.918,59.500,8.000,41.500,-6.000
0.919,59.500,7.500,41.000,-7.000
0.920,59.500,7.500,41.000,-7.000
0.921,59.000,7.500,41.000,-7.000
0.922,59.500,7.500,41.500,-6.000
0.923,60.000,8.500,42.500,-4.000
0.924,61.000,10.000,44.000,-1.000
0.925,63.000,12.000,46.500,2.000
0.926,64.500,14.500,48.500,5.000
0.927,65.500,16.000,50.500,7.500
0.928,66.500,17.500,52.000,9.500
0.929,67.000,18.000,53.000,11.000
0.930,67.000,18.500,53.500,11.500
0.931,66.500,18.000,53.000,11.000
0.932,66.000,17.500,52.000,10.000
0.933,65.000,16.500,51.000,8.500
0.934,64.500,16.000,50.500,7.000
0.935,65.000,16.000,50.000,6.000
0.936,66.000,16.000,50.500,5.500
0.937,67.000,17.000,51.000,5.000
0.938,68.500,18.000,51.500,5.000
0.939,69.000,19.000,52.500,5.000
0.940,70.000,19.500,53.000,5.500
0.941,70.500,20.500,54.000,6.500
0.942,71.000,21.500,55.000,8.000
0.943,72.000,23.000,57.000,10.500
0.944,73.500,25.000,59.500,14.000
0.945,74.500,26.500,61.500,17.000
0.946,76.000,28.500,63.500,20.000
0.947,77.000,29.500,65.000,23.000
0.948,77.500,31.000,66.000,24.500
0.949,77.500,31.500,67.000,26.000
0.950,78.000,32.000,67.500,26.500
0.951,78.000,32.000,67.500,26.500
0.952,78.000,32.500,67.500,26.500
0.953,79.000,32.500,68.000,25.500
0.954,79.500,33.000,67.500,25.000
0.955,80.000,33.000,67.500,24.000
0.956,81.000,33.000,67.500,23.000
0.957,81.500,33.500,67.500,22.500
0.958,82.500,34.000,68.000,22.000
0.959,83.000,35.000,68.500,22.000
0.960,84.500,36.000,70.000,23.500
0.961,86.500,38.500,72.000,25.500
0.962,89.500,41.500,75.000,29.000
0.963,92.000,44.500,78.500,33.000
0.964,94.000,47.500,81.500,37.500
0.965,95.500,49.500,84.000,41.000
0.966,96.000,50.500,86.000,44.000
0.967,97.000,52.000,88.000,46.500
0.968,98.500,53.500,90.000,49.500
0.969,100.000,55.500,92.000,51.500
0.970,101.500,57.500,94.000,53.500
0.971,103.000,59.000,96.000,55.000
0.972,105.000,61.000,97.500,56.000
0.973,106.500,62.500,99.000,57.000
0.974,108.000,64.000,100.000,57.500
0.975,109.500,65.000,100.500,57.000
0.976,111.000,65.500,101.000,56.500
0.977,112.000,66.000,101.500,56.500
0.978,113.000,67.000,102.500,56.000
0.979,114.500,68.000,104.000,57.000
0.980,115.500,69.500,105.500,58.000
0.981,117.500,71.500,108.000,60.500
0.982,120.000,74.500,111.000,64.500
0.983,122.500,78.000,115.000,69.000
0.984,125.500,81.500,119.000,74.500
0.985,128.500,85.000,122.500,79.500
0.986,131.000,88.000,126.500,84.000
0.987,133.500,91.500,130.000,88.500
0.988,136.500,95.000,133.500,93.000
0.989,139.000,97.500,137.000,96.000
0.990,141.000,100.000,139.000,98.500
0.991,143.000,102.000,141.000,100.000
0.992,144.500,103.500,142.500,102.000
0.993,147.000,106.000,144.500,103.500
0.994,150.000,108.500,147.000,105.500
0.995,153.000,111.000,149.500,107.000
0.996,155.500,113.500,152.000,108.500
0.997,158.500,116.000,154.000,110.000
0.998,161.000,119.000,156.500,112.000
0.999,164.000,121.500,159.500,114.500
1.000,167.500,125.000,163.000,117.500
1.001,171.000,129.000,167.000,122.000
1.002,175.000,133.000,172.000,127.000
1.003,179.000,137.500,176.500,132.500
1.004,182.500,141.500,181.500,138.000
1.005,185.500,145.500,185.500,143.500
1.006,188.500,149.500,189.500,148.500
1.007,191.500,153.000,193.500,153.500
1.008,194.000,156.500,197.000,158.000
1.009,197.000,160.000,200.500,161.500
1.010,199.500,163.000,203.500,165.000
1.011,201.500,165.500,206.000,168.000
1.012,203.500,168.000,208.500,170.000
1.013,206.500,170.500,211.000,172.000
1.014,209.000,173.000,213.500,174.000
1.015,212.000,176.000,216.000,176.000
1.016,215.000,178.000,218.000,177.000
1.017,217.500,180.000,220.000,178.000
1.018,220.000,182.500,222.000,179.000
1.019,222.500,185.000,224.500,181.000
1.020,225.500,188.000,227.500,184.000
1.021,229.000,191.500,231.000,187.500
1.022,232.500,195.500,235.000,192.000
1.023,236.500,199.500,239.500,197.000
1.024,240.500,204.500,244.500,203.500
1.025,244.500,209.000,249.500,209.500
1.026,247.500,213.000,253.500,214.500
1.027,250.000,216.000,257.000,219.000
1.028,252.500,219.000,260.000,222.500
1.029,254.000,221.500,263.000,225.000
1.030,256.000,224.000,265.000,227.500
1.031,257.500,225.500,267.000,229.000
1.032,259.000,227.000,268.000,230.000
1.033,259.500,228.000,268.500,230.500
1.034,260.500,228.500,268.500,230.000
1.035,261.500,229.000,269.000,229.500
1.036,263.000,230.500,270.000,229.500
1.037,265.000,232.500,271.000,230.000
1.038,267.000,234.000,272.500,230.500
1.039,268.500,235.500,274.000,231.500
1.040,270.500,237.000,275.500,233.000
1.041,272.000,239.000,277.000,235.000
1.042,273.500,240.500,279.500,237.500
1.043,274.500,242.500,281.500,240.500
1.044,275.500,244.000,283.000,243.500
1.045,276.000,245.000,285.000,246.000
1.046,276.500,246.000,286.000,248.000
1.047,276.500,246.500,287.000,249.500
1.048,276.000,246.000,287.000,250.500
1.049,275.500,246.000,287.000,251.000
1.050,275.000,245.500,287.000,251.000
1.051,274.000,245.000,286.500,250.500
1.052,272.500,243.500,285.000,248.500
1.053,270.000,241.000,282.000,245.500
1.054,266.500,238.000,278.500,241.500
1.055,263.500,234.500,274.500,237.000
1.056,260.500,231.000,270.500,232.500
1.057,258.000,227.500,267.000,228.000
1.058,255.500,224.000,263.000,223.500
1.059,252.500,221.000,259.500,219.500
1.060,250.000,218.000,256.500,215.500
1.061,247.000,215.000,253.000,212.500
1.062,244.000,212.000,250.000,209.500
1.063,240.500,208.500,246.500,206.500
1.064,237.000,205.000,242.500,203.500
1.065,233.500,201.500,239.000,201.000
1.066,230.500,198.000,236.000,198.500
1.067,227.500,195.000,232.500,196.000
1.068,224.000,192.000,228.500,193.000
1.069,220.500,188.000,224.000,188.500
1.070,216.500,183.500,219.500,183.500
1.071,212.000,179.500,214.500,178.500
1.072,208.000,175.000,209.500,173.000
1.073,204.000,171.000,205.000,167.500
1.074,200.500,167.000,200.500,162.000
1.075,196.500,163.000,196.000,156.500
1.076,193.000,158.500,191.000,151.000
1.077,188.500,154.000,186.500,145.000
1.078,184.000,149.500,181.500,139.500
1.079,180.000,145.000,177.000,134.500
1.080,175.500,140.500,173.000,130.000
1.081,171.500,136.500,169.500,126.500
1.082,167.500,133.000,166.000,123.500
1.083,164.000,129.500,163.500,121.000
1.084,161.000,127.000,161.000,119.500
1.085,158.000,124.500,159.000,118.500
1.086,155.000,122.000,156.500,117.000
1.087,151.500,119.000,153.500,114.500
1.088,147.000,115.000,149.500,111.000
1.089,142.500,111.000,145.000,106.500
1.090,138.000,106.000,140.000,101.500
1.091,133.500,102.000,135.000,96.500
1.092,130.000,98.000,131.000,92.000
1.093,126.000,94.500,126.500,87.000
1.094,122.500,91.000,122.500,82.000
1.095,119.000,87.000,118.500,77.000
1.096,116.000,83.000,114.500,71.500
1.097,112.500,79.000,110.000,66.500
1.098,109.000,75.000,106.500,62.000
1.099,106.500,72.500,103.500,58.500
1.100,105.000,70.500,101.000,56.000
1.101,103.500,69.500,100.000,55.000
1.102,102.500,69.000,99.500,55.000
1.103,101.000,68.000,99.000,55.000
1.104,99.000,67.500,98.500,55.000
1.105,97.500,66.000,97.500,55.000
1.106,95.500,65.000,96.000,54.500
1.107,93.500,63.500,95.000,54.000
1.108,92.000,62.000,94.000,53.000
1.109,90.000,60.500,92.500,52.000
1.110,88.000,59.000,91.000,50.000
1.111,86.000,56.500,88.500,47.500
1.112,83.500,54.000,86.000,44.500
1.113,81.500,51.500,83.000,41.500
1.114,79.000,49.000,80.000,38.000
1.115,76.500,46.500,77.000,34.000
1.116,74.500,44.000,74.000,30.500
1.117,73.000,42.000,71.500,27.000
1.118,72.000,40.000,70.000,24.500
1.119,71.000,39.000,68.500,22.000
1.120,70.500,38.000,67.500,21.000
1.121,70.000,37.500,67.500,21.000
1.122,70.000,37.500,68.000,21.500
1.123,70.000,38.000,68.500,23.000
1.124,70.000,38.500,69.500,25.000
1.125,69.500,38.500,70.000,26.500
1.126,69.000,38.500,70.000,27.500
1.127,68.500,38.500,70.000,28.500
1.128,68.000,38.500,69.500,29.000
1.129,67.500,38.500,69.500,29.000
1.130,67.000,38.000,69.000,28.500
1.131,66.000,37.500,68.500,27.500
1.132,65.000,36.000,67.000,25.500
1.133,63.500,34.500,65.500,23.000
1.134,62.500,33.000,64.000,20.500
1.135,61.500,31.500,62.500,18.000
1.136,60.500,30.000,60.500,15.000
1.137,59.500,29.000,59.000,12.500
1.138,59.000,28.000,58.000,11.000
1.139,59.000,28.000,57.500,10.000
1.140,59.500,28.500,57.500,10.000
1.141,59.500,28.500,58.000,10.500
1.142,59.500,29.000,58.500,11.500
1.143,59.500,29.500,59.500,13.000
1.144,59.500,30.500,60.500,15.500
1.145,60.000,31.000,61.500,17.500
1.146,60.000,31.500,62.000,19.500
1.147,60.000,32.000,62.500,20.500
1.148,60.000,32.000,63.000,21.500
1.149,60.500,32.500,63.000,22.000
1.150,60.500,32.500,63.000,22.500
1.151,60.500,32.000,62.500,21.500
1.152,60.000,31.000,61.500,20.500
1.153,60.000,30.500,61.000,19.500
1.154,59.500,30.000,60.000,18.000
1.155,59.500,30.000,59.500,16.500
1.156,59.500,29.500,58.500,14.500
1.157,59.500,29.000,58.000,13.000
1.158,59.500,29.000,57.500,12.000
1.159,60.000,29.000,57.500,11.000
1.160,60.000,29.000,57.500,11.000
1.161,60.000,29.500,58.000,11.500
1.162,60.000,29.500,58.500,12.500
1.163,59.500,30.000,59.000,13.500
1.164,59.500,30.000,59.500,15.500
1.165,59.000,30.000,59.500,17.000
1.166,58.500,30.000,60.000,18.500
1.167,58.000,30.000,60.500,20.000
1.168,58.000,30.000,61.000,20.500
1.169,57.500,30.000,61.000,21.000
1.170,57.000,30.000,60.500,21.000
1.171,57.000,29.500,60.000,20.000
1.172,56.500,29.000,59.500,19.000
1.173,56.500,28.500,58.500,17.500
1.174,56.500,28.500,58.000,16.000
1.175,56.500,28.000,57.500,15.000
1.176,57.000,28.000,57.000,13.500
1.177,57.500,28.000,57.000,12.500
1.178,58.000,28.000,57.000,11.500
1.179,58.000,28.000,57.000,11.000
1.180,58.000,28.000,57.000,11.000
1.181,58.500,28.500,58.000,12.000
1.182,59.000,29.500,59.000,13.500
1.183,60.000,31.000,61.000,16.000
1.184,61.000,32.500,63.000,18.500
1.185,61.500,34.000,65.000,21.000
1.186,62.000,35.000,66.000,23.000
1.187,62.000,35.500,66.500,24.000
1.188,62.000,35.500,67.000,25.000
1.189,62.500,36.000,68.000,25.500
1.190,63.000,37.000,68.500,26.500
1.191,63.000,37.000,68.500,26.500
1.192,63.000,37.000,68.000,25.500
1.193,62.500,36.000,67.000,24.000
1.194,61.500,35.000,65.500,21.500
1.195,60.000,33.500,63.500,19.000
1.196,59.000,32.000,61.500,16.000
1.197,58.000,30.500,60.000,14.000
1.198,57.500,30.500,60.000,12.500
1.199,58.000,30.500,60.000,12.000
1.200,59.000,31.500,61.500,13.000
1.201,60.000,33.000,63.000,14.500
1.202,61.500,34.500,64.500,16.500
1.203,62.000,35.500,65.500,18.500
1.204,61.500,36.000,66.500,20.500
1.205,61.500,36.500,67.500,22.000
1.206,61.000,36.500,68.000,23.000
1.207,60.500,37.000,68.500,24.000
1.208,60.000,37.000,68.500,24.500
1.209,59.500,36.500,68.000,24.500
1.210,59.000,36.000,67.500,24.000
1.211,58.500,35.500,66.500,23.000
1.212,58.000,35.000,65.500,22.000
1.213,58.000,34.000,64.000,20.500
1.214,57.500,33.500,63.500,19.000
1.215,57.500,33.500,62.500,17.500
1.216,57.500,33.000,61.500,16.000
1.217,58.000,33.000,61.000,14.500
1.218,58.500,33.000,61.000,13.500
1.219,59.000,33.000,61.500,13.500
1.220,59.500,34.000,62.000,14.000
1.221,60.000,34.500,63.000,14.500
1.222,60.500,35.000,63.500,16.000
1.223,60.500,35.500,64.500,17.500
1.224,60.500,36.000,65.000,19.500
1.225,60.500,36.500,66.000,21.000
1.226,60.000,37.000,66.500,22.500
1.227,60.000,37.000,66.500,23.500
1.228,59.500,37.000,66.500,24.000
1.229,59.000,36.500,66.500,24.000
1.230,58.000,36.000,65.500,23.500
1.231,57.000,35.000,64.500,22.000
1.232,56.000,33.500,63.000,20.000
1.233,55.000,32.000,61.000,18.000
1.234,54.000,30.500,60.000,16.000
1.235,54.000,30.000,59.000,14.000
1.236,54.500,30.000,58.500,12.500
1.237,55.000,29.500,58.000,11.500
1.238,55.000,29.500,58.000,10.500
1.239,55.500,30.000,58.000,9.500
1.240,56.000,30.500,58.500,10.000
1.241,56.500,31.000,59.500,10.500
1.242,57.000,31.500,60.500,12.000
1.243,57.500,32.000,61.500,13.500
1.244,57.500,32.500,62.500,15.500
1.245,57.500,33.000,63.000,17.500
1.246,57.000,33.500,64.000,19.000
1.247,57.000,34.500,65.000,20.500
1.248,57.000,35.000,66.000,22.000
1.249,57.500,35.500,66.500,23.000
1.250,57.500,36.000,66.500,23.500
1.251,57.500,36.000,66.500,23.000
1.252,57.000,35.500,65.500,22.500
1.253,57.000,35.000,64.500,21.000
1.254,56.500,34.500,63.500,19.500
1.255,56.500,33.500,62.000,17.500
1.256,56.500,33.000,61.000,15.500
1.257,56.000,32.000,60.000,13.500
1.258,56.000,31.500,59.000,12.000
1.259,56.500,31.500,59.000,11.500
1.260,57.500,32.000,59.500,11.500
1.261,58.500,33.000,60.500,12.500
1.262,59.500,34.000,62.000,14.500
1.263,60.000,35.000,63.500,16.500
1.264,60.000,36.000,64.500,18.500
1.265,60.000,36.500,65.500,20.500
1.266,60.000,37.000,66.500,22.000
1.267,60.000,37.000,67.000,23.500
1.268,59.500,36.500,67.000,23.500
1.269,58.500,35.500,66.000,23.500
1.270,57.500,34.500,65.000,22.500
1.271,56.500,33.000,63.500,21.000
1.272,55.500,32.000,62.000,19.500
1.273,55.000,31.000,60.500,18.000
1.274,54.500,30.500,59.500,16.000
1.275,54.000,30.000,58.500,14.000
1.276,53.500,29.000,57.000,12.500
1.277,53.500,29.000,56.500,11.000
1.278,54.000,28.500,56.500,10.000
1.279,54.500,28.500,56.500,9.000
1.280,54.500,28.500,56.500,9.000
1.281,55.000,28.500,57.000,9.500
1.282,55.500,29.500,58.000,11.500
1.283,56.500,31.000,60.000,13.500
1.284,57.000,32.000,61.500,16.000
1.285,57.000,32.500,62.500,18.000
1.286,56.500,32.500,63.000,19.000
1.287,56.000,32.500,63.000,20.000
1.288,55.500,32.500,63.000,20.500
1.289,55.000,32.000,63.000,21.000
1.290,54.500,31.500,62.500,20.500
1.291,53.500,30.500,61.500,20.000
1.292,53.000,29.500,60.000,18.500
1.293,52.000,28.500,59.000,16.500
1.294,51.000,27.000,57.500,14.000
1.295,50.000,25.500,55.500,11.500
1.296,49.500,24.500,54.000,9.000
1.297,49.500,23.500,52.500,7.000
1.298,49.500,23.500,52.000,5.500
1.299,50.000,23.500,52.500,5.500
1.300,50.500,24.000,53.000,5.500
1.301,51.000,25.000,54.000,6.500
1.302,51.500,26.000,55.500,8.500
1.303,52.500,27.000,56.500,10.500
1.304,53.000,28.000,57.500,12.500
1.305,53.000,28.500,58.500,14.500
1.306,52.500,28.500,58.500,15.500
1.307,52.000,28.000,59.000,16.500
1.308,52.000,28.000,59.000,17.000
1.309,52.000,28.000,59.500,17.500
1.310,52.000,28.000,59.500,17.500
1.311,51.500,28.000,59.000,17.000
1.312,51.000,27.500,58.000,15.500
1.313,50.500,26.500,57.000,13.500
1.314,49.500,25.500,55.000,11.500
1.315,49.000,24.500,54.000,9.500
1.316,49.500,24.000,53.000,7.500
1.317,49.500,24.000,53.000,6.500
1.318,50.500,24.000,52.500,6.000
1.319,50.500,24.500,52.500,5.500
1.320,50.500,24.000,52.500,5.500
1.321,50.500,24.000,52.000,5.500
1.322,49.500,23.500,52.000,6.000
1.323,49.000,23.500,52.000,7.000
1.324,49.500,24.000,53.000,9.000
1.325,51.000,25.500,55.000,12.500
1.326,53.500,28.500,58.000,16.500
1.327,56.000,31.500,61.000,20.500
1.328,57.000,33.500,63.500,23.000
1.329,57.000,33.500,63.500,23.500
1.330,55.500,32.000,62.500,22.000
1.331,53.000,30.000,60.500,19.500
1.332,51.000,27.500,58.000,16.500
1.333,49.000,25.500,56.000,14.000
1.334,48.000,24.000,54.500,11.000
1.335,47.500,22.500,53.000,8.500
1.336,47.000,21.500,51.500,6.500
1.337,46.500,20.500,50.500,4.500
1.338,46.500,20.000,50.000,3.500
1.339,47.000,20.500,50.500,3.500
1.340,48.000,21.500,51.500,4.500
1.341,49.500,23.000,53.500,6.500
1.342,51.000,25.000,56.000,9.000
1.343,52.000,26.500,58.000,12.000
1.344,53.500,28.000,59.500,14.500
1.345,54.000,29.000,61.000,16.500
1.346,54.000,29.500,61.500,17.500
1.347,53.000,29.000,61.500,18.000
1.348,52.000,28.000,60.500,17.000
1.349,51.000,27.000,59.500,16.500
1.350,50.000,26.500,59.000,16.000
1.351,50.000,26.000,58.500,15.500
1.352,50.500,26.000,58.500,15.000
1.353,51.000,26.500,58.500,14.500
1.354,51.500,26.000,58.500,13.500
1.355,51.000,25.500,57.500,11.500
1.356,51.000,25.000,57.000,10.000
1.357,51.000,24.500,56.000,8.000
1.358,51.000,24.000,55.500,6.500
1.359,51.000,24.000,55.500,6.000
1.360,52.000,24.000,56.000,6.500
1.361,52.500,25.000,57.000,7.500
1.362,53.500,26.000,58.000,9.000
1.363,54.000,27.500,59.500,11.000
1.364,54.500,28.500,61.000,13.500
1.365,55.000,29.000,62.500,15.500
1.366,54.500,29.000,63.000,17.000
1.367,53.500,28.500,62.500,17.500
1.368,52.500,27.500,62.500,17.500
1.369,52.000,27.500,62.000,17.500
1.370,52.000,27.500,62.500,18.000
1.371,52.500,27.500,62.500,17.500
1.372,52.500,27.500,62.500,17.000
1.373,52.500,27.500,62.000,16.000
1.374,52.500,27.000,61.000,14.000
1.375,52.000,26.000,60.000,12.000
1.376,52.000,25.000,58.500,10.000
1.377,51.500,24.500,57.500,8.000
1.378,52.500,24.500,57.500,7.500
1.379,53.500,25.500,58.500,8.000
1.380,55.000,27.000,60.500,9.500
1.381,57.000,29.000,62.500,11.500
1.382,58.500,31.000,65.000,14.500
1.383,60.000,33.000,68.000,17.500
1.384,61.500,35.000,70.500,21.000
1.385,63.000,37.000,73.000,24.500
1.386,65.000,39.500,76.000,28.500
1.387,68.000,43.000,79.500,33.000
1.388,71.000,46.500,83.000,37.000
1.389,74.500,50.000,86.500,41.000
1.390,77.000,52.000,89.000,43.500
1.391,78.000,53.000,89.500,44.000
1.392,78.500,53.500,89.500,43.500
1.393,78.500,52.500,88.500,42.500
1.394,78.000,51.500,87.000,40.000
1.395,77.500,50.000,85.500,37.500
1.396,77.000,49.000,84.500,35.500
1.397,77.500,49.000,84.000,34.000
1.398,78.500,49.500,85.000,33.500
1.399,80.000,50.500,86.000,34.500
1.400,81.000,52.000,87.500,35.500
1.401,82.500,53.000,89.000,37.000
1.402,84.000,55.000,91.000,40.000
1.403,85.500,57.000,93.500,43.000
1.404,87.500,59.500,96.500,47.000
1.405,89.000,61.500,99.500,50.500
1.406,90.500,63.500,102.000,54.000
1.407,92.500,66.000,104.500,57.000
1.408,95.000,68.500,107.500,60.500
1.409,97.500,71.000,110.500,63.500
1.410,99.500,73.000,112.500,65.500
1.411,100.500,74.000,113.000,66.000
1.412,101.000,74.500,113.500,66.000
1.413,102.000,75.500,114.000,65.500
1.414,104.000,77.000,115.500,66.000
1.415,107.000,79.500,117.500,67.000
1.416,110.000,81.500,119.500,68.500
1.417,112.000,83.500,121.000,69.000
1.418,113.500,84.500,122.000,69.000
1.419,113.500,84.000,121.500,68.500
1.420,112.500,83.500,121.000,67.500
1.421,111.500,82.000,120.000,66.500
1.422,110.000,81.000,119.500,66.000
1.423,109.000,80.000,119.500,66.500
1.424,108.500,80.000,120.000,68.000
1.425,109.000,81.000,122.000,70.500
1.426,111.000,83.000,124.500,73.500
1.427,113.000,85.500,127.500,77.000
1.428,114.500,87.500,129.500,79.500
1.429,116.000,88.500,131.000,81.000
1.430,116.000,88.500,131.000,81.000
1.431,114.500,87.500,129.500,79.500
1.432,112.500,85.000,127.000,77.000
1.433,110.000,82.500,124.500,74.000
1.434,108.500,80.500,122.000,70.500
1.435,106.500,78.000,119.500,67.000
1.436,104.500,76.000,117.500,64.000
1.437,103.000,74.000,115.000,60.500
1.438,101.000,72.000,113.000,57.500
1.439,100.000,71.000,111.500,55.500
1.440,100.000,70.500,111.000,55.000
1.441,100.000,70.500,111.000,55.500
1.442,99.500,70.000,111.000,56.000
1.443,98.500,69.500,110.500,56.000
1.444,97.000,68.000,110.000,55.500
1.445,94.500,66.500,108.500,55.000
1.446,92.000,64.500,107.500,54.000
1.447,90.000,63.000,106.500,53.500
1.448,88.000,61.000,105.500,52.500
1.449,86.000,59.000,103.500,50.500
1.450,83.500,56.500,101.000,48.000
1.451,80.500,53.500,97.500,44.500
1.452,77.500,50.000,94.000,41.000
1.453,75.000,47.000,90.500,37.000
1.454,73.000,44.000,87.500,33.000
1.455,70.500,41.000,84.000,28.500
1.456,68.000,38.000,81.000,24.500
1.457,65.500,35.500,78.000,21.000
1.458,64.000,33.000,75.500,17.500
1.459,62.000,31.000,73.500,15.000
1.460,60.500,29.000,71.500,13.500
1.461,59.000,27.500,70.000,12.500
1.462,57.500,26.000,69.000,11.500
1.463,56.000,25.000,68.000,11.500
1.464,54.500,24.500,67.500,12.000
1.465,54.000,24.000,68.000,13.000
1.466,53.500,23.500,68.000,14.000
1.467,52.500,23.000,68.000,14.500
1.468,51.500,22.000,67.000,14.000
1.469,50.000,21.000,66.000,13.000
1.470,49.000,19.500,65.000,12.000
1.471,48.000,19.000,64.000,10.500
1.472,47.500,18.000,63.000,9.000
1.473,47.000,17.000,62.000,7.500
1.474,46.500,16.000,60.500,5.500
1.475,45.500,14.000,59.000,2.500
1.476,44.000,12.500,57.000,-0.500
1.477,43.000,10.500,55.000,-3.000
1.478,42.500,9.500,53.500,-5.000
1.479,42.500,9.000,53.500,-6.000
1.480,43.000,9.500,53.500,-6.000
1.481,44.000,10.000,55.000,-4.500
1.482,44.500,11.500,56.500,-2.500
1.483,45.000,12.000,57.500,0.000
1.484,45.500,13.000,59.000,2.000
1.485,45.000,13.500,60.000,4.000
1.486,44.500,13.500,61.000,5.500
1.487,43.500,13.500,61.500,7.000
1.488,43.000,13.000,61.500,7.500
1.489,42.000,12.500,61.000,7.500
1.490,40.500,11.500,60.500,6.500
1.491,39.000,10.000,59.000,5.500
1.492,37.500,8.000,57.500,3.500
1.493,36.500,6.500,56.000,1.000
1.494,36.000,5.000,55.000,-1.000
1.495,36.000,4.500,54.000,-3.000
1.496,35.500,3.500,52.500,-5.000
1.497,34.500,1.500,50.000,-8.500
1.498,32.000,-1.500,46.500,-12.500
1.499,29.500,-5.000,42.500,-17.000
1.500,26.500,-8.000,39.000,-21.000
1.501,24.000,-11.000,36.000,-24.000
1.502,22.500,-13.000,34.000,-25.500
1.503,21.500,-13.500,33.000,-26.000
1.504,22.000,-12.500,33.500,-24.500
1.505,24.000,-10.500,36.000,-21.500
1.506,28.500,-6.000,40.000,-16.500
1.507,34.500,0.500,46.500,-9.500
1.508,42.500,8.500,54.500,-1.000
1.509,52.000,17.500,64.000,9.000
1.510,61.500,27.500,74.000,19.500
1.511,71.500,37.500,84.500,29.500
1.512,80.500,46.500,94.000,39.000
1.513,89.500,56.000,103.500,48.000
1.514,98.500,65.500,113.000,57.000
1.515,108.500,75.500,123.500,66.500
1.516,119.500,87.000,135.500,77.500
1.517,132.000,99.500,149.000,90.000
1.518,147.500,115.500,165.000,106.000
1.519,166.000,134.500,185.000,126.000
1.520,188.000,157.000,208.500,150.500
1.521,212.000,181.500,234.000,177.000
1.522,236.500,207.000,260.500,205.000
1.523,261.500,233.500,288.000,234.500
1.524,288.500,261.500,317.500,265.500
1.525,318.000,292.000,349.500,299.000
1.526,350.500,325.500,384.500,335.500
1.527,386.500,362.000,422.500,375.000
1.528,424.500,401.000,462.500,416.500
1.529,464.000,441.000,504.000,459.000
1.530,503.000,481.000,544.500,500.500
1.531,539.500,518.000,582.500,539.000
1.532,571.000,550.500,615.000,571.500
1.533,594.500,574.000,639.000,595.000
1.534,608.000,587.000,651.500,607.000
1.535,608.000,587.000,651.000,605.000
1.536,594.500,572.500,635.500,588.000
1.537,568.500,545.500,607.500,558.500
1.538,534.000,509.500,570.500,519.500
1.539,495.000,469.500,529.000,476.000
1.540,454.500,428.000,486.000,432.000
1.541,415.500,388.000,445.000,390.000
1.542,379.000,350.000,406.000,350.500
1.543,344.500,315.500,370.000,314.500
1.544,312.500,282.500,336.500,281.500
1.545,281.000,250.500,304.000,249.000
1.546,249.500,218.500,271.500,217.000
1.547,218.000,186.000,239.000,184.000
1.548,186.000,153.500,206.000,151.000
1.549,155.000,122.000,174.500,119.000
1.550,127.500,93.500,146.000,90.500
1.551,104.000,69.500,121.500,66.000
1.552,84.500,49.500,101.500,45.000
1.553,68.000,32.500,84.000,27.500
1.554,54.000,18.000,68.500,11.000
1.555,41.000,4.000,54.500,-4.000
1.556,29.000,-8.500,41.000,-18.500
1.557,18.000,-20.000,29.000,-31.500
1.558,8.000,-30.500,18.500,-43.000
1.559,0.000,-39.000,9.500,-52.000
1.560,-6.500,-45.500,3.500,-58.500
1.561,-10.500,-49.500,-0.500,-62.500
1.562,-13.500,-52.000,-2.500,-64.000
1.563,-15.000,-53.000,-3.000,-63.500
1.564,-16.000,-53.500,-2.500,-63.000
1.565,-16.500,-53.500,-2.000,-61.500
1.566,-16.500,-53.000,-1.000,-59.500
1.567,-15.500,-51.500,1.000,-56.500
1.568,-13.500,-49.000,3.500,-53.500
1.569,-11.000,-46.500,6.500,-50.000
1.570,-8.500,-44.000,9.500,-47.000
1.571,-6.000,-41.500,12.000,-44.500
1.572,-3.000,-39.000,14.500,-42.000
1.573,0.000,-36.500,17.000,-40.000
1.574,3.000,-34.000,19.500,-38.000
1.575,6.000,-31.500,21.500,-37.000
1.576,8.000,-30.000,22.500,-36.500
1.577,10.000,-28.500,24.000,-36.000
1.578,11.500,-27.000,25.500,-35.000
1.579,13.500,-25.500,27.000,-34.000
1.580,15.000,-24.000,28.500,-32.500
1.581,16.000,-22.500,30.000,-31.000
1.582,17.000,-21.500,31.500,-28.500
1.583,18.500,-19.500,34.000,-25.500
1.584,20.000,-17.500,36.500,-21.500
1.585,22.000,-15.000,39.500,-18.000
1.586,23.500,-13.000,41.500,-15.000
1.587,24.000,-12.000,43.000,-13.000
1.588,24.000,-11.500,43.500,-12.500
1.589,24.000,-11.500,43.500,-12.500
1.590,23.000,-12.000,43.000,-13.000
1.591,22.500,-12.500,42.000,-14.000
1.592,22.000,-13.500,41.500,-15.000
1.593,21.500,-14.500,40.500,-16.500
1.594,21.500,-15.000,40.000,-18.000
1.595,21.500,-15.500,39.500,-19.500
1.596,21.500,-16.000,39.000,-21.000
1.597,21.500,-16.500,38.500,-22.500
1.598,22.000,-16.500,38.000,-23.500
1.599,22.500,-16.500,38.000,-24.000
1.600,23.000,-16.500,38.000,-24.000
1.601,23.500,-16.000,38.500,-23.000
1.602,24.000,-15.000,39.500,-21.000
1.603,24.500,-14.000,41.000,-19.000
1.604,25.000,-13.000,42.500,-16.500
1.605,25.500,-12.000,44.000,-14.000
1.606,26.000,-11.500,45.000,-12.000
1.607,26.000,-11.000,45.500,-10.500
1.608,25.500,-10.500,46.000,-10.000
1.609,25.000,-11.000,45.500,-10.500
1.610,24.500,-11.500,45.500,-11.000
1.611,24.500,-11.500,45.000,-11.000
1.612,24.500,-11.000,45.500,-11.500
1.613,25.000,-11.000,45.500,-11.500
1.614,25.500,-11.000,45.000,-12.500
1.615,25.500,-11.000,44.500,-14.000
1.616,25.500,-11.500,43.500,-15.500
1.617,25.500,-12.000,43.000,-16.500
1.618,26.500,-11.500,43.500,-17.000
1.619,27.500,-10.500,44.000,-16.500
1.620,29.000,-9.000,45.500,-15.500
1.621,30.000,-8.000,47.000,-14.000
1.622,31.500,-6.500,48.500,-12.000
1.623,32.000,-5.500,50.000,-9.500
1.624,33.000,-4.500,51.500,-7.500
1.625,33.000,-4.000,52.500,-5.500
1.626,33.000,-3.500,53.500,-3.500
1.627,33.000,-3.000,54.000,-2.000
1.628,33.000,-2.500,54.000,-1.000
1.629,33.000,-3.000,54.000,-0.500
1.630,32.000,-3.500,53.500,-1.500
1.631,31.000,-4.500,52.500,-2.500
1.632,30.500,-5.500,51.000,-4.000
1.633,30.000,-6.500,50.000,-5.500
1.634,30.000,-6.500,49.500,-7.000
1.635,30.500,-6.500,49.000,-8.000
1.636,31.500,-6.000,49.000,-9.000
1.637,32.000,-6.000,49.000,-10.000
1.638,32.500,-6.000,49.000,-11.000
1.639,33.000,-5.500,49.500,-11.000
1.640,34.000,-5.000,50.500,-10.500
1.641,34.500,-4.000,51.500,-9.000
1.642,35.500,-2.500,53.000,-7.000
1.643,36.500,-1.500,54.500,-4.500
1.644,36.500,-0.500,56.000,-2.500
1.645,36.500,0.500,57.000,-0.500
1.646,36.500,0.500,57.500,1.500
1.647,36.500,1.000,58.000,3.000
1.648,36.500,1.500,59.000,4.500
1.649,37.000,2.000,60.000,5.500
1.650,38.000,2.500,60.500,6.000
1.651,38.500,3.000,61.000,6.500
1.652,38.500,3.000,61.000,6.000
1.653,39.000,3.000,60.500,5.500
1.654,39.000,3.000,60.000,4.500
1.655,39.000,2.500,59.000,3.000
1.656,39.000,2.000,58.500,2.000
1.657,39.500,2.000,58.500,0.500
1.658,39.500,2.000,58.000,-0.500
1.659,40.000,2.000,58.500,-0.500
1.660,40.000,2.500,58.500,-0.500
1.661,40.500,3.000,59.500,1.000
1.662,41.000,3.500,60.500,3.000
1.663,41.500,5.000,62.500,5.500
1.664,43.000,6.500,64.500,8.500
1.665,44.000,8.000,66.500,11.500
1.666,45.000,9.500,68.500,14.000
1.667,46.000,10.500,70.000,16.000
1.668,47.000,11.500,71.000,17.500
1.669,47.500,12.000,71.500,18.500
1.670,47.500,12.000,71.500,18.500
1.671,47.500,12.000,71.000,18.000
1.672,47.500,12.000,70.500,17.000
1.673,48.000,12.000,70.500,16.500
1.674,49.000,12.500,71.000,16.500
1.675,50.000,13.000,71.500,16.000
1.676,51.000,13.500,72.000,16.000
1.677,52.500,14.500,73.000,15.500
1.678,54.000,15.000,74.000,16.000
1.679,55.500,16.000,75.000,17.000
1.680,57.000,17.500,76.500,18.500
1.681,58.000,18.500,78.000,20.500
1.682,59.500,20.500,80.000,23.500
1.683,61.500,22.500,82.500,27.000
1.684,63.000,25.000,85.000,30.500
1.685,64.500,27.000,87.500,34.000
1.686,65.500,29.000,89.500,36.500
1.687,66.500,30.000,90.500,38.500
1.688,67.000,30.500,91.000,40.000
1.689,67.500,31.000,91.500,40.500
1.690,68.000,31.500,92.000,41.000
1.691,68.500,32.000,92.500,41.000
1.692,69.000,32.000,92.500,41.000
1.693,69.000,32.500,92.500,40.000
1.694,70.000,32.500,93.000,39.500
1.695,70.500,33.000,93.000,39.000
1.696,71.500,33.500,93.000,38.500
1.697,72.000,34.000,93.000,38.000
1.698,73.000,35.000,93.500,38.000
1.699,74.500,36.500,94.500,39.000
1.700,77.000,38.500,97.000,41.500
1.701,79.500,41.500,100.000,45.000
1.702,82.500,44.500,103.000,49.000
1.703,84.500,47.000,106.000,53.000
1.704,87.000,49.500,109.500,57.000
1.705,88.500,52.500,112.500,61.500
1.706,90.500,54.500,115.500,65.000
1.707,92.000,57.000,117.500,68.500
1.708,93.500,58.500,120.000,71.000
1.709,95.000,60.000,121.500,73.000
1.710,96.500,61.500,123.500,75.000
1.711,98.500,63.500,125.500,76.500
1.712,101.000,65.000,127.500,78.500
1.713,103.000,67.000,129.000,80.000
1.714,105.000,68.500,130.500,80.500
1.715,106.500,70.000,131.500,81.000
1.716,108.000,71.000,132.500,81.000
1.717,110.000,72.000,134.000,82.000
1.718,112.500,74.000,136.000,83.500
1.719,115.500,77.000,139.000,86.000
1.720,119.000,80.000,142.500,89.500
1.721,122.500,84.000,147.000,94.000
1.722,126.500,88.000,152.000,99.500
1.723,129.500,92.000,156.000,104.500
1.724,132.500,95.500,160.000,109.500
1.725,134.500,98.000,163.000,113.500
1.726,136.500,100.500,166.000,117.500
1.727,139.000,103.500,169.000,121.500
1.728,142.500,107.000,173.000,125.500
1.729,146.500,111.500,177.000,130.000
1.730,150.500,115.500,181.500,134.500
1.731,154.000,119.000,185.000,138.000
1.732,157.000,122.000,188.000,141.000
1.733,160.000,125.000,190.000,143.000
1.734,162.500,127.500,192.500,144.500
1.735,165.500,130.500,194.500,146.000
1.736,168.500,133.000,197.500,148.000
1.737,171.500,136.000,200.500,150.500
1.738,174.500,139.000,203.500,153.000
1.739,177.500,142.000,207.000,156.000
1.740,180.500,145.000,210.500,159.500
1.741,183.500,148.000,214.000,163.000
1.742,186.500,151.500,217.500,167.500
1.743,189.500,155.000,221.500,172.000
1.744,192.500,158.500,225.000,177.500
1.745,195.500,162.000,229.000,182.000
1.746,198.000,165.000,232.500,186.500
1.747,200.000,167.500,235.500,190.000
1.748,202.500,170.000,238.000,193.000
1.749,205.000,172.500,240.500,195.500
1.750,207.000,175.000,243.000,198.000
1.751,209.500,177.000,245.000,200.000
1.752,211.500,179.000,247.000,201.500
1.753,213.500,180.500,248.500,202.500
1.754,216.000,182.500,250.500,203.500
1.755,218.500,185.500,253.000,205.500
1.756,222.000,188.000,255.500,207.500
1.757,225.500,191.000,258.500,209.500
1.758,228.000,193.500,260.500,211.000
1.759,229.000,194.500,261.500,211.500
1.760,229.500,194.500,262.000,211.500
1.761,229.500,195.000,262.000,212.000
1.762,229.500,196.000,262.500,213.500
1.763,231.000,197.500,264.500,216.500
1.764,232.500,200.000,267.000,220.500
1.765,235.000,202.500,270.000,225.000
1.766,237.500,205.000,273.500,229.000
1.767,239.500,207.500,276.000,232.000
1.768,240.500,209.000,277.500,234.000
1.769,241.500,209.500,278.500,235.000
1.770,241.500,210.000,279.000,235.000
1.771,241.000,209.500,278.500,234.000
1.772,240.000,208.500,277.500,232.500
1.773,239.500,207.500,276.000,230.500
1.774,239.000,206.500,274.500,228.500
1.775,238.500,205.500,273.500,226.500
1.776,238.000,204.000,272.000,224.500
1.777,237.000,202.500,270.500,222.000
1.778,236.000,201.000,268.500,219.500
1.779,234.500,199.000,266.500,217.500
1.780,232.500,197.500,264.500,215.500
1.781,231.000,196.500,263.000,214.000
1.782,229.500,195.500,262.000,213.500
1.783,228.000,194.000,261.000,213.500
1.784,226.000,192.500,260.000,213.500
1.785,224.000,191.000,258.500,213.000
1.786,221.000,188.500,256.500,211.500
1.787,217.500,185.000,253.500,209.000
1.788,213.500,181.000,249.000,205.000
1.789,209.000,176.500,244.500,200.500
1.790,204.000,171.500,239.000,195.000
1.791,199.000,166.500,234.000,189.500
1.792,194.500,161.500,228.000,183.500
1.793,190.000,156.500,222.500,177.500
1.794,185.500,152.000,217.500,171.500
1.795,182.000,147.500,212.500,166.000
1.796,178.500,143.500,208.000,160.500
1.797,175.000,139.000,203.500,155.000
1.798,170.500,134.500,199.000,149.500
1.799,166.000,130.000,194.000,144.000
1.800,161.500,125.500,189.500,139.500
1.801,157.000,121.500,185.000,135.500
1.802,153.000,117.500,181.000,132.000
1.803,149.000,114.000,177.500,129.500
1.804,145.000,110.500,174.000,127.000
1.805,141.000,107.000,170.000,124.000
1.806,137.000,103.000,166.500,121.500
1.807,133.000,99.500,163.000,118.000
1.808,129.000,96.000,159.500,115.000
1.809,125.500,92.500,155.500,111.000
1.810,121.000,88.500,151.500,106.500
1.811,116.500,84.000,146.500,101.500
1.812,112.000,79.000,141.500,95.500
1.813,107.500,74.000,136.500,89.500
1.814,103.000,69.000,131.000,83.000
1.815,99.000,64.000,126.000,76.500
1.816,95.000,59.500,121.000,71.000
1.817,91.500,55.500,116.500,66.000
1.818,88.500,52.000,113.000,61.500
1.819,85.500,49.000,109.500,57.500
1.820,82.500,46.000,106.500,54.500
1.821,80.000,44.000,104.000,52.500
1.822,77.500,42.000,102.000,51.000
1.823,75.000,40.000,100.500,50.000
1.824,72.500,37.500,98.500,49.000
1.825,69.500,35.500,96.500,48.000
1.826,67.000,33.000,95.000,47.000
1.827,64.500,30.500,92.500,45.500
1.828,62.000,28.500,90.500,43.500
1.829,59.500,26.000,88.500,41.000
1.830,57.000,23.500,86.000,38.500
1.831,55.000,21.500,83.500,36.000
1.832,53.000,19.500,81.500,33.000
1.833,50.500,17.000,78.500,29.500
1.834,48.500,14.000,75.500,25.500
1.835,46.000,11.500,72.500,21.500
1.836,43.500,8.500,69.000,17.000
1.837,41.500,6.000,66.000,13.500
1.838,39.500,4.000,63.500,10.500
1.839,38.500,2.500,62.000,8.000
1.840,37.500,1.500,60.500,7.000
1.841,37.000,1.500,60.500,7.000
1.842,36.500,1.500,60.500,7.500
1.843,36.000,2.000,60.500,9.000
1.844,35.500,2.000,61.000,10.000
1.845,34.500,1.500,60.500,11.000
1.846,33.000,0.500,60.000,11.000
1.847,31.500,-0.500,59.500,10.500
1.848,30.000,-1.500,58.500,9.500
1.849,28.500,-2.500,57.500,8.500
1.850,27.000,-4.000,56.000,7.000
1.851,25.500,-5.500,54.000,5.500
1.852,24.500,-7.000,53.000,3.500
1.853,24.000,-8.000,51.500,2.000
1.854,24.000,-8.500,50.500,0.500
1.855,24.500,-8.500,50.000,-1.000
1.856,25.500,-8.000,49.500,-2.000
1.857,26.000,-8.000,49.500,-3.000
1.858,25.500,-8.500,49.000,-4.000
1.859,25.000,-9.500,47.500,-5.500
1.860,23.500,-11.000,46.500,-7.000
1.861,23.000,-11.500,46.000,-7.000
1.862,23.000,-11.000,46.500,-6.000
1.863,23.500,-10.000,47.500,-3.500
1.864,24.000,-9.000,49.000,-1.500
1.865,24.500,-8.000,50.000,1.000
1.866,24.500,-7.000,50.500,2.500
1.867,24.500,-7.000,51.000,3.500
1.868,24.000,-7.000,51.000,4.000
1.869,24.000,-7.000,50.500,4.500
1.870,23.500,-7.500,50.500,4.000
1.871,23.500,-7.500,49.500,3.000
1.872,23.000,-8.500,48.500,1.500
1.873,22.000,-9.500,47.000,-1.000
1.874,21.000,-11.000,45.500,-3.500
1.875,20.000,-12.500,43.500,-6.500
1.876,19.000,-14.000,42.000,-9.500
1.877,18.500,-14.500,40.500,-11.500
1.878,18.500,-15.000,40.000,-12.500
1.879,19.000,-15.000,40.000,-13.000
1.880,20.000,-14.000,41.000,-12.000
1.881,21.000,-13.000,42.500,-10.500
1.882,22.000,-12.000,43.500,-8.500
1.883,22.500,-11.000,45.000,-6.500
1.884,22.500,-10.500,46.000,-4.500
1.885,23.000,-10.000,47.000,-2.500
1.886,23.000,-9.500,47.500,-0.500
1.887,22.500,-9.000,48.000,0.500
1.888,22.500,-9.000,48.000,0.500
1.889,22.000,-9.000,48.000,0.500
1.890,21.500,-9.000,47.000,-0.500
1.891,21.000,-9.500,46.000,-1.500
1.892,20.500,-10.500,45.000,-3.000
1.893,19.500,-11.500,44.000,-4.500
1.894,19.000,-12.500,42.500,-6.500
1.895,18.500,-13.500,41.500,-8.500
1.896,18.500,-14.000,41.000,-10.000
1.897,18.500,-14.000,40.500,-11.000
1.898,19.000,-14.000,40.500,-11.500
1.899,19.500,-13.500,40.500,-11.500
1.900,20.000,-13.000,41.000,-11.000
1.901,20.000,-12.500,42.000,-10.000
1.902,20.500,-12.000,42.500,-8.000
1.903,20.500,-11.500,43.500,-6.500
1.904,20.500,-11.000,44.000,-4.500
1.905,20.000,-11.000,44.500,-3.500
1.906,19.500,-11.000,44.500,-2.000
1.907,19.000,-11.000,44.500,-1.500
1.908,19.000,-11.000,44.500,-1.500
1.909,18.000,-11.000,44.000,-1.500
1.910,17.500,-11.500,43.000,-2.500
1.911,17.000,-12.500,42.000,-4.000
1.912,16.500,-13.000,41.000,-5.500
1.913,16.000,-13.500,40.000,-7.000
1.914,16.000,-14.000,39.000,-9.000
1.915,16.000,-14.500,38.000,-10.000
1.916,16.500,-14.500,37.500,-11.500
1.917,16.500,-15.000,37.500,-12.500
1.918,16.500,-15.000,37.500,-13.500
1.919,17.000,-14.500,37.500,-13.500
1.920,18.000,-13.500,38.500,-12.500
1.921,19.000,-12.000,40.000,-11.000
1.922,20.000,-10.500,42.000,-8.500
1.923,21.000,-9.500,43.500,-6.000
1.924,21.000,-8.000,44.500,-3.500
1.925,21.000,-7.500,45.500,-1.500
1.926,20.500,-7.500,46.000,-0.500
1.927,20.000,-7.000,46.000,0.500
1.928,19.500,-7.000,46.500,1.500
1.929,19.500,-7.000,46.500,2.000
1.930,19.500,-7.000,46.500,2.500
1.931,19.500,-6.500,46.500,2.500
1.932,19.500,-6.500,46.500,2.000
1.933,19.500,-7.000,46.500,1.000
1.934,19.500,-7.000,46.000,0.000
1.935,19.500,-7.000,46.000,-1.000
1.936,19.500,-7.000,46.000,-2.000
1.937,20.000,-7.000,45.500,-3.000
1.938,19.500,-7.500,45.000,-4.500
1.939,19.500,-8.000,44.000,-5.500
1.940,19.500,-8.500,43.000,-6.000
1.941,20.000,-8.500,43.000,-6.000
1.942,20.500,-7.500,43.500,-5.000
1.943,22.000,-6.000,44.500,-3.000
1.944,23.500,-4.000,46.000,-0.500
1.945,25.500,-1.500,48.500,3.000
1.946,28.000,1.000,51.000,6.500
1.947,29.500,3.000,52.500,8.500
1.948,30.000,3.000,52.500,8.500
1.949,28.500,2.000,50.500,7.000
1.950,27.000,0.000,48.000,4.500
1.951,25.500,-1.500,46.500,3.000
1.952,26.000,-1.500,46.000,2.500
1.953,27.000,0.000,47.500,3.000
1.954,28.500,1.500,48.500,3.000
1.955,28.000,1.000,48.000,1.500
1.956,25.000,-2.000,45.000,-2.500
1.957,21.500,-6.000,41.000,-7.000
1.958,19.500,-9.000,38.500,-10.000
1.959,19.500,-9.000,38.500,-10.500
1.960,22.000,-6.500,41.000,-7.500
1.961,26.000,-2.500,45.500,-3.000
1.962,28.500,0.500,48.500,1.000
1.963,28.000,1.000,50.000,3.000
1.964,25.000,-1.000,48.000,2.000
1.965,21.000,-4.500,45.500,0.500
1.966,18.000,-7.000,43.500,-1.000
1.967,16.500,-8.000,42.500,-1.000
1.968,16.000,-8.000,43.000,-0.500
1.969,16.000,-7.000,43.500,0.500
1.970,17.000,-6.000,44.500,1.500
1.971,19.000,-4.000,46.000,2.500
1.972,21.000,-2.000,47.500,4.000
1.973,23.000,-0.500,48.500,5.000
1.974,24.500,0.000,49.000,5.000
1.975,24.500,-0.500,48.000,3.000
1.976,23.500,-2.500,46.000,0.500
1.977,21.000,-5.500,42.500,-3.500
1.978,17.500,-9.000,39.000,-8.000
1.979,14.500,-12.000,36.000,-11.500
1.980,13.000,-13.500,34.500,-13.500
1.981,13.000,-13.000,35.000,-13.000
1.982,14.500,-11.500,36.500,-10.500
1.983,15.500,-10.000,38.500,-7.500
1.984,16.000,-8.500,40.000,-4.500
1.985,16.000,-7.500,41.000,-2.500
1.986,16.000,-7.000,41.500,-1.000
1.987,16.000,-6.500,42.000,0.500
1.988,16.000,-6.500,42.500,1.500
1.989,16.000,-6.000,43.000,2.000
1.990,16.000,-6.000,42.500,1.500
1.991,15.000,-7.000,41.500,0.500
1.992,14.000,-8.000,40.000,-1.500
1.993,13.000,-9.500,38.500,-4.000
1.994,12.000,-11.000,37.000,-6.500
1.995,11.500,-12.000,35.500,-8.500
1.996,11.500,-13.000,34.000,-10.500
1.997,11.000,-13.500,33.500,-12.500
1.998,11.500,-14.000,33.000,-13.500
1.999,11.500,-14.000,32.500,-14.500
2.000,12.000,-13.500,33.000,-14.000
2.001,12.500,-13.000,34.000,-13.000
2.002,13.500,-11.500,35.500,-11.000
2.003,14.000,-10.500,37.000,-8.500
2.004,14.500,-9.000,38.000,-6.000
2.005,14.500,-8.500,39.000,-4.500
2.006,14.000,-8.500,39.500,-3.000
2.007,13.000,-8.500,39.500,-2.500
2.008,12.500,-9.000,39.000,-2.500
2.009,12.000,-9.000,38.500,-2.500
2.010,12.000,-9.500,38.500,-3.000
2.011,11.500,-10.000,37.500,-3.500
2.012,11.500,-11.000,37.000,-5.000
2.013,11.000,-12.000,36.000,-6.500
2.014,10.500,-12.500,35.000,-8.000
2.015,10.500,-13.500,34.000,-9.500
2.016,10.500,-14.000,33.000,-11.000
2.017,10.500,-14.500,32.500,-12.500
2.018,10.500,-14.500,32.000,-14.000
2.019,10.500,-15.000,31.500,-14.500
2.020,10.500,-14.500,32.000,-14.500
2.021,11.000,-14.000,32.500,-13.500
2.022,11.500,-13.000,34.000,-11.500
2.023,12.000,-12.000,36.000,-9.000
2.024,12.500,-11.000,37.500,-6.500
2.025,13.000,-10.500,38.500,-4.500
2.026,13.000,-10.000,39.500,-3.000
2.027,13.500,-9.000,40.500,-2.000
2.028,13.500,-8.500,41.500,-1.000
2.029,14.500,-7.500,42.000,0.000
2.030,15.000,-7.000,42.500,0.500
2.031,15.500,-6.500,42.000,0.500
2.032,15.000,-7.000,41.500,-0.500
2.033,14.500,-7.500,40.000,-2.500
2.034,14.500,-8.500,38.500,-4.500
2.035,15.000,-8.500,38.000,-5.500
2.036,16.500,-7.000,39.000,-5.000
2.037,20.000,-4.000,42.000,-3.000
2.038,24.000,-0.500,45.500,-0.500
2.039,26.000,2.000,47.500,1.500
2.040,25.000,1.500,47.000,1.000
2.041,21.000,-2.500,43.000,-3.000
2.042,14.500,-8.500,37.500,-8.000
2.043,8.000,-15.000,31.500,-13.000
2.044,3.000,-19.500,27.500,-16.000
2.045,1.500,-20.500,26.500,-15.500
2.046,3.000,-18.500,29.000,-12.500
2.047,7.500,-13.500,34.000,-6.500
2.048,14.000,-7.000,40.500,0.500
2.049,20.000,-1.000,46.000,6.000
2.050,22.000,1.500,48.500,8.500
2.051,20.000,-0.500,46.000,5.500
2.052,14.500,-6.500,40.000,-1.000
2.053,8.000,-13.000,33.000,-8.500
2.054,3.500,-18.000,27.500,-14.500
2.055,1.000,-21.000,24.500,-18.500
2.056,1.000,-21.500,23.500,-20.000
2.057,2.500,-20.500,24.000,-20.500
2.058,4.500,-19.000,25.500,-19.500
2.059,6.500,-17.000,27.500,-18.000
2.060,8.500,-15.500,29.500,-16.000
2.061,10.000,-13.500,31.500,-14.000
2.062,11.000,-12.500,33.000,-11.500
2.063,11.000,-11.500,34.000,-9.500
2.064,11.000,-10.500,35.000,-7.500
2.065,11.000,-10.000,35.500,-5.500
2.066,11.000,-9.500,36.000,-4.000
2.067,10.500,-9.500,36.500,-3.000
2.068,10.500,-9.000,37.000,-2.500
2.069,10.500,-9.500,37.000,-2.500
2.070,10.000,-9.500,36.500,-3.000
2.071,9.000,-10.500,35.500,-4.000
2.072,8.500,-11.000,34.500,-5.500
2.073,7.500,-12.000,33.000,-7.500
2.074,7.000,-13.000,32.000,-9.500
2.075,6.500,-14.000,30.500,-11.500
2.076,6.500,-15.000,29.500,-13.000
2.077,6.000,-15.500,28.500,-15.000
2.078,6.000,-16.000,28.000,-16.000
2.079,6.500,-15.500,28.000,-16.000
2.080,7.000,-15.000,28.500,-15.500
2.081,8.000,-14.500,29.000,-14.000
2.082,8.500,-13.000,30.500,-12.000
2.083,9.500,-12.000,32.000,-9.500
2.084,10.000,-11.000,33.000,-7.000
2.085,10.000,-10.500,34.000,-4.500
2.086,10.000,-10.000,35.000,-3.000
2.087,10.000,-10.000,35.000,-2.000
2.088,9.500,-9.500,35.000,-1.500
2.089,9.500,-10.000,35.000,-1.500
2.090,9.000,-10.500,34.500,-2.000
2.091,8.500,-11.000,34.000,-3.000
2.092,8.000,-12.000,33.000,-4.500
2.093,7.500,-13.000,32.000,-6.500
2.094,7.000,-14.000,31.000,-8.000
2.095,7.000,-14.500,30.500,-9.500
2.096,7.000,-14.500,30.500,-11.000
2.097,7.500,-14.500,30.000,-12.000
2.098,8.000,-14.000,30.500,-13.000
2.099,8.500,-13.500,31.000,-12.500
2.100,9.000,-12.500,32.000,-11.500
2.101,10.000,-11.500,33.500,-9.500
2.102,11.000,-10.000,35.500,-7.000
2.103,12.000,-9.000,37.000,-4.500
2.104,12.500,-7.500,38.500,-2.000
2.105,13.000,-7.000,39.500,0.000
2.106,13.000,-6.500,40.500,1.500
2.107,13.000,-6.000,40.500,2.500
2.108,13.000,-6.000,41.000,3.000
2.109,13.000,-6.000,40.500,3.000
2.110,12.500,-6.500,40.000,2.500
2.111,12.500,-7.000,39.500,2.000
2.112,12.000,-7.000,39.000,0.500
2.113,12.000,-7.500,38.500,-0.500
2.114,12.500,-7.000,38.000,-2.000
2.115,13.000,-7.000,38.000,-3.000
2.116,14.500,-6.000,38.500,-3.500
2.117,16.000,-4.500,39.500,-3.000
2.118,18.500,-2.500,41.500,-2.000
2.119,21.000,-0.500,44.000,0.500
2.120,23.500,2.500,46.500,3.500
2.121,26.000,5.000,49.000,6.500
2.122,28.000,7.500,52.000,10.500
2.123,30.500,10.000,54.500,14.000
2.124,32.000,12.000,56.500,17.000
2.125,33.000,14.000,58.500,20.000
2.126,33.500,15.000,59.500,22.000
2.127,34.000,16.000,60.500,23.500
2.128,34.000,16.500,61.000,24.000
2.129,34.500,17.000,61.500,25.000
2.130,34.500,17.500,61.500,25.000
2.131,35.000,18.000,62.000,25.000
2.132,35.500,18.000,62.000,25.000
2.133,36.000,18.000,61.500,24.000
2.134,36.000,17.500,61.500,22.500
2.135,36.000,17.500,61.000,21.000
2.136,36.000,17.000,60.500,19.500
2.137,37.000,17.500,60.500,18.500
2.138,38.000,18.000,61.000,19.000
2.139,39.500,19.500,63.000,20.000
2.140,42.000,22.000,65.000,22.500
2.141,44.500,25.000,68.500,25.500
2.142,47.500,28.500,71.500,29.500
2.143,50.000,31.500,75.000,34.000
2.144,52.500,34.500,78.000,38.000
2.145,54.000,36.500,80.500,41.500
2.146,56.000,39.000,83.000,44.500
2.147,58.000,41.000,85.000,47.500
2.148,60.000,43.500,87.500,50.500
2.149,62.000,46.000,90.000,53.000
2.150,64.000,47.500,91.500,54.500
2.151,65.000,48.000,92.500,55.000
2.152,65.000,48.000,92.000,54.000
2.153,64.500,47.000,90.500,52.000
2.154,63.000,45.500,88.500,49.500
2.155,61.500,43.500,86.500,46.000
2.156,60.500,42.000,84.500,43.000
2.157,59.500,40.500,83.000,40.500
2.158,59.500,40.000,82.500,39.500
2.159,60.000,40.500,83.000,39.500
2.160,61.500,42.000,84.500,41.500
2.161,63.500,44.500,87.000,44.500
2.162,65.500,47.000,89.500,47.500
2.163,67.000,49.000,91.500,51.000
2.164,68.000,50.500,93.500,53.500
2.165,68.000,51.500,94.500,55.500
2.166,67.500,51.500,95.000,56.500
2.167,66.500,51.000,95.000,56.500
2.168,65.500,49.500,94.000,56.000
2.169,64.000,48.500,93.000,55.000
2.170,62.500,46.500,91.500,53.500
2.171,60.500,44.000,89.000,51.000
2.172,58.500,41.500,86.500,48.000
2.173,56.500,39.000,83.500,44.000
2.174,54.000,36.000,80.000,40.000
2.175,51.500,33.500,77.000,36.000
2.176,49.000,31.000,74.000,31.500
2.177,46.500,28.500,71.000,28.000
2.178,44.500,26.000,68.500,25.000
2.179,43.000,24.500,67.000,22.500
2.180,41.500,23.500,65.500,21.500
2.181,40.500,22.500,64.500,21.000
2.182,39.000,21.000,63.500,20.500
2.183,37.000,19.500,62.000,21.000
2.184,35.000,18.000,61.000,20.500
2.185,33.000,16.500,59.500,20.500
2.186,30.500,14.500,57.500,19.500
2.187,28.000,12.500,55.500,18.000
2.188,25.500,10.000,53.000,16.000
2.189,23.000,7.500,50.000,13.500
2.190,20.500,5.000,47.000,10.500
2.191,17.500,2.000,43.500,7.000
2.192,14.500,-1.500,40.000,3.000
2.193,11.500,-4.500,36.000,-1.500
2.194,9.000,-7.500,32.500,-5.500
2.195,6.500,-10.500,29.500,-9.500
2.196,5.000,-13.000,26.500,-13.000
2.197,3.500,-15.000,24.500,-15.500
2.198,2.500,-16.500,22.500,-17.500
2.199,2.000,-17.500,21.500,-19.000
2.200,1.500,-18.000,21.500,-19.500
2.201,1.500,-18.000,21.500,-19.000
2.202,1.500,-18.000,22.000,-18.000
2.203,0.500,-18.000,22.500,-17.000
2.204,0.000,-18.500,22.500,-16.000
2.205,-1.000,-18.500,22.500,-15.000
2.206,-1.500,-19.000,23.000,-14.000
2.207,-2.000,-19.000,22.500,-13.500
2.208,-2.500,-19.000,22.500,-13.500
2.209,-3.000,-19.500,22.500,-13.500
2.210,-3.000,-19.500,22.000,-14.000
2.211,-3.500,-20.500,21.500,-14.500
2.212,-4.000,-21.000,20.500,-16.000
2.213,-5.000,-22.500,19.000,-18.000
2.214,-6.000,-23.500,17.500,-20.500
2.215,-6.500,-25.000,15.500,-23.000
2.216,-7.000,-26.000,14.500,-25.000
2.217,-7.500,-26.500,13.500,-27.000
2.218,-7.500,-27.000,13.500,-28.000
2.219,-7.000,-27.000,13.500,-28.500
2.220,-6.500,-26.500,14.000,-28.000
2.221,-5.500,-25.500,15.000,-26.500
2.222,-4.500,-24.000,16.000,-24.500
2.223,-4.000,-23.500,17.500,-22.000
2.224,-3.500,-23.000,18.500,-20.000
2.225,-4.000,-22.500,19.500,-18.500
2.226,-4.500,-23.000,19.500,-17.000
2.227,-5.000,-23.500,20.000,-16.500
2.228,-6.000,-24.000,19.500,-16.500
2.229,-7.000,-25.000,18.500,-17.500
2.230,-8.500,-27.000,17.000,-19.000
2.231,-10.500,-29.000,14.500,-22.000
2.232,-13.000,-31.500,11.500,-25.500
2.233,-15.500,-35.000,8.000,-30.000
2.234,-18.500,-38.500,4.000,-35.000
2.235,-21.000,-41.000,0.500,-39.500
2.236,-22.500,-43.500,-2.000,-43.000
2.237,-23.500,-44.500,-4.000,-46.000
2.238,-23.000,-44.500,-4.500,-47.000
2.239,-21.000,-43.000,-3.000,-45.500
2.240,-17.000,-39.000,1.000,-42.000
2.241,-11.500,-33.000,7.500,-35.500
2.242,-3.500,-25.000,16.000,-26.000
2.243,5.500,-15.000,26.500,-14.500
2.244,15.500,-4.500,38.000,-1.500
2.245,26.000,7.000,50.000,11.500
2.246,36.000,17.500,61.500,24.000
2.247,45.500,27.500,72.000,35.500
2.248,55.000,37.500,82.000,46.000
2.249,64.500,47.000,92.000,57.000
2.250,75.000,58.000,103.000,68.000
2.251,87.000,70.000,115.500,81.000
2.252,101.500,84.500,130.000,95.500
2.253,118.500,101.500,147.500,113.000
2.254,138.500,121.500,168.000,133.000
2.255,160.500,143.500,190.500,155.000
2.256,183.500,166.000,213.500,178.500
2.257,207.000,190.000,238.500,202.500
2.258,232.500,215.500,264.500,229.000
2.259,260.500,244.500,294.500,259.000
2.260,292.500,276.500,327.500,293.000
2.261,327.500,312.500,364.500,331.000
2.262,365.000,351.000,404.000,372.000
2.263,403.500,391.000,445.000,415.000
2.264,442.500,430.500,486.500,458.000
2.265,479.500,468.500,525.500,498.500
2.266,511.500,502.000,559.500,534.000
2.267,536.500,528.000,586.000,561.000
2.268,551.500,543.500,601.500,577.000
2.269,553.500,545.500,603.500,578.500
2.270,541.500,533.500,591.000,565.000
2.271,516.500,507.500,564.000,537.500
2.272,481.500,472.000,527.500,499.000
2.273,442.000,431.000,484.500,454.500
2.274,401.000,388.000,440.500,408.500
2.275,360.500,346.000,397.000,363.000
2.276,322.500,306.500,356.000,320.000
2.277,287.000,269.500,318.000,280.000
2.278,254.000,235.000,282.500,243.000
2.279,222.000,202.000,248.500,208.500
2.280,190.500,170.000,215.500,174.500
2.281,159.500,138.000,183.000,142.000
2.282,128.500,106.500,151.500,110.500
2.283,99.000,76.500,121.500,81.000
2.284,72.500,49.500,94.500,55.000
2.285,49.500,26.500,72.000,33.000
2.286,30.000,7.500,53.500,14.500
2.287,14.500,-8.500,38.000,-0.500
2.288,0.500,-22.000,24.500,-14.000
2.289,-11.500,-34.000,12.000,-26.500
2.290,-23.000,-45.500,0.000,-38.500
2.291,-33.500,-56.500,-11.500,-50.000
2.292,-43.000,-66.500,-22.000,-60.500
2.293,-51.500,-75.500,-31.500,-70.500
2.294,-58.500,-83.000,-39.500,-79.500
2.295,-64.000,-88.500,-45.500,-86.500
2.296,-67.500,-92.500,-50.000,-91.500
2.297,-69.000,-94.500,-52.500,-94.500
2.298,-68.500,-95.000,-52.500,-95.500
2.299,-67.500,-94.000,-51.500,-94.500
2.300,-65.000,-92.000,-49.000,-92.500
2.301,-62.500,-89.500,-46.000,-89.000
2.302,-59.500,-86.000,-42.000,-84.500
2.303,-56.000,-82.500,-38.000,-79.000
2.304,-53.000,-79.000,-33.500,-73.500
2.305,-49.500,-75.000,-29.000,-68.000
2.306,-46.500,-71.500,-25.000,-63.000
2.307,-43.500,-68.000,-21.500,-58.500
2.308,-41.000,-65.000,-18.500,-55.000
2.309,-38.500,-62.500,-16.000,-52.500
2.310,-36.500,-60.500,-14.000,-50.500
2.311,-35.000,-59.000,-13.500,-49.500
2.312,-34.000,-58.000,-13.000,-49.500
2.313,-33.000,-58.000,-13.500,-50.000
2.314,-32.000,-57.500,-14.000,-51.000
2.315,-31.500,-57.000,-14.000,-51.500
2.316,-30.000,-55.500,-13.000,-52.000
2.317,-28.000,-54.500,-12.000,-51.500
2.318,-26.500,-53.000,-10.500,-51.000
2.319,-25.000,-51.500,-9.500,-50.000
2.320,-24.000,-50.500,-8.000,-49.000
2.321,-23.000,-49.500,-6.500,-47.000
2.322,-22.500,-48.500,-5.000,-45.000
2.323,-21.500,-47.000,-3.500,-42.500
2.324,-21.500,-46.000,-2.000,-40.500
2.325,-21.000,-45.500,-1.000,-38.500
2.326,-21.500,-45.500,-0.500,-37.000
2.327,-22.000,-45.500,-0.500,-36.500
2.328,-22.500,-46.000,-0.500,-36.000
2.329,-23.000,-46.500,-1.000,-36.500
2.330,-23.500,-47.000,-1.500,-37.000
2.331,-23.500,-47.500,-2.500,-38.000
2.332,-24.000,-48.000,-4.000,-39.500
2.333,-24.000,-49.000,-5.000,-41.500
2.334,-24.000,-49.000,-5.500,-43.000
2.335,-23.500,-49.500,-6.000,-44.500
2.336,-23.500,-50.000,-6.500,-46.000
2.337,-23.000,-50.000,-7.000,-47.000
2.338,-22.500,-49.500,-7.000,-48.000
2.339,-21.500,-49.000,-6.500,-47.500
2.340,-20.500,-48.000,-5.500,-46.500
2.341,-19.500,-46.500,-4.000,-45.000
2.342,-18.500,-45.500,-2.500,-42.500
2.343,-17.500,-44.000,-1.000,-40.000
2.344,-17.000,-43.000,0.500,-37.500
2.345,-17.000,-42.500,1.500,-35.500
2.346,-17.000,-41.500,2.500,-33.500
2.347,-17.000,-41.500,3.000,-32.500
2.348,-17.000,-41.000,3.500,-31.500
2.349,-17.000,-41.500,3.500,-31.500
2.350,-17.500,-41.500,3.000,-32.000
2.351,-18.000,-42.000,2.500,-33.000
2.352,-18.500,-43.000,1.500,-34.500
2.353,-18.500,-43.500,0.500,-36.000
2.354,-19.000,-44.000,-0.500,-37.500
2.355,-19.000,-44.500,-1.000,-39.000
2.356,-18.500,-45.000,-1.500,-40.000
2.357,-18.000,-45.000,-1.500,-41.000
2.358,-17.500,-45.000,-1.500,-41.500
2.359,-16.500,-44.500,-0.500,-41.500
2.360,-15.500,-43.500,0.500,-40.500
2.361,-15.000,-42.500,2.000,-39.000
2.362,-14.000,-41.000,4.000,-36.500
2.363,-13.000,-40.000,5.500,-33.500
2.364,-12.000,-38.500,7.500,-31.000
2.365,-11.500,-37.500,9.000,-28.500
2.366,-11.000,-36.500,10.500,-26.000
2.367,-10.500,-36.000,11.500,-24.000
2.368,-10.000,-35.000,12.000,-23.000
2.369,-10.000,-35.000,12.500,-22.000
2.370,-10.000,-34.500,13.000,-22.000
2.371,-10.500,-35.000,12.500,-23.000
2.372,-11.500,-36.000,11.500,-24.000
2.373,-12.500,-37.500,10.000,-25.500
2.374,-13.500,-38.500,9.000,-27.500
2.375,-14.000,-39.500,8.000,-30.000
2.376,-14.000,-40.000,7.500,-31.500
2.377,-13.500,-40.000,6.500,-33.000
2.378,-13.500,-40.500,6.500,-34.500
2.379,-13.000,-40.500,6.000,-35.000
2.380,-12.500,-40.000,6.000,-35.000
2.381,-12.000,-39.500,6.500,-34.500
2.382,-11.000,-39.000,7.500,-33.000
2.383,-10.000,-37.500,8.500,-31.000
2.384,-9.000,-36.500,10.000,-28.500
2.385,-8.000,-35.000,11.500,-26.500
2.386,-6.500,-34.000,12.500,-24.500
2.387,-5.500,-32.500,13.500,-23.000
2.388,-4.000,-31.500,15.000,-22.000
2.389,-2.500,-30.500,15.500,-21.000
2.390,-1.500,-29.500,16.500,-20.000
2.391,-0.500,-29.000,17.000,-20.000
2.392,0.500,-28.500,17.000,-20.000
2.393,1.000,-28.500,17.000,-20.500
2.394,1.500,-28.000,17.000,-21.500
2.395,2.500,-28.000,17.500,-22.000
2.396,3.000,-27.500,18.000,-22.500
2.397,4.000,-26.500,18.500,-22.000
2.398,5.000,-25.500,19.500,-21.500
2.399,6.000,-24.500,21.000,-20.000
2.400,7.500,-23.000,23.000,-18.000
2.401,9.000,-21.500,25.000,-15.500
2.402,10.000,-20.000,27.000,-13.000
2.403,11.000,-18.500,29.000,-10.000
2.404,11.500,-17.000,30.500,-7.500
2.405,12.000,-16.000,32.000,-5.000
2.406,13.000,-14.500,33.500,-2.500
2.407,13.000,-13.500,35.000,-1.000
2.408,13.500,-13.000,35.500,0.500
2.409,14.000,-12.000,36.500,1.500
2.410,14.500,-11.500,37.000,2.000
2.411,15.000,-11.000,38.000,2.000
2.412,15.500,-10.500,38.000,1.500
2.413,16.500,-10.000,38.500,1.000
2.414,17.000,-10.000,38.500,0.500
2.415,18.000,-9.500,38.500,-0.500
2.416,19.000,-9.000,38.500,-1.000
2.417,20.000,-8.500,39.000,-1.000
2.418,21.500,-7.000,40.500,-0.500
2.419,23.500,-5.500,42.000,1.000
2.420,25.000,-4.000,44.000,3.500
2.421,27.000,-1.500,46.500,6.500
2.422,29.500,1.000,49.500,10.000
2.423,31.500,4.000,52.500,13.500
2.424,33.000,6.000,55.000,17.500
2.425,35.000,8.000,57.500,20.500
2.426,36.000,10.000,59.500,23.000
2.427,37.000,11.000,61.000,25.500
2.428,38.000,12.000,62.500,27.000
2.429,38.500,13.000,64.000,28.500
2.430,39.500,14.000,64.500,29.000
2.431,40.500,15.000,65.500,30.000
2.432,41.500,16.000,66.500,30.500
2.433,43.000,17.000,67.500,30.500
2.434,44.500,18.000,68.000,30.500
2.435,46.500,19.500,69.500,31.000
2.436,48.500,21.000,70.500,31.000
2.437,51.000,22.500,72.500,32.000
2.438,53.500,25.000,74.500,33.500
2.439,56.000,27.500,77.000,36.000
2.440,59.000,30.000,80.000,39.500
2.441,61.500,33.000,83.500,43.000
2.442,64.000,36.000,87.000,47.500
2.443,67.000,39.500,91.000,52.000
2.444,69.500,42.500,95.000,57.000
2.445,72.000,46.000,98.500,61.500
2.446,74.500,49.000,101.500,65.500
2.447,77.000,51.500,105.000,69.000
2.448,79.000,54.500,107.500,72.000
2.449,81.500,57.000,110.000,75.000
2.450,83.500,59.000,112.500,77.500
2.451,86.000,61.000,114.500,79.000
2.452,88.500,63.000,116.500,80.500
2.453,91.000,65.000,118.500,82.000
2.454,93.500,67.500,120.500,83.500
2.455,96.500,69.500,123.000,84.500
2.456,99.500,72.000,125.500,86.000
2.457,102.500,75.000,128.500,88.000
2.458,105.500,78.500,131.500,91.000
2.459,109.500,82.000,135.500,94.500
2.460,113.000,86.500,140.000,99.000
2.461,117.000,90.500,144.500,104.000
2.462,121.000,95.000,149.500,109.500
2.463,124.500,99.000,154.500,115.500
2.464,128.000,103.000,159.000,121.000
2.465,131.000,106.500,163.500,126.000
2.466,134.000,110.000,167.500,130.500
2.467,137.000,113.500,171.500,135.000
2.468,140.500,117.000,175.000,139.000
2.469,143.500,120.000,178.500,142.500
2.470,146.500,123.500,181.500,145.500
2.471,149.500,126.000,184.000,148.000
2.472,152.000,128.500,186.500,150.000
2.473,155.000,131.000,188.500,151.500
2.474,158.000,133.500,191.000,153.000
2.475,161.000,136.000,193.000,154.500
2.476,164.000,139.000,195.500,156.000
2.477,167.500,141.500,198.500,158.000
2.478,170.500,144.500,202.000,160.000
2.479,174.000,148.000,205.500,163.500
2.480,177.500,151.500,210.000,167.500
2.481,181.000,155.500,214.000,172.000
2.482,184.500,159.500,218.500,177.000
2.483,187.500,163.500,222.500,182.000
2.484,190.000,166.500,226.000,186.500
2.485,192.500,169.500,229.500,191.000
2.486,194.500,171.500,232.000,194.500
2.487,196.000,173.500,234.500,197.000
2.488,198.000,175.500,236.500,199.500
2.489,199.500,177.500,238.500,201.500
2.490,201.500,179.500,240.000,203.500
2.491,204.000,181.500,242.000,205.000
2.492,206.000,183.000,243.500,206.000
2.493,207.500,185.000,244.500,207.000
2.494,209.500,186.500,245.500,207.500
2.495,211.500,188.000,247.000,208.000
2.496,213.500,189.000,248.000,208.500
2.497,215.500,190.500,249.500,209.000
2.498,217.000,192.000,251.000,210.000
2.499,219.000,194.000,252.500,211.000
2.500,221.000,196.000,254.500,213.000
2.501,223.000,198.000,257.000,216.000
2.502,225.000,200.500,259.500,219.000
2.503,226.500,203.000,262.000,223.000
2.504,228.500,205.000,264.500,226.500
2.505,229.500,206.500,266.500,229.500
2.506,230.000,207.500,267.500,231.500
2.507,230.500,207.500,268.000,232.500
2.508,230.000,207.000,268.000,233.000
2.509,228.500,206.000,266.500,232.000
2.510,227.000,204.500,265.000,230.000
2.511,225.500,202.500,263.000,227.500
2.512,223.500,200.500,261.000,224.500
2.513,222.000,198.500,258.500,221.500
2.514,220.000,196.500,256.000,218.000
2.515,218.500,194.500,253.000,214.500
2.516,216.500,192.000,250.000,211.000
2.517,214.500,189.500,247.000,207.000
2.518,212.000,186.500,244.000,203.500
2.519,209.500,183.500,241.000,200.000
2.520,207.000,180.500,238.500,197.500
2.521,204.500,178.000,236.000,195.500
2.522,201.500,175.500,234.000,194.000
2.523,199.000,172.500,231.500,192.500
2.524,195.500,169.500,228.500,190.500
2.525,191.500,166.000,225.500,188.000
2.526,187.500,162.500,221.500,185.000
2.527,183.500,158.500,217.500,182.000
2.528,179.000,154.500,213.500,178.000
2.529,174.500,150.000,209.000,173.500
2.530,170.500,145.500,204.500,169.000
2.531,166.500,141.000,199.500,163.500
2.532,162.500,136.500,194.500,158.000
2.533,158.500,132.000,189.500,152.000
2.534,154.500,127.000,184.500,146.000
2.535,150.500,122.000,179.000,139.500
2.536,146.000,117.500,174.000,133.000
2.537,141.500,112.500,168.500,127.000
2.538,137.500,108.000,163.500,121.500
2.539,133.500,103.500,159.000,117.000
2.540,130.000,99.500,154.500,113.000
2.541,126.500,96.000,151.000,109.500
2.542,123.000,92.500,148.000,107.000
2.543,119.500,89.500,145.000,105.000
2.544,115.500,86.000,142.000,102.500
2.545,112.000,82.500,139.000,100.000
2.546,108.000,79.000,135.500,97.000
2.547,104.000,75.000,131.500,93.500
2.548,99.500,71.000,127.500,89.500
2.549,95.000,66.500,122.500,84.500
2.550,90.500,62.000,118.000,80.000
2.551,86.000,58.000,113.000,75.000
2.552,82.500,54.000,109.000,70.000
2.553,79.000,50.000,105.000,65.000
2.554,75.500,46.000,100.500,59.500
2.555,72.500,42.500,96.500,54.500
2.556,69.000,38.500,92.500,50.000
2.557,66.000,35.500,89.000,45.500
2.558,63.500,32.500,86.000,42.000
2.559,61.500,30.000,84.000,39.500
2.560,60.000,28.500,82.500,38.000
2.561,59.000,27.000,81.500,37.000
2.562,57.500,26.000,80.500,37.000
2.563,55.500,25.000,79.500,36.500
2.564,53.500,23.500,78.500,36.500
2.565,51.500,22.000,77.000,36.000
2.566,49.500,20.500,75.500,35.500
2.567,47.500,19.000,74.000,34.500
2.568,46.000,17.500,72.000,33.000
2.569,44.000,15.500,70.000,31.500
2.570,42.000,13.500,68.000,29.000
2.571,39.500,11.000,65.000,26.000
2.572,37.500,8.500,62.500,22.500
2.573,35.500,6.500,60.000,19.000
2.574,34.000,4.500,57.500,16.000
2.575,32.500,3.000,55.000,13.000
2.576,31.500,1.000,53.000,10.500
2.577,30.500,-0.500,51.500,8.000
2.578,30.000,-1.500,50.500,6.500
2.579,29.500,-2.000,50.000,6.000
2.580,29.500,-2.000,50.500,6.500
2.581,29.500,-1.500,51.000,7.500
2.582,29.500,-1.000,52.000,9.000
2.583,29.500,-1.000,53.000,11.000
2.584,29.500,-0.500,53.500,12.500
2.585,29.000,-0.500,54.000,13.500
2.586,28.500,-0.500,54.000,14.500
2.587,27.500,-1.000,53.500,14.500
2.588,26.500,-2.000,53.000,14.000
2.589,25.500,-2.500,52.000,13.000
2.590,24.000,-4.000,50.500,11.500
2.591,23.000,-5.500,48.500,9.500
2.592,22.000,-7.000,47.000,7.000
2.593,21.000,-8.500,45.000,4.500
2.594,20.500,-9.500,43.500,2.000
2.595,20.000,-10.500,42.000,-0.500
2.596,20.000,-11.500,41.000,-2.000
2.597,20.000,-12.000,40.000,-3.500
2.598,20.000,-12.000,40.000,-4.000
2.599,20.500,-11.500,40.000,-4.000
2.600,21.500,-11.000,41.000,-3.500
2.601,22.000,-10.000,42.000,-1.500
2.602,22.500,-9.000,43.500,0.500
2.603,23.000,-8.000,44.500,2.500
2.604,23.500,-7.500,45.500,4.500
2.605,23.000,-7.000,46.500,6.500
2.606,23.000,-7.000,46.500,7.500
2.607,23.000,-7.000,47.000,8.000
2.608,22.500,-7.000,46.500,8.500
2.609,22.000,-8.000,46.000,8.000
2.610,21.000,-8.500,45.000,7.000
2.611,20.500,-9.500,44.000,5.500
2.612,19.500,-10.500,42.500,3.500
2.613,19.000,-11.500,41.500,1.500
2.614,18.500,-12.500,40.000,-1.000
2.615,18.000,-13.500,38.500,-3.000
2.616,17.500,-14.000,37.500,-4.500
2.617,17.500,-14.000,37.000,-5.500
2.618,18.000,-14.000,37.500,-6.000
2.619,19.000,-13.500,38.000,-5.500
2.620,20.000,-12.500,39.000,-4.000
2.621,21.000,-11.500,41.000,-2.500
2.622,22.000,-10.500,42.500,0.000
2.623,22.500,-9.500,44.000,2.500
2.624,23.000,-8.500,45.000,5.000
2.625,23.000,-8.000,46.000,6.500
2.626,23.000,-8.000,46.500,8.000
2.627,23.000,-7.500,46.500,9.000
2.628,22.500,-7.500,46.500,9.500
2.629,22.500,-8.000,46.000,9.000
2.630,22.000,-8.000,45.500,8.500
2.631,21.500,-9.000,44.500,7.000
2.632,21.000,-9.500,43.500,5.500
2.633,20.500,-10.500,42.000,4.000
2.634,20.000,-11.500,41.000,2.000
2.635,20.000,-11.500,40.500,0.000
2.636,20.000,-12.000,40.000,-1.500
2.637,20.000,-12.000,39.500,-2.500
2.638,20.500,-11.500,39.500,-3.000
2.639,21.000,-11.000,40.000,-2.500
2.640,22.000,-10.500,41.000,-1.500
2.641,23.000,-9.000,42.500,1.000
2.642,24.000,-8.000,44.500,3.500
2.643,25.000,-6.500,46.000,6.000
2.644,25.500,-5.500,47.000,8.500
2.645,25.500,-5.000,48.000,10.000
2.646,25.500,-5.000,48.500,11.500
2.647,25.000,-5.000,48.500,12.000
2.648,24.500,-5.000,48.500,12.500
2.649,24.000,-5.500,48.000,12.000
2.650,23.500,-6.000,47.500,11.500
2.651,22.500,-6.500,46.500,10.000
2.652,22.000,-7.500,45.500,8.000
2.653,21.500,-8.000,44.000,6.000
2.654,21.500,-8.500,43.500,4.500
2.655,22.000,-8.500,43.000,3.500
2.656,23.000,-8.500,42.500,2.500
2.657,23.500,-8.000,43.000,2.000
2.658,24.500,-7.500,43.000,1.500
2.659,25.000,-7.000,43.500,1.500
2.660,25.500,-6.500,44.000,2.500
2.661,26.000,-5.500,45.500,4.000
2.662,26.000,-4.500,47.000,5.500
2.663,26.500,-3.500,48.500,8.000
2.664,26.500,-2.500,50.000,10.000
2.665,27.000,-2.000,51.000,12.000
2.666,27.000,-1.000,51.500,13.500
2.667,27.500,-0.500,52.000,15.000
2.668,27.500,0.000,52.500,15.500
2.669,27.500,0.000,52.500,15.500
2.670,27.500,0.000,52.500,15.000
2.671,27.500,0.000,52.000,14.500
2.672,27.500,-0.500,51.500,13.000
2.673,27.000,-1.000,51.000,11.500
2.674,27.000,-1.500,50.500,10.000
2.675,27.000,-2.000,49.500,8.000
2.676,27.000,-2.500,48.500,6.500
2.677,27.000,-3.000,48.000,5.000
2.678,27.000,-3.000,48.000,4.500
2.679,27.500,-3.000,48.000,4.500
2.680,28.000,-2.000,49.000,5.500
2.681,29.000,-1.000,50.000,7.000
2.682,29.500,0.000,51.500,9.000
2.683,30.000,1.000,53.000,11.500
2.684,30.000,2.000,54.000,13.500
2.685,30.000,2.500,55.000,15.500
2.686,30.000,3.000,55.500,16.500
2.687,29.500,3.000,55.500,17.000
2.688,29.000,2.500,55.500,17.000
2.689,28.500,2.000,54.500,17.000
2.690,28.000,2.000,54.000,16.000
2.691,27.500,1.500,52.500,15.000
2.692,27.000,0.500,51.500,13.500
2.693,27.000,0.000,50.000,12.000
2.694,26.500,-1.000,49.000,10.500
2.695,26.500,-1.500,48.500,8.500
2.696,26.500,-2.000,47.500,7.000
2.697,27.000,-2.000,47.500,6.000
2.698,27.500,-2.000,47.500,6.000
2.699,29.000,-1.000,48.500,6.500
2.700,30.000,0.500,50.000,8.000
2.701,31.500,2.500,52.000,10.000
2.702,32.500,4.000,54.000,12.500
2.703,33.500,5.000,55.500,15.000
2.704,34.000,6.000,57.000,17.500
2.705,34.000,6.500,58.000,19.000
2.706,33.500,6.500,58.500,20.500
2.707,33.000,6.500,58.500,21.000
2.708,32.500,6.000,58.500,21.500
2.709,32.000,5.500,58.000,21.000
2.710,31.000,4.500,56.500,20.000
2.711,30.500,3.500,55.000,18.000
2.712,29.500,2.000,53.500,16.000
2.713,29.000,1.500,52.000,14.000
2.714,29.000,1.000,51.000,12.000
2.715,29.000,0.500,50.000,10.000
2.716,29.000,0.500,49.500,8.500
2.717,29.000,0.500,49.500,7.500
2.718,29.500,0.500,50.000,7.500
2.719,30.000,1.000,50.500,7.500
2.720,30.500,1.000,51.500,8.500
2.721,31.500,1.500,52.500,10.000
2.722,32.000,2.500,53.500,12.000
2.723,32.500,3.500,54.500,14.500
2.724,33.000,4.500,55.500,16.500
2.725,33.000,5.500,56.500,18.000
2.726,32.500,6.000,56.500,19.000
2.727,32.000,6.000,56.500,19.000
2.728,31.500,5.500,56.000,18.500
2.729,30.500,5.000,55.500,18.000
2.730,30.000,4.500,54.500,17.500
2.731,29.500,3.500,53.500,16.500
2.732,29.500,3.000,52.000,15.000
2.733,29.000,2.500,51.000,13.500
2.734,28.500,1.500,49.500,11.500
2.735,28.500,1.000,48.500,10.000
2.736,28.500,0.500,48.000,8.500
2.737,28.500,0.500,47.500,7.000
2.738,28.500,0.000,47.000,6.000
2.739,28.500,0.000,47.000,6.000
2.740,29.000,0.000,47.500,6.500
2.741,29.000,0.500,48.000,7.500
2.742,29.000,0.500,48.500,9.000
2.743,29.000,1.000,49.500,10.500
2.744,29.500,1.500,50.500,12.500
2.745,29.500,2.000,51.500,14.000
2.746,29.500,2.500,52.000,15.500
2.747,29.500,2.500,52.500,16.500
2.748,29.000,2.500,52.000,17.000
2.749,28.500,2.000,51.500,16.500
2.750,27.500,1.500,51.000,15.500
2.751,27.500,1.000,50.500,14.500
2.752,27.000,0.500,49.500,13.000
2.753,26.500,0.000,48.500,11.500
2.754,26.500,-1.000,47.500,9.500
2.755,26.000,-1.500,46.000,7.500
2.756,26.000,-2.000,44.500,5.500
2.757,26.000,-2.500,44.000,4.500
2.758,26.000,-2.500,43.500,3.500
2.759,26.500,-2.500,44.000,4.000
2.760,27.000,-1.500,45.000,5.000
2.761,28.000,-0.500,46.500,6.500
2.762,28.500,1.000,48.500,9.000
2.763,29.000,2.000,50.000,11.500
2.764,29.000,3.000,51.500,13.000
2.765,29.000,3.500,52.000,14.500
2.766,29.000,3.500,52.500,15.500
2.767,28.500,3.500,52.500,16.000
2.768,28.000,3.500,52.000,16.500
2.769,27.000,3.000,51.500,16.000
2.770,26.500,2.500,50.500,15.000
2.771,26.000,1.500,49.500,14.000
2.772,25.500,1.000,48.000,12.000
2.773,25.000,0.500,47.000,10.000
2.774,25.000,-0.500,46.000,8.000
2.775,25.000,-0.500,45.000,6.500
2.776,25.000,-1.000,44.500,4.500
2.777,25.000,-1.500,44.000,3.500
2.778,25.500,-1.500,44.000,2.500
2.779,25.500,-1.000,44.500,2.500
2.780,26.000,0.000,45.500,3.500
2.781,26.500,1.000,47.000,5.000
2.782,27.000,2.000,48.000,7.000
2.783,27.500,3.000,49.000,9.000
2.784,27.500,3.500,50.000,11.000
2.785,28.000,4.500,51.000,13.000
2.786,28.000,5.000,52.000,15.000
2.787,28.000,5.000,52.500,16.000
2.788,27.500,5.000,52.000,16.000
2.789,27.000,4.500,51.000,15.000
2.790,26.000,3.500,50.000,13.500
2.791,25.000,3.000,49.000,12.000
2.792,24.500,2.500,48.000,10.000
2.793,24.500,2.000,47.500,8.500
2.794,24.500,1.500,47.000,7.000
2.795,24.500,1.000,46.500,5.500
2.796,24.500,1.000,46.000,4.000
2.797,25.000,1.000,45.500,3.500
2.798,25.500,1.500,45.500,3.000
2.799,26.000,1.500,46.000,3.000
2.800,26.500,2.500,46.500,3.500
2.801,27.000,3.000,47.000,5.000
2.802,27.500,4.000,48.000,7.000
2.803,28.000,5.000,49.500,9.500
2.804,28.000,6.000,50.500,11.500
2.805,28.500,7.000,52.000,14.000
2.806,29.000,7.500,53.500,16.000
2.807,29.000,8.500,54.500,17.000
2.808,29.500,9.000,55.000,18.000
2.809,29.500,9.500,55.500,18.500
2.810,29.500,9.500,55.500,18.000
2.811,29.000,9.000,55.000,17.500
2.812,28.500,8.500,54.500,16.500
2.813,28.000,8.000,54.000,15.000
2.814,27.500,7.500,53.500,14.000
2.815,27.500,7.000,53.000,12.500
2.816,27.500,6.500,52.500,11.500
2.817,27.000,6.000,52.000,10.000
2.818,26.500,5.500,51.500,9.000
2.819,26.000,5.500,51.000,8.500
2.820,26.000,5.000,51.000,9.000
2.821,26.000,5.500,51.500,9.500
2.822,26.000,5.500,52.000,10.500
2.823,26.500,6.000,52.500,12.500
2.824,27.500,6.500,53.500,14.000
2.825,28.000,7.000,54.000,15.500
2.826,28.000,7.500,54.000,16.000
2.827,28.000,7.500,54.000,16.500
2.828,28.000,7.500,53.500,16.000
2.829,28.000,7.500,53.000,15.500
2.830,28.000,7.500,52.500,14.500
2.831,28.000,7.500,51.500,13.500
2.832,28.500,7.500,51.500,12.000
2.833,29.500,8.000,51.000,11.000
2.834,30.500,8.500,51.000,10.000
2.835,32.000,9.000,51.500,9.500
2.836,33.500,10.000,52.500,9.500
2.837,34.500,11.500,53.500,9.500
2.838,36.000,13.000,55.000,10.500
2.839,37.500,14.500,57.000,12.000
2.840,38.500,16.000,58.500,14.500
2.841,39.500,17.500,60.500,17.000
2.842,40.500,19.000,62.000,19.500
2.843,40.500,20.000,63.500,22.000
2.844,41.000,21.500,65.500,25.000
2.845,41.500,22.500,67.000,27.500
2.846,42.500,23.500,69.000,30.000
2.847,43.000,24.500,70.500,32.000
2.848,44.000,26.000,71.500,33.500
2.849,45.000,27.000,72.500,34.500
2.850,46.000,28.500,73.500,35.500
2.851,47.500,30.000,74.500,36.000
2.852,49.000,31.000,75.500,37.000
2.853,51.000,32.500,77.000,37.500
2.854,53.000,34.000,78.000,37.500
2.855,55.000,35.500,79.000,38.000
2.856,56.500,37.000,80.500,39.000
2.857,58.500,38.500,81.500,39.500
2.858,60.000,40.000,83.000,40.500
2.859,61.500,41.500,84.000,41.500
2.860,62.500,42.500,85.500,43.000
2.861,63.500,44.000,87.000,45.000
2.862,64.500,46.000,88.500,48.000
2.863,66.000,48.000,91.000,51.000
2.864,67.500,50.000,93.000,54.500
2.865,68.500,51.500,95.000,57.000
2.866,69.500,52.500,96.500,59.000
2.867,69.500,53.000,96.500,60.000
2.868,69.000,52.500,96.500,60.000
2.869,69.000,52.500,96.000,59.500
2.870,69.500,52.500,96.000,59.500
2.871,70.000,53.000,96.500,59.500
2.872,71.000,54.000,97.500,60.000
2.873,72.000,55.000,98.000,60.000
2.874,74.000,56.000,99.500,60.500
2.875,76.000,58.000,101.000,61.500
2.876,78.500,60.000,103.000,62.500
2.877,81.000,62.500,105.000,64.000
2.878,83.500,64.500,107.000,66.000
2.879,86.000,66.500,109.000,68.000
2.880,89.000,69.000,112.000,71.000
2.881,92.000,72.500,115.500,74.500
2.882,95.000,76.000,119.500,79.500
2.883,98.000,79.500,123.000,84.000
2.884,100.000,82.000,126.000,88.000
2.885,101.000,83.500,128.000,90.500
2.886,101.000,84.500,129.000,92.000
2.887,100.500,84.500,129.000,92.500
2.888,99.500,83.500,128.500,92.000
2.889,98.500,82.500,127.000,91.000
2.890,97.000,81.000,125.500,89.000
2.891,96.000,80.000,124.000,87.500
2.892,95.500,79.000,123.000,85.500
2.893,95.500,79.000,122.500,84.000
2.894,96.000,79.000,122.000,83.500
2.895,97.000,79.500,122.500,82.500
2.896,98.000,80.500,122.500,82.500
2.897,99.500,81.000,123.000,82.500
2.898,100.000,81.500,123.500,83.000
2.899,101.000,82.500,124.000,83.500
2.900,101.000,82.500,124.500,84.000
2.901,100.500,82.500,124.500,84.500
2.902,100.000,82.000,124.500,85.000
2.903,99.000,81.500,124.500,86.000
2.904,98.000,81.500,124.500,87.000
2.905,97.000,80.500,124.000,88.000
2.906,95.500,79.500,123.000,87.500
2.907,93.500,78.000,121.500,86.500
2.908,91.000,75.500,119.500,85.000
2.909,88.500,73.500,117.000,82.500
2.910,86.000,71.000,114.500,79.500
2.911,83.500,68.000,111.500,76.000
2.912,81.000,65.500,108.500,72.500
2.913,79.000,63.000,105.500,68.000
2.914,77.000,60.500,102.000,64.000
2.915,75.000,58.000,99.500,60.500
2.916,73.000,55.500,96.500,56.500
2.917,71.000,53.500,94.000,53.500
2.918,69.000,51.500,92.000,51.000
2.919,67.000,49.500,90.000,49.000
2.920,65.500,48.000,88.500,47.500
2.921,64.000,47.000,88.000,47.500
2.922,63.000,46.500,87.500,48.000
2.923,62.000,45.500,87.000,48.500
2.924,60.500,44.500,86.500,48.500
2.925,59.000,43.500,85.500,48.500
2.926,57.000,42.000,84.000,47.500
2.927,55.000,40.000,82.500,46.000
2.928,52.500,38.000,80.500,44.500
2.929,50.500,35.500,78.500,42.000
2.930,48.000,33.500,76.000,39.500
2.931,46.000,31.000,74.000,36.500
2.932,44.000,29.000,71.500,33.500
2.933,42.500,27.000,69.000,30.500
2.934,41.500,25.500,67.000,27.500
2.935,40.000,24.000,65.500,24.500
2.936,39.000,22.500,63.500,22.000
2.937,38.500,21.000,62.000,20.000
2.938,38.000,20.500,61.000,18.500
2.939,38.000,20.500,61.000,18.500
2.940,38.000,20.500,61.500,19.000
2.941,39.000,21.500,62.000,20.500
2.942,39.500,22.500,63.000,22.500
2.943,39.500,23.000,64.000,24.000
2.944,39.500,23.000,65.000,26.000
2.945,39.500,23.500,65.500,27.500
2.946,39.000,23.500,66.000,28.500
2.947,39.000,24.000,66.000,29.500
2.948,39.000,24.000,66.000,30.000
2.949,38.500,24.000,65.500,29.500
2.950,37.500,23.000,64.500,28.500
2.951,36.500,22.000,62.500,26.500
2.952,35.000,20.000,60.500,24.000
2.953,33.500,18.500,58.500,21.000
2.954,32.500,17.000,57.000,18.500
2.955,32.000,16.000,55.500,16.500
2.956,31.500,15.000,54.500,14.500
2.957,31.500,15.000,54.000,13.500
2.958,32.000,15.000,54.500,13.000
2.959,33.000,15.500,55.500,13.500
2.960,33.500,16.500,56.500,14.500
2.961,34.000,17.000,57.500,16.000
2.962,34.000,17.500,58.500,17.500
2.963,33.500,17.500,58.500,18.500
2.964,32.500,16.500,58.500,19.000
2.965,31.000,15.500,57.500,19.000
2.966,29.500,14.500,56.500,18.000
2.967,27.500,13.000,55.500,17.000
2.968,26.000,12.000,54.000,15.500
2.969,25.000,10.500,52.500,14.000
2.970,24.500,10.000,51.000,13.000
2.971,24.500,10.500,51.000,12.000
2.972,26.500,11.500,51.500,12.500
2.973,29.500,14.500,54.000,14.000
2.974,34.500,19.500,58.000,18.000
2.975,41.500,26.000,65.000,23.500
2.976,50.500,34.500,73.500,31.500
2.977,61.000,44.500,83.500,41.500
2.978,71.500,55.000,94.500,52.500
2.979,82.000,65.500,105.500,64.000
2.980,92.000,75.500,116.500,75.500
2.981,102.000,86.000,127.500,87.500
2.982,111.500,96.500,139.000,100.000
2.983,122.500,108.500,151.500,113.500
2.984,134.500,121.500,165.500,129.000
2.985,149.500,137.500,182.000,146.500
2.986,166.500,155.500,201.000,167.000
2.987,186.000,176.000,222.000,189.000
2.988,207.500,198.000,244.500,212.500
2.989,229.500,220.500,268.000,236.500
2.990,252.000,243.500,292.000,260.500
2.991,276.000,268.000,317.000,286.000
2.992,303.000,295.000,344.500,313.500
2.993,333.000,325.500,375.500,344.500
2.994,367.000,359.500,409.500,378.500
2.995,403.000,396.000,446.500,415.500
2.996,441.000,434.000,485.000,453.500
2.997,478.500,472.000,523.500,492.500
2.998,515.000,509.000,561.000,530.000
2.999,548.000,542.500,595.500,564.500
3.000,574.500,569.500,623.000,592.500
3.001,591.500,587.500,641.000,611.000
3.002,596.000,592.000,646.500,616.500
3.003,586.000,583.000,636.500,607.500
3.004,562.500,559.500,613.000,584.000
3.005,529.500,526.000,578.500,549.500
3.006,490.500,487.000,538.000,508.500
3.007,450.000,446.000,496.000,466.000
3.008,410.500,406.000,454.500,423.500
3.009,372.500,367.500,414.500,382.500
3.010,337.500,331.000,377.000,343.500
3.011,303.500,296.000,341.500,306.500
3.012,271.000,262.000,306.500,270.000
3.013,238.000,228.000,271.500,233.500
3.014,205.000,194.000,236.000,197.000
3.015,173.000,160.000,201.500,161.000
3.016,142.500,128.500,169.000,127.500
3.017,115.500,100.500,140.000,98.000
3.018,93.000,77.500,116.500,74.000
3.019,75.000,59.500,98.000,55.500
3.020,60.500,45.500,83.500,41.500
3.021,48.500,33.500,72.000,30.500
3.022,38.000,23.000,61.500,21.000
3.023,28.000,13.500,52.500,12.500
3.024,18.500,5.000,43.500,4.500
3.025,9.500,-3.500,35.500,-3.000
3.026,1.500,-11.500,28.000,-10.000
3.027,-5.500,-18.000,22.000,-16.000
3.028,-10.500,-23.000,16.500,-21.000
3.029,-14.500,-26.500,12.500,-25.000
3.030,-17.000,-29.000,10.000,-27.500
3.031,-17.500,-30.000,8.500,-28.500
3.032,-17.500,-30.000,8.500,-29.000
3.033,-16.000,-29.000,9.000,-29.000
3.034,-14.000,-27.500,10.000,-28.000
3.035,-11.000,-25.000,12.000,-26.500
3.036,-8.500,-22.500,14.500,-25.000
3.037,-5.500,-19.500,17.000,-23.000
3.038,-2.500,-16.500,20.000,-20.000
3.039,1.000,-13.500,23.500,-17.000
3.040,4.500,-10.000,27.500,-12.500
3.041,8.000,-6.500,31.500,-8.000
3.042,11.000,-3.000,35.500,-3.000
3.043,14.000,0.500,39.500,2.000
3.044,16.500,3.500,42.500,6.000
3.045,18.000,6.000,45.000,9.500
3.046,19.000,8.000,46.500,12.000
3.047,20.500,9.000,48.000,13.500
3.048,21.500,10.500,49.000,15.000
3.049,22.500,11.500,50.000,16.000
3.050,24.000,12.500,51.000,17.000
3.051,25.000,13.500,51.500,17.500
3.052,26.000,14.500,52.000,17.000
3.053,27.000,15.000,51.500,16.500
3.054,27.500,15.000,51.500,15.500
3.055,28.000,15.000,51.000,14.500
3.056,28.500,15.000,51.000,13.500
3.057,29.000,15.000,50.500,12.500
3.058,29.500,15.000,50.500,12.000
3.059,29.500,15.000,51.000,11.500
3.060,30.000,15.500,51.500,12.500
3.061,30.500,16.000,53.000,14.000
3.062,31.500,17.500,54.500,16.000
3.063,32.000,18.500,56.000,18.500
3.064,33.000,20.000,57.500,21.500
3.065,33.500,20.500,59.000,23.500
3.066,34.000,21.500,60.000,25.500
3.067,34.000,22.000,60.500,26.500
3.068,34.000,22.500,60.500,27.000
3.069,34.000,22.500,60.500,27.500
3.070,33.500,22.500,60.000,27.000
3.071,33.500,22.500,59.500,26.000
3.072,33.000,22.000,59.000,25.000
3.073,33.000,21.500,58.000,23.500
3.074,33.500,21.500,57.500,22.000
3.075,33.500,21.000,57.000,20.500
3.076,33.500,20.500,56.500,19.000
3.077,34.000,20.500,56.500,18.000
3.078,35.000,21.000,57.000,18.000
3.079,36.000,21.500,57.500,18.500
3.080,36.500,22.500,58.500,19.500
3.081,37.500,23.500,59.500,21.500
3.082,38.000,24.500,61.000,23.500
3.083,38.500,25.500,62.500,26.000
3.084,39.000,26.500,63.500,28.500
3.085,39.500,27.500,65.000,30.500
3.086,40.000,28.000,66.000,32.000
3.087,40.500,29.000,67.000,33.500
3.088,41.000,29.500,68.000,34.000
3.089,41.500,29.500,68.500,34.500
3.090,41.500,30.000,68.500,34.500
3.091,41.000,30.000,68.000,33.500
3.092,40.500,29.500,67.000,32.500
3.093,40.000,28.500,65.500,30.500
3.094,39.500,27.500,64.000,29.000
3.095,39.500,27.000,63.000,27.000
3.096,39.500,26.500,62.500,26.000
3.097,40.500,27.000,62.500,25.500
3.098,41.000,27.500,63.500,25.500
3.099,42.000,28.500,64.500,26.500
3.100,43.000,29.500,66.000,28.000
3.101,44.000,31.000,67.500,30.000
3.102,45.000,32.500,69.500,32.500
3.103,46.000,34.000,71.500,35.000
3.104,47.000,35.500,73.500,38.000
3.105,47.500,36.500,75.000,40.500
3.106,48.500,37.500,76.000,42.500
3.107,49.000,38.000,77.000,43.500
3.108,49.500,38.500,77.000,44.500
3.109,49.500,38.500,77.000,44.500
3.110,49.500,38.500,76.500,44.000
3.111,49.000,37.500,76.000,43.000
3.112,48.000,36.500,74.500,41.000
3.113,47.500,35.500,73.500,39.000
3.114,47.500,35.000,72.500,37.500
3.115,48.000,34.500,72.000,36.000
3.116,49.000,35.000,72.000,35.000
3.117,50.000,35.500,72.500,34.500
3.118,51.000,36.000,73.000,35.000
3.119,52.000,37.000,74.000,35.500
3.120,53.000,38.000,75.500,37.000
3.121,54.000,39.500,77.000,39.000
3.122,55.000,41.000,78.500,41.500
3.123,55.500,42.000,80.500,44.500
3.124,56.000,43.500,82.000,47.000
3.125,56.500,44.500,84.000,49.000
3.126,57.500,45.500,85.500,51.500
3.127,58.500,47.000,87.000,53.500
3.128,60.000,48.500,89.000,55.500
3.129,61.500,50.000,90.500,57.000
3.130,63.000,51.000,91.500,58.000
3.131,63.500,51.500,92.000,58.000
3.132,63.000,51.000,91.500,57.000
3.133,62.500,50.000,90.000,55.000
3.134,62.500,49.500,89.000,53.500
3.135,62.000,49.000,88.000,52.000
3.136,62.500,48.500,87.500,50.500
3.137,63.500,49.000,87.500,50.000
3.138,64.500,50.000,88.500,50.500
3.139,66.000,51.500,90.000,51.500
3.140,67.500,52.500,91.500,53.000
3.141,69.000,54.500,93.500,55.500
3.142,70.500,56.000,96.000,58.500
3.143,72.000,58.000,98.000,62.000
3.144,73.000,59.500,100.000,65.000
3.145,74.500,61.500,102.000,68.000
3.146,75.500,63.000,104.000,70.500
3.147,77.000,64.500,105.500,72.500
3.148,78.000,65.500,106.500,74.000
3.149,78.500,66.500,107.500,74.500
3.150,79.500,67.000,108.000,74.500
3.151,80.000,67.500,108.500,74.500
3.152,81.000,68.000,108.500,74.500
3.153,82.000,68.500,108.500,74.000
3.154,83.000,69.000,108.500,73.000
3.155,84.000,69.500,108.500,72.500
3.156,85.500,70.500,109.000,72.000
3.157,87.000,71.000,110.000,72.000
3.158,89.000,72.500,111.500,73.000
3.159,91.000,74.000,113.500,75.000
3.160,92.500,76.000,116.000,78.000
3.161,94.500,78.000,118.500,81.500
3.162,96.500,80.500,121.000,85.500
3.163,98.500,83.000,124.000,89.500
3.164,100.500,86.000,127.500,93.500
3.165,102.500,88.500,130.500,97.500
3.166,104.500,91.000,133.500,101.000
3.167,106.500,93.500,135.500,103.500
3.168,108.000,95.000,137.500,105.500
3.169,109.000,96.500,139.000,107.000
3.170,110.500,97.500,140.500,108.000
3.171,112.000,99.000,141.500,109.000
3.172,114.000,101.000,143.000,110.000
3.173,116.500,103.000,145.000,111.500
3.174,119.000,105.500,146.500,112.500
3.175,121.500,107.500,148.500,113.500
3.176,124.000,109.500,150.500,115.000
3.177,126.500,112.000,152.500,116.500
3.178,129.500,114.500,155.000,119.000
3.179,132.500,118.000,158.500,122.500
3.180,136.000,121.500,162.500,126.500
3.181,139.000,125.000,166.500,131.000
3.182,142.000,128.500,170.000,136.000
3.183,145.000,131.500,173.500,140.500
3.184,147.000,134.500,177.000,145.000
3.185,149.500,137.500,180.000,149.000
3.186,152.500,140.500,183.500,153.000
3.187,155.000,144.000,187.000,156.500
3.188,158.000,147.000,190.500,160.000
3.189,160.500,149.500,193.000,162.500
3.190,162.500,152.000,195.500,165.000
3.191,165.000,154.500,197.500,166.500
3.192,167.500,156.500,200.000,168.500
3.193,170.500,159.500,202.000,170.500
3.194,174.000,162.500,205.000,172.500
3.195,177.500,165.500,208.000,175.000
3.196,181.000,169.000,211.000,177.500
3.197,185.000,172.500,214.500,180.500
3.198,189.000,176.500,218.500,184.000
3.199,192.500,180.500,222.500,188.000
3.200,196.500,184.500,227.000,192.500
3.201,201.000,189.000,231.500,198.000
3.202,205.000,194.000,236.500,204.000
3.203,209.000,198.000,241.500,210.000
3.204,213.000,202.000,246.500,216.000
3.205,216.000,206.000,250.500,221.000
3.206,219.500,209.500,254.500,226.000
3.207,222.500,212.500,258.000,229.500
3.208,225.000,215.500,260.500,233.000
3.209,227.000,218.000,263.000,235.500
3.210,229.500,220.000,265.000,237.500
3.211,232.000,222.500,266.500,239.500
3.212,234.000,224.500,268.000,240.500
3.213,236.500,226.500,270.000,242.000
3.214,239.000,228.500,271.500,242.500
3.215,241.000,230.500,273.000,243.500
3.216,244.000,233.000,275.500,245.000
3.217,247.000,236.000,278.000,247.000
3.218,250.000,239.000,281.500,249.500
3.219,253.500,242.500,285.000,253.000
3.220,257.000,246.000,289.000,257.000
3.221,260.500,249.000,293.000,262.000
3.222,263.500,252.000,297.000,266.500
3.223,266.000,255.000,300.500,271.000
3.224,268.500,258.000,304.000,275.500
3.225,270.500,260.500,307.000,279.000
3.226,272.000,262.500,309.000,282.000
3.227,273.500,264.000,310.500,284.500
3.228,274.500,265.500,312.000,286.000
3.229,275.500,266.500,312.500,287.000
3.230,276.500,267.500,313.500,287.500
3.231,277.500,268.500,314.000,288.000
3.232,279.000,269.000,315.000,288.000
3.233,280.000,270.000,315.500,288.000
3.234,281.500,270.500,316.000,288.000
3.235,283.000,271.500,317.000,288.000
3.236,284.500,272.500,317.500,288.000
3.237,285.500,273.500,318.500,288.500
3.238,287.000,274.500,319.500,289.500
3.239,288.500,275.500,320.500,290.500
3.240,289.500,276.500,321.500,292.000
3.241,290.000,277.500,322.500,293.500
3.242,290.000,278.500,323.500,295.000
3.243,290.000,278.500,324.000,297.000
3.244,290.000,279.000,324.500,298.000
3.245,289.000,278.500,324.500,299.000
3.246,288.000,277.500,324.000,299.000
3.247,287.000,276.500,323.000,298.500
3.248,285.000,274.500,321.000,297.000
3.249,283.000,272.000,318.500,294.500
3.250,280.000,269.000,315.500,291.500
3.251,276.500,265.500,312.000,287.500
3.252,273.000,261.000,307.500,283.000
3.253,268.500,256.000,302.500,277.500
3.254,264.500,251.500,298.000,272.000
3.255,261.000,247.500,293.500,266.500
3.256,257.500,243.500,289.500,261.500
3.257,254.500,240.000,286.000,256.500
3.258,251.000,236.000,281.500,251.500
3.259,247.000,232.000,277.500,247.000
3.260,243.500,228.000,273.500,243.000
3.261,239.000,224.000,269.000,239.000
3.262,234.500,219.500,264.500,235.000
3.263,229.500,214.500,259.500,231.000
3.264,225.000,209.500,254.500,227.500
3.265,220.500,205.000,250.000,223.500
3.266,216.500,201.000,246.000,219.500
3.267,213.000,197.500,242.000,215.500
3.268,209.500,194.000,238.000,211.500
3.269,206.000,190.000,234.000,207.000
3.270,202.500,186.500,229.500,202.000
3.271,199.000,182.000,225.000,197.000
3.272,195.500,178.000,220.000,191.000
3.273,191.500,173.500,215.000,185.000
3.274,188.000,169.000,210.000,179.000
3.275,184.500,165.000,205.500,173.000
3.276,181.000,161.000,201.000,168.000
3.277,177.500,157.000,197.000,163.000
3.278,174.000,153.000,193.500,159.000
3.279,170.500,149.500,190.000,155.500
3.280,167.000,146.000,187.000,152.500
3.281,163.500,143.000,184.000,150.500
3.282,160.000,140.500,182.000,149.000
3.283,156.500,137.500,180.000,147.500
3.284,153.000,134.500,177.500,146.000
3.285,149.000,131.500,174.500,144.000
3.286,145.500,129.000,172.000,141.500
3.287,142.500,126.000,169.500,139.000
3.288,139.500,123.500,166.500,136.500
3.289,136.500,120.000,163.500,133.500
3.290,133.500,117.000,160.000,129.500
3.291,130.500,113.500,156.000,125.500
3.292,127.000,109.500,151.500,121.000
3.293,124.500,106.000,147.500,116.000
3.294,121.500,103.000,144.000,111.000
3.295,119.500,100.000,140.500,106.500
3.296,117.500,97.500,138.000,103.000
3.297,115.500,95.500,136.000,100.000
3.298,114.000,93.500,134.000,98.000
3.299,112.500,92.000,133.000,96.500
3.300,111.000,91.000,131.500,95.000
3.301,109.500,90.000,131.000,95.000
3.302,108.500,89.000,130.000,95.000
3.303,107.500,88.500,129.500,95.500
3.304,106.500,87.500,129.000,96.000
3.305,105.000,86.500,128.500,96.000
3.306,103.500,85.000,127.500,96.000
3.307,102.000,83.500,126.000,95.000
3.308,100.000,82.000,124.500,93.500
3.309,98.500,80.500,123.000,91.500
3.310,96.500,78.500,120.500,89.000
3.311,94.500,76.000,118.500,86.000
3.312,93.000,74.000,116.000,83.000
3.313,91.500,72.000,113.500,80.000
3.314,91.000,70.500,111.500,77.000
3.315,90.000,69.000,110.000,74.500
3.316,89.500,68.500,108.500,72.000
3.317,89.000,67.500,107.500,70.500
3.318,89.000,67.500,107.000,69.500
3.319,88.500,67.500,107.000,69.500
3.320,89.000,67.500,107.500,70.500
3.321,89.000,68.500,108.500,72.000
3.322,89.000,69.000,109.500,74.000
3.323,89.000,69.500,110.500,75.500
3.324,88.500,69.000,110.500,76.500
3.325,88.000,69.000,110.500,77.500
3.326,87.500,68.500,110.500,78.000
3.327,87.000,68.000,110.000,78.000
3.328,86.000,67.500,109.500,77.500
3.329,85.000,66.000,108.000,76.000
3.330,83.500,65.000,106.500,74.000
3.331,82.000,63.500,105.000,72.000
3.332,81.500,62.500,103.500,70.000
3.333,81.000,61.500,102.500,68.000
3.334,80.500,60.500,101.500,66.000
3.335,81.000,60.500,100.500,64.500
3.336,81.500,60.000,100.000,63.000
3.337,81.500,60.000,99.500,62.000
3.338,82.000,59.500,99.500,61.500
3.339,82.500,60.000,100.000,62.000
3.340,83.500,61.000,101.000,63.000
3.341,84.500,62.500,102.500,65.500
3.342,85.500,63.500,104.000,67.500
3.343,86.000,64.500,105.000,70.000
3.344,86.000,65.000,105.500,71.500
3.345,85.500,65.000,105.500,73.000
3.346,85.000,64.500,105.500,73.500
3.347,84.500,64.500,106.000,74.000
3.348,84.500,64.500,105.500,74.000
3.349,84.000,64.000,105.500,73.500
3.350,83.500,63.500,104.500,72.500
3.351,83.000,62.500,103.500,71.000
3.352,82.500,62.000,102.500,69.500
3.353,82.000,61.000,101.500,67.500
3.354,81.500,60.000,100.000,65.500
3.355,81.000,58.500,98.500,63.000
3.356,80.500,57.500,97.000,60.500
3.357,80.000,57.000,96.000,59.000
3.358,80.500,57.000,96.000,58.000
3.359,81.000,57.500,96.500,58.500
3.360,82.000,58.500,98.000,60.000
3.361,83.000,59.500,99.000,62.000
3.362,84.000,60.500,100.500,64.000
3.363,84.500,61.500,102.000,66.500
3.364,85.000,62.000,103.000,69.000
3.365,85.500,63.000,104.500,71.000
3.366,86.000,63.500,106.000,73.000
3.367,86.500,64.500,107.000,74.500
3.368,86.500,65.000,108.000,75.000
3.369,86.500,65.000,108.000,74.500
3.370,86.000,65.000,107.500,73.500
3.371,85.000,64.000,106.500,72.000
3.372,84.500,63.500,105.000,70.000
3.373,84.000,62.500,104.000,68.000
3.374,84.000,61.500,103.000,66.500
3.375,84.000,61.000,102.000,64.500
3.376,84.000,60.500,101.500,63.000
3.377,84.000,60.500,101.500,62.500
3.378,85.000,61.000,102.000,62.500
3.379,86.000,62.000,103.000,63.000
3.380,87.000,63.500,104.500,65.000
3.381,88.500,65.000,106.000,67.500
3.382,89.500,66.500,107.500,70.000
3.383,90.000,67.500,109.000,72.500
3.384,90.500,68.500,110.500,74.500
3.385,90.500,69.000,111.500,76.000
3.386,90.000,69.000,112.000,77.000
3.387,90.000,69.000,112.500,77.500
3.388,89.500,68.500,112.500,77.500
3.389,89.000,68.500,112.000,77.000
3.390,88.500,67.500,111.000,76.000
3.391,88.000,67.000,110.000,74.500
3.392,87.000,66.000,108.500,73.000
3.393,86.500,65.000,107.000,70.500
3.394,85.500,64.000,105.500,68.000
3.395,85.000,62.500,104.500,66.000
3.396,85.000,62.000,103.500,64.000
3.397,85.000,61.500,102.500,62.500
3.398,85.000,61.500,102.500,61.500
3.399,85.000,62.000,103.000,61.500
3.400,85.500,62.500,103.500,62.500
3.401,86.000,63.500,104.500,64.500
3.402,86.500,64.500,106.000,67.000
3.403,87.500,66.500,107.500,70.000
3.404,88.500,68.000,109.500,73.000
3.405,89.500,69.500,111.000,75.500
3.406,90.000,70.000,112.000,77.000
3.407,90.000,70.500,112.500,78.000
3.408,89.500,70.000,112.000,78.000
3.409,89.000,69.500,111.500,77.500
3.410,88.500,69.500,111.000,76.500
3.411,88.500,69.000,110.500,75.500
3.412,88.500,69.000,110.500,75.000
3.413,89.000,69.000,110.000,73.500
3.414,89.500,69.000,109.500,72.500
3.415,90.000,69.000,109.000,71.000
3.416,90.500,69.000,108.500,70.000
3.417,91.000,69.000,108.000,69.000
3.418,91.000,69.000,108.000,69.000
3.419,91.500,69.000,108.500,69.000
3.420,91.500,69.500,109.500,69.500
3.421,92.000,70.500,110.500,71.000
