'Elapsed time','AECG1','AECG2','AECG3','AECG4'
'seconds','uV','uV','uV','uV'
0.000,10.500,11.500,121.500,29.000
0.001,11.000,11.500,122.000,31.000
0.002,11.500,11.500,122.000,32.500
0.003,11.500,11.500,122.500,33.500
0.004,11.500,11.500,123.000,34.500
0.005,11.500,11.000,123.000,35.000
0.006,11.000,11.000,123.500,35.500
0.007,11.000,10.500,123.000,35.500
0.008,11.000,10.500,123.000,35.000
0.009,11.000,10.500,122.500,35.000
0.010,10.500,10.500,122.000,34.000
0.011,10.500,10.000,122.000,33.000
0.012,10.000,10.000,121.500,32.000
0.013,10.000,10.000,121.000,31.000
0.014,9.500,10.000,121.000,29.500
0.015,9.000,9.500,120.500,28.000
0.016,8.500,9.000,120.500,27.500
0.017,8.000,9.000,120.500,27.000
0.018,8.000,8.500,120.500,27.500
0.019,7.500,8.500,120.000,28.000
0.020,8.000,8.000,120.000,29.000
0.021,8.000,8.000,119.500,30.500
0.022,8.500,8.500,119.500,31.500
0.023,8.500,8.500,119.500,33.000
0.024,9.000,9.000,120.000,34.000
0.025,9.500,9.500,121.000,35.000
0.026,10.000,10.000,121.500,35.500
0.027,10.500,10.500,122.000,36.000
0.028,10.500,11.000,122.500,36.000
0.029,11.500,11.500,122.500,36.000
0.030,12.000,12.500,122.500,36.000
0.031,12.500,13.000,122.500,36.000
0.032,13.500,14.000,123.000,35.500
0.033,14.000,14.500,123.500,35.500
0.034,14.500,15.500,124.500,35.000
0.035,14.500,16.500,125.500,35.000
0.036,15.000,17.000,126.000,35.000
0.037,15.500,18.000,127.000,35.500
0.038,16.500,18.500,127.500,36.000
0.039,17.000,19.000,128.000,37.000
0.040,17.500,19.000,128.000,38.000
0.041,18.000,19.000,127.500,39.500
0.042,18.000,18.500,127.000,40.500
0.043,17.500,18.000,126.500,41.000
0.044,17.000,17.500,126.000,41.500
0.045,16.500,17.000,126.000,42.000
0.046,16.000,16.500,126.000,42.000
0.047,15.500,16.000,125.500,41.500
0.048,15.500,15.500,125.000,41.000
0.049,15.000,15.500,124.500,40.500
0.050,15.000,15.500,124.000,39.500
0.051,15.000,15.500,123.000,38.500
0.052,15.000,16.000,122.500,37.500
0.053,15.000,16.000,122.500,36.500
0.054,15.000,15.500,122.000,35.500
0.055,14.500,15.500,122.500,34.500
0.056,14.000,15.500,122.500,34.000
0.057,13.500,15.500,122.500,33.500
0.058,13.500,15.000,122.500,33.500
0.059,14.000,15.000,122.000,34.000
0.060,14.000,15.000,122.000,35.000
0.061,14.500,15.000,121.500,36.500
0.062,14.500,15.000,121.500,37.500
0.063,14.500,15.000,121.500,38.000
0.064,14.500,14.500,122.000,38.500
0.065,14.000,14.500,122.500,38.500
0.066,14.000,15.000,123.000,39.000
0.067,14.000,15.000,123.500,39.000
0.068,14.500,15.000,123.500,39.000
0.069,14.500,15.500,123.000,39.000
0.070,15.000,15.500,122.500,38.500
0.071,15.000,15.500,122.000,38.000
0.072,15.500,15.500,121.500,37.000
0.073,15.500,15.500,121.500,36.000
0.074,15.500,15.500,121.500,34.500
0.075,15.000,15.500,122.000,33.500
0.076,15.000,15.500,122.000,33.000
0.077,15.000,16.000,122.000,33.000
0.078,15.000,16.000,122.000,33.500
0.079,15.500,16.000,122.000,34.500
0.080,16.000,16.000,122.000,36.000
0.081,16.000,16.500,122.000,37.500
0.082,16.500,16.500,122.000,38.500
0.083,16.500,16.500,122.000,39.500
0.084,16.500,16.500,122.000,40.000
0.085,16.000,16.500,122.500,40.500
0.086,16.000,16.500,123.000,40.500
0.087,15.500,17.000,123.500,41.000
0.088,15.500,17.000,123.500,41.000
0.089,15.500,17.500,123.500,40.500
0.090,15.500,17.500,123.000,40.000
0.091,15.500,18.000,122.500,39.500
0.092,16.000,18.000,122.500,38.500
0.093,16.000,18.000,122.000,37.500
0.094,15.500,17.500,122.500,36.000
0.095,15.000,17.500,122.500,35.000
0.096,15.000,17.500,123.000,34.000
0.097,15.000,17.500,123.500,33.500
0.098,15.000,18.000,123.500,34.000
0.099,15.500,18.000,124.000,35.000
0.100,16.000,18.500,124.000,36.500
0.101,16.500,19.000,124.500,38.000
0.102,17.000,19.500,124.500,39.500
0.103,17.000,19.500,124.500,41.000
0.104,17.000,19.000,124.500,41.500
0.105,17.000,19.000,124.500,41.500
0.106,17.000,19.000,124.500,41.500
0.107,16.500,18.500,124.000,41.000
0.108,16.000,18.500,123.500,40.500
0.109,15.500,18.000,123.000,39.500
0.110,15.000,18.000,122.500,39.000
0.111,15.000,18.000,121.500,37.500
0.112,14.500,18.000,120.500,36.500
0.113,14.500,17.500,120.000,35.000
0.114,14.000,17.500,119.500,34.000
0.115,13.500,17.000,119.500,32.500
0.116,13.000,16.500,119.500,31.500
0.117,13.000,16.000,119.500,31.500
0.118,12.500,16.000,119.000,31.500
0.119,12.000,15.500,119.000,32.500
0.120,12.000,15.500,119.000,33.500
0.121,12.000,15.000,118.500,35.000
0.122,11.500,15.000,118.500,36.500
0.123,11.500,14.500,118.500,37.500
0.124,11.000,14.500,119.000,39.000
0.125,11.000,14.000,119.500,40.000
0.126,11.000,14.000,120.500,41.000
0.127,10.500,14.000,121.000,42.000
0.128,10.500,14.500,121.000,42.500
0.129,10.500,15.000,121.500,43.000
0.130,11.000,16.000,122.000,43.500
0.131,11.500,17.000,122.500,44.000
0.132,12.000,18.000,123.500,45.000
0.133,12.500,19.000,125.000,45.500
0.134,12.500,20.000,127.000,46.500
0.135,13.000,21.000,128.500,47.500
0.136,13.500,21.500,130.500,48.500
0.137,13.500,22.000,132.000,50.000
0.138,13.500,22.500,133.500,51.500
0.139,14.000,22.500,134.000,53.000
0.140,14.500,23.000,134.500,55.000
0.141,15.000,23.500,135.000,57.000
0.142,16.000,24.000,135.500,58.500
0.143,16.500,24.500,136.000,60.000
0.144,17.500,25.000,137.000,61.000
0.145,18.500,26.000,137.500,61.500
0.146,19.500,26.500,138.000,61.500
0.147,21.000,27.500,138.500,61.000
0.148,22.500,28.500,138.500,60.500
0.149,24.000,30.000,138.000,60.000
0.150,25.000,30.500,137.500,58.500
0.151,26.000,31.500,136.500,57.000
0.152,26.500,31.500,135.500,55.000
0.153,27.000,31.500,134.500,52.500
0.154,27.000,31.000,134.000,50.500
0.155,26.000,30.500,133.500,48.500
0.156,25.500,30.000,133.000,47.000
0.157,25.000,29.000,132.500,45.500
0.158,24.500,28.000,131.500,44.500
0.159,24.000,27.000,130.500,44.500
0.160,23.500,26.500,129.500,44.500
0.161,23.500,26.000,128.500,45.000
0.162,23.000,25.000,127.500,45.500
0.163,22.500,24.500,126.500,46.000
0.164,21.500,23.500,125.500,45.500
0.165,20.500,22.500,125.000,45.000
0.166,19.500,21.500,124.500,44.000
0.167,18.500,21.000,123.500,43.000
0.168,17.500,20.000,122.500,42.000
0.169,17.000,19.500,121.500,40.500
0.170,16.500,19.000,120.000,39.000
0.171,16.000,19.000,119.000,38.000
0.172,15.500,18.500,118.000,36.500
0.173,15.000,18.500,117.500,35.000
0.174,14.000,18.000,117.000,33.500
0.175,13.000,18.000,117.000,32.500
0.176,12.500,18.000,117.000,31.500
0.177,12.500,17.500,117.000,31.000
0.178,12.500,17.500,116.500,31.000
0.179,12.500,17.000,116.000,31.500
0.180,12.500,17.000,115.500,32.000
0.181,12.500,16.500,115.000,33.000
0.182,12.500,16.000,115.000,34.000
0.183,12.500,16.000,115.000,35.000
0.184,12.500,15.500,115.000,35.500
0.185,12.500,15.500,115.500,36.000
0.186,12.500,15.500,116.000,36.000
0.187,12.000,15.500,116.000,35.500
0.188,12.000,15.500,116.000,35.500
0.189,12.000,15.500,115.500,34.500
0.190,12.000,15.500,115.000,33.500
0.191,12.000,16.000,114.500,33.000
0.192,12.000,16.000,114.000,32.000
0.193,11.500,16.000,114.000,31.000
0.194,11.500,16.000,114.000,30.000
0.195,11.500,16.000,114.000,29.000
0.196,11.000,16.000,114.500,28.000
0.197,11.000,16.000,114.500,28.000
0.198,11.500,15.500,114.500,28.000
0.199,11.500,15.500,114.500,28.500
0.200,11.500,15.000,114.000,29.500
0.201,11.500,15.000,114.000,31.000
0.202,11.500,14.500,113.500,32.000
0.203,11.500,14.000,113.500,32.500
0.204,11.000,13.500,113.500,33.000
0.205,10.500,13.000,113.500,33.000
0.206,10.500,13.000,113.500,33.000
0.207,10.500,12.500,114.000,32.500
0.208,10.000,12.500,114.000,32.500
0.209,10.000,13.000,114.000,32.000
0.210,10.000,13.000,113.500,31.000
0.211,10.000,13.000,113.000,30.000
0.212,9.500,13.500,112.500,29.000
0.213,9.500,13.500,112.500,27.500
0.214,9.000,13.500,112.500,26.500
0.215,9.000,13.500,113.000,25.500
0.216,8.500,14.000,113.000,25.000
0.217,8.500,14.000,113.500,24.500
0.218,9.000,14.000,113.500,25.000
0.219,9.000,14.000,114.000,26.000
0.220,9.500,14.500,113.500,27.000
0.221,10.000,14.500,113.500,28.500
0.222,10.000,14.500,113.000,29.500
0.223,10.000,14.000,112.500,30.500
0.224,10.000,14.000,112.500,31.000
0.225,10.000,13.500,112.500,31.500
0.226,10.000,13.500,112.500,31.500
0.227,9.500,13.500,112.000,31.000
0.228,9.000,13.500,112.000,30.500
0.229,8.500,13.500,111.000,30.000
0.230,8.500,13.500,110.500,29.000
0.231,8.500,13.500,109.500,28.000
0.232,8.500,13.500,109.000,27.000
0.233,8.000,13.500,109.000,26.000
0.234,7.500,13.500,109.000,24.500
0.235,7.500,13.000,109.000,23.500
0.236,7.000,13.000,109.500,23.000
0.237,7.000,13.000,110.000,22.500
0.238,7.000,13.500,110.000,23.000
0.239,7.000,13.500,110.500,24.500
0.240,8.000,14.000,111.000,25.500
0.241,8.500,14.000,111.000,27.000
0.242,9.000,14.000,111.000,28.500
0.243,9.000,14.000,111.500,29.500
0.244,8.500,14.000,111.500,30.000
0.245,8.000,13.500,112.000,30.500
0.246,8.000,13.500,112.500,30.500
0.247,7.500,13.500,112.500,30.500
0.248,7.500,13.000,112.000,30.000
0.249,7.000,12.500,111.500,29.000
0.250,7.000,12.500,110.500,28.000
0.251,6.500,12.000,110.000,27.000
0.252,6.500,11.500,109.000,26.000
0.253,6.500,11.500,109.000,25.000
0.254,6.000,11.500,109.000,24.000
0.255,6.000,12.000,109.500,23.000
0.256,6.000,12.000,110.000,22.500
0.257,6.000,12.000,110.000,22.500
0.258,6.000,12.000,110.500,23.000
0.259,6.000,12.000,110.500,24.000
0.260,6.000,12.000,110.500,25.000
0.261,6.500,11.500,110.500,26.000
0.262,6.500,11.000,110.000,27.000
0.263,6.500,11.000,110.000,27.500
0.264,7.000,11.000,110.000,28.500
0.265,7.000,11.000,110.500,29.000
0.266,7.000,11.500,111.000,29.500
0.267,7.000,11.500,111.000,29.500
0.268,7.000,12.000,111.000,29.500
0.269,6.500,12.000,110.500,29.000
0.270,6.500,12.500,110.000,28.000
0.271,6.500,12.500,109.500,27.000
0.272,6.500,12.500,109.000,26.000
0.273,6.500,12.500,109.000,25.000
0.274,6.500,12.500,109.000,24.000
0.275,6.000,12.500,109.500,23.000
0.276,6.000,12.500,110.500,22.500
0.277,6.000,12.500,111.000,22.500
0.278,6.000,12.500,111.000,23.000
0.279,6.000,13.000,111.500,24.000
0.280,6.500,13.000,111.500,25.000
0.281,7.000,13.000,111.500,26.000
0.282,7.000,13.000,111.000,27.000
0.283,7.000,12.500,111.000,28.000
0.284,6.500,12.500,111.500,28.500
0.285,6.500,12.000,112.000,29.500
0.286,6.000,12.000,112.500,29.500
0.287,6.000,12.000,112.500,29.500
0.288,5.500,12.000,112.500,29.500
0.289,5.500,12.000,111.500,29.000
0.290,5.500,12.000,110.500,28.000
0.291,5.500,12.000,110.000,27.000
0.292,5.000,12.000,109.500,26.000
0.293,5.000,12.000,109.500,25.000
0.294,4.500,12.000,110.000,24.000
0.295,4.500,12.000,110.500,23.500
0.296,4.000,11.500,111.000,23.000
0.297,4.000,11.500,111.500,23.000
0.298,4.000,11.000,111.000,23.500
0.299,4.500,11.000,111.000,24.000
0.300,4.500,10.500,110.500,25.000
0.301,5.000,10.500,110.000,26.500
0.302,5.500,10.500,110.000,28.000
0.303,5.500,10.500,109.500,29.000
0.304,5.500,10.500,109.500,29.500
0.305,5.000,10.000,109.500,29.500
0.306,5.000,10.000,109.500,29.500
0.307,4.500,10.000,109.000,29.000
0.308,4.000,10.000,108.500,29.000
0.309,4.000,10.000,108.000,28.500
0.310,4.000,10.000,107.500,28.000
0.311,3.500,9.500,106.500,27.000
0.312,3.500,9.500,106.000,26.000
0.313,3.500,9.500,106.000,24.500
0.314,3.000,9.500,106.500,23.500
0.315,3.000,9.500,107.000,22.500
0.316,3.000,9.500,107.500,22.000
0.317,2.500,9.500,108.000,22.000
0.318,2.500,9.500,108.500,22.500
0.319,2.500,9.500,109.000,23.500
0.320,2.500,9.500,109.000,24.500
0.321,2.500,9.500,109.000,26.000
0.322,2.500,9.500,108.500,27.000
0.323,2.500,9.000,108.500,28.500
0.324,2.500,9.000,108.500,29.000
0.325,2.000,9.000,108.500,29.500
0.326,2.000,9.000,108.500,29.500
0.327,2.000,9.000,108.500,29.500
0.328,2.000,9.000,108.500,29.000
0.329,2.000,9.000,108.500,28.500
0.330,2.000,9.000,108.500,28.000
0.331,2.000,9.500,108.500,27.000
0.332,2.000,9.500,108.500,26.500
0.333,2.000,9.500,108.500,25.500
0.334,2.000,9.500,108.500,24.500
0.335,1.500,9.500,109.000,23.500
0.336,1.500,9.500,110.000,23.500
0.337,1.500,10.000,110.500,23.500
0.338,2.000,10.000,111.000,24.500
0.339,2.000,10.000,111.500,25.500
0.340,2.500,10.000,111.500,27.000
0.341,3.000,10.000,112.000,28.000
0.342,3.000,10.000,112.000,29.500
0.343,3.000,10.000,112.000,30.000
0.344,2.500,9.500,112.000,30.500
0.345,2.000,9.500,112.000,30.500
0.346,1.500,9.000,112.500,30.500
0.347,1.000,9.000,112.500,30.000
0.348,1.000,9.000,112.500,30.000
0.349,1.000,9.000,112.500,29.500
0.350,1.000,9.000,112.000,29.000
0.351,1.000,9.500,111.500,28.000
0.352,0.500,9.500,110.500,27.000
0.353,0.500,9.000,110.500,26.000
0.354,0.000,9.000,110.000,24.500
0.355,-0.500,9.000,110.500,23.500
0.356,-1.000,9.000,111.000,23.000
0.357,-1.000,9.000,111.000,23.000
0.358,-1.000,9.000,111.000,23.500
0.359,-1.000,9.000,111.000,24.000
0.360,-0.500,9.000,111.500,25.500
0.361,-0.500,9.000,111.500,26.500
0.362,0.000,9.000,111.500,27.500
0.363,0.000,9.000,111.500,28.500
0.364,-0.500,8.500,112.000,29.000
0.365,-0.500,8.500,112.000,29.000
0.366,-1.000,8.500,112.500,29.000
0.367,-1.000,8.500,112.500,29.000
0.368,-1.000,8.500,112.500,28.500
0.369,-1.000,8.500,112.000,28.000
0.370,-0.500,9.000,112.000,27.500
0.371,-0.500,9.000,111.500,26.500
0.372,-0.500,9.000,111.000,25.000
0.373,-0.500,9.000,111.000,24.000
0.374,-1.000,9.000,111.500,23.000
0.375,-1.000,9.000,111.500,22.500
0.376,-1.500,9.000,112.000,22.000
0.377,-1.500,9.000,112.500,22.500
0.378,-1.000,9.500,112.500,23.500
0.379,-0.500,10.000,112.500,24.500
0.380,0.000,10.000,112.500,26.000
0.381,0.500,10.500,112.000,27.000
0.382,0.500,10.500,111.500,28.000
0.383,0.500,10.000,111.500,29.000
0.384,0.000,9.500,111.500,29.000
0.385,0.000,9.500,112.000,29.500
0.386,0.000,9.500,112.500,29.500
0.387,0.000,10.000,112.500,29.500
0.388,0.500,10.000,112.500,29.500
0.389,0.500,10.000,112.500,28.500
0.390,0.500,10.500,111.500,27.500
0.391,1.000,10.500,111.000,26.500
0.392,1.000,10.500,111.000,25.500
0.393,0.500,10.500,111.000,24.500
0.394,0.500,10.500,111.500,23.500
0.395,0.500,11.000,112.000,22.500
0.396,0.500,11.000,112.500,22.000
0.397,0.500,11.000,113.000,21.500
0.398,1.000,11.000,113.000,22.000
0.399,1.000,11.000,113.000,23.000
0.400,2.000,11.000,113.000,24.000
0.401,2.500,11.000,113.000,25.500
0.402,2.500,11.000,112.500,26.500
0.403,2.500,11.000,112.500,27.500
0.404,2.500,11.000,112.500,28.000
0.405,2.500,11.000,112.500,28.000
0.406,2.500,11.000,113.000,28.000
0.407,3.000,11.000,113.000,28.000
0.408,3.000,11.000,113.500,28.000
0.409,3.000,11.500,113.500,28.000
0.410,3.500,11.500,113.000,27.500
0.411,3.500,11.500,112.500,26.500
0.412,4.000,12.000,112.000,25.500
0.413,4.000,12.000,112.000,24.000
0.414,4.000,12.500,112.500,23.000
0.415,4.000,12.500,113.000,22.500
0.416,4.500,12.500,114.000,22.000
0.417,4.500,13.000,114.500,22.500
0.418,4.500,13.000,115.000,22.500
0.419,4.500,12.500,114.500,23.500
0.420,5.000,12.500,114.500,24.000
0.421,5.000,12.000,113.500,25.000
0.422,5.000,12.000,113.000,26.000
0.423,4.500,11.500,112.500,26.500
0.424,4.000,11.000,112.500,27.000
0.425,3.500,10.500,112.500,27.000
0.426,3.000,10.000,112.000,26.500
0.427,2.000,9.500,111.500,26.000
0.428,1.500,9.000,111.000,25.000
0.429,1.000,8.500,110.000,24.000
0.430,0.500,8.000,109.000,22.500
0.431,0.000,8.000,108.000,21.500
0.432,0.000,8.000,108.000,20.500
0.433,0.000,8.500,108.000,19.500
0.434,0.000,9.000,108.500,18.500
0.435,0.500,9.000,109.000,17.500
0.436,0.500,9.500,109.500,17.000
0.437,1.000,9.500,110.500,17.000
0.438,1.500,9.500,111.000,18.000
0.439,2.000,10.000,111.000,19.000
0.440,2.500,10.000,111.500,20.500
0.441,3.500,10.500,112.000,22.000
0.442,4.000,11.000,113.000,24.000
0.443,4.000,11.500,113.500,25.000
0.444,4.500,12.000,114.500,26.000
0.445,4.500,12.000,115.000,26.500
0.446,5.000,12.500,115.500,27.000
0.447,5.500,13.000,116.000,27.500
0.448,6.000,13.500,116.000,27.500
0.449,6.000,14.000,115.500,27.000
0.450,6.500,14.500,115.000,26.500
0.451,6.500,14.500,114.500,25.500
0.452,6.000,14.500,113.500,24.500
0.453,6.000,14.000,113.000,23.500
0.454,5.500,14.000,112.500,22.000
0.455,5.000,13.500,112.500,21.000
0.456,4.500,13.000,112.500,20.500
0.457,4.000,13.000,112.500,20.000
0.458,3.500,12.500,112.500,20.000
0.459,3.500,12.500,112.000,20.500
0.460,3.500,12.500,112.000,21.500
0.461,4.000,12.500,111.500,22.500
0.462,4.000,12.500,112.000,24.000
0.463,4.000,12.500,112.000,24.500
0.464,4.000,12.000,112.500,25.500
0.465,3.500,12.000,112.500,25.500
0.466,3.000,12.000,113.000,25.500
0.467,3.000,12.000,113.000,25.500
0.468,3.000,12.000,113.000,25.500
0.469,3.500,12.000,112.500,24.500
0.470,3.500,12.000,112.000,23.500
0.471,3.500,12.500,111.000,22.500
0.472,3.500,12.500,110.500,21.000
0.473,3.500,12.500,110.000,20.000
0.474,3.500,12.500,110.000,19.000
0.475,3.000,12.500,110.500,18.500
0.476,3.000,12.500,111.000,18.000
0.477,3.000,12.500,111.500,18.000
0.478,3.000,12.000,111.500,18.500
0.479,3.000,12.000,112.000,19.000
0.480,3.000,12.000,112.000,20.000
0.481,3.500,12.000,111.500,21.500
0.482,4.000,11.500,111.500,22.500
0.483,4.000,11.500,111.500,23.500
0.484,4.000,11.500,111.500,24.500
0.485,3.500,11.000,111.500,25.000
0.486,3.500,11.000,111.500,25.000
0.487,3.500,11.000,112.000,24.500
0.488,3.500,11.000,111.500,24.500
0.489,3.500,11.000,111.500,24.000
0.490,3.500,11.500,111.500,23.000
0.491,3.500,11.500,111.000,22.500
0.492,4.000,11.500,111.000,21.500
0.493,3.500,11.500,111.000,20.500
0.494,3.500,11.500,111.500,19.500
0.495,3.500,11.500,111.500,18.500
0.496,3.000,11.500,112.000,17.500
0.497,3.000,11.500,112.000,17.500
0.498,3.500,11.500,112.500,18.500
0.499,3.500,12.000,113.000,19.500
0.500,4.000,12.500,113.000,20.500
0.501,4.000,12.500,113.000,22.000
0.502,4.500,13.000,113.500,23.500
0.503,4.500,13.000,113.500,24.500
0.504,4.500,12.500,114.000,25.000
0.505,4.000,12.500,114.500,25.500
0.506,4.000,12.500,115.000,25.500
0.507,4.000,12.500,115.000,25.500
0.508,4.000,12.500,115.000,25.500
0.509,4.000,12.500,114.500,25.000
0.510,4.500,12.500,114.000,24.500
0.511,4.500,12.500,113.000,23.500
0.512,4.500,13.000,112.500,22.500
0.513,4.000,13.000,112.500,21.500
0.514,4.000,13.000,112.500,20.500
0.515,3.500,12.500,113.000,20.000
0.516,3.500,12.500,113.500,19.500
0.517,3.500,12.500,113.500,19.000
0.518,4.000,12.500,114.000,19.500
0.519,4.000,12.500,114.000,20.000
0.520,4.500,12.500,113.500,21.000
0.521,5.000,12.500,113.500,22.000
0.522,5.000,12.500,113.000,23.000
0.523,5.500,12.000,113.500,24.000
0.524,5.000,12.000,113.500,25.000
0.525,4.500,12.000,114.000,25.500
0.526,4.500,12.000,114.500,25.500
0.527,4.500,12.000,114.500,26.000
0.528,4.500,12.000,114.500,25.500
0.529,4.500,12.000,114.500,25.500
0.530,4.500,12.500,114.000,24.500
0.531,4.500,12.500,113.500,24.000
0.532,4.500,13.000,113.500,22.500
0.533,5.000,13.500,113.500,21.500
0.534,5.000,13.500,113.500,20.500
0.535,5.000,14.000,114.000,19.500
0.536,5.000,14.000,114.500,19.000
0.537,4.500,14.000,114.500,19.000
0.538,4.500,14.000,115.000,19.500
0.539,5.000,14.000,115.000,20.500
0.540,5.000,13.500,115.000,21.500
0.541,5.000,13.500,114.500,23.000
0.542,5.000,13.000,114.500,24.000
0.543,5.000,13.000,114.500,25.000
0.544,5.000,12.500,115.000,25.500
0.545,5.000,12.500,115.000,26.000
0.546,4.500,12.500,115.500,26.000
0.547,4.500,12.500,115.500,26.000
0.548,4.500,12.500,115.000,25.500
0.549,4.500,12.500,115.000,25.000
0.550,4.500,12.500,114.000,24.500
0.551,4.500,12.500,113.500,23.500
0.552,4.500,12.500,113.000,22.500
0.553,4.000,12.500,112.500,21.500
0.554,3.500,12.500,112.500,20.500
0.555,3.500,12.000,113.000,19.500
0.556,3.500,12.000,113.500,19.000
0.557,3.500,12.000,114.000,19.000
0.558,3.500,12.000,114.500,19.500
0.559,4.000,12.000,115.000,20.500
0.560,4.500,12.000,115.000,21.500
0.561,4.500,12.000,114.500,23.000
0.562,4.500,11.500,114.500,24.000
0.563,4.500,11.500,114.500,25.000
0.564,4.500,11.500,115.000,25.500
0.565,4.500,11.500,115.500,26.000
0.566,4.500,11.500,115.500,26.000
0.567,4.000,11.500,115.500,26.000
0.568,4.000,11.000,115.500,25.500
0.569,4.000,11.000,114.500,25.000
0.570,4.000,10.500,114.000,24.000
0.571,3.500,10.500,113.000,23.000
0.572,3.500,10.500,112.000,21.500
0.573,3.000,10.500,111.500,20.500
0.574,3.000,10.500,111.500,19.000
0.575,2.500,10.500,112.000,18.000
0.576,2.500,10.000,112.500,17.500
0.577,2.500,10.000,113.000,17.500
0.578,2.500,10.000,113.500,18.000
0.579,3.000,10.000,114.000,19.000
0.580,3.500,10.500,114.000,20.500
0.581,4.000,10.500,114.500,22.000
0.582,4.500,10.500,114.500,23.500
0.583,4.000,10.500,115.000,24.500
0.584,3.500,10.000,115.500,25.000
0.585,3.500,9.500,116.000,25.500
0.586,3.000,9.500,116.000,25.500
0.587,2.500,9.500,116.000,25.500
0.588,2.500,9.000,116.000,25.000
0.589,2.500,9.000,115.500,24.500
0.590,2.500,9.500,115.000,24.000
0.591,3.000,9.500,114.500,23.500
0.592,3.000,10.000,114.500,23.000
0.593,3.000,10.000,114.500,22.000
0.594,3.000,10.500,115.000,21.500
0.595,3.000,10.500,115.500,20.500
0.596,2.500,10.500,116.000,20.500
0.597,2.500,10.500,116.500,20.000
0.598,3.000,10.500,117.000,20.500
0.599,3.000,11.000,117.000,21.500
0.600,3.500,10.500,117.000,22.500
0.601,4.000,10.500,117.000,23.500
0.602,4.000,10.000,117.000,24.500
0.603,4.000,9.500,117.000,25.000
0.604,4.000,9.500,117.500,25.500
0.605,3.500,9.500,118.500,26.000
0.606,3.500,9.000,119.000,26.500
0.607,3.000,9.000,119.500,26.500
0.608,3.000,9.500,120.000,26.500
0.609,3.000,9.500,120.000,26.500
0.610,3.000,9.500,119.500,26.000
0.611,3.500,9.500,119.000,25.000
0.612,3.000,9.500,118.500,24.000
0.613,3.000,9.500,118.500,23.000
0.614,2.500,9.500,118.500,21.500
0.615,2.500,10.000,119.000,21.000
0.616,2.500,10.500,119.500,20.500
0.617,2.500,10.500,120.000,20.500
0.618,3.000,10.500,120.000,20.500
0.619,3.000,10.500,120.000,21.000
0.620,3.000,11.000,120.000,22.000
0.621,3.500,11.000,120.000,23.000
0.622,4.000,11.000,120.000,24.500
0.623,4.000,11.000,120.000,25.500
0.624,4.000,11.000,120.500,26.000
0.625,4.000,10.500,121.000,26.500
0.626,4.000,10.500,121.500,26.000
0.627,4.000,11.000,122.000,26.000
0.628,4.000,11.000,122.000,25.500
0.629,4.000,11.500,122.000,25.000
0.630,4.000,11.500,122.000,24.500
0.631,4.000,12.000,121.500,24.000
0.632,4.500,12.000,121.000,22.500
0.633,4.500,12.500,121.000,21.500
0.634,4.500,12.500,121.500,20.500
0.635,4.500,13.000,122.000,20.000
0.636,4.500,13.000,122.500,19.500
0.637,5.000,13.000,123.000,19.500
0.638,5.500,13.500,123.500,20.000
0.639,6.000,14.000,123.500,21.000
0.640,6.500,14.000,124.000,22.000
0.641,7.000,14.500,124.000,23.500
0.642,7.500,14.500,124.000,25.000
0.643,7.500,14.000,124.500,26.500
0.644,7.500,14.000,125.000,27.500
0.645,7.500,14.000,125.500,28.000
0.646,7.500,14.000,126.000,28.500
0.647,7.500,14.000,126.000,28.500
0.648,7.500,14.500,125.500,28.500
0.649,7.500,14.500,125.000,28.000
0.650,7.500,15.000,124.500,27.000
0.651,7.500,15.000,124.500,26.000
0.652,7.500,15.500,124.000,25.000
0.653,7.500,15.500,124.500,24.000
0.654,7.500,15.500,125.000,23.000
0.655,7.000,15.500,125.500,22.000
0.656,7.000,15.500,126.000,22.000
0.657,7.000,15.500,126.500,22.000
0.658,7.000,15.500,126.500,22.500
0.659,7.500,16.000,126.500,23.500
0.660,7.500,16.000,126.000,24.500
0.661,8.000,16.000,126.000,25.500
0.662,8.000,16.000,126.000,27.000
0.663,8.500,16.000,126.000,28.000
0.664,8.500,16.000,126.000,28.500
0.665,9.000,16.000,126.500,29.000
0.666,9.000,16.000,126.500,29.500
0.667,9.000,16.000,126.500,29.500
0.668,9.000,16.000,126.500,29.500
0.669,8.500,16.000,125.500,29.000
0.670,8.500,15.500,125.000,28.000
0.671,8.500,15.500,124.000,26.500
0.672,8.500,15.000,123.000,25.500
0.673,8.000,15.000,122.500,24.000
0.674,8.000,15.000,122.500,23.000
0.675,8.000,15.000,123.000,22.000
0.676,8.000,15.000,123.500,21.500
0.677,8.000,15.000,124.000,21.500
0.678,8.000,15.000,124.000,22.000
0.679,8.500,15.000,124.000,22.500
0.680,9.000,15.000,124.000,23.500
0.681,9.000,15.000,123.500,25.000
0.682,9.000,14.500,124.000,26.000
0.683,9.000,14.000,124.000,27.000
0.684,9.000,14.000,124.500,28.000
0.685,9.000,14.000,125.000,28.500
0.686,8.500,14.000,125.500,28.500
0.687,8.500,14.000,126.000,29.000
0.688,8.000,14.000,126.000,29.000
0.689,8.000,14.500,125.500,28.500
0.690,8.500,15.000,125.000,28.000
0.691,8.500,15.500,124.500,27.500
0.692,8.500,15.500,124.000,26.500
0.693,8.500,15.500,124.000,25.000
0.694,8.000,15.500,124.000,23.500
0.695,7.500,15.000,124.000,22.500
0.696,7.500,15.000,124.500,22.000
0.697,7.500,15.000,124.500,22.000
0.698,7.500,15.500,124.500,22.500
0.699,8.000,15.500,124.500,23.500
0.700,8.500,15.500,124.500,24.500
0.701,8.500,15.500,124.500,25.500
0.702,8.500,15.000,124.000,26.500
0.703,8.000,15.000,124.500,27.000
0.704,7.500,14.500,125.000,27.500
0.705,7.500,14.500,125.000,27.500
0.706,7.000,14.000,125.000,27.500
0.707,7.000,14.000,124.500,27.000
0.708,7.000,13.500,124.000,26.500
0.709,6.500,13.500,123.500,25.500
0.710,6.500,13.000,122.500,24.500
0.711,6.000,13.000,122.000,23.500
0.712,5.500,12.500,121.000,22.000
0.713,5.000,12.000,120.500,20.500
0.714,4.000,11.500,120.000,19.000
0.715,3.500,11.000,120.000,18.000
0.716,2.500,10.500,120.500,17.500
0.717,2.000,10.500,120.500,17.500
0.718,2.000,10.500,121.000,18.500
0.719,2.500,11.000,121.500,20.000
0.720,2.500,11.000,122.500,22.000
0.721,3.000,11.500,123.000,24.500
0.722,3.500,11.500,123.500,26.500
0.723,3.500,11.500,124.000,28.000
0.724,3.500,12.000,125.000,29.500
0.725,3.500,12.000,126.000,31.000
0.726,3.500,12.500,127.000,32.000
0.727,3.500,13.000,128.000,33.000
0.728,4.000,13.500,129.000,34.500
0.729,4.000,14.000,130.000,35.500
0.730,4.500,15.000,130.500,37.000
0.731,5.000,16.000,131.500,38.000
0.732,5.500,16.500,133.000,39.000
0.733,5.500,17.500,134.000,39.000
0.734,5.500,18.000,135.000,39.500
0.735,5.500,18.500,136.000,39.500
0.736,5.500,19.000,137.000,39.500
0.737,6.000,20.000,138.000,40.500
0.738,7.000,21.000,139.000,41.500
0.739,8.500,22.000,139.500,43.000
0.740,10.000,22.500,140.000,45.000
0.741,11.500,23.500,140.500,46.500
0.742,13.000,24.500,141.000,47.500
0.743,15.000,25.500,141.500,48.500
0.744,16.500,26.500,142.000,48.500
0.745,17.500,27.500,143.000,48.500
0.746,18.500,28.500,143.000,48.000
0.747,19.500,29.000,143.000,47.000
0.748,20.000,29.000,142.500,46.000
0.749,20.000,29.000,142.000,44.000
0.750,20.000,28.500,141.000,42.000
0.751,19.500,27.500,139.500,40.000
0.752,18.500,27.000,138.500,37.500
0.753,18.000,26.500,137.500,35.500
0.754,17.500,25.500,136.500,33.500
0.755,16.500,24.500,136.500,32.000
0.756,16.000,24.000,136.000,31.000
0.757,15.000,23.000,136.000,30.000
0.758,14.500,22.500,135.500,30.000
0.759,14.000,22.000,134.500,30.000
0.760,13.500,21.500,133.500,30.000
0.761,13.000,20.500,132.500,30.000
0.762,13.000,19.500,131.500,30.500
0.763,12.500,18.500,131.000,30.500
0.764,12.000,18.000,131.000,30.000
0.765,11.500,17.500,131.000,30.000
0.766,11.000,17.000,131.000,29.500
0.767,10.500,16.500,131.000,29.500
0.768,10.000,16.500,130.500,29.000
0.769,9.500,16.500,129.500,28.000
0.770,9.500,16.500,128.500,27.000
0.771,9.000,16.000,127.500,26.000
0.772,9.000,16.000,127.000,24.500
0.773,8.500,15.500,126.500,23.500
0.774,8.500,15.500,126.500,22.500
0.775,8.000,15.000,127.000,21.500
0.776,8.000,15.500,127.500,21.000
0.777,8.500,15.500,127.500,21.000
0.778,8.500,15.500,127.500,21.500
0.779,9.000,15.500,127.500,22.500
0.780,9.500,15.500,127.500,23.500
0.781,9.500,15.500,127.000,25.000
0.782,10.000,15.500,127.000,26.500
0.783,10.000,15.000,127.500,27.500
0.784,10.000,15.000,127.500,28.500
0.785,10.000,15.000,128.000,28.500
0.786,10.000,15.500,128.500,28.500
0.787,9.500,15.500,128.500,28.500
0.788,9.500,15.500,128.000,28.000
0.789,9.500,16.000,127.500,27.000
0.790,9.000,16.000,126.500,26.500
0.791,9.000,16.000,126.000,25.500
0.792,9.000,15.500,125.500,24.500
0.793,9.000,15.500,125.500,23.000
0.794,8.500,15.500,125.500,22.000
0.795,8.500,15.500,126.000,21.000
0.796,8.000,15.500,126.000,20.500
0.797,8.000,15.500,126.000,20.500
0.798,8.000,15.500,126.000,20.500
0.799,8.000,15.500,125.500,21.000
0.800,8.500,15.500,125.500,22.000
0.801,8.500,15.500,125.500,23.500
0.802,9.000,15.500,125.500,25.000
0.803,9.000,15.500,126.000,26.000
0.804,9.000,15.000,126.500,27.000
0.805,9.000,15.000,126.500,27.500
0.806,9.000,15.000,127.000,27.500
0.807,9.000,15.000,127.000,27.500
0.808,9.500,15.000,126.500,27.500
0.809,9.500,15.000,126.000,27.000
0.810,9.500,15.000,125.500,26.500
0.811,9.500,15.500,125.000,25.500
0.812,9.500,15.500,124.500,25.000
0.813,9.000,15.500,124.000,24.000
0.814,9.000,15.500,124.500,22.500
0.815,8.500,15.500,124.500,21.500
0.816,8.000,15.500,125.000,21.000
0.817,8.000,15.500,125.000,21.500
0.818,8.500,15.500,125.500,22.000
0.819,8.500,15.500,125.500,23.000
0.820,9.000,15.500,126.000,24.500
0.821,9.500,16.000,126.000,26.000
0.822,10.000,16.000,126.000,27.000
0.823,10.000,15.500,126.000,28.000
0.824,9.500,15.500,126.000,28.500
0.825,9.000,15.000,126.000,28.500
0.826,8.500,14.500,126.000,28.500
0.827,8.000,14.000,125.500,28.000
0.828,7.500,13.500,125.000,27.000
0.829,7.000,13.500,124.500,26.500
0.830,6.500,13.000,123.500,25.500
0.831,6.500,13.000,123.000,24.000
0.832,6.000,13.000,122.000,23.000
0.833,6.000,12.500,121.500,21.500
0.834,5.000,12.000,121.000,20.000
0.835,4.500,11.500,120.500,18.500
0.836,4.000,10.500,120.500,17.500
0.837,3.500,10.000,120.000,17.000
0.838,3.000,9.500,119.500,17.000
0.839,3.000,9.000,119.000,17.000
0.840,3.000,8.500,118.500,18.000
0.841,3.000,8.500,118.500,19.000
0.842,3.500,9.000,118.500,20.500
0.843,4.000,9.000,119.000,22.000
0.844,4.000,9.000,119.500,23.000
0.845,4.000,9.500,120.000,23.500
0.846,4.000,9.500,120.500,24.000
0.847,4.500,10.000,121.000,24.000
0.848,5.000,10.500,121.000,24.000
0.849,5.500,11.000,121.000,24.500
0.850,6.000,12.000,121.000,24.500
0.851,7.000,13.000,121.000,24.000
0.852,7.500,13.500,121.000,23.500
0.853,8.000,14.500,121.500,23.000
0.854,8.000,15.000,122.500,22.500
0.855,8.500,15.500,123.500,22.500
0.856,8.500,16.500,124.500,22.500
0.857,9.000,17.000,125.000,23.000
0.858,9.500,17.000,125.500,23.500
0.859,9.500,17.000,125.000,24.500
0.860,9.500,17.000,124.500,25.500
0.861,9.500,16.500,124.000,26.500
0.862,9.000,16.000,123.500,27.500
0.863,9.000,16.000,123.500,28.000
0.864,9.000,15.500,123.500,28.500
0.865,8.500,15.000,123.500,28.500
0.866,8.000,14.500,123.500,28.000
0.867,7.500,14.500,123.000,27.500
0.868,7.000,14.000,122.500,27.000
0.869,7.000,14.000,121.500,26.000
0.870,6.500,13.500,120.500,25.500
0.871,7.000,13.500,119.500,24.500
0.872,7.000,13.500,119.000,23.000
0.873,6.500,13.500,119.000,22.000
0.874,6.000,13.000,118.500,20.500
0.875,5.500,12.500,119.000,19.500
0.876,5.500,12.500,119.500,19.000
0.877,5.000,12.500,120.000,19.000
0.878,5.000,13.000,120.000,20.000
0.879,5.500,13.000,120.000,21.000
0.880,5.500,13.000,119.500,22.000
0.881,6.000,13.000,119.000,23.500
0.882,6.000,12.500,118.500,25.000
0.883,6.000,12.500,118.000,25.500
0.884,5.500,12.000,118.000,26.000
0.885,5.500,12.000,118.000,26.000
0.886,5.500,12.000,118.000,26.500
0.887,5.500,12.000,118.000,26.000
0.888,5.500,12.000,117.500,26.000
0.889,5.000,12.500,116.500,25.500
0.890,5.000,12.500,116.000,24.500
0.891,5.000,12.500,115.000,24.000
0.892,4.500,13.000,114.500,23.000
0.893,4.500,13.000,114.000,22.000
0.894,4.000,13.000,114.000,21.500
0.895,4.000,13.000,114.500,20.500
0.896,4.000,13.000,115.000,20.000
0.897,4.000,13.000,115.500,20.000
0.898,4.000,13.500,115.500,20.000
0.899,4.500,13.500,115.500,21.000
0.900,5.000,13.500,115.000,22.000
0.901,5.000,13.000,114.500,23.000
0.902,5.000,13.000,114.500,24.000
0.903,5.000,12.500,114.000,25.000
0.904,5.000,12.500,114.000,25.500
0.905,4.500,12.000,114.000,26.000
0.906,4.000,12.000,114.000,26.000
0.907,4.000,11.500,113.500,26.000
0.908,3.500,11.500,113.000,25.500
0.909,3.500,11.500,112.000,25.000
0.910,3.500,11.500,111.000,24.000
0.911,4.000,12.000,110.500,23.000
0.912,4.000,12.000,110.000,22.000
0.913,4.000,12.000,110.000,21.000
0.914,4.000,12.000,110.000,20.000
0.915,3.500,12.000,110.500,19.500
0.916,3.500,12.000,111.000,19.500
0.917,3.500,12.000,111.500,19.500
0.918,3.500,12.000,111.500,20.000
0.919,3.500,12.000,111.000,20.500
0.920,3.500,12.000,111.000,21.500
0.921,3.500,11.500,111.000,22.500
0.922,3.000,11.000,111.000,23.500
0.923,2.500,11.000,111.000,24.000
0.924,2.000,10.500,111.000,24.500
0.925,2.000,10.000,111.000,24.500
0.926,2.000,10.000,111.000,25.000
0.927,2.000,10.000,111.000,25.000
0.928,2.000,10.000,111.000,24.500
0.929,2.000,10.500,110.500,24.000
0.930,1.500,10.500,110.000,23.500
0.931,1.500,10.500,109.500,22.500
0.932,1.500,10.500,109.000,21.500
0.933,1.500,10.500,109.000,20.500
0.934,1.500,10.500,109.500,19.500
0.935,1.500,10.500,110.000,18.500
0.936,1.500,10.500,110.500,18.000
0.937,1.500,10.500,111.000,18.000
0.938,1.500,10.500,111.000,18.500
0.939,2.000,11.000,111.000,19.500
0.940,2.000,11.000,111.000,20.500
0.941,2.500,11.000,111.000,22.000
0.942,2.500,11.000,111.000,23.500
0.943,2.500,11.000,111.000,24.500
0.944,2.500,11.000,111.000,25.000
0.945,2.500,10.500,111.500,25.500
0.946,2.000,10.000,111.500,25.500
0.947,2.000,10.000,111.500,25.500
0.948,2.000,10.000,111.500,25.000
0.949,2.000,10.000,111.500,24.500
0.950,2.000,10.000,111.000,23.500
0.951,2.000,10.000,110.500,22.500
0.952,2.000,10.000,110.000,21.500
0.953,2.000,10.500,110.000,20.500
0.954,2.000,10.500,110.500,19.500
0.955,2.000,11.000,110.500,19.000
0.956,2.000,11.000,111.000,18.500
0.957,2.000,11.500,111.500,18.500
0.958,2.000,11.500,111.500,19.000
0.959,2.000,11.500,111.500,19.500
0.960,2.000,11.500,111.000,20.500
0.961,2.500,11.500,110.500,21.500
0.962,2.500,11.000,110.000,22.500
0.963,2.500,11.000,110.000,23.000
0.964,2.500,11.000,110.000,24.000
0.965,2.500,11.000,110.000,24.000
0.966,2.500,11.000,110.000,24.000
0.967,2.000,11.000,110.000,24.000
0.968,2.000,11.000,109.500,24.000
0.969,2.000,11.500,109.000,23.500
0.970,2.000,11.500,108.500,22.500
0.971,2.000,12.000,108.000,22.000
0.972,2.500,12.500,107.500,20.500
0.973,2.500,12.500,107.500,19.500
0.974,2.000,12.500,107.500,18.500
0.975,2.000,12.500,108.000,17.500
0.976,2.000,13.000,108.000,17.000
0.977,2.000,13.000,108.500,16.500
0.978,2.000,13.000,108.000,17.000
0.979,2.500,13.000,108.000,18.000
0.980,3.000,13.000,108.000,19.000
0.981,3.000,13.000,107.500,20.500
0.982,3.500,13.000,107.500,21.500
0.983,3.500,13.000,107.500,22.500
0.984,3.500,13.000,108.000,23.000
0.985,3.500,13.000,108.500,23.500
0.986,3.500,13.000,109.000,23.500
0.987,3.500,13.000,109.000,23.500
0.988,4.000,13.000,108.500,23.500
0.989,4.000,13.000,108.500,23.000
0.990,4.500,13.000,108.000,22.500
0.991,4.500,13.500,107.500,21.500
0.992,4.500,13.500,107.000,21.000
0.993,4.500,13.500,107.000,19.500
0.994,4.500,14.000,107.000,18.500
0.995,4.500,14.000,107.000,18.000
0.996,4.500,14.000,107.500,17.500
0.997,5.000,14.000,107.500,17.500
0.998,5.000,14.000,107.500,18.000
0.999,5.500,14.000,107.500,19.500
1.000,6.000,14.000,107.500,20.500
1.001,6.500,14.500,107.500,22.500
1.002,7.000,14.500,108.000,23.500
1.003,7.000,14.500,108.000,24.500
1.004,7.000,14.000,108.500,25.000
1.005,6.500,14.000,108.500,25.000
1.006,6.500,13.500,108.500,25.000
1.007,6.500,13.500,108.500,25.000
1.008,6.000,13.500,108.000,24.500
1.009,6.000,13.500,107.500,24.000
1.010,6.000,14.000,107.000,23.000
1.011,6.500,14.500,106.500,22.500
1.012,6.500,14.500,106.000,21.000
1.013,6.500,14.500,105.500,20.000
1.014,6.500,15.000,105.500,19.000
1.015,6.500,15.000,105.500,18.000
1.016,6.500,15.000,105.500,17.500
1.017,6.500,15.000,106.000,17.000
1.018,6.500,15.000,106.000,17.500
1.019,6.500,15.000,106.000,18.500
1.020,7.000,15.000,105.500,19.500
1.021,7.500,15.500,105.500,21.000
1.022,7.500,15.500,105.000,22.000
1.023,8.000,15.500,105.000,23.000
1.024,8.000,15.500,105.000,23.500
1.025,7.500,15.500,105.500,24.000
1.026,7.500,15.000,105.000,24.000
1.027,7.500,15.000,105.000,23.500
1.028,7.000,15.000,104.500,23.000
1.029,7.000,15.000,104.000,22.500
1.030,7.000,15.000,103.000,22.000
1.031,6.500,15.000,102.500,21.000
1.032,6.500,15.000,102.000,20.000
1.033,6.500,15.000,101.500,19.000
1.034,6.000,15.000,101.500,18.000
1.035,6.000,15.000,102.000,17.000
1.036,6.000,15.000,102.000,16.500
1.037,6.000,15.500,102.500,16.500
1.038,6.500,15.500,102.500,17.000
1.039,7.000,15.500,102.500,18.000
1.040,7.500,16.000,102.500,19.000
1.041,7.500,15.500,102.500,20.500
1.042,8.000,15.500,102.000,22.000
1.043,8.500,15.000,102.500,23.000
1.044,8.500,15.000,103.000,23.500
1.045,8.500,14.500,103.000,24.000
1.046,8.000,14.500,103.500,24.000
1.047,8.000,14.500,103.500,24.000
1.048,8.000,14.500,103.000,24.000
1.049,8.000,14.500,102.500,23.500
1.050,8.000,14.500,101.500,22.500
1.051,7.500,15.000,101.000,22.000
1.052,7.500,15.000,100.000,21.000
1.053,7.500,15.000,100.000,20.000
1.054,7.500,15.000,100.000,19.000
1.055,7.000,15.500,100.500,18.500
1.056,7.000,15.500,101.000,18.000
1.057,7.500,15.500,102.000,18.000
1.058,7.500,16.000,102.000,18.500
1.059,8.000,16.000,102.000,19.500
1.060,8.500,16.000,102.000,21.000
1.061,9.000,16.500,102.500,22.000
1.062,9.000,16.500,102.500,23.500
1.063,9.500,16.500,102.500,24.500
1.064,9.500,16.500,103.000,25.500
1.065,9.000,16.500,103.000,26.000
1.066,9.000,16.500,103.000,26.000
1.067,9.500,16.500,103.000,26.000
1.068,9.500,16.500,103.000,26.000
1.069,9.500,16.500,103.000,25.500
1.070,9.500,17.000,102.500,25.000
1.071,10.000,17.000,102.000,24.500
1.072,10.000,17.500,102.000,24.000
1.073,10.000,17.500,101.500,23.000
1.074,10.000,17.500,101.500,22.000
1.075,10.000,17.000,102.000,21.000
1.076,9.500,17.000,102.000,20.500
1.077,10.000,17.000,102.500,21.000
1.078,10.000,17.000,102.500,21.500
1.079,10.500,17.000,102.500,22.500
1.080,11.000,17.500,102.500,24.000
1.081,11.000,17.500,102.500,25.500
1.082,11.500,17.500,102.000,26.500
1.083,11.500,17.500,102.000,27.500
1.084,11.500,17.500,102.500,28.000
1.085,11.500,17.500,102.500,28.000
1.086,11.500,17.500,103.000,28.500
1.087,11.500,17.500,103.000,28.500
1.088,12.000,17.500,103.000,28.500
1.089,12.000,18.000,103.000,28.000
1.090,12.000,18.000,102.500,27.500
1.091,12.000,18.500,102.000,27.000
1.092,12.000,19.000,101.500,26.500
1.093,11.500,19.000,101.500,25.500
1.094,11.500,19.000,101.500,24.500
1.095,11.500,19.000,102.000,23.500
1.096,11.500,19.000,102.000,23.500
1.097,12.000,19.000,102.500,23.500
1.098,12.500,19.500,103.000,24.500
1.099,13.000,19.500,103.000,25.500
1.100,13.500,20.000,103.000,26.500
1.101,14.000,20.000,103.000,28.000
1.102,14.000,20.000,103.000,29.500
1.103,14.500,20.000,103.000,30.500
1.104,14.500,20.000,103.500,31.000
1.105,14.500,19.500,103.500,31.500
1.106,14.500,19.500,103.500,31.500
1.107,14.500,19.500,103.500,31.500
1.108,15.000,20.000,103.500,31.000
1.109,15.500,20.000,103.500,31.000
1.110,15.500,20.500,103.500,30.500
1.111,16.000,21.000,103.000,30.000
1.112,16.500,21.500,103.000,29.500
1.113,16.500,22.000,103.000,28.500
1.114,16.500,22.000,103.500,27.500
1.115,16.500,22.500,104.000,27.000
1.116,17.000,22.500,105.000,27.000
1.117,17.000,22.500,105.500,27.500
1.118,17.500,22.500,106.000,28.000
1.119,18.000,22.500,106.500,29.000
1.120,18.000,22.000,106.500,30.000
1.121,18.500,22.000,106.000,31.500
1.122,19.000,22.000,106.000,32.500
1.123,19.000,21.500,106.000,33.000
1.124,19.000,21.500,106.500,34.000
1.125,19.000,21.500,106.500,34.500
1.126,19.000,21.500,106.500,34.500
1.127,19.000,21.000,106.500,34.500
1.128,18.500,21.000,106.000,34.500
1.129,18.500,21.000,105.500,34.000
1.130,18.500,21.000,105.500,33.000
1.131,18.500,21.000,105.000,32.000
1.132,18.500,21.000,104.500,31.000
1.133,18.500,21.500,104.500,29.500
1.134,18.500,21.500,105.000,28.500
1.135,18.000,21.500,105.500,27.500
1.136,18.500,22.000,106.000,27.000
1.137,18.500,22.000,106.500,27.500
1.138,19.000,22.500,107.500,28.000
1.139,19.500,23.000,108.000,29.000
1.140,20.500,23.500,108.500,30.500
1.141,21.000,24.000,108.500,32.000
1.142,21.000,24.000,109.000,33.500
1.143,21.000,24.000,109.000,34.500
1.144,21.000,24.000,109.500,35.000
1.145,21.000,24.000,110.000,35.000
1.146,21.000,23.500,110.500,35.000
1.147,21.000,23.500,110.500,35.000
1.148,21.000,23.500,110.000,34.500
1.149,21.500,23.500,109.500,34.500
1.150,21.500,24.000,109.000,34.000
1.151,21.500,24.000,108.500,33.500
1.152,22.000,24.500,108.500,33.000
1.153,22.000,25.000,108.500,32.000
1.154,22.000,25.500,108.500,31.500
1.155,22.000,26.000,109.000,31.000
1.156,22.000,26.000,109.000,31.000
1.157,22.000,26.500,109.500,31.500
1.158,22.500,26.500,109.500,32.000
1.159,23.000,26.500,109.000,33.000
1.160,23.500,26.500,108.500,34.500
1.161,24.000,27.000,108.500,36.000
1.162,24.000,26.500,108.000,37.000
1.163,24.500,26.500,108.000,38.000
1.164,24.000,26.000,108.000,38.500
1.165,24.000,26.000,108.500,38.500
1.166,24.000,25.500,108.500,38.500
1.167,24.000,25.000,108.500,38.500
1.168,23.500,25.000,108.000,38.000
1.169,24.000,25.000,107.000,37.500
1.170,24.000,25.000,106.500,36.500
1.171,24.000,25.000,105.500,35.500
1.172,24.000,25.000,105.000,34.500
1.173,24.000,25.000,105.000,33.500
1.174,24.000,24.500,105.000,32.500
1.175,24.000,24.500,105.500,32.000
1.176,24.000,24.500,105.500,32.000
1.177,24.000,24.500,106.000,32.000
1.178,24.500,24.500,106.000,33.000
1.179,25.000,25.000,106.000,34.000
1.180,25.000,25.000,105.500,35.500
1.181,25.500,25.000,105.500,37.000
1.182,25.500,25.000,105.000,38.500
1.183,25.500,25.000,105.000,39.500
1.184,25.500,25.000,105.000,40.500
1.185,25.500,25.000,105.000,41.000
1.186,25.500,24.500,105.000,41.000
1.187,25.500,24.500,105.000,41.000
1.188,25.500,24.500,104.500,40.500
1.189,26.000,24.500,104.000,40.500
1.190,26.500,24.500,103.500,40.000
1.191,26.500,25.000,103.000,39.000
1.192,26.500,25.000,103.000,38.500
1.193,26.500,25.000,102.500,37.500
1.194,26.500,25.000,103.000,36.500
1.195,26.000,25.500,103.000,36.000
1.196,26.000,25.500,103.500,35.500
1.197,26.500,26.000,104.000,35.500
1.198,26.500,26.000,104.000,36.500
1.199,27.000,26.500,104.000,37.500
1.200,27.500,26.500,103.500,38.500
1.201,28.000,26.500,103.500,40.000
1.202,28.500,26.000,103.000,41.000
1.203,28.500,26.000,103.000,42.000
1.204,28.500,25.500,103.000,42.500
1.205,28.500,25.500,103.500,42.500
1.206,28.000,25.500,103.500,42.500
1.207,28.000,25.500,103.500,42.500
1.208,28.500,25.500,103.500,42.500
1.209,28.500,26.000,103.500,42.500
1.210,28.500,26.000,103.000,41.500
1.211,29.000,26.000,102.500,41.000
1.212,29.000,26.500,102.000,40.000
1.213,29.000,26.500,102.000,38.500
1.214,29.000,26.500,102.000,37.500
1.215,29.500,26.500,103.000,37.000
1.216,29.500,27.000,103.500,36.500
1.217,29.500,27.500,104.000,37.000
1.218,30.000,27.500,104.000,37.500
1.219,30.000,28.000,104.000,39.000
1.220,30.500,28.000,103.500,40.500
1.221,30.500,28.000,103.500,42.000
1.222,30.500,28.000,103.000,43.000
1.223,30.500,28.000,103.000,44.000
1.224,30.500,28.000,103.500,44.500
1.225,30.500,28.000,103.500,44.500
1.226,30.500,28.000,103.500,44.500
1.227,30.500,28.000,103.000,44.500
1.228,31.000,28.000,102.500,44.000
1.229,31.000,28.000,102.000,43.500
1.230,31.500,28.500,101.500,43.000
1.231,32.000,29.000,101.000,42.500
1.232,32.000,29.500,100.500,41.500
1.233,32.000,29.500,100.500,40.500
1.234,32.000,29.500,100.500,39.500
1.235,31.500,29.500,100.500,39.000
1.236,31.500,29.500,100.500,38.500
1.237,31.500,29.500,100.500,38.500
1.238,31.500,29.000,100.000,38.500
1.239,31.500,28.500,99.500,39.500
1.240,31.500,28.500,99.000,40.500
1.241,31.000,28.000,98.000,41.000
1.242,31.000,27.000,97.000,42.000
1.243,30.500,26.500,96.500,42.000
1.244,30.000,25.500,95.500,42.000
1.245,29.000,25.000,95.000,42.000
1.246,28.500,24.000,94.000,41.500
1.247,28.000,23.500,93.500,41.000
1.248,28.000,23.500,93.000,40.500
1.249,28.000,23.500,92.000,40.000
1.250,28.500,24.000,91.500,39.500
1.251,28.500,24.500,91.500,39.000
1.252,29.000,25.500,91.500,38.500
1.253,29.000,26.000,92.000,38.000
1.254,29.000,26.500,92.500,37.500
1.255,29.000,26.500,93.500,37.000
1.256,29.500,27.000,94.000,37.500
1.257,29.500,27.500,94.500,38.000
1.258,30.000,28.000,95.000,39.000
1.259,31.000,28.500,95.500,40.500
1.260,32.000,29.000,96.000,42.000
1.261,33.000,29.500,96.500,44.000
1.262,33.500,30.000,97.000,46.000
1.263,34.000,30.500,98.000,47.000
1.264,34.000,31.000,99.000,48.000
1.265,34.500,31.000,100.000,49.000
1.266,35.000,31.500,100.500,49.500
1.267,35.500,32.000,101.000,50.000
1.268,35.500,32.000,101.500,50.000
1.269,36.000,32.500,101.000,49.500
1.270,36.000,32.500,100.500,49.000
1.271,36.000,32.500,99.500,48.000
1.272,35.500,32.500,98.500,47.000
1.273,35.000,32.500,98.000,45.500
1.274,34.000,32.000,98.000,44.000
1.275,33.500,32.000,98.000,43.000
1.276,33.500,32.000,98.000,42.000
1.277,33.500,32.000,98.000,41.500
1.278,33.500,31.500,97.500,42.000
1.279,34.000,31.500,97.500,43.000
1.280,34.000,31.500,97.500,44.000
1.281,34.000,31.000,97.000,45.500
1.282,34.000,31.000,97.000,46.500
1.283,34.000,30.500,96.500,47.000
1.284,33.500,30.000,96.500,47.500
1.285,33.500,29.500,96.500,47.500
1.286,33.000,29.500,96.500,47.500
1.287,33.000,29.000,96.000,47.000
1.288,32.500,29.500,95.500,46.500
1.289,32.500,29.500,94.500,46.000
1.290,32.500,30.000,93.500,45.000
1.291,32.500,30.000,92.500,44.000
1.292,32.000,30.000,91.000,43.000
1.293,31.500,29.500,90.500,41.500
1.294,30.500,29.500,90.000,40.000
1.295,30.000,29.000,89.500,39.000
1.296,29.000,28.500,89.500,38.500
1.297,28.500,28.000,89.500,38.500
1.298,28.500,28.000,89.000,39.000
1.299,28.500,28.000,89.000,40.500
1.300,28.500,27.500,89.000,42.000
1.301,29.000,27.500,88.500,43.500
1.302,29.000,27.500,89.000,45.000
1.303,29.000,27.500,89.500,47.000
1.304,29.000,27.500,90.000,48.000
1.305,29.000,28.000,91.000,49.500
1.306,29.000,28.000,91.500,50.500
1.307,29.000,29.000,92.000,52.000
1.308,29.500,29.500,93.000,53.000
1.309,30.000,30.500,94.000,54.500
1.310,30.000,31.500,94.500,55.500
1.311,30.500,32.500,95.500,56.500
1.312,31.000,34.000,96.500,57.500
1.313,31.500,34.500,98.000,58.500
1.314,31.500,35.500,99.000,59.000
1.315,32.000,36.000,100.500,59.500
1.316,32.000,36.500,101.500,60.500
1.317,32.000,36.500,102.500,61.500
1.318,32.500,37.000,103.500,63.000
1.319,33.000,37.500,104.500,64.500
1.320,33.500,38.000,105.000,66.500
1.321,34.500,38.500,105.500,68.500
1.322,35.500,39.500,106.000,70.000
1.323,36.500,40.000,106.500,71.000
1.324,37.500,41.000,107.000,71.500
1.325,39.000,42.000,107.500,71.500
1.326,40.500,43.000,108.000,71.000
1.327,42.000,44.000,107.500,70.500
1.328,43.000,44.500,107.000,69.500
1.329,44.000,45.500,106.000,68.000
1.330,45.000,46.000,105.000,66.500
1.331,45.500,46.500,104.000,64.500
1.332,45.500,46.500,103.000,62.500
1.333,45.000,46.500,102.000,60.000
1.334,44.500,46.000,101.500,58.000
1.335,44.000,45.500,101.000,56.000
1.336,43.000,45.000,100.500,54.500
1.337,43.000,44.500,100.000,53.500
1.338,42.500,43.500,99.500,53.500
1.339,42.500,43.000,98.500,53.500
1.340,42.000,42.000,97.500,53.500
1.341,41.500,41.000,96.000,54.000
1.342,41.000,40.000,95.000,54.000
1.343,40.500,39.000,94.500,53.500
1.344,39.500,38.500,94.000,53.000
1.345,39.000,37.500,93.500,52.500
1.346,38.000,37.000,93.000,52.000
1.347,37.500,36.500,92.500,51.000
1.348,37.000,36.000,92.000,50.000
1.349,36.500,36.000,91.000,49.000
1.350,36.000,35.500,90.000,47.500
1.351,35.500,34.500,88.500,46.000
1.352,34.500,33.500,87.500,44.000
1.353,34.000,33.000,87.000,42.500
1.354,33.500,32.500,86.500,41.000
1.355,33.500,32.000,86.500,40.000
1.356,33.000,31.500,86.500,39.500
1.357,33.000,31.000,86.500,39.500
1.358,33.000,31.000,86.500,40.000
1.359,33.000,31.000,86.500,40.500
1.360,33.500,31.000,86.000,42.000
1.361,34.000,31.000,86.000,43.000
1.362,34.000,30.500,85.500,44.000
1.363,34.500,30.500,86.000,45.000
1.364,34.500,30.500,86.000,45.500
1.365,34.500,30.500,86.500,45.500
1.366,34.500,30.500,87.000,46.000
1.367,34.500,31.000,87.000,46.000
1.368,34.500,31.000,87.000,46.000
1.369,34.500,31.000,86.500,46.000
1.370,34.500,31.500,85.500,45.500
1.371,34.500,32.000,85.000,44.500
1.372,34.000,32.000,84.500,43.500
1.373,34.000,32.000,84.500,42.000
1.374,33.500,32.000,84.500,41.000
1.375,33.500,31.500,85.000,40.000
1.376,33.000,31.500,85.000,39.500
1.377,33.000,31.500,85.500,40.000
1.378,33.000,31.500,85.500,40.500
1.379,33.500,31.500,85.500,41.000
1.380,34.000,31.500,85.000,42.500
1.381,34.500,31.500,84.500,43.500
1.382,35.000,31.500,84.500,44.500
1.383,35.000,31.500,84.500,45.500
1.384,35.000,31.000,84.000,45.500
1.385,34.500,31.000,84.500,46.000
1.386,34.500,31.000,84.500,46.000
1.387,34.500,31.000,84.500,46.000
1.388,34.500,31.000,84.500,46.000
1.389,34.500,31.500,84.000,45.500
1.390,34.500,31.500,83.500,45.000
1.391,35.000,31.500,83.000,44.500
1.392,35.000,32.000,82.500,43.500
1.393,35.000,32.000,82.000,42.000
1.394,34.500,32.000,82.000,41.000
1.395,34.500,32.000,82.000,40.000
1.396,34.000,32.000,82.000,39.500
1.397,34.000,31.500,82.000,39.000
1.398,34.000,31.500,82.000,39.500
1.399,34.500,31.500,82.000,40.500
1.400,34.500,31.500,82.000,41.500
1.401,35.000,31.500,81.500,43.000
1.402,35.000,31.500,81.500,44.000
1.403,35.000,31.500,82.000,45.000
1.404,34.500,31.000,82.500,45.500
1.405,34.500,31.000,82.500,46.000
1.406,34.500,31.000,82.500,46.000
1.407,34.500,31.000,82.500,46.000
1.408,34.500,31.000,82.000,45.500
1.409,34.500,31.000,81.000,45.000
1.410,34.500,31.500,80.500,44.500
1.411,35.000,31.500,80.000,43.500
1.412,35.000,31.500,80.000,42.500
1.413,35.000,31.500,80.000,41.500
1.414,34.500,31.500,80.500,40.500
1.415,34.500,31.500,81.000,40.000
1.416,34.000,31.500,81.500,39.500
1.417,34.000,31.500,82.000,39.500
1.418,34.000,31.500,82.000,40.000
1.419,34.500,31.500,82.500,41.000
1.420,34.500,31.500,82.500,42.000
1.421,35.000,31.500,82.500,43.500
1.422,35.000,31.000,82.500,44.500
1.423,34.500,30.500,82.500,45.500
1.424,34.500,30.500,83.000,46.000
1.425,34.000,30.500,83.500,46.000
1.426,33.500,30.500,83.500,46.500
1.427,33.500,30.500,83.500,46.000
1.428,33.500,30.000,83.500,45.500
1.429,33.500,30.000,82.500,45.000
1.430,33.500,30.000,82.000,44.000
1.431,33.500,30.000,81.500,43.000
1.432,33.000,30.500,81.500,42.000
1.433,33.000,30.500,81.500,41.000
1.434,32.500,30.500,82.000,40.500
1.435,32.500,30.500,83.000,39.500
1.436,32.500,30.500,84.000,39.500
1.437,32.500,30.500,84.500,39.500
1.438,32.500,30.500,85.000,40.500
1.439,33.000,30.500,85.500,41.500
1.440,33.000,30.000,85.500,42.500
1.441,33.000,30.000,85.500,44.000
1.442,33.000,29.500,85.500,45.000
1.443,33.000,29.500,85.500,46.000
1.444,33.000,29.500,86.000,46.500
1.445,33.000,29.000,86.000,46.500
1.446,32.500,29.000,86.000,46.500
1.447,32.500,29.000,86.000,46.000
1.448,32.000,29.000,85.500,45.500
1.449,32.000,29.500,85.000,44.500
1.450,31.500,29.500,84.500,44.000
1.451,31.500,29.500,84.000,43.000
1.452,31.500,30.000,83.500,42.500
1.453,31.500,30.000,83.500,41.500
1.454,31.000,30.000,84.000,41.000
1.455,31.000,30.000,84.500,40.000
1.456,31.000,30.000,85.500,40.000
1.457,31.000,30.000,86.000,40.000
1.458,31.500,30.500,86.500,41.000
1.459,32.000,30.500,86.000,42.000
1.460,32.500,30.500,86.000,43.000
1.461,33.000,30.500,85.500,44.500
1.462,33.000,30.000,85.000,45.500
1.463,33.000,30.000,84.500,46.000
1.464,33.000,29.500,84.500,46.500
1.465,32.500,29.500,84.500,46.500
1.466,32.500,29.500,84.000,46.500
1.467,32.000,29.500,84.000,46.500
1.468,32.500,29.500,83.500,46.000
1.469,33.000,30.000,83.000,45.500
1.470,33.000,30.500,82.500,45.000
1.471,33.500,31.000,82.000,44.500
1.472,34.000,31.500,81.500,43.500
1.473,34.000,32.000,81.500,42.500
1.474,33.500,32.000,81.500,41.500
1.475,33.500,32.000,82.000,40.500
1.476,33.000,32.000,82.500,40.500
1.477,33.000,32.000,82.500,40.500
1.478,33.000,32.000,82.500,41.000
1.479,33.000,32.000,82.500,42.000
1.480,33.500,32.000,82.500,43.000
1.481,33.500,31.500,82.000,44.000
1.482,34.000,31.500,82.000,45.000
1.483,34.000,31.500,81.500,46.000
1.484,34.000,31.000,82.000,46.500
1.485,33.500,31.000,82.000,46.500
1.486,33.500,31.000,82.500,47.000
1.487,33.500,31.000,82.500,47.000
1.488,33.000,31.000,82.000,46.500
1.489,33.000,31.000,82.000,46.000
1.490,33.000,31.000,81.500,45.500
1.491,33.000,31.000,81.000,44.500
1.492,33.000,31.500,80.500,43.500
1.493,32.500,31.500,80.500,42.500
1.494,32.500,31.500,80.500,41.500
1.495,32.000,31.500,81.000,40.500
1.496,32.000,31.500,81.500,40.500
1.497,32.500,32.000,82.000,40.500
1.498,32.500,32.000,82.500,41.000
1.499,33.000,32.000,82.500,42.000
1.500,33.000,32.000,82.000,43.500
1.501,33.500,31.500,82.000,44.500
1.502,33.500,31.500,82.000,45.500
1.503,33.500,31.500,82.000,46.000
1.504,33.500,31.000,82.000,47.000
1.505,33.000,31.000,82.500,47.000
1.506,33.000,31.000,82.500,47.000
1.507,32.500,31.000,82.500,47.000
1.508,32.500,31.000,82.000,46.500
1.509,32.500,31.000,82.000,45.500
1.510,32.500,31.000,81.500,45.000
1.511,32.500,31.500,81.000,44.000
1.512,32.500,31.500,80.500,43.500
1.513,32.500,32.000,80.500,42.000
1.514,32.000,31.500,80.500,41.000
1.515,31.500,31.500,81.000,40.500
1.516,31.500,31.500,81.000,40.000
1.517,31.500,31.500,81.000,40.000
1.518,31.500,31.500,81.000,40.500
1.519,31.500,31.500,80.500,41.500
1.520,32.000,31.500,80.500,42.500
1.521,32.500,31.500,80.000,44.000
1.522,32.500,31.500,79.500,45.000
1.523,32.500,31.500,79.500,46.000
1.524,32.500,31.000,79.500,46.500
1.525,32.000,31.000,79.500,46.500
1.526,31.500,31.000,79.500,46.500
1.527,31.500,30.500,79.500,46.000
1.528,31.000,30.500,79.500,45.500
1.529,31.000,30.500,79.000,45.000
1.530,31.000,30.500,78.500,44.000
1.531,31.000,30.500,78.000,43.500
1.532,30.500,30.500,78.000,42.500
1.533,30.500,30.500,77.500,41.500
1.534,30.500,30.000,78.000,40.500
1.535,30.000,30.000,78.500,40.000
1.536,30.000,30.000,79.000,40.000
1.537,30.500,30.500,79.500,40.000
1.538,30.500,30.500,79.500,41.000
1.539,31.000,31.000,79.500,41.500
1.540,31.500,31.000,79.500,43.000
1.541,31.500,31.000,79.000,44.000
1.542,31.500,31.000,79.000,44.500
1.543,31.500,30.500,79.000,45.000
1.544,31.500,30.000,79.000,45.500
1.545,31.000,30.000,79.000,45.500
1.546,31.000,30.000,79.000,45.000
1.547,31.000,30.000,79.000,45.000
1.548,30.500,30.500,79.000,44.500
1.549,30.500,31.000,78.500,44.500
1.550,30.500,31.000,78.000,43.500
1.551,30.500,31.500,77.000,42.500
1.552,30.500,31.500,77.000,41.500
1.553,30.500,31.500,76.500,40.500
1.554,30.000,31.500,77.000,39.500
1.555,29.500,31.500,77.000,38.500
1.556,29.500,31.500,78.000,38.500
1.557,29.500,31.500,78.500,39.000
1.558,30.000,31.500,79.000,39.500
1.559,30.500,32.000,79.500,41.000
1.560,31.000,32.500,79.500,42.000
1.561,31.500,32.500,80.000,43.500
1.562,32.000,33.000,80.000,45.000
1.563,32.000,33.000,80.000,46.000
1.564,32.000,33.500,80.500,46.500
1.565,32.000,33.500,81.000,46.500
1.566,32.000,34.000,81.500,46.500
1.567,32.000,34.000,82.000,46.500
1.568,32.000,34.500,81.500,46.000
1.569,32.000,34.500,81.000,45.500
1.570,32.500,34.500,80.500,45.000
1.571,32.500,34.500,79.500,44.000
1.572,32.500,35.000,79.000,43.000
1.573,32.500,35.000,78.500,41.500
1.574,32.500,34.500,78.500,40.500
1.575,32.000,34.500,79.000,40.000
1.576,32.000,34.500,79.000,39.500
1.577,32.000,34.500,79.500,39.500
1.578,32.500,34.500,79.500,40.000
1.579,32.500,35.000,80.000,41.000
1.580,33.000,35.000,80.000,42.000
1.581,33.500,35.000,80.000,43.500
1.582,34.000,35.000,80.000,44.500
1.583,34.000,35.000,80.000,45.500
1.584,34.000,35.000,80.000,46.000
1.585,34.000,35.000,80.000,46.500
1.586,34.000,35.000,80.500,46.500
1.587,34.000,35.000,80.500,46.000
1.588,34.000,35.000,80.500,46.000
1.589,34.000,35.000,80.500,45.000
1.590,33.500,35.000,79.500,44.500
1.591,33.500,35.000,79.000,43.500
1.592,33.500,35.000,78.500,42.500
1.593,33.500,35.000,78.500,41.500
1.594,33.000,35.000,78.000,40.500
1.595,33.000,35.000,78.500,40.000
1.596,33.000,35.500,78.500,40.000
1.597,33.000,35.500,78.500,40.000
1.598,33.500,35.500,78.500,40.500
1.599,33.500,35.500,78.500,41.500
1.600,34.000,36.000,78.500,42.500
1.601,34.500,36.000,78.500,43.500
1.602,35.000,36.000,78.500,45.000
1.603,35.000,36.000,78.500,45.500
1.604,35.000,35.500,79.000,46.000
1.605,35.000,35.500,79.500,46.500
1.606,34.500,35.500,79.500,46.500
1.607,34.500,35.500,79.000,46.000
1.608,34.500,35.500,78.000,45.500
1.609,34.500,35.500,77.500,45.000
1.610,34.500,35.500,76.500,44.000
1.611,34.500,36.000,76.000,43.500
1.612,34.500,36.000,75.500,42.000
1.613,34.000,36.000,75.000,41.000
1.614,34.000,36.000,75.000,40.000
1.615,33.500,36.000,75.000,39.500
1.616,33.500,36.000,75.000,39.000
1.617,34.000,36.000,75.000,39.000
1.618,34.500,36.000,75.000,40.000
1.619,34.500,36.000,75.000,41.000
1.620,35.000,36.000,75.000,42.000
1.621,35.000,36.000,74.500,43.000
1.622,35.000,36.000,74.000,43.500
1.623,35.000,35.500,74.000,44.500
1.624,34.500,35.500,73.500,44.500
1.625,34.500,35.500,73.500,44.500
1.626,34.000,35.500,73.500,44.500
1.627,34.000,35.500,73.000,44.500
1.628,34.000,35.500,72.500,44.000
1.629,34.500,35.500,71.500,43.500
1.630,34.500,36.000,71.000,42.500
1.631,35.000,36.000,70.500,42.000
1.632,35.000,36.500,70.000,41.000
1.633,34.500,36.500,70.000,40.000
1.634,34.000,36.500,70.500,39.000
1.635,33.500,36.500,71.000,38.000
1.636,33.500,36.500,71.000,37.500
1.637,33.500,37.000,71.500,37.500
1.638,33.500,37.000,71.500,38.000
1.639,34.000,37.000,71.500,39.500
1.640,34.500,37.500,71.000,40.500
1.641,35.000,37.500,71.000,42.000
1.642,35.000,37.500,71.000,43.000
1.643,35.000,37.000,71.000,44.000
1.644,34.500,36.500,71.000,44.000
1.645,34.000,35.500,70.500,44.000
1.646,33.500,35.000,70.000,43.500
1.647,33.000,34.000,69.500,42.500
1.648,32.500,34.000,68.500,41.500
1.649,32.000,33.500,67.500,40.500
1.650,32.000,33.500,66.500,39.500
1.651,31.500,33.000,65.500,38.000
1.652,31.000,32.000,64.500,36.000
1.653,30.000,31.500,64.000,34.000
1.654,29.000,30.500,63.500,32.500
1.655,28.000,29.500,63.500,31.000
1.656,27.500,29.000,63.500,30.000
1.657,27.000,28.500,63.500,30.000
1.658,27.000,28.500,64.000,31.000
1.659,27.500,28.500,64.000,32.000
1.660,28.000,29.000,64.500,33.500
1.661,29.000,29.500,65.000,35.500
1.662,29.500,29.500,65.500,36.500
1.663,30.000,30.000,66.500,38.000
1.664,30.000,30.000,67.000,38.500
1.665,30.500,30.500,68.000,39.500
1.666,31.000,30.500,69.000,40.000
1.667,31.000,31.000,69.500,40.500
1.668,31.500,32.000,69.500,40.500
1.669,32.000,32.500,69.500,40.500
1.670,32.500,33.000,70.000,40.500
1.671,33.000,33.500,70.000,40.000
1.672,33.500,34.500,70.500,39.500
1.673,34.000,35.000,71.000,39.000
1.674,34.000,35.500,71.500,38.500
1.675,34.000,36.000,72.500,38.000
1.676,34.000,36.000,73.000,37.500
1.677,34.000,36.500,73.000,38.000
1.678,34.500,36.500,73.000,38.500
1.679,34.500,36.500,72.500,39.000
1.680,34.500,36.500,72.000,40.500
1.681,34.500,36.500,71.500,41.500
1.682,34.000,36.000,71.000,42.500
1.683,34.000,36.000,70.500,43.000
1.684,33.500,35.500,70.500,43.500
1.685,33.500,35.000,70.500,43.500
1.686,33.000,35.000,70.500,43.500
1.687,33.000,34.500,70.500,43.000
1.688,32.500,34.500,69.500,42.500
1.689,32.500,34.000,69.000,41.500
1.690,32.500,34.000,68.000,41.000
1.691,32.500,34.000,67.500,40.000
1.692,32.000,34.000,67.000,39.000
1.693,32.000,34.000,67.000,37.500
1.694,31.500,34.000,67.000,36.500
1.695,31.000,34.000,67.500,35.500
1.696,31.000,33.500,68.000,35.000
1.697,31.000,34.000,68.500,35.000
1.698,31.000,34.000,68.500,35.500
1.699,31.500,34.000,69.000,36.500
1.700,32.000,34.000,69.000,38.000
1.701,32.500,34.000,69.000,39.000
1.702,32.500,33.500,69.000,40.500
1.703,33.000,33.500,69.000,41.000
1.704,32.500,33.000,69.500,41.500
1.705,32.500,33.000,69.500,41.500
1.706,32.500,33.000,69.500,41.500
1.707,32.000,33.000,69.000,41.000
1.708,32.000,32.500,68.500,40.500
1.709,31.500,32.500,67.500,39.500
1.710,31.500,32.500,66.500,38.500
1.711,31.000,32.000,65.500,37.500
1.712,31.000,32.000,65.000,36.500
1.713,30.500,32.000,64.000,35.000
1.714,30.000,32.000,64.000,33.500
1.715,29.500,31.500,64.000,33.000
1.716,29.000,31.500,64.000,32.000
1.717,29.000,31.500,64.000,32.000
1.718,29.000,31.500,64.000,32.500
1.719,29.000,31.500,63.500,33.000
1.720,29.500,31.500,63.500,34.000
1.721,29.500,31.500,63.000,35.000
1.722,30.000,31.500,63.500,36.500
1.723,29.500,31.500,63.500,37.500
1.724,29.500,31.000,64.000,38.000
1.725,29.000,31.000,64.000,38.000
1.726,29.000,30.500,64.000,38.000
1.727,29.000,30.500,64.000,38.000
1.728,29.000,30.500,63.500,37.500
1.729,29.000,30.500,63.000,37.000
1.730,29.500,31.000,63.000,36.000
1.731,29.500,31.000,62.500,35.500
1.732,29.500,31.000,62.500,34.500
1.733,29.000,31.000,62.500,34.000
1.734,29.000,31.500,63.000,33.000
1.735,29.000,31.500,63.000,32.500
1.736,28.500,31.500,63.500,32.000
1.737,28.500,31.500,64.000,32.000
1.738,28.500,31.500,64.000,32.500
1.739,28.500,31.500,63.500,33.500
1.740,29.000,31.500,63.500,34.500
1.741,29.000,31.000,62.500,35.500
1.742,29.000,31.000,62.500,36.500
1.743,29.000,30.500,62.500,37.500
1.744,28.500,30.500,62.500,38.000
1.745,28.500,30.500,62.500,38.000
1.746,28.500,30.500,62.500,38.000
1.747,28.000,30.500,62.000,37.500
1.748,28.000,30.000,61.000,37.000
1.749,27.500,30.000,60.500,36.500
1.750,27.500,30.000,59.500,36.000
1.751,27.500,30.000,58.500,35.000
1.752,27.500,30.500,58.000,34.000
1.753,27.000,30.500,57.500,33.000
1.754,26.500,30.500,58.000,31.500
1.755,26.000,30.000,58.500,31.000
1.756,26.000,30.000,59.000,30.500
1.757,26.000,30.500,59.000,30.500
1.758,26.000,30.500,59.000,31.000
1.759,26.500,30.500,59.000,32.000
1.760,26.500,30.500,59.000,33.000
1.761,26.500,30.000,58.500,34.000
1.762,26.500,30.000,58.500,35.000
1.763,26.500,29.500,58.500,35.500
1.764,26.000,29.500,58.500,36.500
1.765,26.000,29.000,58.500,36.500
1.766,25.500,28.500,58.000,36.500
1.767,25.500,28.500,58.000,36.000
1.768,25.000,28.500,57.500,36.000
1.769,25.000,29.000,57.500,35.500
1.770,25.000,29.500,57.000,35.000
1.771,25.500,30.000,56.500,34.000
1.772,25.500,30.000,56.500,33.500
1.773,25.000,30.000,56.000,32.000
1.774,24.500,29.500,56.500,31.000
1.775,24.500,29.500,56.500,30.000
1.776,24.000,29.500,57.000,29.500
1.777,24.000,29.500,57.000,29.500
1.778,24.000,29.500,57.500,30.000
1.779,24.000,29.500,57.500,31.000
1.780,24.500,29.500,57.000,32.000
1.781,24.500,29.500,57.000,33.000
1.782,24.500,29.500,57.000,34.000
1.783,24.500,29.000,57.000,34.500
1.784,24.500,29.000,57.500,35.000
1.785,24.500,28.500,57.500,35.000
1.786,24.000,28.500,58.000,35.000
1.787,24.000,28.000,57.500,34.500
1.788,24.000,28.000,57.500,34.000
1.789,24.000,28.500,57.000,33.500
1.790,24.000,28.500,56.500,32.500
1.791,24.000,28.500,56.000,31.500
1.792,24.000,28.500,55.500,30.500
1.793,24.000,28.500,55.000,29.500
1.794,23.500,28.000,55.000,28.000
1.795,23.500,28.000,55.000,27.500
1.796,23.000,28.000,55.500,27.000
1.797,23.000,28.000,55.500,27.000
1.798,23.000,28.000,55.500,27.500
1.799,23.500,28.500,55.000,28.500
1.800,24.000,28.500,55.000,29.500
1.801,24.000,29.000,54.500,31.000
1.802,24.500,29.000,54.500,32.000
1.803,24.500,28.500,54.500,32.500
1.804,24.500,28.500,54.500,33.000
1.805,24.500,28.500,54.500,33.000
1.806,24.000,28.500,55.000,33.000
1.807,24.000,28.500,54.500,32.500
1.808,24.000,28.500,54.500,32.000
1.809,23.500,28.000,54.000,31.500
1.810,23.500,28.000,53.000,30.500
1.811,23.000,28.000,52.000,30.000
1.812,23.000,28.000,51.500,29.000
1.813,22.500,27.500,51.000,27.500
1.814,22.000,27.500,51.000,26.500
1.815,21.500,27.500,51.000,25.500
1.816,21.500,27.500,51.500,25.000
1.817,21.500,28.000,52.000,25.000
1.818,22.000,28.000,52.000,26.000
1.819,22.500,28.500,52.000,27.000
1.820,23.000,28.500,52.000,28.500
1.821,23.000,28.500,52.000,30.000
1.822,23.000,28.000,52.000,31.000
1.823,23.000,27.500,52.500,32.000
1.824,23.000,27.500,53.000,32.500
1.825,22.500,27.000,53.000,32.500
1.826,22.500,27.000,53.000,32.500
1.827,22.000,27.000,53.000,32.000
1.828,22.000,26.500,52.500,31.500
1.829,21.500,26.500,51.500,30.500
1.830,21.500,26.500,51.000,29.500
1.831,21.000,26.500,50.000,29.000
1.832,21.000,27.000,49.500,27.500
1.833,20.500,27.000,49.500,26.500
1.834,20.500,26.500,49.500,25.500
1.835,20.000,26.500,49.500,24.500
1.836,20.000,26.500,49.500,24.000
1.837,20.000,26.000,49.500,24.000
1.838,20.000,26.000,49.500,24.500
1.839,20.500,26.000,49.000,25.500
1.840,21.000,26.000,48.500,27.000
1.841,21.000,26.000,48.000,28.000
1.842,21.500,26.000,48.000,29.000
1.843,21.000,26.000,48.000,29.500
1.844,21.000,25.500,48.000,30.000
1.845,20.500,25.500,48.500,30.000
1.846,20.500,25.500,48.500,30.000
1.847,20.000,25.500,48.500,30.000
1.848,20.000,25.500,48.000,29.500
1.849,20.000,25.500,48.000,29.000
1.850,20.000,26.000,47.500,28.500
1.851,20.000,26.000,47.000,28.000
1.852,20.000,26.500,46.500,27.000
1.853,20.000,26.500,47.000,25.500
1.854,19.500,26.500,47.000,24.500
1.855,19.500,26.500,47.500,23.500
1.856,19.000,26.000,48.000,23.000
1.857,19.000,26.000,48.500,23.000
1.858,19.500,26.000,48.500,23.500
1.859,19.500,26.000,48.500,24.000
1.860,20.000,26.000,48.500,25.500
1.861,20.000,26.000,48.000,26.500
1.862,20.000,26.000,48.000,27.500
1.863,20.000,25.500,48.000,28.000
1.864,19.500,25.500,48.000,28.000
1.865,19.000,25.000,48.000,28.000
1.866,18.500,24.000,48.000,27.500
1.867,18.000,23.500,47.500,27.000
1.868,17.500,23.000,47.000,26.000
1.869,17.000,22.500,46.500,25.000
1.870,16.500,22.000,45.500,24.000
1.871,16.500,22.000,45.000,23.000
1.872,16.000,22.000,45.000,22.000
1.873,15.500,21.500,45.000,20.500
1.874,15.000,21.500,45.500,20.000
1.875,14.500,22.000,46.500,19.500
1.876,14.500,22.500,47.500,20.000
1.877,15.000,22.500,48.500,21.000
1.878,15.500,23.000,49.500,23.000
1.879,16.000,23.500,50.500,25.000
1.880,16.500,24.000,51.000,28.000
1.881,16.500,25.000,52.000,31.000
1.882,17.000,25.500,53.000,34.000
1.883,17.000,25.500,54.500,36.500
1.884,17.500,26.000,56.000,39.000
1.885,17.500,26.500,57.500,41.000
1.886,17.500,27.500,59.500,43.000
1.887,18.000,28.500,61.000,45.000
1.888,18.500,29.000,62.000,46.500
1.889,19.000,30.000,63.000,47.500
1.890,19.500,31.000,63.500,48.000
1.891,20.000,31.500,63.500,48.500
1.892,20.500,32.500,64.000,48.500
1.893,20.500,33.000,65.000,48.500
1.894,21.000,34.000,66.000,49.000
1.895,22.000,35.000,67.500,49.000
1.896,23.000,36.000,69.000,49.500
1.897,24.500,37.500,70.000,50.000
1.898,26.000,38.500,70.500,50.500
1.899,27.500,39.500,70.500,51.000
1.900,29.500,40.000,70.000,51.500
1.901,31.000,40.500,69.500,52.000
1.902,32.000,41.000,69.000,52.000
1.903,33.000,41.500,69.000,52.000
1.904,33.500,41.500,68.500,51.000
1.905,33.500,41.500,68.000,50.500
1.906,33.500,41.000,67.000,49.500
1.907,33.500,40.500,66.000,48.000
1.908,33.000,39.500,64.500,46.000
1.909,32.500,38.500,63.000,44.000
1.910,31.500,38.000,61.500,42.000
1.911,30.500,37.000,60.000,40.000
1.912,30.000,36.500,59.000,38.000
1.913,29.000,36.000,58.500,36.000
1.914,28.500,35.500,58.000,34.500
1.915,27.500,34.500,58.000,33.000
1.916,26.500,34.000,58.000,32.000
1.917,26.000,33.000,57.500,31.000
1.918,25.500,32.500,57.000,30.500
1.919,25.000,32.000,56.500,30.500
1.920,25.000,31.000,56.000,31.000
1.921,25.000,30.500,55.500,31.500
1.922,24.500,29.500,54.500,32.000
1.923,24.000,29.000,54.000,32.000
1.924,23.500,28.000,54.000,32.000
1.925,22.500,27.500,53.500,31.500
1.926,21.500,27.000,53.000,31.000
1.927,21.000,26.500,52.500,30.000
1.928,20.500,26.000,52.000,29.500
1.929,20.000,25.500,51.000,28.500
1.930,20.000,25.500,50.500,28.000
1.931,19.500,25.500,49.500,27.000
1.932,19.500,25.500,49.000,25.500
1.933,19.000,25.500,49.000,24.000
1.934,18.500,25.000,49.000,23.000
1.935,18.500,25.000,49.000,22.000
1.936,18.500,25.000,49.500,21.500
1.937,18.500,25.500,50.000,21.500
1.938,18.500,25.500,50.000,22.500
1.939,18.500,25.500,50.000,23.500
1.940,19.000,25.000,50.000,25.000
1.941,19.000,25.000,49.500,26.000
1.942,19.000,24.500,49.000,27.000
1.943,19.000,24.500,49.000,27.500
1.944,19.000,24.000,49.000,27.500
1.945,19.000,23.500,49.000,27.500
1.946,18.500,23.500,49.000,27.500
1.947,18.500,23.500,48.500,27.000
1.948,18.500,23.500,48.000,26.500
1.949,18.000,23.500,47.500,25.500
1.950,18.000,23.500,46.500,25.000
1.951,17.500,23.500,45.500,24.000
1.952,17.500,23.500,45.000,22.500
1.953,17.000,23.000,44.500,21.500
1.954,16.500,23.000,44.500,20.000
1.955,16.500,23.000,44.500,19.500
1.956,16.500,23.000,44.500,19.000
1.957,16.500,23.500,44.500,19.000
1.958,17.000,23.500,44.500,20.000
1.959,17.000,24.000,44.500,21.000
1.960,17.500,24.000,44.500,22.500
1.961,18.000,24.000,44.000,23.500
1.962,18.000,23.500,44.000,25.000
1.963,18.000,23.500,44.000,25.500
1.964,17.500,23.000,44.000,26.000
1.965,17.000,23.000,44.500,26.000
1.966,17.000,23.000,44.500,26.000
1.967,17.000,23.000,44.500,25.500
1.968,16.500,23.000,44.500,25.000
1.969,16.500,23.000,44.000,24.500
1.970,16.500,23.000,43.500,23.500
1.971,16.000,23.000,43.000,22.500
1.972,16.000,23.000,42.500,21.500
1.973,15.500,23.000,42.500,20.500
1.974,15.000,22.500,42.500,19.500
1.975,15.000,23.000,43.000,19.000
1.976,15.000,23.000,43.500,19.000
1.977,15.500,23.500,44.000,19.500
1.978,16.000,24.000,44.500,20.500
1.979,16.500,24.500,45.000,22.000
1.980,17.500,25.000,45.000,23.500
1.981,17.500,25.000,45.000,24.500
1.982,18.000,25.000,45.000,25.500
1.983,18.000,25.000,45.000,26.000
1.984,17.500,24.500,45.500,26.500
1.985,17.500,24.500,46.000,26.500
1.986,17.500,24.500,46.500,26.500
1.987,17.500,24.500,46.500,26.000
1.988,17.500,24.500,46.000,25.500
1.989,17.500,24.500,45.500,25.000
1.990,17.000,24.500,45.000,24.000
1.991,17.000,24.500,44.500,23.000
1.992,17.000,24.500,44.000,21.500
1.993,16.500,24.500,43.500,20.500
1.994,16.000,24.500,44.000,19.500
1.995,16.000,24.500,44.500,19.000
1.996,15.500,25.000,44.500,19.000
1.997,16.000,25.000,45.000,19.000
1.998,16.000,25.500,45.500,20.000
1.999,16.500,25.500,45.500,21.000
2.000,16.500,25.000,45.000,22.500
2.001,17.000,25.000,45.000,23.500
2.002,17.000,24.500,44.500,24.500
2.003,17.000,24.000,45.000,25.500
2.004,17.000,24.000,45.500,26.000
2.005,16.500,24.000,46.000,26.500
2.006,16.500,24.000,46.000,26.500
2.007,16.500,24.000,46.500,26.500
2.008,16.000,24.500,46.500,26.000
2.009,16.000,24.500,46.000,25.500
2.010,16.000,24.500,45.500,25.000
2.011,15.500,25.000,45.000,24.000
2.012,15.500,25.000,44.500,23.000
2.013,15.500,25.500,44.500,21.500
2.014,15.500,25.500,45.000,20.500
2.015,15.500,25.500,46.000,20.000
2.016,16.000,25.500,46.500,19.500
2.017,16.000,25.500,47.000,20.000
2.018,16.500,25.500,47.500,21.000
2.019,17.000,25.500,47.500,22.500
2.020,17.000,25.500,47.000,23.500
2.021,17.000,25.000,47.000,25.000
2.022,17.000,25.000,47.000,26.000
2.023,16.500,25.000,47.000,26.500
2.024,16.000,24.500,47.500,27.000
2.025,16.000,24.500,48.000,27.000
2.026,15.500,24.500,48.000,27.000
2.027,15.500,24.500,48.000,26.500
2.028,15.500,24.500,48.000,26.000
2.029,15.500,24.500,47.500,25.500
2.030,15.500,24.500,47.500,25.000
2.031,16.000,25.000,47.000,24.500
2.032,16.000,25.000,47.500,24.000
2.033,16.000,25.500,47.500,23.000
2.034,15.500,26.000,48.500,22.500
2.035,15.500,26.000,49.000,22.000
2.036,15.500,26.500,49.500,21.500
2.037,15.500,26.500,50.000,21.500
2.038,15.500,27.000,50.500,22.000
2.039,16.000,27.000,50.500,23.000
2.040,16.000,27.000,50.000,24.500
2.041,16.500,26.500,50.000,25.500
2.042,16.500,26.500,50.000,27.000
2.043,16.500,26.000,50.000,27.500
2.044,16.500,26.000,50.500,28.500
2.045,16.000,26.000,50.500,28.500
2.046,16.000,25.500,51.000,28.500
2.047,16.000,25.500,51.000,28.000
2.048,16.000,25.000,50.500,27.500
2.049,16.000,25.000,50.000,27.000
2.050,16.000,24.500,49.500,26.000
2.051,16.000,24.500,49.000,25.000
2.052,16.000,24.500,48.500,24.000
2.053,15.500,24.500,48.500,23.000
2.054,15.000,24.500,48.500,21.500
2.055,15.000,24.000,48.500,21.000
2.056,15.000,24.000,49.000,20.500
2.057,15.000,24.000,49.500,20.500
2.058,15.500,24.500,49.500,21.500
2.059,15.500,25.000,50.000,22.500
2.060,16.000,25.000,50.000,24.000
2.061,16.500,25.000,50.000,25.500
2.062,16.500,25.000,50.000,27.000
2.063,16.500,25.000,50.000,27.500
2.064,16.500,24.500,50.500,28.000
2.065,16.000,24.000,50.500,28.000
2.066,15.500,24.000,50.500,27.500
2.067,15.000,23.500,50.000,27.000
2.068,15.000,23.500,49.500,26.000
2.069,14.500,23.500,48.500,25.500
2.070,14.500,23.000,47.500,24.500
2.071,14.000,22.500,46.500,23.500
2.072,13.000,22.500,46.000,22.000
2.073,12.500,21.500,45.500,20.500
2.074,11.000,21.000,45.000,19.000
2.075,10.500,20.500,44.500,17.500
2.076,10.000,20.500,44.500,17.000
2.077,9.500,20.500,44.500,17.500
2.078,10.000,21.000,45.000,18.500
2.079,10.500,21.500,45.000,20.000
2.080,11.000,22.000,45.500,21.500
2.081,11.500,22.000,45.500,23.000
2.082,12.000,22.500,46.000,24.500
2.083,12.500,23.000,46.500,26.000
2.084,13.000,23.000,47.500,27.000
2.085,13.500,23.500,48.500,27.500
2.086,13.500,24.000,49.000,28.000
2.087,14.000,24.500,49.500,28.500
2.088,14.500,25.000,50.000,28.500
2.089,15.000,26.000,50.500,28.500
2.090,15.500,27.000,51.000,29.000
2.091,16.000,27.500,51.500,28.500
2.092,16.500,28.500,52.500,28.500
2.093,16.500,29.000,53.500,28.000
2.094,16.500,29.500,55.000,27.000
2.095,16.500,30.000,56.000,26.500
2.096,16.500,30.000,57.000,26.500
2.097,16.500,30.000,57.500,26.500
2.098,16.000,29.500,57.500,26.500
2.099,16.000,29.500,57.500,27.500
2.100,16.000,29.500,57.000,28.500
2.101,16.000,29.000,57.000,29.500
2.102,16.000,28.500,56.500,30.500
2.103,16.000,28.500,56.500,31.000
2.104,16.000,28.000,57.000,31.000
2.105,15.500,28.000,57.000,31.000
2.106,15.500,27.500,57.500,31.000
2.107,15.000,27.500,57.500,30.500
2.108,15.000,27.500,57.500,30.000
2.109,15.000,27.500,57.500,29.500
2.110,14.500,28.000,57.000,28.500
2.111,14.500,28.000,56.500,28.000
2.112,14.500,28.500,56.000,27.000
2.113,14.500,28.500,56.000,26.000
2.114,14.000,28.500,56.000,25.000
2.115,14.000,28.500,56.500,24.000
2.116,13.500,28.500,56.500,24.000
2.117,13.500,29.000,56.500,24.000
2.118,14.000,29.000,56.500,25.000
2.119,14.500,29.500,56.500,26.000
2.120,15.000,29.500,56.000,27.500
2.121,15.000,29.000,56.000,28.500
2.122,15.000,29.000,55.500,29.500
2.123,15.000,28.500,55.500,30.000
2.124,14.500,28.500,56.000,30.500
2.125,14.500,28.500,56.500,31.000
2.126,14.000,28.500,56.500,31.000
2.127,14.000,28.500,56.500,31.000
2.128,14.000,28.500,56.500,30.500
2.129,14.000,28.500,56.000,30.000
2.130,14.000,28.500,55.000,29.000
2.131,14.000,28.500,54.500,28.000
2.132,14.000,28.500,54.500,27.000
2.133,14.000,28.500,54.500,26.000
2.134,13.500,28.500,54.500,25.000
2.135,13.500,28.500,55.000,24.000
2.136,13.500,28.500,55.000,24.000
2.137,13.500,29.000,55.500,24.500
2.138,14.000,29.000,55.500,25.000
2.139,14.000,29.000,55.500,26.500
2.140,14.500,29.500,55.500,27.500
2.141,15.000,29.000,55.000,28.500
2.142,15.000,28.500,55.000,29.500
2.143,15.000,28.500,55.000,30.000
2.144,14.500,28.000,55.500,30.000
2.145,14.500,28.000,56.000,30.000
2.146,14.500,28.000,56.000,30.000
2.147,14.500,27.500,56.500,29.500
2.148,14.500,28.000,56.500,29.500
2.149,14.500,28.000,56.000,29.000
2.150,15.000,28.500,55.500,28.000
2.151,15.000,28.500,55.500,27.000
2.152,15.000,29.000,55.000,26.000
2.153,15.000,29.000,55.500,25.000
2.154,15.000,29.000,56.000,24.000
2.155,14.500,29.000,56.500,23.500
2.156,14.500,29.000,57.000,23.500
2.157,14.500,29.000,57.500,23.500
2.158,15.000,29.000,57.500,24.500
2.159,15.500,29.000,57.500,25.000
2.160,16.000,28.500,57.500,26.500
2.161,16.500,28.500,57.500,27.500
2.162,16.500,28.500,58.000,28.500
2.163,16.500,28.000,58.000,29.000
2.164,16.500,27.500,59.000,29.500
2.165,16.000,27.500,59.500,29.500
2.166,16.000,27.000,60.000,30.000
2.167,16.000,27.500,60.000,29.500
2.168,16.500,27.500,60.000,29.500
2.169,16.500,27.500,59.500,29.500
2.170,17.000,28.000,59.000,29.000
2.171,17.000,28.500,59.000,28.000
2.172,17.000,28.500,58.500,27.500
2.173,16.500,28.500,59.000,26.500
2.174,16.500,28.500,59.000,25.000
2.175,16.000,28.500,59.500,24.500
2.176,16.000,28.500,60.000,24.000
2.177,16.000,28.500,60.500,24.000
2.178,16.000,28.500,60.500,25.000
2.179,16.500,28.500,61.000,26.000
2.180,17.000,28.500,61.000,27.500
2.181,17.500,28.000,60.500,28.500
2.182,17.500,28.000,60.500,29.500
2.183,17.500,28.000,60.500,30.500
2.184,17.500,28.000,61.000,31.000
2.185,17.000,28.000,61.000,31.000
2.186,17.000,28.000,61.500,31.500
2.187,17.000,28.000,61.500,31.500
2.188,17.000,28.000,61.500,31.000
2.189,17.000,28.500,61.500,30.500
2.190,17.000,28.500,61.000,30.000
2.191,17.000,29.000,61.000,29.000
2.192,17.000,29.500,60.500,28.000
2.193,17.000,29.500,61.000,27.000
2.194,16.500,29.500,61.000,26.500
2.195,16.500,29.500,61.500,25.500
2.196,16.500,29.500,62.000,25.500
2.197,16.500,29.500,62.500,25.500
2.198,17.000,29.500,62.500,26.000
2.199,17.500,30.000,62.500,27.000
2.200,17.500,30.000,62.500,28.000
2.201,18.000,30.000,62.500,29.000
2.202,18.000,30.000,62.500,30.500
2.203,18.000,29.500,63.000,31.000
2.204,18.000,29.000,64.000,31.500
2.205,18.000,29.000,64.500,31.500
2.206,18.000,28.500,64.500,31.500
2.207,18.000,28.500,64.500,31.000
2.208,18.000,29.000,64.500,30.500
2.209,18.000,29.000,64.000,30.000
2.210,18.000,29.500,64.000,29.500
2.211,18.000,29.500,63.500,29.000
2.212,18.000,29.500,63.500,28.000
2.213,18.000,29.500,63.500,27.000
2.214,17.500,29.000,64.000,26.000
2.215,17.000,29.000,64.500,25.000
2.216,17.000,29.000,65.000,25.000
2.217,17.000,29.000,65.500,25.500
2.218,17.000,29.000,66.000,26.000
2.219,17.500,29.500,66.500,27.000
2.220,18.000,29.500,66.500,28.500
2.221,18.500,29.500,66.500,29.500
2.222,18.500,29.500,66.500,30.500
2.223,18.500,29.000,67.000,31.500
2.224,18.500,29.000,67.000,32.000
2.225,18.000,28.500,67.500,32.500
2.226,18.000,28.500,67.500,32.500
2.227,18.000,28.500,67.500,32.500
2.228,18.000,28.500,67.500,32.500
2.229,18.500,29.000,67.500,32.000
2.230,18.500,29.000,67.000,31.500
2.231,18.500,29.500,67.000,30.500
2.232,18.500,29.500,67.000,30.000
2.233,18.500,29.500,67.000,28.500
2.234,18.000,29.500,67.000,28.000
2.235,18.000,30.000,67.000,27.000
2.236,18.000,30.000,67.500,27.000
2.237,18.500,30.000,68.000,27.500
2.238,19.000,30.500,68.000,28.000
2.239,20.000,30.500,68.500,29.500
2.240,20.500,30.500,68.500,30.500
2.241,21.000,30.500,69.000,32.000
2.242,21.000,30.000,69.000,33.000
2.243,21.000,30.000,69.000,33.500
2.244,20.500,30.000,69.500,34.000
2.245,20.500,29.500,70.000,34.000
2.246,20.000,30.000,70.500,34.000
2.247,20.000,30.000,71.000,34.000
2.248,20.000,30.000,71.000,34.000
2.249,20.000,30.000,70.500,33.000
2.250,20.500,30.500,70.000,32.500
2.251,20.500,30.500,69.500,31.500
2.252,21.000,31.000,69.000,30.500
2.253,21.000,31.000,69.000,29.500
2.254,20.500,31.500,69.500,29.000
2.255,20.500,31.500,70.000,28.500
2.256,20.500,32.000,70.500,28.500
2.257,21.000,32.000,71.000,28.500
2.258,21.500,32.500,71.500,29.500
2.259,21.500,32.500,71.500,30.500
2.260,22.000,33.000,72.000,32.000
2.261,22.500,33.000,72.000,33.500
2.262,23.000,32.500,72.500,35.000
2.263,23.000,32.500,72.500,35.500
2.264,23.000,32.000,73.000,36.000
2.265,23.000,32.000,73.500,36.000
2.266,23.000,32.500,73.500,36.000
2.267,23.000,32.500,73.500,35.500
2.268,23.000,32.500,73.000,35.000
2.269,23.000,33.000,72.500,34.500
2.270,23.000,33.500,72.000,34.000
2.271,23.000,33.500,72.000,33.500
2.272,23.000,34.000,72.000,32.000
2.273,23.000,34.000,72.000,31.000
2.274,22.500,34.000,72.500,30.000
2.275,22.500,34.000,73.000,29.000
2.276,22.500,33.500,73.500,28.500
2.277,22.500,33.500,73.500,29.000
2.278,23.000,34.000,74.000,29.500
2.279,23.500,34.000,74.000,31.000
2.280,24.000,34.000,74.000,32.000
2.281,24.000,34.000,74.000,33.500
2.282,24.500,34.000,74.500,34.500
2.283,24.000,33.500,74.500,35.000
2.284,24.000,33.500,75.000,35.500
2.285,24.000,33.500,75.500,35.500
2.286,23.500,33.000,75.500,35.500
2.287,23.500,33.000,76.000,35.000
2.288,23.500,33.000,75.500,35.000
2.289,23.500,33.000,75.500,34.500
2.290,23.500,33.500,75.000,33.500
2.291,23.500,33.500,74.500,33.000
2.292,23.000,33.500,74.000,32.000
2.293,23.000,33.500,74.000,31.000
2.294,22.500,33.500,74.500,30.000
2.295,22.500,34.000,75.000,29.500
2.296,22.500,34.000,75.500,29.500
2.297,22.500,34.000,75.500,29.500
2.298,23.000,34.000,75.500,30.000
2.299,23.500,34.000,75.500,31.000
2.300,23.500,34.000,75.000,32.000
2.301,24.000,34.000,75.000,33.500
2.302,24.000,33.500,75.000,34.500
2.303,24.000,33.500,74.500,35.500
2.304,23.500,33.000,74.500,35.500
2.305,23.500,33.000,75.000,36.000
2.306,23.000,33.000,75.000,35.500
2.307,23.000,33.000,75.000,35.500
2.308,22.500,33.500,75.000,35.000
2.309,23.000,33.500,75.000,34.500
2.310,23.000,34.000,74.500,33.500
2.311,22.500,33.500,73.500,32.500
2.312,22.500,33.500,73.500,31.000
2.313,22.000,33.000,73.000,30.000
2.314,22.000,33.000,73.500,29.000
2.315,21.500,33.000,74.000,28.500
2.316,21.500,33.500,74.500,28.500
2.317,22.000,34.000,75.000,29.000
2.318,22.000,34.000,75.000,29.500
2.319,22.500,34.500,75.500,31.000
2.320,23.000,34.500,75.000,32.500
2.321,23.000,34.500,75.000,33.500
2.322,23.500,34.500,75.000,35.000
2.323,23.500,34.500,75.000,35.500
2.324,23.000,34.000,75.500,36.000
2.325,23.000,33.500,75.500,36.000
2.326,23.000,33.500,76.000,36.000
2.327,22.500,33.000,75.500,35.500
2.328,22.500,32.500,75.000,35.000
2.329,22.000,32.500,74.500,34.500
2.330,22.000,32.500,73.500,34.000
2.331,22.000,32.500,73.500,33.000
2.332,21.500,32.500,73.000,32.000
2.333,21.500,32.500,73.500,31.000
2.334,21.000,32.500,74.000,30.500
2.335,21.000,32.500,74.500,30.000
2.336,21.000,32.500,75.000,30.000
2.337,21.000,32.500,75.500,30.500
2.338,21.000,32.000,75.500,31.000
2.339,21.500,32.000,75.500,32.500
2.340,22.000,32.000,75.500,33.500
2.341,22.000,32.000,75.500,35.000
2.342,22.500,32.000,75.500,36.500
2.343,22.500,32.000,76.000,37.000
2.344,22.500,31.500,76.500,37.500
2.345,22.500,31.500,77.000,37.500
2.346,22.500,31.500,77.000,37.000
2.347,22.500,31.500,77.500,37.000
2.348,22.000,31.500,77.500,36.500
2.349,22.000,32.000,77.000,35.500
2.350,22.000,32.000,76.500,35.000
2.351,22.000,32.000,76.000,34.000
2.352,22.000,32.500,76.000,32.500
2.353,22.000,32.500,76.500,31.500
2.354,21.500,32.500,76.500,31.000
2.355,21.500,32.500,77.500,30.500
2.356,21.500,33.000,78.000,30.000
2.357,21.500,33.000,78.000,30.500
2.358,22.000,33.000,78.500,31.000
2.359,22.500,33.000,78.500,32.500
2.360,23.000,33.000,78.500,33.500
2.361,23.000,33.000,78.000,35.000
2.362,23.500,32.500,78.000,36.000
2.363,23.500,32.000,77.500,36.500
2.364,23.000,31.500,77.500,36.500
2.365,23.000,31.000,77.500,36.500
2.366,22.500,31.000,77.000,36.000
2.367,22.500,31.000,77.000,35.500
2.368,22.500,31.000,76.500,35.500
2.369,23.000,31.500,76.000,35.000
2.370,23.000,32.000,75.500,34.500
2.371,23.500,32.000,75.000,34.000
2.372,23.500,32.000,74.500,33.000
2.373,23.000,32.500,74.500,31.500
2.374,23.000,32.000,74.500,30.500
2.375,23.000,32.000,74.500,30.000
2.376,23.000,32.500,75.000,29.500
2.377,23.000,32.500,75.000,29.500
2.378,23.500,32.500,75.500,30.500
2.379,24.000,32.500,75.000,31.500
2.380,24.500,32.500,75.000,32.500
2.381,24.500,32.500,74.500,33.500
2.382,25.000,32.500,74.500,34.500
2.383,25.000,32.500,74.500,35.500
2.384,24.500,32.000,75.000,36.000
2.385,24.500,32.000,75.500,36.500
2.386,24.500,32.000,75.500,36.500
2.387,24.500,32.000,75.500,36.000
2.388,24.500,32.000,75.000,35.500
2.389,24.500,32.000,75.000,35.000
2.390,24.500,32.500,74.500,34.000
2.391,24.500,32.500,74.000,33.500
2.392,24.500,32.500,74.000,32.500
2.393,24.500,33.000,74.000,31.500
2.394,24.500,33.000,74.000,30.000
2.395,24.500,32.500,74.500,29.500
2.396,24.500,32.500,75.000,29.000
2.397,24.500,32.500,75.000,29.000
2.398,24.500,32.500,75.500,29.500
2.399,25.000,32.500,75.500,30.500
2.400,25.000,32.500,75.500,32.000
2.401,25.500,32.500,75.500,33.500
2.402,25.500,32.500,75.500,34.500
2.403,25.500,32.500,76.000,35.500
2.404,25.500,32.500,76.500,36.500
2.405,25.500,32.500,76.500,36.500
2.406,25.500,32.500,77.000,37.000
2.407,25.500,32.500,77.500,37.000
2.408,25.500,33.000,77.500,37.000
2.409,26.000,33.000,77.500,36.500
2.410,26.000,33.500,77.000,36.000
2.411,26.000,34.000,76.500,35.000
2.412,25.500,34.000,76.500,34.000
2.413,25.500,34.000,77.000,33.000
2.414,25.500,34.000,77.500,32.000
2.415,26.000,34.500,78.500,31.500
2.416,26.000,34.500,79.000,31.500
2.417,26.000,34.500,79.500,32.000
2.418,26.500,34.500,80.000,32.500
2.419,27.000,34.500,80.000,33.500
2.420,27.000,34.500,80.000,34.500
2.421,27.000,34.500,80.500,35.500
2.422,27.000,34.500,80.500,36.500
2.423,27.000,34.000,81.000,37.500
2.424,27.000,33.500,81.500,37.500
2.425,27.000,33.500,81.500,38.000
2.426,26.500,33.000,82.000,37.500
2.427,26.500,33.000,81.500,37.500
2.428,26.000,33.000,81.000,37.000
2.429,26.000,33.000,80.500,36.000
2.430,26.000,33.000,80.000,35.500
2.431,26.000,33.000,79.500,34.500
2.432,26.000,33.000,79.500,33.000
2.433,26.000,33.000,79.500,32.000
2.434,25.500,33.000,80.000,30.500
2.435,25.500,33.000,80.500,29.500
2.436,25.500,32.500,81.000,29.000
2.437,25.500,32.500,81.000,29.000
2.438,26.000,32.500,81.000,30.000
2.439,26.000,32.500,80.500,31.000
2.440,26.000,32.500,80.000,32.500
2.441,25.500,32.000,79.500,34.000
2.442,25.000,31.500,79.500,35.000
2.443,24.500,31.000,79.500,35.500
2.444,24.000,30.500,79.500,36.500
2.445,23.500,30.000,80.000,37.000
2.446,23.000,30.000,80.500,37.500
2.447,22.500,30.000,80.500,37.500
2.448,22.500,30.000,81.000,38.500
2.449,22.500,30.500,81.500,39.000
2.450,22.500,31.000,82.000,39.500
2.451,23.000,32.000,82.000,39.500
2.452,23.000,32.500,83.000,40.000
2.453,23.000,33.500,84.000,40.500
2.454,23.500,34.000,86.000,41.000
2.455,23.500,35.000,87.500,42.500
2.456,24.500,36.000,89.500,44.000
2.457,25.000,37.000,91.500,46.500
2.458,26.000,38.000,93.000,49.500
2.459,26.500,39.500,94.500,52.500
2.460,27.000,40.000,95.500,56.000
2.461,27.500,40.500,96.500,58.500
2.462,27.500,40.500,97.500,61.000
2.463,27.500,41.000,98.000,63.000
2.464,27.500,41.000,99.000,64.000
2.465,28.000,42.000,100.000,65.000
2.466,29.000,42.500,101.000,66.000
2.467,30.000,43.500,102.000,66.500
2.468,31.500,44.500,102.000,66.500
2.469,33.000,45.500,102.000,66.500
2.470,34.500,46.500,101.500,65.500
2.471,36.000,47.500,101.000,64.000
2.472,37.000,48.500,101.000,62.500
2.473,38.500,49.500,101.000,60.500
2.474,39.500,50.000,101.000,58.500
2.475,40.000,51.000,101.000,56.500
2.476,41.000,51.000,101.000,55.500
2.477,41.500,51.000,101.000,54.500
2.478,42.000,51.000,101.000,54.500
2.479,42.500,50.500,100.500,54.500
2.480,42.500,50.000,100.000,55.000
2.481,42.500,49.500,99.500,55.000
2.482,42.000,49.000,98.500,55.000
2.483,41.500,48.000,98.000,55.000
2.484,40.500,47.000,97.500,54.500
2.485,39.500,45.500,97.000,53.500
2.486,38.000,45.000,96.500,53.000
2.487,37.000,44.000,95.500,51.500
2.488,36.500,43.000,95.000,50.000
2.489,36.000,42.500,94.000,48.500
2.490,35.500,42.000,93.000,47.000
2.491,35.000,42.000,92.000,45.500
2.492,34.500,41.500,91.000,44.000
2.493,34.000,41.000,91.000,42.500
2.494,33.000,40.500,90.500,41.000
2.495,32.500,39.500,90.000,40.000
2.496,31.500,39.000,89.500,39.000
2.497,31.000,38.000,89.000,38.500
2.498,30.500,37.500,88.500,38.000
2.499,30.000,37.000,88.000,38.500
2.500,29.500,36.000,87.000,39.000
2.501,29.000,35.500,86.500,39.500
2.502,28.500,34.500,86.000,39.500
2.503,28.000,34.000,86.000,40.000
2.504,27.500,33.000,85.500,40.000
2.505,27.000,32.500,85.500,39.500
2.506,26.000,31.500,84.500,39.000
2.507,25.500,30.500,83.500,38.000
2.508,24.500,30.000,82.500,37.000
2.509,24.500,30.000,81.500,36.000
2.510,24.500,30.000,80.500,35.500
2.511,25.000,30.500,80.000,35.000
2.512,25.000,31.000,80.500,34.500
2.513,25.000,31.000,81.000,33.500
2.514,25.000,31.500,81.500,33.000
2.515,25.000,31.500,82.500,32.500
2.516,25.000,32.000,83.000,32.500
2.517,25.500,32.500,83.500,33.000
2.518,26.500,32.500,83.500,34.000
2.519,27.500,33.000,84.000,35.500
2.520,28.000,33.500,84.000,37.500
2.521,29.000,34.000,84.500,39.000
2.522,29.500,34.500,85.000,40.500
2.523,30.000,34.500,85.500,41.500
2.524,30.500,35.000,86.000,42.500
2.525,30.500,35.000,87.000,43.000
2.526,30.500,35.500,87.500,43.500
2.527,31.000,35.500,88.000,43.500
2.528,30.500,35.500,87.500,43.000
2.529,30.500,35.500,87.000,42.500
2.530,30.500,35.500,86.500,41.500
2.531,30.000,35.000,86.000,40.000
2.532,29.500,34.500,85.500,39.000
2.533,29.000,34.000,85.500,37.500
2.534,28.500,33.500,85.500,36.000
2.535,28.000,33.000,86.000,35.000
2.536,28.000,33.000,86.000,34.000
2.537,27.500,32.500,85.500,34.000
2.538,27.500,32.500,85.500,34.500
2.539,28.000,32.000,85.000,35.000
2.540,28.000,32.000,84.500,36.500
2.541,28.000,32.000,84.000,37.500
2.542,27.500,31.500,84.000,38.500
2.543,27.500,31.500,84.000,39.000
2.544,27.000,31.500,84.000,39.500
2.545,27.000,31.500,84.500,40.000
2.546,27.000,32.000,84.500,40.000
2.547,26.500,32.000,84.500,40.000
2.548,26.500,32.000,84.000,39.500
2.549,26.500,32.000,84.000,39.000
2.550,26.500,32.000,83.000,38.000
2.551,26.500,32.000,83.000,37.000
2.552,26.500,32.000,82.500,36.000
2.553,26.500,32.000,82.500,35.000
2.554,26.000,32.500,83.000,34.000
2.555,26.000,32.500,83.500,33.500
2.556,26.000,32.500,84.000,33.500
2.557,26.500,32.500,84.000,33.500
2.558,27.000,32.500,84.000,34.500
2.559,27.000,33.000,83.500,35.500
2.560,27.500,33.000,83.500,37.000
2.561,27.500,33.000,83.500,38.000
2.562,28.000,32.500,83.500,39.000
2.563,27.500,32.000,83.500,39.500
2.564,27.500,31.500,83.500,40.000
2.565,27.500,31.000,84.000,40.000
2.566,27.500,31.000,84.000,39.500
2.567,27.500,31.000,84.500,39.500
2.568,27.500,31.000,84.000,39.000
2.569,27.500,31.000,84.000,38.000
2.570,27.500,31.500,83.500,37.000
2.571,27.500,31.500,83.000,36.000
2.572,27.500,31.500,82.500,34.500
2.573,27.000,31.500,82.500,33.500
2.574,27.000,32.000,82.500,32.500
2.575,27.000,32.000,83.000,32.500
2.576,27.000,32.000,83.500,32.000
2.577,27.000,32.500,84.000,32.500
2.578,27.500,32.500,84.500,33.500
2.579,28.000,33.000,84.500,34.500
2.580,28.500,33.000,84.500,36.000
2.581,29.000,33.500,84.500,37.500
2.582,29.000,33.500,85.000,39.000
2.583,29.000,33.000,86.000,40.000
2.584,29.000,33.000,86.500,40.500
2.585,29.000,32.500,87.000,40.500
2.586,28.500,32.500,87.000,40.000
2.587,28.500,32.500,86.500,39.500
2.588,28.000,32.500,86.000,39.000
2.589,28.000,32.500,85.500,38.500
2.590,28.000,32.500,85.000,37.500
2.591,28.000,32.500,84.000,36.500
2.592,28.000,32.500,84.000,35.500
2.593,27.500,32.500,84.000,34.000
2.594,27.500,32.500,84.000,33.000
2.595,27.500,32.500,84.500,32.500
2.596,27.500,32.500,85.000,32.000
2.597,27.500,33.000,85.500,32.000
2.598,27.500,33.000,85.500,33.000
2.599,28.000,33.000,85.500,34.000
2.600,28.000,33.000,85.500,35.500
2.601,28.500,33.000,85.500,37.000
2.602,28.500,33.000,85.500,38.000
2.603,28.500,33.000,86.000,38.500
2.604,28.500,33.000,86.500,39.000
2.605,28.500,33.000,87.000,39.000
2.606,28.500,32.500,87.500,39.500
2.607,28.000,32.500,87.500,39.000
2.608,28.000,32.500,87.000,38.500
2.609,28.000,32.500,86.500,38.000
2.610,28.000,32.500,86.000,37.500
2.611,28.000,32.500,85.000,36.500
2.612,27.500,32.500,84.500,35.500
2.613,27.500,32.500,84.500,34.500
2.614,27.500,33.000,85.000,33.500
2.615,27.500,33.500,85.500,33.000
2.616,27.500,33.500,86.000,33.000
2.617,27.500,34.000,86.500,33.500
2.618,27.500,34.500,86.500,34.000
2.619,27.500,34.500,86.000,35.000
2.620,28.000,34.500,85.500,36.000
2.621,28.000,34.500,85.500,37.500
2.622,28.500,34.500,85.000,38.500
2.623,28.500,34.500,85.500,39.500
2.624,28.500,34.000,85.500,40.000
2.625,28.000,34.000,86.000,40.500
2.626,28.000,34.000,86.000,40.500
2.627,28.000,33.500,85.500,40.000
2.628,27.500,33.500,85.000,39.500
2.629,27.500,34.000,84.500,39.000
2.630,27.500,34.000,83.500,38.000
2.631,27.500,34.000,83.000,37.000
2.632,27.500,34.500,82.500,36.500
2.633,27.500,34.500,82.500,35.500
2.634,27.000,34.500,83.000,34.500
2.635,27.000,35.000,84.000,34.000
2.636,27.000,35.000,84.500,34.000
2.637,27.000,35.000,84.500,34.500
2.638,27.000,34.500,85.000,35.000
2.639,27.500,34.500,84.500,36.000
2.640,28.000,34.500,84.500,37.000
2.641,28.000,34.500,84.500,38.500
2.642,28.500,34.000,84.000,39.500
2.643,28.500,34.000,84.500,40.500
2.644,28.000,33.500,84.500,41.000
2.645,28.000,33.500,84.500,41.000
2.646,27.500,33.500,85.000,41.000
2.647,27.500,33.000,84.500,41.000
2.648,27.500,33.000,84.000,40.500
2.649,27.500,33.000,83.500,40.000
2.650,27.500,33.000,82.500,39.000
2.651,27.500,33.500,82.000,38.000
2.652,27.500,33.500,82.000,37.000
2.653,27.000,33.500,82.000,36.000
2.654,27.000,33.500,82.000,35.000
2.655,26.500,33.500,82.500,34.500
2.656,26.500,33.000,82.500,34.500
2.657,26.500,33.000,82.500,34.500
2.658,27.000,33.000,82.000,35.500
2.659,27.000,32.500,82.000,36.500
2.660,27.500,32.500,81.500,37.500
2.661,27.500,32.500,81.500,39.000
2.662,27.500,32.500,81.500,40.000
2.663,27.500,32.500,82.000,41.000
2.664,27.500,32.500,82.500,41.500
2.665,27.000,32.500,83.000,41.500
2.666,27.000,32.000,83.000,41.500
2.667,26.500,32.500,83.000,41.500
2.668,26.500,32.500,83.000,41.000
2.669,26.500,32.500,82.500,40.500
2.670,26.500,33.000,82.000,39.500
2.671,26.500,33.000,81.500,38.500
2.672,26.500,33.000,81.000,37.500
2.673,26.500,33.000,81.000,36.500
2.674,26.000,33.000,81.500,35.500
2.675,26.000,33.000,82.000,35.000
2.676,26.000,33.500,82.500,35.000
2.677,26.000,33.500,83.000,35.500
2.678,26.000,34.000,83.500,36.000
2.679,26.500,34.000,83.500,37.000
2.680,26.500,34.000,84.000,38.500
2.681,27.000,34.000,84.000,40.000
2.682,27.000,34.000,84.000,41.000
2.683,27.000,34.000,84.500,41.500
2.684,26.500,34.000,85.000,42.000
2.685,26.500,34.000,85.500,42.000
2.686,26.000,34.000,85.500,42.000
2.687,26.000,34.000,85.500,42.000
2.688,26.000,34.000,85.000,41.500
2.689,26.500,34.000,84.500,41.000
2.690,26.500,34.500,84.000,40.000
2.691,26.500,34.500,83.500,39.000
2.692,26.500,34.500,83.500,38.000
2.693,26.000,34.500,83.500,36.500
2.694,26.000,34.500,83.500,35.500
2.695,25.500,34.500,83.500,34.500
2.696,25.500,34.500,84.000,34.500
2.697,26.000,34.500,84.000,34.500
2.698,26.000,35.000,84.000,35.500
2.699,26.500,35.000,83.500,36.500
2.700,27.000,35.000,83.500,38.000
2.701,27.500,35.000,83.000,39.000
2.702,27.500,35.000,83.000,40.000
2.703,27.500,34.500,83.000,40.500
2.704,27.000,34.500,83.000,41.000
2.705,27.000,34.500,83.500,41.000
2.706,27.000,34.500,83.500,41.000
2.707,27.000,34.500,83.000,40.500
2.708,26.500,34.500,82.500,40.000
2.709,26.500,34.500,81.500,39.500
2.710,26.500,34.500,81.000,38.500
2.711,26.500,34.500,80.500,37.500
2.712,26.500,35.000,80.500,36.000
2.713,26.500,35.000,80.500,35.000
2.714,26.500,35.000,81.000,33.500
2.715,26.500,35.000,81.500,33.000
2.716,27.000,35.500,82.000,33.000
2.717,27.000,35.500,82.500,33.000
2.718,27.500,35.500,82.500,34.000
2.719,28.500,36.000,82.500,35.000
2.720,29.000,36.000,82.500,36.500
2.721,29.500,36.000,82.500,38.000
2.722,29.500,36.000,82.500,39.000
2.723,29.500,36.000,83.000,40.000
2.724,29.500,35.500,83.000,40.000
2.725,29.000,35.500,83.500,40.000
2.726,29.500,35.500,83.500,40.000
2.727,29.500,35.500,83.500,40.000
2.728,29.500,35.500,83.500,39.500
2.729,29.500,35.500,83.000,39.000
2.730,30.000,35.500,83.000,38.500
2.731,30.000,36.000,82.500,37.500
2.732,30.500,36.500,82.500,36.500
2.733,30.500,36.500,82.500,35.500
2.734,30.500,36.500,83.000,34.500
2.735,30.500,36.500,83.500,34.000
2.736,30.500,37.000,84.000,34.000
2.737,31.000,37.500,84.500,34.500
2.738,31.000,37.500,85.000,35.500
2.739,31.500,38.000,85.000,36.500
2.740,32.000,38.000,84.500,38.000
2.741,32.000,37.500,84.500,39.500
2.742,32.000,37.500,84.000,40.500
2.743,32.000,37.500,84.500,41.000
2.744,32.000,37.500,84.500,41.500
2.745,32.000,37.000,85.000,42.000
2.746,32.000,37.000,85.000,42.000
2.747,31.500,37.000,84.500,42.000
2.748,31.500,37.000,84.500,41.500
2.749,32.000,37.000,84.000,41.000
2.750,32.000,37.500,83.500,40.500
2.751,32.000,38.000,83.000,39.500
2.752,32.500,38.000,82.500,38.500
2.753,32.500,38.000,82.500,37.500
2.754,32.000,37.500,83.000,36.500
2.755,32.000,37.500,83.500,35.500
2.756,32.000,37.500,84.000,35.500
2.757,32.000,38.000,84.000,35.500
2.758,32.500,38.000,84.000,36.500
2.759,33.000,38.500,84.000,37.000
2.760,33.500,38.500,84.000,38.500
2.761,34.000,38.500,83.500,39.500
2.762,34.000,38.000,83.500,40.500
2.763,34.000,38.000,84.000,41.000
2.764,34.000,37.500,84.000,41.500
2.765,34.000,37.000,84.500,42.000
2.766,34.000,37.000,84.000,42.000
2.767,33.500,37.500,84.000,41.500
2.768,33.500,37.500,83.000,41.500
2.769,33.000,38.000,82.500,40.500
2.770,33.000,38.000,81.500,40.000
2.771,33.000,38.500,80.500,39.000
2.772,33.000,38.500,80.000,38.000
2.773,33.000,38.500,79.500,37.000
2.774,32.500,38.500,79.500,36.000
2.775,32.500,38.500,80.000,35.500
2.776,32.500,38.500,80.000,35.000
2.777,32.500,38.500,80.000,35.500
2.778,32.500,38.500,80.000,36.500
2.779,33.000,38.500,80.000,38.000
2.780,33.500,38.500,79.500,39.500
2.781,34.000,38.500,79.000,41.000
2.782,34.000,38.500,79.000,42.000
2.783,34.500,38.500,79.000,43.000
2.784,34.500,38.500,79.500,43.500
2.785,34.000,38.500,80.000,44.000
2.786,34.000,39.000,80.000,44.000
2.787,34.000,39.000,80.000,44.000
2.788,34.000,39.000,79.500,43.500
2.789,34.500,38.500,78.500,43.000
2.790,34.500,39.000,78.000,42.500
2.791,34.500,39.000,77.500,42.000
2.792,34.000,39.500,77.500,41.000
2.793,34.000,39.500,77.500,40.500
2.794,34.000,39.500,78.000,39.500
2.795,34.000,39.500,78.500,39.000
2.796,34.000,39.500,79.000,39.000
2.797,34.500,39.500,79.000,39.500
2.798,34.500,39.500,79.000,40.000
2.799,35.000,39.500,78.500,41.000
2.800,35.500,39.500,78.000,42.000
2.801,35.500,39.000,77.500,43.000
2.802,35.500,39.000,77.500,44.000
2.803,35.000,39.000,77.500,44.500
2.804,35.000,39.000,78.000,45.000
2.805,34.500,39.500,78.500,45.500
2.806,34.500,39.500,79.000,45.000
2.807,34.500,39.500,79.000,44.500
2.808,34.000,39.500,78.500,44.000
2.809,34.000,39.500,78.000,43.500
2.810,33.500,39.500,77.000,42.500
2.811,33.500,39.500,76.000,41.500
2.812,33.500,39.000,75.500,40.500
2.813,33.500,39.000,75.000,39.500
2.814,33.000,39.000,75.500,38.000
2.815,33.000,38.500,76.000,37.500
2.816,33.500,38.500,76.500,37.500
2.817,33.500,38.500,77.000,37.500
2.818,33.500,38.500,77.000,38.500
2.819,33.500,38.500,77.000,39.500
2.820,33.500,38.500,77.000,40.500
2.821,34.000,38.500,76.500,41.500
2.822,34.000,38.000,76.500,42.500
2.823,34.000,38.000,76.500,43.000
2.824,34.000,38.000,77.000,43.500
2.825,34.000,38.000,77.500,44.000
2.826,33.500,38.000,77.500,43.500
2.827,33.500,38.500,78.000,43.500
2.828,33.500,38.500,77.500,43.000
2.829,33.500,39.000,77.500,42.500
2.830,34.000,39.500,77.000,42.000
2.831,34.000,39.500,76.500,41.500
2.832,34.000,40.000,76.500,40.500
2.833,34.000,40.500,76.500,39.500
2.834,34.000,41.000,77.000,38.500
2.835,34.000,41.000,78.000,38.000
2.836,34.000,41.500,78.500,38.000
2.837,34.500,41.500,78.500,38.500
2.838,35.000,41.500,79.000,39.000
2.839,35.500,41.500,78.500,40.000
2.840,35.500,41.500,78.500,41.500
2.841,35.500,41.000,78.500,42.500
2.842,35.500,40.500,78.500,44.000
2.843,35.500,40.500,79.000,44.500
2.844,35.500,40.000,80.000,45.000
2.845,35.500,40.000,80.500,45.500
2.846,35.500,40.000,81.000,45.500
2.847,35.500,40.000,80.500,45.000
2.848,35.500,39.500,80.500,44.500
2.849,35.500,40.000,80.000,44.000
2.850,35.500,40.000,79.500,43.000
2.851,35.500,40.000,79.000,42.000
2.852,36.000,40.000,79.000,41.000
2.853,36.000,40.000,79.000,40.000
2.854,36.000,40.000,79.500,39.000
2.855,36.000,40.000,80.500,38.500
2.856,36.000,40.500,81.000,38.500
2.857,36.000,40.500,81.000,39.000
2.858,36.500,40.500,80.500,39.500
2.859,36.500,40.500,80.500,40.500
2.860,37.000,40.500,80.500,42.000
2.861,37.000,40.500,80.000,43.000
2.862,37.500,40.500,80.500,44.000
2.863,37.000,40.000,81.000,44.500
2.864,37.000,40.000,81.500,44.500
2.865,37.000,40.000,82.000,45.000
2.866,36.500,40.000,82.000,45.000
2.867,36.500,40.000,82.000,44.500
2.868,36.500,40.000,81.500,44.500
2.869,36.500,40.500,81.000,43.500
2.870,36.500,40.500,80.500,42.500
2.871,36.500,40.500,80.000,41.500
2.872,36.000,40.500,80.000,40.500
2.873,35.500,40.500,80.000,39.500
2.874,35.000,40.500,80.500,38.500
2.875,35.000,41.000,81.500,38.000
2.876,34.500,41.000,81.500,38.000
2.877,34.500,41.000,81.500,38.500
2.878,35.000,41.000,81.500,39.000
2.879,35.000,40.500,81.000,40.500
2.880,35.500,40.500,80.500,41.500
2.881,35.500,40.500,80.000,43.000
2.882,35.500,40.000,79.500,43.500
2.883,35.000,40.000,79.000,44.500
2.884,35.000,39.000,79.000,44.500
2.885,34.500,38.500,79.000,44.500
2.886,34.000,38.500,79.000,44.000
2.887,34.000,38.000,79.000,43.500
2.888,34.000,38.000,78.500,43.000
2.889,34.000,38.000,78.000,42.500
2.890,34.000,38.500,77.500,41.500
2.891,34.000,38.500,77.000,40.500
2.892,33.500,38.500,77.000,39.500
2.893,33.500,38.500,77.000,38.000
2.894,33.000,38.000,77.000,37.000
2.895,33.000,38.000,77.500,36.500
2.896,32.500,38.500,78.000,36.500
2.897,32.500,38.500,78.000,36.500
2.898,33.000,38.500,78.000,37.500
2.899,33.000,38.500,77.500,38.500
2.900,33.500,38.000,77.500,39.500
2.901,33.500,38.000,77.500,41.000
2.902,34.000,38.000,77.500,42.000
2.903,34.000,38.000,78.000,43.000
2.904,33.500,38.000,78.500,43.500
2.905,33.500,38.500,79.000,44.000
2.906,33.500,38.500,79.500,44.000
2.907,33.000,38.500,79.500,44.000
2.908,33.000,39.000,79.000,43.500
2.909,33.000,39.000,78.500,43.000
2.910,33.000,39.000,77.500,42.500
2.911,33.000,39.500,77.500,41.500
2.912,33.000,39.500,77.000,40.500
2.913,33.000,39.500,77.000,39.500
2.914,33.000,39.500,77.500,38.500
2.915,32.500,39.000,77.500,38.000
2.916,32.500,39.000,78.000,37.500
2.917,32.500,39.500,78.000,38.000
2.918,33.000,39.500,78.000,38.500
2.919,33.000,39.500,77.500,39.000
2.920,33.000,39.500,77.000,40.000
2.921,33.000,39.000,76.500,41.000
2.922,33.000,38.500,75.500,41.500
2.923,32.500,38.000,75.500,42.000
2.924,32.000,37.500,75.000,42.500
2.925,31.500,37.000,75.000,42.000
2.926,31.000,36.500,75.000,41.500
2.927,30.500,36.000,74.500,40.500
2.928,30.000,35.500,74.000,39.000
2.929,29.500,35.000,73.000,38.000
2.930,29.500,34.500,72.000,36.500
2.931,29.000,34.500,71.500,35.000
2.932,29.000,34.500,71.500,34.000
2.933,29.000,34.500,72.000,33.000
2.934,28.500,35.000,73.000,32.500
2.935,28.500,35.000,74.000,32.000
2.936,28.500,35.500,74.500,32.000
2.937,29.000,36.000,75.000,33.000
2.938,29.500,36.000,75.500,34.000
2.939,30.500,36.500,76.000,35.500
2.940,31.000,37.000,76.000,37.500
2.941,32.000,37.500,76.500,39.000
2.942,33.000,38.000,77.000,40.500
2.943,33.500,38.500,78.000,41.500
2.944,34.000,39.000,79.000,42.500
2.945,34.000,39.500,80.000,43.000
2.946,34.500,40.000,81.000,43.500
2.947,35.000,40.500,81.500,43.500
2.948,35.500,41.000,81.500,43.500
2.949,35.500,41.500,81.500,43.000
2.950,36.000,41.500,81.000,42.500
2.951,36.000,42.000,80.500,41.000
2.952,35.500,42.000,80.000,39.500
2.953,35.000,41.500,80.000,38.000
2.954,34.000,41.000,79.500,37.000
2.955,33.500,40.500,79.500,35.500
2.956,33.000,40.500,79.500,35.000
2.957,32.500,40.500,79.000,35.000
2.958,32.500,40.000,79.000,35.500
2.959,32.500,40.500,78.500,36.500
2.960,33.000,40.500,78.000,38.000
2.961,33.000,40.500,78.000,39.000
2.962,33.500,40.500,78.000,40.000
2.963,33.000,40.500,78.000,40.500
2.964,33.000,40.000,78.000,40.500
2.965,32.500,40.000,78.500,40.500
2.966,32.500,39.500,78.000,40.500
2.967,32.500,39.500,78.000,40.000
2.968,32.500,39.500,77.500,39.500
2.969,32.500,39.500,77.000,39.000
2.970,32.500,39.500,76.500,38.500
2.971,32.500,39.500,76.000,37.500
2.972,32.500,39.500,75.500,36.000
2.973,32.000,39.500,75.500,34.500
2.974,32.000,39.000,75.500,33.500
2.975,31.500,39.000,75.500,32.500
2.976,31.500,39.000,76.000,32.000
2.977,31.500,38.500,76.000,32.000
2.978,31.500,39.000,76.000,33.000
2.979,32.000,39.000,76.000,34.000
2.980,32.000,39.500,75.500,35.000
2.981,32.500,39.500,75.500,36.500
2.982,32.500,39.500,75.000,37.000
2.983,32.000,39.000,75.000,37.500
2.984,31.500,38.500,75.000,38.000
2.985,31.500,38.500,74.500,37.500
2.986,31.000,38.500,74.500,37.500
2.987,31.000,38.500,74.500,37.500
2.988,31.000,38.500,74.000,37.000
2.989,31.000,38.500,73.500,36.500
2.990,31.000,38.500,73.000,36.000
2.991,31.000,38.500,72.500,35.000
2.992,30.500,38.500,72.000,33.500
2.993,30.500,38.500,72.000,32.500
2.994,30.500,38.500,72.500,31.000
2.995,30.500,38.500,72.500,30.500
2.996,30.500,38.500,73.000,30.000
2.997,30.500,39.000,73.000,30.500
2.998,31.000,39.000,73.500,31.000
2.999,31.000,39.500,73.500,32.500
3.000,31.500,39.500,73.500,33.500
3.001,32.000,39.500,73.500,35.000
3.002,32.000,39.500,73.500,36.000
3.003,32.000,39.500,74.000,36.500
3.004,32.000,39.500,74.500,37.000
3.005,31.500,39.500,75.000,37.500
3.006,31.500,39.000,75.000,37.500
3.007,31.000,39.000,75.000,37.000
3.008,31.000,39.000,74.500,36.500
3.009,31.000,38.500,74.000,35.500
3.010,31.000,38.500,73.500,34.500
3.011,31.000,38.500,73.000,33.500
3.012,30.500,38.500,72.500,32.000
3.013,30.000,38.000,72.500,30.500
3.014,29.500,38.000,73.000,29.500
3.015,29.000,37.500,73.000,28.500
3.016,28.500,37.000,73.000,28.000
3.017,28.000,36.500,72.500,27.500
3.018,28.000,36.000,72.000,28.000
3.019,27.500,35.500,72.000,29.000
3.020,27.500,35.500,72.000,30.000
3.021,27.500,35.000,72.000,31.000
3.022,27.000,35.000,72.000,32.000
3.023,27.000,34.500,73.000,33.000
3.024,26.500,34.500,73.500,33.500
3.025,26.000,34.000,74.500,34.000
3.026,25.500,34.500,75.000,35.000
3.027,25.500,34.500,75.500,35.500
3.028,25.500,35.000,76.000,36.000
3.029,26.000,35.500,76.000,36.500
3.030,26.000,36.500,76.500,37.500
3.031,26.500,37.000,77.000,38.000
3.032,27.000,38.000,78.000,38.500
3.033,27.000,39.000,79.500,39.500
3.034,27.500,40.000,81.500,40.500
3.035,27.500,40.500,83.000,41.500
3.036,28.000,41.000,84.500,43.000
3.037,29.000,42.000,85.500,45.000
3.038,29.500,42.500,86.500,47.500
3.039,30.000,43.000,87.000,49.500
3.040,30.500,43.500,87.500,52.000
3.041,31.000,44.000,88.500,54.000
3.042,31.500,44.000,89.000,55.500
3.043,32.000,44.500,90.000,57.000
3.044,33.000,45.500,91.000,57.500
3.045,33.500,46.000,92.000,58.000
3.046,34.500,47.000,92.500,58.000
3.047,35.500,47.500,92.500,57.500
3.048,36.500,48.500,92.000,57.000
3.049,38.000,49.500,91.500,56.000
3.050,39.000,50.000,90.500,54.500
3.051,40.500,51.000,89.000,52.500
3.052,41.000,51.500,88.500,50.500
3.053,41.500,51.500,87.500,48.000
3.054,41.000,51.500,87.000,46.000
3.055,41.000,51.000,86.000,44.000
3.056,40.500,50.000,85.000,42.500
3.057,40.000,49.500,84.000,41.500
3.058,39.500,48.500,83.000,41.000
3.059,39.500,48.000,81.500,41.000
3.060,39.000,47.000,80.500,41.500
3.061,38.000,46.000,79.500,42.000
3.062,37.500,45.000,79.000,42.000
3.063,36.500,44.000,78.500,42.000
3.064,35.500,43.000,78.000,41.500
3.065,34.500,41.500,77.500,40.500
3.066,33.500,40.500,77.000,39.500
3.067,32.500,40.000,76.000,38.500
3.068,32.000,39.500,74.500,37.500
3.069,31.500,39.000,73.000,36.000
3.070,31.000,38.500,72.000,34.500
3.071,30.000,38.000,71.000,33.000
3.072,29.500,37.500,70.500,31.500
3.073,28.500,37.000,70.000,29.500
3.074,27.500,36.500,69.500,28.000
3.075,26.500,36.000,69.500,26.500
3.076,26.000,35.500,69.000,26.000
3.077,26.000,35.000,69.000,26.000
3.078,26.000,35.000,69.000,26.500
3.079,26.000,34.500,68.500,27.000
3.080,26.000,34.500,68.500,28.000
3.081,26.000,34.000,68.000,29.000
3.082,26.000,34.000,68.000,30.000
3.083,25.500,33.500,68.500,30.000
3.084,25.000,33.000,68.500,30.000
3.085,25.000,32.500,68.500,30.000
3.086,24.500,32.000,68.000,29.500
3.087,24.500,32.000,68.000,28.500
3.088,24.000,31.500,67.500,28.000
3.089,24.000,31.500,67.000,27.000
3.090,24.000,31.500,66.000,26.000
3.091,23.500,31.500,65.500,24.500
3.092,23.500,31.500,65.500,23.500
3.093,23.000,31.500,65.500,22.000
3.094,23.000,31.500,65.500,21.000
3.095,23.000,31.000,65.500,20.000
3.096,23.000,31.000,66.000,20.000
3.097,23.000,31.000,66.000,20.000
3.098,23.000,31.500,66.000,21.000
3.099,23.500,31.500,65.500,22.000
3.100,24.000,31.500,65.000,23.500
3.101,24.000,32.000,65.000,24.500
3.102,24.000,31.500,65.000,25.500
3.103,23.500,31.500,65.000,26.500
3.104,23.500,31.500,65.000,26.500
3.105,23.000,31.000,65.000,26.500
3.106,23.000,31.000,65.000,26.500
3.107,22.500,31.000,65.000,26.000
3.108,22.500,31.000,64.000,25.500
3.109,22.500,31.000,63.500,24.500
3.110,22.500,31.000,62.500,24.000
3.111,22.500,31.000,61.500,23.000
3.112,22.500,31.000,61.000,21.500
3.113,22.000,31.000,61.000,20.500
3.114,22.000,30.500,61.000,19.000
3.115,21.500,30.500,61.000,18.500
3.116,21.500,30.000,61.000,18.000
3.117,21.500,30.000,61.000,18.000
3.118,22.000,30.000,61.000,19.000
3.119,22.500,30.000,61.000,20.000
3.120,22.500,30.000,61.000,21.500
3.121,23.000,30.000,60.500,23.000
3.122,23.000,30.000,60.500,24.000
3.123,22.500,29.500,61.000,24.500
3.124,22.500,29.500,61.500,25.000
3.125,22.000,29.000,61.500,25.000
3.126,22.000,28.500,61.500,25.000
3.127,22.000,28.500,61.000,24.500
3.128,21.500,28.500,60.500,23.500
3.129,21.500,28.500,60.000,23.000
3.130,21.500,29.000,59.500,22.500
3.131,21.500,29.000,59.000,21.500
3.132,21.000,29.000,59.000,20.500
3.133,21.000,29.000,59.000,19.500
3.134,21.000,29.000,59.000,18.500
3.135,20.500,29.000,59.500,17.500
3.136,20.500,29.000,59.500,17.500
3.137,20.500,28.500,59.500,17.500
3.138,21.000,28.500,59.500,18.000
3.139,21.500,28.500,59.000,19.000
3.140,21.500,28.500,59.000,20.000
3.141,21.500,28.500,59.000,21.500
3.142,21.500,28.000,59.000,22.500
3.143,21.500,28.000,59.500,23.000
3.144,21.500,27.500,59.500,23.500
3.145,21.000,27.500,59.500,23.500
3.146,21.000,27.000,59.000,23.000
3.147,20.500,26.500,59.000,22.500
3.148,20.500,26.500,58.000,22.000
3.149,20.000,26.500,57.500,21.500
3.150,20.000,27.000,56.500,20.500
3.151,19.500,27.000,56.000,19.500
3.152,19.500,27.000,56.000,18.500
3.153,19.000,27.000,56.000,17.500
3.154,18.500,27.000,56.000,16.500
3.155,18.500,27.000,56.500,16.000
3.156,18.000,27.000,56.500,15.500
3.157,18.000,27.000,57.000,16.000
3.158,18.000,27.000,57.000,16.500
3.159,18.500,27.000,56.500,17.000
3.160,18.500,26.500,56.500,18.500
3.161,18.000,26.500,56.000,19.500
3.162,18.000,26.500,56.000,20.500
3.163,18.000,26.000,56.500,21.000
3.164,17.500,26.000,57.000,21.500
3.165,17.500,26.000,57.500,21.500
3.166,17.500,26.000,57.500,21.500
3.167,17.000,26.000,58.000,21.000
3.168,17.000,26.000,58.000,20.500
3.169,17.000,26.000,57.500,20.000
3.170,17.000,26.000,57.000,19.000
3.171,17.000,26.000,56.500,18.500
3.172,17.000,26.000,56.000,17.500
3.173,16.500,26.000,56.000,16.500
3.174,16.500,26.000,56.000,15.500
3.175,16.000,25.500,56.500,14.500
3.176,16.000,25.500,56.500,14.500
3.177,16.000,25.500,56.500,14.500
3.178,16.000,25.500,56.500,15.500
3.179,16.500,25.500,56.500,16.500
3.180,17.000,25.500,56.500,18.000
3.181,17.000,25.500,56.000,19.000
3.182,17.000,25.000,55.500,20.000
3.183,17.000,25.000,55.500,20.500
3.184,16.500,24.500,55.500,20.500
3.185,16.500,24.500,55.500,20.500
3.186,16.000,24.500,55.000,20.500
3.187,16.000,24.000,55.000,20.000
3.188,16.000,24.000,54.500,19.500
3.189,16.500,24.000,54.000,19.000
3.190,16.500,24.500,53.500,18.500
3.191,16.500,24.500,53.500,17.500
3.192,16.500,24.500,53.500,17.000
3.193,16.500,24.500,54.000,16.000
3.194,16.000,24.500,54.000,15.000
3.195,16.000,24.500,54.500,14.500
3.196,15.500,24.500,55.000,14.500
3.197,16.000,24.500,55.000,15.000
3.198,16.000,24.500,55.500,15.500
3.199,16.000,24.500,55.000,16.500
3.200,16.500,24.500,55.000,18.000
3.201,16.500,24.000,54.500,19.000
3.202,16.500,23.500,54.500,20.000
3.203,16.500,23.500,54.500,20.500
3.204,16.000,23.000,55.000,21.000
3.205,15.500,22.500,55.000,21.000
3.206,15.500,22.500,55.500,21.000
3.207,15.000,22.500,55.500,20.500
3.208,15.000,22.500,56.000,20.000
3.209,15.000,23.000,56.000,19.500
3.210,15.000,23.000,55.500,19.000
3.211,15.000,23.500,55.500,18.000
3.212,15.000,23.500,55.500,17.500
3.213,14.500,23.500,55.500,16.000
3.214,14.500,23.000,56.000,15.000
3.215,14.500,23.000,56.500,14.500
3.216,14.500,23.000,57.000,14.500
3.217,14.500,23.000,57.000,15.000
3.218,14.500,23.000,57.000,16.000
3.219,14.500,23.000,56.500,17.000
3.220,15.000,22.500,56.000,18.000
3.221,15.000,22.500,55.500,19.500
3.222,15.000,22.500,55.000,20.500
3.223,15.000,22.000,55.000,21.000
3.224,14.500,21.500,55.000,21.000
3.225,14.000,21.000,54.500,21.000
3.226,13.500,20.500,54.000,20.500
3.227,13.500,20.000,53.500,20.000
3.228,13.000,20.000,53.000,19.500
3.229,13.000,20.000,52.500,19.000
3.230,13.000,20.000,51.500,18.000
3.231,12.500,20.000,51.000,17.000
3.232,12.500,20.000,51.000,16.000
3.233,11.500,20.000,50.500,14.500
3.234,11.500,20.000,51.000,13.500
3.235,11.000,19.500,51.000,13.000
3.236,11.000,19.500,51.000,12.500
3.237,11.000,19.500,51.500,13.000
3.238,11.000,19.500,51.500,14.000
3.239,11.000,19.500,51.000,15.000
3.240,11.000,19.500,51.000,16.500
3.241,11.500,19.500,50.500,17.500
3.242,11.500,19.500,50.500,18.000
3.243,11.000,19.000,50.500,18.500
3.244,11.000,18.500,51.000,18.500
3.245,10.500,18.500,51.000,19.000
3.246,10.500,18.500,51.000,19.000
3.247,10.000,18.500,51.000,18.500
3.248,10.000,19.000,50.500,18.000
3.249,9.500,19.000,50.500,17.500
3.250,9.500,19.000,50.000,17.000
3.251,9.500,19.500,49.500,16.000
3.252,9.500,19.500,49.500,15.000
3.253,9.500,19.500,50.000,14.000
3.254,9.000,19.500,50.500,13.500
3.255,9.000,19.500,51.000,12.500
3.256,9.000,20.000,51.000,12.500
3.257,9.000,20.000,51.500,13.000
3.258,9.500,20.500,51.000,14.000
3.259,9.500,21.000,51.000,15.000
3.260,10.000,21.000,50.500,16.500
3.261,10.000,21.000,50.500,17.500
3.262,10.000,20.500,50.000,18.500
3.263,9.500,20.000,50.000,19.000
3.264,9.500,20.000,50.000,19.000
3.265,9.000,19.500,50.000,18.500
3.266,8.500,19.500,50.000,18.000
3.267,8.500,19.500,50.000,17.500
3.268,8.000,19.000,49.500,17.000
3.269,8.000,19.000,49.000,16.000
3.270,8.000,19.000,48.500,14.500
3.271,7.500,19.000,48.000,13.500
3.272,7.500,19.000,47.500,12.500
3.273,7.000,19.000,47.500,11.000
3.274,6.500,19.000,48.000,10.000
3.275,6.000,18.500,48.000,9.000
3.276,6.000,19.000,48.000,9.000
3.277,6.000,19.000,48.500,9.500
3.278,6.500,19.000,48.500,10.000
3.279,6.500,19.000,48.500,11.500
3.280,7.000,19.000,48.500,12.500
3.281,7.000,18.500,48.500,14.000
3.282,7.000,18.500,48.500,14.500
3.283,7.000,18.500,49.000,15.000
3.284,6.500,18.000,49.000,15.000
3.285,6.500,18.000,48.500,15.000
3.286,6.500,17.500,48.500,15.000
3.287,7.000,17.500,48.000,14.500
3.288,7.000,18.000,47.500,14.000
3.289,7.000,18.000,47.000,13.000
3.290,7.000,18.500,46.500,12.500
3.291,7.000,19.000,46.000,11.500
3.292,7.000,19.000,46.000,10.500
3.293,7.000,19.000,46.000,10.000
3.294,6.500,19.000,46.500,9.500
3.295,6.500,19.000,47.000,9.000
3.296,6.500,19.000,47.000,9.000
3.297,6.500,19.000,47.000,9.000
3.298,6.500,19.000,47.000,9.500
3.299,7.000,19.000,46.500,10.000
3.300,7.500,19.000,46.500,10.500
3.301,7.500,18.500,46.000,11.500
3.302,7.500,18.500,46.000,12.000
3.303,7.500,18.000,46.000,12.500
3.304,7.000,17.500,46.000,13.000
3.305,6.500,17.000,46.000,13.000
3.306,6.500,17.000,45.500,12.500
3.307,6.000,17.000,45.500,12.000
3.308,6.000,16.500,44.500,11.500
3.309,6.000,16.500,44.000,10.500
3.310,6.000,17.000,43.500,10.000
3.311,6.000,17.000,43.000,9.000
3.312,6.000,17.000,42.500,8.000
3.313,5.500,17.000,42.500,7.000
3.314,5.500,16.500,42.500,6.000
3.315,5.000,16.500,42.500,5.500
3.316,4.500,16.000,42.500,5.500
3.317,5.000,16.000,42.500,6.000
3.318,5.000,16.500,42.500,6.500
3.319,5.500,16.500,42.500,7.500
3.320,6.000,16.500,42.000,9.000
3.321,6.000,16.500,41.500,10.000
3.322,6.000,16.500,41.000,11.500
3.323,5.500,16.500,41.000,12.000
3.324,5.500,16.500,41.000,12.000
3.325,5.500,16.500,41.000,12.000
3.326,5.500,16.500,41.000,12.000
3.327,5.500,16.500,41.000,11.500
3.328,5.500,16.000,40.500,10.500
3.329,5.500,16.000,40.000,10.000
3.330,6.000,16.500,39.500,9.000
3.331,6.000,16.500,39.000,8.000
3.332,6.000,17.000,39.000,7.500
3.333,6.000,17.500,39.000,6.500
3.334,6.000,17.500,39.500,6.000
3.335,6.000,17.500,40.000,5.500
3.336,6.000,17.500,40.000,5.000
3.337,6.000,17.000,40.000,5.000
3.338,6.000,16.500,39.500,5.000
3.339,6.000,16.000,39.000,5.500
3.340,6.000,15.500,38.000,6.500
3.341,5.500,15.000,37.500,7.000
3.342,5.500,14.500,37.000,7.500
3.343,5.000,14.000,36.500,7.500
3.344,4.000,13.500,36.500,7.500
3.345,3.500,13.000,36.000,7.000
3.346,2.500,12.000,35.500,6.500
3.347,2.000,11.500,35.000,5.500
3.348,1.000,10.500,34.000,4.500
3.349,0.500,10.500,33.000,3.500
3.350,0.500,10.000,32.500,2.500
3.351,0.500,10.500,32.000,1.500
3.352,0.500,11.000,32.000,1.000
3.353,1.000,11.500,32.500,0.500
3.354,1.000,12.000,33.500,-0.500
3.355,1.500,12.500,34.000,-1.000
3.356,2.000,13.000,34.500,-1.000
3.357,2.500,13.000,35.000,0.000
3.358,3.000,14.000,35.500,1.000
3.359,3.500,14.500,35.500,2.500
3.360,4.500,15.000,36.000,4.000
3.361,5.500,15.500,36.500,5.500
3.362,6.000,15.500,37.000,7.000
3.363,6.500,15.500,38.000,8.000
3.364,7.000,16.000,39.000,9.000
3.365,7.000,16.000,40.000,9.500
3.366,7.500,16.500,40.500,9.500
3.367,7.500,17.000,40.500,9.500
3.368,7.500,17.000,40.500,9.000
3.369,7.500,17.000,39.500,8.500
3.370,7.500,17.500,39.000,7.500
3.371,7.500,17.000,38.000,6.000
3.372,7.000,17.000,37.500,4.500
3.373,6.500,16.500,37.500,3.000
3.374,6.000,16.500,37.500,1.500
3.375,5.500,16.000,37.500,1.000
3.376,5.500,16.000,38.000,0.500
3.377,5.500,15.500,38.000,0.500
3.378,5.500,15.500,37.500,1.000
3.379,5.500,15.000,37.000,2.000
3.380,6.000,15.000,37.000,3.000
3.381,6.000,15.000,37.000,4.000
3.382,6.000,15.000,37.000,5.000
3.383,6.000,15.000,37.000,5.500
3.384,6.000,15.000,37.000,6.000
3.385,5.500,14.500,37.000,6.000
3.386,5.500,14.500,37.000,5.500
3.387,5.500,14.500,37.000,5.500
3.388,5.000,14.500,37.000,5.000
3.389,5.000,14.500,36.500,4.500
3.390,5.500,15.000,36.500,4.000
3.391,5.500,15.000,36.000,3.000
3.392,5.500,15.000,36.000,2.000
3.393,5.500,15.000,36.500,1.000
3.394,5.000,15.000,37.000,0.500
3.395,5.000,15.500,37.500,-0.500
3.396,5.000,15.500,37.500,-0.500
3.397,5.000,15.500,38.000,0.000
3.398,5.000,15.500,38.000,0.500
3.399,5.500,15.500,38.000,1.500
3.400,5.500,15.500,37.500,3.000
3.401,6.000,15.500,37.500,4.000
3.402,6.000,15.000,37.500,5.000
3.403,5.500,15.000,37.500,5.500
3.404,5.500,14.500,38.000,6.000
3.405,5.000,14.500,38.000,6.000
3.406,5.000,14.000,38.000,5.500
3.407,4.500,14.000,37.500,5.500
3.408,4.500,14.000,37.000,5.000
3.409,5.000,14.500,36.500,4.500
3.410,5.000,14.500,36.000,3.500
3.411,5.000,15.000,35.500,2.500
3.412,5.000,15.000,35.500,1.500
3.413,4.500,15.000,35.000,0.000
3.414,4.500,14.500,35.500,-1.000
3.415,4.500,14.500,35.500,-1.500
3.416,4.500,15.000,36.000,-1.500
3.417,4.500,15.000,36.000,-1.000
3.418,5.000,15.500,36.000,0.000
3.419,5.000,15.500,36.000,1.500
3.420,5.500,15.500,36.000,2.500
3.421,5.500,15.500,35.500,4.000
3.422,6.000,15.500,35.500,5.000
3.423,5.500,15.000,36.000,5.500
3.424,5.500,14.500,36.500,6.000
3.425,5.000,14.500,36.500,6.000
3.426,4.500,14.500,37.000,5.500
3.427,4.500,14.000,36.500,5.000
3.428,4.500,14.000,36.500,5.000
3.429,4.000,14.000,35.500,4.000
3.430,4.000,14.000,35.000,3.500
3.431,4.000,14.000,34.000,2.500
3.432,4.000,13.500,33.500,1.000
3.433,3.500,13.000,33.000,-0.500
3.434,3.000,13.000,33.500,-1.500
3.435,3.000,12.500,34.000,-2.500
3.436,3.000,12.500,34.500,-3.000
3.437,3.000,12.500,34.500,-2.500
3.438,3.500,12.500,35.000,-2.000
3.439,3.500,12.500,34.500,-1.000
3.440,4.000,12.500,34.500,0.500
3.441,4.000,12.000,34.000,1.500
3.442,4.500,12.000,34.000,2.500
3.443,4.000,11.500,34.500,3.500
3.444,4.000,11.500,34.500,3.500
3.445,3.500,11.500,35.000,3.500
3.446,3.000,11.500,35.000,3.000
3.447,3.000,11.500,35.000,3.000
3.448,3.000,11.500,34.500,2.500
3.449,2.500,11.500,33.500,2.000
3.450,2.500,11.500,33.000,1.000
3.451,2.000,11.500,32.500,0.000
3.452,2.000,11.500,32.500,-1.000
3.453,1.500,11.500,32.500,-2.500
3.454,1.000,11.500,33.000,-3.500
3.455,1.000,11.500,33.000,-4.500
3.456,1.000,11.500,33.500,-4.500
3.457,1.000,11.500,33.500,-4.000
3.458,1.000,11.500,33.500,-3.000
3.459,1.000,11.500,33.500,-2.000
3.460,1.000,11.000,33.500,-0.500
3.461,1.000,11.000,33.000,1.000
3.462,1.500,11.000,33.000,2.000
3.463,1.500,11.000,33.000,3.000
3.464,1.500,11.000,33.000,3.000
3.465,1.500,10.500,33.500,3.000
3.466,1.000,10.500,33.000,3.000
3.467,1.000,10.500,32.500,2.500
3.468,1.000,10.000,32.000,2.000
3.469,1.000,10.000,31.000,1.000
3.470,0.500,10.000,30.000,0.500
3.471,0.000,10.000,29.500,-1.000
3.472,0.000,9.500,28.500,-2.000
3.473,-0.500,9.500,28.500,-3.500
3.474,-1.000,9.500,28.500,-4.500
3.475,-1.000,9.500,29.000,-5.500
3.476,-1.000,9.500,29.000,-6.000
3.477,-1.000,9.000,29.500,-5.500
3.478,-1.000,9.000,29.500,-5.000
3.479,-0.500,9.000,29.500,-3.500
3.480,-0.500,9.000,29.500,-2.500
3.481,0.000,9.000,29.500,-1.500
3.482,0.000,8.500,29.500,-0.500
3.483,-0.500,8.500,29.500,0.500
3.484,-0.500,8.500,30.000,1.000
3.485,-0.500,8.000,30.500,1.500
3.486,-1.000,8.000,30.500,1.500
3.487,-1.000,8.000,30.500,1.000
3.488,-1.000,8.000,30.000,0.500
3.489,-1.000,8.500,29.500,0.000
3.490,-1.000,8.500,29.000,-1.000
3.491,-1.000,8.500,28.000,-2.000
3.492,-1.500,8.500,28.000,-3.000
3.493,-1.500,9.000,28.000,-4.000
3.494,-2.000,8.500,28.000,-5.000
3.495,-2.000,8.500,28.000,-5.500
3.496,-2.000,9.000,28.500,-5.500
3.497,-1.500,9.000,29.000,-5.000
3.498,-1.000,9.000,29.000,-4.000
3.499,-0.500,9.500,29.000,-2.500
3.500,0.000,9.000,29.000,-1.500
3.501,0.500,9.000,29.000,0.000
3.502,0.500,9.000,29.500,1.000
3.503,0.500,8.500,29.500,1.500
3.504,0.000,8.000,30.000,2.000
3.505,-0.500,8.000,30.500,2.000
3.506,-0.500,8.000,30.500,2.000
3.507,-1.000,8.500,30.500,1.500
3.508,-1.000,8.500,30.500,1.000
3.509,-1.000,8.500,30.500,0.500
3.510,-1.000,9.000,30.000,-0.500
3.511,-1.000,9.000,30.000,-1.500
3.512,-1.000,9.000,29.500,-2.500
3.513,-1.500,9.000,30.000,-3.500
3.514,-1.500,9.000,30.500,-5.000
3.515,-2.000,9.000,30.500,-5.500
3.516,-2.000,9.000,31.000,-6.000
3.517,-1.500,9.000,31.000,-6.000
3.518,-1.000,9.500,31.500,-5.000
3.519,-0.500,9.500,31.500,-4.000
3.520,0.500,9.500,31.500,-2.500
3.521,1.000,9.500,31.500,-1.500
3.522,1.000,9.500,31.500,-0.500
3.523,1.000,9.000,32.000,0.500
3.524,0.500,9.000,32.500,0.500
3.525,0.500,9.000,33.000,1.000
3.526,0.500,9.000,33.500,0.500
3.527,0.500,9.500,33.500,0.500
3.528,0.500,9.500,33.500,0.000
