'Elapsed time','AECG1','AECG2','AECG3','AECG4'
'seconds','uV','uV','uV','uV'
0.000,32.000,25.500,24.500,24.500
0.001,279.000,222.000,210.500,212.000
0.002,319.000,254.000,240.000,241.500
0.003,337.500,268.500,253.000,255.000
0.004,343.500,272.500,256.000,258.500
0.005,343.000,272.000,254.500,257.500
0.006,340.500,270.500,252.500,255.000
0.007,338.500,268.500,250.500,253.000
0.008,336.500,267.500,249.000,252.000
0.009,335.500,267.000,248.000,251.000
0.010,335.000,266.500,248.000,250.500
0.011,334.500,266.500,247.500,250.000
0.012,335.000,266.500,248.000,250.500
0.013,335.000,266.500,248.500,251.000
0.014,336.000,267.000,249.000,252.000
0.015,337.000,268.000,250.500,253.000
0.016,338.500,269.000,252.000,254.500
0.017,339.500,270.000,253.500,256.000
0.018,340.500,270.500,254.500,256.500
0.019,341.000,270.500,255.000,257.000
0.020,340.500,269.500,254.500,256.000
0.021,338.500,268.000,252.500,254.500
0.022,336.500,266.000,250.000,251.500
0.023,333.500,263.500,247.000,249.000
0.024,330.500,261.000,244.000,246.000
0.025,328.000,259.000,241.000,243.500
0.026,326.000,257.000,239.000,241.500
0.027,324.500,256.000,237.500,240.000
0.028,323.500,255.000,236.500,239.000
0.029,323.000,254.500,235.500,239.000
0.030,323.000,254.500,235.500,238.500
0.031,323.000,254.500,235.500,238.500
0.032,323.000,254.500,236.000,239.000
0.033,323.500,255.000,237.000,240.000
0.034,324.000,256.000,238.000,241.000
0.035,325.000,257.000,239.500,242.000
0.036,326.000,258.000,241.500,243.500
0.037,327.500,259.000,243.000,245.000
0.038,328.500,260.000,244.500,246.000
0.039,328.500,260.000,245.000,246.500
0.040,328.000,259.000,244.000,245.500
0.041,326.500,257.500,242.500,244.000
0.042,324.500,255.500,240.000,241.500
0.043,321.500,253.500,237.500,238.500
0.044,319.000,251.000,234.000,235.500
0.045,316.000,248.500,231.500,233.000
0.046,314.000,247.000,229.000,231.000
0.047,312.000,245.500,227.500,229.500
0.048,311.000,245.000,226.000,229.000
0.049,310.500,244.500,225.500,228.500
0.050,310.500,244.500,225.000,228.500
0.051,310.500,244.500,225.500,228.500
0.052,310.500,244.500,226.000,229.500
0.053,311.000,245.000,227.000,230.000
0.054,311.500,245.500,228.500,231.000
0.055,312.500,246.000,230.000,232.500
0.056,314.000,247.000,231.500,234.000
0.057,315.500,248.500,233.500,235.000
0.058,316.500,249.000,234.500,236.000
0.059,317.500,249.000,235.000,236.000
0.060,317.000,248.500,234.500,235.500
0.061,316.000,247.500,233.000,234.500
0.062,314.500,246.000,230.500,232.000
0.063,312.000,243.500,228.000,229.500
0.064,309.500,241.500,225.500,227.000
0.065,307.000,239.500,223.000,224.500
0.066,305.000,238.000,221.000,223.000
0.067,304.000,236.500,219.500,222.000
0.068,303.000,236.000,219.000,221.000
0.069,302.500,236.000,218.500,220.500
0.070,302.000,236.000,218.000,220.500
0.071,302.500,236.500,218.500,221.000
0.072,302.500,237.000,219.000,221.000
0.073,303.500,237.500,220.000,222.000
0.074,304.000,238.000,221.000,223.000
0.075,305.000,239.000,222.500,224.500
0.076,306.500,240.000,224.000,226.000
0.077,308.000,240.500,225.500,227.500
0.078,308.500,241.000,226.500,228.500
0.079,309.000,241.000,226.500,229.000
0.080,308.500,240.000,226.000,228.500
0.081,307.000,239.000,224.500,227.500
0.082,305.500,237.000,222.500,225.500
0.083,303.500,235.000,220.500,223.000
0.084,301.000,233.500,217.500,220.500
0.085,299.000,231.500,215.500,218.000
0.086,297.000,230.500,213.500,216.500
0.087,296.000,229.500,212.000,215.000
0.088,295.000,229.500,211.500,214.500
0.089,295.000,229.000,211.500,214.500
0.090,295.000,229.500,211.500,214.500
0.091,295.000,230.000,212.000,215.000
0.092,295.500,230.500,213.000,215.500
0.093,296.500,231.000,214.000,216.000
0.094,297.500,232.000,215.000,217.000
0.095,298.500,233.000,216.500,218.500
0.096,299.500,234.000,218.000,220.000
0.097,301.000,235.000,219.500,221.500
0.098,301.500,235.500,220.500,222.500
0.099,302.000,235.500,221.000,223.000
0.100,301.000,234.500,220.000,222.000
0.101,299.500,233.000,218.500,220.500
0.102,297.500,231.000,216.000,218.000
0.103,294.500,228.000,212.500,215.000
0.104,291.500,225.500,209.500,212.000
0.105,289.000,223.000,206.500,209.000
0.106,287.000,221.500,204.000,207.000
0.107,285.500,220.000,202.500,205.500
0.108,284.500,219.000,202.000,204.500
0.109,284.000,218.500,201.500,204.000
0.110,284.000,218.500,202.000,204.000
0.111,284.500,219.000,202.000,204.000
0.112,284.500,219.000,202.500,204.500
0.113,285.500,219.500,203.500,205.000
0.114,286.000,220.000,204.500,206.000
0.115,287.000,221.000,205.500,207.000
0.116,288.500,221.500,207.000,208.000
0.117,289.500,222.000,208.500,209.000
0.118,290.500,222.500,209.000,209.500
0.119,290.500,222.500,209.000,209.500
0.120,290.000,221.500,208.000,208.500
0.121,288.500,220.500,206.500,207.000
0.122,286.500,218.500,204.000,204.500
0.123,284.000,216.500,201.000,201.500
0.124,281.500,214.000,198.000,198.500
0.125,279.000,211.500,195.500,196.000
0.126,277.000,210.000,193.500,193.500
0.127,275.500,208.500,192.000,192.000
0.128,274.500,208.000,191.000,191.000
0.129,274.000,208.000,191.000,191.000
0.130,274.000,208.000,190.500,191.000
0.131,274.500,208.000,191.000,191.000
0.132,274.500,208.500,191.500,191.500
0.133,275.500,209.000,192.000,192.000
0.134,276.000,209.500,193.000,192.500
0.135,277.000,210.000,194.500,193.500
0.136,278.000,210.500,195.500,194.500
0.137,279.500,211.000,197.000,195.000
0.138,280.000,211.000,197.500,196.000
0.139,280.000,210.500,197.500,195.500
0.140,279.000,209.500,196.500,194.500
0.141,277.500,207.500,194.500,192.500
0.142,275.500,205.500,192.000,190.000
0.143,272.500,203.000,188.500,187.000
0.144,270.000,201.000,185.500,184.000
0.145,267.500,198.500,182.500,181.500
0.146,265.500,197.000,180.500,179.000
0.147,264.000,196.000,179.000,177.500
0.148,263.000,195.000,178.000,176.500
0.149,262.500,194.500,177.500,176.000
0.150,262.000,194.500,177.500,175.500
0.151,262.000,194.500,177.500,176.000
0.152,262.500,194.500,178.000,176.500
0.153,263.000,195.000,178.500,177.000
0.154,263.500,195.500,179.500,177.500
0.155,264.500,196.500,180.500,179.000
0.156,266.000,197.500,182.500,180.000
0.157,267.500,198.500,184.000,181.500
0.158,268.500,199.000,185.000,182.000
0.159,269.000,199.000,185.000,182.000
0.160,268.500,198.000,184.000,181.000
0.161,267.000,196.500,182.500,179.000
0.162,265.500,195.000,180.500,176.500
0.163,263.000,193.000,177.500,174.000
0.164,260.500,191.000,174.500,171.000
0.165,258.500,189.000,172.000,168.500
0.166,256.500,187.500,170.000,166.500
0.167,255.000,186.500,168.500,165.500
0.168,254.500,186.000,167.500,164.500
0.169,254.000,185.500,167.500,164.500
0.170,254.000,185.500,167.500,164.500
0.171,254.500,186.000,168.000,165.000
0.172,255.000,186.500,168.500,165.500
0.173,255.500,186.500,169.000,166.500
0.174,256.000,187.000,170.000,167.000
0.175,256.500,187.500,171.000,168.000
0.176,257.000,188.000,172.500,169.500
0.177,257.500,188.500,173.500,170.500
0.178,258.000,188.500,174.000,171.500
0.179,257.500,188.000,174.000,171.500
0.180,256.500,186.500,173.500,171.000
0.181,255.000,185.000,171.500,169.500
0.182,252.500,183.000,169.000,167.000
0.183,250.000,180.500,166.000,164.500
0.184,247.000,178.000,162.500,161.500
0.185,244.000,175.500,159.500,158.500
0.186,242.000,173.500,157.000,156.500
0.187,240.500,172.500,155.000,154.500
0.188,239.500,171.500,154.000,153.500
0.189,239.000,171.500,153.500,152.500
0.190,239.000,171.000,153.500,152.500
0.191,239.500,171.500,153.500,152.500
0.192,240.000,172.000,154.500,153.000
0.193,241.000,173.000,155.500,154.000
0.194,243.000,174.000,157.000,155.000
0.195,245.000,175.500,158.500,156.000
0.196,247.500,177.000,160.500,157.500
0.197,249.500,178.500,162.500,159.000
0.198,251.000,179.500,163.500,159.500
0.199,252.000,179.500,164.000,160.000
0.200,251.500,179.000,163.500,159.000
0.201,250.500,177.500,162.500,157.500
0.202,248.500,175.500,160.000,155.500
0.203,245.500,173.500,157.500,153.000
0.204,243.000,171.000,154.500,150.500
0.205,240.000,169.000,152.000,148.000
0.206,238.000,167.500,149.500,146.000
0.207,236.500,166.000,148.000,144.500
0.208,235.500,165.500,147.000,144.000
0.209,235.000,165.000,146.500,143.500
0.210,234.500,164.500,146.500,143.500
0.211,235.000,164.500,147.000,144.000
0.212,235.000,165.000,147.500,145.000
0.213,235.500,165.500,148.500,145.500
0.214,236.500,166.500,150.000,146.500
0.215,238.000,167.500,151.500,148.000
0.216,239.000,168.500,153.500,149.500
0.217,240.500,169.500,155.000,150.500
0.218,241.500,170.000,156.500,151.500
0.219,242.000,169.500,156.500,152.000
0.220,241.000,168.500,156.000,151.000
0.221,239.500,167.000,154.000,149.500
0.222,237.500,165.000,151.500,147.500
0.223,235.000,162.500,148.500,145.000
0.224,232.500,160.500,146.000,142.500
0.225,230.500,158.500,143.500,140.000
0.226,228.500,157.000,142.000,138.500
0.227,227.500,156.000,141.000,137.000
0.228,227.000,155.500,140.500,136.500
0.229,227.000,155.500,140.500,136.500
0.230,227.000,156.000,141.000,136.500
0.231,227.000,156.000,141.500,137.000
0.232,228.000,156.500,142.500,138.000
0.233,229.000,157.500,143.500,139.000
0.234,230.000,158.000,144.500,140.000
0.235,231.500,159.000,146.000,142.000
0.236,233.500,160.000,148.000,143.500
0.237,235.000,161.500,149.500,145.000
0.238,236.500,162.500,151.000,146.500
0.239,237.000,162.500,151.500,147.000
0.240,237.000,162.500,151.000,146.500
0.241,236.000,161.000,150.000,145.500
0.242,234.000,159.500,148.000,143.500
0.243,231.500,157.500,145.500,141.000
0.244,229.000,155.000,142.500,138.500
0.245,227.000,153.500,140.500,136.000
0.246,225.000,152.500,139.000,134.500
0.247,224.000,152.000,138.000,134.000
0.248,224.000,152.000,137.500,133.500
0.249,224.000,152.000,137.500,133.500
0.250,224.000,152.500,138.000,134.500
0.251,225.000,153.000,139.000,135.000
0.252,225.500,153.500,140.000,136.000
0.253,226.500,154.500,141.500,137.000
0.254,228.000,156.000,143.000,138.500
0.255,229.500,157.000,145.000,140.000
0.256,231.000,158.500,147.000,142.000
0.257,233.000,159.500,149.000,143.500
0.258,234.000,160.500,150.000,144.500
0.259,234.500,161.000,150.500,145.000
0.260,234.000,160.500,150.500,144.500
0.261,232.500,159.500,149.500,143.000
0.262,230.500,158.000,147.500,141.500
0.263,228.500,156.000,145.000,139.000
0.264,226.000,154.000,142.500,136.500
0.265,224.000,152.500,140.500,134.500
0.266,222.500,152.000,139.000,133.000
0.267,222.000,151.500,138.000,132.000
0.268,221.500,151.500,137.500,131.500
0.269,221.000,151.500,137.500,131.500
0.270,221.500,152.000,137.500,132.000
0.271,222.000,152.500,138.500,132.500
0.272,222.500,153.000,139.000,133.000
0.273,223.500,154.000,140.500,134.000
0.274,225.000,155.000,142.000,135.000
0.275,227.000,156.000,144.000,136.500
0.276,228.500,157.500,146.000,138.500
0.277,230.000,158.500,147.500,140.000
0.278,231.500,159.500,149.500,141.000
0.279,232.000,159.500,150.000,141.500
0.280,232.000,159.000,150.000,141.000
0.281,231.000,158.000,148.500,140.000
0.282,229.000,157.000,147.000,138.000
0.283,227.000,155.000,144.500,135.500
0.284,224.500,153.500,142.000,133.500
0.285,222.500,152.000,140.500,131.500
0.286,221.000,151.000,139.000,130.000
0.287,220.000,150.500,138.000,129.500
0.288,220.000,150.500,138.000,129.500
0.289,220.000,151.000,138.000,129.500
0.290,220.500,151.500,139.000,130.500
0.291,221.500,152.500,139.500,131.000
0.292,222.500,153.500,141.000,132.000
0.293,223.500,154.000,142.000,133.500
0.294,224.500,155.000,143.500,134.500
0.295,226.000,156.500,145.500,136.500
0.296,227.500,158.000,147.500,138.500
0.297,229.000,159.500,149.500,140.500
0.298,230.000,160.000,151.000,141.500
0.299,231.000,160.500,152.000,142.000
0.300,231.000,160.000,151.500,141.500
0.301,230.000,159.000,150.500,140.500
0.302,228.500,157.500,149.000,138.500
0.303,226.500,155.500,146.500,136.500
0.304,224.000,154.000,144.000,134.000
0.305,222.000,152.500,142.000,132.000
0.306,220.500,151.000,140.500,130.000
0.307,219.500,150.500,139.500,129.500
0.308,219.000,150.500,139.500,129.000
0.309,219.000,150.500,139.500,129.000
0.310,219.500,151.000,140.000,129.000
0.311,220.000,152.000,141.000,130.000
0.312,221.000,153.000,142.000,131.000
0.313,222.500,154.000,143.500,132.000
0.314,224.000,155.000,145.500,133.500
0.315,225.500,156.000,147.500,135.500
0.316,227.500,157.500,149.500,137.500
0.317,229.500,159.000,151.500,139.000
0.318,230.500,159.500,153.000,140.500
0.319,231.500,160.000,153.500,141.000
0.320,231.500,159.500,153.500,140.500
0.321,230.500,158.000,152.000,139.500
0.322,228.500,156.500,150.000,137.500
0.323,226.500,154.500,147.500,135.500
0.324,224.500,153.000,145.000,133.000
0.325,222.500,151.500,143.000,131.500
0.326,221.000,151.000,141.500,130.000
0.327,220.500,151.000,141.000,130.000
0.328,220.500,151.000,141.000,130.000
0.329,221.000,152.000,142.000,130.500
0.330,221.500,152.500,142.500,131.500
0.331,222.500,153.500,144.000,132.500
0.332,223.500,154.000,145.000,133.500
0.333,224.500,155.000,146.500,134.500
0.334,226.000,156.000,148.500,136.000
0.335,227.500,157.500,150.000,137.500
0.336,229.500,158.500,152.000,139.500
0.337,231.000,159.500,154.000,141.000
0.338,232.500,160.500,155.500,142.000
0.339,233.000,160.500,156.500,143.000
0.340,233.000,160.000,156.000,142.500
0.341,232.000,159.000,155.000,141.000
0.342,230.500,157.500,153.000,139.500
0.343,229.000,156.000,151.000,137.500
0.344,227.000,155.000,149.000,135.500
0.345,225.500,153.500,147.000,133.500
0.346,224.500,153.000,146.000,132.500
0.347,224.000,153.000,145.500,132.000
0.348,224.000,153.000,145.500,132.000
0.349,224.500,153.500,146.000,132.500
0.350,225.000,154.000,147.000,133.000
0.351,226.000,155.000,148.000,134.000
0.352,227.000,156.000,149.500,135.500
0.353,228.000,157.500,151.000,137.000
0.354,229.000,158.500,152.500,139.000
0.355,230.500,160.000,154.500,140.500
0.356,232.500,161.000,156.500,142.500
0.357,234.000,162.500,158.500,144.500
0.358,235.500,163.500,160.000,146.000
0.359,236.000,163.500,160.500,146.500
0.360,236.000,163.000,160.500,146.000
0.361,235.000,162.000,159.500,145.000
0.362,233.500,160.500,157.500,143.000
0.363,231.500,159.000,155.500,141.000
0.364,229.500,157.500,153.500,139.000
0.365,228.000,156.500,152.000,137.500
0.366,227.000,156.000,151.000,136.000
0.367,227.000,155.500,150.500,135.500
0.368,227.000,155.500,150.500,135.500
0.369,227.500,156.000,151.000,136.000
0.370,228.000,157.000,151.500,136.500
0.371,229.000,158.000,152.500,138.000
0.372,230.000,159.000,153.500,139.500
0.373,231.500,160.000,155.000,141.000
0.374,233.000,161.500,157.000,142.500
0.375,235.000,163.000,159.500,144.500
0.376,237.000,164.500,161.500,146.500
0.377,239.000,166.000,163.500,148.500
0.378,240.500,167.500,165.500,150.500
0.379,241.500,168.000,166.000,151.000
0.380,241.500,167.500,166.500,151.000
0.381,240.500,167.000,165.500,150.000
0.382,239.000,165.500,164.000,148.500
0.383,237.000,164.000,162.000,146.000
0.384,234.500,162.500,160.000,144.000
0.385,232.500,161.500,158.000,142.500
0.386,231.500,161.000,157.000,141.500
0.387,230.500,161.000,156.500,141.000
0.388,230.500,161.000,156.500,141.000
0.389,231.000,161.500,157.000,141.500
0.390,231.500,162.500,158.000,142.000
0.391,232.500,163.500,159.000,143.500
0.392,234.000,165.000,160.500,144.500
0.393,235.500,166.500,162.500,146.500
0.394,237.500,168.000,164.500,148.500
0.395,239.500,170.000,166.500,150.500
0.396,242.000,171.500,169.000,153.000
0.397,244.000,173.000,171.500,155.000
0.398,245.500,174.500,173.500,156.500
0.399,246.500,175.000,174.500,157.500
0.400,246.500,175.000,175.000,158.000
0.401,246.000,174.500,174.000,157.000
0.402,244.500,173.000,172.500,155.500
0.403,243.000,171.500,170.500,154.000
0.404,241.000,170.000,168.500,152.000
0.405,239.500,169.000,166.500,150.500
0.406,238.000,168.000,165.500,149.500
0.407,237.500,168.000,165.000,149.000
0.408,237.500,168.000,165.000,148.500
0.409,238.000,168.500,165.000,149.000
0.410,238.500,169.000,166.000,149.500
0.411,239.500,170.000,167.500,151.000
0.412,241.000,171.500,168.500,152.000
0.413,242.500,172.500,170.500,154.000
0.414,244.000,174.000,172.000,156.000
0.415,246.000,176.000,174.000,158.000
0.416,248.000,177.500,176.500,160.000
0.417,250.000,179.000,178.500,162.000
0.418,251.500,180.000,180.000,163.000
0.419,252.000,180.500,181.000,164.000
0.420,252.000,180.000,181.000,163.500
0.421,251.500,179.000,180.000,163.000
0.422,250.000,178.000,178.500,161.000
0.423,248.500,176.000,176.500,159.000
0.424,246.500,174.500,174.500,157.000
0.425,245.000,173.000,173.000,155.500
0.426,244.000,172.500,172.000,154.500
0.427,244.000,173.000,171.500,154.500
0.428,244.000,173.500,172.000,155.000
0.429,244.500,174.000,172.500,156.000
0.430,245.000,175.000,173.500,157.000
0.431,246.000,176.000,174.500,158.500
0.432,247.000,177.000,176.000,159.500
0.433,248.000,178.500,177.500,161.000
0.434,250.000,179.500,179.500,162.500
0.435,251.500,181.000,181.500,164.500
0.436,254.000,183.000,183.500,166.500
0.437,256.000,184.500,185.500,168.500
0.438,257.500,185.500,187.000,170.000
0.439,259.000,186.000,188.000,170.500
0.440,259.000,186.000,188.000,170.500
0.441,258.500,185.500,187.000,169.500
0.442,257.000,184.000,185.500,167.500
0.443,255.000,182.500,183.000,165.500
0.444,253.000,181.000,181.000,163.500
0.445,251.500,180.000,179.000,161.500
0.446,250.500,179.500,178.000,160.500
0.447,250.000,179.000,177.000,160.500
0.448,250.000,179.500,177.000,160.500
0.449,250.500,180.000,177.500,161.000
0.450,251.000,181.000,178.000,161.500
0.451,252.000,181.500,179.000,162.500
0.452,253.000,183.000,180.500,164.000
0.453,254.500,184.000,182.000,165.500
0.454,256.500,185.500,184.000,167.500
0.455,258.500,187.500,186.500,169.500
0.456,260.500,189.000,189.000,172.000
0.457,262.500,190.500,190.500,174.000
0.458,264.000,191.500,192.000,175.500
0.459,265.000,191.500,193.000,176.000
0.460,265.000,191.500,192.500,176.000
0.461,264.000,190.500,191.500,174.500
0.462,262.500,189.000,190.000,173.000
0.463,261.000,187.500,188.000,171.000
0.464,259.000,186.000,185.500,169.000
0.465,257.000,184.500,184.000,167.500
0.466,256.000,183.500,182.500,166.000
0.467,255.000,183.000,182.000,165.500
0.468,255.000,183.500,182.000,166.000
0.469,255.500,184.000,182.500,166.000
0.470,256.500,184.500,183.000,166.500
0.471,257.000,186.000,184.000,167.500
0.472,258.500,187.000,185.500,168.500
0.473,259.500,188.500,187.000,170.000
0.474,261.000,189.500,189.000,172.000
0.475,263.000,191.000,191.000,174.000
0.476,265.000,193.000,193.000,176.000
0.477,267.000,194.500,195.000,178.500
0.478,268.500,195.500,197.000,180.000
0.479,270.000,195.500,197.500,181.000
0.480,270.000,195.500,197.500,180.500
0.481,269.500,194.500,196.500,179.500
0.482,268.000,193.500,194.500,178.000
0.483,266.000,192.000,192.500,176.000
0.484,264.000,190.500,190.000,174.000
0.485,262.000,189.000,188.500,172.000
0.486,260.500,188.500,187.000,171.000
0.487,260.000,188.000,186.500,170.500
0.488,260.000,188.500,186.500,170.500
0.489,260.500,189.000,187.000,171.000
0.490,261.000,190.000,187.500,172.000
0.491,262.000,190.500,188.500,172.500
0.492,263.000,191.500,189.500,174.000
0.493,264.500,192.500,191.000,175.000
0.494,266.000,193.500,192.500,176.500
0.495,267.500,194.500,194.500,178.500
0.496,269.000,195.500,196.500,180.500
0.497,270.500,196.500,198.500,182.000
0.498,271.500,197.500,199.500,183.500
0.499,272.000,197.500,200.000,183.500
0.500,271.500,197.000,199.000,183.000
0.501,270.500,195.500,197.500,181.500
0.502,268.500,193.500,195.000,179.000
0.503,266.000,191.500,192.000,176.500
0.504,263.500,189.000,189.000,173.500
0.505,261.500,187.500,187.000,171.500
0.506,259.500,186.000,185.000,169.500
0.507,258.500,185.000,184.000,168.500
0.508,258.000,185.000,183.500,168.500
0.509,258.000,184.500,183.500,168.500
0.510,258.000,185.000,184.000,169.000
0.511,258.000,185.000,184.500,170.000
0.512,258.500,186.000,185.500,171.000
0.513,259.000,186.500,187.000,172.500
0.514,260.500,188.000,189.000,174.500
0.515,261.500,189.000,191.000,176.500
0.516,263.500,191.000,193.500,179.500
0.517,265.000,192.000,196.000,182.000
0.518,266.500,193.500,198.000,184.500
0.519,267.500,194.500,199.500,186.500
0.520,267.500,195.000,200.500,188.500
0.521,267.500,195.000,201.000,189.500
0.522,266.500,195.000,201.000,190.500
0.523,265.500,194.500,200.500,191.000
0.524,264.500,194.500,200.500,191.000
0.525,263.500,194.500,200.500,192.000
0.526,263.500,195.000,201.000,193.000
0.527,264.000,196.000,202.000,194.500
0.528,264.500,197.500,203.000,196.000
0.529,266.000,199.000,205.000,198.000
0.530,267.500,200.500,207.000,200.500
0.531,269.500,203.000,209.500,203.000
0.532,272.000,205.000,212.000,205.500
0.533,274.500,207.500,215.000,208.000
0.534,278.000,210.500,218.000,210.000
0.535,281.000,213.000,220.500,212.000
0.536,284.000,215.000,223.000,213.000
0.537,287.000,217.000,225.000,213.500
0.538,289.500,218.000,226.000,213.000
0.539,291.000,218.500,226.000,212.000
0.540,291.500,218.500,225.500,210.000
0.541,291.500,217.500,223.500,207.500
0.542,290.500,216.000,221.000,204.500
0.543,289.000,214.500,218.500,201.500
0.544,287.000,212.500,215.500,198.000
0.545,285.000,211.000,213.000,195.000
0.546,283.500,209.500,210.500,192.500
0.547,282.500,208.000,208.000,190.500
0.548,281.500,207.000,206.500,188.500
0.549,280.500,206.500,205.000,187.000
0.550,280.000,206.000,204.000,186.000
0.551,279.500,205.500,203.500,185.500
0.552,279.000,205.000,203.000,185.000
0.553,279.500,205.000,203.500,185.000
0.554,280.000,205.500,204.000,185.000
0.555,281.000,206.000,205.500,186.000
0.556,282.500,207.000,207.000,187.000
0.557,283.500,207.500,208.500,188.000
0.558,284.500,208.000,209.500,188.500
0.559,284.500,207.500,209.500,188.500
0.560,283.500,207.000,209.000,188.000
0.561,282.000,205.500,207.500,186.000
0.562,279.500,203.000,204.500,184.000
0.563,276.500,200.500,201.500,181.000
0.564,273.500,198.000,198.000,178.000
0.565,271.000,196.000,195.000,175.500
0.566,269.000,194.500,192.500,173.500
0.567,267.500,193.500,191.500,172.500
0.568,266.500,192.500,190.500,171.500
0.569,266.000,192.500,190.000,171.500
0.570,265.500,192.500,190.000,171.500
0.571,266.000,192.500,190.500,171.500
0.572,266.500,192.500,191.000,172.500
0.573,267.000,193.000,192.000,173.500
0.574,268.000,194.000,193.500,174.500
0.575,269.500,195.000,195.000,176.500
0.576,271.000,196.500,197.000,178.000
0.577,273.000,198.000,199.000,180.000
0.578,274.000,198.500,200.000,181.000
0.579,274.500,199.000,201.000,182.000
0.580,274.500,198.500,200.500,181.500
0.581,273.500,197.500,199.500,180.500
0.582,272.500,196.500,197.500,179.000
0.583,270.500,194.500,195.500,176.500
0.584,269.000,193.500,193.500,174.500
0.585,267.000,192.500,191.500,172.500
0.586,266.000,192.000,190.000,171.500
0.587,265.500,191.500,189.500,170.500
0.588,265.000,192.000,189.000,170.500
0.589,265.500,192.500,189.500,170.500
0.590,265.500,193.000,190.000,171.000
0.591,266.500,193.500,191.000,172.000
0.592,267.000,194.000,192.000,173.500
0.593,268.000,195.000,193.500,175.000
0.594,269.000,196.000,195.000,176.500
0.595,270.000,197.000,196.500,178.000
0.596,271.500,198.000,198.000,180.000
0.597,272.500,199.000,199.500,181.500
0.598,273.000,199.500,200.500,183.000
0.599,273.000,199.000,200.500,183.000
0.600,272.000,198.000,200.000,183.000
0.601,270.000,196.500,198.000,181.500
0.602,268.000,194.500,196.000,179.500
0.603,265.500,192.500,193.000,177.000
0.604,263.000,190.500,190.500,175.000
0.605,260.500,188.500,188.500,172.500
0.606,258.500,187.000,186.500,171.000
0.607,257.500,186.000,185.000,170.000
0.608,256.500,185.500,184.000,169.000
0.609,256.000,185.000,183.500,168.500
0.610,256.500,185.000,183.500,168.500
0.611,257.000,185.500,184.000,169.000
0.612,258.500,186.500,185.000,169.500
0.613,260.000,187.500,186.500,170.500
0.614,262.000,189.000,188.000,172.000
0.615,264.500,190.500,190.500,173.500
0.616,267.500,193.000,192.500,175.500
0.617,270.000,195.000,195.000,177.000
0.618,272.000,196.500,197.000,178.500
0.619,273.500,197.500,198.000,179.000
0.620,273.500,197.500,198.000,179.000
0.621,273.000,197.000,197.000,178.000
0.622,271.500,196.000,195.000,176.500
0.623,269.000,194.000,193.000,174.500
0.624,267.000,192.500,190.500,172.500
0.625,264.500,190.500,188.500,170.500
0.626,263.000,189.000,186.500,169.500
0.627,261.500,188.500,185.500,168.500
0.628,261.000,188.000,184.500,168.000
0.629,260.500,187.500,184.500,168.000
0.630,260.500,187.500,184.500,168.500
0.631,261.000,188.000,185.500,169.000
0.632,262.000,189.000,186.500,170.000
0.633,263.500,190.000,188.000,171.000
0.634,265.000,191.000,189.500,172.500
0.635,266.500,192.500,191.500,174.500
0.636,268.500,194.000,193.500,176.000
0.637,270.000,195.000,195.500,178.000
0.638,271.500,196.000,196.500,179.500
0.639,272.000,196.000,197.000,179.500
0.640,271.500,195.500,196.000,179.000
0.641,270.500,194.000,194.500,178.000
0.642,268.500,192.500,192.500,176.000
0.643,266.500,191.000,190.500,173.500
0.644,264.500,189.500,188.000,171.500
0.645,262.500,188.000,186.000,169.500
0.646,261.000,187.500,184.500,168.000
0.647,260.500,187.500,184.000,167.500
0.648,260.000,187.500,184.000,167.000
0.649,260.500,188.000,184.000,167.500
0.650,261.000,188.500,184.500,168.000
0.651,262.000,189.500,185.500,169.000
0.652,263.000,190.000,186.500,170.500
0.653,264.500,191.500,188.000,172.000
0.654,265.500,192.500,189.500,173.500
0.655,267.000,194.000,191.500,175.500
0.656,269.000,195.500,193.500,177.500
0.657,270.500,197.000,195.500,179.500
0.658,272.000,197.500,197.000,180.500
0.659,272.500,198.000,198.000,181.500
0.660,272.500,197.500,197.500,181.000
0.661,271.500,196.500,196.000,180.000
0.662,270.000,195.000,194.000,178.000
0.663,268.000,193.500,192.000,175.500
0.664,265.500,192.000,189.500,173.500
0.665,263.500,190.500,187.500,171.500
0.666,262.500,189.500,186.500,170.500
0.667,261.500,189.000,185.500,169.500
0.668,261.000,189.000,185.500,169.500
0.669,261.000,189.000,186.000,169.500
0.670,261.500,189.500,186.500,170.000
0.671,262.500,190.500,187.500,171.000
0.672,263.500,191.000,188.500,172.000
0.673,265.000,192.000,189.500,173.000
0.674,266.000,193.000,191.000,174.500
0.675,268.000,194.500,193.000,176.500
0.676,269.500,196.000,194.500,178.500
0.677,271.000,197.000,196.500,180.000
0.678,272.000,198.000,198.000,181.500
0.679,272.500,198.000,198.500,182.000
0.680,272.000,197.500,198.000,181.500
0.681,271.000,196.500,196.500,180.000
0.682,269.000,194.500,194.500,178.000
0.683,266.500,193.000,191.500,175.500
0.684,264.500,191.000,189.000,173.000
0.685,262.500,190.000,187.000,171.500
0.686,261.000,189.000,185.500,170.000
0.687,260.500,188.500,184.500,169.500
0.688,260.000,188.500,184.500,169.000
0.689,260.500,189.000,184.500,169.500
0.690,261.000,189.500,185.500,170.500
0.691,262.000,190.500,186.500,171.500
0.692,263.500,191.500,188.000,173.000
0.693,264.500,193.000,189.500,174.500
0.694,266.000,194.500,191.500,176.000
0.695,268.000,195.500,193.500,178.000
0.696,270.000,197.000,195.500,180.000
0.697,271.500,198.500,197.500,182.000
0.698,273.000,199.500,199.500,183.500
0.699,274.000,200.000,200.000,184.500
0.700,274.000,199.500,200.000,184.500
0.701,273.000,198.500,199.000,183.500
0.702,272.000,197.500,197.000,181.500
0.703,270.000,196.000,195.000,179.500
0.704,268.000,195.000,193.000,177.500
0.705,266.000,194.000,191.500,176.000
0.706,265.000,193.500,190.500,175.000
0.707,264.500,193.500,190.000,175.000
0.708,264.500,194.000,190.500,175.000
0.709,265.000,194.500,190.500,175.500
0.710,265.500,195.000,191.500,176.000
0.711,266.500,196.000,192.500,177.000
0.712,268.000,197.500,193.500,178.000
0.713,269.500,198.500,195.500,179.500
0.714,271.000,200.000,197.500,181.500
0.715,273.000,201.500,199.500,183.500
0.716,275.000,202.500,201.500,186.000
0.717,277.000,204.000,203.500,188.000
0.718,278.500,205.000,205.000,189.500
0.719,279.000,205.000,205.500,190.000
0.720,279.000,205.000,205.500,190.000
0.721,278.000,204.000,204.000,188.500
0.722,276.000,202.500,202.500,187.000
0.723,274.000,201.000,200.000,184.500
0.724,272.000,199.000,198.000,182.500
0.725,270.000,198.000,196.000,181.500
0.726,269.000,197.500,195.000,180.500
0.727,268.500,197.000,195.000,180.500
0.728,268.500,197.500,195.000,181.000
0.729,268.500,198.000,195.500,181.500
0.730,269.000,199.000,196.500,182.500
0.731,270.000,199.500,197.500,183.500
0.732,271.000,201.000,198.500,184.500
0.733,272.000,202.000,200.000,186.000
0.734,273.500,203.000,201.500,187.500
0.735,275.500,204.500,203.500,189.500
0.736,277.500,206.000,205.500,191.500
0.737,279.500,208.000,208.000,193.500
0.738,281.500,209.000,209.500,195.500
0.739,282.500,210.000,210.500,196.000
0.740,282.500,209.500,210.500,196.000
0.741,282.000,209.000,209.000,195.500
0.742,280.500,207.500,207.500,193.500
0.743,278.500,205.500,205.000,191.500
0.744,276.500,204.000,203.000,189.500
0.745,274.500,202.500,201.000,187.500
0.746,273.500,201.500,200.000,186.500
0.747,272.500,201.000,199.000,186.000
0.748,272.500,201.500,199.000,186.000
0.749,273.000,201.500,199.000,186.500
0.750,273.500,202.500,200.000,187.000
0.751,274.500,203.500,201.000,188.000
0.752,275.500,204.500,202.500,189.500
0.753,277.000,206.000,204.500,191.000
0.754,278.500,207.500,206.500,193.000
0.755,280.500,209.000,208.500,195.000
0.756,282.500,211.000,210.500,197.000
0.757,284.500,212.500,212.500,199.000
0.758,286.000,213.500,213.500,200.500
0.759,286.500,214.000,214.500,201.000
0.760,286.500,213.500,214.000,201.000
0.761,285.500,213.000,212.500,199.500
0.762,283.500,211.500,210.500,197.500
0.763,281.500,209.500,208.000,195.500
0.764,279.500,208.000,206.000,193.000
0.765,277.500,206.500,203.500,191.500
0.766,276.000,205.500,202.000,190.000
0.767,275.500,205.000,201.500,189.000
0.768,275.000,205.000,201.000,188.500
0.769,275.000,204.500,201.000,188.500
0.770,275.500,205.000,201.500,189.000
0.771,276.000,205.500,202.000,190.000
0.772,277.000,206.000,203.000,191.000
0.773,278.000,207.000,204.500,192.000
0.774,279.000,208.000,206.000,193.500
0.775,280.500,209.000,207.500,195.000
0.776,282.500,210.500,209.500,196.500
0.777,284.000,212.000,211.000,198.000
0.778,285.500,212.500,212.500,199.000
0.779,286.000,213.000,213.000,199.500
0.780,286.000,212.500,212.500,199.500
0.781,285.000,211.500,211.000,198.500
0.782,283.500,210.000,209.000,196.500
0.783,281.500,208.000,206.500,194.000
0.784,279.000,206.000,204.000,191.500
0.785,277.500,204.500,202.000,189.000
0.786,276.000,203.000,200.500,187.500
0.787,275.500,202.500,199.500,186.500
0.788,275.000,202.000,199.000,186.500
0.789,275.000,202.000,199.000,186.500
0.790,275.500,202.000,199.500,186.500
0.791,276.000,203.000,200.000,187.000
0.792,277.000,203.500,200.500,188.000
0.793,277.500,204.500,201.500,189.000
0.794,279.000,205.500,203.000,190.000
0.795,280.500,206.500,205.000,191.500
0.796,282.500,208.000,207.000,193.500
0.797,284.000,209.500,209.000,195.000
0.798,285.500,210.500,210.500,196.000
0.799,286.500,210.500,211.000,196.500
0.800,286.000,210.000,210.500,196.000
0.801,285.000,209.000,209.000,194.500
0.802,283.500,207.500,207.000,192.500
0.803,281.500,205.500,204.000,190.000
0.804,279.500,204.000,201.500,188.000
0.805,277.500,202.500,200.000,186.000
0.806,276.000,201.500,198.500,185.000
0.807,275.500,201.000,198.000,184.000
0.808,275.000,201.000,197.500,183.500
0.809,275.000,201.500,198.000,183.500
0.810,275.500,202.000,198.500,184.000
0.811,276.500,202.500,199.500,184.500
0.812,277.500,203.500,200.500,186.000
0.813,279.000,204.500,201.500,187.000
0.814,280.000,206.000,203.000,189.000
0.815,282.000,207.000,205.000,190.500
0.816,284.000,208.500,207.000,192.500
0.817,285.500,209.500,208.500,194.000
0.818,287.000,210.000,210.000,195.000
0.819,287.500,210.000,210.500,195.500
0.820,287.000,209.500,210.000,194.500
0.821,286.000,208.500,208.500,193.000
0.822,284.000,207.000,206.500,191.000
0.823,282.000,205.500,204.000,188.500
0.824,280.000,204.000,201.500,186.500
0.825,278.000,203.000,200.000,184.500
0.826,277.000,202.000,198.500,183.500
0.827,277.000,202.000,198.000,183.500
0.828,277.000,202.500,198.500,183.500
0.829,277.500,203.500,199.000,184.000
0.830,278.500,204.500,200.000,185.000
0.831,280.000,205.500,201.000,186.500
0.832,281.500,206.500,203.000,187.500
0.833,283.000,208.000,205.000,189.500
0.834,285.000,209.500,207.500,191.500
0.835,287.500,211.500,210.000,193.500
0.836,290.000,213.500,212.500,196.000
0.837,292.500,215.500,214.500,198.500
0.838,294.000,217.000,216.500,200.000
0.839,295.000,218.000,217.000,201.000
0.840,295.500,218.000,217.000,201.000
0.841,294.500,217.000,216.000,200.000
0.842,293.000,215.500,214.500,198.000
0.843,291.000,214.000,212.000,195.500
0.844,289.000,212.000,210.000,193.500
0.845,287.500,211.000,208.000,191.500
0.846,286.500,210.500,206.500,190.500
0.847,286.000,210.500,205.500,189.500
0.848,286.000,210.500,205.500,189.500
0.849,286.000,211.000,206.000,190.000
0.850,287.000,212.000,206.500,190.500
0.851,287.500,213.000,207.500,191.500
0.852,288.500,213.500,208.500,192.500
0.853,290.000,215.000,210.000,194.000
0.854,291.500,216.000,212.000,195.500
0.855,293.000,217.500,214.000,197.500
0.856,295.000,219.000,216.500,200.000
0.857,297.000,220.500,218.500,202.000
0.858,298.000,222.000,220.000,203.500
0.859,299.000,222.000,220.500,204.000
0.860,299.000,222.000,220.500,204.000
0.861,298.500,221.000,219.500,203.000
0.862,297.000,219.500,217.500,201.000
0.863,295.000,217.500,215.000,199.000
0.864,292.500,216.000,212.500,196.500
0.865,291.000,214.500,210.500,195.000
0.866,289.500,213.500,209.500,193.500
0.867,288.500,213.000,208.500,193.000
0.868,288.000,213.000,208.500,193.000
0.869,288.500,213.000,208.500,193.000
0.870,289.000,214.000,209.500,194.000
0.871,290.000,215.000,210.500,195.000
0.872,291.000,216.000,212.000,196.000
0.873,292.500,217.500,213.500,197.500
0.874,294.000,219.000,215.500,199.000
0.875,296.000,220.500,217.500,201.000
0.876,298.000,222.000,219.500,203.000
0.877,300.000,223.000,221.500,205.500
0.878,301.000,224.000,223.000,207.000
0.879,302.000,224.500,224.000,208.000
0.880,302.000,224.500,224.000,208.000
0.881,301.500,224.000,223.000,207.000
0.882,299.500,222.500,221.000,205.500
0.883,298.000,221.000,218.500,203.000
0.884,296.000,220.000,216.500,201.000
0.885,294.500,218.500,214.500,199.500
0.886,293.500,218.000,214.000,198.500
0.887,293.000,218.000,213.500,198.000
0.888,293.000,218.500,214.000,198.000
0.889,294.000,219.000,214.500,198.500
0.890,295.000,219.500,215.500,199.500
0.891,296.000,220.500,216.500,201.000
0.892,298.000,222.000,218.000,202.500
0.893,299.500,223.500,220.000,204.000
0.894,301.500,225.500,222.000,206.000
0.895,303.500,227.000,224.000,208.500
0.896,306.000,229.000,226.500,210.500
0.897,308.000,230.500,229.000,213.000
0.898,309.500,232.000,230.500,214.500
0.899,310.500,232.500,231.500,215.000
0.900,310.500,232.500,232.000,215.000
0.901,310.000,232.000,231.000,214.000
0.902,308.500,230.500,229.500,212.500
0.903,306.500,229.000,227.500,210.500
0.904,304.500,227.500,225.000,208.500
0.905,303.000,226.000,223.500,207.000
0.906,302.000,225.000,222.000,206.000
0.907,301.500,225.000,221.500,205.500
0.908,301.500,225.000,222.000,205.500
0.909,302.000,226.000,222.500,206.000
0.910,303.000,227.000,223.500,207.000
0.911,304.000,228.000,225.000,208.500
0.912,305.500,229.500,226.500,210.500
0.913,307.000,230.500,228.500,212.500
0.914,308.500,232.000,230.500,214.000
0.915,310.500,234.000,233.000,216.500
0.916,312.500,236.000,235.500,218.500
0.917,315.000,237.500,238.000,221.000
0.918,316.500,239.000,239.500,222.500
0.919,317.500,240.000,240.500,223.500
0.920,318.000,240.000,240.500,223.500
0.921,317.000,240.000,239.500,223.000
0.922,316.000,239.000,238.000,221.500
0.923,314.500,237.500,236.000,219.500
0.924,312.500,236.500,234.500,217.500
0.925,311.500,235.500,233.000,216.500
0.926,311.000,235.000,232.000,215.500
0.927,310.500,235.000,232.000,215.500
0.928,311.000,235.000,232.000,215.500
0.929,311.000,235.500,232.500,216.000
0.930,312.000,236.000,233.500,216.500
0.931,313.000,237.000,234.500,217.500
0.932,314.500,238.000,236.000,218.500
0.933,316.000,239.500,238.000,220.500
0.934,317.500,241.000,240.000,222.500
0.935,320.000,243.000,242.500,225.000
0.936,322.000,245.000,245.000,227.500
0.937,324.000,247.000,247.500,229.500
0.938,326.000,248.500,249.500,231.500
0.939,327.000,249.500,250.500,232.500
0.940,327.500,249.500,251.000,233.000
0.941,326.500,249.000,250.000,232.000
0.942,325.000,248.000,248.500,230.500
0.943,323.500,246.500,247.000,229.000
0.944,321.500,245.500,245.000,227.000
0.945,320.000,244.500,243.500,226.000
0.946,319.000,244.000,242.500,225.000
0.947,319.000,244.500,242.500,225.000
0.948,319.500,245.000,243.000,225.500
0.949,320.500,246.000,244.000,226.500
0.950,321.500,247.000,245.500,228.000
0.951,323.000,248.500,247.000,229.000
0.952,325.000,250.500,249.000,231.000
0.953,326.500,252.000,251.000,232.500
0.954,328.500,253.500,253.500,234.000
0.955,331.000,255.500,256.000,236.500
0.956,333.500,257.500,258.500,238.500
0.957,336.000,259.000,261.000,240.500
0.958,337.500,260.500,262.500,242.500
0.959,339.000,261.000,263.500,243.500
0.960,339.000,261.000,263.500,243.500
0.961,338.500,260.500,262.500,243.000
0.962,337.000,259.000,261.000,241.500
0.963,335.000,258.000,258.500,239.500
0.964,333.000,256.500,256.500,238.000
0.965,331.500,255.500,255.000,236.500
0.966,331.000,255.000,254.000,236.000
0.967,331.000,255.500,254.000,236.000
0.968,331.500,256.000,254.500,236.500
0.969,332.500,257.500,256.000,237.500
0.970,334.000,258.500,257.500,238.500
0.971,335.000,260.000,259.000,240.000
0.972,337.000,262.000,261.000,241.500
0.973,339.000,264.000,263.000,243.500
0.974,341.500,265.500,265.500,246.000
0.975,343.500,267.500,268.000,248.500
0.976,346.000,269.500,270.500,250.500
0.977,348.500,271.000,272.500,253.000
0.978,350.000,272.500,274.500,254.500
0.979,351.500,273.500,276.000,255.500
0.980,351.500,273.500,276.000,256.000
0.981,350.500,273.000,275.000,255.500
0.982,349.500,272.000,273.500,254.000
0.983,347.500,270.500,271.500,252.500
0.984,345.500,269.000,270.000,250.500
0.985,344.000,268.000,268.500,249.500
0.986,343.500,267.500,267.500,248.500
0.987,343.000,268.000,267.500,248.500
0.988,343.500,268.500,268.000,249.000
0.989,344.500,269.500,269.000,250.000
0.990,345.500,271.000,270.000,251.000
0.991,347.000,272.000,271.500,252.500
0.992,348.500,273.500,273.500,254.500
0.993,350.500,275.500,275.500,256.500
0.994,352.500,277.000,278.000,259.000
0.995,354.500,279.000,280.500,261.500
0.996,357.000,281.000,283.000,263.500
0.997,359.000,283.000,285.500,266.000
0.998,360.500,284.500,287.000,267.500
0.999,361.500,285.500,288.500,268.500
1.000,362.000,285.500,288.500,268.500
1.001,361.500,285.000,288.000,267.500
1.002,360.500,284.500,286.000,266.000
1.003,359.000,283.000,284.000,264.500
1.004,357.500,282.000,282.500,263.000
1.005,356.500,281.000,281.000,261.500
1.006,356.000,281.000,280.500,261.000
1.007,356.000,281.500,280.500,260.500
1.008,356.500,282.000,281.000,261.000
1.009,357.500,283.000,282.000,262.000
1.010,358.500,284.000,283.000,263.000
1.011,359.500,285.000,284.500,264.500
1.012,361.000,286.500,286.000,266.000
1.013,363.000,288.000,287.500,268.000
1.014,364.500,289.000,289.500,270.000
1.015,366.000,290.500,292.000,272.000
1.016,368.000,292.000,294.000,274.500
1.017,369.000,293.000,296.000,276.500
1.018,370.000,293.500,297.000,278.000
1.019,370.000,293.500,297.500,279.000
1.020,369.000,293.000,297.500,279.000
1.021,367.500,292.000,296.000,278.000
1.022,366.000,290.500,294.000,276.500
1.023,364.000,289.000,292.000,274.500
1.024,362.000,287.500,289.500,272.500
1.025,360.500,286.500,287.500,270.500
1.026,359.500,285.500,286.000,269.500
1.027,359.000,285.000,285.500,269.000
1.028,359.000,285.500,285.500,269.000
1.029,359.500,286.000,286.000,269.000
1.030,360.500,286.500,287.000,269.500
1.031,362.000,288.000,288.000,270.500
1.032,363.500,289.500,289.500,271.500
1.033,366.000,291.000,291.500,273.500
1.034,368.500,293.000,294.000,275.500
1.035,371.000,295.500,297.000,277.500
1.036,374.500,298.000,300.000,280.000
1.037,377.500,300.500,303.000,282.500
1.038,380.000,302.500,305.500,284.500
1.039,381.500,304.000,307.000,285.500
1.040,382.000,304.500,307.500,286.000
1.041,381.500,304.000,306.500,285.500
1.042,380.500,303.000,305.000,284.000
1.043,378.500,301.500,303.000,282.500
1.044,377.000,300.500,301.000,281.000
1.045,375.000,299.000,299.500,280.000
1.046,374.000,298.500,298.500,279.000
1.047,374.000,298.500,298.500,279.000
1.048,374.000,299.000,298.500,279.500
1.049,374.500,299.500,299.500,280.000
1.050,375.500,300.500,300.500,281.500
1.051,376.500,302.000,302.000,283.000
1.052,378.000,303.500,303.500,284.500
1.053,379.000,305.000,305.000,286.000
1.054,381.000,306.500,307.000,288.000
1.055,383.000,308.000,309.500,290.500
1.056,385.500,310.000,311.500,292.500
1.057,387.500,311.500,314.000,294.500
1.058,389.000,313.000,316.000,296.000
1.059,390.000,313.500,316.500,297.000
1.060,390.000,313.000,317.000,297.000
1.061,389.500,312.500,316.000,296.000
1.062,388.000,311.500,314.500,294.500
1.063,386.000,310.000,312.500,292.500
1.064,384.000,308.500,310.500,290.500
1.065,382.500,308.000,308.500,289.000
1.066,382.000,307.000,307.500,288.000
1.067,381.500,307.000,307.000,287.500
1.068,382.000,307.000,307.000,287.500
1.069,382.500,307.000,307.500,288.000
1.070,383.000,307.500,308.500,288.500
1.071,384.000,308.500,309.500,289.500
1.072,385.000,309.500,310.500,290.500
1.073,386.500,310.500,312.500,292.000
1.074,388.500,312.000,314.500,294.000
1.075,390.000,313.500,316.500,296.000
1.076,392.000,315.500,318.500,298.500
1.077,394.000,317.000,320.500,300.500
1.078,395.500,318.000,322.000,301.500
1.079,396.000,318.000,322.500,302.500
1.080,396.000,318.000,322.000,302.000
1.081,394.500,317.000,321.000,301.000
1.082,393.000,315.000,318.500,299.000
1.083,390.500,313.500,316.000,296.500
1.084,388.000,311.500,313.500,294.500
1.085,386.000,310.000,312.000,292.500
1.086,385.000,309.500,310.500,291.500
1.087,384.500,309.000,309.500,291.000
1.088,384.500,309.500,309.500,291.500
1.089,385.000,310.000,310.000,292.000
1.090,386.000,311.000,311.000,293.000
1.091,387.000,312.000,312.000,294.000
1.092,388.000,313.000,313.500,295.000
1.093,389.500,314.500,315.000,296.500
1.094,391.000,316.000,317.000,298.000
1.095,393.000,317.500,319.000,299.500
1.096,395.500,319.500,321.500,301.500
1.097,397.500,320.500,323.500,303.500
1.098,399.500,322.000,325.000,304.500
1.099,400.000,322.500,325.500,305.500
1.100,400.000,322.000,325.500,305.000
1.101,399.000,321.000,324.000,304.000
1.102,397.500,320.000,322.500,302.500
1.103,395.500,318.000,320.000,300.500
1.104,393.500,317.000,318.000,298.500
1.105,392.000,316.000,316.500,297.500
1.106,391.000,315.500,315.500,296.500
1.107,391.000,315.500,315.500,296.500
1.108,391.000,316.000,315.500,296.500
1.109,391.500,316.500,315.500,297.000
1.110,392.000,317.000,316.500,297.500
1.111,393.000,318.000,317.500,298.500
1.112,394.000,319.000,319.000,300.000
1.113,396.000,320.500,321.000,301.500
1.114,397.500,322.000,323.000,303.500
1.115,400.000,323.500,325.000,305.500
1.116,402.000,325.500,327.500,308.000
1.117,404.000,327.000,330.000,310.500
1.118,406.000,328.500,332.000,312.000
1.119,407.000,329.000,333.000,313.000
1.120,407.500,329.000,333.000,313.000
1.121,406.500,328.500,332.000,312.000
1.122,405.000,327.000,330.500,310.500
1.123,403.500,325.500,328.500,309.000
1.124,401.500,324.500,327.000,307.000
1.125,400.000,323.500,325.500,306.000
1.126,399.000,323.000,324.500,305.000
1.127,399.000,323.500,324.500,305.500
1.128,400.000,324.000,325.000,306.000
1.129,400.500,325.000,326.000,307.000
1.130,402.000,326.500,327.000,308.500
1.131,403.000,327.500,328.500,309.500
1.132,404.500,329.000,330.000,311.500
1.133,406.000,331.000,332.000,313.000
1.134,408.000,332.500,334.000,315.500
1.135,410.000,334.500,336.000,317.500
1.136,412.000,336.500,338.500,319.500
1.137,414.500,338.000,341.000,322.000
1.138,416.000,339.000,343.000,323.000
1.139,416.500,339.500,343.500,324.000
1.140,416.500,339.500,343.500,324.000
1.141,415.500,339.000,342.500,323.000
1.142,414.000,337.500,340.500,321.500
1.143,412.500,336.500,338.500,319.500
1.144,410.500,335.000,336.500,317.500
1.145,409.000,334.000,334.500,316.000
1.146,408.000,333.000,333.000,314.500
1.147,407.500,333.000,332.500,314.000
1.148,407.500,333.000,332.000,313.500
1.149,407.500,333.000,332.500,313.500
1.150,408.000,333.500,333.000,313.500
1.151,409.000,334.000,333.500,314.000
1.152,410.000,335.000,334.500,315.000
1.153,410.500,335.500,336.000,316.500
1.154,412.000,337.000,337.500,318.000
1.155,413.000,338.000,339.000,320.000
1.156,415.000,339.500,341.000,322.000
1.157,416.000,341.000,342.500,324.000
1.158,417.500,341.500,344.000,325.000
1.159,418.000,341.500,344.000,326.000
1.160,417.500,341.000,343.500,325.500
1.161,416.500,340.000,342.500,325.000
1.162,414.500,338.500,340.500,323.500
1.163,412.500,336.500,338.500,321.500
1.164,410.000,335.000,336.500,320.000
1.165,408.500,334.000,335.500,319.500
1.166,407.500,334.000,335.000,319.500
1.167,407.000,334.500,335.500,320.500
1.168,407.500,335.500,337.000,322.500
1.169,408.500,337.000,339.000,325.000
1.170,410.500,339.000,341.500,328.500
1.171,412.500,341.500,345.000,332.500
1.172,414.500,344.000,348.500,336.500
1.173,417.500,347.000,352.500,341.000
1.174,420.500,350.000,356.500,345.500
1.175,423.500,353.500,361.000,350.500
1.176,426.500,357.000,365.500,355.000
1.177,430.000,360.000,369.500,359.000
1.178,432.500,363.000,373.000,362.500
1.179,434.500,365.000,375.500,365.500
1.180,436.000,366.500,377.000,367.000
1.181,436.500,367.000,377.000,367.500
1.182,436.500,367.500,377.000,367.000
1.183,436.500,367.500,376.000,366.000
1.184,436.500,367.500,375.000,364.000
1.185,436.500,367.500,374.000,361.500
1.186,437.000,367.500,373.000,359.000
1.187,438.000,367.500,372.500,357.500
1.188,438.500,368.000,372.000,356.000
1.189,439.500,369.000,372.000,354.500
1.190,441.000,369.500,372.000,354.000
1.191,442.000,370.500,372.500,353.500
1.192,443.500,371.500,373.500,353.500
1.193,445.500,373.000,374.500,354.000
1.194,447.500,374.000,376.000,355.000
1.195,449.500,375.500,377.500,356.000
1.196,451.500,376.500,379.000,357.500
1.197,453.000,377.500,380.000,358.000
1.198,454.000,377.500,380.500,358.500
1.199,454.000,377.000,380.000,357.500
1.200,453.000,375.500,378.500,356.000
1.201,451.500,374.000,376.000,353.500
1.202,449.000,371.500,373.500,350.500
1.203,446.500,369.500,370.500,347.500
1.204,444.500,367.500,367.500,345.000
1.205,442.500,366.000,365.500,343.000
1.206,441.500,365.000,364.000,342.000
1.207,441.000,365.000,363.500,341.500
1.208,441.000,365.000,363.500,341.500
1.209,441.500,365.500,364.000,342.000
1.210,442.500,366.500,365.000,343.500
1.211,443.500,367.500,366.500,345.000
1.212,444.500,368.500,368.000,346.500
1.213,446.000,370.000,369.500,348.000
1.214,447.500,371.500,371.500,350.000
1.215,449.000,373.000,374.000,352.500
1.216,450.500,374.000,376.000,354.500
1.217,452.000,375.000,378.000,356.000
1.218,452.500,375.500,379.000,357.500
1.219,453.000,375.000,379.500,357.500
1.220,452.000,374.500,379.000,357.000
1.221,450.500,373.000,377.500,355.500
1.222,448.500,371.000,375.500,354.000
1.223,446.500,369.000,373.000,351.500
1.224,444.000,367.500,370.500,349.500
1.225,442.500,366.500,369.000,348.000
1.226,441.500,366.000,368.000,347.500
1.227,441.000,366.000,367.500,347.000
1.228,441.000,366.500,368.000,347.000
1.229,441.500,367.000,368.500,348.000
1.230,442.000,367.500,369.000,349.000
1.231,443.000,368.500,370.000,350.000
1.232,444.500,369.500,371.500,351.500
1.233,446.000,371.000,373.000,353.000
1.234,447.500,372.000,375.000,355.000
1.235,449.500,373.500,377.000,357.000
1.236,451.500,375.500,379.500,359.000
1.237,453.500,376.500,381.500,361.000
1.238,455.000,378.000,383.000,362.500
1.239,455.500,378.500,383.500,363.500
1.240,455.500,378.500,383.500,363.000
1.241,454.500,377.500,382.500,362.000
1.242,453.000,376.500,380.500,360.500
1.243,451.000,375.000,378.500,358.000
1.244,449.000,373.000,376.000,356.500
1.245,447.000,372.000,374.500,354.500
1.246,446.000,371.500,373.500,353.500
1.247,445.500,371.500,373.000,353.500
1.248,445.500,372.000,373.000,353.500
1.249,446.000,372.500,373.500,354.000
1.250,447.000,373.500,374.500,355.000
1.251,448.000,374.500,376.000,356.000
1.252,449.000,375.500,377.500,357.500
1.253,450.500,376.500,379.000,359.000
1.254,452.500,378.000,381.500,361.000
1.255,454.500,380.000,383.500,363.500
1.256,456.500,381.500,386.000,365.500
1.257,459.000,383.000,388.000,367.500
1.258,460.500,384.000,389.500,369.000
1.259,461.500,384.500,390.500,370.000
1.260,461.000,384.000,390.000,370.000
1.261,460.500,383.000,389.000,369.000
1.262,459.000,382.000,387.500,367.500
1.263,457.000,380.000,385.500,365.500
1.264,455.500,379.000,383.500,364.000
1.265,454.000,378.000,382.000,362.500
1.266,453.500,377.500,381.000,361.500
1.267,453.500,378.000,381.000,361.500
1.268,453.500,378.500,381.000,362.000
1.269,454.500,379.500,382.000,363.000
1.270,455.000,380.500,383.000,364.000
1.271,456.500,381.500,384.500,365.500
1.272,457.500,383.000,386.500,367.000
1.273,459.500,384.500,388.500,368.500
1.274,461.500,386.500,391.000,370.500
1.275,463.500,388.500,393.500,373.000
1.276,466.000,390.000,396.000,375.500
1.277,468.000,392.000,398.500,378.000
1.278,470.000,393.000,400.000,380.000
1.279,471.000,394.000,400.500,381.000
1.280,471.000,393.500,400.500,380.500
1.281,470.000,393.000,399.000,379.500
1.282,468.500,391.500,397.500,378.000
1.283,466.500,390.000,395.000,376.000
1.284,464.500,388.500,393.000,374.000
1.285,463.000,387.500,391.500,372.500
1.286,462.000,387.000,391.000,372.000
1.287,461.500,387.000,390.500,371.500
1.288,461.500,387.500,390.500,371.500
1.289,462.000,388.000,391.500,372.000
1.290,463.000,389.000,392.500,373.500
1.291,464.000,390.000,394.000,374.500
1.292,465.500,392.000,395.500,376.500
1.293,467.500,393.500,398.000,378.500
1.294,469.500,395.000,400.000,380.500
1.295,471.500,397.000,402.500,383.000
1.296,473.500,398.500,404.500,385.000
1.297,475.500,400.000,407.000,387.000
1.298,477.000,401.000,408.500,388.500
1.299,478.000,401.500,409.500,389.000
1.300,478.000,401.000,409.000,389.000
1.301,477.000,400.500,408.000,388.000
1.302,475.500,399.000,406.500,386.500
1.303,473.500,397.500,404.500,384.500
1.304,472.000,396.500,402.500,383.000
1.305,470.500,395.000,400.500,381.500
1.306,469.500,394.500,399.500,380.500
1.307,469.000,394.500,399.000,380.000
1.308,469.500,394.500,399.500,380.500
1.309,470.000,395.000,400.000,381.000
1.310,471.000,396.000,401.000,382.000
1.311,472.000,397.000,402.000,383.500
1.312,473.000,398.500,403.500,385.000
1.313,474.500,400.000,405.000,386.500
1.314,476.000,401.500,407.000,388.500
1.315,477.500,403.000,409.500,390.500
1.316,479.500,404.500,411.500,393.000
1.317,481.500,406.000,413.500,395.000
1.318,483.000,407.000,415.000,396.000
1.319,484.000,407.500,416.000,397.000
1.320,484.000,407.000,415.500,396.500
1.321,483.500,406.000,414.500,395.500
1.322,482.000,405.000,413.000,394.000
1.323,480.500,404.000,411.000,392.000
1.324,478.500,403.000,408.500,390.000
1.325,477.000,402.000,407.000,389.000
1.326,476.500,401.500,406.500,388.000
1.327,476.000,401.500,406.000,388.000
1.328,476.000,402.000,406.500,388.500
1.329,477.000,402.500,407.500,389.500
1.330,477.500,403.500,408.500,390.500
1.331,478.500,404.500,410.000,392.000
1.332,480.000,406.000,411.500,393.500
1.333,481.500,408.000,413.500,395.500
1.334,483.500,409.500,415.500,397.500
1.335,485.500,411.500,418.000,399.500
1.336,488.000,413.000,420.500,402.000
1.337,490.000,414.500,422.500,404.000
1.338,491.500,415.500,424.000,405.500
1.339,492.500,415.500,424.500,406.000
1.340,492.000,415.000,424.000,405.500
1.341,491.000,414.000,423.000,404.000
1.342,489.000,412.500,421.000,402.500
1.343,487.000,411.000,418.500,400.000
1.344,485.000,409.000,416.500,398.500
1.345,483.500,408.000,414.500,397.000
1.346,482.000,407.500,413.500,396.000
1.347,481.500,407.500,413.000,395.500
1.348,481.500,407.500,413.000,396.000
1.349,482.000,408.000,413.500,396.500
1.350,482.500,408.500,414.000,397.000
1.351,483.500,409.500,415.500,398.500
1.352,484.500,410.500,417.000,400.000
1.353,486.000,412.000,418.500,401.500
1.354,488.000,414.000,420.000,403.500
1.355,489.500,415.500,422.000,405.500
1.356,492.000,417.000,424.000,407.500
1.357,494.000,418.500,426.000,409.500
1.358,495.500,419.500,427.500,411.000
1.359,496.000,420.000,428.000,411.500
1.360,496.000,419.500,428.000,411.500
1.361,495.000,419.000,427.000,410.500
1.362,493.000,417.500,425.000,409.000
1.363,491.000,416.000,423.000,407.000
1.364,489.000,415.000,421.000,405.000
1.365,487.500,414.000,419.500,403.500
1.366,486.500,413.500,418.500,403.000
1.367,486.500,413.500,418.500,403.000
1.368,486.500,414.000,419.000,403.000
1.369,487.500,415.000,419.500,404.000
1.370,488.000,416.000,420.500,405.000
1.371,489.000,417.000,421.500,406.500
1.372,490.500,418.000,423.000,407.500
1.373,492.000,419.000,424.500,409.000
1.374,494.000,420.500,426.500,411.000
1.375,496.000,422.000,428.500,413.500
1.376,498.500,424.000,431.000,415.500
1.377,500.500,425.500,433.000,418.000
1.378,501.500,426.500,435.000,419.500
1.379,502.500,426.500,435.500,420.000
1.380,502.000,426.000,435.500,420.000
1.381,501.500,425.000,434.000,419.000
1.382,500.000,423.500,432.500,417.000
1.383,498.000,422.000,430.500,415.000
1.384,496.000,420.500,428.000,413.000
1.385,494.500,419.500,426.500,411.500
1.386,493.500,419.000,425.500,410.500
1.387,493.000,419.000,425.000,410.000
1.388,493.000,419.000,425.000,410.500
1.389,494.000,420.000,426.000,411.000
1.390,494.500,421.000,426.500,412.000
1.391,495.500,422.000,428.000,413.000
1.392,497.000,423.000,429.500,414.500
1.393,498.500,424.500,431.000,416.000
1.394,500.000,426.000,433.000,418.000
1.395,502.000,427.000,435.500,420.000
1.396,504.000,428.500,437.500,422.500
1.397,506.000,430.000,439.500,424.500
1.398,507.500,431.500,441.000,426.000
1.399,508.000,432.000,442.000,426.500
1.400,508.000,432.000,442.000,426.500
1.401,507.500,431.500,441.000,425.500
1.402,506.000,430.500,439.500,424.000
1.403,504.500,429.000,437.500,422.000
1.404,502.500,428.000,435.500,420.000
1.405,501.000,427.000,434.500,419.000
1.406,500.500,426.500,433.500,418.000
1.407,500.500,426.500,433.500,418.000
1.408,500.500,427.000,434.000,418.000
1.409,501.500,428.000,434.500,419.000
1.410,502.000,429.000,436.000,420.000
1.411,503.500,430.500,437.000,421.500
1.412,504.500,431.500,439.000,423.000
1.413,506.500,433.000,440.500,425.000
1.414,508.000,434.500,442.500,427.000
1.415,510.000,436.000,444.500,429.000
1.416,512.500,437.500,447.000,431.500
1.417,514.000,438.500,449.000,433.000
1.418,515.500,439.500,450.500,434.500
1.419,516.000,439.500,451.000,434.500
1.420,516.000,439.000,450.500,434.000
1.421,514.500,438.500,449.000,433.000
1.422,513.000,437.000,447.000,431.000
1.423,511.000,435.500,445.000,429.000
1.424,509.000,434.500,443.000,427.000
1.425,507.500,433.500,441.000,425.500
1.426,506.500,433.000,440.000,424.500
1.427,506.000,433.000,440.000,424.000
1.428,506.000,433.500,440.000,423.500
1.429,506.500,434.000,440.500,424.000
1.430,507.500,434.500,441.000,424.500
1.431,508.000,435.500,442.000,425.500
1.432,509.000,436.500,443.000,426.500
1.433,510.500,437.000,444.500,428.000
1.434,511.500,438.000,446.000,429.500
1.435,513.000,439.000,448.000,431.000
1.436,514.500,440.500,449.500,433.000
1.437,515.000,441.000,451.000,434.500
1.438,515.500,441.000,452.000,435.500
1.439,515.000,440.500,452.000,435.500
1.440,514.000,439.500,451.000,434.500
1.441,512.500,438.000,449.000,433.000
1.442,510.500,436.000,447.000,431.000
1.443,508.000,434.000,444.000,428.500
1.444,505.500,432.000,441.500,426.000
1.445,503.500,430.500,439.500,424.000
1.446,502.000,429.500,437.500,422.500
1.447,501.500,428.500,437.000,421.500
1.448,501.000,428.500,436.500,421.500
1.449,501.500,428.500,437.000,421.500
1.450,502.000,429.000,437.500,421.500
1.451,503.500,429.500,438.500,422.500
1.452,505.000,431.000,440.000,423.500
1.453,507.000,432.500,441.500,425.000
1.454,509.500,434.500,443.500,426.500
1.455,512.000,436.500,446.000,428.000
1.456,515.000,438.500,448.500,430.000
1.457,517.500,441.000,451.000,431.500
1.458,519.500,442.500,452.500,433.000
1.459,521.000,443.000,453.500,433.500
1.460,521.000,443.000,453.500,433.500
1.461,520.000,442.000,453.000,432.000
1.462,518.000,440.500,451.000,430.500
1.463,515.500,438.500,448.500,428.000
1.464,513.000,436.500,446.000,426.000
1.465,511.000,435.000,443.500,424.000
1.466,509.500,434.000,442.000,422.500
1.467,509.000,433.500,441.000,422.000
1.468,508.500,433.500,441.000,421.500
1.469,508.500,433.500,441.500,422.000
1.470,509.000,434.500,442.500,423.000
1.471,510.000,435.500,444.000,424.500
1.472,511.500,437.000,445.500,425.500
1.473,513.000,438.500,447.000,427.500
1.474,515.000,440.000,449.000,429.000
1.475,517.000,442.000,451.000,431.500
1.476,519.500,444.000,453.500,433.500
1.477,521.500,445.500,456.000,435.500
1.478,523.000,447.000,457.500,437.000
1.479,524.000,447.500,458.000,437.500
1.480,523.500,447.000,458.000,437.500
1.481,522.500,446.000,456.500,436.000
1.482,520.500,444.500,454.500,434.000
1.483,518.500,443.000,452.000,432.000
1.484,516.500,441.000,449.500,430.000
1.485,515.000,440.000,448.000,428.000
1.486,514.000,439.500,447.000,427.000
1.487,513.500,439.500,446.500,426.500
1.488,513.500,439.500,447.000,427.000
1.489,514.000,440.000,447.500,427.000
1.490,515.000,441.000,448.000,428.000
1.491,516.500,442.000,449.000,429.000
1.492,517.500,443.000,450.500,430.000
1.493,519.500,444.500,452.000,431.500
1.494,521.000,446.000,454.000,433.500
1.495,523.000,448.000,456.000,435.500
1.496,525.000,449.500,458.500,438.000
1.497,527.000,451.000,460.500,440.000
1.498,528.500,452.500,462.000,441.500
1.499,529.500,452.500,462.500,442.500
1.500,529.500,452.500,462.000,442.000
1.501,528.000,451.000,460.500,440.500
1.502,526.500,449.500,458.500,438.500
1.503,524.500,448.000,456.500,436.500
1.504,522.500,446.500,454.500,434.500
1.505,521.000,445.000,452.500,433.000
1.506,520.000,444.500,451.500,432.000
1.507,519.500,444.000,451.500,432.000
1.508,520.000,444.500,451.500,432.000
1.509,520.500,445.000,452.000,433.000
1.510,521.500,446.000,453.000,434.000
1.511,522.500,447.000,454.000,435.000
1.512,524.000,448.000,455.500,436.500
1.513,525.500,449.500,457.000,438.500
1.514,527.000,451.500,459.500,440.500
1.515,529.000,453.000,462.000,442.500
1.516,531.000,455.000,464.000,444.500
1.517,533.000,456.000,466.500,446.500
1.518,534.500,457.000,468.000,447.500
1.519,535.000,457.500,468.500,448.500
1.520,535.000,457.000,468.000,448.000
1.521,534.000,456.000,466.500,447.000
1.522,532.500,454.500,465.000,445.500
1.523,530.500,453.000,463.000,443.500
1.524,528.500,451.500,461.000,441.500
1.525,527.500,450.500,459.500,440.500
1.526,526.500,450.000,459.000,439.500
1.527,526.500,450.000,458.500,439.500
1.528,526.500,450.500,459.000,440.000
1.529,527.000,451.500,459.500,440.500
1.530,528.000,452.500,460.500,442.000
1.531,529.000,453.500,462.000,443.000
1.532,530.500,454.500,463.500,444.500
1.533,532.000,455.500,465.000,446.000
1.534,533.500,457.000,467.000,447.500
1.535,535.500,458.500,469.000,449.500
1.536,537.500,460.500,471.000,451.500
1.537,539.500,461.500,473.000,453.000
1.538,541.000,462.500,474.000,454.500
1.539,541.500,462.500,474.500,455.000
1.540,541.500,462.000,474.000,454.500
1.541,540.500,461.000,472.500,453.000
1.542,538.500,459.500,470.500,451.000
1.543,536.500,458.000,468.000,449.000
1.544,534.500,456.000,465.500,447.000
1.545,532.500,455.000,464.000,445.500
1.546,531.500,454.500,463.000,444.500
1.547,531.000,454.500,462.500,444.000
1.548,531.000,454.500,462.500,444.000
1.549,531.500,455.000,463.000,444.500
1.550,532.500,455.500,464.000,445.500
1.551,533.500,457.000,465.000,446.500
1.552,535.000,458.000,466.500,447.500
1.553,536.500,459.000,468.500,449.000
1.554,538.500,460.500,470.500,451.000
1.555,540.000,462.000,472.500,453.500
1.556,542.000,463.500,474.500,455.500
1.557,543.500,465.000,476.500,457.500
1.558,545.000,466.000,478.000,458.500
1.559,545.500,466.000,478.500,459.000
1.560,545.000,465.500,478.000,458.500
1.561,544.000,464.500,476.500,457.500
1.562,542.500,463.000,475.000,455.500
1.563,540.500,461.500,472.500,453.500
1.564,538.500,460.000,470.500,451.500
1.565,537.000,459.000,468.500,450.000
1.566,536.000,458.500,467.500,449.000
1.567,536.000,458.500,467.000,449.000
1.568,536.000,458.500,467.500,449.000
1.569,536.500,459.000,468.000,449.500
1.570,537.000,459.500,468.500,450.000
1.571,537.500,460.500,470.000,451.000
1.572,538.500,461.000,471.000,452.000
1.573,540.000,462.000,472.500,453.500
1.574,541.500,463.500,474.000,455.000
1.575,543.500,465.000,476.000,457.000
1.576,545.500,466.500,478.500,459.500
1.577,547.500,468.000,480.000,461.000
1.578,548.500,469.000,481.500,462.500
1.579,549.000,469.000,482.000,462.500
1.580,549.000,469.000,482.000,462.000
1.581,548.000,468.000,480.500,460.500
1.582,546.000,466.500,479.000,459.000
1.583,544.000,465.000,476.500,456.500
1.584,542.000,464.000,474.500,454.500
1.585,540.000,463.000,472.500,453.000
1.586,539.000,462.000,471.500,452.500
1.587,538.500,462.000,471.000,452.000
1.588,538.500,462.000,471.000,452.000
1.589,539.000,462.500,471.500,453.000
1.590,539.500,463.000,472.500,453.500
1.591,540.500,464.500,474.000,455.000
1.592,542.000,465.500,475.500,456.000
1.593,543.500,467.000,477.500,457.500
1.594,545.000,468.500,479.500,459.500
1.595,547.000,470.000,481.500,461.500
1.596,548.500,471.500,483.500,463.500
1.597,550.500,473.000,485.500,465.500
1.598,551.500,473.500,487.000,466.500
1.599,552.000,473.500,487.500,467.000
1.600,551.500,473.000,487.000,466.500
1.601,550.500,472.000,485.500,465.000
1.602,548.500,470.500,483.500,463.000
1.603,546.500,469.000,481.000,460.500
1.604,544.500,467.500,479.000,458.500
1.605,543.000,466.500,477.000,457.000
1.606,542.000,466.000,476.000,456.000
1.607,541.500,466.000,475.500,456.000
1.608,542.000,466.500,476.000,456.000
1.609,542.500,467.000,476.500,456.500
1.610,543.000,467.500,477.500,457.500
1.611,544.000,468.500,479.000,458.500
1.612,545.500,469.500,480.000,460.000
1.613,546.500,471.000,482.000,461.500
1.614,548.000,472.000,483.500,463.500
1.615,550.000,473.500,485.500,465.500
1.616,552.000,475.000,488.000,467.500
1.617,554.000,476.000,489.500,469.000
1.618,555.000,476.500,490.500,470.000
1.619,555.500,476.500,491.000,470.000
1.620,555.000,476.000,490.500,469.500
1.621,553.500,474.500,489.000,468.000
1.622,552.000,473.000,487.000,466.000
1.623,550.000,471.500,485.000,464.000
1.624,548.000,470.000,482.500,462.000
1.625,546.500,469.000,481.000,460.500
1.626,545.000,468.500,479.500,459.500
1.627,544.500,468.000,479.000,459.000
1.628,544.500,468.000,479.000,459.000
1.629,545.000,468.500,479.500,460.000
1.630,545.500,469.000,480.000,460.500
1.631,546.500,470.000,481.500,461.500
1.632,547.500,471.000,482.500,463.000
1.633,549.000,472.000,484.000,464.500
1.634,550.500,473.500,486.000,466.000
1.635,552.500,475.000,488.000,468.000
1.636,554.500,477.000,490.000,470.000
1.637,556.500,478.500,492.000,471.500
1.638,557.500,479.500,493.500,473.000
1.639,558.000,480.000,494.500,473.500
1.640,558.000,479.500,494.000,473.000
1.641,557.000,478.500,492.500,472.000
1.642,555.000,477.500,491.000,470.000
1.643,553.000,476.000,488.500,468.000
1.644,551.000,474.500,486.500,466.000
1.645,549.500,473.000,485.000,464.000
1.646,548.500,472.500,483.500,463.000
1.647,548.000,472.000,483.000,462.500
1.648,548.000,472.000,482.500,462.500
1.649,548.500,472.000,483.000,463.000
1.650,549.000,472.500,483.500,463.500
1.651,549.500,473.500,484.500,464.500
1.652,550.500,474.500,485.500,465.500
1.653,552.000,475.500,487.000,467.000
1.654,553.500,477.000,489.000,468.500
1.655,555.000,478.500,491.000,470.500
1.656,557.000,480.000,493.000,472.500
1.657,558.500,481.000,495.000,474.000
1.658,560.000,482.000,496.000,475.500
1.659,560.500,482.500,496.500,476.000
1.660,560.000,482.000,496.500,475.500
1.661,559.000,480.500,495.000,474.000
1.662,557.000,479.000,493.000,472.000
1.663,555.000,477.500,490.500,470.000
1.664,553.000,475.500,488.500,467.500
1.665,551.000,474.500,486.500,466.000
1.666,550.000,473.500,485.500,464.500
1.667,549.500,473.500,485.000,464.000
1.668,549.000,473.500,485.000,464.000
1.669,549.500,474.000,485.500,464.500
1.670,550.500,475.000,486.000,465.500
1.671,551.500,476.000,487.500,466.500
1.672,552.500,476.500,488.500,468.000
1.673,554.000,478.000,490.000,469.500
1.674,555.500,479.000,492.000,471.000
1.675,557.000,480.500,494.000,473.000
1.676,559.000,482.000,496.000,474.500
1.677,561.000,483.000,498.000,476.500
1.678,562.000,484.000,499.000,477.500
1.679,562.500,484.000,499.500,478.000
1.680,562.000,483.500,498.500,477.500
1.681,560.500,482.000,497.000,476.000
1.682,558.500,480.500,495.000,474.000
1.683,556.500,479.000,493.000,472.000
1.684,554.500,477.500,491.000,470.000
1.685,553.000,476.500,489.500,468.500
1.686,552.000,476.000,488.500,467.500
1.687,551.500,476.000,488.000,467.500
1.688,551.500,476.000,488.500,468.000
1.689,551.500,476.500,489.000,468.500
1.690,552.000,477.000,490.000,469.500
1.691,553.000,478.000,491.000,470.500
1.692,554.000,479.000,492.000,471.500
1.693,555.000,480.000,493.000,473.000
1.694,556.500,481.000,494.500,474.500
1.695,558.500,482.500,496.500,476.500
1.696,560.500,484.500,498.500,478.500
1.697,562.000,485.500,500.500,480.000
1.698,563.500,486.500,502.000,481.500
1.699,564.000,486.500,502.500,482.000
1.700,563.500,486.500,502.500,481.500
1.701,562.500,485.500,501.000,480.500
1.702,561.000,484.000,499.000,478.500
1.703,559.000,483.000,497.000,476.500
1.704,557.000,481.500,495.000,474.500
1.705,555.500,480.000,493.500,473.000
1.706,554.500,479.500,492.000,472.000
1.707,554.500,479.500,491.500,471.500
1.708,554.500,479.500,491.500,471.500
1.709,554.500,479.500,492.000,472.000
1.710,555.000,480.000,492.500,472.500
1.711,555.500,481.000,493.500,473.000
1.712,556.500,482.000,494.500,474.000
1.713,557.500,483.000,496.000,475.500
1.714,559.500,484.500,498.000,477.500
1.715,561.000,486.000,500.000,479.500
1.716,563.000,487.500,502.500,481.500
1.717,565.000,489.000,504.500,483.000
1.718,566.500,489.500,505.500,484.500
1.719,567.500,490.000,506.000,485.000
1.720,567.500,490.000,506.000,484.500
1.721,566.500,489.000,504.500,483.500
1.722,564.500,487.500,503.000,481.500
1.723,562.500,486.000,501.000,479.500
1.724,560.500,484.500,498.500,477.500
1.725,559.000,483.500,497.000,476.000
1.726,558.000,483.000,496.000,475.000
1.727,558.000,483.500,495.500,475.000
1.728,558.000,483.500,496.000,475.000
1.729,558.500,484.500,496.500,475.500
1.730,559.000,485.000,497.000,476.000
1.731,560.000,486.000,498.500,477.000
1.732,561.000,487.000,499.500,478.500
1.733,562.500,488.000,501.000,479.500
1.734,563.500,489.000,503.000,481.500
1.735,565.500,490.500,505.000,483.000
1.736,567.000,492.500,507.000,485.000
1.737,568.500,493.500,508.500,486.500
1.738,569.500,494.000,509.500,487.500
1.739,570.000,494.000,510.000,488.000
1.740,569.500,493.500,509.000,487.500
1.741,568.500,492.000,507.500,486.000
1.742,566.500,490.500,505.500,484.000
1.743,564.500,489.000,503.500,482.000
1.744,562.500,487.500,501.500,480.000
1.745,561.000,486.000,500.000,478.000
1.746,560.000,485.500,499.000,477.000
1.747,559.500,485.500,498.500,476.500
1.748,559.500,485.500,498.500,476.500
1.749,560.000,486.000,499.000,477.000
1.750,560.500,487.000,499.500,477.500
1.751,561.000,487.500,500.500,478.000
1.752,562.000,489.000,501.500,479.500
1.753,563.000,490.000,503.000,481.000
1.754,564.500,491.000,504.500,482.500
1.755,566.000,492.500,506.500,484.500
1.756,568.000,494.000,509.000,486.500
1.757,570.000,495.500,511.000,488.000
1.758,571.000,496.500,512.500,489.500
1.759,572.000,497.000,513.000,490.000
1.760,571.500,496.500,512.500,489.500
1.761,570.500,495.500,511.000,488.500
1.762,569.000,494.000,509.000,486.500
1.763,567.000,492.500,506.500,484.500
1.764,565.000,490.500,504.500,482.500
1.765,563.500,489.500,502.500,480.500
1.766,562.500,488.500,501.500,479.500
1.767,562.000,488.500,501.000,478.500
1.768,561.500,488.500,501.000,478.500
1.769,562.000,489.000,501.500,478.500
1.770,562.500,489.500,502.000,479.500
1.771,563.500,490.500,503.500,480.500
1.772,565.000,491.500,504.500,482.000
1.773,566.500,493.000,506.500,483.500
1.774,568.000,494.500,508.500,485.500
1.775,570.000,496.000,511.000,487.500
1.776,572.000,498.000,513.000,489.000
1.777,574.000,499.000,515.000,491.000
1.778,575.000,500.000,516.000,492.000
1.779,575.500,500.000,516.000,492.000
1.780,575.000,499.000,515.500,491.500
1.781,574.000,498.000,514.000,489.500
1.782,572.000,496.000,511.500,487.500
1.783,569.500,494.000,508.500,484.500
1.784,567.000,492.000,506.000,482.000
1.785,564.500,490.500,503.500,480.000
1.786,563.000,489.500,502.500,478.500
1.787,562.000,489.000,501.500,477.500
1.788,561.500,489.000,501.500,477.500
1.789,561.500,489.000,502.000,478.000
1.790,562.500,489.500,502.500,478.500
1.791,563.000,490.000,503.500,479.500
1.792,564.000,491.000,504.500,481.000
1.793,565.000,491.500,506.000,482.500
1.794,566.000,492.500,507.500,484.000
1.795,567.000,493.000,509.000,486.000
1.796,568.000,494.000,511.000,488.000
1.797,569.000,495.000,512.500,490.000
1.798,570.000,495.500,513.500,491.000
1.799,570.000,495.000,513.500,492.000
1.800,569.500,494.500,513.000,492.000
1.801,568.000,493.500,512.000,492.000
1.802,566.000,492.000,510.500,491.000
1.803,564.000,491.000,509.500,490.500
1.804,562.500,490.000,508.500,490.500
1.805,561.500,490.000,508.500,491.500
1.806,561.000,490.500,509.500,493.000
1.807,561.500,491.500,511.000,495.500
1.808,562.500,493.000,513.000,498.000
1.809,564.000,495.000,515.500,501.000
1.810,565.500,497.500,518.500,504.500
1.811,568.000,500.000,521.500,507.500
1.812,570.000,503.000,524.500,511.000
1.813,572.500,505.500,527.500,514.500
1.814,575.000,508.500,531.000,518.000
1.815,578.000,511.000,534.500,521.000
1.816,581.000,514.000,537.500,524.000
1.817,584.000,516.500,540.500,526.500
1.818,587.000,518.000,542.500,528.000
1.819,589.000,519.000,543.000,527.500
1.820,589.500,519.000,542.500,526.000
1.821,589.500,518.000,541.000,523.000
1.822,588.500,516.500,538.500,519.000
1.823,587.500,514.500,535.500,515.500
1.824,586.000,513.000,532.500,511.500
1.825,585.000,511.500,530.000,508.000
1.826,584.000,511.000,528.000,505.000
1.827,584.000,510.500,527.000,503.000
1.828,584.000,510.000,526.500,501.500
1.829,584.000,510.000,526.000,500.500
1.830,584.500,510.000,526.500,500.500
1.831,585.000,510.500,526.500,500.000
1.832,585.000,510.500,526.000,500.000
1.833,585.500,510.500,526.000,500.000
1.834,586.000,510.500,526.500,500.000
1.835,587.500,511.000,527.000,500.500
1.836,588.500,511.500,528.000,501.000
1.837,589.500,512.000,529.000,501.500
1.838,590.500,512.000,529.500,502.000
1.839,590.500,511.500,530.000,502.000
1.840,590.000,511.000,529.000,501.500
1.841,589.000,509.500,528.000,500.500
1.842,587.000,508.000,525.500,498.500
1.843,585.000,506.000,523.500,496.500
1.844,582.500,504.500,521.000,494.500
1.845,580.500,503.000,519.500,492.500
1.846,579.500,502.500,518.500,491.500
1.847,579.000,502.000,518.000,491.000
1.848,578.500,502.500,517.500,490.500
1.849,578.500,502.500,518.000,491.000
1.850,578.500,503.000,518.500,492.000
1.851,578.500,503.500,519.000,493.000
1.852,579.000,504.000,520.000,494.000
1.853,579.000,504.500,521.000,495.500
1.854,579.500,505.000,522.500,497.000
1.855,580.500,505.500,523.500,498.500
1.856,581.000,506.000,525.000,500.500
1.857,581.500,506.500,525.500,502.000
1.858,581.500,506.000,526.000,502.500
1.859,581.000,505.500,525.500,503.000
1.860,580.000,504.500,524.500,502.500
1.861,578.000,502.500,522.500,501.000
1.862,576.000,500.500,520.500,499.000
1.863,573.500,498.500,517.500,497.000
1.864,571.500,496.500,515.500,494.500
1.865,569.000,495.000,513.500,493.000
1.866,567.500,494.000,512.000,491.500
1.867,566.500,493.500,511.500,491.000
1.868,566.500,493.500,511.000,490.500
1.869,566.500,493.500,511.000,490.500
1.870,567.000,494.000,511.500,490.500
1.871,568.500,495.000,512.000,491.000
1.872,570.000,496.500,513.500,492.000
1.873,572.500,498.000,515.500,493.500
1.874,575.000,500.000,517.500,495.500
1.875,577.500,502.000,520.000,497.000
1.876,580.000,504.000,522.000,499.000
1.877,582.500,505.500,524.000,500.500
1.878,584.500,506.500,525.500,502.000
1.879,585.000,507.000,526.500,502.500
1.880,585.000,506.500,526.000,502.000
1.881,583.500,505.500,524.500,500.500
1.882,582.000,504.000,522.500,499.000
1.883,579.500,502.000,520.500,496.500
1.884,577.000,500.000,518.000,494.500
1.885,575.000,498.500,516.000,492.500
1.886,573.000,497.500,514.500,491.500
1.887,572.500,497.000,514.000,491.000
1.888,572.000,497.000,513.500,490.500
1.889,572.000,497.000,514.000,491.000
1.890,573.000,497.500,514.500,491.500
1.891,573.500,498.000,515.500,492.500
1.892,574.500,499.000,516.500,493.500
1.893,575.500,500.000,518.000,494.500
1.894,577.000,501.000,520.000,496.500
1.895,578.500,502.500,522.000,498.500
1.896,580.500,503.500,524.000,500.500
1.897,582.000,505.000,526.000,502.000
1.898,583.000,505.500,527.000,503.500
1.899,583.500,505.500,527.000,503.500
1.900,583.000,504.500,526.000,503.000
1.901,581.500,503.000,524.500,501.500
1.902,579.500,501.500,522.500,500.000
1.903,577.500,500.000,520.000,497.500
1.904,576.000,498.500,518.000,495.500
1.905,574.500,497.000,516.000,493.500
1.906,573.500,496.500,515.000,492.500
1.907,573.000,496.000,514.000,492.000
1.908,572.500,496.000,514.000,491.500
1.909,572.500,496.000,514.000,491.500
1.910,573.000,496.000,514.500,492.000
1.911,573.500,497.000,515.000,492.500
1.912,574.000,497.500,516.500,493.500
1.913,575.000,499.000,517.500,495.000
1.914,576.500,500.000,519.500,496.500
1.915,578.500,501.500,521.000,498.500
1.916,580.500,503.500,523.000,500.500
1.917,582.000,504.500,524.500,502.000
1.918,583.000,505.500,525.500,503.500
1.919,583.000,505.500,526.000,503.500
1.920,582.500,505.000,525.500,503.000
1.921,581.000,504.000,524.000,501.500
1.922,579.500,502.500,522.000,499.500
1.923,577.500,500.500,519.500,497.500
1.924,575.000,499.000,517.000,495.000
1.925,573.500,497.500,515.500,493.500
1.926,572.500,496.500,514.000,492.000
1.927,572.000,496.000,513.000,491.500
1.928,571.500,496.000,513.000,491.000
1.929,571.500,496.000,513.000,491.000
1.930,571.500,496.000,513.500,491.500
1.931,572.000,496.500,514.500,492.500
1.932,572.500,497.500,515.500,493.500
1.933,574.000,498.500,516.500,494.500
1.934,575.500,499.500,518.500,496.500
1.935,577.000,501.000,520.000,498.000
1.936,578.500,502.000,522.000,500.000
1.937,580.000,503.500,523.500,501.500
1.938,581.000,504.000,524.500,502.500
1.939,581.000,504.000,525.000,502.500
1.940,580.500,503.000,524.000,501.500
1.941,579.000,502.000,522.500,500.000
1.942,577.000,500.000,520.500,497.500
1.943,575.000,498.000,518.000,495.500
1.944,572.500,496.500,515.500,493.000
1.945,570.500,495.000,514.000,491.500
1.946,569.000,494.000,512.500,490.500
1.947,568.500,493.500,511.500,489.500
1.948,568.000,493.500,511.000,489.500
1.949,568.000,493.500,511.000,489.500
1.950,568.500,494.000,511.500,490.000
1.951,569.000,494.500,512.500,490.500
1.952,570.000,495.500,513.500,491.500
1.953,571.000,496.000,515.000,492.500
1.954,572.000,497.000,516.500,494.000
1.955,573.500,498.000,518.500,496.000
1.956,575.500,499.500,520.500,498.000
1.957,577.000,500.500,522.000,499.500
1.958,577.500,501.000,523.000,500.500
1.959,578.000,501.000,523.500,500.500
1.960,577.000,500.500,522.500,499.500
1.961,575.500,499.000,521.000,498.500
1.962,573.500,497.000,518.500,496.000
1.963,571.000,495.000,516.000,494.000
1.964,568.500,493.000,513.500,492.000
1.965,567.000,491.500,511.500,490.500
1.966,566.000,491.000,510.500,489.500
1.967,565.000,490.500,510.000,489.000
1.968,565.000,491.000,510.000,489.000
1.969,565.500,491.500,510.500,489.500
1.970,566.000,492.000,511.500,490.000
1.971,567.000,493.500,512.500,491.000
1.972,568.000,494.500,513.500,492.000
1.973,569.000,495.500,515.000,493.500
1.974,570.500,496.500,516.500,495.000
1.975,572.000,497.500,518.000,497.000
1.976,573.500,499.000,520.000,499.000
1.977,575.000,500.000,521.500,500.500
1.978,575.500,500.500,523.000,501.000
1.979,576.000,500.500,523.000,501.500
1.980,575.500,499.500,522.500,500.500
1.981,574.000,498.500,521.500,499.500
1.982,572.500,497.000,519.500,497.500
1.983,570.500,495.500,517.000,495.500
1.984,568.500,494.000,515.000,494.000
1.985,567.000,493.000,514.000,492.500
1.986,566.500,492.500,513.000,492.000
1.987,566.000,492.500,513.000,492.000
1.988,566.000,493.000,513.000,492.000
1.989,566.500,493.500,513.500,493.000
1.990,567.000,494.500,514.000,493.500
1.991,568.000,495.500,515.000,494.500
1.992,569.000,496.500,516.000,496.000
1.993,570.000,497.500,517.500,497.500
1.994,571.500,499.000,519.500,499.500
1.995,573.500,500.000,521.500,501.500
1.996,575.000,501.500,523.500,503.500
1.997,576.500,502.500,525.000,505.000
1.998,578.000,503.500,526.000,506.000
1.999,578.000,503.500,526.500,506.000
2.000,577.500,502.500,525.500,505.500
2.001,576.000,501.000,524.000,504.000
2.002,574.000,499.500,522.000,501.500
2.003,571.500,497.500,519.500,499.500
2.004,569.000,496.000,517.500,497.500
2.005,567.500,494.500,516.000,496.000
2.006,566.000,493.500,515.000,495.000
2.007,565.500,493.500,514.500,494.500
2.008,565.500,493.500,514.500,494.500
2.009,565.500,494.000,514.500,495.000
2.010,566.000,494.500,515.500,496.000
2.011,566.500,495.500,516.500,496.500
2.012,567.500,496.000,517.500,497.500
2.013,568.500,497.000,518.500,499.000
2.014,569.500,498.000,519.500,500.000
2.015,571.000,499.000,521.500,502.000
2.016,573.000,500.500,523.500,503.500
2.017,574.500,501.500,525.500,505.000
2.018,575.500,502.000,526.500,506.500
2.019,575.500,502.000,526.500,506.500
2.020,575.000,501.000,526.000,506.000
2.021,573.500,500.000,524.500,504.500
2.022,571.500,498.500,522.000,502.500
2.023,569.500,496.500,519.500,500.500
2.024,567.500,495.000,517.500,498.500
2.025,566.000,494.000,515.500,497.000
2.026,565.000,493.000,514.500,496.500
2.027,564.500,493.000,514.500,496.000
2.028,564.500,493.500,514.500,496.000
2.029,565.000,494.000,515.000,496.500
2.030,565.500,494.500,515.500,497.000
2.031,566.000,495.000,516.500,498.000
2.032,567.000,496.000,517.500,499.000
2.033,568.000,497.000,519.000,500.000
2.034,569.500,498.000,521.000,502.000
2.035,571.000,499.500,523.000,503.500
2.036,573.000,501.000,525.000,505.500
2.037,574.500,502.000,526.500,507.500
2.038,575.500,502.500,528.000,508.500
2.039,576.000,502.500,528.000,508.500
2.040,575.500,502.000,527.500,508.000
2.041,574.000,500.500,526.000,506.500
2.042,572.000,499.000,524.000,504.500
2.043,570.000,497.000,521.500,502.000
2.044,568.000,495.500,519.000,500.000
2.045,566.000,494.000,517.000,498.500
2.046,565.000,493.500,516.000,497.500
2.047,564.000,493.000,515.500,497.000
2.048,564.000,493.000,515.500,496.500
2.049,564.000,493.000,515.500,497.000
2.050,564.000,493.500,516.500,497.500
2.051,564.500,494.000,517.000,498.500
2.052,565.500,495.000,518.500,499.500
2.053,566.500,496.000,519.500,501.000
2.054,568.000,497.000,521.000,502.500
2.055,570.000,498.500,522.500,504.000
2.056,571.500,500.000,524.500,505.500
2.057,573.500,501.000,526.000,507.000
2.058,574.500,501.500,527.000,507.500
2.059,575.000,502.000,527.000,507.500
2.060,574.000,501.000,526.000,507.000
2.061,572.500,499.500,524.500,505.000
2.062,570.500,497.500,522.000,502.500
2.063,568.000,495.500,519.500,500.000
2.064,566.000,493.500,517.000,497.500
2.065,564.000,492.000,515.500,495.500
2.066,563.000,491.000,514.500,494.500
2.067,562.000,490.500,513.500,494.000
2.068,562.000,490.500,513.500,493.500
2.069,562.500,491.000,514.000,494.000
2.070,563.000,491.500,514.500,494.500
2.071,563.500,492.000,515.000,495.500
2.072,564.500,493.000,516.000,496.500
2.073,565.500,494.000,517.500,497.500
2.074,566.500,495.000,519.000,499.000
2.075,568.000,496.500,520.500,501.000
2.076,569.500,497.500,522.500,502.500
2.077,571.000,498.500,524.000,503.500
2.078,572.000,499.000,525.000,504.500
2.079,572.000,499.000,524.500,504.000
2.080,571.500,498.000,524.000,503.000
2.081,570.000,496.500,522.000,501.500
2.082,568.000,495.000,519.500,499.000
2.083,565.500,493.000,517.000,496.500
2.084,563.500,491.500,514.500,494.500
2.085,562.000,490.000,512.500,492.500
2.086,560.500,489.500,511.500,491.500
2.087,560.500,489.000,511.000,491.000
2.088,560.500,489.500,511.000,491.000
2.089,560.500,489.500,511.000,491.000
2.090,561.000,490.000,511.500,491.500
2.091,562.000,490.500,512.500,492.000
2.092,562.500,491.500,513.500,492.500
2.093,563.500,492.000,514.500,493.500
2.094,564.500,493.000,516.000,494.500
2.095,566.000,494.500,518.000,496.000
2.096,567.500,495.500,519.500,498.000
2.097,569.000,496.500,521.000,499.500
2.098,569.500,496.500,522.000,500.000
2.099,569.500,496.500,522.000,500.000
2.100,569.000,495.500,521.000,499.000
2.101,567.500,494.500,519.500,497.500
2.102,565.500,493.000,517.500,495.500
2.103,563.000,491.000,515.000,493.000
2.104,561.000,489.500,512.500,490.500
2.105,559.000,488.000,510.500,489.000
2.106,558.000,487.500,509.500,488.000
2.107,557.500,487.000,509.000,487.000
2.108,557.500,487.000,509.000,487.000
2.109,558.000,487.000,509.500,487.500
2.110,558.500,487.500,510.000,488.000
2.111,559.500,488.000,511.000,488.500
2.112,560.500,489.000,512.000,490.000
2.113,562.000,490.500,513.500,491.000
2.114,563.500,492.000,515.000,492.500
2.115,565.000,493.500,516.500,494.500
2.116,566.500,494.500,518.500,496.000
2.117,568.000,495.500,520.000,497.500
2.118,569.000,496.000,521.000,498.000
2.119,569.000,495.500,520.500,498.000
2.120,568.000,495.000,519.500,497.000
2.121,566.500,493.500,518.000,495.500
2.122,564.500,491.500,515.500,493.000
2.123,562.000,489.500,513.000,490.500
2.124,559.500,488.000,510.500,488.000
2.125,558.000,486.500,509.000,486.500
2.126,557.000,485.500,508.000,485.000
2.127,556.000,485.000,507.000,484.500
2.128,556.000,485.000,507.000,484.500
2.129,556.500,485.000,507.000,485.000
2.130,557.000,486.000,508.000,485.500
2.131,558.000,487.000,508.500,486.000
2.132,559.000,488.000,510.000,487.000
2.133,560.500,489.000,511.000,488.500
2.134,562.000,490.500,513.000,490.000
2.135,564.000,492.000,514.500,492.000
2.136,565.500,493.500,517.000,494.000
2.137,567.500,495.000,518.500,496.000
2.138,568.500,496.000,520.000,497.000
2.139,568.500,496.000,520.500,497.500
2.140,568.000,495.500,520.000,497.000
2.141,566.500,494.500,518.500,495.500
2.142,564.500,493.000,516.500,493.500
2.143,562.500,491.500,514.500,491.500
2.144,560.500,490.000,512.000,489.500
2.145,559.000,489.000,510.500,488.000
2.146,558.000,489.000,509.500,487.000
2.147,557.500,489.000,509.000,486.500
2.148,557.500,489.500,509.000,487.000
2.149,558.000,490.000,509.500,487.500
2.150,558.500,490.500,510.000,488.000
2.151,559.500,491.500,511.500,489.000
2.152,561.000,492.500,513.000,490.500
2.153,562.000,493.500,514.500,491.500
2.154,563.500,495.000,516.500,493.000
2.155,565.500,496.500,518.500,495.000
2.156,567.500,498.000,520.500,497.000
2.157,569.000,499.000,522.500,498.500
2.158,570.000,500.000,523.500,499.500
2.159,570.500,500.000,524.000,500.000
2.160,570.000,499.000,523.000,499.500
2.161,568.500,498.000,521.500,498.000
2.162,567.000,496.500,519.500,496.000
2.163,565.000,494.500,517.000,493.500
2.164,563.000,493.500,515.000,492.000
2.165,561.500,492.500,513.500,490.500
2.166,560.500,491.500,512.500,489.500
2.167,560.000,491.500,512.000,489.000
2.168,560.000,491.500,512.000,489.000
2.169,560.000,491.500,512.500,489.000
2.170,560.500,492.000,513.000,489.500
2.171,561.000,493.000,514.000,490.500
2.172,562.000,494.000,515.500,491.500
2.173,563.500,495.000,517.000,493.000
2.174,565.000,496.500,519.000,495.000
2.175,567.000,498.000,520.500,497.000
2.176,569.000,499.500,522.500,499.000
2.177,570.500,500.500,524.000,500.500
2.178,571.500,501.500,525.000,501.500
2.179,572.000,501.500,525.000,502.000
2.180,571.000,500.500,524.000,501.000
2.181,569.500,499.500,522.500,499.500
2.182,567.500,497.500,520.000,497.000
2.183,565.000,496.000,517.500,495.000
2.184,563.000,494.500,515.500,492.500
2.185,561.000,493.000,513.500,491.000
2.186,560.000,492.000,512.500,489.500
2.187,559.000,491.500,512.000,489.000
2.188,558.500,491.500,512.000,489.000
2.189,559.000,492.000,512.000,489.000
2.190,559.000,492.500,512.500,489.500
2.191,560.000,493.000,513.500,490.000
2.192,561.000,493.500,514.500,491.000
2.193,562.000,494.500,516.000,492.000
2.194,563.000,496.000,517.500,493.500
2.195,564.500,497.000,519.000,495.000
2.196,566.500,498.500,521.000,496.500
2.197,568.000,499.500,522.500,498.000
2.198,569.000,500.000,523.500,499.000
2.199,569.000,500.000,523.500,499.000
2.200,568.500,499.000,522.500,498.000
2.201,567.000,497.500,521.000,496.500
2.202,565.000,495.500,518.500,494.000
2.203,562.500,494.000,516.000,491.500
2.204,560.000,492.000,513.500,489.500
2.205,558.500,491.000,511.500,487.500
2.206,557.000,490.000,510.000,486.000
2.207,556.500,490.000,509.500,485.500
2.208,556.500,490.000,509.500,485.500
2.209,557.000,490.500,510.000,486.000
2.210,558.000,491.500,511.000,487.000
2.211,558.500,492.500,512.500,488.000
2.212,559.500,493.500,513.500,489.000
2.213,561.000,494.500,515.000,490.500
2.214,562.500,496.000,516.500,492.000
2.215,564.000,497.500,518.500,494.000
2.216,566.000,499.000,520.500,496.000
2.217,567.500,500.000,522.500,497.500
2.218,569.000,501.000,523.500,498.500
2.219,569.500,501.000,523.500,498.500
2.220,569.000,500.000,523.000,498.000
2.221,567.500,499.000,521.500,496.500
2.222,565.500,497.500,519.000,494.500
2.223,563.500,495.500,517.000,492.000
2.224,561.500,494.000,514.500,490.000
2.225,560.000,493.000,513.000,488.500
2.226,559.000,492.500,512.500,487.500
2.227,558.500,492.500,512.000,487.500
2.228,558.500,493.000,512.000,487.500
2.229,559.000,493.500,512.500,488.000
2.230,559.500,494.000,513.000,488.500
2.231,560.500,495.000,514.000,489.500
2.232,561.500,495.500,515.500,490.500
2.233,563.000,497.000,517.000,492.000
2.234,565.000,498.000,518.500,493.500
2.235,567.000,499.500,520.500,495.500
2.236,569.000,501.000,522.500,497.500
2.237,570.500,502.500,524.500,499.000
2.238,571.000,503.000,525.500,499.500
2.239,571.000,503.000,525.500,499.500
2.240,570.500,502.000,524.500,498.500
2.241,569.000,500.500,523.000,497.000
2.242,567.000,499.000,520.500,495.000
2.243,564.500,497.000,518.000,492.500
2.244,562.500,495.500,515.500,490.000
2.245,560.500,494.500,513.500,488.500
2.246,559.500,493.500,512.500,487.500
2.247,559.000,493.500,512.000,487.000
2.248,559.000,494.000,512.000,487.500
2.249,559.500,494.500,513.000,487.500
2.250,560.000,495.000,513.500,488.500
2.251,561.000,496.000,515.000,489.500
2.252,562.000,497.500,516.000,490.500
2.253,563.500,498.500,517.500,492.000
2.254,565.500,500.000,519.500,494.000
2.255,567.500,502.000,521.500,496.000
2.256,569.500,503.500,524.000,498.500
2.257,571.500,505.500,526.000,500.500
2.258,573.000,506.500,527.500,501.500
2.259,573.500,507.000,528.000,502.000
2.260,573.500,506.500,527.500,501.000
2.261,572.500,505.500,526.500,499.500
2.262,571.000,504.000,524.500,497.500
2.263,568.500,502.500,522.000,495.500
2.264,566.500,501.000,519.500,493.000
2.265,565.000,500.000,518.000,491.500
2.266,564.000,499.500,517.000,490.500
2.267,563.500,499.500,516.500,490.500
2.268,564.000,500.000,516.500,490.500
2.269,564.000,500.500,516.500,491.000
2.270,564.500,500.500,517.500,491.500
2.271,565.500,501.500,518.500,492.500
2.272,566.000,502.000,519.500,493.500
2.273,567.000,502.500,521.000,494.500
2.274,567.500,503.500,522.500,496.000
2.275,569.000,504.500,524.000,498.000
2.276,570.000,505.500,525.500,500.500
2.277,570.500,506.000,527.000,502.000
2.278,571.000,506.500,527.500,503.000
2.279,571.000,506.000,527.500,503.500
2.280,570.000,505.000,526.500,502.500
2.281,568.500,503.500,525.000,501.000
2.282,566.500,501.500,522.500,499.000
2.283,564.000,499.500,520.500,496.500
2.284,561.500,497.500,518.000,494.000
2.285,559.500,496.000,516.000,492.000
2.286,558.000,495.000,514.500,490.500
2.287,557.000,495.000,513.500,490.000
2.288,556.500,495.000,513.000,489.500
2.289,557.000,495.500,513.000,489.500
2.290,558.000,496.500,514.000,490.500
2.291,559.500,497.500,515.500,491.500
2.292,561.500,499.000,517.000,492.500
2.293,563.500,500.500,519.000,494.000
2.294,566.000,502.500,521.000,496.000
2.295,568.500,504.500,523.500,498.000
2.296,571.000,507.000,526.000,499.500
2.297,573.500,508.500,528.000,501.500
2.298,575.000,509.500,529.500,502.500
2.299,575.500,510.000,530.000,502.500
2.300,575.000,509.500,529.500,502.000
2.301,574.000,508.000,528.000,500.500
2.302,571.500,506.000,525.500,499.000
2.303,569.000,504.000,523.000,496.500
2.304,567.000,502.000,521.000,494.500
2.305,565.000,500.500,519.000,493.000
2.306,563.500,499.500,517.500,492.000
2.307,562.500,499.000,517.000,491.500
2.308,562.000,499.000,517.000,491.500
2.309,562.500,499.500,517.500,492.000
2.310,563.000,500.500,518.500,492.500
2.311,564.000,501.000,519.500,493.500
2.312,565.000,502.500,521.000,495.000
2.313,566.500,503.500,522.500,496.500
2.314,568.500,505.000,524.000,498.500
2.315,570.000,506.500,526.500,500.500
2.316,572.000,508.000,528.500,502.500
2.317,573.500,509.000,530.000,504.000
2.318,574.500,509.500,531.000,505.000
2.319,575.000,509.500,530.500,505.000
2.320,574.500,508.500,530.000,504.000
2.321,572.500,507.000,528.000,502.500
2.322,570.500,505.000,525.500,500.000
2.323,567.500,503.000,523.000,497.500
2.324,565.000,501.000,520.500,495.000
2.325,563.000,500.000,518.500,493.500
2.326,561.500,499.000,517.000,492.000
2.327,561.000,499.000,516.000,491.500
2.328,561.000,499.000,516.000,491.500
2.329,561.500,499.500,516.500,492.000
2.330,562.000,500.000,517.000,492.500
2.331,562.500,500.500,518.000,493.500
2.332,563.500,501.500,519.500,494.500
2.333,564.500,502.500,521.000,496.000
2.334,566.000,504.000,522.500,497.500
2.335,568.000,505.500,524.500,499.500
2.336,569.500,507.000,527.000,501.500
2.337,571.500,508.000,528.500,503.500
2.338,572.500,508.500,529.500,504.500
2.339,573.000,508.500,529.500,504.500
2.340,572.500,508.000,528.500,503.500
2.341,571.000,506.500,526.500,502.000
2.342,568.500,504.500,524.000,499.500
2.343,566.500,503.000,521.500,497.000
2.344,564.000,501.000,519.000,494.500
2.345,562.000,499.500,517.000,492.500
2.346,561.000,499.000,515.500,491.000
2.347,560.000,498.500,515.000,490.500
2.348,560.000,498.500,515.000,490.500
2.349,560.000,498.500,515.000,490.500
2.350,560.500,499.000,516.000,491.000
2.351,561.500,500.000,517.000,492.000
2.352,562.500,500.500,518.000,493.000
2.353,564.000,502.000,519.500,494.500
2.354,566.000,503.500,521.500,496.000
2.355,568.000,505.000,523.500,498.000
2.356,569.500,507.000,526.000,500.000
2.357,571.500,508.000,527.500,501.500
2.358,572.000,508.500,528.500,502.500
2.359,572.500,508.000,528.500,502.500
2.360,571.500,507.000,527.500,501.500
2.361,570.000,505.500,526.000,500.000
2.362,568.000,503.500,523.500,497.500
2.363,565.500,501.500,520.500,494.500
2.364,563.500,500.000,518.500,492.500
2.365,562.000,498.500,516.500,490.500
2.366,561.000,497.500,515.500,489.500
2.367,560.500,497.500,515.000,489.500
2.368,560.500,497.500,515.000,489.500
2.369,561.000,498.500,516.000,490.000
2.370,561.500,499.000,516.500,490.500
2.371,562.500,500.500,518.000,491.500
2.372,563.500,501.500,519.000,492.500
2.373,565.000,502.500,520.500,494.000
2.374,566.500,504.000,522.500,495.500
2.375,569.000,506.000,524.500,497.500
2.376,571.000,507.500,527.000,499.500
2.377,573.000,508.500,529.000,501.500
2.378,574.000,509.000,530.000,502.500
2.379,574.500,509.000,530.000,502.500
2.380,573.500,508.000,529.000,501.500
2.381,572.000,506.500,527.500,499.500
2.382,569.500,505.000,525.000,497.500
2.383,567.000,503.000,522.500,495.000
2.384,565.000,501.000,520.000,493.000
2.385,563.000,500.000,518.000,491.000
2.386,562.500,499.500,517.000,490.000
2.387,562.000,499.500,517.000,489.500
2.388,562.000,500.000,517.000,490.000
2.389,562.500,500.500,517.500,490.500
2.390,563.500,501.500,518.500,491.500
2.391,564.500,502.000,519.500,492.500
2.392,565.500,503.000,521.000,494.000
2.393,567.000,504.500,522.500,495.500
2.394,568.500,505.500,524.000,497.000
2.395,570.500,507.000,526.500,499.000
2.396,572.000,508.000,528.500,500.500
2.397,574.000,509.000,530.500,502.500
2.398,575.000,510.000,531.000,503.000
2.399,575.000,510.000,531.000,503.500
2.400,574.500,509.000,530.000,502.500
2.401,572.500,507.500,528.000,501.000
2.402,570.500,506.000,525.500,498.500
2.403,568.000,504.000,523.000,496.000
2.404,565.500,502.000,520.500,493.500
2.405,563.500,500.500,519.000,492.000
2.406,562.500,500.000,517.500,491.000
2.407,562.000,499.500,517.000,490.500
2.408,562.000,499.500,517.000,490.000
2.409,562.000,499.500,517.500,490.500
2.410,562.500,500.000,518.000,491.000
2.411,563.500,501.000,519.000,492.000
2.412,564.000,501.500,520.000,493.000
2.413,565.500,502.500,521.500,494.500
2.414,567.000,503.500,523.500,496.000
2.415,568.500,505.000,525.000,497.500
2.416,570.000,506.000,527.000,499.000
2.417,571.500,506.500,528.000,500.500
2.418,572.000,506.500,528.500,501.000
2.419,571.500,506.000,528.000,500.000
2.420,570.000,504.000,526.500,498.500
2.421,567.500,502.000,524.000,496.000
2.422,565.000,499.500,521.000,493.000
2.423,561.500,497.000,517.500,490.000
2.424,559.000,494.500,514.500,487.000
2.425,556.500,493.000,512.500,485.000
2.426,555.000,491.500,510.500,483.500
2.427,554.000,491.000,509.500,482.500
2.428,553.500,490.500,509.000,482.500
2.429,553.000,490.500,509.000,482.500
2.430,553.000,490.500,509.500,483.000
2.431,553.000,490.500,510.000,484.000
2.432,553.500,491.000,511.000,485.000
2.433,554.500,492.000,512.500,486.500
2.434,555.500,493.000,514.500,488.500
2.435,556.500,494.500,516.500,491.500
2.436,558.500,496.000,519.500,494.500
2.437,560.000,497.500,522.000,497.500
2.438,561.500,499.000,524.500,500.500
2.439,562.500,500.000,526.000,502.500
2.440,562.500,500.500,527.000,504.500
2.441,562.000,501.000,527.500,505.500
2.442,561.000,501.000,527.500,506.000
2.443,560.000,501.000,527.000,506.500
2.444,559.500,501.500,527.000,507.500
2.445,559.000,502.000,527.500,508.500
2.446,559.000,503.000,528.500,509.500
2.447,559.500,504.500,530.000,511.500
2.448,560.500,506.000,531.500,513.500
2.449,562.000,508.000,533.500,515.500
2.450,564.000,510.000,536.000,518.000
2.451,566.000,512.000,538.500,520.000
2.452,568.500,514.500,540.500,522.000
2.453,571.500,517.000,543.000,523.500
2.454,574.500,519.000,545.500,524.500
2.455,578.000,521.500,547.500,525.500
2.456,581.000,523.000,549.500,526.000
2.457,583.500,524.500,551.000,526.000
2.458,585.000,525.000,551.500,525.500
2.459,586.000,525.000,550.500,524.000
2.460,586.000,524.000,549.000,521.500
2.461,585.500,522.500,546.500,518.500
2.462,584.000,520.500,543.500,515.000
2.463,582.500,518.500,540.500,511.500
2.464,580.500,517.000,537.500,508.500
2.465,578.500,515.500,535.000,506.000
2.466,577.000,514.000,533.000,503.500
2.467,576.000,513.000,532.000,502.000
2.468,575.000,512.500,531.000,500.500
2.469,574.500,512.000,530.000,499.500
2.470,574.500,511.500,529.500,498.500
2.471,574.500,511.500,529.500,498.000
2.472,575.000,511.500,530.000,498.000
2.473,576.000,512.500,530.500,499.000
2.474,577.500,513.500,532.000,500.000
2.475,579.000,515.000,534.000,501.500
2.476,581.000,516.000,536.000,503.500
2.477,582.500,517.000,537.000,504.500
2.478,583.000,517.000,538.000,505.500
2.479,583.000,517.000,537.500,505.000
2.480,582.000,515.500,536.500,504.000
2.481,580.500,514.000,535.000,502.500
2.482,577.500,511.500,532.500,500.500
2.483,575.000,509.500,529.500,498.000
2.484,572.000,507.000,526.500,495.500
2.485,570.000,505.500,524.500,493.500
2.486,568.500,504.500,523.000,492.500
2.487,567.500,504.000,522.500,492.000
2.488,567.500,503.500,522.500,492.000
2.489,567.500,504.000,523.000,492.500
2.490,568.000,504.500,523.500,493.500
2.491,569.000,505.000,525.000,494.500
2.492,570.000,506.000,526.000,495.500
2.493,571.000,507.000,527.500,497.500
2.494,572.000,508.000,529.500,499.000
2.495,573.500,509.000,531.500,501.000
2.496,575.500,510.500,533.500,502.500
2.497,577.000,511.500,535.000,504.500
2.498,578.000,512.000,536.000,505.500
2.499,578.000,512.000,536.000,505.500
2.500,577.500,511.000,535.000,504.500
2.501,576.000,509.500,533.000,503.000
2.502,573.500,507.500,530.500,500.500
2.503,571.000,505.000,527.500,498.000
2.504,568.500,503.000,525.000,495.500
2.505,566.500,501.500,523.500,494.000
2.506,565.500,501.000,522.000,492.500
2.507,565.000,500.500,521.500,492.500
2.508,565.000,501.000,521.500,492.500
2.509,565.000,501.500,522.500,493.000
2.510,566.000,502.000,523.500,494.000
2.511,566.500,503.000,524.500,495.000
2.512,568.000,504.500,526.000,496.500
2.513,569.500,506.000,527.500,498.000
2.514,571.500,507.500,530.000,500.000
2.515,573.500,509.500,532.000,502.500
2.516,576.000,511.000,534.500,504.500
2.517,578.000,512.000,536.500,506.500
2.518,579.000,513.000,537.500,508.000
2.519,579.500,513.000,538.000,508.500
2.520,579.000,512.000,537.000,508.000
2.521,577.500,511.000,535.500,506.500
2.522,575.500,509.000,533.500,504.500
2.523,573.500,507.500,531.000,502.500
2.524,571.500,506.000,529.000,500.500
2.525,570.000,504.500,527.500,498.500
2.526,569.000,504.500,526.500,497.500
2.527,569.000,504.500,526.500,497.500
2.528,569.000,505.000,527.000,497.500
2.529,569.500,505.500,527.500,498.000
2.530,570.500,506.500,528.500,499.000
2.531,571.000,507.500,529.500,500.500
2.532,572.500,508.500,531.000,501.500
2.533,573.500,509.500,532.500,503.000
2.534,575.500,511.500,534.500,505.000
2.535,577.500,513.000,536.500,507.000
2.536,579.500,514.500,539.000,509.000
2.537,581.500,516.000,540.500,510.500
2.538,582.500,516.500,542.000,511.500
2.539,583.000,516.500,542.000,511.500
2.540,582.000,515.500,541.000,510.500
2.541,581.000,514.000,539.500,509.000
2.542,578.500,512.000,537.000,506.500
2.543,576.000,510.000,534.000,504.000
2.544,574.000,508.000,531.500,501.500
2.545,572.000,507.000,529.500,500.000
2.546,570.500,506.000,528.000,499.000
2.547,570.000,506.000,527.500,498.500
2.548,570.000,506.000,528.000,498.500
2.549,570.000,506.500,528.500,499.000
2.550,571.000,507.000,529.000,499.500
2.551,572.000,508.000,530.500,500.500
2.552,573.500,509.000,531.500,502.000
2.553,574.500,510.500,533.500,503.000
2.554,576.000,511.500,535.000,505.000
2.555,578.000,513.000,537.000,507.000
2.556,579.500,514.500,538.500,508.500
2.557,581.000,515.000,540.000,510.000
2.558,582.000,515.500,540.500,511.000
2.559,581.500,515.000,540.000,510.500
2.560,580.500,514.000,539.000,509.500
2.561,579.000,512.500,537.000,507.500
2.562,576.500,510.500,534.500,505.000
2.563,574.500,508.500,532.000,502.500
2.564,572.000,506.500,529.500,500.500
2.565,570.000,505.500,527.500,498.500
2.566,569.000,504.500,526.500,497.500
2.567,568.500,504.500,526.000,497.000
2.568,568.500,504.500,526.000,497.500
2.569,568.500,505.000,526.500,498.000
2.570,569.500,506.000,527.000,498.500
2.571,570.500,507.000,528.000,499.500
2.572,571.500,507.500,529.500,501.000
2.573,572.500,509.000,531.000,502.500
2.574,574.500,510.000,533.000,504.000
2.575,576.000,511.500,535.500,506.500
2.576,578.500,513.000,537.500,508.500
2.577,580.000,514.500,539.500,510.500
2.578,581.500,515.000,541.000,511.500
2.579,581.500,515.000,541.000,511.500
2.580,581.000,514.500,540.500,511.000
2.581,580.000,513.000,539.000,509.500
2.582,578.000,511.500,536.500,507.500
2.583,576.000,509.500,534.500,505.500
2.584,574.000,508.000,532.000,503.500
2.585,572.500,507.000,530.500,502.000
2.586,571.500,506.500,530.000,501.000
2.587,571.000,506.500,529.500,500.500
2.588,571.000,506.500,529.500,500.500
2.589,571.000,507.000,529.500,501.000
2.590,571.500,507.500,530.500,502.000
2.591,572.500,508.500,531.000,503.000
2.592,573.500,509.000,532.500,504.000
2.593,574.500,510.500,534.000,505.000
2.594,576.000,511.500,535.500,506.500
2.595,578.000,513.000,538.000,508.500
2.596,580.000,514.500,540.000,510.500
2.597,581.500,516.000,541.500,512.000
2.598,583.000,516.500,542.500,513.000
2.599,583.000,517.000,542.500,513.500
2.600,582.500,516.000,542.000,512.500
2.601,581.000,515.000,540.000,511.000
2.602,579.000,513.000,538.000,509.000
2.603,576.500,511.500,535.500,506.500
2.604,574.500,509.500,533.000,504.500
2.605,572.500,508.500,531.500,502.500
2.606,571.500,507.500,530.500,501.500
2.607,571.000,507.500,530.000,501.000
2.608,571.000,507.500,530.000,501.500
2.609,571.000,507.500,530.500,501.500
2.610,572.000,508.500,531.000,502.500
2.611,573.000,509.500,532.500,503.500
2.612,574.000,510.500,534.000,505.000
2.613,575.500,511.500,535.500,506.500
2.614,577.000,513.000,537.500,508.000
2.615,579.000,514.500,539.500,510.000
2.616,581.000,516.000,542.000,512.000
2.617,582.500,517.000,543.500,514.000
2.618,583.500,517.500,545.000,515.000
2.619,583.500,517.500,545.000,515.000
2.620,582.500,517.000,544.000,514.500
2.621,580.500,515.500,542.500,513.000
2.622,578.500,514.000,540.000,511.000
2.623,576.500,512.000,537.500,508.500
2.624,574.500,510.500,535.500,506.500
2.625,572.500,509.500,533.500,505.000
2.626,571.500,509.000,532.500,504.000
2.627,570.500,508.500,532.000,503.500
2.628,570.000,508.500,532.000,503.500
2.629,570.000,508.500,532.000,503.500
2.630,570.500,509.000,532.500,504.500
2.631,571.500,509.500,533.500,505.000
2.632,572.500,510.500,534.500,506.500
2.633,573.500,511.500,536.000,507.500
2.634,575.000,512.500,537.500,509.500
2.635,576.500,514.000,539.500,511.000
2.636,578.500,516.000,541.500,513.000
2.637,580.500,517.000,543.500,514.500
2.638,581.500,518.000,545.000,515.500
2.639,582.000,518.000,545.000,516.000
2.640,581.000,517.000,544.500,515.000
2.641,579.500,516.000,542.500,513.500
2.642,577.500,514.000,540.000,511.000
2.643,575.000,512.000,537.500,508.500
2.644,572.500,510.500,535.000,506.500
2.645,570.500,509.000,533.000,505.000
2.646,569.500,508.500,532.000,504.000
2.647,569.000,508.000,531.500,503.500
2.648,568.500,508.000,531.500,504.000
2.649,569.000,508.500,532.000,504.500
2.650,569.500,509.500,533.000,505.000
2.651,570.500,510.500,534.500,506.000
2.652,572.000,511.500,536.000,507.500
2.653,573.500,513.000,537.500,509.500
2.654,575.000,515.000,539.500,511.000
2.655,577.000,516.500,542.000,513.000
2.656,579.000,518.000,544.000,515.000
2.657,581.000,519.000,546.000,517.000
2.658,582.000,519.500,547.000,518.000
2.659,582.500,519.500,547.000,518.000
2.660,581.500,519.000,546.000,517.500
2.661,580.000,517.500,544.000,515.500
2.662,577.500,515.500,541.500,513.000
2.663,574.500,513.500,539.000,510.500
2.664,572.000,511.500,536.000,508.000
2.665,570.000,510.000,534.000,506.500
2.666,569.000,509.500,532.500,505.500
2.667,568.000,509.000,532.000,505.000
2.668,568.000,509.000,532.000,505.000
2.669,568.500,509.500,532.500,505.500
2.670,569.000,510.000,533.000,506.000
2.671,570.000,511.000,534.000,507.000
2.672,571.000,511.500,535.500,508.000
2.673,572.500,512.500,537.000,509.500
2.674,574.000,514.000,539.000,511.000
2.675,575.500,515.500,541.000,513.000
2.676,577.500,517.000,543.500,515.000
2.677,579.500,518.500,545.500,516.500
2.678,580.500,519.000,546.500,517.500
2.679,581.000,519.000,546.500,517.500
2.680,580.000,518.000,546.000,516.500
2.681,578.500,516.500,544.000,514.500
2.682,576.500,515.000,541.500,512.500
2.683,574.000,513.000,539.000,510.000
2.684,572.000,511.500,536.500,508.000
2.685,570.000,510.500,535.000,506.000
2.686,569.000,509.500,534.000,505.000
2.687,568.000,509.500,533.000,504.500
2.688,568.000,509.500,533.000,504.500
2.689,568.500,510.000,533.500,505.000
2.690,569.000,510.500,534.000,505.500
2.691,569.500,510.500,535.000,506.500
2.692,570.000,511.000,535.500,507.500
2.693,570.500,511.500,536.500,508.500
2.694,571.000,512.000,538.000,509.500
2.695,571.500,512.500,539.000,511.000
2.696,572.500,513.500,540.500,512.500
2.697,573.000,513.500,541.500,514.000
2.698,573.500,513.500,542.000,514.500
2.699,573.000,513.000,541.500,514.000
2.700,571.500,511.500,540.000,512.500
2.701,569.500,509.500,537.500,510.000
2.702,566.500,507.000,535.000,507.000
2.703,564.000,504.500,531.500,504.000
2.704,561.000,502.000,528.500,501.000
2.705,559.000,500.500,526.500,499.000
2.706,558.000,499.000,524.500,497.000
2.707,557.000,499.000,524.000,496.500
2.708,557.500,499.000,523.500,496.000
2.709,558.000,499.500,524.000,496.000
2.710,559.000,500.500,525.000,496.500
2.711,560.500,501.500,526.000,497.000
2.712,562.500,502.500,527.500,497.500
2.713,564.500,504.000,529.000,499.000
2.714,566.500,505.500,531.000,500.500
2.715,569.000,507.500,533.000,502.500
2.716,571.500,509.000,535.500,504.500
2.717,573.500,510.500,537.500,506.000
2.718,575.000,511.500,539.000,507.000
2.719,575.000,511.000,539.000,507.000
2.720,574.000,510.000,537.500,506.000
2.721,572.000,508.000,535.500,504.000
2.722,569.000,506.000,532.500,501.500
2.723,566.000,503.500,529.500,498.500
2.724,563.000,501.500,526.500,496.000
2.725,561.000,499.500,524.500,494.000
2.726,559.000,498.500,523.000,492.500
2.727,558.500,498.000,522.000,491.500
2.728,558.000,497.500,522.000,491.000
2.729,558.500,498.000,522.000,491.000
2.730,558.500,498.000,522.500,491.500
2.731,559.500,498.500,523.000,492.500
2.732,560.000,499.000,524.500,493.500
2.733,561.500,500.000,525.500,495.000
2.734,563.000,501.000,527.500,496.500
2.735,564.500,502.500,529.500,498.000
2.736,566.500,504.000,531.500,500.000
2.737,568.500,505.500,533.000,501.500
2.738,569.000,506.000,534.000,502.000
2.739,569.000,506.000,534.000,502.000
2.740,568.000,504.500,532.500,500.500
2.741,566.500,503.000,530.500,498.500
2.742,564.000,501.000,527.500,496.000
2.743,561.000,498.500,524.500,493.000
2.744,558.500,496.500,522.000,490.500
2.745,556.500,495.000,520.000,489.000
2.746,555.500,494.000,518.500,487.500
2.747,554.500,494.000,517.500,487.000
2.748,554.000,494.000,517.500,487.000
2.749,554.500,494.000,518.000,487.000
2.750,555.000,494.500,518.500,487.500
2.751,556.000,495.000,519.500,488.500
2.752,557.000,496.000,521.000,489.500
2.753,558.000,497.000,522.500,490.500
2.754,560.000,498.500,524.000,492.000
2.755,561.500,500.000,526.000,494.000
2.756,563.000,501.000,528.000,496.000
2.757,564.500,502.000,529.500,497.500
2.758,565.500,502.500,530.500,498.500
2.759,565.500,502.500,530.500,498.000
2.760,564.500,501.500,529.500,497.000
2.761,563.000,500.000,527.500,495.000
2.762,560.500,498.000,525.000,492.500
2.763,558.500,496.000,522.500,490.000
2.764,556.500,494.500,520.000,487.500
2.765,554.500,493.500,518.000,486.000
2.766,553.500,492.500,517.000,485.000
2.767,553.000,492.500,516.500,485.000
2.768,552.500,492.500,516.500,485.000
2.769,552.500,492.500,517.000,485.500
2.770,553.000,493.000,517.500,486.500
2.771,554.000,494.000,518.500,487.500
2.772,555.500,495.000,520.000,488.500
2.773,557.000,496.500,522.000,490.000
2.774,559.000,497.500,523.500,491.500
2.775,560.500,499.500,525.500,493.500
2.776,562.500,501.000,527.500,495.500
2.777,564.000,502.000,529.500,497.000
2.778,565.500,503.000,530.500,498.000
2.779,565.500,503.000,530.500,497.500
2.780,564.500,502.000,529.500,497.000
2.781,563.000,500.500,528.000,495.000
2.782,560.500,498.500,525.500,492.500
2.783,558.000,496.500,522.500,489.500
2.784,555.500,494.500,520.000,487.000
2.785,553.500,493.500,518.500,485.000
2.786,552.500,492.500,517.000,484.000
2.787,551.500,492.500,516.500,483.000
2.788,551.500,492.500,516.500,483.000
2.789,551.500,492.500,516.500,483.500
2.790,552.000,493.000,517.000,484.000
2.791,552.500,493.500,518.000,485.000
2.792,553.500,494.500,519.000,486.000
2.793,555.000,495.500,520.500,487.000
2.794,556.000,496.500,522.000,489.000
2.795,558.000,498.000,524.000,490.500
2.796,560.000,499.500,526.000,492.500
2.797,561.500,500.500,528.000,494.500
2.798,563.000,501.000,529.000,495.000
2.799,563.000,501.000,528.500,495.000
2.800,562.000,500.000,527.500,494.000
2.801,560.500,498.000,525.500,492.000
2.802,558.500,496.000,523.000,489.500
2.803,556.000,494.000,520.500,487.000
2.804,553.500,492.000,518.000,484.500
2.805,551.500,491.000,516.000,482.500
2.806,550.500,490.000,514.500,481.500
2.807,549.500,489.500,514.000,480.500
2.808,549.500,489.500,513.500,480.500
2.809,549.500,490.000,514.000,481.000
2.810,550.500,490.500,514.500,481.500
2.811,551.000,491.500,515.500,482.500
2.812,552.000,492.500,516.500,483.500
2.813,553.500,494.000,518.000,485.000
2.814,555.000,495.500,520.000,486.500
2.815,557.000,497.000,522.000,488.500
2.816,559.000,498.500,523.500,490.500
2.817,560.500,499.500,525.500,492.000
2.818,561.500,500.000,526.000,493.000
2.819,561.500,499.500,526.000,492.500
2.820,561.000,499.000,525.000,491.500
2.821,559.000,497.500,523.000,490.000
2.822,557.000,495.500,521.000,487.500
2.823,554.500,493.500,518.000,485.500
2.824,552.500,492.000,516.000,483.000
2.825,551.000,491.000,514.000,481.500
2.826,550.000,490.000,513.000,480.500
2.827,549.500,490.000,512.500,480.000
2.828,549.000,490.000,512.500,480.000
2.829,549.500,490.500,513.000,480.500
2.830,550.000,491.000,513.500,481.000
2.831,550.500,491.500,514.500,482.000
2.832,551.000,492.000,515.500,483.000
2.833,552.500,493.000,517.000,484.000
2.834,553.500,494.500,518.500,485.500
2.835,555.500,496.000,520.000,487.000
2.836,557.000,497.500,522.000,488.500
2.837,558.500,498.500,523.500,490.000
2.838,559.000,499.000,524.500,490.500
2.839,559.000,498.500,524.500,490.500
2.840,557.500,497.500,523.000,489.000
2.841,556.000,495.500,521.000,487.000
2.842,553.500,493.000,518.500,484.500
2.843,551.000,490.500,515.500,481.500
2.844,548.500,488.500,512.500,479.500
2.845,546.500,487.000,510.500,477.500
2.846,545.000,486.000,509.500,476.000
2.847,544.000,485.500,508.500,475.000
2.848,544.000,485.500,508.500,474.500
2.849,544.000,485.500,508.500,474.500
2.850,544.500,486.000,509.000,475.000
2.851,545.500,486.500,509.500,475.500
2.852,546.500,487.500,511.000,476.500
2.853,547.500,488.000,512.000,478.000
2.854,549.000,489.500,514.000,479.500
2.855,550.500,490.500,516.000,481.000
2.856,552.500,492.000,517.500,482.500
2.857,553.500,493.000,519.000,484.000
2.858,554.500,493.500,519.500,484.500
2.859,554.500,493.000,519.500,484.000
2.860,553.500,492.000,518.500,483.000
2.861,551.500,490.000,516.500,481.000
2.862,549.000,488.000,514.000,478.500
2.863,546.500,486.000,511.000,476.000
2.864,544.000,484.000,508.500,473.500
2.865,542.500,482.500,506.500,471.500
2.866,541.500,481.500,505.000,470.500
2.867,541.000,481.500,504.500,470.000
2.868,541.000,482.000,505.000,470.500
2.869,541.500,482.500,505.500,471.000
2.870,542.000,483.000,506.000,472.000
2.871,543.000,483.500,507.000,473.000
2.872,544.000,484.000,508.500,474.000
2.873,545.000,485.000,509.500,475.500
2.874,546.500,486.500,511.500,476.500
2.875,548.000,488.000,513.500,478.500
2.876,550.000,489.000,515.500,480.000
2.877,551.500,490.000,516.500,481.000
2.878,552.500,490.500,517.000,481.500
2.879,552.000,490.000,517.000,481.000
2.880,551.000,489.000,515.500,480.000
2.881,549.000,487.500,513.500,478.000
2.882,546.500,485.500,510.500,475.000
2.883,544.000,483.000,507.500,472.500
2.884,541.500,481.000,505.000,470.000
2.885,540.000,479.500,503.000,468.000
2.886,539.000,478.500,501.500,466.500
2.887,538.500,478.000,501.000,466.000
2.888,538.500,477.500,501.000,465.500
2.889,538.500,477.500,501.000,466.000
2.890,539.000,478.000,502.000,466.500
2.891,540.000,478.500,502.500,467.500
2.892,540.500,479.000,503.500,468.500
2.893,542.000,480.000,505.000,469.500
2.894,543.000,481.000,506.500,471.000
2.895,544.500,482.000,508.500,472.500
2.896,546.000,483.000,510.000,474.000
2.897,547.500,484.000,511.500,475.500
2.898,548.000,484.500,512.000,476.000
2.899,548.000,484.000,512.000,475.500
2.900,546.500,482.500,510.500,474.000
2.901,544.500,481.000,508.500,472.000
2.902,542.000,478.500,505.500,469.000
2.903,539.500,476.500,503.000,466.000
2.904,537.000,474.500,500.000,463.500
2.905,534.500,473.000,498.000,461.500
2.906,533.500,472.000,496.500,460.000
2.907,532.500,471.500,495.500,459.500
2.908,532.000,471.000,495.000,459.000
2.909,532.000,471.000,495.000,459.000
2.910,532.000,471.000,495.500,459.500
2.911,532.500,471.500,496.000,460.000
2.912,533.500,472.000,497.000,461.000
2.913,534.500,473.000,498.500,462.000
2.914,536.000,474.000,500.000,463.500
2.915,538.000,475.500,502.000,465.500
2.916,539.500,477.000,504.000,467.000
2.917,541.000,478.000,506.000,468.500
2.918,542.000,478.000,507.000,469.500
2.919,542.000,478.000,506.500,469.500
2.920,541.000,477.000,505.500,468.500
2.921,539.000,475.500,503.500,466.500
2.922,537.000,473.500,501.000,464.000
2.923,534.000,471.000,498.000,461.500
2.924,531.500,469.000,495.500,459.000
2.925,529.500,467.500,493.500,457.000
2.926,528.000,466.500,492.500,456.000
2.927,527.500,466.000,491.500,455.000
2.928,527.000,466.000,491.500,455.000
2.929,527.000,466.000,492.000,455.500
2.930,527.500,466.500,492.500,456.000
2.931,528.000,467.000,493.500,457.000
2.932,529.000,468.000,494.500,458.000
2.933,530.500,469.000,496.000,459.500
2.934,532.000,470.500,497.500,461.000
2.935,533.500,472.000,499.500,463.500
2.936,535.500,473.500,501.500,465.000
2.937,536.500,474.500,503.000,466.500
2.938,537.500,475.000,503.500,467.000
2.939,537.000,474.500,503.000,466.500
2.940,536.000,473.000,502.000,465.000
2.941,534.000,471.500,499.500,462.500
2.942,531.500,469.000,497.000,460.000
2.943,528.500,467.000,494.000,457.000
2.944,526.000,465.000,491.500,455.000
2.945,524.000,463.500,489.500,453.000
2.946,522.500,462.500,488.000,452.000
2.947,521.500,462.000,487.500,451.000
2.948,521.000,462.000,487.000,451.000
2.949,521.500,462.000,487.500,451.000
2.950,522.000,462.500,488.500,451.500
2.951,523.000,463.500,489.500,452.500
2.952,524.500,465.000,490.500,454.000
2.953,526.000,466.500,492.000,455.500
2.954,528.000,468.000,494.000,457.500
2.955,530.000,469.500,496.500,459.500
2.956,532.000,471.000,498.500,462.000
2.957,533.500,472.000,500.000,463.500
2.958,534.000,472.500,501.000,464.000
2.959,534.000,472.000,501.000,464.000
2.960,533.000,471.000,499.500,462.500
2.961,531.000,469.000,497.500,460.500
2.962,528.500,467.000,494.500,458.000
2.963,525.500,464.500,492.000,455.500
2.964,523.500,462.500,489.500,453.500
2.965,521.500,461.000,488.000,451.500
2.966,520.000,460.000,486.500,450.500
2.967,519.500,459.500,486.000,449.500
2.968,519.000,459.500,486.500,449.500
2.969,519.000,460.000,486.500,450.000
2.970,519.500,461.000,487.500,451.000
2.971,520.500,462.000,488.500,452.000
2.972,521.500,463.000,489.500,453.000
2.973,523.000,464.000,491.000,454.500
2.974,524.500,465.500,493.000,456.500
2.975,526.500,466.500,495.000,458.000
2.976,528.000,468.000,497.000,460.000
2.977,529.500,469.000,498.500,461.000
2.978,530.000,469.000,499.000,461.500
2.979,529.500,468.500,499.000,461.000
2.980,528.500,467.500,497.500,459.000
2.981,526.500,465.500,495.000,457.000
2.982,523.500,463.000,492.000,454.000
2.983,521.000,460.500,489.000,451.000
2.984,518.500,458.500,486.500,448.500
2.985,516.500,457.000,484.500,446.500
2.986,515.000,456.000,483.000,445.500
2.987,514.000,455.000,482.000,444.500
2.988,514.000,455.000,482.000,444.500
2.989,514.000,455.000,482.000,445.000
2.990,514.500,455.500,482.500,445.500
2.991,515.000,456.500,483.500,446.000
2.992,516.000,457.000,484.500,447.000
2.993,517.500,458.000,486.000,448.000
2.994,519.000,459.500,487.500,449.500
2.995,520.500,460.500,489.500,451.500
2.996,522.000,461.500,491.000,453.000
2.997,523.000,462.000,492.500,454.000
2.998,523.500,462.000,493.000,454.500
2.999,523.500,461.500,493.000,453.500
3.000,522.500,460.500,491.500,452.000
3.001,520.500,459.000,489.000,450.000
3.002,518.000,456.500,486.000,447.500
3.003,515.500,454.500,483.000,444.500
3.004,513.000,452.500,480.500,442.500
3.005,511.000,451.000,478.500,440.500
3.006,509.500,450.000,477.000,439.500
3.007,509.000,450.000,476.500,439.000
3.008,508.500,450.000,476.000,439.000
3.009,509.000,450.000,476.000,439.000
3.010,509.500,450.500,476.500,439.500
3.011,510.000,451.000,477.000,440.000
3.012,511.000,451.500,478.000,440.500
3.013,512.000,452.500,479.000,442.000
3.014,513.000,453.500,480.500,443.500
3.015,515.000,455.000,482.500,445.000
3.016,516.500,456.500,484.500,447.000
3.017,518.000,457.500,486.000,448.500
3.018,518.500,458.000,487.000,449.500
3.019,518.500,457.500,486.500,449.000
3.020,517.500,456.500,485.500,448.000
3.021,515.500,454.500,483.000,445.500
3.022,512.500,452.500,480.000,443.000
3.023,510.000,450.000,477.000,440.000
3.024,507.500,448.000,474.500,437.000
3.025,505.500,446.500,472.000,435.000
3.026,504.000,445.000,471.000,433.500
3.027,503.500,444.500,470.000,432.500
3.028,503.000,444.500,469.500,432.000
3.029,503.000,444.500,469.500,432.500
3.030,503.500,445.000,470.000,433.000
3.031,504.000,445.500,470.500,433.500
3.032,505.000,446.500,471.500,434.500
3.033,506.000,447.500,472.500,436.000
3.034,507.000,448.500,474.500,437.000
3.035,508.500,450.000,476.500,439.000
3.036,510.500,451.000,478.500,440.500
3.037,512.000,452.000,480.000,442.000
3.038,512.500,452.000,480.500,442.500
3.039,512.500,451.500,480.000,442.000
3.040,511.000,450.000,478.500,440.500
3.041,509.000,448.000,476.500,438.500
3.042,506.500,446.000,473.500,436.000
3.043,504.000,443.500,470.000,433.000
3.044,501.000,441.500,467.000,430.500
3.045,499.000,439.500,465.000,428.000
3.046,497.500,438.500,463.500,426.500
3.047,496.500,438.000,462.500,426.000
3.048,496.500,438.000,462.500,425.500
3.049,496.500,438.000,463.000,425.500
3.050,497.000,438.500,463.500,426.000
3.051,497.500,439.000,464.000,426.500
3.052,498.000,439.500,465.000,427.500
3.053,499.000,440.500,466.500,428.500
3.054,500.500,441.500,467.500,429.500
3.055,502.000,443.000,469.500,431.000
3.056,503.500,444.000,471.000,432.500
3.057,505.000,445.000,472.000,433.500
3.058,505.500,444.500,472.500,433.500
3.059,504.500,444.000,471.500,432.500
3.060,503.000,442.500,469.500,430.500
3.061,500.500,440.000,466.500,427.500
3.062,497.500,437.000,462.500,424.000
3.063,494.000,434.500,459.000,420.500
3.064,491.000,432.000,455.500,417.500
3.065,488.500,430.000,453.000,415.000
3.066,486.500,428.500,451.500,413.500
3.067,485.500,428.000,450.500,413.000
3.068,485.000,427.500,450.000,412.500
3.069,484.500,427.500,449.500,412.500
3.070,484.000,427.500,449.500,413.000
3.071,484.000,428.000,450.000,413.500
3.072,484.500,428.500,450.500,415.000
3.073,485.000,429.000,451.500,416.000
3.074,486.000,430.000,453.000,418.000
3.075,487.000,431.000,455.000,420.000
3.076,488.000,432.000,456.500,422.000
3.077,489.000,432.500,458.000,424.000
3.078,489.500,433.000,459.000,425.500
3.079,489.000,433.000,459.500,426.000
3.080,488.500,432.500,459.500,426.500
3.081,487.000,432.000,458.500,426.500
3.082,485.500,431.000,457.500,426.500
3.083,484.000,430.500,457.000,426.500
3.084,482.500,430.500,457.000,427.000
3.085,482.000,430.500,457.500,428.500
3.086,482.000,431.500,458.500,430.000
3.087,482.000,432.500,460.000,432.500
3.088,483.000,434.500,462.000,435.000
3.089,484.500,436.000,464.000,437.500
3.090,486.000,438.000,466.000,440.000
3.091,488.000,440.500,468.500,443.000
3.092,490.500,442.500,471.500,445.500
3.093,493.000,445.500,474.500,448.500
3.094,496.000,448.000,478.000,451.500
3.095,500.000,451.000,481.500,454.000
3.096,503.500,454.000,484.500,456.000
3.097,507.000,456.000,486.500,456.500
3.098,509.000,457.000,487.500,456.000
3.099,510.000,457.000,487.000,454.000
3.100,510.000,456.000,485.000,451.000
3.101,509.000,454.500,482.000,447.500
3.102,507.500,453.000,479.000,443.000
3.103,506.000,451.000,476.000,439.000
3.104,504.500,449.500,473.000,435.500
3.105,503.500,448.500,471.000,432.500
3.106,502.500,447.500,469.500,430.500
3.107,502.000,446.500,468.500,428.500
3.108,501.000,445.500,467.500,427.500
3.109,500.000,445.000,466.500,426.000
3.110,499.500,444.000,466.000,425.500
3.111,498.500,443.000,465.000,424.500
3.112,498.000,442.000,464.500,424.500
3.113,497.500,441.500,464.000,424.000
3.114,497.000,441.000,464.500,424.500
3.115,497.500,440.500,465.000,425.000
3.116,498.000,440.500,465.500,426.000
3.117,498.000,440.000,466.000,426.500
3.118,497.500,439.000,465.500,426.500
3.119,496.500,437.500,464.000,425.500
3.120,494.500,435.500,461.500,423.000
3.121,491.500,432.500,458.500,420.000
3.122,488.000,429.500,454.500,417.000
3.123,484.500,426.000,451.000,413.500
3.124,481.000,423.000,447.500,410.000
3.125,478.500,421.000,445.000,407.500
3.126,476.500,419.000,443.000,405.500
3.127,475.500,418.000,442.000,404.500
3.128,475.500,417.500,441.500,403.500
3.129,475.500,418.000,441.500,403.500
3.130,476.000,418.500,441.500,403.500
3.131,476.500,419.000,442.500,403.500
3.132,477.500,420.000,443.500,404.500
3.133,478.500,421.000,445.000,406.000
3.134,480.500,422.000,447.000,407.500
3.135,482.000,423.500,449.000,409.000
3.136,483.500,425.000,450.500,411.000
3.137,484.500,426.000,452.000,412.000
3.138,485.000,426.000,452.000,412.500
3.139,484.000,425.000,451.500,412.000
3.140,482.500,423.500,449.500,411.000
3.141,480.000,421.500,447.000,408.500
3.142,477.000,419.000,444.000,406.000
3.143,474.000,417.000,440.500,403.000
3.144,471.500,415.000,438.000,400.500
3.145,469.500,413.500,436.000,399.000
3.146,468.500,412.500,435.000,397.500
3.147,468.000,412.000,434.500,397.000
3.148,468.000,412.500,435.000,397.500
3.149,468.500,412.500,435.500,397.500
3.150,469.000,413.000,436.000,398.500
3.151,470.000,413.500,437.000,399.000
3.152,470.500,414.500,438.000,400.000
3.153,472.000,415.500,439.000,401.500
3.154,473.000,417.000,441.000,403.000
