'Elapsed time','AECG1','AECG2','AECG3','AECG4'
'seconds','uV','uV','uV','uV'
0.000,-3.000,27.500,-13.500,-16.500
0.001,-3.000,27.000,-13.500,-16.500
0.002,-3.000,27.000,-14.000,-17.000
0.003,-3.000,27.000,-14.000,-17.000
0.004,-3.000,27.000,-14.500,-17.500
0.005,-3.000,27.000,-14.500,-17.500
0.006,-3.500,26.500,-14.500,-17.500
0.007,-3.500,26.500,-15.000,-17.500
0.008,-3.500,26.500,-15.500,-17.500
0.009,-3.500,26.500,-16.000,-17.500
0.010,-3.500,26.500,-16.000,-17.500
0.011,-4.000,26.500,-16.000,-17.500
0.012,-4.000,26.500,-16.000,-17.500
0.013,-4.000,26.500,-16.000,-17.500
0.014,-4.000,27.000,-15.500,-17.000
0.015,-4.000,27.000,-14.500,-17.000
0.016,-4.500,27.500,-14.000,-16.500
0.017,-4.500,27.500,-13.500,-16.000
0.018,-4.000,27.500,-13.000,-16.000
0.019,-4.000,28.000,-13.000,-16.000
0.020,-3.500,28.000,-13.000,-16.000
0.021,-3.000,28.000,-13.000,-15.500
0.022,-3.000,28.000,-13.500,-16.000
0.023,-3.000,27.500,-13.500,-16.000
0.024,-3.000,27.500,-14.000,-16.500
0.025,-3.500,27.000,-14.500,-17.000
0.026,-3.500,26.500,-14.500,-17.000
0.027,-3.500,26.500,-15.000,-17.500
0.028,-3.500,26.500,-15.000,-18.000
0.029,-3.500,26.500,-15.000,-18.000
0.030,-3.500,26.500,-15.500,-18.500
0.031,-3.500,26.500,-15.500,-18.500
0.032,-3.500,27.000,-15.500,-18.000
0.033,-3.500,27.000,-15.000,-17.500
0.034,-3.500,27.000,-14.500,-17.000
0.035,-3.500,27.500,-14.000,-16.500
0.036,-3.500,27.500,-13.500,-16.000
0.037,-3.000,27.500,-13.000,-15.500
0.038,-3.000,28.000,-13.000,-15.500
0.039,-2.500,28.000,-13.000,-15.500
0.040,-2.500,28.000,-13.000,-15.500
0.041,-2.500,28.000,-13.000,-15.500
0.042,-2.500,27.500,-13.000,-16.000
0.043,-2.500,27.500,-13.000,-16.000
0.044,-2.500,27.500,-13.000,-16.000
0.045,-2.500,27.500,-13.500,-16.000
0.046,-2.500,27.500,-13.500,-16.500
0.047,-2.500,27.500,-14.500,-17.000
0.048,-2.500,27.000,-15.500,-17.500
0.049,-2.500,26.500,-16.500,-18.500
0.050,-2.500,26.000,-17.000,-19.000
0.051,-3.000,26.000,-16.500,-18.500
0.052,-3.500,26.000,-16.000,-18.500
0.053,-3.500,26.500,-15.000,-18.000
0.054,-3.500,27.000,-15.000,-17.500
0.055,-3.500,27.000,-14.500,-17.500
0.056,-3.500,27.500,-14.500,-17.000
0.057,-3.000,27.500,-14.500,-17.000
0.058,-3.000,27.500,-14.000,-16.500
0.059,-3.000,27.500,-13.500,-16.500
0.060,-3.500,27.500,-13.500,-16.500
0.061,-3.500,27.000,-14.000,-16.500
0.062,-3.000,27.000,-15.000,-17.000
0.063,-2.500,26.500,-16.000,-18.000
0.064,-2.000,26.500,-17.500,-19.000
0.065,-1.500,26.500,-18.000,-19.500
0.066,-1.500,26.500,-17.500,-19.500
0.067,-1.500,27.000,-16.500,-18.500
0.068,-2.000,27.500,-14.500,-17.000
0.069,-2.500,28.000,-13.000,-15.500
0.070,-3.000,28.000,-12.000,-15.000
0.071,-3.000,28.500,-11.500,-14.500
0.072,-3.500,28.500,-11.000,-14.500
0.073,-3.500,28.500,-11.500,-14.500
0.074,-3.500,28.500,-11.500,-15.000
0.075,-3.500,28.500,-12.000,-15.500
0.076,-4.000,28.000,-12.000,-15.500
0.077,-4.000,28.000,-12.500,-16.000
0.078,-4.000,28.000,-13.000,-16.000
0.079,-3.500,28.000,-13.000,-16.000
0.080,-3.500,28.000,-12.500,-15.500
0.081,-3.000,28.500,-12.000,-15.000
0.082,-2.500,28.500,-12.000,-14.500
0.083,-2.500,28.500,-11.500,-14.500
0.084,-2.500,28.500,-11.500,-14.500
0.085,-3.000,28.500,-11.000,-14.500
0.086,-3.000,28.500,-11.000,-14.000
0.087,-3.000,29.000,-10.500,-14.000
0.088,-3.000,29.000,-10.500,-13.500
0.089,-3.000,29.000,-10.500,-13.500
0.090,-3.000,29.000,-11.500,-14.000
0.091,-3.000,29.000,-12.000,-14.500
0.092,-3.000,29.000,-12.000,-14.500
0.093,-3.000,29.500,-11.500,-14.000
0.094,-3.000,29.500,-11.000,-13.500
0.095,-3.500,29.500,-11.000,-13.000
0.096,-3.500,29.500,-11.500,-13.000
0.097,-3.000,29.500,-11.500,-13.500
0.098,-3.000,29.500,-12.000,-13.500
0.099,-3.000,29.500,-12.000,-13.500
0.100,-2.500,29.500,-11.500,-13.500
0.101,-2.500,29.500,-11.000,-13.000
0.102,-2.000,29.500,-11.000,-13.000
0.103,-2.000,29.500,-10.500,-12.500
0.104,-1.500,30.000,-10.500,-12.500
0.105,-1.500,30.000,-10.000,-12.000
0.106,-1.500,30.000,-9.500,-11.500
0.107,-1.500,30.500,-9.000,-11.000
0.108,-2.000,30.500,-8.500,-10.500
0.109,-2.000,30.500,-8.500,-10.000
0.110,-2.500,30.500,-8.500,-10.000
0.111,-2.500,30.500,-8.500,-10.000
0.112,-2.500,30.500,-9.000,-11.000
0.113,-2.000,30.500,-10.000,-11.500
0.114,-2.000,30.500,-10.500,-12.000
0.115,-2.000,30.500,-11.000,-12.000
0.116,-2.000,30.500,-10.500,-12.000
0.117,-2.500,31.000,-10.500,-11.500
0.118,-2.500,31.000,-10.000,-11.500
0.119,-2.000,31.000,-9.500,-11.000
0.120,-2.000,31.000,-9.500,-11.000
0.121,-1.500,31.000,-9.500,-11.000
0.122,-1.500,31.000,-10.000,-11.000
0.123,-1.000,31.000,-10.000,-11.500
0.124,-0.500,31.000,-10.500,-11.000
0.125,-0.500,31.000,-10.000,-11.000
0.126,0.000,31.500,-9.000,-10.000
0.127,0.000,32.000,-7.500,-9.000
0.128,0.500,32.500,-6.500,-8.000
0.129,0.500,33.500,-5.500,-7.000
0.130,0.500,34.000,-4.500,-6.500
0.131,0.500,34.000,-4.000,-6.000
0.132,0.500,34.000,-4.000,-6.000
0.133,0.000,34.000,-4.000,-6.000
0.134,0.000,34.000,-4.000,-6.000
0.135,-0.500,34.000,-4.000,-6.000
0.136,-0.500,34.000,-4.500,-6.000
0.137,-0.500,33.500,-5.000,-7.000
0.138,-0.500,33.000,-6.000,-7.500
0.139,-0.500,32.500,-7.500,-8.500
0.140,-0.500,31.500,-9.000,-9.500
0.141,0.000,31.500,-9.500,-10.000
0.142,-0.500,31.000,-10.000,-10.000
0.143,-0.500,31.000,-9.500,-9.500
0.144,-0.500,31.000,-9.500,-9.500
0.145,-0.500,31.000,-9.000,-9.000
0.146,-0.500,31.000,-8.500,-8.500
0.147,0.000,31.500,-7.500,-8.000
0.148,0.000,32.500,-6.000,-7.000
0.149,-0.500,33.500,-5.000,-6.000
0.150,-0.500,34.000,-4.000,-5.000
0.151,-1.000,34.000,-4.000,-4.500
0.152,-1.000,34.000,-4.000,-5.000
0.153,-1.000,33.500,-4.500,-5.000
0.154,-1.500,33.500,-5.000,-6.000
0.155,-1.500,33.000,-5.500,-6.000
0.156,-1.500,32.500,-6.000,-6.500
0.157,-1.000,32.500,-6.500,-6.500
0.158,-1.000,32.000,-7.000,-6.500
0.159,-1.000,32.500,-7.000,-6.000
0.160,-1.000,32.500,-6.000,-5.500
0.161,-1.000,33.000,-5.500,-5.000
0.162,-1.000,33.000,-5.500,-5.000
0.163,-0.500,32.500,-6.000,-5.500
0.164,-0.500,32.000,-7.000,-6.500
0.165,-0.500,31.500,-8.500,-7.500
0.166,-0.500,31.000,-9.000,-8.500
0.167,-1.000,31.000,-9.000,-8.000
0.168,-1.500,31.500,-8.000,-7.500
0.169,-2.000,31.500,-7.000,-6.500
0.170,-2.000,31.500,-6.500,-6.000
0.171,-2.500,31.500,-5.500,-5.500
0.172,-3.000,32.000,-5.000,-4.500
0.173,-3.000,32.000,-4.500,-4.000
0.174,-3.000,32.000,-3.500,-3.500
0.175,-3.000,32.500,-3.000,-3.000
0.176,-3.000,32.500,-3.000,-3.000
0.177,-3.000,32.500,-3.000,-3.000
0.178,-3.000,32.500,-3.000,-3.000
0.179,-3.000,32.500,-3.000,-3.000
0.180,-2.500,33.000,-3.000,-3.000
0.181,-2.000,33.000,-3.000,-3.000
0.182,-2.000,33.000,-3.000,-3.000
0.183,-1.500,33.000,-3.500,-3.000
0.184,-1.000,33.000,-4.000,-3.000
0.185,-0.500,33.000,-4.500,-3.500
0.186,0.000,32.500,-5.000,-4.000
0.187,0.000,32.500,-5.500,-4.000
0.188,0.000,32.500,-6.000,-4.500
0.189,0.000,32.500,-6.000,-4.500
0.190,0.000,32.500,-6.000,-4.500
0.191,-0.500,33.000,-5.500,-4.000
0.192,-0.500,33.000,-4.500,-3.000
0.193,-1.000,33.500,-3.000,-2.000
0.194,-1.500,34.000,-2.500,-1.500
0.195,-1.500,34.000,-2.000,-1.000
0.196,-1.500,34.000,-2.500,-1.500
0.197,-1.500,33.500,-3.500,-2.500
0.198,-1.000,33.000,-5.000,-3.500
0.199,-0.500,32.500,-6.000,-4.500
0.200,0.000,32.500,-7.000,-5.000
0.201,0.500,32.500,-7.000,-5.000
0.202,0.500,32.500,-6.500,-4.500
0.203,0.500,32.500,-5.500,-4.000
0.204,0.500,33.000,-4.500,-3.000
0.205,0.000,33.000,-3.000,-2.500
0.206,0.000,33.500,-2.000,-2.000
0.207,0.000,34.000,-1.500,-1.000
0.208,-0.500,34.000,-1.000,-1.000
0.209,-0.500,34.000,-1.500,-1.000
0.210,-0.500,33.500,-2.000,-1.000
0.211,-0.500,33.500,-3.000,-1.500
0.212,0.000,33.500,-3.500,-2.000
0.213,0.000,33.500,-4.000,-2.500
0.214,0.000,33.500,-4.500,-3.000
0.215,0.500,33.000,-5.500,-3.500
0.216,0.500,33.000,-6.000,-4.000
0.217,0.500,33.000,-6.500,-4.500
0.218,0.500,32.500,-7.000,-5.000
0.219,1.000,32.000,-7.500,-5.000
0.220,1.000,32.000,-7.500,-5.000
0.221,1.500,32.000,-7.500,-5.000
0.222,1.500,32.500,-7.000,-5.000
0.223,2.000,33.000,-6.500,-4.500
0.224,1.500,33.000,-6.000,-3.500
0.225,1.500,33.500,-5.000,-3.000
0.226,1.000,33.500,-4.500,-3.000
0.227,1.000,34.000,-4.000,-2.500
0.228,1.000,34.000,-4.000,-2.000
0.229,1.000,34.000,-4.000,-2.500
0.230,1.000,34.000,-4.500,-2.500
0.231,1.000,34.000,-5.000,-3.000
0.232,1.500,34.000,-5.000,-3.500
0.233,1.500,34.000,-5.000,-3.500
0.234,1.500,34.000,-5.000,-3.500
0.235,1.500,34.500,-4.500,-3.000
0.236,1.000,34.500,-4.500,-3.000
0.237,1.000,34.500,-4.500,-2.500
0.238,1.000,34.500,-5.000,-3.000
0.239,1.000,34.500,-5.500,-3.000
0.240,1.500,34.000,-5.500,-3.000
0.241,1.500,34.000,-6.000,-3.500
0.242,2.000,34.000,-6.000,-3.500
0.243,2.500,34.000,-6.000,-3.500
0.244,2.500,33.500,-6.500,-4.000
0.245,3.000,33.500,-6.500,-4.000
0.246,3.500,33.500,-7.000,-4.500
0.247,3.500,33.000,-7.500,-5.500
0.248,3.500,33.000,-8.500,-6.000
0.249,3.500,32.500,-9.500,-7.000
0.250,3.500,32.000,-10.500,-8.000
0.251,3.500,31.500,-11.500,-9.000
0.252,3.000,31.000,-12.000,-9.500
0.253,3.000,31.000,-12.500,-10.000
0.254,2.500,31.000,-12.000,-9.500
0.255,2.500,31.500,-12.000,-9.000
0.256,2.500,31.500,-11.500,-9.000
0.257,2.500,32.000,-11.500,-9.000
0.258,3.000,32.000,-12.000,-9.000
0.259,3.000,32.000,-11.500,-9.500
0.260,3.000,32.500,-11.500,-9.000
0.261,3.000,32.500,-11.000,-9.000
0.262,3.500,32.500,-11.000,-9.000
0.263,3.500,32.500,-11.000,-9.500
0.264,4.000,33.000,-11.000,-9.500
0.265,4.500,33.000,-11.000,-9.500
0.266,5.000,33.000,-10.500,-9.500
0.267,5.000,33.500,-10.500,-9.500
0.268,5.000,34.000,-10.000,-9.000
0.269,5.000,34.000,-9.000,-8.000
0.270,5.000,34.500,-8.000,-7.000
0.271,5.000,35.500,-7.000,-6.000
0.272,5.000,36.000,-6.000,-5.500
0.273,5.000,36.000,-5.500,-5.000
0.274,4.500,36.000,-5.500,-4.500
0.275,4.500,36.000,-5.500,-4.500
0.276,4.500,36.000,-5.500,-4.500
0.277,4.500,36.000,-5.500,-4.500
0.278,4.500,36.000,-6.000,-5.000
0.279,4.500,36.000,-6.500,-5.000
0.280,5.000,35.500,-7.000,-5.500
0.281,5.000,35.500,-7.500,-6.000
0.282,5.500,35.000,-8.500,-7.000
0.283,5.500,35.000,-9.500,-7.500
0.284,6.000,34.500,-10.500,-8.500
0.285,6.000,34.500,-11.000,-9.000
0.286,6.500,34.500,-11.000,-9.000
0.287,6.500,35.000,-10.500,-8.000
0.288,6.000,35.500,-9.000,-7.000
0.289,6.000,36.000,-8.500,-6.000
0.290,5.500,36.000,-8.000,-6.000
0.291,5.500,35.500,-8.500,-6.000
0.292,5.500,35.000,-9.000,-7.000
0.293,5.500,35.000,-9.500,-7.500
0.294,5.500,35.000,-9.500,-7.500
0.295,6.000,35.500,-9.000,-7.000
0.296,6.000,36.000,-8.000,-6.000
0.297,6.500,37.000,-7.500,-5.000
0.298,7.000,37.000,-7.000,-4.500
0.299,7.000,37.000,-6.500,-4.500
0.300,7.500,37.000,-6.500,-4.000
0.301,7.500,37.500,-6.500,-4.000
0.302,8.000,37.500,-6.000,-3.500
0.303,8.000,37.500,-6.000,-3.500
0.304,8.500,37.500,-6.000,-3.000
0.305,8.500,37.500,-6.000,-3.000
0.306,9.000,38.000,-6.000,-3.500
0.307,9.000,38.000,-6.500,-3.500
0.308,9.500,38.000,-7.000,-4.000
0.309,9.500,38.000,-7.500,-4.000
0.310,9.000,38.000,-7.500,-4.500
0.311,9.000,38.000,-8.000,-4.500
0.312,9.000,38.000,-8.000,-4.500
0.313,8.500,38.000,-8.000,-4.500
0.314,8.500,38.000,-8.500,-5.000
0.315,8.500,38.000,-8.500,-4.500
0.316,8.500,38.000,-8.000,-4.500
0.317,9.000,38.500,-7.500,-4.000
0.318,9.500,38.500,-7.500,-3.500
0.319,10.000,38.500,-7.000,-3.000
0.320,10.500,39.000,-6.500,-3.000
0.321,10.500,39.000,-6.000,-2.500
0.322,10.500,39.000,-5.500,-2.000
0.323,10.500,39.500,-5.500,-1.500
0.324,10.500,39.500,-5.000,-1.000
0.325,10.500,39.500,-4.500,-0.500
0.326,10.500,39.500,-4.500,-0.500
0.327,10.000,39.500,-4.000,0.000
0.328,9.500,39.500,-4.000,0.000
0.329,9.000,39.500,-3.500,0.500
0.330,8.500,39.500,-3.500,0.500
0.331,8.000,39.500,-3.500,1.000
0.332,8.000,39.500,-3.000,1.000
0.333,8.000,39.500,-3.000,1.000
0.334,8.500,39.500,-3.500,0.500
0.335,8.500,39.000,-4.000,0.000
0.336,9.000,38.500,-5.000,-1.000
0.337,9.500,38.500,-6.000,-1.500
0.338,10.000,38.000,-7.000,-2.000
0.339,10.500,38.000,-7.000,-2.000
0.340,10.500,38.000,-6.500,-1.500
0.341,11.000,38.000,-6.000,-1.000
0.342,11.500,38.500,-5.000,-0.500
0.343,11.500,39.000,-4.000,0.000
0.344,12.000,39.500,-3.500,0.500
0.345,12.000,40.000,-3.000,1.000
0.346,12.500,40.000,-3.000,1.000
0.347,12.000,40.000,-3.500,1.000
0.348,12.000,39.500,-3.500,1.000
0.349,11.500,39.500,-3.500,1.000
0.350,10.500,39.000,-3.500,1.000
0.351,10.000,38.500,-3.500,1.000
0.352,9.500,38.500,-3.500,1.000
0.353,9.000,38.000,-4.000,0.500
0.354,8.500,37.500,-5.000,-0.500
0.355,8.000,37.000,-6.000,-1.000
0.356,7.500,36.500,-6.500,-1.500
0.357,7.000,35.500,-7.000,-1.500
0.358,6.500,35.000,-7.500,-2.000
0.359,5.500,34.500,-8.000,-2.500
0.360,5.500,33.500,-9.000,-3.000
0.361,5.000,33.000,-10.000,-3.500
0.362,5.000,32.500,-11.000,-4.500
0.363,5.000,32.000,-12.000,-5.500
0.364,5.500,31.500,-13.000,-6.500
0.365,5.500,31.500,-14.000,-7.500
0.366,6.000,31.500,-14.500,-8.000
0.367,6.500,31.500,-14.500,-8.000
0.368,7.500,32.500,-13.000,-7.000
0.369,8.000,33.500,-11.500,-5.500
0.370,8.500,35.000,-9.500,-3.500
0.371,9.000,36.000,-8.000,-1.500
0.372,9.500,37.000,-6.000,0.000
0.373,10.000,38.000,-4.000,1.500
0.374,10.000,39.000,-3.000,3.000
0.375,10.000,39.500,-2.000,3.500
0.376,10.000,39.500,-2.000,3.500
0.377,10.500,39.000,-2.500,3.500
0.378,10.500,38.500,-3.000,2.500
0.379,10.500,38.500,-4.000,2.000
0.380,10.500,38.000,-4.000,1.500
0.381,10.000,38.000,-4.000,1.500
0.382,10.000,38.000,-4.000,1.500
0.383,10.500,38.000,-3.500,1.500
0.384,10.500,38.000,-4.000,1.500
0.385,10.500,38.000,-4.000,1.500
0.386,10.000,38.000,-4.000,2.000
0.387,10.000,38.500,-3.500,2.000
0.388,9.500,38.500,-3.000,2.500
0.389,9.500,38.500,-3.000,3.000
0.390,9.500,39.000,-2.500,3.000
0.391,9.500,38.500,-3.000,3.000
0.392,9.500,38.500,-3.500,3.000
0.393,9.500,38.500,-4.000,2.500
0.394,9.500,38.000,-4.500,2.000
0.395,9.500,38.000,-5.000,2.000
0.396,10.000,37.500,-5.500,1.500
0.397,10.000,37.500,-6.000,1.500
0.398,10.000,37.500,-6.000,1.000
0.399,10.500,37.500,-6.000,1.000
0.400,10.500,38.000,-5.500,1.500
0.401,11.000,38.000,-5.000,1.500
0.402,11.000,38.000,-5.000,1.500
0.403,11.500,38.000,-5.000,1.500
0.404,11.500,38.000,-5.000,1.500
0.405,11.500,38.000,-4.500,2.000
0.406,11.500,38.500,-3.500,2.500
0.407,11.500,39.000,-2.500,3.500
0.408,11.500,40.000,-1.500,4.500
0.409,11.500,40.500,-0.500,5.000
0.410,11.500,41.000,-0.500,5.000
0.411,11.500,41.000,0.000,5.500
0.412,11.500,41.500,0.500,5.500
0.413,11.500,42.000,0.500,6.000
0.414,12.000,42.000,1.000,6.500
0.415,12.500,42.500,0.500,6.500
0.416,13.000,42.500,0.500,6.500
0.417,13.500,42.000,-0.500,6.000
0.418,14.000,42.000,-1.500,5.000
0.419,14.500,41.500,-2.000,4.500
0.420,14.500,41.500,-2.500,4.000
0.421,15.000,41.500,-2.000,4.000
0.422,15.000,42.000,-1.500,4.500
0.423,15.000,42.000,-1.000,5.000
0.424,15.000,42.000,-0.500,5.000
0.425,15.000,42.500,-0.500,5.500
0.426,15.000,42.500,0.500,6.000
0.427,15.000,42.500,1.000,6.000
0.428,15.000,43.000,1.500,6.500
0.429,15.000,43.000,2.000,7.000
0.430,15.000,43.000,2.000,7.500
0.431,15.000,43.000,2.500,7.500
0.432,14.500,43.000,2.500,8.000
0.433,14.500,43.000,2.500,8.000
0.434,14.500,43.000,2.500,8.000
0.435,14.500,42.500,2.000,7.500
0.436,15.000,42.500,1.000,7.000
0.437,15.500,42.500,0.500,6.000
0.438,15.500,42.000,-0.500,5.000
0.439,16.000,42.000,-1.000,4.500
0.440,16.500,42.000,-1.000,4.500
0.441,17.000,42.500,-1.000,5.000
0.442,17.000,42.500,0.000,5.500
0.443,17.500,43.000,0.500,6.000
0.444,17.500,43.000,0.500,6.000
0.445,17.500,43.000,0.000,6.000
0.446,17.500,43.000,0.000,5.500
0.447,18.000,43.000,-0.500,5.500
0.448,18.000,43.000,-0.500,5.000
0.449,18.000,43.000,-1.000,5.000
0.450,17.500,43.000,-1.000,4.500
0.451,17.500,42.500,-1.500,4.500
0.452,17.500,42.500,-1.500,4.500
0.453,17.500,42.000,-2.000,4.000
0.454,17.500,41.500,-3.000,3.500
0.455,17.000,41.000,-3.500,3.000
0.456,17.000,41.000,-4.000,3.000
0.457,17.000,40.500,-4.000,3.000
0.458,17.000,41.000,-3.500,3.500
0.459,17.000,41.000,-2.500,4.000
0.460,17.500,41.500,-1.500,4.500
0.461,18.000,42.000,-1.000,5.000
0.462,18.500,42.500,0.000,5.500
0.463,19.500,43.000,0.000,6.000
0.464,20.000,43.500,0.000,5.500
0.465,20.500,43.500,0.000,5.500
0.466,20.500,44.500,1.000,6.000
0.467,20.500,45.000,2.000,7.000
0.468,20.500,46.000,3.500,8.000
0.469,20.000,46.500,4.500,9.000
0.470,20.000,46.500,5.000,9.500
0.471,20.000,47.000,5.000,9.500
0.472,20.000,47.000,5.000,9.500
0.473,20.500,47.000,4.500,9.500
0.474,20.500,47.000,4.500,9.500
0.475,20.500,47.500,5.000,10.000
0.476,20.500,47.500,5.000,10.000
0.477,20.500,47.500,5.500,10.500
0.478,20.500,47.500,5.500,10.500
0.479,21.000,47.500,5.500,10.500
0.480,21.000,47.000,5.000,10.000
0.481,21.000,47.000,4.500,9.500
0.482,21.500,46.500,4.000,9.000
0.483,21.500,46.500,3.500,8.500
0.484,22.000,46.500,3.000,8.500
0.485,22.000,46.000,2.500,8.000
0.486,22.000,46.000,2.000,8.000
0.487,21.500,46.000,2.500,8.000
0.488,21.500,46.500,2.500,8.500
0.489,21.000,46.500,3.000,9.000
0.490,20.500,47.000,3.500,9.500
0.491,20.500,47.000,3.000,9.500
0.492,20.500,46.500,3.000,9.000
0.493,20.500,46.500,3.000,9.500
0.494,20.000,46.500,3.500,9.500
0.495,20.000,46.500,4.000,10.000
0.496,20.000,46.500,4.500,10.500
0.497,20.000,46.500,4.000,10.500
0.498,20.500,46.500,4.000,10.000
0.499,20.500,46.000,3.500,10.000
0.500,20.500,45.500,3.000,10.000
0.501,20.500,45.500,3.000,10.000
0.502,21.000,45.500,3.000,10.000
0.503,21.000,45.500,3.000,9.500
0.504,21.500,45.500,3.000,9.500
0.505,21.500,45.500,3.000,9.500
0.506,21.500,45.500,3.000,9.500
0.507,21.000,45.500,3.000,9.500
0.508,21.000,45.500,3.000,9.500
0.509,21.000,45.500,3.500,10.000
0.510,21.000,46.000,3.500,10.500
0.511,21.000,46.000,4.000,10.500
0.512,21.000,46.500,4.500,11.500
0.513,21.500,47.000,5.000,12.000
0.514,21.500,47.500,5.500,12.500
0.515,22.000,47.500,5.500,12.500
0.516,22.000,47.500,5.000,12.000
0.517,22.500,47.000,4.000,11.000
0.518,22.500,46.000,2.500,10.000
0.519,23.000,46.000,1.500,9.000
0.520,23.000,45.500,1.000,8.000
0.521,23.500,45.500,0.500,7.500
0.522,24.000,45.500,0.000,7.500
0.523,24.500,45.500,0.000,7.500
0.524,24.500,45.500,0.000,7.500
0.525,24.500,45.500,0.500,8.000
0.526,25.000,46.000,1.000,8.500
0.527,25.000,46.000,1.500,9.000
0.528,25.000,46.500,2.000,9.500
0.529,25.000,46.500,2.500,9.500
0.530,24.500,46.500,2.500,10.000
0.531,24.000,46.500,2.500,10.000
0.532,23.500,46.500,3.000,10.500
0.533,23.500,46.500,3.000,10.500
0.534,23.000,46.500,3.000,10.500
0.535,23.000,46.500,3.000,10.500
0.536,23.500,46.500,3.000,10.500
0.537,23.500,46.500,2.500,10.000
0.538,24.000,46.500,2.000,10.000
0.539,24.000,46.000,2.000,10.000
0.540,24.500,46.000,2.000,10.000
0.541,24.500,46.000,2.000,10.500
0.542,24.500,46.000,2.000,10.500
0.543,24.500,46.000,2.500,11.000
0.544,24.500,46.000,2.500,11.000
0.545,24.500,45.500,2.500,11.500
0.546,24.500,45.500,2.500,11.500
0.547,24.000,45.500,3.000,11.500
0.548,24.000,46.000,3.000,12.000
0.549,24.000,46.000,2.500,11.500
0.550,24.000,46.000,2.500,11.500
0.551,24.000,46.500,2.500,11.500
0.552,23.500,47.000,3.500,12.000
0.553,23.500,47.500,4.000,13.000
0.554,23.500,48.000,5.000,13.500
0.555,23.500,48.000,5.500,14.000
0.556,23.500,48.000,5.500,14.000
0.557,23.500,48.000,5.500,13.500
0.558,24.000,47.500,5.000,13.500
0.559,24.000,47.000,5.000,13.000
0.560,24.000,47.000,4.500,13.000
0.561,24.000,46.500,4.500,12.500
0.562,24.000,46.000,4.000,11.500
0.563,24.000,45.500,3.000,11.000
0.564,24.000,45.000,1.500,10.000
0.565,24.000,44.500,0.500,9.500
0.566,24.000,44.500,0.000,9.000
0.567,24.000,45.000,0.500,9.500
0.568,24.000,45.000,1.000,9.500
0.569,24.000,45.500,1.500,10.000
0.570,23.500,45.500,1.500,10.500
0.571,23.500,45.000,2.000,10.500
0.572,23.000,45.000,2.000,10.500
0.573,23.000,45.000,2.500,11.000
0.574,23.000,45.500,3.500,12.000
0.575,23.000,46.500,4.500,13.000
0.576,23.000,47.000,5.500,14.000
0.577,23.500,47.500,6.000,15.000
0.578,23.500,47.500,6.000,15.000
0.579,24.000,47.500,5.500,14.500
0.580,24.500,47.500,5.000,13.500
0.581,25.000,47.000,4.000,13.000
0.582,25.500,47.000,3.500,12.500
0.583,26.000,47.000,3.500,12.000
0.584,26.000,47.000,4.000,12.500
0.585,26.000,47.500,5.000,13.000
0.586,26.000,48.000,6.500,14.500
0.587,25.500,48.500,7.500,15.500
0.588,25.500,48.500,8.500,16.000
0.589,25.000,49.000,9.000,16.500
0.590,24.500,49.000,8.500,16.000
0.591,24.500,48.500,7.500,15.500
0.592,24.500,48.000,6.500,15.000
0.593,25.000,48.000,6.000,14.500
0.594,25.000,48.000,5.500,14.000
0.595,25.500,47.500,5.000,14.000
0.596,25.500,47.500,4.500,14.000
0.597,25.500,47.000,4.500,14.000
0.598,25.000,47.000,4.500,14.000
0.599,25.000,47.000,4.000,14.000
0.600,25.500,47.000,4.000,13.500
0.601,25.500,47.000,4.000,13.500
0.602,26.000,47.500,4.500,14.000
0.603,26.500,48.000,5.500,14.500
0.604,27.000,48.500,6.500,15.500
0.605,27.500,49.000,7.000,16.000
0.606,27.500,49.000,8.000,17.000
0.607,28.000,49.500,8.500,18.000
0.608,28.000,50.000,9.000,18.500
0.609,28.000,50.000,9.500,19.500
0.610,28.000,50.000,9.500,20.000
0.611,28.000,50.000,9.500,20.000
0.612,27.500,50.000,9.500,20.500
0.613,27.500,50.000,9.500,20.500
0.614,27.500,50.000,9.000,20.000
0.615,27.500,50.000,8.500,19.000
0.616,28.000,49.500,7.500,18.000
0.617,28.000,49.000,6.500,17.000
0.618,28.500,49.000,5.500,16.000
0.619,29.000,48.500,4.500,15.000
0.620,29.000,48.500,4.000,14.500
0.621,29.500,48.000,4.000,14.500
0.622,29.500,48.000,4.500,15.000
0.623,30.000,48.500,5.000,15.500
0.624,30.000,48.500,5.500,16.000
0.625,30.500,49.000,6.000,16.000
0.626,30.500,49.500,6.000,16.500
0.627,30.500,50.000,6.500,17.000
0.628,30.500,50.000,7.000,17.500
0.629,30.000,50.500,7.500,18.500
0.630,30.000,51.000,8.500,19.500
0.631,30.000,51.000,9.500,20.500
0.632,30.000,51.500,10.000,21.500
0.633,30.000,51.500,10.500,22.000
0.634,30.000,52.000,11.000,22.000
0.635,30.000,52.000,11.000,22.000
0.636,30.000,52.000,11.000,22.000
0.637,30.000,52.000,11.000,22.000
0.638,30.000,52.000,11.000,21.500
0.639,30.500,52.000,11.000,21.500
0.640,31.000,52.000,10.500,21.500
0.641,31.500,52.000,10.000,21.500
0.642,32.000,52.000,9.500,20.500
0.643,32.500,52.000,8.500,20.000
0.644,32.500,52.000,8.500,19.500
0.645,33.000,52.000,8.500,19.500
0.646,33.000,52.500,8.500,19.500
0.647,33.000,52.500,9.500,20.000
0.648,33.000,53.000,10.000,20.500
0.649,32.500,53.000,10.500,21.000
0.650,32.000,53.500,11.000,21.500
0.651,32.000,54.000,11.500,22.500
0.652,32.000,54.500,12.000,23.000
0.653,32.000,54.500,12.500,23.000
0.654,32.500,54.500,12.500,23.500
0.655,32.500,54.500,12.500,23.500
0.656,32.500,54.500,12.000,23.500
0.657,33.000,54.000,11.500,23.500
0.658,33.500,54.000,11.500,23.500
0.659,33.500,54.500,11.500,23.500
0.660,34.500,55.000,12.000,24.000
0.661,34.500,55.000,12.000,24.000
0.662,35.000,55.000,12.000,23.500
0.663,35.000,55.000,11.500,23.000
0.664,35.000,54.500,10.000,21.500
0.665,35.000,53.500,9.000,20.500
0.666,34.500,53.000,8.500,19.500
0.667,33.500,52.500,8.000,19.000
0.668,32.500,52.500,8.500,19.500
0.669,31.500,52.000,8.500,19.500
0.670,31.000,51.500,9.000,20.000
0.671,30.000,51.500,9.000,20.500
0.672,29.500,51.000,9.000,20.500
0.673,29.000,50.500,9.000,21.000
0.674,29.000,50.000,9.000,21.000
0.675,28.500,50.000,9.500,21.500
0.676,29.000,50.000,10.000,22.500
0.677,29.000,50.500,10.500,23.000
0.678,29.000,50.500,11.000,24.000
0.679,29.500,51.000,11.000,24.500
0.680,29.500,51.000,11.500,25.000
0.681,30.000,51.000,11.000,25.500
0.682,30.500,51.000,11.000,25.500
0.683,30.500,50.500,10.500,25.500
0.684,30.500,50.500,10.500,25.500
0.685,30.500,51.000,11.000,26.500
0.686,31.000,52.000,12.500,27.500
0.687,31.000,53.000,14.000,29.500
0.688,31.000,54.000,16.000,31.500
0.689,31.000,55.000,18.000,33.500
0.690,31.500,56.000,20.000,36.000
0.691,32.000,57.500,22.500,38.000
0.692,32.500,59.000,25.000,40.500
0.693,33.500,61.000,27.500,43.500
0.694,35.000,63.000,30.000,46.500
0.695,36.500,65.000,33.000,49.000
0.696,38.000,67.000,35.000,51.500
0.697,39.500,68.000,36.500,53.000
0.698,41.000,69.000,37.000,54.000
0.699,42.000,70.000,38.000,55.000
0.700,43.000,71.000,39.000,56.500
0.701,44.000,72.000,40.000,58.000
0.702,45.000,73.500,42.000,60.000
0.703,46.000,75.000,44.000,61.500
0.704,46.500,76.000,45.500,62.500
0.705,47.500,77.000,46.000,63.000
0.706,48.500,77.500,46.500,63.000
0.707,50.000,78.000,47.000,62.500
0.708,51.000,79.000,47.000,62.000
0.709,53.000,80.000,47.000,61.000
0.710,54.500,80.500,47.000,60.500
0.711,56.000,81.500,47.000,60.000
0.712,57.500,82.000,46.500,59.500
0.713,58.500,82.500,46.000,58.500
0.714,59.500,82.500,45.500,57.500
0.715,60.500,82.500,44.000,56.000
0.716,61.000,82.000,43.000,54.500
0.717,61.000,81.500,41.500,52.500
0.718,61.000,81.000,40.500,51.000
0.719,61.000,80.500,39.500,50.000
0.720,60.500,79.500,39.000,49.000
0.721,60.000,79.000,39.000,48.500
0.722,59.500,78.500,38.500,48.000
0.723,58.500,77.500,37.500,47.000
0.724,58.000,76.500,37.000,46.500
0.725,57.000,75.500,36.000,45.500
0.726,56.000,74.500,35.500,44.500
0.727,54.500,73.000,34.500,44.000
0.728,53.000,72.000,34.000,43.000
0.729,51.500,71.000,33.000,42.500
0.730,50.000,70.000,32.000,42.000
0.731,48.500,68.500,31.000,41.000
0.732,47.500,67.500,30.000,40.000
0.733,46.000,66.500,28.500,39.000
0.734,45.500,65.500,27.500,38.000
0.735,44.500,64.500,25.500,37.000
0.736,44.000,63.000,24.000,36.000
0.737,43.500,62.000,23.000,34.500
0.738,43.000,61.000,21.500,34.000
0.739,43.000,60.000,21.000,33.000
0.740,42.500,59.500,21.000,33.000
0.741,42.000,59.500,21.000,33.000
0.742,41.500,59.500,21.500,33.500
0.743,41.500,59.500,22.000,33.500
0.744,41.500,59.500,22.000,34.000
0.745,41.000,59.500,22.000,34.000
0.746,41.500,59.000,21.500,33.500
0.747,41.500,59.000,21.000,33.000
0.748,41.500,58.500,20.500,32.000
0.749,41.500,58.500,20.000,32.000
0.750,41.000,58.000,19.500,31.500
0.751,40.500,57.500,19.000,31.500
0.752,40.500,57.500,19.000,31.500
0.753,40.000,57.500,19.000,32.000
0.754,39.500,57.500,19.500,32.500
0.755,39.000,57.500,20.500,33.000
0.756,38.500,57.500,21.000,34.000
0.757,38.000,57.500,22.000,34.500
0.758,38.000,57.000,22.500,35.000
0.759,38.000,57.000,22.500,35.000
0.760,38.000,56.500,22.000,35.000
0.761,38.000,56.000,21.500,34.500
0.762,37.500,55.000,20.500,33.500
0.763,37.000,54.500,20.000,33.000
0.764,36.500,53.500,19.000,32.000
0.765,35.500,53.000,18.500,31.500
0.766,35.000,52.000,18.000,31.000
0.767,34.500,51.500,17.500,31.000
0.768,34.000,51.500,17.000,30.500
0.769,33.500,51.000,16.500,30.500
0.770,33.000,50.500,16.000,30.000
0.771,32.500,50.500,16.000,30.500
0.772,33.000,51.500,17.000,31.000
0.773,33.500,52.500,18.500,32.500
0.774,34.500,53.500,20.000,33.500
0.775,36.000,55.000,21.500,35.000
0.776,37.500,56.000,22.500,36.000
0.777,38.500,57.000,23.000,36.000
0.778,40.000,57.500,23.000,36.000
0.779,41.000,58.000,22.500,35.500
0.780,42.000,58.000,22.500,35.500
0.781,42.000,58.000,23.000,36.000
0.782,42.000,58.000,23.500,36.000
0.783,41.500,58.000,24.000,36.500
0.784,41.000,58.000,24.500,37.000
0.785,40.500,58.000,24.500,36.500
0.786,40.500,58.000,24.000,36.500
0.787,40.500,58.000,23.500,36.000
0.788,41.000,58.000,23.000,36.000
0.789,41.000,58.000,22.500,35.500
0.790,41.000,58.000,22.500,35.500
0.791,40.500,58.000,22.000,35.500
0.792,40.500,57.500,21.500,35.000
0.793,40.000,57.500,21.500,35.000
0.794,40.500,57.500,21.500,35.500
0.795,40.500,57.500,21.500,36.000
0.796,41.000,58.000,21.500,36.000
0.797,41.000,58.000,22.000,36.000
0.798,41.500,58.000,21.500,36.000
0.799,41.500,58.000,21.500,36.000
0.800,41.500,58.000,22.000,36.500
0.801,42.000,58.000,22.000,37.000
0.802,41.500,58.000,23.000,37.500
0.803,41.500,58.500,23.500,38.500
0.804,41.500,59.000,24.500,39.000
0.805,41.000,59.000,25.000,39.500
0.806,41.000,59.500,25.500,39.500
0.807,40.500,60.000,26.000,39.500
0.808,40.500,60.500,26.500,40.000
0.809,40.500,61.000,27.000,40.500
0.810,40.000,61.000,27.000,40.500
0.811,40.000,61.500,27.500,40.500
0.812,40.000,61.500,27.500,40.500
0.813,40.000,61.500,27.500,40.500
0.814,40.500,61.500,27.000,40.500
0.815,40.500,61.500,27.000,40.500
0.816,41.000,61.500,26.500,40.000
0.817,41.000,61.500,26.500,40.000
0.818,41.500,62.000,26.500,40.500
0.819,41.500,62.000,27.000,41.000
0.820,42.000,62.500,27.500,41.500
0.821,42.500,62.500,28.000,42.000
0.822,43.000,63.000,28.000,42.000
0.823,43.500,63.000,27.500,41.500
0.824,44.500,63.000,27.000,41.000
0.825,45.000,63.000,26.000,40.000
0.826,45.500,63.000,26.000,40.000
0.827,45.500,63.000,25.500,39.500
0.828,45.500,63.000,26.000,40.000
0.829,45.000,63.500,26.000,40.500
0.830,44.500,63.500,26.500,41.000
0.831,44.500,64.000,27.000,41.500
0.832,44.000,64.500,27.500,42.000
0.833,43.500,64.500,27.500,42.000
0.834,43.500,64.500,27.500,41.500
0.835,43.500,64.000,27.500,41.000
0.836,43.500,64.000,27.000,41.000
0.837,43.500,64.000,27.000,41.000
0.838,43.500,64.000,27.500,41.500
0.839,43.500,64.000,28.000,42.000
0.840,43.000,64.500,28.500,43.000
0.841,43.000,64.500,29.000,43.500
0.842,43.000,64.500,29.000,43.500
0.843,43.000,64.000,28.500,43.000
0.844,43.500,64.000,28.500,42.500
0.845,43.500,64.000,28.000,42.000
0.846,44.500,64.500,27.500,41.500
0.847,45.000,65.000,28.000,41.500
0.848,45.000,65.000,28.500,42.000
0.849,45.000,65.500,28.500,42.000
0.850,45.000,65.500,28.500,42.000
0.851,44.500,65.000,28.500,42.000
0.852,44.500,65.000,28.500,42.000
0.853,44.000,65.000,28.500,42.000
0.854,44.000,65.000,28.500,42.500
0.855,43.500,65.000,29.000,43.000
0.856,43.000,65.000,29.500,44.000
0.857,42.500,65.000,30.000,44.000
0.858,42.500,64.500,30.000,44.000
0.859,42.500,64.500,29.500,44.000
0.860,42.500,64.000,29.000,43.500
0.861,42.500,63.500,28.500,43.500
0.862,42.500,63.500,28.500,43.000
0.863,43.000,63.000,28.500,43.000
0.864,42.500,63.000,28.500,43.500
0.865,42.500,63.000,29.000,43.500
0.866,42.500,63.000,28.500,43.500
0.867,42.500,62.500,28.000,43.000
0.868,42.500,62.500,27.000,42.000
0.869,42.500,62.000,26.000,41.500
0.870,42.500,61.500,25.500,41.000
0.871,42.000,61.000,25.500,41.000
0.872,41.500,61.000,26.000,42.000
0.873,41.000,61.500,27.000,42.500
0.874,40.500,61.500,28.000,43.500
0.875,40.000,61.500,28.500,44.000
0.876,40.000,61.500,29.000,44.000
0.877,39.500,61.500,29.000,44.500
0.878,39.500,61.500,29.500,44.000
0.879,39.500,61.500,29.500,44.000
0.880,40.000,61.500,29.500,44.000
0.881,40.000,61.500,29.500,44.000
0.882,40.000,61.500,29.500,44.000
0.883,40.000,61.500,29.000,44.000
0.884,40.000,61.500,29.000,44.000
0.885,40.000,61.000,29.000,44.000
0.886,40.000,61.000,29.000,44.000
0.887,39.500,60.500,29.000,44.000
0.888,39.500,60.500,29.500,44.500
0.889,39.500,60.500,29.500,44.500
0.890,39.500,60.500,29.000,44.500
0.891,39.500,60.500,29.000,44.500
0.892,39.000,60.000,28.500,44.500
0.893,39.000,60.000,28.500,44.500
0.894,38.500,60.000,28.000,45.000
0.895,38.500,60.000,28.000,45.000
0.896,38.000,60.000,27.500,44.500
0.897,38.000,60.000,27.000,44.500
0.898,38.500,60.000,27.000,44.500
0.899,38.500,60.000,27.500,44.500
0.900,38.500,60.000,28.000,45.000
0.901,38.000,60.000,28.500,45.500
0.902,38.000,59.500,28.500,46.000
0.903,38.000,59.500,28.500,46.000
0.904,38.000,59.500,28.500,46.000
0.905,38.000,59.000,28.000,45.500
0.906,38.500,59.000,27.500,45.000
0.907,38.500,59.000,27.500,45.000
0.908,38.500,59.500,27.500,45.000
0.909,38.500,60.000,28.500,45.500
0.910,38.000,60.500,29.500,46.500
0.911,37.500,61.000,30.000,47.500
0.912,37.500,61.500,30.500,48.000
0.913,37.500,61.500,30.500,48.000
0.914,37.500,61.500,30.500,48.000
0.915,38.000,61.000,30.000,47.500
0.916,38.000,61.000,29.000,47.000
0.917,38.500,60.500,28.000,46.000
0.918,38.500,60.500,27.000,45.500
0.919,39.000,60.500,26.500,45.000
0.920,39.000,60.500,26.000,45.000
0.921,39.000,61.000,26.500,45.500
0.922,39.500,62.000,27.000,45.500
0.923,39.500,62.500,27.500,46.000
0.924,40.000,62.500,28.500,46.500
0.925,39.500,62.500,29.000,47.000
0.926,39.000,63.000,30.000,48.000
0.927,39.000,63.500,31.000,49.000
0.928,38.500,64.000,32.000,50.000
0.929,38.500,64.000,33.000,50.500
0.930,38.000,64.500,33.500,51.500
0.931,38.000,64.500,33.500,51.500
0.932,37.500,64.000,33.000,51.500
0.933,37.000,63.500,32.500,51.000
0.934,37.000,63.500,32.000,51.000
0.935,36.500,63.500,32.000,51.000
0.936,36.500,63.500,32.000,51.000
0.937,36.500,63.500,31.500,50.500
0.938,36.500,63.000,31.000,50.000
0.939,36.500,63.000,30.500,49.000
0.940,37.000,62.500,30.000,48.500
0.941,36.500,62.000,30.000,48.500
0.942,36.500,62.000,30.000,48.500
0.943,36.500,62.500,30.000,48.000
0.944,36.500,62.000,29.500,48.000
0.945,36.500,62.000,28.500,47.000
0.946,36.500,62.000,28.000,46.500
0.947,36.500,61.500,27.500,46.500
0.948,36.000,62.000,28.000,46.500
0.949,36.000,62.500,28.500,47.500
0.950,35.500,62.500,28.500,47.500
0.951,35.500,63.000,28.500,48.000
0.952,35.000,63.000,29.000,48.500
0.953,35.000,63.000,29.500,49.000
0.954,34.500,63.500,30.000,49.500
0.955,34.500,63.500,30.000,50.000
0.956,34.500,63.000,30.000,49.500
0.957,34.500,63.000,29.500,49.500
0.958,35.000,62.500,29.000,48.500
0.959,35.500,62.500,28.000,47.500
0.960,35.500,62.500,27.000,47.000
0.961,36.000,62.000,26.500,46.500
0.962,36.500,62.500,26.000,46.000
0.963,36.000,62.500,26.500,46.000
0.964,36.000,62.500,27.000,46.500
0.965,35.500,62.500,27.000,46.500
0.966,35.500,62.000,27.000,46.000
0.967,35.500,62.000,26.500,46.000
0.968,36.000,62.000,26.000,45.500
0.969,36.000,62.000,26.000,45.500
0.970,35.500,62.000,26.000,45.500
0.971,35.000,62.000,27.000,46.000
0.972,35.000,62.000,27.000,46.000
0.973,34.500,62.500,27.000,46.500
0.974,34.500,62.500,27.000,46.500
0.975,34.500,62.500,26.000,46.000
0.976,34.500,62.000,25.000,45.000
0.977,35.000,61.500,24.000,44.000
0.978,35.000,61.500,23.000,43.000
0.979,35.000,61.000,22.500,42.500
0.980,35.500,61.000,22.500,42.500
0.981,35.500,61.000,23.000,42.500
0.982,35.500,61.500,23.500,43.000
0.983,36.000,61.500,24.000,43.000
0.984,36.000,61.500,24.000,43.000
0.985,35.500,61.500,24.000,42.500
0.986,35.500,61.500,23.500,42.000
0.987,35.000,61.000,23.500,41.500
0.988,35.000,61.000,23.500,41.500
0.989,34.500,61.000,23.500,41.500
0.990,34.500,61.000,23.500,41.500
0.991,34.500,61.000,23.000,41.000
0.992,34.000,61.000,22.500,40.500
0.993,34.500,60.500,21.500,40.000
0.994,34.500,60.500,20.000,38.500
0.995,34.500,60.000,19.000,38.000
0.996,35.000,59.500,18.500,37.000
0.997,35.000,59.500,18.000,37.000
0.998,35.000,59.500,18.000,37.000
0.999,35.500,59.500,18.000,37.000
1.000,35.500,59.500,18.000,37.000
1.001,36.000,59.500,18.000,36.500
1.002,36.500,59.500,17.500,36.500
1.003,36.500,59.500,17.000,36.000
1.004,37.000,59.500,17.000,36.000
1.005,37.500,60.000,17.000,36.000
1.006,37.500,60.000,17.500,36.000
1.007,37.500,60.000,17.500,36.000
1.008,37.500,60.500,18.500,36.500
1.009,37.000,60.500,19.000,36.500
1.010,37.000,61.000,20.000,37.500
1.011,36.500,61.500,20.500,38.000
1.012,36.000,62.000,21.000,38.000
1.013,36.000,62.000,21.500,38.500
1.014,36.000,62.500,22.000,38.500
1.015,35.500,62.500,22.000,38.500
1.016,35.500,62.500,21.500,38.500
1.017,35.500,62.500,21.500,38.500
1.018,36.000,62.000,21.000,38.000
1.019,36.000,62.000,20.500,37.500
1.020,36.000,61.500,20.000,37.000
1.021,36.500,61.500,19.500,36.500
1.022,37.000,61.500,19.000,36.000
1.023,37.000,61.000,18.000,35.500
1.024,37.500,60.500,17.500,35.000
1.025,37.500,60.500,17.000,34.500
1.026,37.000,60.000,17.000,34.000
1.027,37.000,60.000,17.000,34.000
1.028,37.000,60.000,17.000,33.500
1.029,37.000,60.500,17.000,33.500
1.030,36.500,60.500,17.000,33.500
1.031,36.500,60.500,16.500,33.500
1.032,36.000,60.500,16.500,33.500
1.033,36.000,61.000,16.500,33.500
1.034,36.000,61.000,16.500,33.500
1.035,36.000,61.000,16.500,33.500
1.036,36.000,61.000,16.000,33.500
1.037,36.000,61.000,16.000,33.500
1.038,36.000,60.500,16.000,33.500
1.039,36.000,60.500,16.500,33.500
1.040,36.000,60.500,17.500,34.000
1.041,36.000,61.000,18.000,34.500
1.042,36.000,61.000,18.000,35.000
1.043,36.500,61.000,18.000,35.000
1.044,36.500,61.000,18.000,35.000
1.045,36.500,61.000,18.000,35.000
1.046,36.500,61.000,18.000,35.000
1.047,36.000,61.000,18.000,35.000
1.048,36.000,61.000,18.500,35.000
1.049,35.500,61.500,18.500,35.000
1.050,35.500,61.500,18.500,35.000
1.051,35.500,61.500,18.000,34.000
1.052,35.000,61.000,16.500,33.000
1.053,35.000,60.500,15.500,32.500
1.054,35.000,60.500,15.000,32.000
1.055,35.000,60.500,15.000,32.000
1.056,35.000,60.500,14.500,31.500
1.057,35.000,60.000,14.500,31.500
1.058,35.000,60.000,14.000,31.000
1.059,35.500,59.500,13.500,30.500
1.060,35.500,59.500,13.000,30.000
1.061,36.000,59.500,13.000,30.000
1.062,36.000,59.500,13.500,30.500
1.063,35.500,59.500,13.500,30.500
1.064,35.500,59.500,14.000,30.500
1.065,35.000,59.500,14.000,30.000
1.066,35.000,59.500,14.000,30.500
1.067,34.500,59.500,14.500,30.500
1.068,34.000,59.500,14.500,31.000
1.069,34.000,60.000,14.500,31.500
1.070,33.500,60.000,15.000,32.000
1.071,33.000,60.000,15.500,32.500
1.072,32.500,60.500,16.000,33.000
1.073,32.500,60.500,16.000,33.000
1.074,32.000,60.500,16.000,33.000
1.075,32.500,60.500,15.500,32.500
1.076,32.500,60.000,14.500,32.000
1.077,32.500,59.500,13.500,31.000
1.078,32.000,59.000,12.500,30.000
1.079,32.000,59.000,12.000,29.500
1.080,32.000,59.000,12.500,30.000
1.081,31.500,59.000,12.500,30.500
1.082,32.000,59.000,13.000,30.500
1.083,32.000,59.000,13.000,30.500
1.084,32.000,58.500,12.500,30.000
1.085,32.500,58.500,12.000,29.500
1.086,32.500,58.500,11.000,29.000
1.087,32.500,58.500,11.000,28.500
1.088,32.500,58.500,11.000,28.500
1.089,32.000,58.500,11.500,29.000
1.090,31.500,58.500,12.000,29.500
1.091,31.000,58.500,12.500,30.000
1.092,30.500,59.000,13.000,30.500
1.093,30.000,58.500,13.000,30.500
1.094,29.500,58.500,12.500,30.500
1.095,29.500,58.000,12.000,30.000
1.096,29.500,57.500,11.000,29.000
1.097,29.500,57.000,10.000,28.500
1.098,29.500,57.000,9.500,27.500
1.099,30.000,56.500,8.500,27.000
1.100,30.000,56.500,8.000,26.500
1.101,29.500,56.000,7.500,26.500
1.102,29.000,56.000,7.500,26.500
1.103,29.000,55.500,8.000,27.000
1.104,28.500,55.000,8.000,27.000
1.105,28.000,55.000,8.000,27.500
1.106,27.500,55.000,8.500,27.500
1.107,27.500,55.500,9.000,27.500
1.108,27.000,55.500,9.000,27.500
1.109,27.000,55.500,9.500,28.000
1.110,27.000,56.000,10.000,28.000
1.111,27.000,56.000,10.000,28.000
1.112,26.500,56.000,10.000,28.000
1.113,26.500,56.000,9.500,28.000
1.114,27.000,56.000,9.000,27.500
1.115,27.000,56.000,8.000,27.000
1.116,27.500,55.500,7.000,26.000
1.117,28.500,55.500,6.000,25.000
1.118,29.000,55.500,5.500,24.500
1.119,29.500,55.500,5.500,24.500
1.120,30.000,55.500,5.500,24.500
1.121,30.500,56.000,6.000,25.000
1.122,31.000,56.500,6.000,25.000
1.123,31.000,56.500,6.500,25.500
1.124,31.000,56.500,6.500,25.500
1.125,31.000,56.500,6.500,25.500
1.126,31.000,56.500,6.500,25.500
1.127,30.500,56.500,6.500,25.500
1.128,30.000,56.500,7.000,26.000
1.129,29.000,56.500,7.500,27.000
1.130,28.500,56.500,8.000,27.000
1.131,28.500,56.500,8.500,27.000
1.132,28.500,56.000,8.000,26.500
1.133,28.500,55.500,7.000,25.500
1.134,29.000,55.500,6.000,25.000
1.135,29.000,55.000,6.000,24.500
1.136,28.500,55.500,6.000,25.000
1.137,28.500,55.500,6.000,25.500
1.138,28.000,55.500,6.500,25.500
1.139,28.500,55.500,6.000,25.500
1.140,28.500,55.000,6.000,25.000
1.141,28.500,55.000,5.500,25.000
1.142,29.000,55.000,5.500,24.500
1.143,29.000,54.500,5.500,24.500
1.144,28.500,54.500,6.000,24.500
1.145,28.500,54.500,6.500,25.000
1.146,28.000,54.500,7.000,25.500
1.147,27.500,54.000,7.000,25.500
1.148,27.500,54.000,7.000,25.500
1.149,27.000,54.000,7.000,25.500
1.150,27.000,54.000,6.500,25.500
1.151,27.000,54.000,6.000,25.000
1.152,27.000,54.000,6.000,25.500
1.153,27.000,54.000,6.500,26.000
1.154,27.000,54.500,7.500,26.500
1.155,27.000,54.500,8.000,26.500
1.156,27.000,54.500,8.000,26.500
1.157,27.000,54.500,7.500,26.500
1.158,27.500,54.000,7.500,26.000
1.159,27.500,54.000,7.000,26.000
1.160,27.500,54.000,7.000,25.500
1.161,28.000,53.500,6.500,25.500
1.162,27.500,53.500,6.500,25.500
1.163,27.500,53.000,6.500,25.500
1.164,27.500,52.500,6.500,25.500
1.165,27.000,52.500,6.000,25.000
1.166,27.000,52.500,6.000,25.000
1.167,26.500,52.000,5.500,25.000
1.168,25.500,51.500,5.500,24.500
1.169,24.500,51.000,4.500,24.000
1.170,23.500,50.000,4.000,23.000
1.171,22.500,49.000,3.000,22.500
1.172,21.500,48.500,2.000,22.000
1.173,20.500,48.000,1.500,21.500
1.174,20.000,47.500,1.000,21.000
1.175,19.500,47.000,0.000,20.500
1.176,19.500,47.000,-0.500,20.500
1.177,19.500,46.500,-1.000,20.000
1.178,19.500,46.500,-1.500,20.000
1.179,20.500,47.000,-1.000,20.000
1.180,21.500,47.500,-0.500,20.500
1.181,22.500,49.000,1.000,21.500
1.182,23.500,50.000,2.000,22.500
1.183,24.500,51.000,3.000,23.500
1.184,25.500,52.000,4.000,24.000
1.185,26.000,52.500,5.000,25.000
1.186,26.000,52.500,5.500,25.000
1.187,26.000,53.000,6.000,25.500
1.188,25.500,53.000,6.000,25.500
1.189,25.500,52.500,5.000,25.000
1.190,25.000,52.000,4.000,23.500
1.191,25.000,51.500,2.000,22.000
1.192,25.000,51.000,0.500,21.000
1.193,24.500,50.500,0.000,20.500
1.194,24.500,50.500,-0.500,20.500
1.195,24.000,50.500,-0.500,20.500
1.196,24.000,50.000,-0.500,21.000
1.197,24.000,50.000,-0.500,21.000
1.198,24.000,50.000,-0.500,21.000
1.199,24.000,50.500,-0.500,21.000
1.200,24.500,50.500,-1.000,20.500
1.201,25.000,50.000,-1.500,20.500
1.202,25.000,50.000,-2.500,20.000
1.203,25.500,50.000,-2.500,19.500
1.204,25.500,49.500,-2.500,19.500
1.205,25.000,49.500,-2.500,19.500
1.206,24.500,49.500,-2.000,20.000
1.207,23.500,49.500,-1.000,21.000
1.208,23.000,50.000,0.000,22.000
1.209,22.500,50.000,0.500,22.500
1.210,22.000,50.000,1.000,23.000
1.211,21.500,50.000,0.500,23.000
1.212,21.000,50.000,0.500,23.500
1.213,21.000,50.000,0.500,23.500
1.214,21.000,50.000,0.500,23.000
1.215,21.000,50.000,0.000,23.000
1.216,21.500,49.500,-0.500,22.500
1.217,21.000,49.500,-1.000,22.500
1.218,21.000,49.000,-1.000,22.500
1.219,21.000,49.000,-1.000,22.500
1.220,20.500,49.000,-0.500,22.500
1.221,21.000,49.000,-0.500,22.500
1.222,21.000,49.000,0.000,22.500
1.223,21.000,49.000,-0.500,22.500
1.224,21.000,48.500,-0.500,22.500
1.225,21.000,48.500,-0.500,22.500
1.226,20.500,48.000,-0.500,22.500
1.227,20.500,48.000,-0.500,22.500
1.228,20.000,48.000,0.000,23.000
1.229,20.000,48.500,0.500,23.000
1.230,20.000,48.500,0.500,23.000
1.231,19.500,48.000,0.000,22.500
1.232,19.000,47.500,-1.000,22.000
1.233,19.000,47.000,-1.500,21.500
1.234,19.000,47.000,-2.500,21.000
1.235,19.000,46.500,-3.000,20.500
1.236,19.500,46.500,-3.000,20.500
1.237,19.500,46.500,-2.500,20.500
1.238,19.000,46.500,-2.500,21.000
1.239,19.000,46.500,-2.000,21.500
1.240,19.000,46.500,-2.000,22.000
1.241,19.000,46.500,-2.000,22.000
1.242,19.000,46.000,-2.500,21.500
1.243,19.000,45.500,-3.500,20.500
1.244,19.500,44.500,-4.500,19.500
1.245,19.500,44.000,-5.500,18.500
1.246,19.500,44.000,-6.500,18.000
1.247,19.500,44.000,-6.500,17.500
1.248,19.000,44.000,-6.000,18.000
1.249,19.000,44.000,-5.500,18.500
1.250,18.500,44.500,-5.000,19.000
1.251,18.000,44.500,-4.500,19.500
1.252,18.000,44.500,-4.500,19.500
1.253,17.500,44.500,-4.500,19.500
1.254,17.500,44.000,-4.500,19.500
1.255,17.500,44.500,-4.000,20.000
1.256,17.500,44.500,-3.500,20.500
1.257,17.500,45.000,-3.000,21.000
1.258,17.500,45.000,-3.000,21.500
1.259,17.500,45.000,-3.000,21.500
1.260,17.500,45.000,-3.000,21.500
1.261,18.000,45.000,-3.500,21.000
1.262,18.000,45.000,-4.000,20.500
1.263,18.500,45.000,-3.500,20.500
1.264,18.500,45.000,-3.500,20.500
1.265,18.500,45.500,-3.000,20.500
1.266,18.500,45.500,-2.500,21.000
1.267,18.500,45.500,-2.500,21.500
1.268,18.000,45.000,-2.000,21.500
1.269,18.000,45.000,-1.500,22.000
1.270,17.500,45.500,-1.500,22.500
1.271,17.000,45.500,-1.000,22.500
1.272,17.000,45.500,-0.500,23.000
1.273,16.500,45.500,0.000,23.000
1.274,16.500,45.500,0.000,23.000
1.275,16.500,45.500,-0.500,23.000
1.276,16.500,45.000,-1.000,22.500
1.277,16.500,44.500,-2.000,21.500
1.278,16.500,44.000,-3.500,20.500
1.279,17.000,43.500,-4.500,19.500
1.280,17.000,43.000,-5.000,19.000
1.281,17.000,42.500,-5.000,19.000
1.282,17.500,42.500,-5.500,18.500
1.283,17.500,42.500,-6.000,18.500
1.284,17.500,42.000,-6.000,18.000
1.285,17.500,42.000,-6.000,17.500
1.286,17.500,42.000,-6.000,18.000
1.287,17.000,42.500,-5.000,18.500
1.288,16.500,42.500,-4.500,19.000
1.289,16.000,42.000,-4.000,19.000
1.290,16.000,42.000,-4.000,19.000
1.291,15.500,41.500,-4.000,19.000
1.292,15.000,41.500,-4.000,19.500
1.293,14.500,41.500,-3.500,19.500
1.294,14.500,42.000,-2.500,20.000
1.295,14.000,42.000,-2.000,21.000
1.296,14.500,42.500,-1.500,21.000
1.297,14.500,42.000,-2.000,21.000
1.298,14.500,42.000,-2.500,20.500
1.299,15.000,41.500,-3.000,20.000
1.300,15.000,41.500,-3.000,20.000
1.301,15.000,41.500,-2.500,20.500
1.302,15.000,41.500,-2.500,20.500
1.303,15.000,41.500,-2.000,20.500
1.304,15.000,42.000,-2.000,20.500
1.305,15.000,41.500,-2.000,20.500
1.306,14.500,41.500,-2.000,20.500
1.307,14.000,41.500,-2.000,20.500
1.308,13.500,41.000,-2.000,20.000
1.309,12.500,41.000,-2.500,20.000
1.310,12.000,40.500,-3.000,19.500
1.311,11.500,40.000,-3.500,19.000
1.312,11.000,40.000,-4.500,19.000
1.313,11.000,39.500,-5.000,18.500
1.314,11.000,39.000,-6.000,18.000
1.315,11.000,39.000,-6.500,17.500
1.316,11.500,38.500,-7.500,17.000
1.317,11.500,38.000,-8.000,16.000
1.318,11.500,37.500,-9.000,15.000
1.319,12.000,37.000,-9.500,14.500
1.320,12.000,37.000,-10.000,14.000
1.321,12.500,36.500,-10.000,14.000
1.322,12.500,36.500,-10.000,13.500
1.323,12.500,36.500,-10.000,14.000
1.324,12.500,36.500,-9.500,14.000
1.325,12.500,36.500,-9.500,14.500
1.326,12.500,37.000,-9.500,14.500
1.327,12.500,37.000,-9.500,14.500
1.328,12.500,37.000,-9.000,14.500
1.329,12.000,37.000,-8.500,14.500
1.330,11.500,37.500,-7.500,15.500
1.331,11.000,37.500,-6.500,16.500
1.332,10.500,38.000,-5.500,17.500
1.333,10.000,38.500,-5.000,18.000
1.334,9.500,39.000,-4.500,18.500
1.335,9.500,39.000,-4.500,19.000
1.336,9.500,39.000,-4.500,18.500
1.337,9.500,38.500,-5.000,18.500
1.338,9.500,38.500,-5.500,18.000
1.339,9.500,38.000,-6.000,17.500
1.340,9.500,37.500,-7.000,17.000
1.341,9.500,37.000,-8.000,16.500
1.342,10.000,36.500,-9.000,15.500
1.343,10.000,35.500,-10.000,14.500
1.344,10.000,35.000,-11.000,13.500
1.345,10.000,35.000,-11.500,13.000
1.346,10.000,35.000,-11.500,13.000
1.347,10.000,35.000,-11.000,13.000
1.348,9.500,35.500,-10.500,13.500
1.349,9.500,35.500,-9.500,14.500
1.350,9.000,36.000,-8.500,15.500
1.351,8.500,36.500,-7.500,16.000
1.352,8.500,36.500,-7.000,17.000
1.353,8.000,37.000,-6.500,17.000
1.354,8.000,37.000,-7.000,17.000
1.355,8.000,37.000,-7.000,17.000
1.356,7.500,37.000,-7.000,17.000
1.357,7.500,37.000,-7.000,17.000
1.358,7.500,36.500,-6.500,17.000
1.359,8.000,36.500,-6.500,17.000
1.360,8.000,36.500,-7.000,16.500
1.361,8.500,36.500,-7.500,16.000
1.362,9.000,36.500,-7.500,15.500
1.363,9.500,36.500,-7.500,15.500
1.364,9.500,36.500,-7.500,16.000
1.365,10.000,36.500,-7.000,16.500
1.366,9.500,36.500,-6.500,16.500
1.367,9.500,36.500,-6.000,17.000
1.368,9.500,36.500,-6.000,17.000
1.369,9.500,36.500,-6.000,17.000
1.370,9.500,36.500,-6.500,16.500
1.371,9.000,36.000,-7.500,15.500
1.372,9.000,35.500,-8.500,15.000
1.373,8.500,35.000,-9.000,14.500
1.374,8.500,34.500,-9.000,14.000
1.375,8.000,34.000,-9.500,14.000
1.376,8.000,34.000,-9.500,14.000
1.377,8.000,33.500,-10.000,14.000
1.378,8.000,33.500,-10.500,14.000
1.379,8.000,33.500,-10.500,14.500
1.380,8.000,33.000,-10.000,15.000
1.381,8.000,33.000,-10.000,15.000
1.382,8.500,33.000,-10.000,15.000
1.383,8.500,33.000,-10.500,15.000
1.384,8.500,33.000,-10.500,14.500
1.385,9.000,32.500,-11.000,14.000
1.386,9.000,32.500,-11.000,13.500
1.387,8.500,32.500,-10.500,13.500
1.388,8.500,32.500,-10.000,14.000
1.389,8.000,33.000,-9.500,14.500
1.390,8.000,33.000,-9.000,15.000
1.391,7.500,33.500,-8.500,15.500
1.392,7.500,33.500,-8.000,16.000
1.393,7.000,34.000,-7.000,17.000
1.394,7.000,34.500,-6.500,17.500
1.395,7.500,35.000,-5.500,18.000
1.396,7.500,35.500,-5.500,18.500
1.397,8.000,35.500,-5.500,18.500
1.398,8.000,35.500,-5.500,18.500
1.399,8.000,35.500,-5.500,18.000
1.400,8.000,35.000,-5.500,18.500
1.401,8.000,35.000,-5.500,18.500
1.402,8.000,34.500,-5.500,18.500
1.403,8.000,34.500,-6.000,18.500
1.404,8.000,34.000,-6.500,18.000
1.405,8.500,34.000,-7.000,17.000
1.406,8.500,33.500,-8.000,16.500
1.407,9.000,33.500,-8.500,16.000
1.408,9.000,33.500,-8.500,16.000
1.409,9.000,33.500,-8.500,16.500
1.410,8.500,33.500,-8.000,16.500
1.411,8.500,33.500,-8.000,16.500
1.412,8.000,33.500,-8.000,16.500
1.413,7.500,33.000,-8.000,16.500
1.414,7.500,32.500,-8.000,16.500
1.415,7.000,32.500,-8.000,17.000
1.416,7.000,32.000,-8.000,17.000
1.417,6.500,32.000,-8.000,17.500
1.418,6.500,31.500,-8.000,17.500
1.419,6.500,31.500,-7.500,18.000
1.420,6.500,31.500,-7.000,18.000
1.421,7.000,31.500,-7.000,18.000
1.422,7.000,31.000,-6.500,18.000
1.423,7.000,31.000,-6.500,18.000
1.424,7.000,31.000,-6.500,18.000
1.425,7.000,31.000,-6.500,18.000
1.426,7.000,31.000,-6.500,18.000
1.427,6.500,30.500,-6.500,18.000
1.428,6.500,30.500,-6.000,18.500
1.429,6.000,30.500,-6.000,18.500
1.430,5.500,30.500,-6.000,18.500
1.431,5.000,30.000,-7.000,17.500
1.432,4.500,29.000,-8.500,16.500
1.433,4.500,28.000,-10.500,14.500
1.434,4.000,27.000,-12.500,13.000
1.435,4.000,26.500,-13.500,12.000
1.436,3.500,25.500,-14.000,11.500
1.437,2.500,25.000,-14.000,11.500
1.438,2.000,24.500,-14.000,11.500
1.439,1.000,24.000,-14.500,11.000
1.440,1.000,23.500,-15.000,10.500
1.441,0.500,23.000,-15.000,10.000
1.442,0.500,22.500,-15.500,9.500
1.443,0.000,22.500,-15.500,9.500
1.444,0.000,22.000,-15.500,9.500
1.445,0.000,22.500,-15.000,10.000
1.446,0.000,23.000,-13.500,11.000
1.447,0.000,24.000,-11.500,13.000
1.448,0.000,25.000,-9.500,15.000
1.449,-0.500,25.500,-8.000,17.000
1.450,-0.500,26.000,-7.000,18.000
1.451,-0.500,26.000,-6.500,19.000
1.452,-1.000,26.000,-6.500,19.500
1.453,-1.000,26.000,-7.000,20.000
1.454,-1.000,26.000,-7.000,20.500
1.455,-1.500,26.000,-7.000,21.500
1.456,-1.500,26.500,-6.500,22.500
1.457,-2.000,26.500,-5.500,23.500
1.458,-2.000,27.000,-4.500,25.000
1.459,-2.000,27.500,-3.500,26.500
1.460,-1.500,28.500,-1.500,28.000
1.461,-1.000,29.500,0.500,30.000
1.462,0.500,31.000,2.500,32.000
1.463,1.500,32.500,4.500,34.000
1.464,3.000,34.000,6.500,36.000
1.465,4.000,35.500,8.000,38.000
1.466,5.500,37.000,10.000,40.000
1.467,6.500,38.500,12.000,42.000
1.468,7.500,39.500,13.500,43.500
1.469,8.500,40.500,14.500,44.500
1.470,9.000,41.000,15.000,45.000
1.471,10.000,41.500,15.000,45.500
1.472,11.000,42.000,15.000,46.500
1.473,12.000,43.000,16.000,47.000
1.474,13.000,44.000,16.500,48.000
1.475,14.000,44.500,17.000,48.500
1.476,15.000,45.500,17.000,48.000
1.477,16.500,45.500,16.500,47.000
1.478,18.000,46.000,16.000,45.500
1.479,19.500,46.500,15.500,44.500
1.480,21.000,47.000,15.500,43.500
1.481,22.000,47.500,15.500,43.500
1.482,23.500,48.500,15.500,43.000
1.483,24.000,49.000,16.000,43.000
1.484,25.000,49.000,16.000,43.000
1.485,25.500,49.500,16.000,42.500
1.486,26.000,49.500,16.000,42.000
1.487,26.000,49.500,15.500,41.000
1.488,26.000,49.000,14.500,40.000
1.489,25.500,48.000,13.500,38.500
1.490,25.000,47.000,11.500,37.000
1.491,24.000,46.000,9.500,35.000
1.492,23.000,45.000,8.000,33.000
1.493,22.000,44.000,6.500,31.500
1.494,21.000,43.000,5.500,31.000
1.495,19.500,42.000,5.000,30.500
1.496,18.500,41.000,4.500,30.000
1.497,17.000,40.000,3.000,29.000
1.498,16.000,38.500,1.500,28.000
1.499,14.500,37.000,0.000,27.000
1.500,13.500,35.500,-1.500,26.000
1.501,13.000,34.500,-2.500,25.000
1.502,12.000,33.500,-3.500,24.500
1.503,11.000,33.000,-4.000,24.000
1.504,10.500,32.000,-4.500,23.000
1.505,10.000,31.500,-5.000,22.500
1.506,9.500,31.000,-5.500,21.500
1.507,9.000,30.000,-6.000,21.000
1.508,8.500,29.500,-6.500,20.000
1.509,7.500,29.000,-6.500,20.000
1.510,6.500,29.000,-6.500,20.500
1.511,5.500,29.000,-5.500,21.000
1.512,5.000,29.000,-5.000,21.500
1.513,4.500,29.000,-4.500,22.000
1.514,4.000,28.500,-4.500,22.000
1.515,4.000,28.500,-5.000,22.000
1.516,4.000,28.000,-5.500,21.500
1.517,4.000,28.000,-6.500,20.500
1.518,4.000,27.500,-7.000,20.000
1.519,4.000,28.000,-7.000,20.500
1.520,4.500,28.000,-6.500,21.000
1.521,4.500,28.500,-6.000,21.500
1.522,5.000,28.500,-5.500,21.500
1.523,5.500,28.500,-5.500,21.000
1.524,5.500,28.500,-6.000,21.000
1.525,6.000,28.500,-6.000,20.500
1.526,6.000,28.500,-6.500,20.000
1.527,6.000,28.500,-7.000,19.500
1.528,6.000,28.000,-7.500,19.500
1.529,6.000,28.000,-7.500,19.500
1.530,6.000,28.000,-7.500,20.000
1.531,5.500,27.500,-7.500,20.000
1.532,5.000,27.500,-8.000,19.500
1.533,5.000,27.500,-8.500,19.500
1.534,4.500,27.000,-9.000,19.000
1.535,4.500,27.000,-9.500,18.000
1.536,4.500,26.500,-10.000,18.000
1.537,4.500,26.500,-10.000,18.000
1.538,4.500,26.500,-10.000,18.000
1.539,4.500,26.500,-10.000,18.000
1.540,4.500,26.500,-9.500,18.000
1.541,4.500,26.500,-9.000,18.500
1.542,4.500,26.500,-8.500,19.000
1.543,5.000,27.000,-8.000,19.000
1.544,5.000,27.000,-7.500,19.500
1.545,5.000,27.500,-7.000,19.500
1.546,5.000,27.500,-6.500,20.500
1.547,4.500,27.500,-5.500,21.000
1.548,4.000,27.500,-5.000,21.500
1.549,3.500,27.500,-4.500,22.500
1.550,3.500,27.500,-4.000,22.500
1.551,3.000,27.500,-3.500,23.000
1.552,3.000,28.000,-3.500,23.500
1.553,2.500,28.000,-3.000,24.000
1.554,2.500,28.500,-3.000,24.000
1.555,2.500,28.500,-3.000,24.500
1.556,2.500,29.000,-3.000,24.500
1.557,3.000,29.000,-3.000,24.500
1.558,3.000,29.000,-3.500,24.000
1.559,3.500,28.500,-4.000,24.000
1.560,3.500,28.500,-4.000,23.500
1.561,4.000,28.500,-4.000,23.500
1.562,4.500,28.500,-4.000,23.000
1.563,4.500,28.500,-4.000,23.000
1.564,4.500,28.500,-4.000,23.000
1.565,4.500,28.500,-4.000,22.500
1.566,4.500,28.500,-4.000,22.500
1.567,4.500,28.500,-4.000,22.500
1.568,4.500,29.000,-4.000,22.500
1.569,4.000,29.000,-3.500,23.000
1.570,3.500,29.000,-3.000,23.000
1.571,3.000,29.000,-3.000,23.000
1.572,2.500,28.500,-3.500,23.000
1.573,2.500,28.000,-4.500,22.500
1.574,2.000,27.500,-5.500,22.000
1.575,1.500,27.000,-6.000,21.500
1.576,1.000,26.500,-6.500,21.000
1.577,0.500,25.500,-7.500,20.500
1.578,0.000,24.500,-9.000,19.000
1.579,0.000,23.500,-11.000,17.500
1.580,0.500,22.500,-12.500,15.500
1.581,0.500,21.500,-14.000,14.500
1.582,0.000,21.500,-14.000,14.000
1.583,0.000,21.500,-13.500,14.500
1.584,0.000,22.000,-13.000,14.500
1.585,0.000,22.500,-12.000,15.000
1.586,0.500,23.000,-11.500,15.500
1.587,1.500,24.000,-10.500,16.000
1.588,2.500,25.000,-9.500,17.000
1.589,3.000,26.000,-8.500,18.000
1.590,3.500,27.000,-8.000,18.500
1.591,4.000,28.000,-7.000,19.500
1.592,4.000,28.500,-5.500,20.000
1.593,4.000,29.000,-4.500,21.000
1.594,3.500,29.000,-4.000,21.500
1.595,3.500,29.000,-3.500,21.500
1.596,3.500,29.000,-4.000,21.500
1.597,3.000,28.500,-4.500,21.000
1.598,3.000,28.000,-5.000,20.500
1.599,3.000,27.500,-5.500,20.000
1.600,3.000,27.500,-5.000,20.000
1.601,2.500,27.000,-5.000,20.500
1.602,2.500,27.000,-4.500,20.500
1.603,2.000,26.500,-4.500,21.000
1.604,1.500,26.000,-4.000,21.000
1.605,1.500,26.000,-4.500,20.500
1.606,1.000,26.000,-4.500,20.500
1.607,1.000,26.000,-4.500,20.000
1.608,0.500,25.500,-4.500,20.000
1.609,0.000,25.500,-4.500,20.000
1.610,-1.000,25.000,-4.000,20.000
1.611,-1.500,24.500,-4.000,20.000
1.612,-2.000,24.500,-4.000,20.000
1.613,-2.000,24.000,-4.000,20.500
1.614,-2.000,24.000,-4.000,20.500
1.615,-2.000,24.000,-4.000,20.500
1.616,-2.000,24.000,-4.000,20.500
1.617,-2.000,24.000,-4.500,20.500
1.618,-1.500,24.000,-4.500,20.000
1.619,-1.000,24.000,-5.000,20.000
1.620,-1.000,24.000,-5.000,19.500
1.621,-0.500,24.000,-5.500,19.500
1.622,-0.500,23.500,-5.500,19.500
1.623,-0.500,23.500,-5.500,19.500
1.624,-0.500,23.000,-5.500,19.500
1.625,-0.500,23.000,-5.500,19.000
1.626,-0.500,22.500,-6.500,18.500
1.627,0.000,22.500,-7.500,18.000
1.628,0.000,22.000,-8.000,17.500
1.629,0.000,22.000,-8.500,17.500
1.630,0.000,22.500,-8.500,17.000
1.631,0.000,22.500,-8.500,17.500
1.632,-0.500,22.500,-8.500,17.500
1.633,-0.500,23.000,-8.000,18.000
1.634,-1.000,23.000,-7.500,18.500
1.635,-1.000,23.500,-7.500,18.500
1.636,-1.000,23.500,-7.000,19.000
1.637,-1.000,24.000,-7.000,19.000
1.638,-1.000,23.500,-7.500,18.500
1.639,-1.000,23.500,-7.500,18.500
1.640,-0.500,23.500,-8.000,18.500
1.641,0.000,23.500,-8.000,19.000
1.642,0.500,23.500,-7.500,19.000
1.643,1.000,24.000,-7.500,19.500
1.644,1.500,24.500,-6.500,19.500
1.645,1.500,25.000,-6.000,20.000
1.646,1.500,25.500,-5.000,21.000
1.647,1.000,26.000,-4.500,21.500
1.648,1.000,26.000,-4.000,22.000
1.649,0.500,26.500,-3.500,22.500
1.650,0.000,26.500,-2.500,23.500
1.651,0.000,27.000,-2.000,24.000
1.652,-0.500,27.500,-1.500,24.000
1.653,-0.500,28.000,-1.500,24.500
1.654,-0.500,28.000,-1.000,24.500
1.655,-1.000,28.000,-1.000,25.000
1.656,-1.000,27.500,-1.000,25.000
1.657,-0.500,27.500,-1.000,25.500
1.658,-0.500,27.500,-1.000,25.500
1.659,0.000,27.500,-1.000,25.500
1.660,0.500,28.000,-1.000,25.500
1.661,1.000,28.000,-1.500,25.000
1.662,2.000,27.500,-2.500,24.500
1.663,2.500,27.500,-3.500,23.000
1.664,2.500,27.000,-4.500,22.500
1.665,3.000,26.500,-5.500,22.000
1.666,3.000,26.500,-5.500,22.000
1.667,2.500,26.500,-5.000,22.000
1.668,2.000,26.500,-4.500,22.500
1.669,2.000,26.500,-4.000,23.000
1.670,1.500,26.500,-4.000,23.500
1.671,1.000,27.000,-4.000,23.500
1.672,1.000,27.000,-3.500,24.000
1.673,0.500,27.500,-3.000,24.000
1.674,0.500,28.000,-2.500,24.500
1.675,0.000,28.000,-2.500,24.500
1.676,-0.500,28.000,-2.500,24.500
1.677,-1.000,28.000,-2.500,25.000
1.678,-1.000,28.000,-2.500,25.000
1.679,-1.000,28.000,-2.000,25.000
1.680,-1.000,28.000,-2.000,25.000
1.681,-1.000,28.000,-1.500,25.500
1.682,-1.000,27.500,-2.000,25.500
1.683,-1.500,27.500,-2.000,25.000
1.684,-1.500,27.500,-2.500,25.000
1.685,-1.500,27.500,-2.500,25.000
1.686,-1.500,27.500,-2.000,25.500
1.687,-1.500,28.000,-2.000,25.500
1.688,-2.000,28.500,-1.500,26.000
1.689,-2.000,28.500,-1.000,26.500
1.690,-2.000,29.000,-0.500,26.500
1.691,-2.000,28.500,-0.500,26.500
1.692,-2.000,28.500,-0.500,26.500
1.693,-2.000,28.500,-1.000,26.500
1.694,-2.000,29.000,-1.000,26.000
1.695,-1.500,29.000,-1.500,26.000
1.696,-1.500,29.500,-1.500,25.500
1.697,-1.000,29.500,-2.000,25.500
1.698,-1.000,29.500,-2.000,25.000
1.699,-1.000,30.000,-2.000,25.000
1.700,-0.500,30.000,-2.000,25.500
1.701,-0.500,30.500,-1.500,25.500
1.702,0.000,30.500,-0.500,26.000
1.703,0.000,31.000,0.500,27.000
1.704,0.500,31.000,1.000,27.500
1.705,0.500,31.000,2.000,28.000
1.706,0.500,31.000,2.500,28.500
1.707,0.000,31.000,3.000,28.500
1.708,-0.500,31.000,3.000,28.500
1.709,-0.500,31.000,3.000,28.500
1.710,-1.000,30.500,2.500,28.500
1.711,-1.500,30.500,2.500,28.500
1.712,-2.000,30.500,2.500,28.500
1.713,-2.500,31.000,3.000,28.500
1.714,-3.000,31.000,3.000,29.000
1.715,-3.000,31.500,3.000,29.000
1.716,-3.000,31.000,3.000,29.000
1.717,-2.500,31.000,2.500,29.000
1.718,-2.500,31.000,2.500,29.000
1.719,-2.000,31.000,2.000,28.500
1.720,-2.000,31.000,2.000,28.500
1.721,-1.500,30.500,2.000,28.500
1.722,-1.500,30.500,1.500,28.000
1.723,-1.500,30.500,1.000,27.500
1.724,-1.500,30.000,0.000,26.500
1.725,-1.500,29.500,-1.000,25.500
1.726,-1.500,29.500,-1.500,25.000
1.727,-1.500,29.500,-2.000,24.500
1.728,-2.000,29.500,-2.000,24.500
1.729,-2.000,29.500,-2.000,24.500
1.730,-2.000,29.500,-2.000,25.000
1.731,-2.000,29.500,-2.000,25.000
1.732,-2.500,29.500,-1.500,25.000
1.733,-2.500,29.500,-1.500,25.500
1.734,-3.000,29.500,-1.500,25.500
1.735,-3.000,29.500,-1.000,25.500
1.736,-3.500,29.500,-1.000,25.500
1.737,-3.000,29.500,-1.000,25.500
1.738,-3.000,29.500,-1.000,25.500
1.739,-3.000,29.500,-1.000,26.000
1.740,-3.000,29.500,-0.500,26.000
1.741,-2.500,29.500,0.000,26.500
1.742,-2.500,29.000,0.000,26.500
1.743,-2.500,29.000,0.000,26.500
1.744,-2.500,28.500,-0.500,26.500
1.745,-2.000,28.500,-1.000,26.500
1.746,-2.000,28.000,-1.500,26.000
1.747,-2.000,28.000,-1.500,25.500
1.748,-2.000,28.000,-1.500,25.500
1.749,-2.000,28.500,-1.000,26.000
1.750,-2.500,29.000,-0.500,26.500
1.751,-2.500,29.500,0.000,26.500
1.752,-3.000,29.500,0.000,26.500
1.753,-3.500,29.000,-0.500,26.500
1.754,-4.000,28.500,-1.000,26.000
1.755,-4.000,28.500,-1.500,25.500
1.756,-4.000,28.000,-2.500,24.500
1.757,-3.500,27.500,-3.500,23.000
1.758,-3.000,27.000,-4.500,22.000
1.759,-2.500,26.500,-5.000,21.000
1.760,-2.000,26.500,-5.500,20.500
1.761,-1.500,26.500,-6.000,20.500
1.762,-1.000,27.000,-6.000,20.000
1.763,-1.000,27.000,-6.500,20.000
1.764,-0.500,27.000,-6.500,20.000
1.765,-0.500,27.000,-6.000,20.000
1.766,-1.000,27.500,-5.000,20.500
1.767,-1.000,28.000,-4.000,21.500
1.768,-1.000,28.500,-3.000,22.500
1.769,-1.500,29.000,-2.000,23.500
1.770,-1.500,29.500,-1.500,24.000
1.771,-1.500,29.500,-1.000,24.500
1.772,-1.000,29.500,-0.500,24.500
1.773,-1.000,30.000,-0.500,24.500
1.774,-1.000,30.000,-0.500,24.500
1.775,-1.000,30.000,-0.500,24.000
1.776,-1.000,29.500,-1.000,24.000
1.777,-1.000,29.500,-1.000,23.500
1.778,-1.000,29.000,-1.500,23.500
1.779,-0.500,28.500,-2.000,23.000
1.780,0.000,28.500,-2.000,23.000
1.781,0.500,29.000,-2.000,23.000
1.782,1.000,29.000,-2.000,23.000
1.783,1.500,29.500,-2.000,23.000
1.784,1.500,29.500,-2.000,23.000
1.785,2.000,29.500,-2.000,23.000
1.786,1.500,29.500,-2.000,23.000
1.787,1.500,29.500,-2.000,23.000
1.788,1.000,29.500,-1.500,23.000
1.789,1.000,30.000,-1.000,23.500
1.790,0.500,30.000,-1.000,23.500
1.791,0.500,30.500,-0.500,23.500
1.792,1.000,31.000,0.000,23.500
1.793,1.000,31.000,0.000,23.500
1.794,1.000,31.000,0.000,23.500
1.795,1.500,31.000,-0.500,23.000
1.796,1.500,31.000,-1.500,22.000
1.797,2.000,30.500,-2.500,21.000
1.798,2.000,30.000,-4.000,20.000
1.799,2.000,29.500,-5.000,19.000
1.800,2.500,29.000,-6.000,18.000
1.801,2.500,28.500,-7.000,17.000
1.802,3.000,28.500,-7.000,16.500
1.803,3.000,28.000,-7.000,16.500
1.804,3.500,28.000,-6.500,16.500
1.805,3.500,28.500,-6.000,17.000
1.806,3.000,28.500,-5.500,17.500
1.807,3.000,28.500,-5.500,17.500
1.808,3.000,29.000,-5.000,18.000
1.809,2.500,29.000,-5.000,18.000
1.810,2.000,29.000,-5.000,18.500
1.811,1.500,28.500,-5.000,18.500
1.812,1.000,29.000,-4.500,19.000
1.813,1.000,29.000,-4.000,19.500
1.814,0.500,29.000,-3.500,19.500
1.815,0.500,29.500,-3.000,20.000
1.816,0.500,29.500,-2.500,20.000
1.817,0.500,29.500,-2.500,20.000
1.818,0.500,29.500,-2.000,20.000
1.819,0.500,29.500,-2.000,20.500
1.820,1.000,29.500,-1.500,20.500
1.821,1.000,29.500,-1.500,20.500
1.822,1.000,29.000,-1.500,20.500
1.823,1.500,29.000,-1.500,20.000
1.824,1.500,29.000,-2.000,20.000
1.825,1.500,29.000,-2.000,19.500
1.826,1.000,29.000,-2.000,19.500
1.827,1.000,28.500,-2.000,20.000
1.828,0.500,28.500,-2.000,20.000
1.829,0.000,28.500,-2.000,20.500
1.830,-0.500,28.500,-2.000,20.500
1.831,-0.500,28.500,-2.500,20.500
1.832,-1.000,29.000,-2.500,21.000
1.833,-1.000,29.000,-2.000,21.000
1.834,-1.500,29.500,-1.500,21.500
1.835,-1.500,29.500,-1.500,22.000
1.836,-1.500,29.500,-1.500,22.000
1.837,-1.500,29.500,-1.500,21.500
1.838,-1.500,29.500,-1.500,21.500
1.839,-1.000,29.500,-1.500,21.000
1.840,-1.000,29.500,-2.000,21.000
1.841,-0.500,29.500,-2.000,20.500
1.842,-0.500,29.000,-2.500,20.500
1.843,-0.500,29.000,-2.500,20.000
1.844,-0.500,29.000,-3.000,20.000
1.845,-0.500,29.000,-3.000,20.000
1.846,0.000,28.500,-3.500,19.500
1.847,0.000,28.500,-4.000,19.000
1.848,0.000,28.500,-4.000,19.000
1.849,0.000,28.500,-4.000,19.000
1.850,0.000,28.500,-4.000,18.500
1.851,0.000,28.500,-4.000,18.500
1.852,0.000,28.500,-4.000,18.500
1.853,-0.500,28.500,-4.000,18.500
1.854,-0.500,29.000,-3.500,19.000
1.855,-0.500,29.000,-3.500,19.500
1.856,-0.500,29.500,-3.000,20.000
1.857,-0.500,29.500,-3.000,20.500
1.858,-0.500,29.500,-3.000,20.500
1.859,0.000,29.500,-3.500,20.000
1.860,1.000,29.500,-4.000,19.500
1.861,1.500,29.000,-4.500,19.000
1.862,2.000,28.500,-5.000,18.500
1.863,2.000,28.500,-6.000,17.500
1.864,2.500,28.500,-6.000,17.500
1.865,2.500,28.500,-6.000,17.500
1.866,2.000,29.000,-5.500,18.000
1.867,2.000,29.500,-4.500,19.000
1.868,1.500,30.000,-3.000,20.000
1.869,1.000,30.500,-1.500,21.000
1.870,1.000,31.000,-0.500,22.000
1.871,0.500,31.500,0.500,23.000
1.872,0.500,32.000,1.000,23.500
1.873,0.500,32.000,1.000,24.000
1.874,0.000,32.000,1.500,24.500
1.875,0.500,32.000,1.500,24.500
1.876,0.500,32.000,1.500,25.000
1.877,0.500,32.000,1.500,25.000
1.878,1.000,31.500,1.500,25.000
1.879,1.500,31.500,1.500,25.000
1.880,2.000,31.500,1.500,25.000
1.881,2.500,31.500,1.000,24.500
1.882,2.500,31.000,0.500,24.000
1.883,3.000,31.000,0.000,23.500
1.884,3.500,31.000,-0.500,23.000
1.885,4.000,31.500,-1.000,23.000
1.886,4.500,32.000,-0.500,23.000
1.887,4.500,32.000,0.000,23.000
1.888,4.500,32.500,0.500,23.500
1.889,4.500,32.500,0.500,24.000
1.890,4.500,32.500,1.000,24.000
1.891,4.500,32.500,1.500,24.500
1.892,4.500,33.000,2.000,25.500
1.893,4.000,33.500,3.500,26.500
1.894,4.000,34.000,4.500,27.000
1.895,4.000,34.500,5.000,27.500
1.896,4.000,35.000,5.500,28.000
1.897,4.500,35.000,5.500,28.000
1.898,4.500,35.000,5.500,28.000
1.899,5.000,35.000,5.500,28.000
1.900,5.500,35.000,6.000,28.500
1.901,5.500,35.500,6.000,28.500
1.902,6.000,35.500,6.500,28.500
1.903,6.000,36.000,6.500,28.500
1.904,6.500,36.000,6.500,28.500
1.905,7.000,35.500,6.000,28.000
1.906,7.000,35.500,5.500,27.500
1.907,7.500,35.500,5.000,27.000
1.908,7.500,35.500,5.000,27.000
1.909,7.500,36.000,5.000,27.000
1.910,7.500,36.000,5.000,27.500
1.911,7.000,36.500,5.000,27.500
1.912,7.000,36.500,5.500,27.500
1.913,6.500,37.000,6.000,28.000
1.914,6.500,37.500,6.500,28.500
1.915,6.500,38.000,7.500,29.500
1.916,7.000,38.500,8.500,30.500
1.917,7.000,39.000,9.500,31.000
1.918,7.500,39.500,10.000,31.500
1.919,8.000,40.000,10.500,31.500
1.920,9.000,40.500,10.500,31.500
1.921,9.500,41.000,11.000,31.500
1.922,10.000,41.000,10.500,31.000
1.923,10.500,41.500,10.500,31.000
1.924,11.000,42.000,10.500,31.000
1.925,11.500,42.500,11.500,31.000
1.926,12.000,43.000,12.000,32.000
1.927,12.000,44.000,13.000,32.500
1.928,12.500,44.500,13.500,33.000
1.929,12.500,45.000,13.500,33.000
1.930,12.500,45.000,13.500,33.500
1.931,12.000,45.000,14.000,33.500
1.932,12.000,45.000,14.000,34.000
1.933,12.000,45.000,14.500,34.500
1.934,12.000,45.000,14.500,34.500
1.935,12.500,45.500,14.000,34.500
1.936,13.000,45.500,13.000,34.000
1.937,13.500,45.500,12.000,33.500
1.938,14.000,45.500,11.500,33.000
1.939,14.500,45.500,11.000,33.000
1.940,14.500,45.500,11.000,33.500
1.941,15.000,46.000,11.500,33.500
1.942,15.500,46.000,11.500,33.500
1.943,16.000,46.000,11.000,33.000
1.944,16.000,46.000,10.000,32.500
1.945,16.500,46.000,10.000,32.000
1.946,16.500,46.500,10.500,32.500
1.947,16.000,47.000,12.000,34.000
1.948,15.500,47.500,13.500,35.000
1.949,15.500,48.000,14.500,36.500
1.950,15.000,48.500,15.500,37.000
1.951,15.000,48.500,15.500,37.000
1.952,14.500,48.500,15.500,37.000
1.953,14.500,48.500,15.000,36.500
1.954,15.000,48.000,14.500,36.000
1.955,15.000,48.000,13.500,35.500
1.956,15.000,47.500,13.000,35.500
1.957,15.000,47.000,13.000,35.000
1.958,15.000,47.000,13.000,35.000
1.959,15.500,47.000,13.500,35.500
1.960,15.500,47.000,14.000,35.500
1.961,16.000,47.000,14.500,36.000
1.962,16.500,47.500,15.500,37.000
1.963,17.000,48.000,16.000,37.000
1.964,17.000,48.000,16.000,37.500
1.965,17.500,48.500,16.500,37.500
1.966,17.500,48.500,17.000,37.500
1.967,17.500,48.500,17.500,37.500
1.968,17.500,49.000,18.000,38.000
1.969,17.500,49.000,18.000,38.000
1.970,17.500,49.000,18.000,38.000
1.971,18.000,49.000,17.500,38.000
1.972,18.500,49.000,16.500,37.000
1.973,19.000,48.500,16.000,36.500
1.974,19.000,48.500,15.000,36.000
1.975,19.500,48.000,14.500,36.000
1.976,19.500,47.500,14.500,35.500
1.977,19.500,47.500,14.000,35.500
1.978,19.000,47.000,14.000,35.500
1.979,19.000,47.000,13.500,35.500
1.980,19.000,47.000,13.500,35.500
1.981,18.500,47.000,14.000,35.500
1.982,18.500,47.000,14.000,35.500
1.983,18.000,46.500,14.500,36.000
1.984,17.500,46.000,14.500,36.500
1.985,16.500,45.500,14.500,36.000
1.986,16.000,44.500,14.000,36.000
1.987,16.000,44.500,14.000,35.500
1.988,15.500,44.500,14.000,35.500
1.989,15.500,44.500,14.500,36.000
1.990,15.500,45.000,15.000,36.500
1.991,15.500,45.500,16.000,36.500
1.992,15.500,46.000,16.500,37.000
1.993,16.000,46.500,16.500,37.000
1.994,16.500,47.500,17.000,37.500
1.995,17.000,48.000,17.500,38.000
1.996,18.000,48.500,18.000,38.500
1.997,18.500,49.500,19.000,39.500
1.998,19.500,50.000,20.000,40.500
1.999,20.500,51.000,20.500,41.000
2.000,21.500,51.500,20.500,41.000
2.001,22.000,51.500,20.500,40.500
2.002,22.500,52.000,20.500,40.500
2.003,22.500,52.000,21.000,41.000
2.004,22.500,52.500,21.500,41.500
2.005,22.500,52.500,22.000,42.000
2.006,22.500,52.500,22.500,42.000
2.007,22.500,52.500,23.000,42.500
2.008,22.500,53.000,23.500,43.500
2.009,23.000,53.500,24.000,44.000
2.010,22.500,53.500,24.000,44.500
2.011,22.500,54.000,24.000,45.000
2.012,22.500,54.000,24.000,45.000
2.013,22.500,54.000,24.000,45.500
2.014,22.500,54.500,24.000,45.500
2.015,23.000,54.500,24.000,45.500
2.016,23.500,54.500,23.500,45.000
2.017,24.000,54.500,22.500,44.500
2.018,24.000,54.000,21.500,43.500
2.019,24.500,54.000,21.000,43.000
2.020,25.000,54.000,21.000,42.500
2.021,25.000,54.000,21.000,42.500
2.022,25.500,53.500,20.500,42.000
2.023,25.500,53.500,20.500,41.500
2.024,26.000,53.500,20.500,41.500
2.025,26.000,53.500,20.500,41.500
2.026,25.500,54.000,20.500,41.500
2.027,25.500,54.000,21.000,42.000
2.028,25.000,54.500,21.500,42.500
2.029,25.000,54.500,22.000,42.500
2.030,25.000,54.500,22.000,43.000
2.031,25.000,55.000,22.000,43.000
2.032,25.000,55.000,22.000,43.000
2.033,25.000,55.000,22.000,43.000
2.034,25.000,55.000,22.500,43.500
2.035,25.000,55.500,23.000,44.000
2.036,24.500,55.500,23.500,44.000
2.037,24.500,55.500,23.500,44.500
2.038,24.500,55.500,24.000,45.000
2.039,24.500,56.000,24.500,45.500
2.040,25.000,56.500,25.000,46.000
2.041,25.500,57.000,25.500,46.000
2.042,25.500,57.000,25.500,46.000
2.043,26.000,57.500,25.500,46.000
2.044,26.000,57.000,25.500,45.500
2.045,26.000,57.000,25.500,45.500
2.046,26.000,57.000,25.500,46.000
2.047,26.000,57.000,25.500,46.000
2.048,26.000,57.000,26.000,46.500
2.049,26.000,57.500,26.500,46.500
2.050,26.000,57.500,26.000,46.500
2.051,26.000,57.500,26.000,46.500
2.052,26.000,57.500,25.500,46.000
2.053,26.000,57.500,24.500,45.000
2.054,26.000,57.000,24.000,44.500
2.055,26.000,57.000,23.000,44.000
2.056,26.000,57.000,23.000,44.000
2.057,26.000,56.500,22.500,44.000
2.058,26.500,56.500,22.500,44.000
2.059,26.500,56.500,22.000,44.000
2.060,27.000,56.500,22.000,44.000
2.061,27.000,56.500,22.000,44.000
2.062,27.500,56.500,22.000,44.000
2.063,27.500,56.000,21.500,43.500
2.064,28.000,55.500,21.000,43.500
2.065,28.000,55.500,21.000,43.500
2.066,28.000,55.000,21.500,43.500
2.067,27.500,55.500,22.000,44.000
2.068,27.500,56.000,23.000,45.000
2.069,27.500,56.500,23.500,45.500
2.070,27.000,57.000,24.500,46.000
2.071,27.000,57.500,25.000,47.000
2.072,26.500,58.000,26.000,47.500
2.073,26.500,58.000,26.000,47.500
2.074,26.000,58.000,26.000,47.500
2.075,26.000,57.500,25.500,47.500
2.076,25.500,57.000,24.500,46.500
2.077,25.500,56.500,23.500,46.000
2.078,25.500,56.500,23.000,46.000
2.079,26.000,56.500,23.000,46.000
2.080,26.500,57.000,23.500,46.500
2.081,27.000,57.000,23.500,47.000
2.082,27.000,57.500,24.000,47.000
2.083,27.500,57.500,23.500,46.500
2.084,27.500,57.500,23.500,46.000
2.085,28.000,57.000,23.000,45.500
2.086,28.000,57.000,22.500,45.500
2.087,28.000,57.000,23.000,45.500
2.088,28.000,57.500,23.500,46.000
2.089,28.000,57.500,24.500,47.000
2.090,27.500,58.000,25.000,47.500
2.091,27.500,58.500,26.000,48.000
2.092,28.000,59.000,26.000,48.000
2.093,28.000,59.500,25.500,47.500
2.094,28.000,59.500,25.000,47.500
2.095,28.500,59.500,24.500,47.000
2.096,28.500,59.000,23.500,46.000
2.097,29.000,58.500,22.500,45.500
2.098,29.500,58.500,21.500,44.500
2.099,30.000,58.000,21.000,44.500
2.100,30.000,58.000,21.000,44.500
2.101,30.500,58.500,21.500,45.000
2.102,30.500,58.500,22.000,45.000
2.103,30.500,59.000,22.500,45.500
2.104,30.500,59.000,23.000,46.000
2.105,30.500,59.000,23.000,46.000
2.106,30.500,59.000,23.000,46.500
2.107,30.000,59.000,23.000,46.500
2.108,30.000,59.000,23.500,46.500
2.109,29.500,59.500,24.000,47.000
2.110,29.000,59.500,24.500,47.500
2.111,28.500,59.500,25.000,48.000
2.112,28.000,60.000,26.000,49.000
2.113,27.500,60.000,27.000,50.000
2.114,27.000,60.500,27.500,50.500
2.115,27.000,60.500,27.500,50.500
2.116,27.500,60.500,28.000,50.500
2.117,27.500,61.000,27.500,50.500
2.118,27.500,61.000,27.500,50.500
2.119,28.000,61.000,27.000,50.000
2.120,28.000,61.000,27.000,50.000
2.121,28.500,60.500,26.500,50.000
2.122,28.500,60.500,26.500,49.500
2.123,29.000,60.500,25.500,49.000
2.124,29.000,60.000,25.000,48.000
2.125,29.500,59.500,24.000,47.500
2.126,29.500,59.500,23.500,47.500
2.127,29.000,59.500,23.500,47.500
2.128,29.000,59.500,24.000,47.500
2.129,29.000,60.000,24.500,48.500
2.130,28.500,60.500,25.500,49.000
2.131,28.500,61.000,26.000,50.000
2.132,28.500,61.500,27.000,50.500
2.133,28.500,62.000,27.000,51.000
2.134,29.000,62.000,26.500,51.000
2.135,29.000,62.500,26.000,50.500
2.136,29.500,62.000,25.000,49.500
2.137,30.000,62.000,24.000,49.000
2.138,30.500,62.000,23.500,48.500
2.139,31.000,62.000,23.000,48.000
2.140,31.000,62.000,23.000,48.500
2.141,31.500,62.000,23.000,48.500
2.142,31.500,61.500,23.000,48.500
2.143,32.000,61.500,22.500,48.000
2.144,32.000,61.500,22.000,48.000
2.145,32.000,61.000,21.500,47.500
2.146,32.000,61.000,21.500,47.000
2.147,32.000,61.500,21.500,47.500
2.148,31.500,61.500,22.000,48.500
2.149,31.500,62.000,23.000,49.000
2.150,31.000,62.500,24.000,50.000
2.151,30.500,62.500,25.000,50.500
2.152,30.000,63.000,26.000,51.500
2.153,29.500,63.000,26.500,52.000
2.154,29.000,63.000,27.000,52.500
2.155,28.500,63.000,27.500,53.000
2.156,28.500,63.000,27.000,52.500
2.157,29.000,63.000,26.500,52.500
2.158,29.000,63.000,26.500,52.000
2.159,29.000,63.000,26.500,52.000
2.160,29.500,63.000,27.000,52.000
2.161,30.000,63.000,27.000,52.000
2.162,30.000,63.500,27.000,52.000
2.163,30.500,63.500,27.000,52.000
2.164,31.000,63.000,26.500,52.000
2.165,31.000,63.000,25.500,51.500
2.166,31.000,62.500,25.000,51.000
2.167,31.500,62.500,24.000,50.500
2.168,31.500,62.500,24.000,50.500
2.169,31.500,62.500,23.500,50.000
2.170,31.500,62.500,23.000,50.000
2.171,31.500,62.500,23.000,50.000
2.172,31.500,62.500,23.500,50.000
2.173,31.500,63.000,24.000,50.500
2.174,31.500,63.000,24.500,51.000
2.175,31.500,63.000,25.000,51.500
2.176,31.500,63.500,25.000,51.500
2.177,31.500,63.500,25.500,52.000
2.178,31.500,63.500,26.000,52.500
2.179,32.000,64.000,26.500,53.000
2.180,32.500,64.000,27.000,53.500
2.181,32.500,64.500,27.500,53.500
2.182,33.000,64.500,27.500,53.500
2.183,33.500,64.500,27.500,53.000
2.184,33.500,64.000,27.000,52.000
2.185,34.000,63.500,26.500,52.000
2.186,33.500,63.500,26.500,52.000
2.187,33.500,63.500,27.000,52.500
2.188,33.000,63.500,28.000,53.000
2.189,32.500,64.000,28.500,54.000
2.190,32.500,64.000,28.500,54.000
2.191,32.000,64.000,28.500,54.000
2.192,32.000,64.000,28.000,53.500
2.193,32.000,64.000,27.500,53.000
2.194,32.000,64.000,27.500,53.000
2.195,31.500,64.500,28.000,53.500
2.196,31.500,64.500,28.000,54.000
2.197,31.500,64.500,28.000,54.000
2.198,31.500,64.000,28.000,54.000
2.199,32.000,64.000,27.500,54.000
2.200,32.000,63.500,27.500,54.000
2.201,32.500,63.500,27.500,54.000
2.202,33.000,63.500,27.500,54.000
2.203,33.000,63.500,27.500,54.000
2.204,33.500,63.500,27.500,54.000
2.205,33.500,63.500,28.000,54.000
2.206,33.500,64.000,28.000,54.000
2.207,33.500,64.000,28.000,54.500
2.208,34.000,64.000,27.500,54.500
2.209,34.000,64.000,27.000,54.000
2.210,34.000,64.000,26.500,53.500
2.211,34.000,63.500,25.500,53.500
2.212,34.000,63.500,25.000,53.000
2.213,34.000,63.500,25.000,53.000
2.214,34.000,63.500,24.500,52.500
2.215,34.000,63.500,25.000,52.500
2.216,33.500,63.000,24.500,52.500
2.217,33.500,62.500,24.500,52.000
2.218,33.000,62.000,24.000,51.500
2.219,33.000,61.500,23.500,51.500
2.220,32.500,61.000,22.500,51.000
2.221,32.000,60.500,22.000,50.500
2.222,32.000,60.000,21.500,50.500
2.223,31.500,59.500,21.500,50.000
2.224,31.000,59.500,21.000,50.000
2.225,31.000,59.500,21.500,50.000
2.226,30.500,59.500,21.500,50.000
2.227,30.000,59.000,22.000,50.000
2.228,29.500,59.000,22.500,50.500
2.229,29.500,59.500,23.000,51.500
2.230,29.000,59.500,24.000,52.000
2.231,28.500,60.000,24.500,53.000
2.232,28.500,60.500,25.500,54.000
2.233,28.500,61.000,26.500,55.000
2.234,28.500,61.000,27.000,55.500
2.235,28.000,61.500,28.000,56.500
2.236,28.500,62.000,28.500,57.500
2.237,28.500,62.000,29.500,58.500
2.238,29.000,62.500,30.500,59.500
2.239,29.500,63.000,31.000,60.000
2.240,29.500,63.500,32.000,61.000
2.241,30.000,64.000,32.500,62.000
2.242,30.000,64.500,33.000,63.000
2.243,30.500,64.500,33.500,63.500
2.244,31.000,65.000,34.000,64.000
2.245,31.500,65.500,34.500,64.500
2.246,32.000,66.000,35.000,66.000
2.247,33.000,67.500,36.500,68.000
2.248,34.000,69.000,38.500,70.500
2.249,35.500,70.500,40.500,73.000
2.250,36.500,72.000,42.500,75.000
2.251,38.000,73.500,44.500,77.000
2.252,39.000,75.000,46.000,79.000
2.253,39.500,76.500,48.000,81.000
2.254,40.500,78.000,50.000,83.000
2.255,41.000,79.500,52.500,85.500
2.256,42.000,81.500,54.500,87.500
2.257,42.500,83.000,56.000,89.500
2.258,43.000,83.500,57.000,90.500
2.259,44.000,84.500,57.000,90.500
2.260,45.000,84.500,56.500,90.000
2.261,46.500,84.500,55.500,88.500
2.262,48.000,85.000,54.500,87.000
2.263,50.000,85.500,54.000,85.500
2.264,51.500,86.000,54.000,85.000
2.265,53.000,87.000,54.500,85.000
2.266,54.500,88.000,55.500,85.000
2.267,56.000,89.000,56.500,85.000
2.268,56.500,90.000,57.000,85.000
2.269,57.000,90.500,57.000,85.000
2.270,57.000,90.500,56.500,84.000
2.271,57.000,90.500,56.000,82.500
2.272,56.500,90.000,55.500,81.500
2.273,56.000,89.000,54.000,80.000
2.274,56.000,88.500,53.000,78.500
2.275,55.500,87.500,51.000,76.500
2.276,55.000,86.000,49.000,74.500
2.277,54.500,84.500,46.500,72.000
2.278,54.000,83.000,44.000,69.500
2.279,53.500,81.500,42.000,67.500
2.280,52.500,80.500,41.000,66.000
2.281,51.500,79.500,40.000,65.000
2.282,51.000,78.500,39.000,64.000
2.283,50.000,77.500,38.000,63.500
2.284,49.000,76.000,37.000,62.000
2.285,48.000,75.000,35.500,61.500
2.286,46.500,74.000,35.000,61.000
2.287,45.500,73.500,35.000,61.000
2.288,44.000,73.500,35.000,61.500
2.289,43.000,73.000,35.500,62.000
2.290,42.000,72.500,35.500,62.000
2.291,41.000,72.000,35.000,62.000
2.292,40.000,71.500,34.500,61.500
2.293,39.500,71.000,34.000,61.000
2.294,38.500,70.500,33.500,61.000
2.295,37.500,70.000,33.500,60.500
2.296,37.000,69.500,33.000,60.000
2.297,37.000,68.500,32.500,59.500
2.298,37.000,68.000,31.500,58.500
2.299,37.000,67.500,31.000,58.000
2.300,37.000,67.000,30.500,58.000
2.301,37.500,67.000,31.000,58.500
2.302,37.000,67.000,31.000,58.500
2.303,37.000,67.000,31.000,58.500
2.304,36.500,66.500,30.500,58.000
2.305,36.500,66.000,30.000,57.500
2.306,36.000,65.500,29.500,56.500
2.307,36.000,65.000,28.500,56.000
2.308,36.000,64.500,28.000,55.000
2.309,36.000,64.500,27.500,55.000
2.310,36.000,64.500,27.000,54.500
2.311,35.500,64.000,26.500,54.500
2.312,35.000,64.000,26.500,54.500
2.313,34.500,63.500,27.000,54.500
2.314,34.000,63.500,27.000,54.500
2.315,33.500,63.500,27.000,55.000
2.316,33.500,63.500,27.500,55.000
2.317,33.500,63.500,27.500,55.000
2.318,33.500,64.000,27.500,55.500
2.319,33.500,64.000,28.000,56.000
2.320,33.500,64.000,28.000,56.000
2.321,34.000,63.500,28.000,56.000
2.322,34.000,63.500,28.000,56.000
2.323,34.000,63.500,27.500,55.500
2.324,34.500,63.000,27.000,54.500
2.325,34.500,63.000,26.500,54.500
2.326,35.000,63.500,26.500,54.500
2.327,34.500,63.500,27.000,55.000
2.328,34.000,64.000,28.000,55.500
2.329,34.000,64.000,28.500,56.000
2.330,33.500,64.000,28.500,56.000
2.331,33.000,63.500,28.000,55.500
2.332,33.000,63.500,27.000,55.000
2.333,33.500,63.000,26.000,53.500
2.334,33.500,62.500,24.500,52.500
2.335,33.500,62.500,24.000,52.500
2.336,33.500,62.500,24.000,52.500
2.337,33.500,63.000,24.500,53.500
2.338,34.000,63.000,25.000,54.000
2.339,34.500,63.000,25.000,54.000
2.340,35.000,63.500,25.000,54.000
2.341,35.000,63.500,25.500,54.500
2.342,35.500,64.000,26.000,55.000
2.343,35.000,64.000,26.000,55.000
2.344,35.000,64.000,26.500,55.500
2.345,35.000,64.000,27.000,55.500
2.346,34.500,64.000,27.000,56.000
2.347,34.000,64.000,27.500,56.500
2.348,34.000,64.000,28.500,56.500
2.349,33.500,64.500,29.000,57.000
2.350,33.500,64.500,29.500,57.500
2.351,33.500,65.000,29.500,57.500
2.352,33.500,64.500,29.000,57.000
2.353,33.500,64.500,28.500,57.000
2.354,33.000,64.500,28.500,57.000
2.355,33.000,65.000,29.000,57.500
2.356,33.000,65.000,29.500,58.000
2.357,33.000,65.000,30.000,58.000
2.358,33.000,65.000,30.000,58.000
2.359,33.500,65.000,29.500,58.000
2.360,33.500,65.000,29.500,58.000
2.361,33.500,65.000,29.500,57.500
2.362,34.000,65.000,29.000,57.500
2.363,34.000,65.000,29.000,57.500
2.364,34.000,64.500,28.500,57.000
2.365,34.000,64.000,28.000,56.500
2.366,34.500,63.500,27.000,56.000
2.367,34.500,63.500,26.000,55.500
2.368,35.000,63.500,26.000,55.000
2.369,35.000,63.500,26.000,55.000
2.370,35.500,64.000,26.000,55.500
2.371,35.500,64.500,26.500,55.500
2.372,35.500,64.500,26.500,55.500
2.373,35.500,64.500,26.500,55.500
2.374,35.000,64.500,26.500,55.500
2.375,35.000,64.500,26.000,55.500
2.376,35.500,65.000,26.500,56.000
2.377,35.500,65.000,27.000,56.500
2.378,35.500,65.500,27.500,57.000
2.379,35.500,65.500,28.500,57.500
2.380,35.500,65.500,29.000,58.000
2.381,35.500,66.000,29.500,58.500
2.382,35.500,66.000,30.000,58.500
2.383,36.000,66.000,30.500,58.500
2.384,36.000,66.000,30.500,59.000
2.385,36.000,66.000,31.000,60.000
2.386,36.000,66.500,31.500,60.500
2.387,35.500,66.500,31.500,61.000
2.388,35.500,66.500,31.500,61.000
2.389,35.500,66.500,31.500,61.000
2.390,35.500,66.000,31.000,60.500
2.391,35.000,66.000,30.500,60.000
2.392,34.500,65.500,30.500,60.000
2.393,34.000,65.000,30.500,60.000
2.394,33.000,65.000,31.000,60.500
2.395,32.500,64.500,31.000,60.500
2.396,32.000,64.500,30.500,60.500
2.397,32.000,64.000,30.000,60.000
2.398,32.500,64.000,29.000,59.000
2.399,33.000,63.500,28.500,58.500
2.400,34.000,64.000,28.000,58.000
2.401,34.500,64.500,28.000,58.000
2.402,35.500,65.000,28.500,58.500
2.403,36.500,65.500,30.000,59.000
2.404,37.000,66.500,31.000,60.000
2.405,37.500,67.500,32.500,61.500
2.406,38.000,68.500,34.000,62.500
2.407,38.500,69.500,35.500,64.000
2.408,39.000,70.000,37.000,65.000
2.409,39.500,71.000,37.500,65.500
2.410,39.500,71.000,38.000,66.000
2.411,39.500,71.000,38.500,66.500
2.412,39.000,71.500,39.000,67.500
2.413,38.500,71.000,39.500,68.000
2.414,38.000,71.000,39.500,68.000
2.415,38.000,71.000,39.500,68.000
2.416,38.000,70.500,39.000,68.000
2.417,38.500,70.500,38.500,67.000
2.418,39.000,70.000,37.000,66.000
2.419,39.500,69.500,35.500,64.500
2.420,39.500,69.000,34.500,64.000
2.421,40.000,69.000,34.000,63.500
2.422,40.000,69.000,34.000,63.500
2.423,39.500,69.000,34.500,64.000
2.424,39.500,69.000,35.000,64.500
2.425,39.500,69.500,36.000,65.000
2.426,39.500,70.000,36.500,66.000
2.427,39.500,70.000,37.500,66.500
2.428,39.500,70.500,38.500,67.500
2.429,39.000,70.500,39.500,68.000
2.430,39.000,71.000,40.000,68.500
2.431,38.500,71.000,40.000,69.000
2.432,38.500,71.000,40.500,69.500
2.433,38.000,71.000,40.500,69.500
2.434,38.000,71.000,40.500,70.000
2.435,38.000,71.000,40.500,70.000
2.436,37.500,71.000,40.500,70.000
2.437,37.500,71.000,40.000,70.000
2.438,38.000,71.000,39.500,70.000
2.439,38.000,70.500,39.000,69.500
2.440,38.000,70.500,38.000,68.500
2.441,38.500,70.000,37.000,67.500
2.442,38.500,70.000,36.500,67.000
2.443,39.000,70.000,36.000,66.500
2.444,39.500,70.000,36.000,66.000
2.445,39.500,70.000,35.500,66.000
2.446,39.500,70.000,35.500,66.000
2.447,40.000,70.000,35.500,66.500
2.448,39.500,70.500,35.500,67.000
2.449,39.500,70.500,36.500,67.500
2.450,39.500,71.000,37.000,68.000
2.451,39.000,71.000,37.500,68.000
2.452,39.000,71.000,37.500,68.000
2.453,38.500,71.000,37.500,68.000
2.454,38.500,71.000,37.500,68.000
2.455,38.500,71.500,37.500,68.000
2.456,38.500,71.500,37.500,68.500
2.457,38.500,71.500,38.000,68.500
2.458,39.000,72.000,38.000,69.000
2.459,39.000,72.000,38.000,69.500
2.460,38.500,72.500,38.500,69.500
2.461,38.500,72.000,38.000,69.500
2.462,38.500,72.000,38.000,69.000
2.463,38.500,72.000,38.000,69.000
2.464,38.500,72.000,38.000,69.000
2.465,38.500,71.500,38.000,69.000
2.466,38.500,71.500,38.000,69.000
2.467,38.500,72.000,38.500,69.500
2.468,38.500,72.000,39.000,70.000
2.469,39.000,72.500,39.500,70.000
2.470,39.000,72.500,39.500,70.000
2.471,39.000,72.500,38.500,69.500
2.472,39.500,72.000,38.000,69.000
2.473,39.500,71.500,37.000,68.500
2.474,39.500,71.000,36.500,68.000
2.475,39.500,71.000,35.500,67.500
2.476,39.500,71.000,35.000,67.000
2.477,39.500,71.000,34.500,66.500
2.478,39.500,71.000,34.500,66.500
2.479,39.500,71.000,34.500,67.000
2.480,39.500,71.000,35.000,67.000
2.481,39.500,71.500,35.500,67.500
2.482,40.000,71.500,36.000,68.000
2.483,40.000,71.500,36.500,68.500
2.484,40.000,72.000,37.500,69.000
2.485,40.000,72.500,38.500,70.000
2.486,40.000,72.500,39.000,70.500
2.487,39.500,73.000,40.000,71.500
2.488,39.500,73.500,40.500,72.000
2.489,39.500,74.000,41.500,73.000
2.490,39.000,74.500,42.000,73.500
2.491,39.000,74.500,43.000,74.000
2.492,39.000,74.500,43.500,74.000
2.493,39.000,74.500,43.500,74.000
2.494,39.000,74.500,43.500,74.000
2.495,39.000,74.500,43.500,74.000
2.496,39.000,74.000,42.500,73.500
2.497,39.500,73.500,41.500,73.000
2.498,39.500,73.000,40.500,72.000
2.499,40.000,72.500,39.500,71.500
2.500,40.000,72.000,38.500,71.000
2.501,40.000,72.000,38.500,70.500
2.502,40.000,72.000,38.500,70.500
2.503,40.000,71.500,39.000,71.000
2.504,39.500,71.500,39.500,71.500
2.505,39.500,71.500,40.000,72.500
2.506,39.500,71.500,40.500,73.000
2.507,39.000,71.000,40.500,73.000
2.508,39.000,71.000,40.000,73.000
2.509,38.500,70.500,39.500,73.000
2.510,38.000,70.500,40.000,73.500
2.511,37.500,71.000,40.000,74.000
2.512,37.000,71.000,41.000,74.500
2.513,37.000,71.000,41.000,75.000
2.514,36.500,71.000,41.500,75.000
2.515,36.500,71.000,41.000,75.000
2.516,37.000,71.000,41.000,74.500
2.517,37.000,71.000,40.500,74.500
2.518,37.500,71.000,40.500,74.500
2.519,38.000,71.500,41.000,74.500
2.520,38.500,72.000,41.500,74.500
2.521,38.500,72.000,41.500,75.000
2.522,39.000,72.500,42.000,75.000
2.523,39.500,72.500,42.000,74.500
2.524,39.500,72.000,41.500,74.000
2.525,39.500,72.000,40.500,73.000
2.526,40.000,71.500,39.500,72.000
2.527,40.000,71.000,38.500,71.000
2.528,40.000,71.000,38.500,71.000
2.529,40.000,71.000,38.500,70.500
2.530,40.500,71.500,38.500,71.000
2.531,40.500,72.000,39.000,71.000
2.532,40.500,72.500,39.500,72.000
2.533,40.500,73.000,40.000,72.500
2.534,40.500,73.000,40.500,73.000
2.535,40.500,73.500,40.500,73.000
2.536,41.000,73.500,41.000,73.000
2.537,41.000,74.000,40.500,73.000
2.538,41.000,74.000,40.500,72.500
2.539,41.000,73.500,40.500,72.500
2.540,41.000,73.500,41.000,73.000
2.541,41.000,73.500,41.000,72.500
2.542,40.500,73.500,41.000,72.500
2.543,40.500,73.000,40.500,72.000
2.544,40.500,72.500,40.000,71.000
2.545,40.500,72.000,39.500,70.000
2.546,40.500,71.500,39.000,69.000
2.547,40.500,71.500,38.500,69.000
2.548,40.500,71.500,39.000,69.500
2.549,40.000,72.000,40.000,70.000
2.550,40.000,72.500,40.500,71.000
2.551,39.500,72.500,40.500,71.000
2.552,39.500,72.500,40.000,70.500
2.553,40.000,72.500,39.500,70.000
2.554,40.000,72.000,39.000,69.000
2.555,40.500,72.000,38.500,68.500
2.556,41.000,72.000,38.500,68.500
2.557,41.500,72.000,38.500,68.500
2.558,41.500,72.500,39.000,69.000
2.559,41.500,72.500,39.500,69.500
2.560,42.000,72.500,40.000,70.000
2.561,42.000,72.500,40.500,70.000
2.562,42.000,72.500,40.500,70.000
2.563,42.500,73.000,40.500,70.000
2.564,43.000,73.000,40.000,69.500
2.565,43.500,73.000,39.500,69.000
2.566,44.000,73.000,39.000,68.500
2.567,44.500,73.000,38.000,68.000
2.568,44.500,73.000,38.000,67.500
2.569,44.500,73.000,38.000,67.500
2.570,44.500,73.000,38.000,67.500
2.571,44.000,73.000,38.000,67.000
2.572,44.000,73.000,37.500,66.500
2.573,43.500,72.500,37.500,66.500
2.574,43.500,73.000,37.500,66.500
2.575,43.000,73.000,38.000,67.500
2.576,43.000,73.500,39.000,68.000
2.577,43.000,74.000,40.000,69.000
2.578,43.000,74.000,40.500,69.500
2.579,43.000,74.500,41.000,70.000
2.580,43.000,74.500,41.500,70.000
2.581,43.500,74.500,42.000,70.000
2.582,44.000,74.500,42.000,70.000
2.583,44.000,74.500,42.000,70.000
2.584,44.500,74.000,42.000,69.500
2.585,44.500,74.000,41.500,69.500
2.586,44.500,74.000,41.500,69.000
2.587,44.500,74.500,41.500,69.000
2.588,44.500,74.500,41.500,69.000
2.589,44.000,74.500,41.500,69.000
2.590,44.000,74.500,41.000,68.500
2.591,44.000,74.000,40.500,68.500
2.592,43.500,74.000,40.000,68.000
2.593,43.500,73.500,40.000,68.000
2.594,43.500,73.500,39.500,67.500
2.595,44.000,73.500,39.500,67.500
2.596,44.500,74.000,39.000,67.500
2.597,45.000,74.000,39.000,67.000
2.598,45.500,74.000,39.000,67.000
2.599,45.500,74.000,39.500,67.000
2.600,45.500,74.000,40.000,67.500
2.601,45.500,74.500,40.500,68.500
2.602,45.500,74.500,41.000,68.500
2.603,45.500,74.500,41.000,69.000
2.604,45.500,74.500,41.500,69.000
2.605,45.500,74.500,41.500,69.000
2.606,45.500,74.500,42.000,69.500
2.607,45.500,74.500,43.000,70.000
2.608,45.500,75.000,44.000,71.000
2.609,45.500,75.500,45.000,71.500
2.610,45.500,75.500,45.500,72.000
2.611,45.000,76.000,46.000,72.000
2.612,45.000,76.500,46.500,72.500
2.613,44.500,76.500,46.500,72.500
2.614,44.500,76.500,47.000,72.500
2.615,44.500,77.000,47.000,72.500
2.616,44.500,76.500,47.000,72.500
2.617,45.000,76.500,46.500,72.500
2.618,45.000,76.000,46.000,72.000
2.619,45.000,76.000,45.000,71.500
2.620,45.500,75.500,44.500,71.000
2.621,45.500,75.500,44.500,71.000
2.622,45.500,75.000,44.500,71.000
2.623,46.000,75.000,44.500,70.500
2.624,46.000,75.000,45.000,70.500
2.625,46.500,75.000,44.500,70.500
2.626,46.500,75.000,44.500,70.000
2.627,47.000,75.000,44.000,70.000
2.628,47.000,75.000,43.500,69.500
2.629,46.500,75.000,44.000,69.500
2.630,46.000,75.000,44.500,70.000
2.631,45.000,75.000,45.000,70.500
2.632,44.500,75.500,46.000,71.000
2.633,44.500,75.500,46.500,71.500
2.634,44.500,76.000,47.000,72.000
2.635,44.500,76.000,47.000,72.000
2.636,44.500,76.000,47.000,72.500
2.637,44.500,76.000,47.000,72.000
2.638,44.500,76.000,46.500,72.000
2.639,44.500,75.500,45.500,71.500
2.640,44.500,75.000,45.000,71.000
2.641,45.000,74.500,44.500,70.500
2.642,45.000,74.500,44.000,70.000
2.643,45.500,74.000,43.000,69.000
2.644,46.000,73.500,42.000,68.500
2.645,46.500,73.000,41.000,67.500
2.646,46.500,73.000,40.500,67.000
2.647,46.500,73.000,40.500,67.000
2.648,46.500,73.500,41.500,68.000
2.649,46.000,73.500,42.000,68.500
2.650,46.000,74.000,42.500,69.000
2.651,46.000,74.000,42.000,69.000
2.652,45.500,74.000,42.000,69.000
2.653,45.500,74.000,41.500,68.500
2.654,45.500,74.000,41.000,68.000
2.655,46.000,73.500,40.500,67.500
2.656,46.000,73.500,40.500,67.500
2.657,46.000,73.500,40.500,67.500
2.658,46.000,73.500,40.500,67.500
2.659,46.500,74.000,40.500,67.500
2.660,47.000,74.000,40.500,67.500
2.661,47.000,74.000,41.000,68.000
2.662,47.000,74.000,41.000,68.500
2.663,47.000,74.000,41.500,69.000
2.664,47.000,74.000,41.500,69.000
2.665,47.000,74.500,42.500,69.500
2.666,47.000,75.000,43.000,70.000
2.667,47.000,75.000,43.500,70.500
2.668,46.500,75.500,44.000,70.500
2.669,46.500,76.000,44.000,71.000
2.670,46.000,76.500,45.000,71.500
2.671,46.000,76.500,45.500,72.500
2.672,45.500,77.000,46.000,73.000
2.673,45.500,77.000,46.500,73.500
2.674,45.500,76.500,46.500,73.500
2.675,45.500,76.500,46.000,73.500
2.676,45.500,76.500,45.000,73.000
2.677,46.000,76.500,44.500,72.500
2.678,46.000,76.500,44.000,72.500
2.679,46.500,76.500,43.500,72.500
2.680,46.500,76.500,44.000,72.500
2.681,46.500,76.500,44.000,72.500
2.682,46.500,76.500,44.500,72.500
2.683,46.000,76.000,44.000,72.000
2.684,46.000,76.000,43.000,71.000
2.685,46.500,75.500,42.000,70.000
2.686,46.500,75.000,40.500,68.500
2.687,46.500,74.500,39.500,67.500
2.688,46.000,74.500,39.000,67.000
2.689,46.000,74.500,39.000,67.000
2.690,45.500,74.500,39.000,67.500
2.691,45.000,74.500,39.500,68.000
2.692,44.500,75.000,40.000,68.500
2.693,44.500,75.000,40.500,69.000
2.694,44.000,75.500,41.000,69.500
2.695,44.000,75.500,41.500,70.500
2.696,44.000,76.000,42.500,71.000
2.697,44.000,76.500,43.500,72.000
2.698,44.500,76.500,44.000,72.500
2.699,44.500,77.000,44.000,72.500
2.700,45.000,77.000,44.000,72.500
2.701,45.000,77.000,44.000,72.500
2.702,45.500,77.000,44.000,72.000
2.703,45.500,76.500,43.500,72.000
2.704,45.000,76.500,43.500,72.000
2.705,45.500,76.000,43.500,71.500
2.706,45.500,76.000,43.500,71.500
2.707,45.500,76.000,43.500,71.500
2.708,45.500,76.000,44.000,71.500
2.709,46.000,76.000,43.500,71.500
2.710,46.000,75.500,43.500,71.500
2.711,46.000,75.500,43.000,71.000
2.712,45.500,75.500,42.500,71.000
2.713,45.500,75.500,43.000,71.000
2.714,45.000,75.500,43.000,71.500
2.715,44.500,75.500,43.000,71.500
2.716,44.000,75.000,42.500,71.500
2.717,43.500,74.500,42.000,71.000
2.718,43.500,74.000,41.500,70.500
2.719,43.500,74.000,40.500,70.500
2.720,44.000,73.500,40.500,70.500
2.721,44.500,73.500,40.500,70.500
2.722,45.000,74.000,40.500,70.500
2.723,45.500,74.000,40.500,70.500
2.724,45.500,73.500,40.000,70.000
2.725,46.000,73.500,40.000,69.500
2.726,46.000,73.500,39.500,69.000
2.727,46.000,73.500,39.000,69.000
2.728,46.000,73.500,39.000,69.000
2.729,46.000,73.500,39.000,69.000
2.730,45.500,73.500,39.500,69.000
2.731,45.500,73.500,39.500,69.500
2.732,45.500,73.500,39.500,69.500
2.733,45.500,73.500,40.000,69.500
2.734,45.500,73.000,40.000,69.000
2.735,45.000,73.000,40.000,69.000
2.736,45.000,73.500,40.000,69.500
2.737,45.000,73.500,40.500,70.000
2.738,45.000,73.500,41.000,70.000
2.739,45.000,74.000,41.000,70.500
2.740,45.000,74.000,41.500,71.000
2.741,45.500,74.500,42.000,71.500
2.742,46.000,75.000,42.500,71.500
2.743,46.000,75.000,43.000,71.500
2.744,46.500,75.000,43.000,71.500
2.745,46.500,75.000,42.500,72.000
2.746,46.500,75.000,42.500,72.000
2.747,46.000,75.000,42.500,72.000
2.748,46.000,75.500,43.000,72.500
2.749,46.500,76.000,43.000,72.500
2.750,46.500,76.000,43.500,73.000
2.751,46.500,76.000,43.500,72.500
2.752,46.000,76.000,43.000,72.500
2.753,46.000,75.500,42.500,72.000
2.754,46.000,75.000,42.000,71.000
2.755,46.000,75.000,41.000,70.500
2.756,46.000,74.500,40.500,70.000
2.757,46.000,74.000,40.000,70.000
2.758,46.000,74.000,39.500,69.500
2.759,46.500,74.000,39.500,69.500
2.760,46.500,74.000,40.000,69.500
2.761,46.500,74.000,41.000,70.000
2.762,46.500,74.000,41.000,70.000
2.763,46.500,74.000,41.500,70.000
2.764,46.500,73.500,41.000,69.500
2.765,46.500,73.500,41.000,69.500
2.766,46.500,73.500,41.000,69.500
2.767,46.500,73.500,41.500,70.000
2.768,46.500,74.000,42.000,70.500
2.769,46.000,74.000,43.000,71.000
2.770,46.000,74.000,43.000,71.500
2.771,45.500,74.000,43.000,71.500
2.772,45.500,73.500,42.500,71.000
2.773,45.500,73.500,41.500,70.000
2.774,45.500,73.000,40.500,69.000
2.775,45.500,72.500,40.500,69.000
2.776,45.500,72.500,40.500,69.000
2.777,45.500,72.500,40.500,69.000
2.778,45.500,72.500,40.500,69.000
2.779,46.000,72.500,40.000,69.000
2.780,46.000,72.500,40.000,68.500
2.781,46.000,72.500,40.000,69.000
2.782,46.500,72.500,40.500,69.000
2.783,46.500,73.000,40.500,69.000
2.784,46.500,73.000,40.500,69.000
2.785,46.500,72.500,40.000,68.500
2.786,47.000,72.500,39.500,67.500
2.787,47.000,72.000,39.000,67.500
2.788,46.500,72.000,39.000,67.500
2.789,46.500,72.500,40.000,68.000
2.790,46.000,73.000,41.000,69.000
2.791,46.000,73.000,41.500,70.000
2.792,45.500,73.000,42.000,70.500
2.793,45.000,73.000,42.500,70.500
2.794,44.500,73.000,42.500,70.500
2.795,44.000,72.500,42.500,70.000
2.796,44.000,72.500,42.500,70.000
2.797,43.500,72.000,42.000,69.500
2.798,43.000,71.500,41.500,69.000
2.799,43.000,71.000,40.500,68.000
2.800,43.000,70.000,39.500,67.500
2.801,42.500,69.000,38.500,66.500
2.802,42.500,68.500,37.000,65.000
2.803,42.500,67.500,35.500,64.000
2.804,42.500,67.000,34.000,63.000
2.805,42.500,66.500,33.000,62.000
2.806,42.500,66.000,32.500,61.500
2.807,42.000,66.000,32.500,61.000
2.808,42.000,66.000,33.000,61.500
2.809,42.000,67.000,34.000,62.500
2.810,42.500,68.000,35.500,63.500
2.811,43.000,69.000,36.500,64.500
2.812,43.500,70.000,38.000,65.500
2.813,44.000,71.000,39.000,66.500
2.814,44.500,72.000,40.000,67.500
2.815,45.000,73.000,41.000,68.500
2.816,45.500,73.500,42.000,69.000
2.817,45.500,73.500,42.000,69.500
2.818,45.500,73.500,42.000,69.000
2.819,45.000,73.000,41.500,69.000
2.820,45.000,72.500,41.000,68.500
2.821,45.500,72.000,41.000,68.000
2.822,45.500,72.000,40.500,68.000
2.823,45.500,72.000,40.500,67.500
2.824,45.500,72.000,40.000,67.500
2.825,46.000,71.500,39.500,67.000
2.826,45.500,71.500,39.000,66.000
2.827,45.500,71.000,38.000,65.500
2.828,45.500,70.500,37.000,64.500
2.829,45.500,70.000,35.500,63.500
2.830,45.500,69.500,35.000,62.500
2.831,45.000,69.000,34.500,62.500
2.832,45.000,69.000,34.500,62.500
2.833,44.500,69.000,34.500,63.000
2.834,44.000,68.500,34.500,62.500
2.835,43.500,68.500,34.500,62.500
2.836,43.500,68.500,34.000,62.000
2.837,43.500,68.000,34.000,61.500
2.838,43.500,68.000,33.500,61.000
2.839,43.500,67.500,33.000,60.500
2.840,43.500,67.500,32.500,60.500
2.841,43.500,67.500,32.500,60.500
2.842,43.500,67.500,33.000,61.000
2.843,43.500,68.000,33.500,61.500
2.844,43.500,68.000,33.500,61.500
2.845,43.000,68.000,33.500,62.000
2.846,43.000,68.000,33.500,62.000
2.847,42.500,68.000,33.500,62.000
2.848,42.000,68.000,34.000,62.500
2.849,41.500,68.000,34.500,63.000
2.850,41.500,68.500,35.500,63.500
2.851,41.000,68.500,35.500,64.000
2.852,40.500,68.500,36.000,64.500
2.853,40.000,68.500,36.000,64.500
2.854,40.000,68.500,36.500,65.000
2.855,39.500,68.500,36.500,65.000
2.856,39.000,68.500,36.500,65.000
2.857,39.000,68.500,36.500,64.500
2.858,39.000,68.000,36.000,64.500
2.859,39.000,68.000,35.500,63.500
2.860,39.000,67.500,35.000,63.000
2.861,39.500,67.000,34.000,62.500
2.862,39.500,67.000,33.500,61.500
2.863,40.000,66.500,33.000,61.000
2.864,40.500,66.500,33.000,60.500
2.865,41.000,66.500,33.000,61.000
2.866,40.500,66.500,33.500,61.500
2.867,40.500,66.000,34.000,62.000
2.868,39.500,66.000,34.000,62.000
2.869,39.000,65.500,33.500,61.500
2.870,38.500,65.000,32.500,61.000
2.871,38.000,64.500,31.500,60.000
2.872,37.500,64.000,31.000,59.000
2.873,37.500,63.500,30.000,58.500
2.874,37.000,63.500,30.000,58.000
2.875,36.500,63.500,30.000,58.000
2.876,36.500,63.500,30.000,58.500
2.877,36.000,63.500,30.000,58.500
2.878,35.500,63.000,30.000,58.500
2.879,35.500,63.000,30.000,58.500
2.880,35.500,62.500,30.500,58.500
2.881,35.500,62.500,30.500,58.500
2.882,35.500,62.500,31.000,58.500
2.883,36.000,62.500,31.000,58.500
2.884,36.000,63.000,31.500,58.500
2.885,36.000,63.000,32.000,59.500
2.886,36.000,63.500,33.000,60.000
2.887,36.000,64.000,34.000,60.500
2.888,36.000,64.000,34.500,61.000
2.889,35.500,64.500,35.000,61.500
2.890,35.500,64.500,35.500,61.500
2.891,35.500,64.500,35.500,62.000
2.892,35.500,65.000,35.500,62.000
2.893,35.500,65.000,35.500,62.000
2.894,35.500,65.000,35.500,62.000
2.895,35.500,65.000,35.500,61.500
2.896,35.500,65.000,35.000,61.000
2.897,36.000,64.500,34.000,60.500
2.898,36.000,63.500,33.000,59.500
2.899,36.500,63.000,31.500,58.500
2.900,37.000,62.500,31.000,58.000
2.901,37.500,62.500,30.500,57.500
2.902,37.500,62.500,30.500,57.500
2.903,37.500,62.500,30.500,57.500
2.904,38.000,62.500,30.500,58.000
2.905,38.000,62.500,30.500,58.000
2.906,37.500,62.000,31.000,58.500
2.907,37.500,62.000,31.500,59.500
2.908,37.000,62.000,32.500,60.000
2.909,36.500,62.000,33.000,61.000
2.910,35.500,62.000,33.500,61.500
2.911,35.500,62.000,33.500,61.500
2.912,35.000,61.500,33.500,61.000
2.913,35.000,61.500,32.500,60.500
2.914,35.000,60.500,32.000,59.500
2.915,35.000,60.500,31.000,59.000
2.916,35.000,60.000,30.500,58.500
2.917,35.500,59.500,30.500,58.500
2.918,35.500,59.500,30.500,58.000
2.919,35.000,60.000,30.500,58.000
2.920,35.000,60.000,31.000,58.500
2.921,35.000,60.500,31.000,58.500
2.922,34.500,60.500,31.000,59.000
2.923,34.500,60.500,31.000,59.000
2.924,34.500,60.500,31.000,59.000
2.925,35.000,60.500,31.000,59.000
2.926,35.000,60.500,31.000,59.000
2.927,35.000,60.500,31.500,59.000
2.928,35.000,61.000,32.000,59.500
2.929,35.000,61.000,32.500,59.500
2.930,34.500,61.000,32.500,60.000
2.931,34.500,61.000,32.500,59.500
2.932,34.000,61.000,32.000,59.500
2.933,34.000,61.000,31.500,59.000
2.934,34.000,60.500,31.000,58.500
2.935,34.000,60.500,30.500,58.500
2.936,34.000,60.000,30.000,58.000
2.937,34.000,60.000,29.500,57.500
2.938,34.500,60.000,29.000,57.000
2.939,34.500,59.500,28.500,56.500
2.940,34.500,59.000,28.000,56.000
2.941,35.000,58.500,27.500,55.500
2.942,35.000,58.500,27.000,55.000
2.943,35.500,58.500,27.000,54.500
2.944,35.500,58.500,26.500,54.500
2.945,35.000,58.500,26.500,54.000
2.946,35.000,58.000,26.000,53.500
2.947,35.000,58.000,26.000,53.500
2.948,34.500,58.000,26.000,53.000
2.949,34.500,58.500,26.500,53.500
2.950,34.000,58.500,27.500,54.500
2.951,33.500,59.000,28.000,55.000
2.952,32.500,59.000,29.000,56.000
2.953,32.000,59.000,29.500,56.500
2.954,32.000,59.500,30.500,57.000
2.955,31.500,59.500,30.500,57.000
2.956,31.500,59.500,30.500,57.000
2.957,31.500,59.500,30.500,57.000
2.958,31.500,59.500,30.000,57.000
2.959,31.500,59.500,30.000,56.500
2.960,31.500,59.500,29.500,56.500
2.961,31.500,59.000,29.500,56.500
2.962,31.500,58.500,29.000,56.000
2.963,31.500,58.000,28.500,55.500
2.964,32.000,57.500,27.500,54.500
2.965,32.000,57.000,26.500,53.500
2.966,32.500,56.500,25.500,52.500
2.967,32.500,56.500,25.000,52.000
2.968,32.500,56.000,24.500,52.000
2.969,32.000,56.000,25.000,52.000
2.970,32.000,56.000,25.000,52.500
2.971,31.500,56.000,25.500,52.500
2.972,31.000,56.000,26.000,53.000
2.973,30.500,56.000,26.000,53.000
2.974,30.000,55.500,25.500,52.500
2.975,30.000,55.500,25.000,52.000
2.976,29.500,55.000,24.500,51.500
2.977,28.500,54.500,24.000,51.500
2.978,28.000,54.000,23.500,51.000
2.979,27.500,53.000,23.000,50.500
2.980,27.000,52.500,22.500,50.500
2.981,27.000,52.000,22.000,50.000
2.982,27.000,51.500,21.500,49.500
2.983,27.000,51.000,21.000,49.000
2.984,27.000,51.000,21.000,49.000
2.985,27.000,51.000,21.000,49.500
2.986,26.500,51.000,21.000,49.500
2.987,26.500,51.000,21.500,50.000
2.988,26.500,51.000,21.500,50.000
2.989,26.500,51.000,21.000,50.000
2.990,26.500,51.000,21.000,50.000
2.991,26.500,51.000,20.500,50.000
2.992,26.000,51.000,21.000,50.500
2.993,26.000,51.500,21.500,51.500
2.994,25.500,52.000,22.500,53.000
2.995,25.500,52.500,23.500,54.000
2.996,25.500,52.500,25.000,55.500
2.997,25.500,53.500,26.000,57.000
2.998,25.500,54.000,27.000,58.500
2.999,25.500,54.500,28.000,60.000
3.000,25.500,54.500,29.000,61.000
3.001,26.000,55.000,29.500,62.000
3.002,27.000,56.000,30.500,63.000
3.003,28.000,56.500,31.500,64.000
3.004,29.500,57.500,32.500,65.500
3.005,31.000,58.500,33.000,66.500
3.006,32.000,59.500,34.000,67.500
3.007,33.500,61.000,35.500,69.500
3.008,34.500,62.500,37.000,71.000
3.009,35.500,64.000,38.500,72.500
3.010,36.500,65.000,40.000,74.000
3.011,37.000,66.500,41.500,76.000
3.012,37.500,67.500,43.500,77.500
3.013,38.000,68.500,45.500,79.500
3.014,38.500,69.500,47.500,81.500
3.015,39.000,71.000,49.500,83.000
3.016,40.000,72.000,51.500,84.500
3.017,40.500,73.000,53.000,85.500
3.018,41.500,74.000,53.500,85.500
3.019,43.000,74.500,53.500,85.000
3.020,44.500,74.500,53.000,84.000
3.021,46.000,75.000,52.500,83.000
3.022,47.500,75.500,52.000,82.500
3.023,49.000,76.000,52.000,81.500
3.024,50.000,76.000,52.000,81.000
3.025,51.000,76.500,51.500,80.000
3.026,51.500,77.000,51.500,79.000
3.027,52.000,77.000,51.000,78.000
3.028,51.500,77.000,50.000,77.000
3.029,51.500,76.500,49.000,76.000
3.030,51.000,76.000,48.000,74.500
3.031,51.000,75.000,46.500,73.000
3.032,50.500,74.500,45.000,71.500
3.033,49.500,73.500,44.000,70.000
3.034,48.500,72.500,43.000,69.000
3.035,47.500,71.500,42.000,68.000
3.036,47.000,70.500,40.500,67.000
3.037,46.000,69.500,39.500,66.000
3.038,45.000,68.500,38.000,64.500
3.039,43.500,67.000,37.000,63.500
3.040,42.500,66.000,35.500,62.500
3.041,41.500,64.500,34.500,61.500
3.042,40.500,63.500,33.500,60.500
3.043,39.500,62.000,32.500,59.500
3.044,39.000,61.000,31.000,58.000
3.045,38.000,59.500,29.500,57.000
3.046,37.500,58.500,28.500,55.500
3.047,36.500,57.500,27.000,54.500
3.048,35.500,56.500,26.000,53.500
3.049,34.500,55.500,26.000,53.500
3.050,33.000,55.000,26.000,53.500
3.051,32.000,54.500,26.000,53.500
3.052,30.500,54.000,26.000,54.000
3.053,29.500,53.500,26.000,54.000
3.054,28.500,53.500,25.500,54.000
3.055,28.000,53.000,25.500,54.000
3.056,27.500,52.500,25.000,53.500
3.057,27.500,52.500,24.500,53.500
3.058,27.000,52.000,24.000,53.000
3.059,27.000,51.000,23.500,52.500
3.060,26.500,50.500,22.500,52.000
3.061,26.500,50.500,22.000,51.500
3.062,26.500,50.000,21.500,51.000
3.063,26.000,50.000,21.500,50.500
3.064,25.500,50.000,21.000,50.000
3.065,25.500,50.000,21.000,49.500
3.066,25.000,49.500,21.000,49.000
3.067,24.500,49.500,21.000,49.000
3.068,24.000,49.500,21.000,49.000
3.069,24.000,49.500,21.000,49.000
3.070,23.500,49.000,21.000,49.000
3.071,23.500,49.000,21.000,49.000
3.072,23.500,48.500,21.000,49.000
3.073,23.000,48.000,20.500,49.000
3.074,23.000,47.500,20.000,48.500
3.075,22.500,47.000,19.500,48.000
3.076,22.500,47.000,18.500,47.500
3.077,23.000,46.500,17.500,46.500
3.078,23.000,46.500,16.500,45.500
3.079,23.000,46.000,15.500,45.000
3.080,23.500,45.500,15.000,44.000
3.081,24.000,45.500,14.000,43.500
3.082,24.000,45.000,13.500,43.000
3.083,24.000,45.000,13.500,42.500
3.084,24.000,45.000,13.000,42.000
3.085,24.000,44.500,13.000,42.000
3.086,24.000,44.500,13.000,41.500
3.087,23.500,44.500,13.000,41.500
3.088,23.500,44.000,13.000,41.500
3.089,23.000,44.000,13.000,41.500
3.090,23.000,43.500,12.500,41.000
3.091,22.500,43.500,12.500,41.000
3.092,22.000,43.500,12.500,40.500
3.093,21.500,43.500,12.500,41.000
3.094,21.000,43.500,13.500,41.500
3.095,21.000,44.000,13.500,42.500
3.096,21.500,44.000,14.000,42.500
3.097,21.500,43.500,13.500,42.500
3.098,21.500,43.000,13.000,42.000
3.099,21.500,42.500,12.000,41.000
3.100,22.000,42.000,11.500,40.500
3.101,22.000,42.000,10.500,39.500
3.102,21.500,41.500,10.500,39.000
3.103,21.500,41.000,10.500,39.000
3.104,21.000,41.000,10.500,39.000
3.105,21.000,40.500,10.000,39.000
3.106,20.500,40.000,10.000,39.000
3.107,19.500,39.500,9.500,39.000
3.108,19.500,39.000,9.500,39.000
3.109,19.000,39.000,9.000,39.000
3.110,18.500,39.000,9.000,39.000
3.111,18.500,39.000,9.500,39.000
3.112,18.500,39.000,9.500,39.000
3.113,18.500,39.500,9.500,39.000
3.114,18.500,39.500,9.500,39.000
3.115,18.500,40.000,10.000,39.500
3.116,18.000,40.000,10.500,40.000
3.117,18.500,40.500,11.000,40.500
3.118,18.500,40.500,11.500,40.500
3.119,18.500,40.500,11.500,41.000
3.120,19.000,40.500,12.000,41.000
3.121,19.500,40.500,12.000,41.000
3.122,20.000,41.000,12.500,41.000
3.123,20.500,41.000,12.500,41.000
3.124,20.500,41.000,13.000,41.500
3.125,20.000,41.000,13.000,41.500
3.126,20.000,41.000,13.000,41.500
3.127,20.000,41.500,13.000,41.500
3.128,20.000,41.500,13.500,41.500
3.129,20.000,41.500,13.000,41.500
3.130,20.000,41.500,12.500,41.500
3.131,20.000,41.000,12.000,41.000
3.132,19.500,40.500,11.000,40.500
3.133,19.500,40.000,10.000,40.000
3.134,19.000,39.500,9.500,39.000
3.135,19.000,39.000,8.500,38.500
3.136,19.000,38.500,8.000,38.000
3.137,19.000,38.500,7.500,37.500
3.138,19.500,38.000,7.000,37.500
3.139,19.500,38.000,7.000,38.000
3.140,19.500,38.000,7.000,38.000
3.141,20.000,38.000,7.500,38.500
3.142,20.000,38.500,7.500,38.500
3.143,20.000,38.500,8.000,38.500
3.144,20.000,38.500,8.000,38.500
3.145,20.000,38.500,8.000,38.500
3.146,20.000,38.500,8.500,38.500
3.147,19.500,38.500,8.500,39.000
3.148,19.500,38.500,9.000,39.500
3.149,19.000,39.000,10.000,40.000
3.150,18.500,39.500,10.500,40.500
3.151,18.000,39.500,11.000,41.500
3.152,17.500,39.500,11.500,41.500
3.153,17.500,39.500,11.500,41.500
3.154,17.000,39.500,11.500,41.500
3.155,17.000,39.000,11.000,41.500
3.156,17.000,39.000,10.500,41.000
3.157,17.500,39.000,10.000,40.500
3.158,17.500,38.500,9.500,40.500
3.159,18.000,38.500,9.500,40.500
3.160,18.000,38.500,9.500,40.500
3.161,18.000,38.500,9.500,41.000
3.162,18.000,38.500,9.000,40.500
3.163,18.000,38.000,8.500,39.500
3.164,18.500,37.500,7.500,39.000
3.165,18.500,37.000,6.500,38.000
3.166,18.500,36.500,5.500,37.000
3.167,18.500,36.500,5.500,37.000
3.168,18.000,36.500,5.500,37.500
3.169,17.500,37.000,6.000,38.000
3.170,17.000,37.000,7.000,39.000
3.171,16.500,37.500,8.000,40.500
3.172,16.000,37.500,9.000,41.000
3.173,15.500,38.000,9.500,41.500
3.174,16.000,38.000,10.000,41.500
3.175,16.000,38.000,9.500,41.000
3.176,16.500,38.000,9.000,40.500
3.177,17.000,37.500,8.000,39.500
3.178,17.500,37.500,6.500,38.500
3.179,18.000,37.000,5.500,38.000
3.180,18.000,37.000,5.000,37.500
3.181,18.500,36.500,5.000,37.000
3.182,18.500,36.500,5.000,37.500
3.183,18.500,36.500,5.000,37.500
3.184,18.500,36.000,5.000,37.500
3.185,18.000,36.000,5.500,37.500
3.186,18.000,36.500,6.000,38.000
3.187,18.000,37.000,7.000,39.000
3.188,17.500,37.500,8.500,40.000
3.189,17.500,38.000,9.500,41.500
3.190,17.500,38.500,10.500,42.500
3.191,17.500,38.500,11.000,43.000
3.192,17.500,39.000,11.000,43.500
3.193,17.500,39.000,11.000,43.500
3.194,17.500,39.500,11.000,43.500
3.195,17.500,39.500,11.500,44.000
3.196,17.000,39.500,11.500,43.500
3.197,17.000,39.500,11.000,43.500
3.198,17.500,39.000,10.500,42.500
3.199,17.500,38.500,9.500,41.500
3.200,17.500,37.500,8.000,40.500
3.201,17.500,37.000,6.500,39.000
3.202,17.500,36.500,5.500,38.000
3.203,17.500,35.500,4.500,37.000
3.204,17.000,35.000,3.500,36.500
3.205,16.500,34.500,3.000,36.000
3.206,16.000,34.000,3.000,35.500
3.207,15.500,34.000,3.000,36.000
3.208,15.000,33.500,3.000,36.000
3.209,14.000,33.500,3.000,36.000
3.210,13.500,33.000,3.000,36.000
3.211,12.500,32.500,3.000,36.000
3.212,12.000,32.000,3.000,36.500
3.213,11.500,32.000,3.500,36.500
3.214,11.000,32.000,4.000,37.000
3.215,10.500,32.000,5.000,37.500
3.216,10.500,32.500,5.500,38.000
3.217,10.500,33.000,6.000,38.500
3.218,11.000,33.500,6.000,39.000
3.219,11.500,34.000,6.500,39.000
3.220,12.000,34.500,6.500,39.500
3.221,12.500,35.000,7.000,40.000
3.222,13.500,35.500,7.500,40.000
3.223,14.000,36.000,8.000,40.500
3.224,14.500,36.500,8.500,40.500
3.225,15.000,36.500,8.500,41.000
3.226,15.000,36.500,8.500,41.000
3.227,15.500,36.500,8.500,40.500
3.228,15.500,36.000,8.000,40.500
3.229,15.500,36.000,7.500,40.500
3.230,15.000,35.500,7.000,40.000
3.231,14.500,35.000,6.500,39.500
3.232,14.500,35.000,6.000,39.000
3.233,14.000,34.500,5.500,39.000
3.234,14.000,34.500,5.500,38.500
3.235,14.000,34.500,5.000,38.500
3.236,14.000,34.500,5.000,38.500
3.237,13.500,34.500,5.000,39.000
3.238,13.500,34.500,5.500,39.000
3.239,13.500,34.500,5.500,39.000
3.240,13.500,34.000,5.500,38.500
3.241,13.000,34.000,5.500,38.500
3.242,13.000,34.000,5.500,38.000
3.243,13.000,33.500,5.500,38.000
3.244,12.500,33.500,5.500,38.000
3.245,12.000,33.500,6.000,38.500
3.246,12.000,33.500,6.000,38.500
3.247,11.500,33.000,6.500,38.500
3.248,11.500,33.000,7.000,39.000
3.249,11.500,33.500,7.500,40.000
3.250,11.000,34.000,8.500,41.000
3.251,11.000,34.500,9.500,41.500
3.252,11.000,35.000,10.000,42.500
3.253,11.000,35.000,10.500,42.500
3.254,11.000,35.000,10.500,43.000
3.255,11.500,35.500,10.500,43.000
3.256,11.500,35.500,10.000,43.000
3.257,11.500,35.500,10.000,42.500
3.258,11.500,35.500,10.000,42.500
3.259,12.000,35.000,10.000,42.000
3.260,12.000,35.000,9.500,42.000
3.261,12.000,34.500,8.500,41.000
3.262,12.000,33.500,7.000,40.000
3.263,12.000,33.000,5.500,38.500
3.264,12.500,32.000,3.500,37.000
3.265,13.000,31.500,2.500,36.000
3.266,13.000,31.500,2.500,35.500
3.267,13.000,31.500,3.000,36.000
3.268,12.500,31.500,4.000,37.000
3.269,12.500,31.500,4.500,38.000
3.270,12.000,31.500,4.500,38.000
3.271,11.000,31.500,5.000,38.500
3.272,11.000,31.500,5.000,38.500
3.273,10.500,32.000,5.500,39.000
3.274,10.000,32.000,6.000,39.500
3.275,10.000,32.500,6.500,40.000
3.276,10.000,32.500,6.500,41.000
3.277,10.000,32.500,7.000,41.000
3.278,10.000,32.500,6.500,41.000
3.279,10.000,32.000,6.000,40.000
3.280,10.500,31.500,5.500,39.000
3.281,10.500,31.000,4.500,38.000
3.282,11.000,30.500,4.000,37.000
3.283,11.000,30.500,3.500,36.000
3.284,11.000,30.000,3.500,36.000
3.285,11.000,30.500,3.500,36.000
3.286,11.000,30.500,4.000,36.500
3.287,10.500,31.000,5.000,37.000
3.288,10.000,31.500,6.000,38.000
3.289,9.500,31.500,6.500,38.500
3.290,9.500,32.000,6.500,38.500
3.291,9.000,32.000,7.000,38.500
3.292,9.000,32.000,6.500,39.000
3.293,9.000,32.000,6.500,39.000
3.294,8.500,31.500,6.500,38.500
3.295,8.500,31.000,6.000,38.500
3.296,8.000,30.500,5.500,37.500
3.297,8.000,30.000,4.000,37.000
3.298,8.000,29.500,3.000,36.000
3.299,8.000,29.000,1.500,35.000
3.300,8.500,28.500,0.500,34.000
3.301,8.500,28.000,-1.500,33.000
3.302,9.000,27.500,-3.000,32.000
3.303,9.500,27.000,-4.000,31.000
3.304,10.000,26.500,-4.500,30.000
3.305,10.500,27.000,-4.500,30.000
3.306,10.000,27.000,-3.500,30.000
3.307,9.500,27.000,-3.000,30.500
3.308,9.000,27.500,-2.000,31.500
3.309,8.500,27.500,-1.000,32.500
3.310,8.000,28.000,-0.500,33.000
3.311,8.000,28.000,-0.500,33.500
3.312,8.000,28.500,-0.500,33.500
3.313,8.000,28.500,-0.500,33.500
3.314,8.500,29.000,-0.500,33.500
3.315,9.000,29.000,-0.500,33.500
3.316,9.000,29.500,0.000,33.500
3.317,9.000,29.500,0.500,33.500
3.318,9.000,29.000,0.000,33.000
3.319,9.500,29.000,-0.500,32.500
3.320,10.000,29.000,-1.000,32.000
3.321,10.000,29.000,-1.000,32.000
3.322,10.000,29.000,-0.500,32.000
3.323,10.000,29.000,0.000,32.000
3.324,10.000,29.000,0.500,32.000
3.325,10.000,29.000,0.000,31.500
3.326,10.000,28.500,-0.500,31.000
3.327,10.000,28.000,-1.500,30.500
3.328,10.000,27.500,-2.500,30.000
3.329,10.000,27.500,-3.500,29.000
3.330,10.000,27.000,-4.500,28.000
3.331,10.000,26.500,-5.000,27.500
3.332,10.000,26.500,-6.000,27.000
3.333,10.000,26.500,-6.000,26.500
3.334,9.500,26.500,-5.500,27.000
3.335,9.500,27.000,-5.000,27.500
3.336,9.500,27.000,-4.500,28.000
3.337,9.000,27.500,-4.000,28.500
3.338,9.000,27.500,-3.500,28.500
3.339,9.000,28.000,-3.000,29.000
3.340,8.500,28.000,-2.500,29.500
3.341,8.500,28.000,-2.000,29.500
3.342,8.500,28.000,-2.000,29.500
3.343,9.000,28.000,-2.000,29.500
3.344,9.000,28.000,-2.500,29.000
3.345,9.000,28.000,-2.500,29.000
3.346,9.000,28.000,-2.500,29.000
3.347,8.500,28.000,-2.000,29.500
3.348,8.500,28.000,-1.500,30.000
3.349,8.500,28.000,-1.500,30.000
3.350,8.000,28.000,-1.500,30.000
3.351,8.000,28.000,-2.000,29.500
3.352,7.500,27.500,-2.500,29.000
3.353,7.500,27.500,-3.000,28.500
3.354,7.500,27.500,-4.000,28.000
3.355,7.500,27.000,-5.500,27.000
3.356,7.500,26.500,-6.500,26.000
3.357,8.000,26.000,-7.500,25.500
3.358,8.000,26.000,-8.000,25.000
3.359,8.500,25.500,-8.000,25.000
3.360,8.500,26.000,-7.500,25.000
3.361,8.500,26.000,-7.000,25.000
3.362,8.500,26.500,-7.000,25.000
3.363,8.500,26.500,-6.500,25.000
3.364,9.000,26.500,-6.500,25.000
3.365,9.000,26.500,-6.000,25.500
3.366,9.000,27.000,-5.500,26.000
3.367,9.000,27.000,-4.500,27.000
3.368,9.000,27.000,-3.500,27.500
3.369,8.500,27.500,-3.000,28.500
3.370,8.000,27.500,-2.500,28.500
3.371,8.000,27.500,-2.500,29.000
3.372,7.500,27.500,-2.000,29.000
3.373,7.000,27.500,-1.500,29.500
3.374,7.000,27.500,-1.500,29.500
3.375,7.000,27.500,-1.500,29.500
3.376,7.000,27.500,-2.000,29.000
3.377,7.000,27.000,-2.500,28.500
3.378,7.000,26.500,-3.500,27.500
3.379,7.000,26.000,-5.000,26.500
3.380,7.500,25.500,-6.000,25.500
3.381,7.500,25.000,-7.000,25.000
3.382,8.000,24.500,-7.500,24.500
3.383,8.000,24.500,-7.000,24.500
3.384,8.000,24.500,-7.000,24.500
3.385,8.000,25.000,-6.000,25.000
3.386,8.000,25.000,-5.000,25.500
3.387,8.000,25.500,-4.000,26.500
3.388,8.000,25.500,-3.500,27.000
3.389,7.500,26.000,-3.500,27.500
3.390,7.500,25.500,-4.000,27.000
3.391,7.000,25.000,-4.500,26.500
3.392,7.000,24.500,-5.500,26.000
3.393,7.000,24.500,-5.500,26.000
3.394,6.500,24.500,-5.000,26.500
3.395,6.500,24.500,-4.500,27.000
3.396,6.500,25.000,-4.000,27.500
3.397,6.000,25.500,-3.500,28.500
3.398,6.000,25.500,-3.500,28.500
3.399,6.500,25.500,-4.000,28.000
3.400,6.500,25.500,-4.500,27.500
3.401,7.000,25.000,-5.500,27.000
3.402,7.500,25.000,-6.000,26.000
3.403,8.000,25.000,-6.500,25.500
3.404,8.000,24.500,-6.500,25.000
3.405,8.500,24.500,-6.500,25.000
3.406,8.000,24.500,-6.500,25.000
3.407,8.000,24.500,-6.500,25.500
3.408,7.500,24.500,-5.500,26.000
3.409,7.000,24.500,-4.500,27.000
3.410,6.500,25.000,-3.500,27.500
3.411,6.500,25.000,-3.000,28.000
3.412,6.000,25.000,-2.500,28.500
3.413,6.000,25.500,-2.000,29.000
3.414,6.000,25.500,-2.000,29.000
3.415,5.500,25.500,-1.500,29.000
3.416,5.500,26.000,-1.500,29.500
3.417,5.500,25.500,-2.000,29.500
3.418,5.500,25.500,-2.500,29.000
3.419,5.500,25.000,-3.000,28.500
3.420,6.000,25.000,-4.000,28.000
3.421,6.000,24.500,-4.500,27.000
3.422,6.500,24.000,-5.500,26.500
3.423,7.000,24.000,-6.000,25.500
3.424,7.500,24.000,-6.000,25.500
3.425,7.500,24.000,-5.500,25.500
3.426,7.000,23.500,-5.500,25.500
3.427,7.000,23.500,-4.500,26.500
3.428,6.500,23.500,-4.000,27.000
3.429,6.000,24.000,-3.500,27.500
3.430,5.500,24.000,-3.000,28.000
3.431,5.000,24.000,-3.000,28.000
3.432,4.500,23.500,-3.500,28.000
3.433,4.500,23.500,-3.500,28.000
3.434,4.500,23.000,-4.000,27.500
3.435,4.000,23.000,-4.000,27.500
3.436,4.000,23.000,-4.000,27.000
3.437,4.000,23.000,-4.000,26.500
3.438,4.500,23.000,-4.500,26.500
3.439,4.500,22.500,-5.000,26.000
3.440,4.500,22.000,-6.000,25.000
3.441,5.000,21.500,-7.500,24.500
3.442,5.500,21.000,-8.500,23.500
3.443,6.000,20.500,-9.000,22.500
3.444,6.000,20.000,-10.000,21.500
3.445,6.000,19.500,-10.500,21.000
3.446,6.000,19.000,-10.500,20.500
3.447,5.500,19.000,-10.500,20.500
3.448,5.000,19.500,-10.000,21.500
3.449,5.000,19.500,-9.000,22.000
3.450,4.500,20.000,-8.500,22.500
3.451,4.500,19.500,-8.500,22.500
3.452,4.500,19.500,-8.500,22.500
3.453,4.000,19.500,-8.500,22.500
3.454,3.500,19.500,-8.000,23.000
3.455,3.500,19.500,-7.500,23.000
3.456,3.500,19.500,-7.500,23.500
3.457,3.000,19.500,-7.500,23.500
3.458,3.000,19.500,-7.500,23.500
3.459,3.000,19.500,-7.500,23.500
3.460,3.000,20.000,-7.500,24.000
3.461,3.000,20.000,-7.000,24.000
3.462,3.000,20.000,-7.000,24.000
3.463,3.500,20.000,-7.500,23.500
3.464,3.500,19.500,-7.500,23.500
3.465,3.500,19.500,-7.000,24.000
3.466,4.000,19.500,-7.000,24.000
3.467,4.000,20.000,-6.500,24.500
3.468,4.000,20.000,-6.000,25.500
3.469,4.000,20.000,-5.500,25.500
3.470,4.000,20.000,-5.500,25.500
3.471,3.500,19.500,-6.000,25.000
3.472,3.500,19.500,-6.500,24.500
3.473,3.500,19.500,-7.000,24.000
3.474,3.500,19.500,-6.500,24.500
3.475,3.000,19.500,-6.500,24.500
3.476,3.000,19.500,-6.500,24.500
3.477,3.000,19.500,-7.500,24.000
3.478,3.000,18.500,-9.000,23.000
3.479,3.500,18.000,-10.000,22.000
3.480,3.500,17.000,-11.000,21.500
3.481,4.000,17.000,-11.500,21.000
3.482,4.000,16.500,-12.000,20.500
3.483,4.000,16.500,-12.000,20.500
3.484,4.500,16.500,-12.000,20.000
3.485,4.500,16.500,-12.000,20.000
3.486,4.500,16.500,-12.000,20.000
3.487,4.000,16.500,-11.500,20.500
3.488,3.500,16.500,-10.500,21.500
3.489,3.500,17.000,-9.500,22.000
3.490,3.000,17.000,-9.000,22.500
3.491,2.500,17.000,-9.500,22.500
3.492,2.500,16.500,-10.000,22.000
3.493,2.000,16.500,-10.500,21.500
3.494,2.000,16.000,-10.500,21.500
3.495,1.500,15.500,-11.000,21.000
3.496,1.000,15.000,-11.500,21.000
3.497,1.000,15.000,-11.500,20.500
3.498,1.000,15.000,-11.500,20.500
3.499,1.000,15.000,-11.500,21.000
3.500,1.000,15.000,-11.000,21.000
3.501,1.500,15.000,-10.500,21.500
3.502,1.500,15.000,-10.500,21.000
3.503,1.500,15.000,-10.500,21.000
3.504,2.000,14.500,-10.500,20.500
3.505,2.000,14.500,-10.500,20.500
3.506,2.500,14.500,-10.500,20.500
3.507,2.500,14.500,-10.000,21.000
3.508,2.500,14.500,-9.500,21.000
3.509,2.500,14.500,-9.000,21.500
3.510,2.500,14.500,-9.500,21.500
3.511,2.500,14.500,-10.000,21.000
3.512,2.500,14.000,-11.000,20.000
3.513,2.500,14.000,-11.500,19.000
3.514,2.500,14.500,-12.000,18.500
3.515,2.500,14.500,-12.000,18.500
3.516,2.500,15.000,-12.000,19.000
3.517,2.500,15.000,-12.000,18.500
3.518,3.000,15.000,-12.000,18.500
3.519,3.000,14.500,-12.000,18.500
3.520,3.000,14.500,-12.000,18.500
3.521,3.500,14.500,-12.000,18.500
3.522,3.500,14.500,-11.500,19.000
3.523,3.500,15.000,-11.000,19.000
3.524,3.500,15.000,-10.500,19.500
3.525,3.500,15.500,-10.000,19.500
3.526,3.000,15.500,-10.000,19.500
3.527,3.000,15.500,-9.500,20.000
3.528,3.000,15.500,-8.500,21.000
3.529,3.000,16.000,-7.500,21.500
3.530,3.000,16.500,-6.500,22.500
3.531,2.500,16.500,-6.500,22.500
3.532,2.500,16.500,-6.000,22.500
3.533,2.000,16.500,-6.000,22.500
3.534,2.000,16.500,-6.000,23.000
3.535,1.500,16.500,-6.000,23.000
3.536,2.000,16.500,-6.000,23.000
3.537,2.000,16.500,-6.500,23.000
3.538,2.000,16.500,-7.000,22.500
3.539,2.500,16.000,-7.500,22.500
3.540,2.500,15.500,-8.500,21.500
3.541,3.000,15.500,-9.000,21.000
3.542,3.000,15.000,-10.000,20.000
3.543,3.500,14.500,-11.000,19.500
3.544,3.500,14.000,-11.500,18.500
3.545,3.500,14.000,-11.500,18.500
3.546,3.500,13.500,-12.000,18.000
3.547,3.000,13.500,-12.000,18.000
3.548,3.000,13.500,-12.000,18.000
3.549,3.000,13.500,-11.500,18.000
3.550,2.500,14.000,-11.000,19.000
3.551,2.500,14.500,-10.000,20.000
3.552,2.000,15.000,-9.000,21.000
3.553,1.500,15.500,-8.500,21.500
3.554,1.000,15.500,-8.000,22.000
3.555,0.500,15.500,-7.500,22.000
3.556,0.500,15.500,-8.000,21.500
3.557,0.000,15.500,-8.500,21.000
3.558,0.500,15.000,-9.000,20.500
3.559,0.500,15.000,-10.000,19.500
